Comp Ch 3,Comp Ch 4
-0.00142078,-0.00552892
-0.0607144,-0.000230816
0.000522102,-0.00464223
0.0459688,-0.0142388
0.0337731,0.0265703
0.00444859,0.028532
-0.000468856,0.0145206
0.0156313,0.00353651
-0.00379453,-0.0174337
-0.0014507,-0.00434453
0.0202325,0.058428
0.00259445,0.0502448
-0.0442887,-0.00596103
-0.0440664,0.0136152
-0.0286247,0.00821753
-0.031688,-0.0176274
-0.0171703,-0.00898517
0.0467018,-0.0734765
0.123406,-0.102094
0.112624,-0.0260253
-0.0325896,-0.0265455
-0.15273,-0.00271342
-0.17978,0.0153837
-0.0677461,0.00626392
0.0747626,0.00984796
0.16686,0.0107968
0.127571,0.021113
0.0659516,0.0174398
-0.0811099,0.0521009
-0.2211,0.130709
-0.22925,0.0925792
0.00554285,-0.0310678
0.193983,-0.0909933
0.245923,-0.127357
0.197694,0.00414123
0.0732787,0.0544789
-0.00280528,0.0663041
-0.0288117,0.101383
-0.0417752,0.0465202
-0.0476806,-0.00496902
-0.0411926,-0.0675494
-0.0298943,-0.0885696
-0.0532538,-0.0602082
-0.0808908,-0.0819548
-0.0509791,-0.014055
0.0113154,0.0792515
0.0243006,-0.0247286
-0.0195704,-0.039338
-0.00869966,-0.0302319
0.0352237,0.00643558
0.0365211,0.02574
0.0101324,0.00863503
-0.0108881,0.0572782
0.0043635,0.136255
-0.0183149,0.0304369
-0.0451279,-0.0759036
-0.0368132,-0.118526
-0.0459543,-0.123316
-0.055921,-0.0942513
-0.0487201,-0.0130522
-0.0209628,0.0747155
-0.057178,0.163195
-0.0889788,0.143458
-0.013581,0.03638
0.127672,0.0498784
0.209933,0.0124401
0.154478,-0.0516771
0.106433,-0.0696064
0.0288002,0.00536639
-0.0956019,-0.0213948
-0.147297,-0.106482
-0.143089,-0.0674565
-0.0170212,-0.0526027
0.0903298,0.00581884
0.055304,0.0350973
-0.0207641,0.086531
-0.0499751,0.0963935
-0.0157569,0.0541806
0.0137283,0.0153057
0.0303098,-0.0225958
0.0395116,-0.0433885
0.0304625,-0.0347051
0.0157332,-0.0213007
0.00617224,-0.0306499
0.00278363,-0.0137175
-0.00168981,0.0268379
-0.0292324,0.0210186
-0.0349821,-0.0178693
-0.0163641,-0.0294386
-0.00443339,-0.0126261
-0.00988838,-0.0103579
-0.014246,-0.0322034
-0.0210086,-0.00605305
-0.0269623,0.025338
-0.0150262,0.0219994
0.0014221,0.0180831
0.00750204,0.0323398
0.04116,0.0192335
0.0814832,-0.0331846
0.0741358,-0.0242381
0.0614526,-0.0194603
-0.0357815,-0.0484323
-0.0704045,-0.0346603
-0.0393066,-0.0818156
0.0175445,0.027889
0.0169227,0.0813149
0.0205103,0.00899176
0.0312339,-0.0133829
0.0078917,-0.00802253
-0.0468967,0.0397686
-0.0325881,0.133218
-0.00420959,0.0480024
-0.0213505,-0.117841
-0.0592245,-0.0411172
-0.0837977,-0.0323304
-0.069523,-0.0568325
0.0344035,-0.111052
0.0940241,-0.182304
0.0971724,-0.066133
0.0496712,0.0779893
0.0019511,0.0310871
0.0152507,0.0447828
0.0470577,0.0840071
0.0504408,0.200325
-0.0236779,0.302122
-0.0747931,0.160154
-0.0595188,0.0352071
-0.0265051,0.0978264
-0.0171102,0.0438631
0.000670967,-0.117364
0.0282565,-0.162588
0.0249884,-0.0937966
0.0339356,-0.0374635
0.107467,-0.0480827
0.118233,-0.0224709
0.0266039,0.144829
-0.0721691,0.0432524
-0.114276,-0.116235
-0.195237,-0.0986748
-0.136887,0.0290702
-0.0409932,0.0695562
0.0366375,0.00812533
0.0555023,-0.0100235
0.00781775,-0.0177479
0.0176588,-0.102678
0.084582,-0.216956
0.163853,-0.15742
0.102952,-0.0250145
0.00193173,0.0275206
-0.0667659,0.0815379
-0.102566,0.0634839
-0.022177,0.0129682
0.0386761,-0.0493186
0.0225185,-0.0295383
-0.022019,0.147154
-0.0585865,0.143509
-0.0441105,0.00284803
-0.0709989,-0.018884
-0.176823,0.0227654
-0.147251,0.0531498
-0.0346892,0.00203632
0.0199554,-0.048897
0.0862772,-0.0519442
0.0710409,0.0787884
0.0474706,0.0681738
0.087155,-0.0772326
0.13933,-0.0334943
0.121899,0.0579561
0.0590471,0.0185434
-0.0113502,0.00396587
-0.0461809,-0.0464223
-0.0219883,-0.142868
0.0202772,-0.0872767
0.0414592,-0.0481055
0.0255378,-0.0215322
-0.0308227,0.0232152
-0.0476066,0.0519007
-0.102441,0.0558644
-0.184559,0.0458289
-0.173671,-0.0230088
-0.00782139,-0.0768393
0.156681,-0.0559805
0.158844,0.0818005
0.126502,0.0968042
0.0294249,0.00695073
-0.0271005,0.0181748
-0.064474,0.00574739
-0.134572,-0.0182716
-0.125468,-0.0244872
-0.0276248,0.00376902
0.198417,0.0108338
0.394549,-0.00977951
0.333522,0.0820869
0.0204091,-0.0541853
-0.207641,-0.0702696
-0.16582,-0.018231
0.0464837,-0.0459106
0.107748,0.0176441
0.13613,0.000372278
-0.0789459,-0.0698179
-0.296123,0.0632996
-0.189329,0.0856091
-0.0524987,0.094919
-0.0619995,0.0730775
-0.138967,0.0279222
-0.0518649,-0.0277178
0.0435966,-0.0454724
0.0223295,-0.0681141
0.0114514,-0.067457
0.0348728,-0.00164321
0.0510236,0.0208304
0.0664507,0.0182304
0.0353998,0.0531891
0.0117746,0.0603364
-0.0183048,0.0425733
-0.00104831,-0.0264023
0.0346621,0.00721633
0.0351639,0.0104516
0.00428325,-0.015051
-0.0126516,-0.00829194
-0.048005,-0.0593149
-0.0869786,-0.0125642
-0.077315,0.0630952
0.0675818,0.0654929
0.0822661,-0.0871506
0.0300154,-0.0806406
0.0435786,0.0163884
0.0631703,0.0529472
0.131708,-0.0175508
0.103383,-0.0684664
-0.13521,-0.0367739
-0.258108,-0.0196775
-0.0667749,0.0051324
0.127476,0.0704017
0.000715726,0.0340507
-0.0483447,-0.015826
0.00749537,-0.0698917
0.0411582,-0.00998958
0.107673,-0.00490531
0.0643738,0.0653847
-0.108665,0.100092
-0.253021,-0.0523197
-0.157285,-0.0188957
-0.0157899,-0.089528
0.0458305,-0.126176
0.0253826,-0.158836
0.000617513,-0.147981
0.0787658,0.0516332
0.157378,0.186071
0.111903,0.22369
0.00145243,0.164201
-0.0623817,0.119749
-0.0299252,-0.0275013
-0.0378582,-0.157356
0.0068324,-0.191358
0.0771284,-0.128771
0.0519659,-0.00701973
0.0223022,0.130872
-0.0170072,0.12355
-0.0232898,0.152307
-0.00100677,0.055512
0.0383551,-0.0768836
0.0557133,-0.0313275
0.0749018,-0.0791588
0.0722798,0.0149595
-0.0279688,0.15623
-0.188552,0.0377067
-0.212861,-0.00826164
-0.225462,0.0263283
-0.184727,-0.044061
-0.0628733,-0.229568
0.0568454,-0.018316
0.132139,0.0596781
0.264092,0.0131924
0.242917,-0.062985
0.140329,0.0147995
0.0330588,0.0917463
0.0212228,0.0263779
0.0787401,-0.027724
-0.0162447,-0.0171431
-0.142255,-0.0185355
-0.139556,0.029655
-0.0688032,-0.0158252
-0.0710235,-0.0597706
-0.0149463,-0.0118979
0.0067566,0.0226111
0.0337618,0.00861175
0.108042,-0.0199182
0.136841,-0.0186874
0.0771504,-0.0380007
-0.0313129,-0.0290812
-0.0901692,0.0648723
-0.0782949,-0.0296369
-0.0696253,-0.000623231
-0.0775336,0.0329661
-0.0354878,0.000186472
-0.0141892,0.00891011
-0.00328091,0.0092049
-0.0512291,-0.05132
-0.0836115,-0.0510534
-0.0790313,-0.00981908
0.0621446,0.0551374
0.16578,0.00938957
0.180569,-0.0124301
0.114315,-0.0138584
0.0175501,-0.0126827
-0.0545499,0.0329291
-0.0685332,-0.0688031
-0.0741753,-0.0548227
-0.0963501,0.154568
-0.0905488,0.0975252
-0.0280653,0.00840989
0.0374336,-0.0538453
0.146353,-0.092918
0.206677,-0.0351763
0.148632,0.0217053
0.0152165,0.0593716
-0.112175,0.0969951
-0.151103,0.0346633
-0.0942451,-0.000464604
-0.0387114,-0.0834565
-0.0232016,0.0386386
-0.0952082,-0.0171981
0.0124413,0.0285988
0.13949,0.0529734
0.0721098,0.016017
0.0831671,0.0332898
0.194182,-0.0119447
0.163738,-0.0827211
-0.109852,-0.0217196
-0.361732,-0.0150494
-0.285606,-0.0943847
0.00271827,-0.0687256
0.0911889,0.042588
-0.0368264,0.0758795
0.0105914,-0.13187
0.166864,-0.134348
0.144237,-0.0132174
0.0140251,0.0607695
-0.167643,0.066568
-0.260627,0.0923565
-0.133587,0.103017
0.0595434,0.0984554
0.0714554,0.0183395
0.00821431,0.000540675
0.0859468,-0.000753196
0.175502,-0.0119288
0.199204,-0.00282507
0.144816,0.0235407
0.101019,0.0247566
0.059343,-0.00363092
-0.0734565,-0.0088249
-0.335541,0.0297685
-0.415905,-0.0159986
-0.113796,-0.0481804
0.272243,-0.0828252
0.294817,-0.0685536
0.109073,-0.0401279
0.0111255,-0.0323483
-0.00656233,-0.0853571
-0.00884512,-0.0205382
-0.0215965,0.0672133
-0.0587069,0.0542533
-0.0241117,0.0189582
-0.0215394,-0.0691101
-0.0638615,-0.0218806
-0.0980878,-0.0412558
-0.067494,0.00898696
0.0605367,0.0359855
0.125595,0.0567333
0.0701189,-0.049774
-0.00610381,-0.100299
-0.061478,-0.022652
-0.0815664,0.179385
-0.048134,0.178711
0.0243497,0.0762111
0.0131352,-0.0329128
0.0432656,-0.0117933
0.108805,-0.00718191
0.119412,-0.0794137
0.0493575,-0.166694
-0.039647,-0.139288
-0.137551,0.116138
-0.182194,0.0911665
-0.139784,0.0434548
-0.0850906,0.0522902
0.0248932,0.0515412
0.0947735,0.118532
0.0829751,0.0780504
0.0785985,-0.0731149
0.0344798,-0.071009
-0.023172,-0.00232134
-0.0118468,-0.00928776
-0.0118164,-0.0418708
-0.0199891,-0.066057
0.0095243,-0.0308235
0.00198124,0.0593126
-0.021505,0.0580227
0.0352402,-0.0375434
0.113379,-0.0807823
0.0806709,-0.0352333
0.0234372,0.0753979
-0.0578965,0.0700787
0.0322555,0.0338424
0.13269,-0.00488717
0.0236494,-0.055958
-0.12254,-0.0541353
-0.240047,-0.029558
-0.211559,0.0151478
-0.0576227,0.0710649
0.029593,-0.0506597
0.0896354,-0.117139
0.0792996,-0.122185
0.0152902,0.00847475
-0.041401,0.0594365
-0.0306616,-0.0227828
0.0379364,-0.0363427
0.142959,-0.0202277
0.17104,-0.103548
0.0587718,-0.0161312
-0.0502085,0.164858
-0.0549875,0.215127
0.0165477,0.0654455
0.0237662,-0.0575728
0.0197413,-0.0580389
-0.00535175,-0.0373058
-0.043477,0.00512084
-0.116032,-0.0319609
-0.159923,-0.00196583
-0.0724162,0.0710929
0.0491532,0.0341498
0.00960342,-0.0261873
-0.0812071,-0.00925262
-0.00834514,0.0675868
0.100905,0.0595179
0.0855561,0.00612689
0.043562,-0.0676395
0.0725405,-0.0669195
0.0838504,0.00393229
0.0924999,-0.00647697
0.0877573,-0.077287
0.0308594,-0.0337148
-0.105367,-0.0737137
-0.190755,-0.0616401
-0.085727,0.0564872
0.041819,0.118399
0.00364074,0.0346813
-0.0594247,0.0104429
-0.060347,0.0514568
0.0280966,0.0376036
0.0613119,-0.0538105
0.0272491,0.0645075
-0.0224961,0.0539331
-0.0605479,0.0523751
-0.00980751,-0.0720451
0.0390576,-0.0679852
0.0365345,0.00256854
0.055333,0.0044768
0.050329,-0.0612362
0.00398618,-0.037649
-0.0333574,0.0138541
-0.0994693,-0.0260706
-0.141105,0.126849
-0.0990048,0.0571294
-0.00389643,0.0386655
0.111223,-0.0107567
0.187679,-0.118395
0.160219,0.00586499
0.0725853,-0.0212061
-0.0279878,-0.0843656
-0.0721956,0.0653736
-0.0664352,0.186432
-0.0869921,0.0972084
-0.15567,-0.0847421
-0.211996,-0.0822584
-0.111933,-0.0190476
0.146553,0.0107231
0.224912,-0.0815799
0.0932502,-0.137701
-0.0463624,-0.0401346
0.0151479,0.0136553
0.0549196,0.0508002
0.00691401,0.110989
0.0412756,0.0306234
0.114269,-0.0647215
0.122004,0.0164802
0.0745764,0.0230664
-0.0485793,0.0286888
-0.133703,0.0509205
-0.10534,-0.0730579
-0.0366105,-0.0575508
-0.0811023,-0.0317067
-0.0995478,-0.0248173
-0.0281418,0.0246141
0.0297472,0.0540332
0.0411916,0.0365635
0.0323608,0.040533
0.0245434,0.0195834
0.0191509,-0.0507094
0.0239039,0.0202706
0.0167751,0.0115427
0.00446317,-0.0606517
-0.0200687,-0.0121029
-0.0233878,-0.0695759
0.01464,-0.111621
0.0570207,-0.0762442
0.0165435,-0.00679591
-0.0240629,-0.00467119
-0.0296829,-0.0369568
-0.0113071,0.0575906
0.0124575,0.0646148
0.0177836,0.0199432
0.00564692,0.0412289
0.00338523,0.105386
-0.0286301,0.0706351
-0.0374259,-0.00196362
-0.0537053,-0.0270127
-0.124876,-0.0586314
-0.149545,-0.0401517
-0.0879717,0.0757833
0.0234264,0.0633844
0.152564,0.0145007
0.192965,0.0104834
0.090536,0.00804697
0.0246562,0.0320253
0.0177461,0.0469858
0.0187914,-0.000104969
0.078785,-0.0141929
0.149508,0.00902461
0.142746,-0.0240124
0.0567818,0.00157387
-0.0726751,0.0277597
-0.145842,-0.00705052
-0.144997,-0.00395583
-0.148907,-0.0105411
-0.102581,0.00717684
0.0160276,-0.0455512
0.0285531,-0.0828204
-0.0448084,-0.0474816
0.00340393,-0.0111024
-0.0131742,0.0179995
-0.0890151,0.0563435
-0.000403437,0.0338296
0.127184,-0.0841092
0.0937457,-0.0251836
0.039559,-0.0212972
0.0139942,-0.12996
-0.0124979,-0.0772467
-0.0319557,0.0480493
-0.0402933,0.0906216
-0.0131404,0.0980905
0.0591418,0.0511185
0.110272,-0.0124865
0.0754373,-0.0377316
-0.00774623,0.00751684
-0.129664,0.0313463
-0.174821,-0.053016
-0.0614463,-0.0523405
0.0220431,-0.0111689
-0.0728816,0.106485
-0.199096,0.0230325
-0.164197,-0.0766524
0.121929,-0.0235366
0.290773,0.0405911
0.218595,0.0384516
0.108251,0.0219775
0.0399479,0.0185393
-0.0299291,-0.00462919
-0.0716818,-0.00634876
-0.0862574,-0.0340147
-0.0506289,-0.0943872
0.0073034,-0.0474903
0.0357612,0.0198414
0.111285,-0.00605876
0.109748,0.0787221
-0.0154784,0.0770577
-0.125243,0.0548688
-0.144527,-0.0105011
-0.0782678,0.0182246
-0.0325439,0.0338922
-0.0653108,0.0144425
-0.0312777,-0.0145935
0.0790812,0.0492328
0.101027,0.0449444
0.101474,-0.035084
0.048986,0.00869382
0.0395336,-0.0201191
-0.0104765,-0.0796656
-0.0231207,-0.0555602
-0.0445125,0.0418089
-0.0614192,0.0716822
-0.0499108,-0.0333866
-0.0342203,-0.0232209
-0.0604618,-0.0215318
-0.0787181,-0.0655311
0.0167488,-0.124537
0.139972,-0.0330682
0.13492,0.0170413
0.0918751,-0.0473049
0.0748281,-0.0789187
0.088518,-0.0145144
0.0189549,0.105201
-0.199292,0.0949683
-0.245377,0.000131698
-0.124937,-0.0540831
-0.00480187,-0.0191615
0.0493783,0.0623839
0.0569876,0.0309814
0.0782524,0.00344154
0.0952523,-0.0143737
0.099458,0.0728829
0.0907799,0.0436581
0.112102,-0.0136383
0.159404,0.0301397
0.0689291,0.00502271
-0.0990656,-3.15e-06
-0.197952,-0.00985259
-0.258009,-0.0601297
-0.195049,-0.0792899
-0.0618583,-0.100733
0.0233481,-0.107656
0.066743,0.00713267
-0.0233619,0.0666056
-0.0227699,0.0280542
0.0361423,0.000572891
-0.0123049,0.0183976
-0.10285,0.0656701
-0.0709683,0.0470435
0.0657698,-0.00337634
0.142415,0.0401599
0.118707,0.022285
0.0937712,-0.00521591
0.0578018,-0.0151199
0.00647982,0.0113886
-0.0329741,0.063133
-0.0309206,0.0813914
-0.00193982,-0.00686732
0.0201053,-0.0887609
0.0512136,-0.079542
0.0571012,0.0417009
-0.0058557,-0.0100319
-0.0570231,0.0490077
-0.0624049,-0.00421519
-0.0354228,-0.0104537
0.00632706,-0.0161211
-0.0128915,0.0678379
-0.0428322,0.058381
-0.0406309,0.0293027
-0.0283245,-0.011729
-0.0463323,-0.0955664
-0.0603974,-0.143024
-0.000303868,-0.106877
0.102805,-0.0671294
0.156935,-0.0242306
0.0993607,0.0562166
0.0335193,0.0830357
0.0132655,0.151916
-0.0503091,0.106258
-0.0660595,-0.00641932
-0.0396215,-0.0123968
-0.0206775,-0.0751797
-0.0593906,-0.11469
-0.0826897,0.00282382
-0.0528657,0.0410328
-0.0196756,0.115751
-0.0116021,0.0875112
-0.0295079,0.00321243
0.0200444,0.0601346
0.143146,0.0206607
0.158806,-0.000826905
0.0486295,0.0202542
-0.0706646,-0.0404863
-0.0511369,-0.0757819
0.0119165,-0.0666646
-0.0969324,-0.0587617
-0.123045,0.0144745
0.009987,0.052033
0.151091,0.00242478
0.124542,-0.0166361
0.0375211,-0.0539524
-0.0574748,-0.112566
-0.124218,-0.035387
-0.0134829,0.0530695
0.0934491,0.0235298
0.108055,-0.00766926
0.0160425,0.000693679
-0.0500478,0.0451877
-0.123182,0.0189615
-0.151123,-0.0638722
-0.0481858,-0.113102
0.129292,-0.143454
0.17837,-0.00277875
0.0865688,0.0798524
0.00567097,0.0211573
-0.0370137,0.0898425
-0.0137143,0.147111
0.0639712,0.0442542
0.158064,-4.94e-05
0.0740732,0.0163321
-0.142559,0.00437855
-0.200422,0.091793
-0.0951996,-0.0175468
-0.0821273,-0.0645464
-0.0702295,-0.0204309
-0.00169122,-0.0300554
-0.0224865,-0.0205469
-0.0563143,-0.0366321
-0.0384255,-0.0481024
0.0613451,0.0335485
0.138296,0.038711
0.0257663,0.0826258
-0.0828183,0.0101688
-0.0917179,-0.0534886
0.0113065,-0.0426748
0.253044,-0.0349957
0.384476,-0.091337
0.276551,-0.0824406
-0.0310892,0.0161476
-0.265248,-0.00522645
-0.293125,-0.0340379
-0.189001,0.0773062
-0.147785,0.122527
-0.213183,0.0914488
-0.236403,0.0255756
-0.0470063,0.00601647
0.248494,-0.0177664
0.350543,-0.017349
0.159296,0.017667
0.0770048,0.0415242
0.12159,-0.00838906
0.0246676,-0.176957
-0.0797531,-0.0493251
-0.0998703,0.0501468
-0.0506558,0.103439
-0.0388703,0.0626759
-0.0316247,-0.0268963
-0.0282188,-0.0252331
0.00279707,-0.0504089
-0.017503,-0.0583421
0.0278028,-0.0242691
0.0575622,0.0187399
0.0672892,0.0212831
0.115756,0.0257001
0.137962,-0.0317136
0.0393188,-0.0472426
-0.125915,-0.0372954
-0.215269,0.00440071
-0.141743,0.0117546
-0.0772338,-0.105934
-0.0183709,-0.0231568
0.0446362,0.165214
0.0491448,0.1412
-0.0172407,0.0221769
-0.0788891,-0.0138317
-0.0531945,-0.0157876
0.0603743,-0.0658447
0.0898478,-0.0965353
0.0602452,-0.0901188
0.0951218,-0.0540729
0.213094,0.167526
-0.0190626,-0.00197132
-0.170022,0.144572
-0.27283,0.142824
-0.217847,-0.0283778
-0.0425835,0.00293547
0.0728087,0.0317897
0.136929,-0.0517683
0.112978,-0.0292249
0.120427,-0.0462262
0.280343,-0.0186929
0.338555,0.0192413
0.142888,0.0257267
-0.07491,-0.0874129
-0.210488,-0.0743645
-0.183822,0.0468526
-0.115368,0.011609
-0.0302187,-0.0191179
0.0757071,-0.00216467
0.121158,0.048373
0.0136232,0.0365469
-0.135583,0.049922
-0.151062,-0.0254597
-0.0644684,-0.0521249
0.0189446,-0.0393466
-0.0321121,-0.0326118
-0.102964,0.00883729
-0.17708,0.0192919
-0.169633,-0.000646782
-0.0115192,-0.0115386
0.0994853,-0.000846375
0.113361,0.00435278
0.0670327,-0.000638567
0.0591343,-0.010574
0.106057,0.0039133
0.0920356,-0.073187
0.0604574,-0.0772827
0.0223035,-0.0105501
-0.049295,0.0300223
-0.0434638,-0.0336959
-0.00428048,-0.0109326
-0.0312834,0.116787
-0.0818637,0.00529716
-0.100192,0.00422658
-0.0645933,0.0308194
0.016811,0.0510116
0.0848566,0.0277116
0.222471,-0.0179554
0.236216,-0.0198832
0.136155,0.0104061
-0.0547579,-0.0175378
-0.238984,0.0746183
-0.224913,0.0460883
-0.146982,-0.0569064
-0.0723923,0.00047361
0.0137904,-0.0434877
0.0520534,-0.0165016
0.0964195,-0.0115518
0.144956,-0.0171269
0.183263,0.0221135
0.167984,-0.02184
0.119633,-0.0322317
0.0884044,-0.0559707
0.0208588,0.0467202
-0.0716499,0.0277744
-0.153372,0.023836
-0.221523,0.0666904
-0.239144,0.02762
-0.157636,0.0501482
-0.045828,-0.0894703
0.0175882,-0.100134
0.0490388,-0.0107451
0.0696983,0.0316452
0.0624188,-0.0518074
0.0821322,0.0272997
0.0358958,-0.0178865
0.00793708,0.025799
0.0183767,0.0563869
-0.00200529,-0.076811
0.0247621,0.00897564
0.0353558,0.0637826
-0.00842451,-0.0273234
-0.0596385,0.0380304
-0.137912,0.069493
-0.135487,-0.0560181
-0.0196295,0.0132721
0.101402,0.0430977
0.155202,0.00311954
0.101871,0.0608185
-0.0325315,0.0199009
-0.130906,-0.102662
-0.132015,0.000278334
-0.0798757,0.0397288
-0.0138428,0.00913797
0.0518446,-0.0339789
0.101366,-0.0474594
0.10486,-0.0466867
0.0707363,0.0264205
0.00815134,-0.00448091
-0.0533533,-0.0126044
-0.0653457,-0.0258582
-0.0439814,-0.0513719
0.0168122,0.0290052
0.0552236,0.014463
0.0467729,-0.0319209
0.0106834,-0.0286758
-0.0260237,0.0304973
-0.0590774,-0.0230627
0.00218555,-0.0354922
0.0843411,0.0382226
0.0900512,0.0633413
0.0256004,0.0372876
-0.0575043,0.148856
-0.110113,0.00935776
-0.0455823,-0.0696476
0.0137417,-0.0866829
-0.0123779,-0.118691
-0.0767081,0.0230683
-0.0719784,0.161365
0.0220631,0.0425364
0.198184,-0.0658528
0.294621,-0.0826225
0.177244,0.00794453
0.0416042,-0.0153466
0.054707,-0.0293629
0.221816,0.0590998
0.0767599,0.0743055
-0.153802,-0.00318277
-0.22472,0.0118329
-0.284194,-0.0227329
-0.318571,-0.0745559
-0.2244,0.0498239
-0.164916,0.102181
-0.0172979,-0.0177671
0.0584194,-0.0777752
0.0306719,-0.0452487
-0.00545662,0.0368444
-0.00832985,0.0631747
-0.0164172,-0.000805435
-0.0126883,-0.0246499
0.0805487,-0.0996843
0.24335,0.0491826
0.435817,0.0897206
0.49251,-0.127919
0.26828,-0.155412
-0.111453,-0.0380678
-0.478852,-0.10644
-0.585375,-0.0387143
-0.308127,0.141515
0.137937,0.150246
0.270462,0.0613388
0.141895,0.0645592
-0.0446827,0.0448929
-0.0769874,-0.00152954
0.0861952,-0.0851419
0.145271,-0.0702729
0.170116,0.0741608
-0.0915297,0.0022884
-0.258787,0.0129142
-0.305712,-0.0524181
-0.25742,-0.0241892
-0.0965716,0.0524855
0.0699812,-0.0259138
0.171452,0.0556574
0.225808,0.0512452
0.146847,-0.00280975
0.0666416,0.0238711
0.0244372,0.0258757
-0.0175293,0.0445043
-0.136103,-0.0199486
-0.201295,0.0205498
-0.161842,0.0139275
-0.104116,-0.0664827
0.00534276,-0.0973126
0.250931,-0.140047
0.405947,-0.0563534
0.433742,0.01832
0.368852,0.0778614
0.108001,0.126463
-0.100755,0.161441
-0.301507,0.0326409
-0.534858,-0.176973
-0.270841,-0.039492
0.0436623,-0.0917277
0.257812,-0.114662
0.296155,-0.058922
0.0138336,-0.0263419
-0.272184,0.0928609
-0.320118,0.0372139
-0.223023,-0.010175
-0.0509981,0.00518007
-0.0265516,0.115627
-0.0141467,0.116008
0.00456539,0.00614979
-0.0562623,-0.0127305
-0.0496173,0.0600273
0.0971374,0.0211367
0.37295,-0.0773304
0.578348,-0.110346
0.44197,-0.113551
0.176687,0.0655275
-0.188659,0.15045
-0.487764,-0.0218359
-0.379643,-0.119024
-0.248755,0.0788966
-0.21941,-0.0174519
-0.0871127,0.0582753
0.00111111,-0.0102189
0.0269428,-0.115026
0.0065186,0.0833592
-0.064241,-0.0681717
-0.000502643,-0.173889
0.113437,0.133432
0.131176,-0.0543508
0.119839,-0.118524
0.0509456,0.0270831
-0.0506987,0.062536
0.0343472,0.106375
0.17026,0.124375
0.212647,0.03358
0.187755,-0.0900643
0.131092,-0.0161043
0.183643,0.0208242
0.090413,-0.0231306
-0.0695146,-0.0689983
-0.0758555,0.0367317
-0.168175,0.175372
-0.371105,0.0103128
-0.431618,-0.229238
-0.261092,-0.189088
0.00277328,0.00723277
0.164492,0.216214
0.169912,0.199038
0.245894,0.0411222
0.323665,0.0635552
0.250743,0.0790281
-0.131599,0.0116709
-0.385835,0.0196785
-0.309812,-0.0248235
-0.150038,-0.0121894
0.0910692,-0.0283513
0.235402,-0.124043
0.167402,-0.248381
-0.110761,-0.193588
-0.243645,-0.0668977
-0.204618,-0.0440624
0.0207356,0.160152
0.0361691,0.131855
-0.0320329,0.00127071
0.0855852,0.00468527
0.125468,0.0217959
0.146143,0.0452201
0.107751,0.0669985
-0.0183474,-0.0319509
-0.0270302,-0.0237885
0.1093,-0.0105979
0.04799,-0.0290146
-0.190195,0.0103071
-0.276772,0.00385517
-0.0846133,0.03255
0.251609,0.131354
0.388447,0.0205361
0.336574,-0.138244
0.220997,-0.118346
0.175238,0.0961856
0.430634,-0.00490893
0.402357,-0.100523
-0.0280658,-0.293935
-0.607835,-0.243641
-0.735602,0.0332697
-0.545886,0.152928
-0.515149,0.144685
-0.386882,0.213724
0.0156883,0.206671
0.243709,0.226375
0.181755,0.125685
0.0900578,-0.0010484
-0.000417384,-0.0135388
-0.177625,-0.0330801
-0.0705764,-0.0596399
0.0840012,-0.129438
0.230866,-0.111074
0.191513,-0.0447656
-0.00012918,0.0304996
-0.0281288,-0.00996902
-0.0649864,0.00398578
-0.12111,0.0917291
-0.0392006,-0.0628088
0.0399804,-0.00106126
-0.0347317,-0.0343462
-0.147291,-0.091699
-0.193754,-0.103511
-0.0500809,-0.0881618
0.269543,0.0419102
0.45827,0.100957
0.371244,0.120247
0.289188,0.104782
0.201185,-0.00720607
0.205074,-0.108754
0.0653809,-0.0967116
-0.211514,0.0410438
-0.4238,0.0166359
-0.413807,-0.0665712
-0.237966,-0.0673946
0.119396,-0.0477911
0.51707,0.0225059
0.420183,-0.0448686
0.242637,-0.120319
-0.24377,-0.0823896
-0.717733,-0.101973
-0.501037,0.023506
0.135526,0.114287
0.850271,0.254804
1.0961,0.303776
0.489036,0.132703
-0.602848,-0.0241434
-1.21958,-0.0631301
-1.14556,-0.100695
-0.557868,-0.0649396
0.0337309,-0.0457832
0.336785,-0.146512
0.354978,-0.157706
0.20493,-0.0913702
0.0559282,0.0930503
0.0213873,0.144288
0.11986,0.0942856
0.229731,0.195871
0.182318,0.320552
0.00558571,0.0437756
-0.201133,-0.0804993
-0.357293,-0.0719822
-0.273109,-0.0617433
-0.054291,0.00621072
0.179365,-0.0915622
0.319624,-0.247462
0.385914,-0.201842
0.311175,-0.0913893
0.0920972,0.120233
-0.0467101,0.149165
-0.125721,0.0697713
-0.0755374,0.0646804
0.0178354,-0.10482
-0.00883929,-0.0198076
-0.116767,0.185519
-0.253178,0.143281
-0.254443,-0.079849
-0.0831199,-0.0477448
0.119833,-0.041293
0.0825917,-0.0218931
-0.0395096,0.0141398
0.0723359,-0.0107511
0.305054,-0.0031711
0.383445,-0.0877152
0.34553,-0.183823
0.0764777,-0.150297
-0.187201,0.106494
-0.212241,0.149903
-0.231976,0.0171908
-0.17216,-0.00726501
-0.177262,-0.0347851
-0.152999,-0.102172
-0.100418,-0.110623
-0.0824531,-0.0171343
-0.119265,0.159719
-0.140808,0.135393
-0.0770672,0.0573946
-0.0286781,-0.0142526
-0.0227213,-0.0502537
0.108028,-0.0785614
0.216884,-0.0423954
0.229293,0.0344947
0.184779,0.0494225
0.10913,0.0527003
0.0164941,0.0335031
-0.047792,-0.0198556
-0.000843813,-0.0901519
0.0764891,-0.12784
0.08998,-0.0152562
-0.0317621,0.109149
-0.069763,0.0588191
0.00141228,0.006945
-0.0211468,0.029716
-0.0783834,-0.0117462
-0.0991907,0.0844574
-0.055831,0.0907348
0.0246516,-0.0411157
0.0648672,-0.0565378
0.0555251,0.0510839
0.0302682,0.0478639
0.0131726,0.00790721
-0.0135525,0.0460402
-0.0479141,0.0170207
-0.0730307,-0.0347897
-0.0680968,-0.0617944
-0.0349113,-0.135537
0.0676547,-0.180481
0.206567,-0.11881
0.283032,0.126309
0.202512,0.115804
0.0408067,-0.0166835
-0.162349,0.00893155
-0.186518,0.0773243
-0.0122615,0.0782334
0.145754,0.0540259
0.157729,0.0361946
-0.0208484,-0.0225938
-0.127618,-0.00249148
-0.162033,-0.00341596
-0.161984,-0.0496614
-0.104737,-0.0200489
-0.189641,-0.0214345
-0.22643,-0.0249819
-0.088151,0.0745053
-0.000543769,0.00834514
0.0664036,0.065508
0.18695,-0.0277115
0.3026,-0.0807894
0.287225,0.0536617
0.0893413,0.0300712
-0.202066,-0.0193219
-0.347903,-0.0667677
-0.287633,-0.0663398
-0.157758,0.0118393
-0.0897382,-0.0417957
-0.0247003,-0.109258
0.113486,-0.131562
0.248413,-0.160591
0.215864,0.0693443
0.125473,0.154125
0.0314514,0.144929
-0.0277284,0.0945687
0.0017601,0.0634407
-0.0173904,0.0571087
-0.0813314,0.0184482
-0.0960022,-0.0266518
-0.0910031,0.0218834
-0.0596604,-0.00191182
0.0268762,-0.00264786
0.151727,-0.00750618
0.308837,-0.0566731
0.568467,-0.0583658
0.792918,0.0462116
0.59366,0.107102
-0.0485362,0.019766
-0.820485,-0.0979445
-1.04097,-0.0846469
-0.621584,-0.00784429
-0.228628,-0.0550141
-0.0717147,-0.0942748
0.0580328,-0.0229835
0.131457,0.0317367
0.068188,0.00734546
-0.0233078,0.0895182
-0.0531141,0.0542034
-0.00732724,-0.00729348
0.066333,0.000581961
0.101504,-0.0085363
0.141249,-0.0296014
0.211518,0.0286516
0.231497,0.0139144
0.14854,0.0464076
-0.0458552,-0.0373774
-0.170967,-0.0613007
-0.163597,-0.022525
-0.113066,-0.0255771
0.0166345,-0.0440162
0.144416,-0.0336263
0.112824,0.0522648
0.0447338,0.097708
0.00224207,0.123412
-0.0387929,-0.0865511
-0.056761,-0.0717302
-0.0619158,-0.0378923
-0.0588366,0.00756427
-0.0676811,0.0385015
-0.0612114,0.0385334
-0.0240955,0.00435186
0.0168599,0.0183604
0.0551416,0.066974
0.0608121,0.0495487
0.0312502,0.00655655
-0.0135758,-0.0127973
0.0069896,-0.0447145
0.0772182,-0.0780518
0.0869875,-0.0817545
-0.0159567,-0.0770644
-0.130364,-0.034806
-0.128391,0.0795667
-0.0336545,0.015534
0.0282314,-0.0755999
0.0300824,-0.0214969
-0.00818559,-0.0107059
-0.0778679,0.113079
-0.104233,0.111143
-0.056884,0.0483281
0.0394533,0.0208581
0.0689301,-0.0012093
0.0429981,0.0212853
0.0218125,0.00063544
0.0386352,-0.0373704
0.0739378,-0.0087845
0.126167,-0.0173389
0.207933,-0.0134558
0.37637,-0.0192138
0.449878,0.00513692
0.325669,0.04408
0.00121821,0.0289823
-0.322558,0.0105715
-0.510711,-0.0436371
-0.389179,-0.0187214
-0.2127,0.0209182
-0.16453,-0.00708977
-0.171168,-0.0492739
-0.1355,-0.0549831
0.0161571,-0.00117788
0.125902,0.0937545
0.149606,-0.0223701
0.133684,-0.00103065
0.0262759,-0.0313576
-0.069063,-0.022986
-0.0215238,-0.0164037
0.0152803,0.0262679
0.0204011,-0.0365167
-0.0596368,-0.0499343
-0.139307,-0.103035
-0.0819781,-0.0747676
0.0221724,0.0641524
0.097032,0.132947
0.0989378,0.0344434
0.0309498,-0.0347243
-0.0264052,0.00505477
-0.032961,0.0725718
0.00971004,0.145403
0.0250269,0.0587152
0.00963995,-0.0477267
-0.0461173,-0.0971873
-0.0853455,-0.0881794
-0.083823,0.0327039
-0.0376675,0.0642634
0.00944297,0.0297668
0.026306,0.0167619
0.0466206,0.0153877
0.0957001,0.00899818
0.170272,-0.0430641
0.260702,-0.160425
0.33283,-0.101625
0.26175,0.0680173
0.156496,0.136403
0.0511124,0.0739621
-0.0407028,0.0577585
-0.134078,-0.000528484
-0.124002,-0.0225898
-0.141833,0.00130738
-0.184658,-0.0718753
-0.101145,-0.135259
-0.0917271,-0.019041
-0.295331,0.0418916
-0.246682,-0.0950586
-0.0859323,-0.0541772
-0.0144441,0.108307
0.0246229,0.15287
0.080173,0.0385267
0.0822327,0.00643661
-0.00557071,-0.00534503
-0.0633188,-0.0258462
-0.0559918,-0.0381897
-0.0133285,-0.045167
0.0296958,-0.0205906
0.0434133,0.00119485
0.0393889,0.00286329
0.0464652,-0.0237588
0.0677785,-0.058539
0.0615141,0.00371927
0.0460767,0.0672973
0.030423,0.0287771
-0.00892373,-0.0572709
-0.0313225,-0.0199859
0.00181918,0.0048548
0.0602873,0.0401541
0.0598177,0.0034913
0.0195522,0.0120124
-0.0305838,0.039124
-0.0513847,-0.018631
-0.0444949,-0.0313243
-0.031422,-0.0405661
0.0371179,-0.0151372
0.170976,0.0763521
0.211869,0.08107
0.126328,-0.0624602
-0.0233371,-0.0882638
-0.174409,-0.0555453
-0.232319,-0.0235906
-0.187048,0.0386191
-0.0258288,0.0831961
0.145849,-0.0367868
0.247908,0.0149388
0.284068,0.138962
0.183454,0.0764283
0.0481112,0.0107102
-0.0288308,-0.0514836
-0.112852,-0.0606796
-0.226372,-0.0154012
-0.243239,-0.016886
-0.162547,0.0708821
-0.117435,-0.0237896
-0.136229,0.00795558
-0.0345612,0.0624765
0.0417705,0.0205596
0.0273191,-0.00870999
0.0094758,-0.0423718
0.00924109,-0.0535965
0.0179945,-0.00186526
0.0507185,0.039719
0.0208212,-0.014265
-0.0480731,-0.0781042
-0.0591029,-0.0478515
-0.0106796,-0.0902176
0.0349161,-0.0559225
0.0292051,-0.0259785
0.00902423,-0.00165445
0.00293551,0.0701877
0.0409044,0.0474963
0.0945224,0.0316505
0.110918,0.0657153
0.0832753,0.0475479
0.01522,-0.0203263
-0.0147123,0.0329418
0.0173695,0.0110396
0.0654011,-0.0924326
0.057022,-0.0228241
-0.0186445,0.03143
-0.122413,0.0389538
-0.144479,0.0587151
-0.121375,-0.00779642
-0.0441711,-0.0767743
-0.00263431,-0.0284738
-0.0162072,-0.0323887
0.0146259,-0.0153379
0.0492906,0.0246411
0.0327225,0.0128504
0.0262663,0.0266644
0.0105123,0.0195517
0.023048,0.0230889
0.013143,0.0335079
0.0320047,0.0780233
0.0698308,0.0856031
0.0788794,-0.02951
0.0900506,-0.0889268
0.0500385,-0.0853306
0.0180077,-0.0623793
0.00466847,-0.038436
-0.0277084,-0.0187578
-0.0508348,-0.042644
-0.0367604,0.026633
-0.0648712,0.0549743
-0.0751732,0.0275697
-0.0198987,0.0406239
-0.00628633,0.00865284
-0.0122635,-0.028162
-0.0698545,-0.0807197
-0.0909078,-0.0696889
-0.0444796,0.0335394
-0.0198245,0.0860738
-0.0391589,0.0722758
-0.0269774,-0.0561612
0.00893197,-0.126029
0.0360985,0.0213397
0.0952182,0.0885338
0.127608,0.0817916
0.149656,0.0878502
0.13561,0.0237767
0.0803683,-0.0812928
0.0439282,0.0193984
-0.00278683,-0.0142349
-0.0458561,0.0281911
-0.123556,0.0913596
-0.128788,-0.106204
-0.045696,-0.141798
-0.0712502,0.00506198
-0.0758286,0.0748229
-0.0538106,0.034802
-0.0571826,0.0320895
-0.0638607,0.01581
-0.0426956,-0.0210063
-0.0225208,-0.0123096
-0.0189164,-0.0102954
0.00505354,0.0108437
0.0164297,-0.0243354
0.0508749,0.0271124
0.0900526,0.0427228
0.0954796,-0.0803791
0.0826602,-0.0258566
0.035134,0.00724446
-0.0157258,-0.0138214
-0.0188087,-0.00844752
0.00318824,-0.0501386
0.0259065,0.0228054
0.0308232,0.0149141
0.0341042,0.00310266
0.0329524,-0.112023
0.0677919,-0.0732896
0.0416928,-0.0668742
-0.0504499,0.0534176
-0.0843349,0.0675961
-0.0558424,0.0334352
-0.0229186,0.0772981
0.0452258,0.0151428
0.119546,-0.0257905
0.0955741,-0.0657943
0.0673775,0.0527785
0.0157242,0.00775906
-0.073766,-0.0355862
-0.0844512,0.0234582
-0.0644814,0.0640105
-0.0521564,0.0380606
-0.0169828,-0.0119105
-0.0522935,-0.00318794
-0.104756,0.0229029
-0.0757767,0.0449288
-0.0360301,-0.000619597
0.0101112,0.0167606
0.0354958,0.00948858
0.0192584,-0.0175722
-0.0174722,-0.00844385
-0.0143301,-0.00953585
0.023412,-0.0132279
0.00749325,-0.0300383
-0.0250596,-0.0586356
0.00425093,-0.0659195
0.0586072,-0.0817447
0.0938925,-0.0646746
0.0725628,0.0571432
-0.00299895,0.0975067
-0.0244651,0.0985425
-0.00829601,0.0285273
-0.00989918,-0.0105781
-0.00769237,0.0144042
-0.0113933,-0.004569
-0.0400905,0.014047
-0.0106224,0.0170282
0.0421488,-0.0234095
0.0444916,0.0503709
0.041534,-0.0492812
0.000425411,-0.0403968
-0.0619914,-0.014933
-0.0203619,-0.0367665
-0.0101089,-0.00881793
-0.00310158,0.0660521
0.00235868,0.0307697
-0.0265624,-0.0567554
-0.033915,-0.0757716
-0.0173225,-0.0509951
-0.00696934,0.0302822
-0.0056636,-4.17e-05
0.011076,0.0368949
0.0311494,0.0292853
0.0467481,0.0546467
0.0411532,0.0286898
0.0387292,-0.0109425
-0.00873675,-0.0117561
-0.026271,-0.0621366
0.0191295,0.000686948
0.0318181,0.020053
-0.008523,-0.0352671
-0.0520239,-0.0353519
-0.0486284,0.0057752
-0.022343,0.0356253
0.00181025,-0.0267802
0.00146277,-0.052462
-0.0339899,-0.0211021
-0.0447367,-0.0566675
-0.00829346,0.046379
0.0130064,0.0295248
0.0148898,-0.00209438
0.036448,0.126513
0.0700927,0.191044
0.0943384,-0.0137884
0.157188,-0.0561208
0.140273,0.0493758
0.0880653,-0.0201282
-0.00799825,-0.0308083
-0.104589,0.0599348
-0.146632,0.00500939
-0.164332,-0.113812
-0.10627,-0.137776
0.0250615,-0.0333467
0.0762924,0.0864445
0.00252397,0.066173
0.0178447,0.0563406
0.0658262,0.0798723
0.0316069,-0.0137887
-0.0382926,-0.0736441
-0.0848346,-0.0391473
-0.0821648,-0.0269577
-0.11476,-0.0405041
-0.0650812,-0.0558753
-0.0114258,-0.0235627
0.0048867,0.0332485
0.0206394,-0.0226875
0.0296659,-0.0207951
0.0410818,0.0527765
0.0220665,0.0866862
-0.00780511,0.00268338
-0.00618382,-0.000930953
-0.00422682,-0.0327963
-0.00274536,-0.0337875
2.96e-05,-0.00978034
-0.0128905,-0.0149518
-0.029115,-0.00130754
-0.0299858,-0.0119594
-0.000323337,-0.0214962
0.0466758,-0.0312233
0.0676938,0.00856097
0.0652838,-0.0221387
0.0363126,-0.0132283
-0.0215185,0.037247
-0.0306859,0.0333252
0.0582449,0.00728218
0.180289,0.0519424
0.190734,0.0801763
0.173663,-0.0417613
0.0268285,0.0451606
-0.138865,0.057384
-0.107596,-0.0586803
-0.0727826,-0.0772685
-0.127909,-0.0426605
-0.18101,-0.0334076
-0.107144,-0.0282914
0.0156371,0.00188011
0.0246774,0.033425
0.00872598,0.0366915
0.0100241,0.0339203
0.00713121,0.0415591
0.0592299,0.0386266
0.0329029,0.0361488
-0.0515672,0.024576
-0.0644634,-0.0474751
-0.0513555,-0.0422659
-0.0157976,-0.0126463
0.00252926,-0.008166
0.00244266,-0.0160098
0.00364403,0.0104001
0.0186605,0.00634891
0.0338596,-0.00680945
0.0370162,0.00612692
0.0240674,0.0198036
0.00929916,-0.0135981
8.35e-05,-0.065607
-0.00206929,0.00200337
-0.0119002,0.0114741
-0.0274061,-0.0434111
-0.0343267,-0.0286481
-0.0214965,0.0186305
-0.0103573,0.012409
0.00612283,0.0250735
0.0305794,0.00751818
0.0306221,-0.0149708
0.0138701,-0.0605358
0.0382539,-0.138402
0.0995325,-0.0778321
0.131007,0.0802165
0.128343,0.158467
0.0537131,0.0366708
-0.0439913,-0.0114662
-0.100475,-0.025593
-0.0726112,0.00603994
-0.0823581,0.0739389
-0.117881,0.0262213
-0.0870093,0.0307731
0.011634,0.00659388
0.0877187,0.0115731
0.129636,0.0139854
0.13365,-0.0149941
0.116866,0.0391474
0.0734096,0.0129058
-0.0843404,-0.0742652
-0.21243,-0.0619823
-0.101512,0.068304
-0.00761297,0.0702298
-0.00625279,0.000732088
-0.035566,-0.0557112
-0.0510264,-0.0146628
-0.0479357,0.0263325
-0.0455589,0.0570944
-0.0459789,-0.00637443
-0.0207336,-0.0469298
0.0117011,-0.0271254
0.026899,-0.0253275
0.0262986,-0.0282137
0.013406,-0.0223367
-0.00390215,-0.00600303
-0.00811385,0.00714357
0.00832404,0.00173762
0.0283975,-0.0131318
0.0288936,-0.0165379
0.0144876,-0.00800827
0.00814923,0.00098479
0.011988,0.00508277
0.0139076,0.00690109
0.00495454,0.00394874
-0.00854266,0.0019761
-0.0285894,-0.0253544
-0.0361407,-0.00739922
-0.0185049,0.0234506
-0.00689437,-0.03504
-0.00690448,-0.0219647
-0.0200699,-0.0204014
-0.0283002,-0.00684312
0.00578939,0.00946145
0.0773613,0.0505762
0.172245,-0.034464
0.234212,0.0725756
0.22592,0.0648546
0.175836,-0.0914274
0.143503,-0.104388
0.14981,-0.0287655
-0.0126466,-0.0155855
-0.284591,-0.00727949
-0.400764,0.0553453
-0.323662,0.179579
-0.210474,0.14903
-0.0685855,-0.00728588
-0.00333402,-0.00788431
0.0183255,0.0168235
0.0300652,0.0247384
0.000959662,-0.0299045
-0.0260397,-0.0768805
-0.0283163,-0.102993
-0.0064883,-0.0831446
0.0485026,-0.0349212
0.0551476,0.023614
0.0251549,0.118685
-0.000721234,0.116901
0.0343293,0.0414387
0.0559991,0.00362408
0.0537382,-0.0250739
0.0566764,-0.0404187
0.0557668,-0.0435455
0.0367699,-0.0386279
0.0132936,-0.0194902
-0.00955613,-0.00189543
-0.022696,0.00392774
-0.0274701,-0.00231615
-0.0261257,-0.00696022
-0.0307224,-0.00404886
-0.034216,0.00100139
-0.0296349,0.00200023
-0.0199288,-0.00218058
-0.00929151,-0.00207764
-0.00631275,0.000351581
-0.0013331,0.000456734
0.000432574,0.00415416
0.0086803,0.000876542
0.0163056,-0.0145101
0.00764917,-0.0133269
-0.00424289,0.000676256
-0.0110937,-0.00112023
-0.0235384,-0.0216193
-0.0197658,-0.0837017
0.000944419,-0.122554
0.0110151,-0.0410524
0.0640211,-0.121904
0.210791,-0.0522676
0.2852,0.0556488
0.26957,0.118998
0.110353,0.215559
-0.0614472,0.0706194
-0.155894,0.0728912
-0.241879,0.0401694
-0.254444,0.0773426
-0.121397,0.0479094
0.00819026,-0.0728666
0.0149343,-0.00917878
-0.0669089,0.0415591
-0.0938609,0.00990152
-0.0787274,-0.0270363
-0.0165135,-0.0252584
0.0151471,0.00784222
-0.0157755,0.0306025
-0.0381935,-0.0213571
-0.0406971,-0.0357575
-0.0502651,-0.0382769
-0.0170682,-0.0354595
0.0624674,-0.0376201
0.103528,-0.031924
0.0949635,-0.0262757
0.0877699,-0.0339584
0.0801966,-0.0240017
0.0618632,-0.00412165
0.0453916,0.000673562
0.0182358,0.0128144
-0.0106364,0.0379654
-0.0233402,0.0276419
-0.0293268,0.0175234
-0.0381213,0.0163741
-0.0416947,0.0156171
-0.0376197,0.0156676
-0.0300014,0.00902965
-0.0214734,-0.00335649
-0.0104541,-0.00829925
-4.54e-05,-0.00835707
0.00882574,0.00147289
0.0246197,-0.00768402
0.0198287,-0.0213132
0.0148255,-0.0587616
0.0118593,-0.0889259
0.00181378,-0.0880864
-0.0105553,-0.0472458
-0.0341891,0.0366946
-0.0453438,0.034749
-0.0288444,0.00497431
-0.0110346,-0.126291
0.0283481,-0.162785
0.0924473,-0.0595123
0.157341,0.0919935
0.212934,0.2571
0.232676,0.321898
0.21817,0.120635
0.104557,-0.0221807
-0.102477,-0.0241139
-0.270741,0.00966524
-0.340936,-0.0125471
-0.274873,-0.0133094
-0.178585,0.0336582
-0.118454,0.0615721
-0.063229,0.0270319
0.00726254,-0.0151918
0.0656822,-0.0475591
0.0710924,-0.0364095
0.0304254,-0.0211138
0.014036,-0.03048
-0.00894499,-0.0411197
-0.0179558,-0.044063
0.012348,-0.0370267
0.045223,-0.0247644
0.064678,-0.0238611
0.0677067,-0.0384603
0.0574956,-0.0499292
0.0642477,-0.00237978
0.0616853,0.0329386
0.0423332,0.0467648
0.0224329,0.0403
0.00450713,0.0213828
-0.0185274,0.00794388
-0.0428248,0.0120536
-0.0583668,0.0308607
-0.0650522,0.00506371
-0.0543512,-0.075903
-0.0370791,-0.100702
-0.0358212,-0.0593035
-0.0337291,-0.012066
-0.00958808,-0.0116494
0.0177845,-0.0274563
0.0446968,-0.0293436
0.0573968,-0.0372944
0.0457645,0.0206141
0.0217633,0.0292979
0.00932755,-0.0375041
0.0319468,0.0423913
0.048175,0.179379
0.0242197,0.152211
-0.0101815,0.0702678
-0.0111494,0.0893247
0.0399398,0.0228921
0.06365,-0.0762607
0.0778073,-0.0847458
0.118642,-0.0940089
0.0905609,-0.0669982
-0.0244887,0.0126481
-0.109528,0.0918416
-0.109258,0.0310438
-0.0132212,-0.0940622
0.0559192,-0.0486754
-0.0165183,-0.0474156
-0.158698,-0.036264
-0.175521,-0.0475422
-0.121705,-0.031132
-0.109747,0.00977207
-0.0932059,0.0780322
-0.0463242,0.088115
0.0219901,0.0820058
0.0708969,0.0401345
0.0521914,0.0138148
0.0105017,0.0210963
-0.00554049,0.0298234
0.0134351,-0.0188204
0.0579963,-0.0367684
0.0722796,-0.0317996
0.0552525,-0.0377342
0.0498345,-0.0382489
0.0591842,-0.0231427
0.0602427,-0.0151266
0.0355855,-0.0210463
0.00136259,-0.0100155
-0.0263535,0.0143619
-0.0389261,-0.0221774
-0.0367426,-0.0378351
-0.0407415,-0.0223826
-0.0485141,0.0356592
-0.0491915,-0.0114989
-0.0329163,-0.0572363
-0.0176966,-0.0225513
0.00688627,0.0462875
0.0350649,0.0475375
0.0517914,0.0462658
0.0582716,0.045744
0.0850079,0.0609356
0.098039,0.141611
0.0470907,0.000676669
-0.0154402,-0.0736107
-0.0311595,0.00955961
-0.0571974,-0.0370662
-0.0143891,-0.0110048
0.0554814,-0.0485881
0.0531395,-0.0103392
-0.00952773,-0.0849497
-0.0270493,-0.153221
0.0208344,-0.0144764
0.0630259,0.000289123
0.104478,0.0228479
0.0762334,0.025169
-0.0193744,0.0540043
-0.117203,0.0825684
-0.146244,0.108009
-0.128315,0.0321234
-0.0829214,-0.00450888
-0.0578782,0.0227762
-0.0417205,-0.0172638
-0.0456516,3.82e-05
-0.0762859,-0.0112528
-0.0540855,0.000422816
-0.00352412,-0.00238392
0.0282133,-0.0299787
0.0190786,-0.0326188
0.00754371,0.00643441
0.0236847,-0.00103577
0.0451198,-0.0378921
0.0572544,-0.0524451
0.0626764,-0.0339663
0.0694222,0.0205699
0.0669793,0.0342539
0.049585,0.0149622
0.0271131,0.00639159
0.00967007,0.00495257
-0.00778946,0.0077293
-0.0212082,0.00551549
-0.0272005,-0.00164649
-0.032862,-0.00525634
-0.04103,0.00256305
-0.0421316,0.0087652
-0.0324616,0.00380633
-0.0173952,-0.00144012
-0.000553137,-0.00728039
0.0141182,-0.0087864
0.0231119,-0.00236925
0.0245553,0.00578181
0.0207851,0.0111341
0.0102581,0.0162645
-0.00260872,0.0181421
-0.0139407,0.0156644
-0.0230714,0.016761
-0.0339867,0.0150974
-0.03864,-0.0032651
-0.0255194,-0.0412898
-0.00252406,-0.0666756
0.0435453,-0.133178
0.14758,-0.191411
0.289372,-0.147562
0.320596,-0.0744563
0.216461,-0.0835991
0.0903203,0.0147869
-0.0586882,0.149785
-0.237762,0.180731
-0.270123,0.15246
-0.241792,0.0197928
-0.198516,0.145478
-0.0763091,0.216418
-0.0248819,0.0295959
-0.0795622,0.0257618
-0.11072,0.0506446
-0.0640994,0.0254874
-0.0379365,-0.0302254
-0.0233436,-0.0232231
-0.0270435,-0.0343094
-0.00136596,0.00227756
0.0285272,0.034175
0.0835802,-0.00854882
0.126771,-0.0303239
0.116337,-0.0390456
0.105006,-0.0899854
0.0768671,-0.100056
0.0341352,-0.0513947
0.0340587,-0.0220386
0.0469515,0.0124387
0.029229,0.00384136
0.00274164,-0.017466
-0.0155129,-0.00967788
-0.0255874,-0.00455071
-0.0455709,0.00990131
-0.0748351,0.0212595
-0.0804142,0.0151187
-0.0618082,0.00869327
-0.0322398,0.00440761
-0.00168131,-0.0101143
0.0123719,-0.0161267
0.0178992,-0.0147666
0.0299524,-0.0126864
0.032603,-0.01198
0.0230226,-0.0124028
0.0143009,-0.0150611
0.00702291,-0.0135804
-0.00404697,-0.00354284
-0.0136504,0.0046003
-0.0264342,0.00446074
-0.0379126,0.012173
-0.0470405,0.0305767
-0.018645,0.04345
0.0419476,0.0410256
0.118503,0.0345933
0.169078,0.001615
0.199259,-0.0568065
0.20831,-0.0814819
0.107896,-0.0598451
-0.0333675,-0.107999
-0.1077,-0.106838
-0.119535,-0.0635381
-0.157427,0.0317765
-0.112527,0.101833
-0.00694821,0.0712522
0.00281239,0.0490361
-0.0481836,-0.0115708
-0.117255,0.00626527
-0.14467,0.0303725
-0.0986995,0.0576306
-0.0867721,0.146594
-0.0631943,0.0490472
-0.0214857,0.0690649
0.00318875,-0.00695398
0.009801,-0.0537314
0.0410711,0.0243177
0.0764144,0.0227643
0.0989147,0.0101208
0.0804078,0.0143105
0.0600482,0.0153174
0.0570185,-0.049161
0.0517951,-0.0634415
0.0362888,-0.0431426
0.0135449,-0.0352349
-0.0172977,-0.0379058
-0.042322,0.026828
-0.0407205,0.0539927
-0.0377276,0.0115394
-0.0340429,-0.00164203
-0.0239912,-0.0112108
-0.0105383,-0.0195568
0.000147513,-0.0165246
0.00830501,-0.0209969
0.0109761,-0.0156844
0.00870252,-0.0155986
0.0099064,0.00123724
0.0109477,0.00483948
0.0142793,-0.00426819
0.0132515,-0.0126808
0.00160993,-0.0319588
-0.0194987,-0.00557971
-0.0328299,0.0269017
0.0057923,-0.00910128
0.0691846,0.0756881
0.124667,0.024064
0.19584,-0.157288
0.232576,-0.202169
0.159069,-0.0401396
0.0651158,0.0944769
-0.0434583,0.07208
-0.076182,-0.0203532
-0.0488315,-0.0244701
-0.184803,0.0175094
-0.38997,0.0176051
-0.297246,-0.0132957
-0.0806464,-0.0049763
-0.00275907,0.0973231
0.028968,0.125032
0.0393894,0.0178616
0.031775,0.0752164
0.00250422,0.0915913
-0.0431387,0.0499171
-0.0701421,0.00334006
-0.0562828,-0.0237029
-0.0138173,-0.0427685
0.0503351,-0.0377519
0.0810836,-0.0227479
0.103846,-0.0122437
0.111399,-0.0121706
0.107241,0.0260145
0.0788256,-0.0249163
0.0361913,-0.0422199
0.0169699,-0.025066
0.0139657,-0.0292226
-0.00841519,-0.0329858
-0.0298571,-0.0326827
-0.0429728,-0.0099039
-0.0593071,0.0266619
-0.0682807,0.0190348
-0.0563434,0.00890535
-0.0268148,0.00773544
-0.00112734,-3.18e-05
0.012797,-0.00490991
0.00506045,0.00740052
-0.0133736,0.0211223
-0.00576715,0.0163606
0.0147457,0.000295908
0.025444,-0.00971
0.017326,-0.00933576
0.0162947,-0.00274828
0.0404072,-0.00767059
0.0638581,-0.034847
0.0804118,-0.0550042
0.117427,-0.0755594
0.187802,-0.0734348
0.173024,0.00115424
0.0872293,-0.0572823
-0.0473378,-0.0676497
-0.1415,-0.0314848
-0.195008,-0.0071521
-0.136966,0.165344
-0.0918793,0.151092
-0.0538644,0.00602012
-0.0288359,-0.0463949
-0.068027,-0.0216944
-0.094258,0.0656428
-0.0603181,0.137438
-0.0385888,0.090216
-0.00734985,0.0892604
0.00389328,0.0574124
-0.00938904,-0.0153459
-0.0136952,-0.0728703
-0.00828874,-0.054866
-0.0122376,-0.00979303
-0.00989837,-0.00431389
0.0250836,-0.0500431
0.0572038,-0.0260266
0.0647297,0.00902443
0.0711872,0.0106228
0.0889436,0.00548006
0.104416,-0.00204165
0.087537,-0.00831837
0.0392698,-0.0358293
-0.0166617,-0.0353883
-0.044012,-0.0170592
-0.0554011,8.65e-05
-0.058493,0.00486445
-0.0691676,0.00200286
-0.0735582,0.003208
-0.0576273,0.00664118
-0.02229,0.00589482
0.00928756,0.00665198
0.0249624,0.00368836
0.0380176,0.00119394
0.0308251,0.00488294
0.0309273,0.00274379
0.031003,-0.00302077
0.0207435,-0.00684699
0.00542265,-0.012232
-0.0143741,-0.0169154
-0.0245074,-0.016495
-0.0205102,-0.0215981
-0.0174923,-0.0621577
-0.00683457,-0.108117
0.0468318,-0.0821145
0.147704,-0.0875313
0.230994,-0.053495
0.205053,0.107421
0.0493226,0.134461
-0.0922193,0.122258
-0.124179,0.0568339
-0.0797582,-0.0714826
-0.0904192,-0.156918
-0.0991748,0.0313703
-0.0783608,0.188899
-0.0846305,0.0702749
-0.0530887,0.0429005
-0.0331,0.055565
-0.0257363,0.0681691
0.0150166,0.0579592
0.00872118,0.010719
-0.0361438,-0.0146
-0.0635669,-0.0241702
-0.0555325,-0.025537
-0.0295621,-0.0909065
0.0078365,-0.0839824
0.0358357,-0.0631383
0.0548172,-0.0210223
0.0659153,0.044316
0.0783217,0.0428235
0.0672954,0.0184687
0.0518582,-0.0124357
0.0300302,-0.0317194
0.00643197,-0.0280058
-0.0197907,-0.0154687
-0.0377695,-0.0112741
-0.0425144,-0.0144872
-0.0477545,-0.00685665
-0.0499559,0.00848898
-0.0224834,0.0151633
0.00539881,0.0124851
0.0193202,0.00296742
0.0164409,-0.00192957
-0.00410032,0.00168317
-0.0281541,0.00655628
-0.00139825,0.0024841
0.0478557,-0.0038556
0.0811724,-0.01472
0.0768375,-0.0151931
0.0364522,-0.018574
0.0625191,-0.029313
0.103542,-0.00401797
0.113813,0.0547157
0.0768455,0.0338075
-0.0470778,-0.0978588
-0.141585,-0.0232851
-0.168933,-0.00576053
-0.113048,-0.00938821
0.044323,0.0107233
0.138251,0.0128948
0.0441306,0.0278591
-0.11131,0.0444536
-0.113143,-0.00546002
-0.0182514,-0.0623323
0.0405955,-0.0482594
0.0269876,0.0651513
-0.0180286,0.0991964
-0.0748439,0.0465028
-0.0926151,-0.00740521
-0.0638016,0.00541179
-0.0507913,0.0222229
-0.0283348,0.0547281
-0.00276852,-0.00242376
0.0239242,-0.0279865
0.0258655,-0.0277879
0.0234354,0.00312777
0.0308639,0.0323795
0.0372195,0.0324169
0.0456807,0.0212734
0.0568421,0.047135
0.0557122,-0.0295879
0.0258992,-0.0883058
-0.00101499,-0.0222661
-0.00239444,-0.0233561
-0.00790834,-0.0312522
-0.0297403,-0.0238407
-0.0426945,0.000469967
-0.046601,0.0224603
-0.0345976,-0.012437
-0.0207171,-0.0650355
-0.0285368,-0.0898136
-0.0273827,-0.0814383
-0.000403011,-0.0142167
0.0319463,0.042151
0.0600398,0.125836
0.132744,0.0861909
0.202777,-0.0221832
0.201895,-0.0113017
0.196077,-0.00818045
0.108735,-0.0244636
-0.0585258,-0.0742145
-0.146368,0.0393057
-0.195594,0.0848164
-0.169276,0.0449702
-0.144815,0.00372624
-0.127339,-0.00835885
-0.108112,0.077807
-0.0732234,0.0598888
-0.0329614,-0.059743
-0.0142851,-0.0522823
-0.0175502,0.00612576
0.0114058,0.011657
0.0516199,-0.02608
0.0599274,-0.0022643
0.0801442,-0.00573825
0.115112,-0.0278802
0.0819371,-0.0344328
0.00771756,-0.0225802
-0.0537336,0.0132823
-0.0233981,0.0602222
0.0114069,-0.0143667
0.0247896,-0.0231319
0.0104162,0.00372473
0.0102848,-0.00182009
0.0225734,0.000810912
0.00938933,0.0310473
-0.0433251,-0.00781997
-0.0774817,-0.0521086
-0.0527847,0.0168074
-0.0245913,0.0116609
-0.00978502,-0.00119242
-0.015362,-1.23e-05
-0.012028,-0.00153472
0.0158709,0.0079975
0.0437621,0.00252191
0.0486015,-0.0106037
0.0520916,0.0225622
0.0552594,0.000122613
0.110983,-0.033536
0.135392,0.00282832
0.0689339,0.0106655
-0.0305418,-0.0441675
-0.137003,-0.0113223
-0.121713,0.00906166
-0.0692036,-0.0307618
-0.0440875,-0.0859445
0.0128303,-0.105088
0.0267945,0.0172908
0.00351245,0.0654349
-0.0121112,0.0501506
-0.0342501,-0.00749747
-0.0116889,-0.0357472
0.0172683,0.0146859
0.102953,0.110903
0.163508,0.124897
0.0951343,0.0931944
-0.0460452,0.0886076
-0.219535,0.0486428
-0.213361,-0.0209995
-0.125559,-0.0615675
-0.0481098,-0.0731336
0.0233587,-0.033332
0.0729324,0.0239482
0.092435,-0.0147265
0.0865434,-0.0433379
0.0745329,-0.0368056
0.0386789,-0.0384553
-0.0217565,0.00214108
-0.0497212,0.0236403
-0.0516518,-0.00518193
-0.0517209,-0.0152452
-0.0392117,0.0224869
0.00786891,0.0760185
0.0451086,0.0243571
0.0433885,-0.0185939
0.0477568,-0.0380207
0.0424546,-0.0299553
0.0151592,-0.0397016
0.0176865,-0.0629384
0.0255948,0.055906
0.00940622,0.0365955
-0.0137458,-0.0243753
-0.0368707,-0.0135832
-0.0593367,-0.0220787
-0.0609557,-0.0140315
-0.0418546,-0.0180907
-0.0145944,-0.0121294
0.0369719,-0.0464224
0.0696369,0.014835
0.0483075,0.00876601
-0.00947657,0.0144224
-0.0394303,0.0434591
-0.0313301,0.0474584
-0.00500235,-0.0113049
0.054727,0.0115612
0.104505,-0.0234349
0.10261,-0.034359
0.0444164,-0.0164522
0.000359107,-0.00269944
-0.0372798,0.015679
-0.0550218,0.00822091
-0.0258463,0.0285872
-0.0347743,0.0406897
-0.0282308,-0.0298348
-0.0301017,-0.0568359
-0.0327586,0.00490763
-0.00619793,0.0307407
-0.0333943,0.0287137
-0.0266267,-0.0405674
-0.019289,-0.0969736
-0.0203438,-0.00233446
0.0129189,0.0989184
-0.000488257,0.0852787
-0.00116253,0.0216077
0.0253503,0.0582446
0.0131526,0.0258016
0.00864797,-0.0260429
0.0232447,-0.0553344
-0.00317401,-0.0426529
-0.0347906,0.0232889
-0.0418274,0.00189892
-0.0220156,0.0335829
0.00629642,0.0542702
0.0253337,-0.0397111
0.013392,-0.0541845
-0.0164266,0.031928
-0.0346348,0.019705
-0.0187098,-0.0541443
0.0272981,-0.117763
0.0641971,-0.154477
0.0720971,-0.0639283
0.0144267,0.0378212
-0.0557213,0.0793481
-0.00288177,0.123311
0.0791754,0.119156
0.108733,0.0367582
0.1052,-0.0384974
0.0349619,-0.0373056
-0.0598379,0.00154123
-0.0973803,0.0261398
-0.0977529,0.0400186
-0.0492936,0.0238123
-0.0205516,0.0128823
-0.0234345,0.0279205
-0.0118714,-0.0420522
0.0177211,-0.0858732
-0.0134109,-0.017447
-0.0490315,-0.0310472
-0.0282955,-0.108055
0.0201971,-0.114144
0.047748,-0.0169303
0.0631071,0.082381
0.0635997,0.0294552
0.0676353,-0.00356391
0.0645115,0.0245028
-0.000987541,0.103608
-0.0321902,0.11553
-0.0170619,-0.00484879
0.0132639,-0.0351054
-0.0392912,-0.00347694
-0.0804104,-0.0235129
-0.0888138,0.0285485
-0.0605153,0.0517049
-0.0172407,0.0196576
-0.0194185,0.0015151
-0.0219108,0.0100265
-0.0155669,0.0363319
-0.0125352,-0.0286793
-0.0308897,-0.069275
-0.0301444,-0.0768873
-0.00506326,-0.0645167
-0.0100246,-0.083636
-0.00259311,-0.0692231
0.0263418,0.0567913
0.0325812,0.0772335
0.0611284,0.0290447
0.0945758,0.0594033
0.090556,0.0332355
0.0786761,0.0168547
0.0849818,-0.0365149
0.0849377,-0.0136596
0.0409867,0.0182869
-0.0166009,0.00406743
-0.0778603,-0.0173471
-0.0581913,0.00785544
-0.00367558,-0.010881
0.0367333,-0.0188483
0.0263993,-0.0419938
-0.0350377,-0.0692674
-0.111735,-0.0387713
-0.146666,0.0416713
-0.13361,0.033969
-0.0432257,0.0512594
0.058102,0.0574052
0.0893861,0.0351818
0.0810022,0.0031769
0.041369,-0.0200755
-0.00697886,-0.0149218
-0.0523488,0.0166584
-0.0560379,0.0301006
-0.0230614,0.0134345
0.01426,-0.0797163
0.0325959,0.0247615
0.0358227,0.0755743
0.0684235,-0.129444
0.0452651,-0.101311
-0.0298783,0.0126055
-0.0512315,0.0235473
-0.0457664,-0.0272768
-0.0157736,-0.0865605
0.0400553,-0.0554344
0.0838079,0.044877
0.0877409,0.128152
0.0540867,0.0792281
-0.0052316,0.00245005
-0.0317473,0.0217179
-0.0725301,0.0637217
-0.135541,0.042949
-0.10614,0.0161548
-0.0632482,0.00432387
-0.01066,-0.00247114
0.0288557,-0.00473393
0.0546679,-0.0487237
0.077562,-0.0223362
0.0639804,0.0114119
0.0169079,0.0126413
0.0173378,0.0109529
0.0722363,-0.00353514
0.060981,-0.0304925
-0.00980579,-0.034884
-0.105733,-0.0433196
-0.139932,-0.0285865
-0.0869938,-0.00927296
-0.0307388,-0.000824237
0.00646417,-0.00149802
0.0403703,0.0017793
0.0394163,0.0258639
0.0436508,0.0384571
0.0308041,0.00279076
-0.00568137,-0.027389
-0.0334853,-0.0151367
-1.55e-05,0.00545179
0.0960902,0.000463952
0.13538,-0.0207599
0.0862603,-0.0388467
-0.0022005,-0.0173863
-0.0644902,0.0250408
-0.0316135,0.00396754
0.0344801,-0.00118163
0.0270868,0.0232089
-0.0272125,0.00807545
-0.0541937,0.000223252
-0.0713518,0.0155285
-0.0977374,0.0176131
-0.0546106,0.0383744
0.0124561,0.0290314
0.0188914,-0.031899
0.00908826,-0.0595152
-0.00993341,0.0129137
-0.0384104,0.0418244
-0.029828,0.0308927
-0.0161454,-0.0147523
-0.000122695,-0.0181029
0.0311028,-0.0197385
0.0114447,-0.022654
0.00718645,-0.0508249
0.00619866,-0.0209092
0.00470965,-0.00765037
0.0110105,-0.00704985
-0.00108712,0.00832674
-0.0138228,-0.0116662
-0.000360136,0.0253297
0.00304695,0.0370152
0.0195765,0.0048351
0.0699264,0.000422738
0.117702,0.0684845
0.100306,0.0530003
0.051829,0.000917382
0.0168124,-0.00362587
-0.00359025,0.0116635
-0.0468993,-0.0158293
-0.0519688,-0.0144181
0.00654942,0.0022908
0.0132071,0.00226469
-0.0315313,0.00059188
-0.0879106,-0.0124981
-0.114826,-0.0042605
-0.0910787,-0.0017129
-0.0568777,-0.00579447
-0.0166328,-0.0130995
0.0174585,-0.0221021
0.0221624,-0.0192054
0.0100671,-0.0205714
0.00922538,-0.0092806
0.0229022,0.0165446
0.0339634,0.0101655
0.0270591,-0.00233128
0.0111588,-0.0185378
0.00499817,-0.0123174
0.0146304,0.00853341
0.0157949,0.00356359
0.0133199,-0.0107673
-0.00190886,0.00202855
-0.0315367,0.00926237
-0.0364028,0.00853251
-0.0147733,0.00147934
0.00450766,-0.00214418
0.0193161,0.00179596
0.026849,0.00507145
0.0141742,0.00844154
-0.00643997,0.00696358
-0.00647596,-0.00420962
0.00614744,-0.0107852
0.0179667,-0.0109832
0.0179952,-0.0121356
0.0120165,-0.0074106
0.00387067,-0.00529184
-0.00595161,0.00400694
0.0170926,0.0130078
0.0485887,0.0133541
0.0525544,0.0155134
0.0310722,0.00748621
-0.00556696,0.00829339
-0.0307267,-0.00233341
-0.0204393,0.0295386
0.00954848,0.0407616
0.000240424,-0.00183747
-0.026171,0.0154243
-0.0353987,0.0116248
-0.0287704,-0.0203339
-0.0248757,-0.00614501
-0.0437976,-0.00416697
-0.0655028,-0.0456554
-0.049626,-0.0523799
-0.0120778,-0.0190928
0.0120783,-0.00232241
0.00328814,-0.0083969
0.00343876,0.00983462
0.0213946,0.0178568
0.0474798,-0.00436165
0.0811378,-0.0362049
0.0981101,-0.0265277
0.0362651,0.0501111
-0.0332217,-0.00110163
-0.0644843,0.0152168
-0.0934079,0.0376809
-0.0607833,0.00893124
-0.0123746,-0.0391673
0.0163951,-0.0640959
0.0320248,0.00621961
0.0374514,0.0582431
0.0651216,0.0374368
0.0907064,0.000314653
0.0667718,-0.00365577
0.0223067,0.0115544
0.00268475,0.0100284
-0.0201305,0.0390357
0.0089338,0.0698643
-0.00224075,-0.0270855
-0.067046,-0.0576167
-0.125248,-0.0329798
-0.113546,0.00333575
-0.0567695,-0.00131855
-0.0456455,-0.0151065
-0.0402923,-0.0156978
-0.0311128,-0.0286328
-0.0166521,-0.0520762
-0.00612662,-0.0046003
0.0113988,0.0344277
0.0468633,0.00244414
0.0999612,-0.00568097
0.167767,-0.0531122
0.196203,-0.0351498
0.115488,0.0376456
-0.00847692,0.0831619
-0.0868854,0.0515337
-0.102017,0.0514761
-0.0826437,0.0175796
-0.0244515,-0.0430324
0.0305569,-0.0328284
0.0237601,0.0184624
-0.0132834,0.0025926
-0.0255192,0.00314299
-0.0268169,0.0489371
-0.0426741,0.00968785
-0.0314606,0.0101902
-0.0366988,0.0348719
-0.0237412,0.000557904
0.0162384,-0.0350785
0.0398499,-0.028016
0.0374176,-0.010966
-0.00285834,-0.00871783
-0.0505968,-0.00176057
-0.0381158,-0.00916668
0.00878486,-0.0279578
0.0349901,-0.0481794
0.0272815,-0.0111569
0.0186622,-0.010498
-0.00776442,-0.0261788
-0.0369752,-0.00455863
-0.0397875,-0.0204584
-0.00934577,-0.0288785
0.0288664,-0.0178371
0.0360695,0.0319245
0.0263828,0.0292443
0.00548452,0.022842
0.00364031,0.0380268
0.0292811,-0.0185111
0.0581058,-0.0300072
0.0510729,0.0348147
0.0815946,0.0408076
0.0840785,0.0102919
0.0240857,-0.0628433
-0.0452549,-0.0411832
-0.0322056,-0.0118828
-0.0174825,0.0237965
-0.0518341,0.0619184
-0.0803532,0.0198835
-0.0642141,0.0288879
-0.0367915,0.0266182
-0.0607928,-0.00931961
-0.0700975,-0.00667891
-0.0492189,-0.0268555
-0.0366914,-0.0347544
-0.015275,0.0331886
0.0204672,0.012637
0.0656061,0.00631505
0.0859234,0.00405798
0.0623333,-0.0155055
0.019508,-0.0588703
-0.0214196,0.0360587
-0.0404459,0.0139512
0.00836614,-0.044021
0.0663791,-0.0215972
0.0720127,-0.00257205
0.0416934,0.0206493
-0.0304678,0.00795805
-0.0786027,0.0173126
-0.0635281,0.0342388
-0.0379667,0.0239732
-0.00967122,-0.00605479
0.0109056,-0.0223404
0.0360337,0.0199045
0.0594896,0.0433112
0.0660581,-0.014399
0.0495779,-0.0365859
0.018842,-0.0703987
0.000913743,-0.0311157
-0.0241505,0.00509244
-0.056716,0.0170624
-0.0285869,0.0234037
0.00939658,0.0169889
0.0153499,0.0206176
0.00601268,0.00956744
-0.0443242,-0.0212989
-0.093999,-0.0307628
-0.112187,0.0222379
-0.0641552,-0.00632995
0.00725858,-0.0105775
0.0682239,0.00645396
0.102406,0.0113841
0.0967323,0.0232449
0.0537961,0.0267245
-0.0128418,0.0282401
-0.053335,-0.00305219
-0.0499888,-0.0293058
-0.0379463,-0.00154738
-0.0109131,0.0274459
0.0051542,-0.00684117
0.0250424,-0.0106757
0.029145,-0.00282707
0.0111634,-0.0429236
-0.0131007,-0.0168806
-0.0328912,-0.00180107
-0.0279363,-0.0331534
0.0082288,-0.01647
0.0232033,-0.0223579
0.058079,-0.0538701
0.121219,0.0236101
0.122087,0.0123024
0.0287496,-0.00239143
-0.0781861,0.0099379
-0.090744,0.0563688
-0.0606147,0.0586459
-0.041615,0.0304285
-0.00896906,0.0140781
0.0024585,0.000986424
0.0122581,-0.0210616
0.0252356,-0.0604798
-0.000494995,-0.0716811
-0.00965359,-0.0128855
0.0398514,0.0578082
0.0298002,0.053898
-0.0358848,0.0271307
-0.0925231,0.0307197
-0.109304,-0.0164352
-0.0629537,-0.0279644
-0.0259727,-0.0189857
0.00936667,-0.0177901
0.0508247,-0.00752824
0.0845483,-0.00949878
0.0472646,0.00260161
0.0046051,0.0404669
0.00131507,0.0560136
0.00158557,0.0210356
-0.0337885,-0.0495568
-0.0508111,-0.0344403
-0.0194321,0.0166936
0.039366,-0.00976198
0.066659,0.0185314
0.0532518,0.0296715
0.0469322,-0.0192683
0.0391792,-0.0458699
0.0243181,-0.03174
0.0315856,-0.0109933
0.0308551,0.0182621
0.012599,0.0289013
-0.0268922,-0.0131374
-0.0286964,0.00150218
-0.0529769,0.0296831
-0.0939514,-0.00418792
-0.0613115,-0.0233861
-0.00782757,-0.0173806
0.0108863,0.0162408
0.00376558,0.0097662
-0.00705753,-0.00398609
-0.0146336,0.00485422
-0.000708066,0.0177837
0.0105745,0.0300439
-0.00328679,-0.0342424
-0.00185552,-0.0266605
0.00948787,0.0215745
0.0120596,0.00788771
0.00720798,-0.0333794
0.00529685,-0.024819
-0.00597965,-0.0251729
-0.000758596,0.022569
-0.00243067,0.00301684
0.00748139,-0.0121636
0.0259387,-0.017787
0.0386069,0.0188435
0.0198668,0.0646368
-0.0152366,0.0111451
-0.0320558,-0.0206791
-0.0315779,-0.0166128
-0.0167932,-0.035244
0.0355096,-0.0158124
0.0711031,0.00592535
0.0391852,0.0155978
-0.0272639,0.019692
-0.0819832,0.0304186
-0.0596518,0.0279827
-0.00299471,0.00891697
0.0208204,-0.00315836
0.0239534,-0.0174612
0.0179812,0.00190906
0.0106684,0.00281963
0.000760262,-0.0307636
-0.000844717,-0.0200074
-0.00217625,0.00498832
-0.00748282,0.0238197
-0.012402,0.0315728
-0.0171992,0.00150034
-0.0169014,-0.00980414
-0.0163701,-0.0143854
-0.000897355,-0.00691148
0.0260832,0.00186848
0.0205018,0.00305806
0.007467,0.000678071
0.0120235,-0.008764
0.0172343,-0.00513833
0.014269,-0.00602531
0.00512698,-0.00817401
-0.00962,-0.00954211
-0.0105783,-0.00624371
-0.00341256,0.00508602
0.00479163,0.0150141
0.00871642,0.0232092
0.0120476,0.0162672
0.010153,-0.000806177
0.00547427,-0.00766083
0.00821422,-0.000908605
0.0107202,-0.00459567
0.0136182,0.00710644
0.00390731,0.0111789
-0.00408852,0.00218173
-0.00448364,-0.00553866
-0.00608647,-0.0238505
-0.0111971,-0.0163877
-0.0244892,0.00771876
-0.0415126,0.00420046
-0.0451803,-0.00346775
-0.0414342,-0.0200689
-0.0339796,-0.0140794
-0.0199681,0.0118719
0.00484855,0.0101598
0.0290345,0.00322083
0.0398496,-0.00388883
0.0362262,-0.00505333
0.0224833,-0.000127592
0.00990951,0.00598699
-0.00117315,0.00616797
6.15e-05,0.000566365
0.00906492,-0.00345364
0.0138367,-0.00650219
0.00590284,-0.00293476
-0.00374759,-0.00511832
-0.0053708,-0.00735595
-0.00706175,-0.00652348
-0.00857243,0.000236524
-0.0104573,0.0149336
-0.00971797,0.0155143
-0.0108314,0.00523682
-0.0176221,0.00115041
-0.0222952,0.0118373
-0.0129617,0.000521258
0.00958606,-0.00922931
0.0172436,-0.0040842
0.0169335,-0.00674502
0.0150142,-0.00325615
-0.00215086,-0.00283303
-0.0110631,-0.000510144
-0.0126223,0.00345784
0.0021272,0.0137367
0.0212116,0.0171644
0.0207989,-0.00572725
0.0108079,0.00321589
0.00215492,0.0110003
0.00324315,0.00784951
0.0121221,-0.000707731
0.0154641,-0.00996416
0.0106054,-0.0156845
0.00488528,-0.00914816
0.000580565,0.0042601
-0.0010397,0.0114774
-0.00131204,0.00419951
-0.00381013,-0.00378619
-0.010339,-0.00285928
-0.0118415,-0.00284243
-0.0153558,0.00117937
-0.0241711,0.00141962
-0.019079,-0.00662461
-0.00516094,-0.00236251
0.00674586,0.0115765
0.0126601,0.00863986
0.0217864,-0.00466805
0.0198369,-0.0351632
0.019517,-0.0494106
0.0350043,-0.00907
0.0437196,0.0465775
0.0195987,0.0114811
-0.0207659,-0.023231
-0.0488413,-0.0373102
-0.0565948,-0.0166315
-0.0573039,0.00265856
-0.0516739,-0.0175219
-0.0296613,0.0180021
-0.0104922,0.0425766
0.0224162,0.0239584
0.0598899,0.0255284
0.0469092,0.02566
0.0165718,0.0218385
-0.00372475,0.00297474
-0.0154228,0.000990553
-0.0121997,-0.000648207
-0.00928535,-0.000694774
-0.0174042,0.00296751
-0.0230175,0.0119357
-0.0302019,0.0139523
-0.0177891,0.00654475
0.012183,-0.00157445
0.0425345,-0.00875395
0.0507644,-0.011192
0.0417244,-0.0147258
0.0156822,-0.0147586
-0.0145664,-0.0178097
-0.0324599,-0.0102268
-0.0241087,-0.000863921
-0.00742818,-0.0109264
-0.00180907,-0.0207634
0.00928406,-0.0146007
0.0408895,-0.00735851
0.0737197,-0.00481733
0.057572,0.00491019
0.00716026,0.0184953
-0.0415627,0.0125595
-0.0525324,0.00756691
-0.0093143,0.00631371
0.0332312,-0.00588424
0.0421263,-0.00932704
0.0174733,-0.0114185
-0.0169734,-0.0163593
-0.0291361,-0.00591101
-0.0334942,0.00971151
-0.0429568,0.0158773
-0.0493242,0.00832278
-0.0564046,0.00530891
-0.0474087,0.00124664
-0.0273622,-0.00586189
-0.00773852,-0.00615834
0.0149105,-0.00099106
0.0354286,-0.00429177
0.0384056,-0.0183479
0.0204434,-0.00849827
0.00525586,0.00690173
0.000167197,-0.00789354
-0.0036677,-0.0211729
0.0096207,0.0010368
0.027122,0.0183968
0.027464,0.0265979
0.0127994,0.0337762
-0.00165549,0.027207
-0.0109424,0.0149049
-0.00857455,0.0121231
-0.0102032,0.0126837
-0.00898137,0.00747221
0.00450661,0.00217325
0.0184199,0.00445299
0.0273281,0.00254074
0.0254015,-0.00234453
9.17e-05,-0.0125999
-0.0210672,-0.0151483
-0.0168001,-0.00703747
-0.00297806,-0.00559443
-0.00568796,-0.0244902
-0.0148363,-0.04219
-0.0256971,-0.0389133
-0.0319418,-0.0364311
-0.022375,-0.0308213
-0.00741439,-0.0166857
-0.00755045,0.00704204
0.0066056,0.0210424
0.0272301,0.0262443
0.0250135,0.0290358
0.00967767,0.0420842
0.00586959,0.0585184
0.00935213,0.0423816
0.00708498,0.00768523
0.00502197,-0.0198505
0.011344,-0.0453776
0.0264091,-0.0209961
0.0221428,0.0136339
0.00158374,0.00808699
-0.00033847,0.0021946
0.0195357,-0.00417329
0.0352385,-0.0142668
0.0401324,0.000927658
0.0242523,0.0156229
-0.0132954,-0.00333218
-0.0317284,-0.0136487
-0.0184497,0.00408849
0.00841079,0.0366074
0.0163005,0.0150119
-0.0316697,-0.00503103
-0.111895,-0.0187175
-0.182034,-0.0197415
-0.243713,-0.0135347
-0.183026,-0.00830089
0.0386131,-0.00124858
0.25013,0.00346005
0.381637,0.00685608
0.287636,0.00872299
0.118905,0.00278997
-0.0214801,-0.0125151
-0.121259,-0.0214426
-0.21729,-0.00752304
-0.235074,0.00473555
-0.121133,0.0016334
-0.0896735,-0.00224445
-0.0224639,-0.00541986
0.14584,-0.00451242
0.255255,-0.0194676
0.145244,-0.0232559
0.0290001,-0.0118343
-0.0681446,0.00149025
-0.159289,0.0160142
-0.111665,0.00862981
