Comp Ch 3,Comp Ch 4
-0.00102787,-0.0529523
-0.0788784,0.0420416
-0.0692304,0.110975
-0.088276,0.11068
-0.125687,0.111466
-0.0620427,-0.00603151
0.034291,-0.029683
0.00934918,-0.0156607
-0.0775574,0.0253128
-0.113665,0.0253422
-0.0436766,0.00242217
0.0652956,-0.00267319
0.0743496,0.0304098
0.0350551,-0.00263251
0.00344335,-0.0867533
0.03643,-0.0848969
0.0914522,-0.0064171
0.0748235,0.0737963
0.0618713,0.0492933
0.192019,0.0128932
0.19248,-0.0521423
0.0779905,-0.097694
-0.0650694,0.0112296
-0.201006,0.0274463
-0.208726,-0.13996
-0.144638,-0.0837259
-0.0648758,-0.061275
0.0248923,-0.022526
0.0195102,0.0753418
-0.00960922,0.0976801
0.00215595,0.0370682
-0.0102908,0.0307962
-0.021767,0.0760413
0.0567615,0.0557596
0.0581358,-0.00110977
-0.00400028,-0.0238831
-0.0452172,0.015672
-0.080688,0.0265555
-0.0792636,-0.0302403
-0.0193349,-0.106771
0.0926981,-0.0653205
0.0957071,-0.0783524
0.0251707,-0.0610899
0.0218515,-0.0677511
0.0193953,-0.0651446
0.0144153,-0.0287691
0.0342209,0.134691
0.00914143,0.175949
-0.0440196,0.0073827
-0.0721402,-0.0655066
-0.0207084,-0.00324383
0.0426632,0.0421939
0.0655131,0.0734784
0.0346254,0.075691
-0.0343653,0.0605265
-0.0461877,0.0346742
-0.0356918,-0.00419542
-0.0148753,-0.00924345
0.0272334,0.00822586
0.0275215,0.0135859
-0.00460654,-0.000397818
-0.0100682,-0.0242082
0.0077805,-0.00538015
0.018319,-0.0289233
0.00692589,-0.0613526
-0.0367526,-0.0594815
-0.0709409,-0.0226736
-0.0437478,0.0314295
-0.0125869,-0.0511103
0.000501637,-0.109956
0.0189299,-0.0952485
0.00227081,0.0405374
-0.0059698,0.0442711
0.0051642,0.00441178
0.0235133,0.0241115
0.0593758,0.00433415
0.0595,0.0312731
0.0405494,0.100601
0.0171495,0.00323588
0.0265509,-0.0405846
0.0602104,-0.0144479
0.0509793,0.0390795
-0.0176808,0.0328633
-0.0854322,0.00249855
-0.0669906,-0.00329101
-0.00999949,-0.0442345
-0.00601696,-0.00886219
-0.0267625,0.0136558
-0.0519884,-0.00637341
-0.0365583,0.00651967
-0.0030444,0.0183048
0.00194894,0.0234283
0.0138986,0.0171993
0.0346561,0.0292769
0.0424833,-0.0314834
0.0111455,-0.0744921
0.0383472,-0.0596747
0.0399567,-0.038356
0.00668241,0.0267518
-0.00986348,0.0708046
-0.023864,0.0593606
-0.014502,0.0361012
-0.0342212,-0.00717845
-0.0406587,-0.0362291
-0.0397875,-0.0564759
-0.0479602,-0.0103818
-0.00317154,0.00853746
0.0336943,0.00395146
-0.00595337,0.0141753
-0.0380846,0.0003866
0.000903676,0.00632162
0.020728,-0.00133505
0.000119285,-0.0113689
-0.0191701,0.00822692
-0.0100229,0.0501635
0.0274506,0.0427292
0.0799832,0.00386181
0.0864949,-0.0141682
0.0426271,-0.0525841
0.0263369,-0.0499626
-0.00444641,-0.028012
-0.0324205,-0.0295114
-0.0192545,0.0038158
-0.0302032,0.0408987
-0.0672908,0.00717559
-0.0395983,0.0327856
0.00139324,0.0253529
0.0067955,-0.0444286
0.00237438,-0.0347683
-0.010301,-0.0115471
-0.0131818,-0.00397561
-0.00994247,0.0313967
-0.008878,0.0211221
-0.00895356,-0.0201363
0.00788827,-0.0052289
0.0214182,0.0164365
0.0176002,0.0303304
0.0117925,0.0268547
0.0138134,0.0188348
0.0211064,0.0444394
0.0129643,0.0265812
0.00341705,-0.0388001
0.0161034,-0.0374494
0.0223039,0.0447354
0.0113457,0.00205325
-0.0162426,-0.0368179
-0.0443816,-0.00192693
-0.049673,0.0223021
-0.0372392,0.031044
-0.0177011,0.00475585
0.00239545,-0.0281705
0.0283041,0.0029845
0.0317511,0.0266574
0.00580396,-0.0498444
-0.0143896,-0.0458765
-0.0199607,-0.0285026
-0.0294188,-0.0217766
-0.0255353,-0.00795164
0.000439867,-0.00287181
0.0293826,-0.00112312
0.0337032,0.00487749
0.0285202,-0.0357155
0.0017351,-0.0168853
-0.0080239,0.0604615
0.0240319,0.0457855
0.0480033,-0.0173276
0.0859791,0.0221133
0.0653075,0.0274731
0.0285694,-0.0190972
0.00256935,-0.0551459
-0.0156658,-0.0138484
-0.0447493,-0.00441973
-0.0975818,0.00276468
-0.085074,0.0159052
-0.0227968,0.00934328
0.00314787,0.00192828
0.00949004,0.0396183
0.01402,0.0122029
0.0141249,-0.0113419
-0.0133281,-0.0207897
-0.0297422,-0.0114446
-0.023989,-0.000704339
-0.0111801,0.0858863
-0.0016601,0.00856707
-0.0112035,-0.0309866
-0.0165084,-0.0512855
0.0207574,-0.0310973
0.0693082,0.0543473
0.0649597,0.0492625
0.0210786,0.0493969
-0.0125924,0.013589
-0.00959467,-0.0502071
0.000733815,-0.0567937
-0.0114666,-0.0805818
-0.0169243,0.0190157
-0.0275441,0.0336204
-0.0143699,-0.0380342
-0.0267195,0.0119755
-0.0325734,0.0649355
0.000802005,0.0422864
0.0108897,-0.0298762
0.0434739,-0.0327835
0.0737401,-0.00147606
0.0721998,-0.0229799
0.0399266,-0.0559008
0.0038685,-0.0694951
-0.068132,-0.0582074
-0.119458,-0.0425032
-0.122587,-0.0549052
-0.0440518,-0.0341225
0.0288448,0.015916
0.0505671,0.0897578
0.0572637,0.0622404
0.064702,0.0663664
0.0731925,0.0855259
0.0666294,0.0410496
0.0554752,0.0059709
0.00129664,0.00954925
-0.0776553,-0.00361648
-0.0699231,-0.00305634
0.0572077,-0.0126951
0.0781581,-0.036803
-0.000370858,0.0183958
-0.0990436,0.0633756
-0.158953,0.0518946
-0.116511,0.0121739
-0.0363053,-0.00130331
0.0351627,0.0467795
0.0457664,0.025372
0.0360546,-0.0435266
0.00984409,-0.0109716
-0.0341108,0.0135422
-0.0460781,-0.0360814
0.00123868,-0.0510133
0.030473,-0.0722262
0.0254501,-0.0224795
-0.0106882,0.00531448
-0.0281713,-0.0027823
0.0128996,-0.0197307
0.0652277,-0.0750102
0.0904999,-0.0413627
0.0606868,-0.00985702
0.0365766,0.0335862
0.0206674,0.0586149
-0.011434,0.0491022
-0.0346674,0.0145915
-0.0516625,0.00106121
-0.0484955,0.0223815
-0.0324018,-0.0023284
-0.0383199,0.0096016
-0.0509601,-0.0344102
-0.0297884,-0.0395535
-0.017033,0.0126887
0.00518834,-0.00156379
0.0409828,0.00289234
0.0454221,0.0261375
0.0452899,0.034138
0.0811232,0.0270702
0.104821,-0.00643222
0.0923867,-0.0146076
0.0506277,-0.0365496
-0.0306436,-0.0241727
-0.0787725,0.00463692
-0.0288284,0.0488973
0.0326871,0.0194099
-0.00711365,-0.0750878
-0.0444459,-0.0341265
-0.00429266,0.0512974
0.0059307,0.0255486
-0.069769,-0.0429212
-0.139153,-0.0510031
-0.0621605,-0.0552686
0.0199417,0.0235062
0.0228776,0.0674605
0.0286847,0.0382485
0.0120926,0.00111394
-0.0500557,0.0139291
-0.0434468,0.0378193
0.0269516,0.00145849
0.0620453,-0.0251522
0.037113,-0.0404255
-0.0078575,-0.0280268
-0.0103309,-0.0370604
0.00464163,-0.0262163
0.0177997,0.0250552
0.0122553,0.117952
-0.0255284,0.0600304
-0.0423782,-0.015947
-0.0108804,0.04163
-0.000121155,-0.0171825
-0.00119645,-0.102041
0.0283252,-0.0171792
0.0546912,0.0335727
0.0640686,0.0173364
0.0432404,-0.0108768
-0.00326365,-0.0420682
-0.0486553,-0.00912164
-0.0580785,-0.00171795
-0.0640518,-0.0130346
-0.0253387,-0.0124068
0.0234557,0.0423508
0.0616163,0.0268356
0.0753106,-0.0124874
0.00502394,-0.0721196
-0.0823746,-0.0895908
-0.070612,-0.0487253
0.0199848,-0.00134499
0.0995593,0.0170876
0.104708,0.0829001
0.0516951,0.0816989
-0.00888653,0.0589116
-0.0339533,0.0500455
-0.0381433,-0.00942466
-0.0433763,-0.0349335
-0.0648887,-0.0200148
-0.074257,0.0423326
-0.0344596,0.0320326
0.0393212,-0.0258624
0.0917381,-0.0797872
0.0582888,-0.060155
-0.0155914,-0.0257769
-0.0699064,-0.00453893
-0.0584333,0.0151651
0.00614117,0.0491884
0.0244821,0.0668965
0.0277407,0.116189
0.0157509,0.115918
-0.0200138,-0.088539
-0.0183594,-0.113291
-0.0173314,-0.076756
-0.00749536,-0.0335813
0.00729711,0.0197626
0.00487234,0.0736703
-0.013115,0.0124824
-0.0249969,0.0216412
-0.031878,0.0901818
-0.0242215,0.0126951
-0.00916849,-0.0434641
0.0128393,-0.0338905
0.0305406,-0.0312771
0.00231245,-0.0471863
-0.00737438,-0.0478699
0.00972193,-0.0279968
0.0312559,-0.0348421
0.0381687,-0.00222688
0.0280745,-0.0496869
0.0294044,-0.0819229
0.0208664,1e-05
0.000839219,0.0843681
-0.0376047,0.0653606
-0.0377559,0.032967
0.051687,0.0259301
0.111024,-0.0150593
0.0691172,0.00411289
0.0199869,5.96e-05
0.0271707,-0.0295683
0.0332339,-0.0418304
-0.0227344,-0.0226923
-0.0769281,0.0554497
-0.112461,0.0845079
-0.0805252,0.0525447
-0.0408593,0.00853896
-0.0197862,0.0258278
-0.00182096,-0.0200808
0.0190048,-0.0641684
0.0283461,-0.0108966
0.0218828,0.0238692
-0.0113093,0.0382707
-0.0645642,0.0217431
-0.114665,0.0159946
-0.0708877,-0.01912
0.00682141,-0.018554
0.067497,0.0379444
0.0807684,0.0513878
0.0530135,-0.0215884
0.0251112,-0.0534464
0.000537256,-0.0909785
-0.00512251,-0.0656874
0.0445549,-0.03173
0.0941096,0.000207464
0.087127,0.00751782
0.0203683,0.000176718
-0.0412281,0.00760392
-0.0889603,0.0271416
-0.102909,0.00544761
-0.0754091,-0.0338362
-0.0360124,-0.0753389
-0.00407527,-0.0421163
0.0111694,-0.0357347
0.0253646,0.0169058
0.00157205,0.0847692
-0.0464281,-0.0161577
-0.0124581,-0.0159835
0.0448417,0.0487746
0.0524465,0.0609022
0.0351803,0.0585079
-0.000349573,0.0338446
-0.0149093,-0.0305369
0.00179082,-0.0116089
0.0326467,0.00676469
0.0465081,0.0326054
0.0341339,0.0363709
0.0189936,0.0237252
-0.0194793,0.0598316
-0.0401225,0.0302567
-0.0157039,-0.0918692
0.00111518,-0.0875521
0.00621459,0.0780141
0.0373243,0.10152
0.064844,-0.0302027
0.0321908,-0.0519709
-0.0528008,-0.0470499
-0.119808,-0.0268072
-0.0931827,-0.00630316
-0.0602447,-0.0287098
-0.0722148,-0.0208207
-0.0694433,-0.0135077
-0.00684433,0.0158861
0.0430336,0.0710563
0.0906736,-0.0127648
0.127042,0.0286783
0.118644,0.0636006
0.0652685,-0.0359379
0.0131336,-0.0442553
0.000261388,-0.0385603
0.027731,-0.00588089
0.0390456,0.00920368
0.0316017,-0.0399534
0.016077,-0.030844
-0.0280658,0.0298753
-0.0596995,0.0710285
-0.0706459,-0.0157656
-0.0359363,0.0130989
-0.0312489,-0.0035305
-0.0678898,-0.0290832
-0.0705981,-0.0141278
0.00458554,-0.0412553
0.0395448,-0.0991809
-0.00855384,-0.0476393
-0.0184652,0.05731
-0.00836236,0.0836449
0.00478116,0.0341991
0.00693337,-0.0378798
-0.00478445,0.0272818
-0.00764545,0.0343867
-0.00833308,0.0166967
-0.0106963,-0.0138838
0.00416564,-0.0309236
0.0188735,-0.0208353
0.0126552,-0.0202782
0.00541433,-0.0688065
0.0129354,-0.0789846
0.0302523,0.0166838
0.0223642,0.0848228
-0.00549932,0.0871974
-0.0189929,0.0302989
-0.0219796,-0.0200731
-0.0269905,0.0340202
0.00175578,0.0537788
0.0776682,0.0510224
0.0933241,-0.00542835
0.0617566,-0.0414902
0.0739581,0.00260767
0.0642241,0.0276693
-0.0161999,0.00321732
-0.0641909,-0.0658051
-0.0876686,-0.037797
-0.0910453,0.0110187
-0.044659,0.0279207
-0.0417353,-0.0353268
-0.0609626,-0.0595556
-0.0262975,-0.0139995
0.0132246,0.0193898
0.0208873,-0.0127809
-0.00284665,0.0424718
-0.0302039,0.0436643
0.0110328,-0.00813415
0.0579478,0.00762596
0.0411532,0.0425464
0.0105349,0.0287083
-0.00214577,-0.0435985
0.00822644,0.0144316
0.00806248,-0.0135712
0.00840844,-0.0601476
0.0156553,0.021939
0.0198612,0.0205661
-0.011359,-0.0689872
-0.0395358,0.0543265
-0.058722,0.0161667
-0.0476938,-0.0618489
-0.0346987,-0.00786493
-0.0164415,-0.0150574
0.0288339,-0.020724
0.0566652,0.00454206
0.0579477,0.0175177
0.0426179,0.00980037
0.0184966,0.0206389
-0.013421,0.00131295
-0.0290443,0.0785102
-0.00659783,0.083477
0.0244523,-0.102542
0.0433476,-0.0810059
0.0379377,-0.0317539
0.0212671,-0.0847089
-0.012907,-0.0962009
-0.0395162,0.0626157
-0.0291432,0.153023
-0.0327493,0.0910969
-0.0311724,-0.0503752
-0.000372048,-0.048267
0.00817314,-0.057364
-0.00479924,-0.017446
-0.00234532,-0.00534911
0.00512331,0.020805
0.00375897,0.114279
-0.00210466,0.0799115
0.00190931,0.0124725
0.00665737,0.0527176
0.00648473,-0.00990104
0.0126462,-0.0718006
0.0281961,-0.0560691
0.0247879,0.0042729
0.00477561,0.0211891
0.00230953,-0.0809596
-0.0166629,-0.0435045
-0.0146035,-0.0370713
-0.00426046,-0.0463091
-0.0100052,0.0759986
-0.0293608,0.126608
-0.026541,0.0328723
-0.0120961,-0.0197761
0.000208852,0.0251371
0.00269011,0.0175487
0.0104003,0.044659
0.016512,0.0291298
0.0166367,-0.078368
0.00504202,-0.0772823
-0.00813071,-0.041882
-0.0103972,-0.0373069
-0.008102,-0.0579631
-0.0065665,-0.0189979
-0.00147567,0.0118974
0.013509,-0.00422672
0.00834177,0.023276
-0.0340703,0.0452494
-0.0536582,0.0359831
-0.0414456,-0.0134569
0.00395282,-0.02029
0.0406364,0.0324137
0.0426874,0.0162725
0.0318245,-0.0464745
0.0829372,-0.066802
0.0940086,0.0141939
0.0299131,0.0325457
-0.0416351,0.026853
-0.0658722,0.00146699
-0.0519218,0.0732749
-0.0405919,0.171294
-0.031675,-0.0260449
0.000430321,-0.0600158
0.0403837,-0.0432899
0.0280188,-0.137216
-0.0169953,-0.142898
-0.0126436,0.0513856
0.000405298,0.06495
-0.00097468,0.0189248
-0.0114874,0.175226
0.000869195,0.130397
0.0290719,0.0729221
0.0337961,0.0164507
0.0037837,-0.053216
-0.00159775,-0.08776
-0.00100973,-0.0790094
-0.0303728,-0.00886025
-0.04293,-0.0395312
-0.0408996,0.0557811
-0.0222666,0.0248982
0.0458811,-0.0949638
0.0806423,-0.13915
0.0366035,-0.127778
-0.0136489,-0.0249939
-0.0461084,0.0368777
-0.0350308,0.0447994
-0.00298909,0.0479537
0.0064075,0.0250505
0.0337361,0.0912626
0.0842967,0.00756884
0.0518585,0.0100202
-0.00215739,0.0177652
-0.0449368,0.0401239
-0.118693,0.0849064
-0.170148,0.00925164
-0.0485864,-0.0328022
0.10317,-0.0300633
0.140327,0.00270254
0.0720711,0.0202792
-0.0398408,-0.118931
-0.107108,-0.0497808
-0.0874465,0.0794669
-0.0465643,-0.00945481
-0.00430906,-0.0920493
-0.0049367,0.0146207
0.00989874,0.047815
0.0421521,-0.00217956
0.0176218,-0.130472
0.0418919,-0.0980955
0.0868418,-0.0917663
0.0548229,0.031196
-0.00768967,0.0395546
-0.025803,0.0228788
-0.01475,0.115535
-0.0180015,0.116354
-0.00994878,0.214791
0.0275698,0.0201197
0.0340754,-0.0166724
0.0103225,0.0270021
0.00643145,0.0104872
-0.0182385,-0.0592824
-0.00139996,-0.0642996
0.0193742,-0.0330608
0.0271695,-0.0418812
0.0226176,0.009853
0.0141474,-0.0918674
0.0236178,0.0198424
0.0366123,0.0488414
0.0429681,-0.0538659
0.00560122,-0.0576578
-0.0731986,0.0463437
-0.160919,-0.106949
-0.0991471,-0.0532463
0.00894011,-0.0152433
-0.00611384,0.000892881
-0.0156661,0.0500212
0.0344652,0.0729548
0.0746331,0.0643477
0.0262051,0.0199732
-0.0294693,0.0507572
-0.0187646,0.104373
-0.0156424,-0.042184
-0.0226345,-0.0933952
-0.01729,-0.0584781
-0.0123725,0.0591287
0.00342265,0.094555
0.0646402,0.0499344
0.0916976,0.00695225
0.0661796,0.0878669
0.0128588,-0.0155228
-0.0142991,-0.11151
-0.0477412,-0.118156
-0.0685695,-0.151883
-0.0514126,-0.0963029
-0.00782517,0.0332982
0.022106,0.000214473
0.0102155,0.0623353
-0.0265625,0.0118842
-0.00301625,0.00900692
0.0587456,0.0497183
0.0241752,0.0340768
-0.0649421,-0.0742693
-0.0999743,-0.117528
-0.0777931,0.0377206
-0.0427659,0.0368546
0.031286,0.0624947
0.121185,0.051105
0.117474,0.0395673
0.0809118,0.149788
0.0535426,0.100241
0.0062483,0.0364659
-0.0514598,0.0260858
-0.0335471,-0.0399906
0.0228366,0.0292987
0.0691689,0.0282954
0.110695,-0.002294
0.068747,-0.159148
-0.0387841,-0.198142
-0.187196,-0.108355
-0.196906,-0.0826141
-0.0977455,-0.0642312
-0.00989441,0.13868
0.0199769,0.0270119
0.0376603,-0.0760486
0.0336462,-0.085941
-0.00772411,-0.135527
-0.0474346,-0.145975
-0.0676696,0.0322805
-0.0423492,0.121406
-0.0248921,0.0713774
0.0164431,0.0233718
0.0626201,0.108066
0.0573401,0.170918
0.0127311,0.15448
-0.0234039,0.156456
-0.0254856,0.145893
0.0116767,0.0248923
0.0391628,0.024234
0.0295024,-0.0736728
0.0374466,-0.120997
0.111851,-0.120227
0.168413,-0.124075
0.158907,-0.0442676
0.131549,0.0791999
0.0665395,-0.0734776
-0.0326348,0.0444527
-0.0991701,0.166569
-0.112983,0.0274452
-0.0108028,-0.0316291
0.0672372,-0.0838584
0.00648318,-0.0969485
-0.0637976,-0.136855
-0.152008,-0.186402
-0.183728,-0.137552
-0.122529,-0.031789
-0.0819087,0.143931
-0.0875057,0.185906
-0.0836741,0.00856479
-0.0400299,0.0783142
0.0874746,0.12036
0.212239,0.100219
0.202708,-0.0274216
0.0870791,0.0862044
-0.0764154,0.0457967
-0.222979,-0.0337751
-0.239449,-0.0592066
-0.151286,-0.161006
-0.0351337,-0.0674078
0.0630468,0.0425513
0.154399,-0.0222028
0.160365,-0.106084
0.0896572,-0.124105
0.0045898,0.0583672
-0.00553237,0.127825
0.0530475,0.099508
0.0976892,0.0709158
0.0823045,-0.00775551
0.0253946,-0.0679162
0.0304383,-0.0854224
0.00435036,-0.0165705
-0.0125306,0.0792589
-0.0295237,0.140634
-0.0359028,-0.00613016
0.113403,-0.146486
0.321938,-0.0265563
0.378388,0.0636885
0.151033,-0.00198416
-0.191031,-0.133037
-0.313683,-0.0621454
-0.366451,0.102471
-0.445443,-0.001812
-0.349175,-0.0679392
-0.0955906,0.09914
0.0464061,0.108384
0.0680318,-0.0072193
0.103968,0.0322855
0.206061,0.0415887
0.194098,0.0272535
0.0173952,-0.151641
-0.0444901,-0.249815
-0.0227914,0.0348485
-0.0228408,0.149816
-0.00308527,0.0166831
0.0339162,-0.112565
0.11727,0.0243587
0.19317,0.0388244
0.187623,-0.0274236
0.00896044,-0.113329
-0.244937,0.0334201
-0.30475,0.176152
-0.211677,0.0666408
-0.1088,-0.0163615
-0.0458127,-0.0427031
0.00606325,-0.0582008
0.0155248,0.0223047
-0.00191488,0.0701095
0.00596078,0.192139
0.0806623,0.182078
0.166291,0.0302301
0.253339,-0.107406
0.343976,-0.152703
0.338817,-0.152808
0.281964,-0.169577
0.156226,0.0157954
-0.0231064,0.165177
-0.263647,0.0896477
-0.386602,0.071546
-0.268152,-0.00565296
-0.107343,0.0579104
-0.148457,0.0674171
-0.300042,-0.0841576
-0.29508,-0.205588
-0.0129319,-0.150697
0.213716,-0.139604
0.190105,0.0159751
0.094997,-0.0125727
-0.0425181,-0.0147965
-0.177296,0.15135
-0.18243,0.191462
-0.0286587,0.037112
0.201728,-0.0200018
0.311805,-0.0254195
0.280353,-0.00391308
0.0658417,-0.0420968
-0.0582426,0.00729029
-0.00764696,-0.0849162
0.0391779,-0.178689
0.0910022,-0.0883431
0.133789,-0.0388529
0.0948812,0.0923419
-0.0222434,0.266078
-0.153261,0.056943
-0.190079,-0.0360245
-0.15306,0.0430378
-0.0823628,0.0573197
-0.0214283,0.0547596
0.0251877,0.0296578
0.0382718,-0.112478
0.0282235,-0.150581
-0.018823,-0.0489034
-0.0881335,-0.0141473
-0.16044,-0.00376256
-0.185771,-0.0134416
-0.102471,-0.0817481
-0.082006,-0.0964929
-0.122895,-0.00313937
0.0900286,0.366469
0.276835,0.260955
0.445321,0.196486
0.412177,0.033829
0.278396,0.0637605
0.153275,-0.077461
-0.158077,-0.24801
-0.431081,-0.0671536
-0.376625,-0.0696697
-0.21249,-0.109595
-0.0902607,0.0733156
0.0842168,0.0522707
0.274785,0.0131606
0.389583,-0.043442
0.341914,-0.0776075
0.0387137,-0.0209439
-0.140884,-0.0207114
-0.222366,-0.157831
-0.2708,-0.107882
-0.222444,0.0187721
-0.227691,0.142049
-0.235247,-0.0655134
-0.217127,-0.269728
-0.173085,-0.254071
0.00553395,-0.041633
0.252464,0.175412
0.318531,0.244119
0.230976,0.2484
0.153804,0.175156
0.150727,0.0491311
0.133191,-0.0109581
0.0526637,-0.142314
-0.0594082,-0.0191916
-0.27232,0.19726
-0.324938,0.136868
-0.214114,0.0185379
-0.0505774,0.064719
0.112632,0.0527099
0.168516,-0.208759
0.21577,-0.431561
0.17741,-0.307886
0.0899217,-0.152165
-0.0242141,-0.105638
-0.104907,0.000206338
-0.0666617,0.12262
0.0079642,0.295749
0.072238,0.399768
0.124082,0.249424
0.101697,0.0439176
0.0537336,0.0569033
-0.0668272,0.0898365
-0.173328,0.0474802
-0.168125,0.00863448
-0.163759,-0.0348383
-0.0452506,0.0449163
0.0668798,0.148419
0.11087,-0.0471371
0.134413,-0.195055
0.146866,-0.0760939
0.0946254,-0.0804273
0.0275638,-0.103752
-0.0269875,-0.243176
-0.172571,-0.279495
-0.199029,0.0156577
-0.158828,0.240983
-0.100537,0.144111
-0.0802441,-0.0270045
-0.141821,-0.328725
-0.0619283,-0.384661
0.203125,-0.148562
0.341337,0.0455587
0.297463,0.15363
0.17929,0.29162
0.0283694,0.339845
-0.104025,0.0493105
-0.0945019,-0.327934
9.1e-06,-0.406286
0.0625347,-0.0887667
0.06052,0.160046
-0.0151193,0.255483
-0.071249,0.403096
-0.129125,0.348714
-0.112883,0.0573765
-0.141723,-0.0848835
-0.222217,-0.0126971
-0.176207,0.0624024
0.0239355,0.0416813
0.176756,0.116718
0.17345,0.0349664
0.136125,-0.157984
0.167482,-0.190577
0.167657,-0.0236448
0.0517948,0.044504
0.00834269,-0.0923226
0.0359414,-0.161403
0.110545,-0.147565
0.056303,-0.0655548
-0.109811,-0.0447173
-0.274748,-0.0141727
-0.447921,-0.0959493
-0.339553,0.0483854
-0.0972926,0.124482
0.10941,0.0131696
0.208655,-0.0757973
0.11219,-0.0215825
0.0498991,0.0456709
0.0644755,0.0460928
0.0474528,0.0136199
-0.0732208,-0.0735633
-0.238798,-0.0533773
-0.29464,0.171588
-0.0833801,0.193101
0.269048,0.0560037
0.496453,0.0428733
0.39458,0.05495
0.0602312,-0.0304182
-0.155541,-0.136352
-0.135883,-0.147126
-0.0487677,-0.0679205
0.0063597,0.0240707
0.00637486,0.068076
0.0152005,0.0532514
-0.0265029,-0.00826146
-0.0830538,0.0143318
-0.0832196,0.0449697
-0.0594012,0.0245441
-0.000388771,-0.0430787
0.0594529,0.125427
0.00232793,-0.0864422
-0.0727781,-0.135233
-0.064082,-0.0414833
0.0126751,-0.0607777
0.0576855,-0.0390165
0.0541013,-0.01446
0.0319516,0.0458533
0.0090896,0.0102386
0.00890901,-0.0998958
0.0571376,0.000658327
0.0927936,0.0830545
0.0873295,0.0427381
-0.0111974,0.0104871
-0.110057,0.0799483
-0.129541,0.104858
-0.0898938,0.0587794
-0.0345578,0.0320176
0.0175179,-0.00655082
0.0608098,0.000350855
0.0509302,-0.047677
0.0684837,-0.136858
0.0752265,-0.133858
0.0506689,-0.143021
0.0122237,-0.0373762
-0.0575185,-0.05497
-0.0587092,-0.00306188
0.0294266,0.0865443
0.042771,0.175509
-0.0302497,0.213054
-0.0917646,0.180228
-0.0580567,0.0611759
-0.0467017,-0.0133157
-0.0454499,-0.00663136
-0.0786178,-0.0949418
-0.0662959,-0.0181858
-0.00576707,-0.0134876
0.055784,-0.115794
0.0891641,-0.0831616
0.143062,-0.0394394
0.13403,-0.0409539
0.0482039,-0.0458622
-0.0179863,-0.0566373
-0.0899305,-0.0142702
-0.0642656,0.0738295
0.0473504,0.137884
0.0679086,0.0444396
0.059199,0.0381324
0.0463339,0.0123732
-0.0307158,0.0064936
-0.113854,-0.054903
-0.126301,-0.0618278
-0.102166,-0.0223722
-0.0532483,-0.00923093
0.0227714,-0.00935403
0.0762261,-0.00770948
0.0800757,-0.0209143
0.0454384,0.0700487
0.00198617,0.0620666
-0.00959529,0.071702
-0.0122813,0.0626397
0.0319848,0.028375
0.0808633,-0.0870016
-0.0100577,-0.0949222
-0.114954,0.0579576
-0.128736,0.00165727
-0.0936653,-0.0410293
-0.0480394,-0.0622496
-0.0255196,-0.0761338
-0.004476,-0.150001
-0.00736004,-0.16088
0.0240672,-0.0447222
0.06638,0.0473686
0.107434,0.0784259
0.126371,0.102415
0.0849998,0.151798
0.00475291,0.0920731
-0.0483247,0.0457034
-0.0450335,0.0319124
-0.0656741,0.0399048
-0.0714163,0.123543
-0.0253328,0.0672715
0.0871391,0.0289688
0.183364,-0.0519909
0.152591,-0.0805293
0.0116241,-0.06583
-0.145409,-0.0623071
-0.15263,-0.0836548
-0.010465,-0.0387646
0.0396269,-0.0346966
0.0270075,-0.106368
-0.00205454,-0.0306457
-0.0204226,-0.0220798
-0.0243461,-0.185133
-0.0228069,-0.0705814
-0.0685529,0.151921
-0.0600667,0.163794
-0.0182083,0.180645
0.0260733,0.135827
0.0337115,0.0968024
0.0142657,-0.0280353
0.0272317,-0.117031
0.0520778,-0.0844287
0.0882768,-0.0785181
0.0901056,-0.0848074
0.0354507,-0.0455761
0.00872264,-0.0322268
0.0087167,-0.0585308
0.0273559,0.10564
0.0227045,0.212157
0.0111831,0.137912
0.0176326,0.102428
-0.0149642,-0.0206216
-0.130021,-0.0765388
-0.232741,-0.0704927
-0.218911,-0.042519
-0.0726839,-0.0162825
0.0349763,0.00603215
0.0608171,0.00568157
0.050027,-0.0558581
0.0417962,-0.0644238
0.012238,-0.14756
0.00970875,-0.204152
0.04879,-0.161091
0.033958,0.127154
-0.00855741,0.269831
0.0187856,0.259492
-0.0183358,0.156792
-0.0608393,0.0665243
-0.047728,0.0143236
0.00708616,-0.108636
0.0508124,-0.0923861
0.0758773,-0.0252157
0.0682864,-0.0310959
0.0256137,-0.0181948
-0.00534366,0.0100178
0.0141066,-0.0243532
0.0336193,0.0414458
0.0447759,0.0687434
0.0272838,-0.103625
-0.000149526,-0.0462445
-0.0197093,-0.035996
-0.0448038,-0.0484469
-0.043012,-0.0750489
-0.000879352,0.0118603
0.0228176,0.124409
0.0260097,0.0328089
0.0406222,-0.0537453
0.0787897,-0.0715577
0.0322183,-0.0505156
-0.0762627,0.0326738
-0.114142,0.0481517
-0.0674368,-0.0979649
0.0257962,-0.0385376
0.0699882,0.149216
-0.00321413,0.0467796
-0.0651993,0.0228944
-0.0508122,0.0355381
-0.0221575,0.0168671
0.0367212,0.000798673
0.075503,-0.0183166
0.0463981,-0.0259099
0.0168766,-0.0597359
-0.0369384,-0.0847205
-0.0943337,0.00753775
-0.0778887,0.109235
-0.0142946,0.0377822
0.0625127,0.104571
0.112131,-0.0590453
0.0889961,-0.117445
0.00153105,0.0241868
-0.0973621,0.0218159
-0.0998399,-0.00647817
-0.0793591,0.0180768
-0.0819576,0.0633736
-0.114336,0.0520815
-0.10266,-0.072461
-0.0712533,-0.175478
-0.0530498,-0.209659
0.00365282,-0.0925148
0.0446446,0.00553352
0.0705898,0.0972871
0.149158,0.160904
0.208439,0.116149
0.226187,0.0773505
0.194504,0.0663416
0.0771254,0.0652331
-0.0401579,-0.000234661
-0.0626175,-0.00554362
-0.044532,0.0583757
-0.0467613,0.0572737
-0.0687956,-0.00794398
-0.0640537,-0.0202834
-0.0468176,-0.0228381
-0.0417142,-0.0144314
-0.0314953,-0.0429608
-0.0344235,-0.0909693
-0.0310334,-0.0651111
-0.00607343,-0.0732708
-0.0045475,-0.0440153
-0.00113982,0.0232294
0.0157775,-0.0315425
0.0242875,-0.0385001
0.0208039,0.0302478
0.048512,0.053968
0.0941988,0.0494542
0.134566,0.0614246
0.0960612,0.0779139
-0.00748292,0.00555054
-0.0526579,0.000545385
-0.105016,0.0361693
-0.118983,0.0518832
-0.0666982,-0.0274397
-0.0599502,-0.108876
-0.0683362,-0.184204
-0.00752309,-0.114161
0.0296963,-0.0257029
0.0537409,-0.0141049
0.0470152,0.00892605
-0.0190215,0.0298314
-0.073072,0.0252908
-0.0662963,-0.0157482
0.00853076,0.0381872
0.0999873,0.112071
0.143284,0.0683019
0.112395,0.0523301
0.0701801,0.0274787
0.005222,0.0215642
-0.0626464,0.0230298
-0.12431,-0.00759817
-0.13794,-0.0301468
-0.082334,0.0178668
-0.0150451,0.0349787
-0.00740204,0.00881905
-0.039434,0.0120903
-0.0344843,-0.0191608
0.0104846,-0.0438393
0.0264704,-0.0111758
0.0228173,-0.00545227
0.026868,-0.0195301
0.0129184,-0.0627682
0.0168425,-0.0805303
0.0453878,-0.0390593
0.0507166,-0.0444017
0.0476616,-0.0347433
0.0191208,-0.0500713
-0.00154923,-0.043054
0.0182041,0.0909242
0.0478456,0.134905
0.0609613,0.0541079
0.049929,0.0408862
-7.74e-05,0.0385716
-0.0746792,0.0111772
-0.141631,0.0225144
-0.121334,-0.0211679
-0.0623436,-0.055774
-0.0315497,-0.0721526
0.0290288,-0.0604019
0.121626,-0.0279989
0.17928,-0.0401604
0.140976,0.00399378
0.0225,0.123953
-0.0661252,0.033785
-0.0900225,-0.00999237
-0.0696836,-0.00801868
-0.0367153,0.00699653
-0.0389833,0.0483374
-0.0487888,-0.0149129
-0.0325756,0.00864909
0.000358253,0.0129645
0.0287665,-0.0227258
0.015871,-0.00153816
-0.00500512,0.0299476
-0.00673674,-0.0514055
0.00930567,0.0252791
0.00768384,0.0946074
-0.0154153,0.0321046
-0.0287403,-0.0297526
-0.00253609,-0.0113669
0.0530274,-0.0349507
0.0759423,-0.0704023
0.0869137,0.060132
0.0759402,0.0424116
-0.00686417,-0.0214083
-0.0768545,0.0361359
-0.100597,-0.0350941
-0.0738016,-0.0318011
0.0292996,-0.0208916
0.126292,-0.126039
0.118203,-0.102136
0.0375473,0.00620998
-0.0609662,-0.116138
-0.116174,-0.100072
-0.0934613,0.131948
-0.0346179,0.142756
0.0220875,0.132724
0.0470511,0.140458
0.00899784,0.0921696
-0.0545158,0.00577695
-0.0715714,-0.0459807
-0.0309832,-0.0563576
0.000883055,-0.0637741
-0.0158414,-0.0797618
-0.00718002,-0.0820962
0.00838094,-0.0891314
0.00911772,-0.0386227
0.00951475,0.0919232
0.0192969,0.126218
0.0374494,0.0558481
0.0715331,-0.0595088
0.075202,-0.0599207
0.0262883,-0.05018
0.00721647,0.0280407
-0.00656121,0.0934362
-0.0344328,0.0755371
-0.0509741,0.045295
-0.0631004,0.0244385
-0.0309455,0.0113634
0.0105465,0.0334154
0.0529403,-0.0397288
0.0654754,-0.0228668
0.0203885,0.0178012
0.0116511,-0.0174854
0.0190531,-0.0636756
0.0104309,-0.0923656
-0.00990244,-0.0163335
-0.0300377,0.0599379
-0.0582266,0.0170625
-0.0620666,-0.00418253
-0.0124789,-0.0456979
0.018214,-0.00558715
0.00936976,0.0220599
0.0016672,-0.0201604
0.00624655,-0.0223563
-0.00878845,-0.00522405
-0.010461,0.0139295
0.00319436,-0.00621083
-0.0153693,0.0648109
-0.0474474,0.0309747
-0.0427275,0.0289014
-0.0240978,0.0389174
0.00153474,-0.0288591
0.0207499,-0.0763608
0.0414872,-0.0539969
0.0917078,0.0224503
0.107877,-0.00744835
0.108859,-0.10724
0.111843,-0.147356
0.0772372,-0.0390111
-0.00284304,0.0808675
-0.0542497,0.0694429
-0.112898,0.0157115
-0.151658,-0.0062872
-0.0837183,0.020734
-0.0497956,-0.0378742
-0.0643181,0.0235354
-0.0595633,0.0595058
-0.0418029,0.0842417
-0.00706908,0.12921
0.0276226,0.0649653
0.0448524,0.0284697
0.0389669,-0.000745408
0.0126511,-0.034741
0.0248068,-0.0574512
0.0704495,-0.0578498
0.0904648,-0.0729153
0.0901443,-0.0307792
0.0457148,0.0155698
-0.0185063,0.0403827
-0.0374926,-0.020752
0.00113519,-0.0354472
0.00467901,-0.00941147
-0.0245433,0.0401461
-0.0445725,0.0377034
-0.0801754,-0.018247
-0.082191,0.0421348
-0.0293298,0.108493
0.00642136,-0.00156042
-0.000579265,-0.0761018
-0.0278991,-0.0721811
-0.0623975,-0.00390233
-0.0731448,0.0436426
-0.0455963,-0.0140212
-0.00258279,-0.050979
0.0562068,-0.106758
0.0826435,-0.135306
0.0496841,-0.122989
0.0261749,-0.0521527
0.0537691,0.0894947
0.0508113,0.116643
0.0522008,0.154757
0.137224,0.1066
0.175775,0.106229
0.13235,0.0302162
0.108323,-0.0644372
0.0363108,-0.0889733
-0.0406479,0.0542208
-0.0649189,-0.000146981
-0.143498,-0.11104
-0.190546,-0.100152
-0.166014,-0.0159111
-0.143621,0.0666053
-0.118701,0.116905
-0.059304,0.110901
-0.00960355,0.0531979
0.0146636,0.0235651
0.0193509,0.0145203
-0.00403137,-0.0325357
-0.0130893,-0.0537812
0.00354092,-0.0534985
0.0236276,-0.0357205
0.0218018,-0.030408
0.00989834,-0.0201603
0.0129245,-0.00746644
0.0238461,-0.0194479
0.027089,-0.0918817
0.0185019,-0.0428144
0.0163368,0.0655147
0.0327301,0.100815
0.0686568,0.0205359
0.114893,0.018133
0.133534,0.050377
0.10888,-0.00436607
0.0439026,-0.0368194
-0.0795491,-0.0383852
-0.141806,-0.0212777
-0.135464,-0.0625469
-0.113074,-0.0179503
-0.0515083,0.0221534
-0.00693884,-0.0400173
0.0199306,-0.0706582
0.0232431,-0.0737147
0.0139821,-0.0438388
0.00382972,0.0449362
-0.00280411,0.0915442
0.012185,0.0784701
0.0249689,0.0442835
0.0165224,0.0136044
-0.00518285,0.00643935
-0.0369526,-0.00743835
-0.0529245,-0.0367789
-0.0369704,0.0516947
-0.0122333,0.0522355
0.0150784,0.0286875
0.0440512,0.0562554
0.0684212,0.0348585
0.0490562,-0.0297233
0.00865003,-0.0298838
-0.0085462,0.0209168
-0.0262279,0.0186991
-0.0309482,-0.0311978
0.00583892,-0.0485908
0.0732194,-0.000800602
0.128515,0.00219129
0.120413,-0.00598569
0.119524,-0.0810059
0.151978,-0.0533737
0.127726,-0.0577077
0.02718,-0.155985
-0.143517,-0.0635055
-0.29901,0.0807512
-0.249897,0.184583
-0.109642,0.0866492
-0.00670958,0.071774
-0.0193623,0.0373689
-0.0620553,-0.00311956
-0.043286,0.0166423
0.0112832,-0.0425113
0.0306235,-0.0578943
0.0246439,0.025005
0.00857191,0.00908748
0.0107384,-0.0730626
0.0266294,-0.131961
0.0195797,-0.0984848
-0.0204546,0.0284023
-0.0566081,0.0606335
-0.0663655,0.0769439
-0.038446,0.0340433
0.0331198,-0.00261685
0.0773947,-0.0124009
0.0853202,-0.00165391
0.0897885,0.0132923
0.0984067,0.0384294
0.0939645,0.123084
0.0217082,0.108587
-0.0532416,0.0713964
-0.0927269,-0.0137012
-0.122226,-0.0713245
-0.0922728,-0.1091
-0.0406923,-0.184416
-0.00986655,-0.0334169
0.0263648,0.0663239
0.0318597,0.0291727
-0.0140496,-0.133295
-0.00514555,-0.138994
0.0524576,0.0305111
0.0954279,0.113902
0.0940709,0.0297762
0.0556475,-0.0326149
0.0282885,-0.0133089
-0.0321944,0.0316048
-0.0769334,0.0853698
-0.0322357,0.126869
0.0694106,0.0730754
0.147618,-0.00140329
0.0888496,-0.0637367
-0.0239479,-0.0187829
-0.13676,0.0123923
-0.166352,0.0346646
-0.063482,0.0587115
0.00667181,-0.0114503
0.0108222,-0.0568974
0.00980254,-0.0379642
-3.64e-06,-0.0634056
0.00659553,-0.0540882
0.0408929,-0.0293209
0.0472857,-0.0409603
0.00902029,-0.0667141
-0.0240029,-0.0498885
-0.0579577,-0.0103571
-0.0471198,0.14108
-0.0120742,0.160603
-0.00712514,0.0727165
0.00706105,0.0397738
0.0175245,-0.0886182
0.0127888,-0.0371835
0.00872366,0.0324114
-8.62e-05,0.0946698
-0.0183528,0.060637
-0.0299318,-0.0855061
-0.0439293,-0.0559169
-0.0239975,0.0190643
0.0319701,-0.0468866
0.0683423,-0.0971875
0.0515835,-0.0431225
0.0212794,-0.0094453
0.0291178,-0.0249624
0.0365201,0.0521961
0.0119098,0.0206887
0.00168529,0.0281577
0.0161591,0.0021764
0.0230717,-0.159164
-0.0229423,-0.167408
-0.0810547,-0.0518777
-0.0757453,0.0701018
-0.0223714,0.140939
0.0152169,0.0929811
0.0141343,0.0888018
-0.0226691,0.0159394
-0.0650478,0.00155169
-0.0566505,0.0113583
-0.0350921,0.0410298
0.0176703,0.0551675
0.0692876,0.0280909
0.0440109,-0.0338014
0.0198272,-0.0701868
0.0186881,-0.0221933
0.00229307,0.0231099
-0.0297424,-0.00721424
-0.0404876,0.00219562
-0.0121469,0.0564461
0.0372193,0.0214249
0.0665849,-0.0364871
0.0540418,-0.0373344
0.0313225,-0.000325517
0.0106927,0.00920124
0.0105321,-0.0304957
0.0354379,-0.0364452
0.0358005,-0.00841218
-0.0158436,0.00906758
-0.0582928,-0.0675027
-0.0217513,-0.0577459
0.05352,-0.0381913
0.082645,0.0312973
0.0230247,0.0214
-0.0750167,-0.00783831
-0.149472,0.0420046
-0.0967149,0.0322904
0.00280202,-0.0782974
0.0753321,-0.0320002
0.0714697,-0.0136362
0.0355993,-0.014449
-0.0055097,0.0273773
-0.047318,0.0555271
-0.0931404,0.104799
-0.0986247,0.0702217
-0.0501646,-0.00908251
-0.00261982,-0.0258428
0.0183727,0.0649327
0.0061504,0.0555262
-0.0270311,-0.00273043
0.00271615,-0.0273605
0.0579365,-0.0413601
0.0609522,-0.0126317
0.061106,-0.0142554
0.0630395,-0.0849643
0.0231139,-0.0869822
0.0241811,-0.0134734
0.00680439,0.0472773
0.035337,0.054224
0.0315713,0.0454335
-0.06066,0.0138724
-0.100462,0.0214673
-0.0416229,-0.00686753
0.00158292,-0.0123515
-0.00827346,-0.0357364
-0.0338113,-0.0464333
-0.0439867,-0.0434383
-0.0177903,0.037743
0.0551873,0.0979538
0.0784011,0.0722878
0.0658843,-0.0538949
0.0427473,-0.0704377
-0.0426947,-0.066241
-0.0718126,-0.0575085
-0.0323145,0.0318818
-0.00154667,0.145993
0.019757,0.197715
0.0304444,-0.0639905
0.0347747,-0.118689
0.0183733,-0.0773176
0.0438056,-0.0455064
0.0548524,0.045879
0.00934499,0.074884
-0.0723095,0.0477074
-0.115373,0.0185969
-0.0708969,-0.0111896
-0.00951147,-0.048337
0.0107093,-0.082715
-0.00989688,-0.0540668
-0.0327082,-0.00891707
-0.0243521,0.0139857
0.00180456,-0.0201977
0.0642962,0.00953127
0.145148,0.0631323
0.177843,0.0425651
0.115384,-0.0320268
0.00457475,-0.0211875
-0.111704,-0.0691024
-0.124253,-0.11901
-0.0473635,-0.0324762
-0.0199961,-0.016418
-0.0142798,0.031016
-0.0167909,0.0449839
-0.0223552,0.0539417
-0.0465858,0.0908
-0.0470042,0.14428
-0.034995,0.110484
-0.0295307,0.00975896
-0.00955436,-0.0249296
0.0108636,-0.0530862
0.0407356,-0.070701
0.0419575,-0.0839772
0.0245141,-0.0758084
-0.0103122,-0.117633
-0.0206276,-0.0695146
-0.0303971,-0.0585473
-0.0173492,0.00179264
0.00258607,0.0450795
0.0261638,0.0771017
0.0539404,0.141502
0.0690118,0.131764
0.0902786,0.0918
0.0958707,0.0520894
0.0530079,0.0114086
-0.0309567,-0.0166106
-0.0872747,-0.0320463
-0.101542,-0.0295547
-0.0748927,-0.0196972
-0.0231292,-0.0190651
0.0273866,-0.00600415
0.0421627,0.00567983
0.0356123,-0.0119953
0.0255264,-0.0290906
-0.00735868,-0.00384073
-0.00038002,-0.0273527
0.00561056,-0.0280609
-0.0226451,0.0162158
-0.0083698,0.0304164
-0.00802567,0.00611836
-0.0296252,0.000560845
0.00503456,-0.0710837
0.0238379,-0.0904859
-0.00440249,-0.0384128
-0.0181991,-0.0931551
-0.0113018,-0.0284838
-0.0519041,0.0442824
-0.0656015,0.0806994
-0.0419816,0.0853468
-0.0213059,0.0930105
0.00760509,0.0589543
0.0341018,-0.053347
0.0476074,-0.0427943
0.0455327,-0.00616472
0.0145148,-0.00714943
0.0181084,-0.0659295
0.061779,-0.00270795
0.061059,0.0607587
0.0488054,0.0238762
0.034125,0.0361134
0.038292,0.0331978
0.0623234,-0.0816693
0.0160262,-0.101678
-0.0643595,0.0954675
-0.122145,0.116685
-0.125103,-0.0153153
-0.0707241,-0.0267551
-0.0330797,-0.0252429
-0.00654386,-0.0125454
0.0112365,0.00195322
0.0162052,-0.0389829
0.00332637,-0.034658
0.00803636,0.0107123
0.0153708,0.0447988
0.0100487,0.021214
-0.0167542,-0.0090753
-0.0520615,-0.0143012
-0.0464102,-0.0100854
-0.00750975,0.0181485
0.0130573,0.0251699
0.0185268,-0.0158623
0.0295655,-0.0793003
0.0390673,-0.131404
0.0483703,-0.12686
0.054317,-0.0286281
0.0339794,0.0072166
0.0401784,-0.0045745
0.0556079,0.102499
0.0519249,0.185411
0.0164268,0.155976
-0.0510441,0.0170781
-0.104565,-0.0191697
-0.116611,-0.0507758
-0.0633732,-0.0543437
-0.0177299,0.0750389
0.0306633,0.0564442
0.0637042,0.0282207
0.050208,0.00559578
0.0219924,-0.00249168
-0.0159231,-0.0207706
-0.0324949,-0.0203066
-0.0141457,-0.00769584
0.00701301,0.0153049
0.0110236,0.00624948
0.00988959,-0.0306577
0.00335496,-0.0538023
-0.00596994,-0.0412335
0.00054116,-0.0255446
0.0103265,-0.0143067
-0.010211,0.00548515
-0.0307651,-0.000294432
0.00341056,-0.0576921
0.0641682,-0.098916
0.0719036,-0.0798406
0.0313376,0.036125
-0.00601119,0.1421
-0.024888,0.0921161
0.00809406,0.0324846
0.0830704,0.00721752
0.0806465,-0.0137509
-0.00156637,-0.0829648
-0.0806533,-0.0514328
-0.152923,0.0107588
-0.129711,0.0137118
-0.0698623,-0.00645624
-0.0274577,-0.00645073
-0.0360459,0.00912334
-0.0377814,0.0224218
0.00686143,0.0271204
0.0252739,0.0141337
0.0586128,0.0334317
0.0875986,0.0765493
0.0730516,0.0380854
0.057722,0.0121088
0.00714475,0.0013056
-0.0153757,0.0103105
0.00197807,-0.00182205
-0.00944227,-0.0605259
-0.027217,-0.0585212
-0.0103655,-0.0152923
-0.0234754,0.00186103
-0.0440473,-0.0330938
-0.0269511,-0.0646068
-0.00207321,-0.0537875
0.0147657,-0.0339503
0.037517,0.0226
0.0400113,0.076015
0.0159499,0.072635
-0.0051512,0.0560858
-0.0194781,0.0237155
-0.023157,-0.0275547
-0.0286729,-0.0772863
-0.0218176,-0.0335872
0.0348754,-0.029384
0.0629846,-0.0874648
0.0394554,-0.0402379
-0.0208104,0.0250505
-0.0435899,0.0582073
-0.0094355,0.063043
0.0403007,0.0241698
0.0853546,0.00226852
0.0935626,0.0437707
0.0517876,0.104802
0.000797605,0.012468
-0.0559114,-0.0727891
-0.109039,-0.0769694
-0.0886523,-0.00968805
-0.0254479,-0.0258031
0.00611418,-0.0476752
0.021158,0.0345723
0.00893894,0.123671
-0.0110618,0.0774502
-0.0035443,0.0450869
0.0174956,0.0467401
0.0140226,-0.0100057
0.00290643,-0.0330415
-0.00773992,-0.0611645
-0.0367469,-0.0542455
-0.0811741,-0.0808472
-0.0684831,-0.105116
-0.0101668,-0.07094
0.0333433,-0.00789246
0.0280606,0.0858055
0.0239714,0.113022
0.0544377,0.0460403
0.0730478,0.00880445
0.0529611,-0.0355099
-0.00141862,-0.0540091
-0.0255689,-0.0161475
-0.033948,-0.079482
-0.00260424,-0.0509757
0.0105486,0.0867984
0.0303048,0.1147
0.0186843,0.0368103
-0.0155197,0.0321755
-0.0176884,0.00542459
-0.0373938,-0.00749089
-0.0342952,-0.00713257
-0.00489107,0.0156118
0.00092875,0.0432501
-0.0181114,0.0125432
-0.00683759,-0.0400192
0.0153633,-0.113716
-0.00249799,-0.0682362
-0.0156815,-0.0168893
-0.00854919,0.054909
0.0114336,0.0185389
0.0489821,-0.0367484
0.0551299,-0.0842798
0.0479872,-0.00898553
-0.0141138,0.0668208
-0.0512743,0.0347041
-0.0165605,0.0164036
-0.00208075,0.0041306
-0.0340621,0.0208279
-0.0546063,0.0469219
-0.0226084,0.06141
-0.0115715,0.0437509
-0.0142316,0.015179
-0.00628581,-0.00625252
0.00206391,-0.0516701
0.00577785,-0.0842531
0.00792732,-0.0825068
0.0371425,-0.0827602
0.0864161,-0.0968437
0.0844903,-0.0400113
0.0450659,0.0406453
-0.00852899,0.0883569
-0.0513758,0.11149
-0.0580872,0.0239285
-0.0340129,-0.0293345
0.0168746,-0.0334807
0.0485321,0.0272174
0.0308427,-0.0582657
-0.0108822,-0.026179
-0.056781,0.0337408
-0.0572258,0.0490117
0.0132207,0.0640701
0.0719132,0.11712
0.0289509,0.0606664
-0.03119,0.00386012
-0.0624899,0.0135521
-0.0306379,-0.00827758
0.0474164,-0.0614822
0.0514508,-0.0189291
-0.00181163,-0.0185938
-0.0493207,-0.0292644
-0.0423567,-0.0589207
-0.0102151,-0.054009
0.00351232,0.0229848
0.0153042,-0.00514878
0.00487941,-0.048375
0.00178492,-0.0253206
0.00901039,-0.0332577
0.0192874,-0.0731716
0.0112974,-0.0503617
0.00241119,0.0435815
-0.0287037,0.0846054
-0.0297026,0.0848456
0.0206621,0.094486
0.0402485,-0.0176511
0.0242004,-0.0311885
-0.0107776,0.0220627
-0.0351793,0.0429288
-0.033932,0.0268473
-0.0205752,0.0186034
-0.0035661,0.00893441
0.0342574,-0.00371602
0.0881373,-0.00739121
0.0881435,-0.0440776
0.0545923,0.00186274
-0.0535856,0.0211997
-0.133749,-0.00536479
-0.0927765,0.0151375
-0.0308834,0.0113817
-0.00102865,-0.028243
0.0142016,-0.0415526
0.0320705,-0.039058
0.0444226,-0.0549756
0.0293798,-0.113816
-0.00835151,-0.0602054
-0.0258922,-0.0668391
-0.0346616,-0.0369624
-0.0161986,0.0218724
0.0172818,0.0703098
0.0280473,0.125182
0.0224347,0.128348
0.0353206,0.0473977
0.0666503,0.0486164
0.0519376,0.0431247
-0.0204813,-0.0229355
-0.0539813,-0.0320934
-0.0483349,-0.0207991
-0.0301702,-0.0347504
-0.0232764,-0.0463314
-0.00987387,-0.0249747
0.00354854,0.0445284
-0.000403193,0.0591871
-0.0126359,0.0287853
0.00102235,-0.00627407
0.0151007,-0.0209634
0.00449133,-0.0209438
0.0448998,-0.00846411
0.0807175,-0.0749778
0.0629497,-0.110184
0.00249655,-0.0548661
-0.0694467,0.0584855
-0.103136,0.110851
-0.0953868,0.050216
-0.0680901,0.0086673
-0.0202799,-0.00469003
0.0433524,-0.00905332
0.0783381,0.0273305
0.0744413,0.0225817
0.0642243,-0.0098819
0.0367132,-0.0300851
0.0128993,-0.0364825
-0.0109109,-0.0259228
-0.0294643,0.0312934
-0.0533474,0.0536328
-0.063449,0.0320669
-0.0580906,-0.0205606
-0.0312053,-0.0601258
-0.0052995,-0.0647702
0.0201124,-0.0448035
0.0681348,0.00373918
0.0808073,0.00970786
0.0526432,-0.0516379
0.0291675,-0.0327081
0.00539216,0.0109391
-0.0360354,0.00208648
-0.0352827,0.00298322
0.00127074,0.0604052
0.0268663,0.13071
0.00669975,0.102348
-0.0320434,0.0608783
-0.0459829,0.00278368
-0.0456789,-0.0768011
-0.0413022,-0.0717356
-0.0189391,-0.00909525
0.00690444,0.0183325
0.0114879,-0.0451912
0.0121998,-0.0662957
0.00557232,-0.0208349
-0.0169227,-0.0395504
-0.0385237,0.0189905
-0.0111706,0.0809538
-0.00150219,0.0543463
0.0060857,0.0177497
0.0776914,-0.029451
0.125117,-0.0649526
0.105661,-0.0500495
0.0656029,-0.0410087
0.0178308,-0.00958275
-0.020997,0.00886277
-0.0458842,0.0406168
-0.0923013,0.0834028
-0.102015,0.0508423
-0.0699059,0.0172409
-0.0561461,0.0143872
-0.0216262,0.0138361
0.0332531,0.0349056
0.0397158,0.0542688
0.00667686,0.00354333
-0.022439,-0.0288563
-0.0307623,-0.0161084
-0.0215867,-0.00471853
0.0285388,-0.017287
0.0647942,-0.0497274
0.0678223,-0.0890444
0.0690431,-0.0931127
0.00983754,-0.0160842
-0.042311,-0.0054686
-0.0467617,-0.0196947
-0.019404,-0.0210426
0.00309449,-0.072408
-0.00775829,-0.0578208
-0.0266273,0.0353806
0.0333439,0.0984193
0.0557181,0.146551
0.0186856,0.0746726
-0.0244412,0.0328372
-0.0127006,0.00950341
-0.000751065,-0.0171682
0.0222511,-0.0794998
0.00612804,-0.0736484
-0.0391538,-0.0309776
-0.0646428,0.0543821
-0.0452397,0.144038
-0.00869792,0.080326
-0.00611538,-0.0128169
0.0034106,0.0103524
0.0207074,0.0166181
0.0266913,-0.0208874
0.0189633,-0.0311757
0.00496003,-0.0233347
0.0107637,-0.0271727
0.02156,-0.0496833
0.00287574,-0.0874786
-0.0106912,-0.107224
-0.00385279,-0.0611402
-0.000459754,0.0763128
-0.00236423,0.107094
-0.0140229,0.0672013
-0.0219532,0.0536401
0.00287857,-0.000796412
0.0340712,-0.0518274
0.0562379,-0.0959924
0.0816463,-0.0946539
0.0818747,-0.0978941
0.0585742,-0.091988
0.0348305,-0.0324095
-0.0463781,0.0569895
-0.0959355,0.114273
-0.0687388,0.216107
-0.0551432,0.12267
-0.0512899,0.0631368
-0.0485992,0.0289444
-0.0431283,-0.00845885
-0.0234734,0.0135477
0.00787899,-0.0229696
0.043328,-0.0739403
0.0477865,-0.0281796
0.0345576,0.0272201
-0.0119129,0.0514493
-0.0342344,-0.012806
-0.0381886,-0.0658817
-0.0258675,-0.129024
0.00367739,-0.0739027
0.0164855,-0.0963034
0.0104335,-0.0729228
0.00056121,0.054974
-0.0105505,0.133601
-0.0219122,0.0832485
-0.00260011,0.0626978
0.0141609,0.01248
0.0206121,-0.00457466
0.0160519,0.00426201
0.0113518,-0.0244646
0.0108569,-0.0429866
0.0127188,-0.0105631
0.0174728,0.0554511
0.00868841,0.0142145
0.0172033,-0.0438361
0.0350289,0.0112226
0.0246477,-9.58e-05
0.00305435,-0.045052
0.00773804,-0.00616596
0.0290552,0.0498813
0.029228,0.0288461
-0.00238217,0.0052382
-0.0267866,-0.0274458
-0.0346062,-0.0229663
-0.0533419,-0.0160592
-0.0523324,0.00387822
-0.0227423,-0.014266
-0.0301557,-0.0261357
-0.0255436,0.0156851
0.00730576,0.0167263
0.00980627,-0.00696721
0.00293205,-0.0198038
0.0168911,-0.0163033
0.0318094,0.0327056
0.0451056,0.00305191
0.0497735,0.00699886
0.0291449,-0.0171359
-0.0191583,-0.0425624
-0.0671494,-0.0257519
-0.0477256,0.00982569
0.0202475,0.0248401
0.0492487,0.00961424
0.0316267,-0.00429372
-0.00351197,-0.0999802
-0.0269035,-0.144035
-0.0151341,-0.0424588
0.000672846,0.0409325
-0.00671752,0.0832573
-0.0248278,0.0947886
-0.0263336,0.0623348
-0.012437,0.030875
0.00284554,0.050392
0.0140128,0.0650513
-0.00393385,0.0741045
-0.0220238,0.030047
-0.0192205,0.0136555
0.00736504,0.00790549
0.0707414,0.0333386
0.122096,0.0146084
0.103555,0.0029158
0.0461997,-0.0297356
-0.0322109,-0.0380418
-0.0967043,-0.0468516
-0.0850214,-0.0849096
-0.0324322,-0.19224
0.00105492,-0.247489
-0.0205475,-0.09092
-0.046463,0.058881
-0.0282785,0.0694591
-0.0384912,0.13037
-0.0458187,0.111641
-0.0217318,0.0673954
0.0241989,0.0570086
0.0499796,-0.00340031
0.0387784,0.0236787
0.0221113,0.0693873
0.0149017,0.0497553
-0.00413001,0.0328058
-0.0110268,0.0194827
0.014196,-0.00174806
0.0245321,0.0013087
0.0226022,-0.000652391
0.026337,-0.0148002
0.0241111,-0.0399615
0.00398887,-0.0612408
-0.00697336,-0.0628777
-0.036373,-0.0311868
-0.0581719,-0.0268893
-0.0338001,-0.0650568
-0.00965992,-0.082126
-0.00618175,-0.0283243
-0.0102702,0.0462083
0.00462327,0.0227856
0.0226835,0.0247638
0.0105391,0.0360704
0.00449539,0.0438839
0.00141405,0.0352072
-0.00284731,0.017465
0.00670576,0.0276782
0.00787642,0.00580917
0.0244505,-0.0324878
0.0617995,-0.107984
0.0623668,-0.115882
0.0591971,-0.0930462
0.0295143,-0.089867
-0.0393923,-0.0328101
-0.0264853,0.0496507
0.0303475,0.141788
0.0173149,0.193813
-0.0158682,0.100959
-0.0454805,0.0771003
-0.0585277,0.0189035
-0.0511881,-0.0499074
-0.0650407,-0.0200611
-0.0529095,0.0010092
-0.00767264,0.06861
0.0112529,0.058891
0.00140521,0.0161967
-0.00793654,-0.0104888
0.0257965,-0.0291898
0.0641992,-0.0371799
0.0797376,-0.0476035
0.0591218,-0.0669913
-0.0117342,-0.0599594
-0.0467264,-0.0317482
-0.0577348,0.0081943
-0.0572558,0.0219018
-0.0166903,0.0259069
0.0148259,0.0263424
0.00584801,0.0113697
-0.0102995,-0.013322
-0.00915294,-0.0319556
-0.00336489,-0.0318908
0.00741338,-0.0238649
0.011309,-0.0175397
0.00559412,-0.0795509
-0.0166297,-0.144604
0.000838576,-0.0698168
0.0228633,0.121011
0.00197514,0.115426
-0.0473043,0.0176451
-0.0414497,-0.0295873
-0.0144299,-0.0770601
0.0153214,-0.0630082
0.0369141,0.0273497
0.0702038,0.0799888
0.0927757,0.0895218
0.0908373,0.0818989
0.043714,0.0691101
-0.0174399,0.0473166
-0.0429483,0.0565421
-0.0534047,0.0298634
-0.0841231,-0.0285794
-0.0740214,-2.67e-05
-0.0419013,0.00274385
0.00631259,-0.0359242
0.0429567,-0.065134
0.0618249,-0.0611265
0.0633662,-0.0449245
0.0510499,-0.00672486
-0.00236454,0.00224088
-0.0650549,-0.023493
-0.0564243,-0.027708
-0.00279885,0.0371094
0.0134632,0.0824401
-0.00482124,0.0210617
-0.0289801,-0.0225656
-0.0259031,-0.0569498
-0.0104872,-0.0687121
-0.00588953,-0.00879863
-0.00422741,-0.0076274
-0.00659308,0.0086286
0.0229471,0.0257142
0.0784678,0.0255141
0.0802251,0.0230007
0.0420901,0.0404979
-0.0090678,0.0578648
-0.0632726,-0.052533
-0.050977,-0.0690858
0.0163388,0.00299663
0.0171193,0.0484414
-0.0260013,0.0309385
-0.0350079,0.0197357
0.000789536,0.0118251
0.0411485,-0.0104271
0.018066,-0.0240199
-0.0459812,-0.019487
-0.0943757,-0.0053433
-0.0735136,0.0189532
-0.00552308,0.00262021
0.030203,-0.0209901
0.0419759,-0.0108407
0.0347428,-0.0263245
0.0190556,-0.00265758
0.0137885,-0.0315863
0.00537889,-0.045858
-0.000924588,0.000104281
-0.00946575,0.0304094
0.00624871,-0.0323714
0.0234429,-0.132732
0.0279938,-0.0747809
0.00424124,0.0476646
-0.0380964,0.0657567
-0.0436448,0.0960408
-0.0154019,0.0831163
0.0112192,0.117421
0.00811806,0.0821679
0.0135082,0.0146408
0.0316149,-0.0327197
0.0353926,-0.0676942
0.0302485,-0.124021
0.024305,-0.0891141
-0.00396655,-0.0137335
-0.0298883,0.0227701
-0.0415726,0.0441097
-0.00378711,0.0526895
0.0698206,0.0773189
0.10327,0.0825132
0.0971742,0.0116516
0.0405132,-0.038486
-0.0413174,-0.0365159
-0.108042,-0.025041
-0.114444,-0.0113961
-0.0907627,0.000189506
-0.0522422,-0.0136265
-0.0440141,-0.0191528
-0.0358448,0.0292383
-0.0275387,0.0103714
-0.0339288,-0.0141474
-0.00184086,0.0434345
0.0703372,0.0244626
0.145567,-0.0084873
0.158622,-3.41e-05
0.104764,-0.0988403
-0.0151358,-0.102843
-0.118151,-0.147508
-0.111489,-0.142559
-0.071395,-0.00464078
-0.0367177,0.145109
0.0304379,0.0828586
0.0901115,-0.0080642
0.0835671,-0.00658796
0.0100793,0.0477727
-0.0673057,0.100586
-0.114499,0.0614545
-0.0797168,0.0466378
-0.0315974,0.0581855
-0.0180886,0.0169542
0.0357328,0.00722533
0.0624086,0.0250331
0.0484565,0.015257
0.0333124,0.00678549
-0.00490686,0.0046846
-0.0229588,-0.044991
-0.0192589,-0.0533502
-0.0118006,-0.0904423
-0.00829759,-0.0461627
0.000673847,0.0100067
-0.0123716,-0.0189625
0.0147022,-0.00766429
0.0418567,0.0135267
0.0377294,0.0265022
0.0218308,0.0338889
0.0357662,0.0120892
0.0733773,-0.00721067
0.0638549,0.0362256
0.0700831,0.0367897
0.0691615,-0.0257632
0.00434259,-0.0267293
-0.0726669,-0.00513881
-0.135578,-0.0139714
-0.140246,-0.0916486
-0.0952822,-0.127628
-0.0479322,-0.128328
-0.0109489,-0.100985
0.0124547,0.00358168
0.023376,0.122712
0.0184896,0.110156
0.00575856,0.0763996
0.00448295,0.0743607
0.00496427,0.0635197
-0.0104908,0.0225861
-0.00428318,-0.00807742
0.0597673,-0.0119529
0.136421,-0.025536
0.190777,-0.0195314
0.133277,0.021733
-0.03232,-0.0207821
-0.164086,0.00732255
-0.1699,-0.00123047
-0.0905309,0.0212637
-0.0418892,0.0623195
-0.0295935,-0.0130149
-0.0136541,0.00867529
0.000820574,-0.00857631
0.00321001,-0.0121595
-0.00692512,0.00383073
0.0151713,-0.0213342
0.0553061,-0.0273581
0.0747662,-0.00612439
0.0451591,0.0128354
-0.0104773,0.0354694
-0.0692808,0.0350983
-0.0683406,0.00129831
-0.00611115,-0.00319793
0.10409,0.0267801
0.154367,0.04798
0.0877467,-0.0326777
-0.0256209,-0.098592
-0.108855,-0.0336393
-0.119495,-0.0499621
-0.0918905,-0.0846672
-0.0469434,-0.078448
0.00879664,-0.0894133
0.0452012,-0.0265337
0.0575437,0.0477861
0.028347,0.0894767
-0.00889396,0.0405994
-0.00540772,-0.0479276
0.00374691,-0.0481503
0.0475032,0.0699176
0.0974361,0.127232
0.073101,0.0679896
-0.000156608,0.0617059
-0.042118,0.0606249
-0.0359893,0.0296507
-0.0401178,-0.0180338
-0.0552672,-0.00210115
-0.0733541,0.0260217
-0.0718245,-0.00665768
-0.0555451,-0.0322329
-0.0251377,-0.0421315
0.0192049,-0.0253192
0.0392693,0.00508945
0.0528854,0.0396192
0.039389,0.0112182
0.0348931,-0.0600634
0.0342655,-0.0402256
0.0127411,-0.0253264
-0.00688904,-0.0362097
-0.0105296,-0.0410091
-0.00723251,-0.0336633
-0.0145979,-0.0157657
-0.0100083,0.00637938
0.0321223,0.0442432
0.0401501,0.0435094
0.0416973,0.0451989
0.0341135,0.067473
-0.0147272,0.0405017
-0.0944712,-0.00907957
-0.0805425,-0.062993
-0.0365464,-0.0239516
0.00682442,-0.00216541
0.106485,-0.0463868
0.208816,-0.00865485
0.165943,-0.0276927
0.00711283,-0.00217521
-0.126957,-0.0456258
-0.212649,-0.154274
-0.179194,-0.0896515
-0.0619373,0.0505038
0.0213256,0.0924714
0.0170163,0.0587295
0.000926597,0.039028
-1.65e-05,0.0329563
0.00102098,0.0209943
0.00457695,0.0245925
-0.00262648,0.0164202
0.00885703,0.0345075
0.021698,0.0752394
0.0190769,0.0549542
0.00474037,-0.0247696
-0.0239238,-0.0539848
-0.0361614,-0.0231577
-0.00557909,0.0335577
0.0420764,0.0277638
0.0853095,-0.00711366
0.101425,-0.0276868
0.0709086,-0.0283288
0.0349522,-0.0137423
0.0153518,0.00922811
0.0217901,-0.00044769
0.0230542,-0.0155954
-0.0199586,-0.0195254
-0.0578684,-0.0108271
-0.0906104,-0.00754902
-0.1036,-0.0089026
-0.0611992,-0.0056708
-0.0140631,-6.15e-05
-0.0152362,0.0347574
-0.0147502,0.0238299
0.0233662,-0.0338641
0.0693994,-0.0370901
0.0845799,-0.0241648
0.0579363,-0.0391982
0.0126406,-0.00470425
-0.00730376,0.0868081
-0.0353967,0.0513129
-0.0601253,-0.00270053
-0.0626658,-0.00479306
-0.0319355,-0.0103546
0.0132783,-0.00136135
0.0163806,-0.0108793
-0.0266714,0.00250109
-0.052356,-0.0134208
-0.0399687,-0.0681091
0.0357982,-0.0687451
0.0956444,-0.0445199
0.0844117,0.0246765
0.0708861,0.0347744
0.0401499,0.0622195
-0.0181977,0.0844633
-0.0575125,0.0211032
-0.0595865,0.0265027
-0.0527719,0.0209238
-0.00685979,0.00941858
0.0505906,-0.0174539
0.044116,-0.0835857
-0.0267866,-0.0464804
-0.0937828,0.0101184
-0.0860172,0.0462655
-0.0320204,0.054155
0.0442296,0.0144077
0.118097,-0.00749346
0.148502,-0.0141057
0.121734,-0.00726951
0.037518,-0.0109101
-0.0450161,0.0141914
-0.0957359,0.0108365
-0.10266,-0.00198714
-0.083426,-0.0209497
-0.0580674,-0.0271601
-0.0367851,-0.022695
-0.0254741,-0.0216195
0.0168275,-0.00856172
0.0406131,0.0151804
0.0390886,0.0278678
0.01451,-0.0104396
0.0319222,-0.0366288
0.0529024,0.0213665
0.0488358,0.0203532
0.0405805,-0.0439234
0.00916823,0.0348692
-0.0441184,0.0491516
-0.0530542,-0.00977572
-0.031071,-0.0346285
-0.00666518,-0.0432666
0.017477,-0.0293236
0.0106106,0.0142983
0.00866645,0.0300592
0.00744518,-0.014612
-0.0250433,-0.0352477
-0.0277862,0.0646111
-0.0293189,0.13061
-0.0414698,-0.0428195
-0.0249084,-0.0661495
-0.0290394,-0.0225555
0.00993953,0.00117198
0.0544055,-0.00810803
0.0383777,-0.00307216
0.00538637,0.0254625
0.0215251,0.00978488
0.0111942,0.042636
-0.0331876,0.0260493
-0.0349753,0.000905724
-0.000606557,-0.0193032
0.0168013,-0.0553331
0.0107136,-0.0808921
-0.00551576,-0.0565444
-0.0157569,0.0170823
-0.00840301,0.102218
0.00190751,0.056745
-0.00128612,0.00791646
-0.00332675,0.0222986
0.0245523,0.0122789
0.0724032,-0.0275118
0.096867,-0.0550498
0.0644522,0.0192675
0.0219729,0.0704497
-0.00691144,-0.0204155
-0.0258326,-0.0691527
-0.0450532,-0.0603938
-0.0696718,-0.0193616
-0.0559418,0.0268846
-0.030355,0.0472182
-0.0153969,0.0436867
-0.0354263,-0.028289
-0.0152113,-0.0279919
0.0216646,-0.0146543
0.0424809,0.000940583
0.0413339,0.0167184
0.0169327,0.00199359
-0.0294859,-0.0262883
-0.0108794,-0.0171263
0.0381018,0.0262435
0.0388091,0.0345917
-0.00629858,0.00753651
-0.0318276,0.0670186
-0.0157845,0.0146949
-0.00423165,-0.0364996
-0.00482123,0.0165997
-0.0149016,0.0434005
-0.0287016,0.0080357
-0.00786443,-0.0200807
0.0334216,-0.0348771
0.0363308,-0.0576415
-0.00176602,-0.0652067
-0.0301071,-0.00887046
-0.0288573,0.0380262
-0.0199615,-0.025072
-0.00450003,-0.0407446
0.0100967,-0.0186227
0.0282295,-0.0102235
0.0355936,0.0161737
0.0297968,0.0410839
-0.00763068,0.0235983
-0.037769,0.00459687
0.000936877,-0.00628817
0.0203599,0.0107932
-0.00128672,0.0438497
-0.0231029,0.0393858
-0.0246605,-0.0134598
-0.0172754,-0.011318
-0.0236044,-0.0131376
-0.0266541,-0.0293778
0.00519039,-0.0350202
0.0708198,0.0345665
0.0693268,0.0353856
-0.00405911,-0.0144207
-0.046226,0.00202855
-0.0291671,-0.000264109
0.00640369,-0.0244248
0.0109827,-0.00821316
0.00039424,0.0214983
-0.00592685,0.022316
-0.00510427,0.0183135
0.00507694,0.00553366
0.0255111,0.000172303
0.0396538,-0.00472963
0.0342023,-0.026434
0.0298976,0.0178522
-0.018591,0.00414675
-0.049671,-0.0114547
-0.0523815,-0.00105805
-0.0820416,0.00536376
-0.10648,-0.00418679
-0.0744291,-0.0141285
-0.0209572,-0.0203897
0.0177808,-0.0219539
0.0684091,-0.021145
0.137464,-0.0029546
0.172594,0.00124767
0.131482,-0.00928521
0.034509,0.0298571
-0.0466874,0.0346634
-0.0867754,0.00133792
-0.0835562,0.000527434
-0.0591009,-0.0131688
-0.00623391,0.010979
0.0213512,0.00713265
0.0122883,-0.0124458
-0.0086995,-0.00292834
-0.0144535,0.000275365
-0.00840489,0.00674345
0.00169418,0.00268884
0.0111892,-0.00350228
0.00990175,-0.0143053
0.0211576,-6.22e-06
0.0470299,0.0139414
0.0333672,-0.00629888
-0.00488544,-0.0274286
-0.0275989,0.0239467
-0.0419315,0.0515943
-0.0602527,0.00350065
-0.0405888,-0.0207934
0.0264431,-0.0230863
0.0518394,0.000877906
0.061328,0.0527432
0.0649412,0.0321614
0.0508407,-0.0106797
-0.00429337,-0.0541765
-0.059008,-0.0405035
-0.101553,0.0295335
-0.090904,-0.018949
-0.0617687,-0.0327834
-0.0691394,0.00792282
-0.0612091,0.068118
0.01549,0.03757
0.0601963,-0.0202941
0.0671147,-0.0211787
0.027965,-0.0285638
0.00112682,-0.0293457
0.0343669,-0.0301792
0.044512,-0.025783
0.0240865,0.0222544
0.0120825,0.0208117
0.0527036,-0.00493916
0.110352,0.00396209
0.105441,0.044175
0.0371766,0.0235145
-0.0630463,0.00262832
-0.133453,0.029029
-0.111498,0.0166518
-0.0711739,0.0373125
-0.0381218,-0.00438494
0.0121612,-0.0836859
0.0273742,-0.0256506
-0.000670746,0.0183695
-0.00770621,0.0318173
0.00662991,0.0245225
-0.0194566,-0.00474306
-0.0116719,0.0114874
0.0273457,-0.000773293
0.0456355,-0.00612449
0.0136068,-0.0222539
-0.0404334,-0.0579665
-0.0838282,-0.0743207
-0.074524,-0.0329739
-0.0209188,0.027687
0.00590148,0.0275954
0.0186528,0.0052585
0.0273214,0.0179056
0.0323626,0.00306586
0.0728619,-0.00259565
0.124613,-0.0187041
0.120332,-0.0301656
0.0307532,0.0156322
-0.0888416,0.0203729
-0.133014,0.014383
-0.128605,0.0315807
-0.086432,0.0173593
0.00422454,-0.00862519
0.0687957,0.00580421
0.0885831,0.0102671
0.143541,0.0117926
0.135959,0.00727422
0.0471923,0.00349927
-0.0212696,0.00846054
-0.0632159,-0.0451744
-0.0713608,-0.0379181
-0.0737161,0.023348
-0.0685487,0.0082574
-0.0517524,0.0353656
-0.0374658,0.0338158
-0.0205042,-0.00941022
-0.000802825,-0.0246931
0.00501626,-0.0223448
0.0154546,-0.0158291
0.0577262,-0.0210734
0.102008,-0.0172512
0.0997851,-0.0217076
0.0377375,0.00331665
-0.0586808,0.0385081
-0.095368,-0.00336036
-0.064384,0.00573923
-0.0605141,-0.000363785
-0.0434859,0.015951
-0.0178175,-0.00628892
0.00406203,-0.0359957
0.0118611,-0.05044
0.0232655,0.0228577
0.0170944,0.094857
0.0149882,0.0138693
0.0233496,-0.0240319
0.0215548,-0.0368415
0.0120758,0.0203646
0.0127429,0.0327379
0.0418818,0.0243957
0.0877929,0.0318001
0.136839,0.0257482
0.119908,-0.0113009
0.0240523,-0.0113782
-0.0544063,-0.0227198
-0.104014,-0.0441092
-0.128473,-0.0217581
-0.11502,-0.0149109
-0.100796,-0.0140197
-0.0927844,-0.0166771
-0.0230661,-0.00842022
0.0414464,-0.0144512
0.074031,-0.00896759
0.100726,0.0222044
0.104087,0.0164832
0.0488955,0.0100848
-0.0241811,0.0195297
-0.0559327,0.00904365
-0.043351,0.0122585
-0.0373088,0.0172272
-0.0238316,0.012397
-0.00397904,0.019103
0.0217119,0.0105025
0.0346312,-0.00456065
0.0255549,-0.0204734
0.000689294,-0.0191348
-0.02317,0.00211687
-0.0397492,-0.00282251
-0.0428071,-0.0251786
-0.0430142,-0.0240637
-0.0422797,-0.0146877
-0.0284621,-0.0154455
-0.0114053,-0.00815889
-0.00154001,-0.00289969
0.0146013,-0.00932444
0.0213634,0.0431974
0.0192082,0.0681884
0.0282726,0.00576615
0.0479663,-0.0115357
0.0572053,0.000665535
0.0497142,-0.0145978
0.042979,-0.0251162
0.0608229,0.00768775
0.0759714,-0.00196888
0.056361,-0.00872446
-0.0212047,0.00603093
-0.10661,0.0177649
-0.117089,0.00202936
-0.0718743,-0.0282721
-0.0431179,-0.0267127
-0.0260972,0.0102643
-0.0207864,0.0493037
-0.00505534,0.0128505
0.0144465,-0.0328212
0.0250201,-0.0182778
0.0205788,-0.00340518
0.0136332,-0.00142426
-0.000660352,-0.00319828
-0.0168702,0.00324275
0.0234463,0.010939
0.0919297,0.013777
0.0870725,0.0128362
0.0432828,-0.00334459
0.0430926,-0.0188683
0.0219159,-0.0147741
-0.0391639,-0.00306711
-0.0949087,0.00508387
-0.107888,0.0096852
-0.050459,0.0105821
0.022266,0.0135642
0.0566603,0.00978448
0.0188136,0.0161454
-0.0392091,0.0224114
-0.115782,0.00548716
-0.146163,-0.0173081
-0.0631985,-0.0250688
0.0352385,-0.014036
0.0872666,-0.00426249
0.0568783,-0.0149421
0.0362018,-0.0135953
0.0130793,0.00914056
0.00371292,-0.000826281
0.00125478,-0.0152547
0.00593346,-0.0164984
0.0595093,-0.00639691
0.0972704,0.00739098
0.0696938,0.0178549
0.0198966,0.00218547
0.0101576,0.0270939
0.0121563,0.0314696
-0.00853198,0.00501247
-0.0316,0.0100774
-0.0475703,0.0196072
-0.0418154,0.0200044
-0.0477576,0.00901541
-0.00805151,-0.00197832
0.0263284,-0.0144981
0.013936,-0.0221224
0.0210819,-0.018121
0.0542523,-0.0153789
0.039632,-0.0166267
-0.0336355,-0.0116975
-0.10306,0.000247941
-0.0983602,-0.00837577
-0.045157,-0.0208418
-0.00498624,-0.00403606
0.00976562,-0.00469099
0.0212075,-0.00650515
0.0099544,-0.00120333
-0.00185967,0.0100393
-0.0131951,0.0114562
-0.0184847,0.0087559
0.00491784,0.00969691
0.0476451,0.00310777
0.0695698,0.00147109
0.0311285,-0.000285943
0.0169149,0.00560059
0.0550166,0.0039431
0.0547507,-0.00916004
-0.00713062,-0.00702339
-0.0399805,0.0078572
-0.00838795,0.00953825
0.0552813,-0.00284399
0.031335,-0.00716427
-0.0278001,-0.000190726
-0.0778157,0.0123209
0.00417677,0.0132549
0.0539044,0.0132828
-0.032253,0.00349512
-0.0414535,-0.0132685
-0.066281,-0.0273891
-0.172252,-0.0219825
-0.270141,-0.00596559
-0.166121,-0.00426842
0.0475884,-0.00841764
0.130449,0.00113684
0.0800781,0.0222961
0.122124,0.0240011
0.234736,-0.00118817
0.173729,-0.0143232
0.0602153,-0.00501352
-0.0520062,-0.00284502
-0.0890869,0.00446234
0.0406217,0.015631
0.117497,0.0133868
0.0287305,0.00120723
-0.0728802,-0.0176259
-0.0865597,-0.0265047
-0.144029,-0.0175802
-0.220517,-0.00733596
-0.2306,0.000408879
-0.0889415,0.0130031
0.152032,0.0128081
0.176985,0.0108752
0.167232,0.0177082
0.115945,0.0170622
0.0456721,0.0100343
0.0185389,0.00487238
0.0371402,0.0015167
0.0468192,0.00775335
0.0879789,0.00937863
0.135395,0.00850142
0.108356,0.0053102
0.0158602,0.00143007
-0.116295,-0.0101781
-0.137828,-0.0219669
-0.0675704,-0.0221139
-0.0274738,-0.0106052
-0.0555052,0.00303655
-0.188138,0.0071711
-0.201471,-0.00554662
-0.084765,-0.0239042
0.0185823,-0.0221819
0.0550765,-0.0063426
0.0573727,-0.00282831
0.14831,-0.00610066
0.0825476,0.00492228
-0.0697482,0.00762089
-0.141345,0.00141406
-0.127573,-0.00240648
-0.00627422,0.00632796
0.0531472,0.00874062
-0.112341,-0.00400877
-0.146743,-0.00352474
-0.00536679,0.0116041
0.00924023,0.0233234
0.255493,0.0124632
0.344629,0.0114159
0.217004,0.0231274
0.10324,0.0150988
-0.0108694,-0.000930571
-0.0529186,-0.0143992
-0.0617146,-0.0151755
-0.0613633,-0.0131173
-0.0314606,-0.0034718
0.0342075,0.00367665
0.088161,0.00764308
0.0609828,0.00301755
-0.0752224,0.00669193
-0.167782,0.00244161
-0.122611,-0.0141203
-0.00298116,-0.0127408
0.0606249,0.000721449
-0.00145834,-0.0029711
-0.0894869,-0.00781792
-0.168235,-0.0110072
-0.212356,-0.00841488
-0.0728656,-0.00922921
0.101984,5.26e-05
0.124388,0.0101381
0.0624401,0.0204992
0.0683897,0.0112731
0.0346852,7.72e-05
0.0641757,-0.00809524
0.0870936,-0.0171431
0.073398,-0.0182036
0.0387298,-0.0118751
0.0110254,0.0013722
0.00888446,0.0147679
0.00765863,0.00369273
0.0044579,-0.0038113
-0.0487512,0.0111129
-0.167604,0.029786
-0.113383,0.0171836
0.0252541,-0.00346804
-0.0571681,-0.00619655
-0.109351,-0.0064269
0.0135163,-0.00587549
0.0519004,-0.000547352
0.020241,-0.00421623
0.0148542,-0.0137612
0.0870756,-0.0137208
0.115278,-0.00183547
-0.00966455,0.00752656
-0.115962,-0.000598305
-0.0992202,-0.00479837
0.0209847,0.00572649
0.146671,0.0145391
0.12549,0.0142047
0.0576103,0.0055912
-0.0101532,-0.00213289
-0.0522779,-0.00799045
-0.0624776,-0.00457696
-0.0446407,-0.00638927
1.6e-05,-0.00695682
0.0499024,0.00117589
0.0493228,0.0070597
-0.000665715,-0.00949274
-0.0157049,-0.00762381
0.011058,0.0102258
0.013419,0.0104383
0.00535197,0.0232931
0.00701864,0.0286677
0.00360155,0.0105662
-0.0184519,-0.00858008
-0.0511561,-0.02098
-0.0854383,-0.0357405
-0.0952702,-0.0320673
-0.0833575,-0.0190587
-0.00588941,-0.00167346
0.0806056,-0.00257686
0.119116,0.00519879
0.0562337,0.0158532
-0.011319,0.00699932
-0.0347579,-0.0103033
-0.0402987,-0.01821
-0.010355,-0.000839477
0.0598418,0.0120578
0.087836,0.0253713
0.0581747,0.0279675
0.0180595,0.00563873
-0.00907286,-0.00257605
-0.0211578,0.00971691
-0.0455966,0.0177567
-0.0718358,0.00977959
-0.0667521,-0.00334838
-0.0794971,-0.00966209
-0.0952106,-0.00604464
-0.0461406,-0.00198468
0.0308581,-0.0223409
0.0874678,-0.00782126
0.0969362,0.0129606
0.0461423,-0.0034369
0.00404566,-0.0173954
-0.0129956,-0.000354399
-0.0240208,-0.00460194
-0.0130895,-0.0210999
0.0319537,-0.00941924
0.0617769,0.0234824
0.0178897,0.021128
-0.023108,0.00085096
-0.0160996,-0.00840666
0.00668961,-0.00578323
0.0189265,0.00692678
0.0357789,0.0165233
0.0387918,0.0133196
0.0330001,0.0241665
0.0207636,0.0256502
-0.0832646,-0.0166144
-0.098447,-0.0365641
-0.0725065,-0.0224313
-0.0574011,-0.00829121
-0.0450271,-0.0168043
-0.0457257,-0.0148407
0.00306011,-0.00645282
0.0616346,-0.00526551
0.0606691,-0.000359859
0.0515526,0.0218788
0.101465,0.0369536
0.107242,0.0458865
0.00598077,0.0409141
-0.0543617,0.021
-0.071394,-0.0166201
