Comp Ch 3,Comp Ch 4
-0.0257739,0.306012
-0.226731,0.44928
-0.41889,0.071738
-0.220329,-0.560869
0.185857,-0.813603
0.381496,-0.636443
0.297465,-0.143561
0.11479,0.15367
0.0529105,0.280289
0.034509,0.287937
0.00802516,0.280467
-0.00140383,0.295744
-0.016628,0.269628
-0.00691417,0.175675
0.100291,0.133895
0.0225082,0.145783
-0.0737378,0.0554651
-0.04182,-0.0688687
-0.0196856,-0.1084
-0.0856949,-0.0615539
-0.0864151,-0.10092
-0.0152587,-0.116268
-0.0971486,-0.00893547
-0.266027,0.153071
-0.115516,0.156178
0.277459,0.0338966
0.388579,-0.0585665
0.33471,-0.120771
0.201308,-0.198688
0.0824011,-0.0420745
-0.0980557,0.211558
-0.181517,0.155619
-0.0797215,-0.0144837
-0.0314016,0.00140323
-0.0330404,0.0191388
0.0278048,-0.165281
0.0760234,-0.388675
-0.0304773,-0.380172
-0.130149,-0.340778
-0.10518,-0.495912
-0.0465666,-0.592968
-0.0321233,-0.239105
-0.0713682,0.216496
-0.149925,0.403952
-0.195859,0.525251
-0.28042,0.59412
-0.218346,0.477308
0.073109,0.247018
0.19218,0.0117438
0.0630682,-0.127753
0.0849014,-0.119014
0.0473769,0.0591141
-0.150331,0.126351
-0.201059,-0.0155728
-0.0793398,-0.103773
0.124731,-0.0614355
0.265464,0.0334375
0.154849,0.0780928
0.00140809,0.0870991
-0.151212,0.0608458
-0.29541,0.00947389
-0.243386,-0.0600434
0.00219118,-0.128263
0.170536,-0.145897
0.102393,-0.122543
0.141474,-0.0931891
0.0321189,-0.0416784
-0.03327,-0.00694006
0.0798708,0.0149244
0.125456,0.0538086
0.0756349,0.0987521
0.0370933,0.106547
-0.0209993,0.0724239
-0.118098,-0.000947123
-0.100492,-0.0662092
0.0442047,-0.0945919
0.166362,-0.0786461
0.25711,-0.149491
0.316308,-0.150625
0.262715,-0.0299962
0.115491,-0.0149445
-0.0329532,0.0157981
-0.187415,0.0452495
-0.290241,0.107114
-0.222758,0.0965401
-0.0057802,0.0377111
0.233034,-0.00859707
0.118159,0.0866933
-0.0805269,0.0952523
0.0168984,-0.0493664
0.205151,-0.00948301
0.0336483,-0.0595089
-0.291693,-0.146412
-0.355982,-0.0727985
0.0431861,0.0216101
0.396812,-0.0596853
0.342331,-0.088803
0.00753446,0.0656905
-0.332324,0.146135
-0.570627,0.0978708
-0.498781,0.0589122
-0.161297,-0.00607265
0.27975,-0.032669
0.502245,0.177428
0.32472,0.140224
0.182648,-0.0393093
0.12459,-0.0210103
0.0185492,0.0304987
-0.0306798,0.124044
-0.0143935,0.0804127
0.108548,-0.105649
0.1875,-0.275482
0.0787718,-0.282354
-0.0459746,-0.211859
-0.0791077,-0.236364
-0.0318498,-0.180795
-0.017104,-0.014619
-0.0808426,0.125806
-0.142883,0.213985
-0.1099,0.33237
-0.0576376,0.396144
-0.0645083,0.302111
-0.119413,0.138789
-0.185326,-0.157031
-0.197071,-0.452949
-0.0597391,-0.558913
0.0488883,-0.416612
0.0467457,-0.162215
0.0104818,0.146315
-0.0397623,0.459652
-0.0231767,0.570197
0.0259857,0.414126
0.0695538,0.232885
0.0150016,0.0769717
-0.0331175,-0.0560437
-0.0122761,-0.143017
0.0357695,-0.181758
0.0623036,-0.0980905
-0.00342885,0.0214207
0.0201441,0.0666702
0.078337,0.0606291
-0.0269202,0.110335
-0.0658892,0.188755
-0.029102,0.0841702
0.0959109,-0.00732444
0.186413,-0.0605153
0.101817,-0.167028
-0.0301184,-0.203794
-0.0776384,-0.13296
-0.0105977,-0.0712051
-0.00918708,-0.12055
0.00559484,-0.200507
-0.0447485,-0.567717
-0.149827,-0.685078
-0.143202,-0.33998
-0.0165507,0.00486553
0.0314395,0.183499
0.0499159,0.399783
-0.0226176,0.505858
-0.113053,0.438374
0.0481709,0.213843
0.163347,-0.0190304
0.0835534,-0.181935
-0.00562817,-0.0119183
0.0465728,0.125104
0.0609126,0.13723
0.0279308,0.0928647
0.00814318,0.089784
-0.0886446,0.0818819
-0.201412,0.0447064
-0.158945,0.068032
0.00192164,0.0793908
0.11473,0.077867
0.141135,0.000405202
0.110306,0.00529716
0.0311732,-0.0621813
-0.113257,-0.122372
-0.138682,-0.120339
0.0196856,-0.106797
0.0785057,-0.179429
-0.0311692,-0.163383
-0.0336203,-0.124493
0.005789,-0.0917757
-0.00121795,-0.108027
0.014396,-0.0682525
0.0354522,0.0258636
0.0615081,0.0971517
0.0599995,0.14041
0.0163496,0.0983348
-0.0952155,0.141415
-0.238294,0.102331
-0.20699,0.0401114
0.0256341,0.00489929
0.0526226,-0.04762
0.0438767,-0.115154
0.0247518,-0.137521
0.0341593,-0.13156
0.0940284,-0.0572769
0.114797,0.0681178
0.051247,0.0685028
0.0226977,-0.0209549
0.00830992,0.00121372
0.110012,0.0625602
0.113194,0.0437367
-0.0360764,0.082383
-0.0238825,0.111515
0.0336242,0.0942834
-0.0308139,0.0538317
-0.0666291,0.0385967
-0.0452725,-0.0060875
-0.0441224,-0.0799547
-0.0582948,-0.113339
-0.0154159,-0.0585744
0.0297743,-0.0470344
-0.0263719,-0.0275216
-0.0639585,-0.0536249
-0.046921,-0.0404506
0.0112038,0.0611716
0.0930953,0.117699
0.130005,0.0619916
0.0646868,0.000418214
0.0279208,-0.0150703
1.04e-05,-0.0111345
-0.0232381,0.0164125
-0.0268248,-0.0223686
-0.0503693,-0.137311
-0.0408467,-0.21612
-0.0126212,-0.243708
-0.00982965,-0.225545
-0.0391324,-0.0995678
-0.0611615,0.123266
-0.0703938,0.182441
0.0269591,0.262217
0.112974,0.279664
0.068957,0.229359
0.0229856,0.0443723
-0.0306093,-0.164515
-0.0467731,-0.153582
0.00428331,-0.019945
0.0554848,0.0793303
0.0230748,0.111471
-0.0148429,0.091902
0.0344966,0.11359
0.101603,0.054591
0.0369473,-0.021717
-0.0882318,-0.00706323
-0.199591,-0.0202446
-0.185789,-0.029416
0.0101788,-0.00924827
0.136205,-0.0753503
0.00449547,-0.00666474
-0.0398265,0.00611343
-0.0094179,-0.0255626
0.0325496,-0.00272308
0.0553841,0.00293344
0.0602975,-0.0240871
0.0590399,0.0443017
-0.00627508,0.0238698
-0.0518812,-0.0178308
-0.00559646,-0.0561737
0.0411728,-0.0869418
0.0144773,-0.0809377
-0.010217,-0.0472378
0.00161858,-0.0429307
0.0374438,-0.021863
0.0748573,-0.000669819
0.0695485,0.00263125
0.0355084,0.00571641
-0.027999,0.0190885
-0.0540434,0.0282901
-0.039226,0.0367445
-0.0293546,0.0457215
-0.0368803,0.0554568
-0.0209189,0.0506039
-0.0471666,0.0254478
-0.100092,-0.0032224
-0.0344777,-0.0281182
0.0686019,-0.0344142
0.043082,-0.0199407
-0.0977076,-0.032515
-0.302597,-0.0333636
-0.228884,-0.00942845
0.173082,-0.0165312
0.380856,-0.0412043
0.201081,-0.0555899
0.0834054,-0.0397506
0.0448973,-0.0157368
-0.0222484,-0.0136933
-0.0739108,-0.0139233
-0.0519364,0.0257942
-0.0277416,0.0580533
0.0214071,0.0254971
0.041681,0.0124631
-0.017289,-0.027005
-0.0360613,0.0128619
-0.0158626,0.0865859
0.0340186,0.100997
0.00189996,0.0637294
-0.104819,0.0186386
-0.0657771,0.0385405
0.0710802,-0.0313317
0.0337852,-0.0349181
-0.0107961,-0.00921772
0.00835563,0.0207579
0.0469855,0.0505249
0.0657862,0.0539484
0.0141476,0.0368598
-0.015889,-0.0409754
-0.015657,-0.0677432
-0.0326614,-0.0361184
-0.0204443,-0.0981119
0.0341827,-0.183155
0.0946903,-0.208193
0.0494718,-0.211698
-0.0393017,-0.174139
-0.118864,-0.0144407
-0.134948,0.0963594
-0.0467321,0.196788
0.00741698,0.196348
0.0466013,0.139483
0.0189481,0.139232
-0.0468341,0.122695
-0.0211376,0.0678721
-0.00833129,-0.0198533
-0.0681133,-0.0374293
-0.110301,-0.0217302
-0.118296,-0.0102179
-0.116634,0.00880436
0.0506947,0.0128676
0.223045,-0.0374761
0.267458,-0.0667123
0.260032,-0.0316717
0.165113,-0.0209272
0.00984272,-0.0704793
-0.12658,-0.0125167
-0.184189,0.106365
-0.0930762,0.00333668
-0.0179287,-0.0410038
-0.0406008,0.0141103
-0.035763,0.0771669
0.0240983,0.0447787
0.0625038,0.0367116
0.00830973,-0.0336545
-0.0156984,0.00969591
-0.0250271,0.0457396
0.0105088,0.0166775
0.0427699,-0.0239101
0.0306057,-0.0626445
-0.00426688,-0.0617523
-0.0311425,-0.054521
-0.0547115,-0.0182602
-0.0499278,-0.000485186
-0.0305548,0.0156729
-0.00326156,0.022028
0.0131392,0.00534535
-0.0064606,-0.00824087
-0.0393607,0.0303522
-0.0333687,0.022451
-0.0231268,-0.0205985
-0.000628826,-0.00688237
0.0342533,0.0139006
0.0457932,-0.022037
0.0361388,-0.0124592
0.0186949,0.0294103
-0.0393009,0.0275956
-0.0563841,-0.0222676
-0.0219071,0.0288869
0.0235314,0.0117662
-0.0065989,-0.0497376
-0.00216687,-0.00255188
0.0390831,-0.0554944
0.067426,-0.0517364
0.0452203,0.0521784
0.0223195,0.0191101
0.0114575,0.00941517
0.000729968,0.0212696
-0.0200553,-0.014116
-0.0254589,-0.0141885
-0.0187797,-0.0174132
-0.0616889,-0.00708191
-0.00869801,0.00674345
0.0947119,0.0440776
0.0667326,0.0638119
-0.0506249,-0.0412597
-0.02074,-0.0258507
0.071335,0.0263576
0.109452,-0.0349515
0.0928093,-0.0260762
0.017404,0.00618261
-0.0557118,0.00983952
-0.0872278,0.00853361
-0.0715824,-0.00436241
-0.0207568,0.0139877
-0.025341,0.00223589
-0.0266206,-0.0261278
-0.0188324,-0.0275054
-0.0402157,-0.0189271
-0.0309222,0.000708755
0.00239313,0.00645079
0.0407071,-0.00347383
0.0708773,0.00114993
0.0811148,-0.0128518
0.0521835,0.00290262
-0.00721145,0.0155814
-0.0874052,-0.00821161
-0.131953,0.00207386
-0.0916498,0.0101549
-0.0402657,0.00522327
-0.0410465,0.0305494
-0.0258996,0.0237978
0.0702253,-0.00241817
0.107301,0.0524477
0.0356445,0.0012786
-0.0158723,-0.0303618
0.022412,-0.040883
0.0274372,-0.0107447
0.0294879,-0.0335925
0.025068,-0.0449336
0.0246352,-0.0249363
0.0144696,0.0762189
-0.0409263,0.0165002
-0.0866192,0.00776026
-0.101565,0.0531149
-0.0325746,0.0918542
0.109133,0.0365899
0.148866,-0.0607163
0.0985264,-0.0215978
0.00984922,-0.0172002
-0.0496119,-0.0557193
-0.0484389,-0.0600272
0.0188726,-0.00363957
0.0776326,-0.00878942
0.0476339,0.0379263
-0.0341263,0.0756282
-0.136813,0.0382693
-0.143494,0.00213318
-0.040488,-0.00281428
0.0104534,0.0171496
0.00220589,0.00348879
-0.022579,-0.0350008
-0.024314,-0.078146
-0.022841,-0.0844605
-0.0244522,-0.0813189
0.00605471,-0.0391192
-0.0312874,0.00875426
-0.0799628,0.0609514
0.0209444,0.0252099
0.144338,-0.0313476
0.0628689,0.0209766
-0.00722734,0.106023
-0.0263774,-0.0066708
0.0142919,0.00937159
0.0593372,0.0864092
0.121638,0.0517102
0.150064,0.00839153
0.141343,-0.00466477
0.0592282,-0.0103275
-0.0734865,-0.0225621
-0.148587,-0.0296152
-0.175043,-0.00731981
-0.135049,0.000533365
-0.0636851,0.0170069
-0.0102039,0.0139021
0.0236563,-0.0355452
0.0142802,-0.0171253
0.0111014,0.00646634
0.0776637,-0.0271841
0.116735,-0.0545235
0.0673723,-0.0102238
0.0170139,0.0324559
-0.0133681,-0.00692744
-0.0359279,-0.0183938
-0.0666362,-0.0428559
-0.0591867,-0.0136708
-0.0254667,0.0496527
-0.00526594,0.0898027
-0.0101412,0.0306445
0.0180804,-0.00983602
0.0689823,-0.0138893
0.0501819,-0.0140195
0.00989928,-0.0149226
-0.023946,-0.0168888
-0.0615501,0.0131445
-0.0321252,0.01216
-0.000143819,-0.016504
0.0140022,-0.0622189
0.0143625,-0.0361502
-0.0119601,0.00389529
-0.0279901,0.0150726
0.0239947,0.0129031
0.0786476,0.0281882
0.0498526,0.0579639
-0.000136498,0.0456539
-0.03544,0.0180006
-0.0231144,0.0333619
-0.00911308,0.0564167
-0.0240259,0.00034027
-0.0139829,-0.0166139
-0.0074878,-0.0163679
-0.0338465,-0.0262147
-0.0547792,-0.024179
-0.00223595,-0.0381294
0.0216323,-0.0616237
-0.0185429,-0.0160404
-0.0358102,0.015835
-0.00649229,0.00614345
-0.0176908,0.0343968
0.0359531,-0.00589637
0.0841159,-0.0966219
0.10628,-0.0976064
0.0813482,-0.00315319
0.0141,0.0217362
-0.0536356,-0.0268845
-0.0857961,-0.038969
-0.0444247,-0.0127499
-0.0096514,0.024586
0.00728232,0.0850942
0.00143889,0.0011993
-0.00248762,-0.0118471
0.00381078,0.0291474
0.0042057,0.0117346
-0.00508186,-0.0188144
-0.0872219,0.0461024
-0.0957671,0.0859755
-0.0263483,0.0650929
0.0227171,-0.0330701
0.0623381,-0.0773124
0.0739851,-0.059313
0.0646627,-0.0554017
0.0249998,-0.0498891
-0.0112968,0.00173468
0.0083925,0.115838
0.0212877,0.0576176
0.0349301,0.049072
0.0563036,0.0560133
0.0416707,0.0724459
-0.0392451,-0.0347977
-0.054871,-0.103912
-0.0772291,-0.0986025
-0.0430403,-0.0303281
0.0286157,0.0797745
0.0777508,0.074987
0.0645862,0.0684274
-0.00321337,0.0538484
-0.0506133,0.0288354
-0.0186099,0.0359005
-0.00843966,0.0378357
-0.0372223,-0.0901677
-0.0430585,-0.124882
-0.040707,0.0181615
0.00269818,-0.0715881
0.0660421,-0.0795077
0.0551215,-0.0315263
0.0328496,0.0519295
0.00131285,0.0634394
-0.0302636,-0.0118442
-0.0382841,-0.0613191
-0.00454196,0.0335478
-0.0113432,0.0592971
-0.0719372,0.0259757
-0.0856364,0.0114344
-0.0520545,-0.0106157
0.017204,-0.0210124
0.0261159,-0.0371537
-0.00734326,-0.0340621
-0.0145991,-0.00781356
0.0330511,0.00311665
0.0944459,-0.0269874
0.131509,-0.0157408
0.132049,-0.0493638
0.0574452,-0.0533152
-0.119103,0.0962755
-0.210447,0.0905791
-0.0811122,0.0160621
0.103567,-0.0107548
0.114742,-0.0365772
0.0276293,-0.0128412
-0.0194507,-0.0180055
-0.0351856,-0.0205489
-0.010577,-0.0143658
0.0218606,-0.00851812
-0.0060056,-0.00211112
-0.0705942,0.0284564
-0.0659362,0.0510473
0.00304045,-0.0298887
0.0516558,-0.00272434
0.0197549,0.147145
-0.00904776,0.0839669
0.00398773,-0.0162605
0.0357085,0.0525077
-0.0202493,-0.0188996
-0.0647925,-0.114522
-0.0991121,-0.0356853
-0.0527788,0.0151733
0.0431501,-0.0261949
0.0715789,-0.0132466
0.0456918,0.0269694
0.0464998,0.0184325
0.0683806,0.00826553
0.0596994,-0.0249363
0.0182133,-0.045471
0.0225837,-0.00745774
0.0674017,0.025833
0.0640248,-0.0262724
-0.013982,-0.080956
-0.113662,-0.0707335
-0.145252,-0.0534546
-0.100781,-0.0469957
-0.0223587,0.0405507
0.0270017,0.0304434
0.0608319,0.0223378
0.0623733,0.0227738
0.0193028,0.0733759
-0.0318075,0.107821
-0.0659932,0.0971209
-0.055888,0.0515548
-0.01163,0.0132328
-0.00598929,0.00154985
-0.0064954,-0.0114917
0.0148953,-0.0293372
-0.00860218,-0.0245536
-0.00344909,-0.00831535
0.0467452,-0.0621679
0.0816335,-0.0935852
0.0551584,-0.184465
-0.035702,-0.182778
-0.0515684,-0.0680938
-0.0212897,-0.100329
-0.0273828,-0.0788599
-0.0311323,0.136395
-0.0273294,0.2386
-0.00796021,0.291164
0.00825113,0.265115
-0.0104129,0.0428967
-0.0354071,-0.0556967
-0.0248553,0.00693411
0.0265094,-0.0390183
0.095039,-0.0949851
0.214606,-0.0444574
0.166894,0.0713951
-0.0421347,0.0787618
-0.0823767,0.0296221
-0.028709,-0.0425226
0.00789881,0.00020602
0.0583713,-0.175741
0.0406689,-0.206842
-0.0379073,-0.0321497
-0.0393375,0.0202846
-0.0234623,-0.0126973
-0.0783187,0.0201564
-0.105866,0.0568294
-0.0900615,0.0543982
-0.0635315,0.0407283
-0.0361234,-0.00683588
0.0137869,-0.0814707
0.0515932,-0.124267
0.0602813,-0.0907645
0.0854377,0.0451821
0.0735752,0.162094
0.0322077,0.111171
0.0241746,0.0833973
0.00405312,0.128259
-0.0925775,0.0306595
-0.106174,-0.0186731
-0.0710875,-0.057464
-0.0275172,-0.0447558
0.0162568,-0.102105
0.0320147,-0.0991614
0.0224389,0.0586446
-0.000271962,0.0894378
-0.0456658,0.0208004
-0.0364127,-0.00235995
-0.00994272,-0.0375802
-0.0170295,-0.029354
-0.0143177,-0.0942727
0.0293818,-0.0637688
0.0790999,0.0208029
0.077777,0.0129051
0.0475633,0.0696207
0.00594369,0.076763
0.0123183,-0.00430609
0.10375,-0.022593
0.114429,-0.0867678
0.0619157,-0.134367
-0.0560009,-0.0697753
-0.124009,-0.00949074
-0.0376079,-0.0480088
0.113447,0.0506809
0.208528,0.163824
0.12911,0.1019
-0.0477263,0.0356724
-0.224118,-0.0388351
-0.355393,-0.00381561
-0.205868,0.0627017
0.011005,0.121615
0.0764403,0.0420746
0.053915,-0.13536
-0.0135718,-0.157924
-0.0680868,-0.11054
-0.0512685,-0.0206871
-0.0338003,0.0182763
-0.0244787,0.0104116
-0.0392418,0.0795225
0.0125287,0.140397
0.0522585,0.125651
0.079426,0.137014
0.0798992,-0.0125094
0.0775299,0.0295316
0.0652004,-0.00181521
0.0765399,-0.201008
0.0534015,-0.3075
-0.00389638,-0.145922
-0.0274131,-0.166357
-0.0620972,-0.163837
-0.104423,0.0683854
-0.0777211,0.222755
0.0115408,0.259344
0.129465,0.206526
0.321433,-0.0839653
0.396573,-0.0424781
0.281787,0.068439
-0.00597711,0.0721638
-0.322618,0.0768249
-0.4698,0.160019
-0.319282,0.0230018
-0.158207,-0.014957
-0.0881929,-0.0378846
-0.0363939,-0.183678
0.0230888,-0.191804
0.0775502,-0.111525
0.0910195,-0.0477061
0.0302771,-0.0928974
-0.0511343,0.0308177
-0.084173,0.168473
-0.0579172,0.269738
0.0779259,0.152353
0.255363,-0.0544297
0.289362,-0.149301
0.104772,-0.0762859
-0.188598,-0.0324126
-0.3103,0.0668196
-0.134223,0.0625592
0.0434297,-0.0645959
0.303686,-0.0212802
0.473887,-0.0825093
0.399179,-0.0267066
0.205409,-0.0256221
-0.0885708,-0.0543422
-0.324926,0.119114
-0.268732,0.251795
-0.11772,0.0555619
-0.130393,-0.146055
-0.141774,-0.146546
-0.191377,-0.122336
-0.252248,-0.107605
-0.172082,-0.00776388
-0.0654368,0.0776471
0.00834071,0.0593401
0.048275,0.038064
0.0583894,0.0321499
0.0960883,0.236642
0.0491453,0.188196
-0.0259748,-0.160696
-0.0221327,-0.0533928
-0.0159872,-0.00426797
-0.0385862,-0.0655014
-0.0183638,-0.135587
0.128772,-0.188623
0.189351,-0.103497
0.128635,-0.0734941
0.167,0.0537393
0.16548,0.233461
0.0232428,0.0619068
-0.120662,-0.0152605
-0.113123,0.152143
-0.0316912,0.0953655
0.0871338,-0.211088
0.211092,-0.177589
0.144988,-0.269164
0.0880067,-0.187201
0.00752645,0.18329
-0.141842,0.284565
-0.168397,0.278936
-0.178867,0.153922
-0.209033,0.0855462
-0.222558,0.0711833
-0.178885,0.0346106
-0.0675671,0.110431
0.0237673,-0.159204
0.0745148,-0.344943
0.0778038,-0.33458
0.159711,-0.146328
0.149612,-0.137259
0.112639,0.070205
0.0354191,0.336819
-0.0742419,0.267575
-0.0853089,0.172455
-0.123451,0.128831
-0.0980928,0.0649875
0.0447118,-0.0787944
0.144273,-0.0600839
0.119356,-0.0140683
0.0570252,-0.0719597
0.0840795,-0.071912
0.0683566,-0.0661081
0.0193975,-0.015361
-0.00158243,0.0558504
-0.11922,-0.0723481
-0.0147528,-0.167701
0.145053,-0.313903
0.0770569,-0.156555
-0.0120235,0.0227022
-0.0152776,0.333846
-0.0202694,0.252581
-0.0604201,0.165329
-0.120507,0.12335
-0.0731484,-0.0572209
0.0283003,-0.130578
-0.0230134,-0.0864938
-0.112335,-0.00824208
-0.152882,0.0474637
-0.0699579,0.0905149
0.0962236,0.128728
0.231736,0.22522
0.230625,0.0254766
-0.00641336,-0.326654
-0.189771,-0.436618
-0.15717,-0.371126
-0.0431957,-0.181162
0.0623995,-0.043378
0.235956,0.0297994
0.341786,0.275499
0.240827,0.432906
0.0453715,0.266333
-0.193298,0.0255618
-0.235101,-0.170568
-0.00946018,-0.222717
-0.100513,-0.389161
-0.245683,-0.344955
-0.239547,-0.0634988
-0.0799032,0.312622
0.122171,0.374576
0.0531802,0.381875
-0.0306135,0.231623
-0.169941,0.15897
-0.180996,0.142372
-0.0053655,0.00108524
0.0788295,-0.110293
0.086956,-0.142799
0.0746151,-0.144368
0.0281695,-0.04553
0.0344424,-0.0540123
0.132411,-0.0455707
0.222314,-0.102425
0.133211,-0.0566664
-0.00680732,-0.0165745
-0.0545553,-0.0327373
-0.0698392,0.172161
-0.00298688,0.229864
-0.0020529,0.0873145
-0.132052,-0.0577446
-0.148869,-0.0967321
-0.00419962,-0.166911
0.0486792,-0.147916
-0.0136904,-0.120512
-0.0529004,-0.0427659
-0.117371,0.0661989
-0.0611324,0.0518662
0.0710999,0.106885
0.00881107,0.354789
-0.0457188,0.0748896
0.0436617,-0.198398
0.142972,-0.0881414
0.208012,-0.0472699
0.162085,-0.0619222
0.0378482,-0.085602
-0.00802415,0.0251585
-0.025665,-0.0456663
-0.131025,-0.163158
-0.235678,-0.0269659
-0.112393,0.216993
0.203875,0.0546112
0.492631,0.0167188
0.512374,-0.0272662
0.15349,-0.176637
-0.300929,-0.299278
-0.442859,-0.136066
-0.318492,0.017382
-0.102553,-0.0400659
0.0469636,0.117329
0.17431,0.234927
0.125792,0.254392
-0.00275017,0.2264
-0.176953,0.209129
-0.344916,0.136237
-0.183841,0.0307404
-0.0229491,0.00686281
0.00633583,-0.00749499
-0.00582733,-0.201353
-0.0463112,-0.302393
-0.00339825,-0.245566
0.280994,-0.216682
0.630131,-0.0389806
0.619948,0.246414
0.403174,0.317879
-0.0738909,0.216728
-0.685579,0.113401
-0.670576,0.0208406
-0.22643,-0.0297288
0.0982242,-0.0349074
0.273009,-0.0292091
-0.104336,-0.0573776
-0.173369,-0.129749
-0.235844,-0.188464
-0.216513,-0.187225
-0.111856,-0.0780379
0.0175343,-0.0284989
0.0949915,0.131927
0.121559,0.30621
0.0444585,0.203741
0.0899662,-0.0739941
0.118246,-0.122079
0.0791136,-0.0140991
-0.0231354,-0.19468
-0.151663,-0.205491
-0.122316,-0.0529439
-0.0608911,0.0394406
0.0845988,-0.0372944
0.327274,-0.124706
0.504288,-0.236933
0.379134,-0.00850438
-0.00766947,0.329475
-0.244456,0.18034
-0.244941,-0.145587
-0.195332,-0.142078
-0.173442,0.221464
-0.187872,0.254466
-0.123233,0.0503047
-0.0601616,-0.0362747
-0.032566,-0.178553
-0.0286932,-0.145047
-0.0077957,0.0936524
0.0112811,0.1713
0.01712,0.150835
0.0752037,0.0774427
0.138771,0.0940525
0.0430985,0.0601703
-0.0587111,0.0323132
0.0159284,0.0511628
0.210251,0.0129729
0.276765,-0.00878261
0.152286,0.0559069
-0.0233738,-0.116974
-0.118559,-0.0257581
0.00987025,0.0017009
0.0922458,0.0758532
0.208277,0.147734
0.341339,0.0430541
0.236919,-0.19792
-0.0393016,-0.331356
-0.183875,-0.0928473
-0.281621,0.0281168
-0.276343,-0.0413859
-0.227611,-0.0968002
-0.333874,-0.0584924
-0.271303,0.0375189
-0.0762264,0.0604938
0.0892923,-0.0823864
0.228213,-0.172197
0.257095,-0.149994
0.131058,0.0151576
-0.104073,0.155574
-0.256607,0.0785267
-0.192486,0.211327
-0.0273446,0.132791
0.0814585,-0.00773682
0.081996,-0.145645
0.117017,-0.139022
0.110238,-0.0347839
0.0347085,0.0414164
-0.0501513,0.0399328
-0.0616454,0.0223145
0.068881,0.0692994
0.228092,0.0912557
0.260154,0.00472501
0.171109,-0.0257956
-0.0795988,-0.0490978
-0.19065,-0.0979249
-0.130678,-0.114279
-0.109806,0.0501059
-0.0176538,0.0121395
-0.0693155,0.0758894
-0.0499671,0.183081
0.0804184,0.030391
0.0745521,-0.0118815
-0.0583061,0.0480463
-0.121074,-0.0343762
-0.0287971,-0.0749728
0.083317,-0.0640583
0.0740861,-0.00386822
-0.0590684,0.0130759
-0.243732,-0.019964
-0.181664,-0.00209901
-0.0785525,0.0863771
0.00198256,0.060077
0.0629107,-0.038056
0.0662606,-0.0739261
0.112655,-0.0984402
0.151607,0.0338597
0.0903144,0.0755688
0.0518827,0.0271388
-0.0627496,-0.0554131
-0.130761,-0.035928
0.0208616,0.0732645
-0.0471999,0.135592
-0.0994701,0.0197496
-0.00340266,0.0252134
0.0743006,0.0208022
0.159937,-0.0935498
0.162168,-0.110952
0.0967819,-0.0704135
-0.0325744,-0.18516
-0.173779,-0.250696
-0.093338,-0.190577
-0.00912049,-0.0970757
0.0131832,0.157452
0.0327153,0.273275
0.0446445,0.30202
-0.00978024,0.25944
-0.101419,0.124336
-0.0701466,0.0493682
0.0296177,-0.0292705
0.0810791,-0.0968426
0.0611918,0.0614945
0.00712301,0.106725
-0.0352866,-0.181928
-0.0285145,-0.20281
0.0243244,-0.00557564
0.058131,0.0756926
0.0215214,0.105684
0.0253254,-0.0182475
0.0736539,-0.209336
0.0584241,-0.105252
0.00904672,-0.0603167
-0.00541113,0.0270607
-0.103387,0.114117
-0.128554,0.124301
-0.00360322,0.0320327
0.041104,-0.125164
0.0415621,-0.0563869
-0.0173038,-0.0771478
-0.0230541,-0.0756235
0.045436,0.0593474
0.0894549,0.0478882
0.0136285,0.116299
-0.089348,0.142442
-0.0841201,0.127146
-0.0725491,0.0150099
-0.0259134,-0.0598131
0.0723333,-0.223405
0.154868,-0.181013
0.181841,0.0880031
0.105512,0.179973
-0.0650026,0.0178623
-0.13626,-0.0656904
-0.0956326,-0.0360583
-0.0634637,-0.0379907
0.0149043,-0.0430014
0.0213027,-0.00402267
0.00728026,0.0315009
-0.0571006,0.0124792
-0.103343,0.0302241
-0.0411112,0.0968756
0.0246313,0.0632055
-0.0327396,-0.0282954
-0.0648179,-0.0492344
-0.0214465,-0.139941
0.0248356,-0.0585046
0.0776669,0.0930061
0.139259,0.0465809
0.102903,0.00394911
0.0238971,-0.0173386
0.0141773,-0.0261116
-0.0106528,0.0375521
-0.0263708,0.0522599
-0.00791607,0.0208071
-0.0388869,-0.182277
-0.0886599,-0.19887
-0.0743045,-0.109516
-0.0515676,-0.0407376
-0.0532932,0.0911811
-0.03432,0.162855
0.0090825,0.086944
0.0715217,0.0727216
0.0878398,0.0900747
0.067756,-0.0616266
0.0557582,-0.0351006
0.00931257,0.00451416
-0.0489597,-0.000490318
-0.0385615,0.06022
-0.00820547,0.0233128
-0.0256653,-0.0444035
0.0129846,0.0327577
0.0362202,0.0629318
0.053886,0.0583974
0.0703132,0.0292818
0.0812834,-0.00739315
0.12311,0.00102009
0.0778281,-0.00309147
-0.0036182,-0.0261227
-0.128858,-0.0512236
-0.148693,-0.0972213
-0.0612927,-0.143044
-0.0430122,-0.131751
-0.0739663,-0.0364352
-0.0527916,0.0505078
-0.0264651,0.115929
-0.0303468,0.115741
-0.0851075,0.0179002
-0.0926214,-0.0132956
-0.024278,-0.0307048
0.0561139,-0.0829945
0.112866,-0.181799
0.124553,-0.00646855
0.100175,0.169866
0.0980662,0.142012
0.065685,0.097696
0.00229388,-0.0542248
-0.0418774,-0.138331
-0.0407158,-0.120967
-0.117237,-0.00926729
-0.136746,0.124854
-0.0801614,0.101474
-0.0086292,0.0534761
0.0491255,0.0539545
0.0465165,0.0185839
-0.00913062,0.0343282
-0.0295878,0.0238606
-0.0182271,-0.0285833
0.00529224,-0.0258549
0.0268267,0.0155377
0.0181597,0.0517756
0.0112439,-0.00329649
0.0477254,-0.0354805
0.0708807,-0.0477135
0.100641,-0.117991
0.0821545,-0.0922508
0.0273158,0.0110427
0.0336927,-0.0309378
-0.0166458,-0.10292
-0.0296302,0.0708819
-0.0577503,0.058722
-0.033066,-0.0102977
-0.0278163,-0.0271611
-0.0653605,0.0161711
-0.06523,0.104659
-0.0066236,0.141433
0.0264905,0.0827708
0.055285,0.0182279
-0.00975592,-0.0192988
-0.0536843,-0.0368174
-0.0324785,-0.04702
-0.0541571,-0.0563171
0.00487482,-0.0882544
0.135546,-0.101205
0.220631,0.0149181
0.186001,0.0524901
0.0452159,0.0234147
-0.172099,0.0480627
-0.219692,-0.0253206
-0.118396,-0.015745
-0.0661994,-0.0143385
-0.040149,-0.102627
-0.0141997,-0.122872
0.00323673,-0.0745308
0.0001726,0.00651185
0.00670408,0.0996802
0.0385946,0.134523
0.0302163,0.107638
-0.014937,0.0478334
-0.0329808,0.0272621
-0.0342684,0.0158052
-0.0421389,-0.0429655
-0.00106975,-0.0291597
0.0566671,0.0389494
0.0429847,0.0924653
0.0354402,-0.0530842
0.0315184,-0.13713
0.0293537,0.00467527
0.0236721,0.111912
0.0232321,0.0734809
0.00922154,-0.0416535
-0.00342059,-0.0531101
0.00445555,-0.00856576
0.0582272,-0.036507
0.125216,-0.0831944
0.153615,-0.040278
0.0934958,0.0615307
-0.0557962,-0.0239684
-0.142119,-0.103633
-0.144021,-0.0290532
-0.120625,0.00173131
-0.127661,-0.000149791
-0.112631,0.0388911
0.0179004,0.120421
0.0990131,0.097944
0.114467,0.053362
0.0646939,0.0446184
-0.0442948,-0.0236017
-0.0554406,-0.0387389
-0.0152785,-0.0493449
0.0138452,-0.062106
0.0362818,0.00376564
0.0207957,0.0327084
-0.00999669,-0.0190351
-0.0262831,-0.031155
-0.0505922,-0.0458048
-0.0377821,0.0395176
0.00369507,0.0179115
0.0260697,0.0214379
0.0198082,0.0534573
0.00172893,-0.0143335
-0.00724718,0.0077219
-0.00112097,0.00899474
0.0236192,-0.0347925
0.0532892,-0.0879906
0.0513894,-0.102978
0.0164836,-0.0329096
-0.0210892,0.0138795
-0.0449303,0.0284952
-0.0529442,0.0984848
-0.0426588,0.0908667
-0.00730985,0.0271304
0.0480317,-0.0503818
0.134559,-0.050578
0.120908,0.0147086
0.0450618,0.0148002
0.0183402,0.10168
-0.0349805,0.119493
-0.0529609,0.0407249
-0.0345267,0.00231397
-0.0462893,0.00460392
-0.0943445,-0.0486159
-0.0708687,-0.194654
-0.0659964,-0.286733
-0.0544634,-0.202911
-0.0264838,-0.0478372
-0.0288278,-0.0723417
0.00162768,-0.00137831
0.0374172,0.121827
0.0362356,0.20519
0.0173424,0.165898
0.00484374,0.0449252
0.0121598,0.0531057
0.0107576,0.129108
-0.00107438,0.0887158
0.0123922,0.0267269
0.037938,0.0159986
0.0541316,0.0135416
0.0652694,-0.0151448
0.0905015,-0.00720282
0.0802354,0.0453105
0.0292664,0.0321188
-0.00916419,-0.0309263
-0.0676038,-0.0550262
-0.0662522,-0.0144155
-0.0661828,-0.120454
-0.114743,-0.1784
-0.105215,-0.0483785
-0.00173574,0.0585497
0.122589,0.036852
0.174381,-0.0195155
0.0928168,-0.011146
-0.0456665,-0.0159828
-0.13024,-0.03564
-0.107858,-0.0344003
-0.0272687,0.0070962
-2.62e-05,0.0764501
-0.00862417,0.061625
-0.00681107,0.0212959
0.00457038,-0.0142059
0.0229087,-0.0280619
0.0553223,0.0209502
0.078198,0.0327918
0.0618691,-0.0776698
0.00715937,-0.0724828
-0.0566114,-0.00787573
-0.0895225,-0.0193723
-0.0567876,0.00441718
0.00756743,0.0356436
0.0490149,0.03476
0.0219661,0.0227354
-0.0251074,0.0277764
-0.0369567,0.0262331
-0.0106582,0.0246268
0.00579456,0.0263769
0.000680113,0.0182457
-0.014388,0.0104049
-0.00681973,-0.00221942
0.0324376,-0.0381528
0.0764785,-0.0734717
0.10099,-0.047338
0.0802961,-0.0173672
0.00924324,-0.0956609
-0.0474331,-0.139111
-0.0784276,-0.0874898
-0.0832293,-0.0290863
-0.0823986,0.0649073
-0.0224752,0.147719
0.0441193,0.132834
0.0613742,0.0559159
0.0667889,0.0556214
0.0755394,0.0982263
0.0951859,0.0286031
0.0156725,0.0183283
-0.153563,-0.0057229
-0.160304,0.0398052
-0.0875747,0.0833959
-0.0241406,0.0024454
0.0125043,-0.0343187
0.0320956,-0.031876
0.0256498,-0.0243267
0.0212323,-0.0384419
0.0322521,-0.0599829
0.0206577,-0.0578738
-0.0151148,-0.0317645
-0.0135753,-0.0439194
0.00810258,0.0293301
0.0087623,0.050149
-0.00144618,-0.00281104
-0.0097327,-0.0281813
-0.0155726,-0.0280635
-0.0260733,-0.0157028
-0.0175667,-0.0171841
-0.00103332,-0.0114837
-0.000601152,0.00172452
-0.00643425,0.0136841
-0.00573081,0.0111527
0.000522241,0.00501133
0.0253438,-0.0241027
0.0400891,-0.0631507
0.0565332,-0.053435
0.142643,-0.0309309
0.184712,0.032666
0.106783,0.0666543
-0.0276402,0.0437492
-0.166958,0.0488805
-0.172364,-0.0152026
-0.0230854,0.0613582
0.105764,-0.0594169
0.191672,-0.110869
0.157798,0.0442362
-0.026816,0.0439979
-0.151518,0.0363888
-0.230705,0.0226656
-0.225708,0.0636085
-0.120356,0.0609328
-0.0216252,-0.0348221
0.00170843,-0.0945831
0.00645237,-0.0844109
0.019874,-0.0231654
0.0181575,-0.00957456
0.0361946,0.0520612
0.0573256,0.0831273
0.0311702,0.0777238
0.0238888,0.0542869
0.0196596,0.00869109
-0.022355,-0.0245354
-0.0364263,-0.0331569
0.00617308,-0.0298953
0.0255548,-0.0227664
0.0283145,-0.00578809
0.0274692,0.00614832
0.0267928,0.00435034
0.0203767,0.00201708
0.00674361,0.00672524
-0.00977233,0.00671945
-0.0222761,0.00306991
-0.0285076,-0.00614958
-0.0287041,-0.0102266
-0.0281197,-0.0187226
-0.0313411,-0.0652389
-0.0394259,-0.125613
-0.0237555,-0.143344
0.0187691,-0.136363
0.0787798,-0.109226
0.137224,-0.0228341
0.157378,0.0961031
0.163488,0.202577
0.133039,0.170819
-0.0119649,0.15276
-0.0956375,0.125458
-0.0622582,0.100372
-0.0163401,-0.0503801
-0.0205944,-0.0916047
-0.0668529,-0.0973257
-0.151019,-0.0709606
-0.141288,-0.000345984
-0.0227689,-0.0047603
0.0347866,-0.0361436
0.0283312,0.00322331
0.0390621,0.0391977
-0.00295383,0.0301931
-0.051767,0.00140978
-0.0657932,0.0251243
-0.0426875,0.029728
-0.0243968,0.0154759
-0.00724006,-0.00847037
0.0223589,-0.0109028
0.034665,0.0206315
0.0206438,0.0260653
0.0110255,-0.00266826
0.0147193,-0.0102919
0.0182364,-0.00906325
0.00146488,-0.00276043
-0.0187532,0.00350027
-0.0209639,-0.000149022
-0.00949499,-0.0049778
0.00470765,-0.0129145
0.00884014,-0.0187571
0.000180221,-0.0162096
-0.0141102,-0.00457389
-0.0184796,0.00567626
-0.00326854,0.00109052
0.00570309,-0.00687232
0.00223418,-0.0248463
-0.0106905,-0.0426572
-0.00219162,-0.0351462
0.0368005,-0.00600526
0.0692735,-0.045355
0.108467,0.0244157
0.175001,0.0665302
0.162777,-0.0732579
0.0836838,-0.0396355
0.0276269,0.0406636
-0.0592966,-0.105196
-0.122454,-0.185075
-0.161259,-0.208157
-0.172005,-0.0813863
-0.0863464,0.136251
0.0697221,0.151134
0.141587,0.172552
0.0368917,0.208113
-0.0096251,0.133631
-0.0573232,0.0394043
-0.158287,0.0657011
-0.158179,0.0414487
-0.1111,-0.0385741
-0.0617138,0.0245611
-0.00814861,0.0558002
0.0685338,0.0717511
0.097443,-0.0424721
0.096386,-0.130673
0.0868502,-0.115162
0.0454517,-0.0387764
0.0213122,0.0701099
0.0223041,0.0435846
0.0252815,-0.00258632
0.0102546,-0.00632384
0.00422622,-0.0267565
-0.00263664,-0.0361269
-0.00459685,-0.034099
-0.00770632,-0.0320738
-0.0150307,-0.0139998
-0.0321363,0.00759075
-0.0522599,0.0145094
-0.0492608,0.000535979
-0.0311582,-0.0101464
-0.0202509,-0.00847129
-0.0124569,-0.0039057
-0.010898,-0.0027407
-0.0129261,-0.0046152
-0.0124961,-0.0100045
-0.0035926,-0.0203836
0.00451547,-0.0188893
0.00535633,-0.00992928
0.010419,-0.0108216
0.0232064,-0.0145392
0.047453,-0.0123784
0.0969357,-0.0128851
0.159629,-0.0142217
0.158486,-0.003044
0.129464,0.0299891
0.14745,0.0187559
0.108603,-0.0209029
-0.0138942,-0.063389
-0.0762253,0.0231626
-0.130492,0.0118575
-0.204712,-0.0196987
-0.266831,-0.050934
-0.271661,0.0192333
-0.14914,0.129925
0.032196,0.0238186
0.169873,-0.0469575
0.180795,-0.0814027
0.101857,-0.175489
0.00819853,-0.131957
-0.105392,0.0061823
-0.158623,0.106014
-0.137732,0.189152
-0.0558069,0.105031
0.0336394,0.121087
0.0651144,0.160236
0.0422908,0.0957304
0.0286922,0.0427999
0.0314113,0.0124401
0.0437183,-0.0234358
0.0560873,-0.0400467
0.0634432,-0.0396283
0.0471084,-0.0431572
0.018921,-0.0425985
0.00455815,-0.0375868
-0.00556826,-0.0295437
-0.013693,-0.0248451
-0.0260533,-0.0164615
-0.0376436,-0.0097223
-0.0346768,-0.0159194
-0.0165173,-0.0242508
0.00328937,-0.0258379
0.0173955,-0.0269803
0.0227166,-0.0272277
0.0200916,-0.0193023
0.0178069,-0.00544964
0.0189643,-0.00436913
0.015151,-0.00399405
0.00257271,0.00193458
-0.0137977,0.00834013
-0.0271359,0.0123422
-0.0347454,0.0188033
-0.0360297,0.0235799
-0.0405428,0.02231
-0.0419937,0.0146689
-0.0265231,0.0101145
0.0568694,-0.0102398
0.153098,-0.0637633
0.148361,-0.136647
0.137146,-0.150796
0.117742,-0.116886
0.0610143,0.000167708
-0.000415303,0.116967
-0.136728,0.0220565
-0.196442,0.0427996
-0.111354,0.0864803
-0.0552734,0.175824
-0.0445219,0.13464
-0.0283438,-0.00106487
0.0523055,-0.0896386
0.0670272,-0.0517737
-0.0235874,-0.024634
-0.0501417,-0.0569027
-0.069071,-0.0819051
-0.129415,0.0328486
-0.0619099,0.168483
0.0350427,0.125547
0.0656033,0.0368677
0.0397485,0.0411958
0.020206,6.37e-05
0.023463,-0.0360179
0.0298349,-0.0328772
0.0326618,-0.019567
0.0144359,0.00827795
-0.00579761,0.00345918
-0.0101589,-0.00202069
-0.00764358,0.00227375
-0.0251768,0.00259282
-0.0404856,0.000423172
-0.0281417,-0.00890973
-0.00610945,-0.00850176
0.0024937,-0.00373472
0.00205357,-0.0127845
-0.00889144,-0.025657
-0.013052,-0.0277327
-0.00379445,-0.0292801
0.0275483,-0.0603765
0.0546831,-0.066214
0.0943749,-0.0538048
0.109856,-0.0631094
0.127517,-0.0737713
0.114304,-0.05026
0.0505301,0.0116773
-0.00633974,0.0586028
-0.0195546,0.0906784
-0.0118186,0.0775456
-0.0535502,0.0363
-0.0941552,-0.064169
-0.127524,-0.107763
-0.133784,-0.0135868
-0.0620141,-0.00771183
0.0199911,-0.0257522
0.0612127,0.0455959
0.00736792,0.0878553
-0.0230947,0.107159
-0.0167124,0.0579527
-0.0189063,0.0403288
-0.0242718,0.0049506
-0.0127207,-0.0283968
-0.00133214,-0.019028
0.0128771,-0.00318604
-0.0132287,0.0989771
-0.0344691,0.100492
-0.000101384,0.0517363
0.0163211,0.0333859
0.00343752,0.0287825
0.0137276,-0.032588
0.0116021,-0.0534555
0.00554626,-0.0400814
0.0149531,-0.0303119
0.0266184,-0.0310264
0.0193197,-0.0324387
0.0027447,-0.0479454
-0.0162451,-0.0560742
-0.0219118,-0.0462112
-0.0181995,-0.0272647
-0.011842,-0.00195929
-0.0232875,0.0187506
-0.0268143,-0.000653747
-0.00659421,-0.0287973
0.04563,-0.0453228
0.0881395,-0.0188651
0.0846597,0.00725954
0.0623824,-0.00402652
0.0852237,0.00952285
0.158091,0.0137358
0.128175,-0.00112372
0.0180991,-0.00445902
-0.122946,-0.0812838
-0.214378,-0.0793974
-0.162432,-0.0693213
0.0227975,-0.0242836
0.199927,0.0246205
0.199783,0.0656697
0.0275522,0.124316
-0.166392,0.0978762
-0.30229,0.0947867
-0.243748,0.0977287
-0.105924,0.0429234
0.00516819,-0.0736042
0.0334209,-0.0933929
0.00809091,0.00394941
-0.00731535,0.0871609
-0.00575307,0.104423
0.0290772,0.065584
0.0639097,0.0180054
0.0537458,-0.00723866
0.0325776,-0.0268573
0.0314033,-0.0459783
0.0164073,-0.0338394
-0.00843953,-0.00331468
0.00302572,-0.0256143
0.0331189,-0.0448832
0.0469754,-0.0798777
0.0634428,-0.119629
0.0581919,-0.164743
0.0350408,-0.163629
0.0453647,-0.0381228
0.0434095,0.0846113
0.00860547,0.160108
-0.0166108,0.135823
-0.0531015,0.0993237
-0.069786,0.0840722
-0.0390828,0.0174906
-0.0475345,-0.000536116
-0.0992315,-0.0294445
-0.0966357,-0.00753538
-0.0272278,0.0385903
0.0473978,-0.0230355
0.0915128,-0.010478
0.0759336,0.0235013
0.0565422,-0.0626105
-0.00676959,-0.190027
-0.0861591,-0.226112
-0.0883318,-0.119716
-0.0486233,0.093992
0.0316112,0.177999
0.107953,0.181155
0.104928,0.122062
0.0792854,0.0323532
0.0436219,-0.0435965
0.0424896,-0.0420362
0.0151926,-0.024247
-0.046948,0.0789883
-0.101078,0.0577918
-0.110927,0.0100383
-0.0927616,0.0171641
-0.0532657,-0.0309128
0.0113875,-0.0303096
0.0624445,-0.0425786
0.0618941,-0.0506571
-0.00374033,0.00498555
-0.0711284,0.00868031
-0.0949454,-0.0300329
-0.0576036,-0.00443685
0.0368126,0.0230574
0.096686,0.00965298
0.0725516,-0.0183491
0.0580092,0.0352536
0.0621175,0.0222223
0.0841095,-0.00815841
0.0812138,0.0222973
0.0231441,0.0132605
-0.0491092,-0.0985052
-0.134297,-0.106181
-0.148162,-0.0477998
-0.0670133,-0.0278693
-0.00958848,-0.0777293
0.0311443,0.0195412
0.0329079,0.015606
0.0193839,0.0823274
-0.0119135,0.0217795
0.0188717,-0.0181013
0.0965832,0.0230557
0.101998,0.0688631
0.0334415,0.0695477
-0.0722395,-0.0058946
-0.118243,0.0134606
-0.0753108,0.0577541
-0.0452027,0.05116
0.000912093,-0.0208115
0.0176128,-0.0711912
-0.000793089,0.0173333
0.0234101,0.15315
0.0363444,-0.0219788
0.0258573,-0.00559261
0.0186061,0.0247967
0.00493035,-0.0832154
-0.0161181,-0.114871
-0.0448549,-0.12025
-0.0307996,-0.0152966
-0.0101388,-0.00751411
0.0362934,-0.0703326
0.0889621,-0.0141239
0.0917537,0.0200837
0.0545056,0.0226921
-0.00782169,0.0572827
-0.051859,0.0369574
-0.0479296,0.0684207
-0.031877,-0.00503738
-0.0220967,-0.085775
-0.0132736,-0.0332415
0.0220849,0.077159
0.0383821,0.0613556
0.0258231,0.0468417
-0.00897999,0.110415
-0.0583302,0.0796837
-0.084734,-0.0527072
-0.0437311,-0.0485348
0.00865344,-0.0323689
0.00432076,-0.0391743
0.00520667,-0.0265361
0.0117175,0.0124721
0.0255785,-0.000227269
0.0125834,-0.0660495
-0.00175223,-0.10665
-0.0160556,-0.0745492
-0.0425114,0.118144
-0.0820287,0.156912
-0.0582391,0.0193222
0.0242171,0.0311302
0.0759213,0.0116976
0.0951114,-0.0398933
0.0961859,-0.0931392
0.091745,-0.138689
0.0615567,-0.13083
0.013035,-0.0812259
-0.0167244,-0.02472
-0.0224274,0.100975
-0.0432227,0.0946239
-0.0577822,0.0509608
-0.0336105,0.00835483
0.0155439,0.0994607
0.0463042,0.101133
0.0352729,-0.0558543
0.0594806,-0.0320236
0.0355179,0.00199838
-0.0754779,-0.0121982
-0.0823676,-0.0125985
-0.0702831,0.000341166
-0.0901574,-0.017421
-0.063626,-0.0553614
-0.0448268,-0.00439147
-0.0393791,0.0828583
0.00955276,0.0985703
0.0481044,0.0875132
0.0920463,-0.00158396
0.133303,0.0356267
0.0531575,-0.039164
-0.0337709,-0.0652202
-0.0751429,-0.0148482
-0.102509,-0.033978
-0.0367229,-0.0481587
0.110818,-0.0525254
0.205324,-0.0579848
0.125738,-0.0696854
-0.041148,-0.0325506
-0.121343,0.015304
-0.123657,0.0232155
-0.0699804,0.204026
-0.020213,0.17041
-0.0222247,-0.115695
-0.0386895,-0.150742
-0.0331828,-0.0374868
-0.017498,0.0415513
-0.000526714,0.0657751
0.0371717,0.0726541
0.0407233,0.0865443
0.00281955,0.0433768
-0.0269123,0.00400687
-0.00693845,-0.0354484
0.0349695,-0.0885762
0.0870174,-0.120677
0.0949711,-0.135694
0.0889516,-0.152483
0.0367098,0.0334933
-0.0406852,0.0527133
-0.063642,-0.0125559
-0.0377982,0.0811831
-0.0224546,0.117249
-0.0106637,0.0643374
-0.00069881,-0.000509078
0.0247931,-0.00541748
0.0553992,0.00141123
0.0532728,0.0409142
0.0706456,0.00644642
0.0506801,-0.0795418
-0.0136748,0.00323203
-0.10638,0.0900807
-0.173841,0.0138496
-0.147941,-0.0752339
-0.0614623,-0.095243
-0.00877036,-0.0413176
0.0181628,0.0228159
-0.000639507,0.0725654
-0.0118759,0.0536966
0.0166423,0.0552358
0.0443885,0.0862458
0.0846921,0.0196039
0.158663,-0.0307913
0.199842,-0.0555385
0.160981,-0.0368381
0.0114569,-0.0141101
-0.129202,0.0934763
-0.203751,0.00361816
-0.193105,-0.0171435
-0.124391,-0.00284622
-0.0529739,-0.076261
0.0104265,-0.128294
0.0299925,-0.139295
0.0363755,-0.0650656
0.0346377,-0.0896446
0.0199987,-0.0977388
0.0270607,-0.0121556
0.0507191,0.0717806
0.0726291,0.0691397
0.0775352,0.0993935
0.0515941,0.12787
-0.030958,0.0344018
-0.0913199,0.0506929
-0.0823043,0.0846591
-0.0438018,0.0429694
-0.00310949,-0.0029932
0.0604264,0.0213106
0.0853741,0.020422
0.0620656,-0.0496662
0.0253602,-0.0420278
-0.00196526,0.0389574
-0.0379007,0.00914457
-0.0579363,0.0533506
-0.0625246,0.064383
-0.0393201,0.0561189
-0.0035931,-0.0234722
0.0289476,-0.0750276
0.0380403,-0.0265286
0.0445856,-0.0971874
0.00700654,-0.0619533
-0.0188128,0.0274243
0.00862562,0.0175213
-0.0071346,0.00932852
-0.0401617,0.00512489
-0.052875,-0.025263
-0.0244178,-0.00288253
0.0260985,0.01469
0.0537866,0.0363822
0.0378229,0.00471258
0.0321465,0.00483227
0.0115554,0.00587136
-0.0262594,-0.0468541
-0.0506598,-0.132801
-0.0661219,-0.0846235
0.00324743,-0.0058419
0.0816687,-0.0234312
0.0820346,-0.0563871
0.021841,-0.0461321
-0.106379,-0.0103028
-0.152419,0.00145203
-0.0333,0.0608464
0.0984633,0.0680079
0.102145,0.131672
0.045609,0.0854766
0.0183509,0.0519454
-0.0168991,0.0437548
-0.0734157,0.0218449
-0.0737314,-0.0257795
-0.0326886,-0.0200185
-0.0191201,-0.0523669
-0.0279216,-0.0496023
-0.0217223,-0.00424502
0.00074818,-0.0282122
0.0191891,-0.0242336
-0.00138444,0.0154443
0.00318242,0.0775693
0.0387057,0.0799885
0.0669064,-0.0219701
0.059304,0.00146481
0.0231092,-0.0562695
0.0288898,-0.102101
0.0540107,-0.0338531
0.0556525,-0.0246269
0.0404768,-0.00915514
0.0165188,0.102172
-0.0280329,0.115097
-0.0437714,0.0639646
-0.0657468,0.0195603
-0.084544,-0.0209631
-0.0574732,-0.0256591
-0.0346699,-0.0384945
-0.0170566,-0.029825
0.0175506,-0.0173857
0.0416998,-0.00209567
0.0574293,0.0499087
0.025813,-0.0342512
-0.0259893,-0.0649361
-0.051798,-0.0361578
-0.0520107,-0.0320831
0.0132238,-0.0253542
0.0252635,-0.0164987
0.00965164,0.00254506
-0.00644622,-0.0297746
0.00543021,-0.00480386
0.0133505,-0.00499487
-0.0379794,0.0290815
-0.0848422,0.0904682
-0.0718613,0.067913
0.0413526,-0.000347048
0.135698,-0.0431002
0.115984,-0.0197946
0.0848206,0.0364073
0.0430395,0.0217648
-0.00178905,-0.024936
0.0151198,-0.00195301
0.00604193,0.0354466
-0.0226143,0.0485651
0.0213395,0.0160804
-0.0185045,-0.0555032
-0.0444006,-0.09809
-0.0338282,-0.12156
-0.0977414,-0.103331
-0.100514,-0.0244583
-0.0371043,0.0716247
0.0226573,0.110506
0.00991367,0.0920929
-0.00893232,0.100421
-0.0134029,0.0463203
0.00718071,0.0198819
-0.00237728,0.0113176
-0.0216764,0.00663127
-0.00418107,-0.0253441
-0.0201888,0.0046788
-0.0479935,-0.0236841
-0.0280278,0.0156414
0.0421641,-0.00896621
0.0947963,-0.034755
0.0885353,-0.00861485
0.0688217,0.0228112
0.0086748,-0.0621052
-0.0411287,-0.11281
0.0110107,-0.0686966
0.03015,0.0872314
-0.0258748,0.117974
-0.0692884,0.0781947
-0.0496589,-0.0613213
0.010049,-0.0272136
0.0344604,0.0246865
0.0263689,-0.00217645
-0.0207016,0.0122063
-0.0433999,-0.0302126
-0.025624,-0.00823734
-0.0162531,-0.0647641
-0.00246649,-0.122844
0.0246523,-0.107067
0.0432726,-0.0366662
0.0612103,0.0498
0.079312,0.147054
0.0492179,0.168341
-0.000897424,0.0490647
0.000204319,-0.0710761
-0.0359798,-0.108056
-0.0814414,-0.0829923
-0.0561092,0.0157086
-0.0148486,0.123935
0.00318735,0.10255
-0.00890267,0.0217213
0.00425425,0.0127011
0.0188771,-0.00600818
-0.00955065,-0.0259223
-0.0419393,-0.00846252
-0.0362691,-0.0063343
-0.0328971,-0.0652855
-0.0118254,-0.0389688
0.0276218,-0.0397898
0.0607879,-0.101914
0.0737939,-0.031823
0.0866733,0.0848422
0.0569469,0.0038446
0.0286123,-0.0679249
0.0203084,-0.0639779
-0.00693787,-0.0522885
-0.0558821,0.0452284
-0.0682135,0.122839
-0.0900211,0.138347
-0.0546566,0.0935888
-0.00774272,0.0289597
-0.0342486,-0.00193828
-0.0223838,0.00918349
0.00306668,0.0040452
0.0162531,-0.0254629
0.0331336,-0.050667
0.0441823,-0.0234306
0.0438399,0.0116427
0.028121,0.0132816
0.00452755,-0.0661957
-0.0343677,-0.0893065
-0.0784622,-0.0546617
-0.0293462,-0.0437915
0.0408243,-0.0562772
0.0304237,0.00744724
0.0118904,0.107584
-0.00887307,0.124534
-0.015428,0.0674519
0.00161286,0.00431468
0.00890274,0.00272936
0.00531989,0.006723
0.00111773,-0.00414896
0.0194962,-0.036507
0.0389364,-0.0383003
0.0485589,0.0155058
0.0374491,0.0181447
-0.0146048,-0.0105799
-0.0687512,0.00904882
-0.0631594,-0.0396778
-0.040167,-0.0911007
-0.0236968,-0.0146093
-0.0134037,0.0181791
-0.0132892,-0.0123935
-0.0240586,-0.0025692
0.0169888,0.0795965
0.0567353,0.0925667
0.0593114,0.000820695
0.06523,-0.0218735
0.0873966,0.0150601
0.0991319,-0.0493606
0.0399869,-0.0397699
-0.0369494,0.0245249
-0.093738,-0.00967389
-0.0750731,-0.0200394
-0.0374385,-0.0470435
0.0180554,-0.00271683
0.0609658,0.0803961
0.055568,0.0543638
-0.00604516,0.0108435
-0.102174,-0.0106006
-0.123628,-0.0190557
-0.070323,0.000517311
-0.0358877,-0.0540225
-0.0143902,-0.0801027
-0.0241043,-0.0415652
-0.0354736,-0.0153126
-0.0032008,-0.00294328
0.0297106,0.0367049
0.0423637,0.051906
0.0487127,0.0637224
0.0233731,0.0626009
-0.00710462,0.0371097
0.0163066,-0.00632338
0.0437781,-0.0560423
0.0615879,-0.101367
0.0707522,-0.0530447
0.045186,0.0251647
-0.00924318,0.117005
-0.0415227,0.0469262
-0.0309526,-0.0618199
-0.0418933,-0.0422632
-0.0497108,0.0574983
-0.0444186,0.0424313
-0.0175518,-0.0411241
-0.00165172,-0.115869
0.000162071,-0.121929
0.0191492,0.0461277
0.057314,0.100336
0.0341931,-0.0160908
0.00937573,-0.0779348
0.0183834,-0.0168093
0.0231156,0.0645212
0.0694306,0.0751462
0.125353,0.0971958
0.0782163,0.0832494
0.00879446,0.0413948
0.0109041,0.0264063
0.0265133,-0.0266584
-0.0659088,-0.115834
-0.166354,-0.0997661
-0.182728,-0.005598
-0.138753,-0.0153072
-0.0764571,-0.0430379
-0.0361176,0.0732607
-0.0116351,0.110463
0.00752178,0.0309612
0.0184981,0.0041475
0.0197724,-0.0106966
0.0385097,-0.022058
0.0465334,-0.0213795
0.0549295,-0.0179849
0.0411589,-0.00264731
0.0164152,0.00695784
0.00622287,0.00300564
0.0024253,0.00826518
-0.00872043,-0.0107543
-0.00428462,-0.026069
0.0153416,-0.0225914
0.0213477,-0.0522234
0.0103517,-0.0231617
-0.00621577,0.0172834
-0.0176088,-0.0437763
-0.0133513,-0.0245343
-0.0115111,0.0271827
0.0343961,0.0806125
0.0951763,0.0106041
0.114615,-0.0189515
0.0749736,-0.0510971
-0.0246793,-0.0687721
-0.087382,-0.0413077
-0.0430515,-0.0184334
0.0242888,-0.0522769
0.0792082,-0.0373508
0.0827899,0.038822
0.0175445,0.106822
-0.0736992,0.0959476
-0.126508,0.0871898
-0.118848,0.0474488
-0.0725119,0.0230241
-0.0149585,-0.00744953
0.00362457,0.0133863
-0.00389671,0.0350124
-0.0182533,-0.00833404
-0.0203103,-0.00654221
-0.0381858,-0.0282667
-0.0434331,-0.0441404
-0.0106392,-0.016311
0.021265,0.0276127
0.0343453,0.0209214
0.0403348,-0.0054436
0.0320743,-0.038403
0.0149622,-0.0468123
0.0188169,-0.0614861
0.0278531,-0.0551675
0.0830229,-0.0103441
0.105988,0.0464803
0.0704635,0.0305845
0.00992229,0.0072237
-0.0630434,-0.0286671
-0.0432259,-0.0557214
0.0451769,0.0195915
0.0104539,0.104199
-0.0663421,0.0373206
-0.0812131,0.00414994
-0.0796644,0.0399976
-0.0624813,0.0414676
-0.0207307,-0.0296163
0.0298256,-0.0658852
0.0776571,-0.0385181
0.0721764,-0.0802057
0.0330126,-0.0367314
-0.0175119,0.0558211
-0.0138957,0.0140096
-0.0155997,-0.0625526
-0.0320005,-0.0689909
-0.0201912,-0.0589846
-0.00504632,-0.029029
-0.0195652,0.0385345
-0.0629886,0.115073
-0.0682434,0.0845773
-0.0190775,0.0711485
0.01069,0.0562402
0.0399879,0.044596
0.0814973,0.00237033
0.0909197,-0.0248187
0.0622602,-0.00905354
0.0161435,0.00618498
-0.0493604,-0.000703379
-0.0728514,-0.0130059
-0.0602165,-0.00201694
-0.0496816,-0.00277265
-0.0127012,-0.00667072
0.0370072,-0.00978746
0.0634409,-0.0153988
0.0632117,-0.0136037
0.0545471,-0.00404487
0.0213834,-0.00381576
-0.0192618,-0.00813019
-0.045272,-0.0109277
-0.0613426,-0.0240801
-0.0355176,-0.0406645
-0.00523141,-0.0315674
0.00973218,0.00483748
-0.00640329,0.00117617
-0.0480422,0.0202398
-0.0493663,0.0636568
0.00379206,-0.0080133
0.0807482,-0.111229
0.112445,-0.185988
0.150353,-0.127456
0.152939,0.0851493
0.0668821,0.195198
-0.03858,0.0154954
-0.0770632,-0.0328962
-0.110876,0.00885182
-0.0837333,0.0165035
-0.0314541,0.0437295
-0.021823,0.0994077
-0.0689796,0.108316
-0.0983094,0.082531
-0.0573928,0.0332219
-0.0209546,0.00287549
-0.00408422,-0.0494031
-0.0013827,-0.0534137
0.0143251,-0.0126214
0.0348852,-0.00538003
0.0282903,0.0134166
0.0195827,0.0209976
0.00942847,0.00212912
-0.00936779,-0.0151975
-0.0138608,-0.0121238
0.00276226,-0.00825205
0.0185594,-0.0422702
0.0334212,-0.0620454
0.0431316,-0.0638605
0.0384395,-0.0355383
0.00743528,-0.0286616
-0.00675928,-0.00942252
0.0206856,0.0762895
0.048853,0.119163
0.065476,-0.028282
0.140678,-0.176666
0.140387,-0.138514
0.0404797,-0.00149853
-0.0754317,0.0910542
-0.212861,0.0131622
-0.181294,0.0493294
-0.0424446,0.142108
0.00332527,-0.0092383
0.0192005,-0.220396
0.0012106,-0.202181
-0.0303324,-0.052331
-0.012826,0.0769941
-0.00564016,0.226448
-0.0449622,0.206944
-0.0497728,0.125854
-0.0191733,0.0425344
0.00810766,0.0342358
0.0166572,0.0107761
0.0201773,-0.0186416
0.0485602,-0.0351384
0.0442806,-0.00657526
0.0147529,0.0178396
-0.0248748,0.000486273
-0.0584112,-0.0263058
-0.0508274,-0.0499357
0.0338587,-0.0538725
0.0873503,-0.0328749
0.0728384,-0.0119883
0.0141943,-0.0119111
-0.0493592,-0.0146089
-0.0899939,-0.0165758
-0.0756451,-0.0179913
-0.0353333,-0.0224561
0.0128689,-0.0116986
0.0867934,0.0180803
0.152993,0.000925927
0.153566,-0.0270983
0.0833111,-0.0402708
-0.00119041,-0.00569978
-0.0597209,-0.0284192
-0.0915186,-0.0486573
-0.0919354,-0.0618304
-0.0619584,-0.0221723
0.00225099,0.0585641
0.10178,0.0528469
0.127423,0.0626888
0.0551313,0.04921
-0.0708833,0.0267066
-0.157554,0.0639823
-0.102232,0.0338052
-0.00141336,-0.0136754
0.0229356,-0.00795346
0.0124073,0.0144312
0.00856133,0.00616875
0.0193603,-0.016377
-0.00536091,-0.0292149
-0.0460135,-0.0861497
-0.076909,-0.120935
-0.0431447,-0.0850445
0.0194474,0.0054191
0.0573428,0.0482823
0.0510342,0.0630715
0.0179533,0.101032
-0.0201864,0.0964637
-0.0249455,0.0558196
-0.00975719,0.0342982
-0.0133775,-0.0134052
-0.0233139,-0.00807737
-0.0135161,-0.0167847
0.00264948,-0.0329843
0.0274691,-0.0340463
0.0636609,-0.0367089
0.0930272,-0.0286293
0.062532,0.050857
0.0268861,0.0970748
0.0218752,0.0474406
0.051969,-0.0300248
0.0501873,-0.0423152
-0.0122395,-0.0634702
-0.0307308,-0.0353658
-0.041397,-0.00360307
-0.0822343,-0.0199538
-0.100518,-0.0522843
-0.0752708,-0.0309751
-0.0459303,-0.0129753
-0.0282899,0.0126793
-0.0216209,0.0292587
-0.0106138,-0.0458035
0.0188791,-0.0815887
0.0248332,-0.0543149
0.0118447,0.0488714
0.0176752,0.103417
0.0228185,0.079427
0.0280004,0.0799565
0.0330209,0.0627829
0.0360538,0.00883842
0.024364,-0.0647505
0.0321805,-0.0782979
0.00183974,-0.0040909
-0.0236584,0.0574422
-0.0268748,0.0339989
-0.0248567,0.0292908
-0.0167129,0.0161614
-0.00731379,0.0322626
-0.00810001,0.0346606
-0.00872516,0.0370228
0.00540878,-0.00199705
0.0273868,-0.0160286
0.0230608,-0.0701448
0.0217259,-0.0741621
0.00787372,-0.0371262
-0.00166873,-0.0344432
0.00562887,-0.0850315
0.0179945,-0.188701
0.00672653,-0.151636
-0.026574,-0.0916638
-0.0384749,-0.023783
-0.0131143,0.0599648
0.0158968,0.184205
0.0107036,0.213534
0.000720035,0.180285
-0.0158057,0.104478
-0.0227037,0.00984581
0.0190207,-0.00533702
0.0555535,-0.0367807
0.0441841,-0.0266199
-0.00122011,-0.00754634
-0.0328601,-0.0199859
-0.0321782,-0.0325484
-0.013931,-0.0579168
-0.00647696,-0.0605808
-0.0235806,-0.00264218
-0.0667448,0.0637613
-0.0452596,0.0482388
0.0130783,0.0517609
0.0257536,0.00774502
0.0458061,-0.0218894
0.0755506,-0.0246868
0.0442071,-0.02098
-0.00943472,-0.00821192
-0.0310026,-0.0555999
-0.0177493,-0.0209292
-0.00975635,0.0356219
-0.000582842,0.00693872
-0.00817299,0.0144818
-0.0180885,0.0170459
-0.015348,-0.0354954
-0.00520965,-0.0424084
0.000846347,-0.0487614
0.002697,-0.04761
-0.00494476,-0.0613746
-0.00575413,-0.0137469
-0.00887504,0.0493946
-0.0155933,0.0652924
-0.0035182,0.0922941
0.0284768,0.0123446
0.0442152,-0.0152903
0.0286109,0.00932103
0.0155935,0.0166017
-0.00213776,-0.00972929
-0.020217,-0.0201376
-0.00958195,-0.00208909
0.00714584,0.0555395
0.0195962,0.0278647
0.0289212,-0.0173741
0.0101428,-0.0105248
-0.0368939,-0.0200974
-0.034242,-0.0165026
-0.0151052,-0.0112224
-0.00980566,-0.019955
-0.0139269,0.037745
-0.0129046,0.033753
-0.0167847,-0.019915
-0.0316207,-0.0306863
-0.0183531,0.000289553
0.00774034,-0.0149408
0.0367857,-0.0190086
0.064954,-0.0261961
0.0611474,-0.0263253
0.0186471,0.00313051
0.013511,0.0535579
0.0254202,0.0898202
-0.0160104,0.0232718
-0.0599783,-0.0490888
-0.0855377,-0.0240068
-0.085788,-0.00138449
-0.0318815,-0.0270459
0.0367543,-0.00173836
0.0748028,0.0193003
0.0650129,-0.0012525
0.0496941,-0.0276671
0.0597422,0.021011
0.066517,-0.0188975
0.0465821,-0.0458765
-0.0435443,-0.0639716
-0.1347,-0.0547385
-0.158216,0.0441372
-0.0858842,0.0467077
0.0214841,0.0289423
0.0655998,0.0113219
0.0595881,0.00531909
0.0180051,-0.00455258
-0.0691247,0.0446861
-0.110428,0.00729083
-0.0547476,0.0307042
0.0372915,0.0625593
0.0947418,0.040546
0.125162,-0.00307661
0.16875,-0.0184137
0.127142,-0.00882452
0.0334139,0.0126475
-0.0495948,0.00693191
-0.152198,0.0019318
-0.139771,-0.0358642
-0.0161118,-0.0743349
-0.00228223,-0.0178703
-0.0201865,-0.0197205
-0.0389352,-0.063265
-0.0271744,-0.0806358
-0.018569,-0.028074
-0.0339145,0.00164108
-0.0325534,0.0453113
-0.0180664,0.131969
-0.00954834,0.0681134
-0.00230378,0.00657833
-0.00241161,-0.0146053
0.0253302,0.00202603
0.0766709,-0.0165129
0.123153,0.0256002
0.171069,0.0843663
0.159091,-0.0579684
0.0795279,-0.073494
-0.021784,-0.00480241
-0.0404392,0.00296936
-0.00798209,-0.0045871
-0.0335151,0.0243576
-0.117406,1.07e-05
-0.145364,-0.024342
-0.110648,-0.0270633
-0.0756249,-0.000196647
-0.0388023,0.0352597
-0.0121503,0.0140243
0.00586268,0.0198583
0.00180816,0.00497873
0.00774084,-0.00950599
0.0158914,-0.006216
0.0107608,-0.00988475
-0.00283495,-0.0407483
-0.00561396,-0.0580027
0.0238936,-0.031711
0.0722293,0.0554554
0.0653506,0.0234178
0.0147248,-0.0578267
-0.00587634,-0.0335018
0.00586195,0.0370317
0.00392397,0.0339868
0.0184118,-0.0322884
0.0293808,0.0100713
0.024972,0.0354557
0.0206773,-0.00755683
0.00504073,0.0192424
-0.00995681,0.0603683
0.0205532,-0.00833789
0.023739,0.0367752
-0.00391369,0.11476
-0.0359318,0.0247182
-0.0671542,-0.00716273
-0.026105,-0.0216734
0.0754881,-0.0637617
0.0880076,-0.0521925
0.024337,-0.0477058
-0.0637575,-0.0663156
-0.134258,0.00586753
-0.0969412,0.000274809
-0.0146065,-0.027622
0.0528664,-0.0390652
0.0606174,0.0446468
0.0217412,0.060122
-0.0144114,0.0301974
-0.0278984,0.00150941
-0.0213129,-0.0371055
-0.057349,-0.0466487
-0.0660793,-0.0355259
-0.0310772,0.0576825
0.000946195,0.0316099
0.00828277,-0.00102737
0.0136776,-0.0142227
0.0287998,-0.0241262
0.035132,0.0718713
0.0403167,0.0188078
0.0527537,-0.0610304
0.0215648,-0.0418597
0.011473,0.0187515
0.0366382,0.0624233
0.0444108,0.0323112
0.0357935,0.00449921
0.0501305,-0.0187099
0.0216162,-0.0227423
-0.0349179,0.00242405
-0.0425044,0.00950088
-0.0420322,-0.0105955
-0.0462126,0.0133741
-0.0295664,0.0298735
-0.0228376,0.000612495
-0.0192879,-0.0154551
-0.0176106,0.00347707
-0.0166621,0.00377371
-0.030461,-0.0560572
-0.0339921,-0.0338521
-0.028145,0.0151648
-0.00548002,-0.00319969
0.0350439,-0.0233913
0.0573955,0.00284995
0.0485677,0.0428665
0.0227873,-5.66e-06
0.00230088,-0.0114589
0.00893186,0.0117992
0.0431397,0.0151774
0.0228036,-0.0388006
-0.0164193,-0.0321824
-0.0351016,0.00095901
0.00208291,-0.00775045
0.0503331,-0.00667255
0.0567719,0.0120665
0.0169125,0.00961932
-0.058203,0.00380899
-0.0705566,0.0212404
-0.0234276,0.0161652
-0.0147591,0.0124069
-0.0272893,0.0530313
-0.00443057,0.00280456
0.0241961,-0.0346224
0.0148101,0.0263086
0.00316138,0.0261484
-0.0272378,-0.0161053
-0.0654813,0.00347452
-0.0585919,0.0125722
-0.0176136,-0.0080865
0.00546876,-0.00704491
-0.0368156,0.00418659
-0.0567002,-0.0097086
0.00241982,0.0145476
0.0673131,0.0222596
0.0801118,-0.0983358
0.0764746,-0.0928806
0.0783578,-0.00455051
0.0568924,-0.0267972
0.0132352,0.00460351
-0.0205741,0.0310906
-0.00168076,-0.0641928
0.0633421,-0.0452382
0.0837814,0.0833094
0.0507338,0.116021
-0.00548283,0.076992
-0.0454446,0.0423344
-0.0796202,0.022825
-0.0844598,-0.00495742
-0.121819,-0.0347224
-0.130943,-0.0471382
-0.0515323,-0.0453278
0.0187774,-0.031052
0.0576648,0.0172897
0.0987718,0.0484223
0.131937,-0.0118219
0.11431,-0.0653937
0.044896,0.0420503
-0.0527166,-0.00950264
-0.110271,-0.0933024
-0.0984088,-0.128877
-0.065872,-0.0676534
-0.0376336,0.0238024
-0.0140753,0.0909373
0.019536,0.127932
0.0299028,0.117039
0.00192995,0.0672348
-0.00494675,-0.00515254
0.00608564,-0.0269913
0.0237575,-0.0355377
0.0265353,-0.0168081
0.00836357,0.0143586
-0.0156195,-4.7e-05
-0.00652599,0.0227827
0.0141242,0.00287784
0.0161129,-0.00460029
-0.00372492,-0.00745671
-0.00436515,-0.00789261
0.0518093,-0.00504328
0.0999919,0.00538208
0.0719106,0.00821995
-0.00823544,-0.0161132
-0.092483,-0.0255668
-0.107944,-0.0292154
-0.0435538,-0.0207431
0.0130661,-0.00623485
0.0457961,-0.000291192
0.0347119,0.0058317
-0.0362327,0.0173345
-0.0389036,0.00591967
-0.0295118,-0.0149143
-0.019979,-0.0156303
-0.00420728,0.0243254
-0.0101708,-0.00150733
-0.0180463,-0.0135417
-0.0167809,-0.00514734
0.0271646,0.0123753
0.0791276,0.00345494
0.0791934,-0.0113137
0.0431379,-0.0128027
0.00204218,-0.00822322
-0.0160794,-0.00555738
-0.0375539,-0.00346505
-0.0818806,0.00613307
-0.0886327,0.0159074
-0.0695971,0.0172822
0.00649815,0.00949998
0.0719908,-0.00292035
0.0851048,-0.00142794
0.119926,-0.0151753
0.103675,-0.0204776
0.040137,-0.00727325
-0.0169619,0.0113453
-0.0347915,0.00387187
-0.0238763,0.000621314
-0.0470216,0.0215744
-0.104894,0.000211573
-0.108817,-0.00409367
-0.048337,-0.0155697
-0.00232374,-0.0283073
-0.0417443,0.0262658
-0.010622,0.00604339
0.0380704,-0.0208417
0.0444715,0.00580222
0.0541209,0.0191983
0.0891206,-0.0435156
0.0812066,-0.00517326
-0.0207772,0.040405
-0.106176,0.0191785
-0.059507,0.0298005
0.0288157,0.0129772
0.0766063,-0.00392554
0.0844003,0.0138629
0.0691812,0.0110274
0.040848,-0.00340319
0.00602663,-0.010909
-0.030561,-0.0175207
-0.0451961,-0.00767287
-0.0169917,0.0139752
-0.023818,0.00680812
-0.0417195,-0.0183431
-0.0257519,-0.0372763
-0.0150682,0.0195791
-0.0127001,0.0223488
0.0115859,-0.00200513
0.0260004,-0.000340523
0.0214908,-0.0227077
-0.0138072,-0.0367026
-0.0458966,-0.0388691
-0.0569193,-0.0493582
-0.0297027,-0.0494599
0.00856769,0.0477094
0.0286117,0.138123
0.0184389,0.0879138
-0.0173603,-0.0137464
-0.0162386,-0.015511
-0.000502861,0.00145273
-0.00575839,-0.00241417
0.0014601,-0.0206884
0.0236964,-0.00670213
0.0462973,0.00274304
0.0530241,0.0104825
0.0511581,0.00411157
0.0370789,-0.0114499
0.00213584,-0.00106694
-0.0292265,-0.0216352
-0.0684795,-0.0240671
-0.0814499,-0.0112411
-0.0117561,-0.00985667
0.0347106,0.0020827
0.0532785,0.0110146
0.0380333,0.00646353
-0.0164881,0.0165133
-0.0762575,-0.00710331
-0.112876,-0.00707798
-0.156337,-0.00674201
-0.0862347,-0.00377948
0.0690476,0.00651679
0.133721,-0.0133796
0.0564547,-0.0172713
0.00358798,0.00993883
-0.00575155,0.0246249
0.0144209,-0.0121593
0.0247334,-0.0144927
0.0113186,-0.00987524
-0.00487765,-0.0106008
-0.000267378,-0.00533647
0.0295995,0.00253683
0.0432468,0.0107262
0.0316183,0.00242992
0.00127225,-0.00400818
-0.0321535,-0.015854
-0.0279191,-0.0228489
0.0233777,0.0180036
0.0847367,0.0454785
0.113041,0.0346428
0.0695232,-0.0280485
-0.0382316,-0.0331005
-0.146449,-0.0118324
-0.10833,0.00627427
-0.0114487,0.00516905
0.0423242,0.0182423
0.0316852,0.0433439
-0.0061364,0.00399722
-0.0209643,0.0155949
-0.0195947,0.0207201
-0.0312239,0.00793657
-0.0344776,0.002193
-0.0155604,-0.000597686
0.0458121,-0.00388351
0.0850258,-0.00036221
0.056621,0.010362
-0.0079762,0.0126976
-0.0282856,0.00653963
-0.0511565,-0.0177178
-0.0811689,-0.0270728
-0.0962656,-0.0264345
-0.0532883,-0.0253076
0.0467287,-0.0344627
0.102492,-0.0342685
0.0236099,0.000862134
-0.0406602,0.0167855
-0.0624075,-0.00886251
-0.037091,-0.0134896
0.0340676,-0.00470187
0.0969677,0.00603291
0.14202,0.0128775
0.0903401,0.0171688
-0.00394357,0.0226682
-0.0549852,0.0158175
-0.0175275,0.00553024
0.0052022,0.00153107
-0.00961162,-0.00138204
-0.0169882,-0.00801945
-0.00274021,-0.00958504
0.00721116,-0.0051245
0.00650559,0.00313725
-0.00152979,0.0105327
-0.0244557,0.0106566
-0.0221568,0.00370126
0.0168106,-0.00214941
0.0291673,-0.000436243
0.0325046,0.000634493
0.00981452,0.00111098
-0.0118295,0.00602279
-0.0255165,0.00777579
-0.0409589,-0.00163637
-0.0740765,-0.00367482
-0.0860348,-0.00882052
-0.0316683,-0.0196337
0.0784082,-0.0186967
0.0623692,-0.00867701
-0.0315622,0.00271367
-0.0687166,0.0181995
-0.0147989,0.0237415
0.0347478,0.00891453
0.0258681,0.00323973
0.0264343,-0.000671649
-0.000853917,-0.00106237
0.0126887,0.000128153
0.0353861,0.00511355
-0.00857551,0.00409069
-0.0516598,-0.000386745
-0.0571936,-0.00827489
-0.0773944,-0.0105915
-0.120614,-0.00463182
-0.0163477,-0.000268732
0.164447,-0.0132646
0.202495,-0.012695
0.13806,-0.00272789
0.0644184,0.00594486
0.00490813,0.0124964
-0.045906,0.0124026
-0.0992283,0.00809016
-0.149684,0.00458081
-0.0991121,-0.00468726
0.0164826,-0.0141723
0.0485711,-0.00960104
0.0236647,0.00421327
0.000479806,0.00320859
-0.00554547,-0.0037093
-0.0361157,0.00497374
-0.0477262,0.0127078
-0.0392284,0.021397
-0.0381665,0.0278887
0.0287349,0.0190787
0.153946,-0.01122
0.0900958,-0.00895129
0.041756,0.00896024
0.0754274,-0.00119196
0.0799508,-0.00869532
-0.0510174,-0.0149551
-0.100933,-0.022206
-0.00241223,-0.027704
-0.00950363,-0.0205803
-0.0713071,-0.00433508
-0.048581,-0.00419188
-0.00517715,0.000670028
0.0303258,-0.00244518
0.015937,0.00270255
-0.0314917,0.0105588
-0.00986357,0.0106617
0.107462,0.00490656
0.076037,0.00479823
-0.0510909,0.000106554
-0.109316,-0.0228812
-0.155961,-0.0187463
-0.249255,0.00186978
-0.12882,0.0189647
0.146728,0.0114526
0.214442,0.014513
0.0343888,0.0300445
-0.133619,0.0241338
-0.069303,-0.00571345
0.137078,-0.0211267
0.121196,-0.00996227
0.113395,-0.0178345
0.165731,-0.0226175
0.0468661,-0.0171953
-0.213552,-0.00134216
-0.26338,0.0168424
-0.0402368,0.00889705
0.192896,0.0114738
0.123323,0.0151883
-0.126873,0.00875639
-0.182612,-0.00997054
0.11504,-0.0101741
0.201723,-0.00224667
0.220333,0.0102218
0.19317,0.0117314
0.0991938,-0.00571118
0.0431538,-0.00394261
-0.00662886,0.00300228
-0.126309,0.000220575
-0.280029,-0.00330379
-0.494298,-0.0024468
-0.383444,-0.000848806
0.044795,0.00209335
0.347627,0.0163402
0.204377,0.0205391
0.203431,-0.00669613
0.318601,-0.0228657
0.110424,-0.0170712
-0.409623,-0.00042998
-0.634031,0.0107988
-0.205945,0.00470719
0.285742,-0.00620187
0.450409,0.00570772
0.332965,0.0128575
0.103932,0.0059943
-0.0449694,-0.00725008
-0.0033982,-0.0171418
0.104838,-0.0124895
0.118351,0.00352056
-0.037731,-0.00141041
-0.149755,-0.0127124
-0.235511,-0.0127189
-0.503183,0.00478786
-0.629066,0.00833852
-0.22258,-0.0172034
0.256775,-0.0252716
0.405634,-0.0123298
0.34681,0.0130947
0.236643,0.0191867
0.150872,0.021382
0.0538965,0.0220435
0.0272213,0.0308568
-0.0219901,0.0245235
0.0559599,-0.00225854
0.107008,-0.0162452
-0.0423014,0.000105429
-0.288292,-0.0167775
-0.265837,-0.0535977
-0.0233042,-0.0411789
0.0559283,-0.0103327
-0.0847298,0.0099632
-0.165142,0.00375024
-0.106872,0.0114957
0.124557,0.0292543
0.208238,0.030407
0.133826,0.0238287
0.00609547,0.0174576
-0.0193607,0.0105141
-0.0185131,-0.0113004
-0.00385181,-0.0151395
0.0304678,-0.0181172
0.047003,-0.0315086
0.0461782,0.00224187
0.0262783,0.0478528
0.0337652,0.0421874
0.0755669,0.00660037
0.05268,-0.0159468
0.0164864,-0.0189728
0.0543523,-0.0205742
-0.0457727,-0.0139188
-0.220526,-0.0113801
-0.203628,-0.0259379
-0.19894,-0.0119184
-0.175762,0.00647797
-0.148858,0.0161557
-0.173252,0.027755
0.0062924,0.0159219
0.259352,0.00145974
0.220231,-0.00319518
0.0626871,-0.00705658
-0.0805,-0.0181062
-0.0903816,-0.0276744
0.126125,-0.0263498
0.225026,-0.00854029
0.101815,0.00159827
0.0675462,0.00291304
0.0721265,0.0128724
0.10518,0.0195926
0.0353774,-0.000997468
-0.0516365,0.000922252
-0.130817,-0.00350776
-0.162816,-0.0152852
-0.103214,-0.0176531
-0.00795008,-0.0164235
0.0487941,-0.00491255
0.0733114,0.0156187
0.120432,0.0362146
0.154296,0.0484886
0.122576,0.0449459
0.0595781,0.0300819
-0.00331144,0.015597
-0.0580186,0.0025426
-0.100606,-0.0176939
-0.121626,-0.0175624
-0.14355,-0.0130151
-0.118717,-0.0124831
-0.0432419,-0.0106034
0.0298567,-0.024735
0.0184072,-0.0380999
-0.0196729,-0.0305319
-0.0175564,0.000130997
0.00616118,0.00934038
0.0179727,0.0272912
0.0392455,0.0324242
0.0400595,0.0106066
0.0130992,0.00147546
