Comp Ch 3,Comp Ch 4
0.0197268,0.0300281
0.0554044,0.0505931
0.0631681,0.0173883
0.0486383,-0.044251
0.031665,0.00189618
-0.00616498,0.0213273
-0.031927,0.00332905
-0.052577,-0.0328233
-0.0750777,-0.0213334
-0.0566648,0.0241917
-0.0141629,0.0433434
0.0236921,0.0312281
0.0269089,0.00772014
0.00112939,0.00812782
-0.0213006,0.01266
-0.00490695,0.0550884
0.0185107,0.0625229
0.0871758,-0.011667
0.186484,-0.0245225
0.0830376,0.0274347
-0.0794108,0.0839178
-0.132415,-0.0268287
-0.00226336,-0.135322
0.0721227,-0.157481
-0.0238799,0.0540129
-0.185644,0.0741823
-0.154523,-0.0516801
-0.00289478,0.0126018
0.0298316,0.0317639
-0.0537334,0.0985221
-0.090065,-0.00187697
0.0434909,-0.00116534
0.186946,-0.0135308
0.176199,-0.0093575
0.0418378,-0.00324675
-0.0845742,-0.0104831
-0.0160983,-0.0259857
-0.0313465,-0.0638696
-0.0872201,-0.0824982
-0.0412798,0.0158755
0.021823,0.0793604
0.0193421,0.0346298
-0.0334083,0.0786278
-0.089519,0.0171458
-0.0467556,-0.0408515
0.13264,0.0102252
0.276099,-0.00664242
0.155507,-0.0425985
0.00317924,0.00264117
0.0111887,-0.0542918
0.0142398,-0.0220579
-0.0648353,-0.00882718
-0.0706817,0.0557687
-0.0638655,0.032735
-0.0921941,0.0722628
-0.0717515,0.0345898
-0.0836507,-0.0601468
-0.0638881,-0.0350983
-0.0305093,-0.00642302
-0.0119797,-0.052756
-0.0235554,0.00222439
-0.0373062,0.0259283
-0.031154,0.00329091
0.00403152,-0.0328794
0.0678269,0.0154501
0.0902768,0.0230662
0.0993355,-0.0838503
0.0938311,-0.0393846
0.0343482,0.0427373
-0.0410209,0.019798
-0.0733805,0.052036
-0.030036,0.0289784
-0.0117513,0.0134434
-0.0337201,-0.0676865
0.0174055,-0.0846508
0.0917155,0.00940566
0.109727,0.0783942
0.0158636,0.0847983
-0.0539613,-0.00547289
-0.018788,-0.0719709
0.00934837,-0.12444
0.0175532,-0.0617943
0.0219147,0.0643547
0.0972196,0.143895
0.0892528,0.0590983
-0.0262558,-0.0350068
-0.116648,-0.00847914
-0.0926444,0.0106571
0.0557009,0.0186807
0.0423307,0.00887425
-0.0485172,0.00354113
-0.00443891,-0.0296331
0.0786444,-0.0380967
0.0385269,-0.0138587
-0.0896406,0.0214141
-0.123922,0.0515445
-0.11323,0.129344
-0.0728872,-0.0974492
0.00236832,-0.105804
0.0111993,-0.0329134
-0.0120245,0.00142375
-0.0125108,0.0363653
0.0144024,0.0314251
0.0486785,0.0254361
0.035032,0.0321129
0.121366,-0.0236162
0.162582,-0.147726
0.0606738,-0.0837439
-0.0512671,0.044323
-0.0223493,0.0295759
-0.0213717,0.0510366
-0.0665006,0.0326259
-0.0955991,-0.0443028
-0.0454385,-0.0478783
0.0345928,0.0254168
0.105258,0.0538958
0.0798119,0.0512599
-0.0590328,0.0318316
-0.145589,-0.0531109
-0.103998,-0.0491079
-0.0322712,-0.0190315
0.0298256,0.0401049
0.0421695,0.0526876
0.0233386,0.0272278
-0.00699419,0.00600618
0.00243157,-0.0147664
0.0141758,-0.079641
-0.0142206,-0.0041019
0.00638731,0.00583375
0.0220952,-0.0346392
-0.00349757,0.0514191
0.00932819,0.0277867
0.0373137,0.0239379
0.00549408,-0.00556459
-0.0167707,-0.0374671
-0.000647684,0.013124
0.0104883,0.0116442
-0.0219508,-0.0202565
-0.0117474,-0.0041017
0.0181864,-0.00448568
0.0205742,-0.0140453
0.0105719,-0.00364936
0.0304353,-0.00449476
-0.00550357,0.0129872
-0.0200982,0.00873899
-0.00275071,0.0287942
0.0226406,0.039951
0.0164949,-0.0280449
0.0243078,-0.018472
0.0205748,0.00831385
0.0499202,-0.0421656
0.0882869,-0.049451
0.0367517,0.00755208
-0.0828725,-0.00319363
-0.117532,-0.00107692
-0.0854977,4.37e-05
0.0023169,-0.0152805
0.0712756,0.00558172
0.0367576,-0.0140268
-0.0268524,-0.000284093
-0.0404448,0.042971
-0.0155704,0.04339
-0.0140269,0.0256464
-0.0155168,0.0691293
-0.0162353,-0.0151632
0.00325998,-0.0423418
0.0115243,-0.0139678
-0.00352341,0.0187508
0.0168875,0.0203314
0.0325138,-0.00489534
0.00197738,0.0304507
-0.0408095,0.0229413
-0.0126278,-0.0827944
0.0275306,-0.0182763
0.0472036,-0.00786207
0.027099,-0.0398907
-0.0206449,-0.000267867
-0.0490419,0.018045
-0.0616064,-0.00667596
-0.0416749,-0.00212968
-0.0144339,-0.0135522
0.0207232,-0.044237
0.0091908,-0.0269535
0.00242743,0.0250155
0.00878924,0.0852043
0.0421284,0.0479484
0.0321441,0.0193485
0.00933934,-0.00424626
0.0270571,0.0051817
0.01929,-0.00512318
-0.00909462,-0.0203536
-0.0116314,-0.0300221
0.02034,-0.0855751
0.0204213,-0.0786556
-0.00202628,0.00924891
-0.0470499,0.089749
-0.0592054,0.0629045
-0.0212373,0.0263421
-0.00788331,-0.00239144
0.0108512,-0.00025967
0.0238785,-0.0251413
0.0544478,-0.0342329
0.0900585,-0.0532132
0.0492096,0.0358806
-0.0278277,0.100033
-0.0543152,0.0707726
-0.0386804,0.0112382
-0.0112423,-0.0112719
-0.0378801,-0.0404135
-0.0613816,-0.023541
-0.0295516,0.0490209
0.0116927,0.0335704
0.024286,-0.0105444
0.0269455,-0.056338
0.0180552,0.0373546
-0.0027473,0.0340078
0.010092,-0.0924064
0.0411683,-0.0506163
0.0432354,0.00106016
0.0127632,-0.0420628
-0.0205205,-0.0281814
-0.0402666,-0.0198582
-0.0295259,-0.0560761
-0.0171232,-0.00782473
-0.0278428,0.0918396
-0.024083,0.00469456
0.00804415,-0.0638847
0.00379786,-0.0655123
-0.0386705,0.0142552
-0.0351387,0.07906
0.00588375,0.0931606
0.0556718,0.0668948
0.0653071,-0.00905616
0.0540833,0.00224701
0.0166173,0.03561
-0.0105915,0.0556919
-0.013871,0.013598
-0.0289794,-0.0073999
-0.033783,-0.00135693
0.0149871,0.00680704
0.0179898,-0.0647197
-0.00911082,-0.138239
-0.00406955,-0.0537331
0.00708373,0.10051
-0.0148298,0.0728077
-0.0220195,-0.0228127
0.0025771,-0.00787999
0.0378882,-0.0143414
0.0447416,-0.0260171
0.0104152,-0.0219038
-0.00232284,-0.0324408
-0.010801,-0.0416959
-0.0041366,-0.0142966
-0.00429444,0.0246171
-0.00409363,-0.0132561
0.00456608,0.0348858
0.00171953,0.000621583
-0.0046061,-0.031051
-0.00940796,-0.0309266
-0.00496082,0.0257673
0.00030138,0.0260801
-0.0178548,0.00557058
-0.0611071,-0.0299119
-0.075636,0.00617192
-0.0706871,0.0525509
-0.0115346,-0.00650456
0.06581,-0.0702926
0.0733448,-0.0511823
0.044735,-0.0208285
-0.000171643,0.059938
-0.00839157,0.0258843
0.0135469,-0.0190911
-0.00431781,0.0184808
-0.0348741,0.035029
-0.0166949,0.00821078
0.070619,-0.0440113
0.147616,-0.00690341
0.0918839,0.0716415
-0.000134753,0.0362369
-0.057065,0.0125305
-0.0453047,-0.00542404
-0.0280718,0.00970748
-0.0171156,0.0120774
-0.00820538,0.0034016
0.0152605,-0.0122017
0.00561888,-0.0439131
-0.0393488,0.0646801
-0.0697173,0.0397833
-0.0456789,-0.0325481
0.0303737,0.0239736
0.0602272,0.0215674
0.0414464,0.0470661
0.00578652,0.0266678
-0.0401446,0.00888673
-0.0556617,-0.0376934
-0.0298609,-0.0534526
0.0059997,-0.00782274
0.016845,0.0151487
0.0146149,0.0014169
0.0429653,-0.0161069
0.0420222,0.0150884
0.0102628,0.0409407
-0.0233972,-0.0363984
-0.0210021,-0.095059
-0.0149262,-0.168734
-0.0219967,-0.134784
-0.0357625,-0.108878
-0.027657,-0.0599559
-0.0282082,0.0843174
-0.00963739,0.103449
0.00428071,0.195281
-0.00188665,0.195421
-0.00155451,0.0558121
1.03e-05,0.0360534
-0.0136093,-0.0288319
-0.0208848,-0.0890341
0.0234213,-0.073305
0.0478481,0.0803007
0.0343928,0.0838745
0.00760326,0.0644383
0.000207405,-0.0135824
0.0263913,0.021264
0.0509518,0.0101972
0.0279598,-0.0624161
0.0134787,-0.0280909
0.00652985,-0.0742435
-0.0218758,-0.123188
-0.0576373,-0.0502214
-0.0336128,-0.00688922
0.0119926,0.0129418
0.0320815,0.0213514
0.0136786,0.00136246
0.00226561,-0.000967649
-0.0335758,0.00166489
-0.0681005,0.0233894
-0.0421051,0.0385591
0.0324678,-0.00277061
0.0336017,0.0164069
0.00980275,0.0602023
-0.0157984,-0.0944108
-0.0341765,-0.0613159
-0.0245766,0.0123029
-0.00875089,-0.0308112
0.0136944,-0.0434807
0.0403239,0.0219646
0.0384156,0.0400142
0.0382759,-0.0297467
0.0781915,0.0133065
0.103822,0.00726364
0.0405618,-0.0629312
-0.0423275,-0.00241215
-0.0886883,0.0539453
-0.0864637,0.0356268
-0.0259332,0.0258537
0.0240491,0.0191554
0.0326081,0.0408183
-0.0145242,0.160427
-0.0761965,-0.0126815
-0.0673241,-0.148952
-0.027896,-0.0563523
-0.0156152,-0.00979465
-0.0116537,-0.038738
-0.00279543,0.0122373
0.0229408,0.018807
0.0291018,-0.00254235
0.0103118,-0.0283253
0.00565075,-0.00959437
-0.00105974,0.0151362
-0.00871465,-0.0133692
0.000196333,0.0489499
0.0144733,0.0468429
0.0407893,0.0258724
0.0388633,0.0563311
0.040652,0.000541816
0.0550743,-0.0808235
0.0476948,-0.0668369
0.0104238,-0.0730707
-0.028637,0.017187
-0.0413974,0.0616949
-0.0267457,-0.00960622
-0.0171157,-0.0334547
-0.0251403,-0.00198961
-0.0389936,-0.00518777
-0.0311052,0.0793258
0.012925,-0.0307177
0.0439416,-0.0735166
0.0232303,0.0333192
0.0148394,0.0861282
-0.0263141,0.0744049
-0.0322827,0.0299444
0.0249709,0.000407476
0.0167668,0.00656743
-0.055743,-0.023337
-0.0700506,0.0135335
-0.0167294,0.0118367
0.0360774,-0.0653803
0.0358268,-0.00165109
0.0134795,0.0419273
0.0212432,-0.0549879
0.0186183,-0.0731805
0.0141341,0.00756717
-0.00228903,-0.0297207
-0.00636816,-0.0144225
0.0126362,0.0273158
0.0246881,0.0259231
0.0178191,-0.0279386
0.00198703,-0.00367846
-0.0137523,0.00324853
0.00973599,0.0422906
0.0424162,0.0691995
0.045233,0.0154497
0.00894512,-0.0445256
-0.0369673,-0.0045078
-0.0623771,0.0143763
-0.0407439,-0.0222502
-0.0113255,-0.0200012
-0.00348054,-0.0206068
-0.00536232,0.0449499
-0.0461107,-0.058442
-0.0766129,-0.0394615
-0.0615962,0.0319163
-0.026693,0.0238756
-0.00575231,-0.0104542
0.00466154,0.00920614
0.0168691,0.000437286
0.0232724,-0.0109486
0.0410092,0.0866118
0.0484105,0.0575129
0.0403624,-0.0912507
0.0494192,-0.0124125
0.0544443,0.0711564
0.0568959,0.00339819
0.018688,0.00925966
-0.0451774,0.0486772
-0.0621131,-0.0356155
-0.042233,-0.0572267
-0.0321094,-0.0840603
-0.016121,-0.0468062
-0.00963651,-0.038566
-0.000952494,-0.0423061
0.015969,0.0148368
0.017611,0.0400042
0.00697903,0.00116311
0.00989227,-0.00152846
0.0126539,-0.00714264
0.0320705,0.0791715
0.0414486,0.0739317
0.0532121,0.0774661
0.0412637,0.0338526
0.0215586,0.0240185
-0.0334827,0.0267942
-0.0903739,-0.036532
-0.0682995,-0.0360846
-0.0481165,-0.0170749
-0.0322674,0.00589922
0.0229259,-0.00647387
0.0954205,-0.0261096
0.119318,-0.0369331
5.24e-05,-0.0882247
-0.136234,0.0569243
-0.184068,-0.0284509
-0.109767,-0.0647303
-0.0206009,-0.0219813
0.0478599,-0.0277949
0.0883137,-0.119192
0.13204,0.0246169
0.129961,0.102503
0.0452929,-0.0245497
-0.0720133,-0.0267637
-0.170976,0.0828343
-0.173394,0.00467844
-0.0484302,0.000730396
0.10423,0.0695359
0.257395,0.0491773
0.381973,-0.0500172
0.293126,-0.000902381
0.074018,0.0551917
-0.106872,0.022773
-0.212227,0.00500663
-0.207132,-0.0125675
-0.121427,-0.0181847
-0.1034,-0.0262442
-0.137691,-0.0466942
-0.0867072,-0.032833
-0.00199929,-0.0191532
0.0383983,-0.0110771
0.0492141,-0.00193365
0.0526692,0.00154925
0.066413,-0.0226991
-0.0259639,0.0315005
-0.150621,0.0475919
-0.146513,0.0698953
-0.0138347,0.0469357
0.072318,-0.00918644
0.069583,-0.0720553
0.0391189,-0.0391687
0.0183072,0.0383969
-0.00372962,0.0213476
0.00880649,-0.0717059
0.023605,0.00673011
0.0252252,0.0427039
0.0281854,0.0256695
-0.00864831,0.00491869
-0.0306183,0.00959818
-0.0250104,0.0160356
0.00368531,0.0159336
0.0488981,0.0101279
0.0707086,0.000389742
0.0381835,-0.0314478
-0.0304697,-0.034858
-0.0531826,-0.0292672
-0.0342278,0.0346428
-0.0215868,0.0138083
0.000293051,0.0603013
0.0356861,-0.0734371
0.059743,-0.0933591
0.0620671,0.00279922
0.0416536,-0.0251395
-0.0458527,-0.0950686
-0.0940212,0.0128822
-0.0383244,0.0406736
-0.000723724,0.0716716
-0.00260593,0.0803019
0.0130762,0.0183953
0.0311484,0.116099
0.0343176,0.0471099
0.0822551,-0.0220304
0.0980556,-0.0299778
0.0408394,-0.0603236
-0.024879,-0.039294
-0.0370275,-0.00138368
-0.00724023,0.0690488
-0.000920224,0.105912
-0.00468256,-0.015558
0.00269691,-0.0354945
-0.0154156,-0.00161485
-0.0349655,-0.0195722
-0.0872373,-0.0123162
-0.115166,-0.0268118
-0.0901994,-0.0355862
-0.0624044,-0.0418109
-0.032789,-0.032777
-0.00262411,-0.0759003
0.0290412,-0.0403176
0.0372334,0.0128537
0.0517852,0.0566316
0.0618114,0.018758
0.0636262,0.00297591
0.0509679,0.000581378
0.0322817,-0.0404359
0.0437366,-0.110235
0.0640026,0.0374436
0.0303291,0.0313393
-0.014395,0.070924
-0.0415292,0.0383236
-0.0330193,-0.0401663
-0.013567,0.00522823
-0.00949986,-0.00949113
-0.0189419,-0.00396339
-0.0445282,0.0169602
-0.0761764,-8.87e-05
-0.0365748,-0.0591197
0.0238592,-0.016433
0.0419617,0.0328612
0.0204618,0.00415482
-0.0248964,-0.0206697
-0.0195884,0.0606302
0.00273864,0.0754834
0.0162322,0.00145478
0.0691501,-0.035315
0.0874917,-0.0263836
0.0368271,0.0106882
0.0147301,0.043681
-0.0593176,-0.00347762
-0.0954166,-0.0200194
-0.0888662,0.0237556
-0.0823955,0.0936742
-0.0267679,-0.0495347
0.0177684,-0.0669145
0.0428224,-0.0047117
-0.00209593,-0.032434
0.0116332,-0.0257581
0.0588118,0.046939
0.0671978,0.0488716
0.0696483,-0.0335879
0.00984321,-0.0533761
-0.0360034,-0.0389302
0.00574685,0.0515359
0.00978311,0.0672734
-0.0341711,0.0136399
-0.0577786,-0.0231465
-0.0552466,-0.0230498
-0.0141071,0.0189902
0.0243398,0.03488
0.0394579,0.00966732
0.0372846,-0.0342115
0.00399545,-0.0472633
-0.0294618,-0.0766972
-0.0342634,-0.0504362
-0.0165809,-0.00057127
0.0335689,0.0491869
0.0571396,-0.0155741
0.0188326,0.122538
-0.0282699,0.0845735
-0.00200143,0.0219343
0.0303992,-0.0582292
0.03601,-0.0173619
0.00940665,0.0230754
0.00871406,0.00788539
0.0378883,-0.0214706
0.0627757,-0.0331196
0.0751346,-0.0304707
0.0701831,-0.0185626
-0.0164534,-0.0593962
-0.133491,-0.0132742
-0.19181,-0.00371725
-0.192075,0.00391819
-0.139408,0.0621173
-0.0398939,0.00773767
0.021071,-0.00323374
0.0420573,0.0263074
0.045559,0.0011559
0.0423471,0.00755697
0.0419368,-0.0181576
0.0495461,-0.0501803
0.0547397,0.0265896
0.012285,0.0564783
0.0662944,0.0940375
0.0697455,0.100531
0.0142907,0.00692426
0.0360227,0.00339944
0.0488977,-0.0578376
-0.00179114,-0.0872003
-0.0700574,-0.107307
-0.101544,-0.0634823
-0.0433104,0.0183954
-0.0362601,-0.0502165
-0.0718185,-0.00706539
-0.0712186,0.0298053
0.0235509,0.0285507
0.117184,0.0221105
0.243431,0.0301953
0.278128,0.0384859
0.106971,0.0402398
-0.161776,-0.0240086
-0.354477,-0.0248041
-0.339422,-0.0245868
-0.117625,0.0229875
0.0101395,-0.0167035
0.0372836,-0.0143651
0.0912843,0.00598396
0.117852,-0.020139
0.107584,-0.0179658
0.100902,0.0655583
0.0767056,0.0469923
0.0652709,-0.00342293
0.0604959,-0.0337268
0.061864,-0.0123977
0.0159343,0.00807463
-0.123169,0.00563611
-0.119296,-0.000336293
-0.0475197,-0.0138047
-0.0176725,-0.00866324
0.0437649,-0.000711947
0.0168212,0.000228033
0.00527535,-0.0204675
0.0828652,-0.0135838
0.134588,-0.0293143
0.0988618,-0.0365616
-0.031167,0.0133023
-0.137139,0.00250607
-0.136815,0.0235265
-0.115008,0.0721213
-0.175949,-0.0080195
-0.227888,-0.0119558
-0.148021,-0.0450517
-0.0257598,-0.0111692
0.0173668,0.0252773
-0.00597863,-0.0625826
0.00693827,0.019155
0.0481049,0.120033
0.0891988,0.0390424
0.111742,-0.00625531
0.180638,0.00667019
0.221841,0.0214903
0.176416,-0.010489
0.108293,-0.0196568
0.0363635,0.019932
-0.0265042,0.0691987
-0.0223569,-0.0319306
-0.00916968,-0.0210414
-0.0456403,-0.0166951
-0.0745999,0.0348693
-0.00724901,-0.026314
0.0910964,-0.0752332
0.0334723,-0.124774
-0.087664,-0.11171
-0.148491,-0.0959044
-0.0278399,0.00941594
0.0936643,0.0719719
0.00289878,0.0952672
-0.0919986,0.00258304
-0.191778,0.0390659
-0.170805,0.0734378
-0.0908688,0.0385706
-0.000933868,0.0715442
0.0381544,0.0503061
0.0358742,-0.0602774
0.0237453,-0.046407
0.0421702,-0.00711336
0.0550966,0.0224826
0.0213687,-0.0206369
0.00443241,0.00871444
0.0422611,0.0274746
0.0904415,-0.0542838
0.121573,0.0169794
0.185653,0.0571295
0.157606,-0.0150269
0.0413284,0.0526514
-0.0841751,-0.0196364
-0.158839,-0.0308826
-0.138626,0.000631233
-0.154434,-0.0286323
-0.15625,-0.0388978
-0.0688844,0.0124314
0.0269625,-0.0175357
0.101884,-0.0212788
0.10115,-0.0519311
0.0350476,-0.0113466
0.069871,0.052015
0.204584,-0.0177391
0.235353,-0.0685898
0.0708681,0.0290395
-0.239611,0.0480304
-0.443135,0.0447622
-0.269671,0.0380914
0.0236057,-0.0447752
0.103669,-0.0226022
0.0665361,0.0284855
0.0573603,-0.0153381
0.0854824,0.0194156
0.0874484,0.0262578
0.0175024,-0.0178651
-0.0627423,-0.0104842
-0.0580303,-0.0556626
0.0245213,-0.0411878
0.118106,0.0694055
0.231386,0.0834399
0.195864,0.0154722
0.0852527,-0.061406
-0.115988,0.0166137
-0.304333,0.0287132
-0.28694,-0.0368806
-0.181402,-0.0476509
0.000921447,-0.0450398
0.151029,-0.031871
0.153332,0.00572052
0.0575959,0.0668101
-0.0542454,0.0630434
-0.122462,0.0405316
-0.0900778,0.0319179
-0.011849,-0.0180844
0.0204541,0.0104342
0.012027,0.0150245
-0.0192878,-0.0298972
0.0136096,-0.0375811
0.103445,-0.0694708
0.157509,0.0427847
0.0726768,0.0609153
-0.0278897,-0.0812041
-0.0535356,-0.0318343
0.0275557,-0.00745448
0.0905392,0.000558583
0.0305314,-0.0103148
-0.055644,0.00633576
-0.0624251,-0.043515
-0.0660933,-0.0601683
-0.0850443,0.00783634
-0.0716819,-0.0330092
-0.00253035,0.034133
0.0445992,0.120168
-0.0578596,0.0584523
-0.164474,0.0270546
-0.149042,-0.0376047
-0.0159566,0.00271293
0.100122,0.0789307
0.0862519,0.0298167
0.0784171,-0.0647981
0.137989,-0.107503
0.109056,-0.0972966
0.0112945,-0.104459
-0.0167603,-0.019384
0.0192598,0.108359
0.0894586,0.0793314
0.115742,0.015123
0.126451,0.0756379
0.148728,0.134869
0.0480391,0.0128776
-0.0984863,-0.00770285
-0.224286,-0.0233814
-0.231818,0.0294314
-0.0515983,-0.0360745
0.140972,-0.0770193
0.115532,-0.0807483
0.0561025,-0.0848546
0.00987385,-0.0356122
-0.072292,0.0039427
-0.0784663,0.0805558
-0.100696,0.116252
-0.111076,-0.0188937
-0.103176,-0.0186208
-0.106607,0.030652
-0.0173154,0.024704
0.0425308,0.0392671
0.00933219,-0.040145
-0.0955209,-0.0165636
-0.0577105,0.00970274
0.117439,-0.0648504
0.201915,-0.013142
0.0797614,0.0284592
-0.0452429,0.0459397
-0.0328211,0.0452819
0.0707551,0.0286688
0.128833,-0.0759052
0.0705748,-0.148249
-0.0246965,-0.0257534
-0.0942511,0.137337
-0.0961461,0.081653
-0.0878465,-0.178115
-0.084536,-0.212858
-0.0657479,0.0365908
0.0489899,0.128668
0.133214,0.0503654
0.0724629,0.0378397
-0.030581,-0.046056
-0.0357777,0.000183173
0.0273188,0.0501543
0.151905,-0.0162799
0.152351,0.0616072
0.0389869,0.0364449
0.0203702,-0.0121635
0.0503602,-0.0446397
0.256361,0.0362449
0.27913,0.0942745
0.0753828,0.10881
-0.236178,0.0302135
-0.53844,-0.0642859
-0.549093,-0.138742
-0.307102,-0.0356695
-0.0489839,-0.0656862
0.119058,-0.0643296
0.180397,0.0335297
0.170073,-0.0342949
0.128241,-0.0296915
0.086837,0.0211041
-0.0356993,-0.00735925
-0.205813,0.112558
-0.142951,0.215923
-0.138078,-0.0198766
-0.174972,-0.119594
-0.0544571,-0.0957113
0.143826,-0.0171103
0.357513,0.0416164
0.377181,-0.067387
0.258323,-0.0904848
0.0727584,-0.118322
-0.127461,-0.066596
-0.195704,-0.0610324
-0.0807433,0.208144
-0.0289247,0.196051
-0.101533,0.0885092
-0.102111,0.0708044
0.0329874,0.00577415
0.194837,-0.0475514
0.226408,-0.0171476
0.121872,-0.0442937
-0.00307455,-0.0265293
-0.108459,-0.00573587
-0.188859,0.00541917
-0.240061,0.0292754
-0.145174,-0.048461
0.134669,-0.0568723
0.329615,0.00105805
0.422653,0.120368
0.348203,0.152829
0.10513,0.0558309
-0.195193,-0.110896
-0.523745,-0.175163
-0.553861,0.0488505
-0.299109,-0.0108151
-0.0102572,-0.283901
0.208451,-0.17042
0.273734,0.138828
0.295773,0.04206
0.0652506,-0.147211
-0.0943422,-0.0630646
-0.0989086,0.145101
-0.227422,0.145509
-0.350796,0.125921
-0.289412,0.114479
-0.128938,0.184735
0.156203,0.174802
0.421702,0.114
0.360842,0.110404
0.200257,-0.0151299
0.0432865,-0.15635
-0.0276403,-0.271486
-0.0779655,-0.208018
-0.126435,-0.150195
-0.0647801,-0.188216
-0.0523493,-0.119801
-0.0837554,-0.0258322
-0.00954568,0.0794572
-0.0711085,0.105707
-0.102163,0.0395429
0.04402,-0.0377059
0.137656,-0.10041
0.215615,-0.0699617
0.300633,0.188582
0.138411,0.219448
-0.0499057,0.180921
-0.146395,0.131088
-0.23816,0.106793
-0.075901,-0.00659115
0.129577,-0.0721491
0.225832,-0.0110214
0.202972,0.0191802
0.0290384,0.0530579
-0.168851,0.117412
-0.248959,0.00124363
-0.23787,-0.186149
-0.127547,-0.225521
-0.055359,-0.184129
-0.0219603,-0.105763
-0.010091,-0.031282
0.0010843,-0.0462014
0.0753399,-0.0377516
0.158104,0.0597488
0.146414,0.0412983
-0.0434162,0.119229
-0.296658,0.175209
-0.339458,0.191654
-0.155619,0.153777
0.0182696,-0.126583
0.184801,-0.144008
0.244807,-0.0259478
0.101408,0.0127458
0.0305164,-0.041718
0.13604,-0.0199604
0.2318,0.0948517
0.204087,-0.020556
0.0316153,-0.0894363
-0.0217672,-0.110386
-0.00665927,-0.0780603
-0.139974,-0.017227
-0.277161,-0.0785493
-0.204238,-0.161031
0.0226894,-0.104338
0.195391,0.0403098
0.137308,0.13443
0.0249571,0.142761
0.0535956,0.155711
0.0298181,0.126808
-0.078527,0.0437236
-0.0732197,-0.0178943
-0.0619191,0.0664077
0.075266,-0.0440115
0.0927212,-0.105671
-0.109336,0.132823
-0.128141,0.0214623
-0.110566,-0.186368
-0.0489174,-0.0534068
0.131421,0.0126834
0.155029,-0.0799642
0.111878,-0.0111671
-0.0138984,0.0103755
-0.145962,0.156603
-0.0276532,0.179906
0.012916,-0.0277749
-0.0795654,-0.0952261
-0.138358,-0.107745
-0.0584007,-0.0825385
0.0673821,0.0238053
-0.0846473,0.0571273
-0.184457,0.0979028
-0.0835867,0.0236651
0.0834646,-0.0810367
0.221899,-0.0973608
0.16302,0.0320616
0.0985476,-0.0122051
0.0767128,-0.0352862
0.0618878,-0.0483843
0.0215783,0.0229632
-0.0374058,0.13381
0.0400319,0.0167711
0.247515,0.00150601
0.310938,0.0544903
0.0741877,0.145287
-0.216132,0.00561795
-0.472037,-0.0390021
-0.439104,-0.0940834
-0.201616,-0.291934
0.00710202,-0.149644
0.0582736,-0.0323114
0.113486,0.0273233
0.0346534,0.138884
-0.0339689,0.226501
-0.0099948,0.227123
-0.0273152,-0.115588
0.101779,-0.249409
0.166733,-0.226255
0.113524,-0.0587999
0.115558,0.0894897
0.056959,0.208422
-0.146047,0.0606054
-0.280387,0.00482045
-0.126867,-0.11308
0.165326,-0.166436
0.313596,0.0304923
0.311535,0.167785
0.269933,0.269326
0.132135,0.252939
-0.118626,0.131288
-0.351844,0.0158413
-0.478728,0.00598358
-0.315216,-0.00522584
-0.0517933,-0.0348841
0.119288,-0.0721769
0.164803,-0.147189
0.107725,-0.252637
-0.0436443,-0.214593
-0.0793734,-0.0804254
-0.0273623,0.0490857
-0.0215193,0.0888157
-0.109104,-0.212502
0.0449841,-0.070012
0.393477,-0.00441041
0.42997,0.0202359
0.180405,0.0732438
-0.187431,0.214901
-0.342793,0.190028
-0.202829,0.126028
-0.093775,0.088613
-0.00561435,0.0277121
0.112615,-0.0495383
0.186799,-0.0246855
0.192075,-0.0904445
0.0566885,-0.109183
-0.273371,-0.101663
-0.406312,-0.0421215
-0.19131,0.0471504
0.0566498,0.0399942
0.0724783,0.115736
-0.0527232,-0.0320426
-0.0827994,-0.170414
-0.0489339,-0.0899888
0.0997777,-0.146836
0.197606,-0.0613908
0.0917134,0.130878
0.119097,0.131263
0.297185,0.0379511
0.378141,0.0480082
0.225511,0.00473072
-0.103647,0.0134294
-0.414294,0.0949509
-0.479803,0.103017
-0.320256,0.0224343
-0.100842,-0.00485387
0.0693999,-0.059444
0.220618,-0.157317
0.289226,-0.117665
0.231535,-0.0569181
-0.0471118,-0.0113371
-0.278306,0.0533437
-0.223921,0.0294135
-0.0765003,0.0133752
0.0825196,0.157589
0.193602,0.0115338
0.299955,-0.0366103
0.34418,-0.0411725
0.194546,-0.0202729
-0.144331,0.0303564
-0.286525,0.0887669
-0.16315,-0.0539701
-0.0837834,-0.125915
-0.125654,-0.0011582
-0.174988,-0.0741932
-0.130223,-0.104085
-0.0747744,-0.125615
-0.0425044,0.0686356
0.00431185,0.123561
0.0542114,0.102471
0.129825,0.0939416
0.155847,0.0864461
0.101847,0.0365387
-0.00152857,-0.00377096
-0.0808489,0.0248757
-0.0592522,0.0328785
-0.000906538,0.00954366
0.0630126,-0.011553
0.0174018,-0.114181
-0.00119086,-0.100347
0.0342695,0.04625
0.0374738,0.0600863
0.0233017,-0.0198283
0.00739284,-0.0160801
-0.00468465,-0.0222487
-0.023414,-0.0255548
-0.0149612,-0.0220361
-0.00349143,-0.000376589
0.0341794,0.0161753
0.0536976,0.0339089
0.0365262,0.02808
-0.0117279,-0.00821501
-0.0626882,-0.00895896
-0.0663745,0.00464806
-0.00735903,0.0245554
0.0550129,0.0219638
-0.00853904,0.0139868
-0.0298785,-0.0297867
0.1276,-0.0358735
0.217219,-0.047109
0.135269,-0.0730969
0.0293762,-0.072725
0.0307939,0.000353315
0.000169512,0.0252755
-0.14569,0.00594134
-0.248325,0.0686788
-0.342086,0.0246359
-0.256081,0.00712961
-0.0357803,0.0138652
0.196194,-0.0429389
0.275127,-0.0558725
0.199063,0.0350119
0.0894254,0.149565
0.00920913,0.115148
-0.07645,0.0222799
-0.144013,0.0180189
-0.155839,-0.054653
-0.118718,-0.0419724
-0.0701049,-0.0436965
0.0141063,-0.0339732
0.0546676,-0.0438015
0.0751115,-0.00779013
0.0977385,-0.00021257
0.166336,-0.00563149
0.218533,0.0107825
0.14656,-0.00513478
-0.0073039,0.0191502
-0.134497,0.012133
-0.122734,0.099457
-0.0535204,0.0273599
-0.046527,-0.0741358
-0.0702889,-0.0895659
-0.0612868,-0.101516
-0.0137953,-0.0138736
-0.0179409,0.0747254
-0.0267758,0.0344889
-0.0322903,-0.0123767
-0.0343316,-0.00331515
-0.0315455,-0.0166954
0.00723519,-0.0290416
0.0928828,0.00558144
0.0134337,0.0141205
-0.0939731,0.123737
-0.0587391,0.0186097
-0.0335388,-0.0798789
-0.0347645,0.0261039
0.00217657,0.0203482
0.104744,-0.013598
0.195094,0.0013478
0.196391,0.0522237
0.0539015,-0.0197117
-0.0997275,-0.0610941
-0.0973614,-0.0551597
-0.00521703,-0.0482259
0.00206655,0.0415921
-0.0884291,0.0838691
-0.129606,-0.0278951
-0.0988565,-0.0402481
-0.0760007,-0.00676347
-0.0194085,-0.0513549
0.0795224,-0.00723751
0.148338,0.081353
0.163517,0.0682532
0.169771,0.0415434
0.11908,-0.0310524
0.00822735,-0.0567445
-0.0387782,-0.0793244
0.041367,0.0255373
0.0126406,0.0662836
-0.0291084,0.0485001
-0.0715295,0.111042
-0.0807168,0.00672966
-0.0554186,-0.0333934
-0.0821198,-0.0109751
-0.0939139,-0.0607682
-0.0835802,-0.144586
-0.0442339,-0.106082
-0.00383504,-0.114773
0.0287529,-0.010509
0.0122166,0.0836317
-0.0186652,0.109682
-0.0308392,0.10913
0.0157793,0.0935739
0.0807706,0.0331189
0.103588,-0.0195178
0.125744,-0.0629357
0.0250263,-0.0169307
-0.134619,-0.0139607
-0.183498,0.0167883
-0.107277,0.028939
0.0365128,0.00248755
0.114559,-0.0513232
0.125916,-0.0948991
0.0843018,-0.044325
0.0191046,0.0229058
0.00939363,0.012161
-0.0129592,-0.0386087
-0.0575499,-0.00919862
-0.0211772,-0.00142536
0.0156276,0.0490662
0.0356246,0.0789076
0.0267934,0.0328061
-0.00252728,0.00790406
-0.0126692,0.00711596
0.00244014,-0.0448388
-0.0184961,0.0336491
-0.103834,0.14406
-0.170034,-0.0582982
-0.0788997,-0.0797144
0.0445605,-0.0141853
0.0860681,0.0416082
0.10342,-0.0290606
0.0490701,-0.0272303
0.0226429,-0.00708693
0.0681688,-0.0196906
0.0825487,0.0509128
-0.00641568,0.0517599
-0.115278,0.0165315
-0.0849603,0.00506968
0.0242297,-0.0454132
0.0555309,-0.0336667
0.00122622,0.0177486
-0.0498427,0.0699302
-0.0298713,-0.0372521
-0.0116173,-0.0529751
0.0285722,-0.0188465
0.0949458,0.0452411
0.0667538,0.0233326
-0.0103286,0.00985854
-0.0617371,0.0146863
-0.12118,0.00766817
-0.0907782,0.00867265
0.027845,-0.0329341
0.0998903,-0.0928552
0.0928859,-0.0685917
0.0253594,-0.0105163
-0.00686813,-0.0190455
0.00563188,-0.0574822
0.0911747,-0.0216859
0.0711017,0.120546
-0.01431,0.0894992
-0.071125,-0.0460704
-0.0982294,-0.029533
-0.116931,0.0146522
-0.0933381,0.00472513
-0.0200764,-0.0436676
0.000509577,-0.0204669
-0.00540955,0.0712425
0.0178605,0.132169
-0.00946124,-0.0310681
-0.0100367,-0.0302226
-0.0168536,0.0180157
-0.0213895,-0.00674863
0.00999377,-0.0184742
0.0291622,-0.0114282
0.0291822,-0.00629652
0.0382787,0.00336308
0.045191,-0.00797678
0.0496635,-0.0385975
0.0326904,0.0238159
0.0110424,0.0342674
-0.0107904,-0.0422227
-0.0155348,0.00783375
0.00493628,0.101687
0.0230626,-0.00445945
0.150253,-0.0687028
0.145755,-0.0441733
-0.0133477,-0.00939719
-0.126355,0.0696222
-0.122061,0.0420067
-0.112872,-0.0488186
-0.133337,0.000116588
-0.111622,-0.0400138
-0.0183939,0.00858479
0.0621875,0.00358396
0.0678267,0.0115675
0.0622582,0.00841059
0.0349074,0.0280495
0.0431531,-0.0021317
0.119573,0.00125308
0.151777,0.0367262
0.0490891,-0.0299032
-0.0793807,0.0180376
-0.162321,-0.0384391
-0.153614,-0.136385
-0.10841,-0.0803436
-0.0044498,-0.0263556
0.0618589,-0.0110926
0.119539,0.00353609
0.133508,0.0736753
0.056523,0.0650129
0.00563696,0.0617077
-0.0582144,-0.00237307
-0.127007,-0.0128728
-0.0933725,0.1014
-0.0241506,0.102705
0.0105893,0.00384988
0.0580977,-0.00910723
0.125516,-0.033521
0.119399,-0.0574285
0.0179902,-0.0172927
-0.0646055,-0.00513699
-0.152959,-0.0382499
-0.144754,0.000493009
-0.0850346,0.0162833
-0.0463183,0.0159581
-0.00887118,0.000609361
0.027173,0.00688421
0.0768079,-0.0289129
0.124,-0.0822163
0.100202,-0.0737558
0.0676511,-0.1294
0.0343482,0.146822
-0.0385631,0.0791779
-0.0581366,-0.0329117
-0.0116482,-0.00745637
-0.00837518,0.0485355
-0.0185508,0.0370895
0.0202753,-0.0640807
0.021014,-0.0328072
0.0276122,-0.0102151
0.026411,0.0928615
-0.0400443,0.110248
-0.0413112,-0.0101837
0.00229892,0.00171921
0.0268097,0.0324085
-0.00739086,-0.0449468
-0.024367,-0.0552815
-0.00544516,-0.023014
0.0266002,0.00322309
0.0816879,0.0563771
0.071992,-0.00474693
0.0314856,-0.0430697
-0.0154673,-0.0375458
-0.0362357,0.0354522
-0.0312106,0.0217466
-0.0412422,-0.0141121
-0.107309,-0.0704694
-0.0436799,-0.0266668
0.0404484,0.0364709
0.0284365,-0.0125456
-0.00901892,-0.0264863
-0.00286956,0.0883409
-0.010225,0.0901935
-0.0226463,-0.0671582
-0.00939963,-0.0240002
-0.0403356,-0.00654118
-0.0661642,-0.012142
-0.0161962,0.0102259
0.0235241,-0.0358289
0.0221266,-0.0735441
-0.0280288,-0.00423086
-0.0812986,-0.0357999
-0.0377516,0.0288532
0.0321482,0.153469
0.0809106,0.0575634
0.111863,0.00142176
0.1405,-0.0133913
0.128917,-0.00232676
0.0971609,-0.02879
0.0595962,-0.0632345
-0.00837864,0.00341773
-0.108073,0.0083704
-0.162856,-0.00462143
-0.166566,0.0242958
-0.131805,0.00747705
-0.00926136,-0.0222303
0.091154,-0.0455331
0.0855775,-0.0158103
0.0100555,0.0596591
-0.0467783,-0.00745841
-0.0546419,-0.0621855
-0.00125956,0.0688887
0.045965,0.0170012
0.0508544,-0.0250972
0.0649752,0.015898
0.0764176,0.0302647
0.060953,-0.0349825
0.000666837,-0.0340128
-0.0859139,0.0212186
-0.114633,0.00545292
-0.0719272,-0.0358709
-0.0164976,-0.0101489
0.0365971,0.0212093
0.0750657,0.0191003
0.0726541,0.00867736
0.00807719,0.0156368
-0.0658551,0.0325506
-0.0536785,0.0144606
-0.00244851,0.0358648
0.0144772,-0.0273793
0.0141012,-0.025788
0.000325671,0.00579837
-0.00700046,-0.0132255
-0.00430719,-0.0566734
0.0169159,-0.0531776
0.0223382,0.0146172
-0.0114145,-0.00953568
-0.0248808,0.0321344
-0.0332514,0.0216938
-0.0220388,0.0145243
-0.00678807,-0.0597116
-0.00398614,-0.0332891
0.00567265,-0.0513218
0.0687616,0.0177854
0.126976,0.0214461
0.118693,-0.0280788
0.00497602,0.0293186
-0.114355,0.0968489
-0.167917,0.0704958
-0.115321,-0.0156198
-0.0495856,-0.0350547
-0.0125727,-0.00155098
0.0194589,-0.0719256
0.0735418,0.00168555
0.124544,0.0961805
0.120718,0.0754978
0.10838,0.0169044
0.0844566,-0.0041957
-0.0022426,-0.012568
-0.0710328,-0.00762579
-0.0799153,-0.0532782
-0.0599484,-0.0965408
-0.00797725,-0.00801819
0.0374217,0.0668495
0.00876533,0.107455
-0.0646748,-0.0356712
-0.0914954,-0.0192476
-0.100546,-0.0230539
-0.0839446,-0.00691933
-0.062135,-0.000705042
-0.0194802,-0.00110694
0.0152083,-0.0171499
0.0466392,-0.0344386
0.0958805,-0.0106919
0.114685,0.00584826
0.0712133,-0.0136163
0.00624238,-0.0225831
-0.0301931,-0.017008
-0.0411645,0.0168417
-0.0281166,-0.0225156
0.00656657,-0.0577197
0.0559009,-0.0269764
0.0845636,0.0262952
0.0412592,0.0453354
-0.0183404,0.0429616
-0.0360961,0.0525831
-0.03178,0.0976988
-0.0109969,-0.0237061
-0.00261869,-0.0749223
-0.038047,-0.0511525
-0.0262048,-0.0514311
0.0148908,0.0165487
0.0118087,0.0921294
-0.0281808,-0.00650066
-0.0278233,0.0292756
-0.0160945,0.024565
-0.0310632,-0.0418849
-0.0213544,0.010382
-0.0371977,0.0083398
-0.0532742,-0.0170804
-0.0331935,0.0290813
0.0427843,0.0376174
0.128284,0.0200986
0.130355,-0.0245292
0.066355,-0.0439016
0.0488365,0.0141108
-0.000251131,0.00658931
-0.0216755,0.0128917
-0.0143589,-0.00127969
0.0134702,-0.00595985
-0.0145943,-0.0201066
-0.0862813,-0.00819021
-0.140168,-0.0795139
-0.122035,-0.050127
-0.0332121,-0.0410679
0.0532667,-0.0382699
0.0991204,0.00240114
0.0807179,0.000928447
0.0347028,0.0808126
-0.00913314,0.103161
-0.0263805,0.0566803
-9.79e-05,0.00275026
0.0298094,-0.0138018
0.0634882,-0.0647255
0.0864453,-0.0549773
0.0486274,-0.0340265
-0.00252122,0.0346357
-0.0460774,0.144641
-0.0924406,0.0664771
-0.0550791,-0.0308057
0.0349651,-0.0124444
0.0897841,-0.0315525
0.0345321,-0.027902
-0.00866295,-0.0601335
-0.0439022,-0.0497033
-0.112186,0.0761066
-0.0817852,0.0740175
-0.0202836,-0.045488
-0.0233845,-0.0260493
-0.0280276,0.00783249
0.00216069,-0.0261556
0.038075,-0.0360896
0.0389635,-0.00721795
0.0047319,0.015514
-0.0775391,0.0177556
-0.109612,0.0188588
-0.0290286,0.00639153
0.0504932,0.0211972
0.0545897,-0.0154184
0.0506454,-0.0497987
0.0529623,-0.0248633
0.0391544,0.0134518
0.00643462,0.0171774
-0.0138482,-0.00313466
-0.0133723,-0.0131428
-0.00938202,-0.0111995
0.000267518,-0.0149681
4.53e-05,0.00462113
0.00475965,0.0376382
0.0334353,0.0604584
0.0671092,0.0127349
0.0805786,0.0164632
0.0500564,0.00633663
-0.00180653,-0.0181881
-0.033773,-0.0295091
-0.0147634,0.00339555
0.00473571,0.000656455
-0.0214219,-0.0249422
-0.0614096,-0.0138295
-0.0893135,-0.0372496
-0.0427273,4.12e-05
-0.0252777,0.0120846
-0.00697859,0.0108697
0.0342125,-0.0132758
0.0457172,0.0197237
0.01164,0.0116274
-0.0303438,-0.056549
-0.0463832,-0.0353827
-0.0314454,0.0761621
-0.0153312,0.0873822
0.00150037,0.0036583
0.0388396,-0.042109
0.0333088,-0.0372448
0.011996,0.00711891
0.00996507,0.050474
-0.00634597,0.0189578
0.0195011,0.00524635
0.0382945,-0.0385709
0.020082,-0.0111814
0.0141144,0.0552119
0.00933349,0.00146506
0.0169494,-0.0396795
0.0404989,-0.0307294
0.029048,-0.0209242
0.042806,0.0216419
0.0616333,-0.037317
0.0311832,-0.0659795
-0.0228615,-0.00803992
-0.0746489,0.0056383
-0.056889,0.110372
-0.043613,0.0448596
-0.0659867,-0.0137581
-0.0769016,-0.067206
-0.0483463,-0.0749424
-0.0324801,-0.0536518
-0.0116767,-0.0438488
0.0145084,0.0111318
0.00169171,0.021786
0.0177228,0.0297632
0.0551976,0.0466293
0.0425594,0.113319
-0.0011635,0.0526371
-0.0149447,-0.0205406
0.00812386,-0.00793024
0.00142396,-0.00220388
-0.016488,0.0412288
-0.000549753,0.0506099
0.0261738,0.0113176
0.027821,0.00237803
0.0197607,-0.00107011
0.00388395,-0.0188782
-0.0231716,-0.0258253
-0.0183141,-0.0210066
-0.0064197,-0.0208513
-0.00103237,-0.0185587
-0.00301166,0.00425454
-0.0170139,0.00728971
-0.0305666,-0.00932848
-0.0143448,-0.0207778
0.0378692,-0.00896353
0.036893,-0.0102402
0.0190143,-0.033852
0.0101598,-0.0463191
-0.00703208,-0.0183717
0.00445269,0.0372167
0.0591956,0.0138737
0.0278195,-0.0183112
-0.0288055,0.0580675
-0.0545918,0.00516126
-0.050843,-0.0675988
-0.0242995,-0.0502225
0.00215934,-0.0266185
0.0478907,-0.0358934
0.082242,-0.0222616
0.0524301,0.0919548
0.0329898,0.0976921
0.0145571,0.0680587
-0.041191,0.102197
-0.0297402,0.0173169
-0.0397411,-0.0758
-0.0729389,-0.0458566
-0.0560936,-0.0447746
0.00513816,0.00700023
0.0252028,0.0148615
0.0709222,-0.0146373
0.0779817,-0.025652
0.011594,-0.0304299
-0.0709087,-0.0267681
-0.118531,-0.0120568
-0.096062,0.0135588
-0.0437555,0.0143153
0.00388046,0.0296087
0.0395453,0.0336145
0.061779,-0.0178859
0.0401214,-0.0452922
0.0197139,-0.0267856
0.0261379,-0.00705248
0.0267314,0.0318724
0.0058681,0.0418614
-0.000319814,0.033032
0.0132016,0.0205852
0.0456971,0.00910828
0.0559241,0.00889598
0.0319705,-0.0335248
-0.0299438,-0.0158172
-0.0666745,0.00499666
-0.0801232,-0.00372603
-0.0881954,-0.0303325
-0.0674882,-0.0253871
-0.0295232,-0.00362947
-0.00169452,-0.0325834
0.0418844,-0.00688784
0.0463194,0.0490937
0.009503,0.0678632
-0.0257185,-0.0318323
-0.00683127,-0.0457414
0.0803272,-0.00219778
0.11304,0.0043417
0.0600459,0.0535809
-0.000383223,0.0435009
-0.0195572,-0.00126506
0.00465278,-0.0094851
0.026591,0.0372624
0.0151348,0.0109373
-0.0108753,-0.0423723
-0.0375451,-0.00544462
-0.0189741,0.0103693
-0.0176108,-0.000723413
-0.041381,-0.0265071
-0.0163349,-0.0200788
0.0274452,-0.00582155
0.0252563,0.0153255
0.00298155,0.0144662
-0.0592594,-0.00784011
-0.0928332,-0.0200879
-0.0383015,-0.0490241
-0.00333453,-0.0752117
-0.0086715,-0.0108864
-0.0298222,0.0134051
-0.00330492,0.0336943
0.0645235,0.00723109
0.0673999,-0.0214295
0.0432254,0.000478439
0.0394653,0.026675
0.0355575,0.0983882
0.00811476,0.0473766
-0.0157442,-0.00966695
-0.031195,-0.0314865
-0.0741152,0.00937449
-0.0307132,0.0441498
0.0427366,0.0402588
0.0370054,0.0208706
-0.0302154,-0.0204549
-0.0609053,-0.0259345
-0.0111586,-0.0246103
0.0278184,-0.0795364
0.0132495,-0.113961
0.00485743,-0.062238
0.0215657,0.000842614
0.0208293,0.0239633
-0.00273472,0.0367313
-0.0277049,0.0530334
-0.000956628,0.0485462
0.0534461,0.0391936
0.0685595,0.0296293
0.0235142,-0.024585
0.0199275,-0.03863
0.00935556,-0.0206025
-0.0120513,0.00118969
0.00479869,0.0256684
-0.0118482,0.0322781
-0.0422719,0.0340341
-0.0659557,0.0232413
-0.072827,0.015343
-0.051932,0.0166587
0.0089936,-0.0188784
0.0468035,-0.0345055
0.0365209,-0.0242275
-0.0239789,-0.0378848
-0.0683758,-0.0185978
-0.058681,-0.0114689
-0.0016828,0.00189317
0.0560691,0.0228325
0.058778,0.0030886
0.03251,-0.0154003
0.017643,-0.0335595
-0.00196036,-0.0154436
-0.00853431,0.0636579
-0.0326155,0.0229776
-0.0226742,0.00675148
0.0429355,0.0152178
0.0806787,0.0156258
0.0685058,-0.0290142
0.0534639,-0.0680275
0.0489074,-0.0776356
0.0271562,-0.0513824
-0.0111846,0.0211058
-0.0525044,0.0273648
-0.0604389,0.0338384
-0.0407459,-0.0208394
-0.0219982,0.018533
-0.0531433,0.0755483
-0.0687463,0.0282419
-0.0305782,0.015188
-0.00744039,0.0138524
-0.0193239,0.0151923
-0.0349517,-0.00938325
-0.0272702,-0.0169419
-0.00110911,0.0190588
0.0209063,0.00111157
0.0357755,-0.0280903
0.0575067,-0.0150837
0.0437307,-0.014432
0.0112545,-0.0467345
-0.0107264,0.0029852
0.0145712,0.0408797
0.0417211,0.0527294
0.0376941,-0.00837606
0.0191438,-0.0399291
-0.0146678,-0.0527529
0.00100044,-0.0437183
-0.00125476,0.0269164
-0.0713789,0.031446
-0.0958928,0.0191515
-0.0710129,0.0571392
-0.0240242,0.0401918
0.0301915,-0.0228617
0.0468194,-0.0283484
0.0502604,-0.0282584
0.0509447,-0.00954291
0.0376457,0.00345442
0.00937212,0.00313571
-0.0119905,-0.00303176
-0.0147107,-0.00251259
-0.0187945,-0.00250183
-0.0200754,0.000621597
0.00299696,0.00615514
0.0176441,0.00831287
0.0128223,0.0151339
0.00951178,0.0233687
0.0246882,0.0291004
0.032415,0.0114002
0.0325766,-0.0196871
0.0223515,-0.0612097
-0.00684673,0.00723908
-0.02703,0.00361929
-0.0132837,-0.0367609
-0.0242164,-0.0393563
-0.056749,-0.0186162
-0.0208085,0.0192019
0.010464,-0.00888274
0.0286853,0.0254366
0.0489972,-0.0186246
0.0274939,-0.0807969
0.00963601,-0.0106253
-0.0193223,0.0519316
-0.0276643,0.0573106
-0.0318439,0.0356483
-0.0650079,0.0225102
-0.102008,0.0175398
-0.0603293,0.0365262
0.0141371,0.0300164
0.0985361,-0.00640825
0.12068,-0.0120054
0.0472146,0.0266847
-0.0113071,-0.0322467
-0.0278663,-0.0568999
-0.0403089,-0.000703533
-0.0448066,0.0181471
-0.0178662,-0.0143284
-0.0174428,-0.0170011
-0.000268987,0.0268277
0.0296161,0.0199593
0.0447636,0.0131394
0.0237059,0.040898
-0.00738077,-0.0280714
-0.0331947,-0.0348105
-0.0375104,-0.0341674
-0.0368333,-0.0177721
-0.0412309,0.0474782
-0.0367672,0.0129465
-0.0370132,-0.0331438
-0.0222148,-0.01556
0.0527813,0.00425257
0.113613,-0.0212191
0.105681,-0.0599402
0.116642,-0.0531475
0.11071,-0.0488115
0.0687071,0.0607462
0.023849,0.0867449
-0.0366856,0.0425523
-0.118008,0.0268726
-0.116003,0.0121627
-0.0748081,-0.0551468
-0.040135,-0.0456576
-0.0190401,0.0121843
0.00421031,-0.0230502
0.0152219,-0.00847634
0.00228157,0.0269252
-0.0182786,0.0558315
-0.0434518,0.00608113
-0.0506024,-0.0134561
-0.0456508,0.0205144
-0.0439092,0.0240548
-0.0517855,-0.000252121
-0.0336192,-0.0183087
0.0141896,-0.0293768
0.0788243,-0.021303
0.146201,-0.00797037
0.197693,0.0112855
0.198589,0.0317969
0.112544,-0.0153677
-0.0409703,-0.0437371
-0.117707,-0.00243946
-0.107094,-0.00388599
-0.0884099,0.0375482
-0.0787219,0.0338795
-0.050383,0.0159718
-0.0353483,0.00479057
-0.000395177,0.00164263
0.0254011,-3.7e-05
0.00157524,-0.00559147
-0.0170747,-0.0103794
-0.0154396,-0.010295
0.00325767,-0.0131107
0.0384785,-0.0168619
0.0360973,-0.0280146
-0.00549457,-0.0323633
0.00039738,-0.0088638
-0.000322768,0.0222477
0.00865683,0.0175223
-0.00149475,-0.00439338
-0.0179913,0.0038533
0.0194343,-0.00398259
0.0328494,0.0266186
0.0141781,0.00544955
0.0030889,0.0171638
-0.0287813,-0.0142246
-0.0292678,0.0025614
0.000195385,0.06326
0.0134826,-0.0473395
0.00278293,-0.00774052
-0.000638744,0.0146502
-0.0200441,-0.00212563
-0.0539238,0.0109115
-0.0642262,-0.04926
-0.0105056,-0.0186772
0.00409975,0.0496662
-0.00473255,0.025376
-0.020119,0.0220576
0.00901143,0.0468884
0.050728,0.0486975
0.0598806,-0.0523712
0.056884,-0.0779665
0.0447479,-0.00722175
0.00765724,-0.00858246
-0.0305607,0.00506601
-0.0305342,0.025246
-0.0129856,0.0091478
0.00822999,-0.0338078
0.0229386,-0.039338
0.0643735,-0.0164548
0.117098,0.00905081
0.063361,0.0126928
-0.0195793,0.0175882
-0.0563844,0.00647603
-0.0792551,0.0277213
-0.065488,0.0333032
-0.0190439,-0.016949
0.025358,-0.0159888
0.0870622,0.0108224
0.129568,0.00710961
0.0773309,-0.028817
-0.0178753,-0.0325941
-0.0677259,0.00496885
-0.128794,0.00375549
-0.132211,-0.0173309
-0.0665296,-0.0250587
-0.0233335,-0.0214184
0.00920055,0.0062306
0.0113638,0.0136585
-0.0168854,0.00370141
-0.0367814,-0.00125824
-0.0484377,0.0253657
-0.053644,0.0294353
-0.00536823,0.0238467
0.031654,-0.020663
0.0309656,-0.0186144
0.0207121,0.0167031
-0.00113869,0.000815318
-0.0254521,0.00866119
0.0196267,0.0196859
0.0660851,0.0161667
0.0988741,-0.00354742
0.11063,-0.0242756
0.0607873,-0.0201362
0.0237225,0.0125852
-0.0165136,0.0441119
-0.0853676,-0.0109021
-0.0921477,-0.063574
-0.0688485,-0.0750284
-0.0600705,-0.0421546
-0.0563372,0.00771167
-0.0262353,0.0495498
0.0363042,0.06065
0.075863,0.0403462
0.081087,0.0101694
0.069994,-0.0119385
0.0228004,-0.0234802
-0.0311472,-0.0285444
-0.0491855,-0.010015
-0.0203852,-0.00355794
-0.00221677,-0.00982496
-0.00593105,0.0315284
-0.0186494,0.0195284
-0.0518506,0.00577169
-0.0546337,0.0163743
-0.0229796,0.0220739
0.010765,-0.00890576
0.0347168,-0.00919532
0.0601085,0.0219747
0.0889679,0.0149363
0.0581264,-0.0235776
0.0203023,-0.0305802
-0.0247281,-0.0194113
-0.0431691,-0.00138477
-0.0153659,-0.00400214
0.00869049,-0.025377
0.00533765,-0.00600058
0.00631964,0.016618
0.0150218,0.0192927
0.0123883,0.0210852
0.0166771,0.0127901
0.0207212,-0.00416325
0.020429,-0.0117945
0.00593463,-0.0165339
-0.0307879,0.00394901
-0.0567229,0.018202
-0.0418659,0.00362285
-0.00228349,-0.0117729
0.030165,-0.0123865
0.0528167,-0.00815743
0.0280987,-0.00886511
-0.00584618,-0.0148337
-0.0295268,-0.0122247
-0.029155,0.0524809
-0.0225433,0.0504533
-0.00364124,-0.0253074
0.0106203,-0.0190945
-0.00138662,0.00588894
0.0016565,-0.00865624
-0.00271265,-0.0124767
-0.0126601,0.0289465
-0.0264488,0.0310277
-0.0345796,0.0172043
-0.0355788,-0.00893546
-0.028125,-0.0187386
0.0109195,-0.0123695
0.0369683,0.0215642
0.0421538,0.0029821
0.0307581,-0.0232434
-0.00287249,-0.0171271
-0.0113834,-0.0247824
0.0179156,-0.00561206
-0.00227103,-0.00443555
-0.0157409,0.00454406
-0.0166549,0.0122388
-0.00115533,0.00798364
0.0257222,0.00260069
0.0385641,-0.00951822
0.0160628,-0.00149124
-0.00879314,-0.0161755
-0.0192318,-0.0134254
-0.0224102,0.0463218
-0.0215309,0.00953553
-0.0373249,-0.0358012
-0.0444319,-0.0132831
-0.0363994,0.00971986
-0.0129719,0.00378482
-0.00603754,0.00433484
0.00912944,0.00855687
0.0299655,-0.0304829
0.048182,-0.0324893
0.0436517,0.0297613
0.0286337,0.0104967
0.0106408,0.00904747
-0.0142422,-0.0200473
-0.0123243,-0.0279801
-0.0369786,0.0167232
-0.0439871,0.0439623
0.0378227,0.0509611
0.102919,-0.0374367
0.0886349,-0.026852
0.0469734,0.0430421
-0.0271631,0.0194739
-0.0782942,-0.0114433
-0.0338136,0.0135479
0.0305295,0.0235952
0.0021785,-0.0322092
-0.0133375,0.0217813
0.001,0.0097581
-0.0056889,-0.0428799
-0.0068156,-0.0208313
-0.0122258,-0.0152297
-0.0146073,-0.023177
-0.0201227,0.0202398
-0.0185541,0.0193011
0.0149192,0.00627695
0.0428352,0.00682904
0.0414172,0.00457723
-0.00358033,-0.00268261
-0.0579715,-0.0129364
-0.0741665,-0.0257961
-0.0566926,-0.0150235
-0.0262176,0.00619583
0.000817806,0.00610877
0.0142462,-0.0344744
0.0136897,-0.0552825
0.0079146,0.0181872
0.0068244,0.0790619
0.0337029,0.0337318
0.0401698,-0.0350606
0.0653832,-0.0231413
0.0865928,-0.00511264
0.06592,-0.00336061
0.0131176,-0.00769417
-0.0807803,0.0292528
-0.140702,0.0128257
-0.106782,0.00974312
-0.0813645,0.0211052
-0.0711909,0.035102
0.00166264,0.00447354
0.0773143,-0.000207861
0.119072,-0.00106827
0.0979949,-0.0232782
0.0572521,0.018057
0.00407779,0.0586359
-0.0507299,0.00221419
-0.0553235,-0.073634
-0.0127578,-0.0511678
0.0129358,-0.00337627
0.0260975,0.00220422
0.0254368,-0.0350009
0.020487,-0.0151471
0.0115882,-0.00263637
0.0105778,-0.0334419
0.00985635,-0.00161925
0.0253072,0.0613656
0.0389952,0.0499575
0.0189619,0.0283516
-0.0585089,-0.0164023
-0.10528,-0.0351902
-0.0776322,-0.0302752
-0.0126564,-0.0137478
0.0240827,-0.00603603
0.0228207,-0.00214211
0.00458015,-0.0258426
-0.00875945,-0.0235493
-0.0186432,0.00270809
0.0329172,0.100046
0.0683553,0.0506264
0.0221723,-0.0105887
-0.0354222,-0.0145188
-0.0373453,-0.0121112
-0.00148969,-0.0185832
0.0150515,0.00953925
0.0173768,0.0145538
0.000848324,0.00417336
-0.0550226,0.00389157
-0.06843,0.0249209
-0.0555594,0.0545861
-0.0149162,0.00576422
0.0194847,-0.0203026
0.0176111,-0.0413594
0.00907195,-0.0185291
0.00469348,0.00203997
0.0150584,0.0111331
0.0297629,-0.00898311
0.0552411,-0.0233146
0.0615408,-0.0162441
0.0448003,0.0160337
0.0162567,-0.0015852
0.000285056,-0.0183675
0.00473264,-0.00845346
0.00884638,-0.000842871
-0.00686815,0.00438783
-0.0421563,-0.0215975
-0.0727646,0.00161312
-0.0743455,0.0490633
-0.056396,0.021886
-0.0345017,0.00480815
0.00872291,0.0054872
0.0496481,0.0030868
0.0555511,-0.00475762
0.0462214,-0.0145973
0.0319278,-0.0179285
0.0317789,-0.0110552
0.0247664,-0.00137506
0.0015881,-0.00327188
-0.0106069,-0.00929997
-0.0185971,0.00114006
0.0191114,0.00151998
0.0515749,0.00247349
0.0284259,0.0257025
-0.0287499,0.0320132
-0.0862636,0.0156417
-0.111232,-0.00700008
-0.0719949,-0.00925762
-0.0417244,0.0179921
-0.0365525,0.0394556
-0.0150492,-0.0103295
0.0429144,-0.0448489
0.113463,-0.100112
0.170082,-0.0661908
0.15685,-0.0688833
0.081301,-0.0765661
-0.0202684,-0.0289507
-0.0594418,0.0610304
-0.00718283,0.0455253
0.015758,0.0733126
-0.0397762,0.110535
-0.12038,0.0507383
-0.182108,0.0517594
-0.151168,0.0352775
-0.0509577,-0.00364735
0.0109766,-0.00852294
0.0463532,0.0191618
0.0581386,0.00379038
0.0647335,-0.00640488
0.0606343,-0.0125756
0.0252983,-0.0258015
-0.00872696,-0.0547703
-0.0166812,-0.0249947
-0.010093,0.027296
-0.0106797,0.0355259
-0.0154849,-0.0316667
-0.00596991,-0.0453224
0.00629522,-0.0288571
0.0227609,-0.0140362
0.0412903,-0.0144249
0.0340349,-0.0224201
0.000419869,-0.00573752
-0.0141811,0.0386078
0.00774807,0.038775
0.0283123,0.0229063
0.0377905,-0.00644467
0.0532955,-0.0224874
0.0562582,-0.0116609
0.0437814,-0.000153117
0.0507801,0.0281078
-0.00608507,0.00244475
-0.0939604,-0.00208409
-0.111343,0.015606
-0.0587083,0.0400966
-0.0246663,-0.0334851
-0.0187529,-0.0713139
-0.0134142,-0.0631577
-0.0293168,0.0013448
-0.0403676,0.0203782
0.00123072,0.0417224
0.0535925,0.0222017
0.0483313,-0.0358886
-0.00457674,0.0201422
-0.0280021,0.0685916
-0.0324985,0.0386833
-0.00955134,-0.0417789
0.0373373,-0.0527898
0.0418887,-0.0270299
0.0159111,0.00587908
0.00294728,-0.00843196
-0.00193808,-0.0131186
-0.00595989,0.00205091
-0.00840784,0.0152405
-0.0168074,0.020478
-0.025794,0.0204736
-0.0139444,0.0129437
0.0076024,0.00773044
-0.00419294,0.00978966
-0.0262252,0.00952016
-0.0105826,0.00194082
0.017099,-0.00156847
0.0320901,-0.00237009
0.0175208,-0.000311142
0.011063,0.00482844
0.0275576,0.0223496
0.0442884,0.0322461
0.0555388,-0.0151426
0.0424063,-0.0251606
-0.0152729,0.000351078
-0.0377793,-0.00350264
-0.0447917,0.00106604
-0.0532845,-0.00208613
-0.0228742,-0.0334458
0.0130657,-0.0377243
0.00857792,-0.0222697
-0.00619753,-0.0293812
-0.0232578,-0.0330213
-0.0255327,-0.00813874
0.0104984,-0.0200673
0.0553892,0.00542016
0.048562,0.0536386
0.00733233,0.0355665
-0.025657,0.00607507
-0.0277137,0.0116684
-0.0165612,0.0411465
-0.00503189,0.0816329
-0.00047371,0.00999984
-0.000222821,-0.0193552
-0.00293716,-0.0130004
-0.0044614,-0.0112556
-0.0087056,0.000442564
-0.0150777,-0.00151372
-0.0195641,-0.00123093
-0.0256432,-0.00162246
-0.0201892,-0.00268668
-0.00726448,-0.00394108
0.00972939,-0.00612084
0.0351387,-0.00824905
0.0481799,-0.0171157
0.0517136,-0.0253309
0.0487176,-0.0201687
0.039114,0.0139421
0.0116121,-2.78e-05
-0.0162226,-0.00341017
-0.0669033,-0.00141681
-0.05269,-0.0165822
0.04986,-0.0120277
0.0695657,0.00631951
0.0265933,0.00266803
-0.0384127,0.000463481
-0.101049,-0.00360015
-0.0764945,0.0122133
-0.0167212,-0.00600918
-0.00671071,-0.0193495
-0.0127406,-0.0109295
-0.000677503,0.000619002
0.0123903,0.0247191
0.0082547,0.0130724
-0.000160182,0.000252763
0.0107917,0.00882908
0.0212438,0.00993322
0.0202183,0.00163722
0.0336089,0.0267568
0.0369224,0.000306678
0.0384533,-0.00125948
0.0358423,0.0118998
0.0308997,0.00639994
0.0233071,0.00615073
0.00888537,-0.00637438
-0.0167244,-0.0288032
-0.0472001,-0.000167482
-0.0579513,-0.00723038
-0.0497073,-0.0223328
-0.0298521,-0.00849045
-0.00558368,-0.0285141
-0.00979208,0.00813998
-0.018858,0.0260466
0.000703732,0.00889893
0.019614,0.00784493
0.0403736,0.0130484
0.0166698,0.00768414
-0.0122146,0.0118712
-0.00372083,0.000570041
-0.00881903,-0.0170368
-0.0383327,-0.0171172
-0.0328948,-0.00980155
-0.0102407,-0.000152101
-0.0094669,0.0130825
-0.00566933,0.0267352
-0.0132329,0.00405704
-0.00945923,-0.00211498
0.0218251,-0.00469296
0.0671775,-0.0219198
0.0915649,-0.014339
0.0519915,0.0296926
-0.0116976,0.0286204
-0.0471519,-0.0236504
-0.0199101,-0.0374447
0.0347893,-0.00533749
0.0605818,0.014045
0.0246402,0.0141696
-0.0431146,0.00455932
-0.0640547,0.000544705
-0.0423766,0.00216645
-0.00540354,-0.011988
0.0310012,-0.0015513
0.0315972,-0.000402553
0.021127,-0.00758362
0.0227959,-0.00035621
0.0313556,0.00822618
0.026391,0.0262494
0.00416803,0.00319602
-0.0152595,-0.00134385
-0.0349995,-0.0190251
-0.065051,-0.00808623
-0.0585756,0.00769707
-0.0692934,0.00151838
-0.0734762,-0.0123059
-0.0300841,-0.0349024
0.00754975,-0.0378877
0.0481869,0.0209161
0.0637753,0.0245362
0.0557502,0.00138237
0.0605412,-0.025632
0.0635118,-0.0491091
0.0373358,0.0252132
-0.0259624,0.0344567
-0.0570043,0.0388508
-0.0638683,0.0114821
-0.0530884,-0.00408054
-0.0245879,0.00508436
-0.0101592,0.00240927
-0.00225601,-0.0238949
0.0153112,0.0286597
0.022417,0.0440322
0.0141389,-0.0375599
0.00281074,-0.038911
-0.0130532,-0.0308808
-0.0127262,0.0242258
-0.0268328,0.011006
-0.00660428,0.00260398
0.0017849,0.0396507
0.0142725,0.0452507
0.0536521,0.00794261
0.0720044,-0.013297
0.0417357,-9.32e-05
-0.00549317,0.00109409
-0.0332423,-0.0175349
-0.0176764,-0.0155094
-0.00482358,-0.0356361
-0.0213268,0.0154675
-0.0374634,0.0328217
-0.050722,-0.00213332
-0.0631845,-0.0271209
-0.0444112,-0.0229309
-0.000503011,-0.0415137
0.044064,-0.0400383
0.0773599,0.0231136
0.0852354,0.0349585
0.057946,0.0190376
0.0266749,-0.0120604
-0.00102814,-0.0105953
0.00543053,0.0199264
0.0231029,0.0174032
0.0324242,0.0022114
0.0433823,0.0204444
0.040858,0.00286818
0.000419129,-0.0111503
-0.0235115,-0.00039563
-0.05602,-0.00855422
-0.081277,-0.0116865
-0.0677768,0.00214456
-0.0371928,-0.0319088
-0.0217542,-0.0395673
-0.0136249,-0.0314978
-0.00736311,-0.0180743
-0.0189992,0.00165038
-0.0182046,0.0595529
-0.000644077,0.050792
0.00147531,0.0052327
0.0065096,0.0151101
0.0157984,0.00991301
0.0171962,0.0130221
0.0180141,0.00340718
0.0236948,-0.00920381
0.00968047,0.0056587
0.0054757,0.00685904
0.0250616,0.00285296
0.0284259,0.0263937
0.0171338,-0.00178855
0.00727753,-0.0370158
-0.0235658,0.00915296
-0.0585114,-0.0190674
-0.0447641,-0.0188504
-0.0109948,0.00292437
0.0250745,-0.0170985
0.049321,-0.0295416
0.0457462,-0.00189288
0.0145634,-0.000517848
-0.0164428,0.00198692
-0.020995,0.0178792
-0.0112401,0.00965376
-0.00587575,0.011316
-0.000887297,0.00631682
-0.00422355,-0.0140478
-0.0130341,-0.0365161
-0.019653,-0.0395053
-0.020476,-0.0423166
-0.0167461,0.0428551
-0.0173014,0.0795553
-0.0101301,0.0357704
-0.0165059,0.015934
-0.0113443,0.000641713
0.0168838,-0.00645866
0.0334907,-0.0152181
0.0244827,-0.0437746
0.00964044,-0.0169171
0.00939592,0.0461725
0.0278667,0.0486199
0.0460596,-0.00334432
0.0380723,-0.0386764
0.0315991,-0.0353658
0.0195007,-0.0193556
0.0119624,0.035226
-0.00756132,0.0175677
-0.0298301,0.0162148
-0.039366,-0.00506093
-0.0308668,-0.0105965
-0.0157125,-0.0165265
-0.0220047,-0.00377631
-0.0306018,-0.0114072
-0.0215254,-0.0159691
-0.0257715,-0.00412967
-0.023814,0.00724379
-0.00578267,0.0123635
0.00777533,0.0163351
0.012829,0.0110626
0.00587984,-0.00419665
0.00267799,0.0168068
-0.0038214,-0.0121619
0.00235826,-0.018404
0.0226815,0.0122136
0.0450855,0.0162868
0.0539397,-0.00118528
0.0334107,-0.0130736
0.00899302,-0.0159096
-0.0204247,-0.01261
-0.028405,0.00917082
-0.0211877,0.0170474
-0.0248783,0.0148349
-0.0244529,-0.0300474
-0.0176149,-0.0330186
-0.00866617,-0.0122574
0.0296916,0.00564604
0.0545688,0.0206437
0.0327362,-0.00606071
-0.0063683,-0.0133759
-0.0434227,-0.0283648
-0.0498285,-0.0049137
-0.0297666,0.0472966
-0.0100547,0.00803221
0.00458674,-0.0163608
0.0149459,0.0290094
0.013832,0.0127394
0.0219742,0.00697618
0.0254049,-0.00807532
0.0250805,-0.00272424
0.0216277,0.0216004
0.0146383,0.0254382
0.00684047,0.0110352
0.000368063,0.00352287
-0.00190578,-0.00601564
0.00136364,0.00410665
0.00035392,0.00738035
-0.00920317,-0.0335634
-0.0109624,-0.0102429
0.0036967,0.0121788
0.000868804,-0.00667153
-0.0221101,-0.0196819
-0.0364343,-0.0344708
-0.0407146,-0.0280422
-0.0239684,-0.013534
0.00717756,-0.00653495
0.0326529,0.00932191
0.0264074,0.0103742
0.00829168,0.000530402
0.00181347,0.0214375
-0.00714522,0.0316018
-0.00629468,0.0267171
-0.00609876,0.0210531
-0.00762731,-0.0204396
-0.00164652,-0.0145674
-0.00504907,0.0692817
-0.00926092,0.00251423
-0.00422605,-0.042225
0.00641978,-0.0247016
0.0192206,-0.0109951
0.0233761,0.0105808
0.022036,0.0110195
0.0138629,-0.00400877
-0.00736526,0.0044197
-0.0256997,0.0140081
-0.0289621,0.00280048
-0.0483206,-0.0149451
-0.0787846,-0.00713264
-0.0693369,-0.00181016
-0.0243327,-0.0187613
0.02203,-0.00706034
0.0405116,0.00280253
0.0476698,-0.0042988
0.0593504,-0.0148039
0.066719,-0.0250343
0.049935,-0.027473
0.0195468,-0.00615255
0.00816105,0.0154194
0.00639016,0.0184256
0.00734559,0.026191
0.00264058,0.0445071
-0.00559828,0.0106222
-0.00729954,-0.0154416
-0.00366617,-0.00267731
-0.000478739,-0.00424298
-0.000220896,-0.00217913
-0.00199374,-0.000593044
-0.00756591,0.00959781
-0.0132508,0.00807552
-0.0197063,-0.00705531
-0.0173668,-0.00929198
-0.0125668,-0.00708724
-0.00809836,-0.00609579
-0.00590303,-0.00603981
-0.00430696,-0.0108188
-1.05e-05,-0.0122124
0.00146638,-0.00191384
-0.000394425,0.0141473
0.00132877,0.0140061
0.00825436,0.00467494
0.00438007,0.00531538
0.00789119,0.00344398
0.011041,0.00214557
0.00412142,0.00545618
-0.00748518,0.00761974
-0.0211842,0.00528056
-0.0209187,-0.00428868
-0.0154555,-0.00909395
-0.00427957,-0.0106252
0.00908867,-0.00960042
0.015966,-0.01098
0.012823,-0.0140157
0.000815379,-0.0124642
-0.00794628,0.0023176
-0.00766918,0.0136165
-0.000786471,0.012199
0.0116197,0.0110363
0.0220981,0.00320635
0.032423,-0.00346605
0.02608,-0.00561119
0.00632101,-0.00014612
-0.00812156,0.0107403
-0.0158996,0.00548645
-0.0189025,-0.00472323
-0.0214635,-0.00514904
-0.0246116,-0.0038302
-0.0246818,-0.00351217
-0.0176479,-0.005537
-0.0129803,-0.00878145
-0.00506115,-0.00365141
0.000654773,0.0068325
0.00745709,0.0110005
0.0178219,0.0155372
0.0227505,-0.00614
0.0183534,0.00651781
0.0119482,-0.000319485
0.00675036,-0.00479869
0.00175145,-0.0119704
-0.00121264,-0.0101979
-0.0043066,-2.93e-05
-0.00674081,0.030762
-0.0127398,0.0170572
-0.00939223,-0.00963714
-0.00922166,-0.0244775
-0.0068447,-0.00453658
-0.00186035,0.00330536
0.00287264,0.00948275
0.0179557,0.0272286
0.0302084,0.0265574
0.0298428,0.0251713
0.0212957,0.0206885
0.0124122,-0.0277875
-0.0102938,-0.0335074
-0.0492199,-0.0532853
-0.0562357,-0.0388366
-0.0374631,0.0376569
-0.0211126,0.0595358
-0.00570406,0.0333026
0.0229096,-0.0233534
0.0568819,-0.0455845
0.0722185,-0.0223624
0.0586435,0.0236739
0.0255469,-0.00596592
-0.000867385,-0.0348876
-0.0120204,0.00711582
-0.0103439,0.05513
-0.0273727,0.00829765
-0.0385574,-0.00683313
-0.0335927,-0.0318621
-0.0183999,-0.0109097
-0.00545699,-0.0123612
-0.00797336,0.0254089
-0.0205812,0.0306938
-0.0184882,-0.0104735
-0.00319738,-0.0155354
0.00260249,-0.0315417
0.00324921,-0.00102628
0.00561756,0.0224629
0.00970244,0.0214209
0.0291238,-0.00258139
0.0485748,0.0119185
0.0529139,0.0296937
0.0498227,0.0167312
0.0179745,-0.0217813
-0.0496157,-0.00900725
-0.0782747,-0.00603013
-0.0673251,-0.0518158
-0.0331432,-0.0547087
-0.0112232,-0.0224206
0.00949803,0.0146795
-0.0174105,0.0037814
-0.0456526,-0.0262099
-0.0418233,-0.0404049
-0.0626981,-0.0714833
-0.0740389,-0.0346946
-0.0490865,0.102657
0.0294669,0.074659
0.146445,0.0521982
0.170802,0.0219392
0.126706,0.0329185
0.0811908,0.0370276
0.042764,0.0303508
-0.00872803,0.016174
-0.054893,-0.031957
-0.0598549,-0.0350838
-0.0321253,-0.0262384
0.000113204,-0.0318826
0.0117179,-0.0254073
0.00992609,0.0247103
-0.00268095,0.0693048
-0.0189902,-0.000761417
-0.0259346,-0.0243096
-0.0253879,-0.0193264
-0.026446,-0.00574019
-0.0140526,0.00783667
0.000366606,0.0140692
0.0168295,0.0114781
0.025437,-0.0122254
0.0243518,-0.0110864
0.0234532,0.00166927
0.0320056,0.00650848
0.0153672,0.0211417
-0.00222337,0.00972848
0.0142873,-0.00692082
0.00744853,-0.00251312
-0.0437257,-0.0119985
-0.0592604,-0.0274722
-0.0239943,-0.0177967
-0.00878739,-0.0236114
-0.000901107,-0.0334756
-0.00265204,-0.00116246
-0.0177345,0.0312836
-0.0326448,-0.00605569
-0.0333992,-0.020469
-0.0245962,-0.0235616
-0.0128399,-0.0148951
0.000908651,0.00177922
0.0120405,-0.00175179
0.0128503,0.030695
0.0139303,0.0830024
0.0160352,0.0265064
0.0113653,-0.00849266
0.0077119,0.00698291
0.00861667,0.0176207
0.0127834,-0.047613
0.0302406,-0.0226879
0.0236127,0.00117159
-0.00668757,0.02616
-0.0423162,-0.0109422
-0.0557282,-0.0127491
-0.0468297,-0.0211648
-0.0240476,-0.0247168
-0.00660454,-0.00683179
0.0121691,-0.00223605
0.0276618,-0.0188467
0.0368493,0.0154265
0.0455251,0.0297775
0.03409,0.019871
0.0172587,0.0276532
0.00755042,0.0252297
0.00544943,0.00668991
-0.00339489,-0.0102981
-0.012414,-0.0169777
-0.0135943,0.0153236
-0.0140745,0.0137613
-0.00695954,-0.00565847
0.00113497,-0.0141232
-0.0101285,-0.0256412
-0.0229607,-0.00900023
-0.0209898,-0.0111252
-0.0147816,-0.0338771
-0.00639228,0.0142937
-0.0144823,0.0115433
-0.0036716,0.0197406
0.0199458,-0.00832644
0.0499485,0.00776874
0.04535,0.0218038
0.0332602,-0.0149763
0.0302936,-0.00373409
0.0223108,0.0109302
0.00925022,0.0244068
-0.00336645,0.021356
-0.000173804,0.00200502
0.0115784,-0.00246071
0.018215,-0.00508208
0.0215389,-0.0032932
0.0179327,0.00271807
0.0117252,0.00884238
0.000277495,0.00597345
-0.00839123,-0.00301595
-0.0251036,-0.0191394
-0.0404413,-0.0293904
-0.0396059,-0.0119554
-0.0348531,-0.0059668
-0.0307794,-0.00830415
-0.0226053,-0.019079
-0.0129009,-0.0166872
-0.0110591,-0.00325093
-0.0116457,0.00182259
-0.0145624,-0.00649422
-0.0149186,-0.00405672
-0.0178624,0.00164354
-0.0180331,0.00120324
-0.0137243,-0.00176862
-0.00718244,-0.00686214
0.000855433,-0.00110202
0.0175296,0.0194133
0.0390881,0.0139142
0.0519668,0.0131968
0.0439045,0.00971383
0.0384719,0.00404476
0.0269174,-0.000928971
0.00299477,-0.00183483
-0.0212609,0.00123155
-0.0299577,0.00983635
-0.0119507,0.0278127
0.00394017,0.0301921
0.00768729,0.0257604
0.0136881,-0.00381864
0.0349088,-0.00368113
0.036671,0.00139005
0.00670482,-0.00615295
-0.0067025,-0.0168004
0.00417536,-0.0170552
-0.00289066,-0.00849027
-0.0229178,-0.0104853
-0.0393416,-0.00336331
-0.0382567,-0.00499139
-0.0347522,-0.00402618
-0.0255703,-0.0126032
0.00550514,0.0102027
0.0353804,0.0338505
0.0540125,0.0223948
0.0468796,0.00641784
0.00890204,-0.00987432
-0.0350309,-0.0185557
-0.065558,-0.0280261
-0.0838375,-0.0270265
-0.113962,-0.026717
-0.111743,-0.0265443
-0.0635713,-0.0164657
0.0169764,-0.00083387
0.11283,0.0175082
0.150426,0.0200172
0.135498,0.00607601
0.11186,-0.00552198
0.0571737,-0.01369
0.012909,-0.0123112
-0.0378723,0.00050122
-0.113749,0.0136097
-0.182184,0.0230139
-0.2091,0.0461184
-0.21319,0.0375668
-0.149275,0.0143513
0.0214223,-0.00903181
0.237976,-0.011781
0.316925,0.00507261
0.202809,0.0150207
0.0507921,0.00176076
0.0131713,-0.0010931
-0.0163394,0.00825135
0.0190287,-0.00749723
0.0462046,-0.0246481
0.0457573,-0.00662885
0.0418838,0.0076906
0.0445437,0.00116613
0.0285439,-0.00553095
-0.0150002,0.00156961
-0.0439256,0.0125545
-0.103651,0.0203086
-0.231089,0.00924893
-0.278833,-0.00109071
-0.13081,-0.00309755
0.110183,-0.023085
0.190652,-0.0459573
0.14321,-0.0407205
0.124358,-0.0339773
0.0342409,-0.0305391
-0.0550944,-0.0291917
-0.0358681,-0.00875711
-0.0307511,0.0391612
-0.0445746,0.059853
-0.000892586,0.057188
-0.0232512,0.0445421
-0.105191,0.0356475
-0.0885654,0.0243074
-0.00508925,-0.0193026
0.0789273,-0.0886031
0.104867,-0.122326
-0.0064171,-0.122538
-0.0972346,-0.115262
-0.0140971,-0.0521585
0.152589,0.0313135
0.172896,0.0791462
0.0909139,0.10249
0.0455682,0.124374
-0.0458367,0.123141
-0.0725806,0.111382
-0.024759,0.0628999
0.03732,0.0124541
0.0570699,-0.00335582
0.0206348,-0.0181204
-0.00881882,-0.00472357
-0.0100916,0.00826479
-0.0292337,-3.96e-05
-0.0453373,-0.00341224
-0.100009,-0.00552491
-0.185456,-0.009545
-0.173116,-0.0238225
-0.0609452,-0.0704588
0.0369415,-0.0949268
0.0506509,-0.0461191
-0.0147492,-0.0274717
-0.0165545,-0.0119496
0.020431,0.00800121
-0.0114999,0.0126845
-0.0668194,0.00121186
0.0231126,-0.0239662
0.0655923,-0.0330097
0.0376101,-0.0184139
0.0478745,-0.00956252
0.0670979,0.00881001
0.0722731,0.0243081
0.0399499,0.0347364
0.00392997,0.0470111
-0.0113176,0.0316138
0.00370177,0.0171206
0.011032,0.0110211
-0.011317,-0.0470964
-0.0553833,-0.0710817
-0.0302101,-0.0556711
0.048227,-0.0179079
0.0917967,0.0107772
0.0875799,0.0296374
0.0857182,0.0429814
0.084073,0.0249496
0.0431081,0.0017925
-0.0196238,-0.0097939
-0.0464591,-0.0122598
-0.0800693,0.000609537
-0.092686,0.0327705
-0.0694456,0.061907
-0.0820062,0.0610204
-0.106547,0.0380783
-0.0586168,-0.00439431
-0.0354674,-0.0426728
-0.0271373,-0.0381158
0.0791034,-0.0301099
0.12335,-0.0251314
0.031565,-0.00375584
-0.0464761,0.00537348
-0.144475,0.00227231
-0.0940154,-0.00320347
-0.0125517,0.00836151
0.00587791,0.0160945
0.0532409,0.0111991
0.118372,0.00541871
0.139528,0.00209917
0.14084,-0.00538065
0.0868316,-0.0218996
-0.00933079,-0.0063344
-0.0600888,0.019659
-0.0286306,0.00710585
0.0449638,-0.0161474
0.0663389,-0.0364051
0.0471583,-0.0357234
0.0545509,-0.0264007
0.007158,-0.019097
-0.0475571,0.000689904
-0.0683243,0.012094
-0.12706,0.0310953
-0.170894,0.0443256
-0.0050676,0.0409848
0.192357,0.0245845
0.186867,0.00734455
-0.0781928,-0.00332063
-0.209194,-0.0220627
-0.163123,-0.0239732
-0.2741,0.00680027
-0.337221,0.0180102
-0.223934,-0.00859007
-0.0555776,-0.0313209
0.130315,-0.0207128
0.143987,-0.0154694
0.146752,-0.00574743
0.210102,0.00853895
0.296157,0.0136228
0.225758,0.016609
0.0349606,0.0249062
0.0855439,0.0108803
0.250925,-0.00655366
0.28273,-0.000537737
0.144444,0.0135672
-0.0231943,0.0238363
-0.374567,0.026812
-0.749218,0.0171397
-0.753818,-0.0184496
-0.201769,-0.0654531
0.284833,-0.0723964
0.386334,-0.056681
0.481357,-0.0453051
0.378933,-0.0136116
0.181671,0.0173757
-0.00246185,0.0254878
-0.0996464,0.0182965
-0.1734,0.0186432
-0.132892,0.0254654
0.0377474,0.0312208
0.158254,0.0309757
0.0492617,0.0473105
-0.0454046,0.0576713
-0.0124123,0.0276529
-0.00326654,0.00164283
-0.00951353,-0.00670142
-0.0259812,-0.0128559
-0.0264372,-0.013744
-0.00796738,-0.0213679
-0.0107474,-0.0339833
-0.0564426,-0.0221446
-0.121173,-0.0146291
-0.142033,-0.00642346
-0.113074,0.00505597
-0.0482417,-0.00255159
-0.0131082,-0.0127308
-0.0138564,-0.00932911
-0.0162852,-0.000105221
0.0118685,0.000236467
0.0587373,-0.00198259
0.0844619,0.0020309
0.0724197,0.0160335
