Comp Ch 3,Comp Ch 4
0.155945,0.0927497
0.0697181,0.0375916
0.0412337,0.0279215
0.14868,0.00646195
0.164518,-0.0879801
0.0971537,0.0172932
0.0377473,0.0888305
0.0351398,0.042095
0.0669586,-0.0671987
0.0666188,-0.0494517
0.0300654,-0.0242842
-0.0174708,-0.0308252
-0.0959145,-0.0340507
-0.145906,-0.0516351
-0.0960598,-0.0522741
-0.0609076,-0.0286058
-0.0781098,0.0287677
-0.0330644,0.0891803
0.0127394,0.0115768
-0.00562606,0.0233158
-0.0174268,-0.00160438
0.0192077,-0.0948079
0.0217546,0.0393051
0.0221816,0.0614936
0.0965722,-0.044278
0.0688981,0.0378757
0.0425235,0.0140334
0.018292,-0.0398346
-0.0791989,-0.0684083
-0.124215,-0.0250683
-0.0967045,0.00180658
-0.0288002,-0.0402236
0.0063312,-0.0224311
0.0257699,0.0624752
0.0296547,0.155634
0.00021876,0.118356
-0.00482262,0.000289636
-0.0129286,-0.0542927
-0.0117883,0.000743645
0.00954612,-0.0227443
0.0496362,-0.0194336
0.0766209,-0.0120689
0.0365451,-0.0457494
0.0228812,-0.00706965
0.0288765,0.00865208
-0.00803546,0.0218289
-0.115142,0.058362
-0.15636,-0.0204309
-0.0471893,-0.0028703
0.0710951,-0.0171001
0.0371477,-0.0840041
-0.0115916,-0.116758
0.00132455,0.113436
0.043049,0.119782
0.0766609,-0.131883
0.0630985,-0.0814239
-0.00192193,0.106571
-0.0228974,-0.0584226
0.0226626,-0.117559
0.0312491,-0.0162478
-0.0106567,-0.024368
-0.0314804,-0.0148818
-0.00014222,0.0786645
0.0559752,0.0675876
0.0482572,0.00912478
0.020891,0.0147711
-0.0243758,-0.024832
-0.0586152,0.0127827
-0.0556411,-0.00562798
-0.0183784,0.0177521
0.00407488,0.125987
9.96e-05,0.11262
-0.0232447,0.0571444
-0.0309634,0.0359837
-0.0282164,-0.0334543
-0.00283121,-0.0185856
0.0429204,0.0363814
0.0492852,0.0420242
0.0178418,0.0131468
0.013391,-0.0327083
0.0477248,-0.0368827
0.0426824,-0.0534952
-0.00232563,-0.000169154
-0.0758737,0.0187751
-0.103419,0.0132514
-0.0216493,-0.00305693
0.0705047,-0.0324895
0.071964,-0.0194762
-0.00167822,-0.0615398
-0.0588635,-0.0749494
-0.0658215,-0.0666863
-0.0853384,-0.0720637
-0.0660407,0.0183187
-0.0104667,0.00853885
0.0272665,-0.00736442
0.040745,-0.0257492
0.041156,-0.024504
0.0624451,-0.0217964
0.0303842,0.0872518
-0.0246011,0.0841016
-0.0346259,0.0397016
-0.0200477,0.0550672
0.00309972,-0.00872409
0.0407838,-0.0207097
0.0569121,-0.0920569
0.0438157,-0.108292
0.0231527,-0.096587
0.0152556,-0.0407372
0.0162404,-0.00887586
-0.0011497,0.0180732
-0.0124658,0.0328208
-0.0130987,0.0902563
-0.014159,0.159237
-0.0243989,0.107857
-0.0420182,-0.0109143
-0.0315858,-0.0446233
0.00902016,-0.0626215
0.0614853,-0.152309
0.090982,-0.0835811
0.0708725,-0.0354648
0.022027,0.0681592
-0.0516129,0.133118
-0.0436098,0.0805192
0.0131203,0.0975847
-0.00882324,0.134733
-0.0987939,0.141558
-0.155999,-0.0768226
-0.116617,0.0119024
0.00603646,0.0185742
0.0601593,-0.13316
0.0858938,-0.127116
0.106365,0.00181988
0.0443157,0.0549616
-0.0579609,-0.00103417
-0.0660079,0.0372007
-0.0269539,0.0641401
-0.000780019,0.0157747
0.0406278,-0.105825
0.0409333,-0.128249
0.0125845,0.035022
0.00288431,0.0203991
0.0440251,-0.176961
0.0360872,-0.161003
-0.0146869,-0.0479165
-0.0831738,0.0431914
-0.0983503,0.103971
-0.0504022,0.138627
-0.00136074,0.105163
0.0309211,-0.00669162
0.0484641,0.00334938
0.0641781,-0.00685371
0.0422503,-0.17093
0.0444927,0.0172306
0.00856512,0.0575169
-0.05525,0.0601802
-0.033108,-0.00855357
0.0212076,-0.0457287
0.0285202,-0.036527
0.00214074,0.0798856
-0.0225589,0.0198845
0.0427173,-0.00278899
0.074786,-0.000680948
0.0117755,-0.0278021
-0.0852482,-0.013379
-0.126003,0.0296259
-0.0788313,-0.0493212
0.0237073,-0.0407503
0.101126,0.0145932
0.0899667,0.075058
0.0298855,-0.0463467
-0.0303889,-0.0081131
-0.0632454,-0.0166619
-0.0373459,0.0865685
0.0140499,0.0692433
0.0491502,0.023361
0.0251734,0.0049352
0.0251168,0.00557868
0.0391142,0.00545419
0.00452608,-0.0123339
-0.052254,-0.0355186
-0.0553454,-0.0438871
-0.0145036,-0.0024261
-0.0125754,0.0183794
-0.0614279,-0.0268073
-0.0789527,-0.0866133
-0.042042,-0.0332692
-0.0104182,0.0346597
0.00135103,0.0605957
-0.008041,-0.0240074
0.0117898,-0.0240388
0.0242108,-0.0351863
0.025387,-0.0308655
0.0556785,-0.0112232
0.0688993,0.0885302
0.0304741,-0.000197261
-0.00283837,-0.0146031
0.0357716,0.0042675
0.0755589,0.00630213
0.049893,-0.0175127
-0.00831887,-0.0478128
-0.0476684,0.0200303
-0.0532636,0.0122165
-0.0263158,-0.0348701
-0.0162178,-0.0412911
-0.0346852,0.047099
-0.0267524,0.0307592
-0.000894413,-0.00204085
0.00716299,-0.00823421
0.00958553,-0.0186858
0.0195248,0.00124591
0.018395,0.0166906
-0.000725661,0.0099039
-0.0214382,0.0188184
-0.0290203,0.00181374
0.00637283,0.00921167
0.0694037,-0.00677505
0.0635901,0.0297597
-0.0357976,0.0351248
-0.078306,-0.0115066
-0.0613046,0.0872095
-0.031001,0.123547
0.0200148,0.100164
0.063812,-0.0242317
0.0750644,-0.0354157
0.0721331,-0.0449384
0.0480385,-0.0698415
-0.00251109,-0.0756703
-0.0447124,-0.0513347
-0.0699843,0.000943473
-0.0818818,0.0538778
-0.0706371,0.0314459
-0.0786467,0.00479007
-0.0668183,0.0274581
-0.0267889,-0.00515558
0.0135639,-0.064238
0.0293862,0.00353021
0.0505318,0.00706734
0.0704664,-0.0276973
0.0877822,-0.00678052
0.0666854,0.0296095
0.0214146,0.0035243
-0.0057646,-0.00662757
0.00643202,-0.023461
0.0342536,-0.061456
0.0366254,-0.0887898
0.0327046,-0.0776212
0.0274909,-0.0623431
-0.00336026,0.0071907
-0.0526656,0.0329547
-0.0697063,0.0365237
-0.0610392,0.0409698
-0.0376907,0.0149817
-0.0215917,0.0355041
-0.0047441,0.0342713
0.0215219,0.0170762
-0.00941772,0.0145833
-0.0302456,-0.0130438
-0.0134001,-0.0428392
0.00167343,-0.0214631
0.00428556,0.0359203
0.0234688,-0.0108708
0.0608662,-0.0526383
0.0745979,0.0101355
0.0603429,0.0177831
0.0219078,-0.0151963
-0.00886818,-0.0294517
-0.0117595,0.0441399
-0.0148534,-0.0169522
-0.0126585,-0.0420435
-0.0106207,-0.0378492
-0.0431125,-0.0316404
-0.115261,-0.0438894
-0.142995,-0.0258378
-0.13552,0.10346
-0.057949,0.0820207
0.0300833,-0.0327857
0.0494157,0.0910738
0.0547464,0.126579
0.0922989,0.0934141
0.122883,0.0498958
0.101612,-0.0990736
0.0904683,-0.0380096
0.0665572,-0.00627958
0.0261655,0.00303189
-0.0357593,-0.00274878
-0.0731173,0.00611464
-0.0567907,0.0520455
-0.00411417,0.0467986
-0.00693497,0.0158648
-0.0295791,0.0320225
-0.00785708,0.0214863
0.0256662,-0.0241334
0.0259023,-0.0325382
0.0134723,-0.0233403
-0.0117412,-0.0261525
-0.0435138,-0.0193882
-0.0249501,-0.0269064
-0.00092375,-0.0821062
0.0409588,-0.135846
0.0310902,-0.169285
-0.0349243,-0.130451
-0.118365,-0.0126838
-0.10631,0.0551588
-0.0670846,0.0896606
-0.0105055,0.15935
0.0382046,0.172941
0.0829345,0.114407
0.104033,0.0294656
0.0777019,-0.0329659
0.0268532,-0.00244177
-0.017723,0.0395023
-0.0522759,-0.00940855
-0.0686544,0.00408689
-0.0421071,-0.0214357
-5.18e-05,-0.0234179
0.0317371,0.00993729
0.0355279,-0.0551207
0.014951,-0.0201745
-0.0267726,-0.0768152
-0.0598789,0.0132895
-0.0477684,0.0494103
0.00131355,-0.00568825
0.0279528,-0.0268306
0.0358567,-0.0211522
0.0409132,-0.0600541
0.0479736,-0.0217665
0.05741,0.04074
0.051611,0.042188
0.0316049,0.00434782
0.013903,-0.0411519
-0.00819744,-0.044571
-0.0378092,-0.0125254
-0.0495344,0.0234426
-0.039146,-0.0140641
-0.0083812,-0.0327629
0.0104652,-0.0666852
0.0178962,0.0106711
0.0141034,0.0414184
0.0186788,-0.0116056
0.0211356,-0.0328078
-0.00342696,0.00557817
-0.02528,0.0359076
-0.0609942,0.0407856
-0.0779797,0.0286177
-0.0853059,0.0174742
-0.0647772,0.0429467
-0.0247863,0.0486523
0.0230965,0.0200329
0.0751929,-0.00553381
0.110629,-0.0305901
0.0840384,0.00163554
0.018956,0.0209951
-0.0218365,-0.0125553
-0.0197081,-0.0134798
0.0317884,-0.0555889
0.0508028,-0.0285877
0.018543,0.0241203
-0.0165908,0.030987
-0.0363534,-0.0260062
-0.0492417,-0.0555481
-0.0452298,-0.0668589
-0.0498114,0.0416723
-0.0452989,0.03406
-0.00309422,0.0215106
0.0417361,0.0238927
0.0527163,-0.0254927
0.0414253,-0.0325982
0.0285933,0.0128879
0.0197606,0.0321653
-0.00865533,0.00847988
-0.0272777,-0.0040697
-0.0284356,-0.0161524
-0.0068816,-0.0260807
0.0272196,-0.0244115
0.0501878,0.0449133
0.0130673,0.0146959
-0.0419892,-0.00769054
-0.0186747,0.00492686
0.0417338,0.0119149
0.0484494,0.056261
0.0244988,0.103727
-0.0162739,0.0305645
-0.0605825,-0.137371
-0.0535183,-0.0290909
-0.0486204,0.0544989
-0.0396889,0.0348764
-0.0294035,0.0254345
-0.0249965,-0.0315053
-0.0077291,-0.0554531
0.0276746,-0.0519118
0.0515111,-0.00822904
0.0368253,-0.00447507
0.0421009,0.00807036
0.0457141,0.00559027
-0.00538091,0.00741548
-0.052476,0.00899428
-0.0610745,0.0159626
-0.0103627,-0.0474247
0.0533278,-0.0576974
0.0538544,-0.058714
0.00126261,0.00870217
-0.0462204,0.0844863
-0.054891,-0.00388366
-0.025737,-0.0183073
-0.00634606,0.00441756
-0.0129858,0.0145141
-0.00109882,0.0785707
0.0106755,-0.0124317
0.0262461,-0.00571616
0.0211135,0.0351448
-0.0023982,0.0181956
-0.00402591,0.000493745
-0.00845181,0.00650234
-0.00770051,0.0148456
0.00710583,-0.00679497
0.0719199,-0.00376735
0.113694,0.0304691
0.143878,0.042492
0.117055,0.00267125
0.0243031,-0.0327642
-0.104447,-0.0694648
-0.12436,-0.0393094
-0.0601171,0.0185126
-0.0136111,-0.0149614
-0.0111115,-0.00525656
-0.0226071,-0.019041
-0.036026,-0.00375768
-0.0565767,-0.00925858
-0.057827,-0.0105491
-0.051237,0.0338442
-0.0452407,0.103768
-0.0418219,-0.0727288
-0.0157141,0.00286633
0.0186417,0.0212332
0.0328646,0.0108923
0.0181124,0.000223861
0.0198279,-0.0123226
0.0248706,-0.0102823
0.00408961,-0.0503519
-0.0103712,-0.131095
0.0135316,-0.0675441
0.0461074,0.044754
0.0487828,0.0814701
0.0335367,0.0616174
0.0485727,0.0296249
0.07055,0.0299037
0.0320795,-0.0565424
-0.0284482,-0.0470713
-0.0830872,0.0241908
-0.103641,0.0484734
-0.0425444,0.0253192
0.0323551,-0.0365918
0.0692649,-0.0578984
0.0740079,-0.0364016
0.0605872,-0.0295566
0.0134931,-0.00428854
-0.0400173,0.0406064
-0.0879879,-0.0177593
-0.0892095,-0.0593151
-0.0243122,0.018525
0.0375668,0.0744109
0.0170086,0.0427606
-0.0269426,0.0308098
-0.020247,0.0487973
0.00236359,0.0181715
0.0297053,0.00684363
0.0365117,0.0210592
0.0327924,-0.0201453
0.0461533,-0.0250159
0.0492393,0.0392793
0.0327447,0.0594527
0.00498899,0.0237456
-0.0377373,-0.0110053
-0.0826781,-0.00984399
-0.0685489,-0.0147078
-0.0611278,-0.0775854
-0.0479992,-0.043655
-0.00493476,-0.0268841
0.0308662,-0.0350799
0.0639284,0.00158106
0.0605521,0.0566114
0.0183031,-0.00514795
-0.0245157,0.043811
-0.0237507,0.0209833
-0.0066477,-0.0142851
0.0379587,0.0315679
0.0294547,0.0607179
-0.0173801,-0.011253
-0.0380332,0.00300021
-0.0306569,-0.0609922
0.0165519,-0.107096
0.0542481,-0.0682713
0.0338216,-0.0306231
-0.0156056,-0.0346939
-0.0612058,-0.0746543
-0.0165778,0.0107005
0.0479416,0.0796349
0.0516208,0.0847235
-0.00238354,0.0463106
-0.0473164,0.0256871
-0.0248833,0.0346099
0.0159413,0.0571014
0.0206203,-0.0292434
0.0234194,0.00118376
0.0238195,0.0133114
-0.000999563,-0.00473175
-0.0297617,-0.036735
-0.0405943,-0.0896714
-0.0392472,-0.0607572
-0.0166642,-0.015996
0.00253505,0.0565823
-0.00231126,0.0667351
0.00676943,0.010026
0.0125766,-0.0623844
0.00486111,-0.0592733
0.0192891,-0.0100835
0.0230247,-0.0159928
0.00447879,-0.0198213
-0.0253498,0.222255
-0.0449888,0.188669
-0.0393408,-0.001744
-0.0236925,-0.0373834
-0.00421926,-0.0526762
0.0239098,-0.0305174
0.0212066,-0.0220234
-0.00457653,0.00105204
-0.0217548,-0.0101282
-0.0207522,0.010228
-0.0247482,0.0130375
-0.0204655,-0.0267148
-0.0002395,-0.0464937
0.0463119,-0.0773096
0.0825294,-0.00746006
0.0871699,-0.0690779
0.0862957,-0.0655387
0.0608453,-0.0415119
0.0220842,0.0307868
-0.0491344,0.0548966
-0.11606,0.0284942
-0.0974773,-0.00790336
-0.024348,0.0191278
0.0498543,0.0193347
0.124403,0.0323977
0.123878,0.102428
0.0513379,0.0461767
-0.0207919,0.0125179
-0.0582609,-0.00821006
-0.0678315,-0.0711966
-0.0670032,-0.0726404
-0.0533763,-0.0635428
-0.0511136,0.0106619
-0.0760927,0.0757254
-0.0643591,0.0706362
-0.0220473,-0.0274645
-0.001289,-0.102746
0.0390453,-0.0285123
0.0627103,0.0595379
0.0238068,0.0498883
-0.0145044,-0.0553907
-0.00998819,-0.0362144
0.00461016,-0.0360597
0.0018432,-0.0256492
0.00614965,0.0448216
0.086248,0.0435699
0.0690243,0.0561822
-0.00688982,0.0654723
-0.0602215,0.0375343
-0.0157067,-0.0123528
0.00786493,-0.0425501
-0.0184615,-0.0126301
-0.0206448,0.046262
0.0176002,0.0535537
0.0471705,-0.0200466
0.0964543,-0.115027
0.14997,-0.0425213
0.107708,-0.0190957
-0.0107838,-0.0152559
-0.0354114,0.055824
-0.0504207,0.0638542
-0.114945,0.0321449
-0.145893,0.00805589
-0.115379,-0.0107013
-0.0406234,0.0508603
-0.0142493,0.000158339
-0.0208767,-0.0115785
-0.0173927,-0.0918706
-0.00750298,-0.174236
-0.0248815,-0.146591
0.0169202,-0.00140174
0.0798659,0.0641654
0.100309,0.061522
0.0763148,0.0111276
0.0480234,0.0879709
0.0162209,0.0801661
-0.0250425,0.0103553
-0.0689736,-0.0149402
-0.0704543,-0.0223791
-0.0447878,-0.00648065
0.00283493,0.0450952
0.0312153,0.0631501
0.0166895,0.0675486
-0.014282,0.0987404
0.00169438,0.00380941
-0.00316627,-0.183273
-0.00722723,-0.0398766
-0.00701902,-0.0130699
-0.0143451,-0.130691
-0.00639176,-0.0147713
0.0387783,0.018797
0.0792808,-0.0111556
0.0655281,0.0487301
0.0100197,0.0292537
-0.0415009,0.0170171
-0.073419,-0.00581277
-0.0421264,0.00545824
0.00825784,0.0254435
0.017534,0.0545322
0.0307868,0.0643428
0.0484326,-0.0605024
0.0275695,-0.0390072
0.00117885,0.0933798
-0.0444536,-0.0365858
-0.0736011,-0.0543494
-0.00640374,-0.0172488
0.0910105,0.0391785
0.128027,0.0579702
0.0603504,0.00717781
-0.0290577,-0.0402106
-0.0698216,-0.134975
-0.0672351,-0.0916692
-0.0385906,0.00111271
-0.0412112,0.0239462
-0.0521182,0.0494019
-0.0322033,-0.0373263
0.00859558,0.0477401
0.0308454,0.110567
0.0811962,0.0671263
0.131131,-0.0858118
0.102346,-0.0855867
-0.0351121,-0.00664597
-0.145308,0.0645849
-0.152168,0.0433622
-0.0721706,0.0134507
-0.0126576,0.0380511
-0.0239172,-0.0231606
-0.0138047,-0.045209
-0.0111865,-0.0213868
-0.0281923,-0.00873504
0.0116855,-0.0146496
0.0590976,-0.0127295
0.0628681,0.0180657
0.0635394,0.0379018
0.0407444,-0.0224504
-0.0153167,0.014229
-0.010593,0.00464531
0.016672,0.0722297
0.0174412,-0.0164548
0.0205937,-0.0290255
-0.00422888,0.0210231
-0.0390176,0.00577833
-0.0445307,-0.0764347
0.0246477,-0.0734902
0.0642026,0.0247991
0.0578465,0.0303197
0.0381402,0.0107769
0.0132134,0.00125714
0.00770467,-0.00487795
-0.0161176,0.00622427
-0.0369444,0.0127917
-0.0365045,0.00147864
-0.0161544,0.0239914
0.0483394,0.0213197
0.102372,-0.037596
0.0567983,-0.0135238
-0.0357743,-0.0232547
-0.0850567,-0.00760602
-0.0849589,-0.0367087
-0.0400387,-0.00620293
-0.0143865,0.0245558
-0.0123494,0.0894268
-0.00559259,0.145277
-0.00163768,-0.020389
0.0182012,-0.092911
0.0153646,-0.0475293
-0.0108509,-0.0797097
-0.0426451,-0.0569365
-0.0467871,-0.0448854
-0.0027606,-0.0549331
0.01996,0.0986221
0.0158663,0.150429
-0.0280263,-0.0926406
-0.0441545,-0.122663
-0.0125104,0.0503813
0.0318448,0.137684
0.0317583,0.0455358
0.016973,-0.0515023
-0.0100275,-0.0535118
-0.0503702,0.0892206
-0.037121,0.125675
0.055272,-0.0678615
0.131942,-0.0314621
0.103889,-0.075736
0.00397269,-0.0351562
-0.0681294,0.0705468
-0.0373532,0.0156486
0.0189979,-0.0249215
0.0205668,0.0417401
-0.00110445,0.0185886
-0.0210754,-0.0260441
-0.010247,0.010875
-0.0361765,-0.0180787
-0.0250443,-0.0720613
0.0183691,-0.0668203
0.0138917,-0.0775092
0.00296332,-0.0327033
-0.0124417,0.16098
-0.0642769,0.0590684
-0.0385132,0.0187904
0.00756162,0.0617415
0.0194869,0.0525998
0.0215284,0.0270337
0.0364144,-0.0456765
0.0191284,-0.0335874
0.0155738,-0.0190968
-0.00738333,0.029015
-0.0518008,0.0280644
-0.0542677,0.0192957
0.0770056,-0.0481091
0.18164,-0.0531459
0.155881,-0.0281434
0.0633707,-0.081718
-0.0500713,-0.0379037
-0.01178,-0.00441062
0.0897291,0.063376
0.062191,0.0299376
-0.0976822,-0.0509389
-0.231981,0.0239159
-0.262474,0.0169327
-0.188751,-0.00901302
-0.0987308,0.000448308
-0.00574403,0.0197406
0.120292,0.0268497
0.218642,0.00498468
0.213224,-0.0361065
0.100557,0.0238415
-0.0553506,0.0617211
-0.146334,-0.0322383
-0.211325,-0.0987349
-0.202939,-0.0500588
-0.0780316,0.0183321
0.0770872,0.0495352
0.15164,0.0670383
0.136952,0.0577643
0.0754569,2.01e-05
0.0143446,0.0163797
-0.00961863,-0.0627732
-0.00103845,-0.0633891
0.01985,-0.0720513
0.0932392,-0.0610406
0.100761,-0.0187853
0.035672,-0.0343313
0.00500596,-0.0314658
-0.0149539,0.0195701
-0.0162898,0.0615173
-0.0564107,0.0327241
-0.112873,0.0838972
-0.0969802,0.0255538
-0.0846067,0.0496655
-0.0141485,0.0135712
0.0978899,-0.0358139
0.206652,0.058894
0.134683,0.0295231
-0.00203965,0.0749909
-0.0924026,0.0258829
-0.16984,-0.170917
-0.0991299,-0.0351046
0.0173842,0.107702
0.0156336,0.134459
-0.013285,0.00452356
-0.0578681,-0.0526138
-0.0441088,-0.0628216
0.0662046,0.0125384
0.0903421,-0.02531
0.0735943,-0.0211797
-0.0218608,-0.0126414
-0.0816717,0.019156
-0.0845277,-0.0788725
-0.0404042,-0.157233
0.00304436,-0.112795
0.0421517,0.0626869
0.0251502,0.103111
0.00698421,-0.0708569
-0.0566985,-0.186917
-0.0615034,-0.0214265
0.0121995,0.0254474
0.0556864,0.0224107
0.158376,0.0730548
0.15092,0.167264
0.0517302,0.205882
-0.0192376,0.0855044
-0.0237324,0.0647373
0.02037,0.0146624
0.0740856,-0.0315797
0.0202593,0.0100988
-0.0686316,-0.0209463
-0.147846,-0.0396165
-0.152345,0.00183716
-0.083891,0.00611669
-0.00667195,0.000439818
0.0125973,-0.0334292
6.24e-05,-0.0868723
0.0172916,-0.017905
0.00223885,-0.0251346
-0.0522973,-0.0242508
-0.0304081,0.0151164
0.0753663,-0.0392057
0.134381,-0.120346
0.110034,-0.0662594
0.0439266,0.00331133
0.00750848,0.0149914
-0.0228878,-0.0310153
-0.0528395,0.0238499
-0.0491731,0.103553
-0.0317047,-0.0288883
0.0160147,-0.073248
0.0355205,-0.0269217
-0.0239429,0.0538446
-0.103584,0.0479748
-0.0660487,0.0517698
0.0433069,0.0758649
0.143039,0.011806
0.154404,-0.0245456
-0.00488838,-0.0222313
-0.111016,-0.0723015
-0.0657898,-0.0730083
0.0186422,-0.0334368
0.0344191,0.0251747
0.0349177,0.142629
-0.00305595,0.0652653
-0.0314756,0.0525925
-0.0465637,0.0360836
-0.0319215,0.0344062
0.0679322,-0.0473279
0.0910746,-0.0191433
0.0135741,-0.0922897
-0.0653705,0.0399501
-0.0956996,0.046149
-0.104286,-0.0656432
-0.0776034,0.0453043
-0.0749288,0.127726
-0.0503894,-0.0424843
-0.0240722,-0.0723733
-0.00784713,-0.0360703
0.00665332,0.00436892
-0.0147248,0.0119382
-0.000874822,-0.0514132
0.117848,-0.0910692
0.173872,-0.0125544
0.180769,0.0844363
0.126917,0.0346049
0.0156415,-0.0569401
-0.0275482,-0.0378799
0.0662028,0.0322046
0.0895155,0.0015571
0.00302338,0.00601729
-0.121041,-0.0295439
-0.173824,-0.0243949
-0.0496117,0.0442878
0.0210183,-0.0203324
0.028146,-0.188229
0.00774157,0.0234462
-0.0422442,0.150676
-0.0580346,0.0304809
-0.0566978,-0.013582
-0.0667178,-0.00882289
-0.0419545,-0.0568403
0.0200013,-0.00523236
0.0603909,-0.0480055
-0.00975898,0.0438809
-0.102899,-0.0277839
-0.0631128,0.00514289
0.153404,0.0655441
0.245828,0.00294268
0.146537,-0.00462605
-0.00383603,0.107396
-0.184111,0.134153
-0.238169,0.0388688
-0.101064,-0.0450939
0.037524,0.025794
0.0921879,0.0390635
0.110472,-0.0109776
0.0429324,-0.0640791
-0.0217028,-0.0260064
-0.00617223,0.035459
0.0822463,-0.0192307
0.123228,-0.0721875
0.133308,0.0587259
0.0338198,0.186677
-0.141676,-0.0144484
-0.285063,-0.0738286
-0.305391,-0.0315558
-0.213325,-0.0388508
-0.0834809,-0.0934358
0.0327892,-0.131473
0.154448,-0.0358241
0.196594,-0.0339854
0.139301,-0.0463215
0.0663377,-0.0593281
0.00419081,-0.197278
0.00116108,-0.209411
0.0298968,-0.0167805
0.0426486,0.187089
-0.00293809,0.077103
-0.00191136,0.139505
0.0611838,0.37742
0.107701,0.192955
0.0360445,-0.10253
-0.0166404,-0.0446475
-0.0724351,-0.0182731
-0.142424,-0.0156795
0.0193092,-0.0158577
0.165918,-0.0200168
0.114626,0.0683246
-0.0111647,0.00934
-0.115467,-0.0937549
-0.191116,-0.0423738
-0.0934011,-0.034833
0.0834259,0.0965485
0.10333,0.0202766
0.0184995,-0.052508
-0.18274,0.100257
-0.395736,0.0184759
-0.217064,-0.189264
0.228886,-0.141693
0.464385,-0.148019
0.427967,-0.0171575
0.261163,0.0984863
0.012652,0.137789
-0.145938,0.230559
-0.227308,0.088587
-0.196826,-0.00217616
-0.112637,-0.0138278
-0.145745,0.00303591
-0.235803,-0.102045
-0.274363,-0.166969
-0.128548,0.0215313
0.156707,0.079351
0.337729,-0.0491097
0.326661,-0.121759
0.126373,-0.0150188
-0.0728698,-0.116732
-0.0949629,0.0569911
-0.00293536,0.119309
0.100624,-0.00507903
0.227865,-0.10038
0.159807,-0.0435888
-0.00308529,0.263779
-0.125835,0.164753
-0.269615,0.0283521
-0.303187,-0.027402
-0.119639,0.0198901
-0.0104559,-0.0300667
-0.0019284,-0.0671647
-0.0254727,0.0461254
-0.039385,0.0515505
-0.0652881,-0.114966
0.0216691,-0.177159
0.200775,-0.128162
0.261081,-0.0779914
0.306576,0.00473283
0.268791,0.0237227
0.134312,-0.0982902
-0.0688769,-0.00201537
-0.216723,0.0889233
-0.175455,0.143281
-0.17601,0.103184
-0.156878,-0.0239693
-0.0518847,0.0499712
0.0303052,0.0930223
0.0941115,0.0349589
0.173154,0.0998918
0.115202,0.04221
0.00693586,-0.0323552
-0.100451,-0.0233547
-0.175387,-0.147953
-0.16245,-0.164128
-0.112638,-0.0877
-0.103691,0.0518653
-0.143302,0.140454
-0.17892,0.277373
-0.189984,-0.0214648
-0.0780724,-0.0972661
0.146924,0.0151719
0.335748,-0.0508605
0.400947,-0.230457
0.290299,-0.303557
0.180649,-0.178457
-0.00955387,-0.0644823
-0.150528,0.0566485
-0.057453,0.204877
0.0118436,0.363047
-0.0189149,0.243668
-0.00469968,-0.0354162
0.132394,0.0422466
0.261034,0.122958
0.302799,-0.048513
0.130571,-0.112161
-0.231804,0.0153575
-0.447448,-0.0737837
-0.374542,0.0210793
-0.206924,-0.0989989
-0.0414211,-0.161664
0.136927,-0.202533
0.177417,-0.289839
0.00288428,0.185067
-0.189226,0.320798
-0.213716,0.0901293
-0.151593,0.113696
-0.027382,-0.0170197
0.048203,0.0861311
0.0156517,0.0364627
0.00153425,0.00385448
0.0636517,0.0653547
0.0932469,0.0422765
0.096828,0.00673659
0.122706,-0.132817
0.0825929,-0.197625
0.0487238,-0.195805
0.0295571,-0.0268092
0.100135,0.0111966
0.205017,-0.00266798
0.0989554,0.11488
-0.0279259,0.223821
-0.0918216,0.285994
-0.0368586,0.00611989
0.0599711,-0.274103
0.0495008,-0.296099
-0.0261187,-0.221406
-0.10727,-0.129026
-0.110141,0.0173136
-0.123347,0.0198216
-0.166545,-0.0400182
-0.179923,0.0304815
-0.042638,0.193838
0.236586,0.235602
0.209004,0.155496
-0.00321227,-0.0687618
-0.0641809,-0.0522269
-0.124029,-0.115977
-0.0575629,-0.227074
0.0488958,-0.152931
0.0777907,0.108141
0.017434,0.086047
-0.0600264,0.0912487
-0.00317665,0.215895
0.0595225,0.196155
0.0772282,0.115021
0.0378399,0.12456
-0.00751783,0.0593856
0.0110893,-0.0492779
0.0262448,-0.0309944
-0.0122874,0.140014
-0.0192,0.025984
0.0264525,-0.116249
0.0455772,-0.121074
0.0437833,-0.12857
-0.0674438,-0.0995529
-0.202041,-0.0475901
-0.230354,-0.1873
-0.084353,-0.232288
0.0595302,-0.13414
0.0860923,-0.0137189
0.045565,0.120932
-0.00967861,0.149416
-0.0518226,0.0957836
0.0231775,0.0773058
0.0885513,0.0826473
0.0488131,0.043256
-0.00671391,-0.0289838
0.00244919,-0.00114865
0.027732,0.0268031
0.0288166,0.0395971
-0.017258,0.0141985
-0.0446216,-0.0872102
0.00589617,-0.0241256
0.0652296,0.0167073
0.0799308,0.0110561
0.0416123,-0.0264419
-0.00649243,-0.0522398
-0.0310246,-0.0417241
-0.0178515,0.024353
0.0180354,0.0194416
0.0331857,-0.0561128
0.0304232,-0.0729038
-0.0541495,0.0271859
-0.0821688,-0.0377986
-0.0134884,0.168378
0.0201723,0.0634629
0.0277532,-0.143931
0.0063736,-0.141741
-0.0166662,-0.0393947
-0.0681539,0.0676101
-0.103807,0.195196
-0.0127759,0.122371
0.0940821,-0.0599316
0.0843727,-0.0867812
-0.0109874,-0.0396711
-0.0516443,0.0436115
-0.0402401,0.0296192
0.0987156,0.00834687
0.229014,-0.00974807
0.28595,0.0193491
0.195864,0.00467889
0.0180023,0.0111802
-0.172988,0.0237852
-0.25372,0.0232882
-0.214984,-0.00624844
-0.131375,-0.0244902
-0.0963751,-0.00142517
-0.0175685,-0.00414906
0.0630913,-0.0964263
0.0474432,-0.093817
0.0288378,-0.100332
0.0640903,-0.193793
0.00077781,-0.0174399
-0.0353526,0.158932
0.00996345,0.130491
-0.0341889,0.0637743
-0.0628246,0.0801238
-0.0433624,0.145637
-0.107779,0.154249
-0.171591,-0.0789857
-0.152361,-0.0184474
-0.0707139,0.0961665
0.0481522,-0.107765
0.1499,-0.0567167
0.196189,0.03673
0.171172,-0.0382308
0.111264,-0.0592125
0.0183466,-0.054285
-0.0247193,0.0452282
0.00469705,0.0292356
0.0592792,-0.0103714
0.043692,-0.0182466
-0.00201897,-0.0105737
0.0361666,-0.00198927
0.0432104,0.0124164
-0.000420293,-0.0261758
0.00679211,-0.0526979
0.0577298,-0.0359405
0.0726769,0.129894
0.0269873,-0.0126956
-0.0566981,-0.057772
-0.155426,0.0219912
-0.159007,0.0287578
-0.083077,0.00581418
-0.0373576,-0.0261985
-0.0283514,-0.0823028
0.0100405,-0.0828155
0.0266835,-0.0801342
-0.00431985,-0.102091
-0.0829995,-0.0985168
-0.0764543,-0.0173661
0.033631,0.0580876
0.118763,0.0697519
0.115196,0.140156
0.0164538,0.177901
-0.0701388,0.0941497
0.0550658,0.077955
0.157854,0.0777143
0.147797,0.0309109
0.0761358,-0.0177957
-0.0559247,-0.0378559
-0.212879,-0.0305363
-0.215309,0.00546724
-0.0974498,0.0206646
-0.0302674,-0.0305186
-0.0212439,-0.0368273
-0.029697,-0.00546519
-0.0413033,0.0684029
-0.064639,-0.0415541
-0.0609542,-0.0791169
0.010166,-0.0901797
0.123765,-0.141289
0.158257,-0.0628342
0.101096,-0.0379568
0.0436203,0.0100082
0.0306137,0.049768
0.069186,0.0445926
0.132433,-0.00610157
0.117672,-0.0057694
0.0371906,0.0488344
-0.013908,0.0493362
-0.0556636,-0.000795327
-0.0946574,0.0503226
-0.0328964,0.0873484
0.0295356,-0.0314456
-0.0102661,-0.11151
-0.0779187,-0.0715154
-0.12304,-0.018958
-0.138663,-0.048185
-0.14062,0.0308673
-0.106242,0.137623
-0.0172955,0.117106
0.02147,-0.0221864
0.0407078,0.0184508
0.0373616,0.0107925
0.0495483,-0.0659009
0.0574528,-0.0635798
0.0284585,-0.0192248
0.0112114,0.00461584
0.0262375,-0.016797
0.0524928,0.0384105
0.0671699,0.0281685
0.0598447,0.012257
0.0293728,-0.0205847
0.00198358,0.0338095
0.0172788,0.0219577
-0.00500143,-0.0377943
-0.0579438,0.017439
-0.0857996,0.071323
-0.066971,0.0319165
-0.00241246,-0.0134147
0.0479367,-0.10105
0.10822,-0.125638
0.147511,-0.101344
0.102455,-0.104512
-0.000481459,-0.0355031
-0.0630667,0.0548221
-0.0624143,0.11921
-0.0493686,0.10372
-0.0150955,0.0444228
0.0242098,0.0550357
0.0553554,0.140516
-0.00359238,-0.0351507
-0.0339126,-0.051166
-0.054494,-0.00721993
-0.0762613,-0.0547151
-0.0567204,0.0135255
-0.0729795,0.0404908
-0.0900141,-0.0451731
-0.0725378,-0.047721
-0.0550062,0.0273779
-0.00130202,0.00696598
0.0840326,-0.0108493
0.108018,-0.0299031
0.101944,-0.0816563
0.0578381,-0.0308206
-0.0199408,0.0503593
-0.0587135,0.0331305
-0.0276319,-0.0515921
0.0245326,0.0381274
0.0456515,0.0694819
0.0480866,-0.00529983
0.0584736,0.0285045
0.0382759,0.00949412
0.0134925,-0.0181119
-0.0104646,0.0179071
-0.0378558,0.027868
-0.0646376,-0.0105247
-0.0586713,0.0325449
-0.0366849,-0.0547295
0.016993,-0.0258383
0.0442774,-0.00450509
0.0343197,-0.0152022
0.00473546,-0.0344153
-0.0202013,-0.0599774
-0.0096931,-0.0394376
0.0225752,0.0430295
0.0195616,-0.011063
-0.0140812,-0.0123966
-0.00777633,-0.015234
-0.0110156,-0.017416
-0.066927,0.058484
-0.0763616,0.0802791
-0.0139002,0.0773228
0.00800311,0.0159461
0.0399021,-0.0154291
0.0692283,0.0103726
0.0428837,0.00938434
-0.0134737,-0.0329109
-0.0212528,-0.0291247
-0.0067472,0.030336
-0.0171359,0.0108979
0.0121725,-0.022298
0.0243339,-0.0295703
0.0246251,-0.0295403
-0.00936249,-0.0712941
0.00607584,-0.00217712
0.0144069,0.0320777
9.01e-06,0.0245203
-0.0450436,0.00303932
-0.0620225,-0.00748182
-0.0186855,-0.00692221
0.0130576,0.0064092
-0.0152324,0.0450034
-0.0150945,0.0667812
-0.0108443,0.013599
-0.00333087,-0.0108781
0.0712751,-0.0462121
0.0771804,-0.0157182
0.0333724,-0.0241783
0.0484075,-0.0378178
0.0601392,-0.0299361
0.0113149,0.0197332
-0.0599551,0.0750997
-0.0720003,0.0207949
-0.0600308,-0.049395
-0.0144144,-0.024281
0.0594475,0.0237123
0.0547539,-0.00629022
-0.00641588,-0.0613904
0.00373897,-0.0328498
-0.00785154,0.0188988
-0.0649124,0.0426386
-0.0517997,0.0481415
-0.0322547,0.0562422
-0.0358625,0.0356479
-0.0168001,0.0218174
0.0159923,-0.00504254
0.00654319,-0.119656
-0.0359076,-0.180854
-0.0635211,-0.0850849
-0.0245194,-0.0163617
0.0292261,0.0755218
0.082075,0.120228
0.107734,0.0847764
0.097819,0.0562206
0.0438763,0.0195051
0.0135426,0.115734
-0.0215143,0.0384619
-0.0698914,0.00642679
-0.0435982,0.00924767
0.02279,0.000102184
0.0398457,-0.0898225
0.0210708,-0.0900234
-0.0230481,0.0365262
-0.0536435,-0.0109138
-0.0596736,-0.0142173
-0.0212346,-0.0129742
0.0312329,-0.0239505
0.0857043,0.000507217
0.118074,-0.0962101
0.051492,-0.0722389
-0.0657444,0.0330529
-0.121568,0.0268588
-0.0705234,-0.026668
0.0492229,0.0515336
-0.00604787,0.000439635
-0.0559308,-0.0514172
-0.0637396,0.0448048
-0.0542276,0.00940245
-0.0301508,-0.043171
0.00255476,-0.0671762
0.0481648,0.0334188
0.0659957,0.0368286
0.0479401,0.055946
0.0330183,0.0268721
0.0158978,0.0159387
-0.015511,0.00173498
0.0332191,0.077271
0.0849044,0.121061
0.0671221,-0.016827
0.118525,-0.095576
0.123855,-0.0449892
-0.0107985,-0.0163899
-0.161925,-0.0084549
-0.196245,0.00913374
-0.165868,0.0123531
-0.0973563,0.0124443
-0.0220827,-0.00637348
0.0311581,-0.0101589
0.0281448,-0.0570457
0.0102364,-0.0294726
0.00582551,0.0450714
0.0201641,0.0199791
-0.0112879,-0.000483021
-0.0490446,-0.0241065
-0.019241,-0.0342936
0.0149512,-0.0496738
0.0146449,-0.0172511
0.0131296,-0.0215547
0.0349318,0.0532317
0.0585049,-0.0122178
0.0684932,-0.0362607
0.0519516,0.0292881
0.0235142,0.0216609
0.00512391,0.0189169
-0.00601321,0.0527791
-0.033576,-0.0222408
-0.0102961,0.0592634
0.0472846,0.0455699
0.0711666,-0.0174428
0.0397142,-0.00111214
-0.00656387,-0.0290341
-0.00988218,-0.0532565
0.00923471,-0.05679
0.0225613,-0.0357082
0.000714082,-0.0729961
-0.0702979,-0.0463912
-0.130958,0.0721196
-0.108652,0.142792
-0.0707051,0.107672
-0.0269432,0.0370196
0.00683266,0.0439854
0.00636481,-0.0203691
0.0125373,-0.0492096
0.0230506,-0.00859732
0.029786,0.0034926
0.0204065,0.0299604
0.0047963,0.00137392
0.00685865,-0.0460538
-0.00625089,-0.0701889
-0.00336369,-0.0535965
0.0180184,-0.0426825
0.0207374,-0.0186199
0.0182602,0.0123653
0.0203496,0.0229581
0.031473,0.0341403
0.0652725,-0.0397289
0.0927662,-0.142077
0.103109,-0.0520631
0.0206607,0.0833282
-0.0585215,0.0242381
-0.0555997,0.0369694
-0.0599981,0.0569705
-0.04398,0.0735063
-0.01297,0.11289
0.0259378,0.0947764
0.00956394,-0.0846133
-0.0249271,-0.0541506
-0.0169001,0.0169218
-0.0089441,-0.0196703
-0.0438911,0.00916402
-0.0769342,0.0300922
-0.0496499,0.00491799
-0.0351637,0.0154607
-0.022017,0.00622038
0.0122461,-0.0129155
0.0361093,-0.0263928
0.0180743,-0.0827704
0.00940479,-0.0753426
0.00285839,-0.0264642
-0.00551858,0.0201955
-0.00281313,-0.000301833
0.0292634,-0.00134982
0.053268,0.0450984
0.0614428,0.0353804
0.0447505,0.0237701
0.0342647,-0.031593
0.0444594,-0.00567993
0.0088109,-0.0143655
-0.0432833,-0.103675
-0.0568383,-0.0281737
-0.0796117,-0.00242744
-0.0726048,0.0181863
0.0212328,0.0442218
0.0727914,0.0343013
0.0401542,0.0433272
-0.00809702,0.018405
-0.031294,0.00231296
-0.03747,-0.00567019
0.00165098,-0.00347599
0.0786992,-0.003688
0.11254,-0.00484944
0.0679436,-0.0341926
0.027132,0.0350552
-0.0612059,0.0978063
-0.148268,0.0147497
-0.104971,-0.0307458
0.00193114,0.0040247
0.026115,-0.0130278
0.00884527,-0.0664386
0.0175776,-0.0590541
0.0175871,-0.00192006
-0.043254,0.0487927
-0.087663,0.0392476
-0.085525,0.00297568
-0.0330101,-0.038458
0.0201391,-0.036936
0.0140555,-0.0901704
-0.0224742,-0.030543
-0.0440252,0.0554779
-0.0209472,0.0134499
0.0403023,-0.00165747
0.0677926,0.0475272
0.0701452,0.0399854
0.101364,0.017701
0.164185,0.0349157
0.147127,0.014884
0.0655012,-4.52e-05
-0.0431319,0.00810539
-0.0995703,0.0296115
-0.0519597,0.00327103
-0.0106476,-0.0604003
-0.027216,-0.00568295
-0.0740917,-0.0397507
-0.0858649,-0.039584
-0.068793,-0.00984156
-0.0454584,-0.00756383
0.0184436,0.0362695
0.06888,0.0367425
0.114926,0.0131837
0.114862,0.034593
-0.00348738,0.0123977
-0.10239,-0.0492724
-0.088326,-0.0407696
-0.0509744,-0.0492391
-0.00717938,-0.0596351
0.0136688,-0.00684128
0.0268861,0.00558332
0.0620334,0.0325973
0.0699015,0.0147857
0.0273336,0.0345175
-0.0274476,4.54e-05
-0.0692727,-0.0150721
-0.0607881,-0.0351191
-0.0600649,-0.0193709
-0.0546186,-0.00212746
-0.0305358,0.105815
-0.00652264,0.0959841
0.0259835,-0.0377313
0.0477223,-0.0164314
0.0460779,0.0237049
0.0548981,0.0138779
0.0638655,-0.0271654
0.0574896,0.0232909
0.0164019,-0.0271238
-0.00433677,-0.00516434
-0.0140668,0.0600746
-0.0680694,-0.0106473
-0.0783911,-0.0619769
-0.0390711,-0.0771447
-0.0164184,-0.0288477
0.00784647,0.00848918
0.0497249,0.0201753
0.0759614,0.0536219
0.059061,0.0873993
0.0171211,0.0931497
-0.0555611,0.00354097
-0.0822008,-0.0865519
-0.0488479,-0.0844448
-0.00556492,-0.0391016
0.0469079,0.0285506
0.0817912,0.0520147
0.052492,0.0241307
-0.0354656,-0.0414992
-0.105583,-0.0702105
-0.109218,-0.0166548
-0.0413362,0.0279042
0.00578025,0.00380335
0.0255222,-0.00392892
0.0441894,0.0207812
0.0491893,0.0648076
0.0419024,-0.0159215
0.049717,0.00158057
0.0335564,0.0190405
-0.00267351,-0.0301164
-0.0147162,-0.0488081
-0.0158682,0.0150011
-0.0272356,-0.00270982
-0.0182478,-0.016789
-0.00922516,-6.02e-05
-0.000989026,-0.0398733
0.0396843,0.00986675
0.0571205,0.0165055
0.0563298,-0.0344854
0.0376757,0.0228896
-0.00825036,0.0189087
-0.0619641,-0.0285301
-0.095649,-0.0389779
-0.0838218,-0.0582498
-0.0550813,-0.0596107
-0.0258154,-0.0173446
0.0327813,0.0436309
0.0781866,0.0735348
0.0740783,0.0640706
0.0873108,0.0389519
0.0999421,0.0286388
0.0709209,0.00715461
0.00877423,-0.00667098
-0.0539412,0.0595393
-0.0682341,0.03831
-0.0198235,-0.0136496
-0.0339929,-0.0172095
-0.1039,-0.0233036
-0.139552,-0.0365541
-0.0987394,0.00727768
-0.0212733,0.0500132
0.0508817,0.0100083
0.0509833,0.00976788
0.00206409,-0.0204538
-0.0183593,-0.0152441
-0.0199807,-0.0409978
-0.000479654,-0.0474501
0.0240986,-0.00216485
0.0372043,0.029767
0.0351606,0.0394155
0.0222456,-0.0340633
0.00714339,-0.0125385
0.025045,0.00212782
0.0593431,0.0269507
0.0497946,0.00276152
0.0174289,-0.00555561
0.0117225,-0.0146163
0.0201509,-0.0220626
0.0189395,0.00417071
0.00390338,0.0220697
-0.00820639,-0.0199562
-0.0150332,-0.0276817
-0.0490873,-0.0870092
-0.0615179,-0.0902651
-0.0527008,0.0657779
-0.0452666,0.103357
0.00756846,0.0347324
0.0463456,-0.0116732
0.0763034,-0.00115942
0.0630419,0.0640465
0.00221586,0.0121675
-0.055313,-0.00386627
-0.0760862,0.0034914
-0.0627405,-0.026322
-0.0573555,-0.0465263
-0.0377334,-0.0476042
0.0209364,-0.0244636
0.0635391,0.024644
0.0615684,0.0261784
0.0387685,0.0186594
-0.0026281,0.0429654
-0.0411348,-0.0393643
-0.019597,0.000945382
0.0235387,-0.0212155
0.0459125,-0.0408893
0.0270454,-0.0385218
-0.0064682,-0.0350645
0.0119867,-0.0066666
0.0876455,0.0314372
0.0892546,0.0730537
0.0356451,0.0455684
-0.0471114,0.0229307
-0.105415,0.0353336
-0.0962059,0.00303601
-0.00283817,0.0132394
0.0352563,0.0323015
-0.00543829,-0.020998
-0.0398791,-0.0323611
-0.0715976,-0.00761846
-0.0666846,-0.0031161
-0.0264747,-0.00489673
-0.00808457,0.00438664
0.00704091,0.0280081
0.0237679,0.0140104
0.0637938,0.0366004
0.0965649,0.0277741
0.0901026,-0.0449577
0.0399946,-0.104123
-0.0437733,-0.0653371
-0.0860523,-0.00228167
-0.0269275,0.0292658
0.0486977,0.0457784
0.0380836,-0.00115914
0.00451613,-0.00624504
-0.0366242,-0.0206137
-0.0698794,-0.0321541
-0.0726501,-0.0432349
-0.058118,-0.00072795
-0.0338811,0.0535549
0.0152815,0.0353832
0.0583412,0.0351507
0.0772187,0.00337409
0.0592611,-0.04175
0.0342993,-0.0393418
0.0035793,-0.0107955
0.00736133,-0.00876703
-0.0169323,-0.0458292
-0.0196496,-0.0318101
0.0390537,0.0711149
0.0542704,0.122232
0.0238721,0.0069964
-0.0318926,0.0948172
-0.079803,-0.0396534
-0.0640595,-0.0938681
-0.0110714,-0.0355873
0.0159565,-0.00390208
0.0142122,0.00124801
0.02077,0.0224582
0.0251441,0.00498565
-0.00416319,0.00456131
-0.0243555,0.000667795
-0.0315501,-0.0121159
-0.0356194,-0.0149894
-0.0396785,0.0176767
-0.0341464,0.0169799
-0.0226539,-0.0127489
-0.0310088,-0.00809726
-0.0282819,0.00644035
0.00912012,0.00574558
0.0567218,0.00983281
0.0392256,0.00359899
0.0118306,-0.00458377
0.0239316,-0.00167086
0.0510572,0.0103569
0.0731777,0.0206729
0.0503968,0.024099
0.0503151,0.015608
0.0945746,-0.000620969
0.120149,-0.0453045
0.0835656,-0.0407982
0.0148862,-0.0393264
-0.100701,-0.00688545
-0.180832,-0.0021753
-0.106929,-0.0407271
-0.0386682,-0.03979
-0.00715148,-0.00561642
0.00628669,0.0773951
-0.00078594,0.0841533
0.0134759,0.0118985
0.0305865,-0.0222337
0.0178577,0.00479174
-0.0162427,0.0283181
-0.0576105,0.0216052
-0.0845868,-0.00131878
-0.0869872,-0.0307829
-0.0915328,-0.0213705
-0.0709108,0.0196473
-0.0203888,0.0268511
0.0189034,0.0337434
0.0305509,0.0204215
0.0180578,-0.016502
0.0241046,-0.0258419
0.0547647,-0.0220456
0.088871,-0.0231057
0.1095,-0.0142635
0.093835,-0.0543305
0.0403436,-0.0813127
0.00466626,-0.0834337
-0.00439013,-0.0899818
0.00119095,-0.0114721
-0.0164166,0.0611842
-0.0640833,0.073658
-0.0971518,0.0766818
-0.0336414,0.0690992
0.028608,0.0595603
0.0126527,0.0359729
-0.00298811,0.0257944
-0.00141098,0.0428058
0.0116897,-0.0104182
0.0220176,-0.0155146
0.00407466,-0.0159913
-0.00535469,-0.0241477
-0.0149944,-0.00565482
-0.0139088,0.0710429
0.0120503,0.0755637
0.0258717,-0.0426294
-0.00828608,-0.0669037
-0.0341887,-0.074245
0.000809606,-0.0992259
0.0594349,-0.0928176
0.0599138,-0.0638306
0.0306862,0.0178609
0.011011,0.0503366
-0.0123569,0.0743167
-0.0391979,0.0606189
-0.0490587,0.0363328
-0.0510916,0.0282881
-0.0389656,0.0168081
-0.0171699,-0.00166602
0.028579,0.0169951
0.072562,0.0188145
0.0954908,-0.0165272
0.0844855,-0.0399111
0.0101998,-0.0434151
-0.0683976,-0.0283567
-0.105035,-0.0235333
-0.0888357,-0.0139798
-0.044846,0.0125533
-0.0306847,0.0314167
-0.00915685,0.0395552
0.0258532,0.0339124
0.0312079,0.00216805
0.0168532,-0.00841628
-3.68e-05,-0.00851608
0.000422997,-0.00842232
0.00999406,-0.00471477
0.0172374,-0.00369908
0.00853356,0.00234836
-0.00324062,0.0160035
-0.00328319,-0.017
-0.00313068,-0.0253354
-0.0110074,-0.00347651
-0.00433891,-0.00957366
0.0168699,0.0168544
-0.00231278,0.089168
-0.0219289,0.0150108
0.0218137,-0.0758955
0.0276159,-0.0362293
-0.00361322,-0.0191625
-0.0110785,-0.014782
0.00705213,-0.0181933
0.0149482,-0.0220092
0.0269758,-0.00486454
0.0256025,0.0150936
-0.00893574,0.0371845
-0.0666762,0.0133522
-0.0801293,-0.00260827
-0.0305088,0.0582895
0.0103906,0.0342984
0.0475767,-0.0119128
0.0672679,-0.0160952
0.0518406,-0.0185731
0.0314738,-0.0190498
0.0233598,-0.0122876
0.0267419,0.00111255
0.0106452,0.00194941
-0.0305146,0.00518833
-0.0618923,0.0100109
-0.044893,0.00328909
-0.0178503,0.0142529
-0.0141089,0.0129863
-0.00444553,-0.00633065
0.014123,-0.00709479
0.0095894,-0.00555453
-0.0203337,-0.000196611
-0.0213545,-0.00294606
0.00098408,-0.00661537
0.0316293,0.00511181
0.0325399,0.00739323
0.00146388,-0.0175171
-0.0137312,-0.0394937
-0.0144109,-0.039007
0.00521402,0.0147837
0.0412096,0.0212485
0.0541497,-0.00670254
0.0565239,0.00324377
0.0552387,0.0107859
0.0457168,-0.014092
0.0199609,0.045056
-0.0277813,-0.00386109
-0.0780564,-0.0334101
-0.106096,-0.0414834
-0.0789485,-0.000397007
-0.0357822,-0.00351764
-0.012848,0.0260014
0.0146921,0.0331215
0.00472104,-0.0120276
-0.0111035,0.00589024
-0.00889875,0.047523
-0.029956,0.0133734
-0.0203037,-0.0145364
0.000460528,0.00048241
0.00523606,0.0281843
0.00585847,0.0420639
1.83e-05,0.0340176
-0.0101653,0.0192481
-0.0157532,0.0199472
-0.0107108,0.0440964
0.000793972,0.0293945
-0.00153035,-0.0265751
0.0202421,-0.0598392
0.0534435,-0.0732882
0.0460615,-0.0370461
0.0266636,-0.0174193
-0.00648563,0.000382672
-0.0262347,-0.00408054
0.0087955,-0.0215356
0.0417259,-0.0238493
0.0442403,-0.00961659
0.0223469,-0.000447307
0.0607575,-0.00498502
0.0952028,-0.0539706
0.0727309,-0.1163
0.00473189,-0.111213
-0.107628,0.00221156
-0.137852,0.123428
-0.0700363,0.103816
-0.0156541,0.0882632
0.00945743,0.0934717
0.028769,0.0448945
0.0476482,0.014937
0.0350203,-0.0210699
0.0069802,-0.0327026
0.0139401,-0.00825428
0.00294739,0.0333251
-0.0485518,0.0695323
-0.0926583,-0.0299823
-0.0989677,-0.0225005
-0.0430064,-0.00892141
-0.00594509,-0.0194617
0.0106988,-0.0627326
0.0223459,-0.0318734
0.0209413,-0.00947917
0.0151877,-0.0145277
0.0275732,-0.0292071
0.0332573,-0.023332
0.0376207,-0.0362389
0.0297815,-0.0648861
-0.0195432,-0.0189844
-0.0488152,0.0451392
-0.0382619,0.0482187
-0.0177369,0.0430622
-0.0169784,0.0403218
-0.018503,0.0285542
-0.0119476,0.0175231
-0.0151765,0.0211834
-0.0144669,0.0232817
-0.000333292,0.0118183
0.0205161,-0.00390259
0.0380172,-0.0148673
0.0290662,-0.0189771
0.0216656,-0.00747277
0.0678886,-0.00735579
0.170261,-0.0208585
0.231716,-0.0164538
0.174188,-0.00737768
0.00741864,-0.0150482
-0.137834,-0.0226133
-0.208593,-0.0388612
-0.172363,0.0304347
-0.078038,0.0202323
-0.0533008,-0.0217341
-0.0693544,-0.0546518
-0.0650987,-0.0834429
0.00487429,-0.0642592
0.0329954,0.0260371
0.0218485,0.0698712
-0.00486615,0.126729
-0.0449706,0.0502508
-0.022218,-0.0269511
0.0354613,0.020003
0.0545544,0.018679
0.037081,0.0133094
0.0258074,0.0293817
0.0335657,0.0289988
0.0476776,0.0588314
0.0784224,0.0281204
0.0707953,-0.0260903
0.0291553,-0.0216552
-0.0209533,-0.00408035
-0.0630846,0.00377155
-0.0516212,0.00581806
-0.0290816,-0.020456
-0.0224544,-0.0392674
-0.0202253,-0.0352554
-0.0165359,-0.0241139
-0.0171077,-0.0186607
-0.023168,-0.0271751
-0.0295163,-0.037775
-0.02219,-0.0394276
-0.00466286,-0.02514
0.0032064,0.0111194
-0.00231719,0.0387908
-0.0287645,0.0249746
-0.0110459,0.0243763
0.0712734,0.0224526
0.115154,0.00478703
0.110852,-0.00697101
0.0904851,0.0118705
0.05866,-0.0146029
0.0199549,-0.0032894
-0.0352495,0.0502664
-0.119001,0.00292694
-0.145064,-0.0141121
-0.0638994,-0.0259294
0.00277791,-0.0509433
0.00706973,-0.0110603
-0.0138924,0.0129605
-0.0455525,-0.00290754
-0.0454034,0.0139761
-0.00746334,-0.00845585
0.0130261,-0.0916679
0.0119432,-0.0854658
0.0315989,-0.0110277
0.0572373,0.0809907
0.0755692,0.107704
0.0461252,0.0555918
0.000282925,0.0213358
-0.0168585,0.018276
-0.0253315,-0.0146226
-0.0290254,0.0318169
-0.0112561,0.0207911
-0.00328588,0.00540852
-0.00738933,0.00486153
-0.00683812,0.00206773
-0.00388379,-0.000658583
-0.0161947,-0.00250649
-0.0282469,-0.00208817
-0.0241281,0.00508624
-0.00406545,0.00808765
0.0147274,0.00137854
0.0155032,-0.0108047
0.00472059,-0.0162814
-0.00505945,-0.0100924
-0.00185768,-0.000462332
0.00242191,0.0045123
0.00568561,-0.00605022
0.0176724,-0.0200353
0.00909436,-0.0210853
0.00585464,-0.0109936
0.00900935,-0.00447919
0.00125087,-0.039605
0.000823205,-0.0932934
0.0165774,-0.120322
0.0426587,-0.0156786
0.0804803,0.0944956
0.126257,0.0804016
0.0744552,0.0562615
-0.0349133,0.0116589
-0.102187,-0.010706
-0.103478,-0.00022541
-0.0766128,-0.00987854
-0.0578742,-0.0421182
-0.030638,-0.0082794
0.0184218,0.000380948
0.0439933,-0.0343816
0.0407489,-0.0536522
0.0153219,0.00196696
-0.0137471,0.0611432
-0.0239931,0.094133
-0.0590081,0.0785322
-0.0546114,0.0659487
-0.048737,0.0381962
-0.0355264,0.0088608
0.00595896,-0.01661
0.0236572,-0.0394583
0.0224126,-0.024543
0.0172342,-0.00699334
0.0203277,-0.00385915
0.0300295,-0.00583751
0.0311057,-0.0165633
0.0213684,-0.0213551
0.0105743,-0.0113916
0.00656928,-0.00278473
0.00754471,-0.00190662
0.00426311,-0.000223831
-0.00690397,0.00308673
-0.0201908,0.00177053
-0.019926,4.72e-05
-0.0074717,-0.00136973
0.00650638,-0.00688744
0.0114744,-0.0135816
0.0120051,-0.0202529
0.00991198,-0.0226853
0.0261844,-0.0264664
0.0637173,-0.0259418
0.103924,-0.000575922
0.103359,-0.00564065
0.0518973,-0.0500839
0.010319,-0.0232604
-0.0291432,-0.017492
-0.0776044,0.00468634
-0.085026,-0.0103034
-0.0229813,0.0691848
-0.0290429,0.183302
-0.103988,0.0555035
-0.140037,0.015381
-0.108963,0.00505263
-0.0286717,0.0258399
0.0468105,0.0328575
0.104928,-0.0399477
0.125325,-0.0268857
0.0583685,-0.0906947
-0.031745,-0.0987289
-0.0473762,-0.0389005
-0.0307757,-0.0558049
-0.02205,-0.0143493
-0.0158712,0.0457729
0.00475905,0.0341247
0.0137515,0.0487605
0.00460914,0.0295743
0.0104896,0.0136841
0.00643428,0.0196787
-0.00995393,0.00784477
-0.00230008,-0.0219426
0.017316,-0.0132794
0.0215354,0.0270976
0.0220495,0.0182486
0.0108551,0.0130735
0.00726645,0.0163033
-0.00520302,0.00265909
-0.0217173,-0.00656107
-0.0266242,-0.00665443
-0.0150026,-0.00448157
0.00126841,-0.00430143
0.00159116,-0.00798569
-0.0112198,-0.0118375
-0.0241311,-0.0166684
-0.0253005,-0.0150533
-0.015007,-0.0087847
-0.00301032,-0.00639235
-0.00538316,-0.00854823
-0.0169727,-0.00992435
-0.0224398,-0.00501346
0.0088561,0.00822605
0.115501,0.0201958
0.238217,0.006544
0.317807,-0.0230214
0.278627,-0.0311535
0.102066,-0.0158581
-0.114229,-0.0127327
-0.23052,-0.0139159
-0.251814,0.0110448
-0.226901,0.0180054
-0.0975602,-0.00972025
0.00213192,0.000829871
-0.0023037,-0.0016039
-0.0449728,0.0439966
-0.0951485,0.00799245
-0.0990835,-0.0171714
-0.126706,-0.0453205
-0.0705135,-0.0392092
0.02313,0.0679183
0.0488304,0.0959457
0.0360794,0.0418451
0.0217115,0.00463175
0.0390319,-0.000829984
0.0707586,0.00728005
0.0895271,0.0326498
0.0852065,0.0302583
0.0541744,0.00711195
0.0142527,-0.00527406
0.00284388,-0.0254306
0.0297601,-0.0297262
0.0387261,-0.0345539
0.0181411,-0.0492201
-0.00820475,-0.0297721
-0.0168808,0.0124392
-0.0250819,0.0249217
-0.0349243,0.0197834
-0.0401237,0.00529188
-0.0348509,-0.00300266
-0.0200242,-0.00747329
-0.00623306,-0.00802341
0.019766,-0.0097946
0.0478244,-0.00979683
0.053143,-0.0108894
0.0379486,-0.0263308
0.027404,-0.0154077
0.0384757,0.00996868
0.0418259,-0.0308541
0.0264327,-0.042236
-0.000192154,-0.0388356
0.0234814,-0.0106639
0.0252161,0.0288535
-0.0253692,0.0884115
-0.0902125,0.05017
-0.101856,-0.00295829
-0.0950113,-0.0074448
-0.0994631,-0.00321051
-0.085748,0.0200107
-0.0300506,-0.000848938
0.0187654,0.0164562
0.0447428,0.0384344
0.0557767,-0.00942394
0.104324,-0.0474554
0.179627,-0.00670891
0.146308,0.00504946
0.0207292,-0.0329936
-0.1172,-0.0301221
-0.174612,0.00498198
-0.114385,0.00771852
-0.0462473,-0.00142989
-0.0205232,-0.0160127
-0.0141245,-0.0139353
0.0258427,0.0545411
0.0509925,0.0520826
0.041278,0.0189873
0.0220011,0.0145642
0.00131044,0.0104431
-0.0180845,-0.00711197
0.00521863,-0.0262251
0.0308803,-0.0338581
0.0257508,-0.012832
0.0160271,0.0329079
0.00886184,0.0270339
-0.00197857,0.00799881
-0.0150486,0.00902182
-0.01744,0.0027705
-0.00742784,-0.0212628
-0.00596601,-0.0325702
-0.0104003,-0.0368215
-0.0127869,-0.0281217
-0.0126306,-0.0361812
-0.0120033,-0.0455194
-0.00685647,-0.018196
0.0366653,0.0175188
0.0606587,0.00375359
0.0351226,0.00292791
0.0108365,-0.00484374
0.000159331,0.0129777
-0.00530689,0.0441253
0.0367217,0.0348195
0.0449042,0.0153918
0.00415132,-0.00707194
0.0190022,0.00501979
0.00956965,0.0279229
-0.00215153,0.0200078
-0.065057,0.0352773
-0.119685,0.0172564
-0.103362,-0.00883278
-0.063869,0.00564422
0.00814923,0.0243486
0.0890611,0.0191099
0.0722354,-0.0379092
0.00118955,-0.0471107
-0.017564,-0.0446861
-0.00959456,-0.0374428
0.0484784,0.0205817
0.107428,0.0168133
0.0524698,0.0365365
-0.0404487,0.0313109
-0.0955692,-0.00784896
-0.0978537,-0.0322751
-0.0554456,-0.0342582
-0.0122779,-0.0358798
0.0192571,0.0138826
0.0333427,0.0132668
0.0280164,0.00716249
0.000733839,-0.00949096
-0.014039,-0.0112866
-0.0168206,0.0354957
-0.00963705,0.0260174
0.00919517,-0.0221164
0.0342775,-0.0195743
0.0243512,-0.00023876
0.016661,0.0122988
0.0485948,0.0199202
0.0628483,0.00944339
0.0397854,0.00917057
0.00593685,0.00265464
-0.0265164,-0.0223413
-0.0439731,-0.00650793
-0.00479604,-0.00871064
0.0264147,-0.00243832
-0.0145763,-0.00530713
-0.0670755,-0.0616289
-0.0936527,-0.0883062
-0.0662841,-0.0151997
-0.0137584,0.104167
0.0197758,0.0920517
0.033142,0.0255031
0.0289685,-0.0162684
0.0139356,-0.0486286
0.00731608,-0.0303887
0.00839597,0.0115382
0.0257922,-0.0111689
0.0422237,0.012928
0.0344734,0.0172864
0.00658051,0.0432466
-0.0279577,0.0199008
-0.0322444,-0.00104782
-0.0332615,0.0128495
-0.0328566,0.0023258
-0.0140715,-0.0254691
0.00569863,-0.0287106
0.0166484,-0.00482916
0.00388094,-0.0236613
-0.0118353,0.00685924
-0.0242859,0.0315309
-0.0256921,0.00785746
0.0034842,0.0117071
0.0297478,0.0309522
0.0314929,0.00172999
0.0138381,-0.0101811
-0.00596013,-5.51e-05
-0.00705415,-0.0429478
0.0057592,0.0135768
-0.00704626,0.0211327
0.00856059,-0.00841311
0.0436631,0.000306455
0.0861794,0.00426794
0.149889,-0.0303763
0.148317,-0.0719862
0.0751531,-0.0824831
-0.00958848,-0.0317758
-0.118002,0.0150971
-0.145554,0.0236166
-0.111345,0.0262376
-0.118138,0.0214879
-0.0979972,0.00450707
-0.0223817,0.0192884
0.0313201,0.0399682
0.0214353,0.0239082
-0.00167279,0.0296806
-0.00705457,-0.0253693
-0.0149027,-0.0592693
-0.020491,0.0361388
-0.0130983,0.0699047
0.00611035,0.0106524
0.0308131,-0.027403
0.0339283,-0.0147612
0.00828101,-0.0312847
0.000628266,-0.00567498
0.00555438,0.0176128
-0.00411787,0.00326463
0.00675224,0.00920812
0.0232201,0.00851771
0.0268409,0.000150261
0.00269351,-0.0525687
0.00570758,-0.0377521
0.0252543,-0.0885228
0.0217191,-0.0548231
0.000879655,0.121371
-0.0295737,0.125979
-0.0377503,0.0413462
-0.0215491,0.0208767
0.000935812,0.0146127
0.0163021,-0.00217774
0.016689,-0.0279937
0.0190981,-0.0323859
0.0282963,-0.0202681
0.0166443,-0.0118859
0.00988396,-0.0142955
-0.0242135,-0.0213389
-0.0514949,-0.018866
-0.0305903,-0.00848115
0.00682363,0.00258985
0.03044,0.0152423
0.038853,0.0144792
0.0358431,0.0101369
0.0238378,0.0252483
-0.0193793,0.0157001
-0.0398226,0.000652658
-0.0249652,-0.019981
-0.0105209,-0.0171663
-0.00704147,-0.00495098
-0.008151,-0.0164606
-0.0131528,-0.0131292
-0.0114737,-0.000751933
0.0029097,-0.00376414
0.0359717,-0.00039738
0.0599845,0.00478483
0.0624497,0.0114541
0.0198237,0.0141018
-0.0410221,0.0111313
-0.0820069,-0.0197994
-0.0824782,-0.0197592
-0.0657156,-0.020724
-0.0493813,0.0359637
0.0128624,0.0237105
0.142593,-0.00989553
0.252879,-0.00627258
0.201459,-0.0218232
0.0398604,-0.00304385
-0.115826,0.0134485
-0.190963,-0.00847331
-0.159875,0.0042019
-0.0874652,0.0283927
-0.0147643,-0.0489908
0.019804,0.0141511
0.0107625,0.0348748
-0.0151221,0.0318937
-0.0184588,0.0278443
-0.0248035,0.0204756
-0.0150976,0.0207727
-0.0136089,-0.0151397
-0.0249856,-0.0478814
-0.000881337,0.0103166
0.0261547,0.0114033
0.0173114,-0.0609408
0.0134832,-0.0507733
0.0161721,-0.0330198
0.0176644,-0.0239921
0.00579796,-0.00407491
0.0358934,0.013878
0.106427,0.0493329
0.122018,0.0221392
0.087238,-0.0161124
0.0323754,-0.0120467
-0.0108432,0.0520998
-0.0400875,0.0688968
-0.0628479,0.0135
-0.0659127,0.00822065
-0.0423898,-0.0240897
-0.0212464,-0.0708585
-0.00739175,0.019814
-0.010921,0.0423661
-0.0286313,0.0064186
-0.0536276,-0.0513764
-0.0671965,-0.0735634
-0.0527089,-0.0678497
-0.0118855,-0.0585056
0.0241978,0.062871
0.0293322,0.0438421
0.0337349,0.00266885
0.0656072,0.0208498
0.0832614,0.0425912
0.0474864,0.0570127
-0.0230108,0.0364611
-0.0867835,-0.0134751
-0.101193,0.0139761
-0.091954,0.0391907
-0.0503652,-0.0116758
0.0280688,-0.0324337
0.0767352,-0.0194013
0.0755414,0.00473382
0.0609563,0.0300568
0.0692623,-0.0319357
0.0662572,-0.0560567
0.0200111,-0.0451853
-0.0397057,-0.0202195
-0.0527761,0.0171945
-0.0291675,0.00685978
-0.017359,-0.0193763
-0.00375068,-0.00592127
0.00675216,0.0176323
0.0107923,0.019528
0.02373,0.0185856
0.0139085,0.0127359
0.00305401,0.00889964
0.0103114,0.0122764
-0.00154068,0.010161
-0.0221252,-0.00235241
-0.00278135,0.00237005
0.016801,0.0202277
0.0133553,0.0269864
-0.00795874,-0.0556968
-0.0174157,-0.0705706
-0.0192264,-8.72e-05
-0.0263218,0.032087
-0.0212891,-0.000339718
-0.0060249,-0.0354571
0.00567929,-0.0151956
-0.00100084,-0.0213523
-0.0159663,-0.0646657
-0.0398918,-0.0370756
-0.041193,0.0288957
0.0224487,0.0832796
0.102398,0.0386602
0.126986,0.0203285
0.0666518,0.0844929
-0.0308218,0.0171783
-0.0652056,-0.0287164
-0.0841416,0.00264045
-0.0594572,0.0122034
-0.0241985,-0.0459247
-0.00499743,0.00821029
0.0108864,0.0351177
0.018252,-0.0082986
0.0113979,-0.0562959
-0.00184463,-0.0165462
-0.0131087,-0.0128204
-0.025865,0.00109962
-0.0361728,-0.00276568
-0.0235591,-0.00250577
4.93e-05,-0.000401659
0.0273526,-0.0108362
0.0320548,-0.0222053
0.00933981,0.0104489
-0.00109715,0.0445682
0.00160571,0.00264046
0.00610583,0.0172173
0.00862368,0.0196103
0.0156996,0.0114858
-0.00415506,-0.0265434
-0.0126801,0.00792896
0.0267648,0.0112672
0.0729952,0.0018793
0.0867844,0.00901378
0.0443256,-0.00996264
-0.00790825,-0.0220265
-0.00501126,0.0049262
0.0102731,-0.0156047
-0.0379759,-0.00851659
-0.0442067,-0.0153665
0.000728772,-0.0106442
0.0109873,0.00251401
-0.0285647,-0.00588408
-0.0737298,-0.0244524
-0.0700173,-0.023375
-0.0360757,0.00114949
-0.024712,-0.0154061
-0.00436438,0.0503224
0.0151196,0.0738982
0.0122806,0.0465103
-0.00541651,0.0298883
-0.0236865,-0.0239746
-0.0190471,-0.0178832
0.00895446,-0.0014924
0.00227308,-0.00499849
0.0145447,-0.0180658
0.0436159,-0.0157935
0.0586462,-0.0412033
0.0691374,-0.0831971
0.0378793,-0.0589676
0.0104043,-0.0308514
0.00513434,0.0199137
-0.00759857,0.0622115
-0.00844928,-0.00244646
0.0101768,0.00956214
-0.0193043,0.0395982
-0.0476794,0.0295579
-0.0383955,0.0310975
-0.0174815,0.0287733
0.00668576,0.0398689
0.000984655,-0.00363745
-0.0180488,-0.0294687
0.0121288,0.00412561
0.0373008,0.0265732
0.0443701,0.00678476
0.0458529,-0.00811872
0.0294302,0.0321754
-0.0159159,-0.0103734
-0.0606285,-0.0435059
-0.0666053,-0.00504212
-0.0404276,0.00910658
-0.016842,0.00012968
0.00111568,-0.00357793
-0.00215725,-0.018815
-0.00872254,-0.017381
0.00811074,-0.0160253
-0.00548365,-0.0187707
-0.0103113,-0.0404975
0.00067001,-0.0722379
0.00373077,-0.0417333
-0.00895716,0.0940939
-0.0327825,0.0914491
-0.0272006,0.0469137
-0.0176808,0.0084767
0.0127774,-0.028465
0.0465355,0.00666436
0.0506691,0.0111228
0.0506897,0.0266414
0.0390942,0.0332969
0.100688,-0.0788705
0.135119,-0.0253792
0.0692653,0.0062147
-0.0088365,-0.011099
-0.0775301,0.0124679
-0.0970959,0.00548191
-0.0621237,-0.000179578
-0.037668,-0.00706316
-0.0527679,-0.0229022
-0.0452064,-0.0178794
-0.0147953,-0.00911422
0.00656919,-0.0070864
0.00966026,-0.00757369
0.00731635,-0.026138
-0.0102689,-0.0314943
-0.0297886,0.0481956
-0.0325919,0.0856931
-0.0367824,0.0220443
-0.0278951,-0.0540745
0.0226797,-0.0275391
0.0858926,0.0266931
0.0978004,-0.00117316
0.0575485,-0.0172408
-0.00249398,-0.0372877
-0.0372549,0.0090786
-0.0293708,0.0499303
-0.0225713,0.0718378
-0.0199461,0.0517029
-0.00183536,-0.00138375
0.0225933,-0.0536644
0.0406657,-0.0829482
0.0316916,-0.0542592
-0.027519,0.013267
-0.0600993,0.0168541
-0.0354246,-0.00879241
-0.0102748,-0.0266137
-0.0132861,-0.0226487
0.00126703,0.0285576
0.0129297,0.0522033
0.0183084,0.0168113
0.0387367,0.00856221
0.0487284,-0.000960211
0.038704,0.015135
0.0222463,0.0338776
-0.0143699,0.0358089
-0.0490053,0.0200398
-0.0585991,-0.016651
-0.070589,-0.0118561
-0.0502156,-0.0101993
0.00910043,-0.0232106
0.0401197,-0.0259021
0.0270486,-0.0199239
0.00520925,-0.0564618
2.88e-05,-0.0577213
0.0192024,-0.0504407
0.0478067,-0.00749032
0.0264927,0.0883534
-0.0115343,0.0592602
-0.028885,0.0235827
-0.0388556,0.00142222
0.0136501,0.0125548
0.0526108,0.0311859
0.0537203,-0.0153631
0.0264438,-0.0279231
-0.00571218,-0.032943
-0.022965,-0.0364244
-0.0107025,0.0147234
0.0174744,0.0967327
-0.00926528,0.0309688
-0.017189,0.0190311
-0.00890768,-0.0411002
-0.0222315,-0.0494735
-0.0234503,-0.0152444
-0.0177309,0.0117318
-0.00617867,0.00315627
-0.00170788,-0.0107409
-0.0198669,0.0333208
-0.0392535,0.0218156
-0.0426027,0.0142699
-0.0288035,0.0355008
-0.0183371,-0.000135176
-0.00465665,-0.0145718
0.0391072,0.00427252
0.078597,0.0144638
0.0664654,-0.00289764
0.0343954,-0.0184515
0.021876,-0.0625522
-0.0139378,-0.0571568
-0.0730337,-0.017914
-0.0924543,0.0299974
-0.0307406,0.0177053
0.0507745,-0.022527
0.0709608,-0.0694056
0.0409727,-0.0319269
0.0138604,-0.0403465
0.0143873,0.0054546
0.00502954,0.050132
0.0138316,0.059226
0.0114845,0.0673752
-0.0237931,0.0628164
-0.0515907,0.0237604
-0.0238854,-0.00792008
0.0120799,0.0054116
0.0299893,0.0407014
0.0347917,0.0197996
0.000983519,-0.0923662
-0.0222149,-0.0628509
-0.00926672,-0.0843746
0.0419015,-0.00164049
0.0507101,0.0494062
-0.0152736,0.0389595
-0.0540038,0.0125706
-0.037982,-0.00803269
-0.0376018,0.014056
-0.0412845,-0.0259908
-0.014116,-0.046222
0.00593514,0.0265056
0.0335769,-0.0212638
0.12771,-0.0306411
0.131054,0.0277498
0.0407869,0.0209457
-0.0343886,0.0245332
-0.0977374,0.0264073
-0.118144,0.00507765
-0.0676758,0.0153868
-0.0174915,-0.0171051
0.0092958,-0.015886
0.00130122,0.025038
-0.00499358,-0.0519923
-0.00449488,-0.0019596
-0.0205494,0.0362435
-0.021719,-0.0213114
0.0162256,-0.0265861
0.0486351,-0.0103927
0.0316184,0.0435487
-0.0171578,0.00664774
-0.0566152,-0.0217226
-0.0443586,-0.00173735
-0.0103589,-0.00630324
0.0192249,-0.0126761
0.0400296,-0.0090587
0.0448896,0.017171
0.0548484,0.0231523
0.0516959,-0.0209413
0.0253009,0.0383849
-0.0105711,0.0625766
-0.0261779,-0.024581
-0.00630997,-0.00560058
0.0126668,0.00750891
0.0115501,-0.0176421
-0.0111253,-0.0209638
-0.0303434,-0.00422771
-0.0270104,-0.0100811
-0.0175537,-0.0105667
0.00537045,0.00119215
0.0163791,0.00773713
-0.00155481,0.00838984
0.00696336,-0.011252
0.0177246,-0.0108086
0.0117985,-0.000265013
-0.0200892,0.00780909
-0.0146847,0.00212248
-0.0151704,-0.003739
-0.0234038,0.00488568
-0.0032043,0.00559733
0.0101754,-0.00367838
0.0121463,-0.0128776
0.0112349,-0.0139912
0.00873657,-0.00876314
0.00348034,0.00746641
0.00537689,0.0316219
-0.00140967,0.0245833
-0.0136486,-0.00872562
-0.0190804,-0.0261666
-0.00752803,-0.0254083
0.0058983,-0.0184466
0.0179287,-0.0186605
0.0133887,0.000798976
0.00690558,0.00977922
0.000451928,0.00733108
-0.00515375,0.0122112
-0.00103201,0.0290841
0.00642706,0.00749646
0.00852389,0.0281753
0.000741197,0.050037
-0.0147947,-0.013539
-0.0203898,-0.0134011
-0.0227283,-0.0546069
-0.0113645,-0.00826083
-0.00945212,0.00225411
-0.00539972,-0.0105411
-0.00380008,0.0490767
0.00525343,0.0784594
0.00719809,0.00937041
0.0152056,-0.00255941
0.0238484,-0.0166026
0.0204137,-0.0304665
0.0371781,-0.0216062
0.0708057,-0.00251338
0.0840264,-0.00420546
0.0425627,0.00113891
-0.026125,-0.0202864
-0.0384756,-0.031973
-0.0596778,-1.5e-05
-0.0718701,-0.0340379
-0.0489726,-0.0103871
-0.0116732,0.041426
0.0111569,0.0200448
-0.00292344,-0.0122829
0.0202907,-0.00215158
0.0377292,0.0373998
0.00555404,0.0572022
-0.0551703,0.0213889
-0.0884793,-0.0470963
-0.0621571,-0.0375639
-0.0435963,-0.0322533
-0.0317571,-0.0114116
0.00582931,-0.0175703
0.0224958,-0.00558624
0.0318192,-0.0161241
0.0435204,-0.0519069
0.0667911,-0.0632238
0.0838221,0.0306204
0.0548247,0.103947
0.0301999,0.0787161
0.0114857,0.00872361
-0.0258382,-0.034981
-0.0547419,0.0123625
-0.0611081,-0.00416007
-0.0258592,0.00204047
-0.0230132,-0.00585196
-0.0279755,-0.0350822
-0.00741509,0.00476071
0.0153206,0.00218001
0.0114913,-0.00679063
-0.00208785,0.0224658
0.00620789,0.0680164
0.0188404,0.0330673
0.0206906,0.00315112
0.00277938,0.00884482
-0.000538754,0.0184551
0.00236993,-0.031711
0.0308911,-0.0120556
0.0605646,-0.0166244
0.109178,-0.0577212
0.0787627,0.0111141
0.0258329,-0.0210291
-0.000541925,-0.0397808
-0.00246037,-0.0330622
0.0389272,0.000147168
0.0251738,0.0702295
-0.0615962,0.0622964
-0.173021,-0.0158138
-0.180055,-0.0101493
-0.103938,-0.00166345
-0.0279272,-0.0268509
-0.0140268,-0.0399166
-0.00201317,-0.0332362
0.0222721,-0.0228376
0.00489678,-0.00637954
-0.0157194,0.015975
0.00869075,0.0178959
0.0416209,0.0128317
0.0456373,0.0335471
0.0367494,0.011522
0.0293466,-0.0213903
0.0136343,-0.0417412
-0.000715652,0.01139
0.00669185,0.0127288
0.0168002,-0.00134369
0.00808345,0.0149057
0.00519039,0.0309202
0.00655904,0.0355239
0.00559376,-0.0320083
0.00640878,-0.0163177
0.0101848,0.00452879
0.00860109,0.0029244
-0.0166603,0.00645407
-0.0360787,-0.0297502
-0.0137204,-0.0150533
0.000161506,0.0129382
-0.00409408,0.0182607
-0.00849548,0.00325264
-0.0167749,-0.0117022
-0.0134191,-0.0525081
0.0031828,-0.00136454
0.0115374,0.0393737
0.025318,0.0226943
0.0320411,0.000524318
0.0484354,0.0639102
0.0414406,0.123539
0.0166981,-0.0503213
0.0168372,-0.0605547
0.0190299,-0.0059246
0.00515625,0.00483823
-0.0171651,-0.0220692
-0.0349385,-0.017044
-0.0500342,0.00244501
-0.0340927,0.0122064
-0.0177694,-0.0251785
-0.000838084,-0.0333509
0.018559,-0.0250935
0.012725,0.000799459
-0.0190185,0.0367875
-0.0307095,0.0284668
-0.027246,-0.0121348
-0.00881766,-0.0145135
0.0173803,-0.00034129
0.0390983,-0.00914382
0.0479249,-0.0129336
0.0329024,0.0176366
-0.0340206,0.0105598
-0.0849066,-0.00782183
-0.051866,-0.00739265
0.0199751,-0.0164454
0.0779112,0.00194622
0.0943942,0.000488704
0.0405443,-0.00411118
-0.0383221,-0.00878933
-0.0711934,0.0023963
-0.0471251,0.0504888
-0.0237769,0.0327136
-0.00859678,-0.0122981
0.0072737,-0.0171328
0.0152567,-0.007699
0.0112988,-0.00101806
-0.0106937,0.00508187
-0.0370408,0.00211508
-0.0307735,0.00448606
-0.0112769,-0.0109107
-0.00513975,-0.0174703
0.00477103,-0.0067917
0.0268006,-0.0038254
0.0292983,-0.012924
0.0412172,-0.0139876
0.0739612,0.0219556
0.0949017,0.0420838
0.0501515,0.00348751
-0.0113984,-0.0133024
-0.0753885,0.0133844
-0.084508,0.010586
-0.0392141,-0.00919218
-0.0109798,-0.00401948
-0.0150902,0.00913638
-0.0436449,0.00803417
-0.0597992,-0.0127586
-0.04365,-0.0153639
-0.00638143,-0.00700669
0.0306775,-0.0093364
0.0214887,-0.0181814
0.0101214,-0.0172199
0.0244481,-0.00927887
0.0294,0.0067973
0.0175089,0.0241851
0.0170373,0.0201664
0.0386185,0.010725
0.0442501,-0.00257407
0.034704,0.00158844
0.0137356,0.00880541
-0.0353814,0.00810646
-0.0560309,0.00238967
-0.0271379,-0.00773351
0.0301105,-0.00773541
0.0470559,-5.36e-05
0.0259467,0.00137933
-0.0155976,-0.00739567
-0.0298304,-0.00864625
-0.0275824,-5.44e-06
-0.0305272,0.0092377
-0.0156751,0.0218381
0.00107519,0.0232603
0.00885017,0.0120096
0.0170757,0.00277116
0.0227519,-0.00425489
0.0168465,-0.0110574
0.01367,-0.00667269
0.0196146,-0.00864366
0.0154323,-0.00376168
0.0127194,-0.00494677
-0.00870022,-0.0157264
-0.0493281,-0.0163617
-0.0595061,-0.0190979
-0.0617117,-0.0242125
-0.046488,-0.0212916
0.000588599,-0.00306247
0.0216724,0.0163492
0.0110697,0.0296232
-0.0110352,0.0256758
-0.0224136,0.00770776
-0.00337116,0.00291732
0.0288443,1.21e-05
0.0445118,-0.00566299
0.0510497,-0.0053763
0.0410786,-0.012325
0.0178526,-0.0165015
0.00761032,-0.0476948
0.00507367,-0.0420208
-0.00345015,-0.0107037
-0.0062228,0.0204467
0.00161897,0.0389686
-0.000351336,0.0305067
0.0125474,0.0351034
0.0237338,0.0284253
0.0238148,-0.00219725
-0.00895815,-0.000641943
-0.053954,-0.0157833
-0.0169373,-0.0630164
0.0200888,-0.0693987
0.012614,-0.0184628
-0.0233467,0.0471215
-0.0535706,0.0867826
-0.0391766,0.0703641
0.00298834,0.0497037
0.00564115,0.0418112
0.00420756,0.0260216
0.00176882,-0.00962941
0.00425051,-0.0357746
0.0247211,-0.046557
0.0341913,-0.052683
0.0146512,-0.048964
-0.00964382,-0.0208029
-0.0203015,-0.000204671
-0.0114418,0.0198514
-0.0166519,0.0407763
-0.0312377,0.0303
-0.0389166,0.037164
-0.0227485,0.02857
0.00288387,-0.0189849
0.0173999,-0.0174673
0.017437,0.00931143
0.0246739,-0.02604
0.043731,-0.0278434
0.035996,-0.0148458
-0.00116471,-0.0107986
-0.0207485,-0.0102567
-0.0217505,0.00866655
-0.00967867,0.000422605
0.0285379,-0.00730505
0.0346503,0.0054894
0.0230066,0.00494301
0.00980915,-0.0155655
-0.0108899,-0.0158802
-0.0391468,-0.0081153
-0.0232171,-0.00578821
0.00963881,-0.00895903
0.00537767,0.000580205
-0.00096544,0.0122815
0.0178777,0.000876567
0.00679881,-0.0181964
-0.023711,-0.0227421
-0.0264971,-0.00680371
-0.038625,0.00605429
-0.0475757,0.0110027
-0.0388167,0.00677292
0.00815666,0.00855872
0.0304488,0.0163646
0.0445051,0.0135132
0.0846657,0.00972927
0.128671,0.00620477
0.105081,0.00247831
0.00814869,-0.0147915
-0.104751,-0.0289995
-0.102927,-0.00816244
-0.0882586,0.00608642
-0.0860154,-0.00549846
-0.0119822,-0.0108863
0.0399136,-0.00612367
0.0408109,0.00277489
0.00710851,0.018046
-0.0448018,0.041834
-0.0435536,0.0338213
-0.0253078,0.0137219
-0.00736252,0.00408461
0.0102016,-0.000588716
0.0248473,0.000790934
0.0162814,0.00575435
-0.0185944,0.0101486
