Comp Ch 3,Comp Ch 4
0.183745,0.00227437
0.118544,0.0415055
0.0151599,0.0406847
0.00385387,-0.0702673
0.0222124,-0.10964
-0.0297649,-0.15009
-0.0860024,-0.135009
-0.105423,-0.0231377
-0.0728068,-0.00306815
0.0648825,-0.0547558
0.149483,-0.0498883
0.0571396,0.0277057
-0.0255085,0.128025
-0.0403312,0.142833
-0.00923905,0.164064
0.00959323,0.157732
0.0228649,0.121312
0.00732543,0.0485032
-0.0584205,0.00247114
-0.148017,0.0070676
-0.201606,0.0171306
-0.211886,0.0257022
-0.0784868,0.00250188
0.119055,-0.0175263
0.189668,-0.0151646
0.102222,-0.0428763
0.0856124,-0.0898367
0.0883516,-0.0837108
0.0680273,-0.114049
0.0239774,-0.121734
-0.0257919,-0.110207
0.0299266,0.00808908
-0.0232095,0.0631318
-0.0929076,0.0336252
-0.058239,0.0413711
-0.0581436,0.0613876
-0.152143,0.0424041
-0.199449,0.0702243
-0.0452807,0.0686669
0.147128,0.0644499
0.212199,0.0592789
0.102752,0.028459
-0.00515801,-0.016869
0.0181162,-0.0997879
0.0993034,-0.117387
0.0996625,-0.250773
0.0693115,-0.348203
-0.0219606,-0.348301
-0.110724,-0.147913
-0.155395,0.089337
-0.113517,0.174018
-0.0246587,0.31326
0.00499244,0.42678
-0.000148552,0.340572
0.0362817,0.121364
0.0402032,-0.0143438
0.0583922,-0.173973
0.0822667,-0.233873
0.106941,-0.183361
0.0569812,-0.185509
-0.034185,0.0750831
-0.131219,0.194065
-0.184128,0.0797537
-0.126298,0.0321444
-0.0238467,0.0569671
0.00921811,0.0341815
0.00425069,-0.0582292
0.0693828,-0.078964
0.129313,0.0903134
0.108395,0.246632
0.0708801,0.0912638
0.0372835,-0.0098096
0.0446504,-0.0340179
0.0613667,-0.0123381
0.0309545,-0.0321161
-0.0252199,-0.01888
-0.0858552,0.00444671
-0.105099,-0.0769832
-0.0980727,-0.0400809
-0.100286,0.0283873
-0.0636398,0.0311959
-0.0096844,0.00334025
0.0264148,-0.0586658
0.0879508,-0.0651646
0.104238,-0.0544034
0.0705839,-0.0612336
-0.0145604,-0.0327225
-0.0759043,-0.0287797
-0.0693465,-0.0531501
-0.0062079,-0.0391664
0.0320523,-0.00471037
0.0272866,0.0427313
-0.0703026,-0.0151167
-0.133359,-0.0309921
-0.0812798,0.0421706
0.058042,0.0570432
0.147431,0.0574452
0.158235,-0.0465811
0.0558871,0.0540806
0.019096,2.09e-05
0.0440795,-0.142411
0.0298843,-0.224925
-0.0629842,-0.226483
-0.101662,-0.0301742
-0.0635052,0.140738
-0.0167637,0.154849
-0.0968819,-0.0456844
-0.119256,-0.123188
-0.0129878,-0.00696542
0.134096,0.0544496
0.106719,0.151071
0.0780695,0.318198
0.0621574,0.31553
-0.0313126,0.18657
-0.0768587,0.0216507
-0.0852481,-0.119347
-0.110618,-0.194547
-0.12731,-0.177045
-0.0412155,-0.103775
0.0991091,-0.00922953
0.215955,0.0774512
0.172885,0.110488
0.0471702,0.0863348
0.00125309,0.0686646
0.0393604,0.0301984
0.113856,-0.0395069
0.0544627,-0.0192168
-0.0540143,-0.0240301
-0.151945,-0.0645862
-0.173812,-0.0524877
-0.136748,-0.0403256
-0.0678664,-0.0585018
0.0193961,-0.0997885
0.014533,-0.0173353
-0.0297577,0.034126
0.00792344,-0.0389324
0.109744,0.0191441
0.094143,0.013609
0.0332647,0.0033337
-0.0339333,-0.00110725
-0.0630184,-0.0250499
-0.0406196,0.0422489
-0.002043,0.0642604
0.0207274,0.00240206
-0.00618851,-0.0193112
-0.0180508,-0.0154652
-0.001768,-0.0757698
0.0555431,-0.0411552
0.0868746,-0.00638102
0.0438078,0.0887214
-0.022416,0.131099
-0.0841076,0.0167711
-0.119227,0.132765
-0.105504,0.0546196
-0.0408604,-0.00783045
-0.00545202,0.00999551
0.0258956,-0.0360254
0.0247236,-0.0943642
0.00746671,-0.324778
0.0318123,-0.600216
0.10199,-0.585801
0.161239,-0.239055
0.138128,0.267432
0.0275587,0.507998
-0.089232,0.447535
-0.189037,0.392055
-0.155497,0.250139
0.00578736,0.153818
0.214476,0.0858025
0.176329,0.00552534
0.0161116,-0.0305885
-0.0348996,-0.142597
-0.0508829,-0.296708
-0.0985344,-0.209202
-0.151647,-0.0138242
-0.135243,0.13103
-0.0678057,0.144514
0.043416,0.300606
0.124551,0.359678
0.140341,0.0633393
0.143595,-0.170974
0.136698,-0.211813
0.0537862,-0.141267
-0.153389,-0.169332
-0.27519,-0.107168
-0.0909157,-0.076086
0.0433341,-0.00981277
0.0333642,0.00386985
-0.0742286,0.0229271
-0.0912567,0.033179
0.00864499,0.0825733
0.132593,0.0740716
0.231308,0.0453747
0.145181,0.0600964
0.058756,0.0179987
-0.00229389,-0.0171905
-0.0451984,-0.0221696
-0.0557736,-0.132337
-0.0297058,-0.238356
0.0184406,-0.229566
-0.00302094,-0.0811363
-0.0284925,-0.0785614
-0.0371664,-0.0350225
-0.0402369,0.15731
-0.0701579,0.248779
-0.0443042,0.246236
-0.0125974,0.118299
-0.0411131,0.0346926
-0.0333412,0.100395
0.0394645,0.0347767
0.0696191,-0.09404
-0.036478,-0.166515
-0.144394,-0.191865
-0.148178,-0.240138
-0.0368368,-0.240085
0.0722598,-0.251461
0.155315,-0.210659
0.177024,-0.106339
0.103166,0.0980384
-0.00264241,0.305051
-0.0546469,0.440059
-0.0564975,0.381149
-0.0434117,0.281933
-0.103498,0.126354
-0.126653,-0.0427448
-0.0321152,-0.113047
0.0594246,-0.10161
0.0545582,-0.0245115
0.0904501,-0.0194029
0.0808052,-0.0403635
0.00966754,-0.00345253
-0.00663317,0.112879
0.0400775,0.0988589
0.0601719,-0.0085459
0.0456846,-0.0921686
0.0130367,-0.0836994
-0.0382104,-0.149392
-0.0239795,-0.187182
0.0316,-0.0706722
0.0708654,0.0154172
0.064384,0.0781626
0.0307248,0.101452
-0.0406915,0.0793376
-0.121514,0.095526
-0.128899,-0.0116268
-0.0549325,-0.0843119
0.0208919,-0.0568826
0.0222881,0.0425036
-0.0142167,0.0627039
-0.00749043,-0.0197653
0.00320471,-0.067351
-0.00196179,-0.066844
-0.0393516,-0.076652
-0.0681792,-0.0292271
0.0144283,0.11025
0.116622,0.094271
0.125976,-0.0577495
0.0573204,-0.0624595
-0.0614388,0.058112
-0.160649,0.100692
-0.145802,0.0454457
-0.0184356,0.011613
0.0301154,0.0145295
-0.0320215,0.025609
-0.0410559,-0.0619459
-0.0297422,-0.137068
0.0171921,-0.14347
0.118243,-0.195311
0.115047,-0.203343
0.0595882,-0.102574
0.0414901,0.0280168
0.0324738,0.104794
-0.00789952,0.273138
0.0449585,0.209741
0.0854121,0.0760915
0.0217354,0.0382625
-0.0852076,0.0125464
-0.0700921,0.109214
-0.0330345,0.0312257
-0.0187027,-0.0115102
0.0175672,0.007185
-0.0226579,0.024266
-0.0231091,-0.011055
-0.0306903,0.00548934
-0.0613542,-0.0126741
-0.0299394,-0.0574251
-0.00415815,-0.0574985
0.00348811,-0.0791648
0.017259,-0.0287169
0.00851371,-0.00173134
-0.00940346,-0.0662051
1.45e-05,-0.0508357
0.0346505,-0.00269538
0.0693471,-0.032179
0.0577891,-0.123555
0.0247282,-0.169601
0.0245036,-0.104737
0.0222466,-0.0105773
-0.0327964,0.186448
-0.0773265,0.279193
-0.0556194,0.255307
-0.00985117,0.0851948
0.00398521,0.0257374
-0.00828713,0.0201096
-0.025908,-0.0750316
-0.0222697,-0.0469017
-0.0246932,-0.00384734
-0.00533147,-0.00681303
0.0199856,-0.00432378
0.0334433,0.0369096
0.0333155,0.041724
0.0409063,0.00366002
0.0442206,0.0196329
0.0361495,-0.0328544
0.0169964,-0.055824
0.0112167,-0.0529503
0.0129159,-0.083299
0.0184614,-0.109767
-0.00234355,-0.119709
-0.0458105,-0.105072
-0.0797022,-0.0414963
-0.0795694,-0.00957783
-0.0387102,0.00439336
-0.00943379,-0.102228
0.0149107,-0.179446
0.0375364,-0.135054
0.0496881,-0.0482436
0.00781705,0.157955
-0.0429608,0.389172
-0.0612019,0.384841
-0.0491366,0.253901
0.0115915,0.0519507
0.040504,-0.0920905
0.0427337,-0.081848
-0.0240786,-0.0349044
-0.0624237,-0.116085
-0.0101035,-0.138334
0.0626758,-0.0154365
0.0932831,0.0236898
0.0859341,0.147238
0.0285534,0.232866
-0.0715866,0.0886865
-0.112086,-0.0526525
-0.0208829,-0.161674
0.0315337,-0.110052
0.0332375,0.0178824
0.0245624,0.0781508
0.0200199,0.056203
0.0250151,0.102892
0.00360823,-0.0167908
-0.0120658,-0.0957854
-0.00796109,-0.0361746
0.00248135,-0.0401445
0.00635401,-0.0813635
-0.0213302,-0.128545
-0.0139046,-0.0921272
0.0126619,0.0632611
0.0277207,0.0185661
0.0534898,-0.13313
0.0527453,-0.271538
0.00954526,-0.218524
-0.0535726,0.0278807
-0.0752442,0.108645
-0.0265629,0.233974
0.0269712,0.151385
0.0459167,0.133689
-0.00535237,0.105846
-0.0290685,0.0463498
-0.00388326,0.0342083
0.0203493,0.00319909
-0.000495079,-0.0233722
-0.0550032,-0.0106773
-0.0621703,-0.0381184
-0.0343132,-0.0943863
-0.0260057,0.0244101
-0.0121385,0.00083887
0.000217443,-0.0731688
0.0193124,-0.170675
0.0411625,-0.0248957
0.0906238,0.0965429
0.06139,0.119432
-0.0249592,0.0568119
-0.0661318,-0.0628857
-0.0350561,-0.0717672
0.0134386,-0.00431196
0.0326954,0.0366467
0.0427581,-0.00853347
0.0195988,-0.0694633
-0.0252746,-0.0859676
-0.0467706,-0.0333229
-0.058183,-0.0155089
-0.0617522,0.00599576
-0.0262749,0.124198
0.0627748,0.118415
0.0403663,0.0747022
-0.000583612,0.0646584
-0.0252484,0.0447838
-0.0436743,0.0154481
-0.0419154,-0.00182896
-0.0133948,0.0201208
0.0361261,-0.0479138
0.0799518,-0.0823051
0.0786035,-0.00215997
0.0376817,0.00488057
-0.0163274,-0.0220448
-0.0211304,0.00515405
-0.00299869,-0.0142389
0.0204076,0.000272482
0.0188553,0.037266
0.000729501,0.0569156
-0.00364017,0.00887848
0.0131164,-0.0853972
0.0169847,-0.149811
-0.00898765,-0.192172
-0.0132089,-0.126547
-0.0126122,-0.0146765
-0.0125922,0.0501816
-0.0100038,0.0839044
-0.0166022,0.0750227
-0.0160132,0.0632493
-0.0261241,0.0697902
-0.0377575,0.0673407
-0.0121012,0.0503167
0.00492689,0.0658991
0.018084,0.0467389
0.0675566,0.00584803
0.112722,-6.06e-05
0.0793542,0.0822747
0.0170999,0.0626411
-0.0732744,-0.0439489
-0.100776,-0.0567756
-0.0402555,-0.0592227
-0.030717,-0.070764
-0.0695123,-0.0277361
-0.0566893,-0.0110125
-0.0499858,-0.0504735
-0.0427218,-0.0165688
0.00204578,0.0711409
0.033059,0.0349536
0.0388278,-0.0835138
0.0355228,-0.0167034
0.0445714,-0.00569692
0.0524562,0.0360503
0.0668345,0.0393513
0.0813948,-0.018616
0.0801149,-0.0930705
0.028343,-0.0301528
-0.063505,0.165717
-0.102575,0.0349636
-0.0599871,-0.0826432
-0.00291666,-0.0231671
0.0170745,0.0377227
-0.0212775,0.110694
-0.041357,0.004332
-0.0196555,-0.0584512
0.0217225,-0.0577532
0.0801708,0.0484489
0.0279645,0.0313382
-0.0574474,-0.0112268
-0.0689959,-0.00178073
-0.0793162,0.014442
-0.0500528,-0.0121703
-0.000332162,-0.0552105
0.075455,-0.0500517
0.125261,-0.0337234
0.150148,-0.0829009
0.10329,-0.100445
0.0234899,-0.170495
-0.057819,-0.173514
-0.0838778,-0.00682702
-0.100709,0.0851059
-0.0385969,0.0970861
0.0328584,0.154149
0.0226988,0.151659
-0.0162145,-0.0455853
-0.00446419,-0.0642726
0.0624388,-0.000162632
0.0910806,0.023105
0.014066,0.105032
-0.0409285,0.0635303
-0.0223927,0.130409
-0.0458421,0.132732
-0.0645565,0.0521454
-0.0582853,-0.000684625
-0.0402192,-0.0116412
-0.00463445,-0.0268308
0.00202019,-0.0286817
-0.0212541,-0.0271946
-0.0174784,-0.00879976
0.000622675,-0.00784332
-0.00460918,-0.0685845
0.00397708,-0.0610723
0.00695009,-0.102652
-0.00631634,-0.045511
-0.00449021,0.0132404
0.0145061,-0.0412561
0.0318203,-0.00580531
0.033375,0.0719467
0.00575799,-0.0149961
-0.0456888,-0.042397
-0.0224248,0.0547472
0.0395622,0.00616205
0.0674061,-0.038122
0.0397795,-0.0947808
-0.0116598,-0.0693326
-0.00633666,0.0349571
0.0219591,0.00564134
0.0665748,0.0489607
0.0399393,0.104554
-0.0466559,0.0680681
-0.0996165,0.0259008
-0.0742612,-0.023681
-0.0279543,-0.0557363
0.00671528,0.00110211
0.0125793,0.0836632
0.0105562,0.0420053
0.0223586,0.0690679
0.0300696,-0.0650888
0.0216086,-0.183982
-0.0229727,-0.142066
-0.053889,-0.0433507
-0.0543344,0.0517368
-0.00626317,0.112839
0.0416581,0.144209
0.0704551,0.178213
0.0575521,0.109399
0.0158899,-0.125081
-0.0182426,-0.0725766
-0.0610563,-0.00690353
-0.0341343,0.0565632
-0.00799631,0.0486267
-0.00494129,0.0343336
-0.00401108,0.00204901
0.0257839,0.00108156
0.0422388,-0.0171141
0.0426013,-0.126295
0.0583448,-0.0619109
0.0306263,-0.0586772
-0.024526,0.00203683
-0.0460918,0.0388475
-0.0135373,-0.0286208
0.0427464,-0.14988
0.0670094,-0.102961
0.0313565,0.0551079
-0.0498712,0.00403231
-0.0839326,-0.0107513
-0.0624039,0.0876629
-0.0533821,0.11639
-0.0161816,0.0867153
0.0157827,-0.0852084
0.0632037,-0.109287
0.0798878,-0.0707463
0.0183948,-0.000626329
-0.0482522,0.0497452
-0.0794416,0.01548
-0.0388678,0.00463813
0.0577794,0.0707481
0.0669573,0.106254
-0.0257781,-0.00970598
-0.0491001,-0.0913273
0.00634109,-0.00486934
-0.0178555,0.000379483
-0.00285055,0.0556127
0.00642248,0.0675265
0.0399267,-0.0076057
0.0398536,-0.000647423
-0.0139196,-0.0272777
-0.0326599,-0.0716129
-0.0964378,-0.0765078
-0.126462,0.0610259
-0.0275469,0.0638583
0.076456,0.0132336
0.120539,-0.00131254
0.0689789,-0.0324064
0.00292622,-0.0711953
-0.0426894,-0.0486277
-0.0722501,0.0189232
-0.0474167,0.0333341
-0.00265938,0.0581578
0.0421921,-0.0601507
0.0821687,-0.220778
0.0933624,-0.186893
0.0409602,0.0572474
-0.0390943,0.00347351
-0.0311117,0.032064
0.0071795,0.0758387
-0.0288168,0.0773039
-0.0524881,0.199547
0.014815,0.192205
0.0218739,0.0417641
0.00502373,-0.00962906
-0.00871293,-0.000230461
0.0190458,0.0210166
0.0668888,-0.0130191
0.0554871,-0.0216409
-0.029113,0.0261765
-0.0818386,0.0213855
-0.0615469,0.00498888
0.030713,-0.0214641
0.0921796,0.0233642
0.0566237,0.00874396
-0.0269001,-0.0466381
-0.0880539,-0.0963614
-0.0670674,-0.0912488
-0.02424,-0.083223
-0.0175904,-0.0997542
-0.0179918,-0.0647661
0.00103399,0.0596431
0.00167665,0.0766713
0.00617885,0.0367416
0.00884543,-0.00441385
-0.00757764,-0.0149194
-0.0129472,0.0114072
0.0153995,0.0497569
0.03265,0.0354869
0.0456795,0.00520769
0.037376,-0.0241815
0.0152901,0.0351725
-0.00607258,0.0157389
-0.0155198,-0.0848859
-0.00778626,-0.0343863
-0.0307258,0.00507378
-0.0497272,-0.00993151
-0.0442798,-0.029065
-0.0102787,0.00975664
0.0267702,-0.0115304
0.0398197,-0.0534231
0.0254096,0.0176209
0.0118097,-0.00522145
0.0070969,-0.0143973
0.00181468,0.0416349
-0.0050422,0.0552413
-0.0025736,0.0582707
0.00520129,-0.013263
0.020971,-0.0271106
0.010803,0.0139642
-0.0107367,0.0240225
-0.0144816,0.0331952
-0.00441275,0.0266271
-0.000224063,-0.0131717
0.00852776,-0.0200487
0.0163204,-0.0152829
0.0129243,-0.0349613
0.0023082,-0.0313174
-0.00870017,-0.0144447
-0.0135497,0.0497544
-0.0153654,0.0259975
-0.0154991,-0.0109307
-0.0102277,0.0117079
-0.00500265,0.00896432
0.000499195,0.00752621
0.00748666,0.00776012
0.0122412,0.00670033
0.0128859,0.0172523
-0.000980703,0.00231667
-0.00663954,-0.00566131
-0.0038624,0.00478085
0.00503115,0.0323372
0.000858512,0.0132285
-0.00893647,-0.0505997
-0.0113077,-0.030012
-0.0126994,-0.00690401
-0.00607868,0.040031
0.00198073,0.0413332
0.00889426,-0.00569139
0.016674,-0.0117836
0.0115888,-0.0787131
0.00453904,-0.0636296
0.000420821,-0.0638178
0.0112719,0.0308528
0.0147267,-0.0301487
-0.0106468,-0.013414
-0.0350524,0.0961871
-0.0176981,0.0660779
-0.00377517,0.0164945
0.0116165,0.00228688
0.0166931,0.0144891
-0.00571337,-0.127311
-0.00772162,-0.0823296
-0.00502634,0.0882426
-0.00417596,0.0800901
0.0125642,-0.0128889
0.0208028,-0.0553042
-0.00042113,-0.0776072
0.00174367,-0.0835438
0.00727138,0.0634319
-0.00995436,-0.0106655
-0.0276161,-0.00907255
-0.0204286,0.0904777
-0.00432259,0.0664209
0.0258447,0.108295
0.0336718,0.0592601
0.0219371,-0.0759026
0.0144403,-0.154412
0.00293672,-0.0372946
-0.0226456,-0.0103316
-0.0209723,-0.00271858
-0.0190218,0.0666326
-0.0269594,0.124078
-0.0194336,0.0943418
-0.00617536,0.0915922
0.0372529,0.0257091
0.0901092,0.0563932
0.0746661,-0.0678058
0.0141835,-0.155876
-0.0426887,-0.226727
-0.0481771,-0.123516
-0.0188697,-0.04588
0.000224826,-0.0755689
0.00628612,-0.0336396
0.00727532,0.0805407
-0.0155819,0.138035
-0.0307122,0.0813067
-0.0272667,0.0173914
-0.020268,0.0544693
-0.0210799,0.112631
-0.0162986,-0.00883224
-0.0182292,-0.201176
-0.0142549,-0.115211
-0.0266524,0.146673
-0.00041206,0.282591
0.0210788,0.103303
0.0209437,-0.012977
0.0348947,0.00670173
0.0674184,-0.0794258
0.125199,-0.0503498
0.124173,-0.109584
0.0636864,-0.0600067
-0.0228516,0.00175854
-0.114637,0.0162949
-0.168605,-0.0374693
-0.122732,-0.137596
-0.0546444,-0.0280145
-0.0204472,0.160451
0.0240065,0.107548
0.0516247,0.0817234
0.0604209,-0.00314159
0.021377,0.111455
-0.00137051,0.0588728
-0.00219851,-0.117316
0.0147182,-0.102585
0.0520297,-0.0699936
0.0635729,0.0182218
0.0253343,0.0342295
-0.0412617,-0.0601383
-0.0769073,-0.0452129
-0.0639129,0.0211314
-0.031593,0.0252945
-0.0254735,0.113051
-0.0199296,0.0305207
0.0127404,-0.0477407
0.0347451,-0.124599
0.0403982,-0.180543
0.0456781,-0.159346
0.0131722,-0.0614047
-0.0312816,0.0412188
-0.0275325,0.113183
-0.0257491,0.123074
-0.0193218,0.0612481
-0.000864932,-0.0269659
0.0133591,-0.129237
0.036181,0.0607295
0.0455467,0.107217
0.00866491,-0.0567955
-0.00620805,-0.0131875
-0.0113356,0.0444575
-0.0100737,0.0197368
-0.00320222,0.0629417
-0.00162959,0.0248211
-0.00368564,0.0636025
-0.0184539,0.0542079
-0.0202455,0.0515817
0.0173577,0.0811402
0.035616,0.0420544
0.031637,0.0457467
-0.0173209,-0.148346
-0.031665,-0.189828
-0.0131207,-0.21215
0.0215835,0.0220717
0.0537948,0.161551
0.0506194,-0.0314388
0.0408931,-0.0345104
0.011965,0.143955
-0.0185698,-0.0823959
-0.00318034,-0.240643
-0.00185265,-0.149057
0.00302028,-0.0671777
0.0191353,0.148142
0.00658094,0.1965
-0.0313828,0.163475
-0.0847205,0.0100358
-0.0787334,-0.0236307
-0.050104,-0.0548919
0.00845724,0.0296727
0.0487634,0.0697513
0.0318233,0.0778723
-0.0160431,0.0659551
-0.0396077,0.0240284
-0.0385043,-0.0568921
-0.000191992,-0.0933919
-0.00463291,-0.0992094
-0.0244906,-0.0732897
0.00196333,-0.0126513
0.035396,-0.0408861
0.0352776,-0.0590219
0.00408728,0.106789
-0.00559408,0.288922
0.0123416,0.099
0.0100214,-0.0232925
0.0267368,-0.114169
0.0738919,-0.151047
0.0812067,0.041832
0.029809,0.0118037
-0.034486,0.0249452
-0.0661008,-0.00707693
-0.0616364,0.00730394
-0.0436881,-0.0167419
-0.0340319,-0.0101297
-0.021083,-0.0119221
-0.0228646,-0.0141614
-0.0338399,0.0686042
-0.0302285,-0.290475
-0.022635,-0.500833
-0.00345962,-0.242463
0.0243686,-0.120118
0.0266114,0.109394
-0.00488331,0.313679
-0.0186681,0.335253
0.0534268,0.387664
0.203428,0.240861
0.274627,-0.036712
0.174173,-0.127906
0.00517506,-0.0862672
-0.0982606,-0.0850193
-0.12893,-0.192691
-0.12541,0.00390045
-0.0739343,0.22668
-0.0331434,0.378088
-0.0438952,0.254253
-0.0290294,-0.0128345
0.0106501,-0.154319
0.052964,-0.128827
0.0372938,-0.126104
-0.048741,-0.103982
-0.114884,-0.00582458
-0.101446,-0.0266902
-0.0461648,-0.135049
0.00555581,-0.187284
0.0270596,-0.00110728
-0.000474824,0.133902
-0.0118806,0.096268
0.0342664,0.027548
0.0465307,0.0411895
0.0491574,0.00551889
0.050131,0.127994
0.0332,-0.0121709
0.0186983,-0.0121177
-0.0189728,-0.0653237
-0.0639672,-0.132048
-0.0396315,-0.142242
0.0264777,-0.00800836
0.0224112,-0.153962
-0.0263,-0.0184754
-0.0514695,0.0951681
-0.063028,0.0202533
-0.0304785,0.0691152
0.0174991,0.143938
0.0521162,0.097791
-0.00698804,0.0661274
-0.0104041,0.0999053
0.125577,-0.026668
0.193343,-0.112473
0.166447,-0.0304742
0.0456957,-0.113667
-0.0571778,-0.202547
-0.0609053,-0.273693
-0.0635512,-0.195631
-0.0722662,0.0118282
-0.0193446,0.18845
0.0125414,0.315481
0.0358219,0.18163
0.0431369,0.130232
-0.032139,0.0771529
-0.121704,0.00330545
-0.194469,-0.0653614
-0.173542,-0.10354
-0.0560411,-0.121363
0.0546854,-0.128608
0.125257,-0.0371953
0.127206,0.1049
0.0478422,0.0392077
-0.0129767,0.0154753
-0.0247014,0.0181413
0.00625683,0.0942807
0.000994978,0.0739064
0.00595702,-0.0270347
0.0308103,-0.101137
0.017065,-0.166467
-0.0125581,-0.0806327
-0.0410485,0.0377259
-0.0693028,0.0531124
-0.0824417,0.166598
-0.0653791,0.201145
-0.0413401,0.0680353
-0.026205,-0.04128
0.0409085,-0.136596
0.11127,-0.0924533
0.157922,0.0509398
0.13347,0.0755233
0.035604,0.140103
-0.0612497,-0.054195
-0.0666273,-0.139563
-0.00109762,-0.0497319
0.0438406,-0.0619213
0.0233495,-0.0908959
0.0682305,-0.0966448
0.127643,0.0303528
0.105834,0.0712663
0.0382674,0.067737
-0.0582239,0.141812
-0.107515,0.043699
-0.0853243,-0.0602329
-0.0421652,0.0143897
-0.0320252,-0.0125831
-0.0348644,-0.0379882
-0.0602769,-0.0412807
-0.0468313,0.0936924
-0.0080594,0.0892797
0.0129099,-0.0675448
0.0458044,0.0178407
0.0718776,-0.0397386
0.0434244,0.0179432
-0.0282568,0.0823195
-0.0569324,0.045493
-0.0337811,-0.0787309
-0.0259621,-0.243088
-0.0324855,-0.366742
-0.045,-0.242699
-0.00737148,-0.0842243
-0.0104747,0.0828941
-0.0558875,0.220616
-0.0762532,0.357602
-0.0613809,0.264608
-0.00181434,0.00210851
0.0825547,0.018402
0.0901013,0.0370548
0.0608127,0.114153
-0.00473004,0.102461
-0.0657167,0.00267377
-0.0566007,-0.11146
0.0430578,-0.139209
0.13248,-0.0831248
0.138151,0.0244583
0.0456124,0.121173
0.0353206,0.0090692
0.0829761,-0.0758631
0.0150792,-0.0678101
-0.0859271,0.0379819
-0.129733,0.0282516
-0.130161,-0.0282339
-0.0643926,-0.0811944
-0.0204064,-0.132683
0.0244237,-0.282181
0.0382715,-0.257162
0.0706376,-0.17924
0.105597,0.102162
0.204208,0.216456
0.141976,0.27948
-0.0692521,0.238164
-0.237238,0.103742
-0.242206,0.0559394
-0.214629,0.0704833
-0.0393839,-0.0341316
0.120811,-0.106354
0.146756,-0.0556103
0.177565,-0.0679516
0.156909,0.0231472
0.0980718,-0.0413217
0.0991893,-0.0401227
-0.000553853,-0.0220821
-0.120273,0.0338998
-0.168788,-0.00779344
-0.161735,-0.110262
-0.0967577,0.0165158
-0.00371764,0.153578
0.0736741,0.165043
0.079389,0.0827268
0.0211748,-0.0316387
-0.0109957,-0.150339
-0.100805,-0.135799
-0.17128,-0.137919
-0.120034,-0.0878192
-0.0534497,0.080026
-0.0654299,0.144602
-0.000976607,0.192469
0.106916,0.134923
0.229033,0.0503284
0.288757,0.0637133
0.220543,-0.0396574
0.0690091,-0.135407
-0.0910102,-0.192259
-0.236665,-0.0831138
-0.235315,-0.0546844
-0.120014,-0.0331993
-0.0899513,0.0106875
-0.0990127,-0.0950615
-0.0104553,-0.0530153
0.0105916,-0.0698283
0.0039078,-0.0322808
0.0532995,0.155243
0.162063,0.191927
0.215979,0.102501
0.231497,0.150008
0.145605,0.178457
0.0215902,0.0701389
0.00419852,-0.0277396
-0.0730264,-0.0410123
-0.130137,-0.129856
-0.0699438,-0.179304
-0.00737124,-0.0215565
0.0059617,-0.0500304
-0.00660392,-0.0553584
-0.0290303,-0.0505966
-0.00964591,-0.0587675
0.0752866,0.0297209
0.0102392,0.0752095
-0.0554895,0.0498822
-0.0886083,-0.0181335
-0.0738453,-0.0488157
-0.0735639,-0.0140789
-0.191671,-0.0517319
-0.295347,-0.041977
-0.172583,-0.00601588
0.0259307,0.133314
0.257854,0.127998
0.521765,0.0872155
0.413797,0.121261
0.0875823,0.0962406
-0.0959311,-0.13524
-0.158894,-0.197141
-0.0872978,-0.263876
-0.0367044,-0.259878
-0.0178412,-0.178357
-0.0813973,0.15919
-0.102771,0.2616
-0.126392,0.118794
-0.131766,0.0267629
-0.027799,0.0543779
0.0638475,-0.0372579
0.123101,-0.0791803
0.196712,-0.174393
0.190646,-0.161598
0.0596223,-0.0512637
-0.0343902,0.293857
-0.0454084,0.326473
0.0847341,0.26114
0.0717268,0.151198
-0.07176,-0.00517348
-0.212022,-0.171881
-0.25037,-0.170152
-0.111641,-0.111644
0.017386,0.0280516
-0.0135817,0.108299
0.060259,0.147863
0.144449,0.297324
0.0543832,-0.0609736
0.0142381,-0.137729
0.0480881,-0.149494
-0.0311885,-0.12732
-0.0807122,-0.000292349
-0.0575776,0.0722075
-0.00633878,0.0392471
-0.0306267,-0.117866
0.00314233,-0.117892
0.148641,-0.157271
0.261401,-0.217784
0.210088,-0.130653
0.00738542,-0.0839082
-0.195347,-0.106474
-0.254933,-0.00835545
-0.189247,0.110173
-0.128157,0.187295
-0.0437463,0.10209
0.0344301,0.111884
0.0736983,0.18673
-0.0108766,0.0952216
-0.0887782,0.0980464
-0.0886685,0.100563
-0.0839811,0.167135
0.0279152,0.12853
0.134408,-0.218469
0.142262,-0.364638
0.114412,-0.319551
0.0972527,-0.22234
0.0981673,-0.108403
0.099638,0.11546
0.0911224,0.221406
0.052768,0.136933
0.0265992,0.154793
-0.0987791,0.123438
-0.189944,0.0236045
-0.0301105,0.0198968
0.0951926,0.0987075
0.0500007,0.102024
-0.0237125,-0.00388293
-0.0528945,-0.00103058
-0.021118,0.12457
0.112121,0.277335
0.058518,0.0652344
-0.105802,-0.180205
-0.283037,-0.260498
-0.346074,-0.224514
-0.220585,0.071862
-0.0167973,0.0712662
0.138204,0.0138545
0.139708,0.0327588
0.0944487,-0.042892
0.104533,-0.252929
0.164341,-0.366082
0.153701,-0.105323
0.138156,0.340052
0.24803,0.173333
0.189363,-0.543315
0.0867248,-0.91175
0.0179503,-0.60604
-0.163352,-0.22289
-0.174816,0.117438
-0.17262,0.559272
-0.206233,0.904469
-0.190261,0.835517
-0.0733755,0.56701
0.0710232,0.274733
0.0447518,-0.0293916
-0.0296531,-0.260595
0.0172249,-0.234416
0.02194,-0.0217819
-0.0043614,-0.129866
-0.0192669,-0.231456
-0.0735203,-0.0829304
-0.109985,0.0460971
-0.0295695,-0.00308939
-0.012776,0.0331894
-0.112071,-0.256421
-0.16124,-0.17553
-0.0170272,0.235975
0.159624,0.454414
0.146098,0.215592
0.113481,-0.0304017
0.0892596,-0.316076
-0.0525197,-0.406549
-0.209879,-0.364425
-0.20117,-0.31683
0.0206421,0.112778
0.293714,0.408931
0.448167,0.484554
0.420484,0.457925
0.186273,0.434625
-0.133384,0.239037
-0.171974,-0.0282743
-0.0435028,-0.322426
-0.0224423,-0.4933
-0.0587541,-0.417533
-0.156881,-0.549614
-0.133934,-0.462968
0.027024,-0.537946
0.168396,-0.299349
0.0372747,0.129686
-0.155962,0.145835
-0.120785,0.00266808
-0.0624994,0.36428
-0.115995,0.406122
0.00335585,0.249309
0.0904551,0.384132
0.0487891,0.496201
-0.0787951,0.293855
-0.10499,0.29319
-0.0863497,0.166492
-0.0434476,-0.00771588
-0.107302,-0.173854
-0.177054,-0.112339
-0.176419,-0.0553807
0.0355572,-0.0481804
0.228599,-0.0794025
0.240101,-0.286766
0.146524,-0.227413
0.0583944,-0.127407
-0.0272137,-0.0932375
-0.095643,0.0472084
-0.101591,0.113252
-0.00897583,0.202112
0.0652864,0.113216
0.145162,0.0194893
0.259361,-0.14384
0.348178,-0.32747
0.377085,-0.331294
0.415183,-0.110741
0.196463,-0.083855
-0.165828,-0.00865605
-0.293005,0.155516
-0.300909,0.0836963
-0.246135,-0.0159482
-0.141042,-0.0194006
-0.188474,0.00208406
-0.215689,0.00126025
-0.19681,-0.00353982
-0.243675,0.0288281
-0.288078,0.156599
-0.157587,0.121755
0.0507072,0.107709
0.124845,0.0875757
0.0732554,0.0630133
0.167407,0.0502226
0.26333,0.0335753
0.324725,-0.0539465
0.230724,-0.0222326
0.136268,-0.00421937
-0.111139,0.0227157
-0.421683,-0.0101323
-0.466681,-0.115841
-0.173299,-0.0955595
0.150023,-0.0782546
0.217617,-0.0778346
0.301222,-0.0735615
0.303825,-0.0403583
0.220214,-0.0286438
0.102158,0.0103526
-0.0725901,-0.100086
-0.163687,-0.159265
-0.185363,-0.0776671
-0.209599,0.171178
-0.144698,0.248451
-0.0241875,0.312009
0.0498495,0.233288
0.08483,-0.00364025
0.0589986,-0.160998
0.0433063,-0.0722684
0.0419036,-0.0531596
0.00990677,-0.0160249
-0.0043022,-0.0423996
-0.00260629,-0.0728109
-0.0227726,-0.00990954
-0.0609068,-0.112148
-0.0922656,-0.0631596
-0.0847691,0.0810749
-0.0448773,0.167741
-0.00236316,0.137739
0.0328386,0.0920887
0.0334132,0.0857961
0.0326275,-0.0552053
0.0301442,-0.187196
0.0339026,-0.134414
0.0269363,-0.0463645
-0.00522131,0.109122
-0.0302885,0.187977
0.0152271,0.0820217
0.0602613,0.108121
0.0240674,-0.00404107
-0.000811052,-0.19367
0.00955188,-0.0661194
0.00202177,-0.100687
-0.00245106,-0.102315
-0.00538133,-0.0571794
-0.0386836,0.0285592
-0.095825,0.120224
-0.0957855,0.0749166
-0.0181542,-0.0330004
0.0528989,0.0157175
0.0719638,0.0449503
0.0703528,-0.0418766
0.0827,-0.0700307
0.0462066,-0.0521681
-0.0758015,-0.0199763
-0.0996209,0.0308195
-0.0290123,0.134952
0.0171861,0.0595381
0.0493063,-0.0861309
0.0492973,-0.114319
0.123154,-0.0751713
0.206336,0.00781266
0.143357,0.0817508
0.0711163,0.0899848
-0.00204731,0.0823586
-0.105443,0.0767427
-0.143307,0.0104284
-0.0836347,-0.119804
-0.0329265,-0.0390495
-0.0920037,0.0238775
-0.130938,-0.0448379
-0.0746654,0.0220379
-0.0162458,-0.0129446
0.0768022,-0.0395311
0.0497455,-0.0342889
0.0353818,-0.0315225
0.0484876,-0.027036
0.0122345,-0.0230371
-0.0595863,0.0431954
-0.061088,0.0257965
0.00584704,0.0640946
0.0581971,0.0794664
0.0770537,0.0287065
0.041105,0.0347225
-0.00857122,-0.0684693
-0.0395635,-0.113638
-0.070764,-0.137788
-0.0609927,-0.17808
0.0415024,-0.0804531
0.076152,0.126778
0.0195163,0.12005
-0.049571,0.0580581
-0.119459,0.138664
-0.105262,0.148343
-0.0577705,0.100352
-0.0504499,0.0473501
-0.0495028,-0.0229501
-0.00923682,0.0102154
0.0491235,0.0126454
0.0797375,-0.0877747
0.0790062,-0.066914
0.110346,-0.0910818
0.18119,-0.0489464
0.135671,-0.0549688
-0.0849142,-0.0755853
-0.227262,-0.0386383
-0.151391,-0.151303
-0.0144493,-0.101013
0.0445747,0.0388598
0.0505216,0.201095
0.0115121,0.173038
-0.00748145,0.0920018
0.00290486,0.0254386
0.0269777,-0.0680488
0.0692391,-0.13673
0.0878219,-0.0963601
0.119066,-0.0354021
0.114682,0.0288336
0.0479845,0.0697234
-0.00494293,0.0978301
-0.0759084,0.107447
-0.119058,0.0912748
-0.131688,0.00133661
-0.0726063,-0.0766869
-0.0410418,-0.0479518
-0.0353775,0.0137893
-0.0059216,-0.0213384
-0.0205451,-0.0340299
-0.0758241,0.0234637
-0.0940572,-0.0254714
0.00833384,-0.0839769
0.15557,-0.0940556
0.190299,-0.00999095
0.0529264,-0.0853419
-0.0494449,-0.056752
-0.0781114,0.0401453
-0.0716253,0.0770338
0.0153483,0.0245851
0.117389,0.00881439
0.125105,0.0767437
0.0184369,0.120461
-0.0817678,0.121823
-0.0913717,0.0404381
-0.0897524,0.0841269
-0.00682547,0.0503092
0.095887,-0.140282
0.0496217,-0.099442
-0.0694749,-0.0906074
-0.105288,-0.083082
-0.0493855,0.0211842
0.00230367,0.0973467
0.0166444,0.0713619
0.00556346,-0.121804
0.0236503,-0.277552
0.0435064,-0.168355
0.0209317,-0.0655689
0.0257671,0.0596428
0.0215061,0.234089
-0.0315101,0.235055
-0.0163036,0.140979
0.0506955,0.149413
0.0684282,0.0370977
0.0392984,-0.144517
0.0154908,-0.127991
-0.0290629,-0.0361974
-0.06945,-0.0145182
-0.0301228,-0.061629
0.00652661,-0.131265
0.0170747,-0.151761
0.00790939,-0.0198348
0.0124837,0.114279
0.0183403,0.0979058
0.000131002,0.105316
-0.00818489,0.145951
-0.00771163,0.0590963
0.0267474,-0.0594709
0.06579,-0.1053
0.0208835,-0.0383073
-0.0579277,0.0710315
-0.139995,0.0551296
-0.12857,0.0711182
0.0170184,0.0593101
0.116331,-0.0153843
0.162841,0.0265224
0.102964,0.0917821
-0.0366842,-0.0183064
-0.119271,-0.0421708
-0.0785603,0.0170923
-0.0293501,-0.0311777
-0.0500105,-0.0679368
-0.082459,-0.147765
-0.0683508,-0.120299
-0.0607749,-0.00404022
-0.0254579,0.00294163
0.0166476,-0.0891641
0.0162066,-0.125314
0.00212488,-0.0396278
0.0312304,0.0131553
0.0947752,0.105874
0.118958,0.082796
0.070112,0.0703856
0.0214423,0.0622651
0.0150521,0.0248965
-0.00885051,-0.0354584
-0.0239724,-0.032115
0.00064638,-0.00737421
0.0571965,-0.000737875
0.0486785,0.146358
0.0122434,0.126167
0.0155032,-0.133324
-0.010676,-0.104329
-0.0495573,-0.0489666
0.00482408,0.012401
0.0260632,-0.0102378
-0.0197027,-0.042189
-0.0502611,0.00190043
-0.0546874,0.059877
-0.023896,0.043814
0.00848258,0.0179175
0.00177049,0.0047779
-0.0194937,-0.011678
-0.0427768,-0.0188173
-0.0760287,0.0467744
-0.0540615,0.0323549
0.0292374,-0.0214245
0.0624679,-0.0225158
0.0675985,-0.0291025
0.0948236,0.0976167
0.0676733,0.0227171
-0.000668929,-0.118192
-0.0782904,-0.0624875
-0.12619,-0.0258274
-0.122074,-0.0346115
-0.0503449,-0.0633221
0.0147753,-0.0269025
0.0185688,0.0484225
0.0365476,0.0680239
0.0896058,0.0688022
0.143967,0.129469
0.134988,0.110028
0.0298603,0.0361309
-0.113499,-0.000708483
-0.155278,-0.0586235
-0.0279983,-0.0641059
0.0517648,-0.08765
0.0209398,-0.133951
0.0168454,-0.128759
0.0731326,-0.0847174
0.0492566,-0.00464696
-0.0237392,0.0926999
-0.0290033,0.225255
-0.00625187,0.148637
0.00827221,-0.0222745
0.0280201,-0.0773949
0.0288108,0.0153045
-0.0171956,0.0646537
-0.0735098,-0.0563879
-0.074972,-0.14619
0.00303784,-0.123798
0.0368466,0.0264316
-0.0123436,0.0415146
-0.0585588,0.059259
-0.0439,0.0931334
0.0125153,0.086913
0.0241361,0.00454591
-0.0273964,-0.0798333
-0.0529064,-0.122463
0.00204133,-0.00366859
0.0193986,0.156516
0.0183505,0.0520285
0.00974859,-0.0145298
0.0019202,-0.0129035
-0.00430207,-0.0195869
-0.00226486,-0.0295437
0.0235324,-0.00102342
0.0519736,0.0190368
0.064379,-0.0253625
0.0654696,-0.031686
0.0338028,-0.0353969
-0.00707938,-0.00568648
-0.0145692,0.00521718
-0.0102605,-0.0197904
-0.0457749,0.0152405
-0.0778793,0.0436315
-0.013384,0.0197995
0.0751572,0.0216552
0.0855133,-0.0458291
0.0431917,-0.0404914
-0.00856099,0.0212667
-0.00195956,-0.00473083
-0.0094749,-0.0209801
-0.086621,0.0301454
-0.111708,0.0804795
-0.0909856,0.00998175
-0.0310078,-0.0619123
0.036851,-0.0473258
0.0534042,-0.0260588
0.0201306,-0.0203994
-0.0015364,-0.0274959
-0.0229986,0.0314511
-0.0128901,0.0652399
0.0161641,0.0805376
0.0265021,0.0290248
0.0361304,-0.00997444
0.037513,0.0333082
0.0243342,0.0528754
0.00699936,0.022263
-0.000489267,-0.0609776
-0.0107137,-0.1022
-0.00214911,-0.0609398
-0.0234352,0.00137612
-0.0383018,0.0223994
-0.0346588,-0.0186946
-0.0250063,-0.0278596
-0.0204045,-0.0176434
0.0111283,-0.0420834
0.0550993,0.0195035
0.0163308,0.0548789
-0.0236753,0.0338289
-0.00392064,0.0080376
-0.010426,-0.0349782
-0.0317759,-0.0510874
0.00240359,0.010581
0.00342745,0.0683843
-0.0164432,-0.0384303
-0.0285091,-0.0537266
-0.0337203,0.025798
-0.0182771,-0.0057257
0.0236505,-0.0350252
0.0659241,-0.00872069
0.0757789,0.017972
0.0756833,0.0180595
0.0598905,0.0515758
0.0169409,0.135055
-0.0369713,0.139586
-0.0601279,0.0264876
-0.0583669,-0.106403
-0.0580363,-0.0406388
-0.0268569,-0.155852
0.0201552,-0.138535
0.0349098,-0.0402159
0.0384708,-0.081847
0.0418364,-0.0187381
0.0116772,-0.000789648
0.0190061,0.0498549
0.0935905,0.00466788
0.156374,0.010473
0.151162,0.0963301
0.0550589,0.128326
-0.0901699,0.10137
-0.136202,0.0554119
-0.121255,0.0485346
-0.117563,0.0310991
-0.124332,-0.0276778
-0.111772,-0.00509672
-0.0662842,-0.0335918
-0.0171012,0.031584
0.0235385,0.128423
0.0392032,0.0129213
0.0690996,-0.11976
0.0571959,-0.140655
0.0186124,-0.0815132
0.0130347,-0.0142883
0.0100675,-0.0136145
0.0037288,0.0236852
-0.0180214,-0.00256322
-0.0226007,-0.0285026
-0.0135594,0.0313267
0.00336743,0.0159127
0.0251664,-0.0674503
0.042372,-0.026033
0.047706,0.0354122
0.0262122,0.0284456
-0.00434854,0.0176673
-0.0246677,0.024276
-0.0429431,0.00749497
-0.0672836,0.0226323
-0.0708302,0.00776104
-0.0480685,-0.0155973
-0.0115389,-0.0149351
0.0271465,-0.00133594
0.0347047,-0.0341734
0.0194897,-0.0714009
0.0102236,-0.0878176
0.0199693,-0.100343
0.0306538,-0.0493826
0.0409352,0.0306415
0.0797839,0.0889612
0.0842813,0.0905218
0.0346361,0.00575169
-0.00168791,0.0465021
0.0163568,0.0826937
0.0164622,0.0210553
0.022907,0.0302969
0.0271936,0.0110814
-0.0264245,0.0175485
-0.101171,0.0491824
-0.0909244,-0.0461176
-0.0688243,-0.0895517
-0.0602871,-0.0613492
-9.73e-05,-0.0195891
0.0663143,0.00806848
0.0602803,0.0726447
0.00425454,0.0940228
-0.0603642,0.0481693
-0.0782775,0.0191049
-0.034197,0.000138349
-0.00909674,-0.020596
0.000250206,-0.0142951
0.00316688,-0.00519345
0.00549747,-0.0232865
-0.000896127,-0.0372102
-0.0118823,-0.0388827
-0.0104404,-0.0275764
0.0127536,0.00565678
0.0497891,0.0218259
0.0810334,0.0212385
0.0945116,-0.0508421
0.0623268,-0.0790528
0.00184889,0.0968806
-0.0357057,-0.0205482
0.013048,-0.136439
0.040756,-0.0736147
0.00339924,-0.111255
-0.0698765,-0.0180848
-0.0578286,0.0879925
0.00213703,0.151824
0.0294313,0.136186
0.00425657,0.112516
-0.013319,0.0011136
-0.0241003,-0.0294323
-0.0719527,-0.070952
-0.113015,-0.0628367
-0.0768091,-0.0139646
-0.0110605,0.0587602
0.0560272,0.0396444
0.0703615,0.027455
0.0539206,-0.0181493
0.0224926,0.0141778
-0.00225249,0.0205594
0.0201491,-0.0277332
0.0122325,-0.0303203
-0.00260821,-0.00586686
-0.000930145,-0.0337981
0.00502214,-0.0854045
-0.00228618,-0.0688396
-0.0201509,-0.0167165
-0.00528312,0.0472062
0.0236143,0.0884362
0.0194899,0.0773243
0.00735734,0.0450042
0.00561597,0.0108162
0.00964026,0.00620577
0.012657,0.00276162
0.0124696,-0.0443196
-0.00452201,-0.0672203
-0.0220834,-0.0116824
-0.0282538,0.0258588
-0.0283794,-0.000347361
-0.0168409,-0.0446539
-0.0116406,-0.0218982
-0.0118319,0.04442
-0.00528659,-0.04468
0.0251158,-0.0184437
0.0351898,-0.037464
0.0274495,-0.112131
-0.0159809,-0.037056
-0.026792,0.0227002
0.000237951,0.0552642
0.0340493,0.098031
0.0738764,0.0398192
0.0954767,-0.0334592
0.0559987,0.0046844
-0.0231139,-0.0152397
-0.0403655,-0.0938073
-0.0378465,-0.0394207
-0.0658167,-0.0279324
-0.0643998,-0.0791311
-0.0202923,-0.0042986
0.00473245,0.241339
-0.0302533,0.216264
-0.0665641,0.128707
-0.0476791,0.0643173
0.00145352,-0.00216565
0.00279645,-0.0486534
0.00712087,-0.0512438
0.0118883,-0.0328485
-0.00228804,-0.0208288
-0.0110374,0.00969577
-0.0093524,-0.00496292
0.0105833,-0.0232225
0.0303433,-0.0226769
0.0440971,-0.00728342
0.0386808,-0.00477217
0.0180582,-0.0162632
0.00995903,-0.0314155
0.0104767,-0.0382828
0.0178824,-0.0321013
0.0119245,-0.0142336
-0.00354277,-0.00760512
-0.0187806,-0.0218377
-0.0176315,-0.0289283
-0.0014606,-0.0113612
0.00204728,0.0221004
-0.00625149,0.0331532
-0.029292,0.0240872
-0.0366049,0.00827515
-0.0193912,-0.00347583
0.000289327,0.00279599
0.00922005,0.0137286
0.0162747,0.0120825
0.0724689,0.00287172
0.110263,-0.0105325
0.126957,-0.0549561
0.0930379,-0.0819329
-0.0135403,-0.0598841
-0.117769,-0.0505027
-0.126108,-0.095864
-0.0415427,-0.139518
0.0255178,0.0143139
0.067856,0.137832
0.067896,0.119435
-0.00932083,0.136194
-0.049876,0.0966945
-0.0467218,0.0479577
-0.0784008,-0.0829177
-0.18827,-0.0863098
-0.184438,-0.144131
-0.0480538,-0.136648
0.0751081,-0.0235189
0.116511,0.175784
0.0831164,0.168075
0.0519957,0.130537
0.0275817,0.0908052
-0.0082435,0.0736197
-0.0299916,0.00557507
-0.0115109,-0.00566477
0.0180796,0.0107552
0.0347339,0.00394518
0.0281092,-0.015004
0.0156643,-0.0280243
0.00853061,-0.0289144
0.0089685,-0.015953
0.0164611,-0.00694448
0.0186996,-0.00987225
0.00401758,-0.0150338
-0.0137874,-0.024239
-0.0126333,-0.0251625
-0.0101124,-0.018139
-0.00313457,-0.0198599
-0.00370562,-0.0321959
-0.0129638,-0.0389128
-0.0237136,-0.0270258
-0.0214675,0.00292194
-0.00711388,0.0238689
0.000705602,0.0193982
-0.00169631,-0.00245145
-0.00587034,-0.0394507
0.000199759,-0.0528047
0.0203277,-0.0805972
0.0391437,-0.0345087
0.0374304,-0.0498094
0.0301635,-0.0498366
0.0485161,0.0942461
0.056742,0.0805923
0.0765346,0.0717026
0.0650996,0.0345204
0.00770076,-0.00932049
-0.03649,-0.0410921
-0.0976329,-0.106253
-0.102708,-0.168928
-0.0249608,-0.116509
0.0783469,-0.035802
0.0657201,0.104743
-0.0700528,0.0342735
-0.154547,0.0472205
-0.172546,0.147028
-0.105896,0.187451
-0.0205282,0.160341
-0.00261406,0.108761
0.0046987,0.0637268
0.0674679,0.0291871
0.0866824,0.00214826
0.0584355,-0.0160887
0.0296212,-0.0243907
0.0158528,-0.0242882
0.0105546,-0.0194394
0.0182159,-0.0122925
0.0187384,-0.0243715
0.00994139,-0.0309053
0.00485009,-0.0367259
0.0187068,-0.0382281
0.0354224,-0.0322637
0.0217589,-0.0329684
0.00400841,-0.0403508
-0.00913039,-0.0439618
-0.0192832,-0.0451804
-0.0181621,-0.0429976
-0.0146548,-0.0328487
-0.0135059,-0.0248105
-0.0174978,-0.0220954
-0.0182843,-0.0166467
-0.0145209,0.00401503
-0.00763648,0.0264835
0.00466254,0.0253052
0.013818,0.00685737
0.0106183,0.0169604
-0.00176362,0.0778103
-0.00117467,0.0448626
0.007155,-0.0562748
0.00257829,-0.0591354
-0.00766392,-0.00910729
-0.00654094,-0.0250194
0.00777829,-0.0835618
0.0187716,-0.122104
0.0650602,-0.080268
0.0890187,0.0306401
0.0706799,0.115214
0.0261756,0.155017
-0.0805355,0.114597
-0.222588,0.0739339
-0.212794,0.0414035
-0.0750766,0.0107441
0.0414745,-0.00387092
0.15231,0.000385683
0.238519,0.000411623
0.240144,-0.00305163
0.125615,-0.014332
-0.046883,-0.0487272
-0.16379,-0.0368888
-0.183459,0.0113525
-0.120472,0.0222814
-0.0417783,-0.0533351
-0.014559,-0.0373366
-0.0135593,-0.0121744
-0.00341959,-0.00668787
0.016701,0.00330434
0.0327504,0.00731787
0.0266528,0.00287596
0.00980874,-0.0075891
0.00178702,-0.0211546
0.00142057,-0.0132762
0.00116796,0.037338
0.00507203,0.063539
0.00755386,0.0462906
0.00884359,0.0187813
0.00254223,-0.00430555
-0.0139281,-0.0113331
-0.0181691,-0.0107177
-0.0120957,-0.0122332
-0.0126028,0.00702961
-0.00775674,-0.0213363
0.00347412,-0.0234782
0.0150304,0.00343765
0.0164803,0.0403601
0.0064544,-0.0373338
0.00100378,-0.128501
0.00670599,-0.111302
0.00706528,-0.00276798
0.0152138,0.0524914
0.0296365,0.0646775
0.0232414,0.0310242
0.0313719,0.029933
0.0236508,-0.0861103
0.0228328,-0.0790913
-0.0291931,-0.0501613
-0.0837133,-0.0435508
-0.00558897,0.00139396
0.0634967,0.012442
0.0100751,0.0998992
-0.065187,0.156299
-0.0520776,0.113501
-0.0111181,0.097761
0.000497618,0.057333
-0.00695282,0.0386724
0.0053349,0.00682972
-0.0112088,-0.0220566
-0.0266892,-0.0341774
-0.00793698,-0.0298713
0.0267135,0.00736208
0.0497448,-0.0345058
0.06431,-0.0318249
0.0474208,-0.00519163
-0.000425098,-0.0418697
-0.0596549,-0.0404258
-0.0487145,-0.047946
-0.00418765,-0.0150282
0.0374505,0.0290722
0.0403689,0.0191231
0.0093129,0.00564154
-0.00408899,-0.00452089
-0.00565992,-0.00838987
0.00613452,-0.00668083
0.0209935,-0.0267184
0.0164481,-0.0386816
-0.0135336,-0.0423213
-0.0469739,-0.00463664
-0.0575431,0.0100594
-0.038942,-0.0241656
-0.00605639,-0.00635878
0.0268433,0.0220788
0.0222574,0.0250123
0.0106062,0.00985301
0.00624298,0.00344682
0.013106,-0.018636
0.0154231,-0.0275739
-0.00252973,-0.0268663
-0.0105145,-0.00577709
-0.00300867,-0.0586034
-0.0105542,-0.149638
0.036105,-0.0392986
0.116763,0.233884
0.117223,0.160289
0.0416069,0.0878592
-0.091686,0.0346923
-0.186516,-0.0175313
-0.153775,-0.0117466
-0.10315,-0.0179651
-0.0614179,-0.0676296
-0.0154657,-0.0396352
0.0477249,0.0746954
0.0717582,0.0943954
0.0328928,0.0373316
0.0238038,-0.0508143
0.0394408,-0.108833
0.0385108,-0.0894891
0.0356249,-0.0662161
0.0214934,-0.0401845
-0.0547106,0.0382517
-0.0619863,0.0803456
0.0263081,0.0631203
0.0772282,0.0251194
0.057684,-0.0231064
0.015001,-0.0466261
-0.0112532,0.00175102
0.00148063,0.0589148
0.0254644,0.0878107
0.0297091,0.0146074
0.00918292,-0.0395725
-0.0478891,-0.0325863
-0.0511265,-0.0176512
-0.0357768,-0.00145827
-0.0274444,-0.0164152
-0.0249073,-0.0182319
-0.0273558,-0.00936509
-0.0117473,-0.0561819
0.0292971,-0.0524435
0.0704712,0.00162098
0.0700103,0.0266776
0.0410273,0.0288544
0.0263205,0.0066688
0.0147569,-0.017983
-0.0075216,-0.0137624
-0.026098,0.0199282
-0.0591561,0.0193798
-0.0528109,0.0114293
-0.00766649,-0.0291737
0.00734201,-0.0197022
0.00128752,0.0352924
0.00435035,0.149909
-0.000622415,0.0578216
-0.0348744,-0.0930319
-0.0263665,-0.100483
-0.0118721,-0.0655896
-0.00121927,0.0282393
0.0252904,0.0187356
0.0424334,0.0278965
0.0768698,0.0321638
0.0445016,-0.0485653
-0.0573529,-0.0444017
-0.130023,0.00350599
-0.134226,-0.0239707
-0.0758471,-0.000132307
-0.0404678,0.02601
0.00354295,0.00120462
0.094157,0.0396094
0.145561,0.0441848
0.125726,-0.0268675
0.0558649,-0.0316168
-0.0516296,0.0364546
-0.116721,0.077157
-0.0550386,0.042472
0.0549574,-0.00501208
0.123553,0.0220083
0.104219,-0.0459104
0.0469523,-0.0665723
-0.00591986,0.0343821
-0.0433903,-0.0355016
-0.0462987,-0.0936691
-0.0231504,-0.0159783
-0.0176758,0.0405634
-0.0442246,0.052906
-0.0670927,-0.00819866
-0.0377131,0.0700996
-0.0100273,0.022362
-0.0304821,-0.00640065
-0.0320505,0.0279897
-0.0252551,-0.0085414
-0.0172832,-0.0286765
0.0238974,-0.0233904
0.0760672,-0.0197161
0.0961428,-0.0475901
0.0877415,-0.0300335
0.0717585,-0.0259772
0.0326068,-0.028221
-0.0369729,-0.0246266
-0.0950279,-0.0315116
-0.108266,-0.00898516
-0.0919291,0.0184098
-0.0527214,0.045331
0.0201997,0.056825
0.0961029,0.0564046
0.105644,0.00892493
0.0724862,-0.0321493
0.0505101,-0.00451541
-0.000332236,0.0169598
-0.0721119,0.0118786
-0.106855,0.0157871
-0.0844652,0.0251091
-0.0477522,0.0567473
0.00641384,-0.0432574
0.0566069,-0.049279
0.0481708,-0.0205039
0.02893,0.0251306
0.0419463,0.0300222
0.0502577,-0.00420494
0.0196246,-0.0147422
-0.0374473,-0.0209207
-0.0685661,-0.00178869
-0.0658951,0.00060061
-0.0127112,-0.0169432
0.0531258,-0.0227338
0.0727589,0.0309593
0.0444241,0.0193984
-0.009789,-0.0154074
-0.0367616,-0.00954211
-0.0150391,-0.03169
0.000366456,0.0337759
-0.00976646,0.0513979
-0.0088251,-0.0192099
0.00816241,-0.0875192
0.00861958,-0.0587327
-0.00911238,-0.00748723
-0.0400135,-0.0220002
-0.0316819,0.0502498
-0.00996568,0.057273
0.0125027,-0.0246885
0.0138511,0.0215884
-0.0197246,0.1061
-0.0468696,-0.0129026
0.00331266,-0.0233379
0.0530753,0.0379908
0.0394189,-0.00685729
0.0191933,-0.0753373
0.0361118,-0.0202321
0.0166755,0.0105728
-0.01436,0.0151872
0.00232231,0.0447984
0.0166411,0.00260132
-0.00364908,-0.00646038
-0.0391272,-0.00165347
-0.0448682,-0.0316828
-0.0483812,-0.0153669
-0.032439,0.0110954
-0.00278481,0.0020471
0.026136,-0.0153158
0.0412552,-0.0125321
0.0408261,-0.00609547
0.0478077,0.00660672
0.0304216,0.0216842
-0.029687,0.0362625
-0.0530346,0.0506844
-0.032745,-0.00251265
-0.00247739,-0.00354454
0.0245892,0.0288481
0.056481,-0.0402162
0.102471,-0.0643628
0.0287446,-0.0798331
-0.0417557,-0.109197
-0.102449,-0.0847719
-0.126463,0.0279552
-0.0915096,0.0306431
-0.0363979,0.0384586
0.0181908,0.121079
0.035199,0.145689
0.0307387,0.0369718
0.0106093,-0.00332972
0.00279642,-0.00072444
0.0304251,-0.00533037
0.0591238,0.00401778
0.0499906,0.0228223
0.0202329,0.00895204
0.0038218,-0.0520955
0.0413314,-0.0475146
0.076033,0.0154757
0.0414803,0.00614089
-0.0148905,-0.0591302
-0.0597184,-0.0616487
-0.0904785,-0.036012
-0.0831431,-0.0181975
-0.0368667,0.00951287
0.0114435,0.0411887
0.0194824,0.0500796
-0.00852811,0.0301218
-0.0218464,0.000499125
-0.0165596,-0.00713717
0.016827,0.00151011
0.0401893,0.0120945
0.0514165,0.016449
0.0546508,0.00162072
0.0228482,-0.0316387
-0.00790036,-0.0333856
-0.036802,-0.0071849
-0.0380649,0.00606612
-0.00292375,0.0168249
0.0297119,0.0206564
0.0246184,0.0270005
-0.0133268,0.00307594
-0.0414131,-0.00406303
-0.0360291,-0.0213197
-0.02017,-0.0552765
-0.00166568,-0.0675352
0.00157226,-0.0393059
0.0116933,0.0234423
0.026277,0.0231146
0.0447846,-0.0480073
0.0458302,0.00210091
0.00825565,0.0989843
-0.0497858,0.0596306
-0.0609607,0.00555151
-0.00843755,-0.0225201
0.0398411,0.0147622
0.0470326,0.0274509
0.0407674,0.020666
-0.00631613,0.0146006
-0.0482259,0.0011184
-0.0545768,0.0144481
-0.0516152,-0.035911
-0.0316615,-0.108398
-0.0160723,-0.0873385
0.0265082,-0.0225798
0.0594554,0.0437787
0.0460066,0.0655782
0.00681973,0.0545493
-0.0342585,0.0380396
-0.0353755,0.0101869
0.00643413,-0.0268674
0.0219146,-0.0148959
0.0349822,0.00850789
0.0450097,-0.00243892
0.018315,-0.0100201
-0.00699586,0.00247457
-0.0270607,-0.0063363
-0.0363469,-0.0104211
-0.0384903,-0.00512598
-0.033674,0.0241064
-0.0260254,-0.00173626
-0.0119758,-0.00380594
0.0121764,-0.0208732
0.0132241,-0.0323631
-0.00924208,-0.0236718
-0.00802443,-0.0275472
0.0175189,-0.00350741
0.0170324,0.0341568
0.00652047,0.0434529
0.0159091,0.0350605
0.0246871,-0.00311375
0.0261648,-0.0106738
0.0537863,0.0195632
0.0833617,-0.00105017
0.0738296,-0.0247004
0.0108229,-0.0197179
-0.0586957,0.00671987
-0.0728597,0.0605854
-0.0184059,0.048027
0.036959,-0.0343765
0.0191356,-0.09038
-0.0149297,-0.12011
-0.00192954,-0.0856536
0.00979784,0.0426693
-0.00260866,0.107318
-0.028131,0.0720407
-0.0707128,0.0555154
-0.0980218,0.0259519
-0.0843901,-0.0607997
-0.0513465,-0.0024043
-0.0128379,0.0526795
0.0152734,-0.0410886
0.0518799,0.0220295
0.0845261,0.0297685
0.0533981,-0.0228207
0.00796377,0.0296933
-0.0153655,0.00464723
-0.00860801,0.00765241
-0.00540671,0.0184989
-0.0210149,-0.00879297
-0.0293074,-0.00449811
-0.0177131,0.0162652
0.012516,0.00179474
0.0177305,-0.000869115
-0.0176834,-0.0476268
-0.00106392,-0.0732059
0.00790679,-0.0717459
0.0350529,-0.0151099
0.0676048,0.00938428
0.0884681,0.0280909
0.0743115,0.040511
0.0066604,0.0327559
-0.0795819,0.0175758
-0.105355,0.014872
-0.0605904,0.0332161
-0.0292961,0.0519976
-0.011236,-0.0104471
0.0174833,-0.0436784
0.0491785,-0.0517667
0.0450102,-0.0204531
0.0232659,0.0109067
-0.0172571,-0.102116
-0.0366832,-0.183592
-0.00376088,-0.0995849
0.0250777,0.0140216
0.0604878,0.04724
0.0868138,0.0700951
0.0537741,0.098774
-0.0222423,0.101175
-0.0918328,0.0638268
-0.0922973,0.0136382
-0.0659629,-0.0203373
-0.0732199,0.0172048
-0.0536196,0.0319152
-0.0161613,-0.000622484
0.0124085,-0.00984464
0.0650798,0.024106
0.104264,-0.049008
0.0822601,-0.0104729
0.025372,-0.0130488
0.00610344,-0.0267008
0.00163737,0.0594878
-0.0281039,0.0573619
-0.0493162,0.0160122
-0.0656842,0.0136713
-0.0743758,0.000744764
-0.00650289,-0.00656526
0.0519672,-0.060988
0.0334024,-0.0437974
0.00669422,-0.00407511
0.0278738,0.0159296
0.0656272,-0.0130869
0.0689529,-0.0132015
0.0175767,-0.0190918
-0.0422675,-0.0250002
-0.0751692,0.00973126
-0.0708588,0.00984995
-0.0298257,0.027384
0.00505969,0.006133
0.0302232,0.00528548
0.0509122,-0.00674776
0.039582,-0.0353954
-0.00107016,-0.0167774
-0.040233,0.0128325
-0.0552573,-0.0109962
-0.0402662,-0.0129846
-0.000370066,-0.0122208
0.0172034,-0.0225259
0.0140958,-0.00143087
0.0163584,0.0213521
0.00833009,0.044874
0.00218265,0.060803
0.0047568,0.0266863
0.00575007,-0.0165358
0.01403,-0.0161577
0.0259995,-0.00363789
0.0456882,0.0206913
0.0545442,0.0130434
0.0475194,-0.013913
0.0233056,-0.0168436
-0.0216524,-0.00955233
-0.0646415,-0.00757761
-0.0519978,-0.00497918
-0.0187332,-0.0204361
-0.00265548,-0.0309318
-0.00861091,0.00338175
-0.00921729,0.0144328
-0.00952599,-0.00762634
-0.023087,-0.024488
-0.00883047,0.0070418
-0.00457354,0.0215199
-0.0109199,0.0204039
-0.00805801,0.0182582
0.0086999,0.00635545
0.0370218,0.0118693
0.0156699,-0.00267933
-0.00435879,0.00163753
0.0368559,0.0204119
0.0249487,-0.06468
-0.00949846,-0.00967683
-0.0692623,0.0274466
-0.0801889,0.0260236
-0.025696,0.0512316
-0.0125572,0.0105998
-0.00718104,-0.0507848
0.0302688,-0.076046
0.0701784,-0.0545867
0.0636112,-0.0237737
0.00387917,-0.00948389
-0.0313642,0.0276765
-0.031861,0.0407524
-0.0280436,0.028833
-0.0250583,0.00946912
-0.00405521,-0.00127546
0.0228466,0.0142352
0.0354517,0.037498
0.0369046,0.0358914
0.0325238,-0.0138689
0.00774497,-0.029349
-0.00986745,-0.000225936
0.00656012,0.0162534
0.0317445,-0.00345548
0.036529,-0.0356854
0.0182166,-0.043268
-0.00159885,-0.00667811
-0.00216747,0.0349591
0.015422,0.0235302
0.00856286,-0.00671188
-0.00699289,-0.091061
-0.0286555,-0.0777557
-0.0661638,0.0502627
-0.0678211,0.039405
-0.0323757,0.057909
-0.022552,0.029622
-0.0197543,0.0366777
-0.00632097,0.0220385
0.0047139,0.00178123
0.0114078,0.0102522
0.0205955,0.01706
0.0243239,0.0189181
0.0238942,-0.0133033
0.0276053,0.0368913
0.00752831,0.0377787
-0.00585363,-0.013736
-0.00795085,-0.0782609
0.00155021,-0.128146
0.00869272,-0.0725878
-0.0188848,0.00658175
-0.00595287,-0.00195488
0.0112687,-0.0345559
0.00301634,0.0148355
-0.0108503,0.0310903
-0.00642219,0.0201383
-0.0186114,-0.000482007
-0.0319033,0.0233614
-0.0324963,-0.0396435
-0.0234355,-0.0497402
-0.0336343,-0.0191806
-0.0541988,0.00815442
-0.0453139,0.0581542
-0.00773901,0.0880857
0.0366398,0.0556516
0.0850379,0.0309953
0.0882822,0.0274378
0.0716865,0.0333568
0.0355627,0.036279
0.044037,-0.00836513
0.0879575,-0.034243
0.0570491,-0.0114735
-0.0273306,0.0145988
-0.0804473,-0.015201
-0.0696636,-0.0498276
-0.00845078,0.0157929
0.0190663,0.0181346
0.0195581,-0.0519225
-0.00590213,-0.0201131
-0.0146992,-0.00611551
-0.0182766,0.0427234
-0.025685,0.030792
-0.0157056,-0.0364985
0.00464044,-0.048389
-0.000909906,-0.062998
-0.0149782,-0.068192
-0.0169084,-0.0311998
-0.0228158,0.00801446
-0.0329536,0.000650511
-0.00634484,-0.0127975
0.0437627,0.00890767
0.0621032,0.0522008
0.0407011,0.0697301
-0.0187675,-0.0063143
-0.0695374,-0.0156154
-0.0631198,0.00590203
-0.0291022,-0.0125891
0.00361722,0.0236165
0.0140823,0.0761212
0.0338682,0.0683207
0.044543,-0.0108399
0.0108305,-0.0404331
-0.0160258,-0.0121458
-0.0233889,-0.0168152
-0.00659575,-0.0424331
0.0175072,-0.037083
0.0292766,0.00209314
0.0293092,0.0134127
0.0189259,0.00669149
0.0209841,0.00495054
-0.000467187,-0.017591
-0.0425777,-0.0245816
-0.0441345,0.0119602
-0.0187647,-0.00455801
-0.00831465,-0.00209587
-0.0106578,0.0194901
0.0163567,0.0174738
0.039696,0.00893735
0.0138295,0.00866045
-0.0268495,0.00418111
-0.0324677,-0.00675291
-0.0254055,-0.0021424
0.00333755,-0.00242979
0.0158067,-0.00119321
0.0093508,0.0514299
-0.0157787,0.0153847
-0.0253839,-0.0239684
-0.00647143,-0.0185949
0.0211343,-0.0295529
0.0624428,-0.0111926
0.0434398,0.0112892
-0.0120633,-0.0157695
-0.0205287,-0.011218
-0.00236839,-0.0241108
0.00359996,0.00273607
0.00967048,-0.0166478
0.0237108,0.0556241
-0.0032073,-0.00409091
-0.0221672,-0.0127624
-0.0182572,-0.00353289
-0.00812213,-0.0177567
0.00529222,0.0323253
0.0416255,0.0698822
0.150395,0.099852
0.197707,0.00466437
0.10958,-0.0549064
-0.0356464,-0.052505
-0.173416,-0.0250245
-0.177668,0.0111805
-0.122475,0.0078111
-0.0626983,0.000196001
-0.00188313,-0.0114648
0.0362066,-0.0316121
0.0275815,-0.0320913
-0.00797918,0.011216
-0.0330842,0.0250531
-0.030243,-0.00613424
-0.00255462,-0.0456904
0.0174604,-0.0584267
0.00437803,0.00997285
-0.0165685,0.0531274
-0.0399019,0.00843305
-0.0501532,0.00862587
-0.0336462,0.0493759
0.00542682,-0.0158673
0.0449622,-0.0534654
0.0643607,0.0247392
0.0251227,0.0344618
-0.00802073,0.0133897
-0.0119433,0.0494263
-0.0111201,0.00937234
-0.0199472,-0.0712129
-0.017121,-0.0298232
0.0165252,-0.00897568
0.0557316,-0.0166302
0.0575847,0.0108575
0.0171124,0.0244189
0.000970378,0.0207093
-0.0111298,0.0110715
-0.0195023,0.0179225
-0.0351547,0.0170104
-0.0356943,0.0295025
0.0250735,0.0141394
0.092502,-0.0307719
0.10391,-0.0157601
0.0613613,-0.0337953
-0.00147034,-0.0420166
-0.0218167,0.00610541
-0.051692,-0.00477728
-0.0576272,0.00918125
-0.0369522,0.0187851
-0.00732655,0.0341327
-0.000933991,0.00268827
0.0196986,-0.0358897
0.0363825,0.00667341
0.0371481,0.0146572
0.0434693,-0.000478987
0.033878,0.000140199
0.0193955,-0.00659445
-0.0263554,-0.0206051
-0.0579902,-0.0440467
-0.0452705,-0.0118714
-0.022025,0.0254883
-0.0556258,0.0310345
-0.0727915,0.0231403
-0.0445758,-0.0280643
-0.0312269,-0.0457558
-0.0138246,-0.0264833
0.016881,-0.00552227
0.0164561,-0.0301055
0.0141403,-0.0276663
0.0168178,-0.0118834
0.0252408,0.0514159
0.0188952,0.088475
0.0168887,0.0517028
-0.00814119,0.0191674
-0.0323187,0.000324643
-0.0273253,-0.0200132
0.00547181,0.0277393
0.0426574,-0.0149016
0.0723494,-0.0604548
0.0723759,-0.0480617
0.0598194,0.0167332
0.0305969,0.0231583
-0.0148079,-0.0204987
-0.0530832,-0.0179655
-0.0364378,0.0286894
-0.0217589,0.0327587
-0.0310967,0.0281609
-0.0361639,0.00761749
-0.0522801,-0.00470907
-0.0944055,-0.00431123
-0.0818373,-0.000871125
-0.0197797,0.0487408
0.0932775,0.0740018
0.142092,-0.0192585
0.0823867,-0.0601436
0.0182151,-0.0127229
-0.0135672,-0.0148572
-0.0138047,-0.0194749
-0.00935465,-0.00485817
-0.0134965,-0.0013283
-0.0109675,0.0083321
-0.0145964,0.00976254
-0.023548,-0.000674578
-0.0279847,-0.0412385
-0.0202002,-0.0499702
0.0212501,-0.0422504
0.0629428,-0.0261153
0.075088,-0.0104763
0.0341276,0.0143861
-0.0304867,0.0336468
-0.0433249,0.0433463
-0.0367224,0.0214212
-0.00456838,0.000390635
0.042994,0.0233445
0.108618,0.0143963
0.118264,0.0032645
0.0668203,-0.0010411
-0.0270789,-0.0181807
-0.133292,0.0054093
-0.160356,0.0316968
-0.102897,-0.0240761
-0.0399997,-0.0643921
-0.0116635,-0.0577971
-0.0217694,-0.0248327
-0.0314333,0.0366518
-0.000116045,0.0853077
0.024116,0.0424161
0.045916,0.0111929
0.0553946,0.0168621
0.035714,0.0279748
0.0220565,-0.0379254
0.00650715,-0.0753731
-0.00423554,-0.0320938
0.0110235,0.00427849
0.0280287,0.0550829
0.00359635,0.0592333
-0.0170375,0.02662
-0.0224336,-0.00402473
-0.00282039,-0.0270285
0.025712,-0.00681805
0.0152788,0.0148616
0.00145662,0.0133271
-0.0132083,-0.0495472
-0.0081206,-0.0160563
0.000161691,0.00782222
-0.00706749,-0.0277861
-0.0301929,-0.0724822
-0.0353009,-0.0150265
-0.0256293,0.0146112
-0.0106032,0.00498456
0.0042598,-0.0117767
0.0153678,-0.00746688
-0.00482935,-0.0256464
-0.0290951,-0.0115074
-0.0193239,0.0631985
0.012798,0.0548382
0.0636067,0.0260142
0.071119,0.00676341
0.0428155,0.0292028
-4.25e-05,0.0117622
-0.032917,-0.0181436
-0.0417411,0.000795151
-0.0161263,-0.00093738
0.0173843,-0.0350382
0.0374499,-0.0579552
0.0142681,-0.0226332
-0.0301886,0.0360273
-0.0323862,0.0349783
0.0244425,0.0269387
0.0486237,0.014414
0.0327634,0.00471619
0.0190719,-0.0242815
0.0461852,-0.0500077
0.0877401,-0.0344141
0.0426364,0.0273282
-0.0384129,0.0254901
-0.0862196,0.0349007
-0.103151,0.0147075
-0.044269,-0.0184439
-0.00473683,0.00359535
-0.00713711,-0.00364797
0.016414,-0.0172058
0.0372828,-0.0125247
0.012186,0.00379946
-0.018239,0.0329827
-0.0525415,0.0127455
-0.0660794,-0.0108057
-0.0524032,-0.00233781
-0.0348396,0.00277218
-0.0186028,0.0132875
-0.00124104,-0.00173825
-0.0188599,-0.0435482
-0.0360696,-0.0294791
-0.0188913,0.00628175
0.0320215,0.00371643
0.0678107,0.0221614
0.0548909,0.0328574
0.0518637,0.0108683
0.0539065,-0.0119356
0.0329466,-0.00044922
-0.00337507,0.0158705
-0.0329464,-0.00394672
-0.0180225,-0.0220952
0.0288031,-0.0408465
0.0802172,-0.0522919
0.120267,-0.0137676
0.0505115,-0.0660281
-0.0731781,-0.00790495
-0.124375,0.0951561
-0.109138,0.0786995
-0.0421287,0.0191617
0.0347173,0.0362495
0.0426249,-0.0267349
0.011873,-0.0714764
0.00312511,-0.0279484
-0.00864457,-0.02838
-0.029544,-0.0446568
-0.0322136,0.00225911
-0.00676722,0.0159237
0.0185372,-0.0253084
0.0157634,-0.0158037
0.00862857,0.0581275
0.00534221,0.0926973
-0.0086762,0.0473397
0.00394327,0.00437005
0.0268985,0.000228769
0.0157839,0.0188831
-0.00877503,0.0063706
-6.54e-05,0.0124741
0.0323256,0.00334938
0.0699589,-0.0158028
0.0828593,-0.00616016
0.0205974,-0.0100563
-0.0575424,0.0364119
-0.121229,0.0698134
-0.106707,-0.0533089
-0.0104661,-0.0520499
0.0398894,-0.0264365
0.0345928,-0.00213225
-0.011165,-0.0127484
-0.0323584,-0.0133757
-0.00749165,-0.0057283
-0.00105804,-0.00584483
0.00643313,-0.00307177
0.0242388,-0.00876126
0.0203089,-0.0388591
0.00104795,-0.037121
-0.00395383,-0.000628637
-0.0126822,0.0131794
-0.00552689,0.00724203
0.000923837,0.0347444
-0.0138952,0.042635
-0.00718655,0.0637097
-0.00566858,0.00752785
-2.49e-05,-0.0219886
0.00950261,0.0347683
0.040621,0.00524613
0.0843355,0.0018465
0.084081,-0.0465989
0.0278428,-0.0529812
-0.0180403,-0.0662122
-0.0371481,-0.0466535
-0.0911134,0.051157
-0.0956969,0.062235
-0.0303377,-0.0231922
0.0204181,0.00817838
0.0268262,0.0148205
0.00896949,-0.0195554
-0.0142675,-0.0333512
-0.0307317,-0.0526385
-0.0233951,-0.0402435
-0.00209774,-0.00261
0.0341465,0.0521004
0.0438682,0.0366671
0.0413625,0.0827624
0.0558903,0.103464
0.0234599,-0.0447913
-0.030162,0.0163115
-0.0432915,-0.029712
-0.0380422,-0.0444084
-0.0314555,-0.013849
-0.015589,0.00581824
-0.0113534,-0.00646039
-0.020791,-0.00433247
0.00472652,-0.0294628
0.0337287,-0.00774742
0.0291165,0.0181682
0.0157988,-0.0155448
0.00461089,-0.0176227
0.00106564,0.0127166
-0.00947754,0.00429763
-0.0213342,0.0226864
-0.0278095,0.0457951
-0.0351605,0.00513862
-0.0210466,-0.0322317
0.00549624,-0.0163015
0.0195569,0.00707298
0.0481076,0.00935859
0.0876992,0.000703529
0.096833,0.0174506
0.114872,0.00593712
0.112776,-0.005212
0.0642882,-0.00596604
-0.0257082,-0.0294181
-0.126009,0.0504
-0.163969,0.0576337
-0.107494,-0.0647116
-0.0557383,-0.0482304
-0.0106609,-0.0108062
-0.00147795,0.00287548
-0.0231696,-0.0139023
-0.0462503,-0.0237413
-0.0459973,0.00157838
-0.0423497,0.0110297
-0.0397598,0.0465328
-0.0440448,0.0155961
-0.0114397,-0.00543041
0.0232749,0.0431635
0.0299421,0.00757814
0.0392819,-0.00190383
0.0513995,-0.00708791
0.0796574,-0.0275475
0.0981868,-0.0427987
0.0754989,-0.0302314
0.0344866,-0.015329
0.0116822,-0.0017529
0.00659137,0.0328295
0.00420272,0.0421232
-0.00401308,0.0124368
-0.0158531,0.00300324
-0.0309678,-0.0389065
-0.0369574,-0.00112056
-0.0364502,0.0468319
-0.00520324,-0.00207845
0.0118341,-0.0307787
0.00689176,-0.0300376
-0.0105689,0.00429092
-0.00699572,-0.0242377
0.0277739,-0.0389098
0.0221354,0.00033101
-0.0389843,-0.00042355
-0.0641717,0.055725
-0.070104,0.0439049
-0.06954,-0.0158204
-0.0300965,-0.00115937
0.0281488,0.00962695
0.077693,0.0291907
0.139343,-0.00462468
0.158034,-0.0551099
0.105052,-0.0691086
0.00907278,0.0206167
-0.0717055,0.116931
-0.107238,0.0253184
-0.0857631,0.00776994
-0.0347552,0.0162695
0.00484356,0.0435436
-0.00224238,-0.0111181
-0.0331496,-0.047374
-0.0791502,-0.0324025
-0.0835792,-0.017622
-0.0476292,-0.00964572
0.006057,-0.0223339
0.0313764,-0.00322322
0.0434598,-0.0304039
0.0756816,-0.0332113
0.112154,0.017089
0.116228,0.0517048
0.065613,0.0227326
0.00917345,0.0514378
-0.0322274,0.0419896
-0.0628008,-0.0282844
-0.0782749,-0.0317327
-0.0659084,-0.0416168
-0.0386651,-0.0445616
-0.0124446,-0.00916218
0.0516653,0.0113491
0.100377,0.00738847
0.0795526,-0.0106368
0.00888191,-0.0671251
-0.0540453,-0.0850686
-0.058089,0.0740492
-0.0710402,0.124229
-0.0942756,-0.0611137
-0.0713539,-0.0335501
-0.0605016,0.0439903
-0.0404661,0.0769292
-0.0283282,0.0151542
-0.0156342,-0.0254699
0.0162502,-0.0104965
0.035159,0.0171925
0.0421302,0.0208261
0.0526722,-0.00601739
0.0750969,0.0603968
0.0792038,-0.00668271
0.0944122,-0.0577323
0.102185,-0.00125617
0.0600447,0.000849901
-0.0100585,-0.013116
-0.0520081,-0.0333661
-0.0538324,-0.0107687
-0.0463546,-0.00902468
-0.0133168,-0.00745107
0.0111331,-0.0409281
-0.0388762,0.0209459
-0.0648689,0.0634229
0.00727635,-0.0157402
0.0236488,-0.0493218
-0.0206139,-0.0237746
-0.0218957,-0.0199954
0.00315877,-0.0416445
0.0164257,0.059953
0.0387876,0.0882119
0.0440491,-0.00253172
0.0412184,0.00563354
0.0189213,0.0167721
-0.0134764,0.0093364
-0.06463,0.0051902
-0.100521,0.0162837
-0.0996268,0.00814326
-0.0415786,-0.0145732
0.0088554,-0.0302667
0.0252404,-0.0226717
0.0318084,-0.0119096
0.0277383,-0.00439582
0.107173,0.00546924
0.179372,0.0209974
0.0839329,0.00548998
-0.0614697,-0.0134616
-0.145329,-0.00512224
-0.138752,-0.0283156
-0.0690775,-0.00331927
-0.0300947,0.000858256
0.00629167,0.0333268
0.0170582,0.0674993
0.0220886,0.015303
0.0359351,-0.0354204
0.0291136,-0.0208133
0.0282983,-0.00101354
0.0439073,0.00147588
0.0561274,-0.0274343
0.0590339,-0.0253924
0.0514532,-0.012598
-0.0045841,-0.0185716
-0.0689357,0.015806
-0.10735,-0.0163486
-0.0852387,-0.0411168
-0.0365269,0.00153475
0.00736534,0.0379619
0.0169559,0.0790465
-0.0067518,0.00395079
0.0170839,-0.0221194
0.0451467,0.0368844
0.0622078,0.0180965
0.0782098,-0.000943628
0.0609968,-0.0071804
0.033554,-0.0041677
0.0130154,-0.0193771
-0.0268764,-0.0231539
-0.0781708,-0.014904
-0.117971,0.00548727
-0.0732695,-0.00403922
0.00179783,-0.0112449
0.0122262,-0.0346868
-0.00124664,-0.0392579
0.00857902,0.0397752
0.0324859,0.0582287
0.0213981,0.0164163
0.0164772,0.000845059
0.0190804,0.0464044
-0.00930688,-0.0312361
-0.0460201,-0.0288695
-0.0167284,-0.014693
0.031046,-0.00526614
0.0414411,0.00826029
0.0285209,-0.00604889
0.0418699,0.00723828
0.0510924,0.0148765
0.043272,0.0134115
0.00749532,-0.0180276
-0.0349527,-0.0244071
-0.0650594,-0.0149594
-0.047189,-0.0023755
-0.0123846,-0.00105193
-0.0100169,0.037493
-0.0379031,0.0416271
-0.049089,-0.0106111
-0.0239715,-0.0275479
0.0414515,-0.0248638
0.0682974,-0.017426
-0.00387832,0.00969015
-0.0839779,0.0224517
-0.0744164,-0.0193914
-0.0304886,-0.0569132
0.00272783,0.0127119
0.0577752,0.0404495
0.0819158,0.00806023
0.0517695,-0.00805584
0.0122053,-0.0106775
-0.0159307,0.0282208
-0.0450738,0.0204733
-0.0406447,0.0291723
-0.0109941,0.00850109
0.00493658,-0.00949532
0.0111274,-0.0138692
0.0244334,-0.0038259
0.0630106,0.0184354
0.0783628,0.000403963
0.047015,-0.010579
-0.00178568,-0.00128684
-0.0469328,0.00391489
-0.0670346,0.0130608
-0.0452021,0.00230927
-0.0257709,-0.00417374
-0.0181946,0.0150598
-0.00951992,0.0149046
-0.013814,-0.0369726
-0.00851788,-0.00839966
0.0119087,-0.0231471
0.0463005,0.0101389
0.0612765,-0.00749008
0.0756869,-0.0851152
0.0725894,-0.0225215
0.0802675,0.0371964
0.0168974,-0.0176912
-0.0862705,0.00888839
-0.13813,0.0298644
-0.118513,0.0337014
-0.0448179,0.0175493
0.00200817,-0.00945445
0.0188192,0.00739007
0.0167178,0.0135317
-0.00349401,0.00573925
-0.0105019,0.00299362
-4.13e-05,0.00639272
0.00473544,-0.00521808
-0.00281689,-0.0227822
-0.0149661,-0.0183694
-0.0339874,-0.00118377
-0.0234911,-0.0207428
0.0388482,0.0071922
0.071765,0.0127115
0.0668535,0.0129574
0.0404591,0.016135
0.0105249,0.015956
-0.0028854,0.00950155
-0.00717047,0.00595308
-0.0257337,0.000253133
-0.0275552,-0.00722362
