Comp Ch 3,Comp Ch 4
-0.000661931,-0.0426001
-0.0365544,-0.0620808
-0.0871231,0.0460548
-0.127374,0.0559354
-0.109694,-0.028621
-0.0501097,-0.0551362
-0.00139737,-0.0297062
0.090043,-0.00970503
0.118252,0.0886748
0.0497863,0.109007
0.00727455,0.0291851
0.0273629,0.0981493
0.0178113,0.136574
-0.00437824,0.0206877
-0.00245939,-0.126838
0.0087498,-0.173066
0.00484043,-0.0305066
-0.0479731,-0.00137229
-0.0674118,-0.140491
-0.0197301,-0.140789
0.0419053,-0.00685484
0.0536115,0.0618972
0.00197902,0.0318992
-0.0158866,-0.0775082
-0.0061208,-0.010408
-0.0151035,0.0365672
-0.027418,0.0645554
-0.0360447,0.0764823
0.000369845,0.0609094
0.0456951,0.0616695
0.0416986,0.071222
0.0455539,0.0962087
0.0373626,0.00257759
0.0434431,-0.124101
0.0402791,-0.148003
0.0265727,-0.000616246
-0.0110758,0.0307038
-0.0669397,0.00288894
-0.0768465,0.0131508
-0.0554784,-0.00499718
-0.0119926,0.0750122
0.0165154,0.0685666
0.00252454,-0.0177744
-0.0201683,0.0323475
-0.0193244,-0.00529326
0.0124859,-0.0317689
0.041561,-0.0243219
0.00796207,0.0156014
-0.050396,0.0605088
-0.0780975,-0.0656052
-0.0503486,-0.0984601
-0.0129788,-0.0487159
0.00543827,-0.040859
-0.0353493,-0.0444857
-0.0967477,0.00321946
-0.114452,0.0230627
-0.0277162,-0.0104834
0.0939995,-0.00865163
0.0659146,0.0570847
-0.0150957,0.0970068
0.0332204,0.101742
0.115109,0.0515319
0.157236,-0.113242
0.138967,-0.16587
0.0441677,-0.030458
-0.0594803,0.0325498
-0.143592,0.150344
-0.14731,0.138435
-0.0566839,0.0157762
0.0591878,-0.0698338
0.12058,-0.0842325
0.137076,-0.0732323
0.148696,0.0116406
0.0500541,0.0086777
-0.0619478,-0.0380413
-0.0912367,-0.0615188
-0.0845905,-0.089868
-0.0404842,-0.0900633
0.00504213,-0.145357
-0.00767227,0.00361638
-0.026682,0.19066
0.0565072,0.143244
0.115546,0.0378216
0.0657573,-0.0402764
-0.0359988,0.130262
-0.137239,0.0962264
-0.150693,0.0377321
-0.0633134,-0.0161394
0.0158407,-0.084098
0.047973,-0.0130366
0.0253036,0.0167404
-0.0294026,0.0548057
-0.054157,-0.0199049
-0.0428212,0.0166631
-0.0180457,0.0268192
0.0944638,-0.040682
-0.00411212,-0.0125073
-0.129027,-0.0750084
-0.0106937,-0.0465207
0.118459,0.0399247
0.112004,0.00904768
0.0646026,-0.0367232
-0.00912646,-0.0682195
-0.0279547,0.0770914
-0.00865728,0.0586062
0.0456811,-0.131331
0.112739,-0.0933652
0.11827,-0.0790895
0.0704134,0.106349
-0.0162397,0.130954
-0.0922249,0.0281249
-0.117715,-0.067736
-0.0612681,-0.064132
-0.0369981,-0.0383723
-0.117196,0.0431036
-0.10343,0.0854473
-0.0220656,0.0364971
-0.0015633,0.00635883
-0.000831129,0.0644553
0.00596151,0.00065098
-0.0532431,-0.0405585
-0.0753531,-0.00773879
-0.0741106,-0.0193774
-0.0180487,0.0680583
0.0776211,0.0920991
0.166504,-0.118663
0.194257,-0.082841
0.076802,0.007198
0.0658221,0.0463544
0.0461041,-0.0171826
-0.159027,-0.050004
-0.236683,-0.0512841
-0.0741112,-0.0304922
0.111977,-0.0635546
0.155433,-0.0490186
0.104562,0.0721528
0.0858444,0.0793352
0.0580008,0.0182114
-0.00642477,-0.0312861
-0.0284763,-0.0141571
0.0460387,0.030739
0.0773953,0.13158
-0.0140382,0.0132036
-0.0811746,-0.0681095
-0.0870574,0.0203456
-0.0440662,0.0113216
-0.00183514,-0.0192178
-0.013017,-0.000553367
0.0239536,0.0107856
0.0666207,0.0659902
0.0335004,0.00473508
-0.0977695,-0.0365702
-0.115831,0.0293219
-0.0723128,-0.0150801
-0.0755295,-0.0506481
-0.0648126,-0.0550016
0.037361,-0.0639096
0.0762194,-0.0163785
0.0365927,-0.0238576
-0.0146223,-0.0107354
-0.0703505,0.00846109
-0.0499127,0.0611272
-0.0181304,0.0233613
0.0123438,0.0115502
0.0337441,-0.0657541
-0.00700051,-0.0627383
-0.00293092,0.067838
0.0575775,0.110151
0.0568842,0.121224
0.0384301,0.0262959
0.0260963,-0.0194752
-0.0405491,-0.00455449
-0.0296913,-0.0192471
0.0236632,-0.00711295
0.0587968,-0.0223982
0.0725132,-0.0308877
0.106864,0.0259327
0.0103553,0.0352431
-0.106364,-0.039219
-0.163229,-0.0399509
-0.143388,-0.0103373
-0.0371727,-0.0244566
0.0620072,-0.01522
0.105748,-0.0298502
0.0865618,-0.00993367
0.0840593,-0.00536496
0.0392449,-0.00390475
-0.0576606,-0.0111426
-0.0886064,0.0719549
-0.102111,0.0677366
-0.100325,0.0069123
-0.0466132,0.00267653
0.0691752,0.037601
0.156475,0.0312883
0.137182,-0.0127069
0.0733298,-0.0279254
0.101074,-0.0361873
0.105002,-0.0597711
0.0655484,-0.0319895
-0.00386666,-0.00743484
-0.142679,-0.021091
-0.222755,-0.0183087
-0.180521,0.0175047
-0.0346249,0.0870122
-0.0012327,0.010739
-0.0267528,-0.0443125
-0.0689475,-0.0579358
-0.106347,-0.0667959
-0.0682012,-0.0441444
0.0323655,0.0605873
0.0933824,0.0523232
0.0824126,0.00140747
0.111449,0.0360896
0.156798,-0.014981
0.10961,-0.0506589
0.0716809,-0.101182
0.00155277,0.0244885
-0.010145,0.185069
-0.0613471,0.068665
-0.123659,0.0164549
-0.0809485,0.0389483
-0.0136834,0.0145441
0.0227987,-0.0223325
0.0219192,-0.032884
0.00627956,0.0110958
0.00627193,0.0652424
0.0119258,0.0269125
-0.0082559,-0.0548453
-0.0292844,-0.0766763
-0.0337554,-0.0501385
-0.0377586,-0.0377938
-0.0210096,-0.00666072
-0.0381452,-0.00858294
-0.0905638,-0.0414017
-0.103457,0.00106017
-0.078482,-0.0169935
0.0494297,-0.0447119
0.258111,-0.0416978
0.230242,-0.117126
0.127384,-0.0300328
0.0334578,0.0698165
-0.046676,0.0165743
-0.0403708,0.0834444
0.018857,0.0778006
0.0382301,0.0903055
-0.018643,0.0618555
-0.100564,-0.0243739
-0.118058,0.0214672
-0.014962,-0.00836339
0.0851667,-0.0651082
0.0937148,-0.042261
0.0220458,0.00428959
-0.0729049,-0.00252283
-0.169915,-0.00957426
-0.147716,0.072498
-0.0599223,0.00427069
0.0190783,0.0278332
0.0411247,-0.00458256
0.0230448,-0.0461828
-0.00250021,-0.0844307
-0.0017507,0.0498853
0.00282148,0.0730356
0.0152715,-0.00771611
0.0428116,-0.0565294
0.0676527,-0.0346059
0.0631736,0.0164836
0.0117469,-0.0205906
0.0148191,-0.103735
0.040971,-0.161341
0.0378813,0.055171
-0.00238657,0.142265
-0.0237096,0.0417872
0.00714719,0.0975688
-0.0284007,0.066693
-0.117973,0.0639324
-0.124832,0.0473881
-0.0372816,0.0593156
0.0275972,-0.00276052
0.0524705,0.0155864
0.0630066,0.00921086
0.0256449,-0.0870604
-0.0245247,-0.125193
-0.0586524,-0.0596049
-0.00673773,0.105311
0.0522182,0.112121
0.0452882,0.0472677
0.0229164,0.0283685
0.000899594,-0.0280489
-0.0152703,-0.0440477
-0.0154259,-0.0536588
-0.0043414,-0.0434232
0.0148419,-0.0550197
0.0254534,-0.0733476
0.0494242,-0.00970824
0.0266147,0.0283942
-0.0302269,-0.0428196
-0.0131112,0.0392148
-0.0170388,-0.0441028
0.0196951,-0.156015
0.122973,-0.0944468
0.140197,-0.0402059
0.0158279,0.0090529
-0.0684696,-0.104862
-0.122244,-0.0283446
-0.115407,0.0458046
-0.0363434,0.101681
0.026131,0.106201
0.0435469,0.0610642
0.030555,0.0283482
-0.0142489,0.0404665
-0.028831,0.0514541
-0.0171327,0.0147972
-0.00491132,0.000145294
-0.0265048,-0.01501
-0.0895454,0.016535
-0.0974205,0.00017154
-0.0191869,-0.0324338
0.0592141,0.00694436
0.07159,0.0662522
0.0663617,0.056691
0.0206031,0.00805361
-0.038904,-0.00809193
-0.0968416,-0.0175392
-0.0827993,-0.0377002
-0.0294306,-0.0633693
0.0286457,-0.0488999
0.0313576,-0.0150218
0.00747692,-0.0184456
-0.0148724,-0.0174448
-0.0107981,0.0240048
0.0238935,0.0453051
0.019493,0.0301974
-0.00456048,0.0223801
-0.0107148,0.0438703
0.0240765,0.0207715
0.0906455,0.00290764
0.143942,0.00145254
0.0902484,0.00925972
0.0201441,-0.0319269
0.00611456,-0.0591772
-0.00433077,-0.0501706
0.010692,-0.0515896
-0.00616242,-0.0386527
-0.0348683,0.0155284
-0.0150764,0.0371165
0.0150964,0.0180079
0.0132956,0.0532538
-0.0252496,0.045137
-0.0126529,-0.0152724
0.019779,-0.0120465
-0.00828127,-0.0414855
-0.0264062,-0.027096
-0.055152,0.0436963
-0.0674095,0.0716788
-0.0684682,0.0595167
0.00479555,0.0311336
0.080544,0.0131376
0.0578915,-0.00900248
-0.0181607,-0.0387662
-0.0209324,-0.0277857
-0.0163225,0.0105537
-0.0387832,0.00406291
-0.0770033,0.0140787
-0.0975318,-0.0207464
-0.0200734,-0.0385982
0.0179251,-0.0710992
0.0133857,-0.0422688
0.0297646,0.0398247
0.026927,0.0313507
0.034815,0.00355552
0.0558917,0.016446
0.0215862,0.00117057
-0.0257853,-0.00560623
-0.0348342,-0.0225841
-0.00922516,-0.0462202
0.0526358,-0.033678
0.071177,0.0535307
0.0617588,0.0893039
0.0304624,0.00451909
-0.00123241,-0.0333827
0.00551918,-0.0170564
-0.0543584,0.0113119
-0.142087,0.00701985
-0.144959,-0.01225
-0.0931001,-0.0213269
0.0266445,0.00596297
0.103972,-0.0135368
0.0812855,-0.015454
0.0222955,-0.0101591
0.0211076,0.0126255
0.00335392,0.0339358
-0.00648057,-0.00614703
-0.00209521,-0.00175478
0.00854863,-0.0253004
0.00263055,-0.0357787
-0.0116006,0.0351411
-0.0145516,0.0404395
0.00904064,-0.0245046
0.0463012,-0.00211088
0.0790136,0.0130608
0.106811,-0.00282571
0.0773674,0.0086858
0.0313084,0.0408276
-0.0475568,0.0735362
-0.127817,-0.016683
-0.120231,-0.0665457
-0.024275,-0.0402473
0.0250188,-0.0907918
0.0168243,-0.0495811
-0.00329057,-0.00847474
-0.0133221,0.0339135
-0.0390525,0.0295785
-0.0243552,0.0448976
0.036278,0.0340808
0.0776017,0.040508
-0.00450475,0.0103852
-0.120639,-0.00467642
-0.0875455,7.13e-05
-0.0574944,0.00819266
0.00574846,-0.0076006
0.0887314,-0.00909841
0.135578,0.0310351
0.0473756,0.0292476
-0.0517741,-0.0874852
-0.0975801,-0.139377
-0.0955718,-0.0559102
-0.0189409,0.056221
0.0683296,0.0580836
0.101568,-0.0599298
0.104044,0.030102
0.0964692,0.0595982
0.0316262,0.011647
0.00402981,-0.00265037
0.0134596,0.0510689
-0.0174194,0.0977847
-0.021367,0.0544128
-0.0269121,-0.0694273
-0.0149405,0.00836729
0.0230031,0.0289626
0.02433,-0.0215597
0.00108131,-0.0254059
-0.00145205,-0.00292595
-0.0939422,0.0177207
-0.119657,-0.0322202
-0.0715933,-0.0588267
-0.0331999,-0.0565588
-0.0127384,-0.0357726
-0.00549929,0.000605027
-0.00787708,-0.00405699
0.00946471,-0.00849346
0.0226821,0.0140148
0.0245784,0.00388505
0.0517306,0.00248518
0.0965109,0.0364627
0.0790292,0.050064
0.00986694,0.0188783
-0.0551668,-0.013467
-0.085578,-0.0217299
-0.0647806,0.00381541
-0.013908,0.0376228
-0.0106082,0.0247434
-0.0320259,0.00475328
-0.0495261,-0.00112839
-0.0360194,-0.0476469
0.0274551,-0.0724714
0.0856468,-0.0544869
0.082624,0.0342578
0.0316287,0.0108584
0.0111562,-0.0258189
0.0340123,-0.000603752
0.0237895,0.012719
-0.00358887,-0.00300791
-0.0355805,0.011237
-0.0461331,0.059701
0.00297719,0.0397151
0.0375338,-0.07031
0.0180081,-0.0186726
-0.0242851,0.0111729
-0.0269654,-0.00863545
0.0156923,-0.0132766
0.0671423,0.0389636
0.0898215,0.0295598
0.0901702,0.0405721
0.0193606,-0.021763
-0.0641466,-0.0577738
-0.110959,-0.0381091
-0.096037,0.0569406
-0.0432628,0.122437
-0.0171778,0.0764146
-0.0166452,-0.0112715
-0.00426621,0.0168184
-0.00900758,0.00747601
-0.00919114,-0.0371022
0.00868318,-0.0698975
-0.000486463,-0.0187892
-0.0146962,-0.0147762
-0.00342112,-0.00410745
0.0114387,-0.0229461
0.00915562,-0.0426469
0.0106198,-0.0220925
0.025487,0.000204379
0.0314228,0.0122519
0.0195462,0.0122552
0.011281,-0.0102474
0.00666546,-0.0158501
-0.00629581,-0.0224606
-0.0185776,0.00600757
-0.0310839,0.0530142
-0.025816,0.024855
0.0049642,0.00574722
0.0228343,-0.00793836
0.00559445,-0.022162
-0.0034096,-0.0183521
0.00432761,-0.0123848
-0.000636514,-0.0107942
-0.0243156,-0.0035299
-0.00894185,0.00181839
0.0205243,0.0681554
0.00298056,0.0216921
-0.00142527,-0.0505791
0.000464352,-0.0123486
-0.0153169,-0.0200257
-0.00868086,0.0115266
0.0309633,0.00567309
0.0677631,0.0415499
0.0774158,0.0264666
0.0522817,0.00118976
0.0245877,-0.0396796
-0.0567571,0.0412465
-0.10008,-0.0232091
-0.0490913,-0.0439994
0.00502649,-0.0105087
0.0114222,-0.0122941
-0.0434078,-0.0231658
-0.0546913,-0.0727109
-0.0276202,-0.0203454
-0.00340676,0.0972337
0.00555217,0.0541928
0.029951,-0.00213725
0.0497271,-0.00345287
0.0478781,0.0124681
0.0225163,-0.000608825
-0.008157,0.00239281
-0.00626345,0.0202796
0.030558,0.0159874
0.0567724,0.0103195
0.0600333,0.00907369
-0.00721661,-0.0102484
-0.0806094,-0.0291019
-0.0703592,-0.0447679
-0.0368658,-0.0438019
-0.021819,-0.122358
0.0159692,-0.0496738
0.0253103,0.0970062
0.0044846,0.149946
-0.00983399,0.0224349
-0.00921047,-0.000617344
0.00716732,0.015955
0.041029,0.0229858
0.0584116,-0.00562089
0.0314782,0.025324
-0.0148744,0.0142704
-0.0490378,-0.000264463
-0.0728685,0.049147
-0.068433,-0.0580378
-0.0543305,-0.0586076
-0.0345697,-0.0261812
-0.0172639,-0.017321
0.0144923,0.0590629
0.0501132,0.0575786
0.0846121,-0.0143438
0.0806388,-0.0124637
0.0451819,-0.0133141
0.00113914,-0.0177866
-0.0191562,-0.0199808
-0.00300268,0.0146637
0.00878407,0.0117105
0.00887646,-0.0355673
-0.0109649,-0.01312
-0.0296997,-0.0205337
-0.026069,-0.0343867
0.00679749,-0.0660695
0.0122204,-0.00834251
-0.00813807,0.0698028
-0.0232342,0.0259612
-0.0404456,0.0389855
-0.0687792,-0.0150103
-0.0625554,-0.0085621
-0.002322,0.0276354
0.0451451,0.0123684
0.0554041,0.00351712
0.0653691,0.00542883
0.0639621,-0.0479818
0.0618173,-0.0236607
0.0501352,-0.0340427
0.00781833,-0.0537506
-0.0490419,0.067971
-0.0572123,0.0747189
-0.0591989,0.0747674
-0.0626624,0.0341808
-0.0260686,-0.0449221
0.0153301,-0.106116
0.012553,-0.104242
0.00695473,-0.0747791
0.0299289,0.0168707
0.0631898,0.10604
0.0438644,0.0298871
-0.0126466,-0.00603857
-0.0410469,0.0225004
-0.0377528,0.0495184
-0.0275658,0.129351
-0.0585943,-0.0110812
-0.0789147,-0.0315115
-0.0258714,-0.0413952
0.0566547,-0.016136
0.110665,0.0139873
0.0761651,-0.0271736
0.0377612,-0.0180014
0.0103112,0.017444
-0.0129373,0.0161793
-0.0399439,-0.00648088
-0.0694387,0.0150874
-0.0514101,-0.0249778
0.018916,-0.0393173
0.031599,-0.0333381
0.0135707,-0.0661389
0.0250646,0.0344618
0.00763279,0.0467725
-0.0190972,0.0216513
0.00572671,-0.00866817
0.031602,-0.00422587
0.0385878,-0.04032
0.0400601,-0.0737716
0.0120684,-0.0207974
-0.018636,0.0968833
-0.0258009,0.107206
-0.0187387,-0.0060428
-0.0393922,-0.0466219
-0.0135415,-0.0213373
0.0396672,0.0129896
0.0217366,0.0033573
-0.048823,0.0239406
-0.141136,0.00637671
-0.166082,-0.040238
-0.097434,-0.0161021
0.00408784,0.0524618
0.144604,0.0152787
0.164664,-0.00371675
0.0717427,0.00453795
0.0100512,-0.0170567
0.00232595,-0.00169162
0.022694,0.0278189
0.0274808,-0.0413446
0.0228852,-0.0168072
0.00470872,0.0720927
-0.00561696,-0.022556
0.0181408,-0.0843715
0.0290293,-0.0289756
0.00888763,0.0181093
0.0265454,0.0558534
0.0248375,0.00323575
-0.00805073,0.0242543
-0.0634288,0.0422661
-0.100678,-0.00122599
-0.0782284,-0.0417056
-0.0463032,-0.0591774
-0.0110632,-0.00242867
0.0219323,-0.0060852
0.0504579,-0.0227563
0.0658122,0.0395869
0.026858,0.0211181
0.00831232,-0.0207456
0.0169244,-0.0518326
0.00861895,0.0393988
-0.0422374,0.0408607
-0.0806632,0.0201258
-0.0659726,0.0334916
-0.0303261,0.074595
-0.013187,-0.000363042
-0.00396822,-0.0303649
0.0256619,-0.0341477
0.0227826,0.0150672
-0.0179104,-7.43e-06
-0.0150954,-0.0175209
-0.01717,-0.0157099
0.0264366,-0.0118597
0.0862333,-0.0485534
0.0658025,0.00652172
-0.0290467,0.0435636
-0.0969048,0.032947
-0.100074,-0.0492903
-0.0159878,-0.0161247
0.0909295,-0.00594982
0.108613,-0.0198887
0.0672535,-0.0403888
0.0330303,0.0416177
-0.00252491,0.0674819
-0.00768727,-0.067627
-0.0177032,-0.167666
-0.0145767,-0.0226583
0.00834379,0.113957
0.0284563,0.162308
0.0112325,0.0589042
-0.0293391,-0.0254451
-0.0516179,-0.117709
-0.0108502,-0.132858
0.0482809,0.0395997
0.0556932,0.0293064
0.00460179,-0.0679159
-0.00421885,-0.0644917
0.0438436,-0.0182188
0.0606126,0.00459553
-0.00877322,-0.0137715
-0.0751163,0.0612989
-0.103533,0.0765372
-0.103076,0.110622
-0.0691178,0.0736575
-0.0256893,0.0328947
0.016809,-0.0154586
0.0661335,0.0175344
0.072421,0.0364404
0.00842114,0.0713747
-0.0285743,0.0254545
0.00165835,-0.0146922
0.0236517,-0.0615344
-0.0138376,0.0457018
-0.025104,-0.0293593
-0.0342309,-0.0917033
-0.0421225,-0.00786947
-0.00279049,-0.0264444
0.0330054,-0.00297887
0.0457335,-0.151203
0.0504407,-0.0968497
-0.0074956,0.00232546
-0.0399024,0.104401
0.00831552,0.0299479
0.0594397,0.0510407
0.0170968,0.0577855
-0.0573621,0.0328335
-0.105601,-0.0208821
-0.0855712,-0.0785669
0.00424248,-0.0388049
0.0526216,-0.0555882
0.0408297,-0.0346368
0.0406663,0.111428
0.0685901,0.00268981
0.0770117,0.00720544
0.0420817,0.0694482
0.0303053,-0.00691932
0.0518,0.0307119
0.0226079,-0.000123308
-0.0306359,-0.0842275
-0.0276714,-0.114617
0.0558071,0.0289228
0.117863,0.0955245
0.0667281,-0.0358319
-0.0440922,-0.0198481
-0.119503,0.00342466
-0.119572,-0.0662056
-0.0883441,0.0408068
-0.0478835,0.0544842
-0.0295833,0.0823107
-0.0043123,-0.0355602
-0.0120746,0.0194009
-0.0403474,-2.6e-05
-0.0318813,-0.0977286
0.0102842,0.0195805
-0.0205219,0.0283186
-0.0701473,-0.0458263
-0.0346687,-0.0334523
0.0330815,0.0710955
0.0508652,0.0689989
0.0237452,0.0292196
-0.00108745,-0.0343725
-0.0262706,-0.0397743
-0.0419833,-0.00717938
-0.00172374,0.0493087
0.0452751,0.0298439
0.0722615,0.0169045
0.08526,0.041418
0.105154,0.0164276
0.148733,-0.0858321
0.118775,-0.0696267
0.0409493,-0.0387261
-0.0283877,-0.0313998
-0.0660046,0.0353371
-0.0861247,0.0162014
-0.089658,-0.039265
-0.0622529,-0.0740502
-0.0436304,0.0113459
0.00600826,0.0409642
0.0333587,-0.0409003
0.0190376,-0.0449889
-0.0343468,0.0413641
-0.0975144,0.086553
-0.0944821,0.0206206
-0.0288241,0.0438551
-0.00815664,0.0646245
-0.00937959,0.0171079
-0.0166979,-0.00324232
-0.014524,0.0222709
0.00639457,-0.0858012
0.029279,-0.0687829
0.0834122,0.0715289
0.0974038,0.113079
0.0442627,-0.0552388
-0.00716034,-0.131676
-0.0299666,-0.0772908
-0.0606031,-0.0331525
-0.0729993,0.0346736
-0.0586489,0.0325174
-0.0254484,-0.010054
0.0533897,0.0178423
0.150302,0.0950811
0.157204,0.0756038
0.0816028,-0.00540467
-0.0068274,-0.0534294
-0.0682539,0.0456355
-0.0851305,0.0105022
-0.100427,-0.0688635
-0.0279041,-0.0161222
-0.000907248,0.0567856
0.0288366,-0.0124023
0.0475631,-0.0481991
0.052348,-0.0309165
0.0105008,-0.054313
0.0172537,-0.053994
0.0585325,-0.00417016
0.06302,0.104645
0.0230942,0.0426343
-0.0673824,-0.0470747
-0.156624,-0.0544626
-0.157876,0.0145417
-0.0629276,0.111163
0.0105289,0.0703865
0.0392595,-0.0438758
0.0488586,0.0551608
0.0900664,0.0272894
0.0990719,-0.027686
0.0480827,0.0113621
-0.0792679,0.0263877
-0.147804,0.044412
-0.0954238,-0.0635141
0.0183839,-0.0158307
0.0157006,-0.117865
0.00844979,-0.257168
0.0554917,-0.157497
0.106801,-0.017715
0.173522,-0.0196645
0.21436,0.0461938
0.167801,0.131814
-0.0115416,0.138309
-0.192891,0.109026
-0.257371,0.099709
-0.217643,0.0460264
-0.1306,0.010078
-0.0275084,0.0402234
0.0104478,0.0561721
0.0525473,0.0261726
0.056175,-0.000773518
0.063101,-0.106995
0.0927436,-0.113646
0.0614278,-0.217937
-0.0417041,-0.104248
-0.0880171,0.186934
-0.0341468,0.116081
0.0383698,0.00587518
0.0690277,0.0508573
0.0557307,-0.0409573
0.0112914,-0.120909
-0.0129798,-0.0939783
-0.0177473,-0.0425333
0.0118021,0.094812
0.0025716,0.105638
-0.0629452,0.111853
-0.105651,-0.00862505
-0.102203,-0.0227792
-0.0888061,0.0518298
-0.0565317,0.0615239
-0.0181377,0.0474321
0.0144742,0.0120326
0.0571848,-0.0301933
0.106739,-0.0757638
0.181127,-0.0781567
0.216522,-0.041007
0.167569,-0.0246455
0.143894,0.00928051
0.124758,9.34e-05
0.0499816,-0.00747378
-0.054826,0.0393092
-0.147603,-0.0215
-0.157441,0.00781825
-0.11738,-0.0282643
-0.104621,0.0185601
-0.126431,0.173925
-0.165081,-0.0152416
-0.165403,-0.0929555
-0.107611,-0.0084909
-0.0388094,0.0355596
0.039557,-0.143115
0.0535334,-0.165827
0.0181773,-0.192802
0.0295874,-0.284822
0.119198,-0.0927224
0.143235,-0.0482461
0.0938555,-0.004606
0.000833942,0.155113
-0.0755601,0.185612
-0.0614524,0.203977
0.0212063,0.21892
0.0665118,0.050909
0.0695771,0.032297
0.0648527,0.172287
0.056778,0.17477
0.0612804,0.110938
0.0375548,0.152915
-0.0366328,0.0467617
-0.108132,0.0679237
-0.0917551,-0.0179179
0.0606403,-0.0747819
0.154818,-0.159649
0.12564,-0.25472
-0.047012,-0.14716
-0.199508,-0.162174
-0.214179,-0.118585
-0.169663,0.050612
-0.121736,0.0334152
-0.0491449,0.119587
0.106171,0.112972
0.1386,0.0210481
0.0934935,0.0230834
0.0495563,-0.00247134
0.065006,-0.0122064
0.0675227,-0.060815
0.0599492,0.0347508
0.0226638,0.0971384
-0.0301227,0.0616856
-0.136928,-0.0158216
-0.162419,-0.0921911
-0.0294693,-0.298156
0.156373,-0.247537
0.200872,-0.0675096
0.122717,0.0366093
0.0342484,-0.100625
-0.0302406,-0.0476489
-0.0269928,0.338994
-0.0516133,0.231987
-0.0872049,-0.0452878
-0.132086,0.0404563
-0.167555,0.0557074
-0.0274358,-0.0151073
0.181971,-0.0321397
0.171562,0.0330238
-0.0213541,-0.112071
-0.164468,-0.155128
-0.177281,-0.0179094
-0.0299268,0.125035
0.109051,0.196104
0.152127,0.179071
0.102519,0.0579223
0.0237821,-0.0496095
-0.0130147,-0.173025
-0.0267666,-0.165986
-0.0756017,0.0186304
-0.0995384,-0.0519984
-0.0882789,-0.0828076
0.00168308,-0.0537595
0.0895668,0.0318213
0.119747,0.0450029
0.039287,0.117082
-0.0480024,-0.00717233
-0.0331768,-0.069783
0.0241929,0.105328
-0.00341186,0.037336
0.00909308,-0.0322854
0.0546148,-0.00746123
0.0200163,-0.00219388
0.0196415,0.0796586
0.0183329,0.06001
-0.0343712,-0.0561223
-0.0180101,0.0154042
0.018057,0.048409
0.0354116,-0.0133623
0.0342374,0.0628245
0.00186745,0.0354137
-0.0558417,-0.0543381
-0.128394,-0.0912636
-0.118535,-0.0620941
-0.0471813,0.0165385
0.0138317,-0.055072
0.0746419,0.0678665
0.08909,0.163708
0.0406253,-0.0227935
-0.0242137,-0.151032
-0.0523717,-0.130505
-0.0297173,-0.0247819
-0.0170639,-0.10529
0.00291178,-0.0605688
-0.0103869,-0.1209
-0.013362,-0.0748332
0.0269962,0.0131326
-0.00718089,0.0243554
-0.0571075,0.228651
0.0468469,0.416985
0.144582,0.169354
0.153432,-0.0522876
0.113093,-0.0721826
0.0924526,-0.123243
0.032079,-0.139256
-0.0395572,-0.0369525
-0.131208,0.0603234
-0.119663,0.01244
-0.0988349,0.0769387
-0.130692,0.0266075
-0.157675,-0.0794882
-0.154793,0.0434901
-0.0574175,0.0517603
0.0245268,0.0195708
0.122768,-0.0160937
0.198097,-0.0817278
0.163285,-0.0631201
0.0221181,-0.0139529
-0.0712672,0.07207
-0.127729,0.074605
-0.102712,-0.0474232
-0.00863757,0.0458147
0.0879125,-0.0330429
0.107358,-0.0606338
0.0871441,-0.0257808
0.0819374,-0.0332608
0.0933777,-0.013123
0.0270394,0.0221779
-0.0957198,0.00558801
-0.128034,-0.0329448
-0.0874065,-0.0435048
-0.0799067,-0.028589
-0.0520175,-0.00906724
-0.0303725,-0.0124425
0.0147726,-0.0119892
0.0901099,0.033477
0.212387,0.087975
0.273738,0.0410559
0.203144,0.0260595
0.0671763,-0.00204347
-0.023913,-0.0208396
-0.143352,-0.0270124
-0.222706,-0.00755402
-0.246334,-0.0213292
-0.242504,0.00780755
-0.19214,0.0314986
-0.0373173,0.0242778
0.117711,0.00666099
0.169451,0.00719504
0.0732057,0.0428186
-0.109509,0.0263034
-0.0926968,0.0370917
-0.030187,0.00679561
-0.0506276,-0.0458937
0.0269464,-0.0497916
0.1306,-0.0435022
0.115229,-0.00204986
0.0984997,-0.0048199
0.0928784,-0.0337827
0.0576598,-0.0301817
0.0171202,0.00346565
-0.00715996,-0.0344465
-0.0209809,0.00513753
-0.0457694,0.0614396
-0.087308,-0.0431525
-0.111492,-0.0591151
-0.0659785,-0.00189884
0.0107453,0.0656787
0.0606078,0.103681
0.035516,0.0130365
-0.0189095,-0.104674
-0.0495938,0.00278239
0.00601986,0.0384851
0.109684,-0.0365182
0.14037,-0.0129045
0.083985,0.00425869
-0.00407357,-0.00126951
-0.0209384,-0.00878065
-0.0436369,0.0542686
-0.0666218,0.061248
-0.0543543,0.0243461
-0.0165499,-0.00558831
-0.00496403,0.000132081
-0.0133201,0.00461106
-0.0433569,-0.0883104
-0.0637685,-0.0750692
-0.0741876,-0.0408965
-0.0513863,0.0451793
0.0136686,0.100871
0.0659406,0.0844307
0.0657959,0.0656843
0.0309129,0.00295333
0.0643008,-0.030712
0.130894,0.00914239
0.161821,-0.00352491
0.124856,-0.0873909
0.0197891,-0.0320305
-0.0878017,0.00831685
-0.137879,0.0297566
-0.0910252,0.0220464
-0.0174303,0.0256424
0.0114724,0.00532485
0.0198523,-0.0047364
0.0232782,0.00401662
-0.0111001,0.00359963
-0.0559561,-0.00847861
-0.0616448,-0.0210426
-0.0585006,-0.0490257
-0.0452653,-0.110582
-0.0386203,-0.0690977
-0.0656205,-0.00822814
-0.0752926,0.0440043
-0.0529918,0.0230317
-0.0168869,-0.0235827
0.0386174,-0.0246155
0.0747688,-0.00292832
0.0817193,0.0191509
0.0592814,-0.0274497
0.0312504,0.0237453
0.0129756,0.0575259
0.0126704,0.0552435
0.0409842,0.0346882
0.105903,0.0251299
0.133172,0.00759041
0.0921586,0.0391778
-0.00128409,-0.00050253
-0.0519015,-0.024471
-0.0764309,0.0307162
-0.11798,-0.0469147
-0.145279,-0.0504722
-0.0418833,0.0352419
0.0390009,0.0501296
0.0235512,-0.0187482
-0.010137,-0.0354161
-0.00761428,0.00587989
0.0160377,0.014351
0.0350809,-0.0312351
0.0369395,-0.10245
0.022844,-0.0617697
0.0107761,-0.0190598
0.0200939,0.0438686
0.0472495,-0.0135369
0.0541124,-0.0134304
0.0135455,0.00253148
-0.0594415,0.025559
-0.108451,0.0600376
-0.0867823,0.049877
-0.0387092,0.0254454
0.00490104,-0.0115665
0.0253191,0.017085
0.034298,0.0342759
0.0374801,0.0528276
0.0118639,0.0543977
0.0041933,-0.0224409
0.0187336,-0.0661372
0.033429,-0.0060242
0.0164027,-0.00579992
-0.0266111,0.00378428
-0.055187,-0.0226035
-0.0388012,-0.0413661
-0.0247453,-0.0200942
-0.0395155,-0.0265478
-0.0104147,-0.0503125
0.0346585,-0.0535306
0.0345553,-0.0218466
0.0154745,0.0697855
-0.00104629,0.0627088
-0.0239434,0.0244117
-0.0326555,0.00498667
-0.00074147,-0.00403237
0.0795116,0.0206792
0.0898076,-0.0132995
0.0405313,-0.0312027
0.0134887,0.01824
-0.0192557,0.00170987
-0.0633332,-0.0251131
-0.0777337,-0.0188389
-0.0128317,0.00304484
0.0693605,0.0125192
0.0690693,0.0107836
0.0261944,0.0716678
-0.0779976,0.0275508
-0.14132,-0.0719201
-0.0789935,-0.128928
0.00700565,-0.0961188
0.0214342,0.106638
0.00251714,0.127736
0.00526307,-0.0337341
0.00996452,-0.0393324
0.00358162,-0.0251947
0.00297057,-0.00703008
0.0092517,0.0130105
0.000752256,0.0409136
0.00346796,0.0987935
0.0150646,0.0945798
0.0147675,0.00368274
0.014067,-0.0249229
0.0198447,-0.0377986
0.020738,-0.0594599
0.0187274,0.0154917
0.0193216,0.0491718
0.0305934,0.00862061
0.0283955,-0.00573822
0.0154696,-0.00603819
-0.0249218,0.00157548
-0.0642221,-0.0180272
-0.0327357,-0.0248497
0.00723796,-0.030003
0.0437236,-0.0588052
0.036257,-0.0639611
-0.00319506,-0.0254844
0.0068818,-0.0425858
0.0149029,-0.0611818
-0.0223792,0.0390387
-0.0367571,-0.00700145
-0.0203979,0.0531693
-0.0550455,0.0882393
-0.1347,0.0685897
-0.161331,0.023086
-0.0366219,-0.00328471
0.118451,0.0460764
0.163317,0.0645528
0.0844554,0.01892
-0.038154,-0.00210522
-0.0698149,-0.0386531
-0.00958015,-0.0480869
0.0315002,-0.0467256
0.0298833,-0.00832199
0.0176893,0.00183277
0.0470855,-0.0318995
0.0921026,-0.0224051
0.123209,0.0274359
0.107994,0.0312701
0.0270758,0.0244354
-0.067366,0.0229189
-0.0771619,0.0167345
-0.0441477,-0.0145714
-0.0390749,-0.00648313
-0.0414957,-0.00316989
-0.0386736,-0.0110087
-0.053315,-0.0134897
-0.0420296,-0.0144669
-0.0345206,-0.0164008
-0.0368882,-0.00817307
-0.0604215,0.00731968
-0.040259,0.00682949
0.0343789,0.00833321
0.0857389,-0.00727702
0.0617975,-0.0150376
0.0295818,-0.00931833
0.0320344,-0.0338245
0.0562083,-0.0853671
0.083886,-0.0662618
0.0280523,-0.0230031
-0.036114,0.0193584
-0.0524901,0.0577776
-0.0307165,0.0285448
-0.0239797,0.0152295
-0.0340179,-0.00208881
-0.0483605,-0.116084
-0.0853415,-0.0768691
-0.0724589,0.0260833
-0.00664788,0.129776
0.0474967,0.141156
0.0747354,0.0915254
0.092099,0.044078
0.0719738,-0.00936377
0.019455,-0.0113961
0.00701625,-0.0276393
-0.00688627,-0.0315872
-0.0354759,-0.0125689
-0.0339549,-0.00585556
-0.0193478,0.0128214
-0.0159582,0.0108183
-0.0230642,0.0046349
-0.028305,-0.00382927
-0.0177827,-0.0171744
0.0172848,-0.00268729
0.0360729,-0.00962129
0.0309181,-0.0259229
0.00169083,-0.000720534
-0.0105479,-0.00130503
-0.00052906,-0.00245155
0.0061601,0.000592013
0.00261589,0.00347073
-0.0129497,0.00503195
-0.0323531,0.0123813
-0.0358953,0.0112201
-0.0218631,-0.00044981
-0.00617719,-0.0106834
-0.00660811,-0.00366469
-0.0162879,-0.00145666
-0.0103384,-0.0025646
0.0128776,-0.00372714
0.0336627,-0.0170661
0.0219719,-0.032922
-0.0100576,-0.0046727
-0.0139185,0.00519802
0.00530642,-0.0246503
0.0377566,-0.0537123
0.0843237,-0.0450612
0.103502,-0.0553434
0.0874933,0.129626
0.0272434,0.151064
-0.0406885,-0.0997933
-0.0219012,-0.0265405
0.00241481,-0.0238124
0.0111199,-0.0348489
-0.0317251,0.0701805
-0.0745503,0.10163
-0.0539847,0.0303398
-0.0482785,0.0382743
-0.0665657,0.0249094
-0.038348,0.00685096
-0.0056332,-0.0196757
0.0039266,-0.0636305
0.0509292,-0.0721712
0.0528649,-0.0115424
0.014016,0.0509259
-0.0247168,0.0247777
-0.0357405,0.0022091
-0.0443444,0.00163873
-0.0270029,-0.0175935
-0.0119639,-0.0148068
0.0103194,-0.0231887
0.029116,-0.0295397
0.0310915,-0.00954885
0.0263385,0.00522483
0.0164455,0.00618457
0.00289262,0.000896212
-0.0045043,-0.00122698
-0.00198167,0.00311015
-0.00670872,0.0107377
-0.01138,0.0108332
-0.00520448,0.00365176
0.00893169,-0.00798024
0.0121121,-0.0043049
0.00683338,-0.00490218
0.0118373,0.00115428
0.00580421,0.000346999
-0.0125881,-0.0327303
-0.0167968,-0.040201
-0.00496728,-0.0159446
0.0122993,-0.0127959
0.0196326,-0.00847287
0.0128966,-0.0195713
0.0182765,-0.0464944
0.0322537,-0.0625953
0.0315484,0.0498112
0.0233131,0.069081
0.0308296,0.00117393
0.0291195,0.00615382
-0.00187384,0.0263515
-0.041169,0.0375081
-0.0419938,0.119845
-0.0366616,0.0723089
-0.0502801,0.00143128
-0.0377776,-0.0150636
0.0623967,-0.0227777
0.108693,-0.00488656
0.0453328,-0.00191043
-0.0360205,-0.00323879
-0.0847211,-0.0451711
-0.114394,-0.0637664
-0.0751962,-0.0424156
-0.00479965,-0.026042
0.00175804,0.00535782
-0.0332612,0.0416136
-0.0227908,0.051552
-0.00542196,0.00600175
-0.0044823,0.0215885
-0.00964344,0.0493248
-0.0152436,0.00428047
0.0194365,-0.0177662
0.064817,-0.0154933
0.0706605,-0.0218408
0.0531834,-0.0214644
0.0410851,-0.0331461
0.0339549,-0.033088
0.0164899,-0.00662927
-0.00287616,0.0345344
-0.0141768,0.0165035
-0.0152099,0.0226564
-0.004946,0.0371919
0.000989464,0.0275741
-0.00612341,0.0109582
-0.0181595,0.00250431
-0.0192671,-0.00344799
-0.00506409,-0.0102425
0.00928479,-0.0189079
0.00924719,-0.0409609
0.000328365,-0.0587277
-0.00483775,-0.066824
0.0163978,-0.0427843
0.0545043,0.00607423
0.0403784,0.0952503
-0.0153612,0.0618498
-0.0371113,-0.00336554
-0.0116594,-0.0746481
0.0405291,-0.0458294
0.0463933,-0.0567645
-0.0418716,-0.0758524
-0.115893,-0.0659434
-0.0621962,0.0139719
-0.0163379,0.125708
-0.0103538,0.0953245
0.0355759,0.092833
0.0646083,0.00717565
0.0348117,0.00262453
-0.0147226,0.0389039
-0.021295,0.022223
-0.00277314,0.0611157
-0.00252855,0.0241674
-0.0122522,-0.0094227
-0.0125791,0.00606386
0.00831978,-0.00531194
0.023768,-0.01454
0.0200572,-0.0014878
0.00472929,-0.0244206
-0.0131735,-0.0142648
-0.0289189,-0.0138426
-0.0144592,-0.0254069
0.00504812,-0.0386767
0.0152578,-0.0360707
0.00797486,-0.0258845
0.0015172,-0.0213783
0.000746806,-0.0200537
0.00111669,-0.0167385
0.00399188,-0.0023069
4.13e-05,0.0135665
-0.00722973,0.0167606
-0.0132607,0.00924192
-0.0184413,0.00409729
-0.0168869,0.00246491
-0.00881585,0.00735988
-0.00783717,0.012284
-0.0159624,0.0142005
-0.021411,0.0101185
-0.0158617,0.00109799
-0.00394836,0.00188573
0.0118891,0.00388079
0.0142859,-0.00205886
-0.00432616,-0.0155273
0.00590027,-0.0343683
0.0481545,-0.0245841
0.0793765,-0.00767473
0.129675,-0.0157835
0.177158,-0.100937
0.159548,-0.133089
0.0423423,0.022945
-0.117494,0.0309945
-0.235885,0.0165523
-0.249732,0.0182512
-0.0861514,0.016515
0.0338625,0.0656355
-0.0176507,0.094494
-0.0801054,-0.00671994
-0.0335439,0.0419389
0.0515395,0.00374845
0.0991163,0.0146506
0.0852929,0.12509
0.05986,0.0451896
0.0456543,0.00116594
-0.000337008,0.0408118
-0.0593356,0.0126182
-0.0388588,-0.000687137
-0.0127436,-0.00344424
-0.00184512,-0.0334089
0.0137903,-0.0208655
0.0100352,-0.0264954
-0.0123124,-0.0376174
-0.00374123,-0.0222438
0.018977,-0.030077
0.029837,-0.022506
0.0135428,-0.00971334
-0.0146598,-0.00795508
-0.0342676,-0.0152354
-0.0310375,-0.0188702
-0.0203823,-0.00625062
-0.0190842,0.0127165
-0.0250603,0.0182273
-0.0257286,0.0122961
-0.0148923,0.00136598
0.0131449,-0.0111619
0.0425357,-0.0158565
0.0471857,-0.0112364
0.0334549,-0.00811127
0.0111157,-0.024428
0.00404691,-0.0448355
0.0131158,-0.0595953
0.0168766,-0.0505425
-0.00518683,-0.0232627
-0.0348143,0.057271
-0.0440708,0.0912822
-0.0275355,0.0593794
-0.000248812,0.0280045
0.0489879,0.0432017
0.0722784,0.0313759
0.0754292,0.052511
0.047413,-0.0376747
0.0033741,-0.0403657
-0.0156251,0.0162055
-0.00964393,-0.0199296
-0.0302411,-0.0208054
-0.0572574,-0.0187991
-0.0499433,-0.00807289
0.003816,-0.00209108
0.0195883,-0.00190471
-0.0337379,-0.005417
-0.054648,-0.00392041
-0.00649671,0.00372748
0.0143815,0.00661959
-0.00497978,0.00935358
-0.0127973,0.00942471
-0.0194901,-0.014012
-0.0188879,-0.0172302
0.0107364,-0.00906294
0.0225017,-0.00533008
0.0127916,0.00540326
-0.00211866,0.0161724
0.00258739,0.0120901
0.00347261,0.00371029
0.0106123,-0.00291368
0.0226998,-0.0233147
0.0227335,-0.0376088
0.0109471,-0.0243981
-0.00430085,0.0279226
-0.0120642,7.92e-05
-0.0100939,-0.0141034
-0.0119288,0.051448
-0.0150519,0.054313
-0.00751343,-0.00325403
0.00738245,-0.0198286
0.0142416,-0.0366756
0.013637,-0.0453715
0.00974169,-0.00321219
0.00414477,0.0178205
0.00338736,0.0200795
0.00150781,-0.00762242
0.00952941,0.0357383
0.0169092,0.0557291
0.0213531,-0.00240939
0.04642,-0.0582433
0.0654667,0.0800783
0.0409798,0.0459942
-0.0424818,-0.0343246
-0.117206,-0.0298405
-0.0932718,-0.0399506
-0.0375157,0.00894368
0.00942793,0.0192268
0.0265046,-0.0211932
0.0266903,0.00439148
0.0121154,0.0154766
-0.0214124,0.0126119
-0.0345841,-0.00685237
-0.0110832,-0.0167215
0.0206691,-0.00894475
0.0283047,-0.00534072
0.00220777,-0.00642242
-0.000269565,-0.0169472
-0.00579909,-0.0333865
-0.00593701,-0.0173772
-0.00127403,0.0226611
-2.8e-05,0.0313733
-0.00703897,0.00980788
-0.0442212,-0.0260429
-0.0374462,-0.0521632
0.0334687,-0.0484786
0.0807949,0.0139644
0.0615508,0.0157178
0.022306,0.0199269
-0.0426598,0.0362359
-0.0734442,0.065207
-0.0598995,0.0988429
-0.0301684,-0.0271797
0.0207236,-0.0351933
0.0486632,-0.0111709
0.0656683,-0.0280496
0.0874491,-0.0159737
0.0797134,-0.0206442
0.021287,-0.0228404
-0.0509422,-0.0348423
-0.0797426,-0.0300441
-0.0959796,-0.0535568
-0.0997475,-0.0504624
-0.0455667,0.0378582
0.0615767,0.0333099
0.1779,0.0469179
0.226087,0.0519782
0.185854,0.0339983
0.0751396,0.0245868
-0.0967994,0.0352781
-0.226497,0.0407361
-0.254809,0.0227412
-0.149366,0.00299931
-0.0163078,-0.0164627
0.040157,-0.0227547
0.0291281,0.0304756
-0.0101112,-0.0185031
-0.0360992,-0.0587911
-0.0442692,-0.0678854
-0.017544,-0.0356434
0.0226169,0.0481192
0.0261688,0.0341167
0.00937656,-0.000301509
0.00604193,-0.0168772
0.000494355,-0.00339545
0.00097945,0.00763548
-0.00485417,0.00636108
-0.0151791,-0.0186775
-0.00159764,-0.0082111
0.0168142,-0.000738068
0.0284942,0.00394655
0.0572889,0.00440319
0.0753014,-0.00897377
0.107258,0.000264146
0.121331,0.0263766
0.0851811,-0.0360261
0.00469674,-0.0492418
-0.0697678,0.00236339
-0.0981971,0.0843464
-0.0574278,0.0272398
0.0123884,0.0291733
-0.00397535,-0.00853528
-0.0416338,-0.0668589
-0.024872,-0.0719607
-0.0179193,-0.0562583
-0.0252221,0.00961308
0.0137896,0.0174585
0.0549767,0.025238
0.0176051,0.0661195
-0.0197536,0.0376366
-0.0480948,-0.000315091
-0.0552623,-0.0112274
-0.0308218,-0.0100192
0.0154226,-0.00744014
0.0278718,-0.00701961
0.028681,0.0233423
0.0249709,0.0292053
-0.00123308,-0.0116485
-0.0176787,-0.0493037
-0.0192172,-0.0178534
0.00551185,-0.0110847
0.0160917,-0.00422579
0.0192456,0.0172631
0.0355069,0.00453017
0.0401637,0.00604615
0.0107479,0.0234934
-0.0333066,0.0395017
-0.0916082,-0.00487754
-0.066627,-0.0100395
0.023442,0.00774058
0.0471874,0.0152188
0.00385985,0.00830819
0.00802458,0.0165218
0.0344705,0.0105849
0.0193015,-0.030444
0.00641446,-0.00941207
-0.00815234,-0.00619676
-0.0234004,-0.0170785
-0.0147974,0.0105174
-0.00346125,-0.0285079
-0.0169847,-0.0374652
-0.0433445,-0.0498804
-0.0491861,-0.0557164
-0.0310577,-0.00745833
-0.00612976,0.00936581
0.0260568,0.00691749
0.0291121,0.0507357
0.017536,0.101808
0.0140703,0.0728849
0.0373405,0.0197799
0.0625213,0.0181023
0.0461813,-0.0128712
0.0308897,-0.02511
0.0120129,-0.0215203
-0.0220108,-0.0253521
-0.0223644,-0.010208
-0.023873,-0.0209032
-0.02405,-0.0297522
-0.0113346,-0.0218686
-0.0182951,-0.00755703
-0.0299033,0.0220048
-0.0343389,-0.0175059
-0.0566488,0.0339659
-0.0487601,0.0568075
-0.00359398,0.00285614
0.0518248,-0.0613965
0.101474,-0.0210102
0.0999707,-0.00192509
0.0391262,0.0128976
-0.0380869,0.0132527
-0.0475472,0.0001345
-0.002641,-0.00350699
0.013832,0.0108599
-0.00665038,0.0229211
-0.014675,0.0271295
-0.0300753,0.00699076
-0.0259792,-0.0306474
0.0301702,-0.0323618
0.0564928,-0.026251
0.0522245,-0.0180459
0.0462482,0.0207396
-0.00554194,0.0392527
-0.0742458,-0.0134911
-0.0765623,-0.0241319
-0.0697097,-0.0155669
-0.0491971,-0.0199103
-0.0129839,0.00238075
-0.0132556,0.00757533
-0.031443,-0.00279277
-0.0298607,0.00833577
-0.00292874,0.0276389
0.0343756,0.0244964
0.0817554,0.0132137
0.0807768,0.00792944
0.0345734,0.00257768
-0.00273565,0.00384801
-0.0159617,-0.00242645
0.00554196,-0.00823062
0.0116741,-0.00466887
0.0162703,0.0045673
0.0235543,-0.00711424
0.0269496,0.0154025
0.0639244,-0.00130307
0.0794335,-0.0534712
0.0495164,-0.0252387
-0.0548284,-0.0186326
-0.145451,-0.00047774
-0.0997184,0.00863353
0.0408506,-0.0285778
0.107295,-0.0567364
0.0314925,0.0455654
-0.0657637,0.107643
-0.111065,0.05524
-0.102893,0.0176029
-0.0774942,-0.0100074
-0.0407391,-0.0158034
0.00713136,-0.0356753
0.0190238,-0.0226808
0.0195217,0.00662496
0.00731326,-0.0294201
0.0154348,-0.0336024
0.0448626,0.0103828
0.0571052,0.0489177
0.0324817,0.017406
0.0154333,-0.0220032
0.00960492,0.00281684
0.0229571,0.0313171
0.0300215,0.0341331
0.0308794,-0.0152229
-0.0139784,-0.0256483
-0.0551655,-0.00285565
-0.0540052,-0.0133006
-0.0361933,-0.00922172
-0.0117585,0.0239303
0.0381942,-0.0308762
0.104411,-0.0421312
0.0973191,-0.000239747
0.0385424,0.0251389
-0.0309449,0.00159139
-0.0633774,0.0397793
-0.0583844,0.0323402
-0.00363694,-0.0484812
0.0409944,0.0166255
0.0463074,0.0282883
0.0406494,-0.0139638
0.0224473,-0.00865894
-0.00971541,-0.00315005
-0.0533444,-0.0276287
-0.0846303,0.0211179
-0.0742365,0.0240891
-0.0462303,-0.0401839
-0.0171307,-0.0420311
-0.00367869,-0.0270232
-0.0154174,0.00992872
-0.000349187,0.0106341
0.0134466,-0.0184362
0.00199211,-0.0120773
-0.00847516,0.0325218
0.0103136,0.0612602
0.0316724,0.0266475
0.0294313,0.0198662
-0.00167895,0.00732072
-0.00592417,-0.0262266
0.0158415,-0.0530503
0.013468,-0.0271715
0.00383154,0.0235615
0.0106572,0.0108833
0.020076,0.0255312
0.021403,0.0170672
0.00276747,-0.00262465
-0.00888432,0.00924134
0.0123717,0.00783563
0.0257715,-0.02948
0.0224764,0.00439037
0.00331119,0.0162159
-0.0296448,-0.00645815
-0.0351882,-0.0167243
-0.0258583,-0.0338664
-0.0173277,0.00593689
-0.0161155,-0.00408012
-0.0156022,0.0292232
-0.0232524,0.0206216
-0.0335021,-0.0298315
-0.0311766,-0.0793356
-0.0114709,-0.0352663
0.03371,0.0208611
0.0583409,0.0270573
0.0545691,0.000543118
0.0338253,-0.00446921
0.024713,0.0389716
0.00249918,0.0422399
-0.0143582,0.0232897
-0.0192998,-0.00757267
-0.0217617,-0.0425907
-0.0255058,-0.0314237
0.0007863,7.92e-05
0.0307549,0.0656379
0.0483125,0.0562337
0.0441593,-0.0197568
0.0169316,-0.0221365
-0.00534199,-0.000704102
-0.0274035,-0.00591031
-0.0505833,-0.0203736
-0.044635,-0.0177552
-0.0207834,-0.000353934
-0.00488815,0.00190361
0.0288835,-0.027021
0.0401264,-0.0281135
0.0239655,0.0232291
-0.0069333,0.0762047
-0.032739,0.0391712
-0.048592,0.00235004
-0.0388396,-0.00456021
0.00308633,-0.0175461
0.0416188,-0.0501768
0.0583796,-0.0515907
0.0652613,0.0184132
0.0653838,-0.00766208
0.0479798,-0.0526105
0.00210599,-0.00951093
-0.0287888,0.0253984
-0.0624025,0.0225431
-0.0793726,0.0224974
-0.0676143,0.0393741
-0.0681527,0.04154
-0.0401439,0.025443
-0.00207739,0.0119357
0.0263026,-0.00838201
0.0192793,-0.00833781
-0.00312515,-0.00707966
-0.00965769,-0.0243387
-0.00646967,-0.0500232
0.00805638,-0.0561843
0.00327688,-0.0196667
-0.0133763,0.0667521
-0.0188907,0.0416708
-0.0109833,-0.00286348
-0.0009037,-0.0178401
0.021256,-0.0209307
0.0406289,-0.0210926
0.0457244,-0.00591707
0.0404804,0.00874551
0.0147556,-0.000128522
0.00499667,0.0111229
0.0105514,0.0118884
0.0122266,0.0248838
0.00445996,0.00852036
-0.00239982,-0.0223479
-0.00814667,-0.0154655
-0.0112101,-0.0396414
-0.0222045,-0.0250865
-0.00952541,0.00487338
0.0478955,0.0415891
0.0606076,0.0302617
0.0177279,0.00845821
-0.028163,-0.00476377
-0.0189345,-0.0350761
0.0162574,-0.0126537
-0.0114271,0.0118887
-0.0471179,0.0245491
-0.0340022,0.0286354
-0.00871913,-0.021916
0.00975964,-0.000736624
0.029033,0.0198379
0.0273419,0.0186172
-0.00654984,0.00134065
-0.0507535,-0.0190071
-0.0433418,-0.00948068
-0.00364747,0.0177092
0.0157432,0.00372566
0.0107849,-0.0133754
0.0126095,-0.00493689
0.031167,0.0214901
-0.00681166,0.0168034
-0.0356899,-0.00111786
-0.0270277,-0.0112879
-0.0245097,-0.0177477
-0.0240953,-0.021911
-0.00501392,-0.0163112
0.00428873,-0.0117453
0.00810959,-0.021044
0.0119914,-0.0303539
0.0224397,-0.0322563
0.0446866,0.0295664
0.0339011,0.0576865
0.0150026,-0.00481821
0.00591555,-0.0265539
-0.00631346,-0.0155577
-0.00258053,0.0417169
0.00377077,0.0370338
0.0133298,0.0196229
-0.00348566,0.015536
-0.0287725,0.018632
-0.0257991,-0.00862219
-0.0141582,-0.0333327
-0.0147575,-0.0659198
-0.0129306,-0.0387409
-0.0291162,0.0623039
-0.0574171,0.0255028
-0.0558765,0.0183727
-0.0160753,0.0221508
0.0378916,-0.00304602
0.0911289,-0.00230086
0.0815519,-0.0009527
0.062291,0.0133232
0.0497941,-0.00721921
0.0203791,-0.0214455
-0.0173282,-0.0011148
-0.0416956,0.00263636
-0.0449314,-0.00186735
-0.0341679,0.0301389
-0.0139916,-0.0115523
0.013873,-0.00855936
0.00843569,-0.000457114
0.00322843,0.000290978
-0.0202547,0.00499959
-0.0531048,0.000687054
-0.0563599,-0.0188528
-0.0227924,-0.0284262
0.0250248,-0.0205595
0.0724939,0.00188548
0.117993,0.0282474
0.104435,-0.0223831
0.042693,-0.0479081
-0.0473593,-0.0309729
-0.114412,-0.00104253
-0.118273,0.0275993
-0.0543107,0.0325768
-0.00781902,0.0341967
0.0227168,-0.00960529
0.0617283,0.00914346
0.0461632,0.00965582
0.0117872,-0.00282452
0.0188667,0.028471
0.0296061,0.0492463
0.0157908,0.00480979
-0.00192373,-0.0175125
-0.0481742,-0.00186396
-0.0940708,-0.0139674
-0.0806369,-0.00536796
-0.0225139,0.00428647
0.0386352,0.00575385
0.0798716,-0.0109005
0.0744165,-0.0198164
0.0370463,-0.00261245
0.0416325,0.0177287
0.003269,-0.0203353
-0.00227707,-0.00890686
0.0179971,-0.00968045
0.0118416,-0.0171449
-0.0131744,-0.00331495
-0.0512701,-0.027361
-0.0966143,-0.0266734
-0.0971021,-0.00249181
-0.0567324,-0.0321677
0.00394368,-0.0321429
0.0317966,0.0164344
0.0235653,0.0310424
0.0290239,0.0404713
0.0251067,0.0557615
-0.0105906,0.00874116
-0.0207715,-0.0153948
0.0088238,-0.00901905
0.0275399,0.0198913
0.0400161,0.0104492
0.0465254,-0.00433813
0.0501655,0.0369744
0.0319705,-0.0147771
-0.025472,-0.011869
-0.0654758,-0.0234617
-0.0419843,-0.0169668
-0.0276676,-0.0126325
-0.0238674,0.0201915
-0.0334054,0.0288435
-0.0517941,0.0624871
-0.028682,0.0201124
0.0650699,-0.00601733
0.108809,-0.0274553
0.0937447,-0.0523695
0.0524329,-0.0509427
0.0347743,0.00379931
0.0117837,0.0508815
-0.0721544,0.0181089
-0.0870502,-0.0151476
-0.0609499,-0.0304512
-0.0172117,-0.0266444
0.0288036,-0.0147028
0.0330676,0.00268924
-0.0123842,-0.0188139
-0.0346042,0.0202054
-0.014188,0.00101832
0.0348794,-0.0749876
0.114066,0.050016
0.0868123,0.0983514
0.000867168,0.0480101
-0.0225992,0.0345831
-0.0655274,0.0116422
-0.111019,-0.0173271
-0.104202,-0.00860795
-0.0489615,-0.0390523
0.00855377,-0.0445082
0.0333674,-0.00587024
0.047749,0.00558263
0.0445294,-0.00615181
0.0052279,0.0277932
0.00155199,0.0222346
0.0412526,0.00877929
0.0495059,-0.0213921
0.0340248,-0.0378458
-0.00840985,-0.0435
-0.0716205,-0.0183556
-0.0831906,0.0117522
-0.0517311,0.0422065
-0.0571906,0.0487093
-0.0725783,0.00645791
-0.021812,0.0124222
0.0692749,-0.00210105
0.147095,-0.029601
0.144588,-0.0149509
0.0706487,0.034418
-0.0310229,-0.0141972
-0.0713365,-0.0701072
-0.0709688,-0.0883633
-0.0515494,0.00402166
0.0110652,0.100594
0.050028,0.0546365
0.062993,0.014676
0.0732069,-0.0126789
0.0904366,-0.0705693
0.0596859,-0.0250794
-0.00145387,0.0212175
-0.0492133,0.0383852
-0.10624,-0.00943086
-0.116371,-0.0552642
-0.0321969,-0.049579
0.0078374,0.0400284
-0.0143692,0.0346972
-0.0184726,-0.00655026
-0.0377337,0.0475856
-0.0711383,-0.0150517
-0.0282217,0.00159824
0.0378249,0.0405653
0.0462445,-0.00243202
0.0309689,-0.00604743
-0.0189958,0.0320226
-0.0509908,-0.00151268
-0.0157763,-0.0161967
0.0407576,-0.0310229
0.0793285,-0.0290344
0.0803588,-0.0103861
0.0528526,0.00783082
0.0210984,0.0363972
-0.00605672,0.0405944
-0.069082,-0.0224151
-0.0673345,-0.0288134
-0.0442687,0.000855986
-0.036438,0.0164717
-0.0155035,-0.0140831
0.021946,-0.00507094
0.0380262,0.0410306
0.0335067,-0.0226888
0.0198711,-0.0155979
-0.00427495,-0.00891072
-0.0227216,-0.00977973
-0.021972,-0.0081942
0.00161871,-0.00949939
0.0304731,0.00486096
0.0236644,0.0211269
0.00736387,0.00598901
0.031901,-0.0107564
0.0392378,-0.0700087
0.0300067,-0.0115887
0.0136889,0.0341585
-0.0132826,0.0570892
-0.0341708,0.045114
-0.0330569,-0.0328422
-0.020163,-0.0286065
-0.0155902,-0.0126408
-0.00947459,-0.0120283
-0.0072423,0.0172602
-0.0163445,-0.00672509
-0.0256968,0.0433149
-0.00946288,0.0202066
0.0236837,0.00195169
0.0813982,0.00952682
0.0813338,0.0158073
0.0497243,0.00161786
-0.0150296,0.000660013
-0.0799915,-0.00673671
-0.0982363,-0.0318256
-0.0426251,-0.0810294
0.0545571,-0.055841
0.0693551,-0.0152772
-0.0310573,0.0919565
-0.103067,-0.0211752
-0.0972493,-0.0330158
-0.0593107,-0.00510876
0.00701614,0.106521
0.0403872,0.113009
0.0481403,-0.00156009
0.0507651,-0.000612037
0.00459733,0.00791969
-0.0176283,-0.0102904
0.00177468,-0.00750888
0.0315202,0.00133395
0.0543193,-0.0284173
0.090336,-0.0322009
0.125017,-0.0090454
0.111152,-0.0625022
0.0617027,-0.109137
-0.0258141,0.0525274
-0.112035,0.0661214
-0.148149,0.0220181
-0.096576,0.0111081
-0.040561,-0.0220722
-0.0141231,0.00205098
-0.0303167,-0.000309436
-0.0544288,-0.00319217
-0.0782869,-0.00484959
-0.0565706,0.0275631
0.0204692,-0.0107714
0.0757523,-0.0544121
0.0668747,-0.00216593
0.0124722,-0.0058899
0.0140722,-0.0172994
0.0585298,-0.012629
0.130737,-0.00917738
0.155712,0.0550559
0.0608639,0.0445769
-0.0252,0.0734066
-0.0772773,0.0452429
-0.119373,-0.0437584
-0.105684,-0.0366245
-0.0782956,0.00635982
-0.0853551,0.00060801
-0.0760388,-0.0195787
-0.00718325,-0.0212708
0.0313024,-0.0126824
-0.0105901,-0.0226616
-0.013686,-0.0401869
0.0261401,0.0311568
0.0248048,0.0435372
0.0248307,-0.0092364
0.0489023,0.00228821
0.0830999,-0.00439987
0.0884633,-0.0209075
0.0608939,-0.036534
0.0227663,-0.00562609
0.00665403,0.0343789
0.0383,0.0120314
0.0468342,-0.0136664
0.00850587,-0.0180336
-0.0354763,0.0260632
-0.0668817,0.0447176
-0.0481212,0.0224515
0.00629639,-0.052271
0.022242,-0.0330797
-0.00585277,0.028792
-0.0302898,0.0291681
-0.0338848,-0.0133492
-0.00173296,-0.00973154
0.0102361,0.0162378
-0.0221763,0.0205146
-0.0711932,0.00018334
-0.0636915,-0.0311943
-0.0276677,-0.0310425
0.0319098,-0.00353674
0.0447689,0.0176093
0.00901992,0.0367514
0.00599739,-0.0136282
0.0322259,-0.0187475
0.0347245,0.0374537
0.017218,0.0522229
-0.0118984,0.00061157
-0.0315149,-0.028701
-0.0368032,-0.0218723
-0.0352988,0.0111317
-0.0361451,-0.0251122
-0.0301571,-0.00715563
-0.000418251,0.00854142
0.0187441,-0.0103048
0.0186109,-0.0279541
0.04252,-0.0245897
0.0681936,-0.0107028
0.057272,0.0605518
0.0127077,0.0220835
-0.0499754,-0.0401158
-0.0398172,-0.0107648
-0.00342293,0.0518535
-0.0249059,-0.016311
-0.0085289,-0.0285654
-0.00302028,-0.014553
0.0134434,-0.015796
0.0484604,0.00504385
0.0520251,0.0176706
0.0131438,0.00831286
-0.0102392,-0.00871168
-0.00745729,0.0167305
-0.0108259,0.0276265
-0.033647,0.0301639
-0.0813992,0.0118348
-0.10675,5.76e-05
-0.0779912,-0.0171042
-0.00841123,-0.0251983
0.0713131,-0.0214656
0.0834885,0.00153379
0.0848907,0.0149573
0.0816946,0.000584993
0.0660009,-0.0165837
0.0198338,-0.0328743
-0.0154773,0.0011834
0.0089498,0.0290409
0.014672,0.0101491
-0.0118278,-0.0111223
-0.0297477,-0.0104825
-0.0205029,0.000571624
0.00471464,-0.0116458
0.0588376,0.0135299
0.065687,0.0754754
0.0145185,0.0529752
-0.0754993,-0.0583785
-0.126339,-0.0425601
-0.122742,-0.0530394
-0.0967095,-0.0172455
-0.0417208,0.0225736
0.0130292,0.0303907
0.0578131,0.0191725
0.0787296,0.00165987
0.0710397,-0.00416961
0.0555828,0.015076
0.052351,0.00157783
0.0205282,-0.0175178
-0.0140494,-0.0254898
-0.0359264,-0.000835266
-0.0220477,0.00138931
-0.0117328,-0.0124043
-0.0239976,-0.0128222
-0.0242758,0.00869652
-0.0261143,0.0297728
-0.0254281,0.0170468
-0.0193034,0.00595637
-0.0137868,-0.00131591
-0.0127017,-0.00883177
0.00069866,-0.0116499
0.0140091,-0.00499011
0.0152518,0.00169458
0.0216383,0.0133292
-0.00687879,0.0236092
-0.037604,0.0280387
-0.0383593,0.0119869
-0.0375461,-0.0245399
-0.00276735,-0.0274615
0.0266302,-0.00411921
0.0238241,0.011284
0.017976,0.0021151
0.0263889,-0.0105256
0.0428191,0.00979442
0.051672,-0.00881204
0.0447793,-0.0256108
0.0528183,-0.0158252
0.0849546,0.0116143
0.0764225,0.0401154
0.0180884,-0.0195069
-0.0263253,-0.00612905
-0.0898812,-0.00275872
-0.106481,-0.0252
-0.074717,-0.0161043
-0.0520738,0.00792384
-0.0346468,-0.00347563
-0.000742263,-0.035245
0.0316009,-0.00289045
0.0217457,0.00141746
0.00860291,0.0118196
0.0393944,0.0319283
0.0760395,0.0396983
0.0558419,-0.00697975
-0.0222297,0.015205
-0.0822914,0.0152933
-0.0819049,0.0120597
-0.0402882,-0.00265849
-0.0113967,-0.0330288
0.0135865,-0.0390518
0.038185,0.0118495
0.0537816,0.0680489
0.0680273,0.0169281
0.0608501,-0.0409833
0.0391409,-0.0274275
0.0222957,-0.00824016
0.0291097,-0.00691359
0.00279321,-0.000600042
-0.0437356,0.0153263
-0.103309,-0.00182338
-0.135676,0.0229692
-0.104788,-0.0323284
-0.0485355,-0.00598832
0.000854988,-0.00882886
0.0298944,-0.0124363
0.0354654,0.000402632
0.0197656,0.01833
0.0029286,0.0446324
-0.0174614,0.00543012
-0.0190412,0.0248315
-0.0198183,-0.0384714
-0.0118684,-0.0200193
0.0150819,-0.0216165
0.0463874,-0.00505673
0.0499768,0.0406568
0.0553867,0.0165825
0.0294291,0.00920895
-0.00582945,-0.0139104
-3.99e-05,-0.0303286
0.00405322,-0.0241906
-0.00146952,0.0170177
-0.0034322,0.0263747
0.00188034,-0.0174163
0.0269533,-0.0481479
0.074055,-0.0202739
0.0958422,0.00708817
0.0494418,-0.0109762
-0.0064215,0.0136792
-0.0391427,0.0363894
-0.0803474,0.0178239
-0.0861635,0.0327773
-0.0645923,0.098434
-0.0541128,-0.00680902
-0.047692,-0.0204018
-0.0359,-0.0206526
0.024198,-0.0204679
0.0381119,-0.00730755
0.0233503,0.0184463
0.0120343,0.00378778
0.0295246,-0.0131034
0.0785189,-0.00360398
0.0973625,-0.0133712
0.0512523,-0.0230669
0.00983214,-0.0203009
-0.00786453,-0.0153462
-0.0160091,0.00906747
-0.0470872,-0.0134529
-0.0741911,-0.0572379
-0.0597572,-0.00670108
-0.0203163,0.0276204
-0.0111284,0.0147129
0.00248407,-0.0188771
0.0269542,-0.0103958
0.0393326,0.0410418
0.0321179,0.0120147
-0.0221941,0.0255571
-0.0633717,0.00900329
-0.0713556,-0.00510087
-0.0438378,-0.00577696
-0.0172843,0.00895359
-0.00729893,0.0431087
-0.00323295,0.00178242
0.0155639,-0.0204841
0.0490108,-0.00219904
0.0570976,-0.0224483
0.0327845,-0.0435922
0.0198459,-0.0080646
0.0329333,0.0211856
0.0464519,-0.00682041
0.0273993,0.00558881
-0.0088319,-0.0214683
-0.010782,0.000550993
-0.0120615,0.0232388
-0.0134189,0.0234975
-0.0181817,0.00904311
-0.0184012,0.00580866
0.00149189,-0.0488782
0.00763335,-0.0160272
-0.00202732,0.0421187
-0.0286238,0.0274346
-0.0816501,0.0194778
-0.116764,-0.00622326
-0.0772433,-0.0252429
0.00984106,0.00472768
0.0365323,-0.00200821
0.0545176,-0.0121245
0.0925138,-0.0164619
0.0747444,-0.0117319
0.0312798,0.00512223
-0.0128707,0.0114503
-0.0180597,0.00902109
0.000302374,0.0232797
0.00820737,0.036231
0.00352845,-0.0192364
0.00630003,-0.0169387
0.0204639,0.00453707
0.0438381,0.00400884
0.0532947,0.00436657
0.0373694,0.00080138
0.0170214,-0.00717635
0.00459052,-0.0126233
0.00448542,-0.0249492
0.0159589,-0.0151685
-0.0268328,-0.0106528
-0.0996626,-0.00571292
-0.144772,0.0215587
-0.0980513,0.0453487
-0.00910509,-0.00646766
0.0252285,-0.00215295
0.00444623,-0.0343871
0.00935314,-0.017837
0.00933342,0.0226332
-0.000322643,0.00742473
-0.00347116,0.00869186
0.000309136,0.0146501
0.00440415,0.00638096
0.00177125,-0.00855947
0.00961664,-0.00960631
-0.00125151,-0.00888272
-0.00535237,-0.0153038
0.0108906,0.0338058
0.0199361,-0.0167662
0.0377416,-0.0394849
0.0519064,0.023575
0.0637911,-0.00326421
0.0946091,0.00449416
0.102303,0.0339179
0.0502604,0.0339317
-0.0368823,-0.00772104
-0.114909,-0.0479297
-0.160173,0.0058151
-0.128616,0.0188916
-0.0294995,-0.0133604
0.0446047,-0.0317996
0.0338857,-0.0175618
0.00284839,0.0232731
-0.020666,0.0162463
-0.0517331,-0.0196371
-0.056309,-0.00685062
0.00449015,0.00743694
0.0415744,0.00626157
0.0448766,0.0353346
0.053503,-0.00291459
0.101828,-0.0331092
0.129437,-0.0170975
0.0796628,0.000898048
0.00565716,0.0440283
-0.0832293,0.0656759
-0.111606,0.0153524
-0.0403486,-0.058551
0.0158847,-0.02238
-0.0046659,0.0141293
-0.0379355,0.00678837
-0.0336168,-0.0189935
-0.0121308,0.00560378
-0.0216048,-0.00410588
-0.0409437,-0.0225042
-0.0730999,-0.0198677
-0.0511699,0.00570255
0.0176936,-0.00223314
0.096324,0.0160702
0.113481,0.0235548
0.0678867,0.0101142
-0.00559507,-0.00467853
-0.071204,-0.0125662
-0.0470207,-0.00890475
0.00645704,-0.0170697
0.00678631,-0.0237654
0.00236996,-0.0746841
0.00414668,-0.0110054
0.00835841,0.0441475
0.0124719,0.0182026
0.012277,0.0152928
0.0210951,0.0333682
0.0262833,-0.0179494
0.0445122,-0.000813279
0.0408119,0.0294496
0.024061,0.0254986
0.0298976,0.0212749
0.0283903,-0.000629844
0.0174101,-0.0160275
-0.0433117,-0.000148059
-0.0892318,-0.00723213
-0.103394,-0.0131238
-0.0936817,0.00920363
-0.0572373,0.000589028
-0.0137415,-0.0220487
0.0126176,-0.0122939
0.00896358,-0.00519749
0.0164312,0.0134207
0.0318022,0.00637896
0.0208693,0.0101108
-0.00139936,0.0128346
0.00226269,0.0249527
0.0230664,-0.0225768
0.0446977,-0.0072029
0.04139,-0.00127134
0.0327471,0.00830293
-0.00853474,0.00336967
-0.031328,0.0245855
-0.0135511,0.0267905
0.00205733,-0.0138395
-0.00498099,-0.023192
-0.0242565,-0.0151481
-0.0331676,-0.0126038
-0.00303191,0.0104796
0.0329378,0.0289791
0.0140308,-0.000691433
-0.00541216,-0.0223747
-0.0176555,-0.0412996
-0.0113884,-0.0114505
0.00682319,-0.0060347
0.0227164,0.0108644
0.0286176,0.02372
0.0106773,0.00447396
-0.0106308,-0.00649055
0.00113556,-0.0203909
0.0198769,-0.0187017
0.0206122,-0.000799281
0.0290196,-0.0183416
0.0237345,4.52e-05
-0.00399178,0.0121668
-0.0330814,0.0168673
-0.0293807,0.0289946
-0.0328017,-0.0237781
-0.0501042,0.0130666
-0.0821569,0.0129055
-0.0990847,-0.0309887
-0.0388032,0.00341795
0.0578811,0.0215718
0.132433,0.00133723
0.105093,-0.00533897
0.0369505,-0.0181004
-0.00497513,0.00492651
-0.0209867,0.0578158
-0.0102905,0.0547795
-0.0267846,-0.0409616
-0.0415062,-0.0554014
-0.0331501,-0.0143131
-0.0115496,-0.00317939
0.0278296,0.0162657
0.0282099,0.00882211
0.0219919,0.000532002
0.0128488,-0.0160712
0.000811352,-0.026162
-0.0165339,-9.36e-06
-0.0278242,0.00433761
0.00169614,0.0172105
0.0392186,0.00931149
0.0536856,-0.00184264
0.0488124,0.0410351
-0.0050453,-0.0263568
-0.0530854,-0.0207358
-0.0477197,0.00787972
0.00574573,0.0196553
0.0260547,0.0147303
0.0239954,-0.0020143
-0.00387176,0.00691471
-0.0303355,0.00569901
-0.0184144,-0.0089734
0.0185989,-0.0172064
0.0147036,0.0188668
-0.0261285,-0.0111233
-0.074239,-0.0172016
-0.0878783,-0.00119913
-0.0539306,0.00643236
-0.000705054,-0.00701804
0.0499078,-0.00907388
0.0685694,-0.010961
0.0847692,-0.00978617
0.0957088,-0.00856147
0.0561204,0.000816391
-0.031435,0.0143977
-0.0534972,0.0136316
-0.0505639,0.00681654
-0.0318058,0.0131767
-0.0133806,0.0104524
-0.00528696,-0.00516771
0.000228577,-5.35e-05
0.0150943,0.000834345
0.0419167,-0.0289029
0.0324585,0.00321198
-0.000239625,0.028946
-0.0320032,0.0228436
-0.0460025,0.00779286
-0.0505192,-0.0118501
-0.027123,-0.00390579
-0.0100992,-0.0232492
-0.0295687,-0.0190241
-0.0216744,-0.00773818
0.0160779,-0.0157679
0.022113,0.0104714
0.0255196,0.01384
0.0421763,0.00682548
0.0387513,-0.00452752
0.0197028,-0.015063
-0.00616342,-0.0247824
-0.020017,-0.0154919
0.00322671,0.00831146
0.0267005,0.0377206
0.0282314,0.00993789
0.0232067,-0.022637
0.0122382,0.0075894
-0.00175507,-0.00657583
-0.00914718,0.00603597
-0.0285171,0.0550708
-0.0374368,0.000494381
-0.0293,-0.0125781
-0.0238718,-0.00271239
-0.0279433,-0.0119837
-0.0138919,-0.0208151
0.0162532,0.0178924
0.0390147,0.0515228
0.0424033,-0.0198404
0.0362357,-0.0362344
0.0268545,0.0103296
0.00695123,0.00520546
-0.0289105,-0.00871353
-0.0350464,0.0180934
-0.0175199,-0.000456908
-0.00066334,-0.0287851
0.0100639,0.015641
0.00800473,-0.0208494
0.0182668,-0.0212195
0.0192635,0.0172674
-0.0091011,0.0133288
-0.0343276,0.000730194
-0.0346773,-0.0254091
-0.026065,-0.00908736
-0.0150667,0.00416835
0.000379859,0.00806297
0.0199161,-0.000679807
0.033128,-0.000700196
0.0333788,0.014689
0.0192202,0.0106295
0.00663157,0.0181564
0.00306581,-0.00998599
0.00648084,0.0264051
0.0111493,0.0291057
0.00420996,-0.0427183
-0.000925547,-0.0295053
-0.00444448,-0.00332622
-0.00883705,-0.0004103
-0.0196915,-0.00916989
-0.0204535,0.00269027
-0.0254578,0.00437786
-0.0235159,0.000621645
-0.0203179,-0.00446374
-0.00442296,-0.0196461
0.0178466,0.0320508
0.0236335,0.0053601
0.0300721,0.0114596
0.017811,0.0224608
-0.00522964,-0.00936572
-0.0168385,-0.00522282
-0.0296824,-0.00541824
-0.0299025,-0.0170416
-0.0262574,-0.0231761
-0.0370437,-0.0106278
-0.0157872,0.0282167
0.0183372,0.0121651
0.0357219,0.00764667
0.0428862,0.0052311
0.044465,-0.012737
0.0266623,-0.00828137
-0.00502993,-0.0121908
-0.026566,-0.0280621
-0.0361163,-0.0233068
-0.0266236,0.00795438
0.00943374,0.0263786
0.0328316,0.0152998
0.0331279,0.0109263
0.0142933,0.010263
0.00056811,0.00256743
-0.00208964,0.00135721
-0.00481854,0.00828538
-0.00933771,-0.00878846
-0.00399511,-0.0136825
0.00501243,0.0021551
0.0162472,-0.029284
0.0162903,-0.0178113
0.0121876,0.033163
0.00879478,0.0123369
-0.00664905,0.000312684
-0.0187217,0.0270343
-0.015772,0.00217179
-0.0198086,-0.0118382
-0.033268,-0.00448462
-0.0200795,0.00657149
-0.00328905,0.036965
-0.00584997,-0.00469946
-0.00966836,-0.00446423
-0.00301197,0.0233912
0.0233007,0.0114654
0.0357339,-0.0257473
0.0253678,-0.0325168
0.0126465,-0.00196951
-0.00887199,0.0099804
-0.0220565,-0.0125488
-0.013817,-0.0423186
0.00671306,-0.0217488
0.0148718,0.0325871
0.0107119,-0.0120977
-0.000896768,-0.0468906
0.00587239,0.00237498
0.0189447,0.0255758
0.0284742,0.0230725
0.0451516,0.0180672
0.0454298,0.0179185
0.00967719,0.0143391
-0.0259844,-0.000685631
-0.0383882,-0.0388405
-0.0395387,-0.0172939
-0.0429421,0.00897401
-0.0395309,0.00471326
-0.0475575,-0.00227666
-0.0476217,0.0410378
-0.0560698,0.00203948
-0.0224659,-0.0185771
0.00954581,-0.0246523
0.00524575,-0.00295294
-0.00735264,0.00980819
0.0179891,-0.00172187
0.0517235,-0.0207821
0.0398705,-0.0227571
-0.0008218,0.0551684
0.00283099,0.0349691
0.0307419,-0.0372455
0.024621,-0.0103547
0.00840598,0.0172889
0.0115569,0.021682
0.0180406,0.00809992
0.00893739,-0.0016013
0.00325819,-0.00421791
-0.00250285,-0.0106361
0.00242357,-0.0159408
0.0116315,-0.00998108
0.0207188,-0.00345694
0.018252,0.00906
0.00442019,0.0079384
-0.0108688,-0.00174965
-0.0203605,0.00805408
-0.0213217,0.00349128
-0.0222798,-0.00309721
-0.00524368,0.00263097
0.0181591,0.00413424
0.02091,0.0131959
0.0184616,0.013104
0.0100108,0.036898
-0.00591131,-0.00800126
-0.0211485,-0.019313
-0.0349781,-0.0139852
-0.0310277,-0.0208666
-0.0148389,-0.0239381
-0.00500891,-0.0207
-0.00551284,-0.00930369
-0.00820583,-0.00122166
-0.0131289,-0.00285405
-0.0151385,-0.00958198
-0.00760393,-0.0115165
-0.00117261,-0.00756736
0.00229087,-0.00492531
0.0206702,-0.0112124
0.0357255,0.0107221
0.0334318,0.0308132
0.0199804,0.0238397
0.00395111,0.0223321
-0.00760099,0.0183508
-0.029113,0.00623178
-0.0318038,-0.00616849
-0.0172949,-0.00495593
-0.0106987,0.00103403
0.000680368,0.00313445
0.0363777,-0.00120036
0.0597021,-0.00161553
0.0396297,-0.00568875
0.00889449,-0.00869637
-0.0110203,-0.00509492
-0.0230952,0.00206723
-0.0382664,0.000710517
-0.0439681,0.0110274
-0.0376156,0.0207347
-0.031677,0.00877196
0.00952402,-0.00439807
0.0656721,-0.00725398
0.0712917,-0.0133496
0.0323532,-0.0158869
-0.0128432,-0.00907603
-0.0327326,0.000746849
-0.0264868,0.00937573
-0.0393621,0.00722599
-0.0661417,0.00478181
-0.077871,-0.00483913
-0.0353653,-0.015488
0.0450192,-0.0100466
0.0799124,-0.0025335
0.0650483,0.00130733
0.0432144,0.00426268
0.0305918,0.00450353
0.0127874,0.00074777
-0.019744,0.000438796
-0.0401609,0.00478026
-0.0083215,0.000526779
0.0285572,-0.00165539
0.0420562,0.00761252
0.0304295,0.0178375
-0.00534165,0.0170257
-0.0385391,0.00668023
-0.032229,-0.00471241
-0.0059827,-0.0155032
-0.0214496,-0.0181201
-0.00520989,-0.0146767
0.061481,-0.00580232
0.111652,0.0028568
0.0638024,0.010811
-0.005732,0.0040697
-0.0520125,-0.00769899
-0.0301686,0.00138343
0.0250758,0.00817743
0.0425235,-0.00511171
-0.0173431,-0.0125996
-0.119308,-0.0123383
-0.144568,-0.00196214
-0.0707937,-0.000502557
-2.96e-05,-0.00573787
0.0364624,-0.00553279
0.035604,0.00533214
-0.000690344,0.00392999
0.000982776,0.012906
0.00420948,0.0118494
-0.00356947,0.0128872
-0.00284208,0.0133551
0.00256403,0.0078014
0.0129665,-0.00636422
0.0251231,-0.0235597
0.0376611,-0.0308748
0.0232394,-0.0176254
-0.0396247,0.00911738
-0.0846659,0.0209297
-0.0703836,0.0151977
0.0351003,0.0137261
0.0799916,0.00806621
0.070102,-0.00220025
0.0727804,-0.001238
0.0578566,0.00420708
0.0146716,0.00936687
-0.03134,0.00562822
-0.0724559,0.000978033
-0.101665,-0.0115391
-0.0856077,-0.0188841
-0.0491935,-0.0144107
0.00841202,-0.00174684
0.0663149,-0.000435584
0.0715493,-0.00239865
0.00783912,0.00174258
0.000248022,0.0109678
0.0318338,0.0106853
0.0230638,0.000238939
0.0194501,-0.003309
0.0207913,-0.00413555
0.0144637,-0.00906272
0.01117,-0.00699553
0.00953481,-0.0001
-0.049084,0.00419558
-0.0781485,0.00597486
-0.0333164,0.00709196
0.0334444,0.00184704
0.0550593,-0.00204804
-0.0360164,0.00391534
-0.0779092,0.00562457
-0.035259,-0.00377941
0.0181372,-0.00382725
0.117136,0.00251363
0.0996696,0.007411
-0.00297001,0.00539583
-0.0247288,-0.00876871
0.00308701,-0.0164213
0.0284933,-0.0142133
-0.00213138,-0.0112955
-0.0152739,-0.0044324
-0.0182165,0.00544488
-0.0609241,0.0106496
-0.0889744,0.00787855
-0.030158,0.00600538
0.0484771,0.0107419
0.0735249,0.0055563
0.0540689,-0.00234166
-0.0135827,0.000945435
0.00488813,0.00831589
0.0452309,0.00335952
-0.0161482,-0.00625376
-0.100497,-0.00622179
-0.062601,-0.00429933
0.0285632,-0.0137996
0.0454929,-0.0122243
-0.0248836,-0.00704634
-0.0720886,-0.000380727
-0.0588886,0.00410581
-0.0313249,-0.00173275
-0.0221182,-0.0108121
-0.020962,0.00429958
-0.0161773,0.0118482
0.0155582,0.00164962
0.071734,-0.00756433
0.0885812,-0.00774417
0.0268108,0.0111102
-0.0219791,0.020991
0.0179614,0.0157156
0.13184,0.0119682
0.143053,0.0138298
0.0378395,0.0210922
-0.042887,0.0241197
0.0299159,0.0242893
0.0285544,0.0137299
0.0536015,-0.00267759
0.107279,-0.00880485
0.095823,-0.0171164
-0.112857,-0.0230955
-0.543356,-0.0181944
-0.678254,-0.0136649
-0.262083,-0.0370407
0.11903,-0.0402491
0.19326,-0.0117243
0.179468,-0.0078077
0.163696,-0.0216764
0.181878,-0.0164735
0.185392,0.0011771
0.16011,0.000725701
0.124405,0.0083643
0.114368,0.0199926
0.0437601,0.0348297
-0.0511342,0.0385517
-0.0479886,0.030976
-0.0124718,0.0126653
-0.0138882,-0.00396208
-0.0114264,-0.0122737
0.00212907,-0.0228356
0.141977,-0.000371609
0.0149251,0.0130801
-0.124469,0.00565496
-0.132005,0.00450143
0.0217748,0.00403102
-0.0208799,0.00265697
-0.26167,-0.00950574
-0.426598,-0.0318816
-0.411881,-0.0303737
-0.159243,-0.0178307
0.103737,-0.0152278
0.284897,-0.0163509
0.403466,-0.0100405
0.307248,0.0088396
0.200822,0.0173609
0.116058,0.00619712
0.029508,0.00394778
-0.0194431,0.0129471
-0.00875808,0.0171131
0.0197811,0.0243257
0.0249302,0.0201506
0.00745271,0.0105524
-0.00743969,0.0134428
-0.0308944,0.0190859
-0.0496773,0.0111554
-0.0587338,-0.00829399
-0.081803,-0.0190781
-0.102536,-0.0255276
-0.0933214,-0.028167
-0.0586328,-0.0259743
-0.015101,-0.0206225
0.016711,-0.00278487
0.0206515,0.012501
-0.00345222,0.0184383
-0.0307063,0.0171455
-0.0375339,0.0103019
-0.0285371,0.00389531
-0.00956456,-0.0124382
-0.0138432,-0.0313776
-0.0263897,-0.0311009
-0.010099,-0.0121301
0.0221698,0.00724182
0.0371226,0.0212535
0.0271693,0.0271578
0.0497849,0.0188219
