Comp Ch 3,Comp Ch 4
0.045457,0.0205443
-0.00327809,0.056896
-0.0344455,0.0824963
-0.0223078,0.0302598
-0.0132108,-0.106168
0.00546353,-0.222561
0.0747177,-0.0606446
0.114957,0.191177
0.0013811,0.107039
-0.0659408,0.0979525
-0.0620062,0.116731
-0.0941824,0.0675697
-0.0639801,0.00850572
-0.0190597,-0.0454971
0.0205049,-0.047416
0.0464117,0.0226445
0.0449909,-0.00840078
-0.00951157,-0.0358271
-0.109579,0.0147192
-0.136624,0.0302394
-0.08032,0.0239736
0.0879729,0.00887731
0.240465,-0.0267313
0.228646,-0.0709882
0.0881443,-0.0166412
0.013854,-0.00708846
-0.0315141,-0.0661512
-0.0809092,-0.0591799
-0.154222,-0.0387853
-0.22347,-0.0121415
-0.186342,0.0214898
-0.111578,-0.115892
-0.119439,-0.0716024
-0.0566399,-0.0435386
0.0204977,-0.030886
0.0514505,0.0206793
0.0668825,0.0284129
0.0856334,0.123959
0.0701365,0.179142
0.00653692,0.0792771
-0.0317234,-0.00998467
0.0269434,-0.0869153
0.168085,0.0422617
0.169041,0.067578
0.100684,0.0451758
0.0183583,-0.00266971
-0.0302479,0.0110648
-0.0898113,-0.0243424
-0.121577,-0.00258607
-0.04407,0.0198147
0.0436549,-0.0192683
0.000160487,-0.101361
-0.10596,0.00893681
-0.0708981,0.0196242
0.0159292,-0.0551869
0.0876631,-0.060007
0.164848,0.00201841
0.172558,0.00293933
0.0928777,-0.0447386
-0.0553927,-0.0138523
-0.0953722,0.0552817
0.00624443,-0.00907742
0.0426994,-0.0524533
-0.0368825,-0.00485849
-0.11146,0.049621
-0.116214,0.013297
-0.0408069,0.0389833
-0.0125253,0.0379382
0.0209861,0.00361246
0.146109,-0.0245952
0.206608,-0.0742438
0.168687,0.0738454
0.0264447,0.036143
-0.103492,-0.037353
-0.24319,-0.0194091
-0.18259,0.0707479
-0.0548601,-0.0488696
-0.0490716,-0.00839252
-0.043941,0.0772189
-0.00584069,0.021077
0.00199677,-0.0691262
-0.0629983,-0.0123216
-0.149458,0.0137157
-0.0931725,-0.0222592
0.0638171,-0.0540369
0.103866,-0.00434541
0.0338045,0.029775
0.0897306,-0.0114571
0.200216,0.00390549
0.233339,0.0336023
0.0191763,0.030229
-0.0104743,0.0251069
0.11627,0.0210174
0.133205,0.0179441
-0.0840397,-0.00258012
-0.316329,0.000983618
-0.273968,0.00101389
-0.078995,-0.00935566
0.00161551,-0.048847
0.0818165,-0.0471441
0.0743452,0.00219675
0.0298322,-0.0433504
0.0394318,-0.00936882
0.0189801,0.0140147
0.0108902,0.0408896
0.0241526,-0.0209875
0.0258315,-0.0347649
-0.0501682,0.0478042
-0.075956,-0.0244156
0.00116345,0.0122724
0.145019,0.021958
0.168367,-0.0799889
0.08129,-0.025643
-0.008594,0.0180081
0.0157195,0.112587
-0.0329086,0.0136356
-0.0450074,-0.0528727
-0.0729027,0.0991084
-0.0813755,0.0108076
0.0413335,-0.0535873
0.02309,-0.0206913
-0.0744723,0.0478444
-0.158219,0.0268819
-0.155828,-0.0554197
-0.124603,0.0601842
-0.0528386,0.00505608
0.02225,0.0464578
0.0721636,-0.0109115
0.0225915,-0.0460739
-0.0138504,-0.0273198
0.0838546,-0.0262388
0.1872,-0.0363159
0.120554,-0.0585685
0.111531,-0.00222958
0.0364685,0.0686529
-0.123047,-0.00683106
-0.116665,-0.0558339
-0.0248909,-0.0602617
0.00777557,-0.150382
0.0154854,-0.0344302
0.00955226,0.0340091
0.00827821,0.0974126
0.0249681,0.0967577
0.0633498,0.0737813
0.0644446,0.0351813
0.0291863,-0.00746478
-0.0673137,-0.00262957
-0.0677615,0.00112809
0.0120244,-0.0225414
-0.0126283,0.0162261
-0.0504888,0.0202582
-0.0303927,0.040933
-0.00837524,0.0410102
-0.0102235,-0.0376052
-0.0299327,-0.0222855
-0.0590135,0.0347551
0.00324737,0.0352743
0.145279,-0.0349304
0.0335051,-0.0338986
-0.082599,0.0474098
-0.0471957,0.0188663
-0.012844,-0.0293722
0.094282,-0.0292505
0.142917,0.0141605
0.0361049,-0.00990342
-0.0317604,-0.0690044
-0.00283736,-0.0491568
0.0792532,0.133182
0.00282743,-0.0859785
-0.119587,-0.120826
-0.169764,-0.0212017
-0.119601,0.0140256
0.00209668,0.00788997
0.113275,0.0343699
0.143052,0.0165024
0.119943,-0.0975604
0.0467441,0.0183807
-0.0733502,0.0590087
-0.134125,0.0832704
-0.0901631,-0.0340738
0.0107813,-0.0626307
0.05725,-0.0192653
0.0582964,0.106486
0.0310922,0.0817896
-0.022333,-0.0219367
-0.106897,-0.0186813
-0.137188,0.0285774
-0.0479748,0.0235264
0.0467643,-0.00944584
0.072973,-0.0194306
0.0695318,-0.0257932
0.085196,-0.00677326
0.0730864,0.0156294
0.0164033,0.0109084
-0.00785819,0.0128602
-0.00318561,-0.0225194
-0.0274875,-0.0485633
-0.0579783,-0.0228439
-0.0771713,0.00166596
-0.10968,0.0614042
-0.0665531,0.0105789
-0.00547443,-0.0315691
-0.0320975,0.0105664
-0.0874371,0.0235515
-0.101452,0.000654207
0.0466008,0.0234262
0.169138,-0.00587403
0.151559,-0.0142254
0.172095,0.0713569
0.138252,-0.0773227
0.113347,-0.0266379
-0.0113627,0.0132844
-0.0904492,0.0426991
-0.0424367,-0.00783871
-0.0550582,-0.0637906
-0.112489,-0.069715
-0.13237,0.025271
-0.0448934,0.0362448
0.0433521,0.0193675
0.0581406,0.00681581
0.0434421,-0.0109318
0.0260384,-0.0483263
4.27e-05,-0.0597556
0.000484349,-0.0124087
0.0216528,0.00770704
0.0588207,-0.0103258
0.0646082,0.0378285
0.0075882,0.0318651
-0.0499845,-0.0191346
-0.0976291,0.0264864
-0.0664799,0.0463028
-0.020963,-0.0127404
0.00732859,-0.0437791
0.0409844,0.0147519
0.0283791,0.0570911
-0.0296072,0.0359115
0.0378076,-0.0144231
0.123697,-0.0504002
0.0832322,-0.0152327
-0.0927446,-0.0263757
-0.202649,-0.0369373
-0.155827,0.0274265
-0.0695646,0.0546978
0.0111413,0.0392894
0.0561917,0.0537489
0.0711522,0.00594485
0.105842,-0.0113889
0.135201,0.00133013
0.111753,-0.0537107
0.0378018,0.022532
-0.0428222,0.0134216
-0.0645571,-0.0931171
-0.0618907,-0.0562282
-0.0738434,-0.0325472
-0.0435749,0.0324698
0.00813271,0.0626665
-0.0253159,-0.00754948
-0.0818106,-0.0168631
-0.0655484,0.00677611
-0.016637,0.00259428
-0.0057779,0.051357
0.0115212,-0.00985855
0.0207123,-0.0323675
-0.0148417,0.0189665
0.0050181,0.0545101
0.0358926,0.0739071
0.0943404,-0.038157
0.165658,-0.104367
0.144417,-0.0515105
0.0668,-0.00260651
-0.032388,0.0894702
-0.0840967,0.0753423
-0.105305,-0.0127127
-0.0940132,-0.0375463
-0.0310545,-0.0102488
0.00363244,0.00369571
0.00831457,-0.0315017
-0.0348329,-0.0705618
-0.0253737,-0.0399952
0.0853154,0.0762513
0.09352,-0.00211253
-0.0340654,0.0328039
-0.111005,-0.0186815
-0.112007,0.0503587
-0.0484557,0.148773
0.0366399,-0.00657915
0.019651,-0.010614
-0.0410651,0.0046462
-0.014524,-0.0274807
0.0760748,-0.0333489
0.12461,0.00944552
0.188141,-0.0316378
0.181411,-0.0484134
0.0703875,-0.0108195
-0.109281,0.0305301
-0.203689,-0.0145747
-0.0857407,-0.0398809
-0.000574883,-0.0775261
-0.0324871,-0.0444957
-0.0327903,0.0679743
0.0282631,-0.0375451
0.0206875,-0.011649
-0.0296252,-0.00481099
-0.0506601,0.0256056
-0.0565692,0.0123181
-0.0349858,-0.011077
-0.0584423,-0.0136419
-0.0933707,0.00121748
0.0214069,0.00542628
0.197102,0.0161435
0.168936,0.0142282
0.0942668,0.00311012
0.0148836,0.00421237
-0.0691971,0.013548
-0.0235278,0.0181765
0.040943,0.0200412
0.0586694,0.0111364
0.0139231,0.0332437
-0.0187117,0.0323809
-0.0750732,0.0101071
-0.104821,-0.018947
-0.0531031,-0.00113117
-0.00143345,-0.022064
0.0185175,-0.00920647
0.02561,0.0296604
0.0300834,0.00072167
-0.0640082,-0.0146157
-0.121807,0.00724289
-0.0652834,-0.0149801
0.0202793,-0.0123381
0.0794321,-0.0330473
0.0725316,-0.0804407
0.0297268,-0.0760728
0.0150015,-0.065175
-0.0187021,-0.0130053
-0.0405047,0.0531539
-0.0316729,0.0864796
-0.0227899,0.110365
-0.0643589,0.0545758
-0.0774765,0.00751496
-0.030558,0.0191821
0.0639671,-0.000802942
0.0954711,-0.0340575
0.097436,-0.00769651
0.114316,0.078938
0.116369,-0.00872083
0.1167,-0.0496869
0.0280734,-0.00227699
-0.0612098,-0.00143497
-0.0767983,-0.0178888
-0.0798977,-0.0121694
-0.060933,-0.0142864
-0.0413041,-0.00985228
-0.0311578,-0.0197697
-0.0409366,-0.124076
-0.0539503,-0.115424
-0.04507,0.0322149
0.0307806,0.0896222
0.0695631,0.095103
0.0846297,0.0326619
0.0455883,0.0133176
-0.0506228,0.0175552
-0.0834728,0.00149753
-0.0111599,-0.0135377
0.0434261,-0.0392976
0.0611928,0.00580109
0.0462871,0.0150799
0.0362539,0.00985147
0.00605742,0.0116472
-0.0716561,0.0756816
-0.0546605,0.0769375
0.0295085,0.0068078
0.0814071,-0.0297791
0.046185,-0.0232602
0.0382554,-0.0510791
0.0345891,-0.0693248
-0.00956455,-0.0127112
-0.117998,0.0161316
-0.210293,-0.0339451
-0.153561,-0.00938633
-0.0721528,0.0254502
-0.0266337,-0.0184929
0.00587704,-0.076872
0.0827242,0.0368735
0.126504,0.0825115
0.0994779,0.102231
0.0236969,0.0787179
-0.0150546,-0.076803
0.0223884,-0.06155
0.0492435,-0.0451727
0.0469141,-0.0462681
0.0284334,-0.0423207
0.0395388,0.0173333
-0.00606756,-0.0195673
-0.0686552,-0.017999
-0.041173,0.0278989
-0.00981137,-0.0262223
-0.0285567,-0.0504289
-0.0522144,0.0066722
-0.0437749,0.0590765
0.0149124,0.0505473
0.074753,0.0580187
0.0850706,0.0435528
0.051143,0.0159246
-0.0481492,0.00668217
-0.0967174,-0.0623498
-0.0135361,-0.0713871
0.0263869,-0.0222909
0.0125394,-0.0465785
0.00745388,-0.0275692
0.0306689,0.0141701
0.0153257,0.00768368
-0.016408,-0.0806554
-0.0873391,-0.04809
-0.108749,0.0294348
-0.0189399,0.0576764
0.0482206,0.092212
0.0502778,0.0498645
0.0365906,-0.0302293
0.00844101,0.0240984
-0.0144925,0.0726699
0.0418064,0.00503448
0.105929,-0.0113073
0.070577,0.0212857
-0.0240376,-0.011476
-0.114287,0.00493671
-0.103817,-0.00923872
-0.0272179,0.0211372
0.00927777,-0.00287808
-0.0192862,-0.0173206
-0.00284541,0.0483267
0.00278747,0.0121065
0.0103493,-0.0638885
0.0265259,-0.0168676
0.0847412,-0.00170545
0.058371,-0.00349216
-0.0138704,-0.000701879
-0.0185559,0.00085164
0.102467,-0.055534
0.211149,-0.0434134
0.0942616,-0.0205399
-0.0915829,0.0383173
-0.240473,-0.00621019
-0.275281,0.0145569
-0.137078,0.0116219
0.0308183,-0.0106753
0.0749877,0.0265702
0.0769291,0.0116049
0.0765809,0.000875634
0.0661741,-0.0186718
0.0317686,-0.0471033
0.00961899,0.0494697
-0.00642569,0.0379424
0.0107857,-0.00724986
0.0324477,-0.00422395
0.00192196,0.0235739
-0.0507265,0.0249667
-0.122909,0.0254326
-0.105786,-0.0179657
-0.00655727,-0.0148524
0.0303047,-0.0170065
0.0500496,0.00567832
0.0237169,0.0524457
0.0108656,-0.0231777
-0.00418329,-0.049128
-0.0011749,0.054817
0.0215686,0.0483762
0.0107829,-0.0430369
-0.0166293,-0.0360092
-0.0308554,-0.0267776
-0.0373684,-0.0267907
-0.01637,-0.0596748
0.037881,-0.0417316
0.0232425,0.0214617
-0.0133072,0.0301294
0.0158209,0.032207
0.0609233,0.0365126
0.113004,0.0132204
0.111882,0.0295997
0.0912597,0.0392709
0.0463225,0.00384582
-0.0485679,-0.065382
-0.0842036,-0.0814883
-0.113561,-0.0323662
-0.153294,0.0139344
-0.108075,-0.0294276
-0.0113571,-0.00519898
0.0201714,0.0150192
0.0196372,-0.00416277
-0.00982021,-0.0131006
0.0143937,-0.0252671
0.0839493,0.0399651
0.0871284,0.0664608
0.00189946,0.0332233
-0.0665135,0.0337576
-0.0632754,0.00677737
-0.0583009,-0.0546386
-0.000508721,-0.0218615
0.066259,0.00564707
0.072205,-0.000779905
0.0399467,0.0454712
0.018654,0.0173616
-0.000472766,-0.00113957
-0.0153712,0.00121065
-0.0253811,-0.0213031
-0.05431,-0.0286539
-0.017064,-0.0282243
0.0232807,-0.0256543
0.0320515,-0.011865
0.0302113,0.00433673
0.034403,0.000943069
0.0153602,0.0669397
-0.00443434,0.19441
-0.0228974,-0.0374994
-0.0184868,-0.0843259
-0.0248599,-0.022209
-0.00704864,0.0290012
0.00965833,0.0304669
-0.0374925,-0.0110849
-0.0687776,-0.0335202
-0.0279914,-0.0203892
-0.00357467,-0.00316579
0.0192797,-0.0513374
0.049531,-0.0546871
0.0460876,-0.0201636
0.0283745,0.020875
-0.00786535,0.0347806
-0.0616695,0.0325131
-0.0718413,0.0085744
-0.0219517,0.0439103
0.0287679,0.0252168
0.112387,-0.0324104
0.149912,-0.04222
0.102089,-0.067622
0.0335085,-0.0428756
-0.0719131,-0.0132633
-0.0665105,0.0344992
-0.00347761,-0.0143577
-0.0152869,-0.093009
-0.0413623,0.0138576
-0.0267289,0.0746076
-0.0128785,0.0659469
-0.0454245,0.0481776
-0.101558,0.0332475
-0.0890829,0.0399619
-0.0306247,0.0500252
-0.0132522,-0.0213586
0.00754706,-0.0328862
0.00861996,0.0271184
0.024048,0.0411956
0.0768287,0.0183514
0.089462,-0.0903888
0.134741,-0.128578
0.169784,-0.0115048
0.101512,0.0122624
-0.0435364,-0.0327777
-0.13936,-0.022181
-0.0966061,0.0103404
-0.058773,0.0225567
-0.072855,0.0397553
-0.0603234,0.038711
-0.0414714,0.0334599
-0.0136108,0.0201296
0.00714267,-0.0525946
0.00713113,-0.027807
-0.0172304,-0.0141794
-0.030624,0.034881
-0.00525456,0.0843427
0.011256,-0.0302228
0.0270491,-0.00311896
0.0246519,-0.022277
0.0372646,0.0128283
0.0318122,-0.0221674
0.00326192,-0.0582633
-0.0128561,0.000911524
0.00619255,-0.00888504
0.0806244,-0.00200936
0.106214,0.0298509
0.063957,-0.0156892
0.0323613,-0.0159067
-0.0210654,-0.000883733
-0.077164,0.041851
-0.0796267,0.045489
-0.0372541,0.0139045
-0.00184913,0.00597553
0.0149582,0.0114902
0.00307448,-0.0334593
-0.0355444,-0.00608219
-0.0493482,0.0130985
-0.0140212,-0.0332765
0.0606099,0.0180215
0.0713649,0.0332937
0.0449444,0.00524029
0.0167739,-0.023054
-0.00586806,-0.0496077
-0.0182754,0.0206198
-0.0588168,0.0684902
-0.0894419,0.0256566
-0.037373,-0.0536042
0.00336942,-0.075408
0.0281849,-0.0656268
0.00479769,0.0176146
-0.0128677,0.0110244
0.0118869,0.0261933
0.0150028,0.042589
-0.00118716,0.0130797
0.0289854,-0.00615801
0.0220862,-0.00957416
0.0229466,0.0056379
0.0352524,-0.000206163
0.00646128,-0.04373
0.0260739,-0.0418298
-0.0133637,0.0148472
-0.0647025,0.0275818
-0.0907461,0.0246942
-0.0573384,-0.0291547
0.0156411,-0.0595953
0.0213888,-0.00789431
-0.0121805,0.000165769
-0.0448823,0.0568505
-0.0441536,0.0558039
-0.0260395,-0.0538037
0.00988257,-0.0672632
0.045995,-0.0422306
0.0994635,0.0246669
0.0832785,0.0269424
0.0395115,0.021467
0.010956,0.084847
-0.0232841,0.101946
-0.00210777,0.0164193
0.0717436,0.0188956
0.0850923,0.0413796
0.0166543,-0.00305111
-0.0630847,-0.0648584
-0.0857795,-0.0478575
-0.0401067,-0.0228022
-0.0233086,-0.0333111
0.018644,-0.0366253
0.042073,-0.0250075
-0.00867649,0.010719
-0.0407981,0.0329748
-0.0239203,0.0400035
-0.0187367,0.0229008
-0.033413,0.0198717
-0.0325142,-0.00714359
-0.00817222,-0.0396332
0.0146962,-0.0340317
0.0377993,-0.0512247
0.0334152,-0.00258749
0.0100909,0.0775124
-0.0103557,-0.00842686
-0.014424,0.0255048
0.0119251,-0.0345847
0.0282384,-0.0417234
0.0179489,0.00293816
0.0415791,0.0164885
0.041708,-0.00117313
-0.00608415,-0.00217995
-0.0591471,-0.0672164
-0.109869,-0.00462662
-0.0718745,-0.00710145
0.0088069,0.0374106
0.0348988,0.0735285
0.0127621,0.020527
0.00464552,-0.0301312
0.0225583,-0.0466793
0.0629981,0.0114133
0.0756245,0.0550227
0.0361317,0.0485674
-0.048059,0.016685
-0.111785,0.00193799
-0.0505201,0.0164965
-0.00188623,-0.0197101
-0.0174768,-0.0525112
-0.0139366,-0.0386108
0.0212373,-0.0387361
0.0200703,0.0458804
-0.0126048,-0.0234632
-0.00371444,-0.0245041
0.0277435,0.0169933
0.0759402,0.00288084
0.108707,0.0522228
0.0628099,0.0395956
-0.0569045,0.0103307
-0.112148,-0.0210701
-0.0739686,0.0115823
-0.000178761,0.00453671
0.0279619,-0.0773014
0.00944298,-0.0407465
-0.0220821,0.0742867
-0.0466214,-0.0427932
-0.0497697,-0.063776
-0.0357594,0.00757034
0.0272208,0.0683255
0.143008,0.0469622
0.228795,0.00636808
0.149352,-0.0148463
-0.0178161,-0.0579946
-0.10407,-0.0226888
-0.0927792,-0.0129807
-0.0829508,-0.0182466
-0.090483,-0.0183252
-0.0485307,0.0350885
0.000900925,0.113667
0.0199196,0.0555333
0.0374428,-0.00755076
0.0282139,0.0871665
0.0180833,0.0514587
-0.0104563,-0.136075
-0.0417828,-0.152662
-0.0726145,0.0127787
-0.0701164,0.08055
-0.0468179,0.0194296
-0.00110844,-0.0200112
0.0554652,-0.0965959
0.0580118,-0.0804206
0.0524156,0.0187125
0.0973689,0.156881
0.104321,0.0200443
0.00814608,-0.0259915
-0.118103,0.035496
-0.168311,-0.020026
-0.115521,-0.0805068
-0.0206816,-0.0490173
0.0697003,-0.0200776
0.125332,-0.0353024
0.116067,0.0463325
0.121476,0.0945224
0.0756492,0.0163729
0.00095175,0.0200475
-0.0708071,0.0583701
-0.129069,0.0257005
-0.102307,-0.0439355
-0.0548398,-0.155106
-0.0536395,0.0389282
-0.0454058,0.0286558
-0.0150222,0.0195787
0.000758002,-0.0530203
0.057602,-0.0653419
0.122032,-0.00889102
0.122842,0.0906633
0.0692118,0.0226666
-0.0422577,-0.00116598
-0.0881029,0.00899139
-0.0489538,-0.00563689
-0.0299283,0.024699
-0.0271649,0.0750798
-0.00503844,0.0454137
-0.00653344,-0.0632884
-0.0100237,-0.0436456
0.0424147,-0.0205173
0.0874998,0.032756
0.0870714,-0.027195
0.0307083,-0.0432929
-0.0596729,-0.00658948
-0.083417,-0.0280208
-0.0553938,-0.0614392
0.0116675,-0.0257374
0.0119961,0.0482286
0.0275062,0.0561562
0.123629,0.0327504
0.0936926,0.0407038
-0.0416703,0.0574999
-0.128935,-0.0465023
-0.0728751,-0.0205153
0.00597995,0.0292143
0.033963,-0.0679039
0.0228144,-0.00786177
-0.0330496,0.0662321
-0.0567863,-0.0390557
-0.0600655,-0.00968112
-0.0197062,-0.028659
-0.0385128,-0.0663976
-0.0631504,-0.0687383
0.0124837,-0.0457946
0.0971497,0.103229
0.0764883,0.137267
0.0435397,0.0384172
0.0437108,0.000668378
0.00946462,-0.0159594
-0.0181523,-0.0337137
-0.0375979,-0.0525525
-0.014843,0.0638121
0.00879574,0.0445315
0.0474597,0.0354308
0.05302,-0.00383945
0.0253599,0.0231106
0.0202834,0.0529989
-0.0164468,-0.102509
-0.0610577,-0.118518
-0.0904814,-0.0722058
-0.0870797,0.0583322
-0.0432897,0.0970449
0.0105531,-0.00213375
0.025569,-0.0673594
0.00976128,-0.0809407
0.00252824,-0.0555257
0.00866428,-0.0349553
-0.00344822,0.0282975
-0.0207075,0.114125
0.0167066,0.171422
0.0298423,0.00979721
0.112346,-0.00835103
0.131102,-0.00962601
0.0865731,-0.05464
0.0316339,0.0138381
-0.00507554,-0.0285646
-0.0111399,-0.0930239
-0.0331928,-0.0521172
-0.0424073,0.0255752
-0.0512325,0.077706
-0.120502,0.0593864
-0.114875,0.0543458
0.00705209,0.0126093
-0.00693568,-0.162094
-0.036092,-0.0793749
-0.0478261,0.0592489
-0.0538281,0.0443358
0.0179549,0.0386677
0.0848487,0.120663
0.184247,0.0250439
0.190002,-0.0731863
0.0567219,-0.0375532
-0.0952005,-0.0488574
-0.18206,-0.0343752
-0.1238,0.00326935
-0.0739284,0.0248396
-0.0261672,0.034245
0.033951,-0.000377085
0.0631842,-0.0460852
0.0692828,-0.0780936
0.0638438,-0.0822623
0.0417197,0.0270036
-0.0220666,0.0881525
-0.0390539,-0.0270486
-0.0298065,0.00844222
-0.00395215,0.235043
0.0353044,0.0721125
0.0316087,-0.149926
-0.0390163,-0.231921
0.0303975,-0.12043
0.120115,0.024934
0.093293,-0.03666
-0.0131622,0.00258143
-0.0983898,0.040739
-0.0686418,0.0418837
-0.0449373,0.0906843
-0.0459153,0.0978473
-0.0618729,0.061465
-0.0760843,0.0479928
-0.0796797,0.0561448
-0.0686945,0.0108918
0.0285128,0.0409818
0.108291,0.0851245
0.133213,-0.0362399
0.10234,-0.0842949
0.0484667,-0.081346
-0.0095358,-0.0187097
-0.0641945,-0.0534055
-0.0366881,-0.0160435
0.0253257,0.0113835
0.0495061,-0.0660445
0.00125425,0.0140055
-0.0899417,0.0562092
-0.0605827,-0.18721
0.0132438,-0.0625177
0.0345356,0.13457
0.0260154,-0.0353556
0.0408426,-0.107043
0.067711,0.0428856
0.0109012,0.0792091
-0.0563182,0.0624857
-0.0962282,0.123557
-0.0848817,0.0443402
-0.030367,-0.0687593
-0.00260401,-0.0206531
0.0103867,-0.00228512
0.034404,0.0196646
0.0469436,0.0378249
0.0148307,0.0768496
-0.0590546,0.0998197
-0.0966242,-0.00969314
-0.0583419,-0.000516851
0.0180109,0.00110649
0.106571,-0.0558013
0.131171,-0.0563965
0.0737155,-0.11204
0.0774026,-0.131187
0.0789285,-0.00443875
0.0184942,0.0990478
-0.0195831,0.0513391
0.0470426,-0.049936
0.136555,0.0774175
0.0948138,-0.0126463
-0.102538,-0.0515416
-0.256404,-0.0415191
-0.221628,-0.00732964
-0.0867795,-0.033244
-0.0145416,-0.0481834
0.000550849,0.0181777
0.0147373,-0.0353911
0.0293377,-0.0697614
0.0810207,0.0657403
0.0924235,0.179299
0.0491805,0.0135761
0.013192,-0.0617223
-0.0753998,-0.0226158
-0.111095,0.0450399
-0.0513955,0.133421
-0.0691603,0.0427776
-0.0346465,-0.0189019
0.0332062,-0.0149653
0.0435448,-0.0123653
0.0414221,-0.0570492
0.0714775,-0.0893778
0.119201,-0.0688129
0.0478575,0.0726434
-0.105948,-0.0420122
-0.219126,-0.28102
-0.0878394,-0.154805
0.011779,-0.00902276
0.069508,0.0737645
0.196524,0.155667
0.168673,0.0576195
0.0596345,0.155355
0.0721461,0.154801
0.142275,0.0610455
0.135722,-0.0100779
0.121071,-0.0200881
-0.0779171,-0.155901
-0.206753,-0.00260137
-0.233147,0.0749606
-0.248758,0.0167997
-0.0751087,-0.00979965
0.0389409,-0.0257805
-0.0295776,-0.0978517
-0.0623295,-0.0429048
-0.0195502,0.113507
-0.0125681,0.0424522
-0.0421518,-0.0286121
-0.0872,-0.0515748
-0.0825393,-0.049295
-0.0187007,0.0724856
0.147697,0.194478
0.267669,0.058565
0.266454,0.190673
0.185968,-0.143766
0.14423,-0.316473
-0.0629348,-0.1718
-0.311041,-0.0762569
-0.193873,0.0866074
0.0630073,0.0440939
0.0033956,-0.0125325
-0.0394756,0.101923
-0.0453526,0.0827856
-0.0453495,0.0688597
-0.00794474,0.0965982
-0.103821,-0.0746061
-0.114999,-0.0763752
0.0109155,0.0815627
0.0784227,0.0855654
0.155523,-0.0130036
0.18202,-0.00456482
0.109681,0.0252491
-0.139072,0.0796148
-0.268703,0.256876
-0.127098,0.0704861
-7.49e-05,-0.137088
0.0838853,-0.0898087
0.129794,-0.0713459
0.0932351,-0.0794518
-0.0502353,-0.19794
-0.119666,-0.263873
-0.10143,-0.313622
-0.0511579,-0.204031
0.102708,0.0177252
0.307428,0.220407
0.350608,0.115872
0.131678,-0.000140845
-0.0773325,-0.0131364
-0.159383,0.0482014
-0.125123,0.0514719
-0.0588011,-0.0818006
0.0414063,0.121757
0.0864906,0.289773
0.126344,0.28492
-0.0165005,0.0377738
-0.224863,-0.11056
-0.233291,-0.200682
-0.0499757,-0.071624
0.0863421,0.0090337
0.176093,-0.0966214
0.0211313,-0.0970217
-0.254404,0.0390648
-0.373749,0.147305
-0.218053,-0.217785
0.04266,-0.210925
0.163291,-0.0523903
0.0860239,0.060258
0.113944,0.109219
0.222594,0.0964019
0.362099,0.22888
0.528764,0.35909
0.435541,0.137459
0.0868735,0.0301592
-0.348506,0.0454836
-0.487969,0.108843
-0.381953,0.0158256
-0.279258,-0.266312
-0.261519,-0.26081
-0.157622,-0.187729
-0.0377948,-0.0983311
-0.0324167,-0.0117686
0.0813331,0.0540775
0.188725,0.157984
0.187599,0.0356891
0.123327,0.0575346
-0.0281507,0.227042
-0.119929,0.0129476
-0.155878,-0.0387926
-0.144715,-0.0644869
-0.0914021,-0.0257212
0.0152778,-0.0808366
0.0971583,-0.232704
0.116875,-0.209814
0.0309615,-0.12408
0.16592,-0.0306
0.308529,0.12631
0.444813,0.113478
0.432132,0.112926
0.155,0.21086
-0.118366,-0.0345389
-0.261811,-0.149949
-0.440386,-0.00871908
-0.164362,0.0687253
0.038597,0.0927673
-0.157741,-0.0729499
-0.215569,-0.0234373
-0.149829,0.0453195
-0.141287,0.112954
-0.0990486,0.0263471
-0.0538661,-0.309709
0.0477786,-0.48902
0.211746,-0.482599
0.169648,-0.376944
-0.0857696,-0.119021
-0.254967,0.282748
-0.190461,0.427058
-0.0395068,0.552144
0.0580495,0.262991
0.105134,-0.199611
0.239312,-0.206738
0.553872,-0.0814186
0.730951,0.250037
0.410181,0.151758
-0.20434,0.338037
-0.396253,0.47292
-0.0151941,0.31428
0.262857,0.141861
0.0898792,0.0451175
-0.330856,-0.0800038
-0.428378,-0.0324225
-0.335887,-0.0763992
-0.140751,-0.0960955
0.0433904,-0.0647471
0.111573,-0.0627015
-0.0482811,0.0469278
-0.353172,-0.0713954
-0.336116,-0.184526
-0.181216,-0.496204
-0.00350015,-0.364083
0.269242,-0.186896
0.437445,-0.0551265
0.357762,-0.132827
-0.0387791,-0.168479
-0.287498,-0.109674
-0.137891,0.0358122
-0.0462559,0.14183
-0.0306719,0.177452
0.0563988,0.335192
0.0302798,0.286154
0.0498992,0.0813509
0.0810606,-0.301915
0.225269,-0.406571
0.214628,-0.20825
0.0130009,0.052475
0.0294637,0.375255
0.102941,0.389948
0.220542,0.342883
0.24631,0.294627
0.116905,0.0757957
-0.113863,-0.15455
-0.383002,-0.206855
-0.360687,-0.0409163
-0.0706867,-0.0201007
0.0667627,0.00196335
0.0111355,0.0482678
-0.173773,-0.0649652
-0.168553,-0.329225
-0.0157579,-0.478195
-0.00705328,-0.484803
-0.219668,-0.145288
-0.166315,0.0886816
-0.0142994,0.0811752
0.0400753,0.294424
0.0285372,0.616037
-0.136772,0.549767
-0.0189445,0.327125
0.117035,0.233755
0.199752,0.00995817
0.332894,-0.279754
0.218163,-0.168802
0.0728889,-0.0587465
-0.0671178,0.110352
-0.206948,0.0646716
-0.0803459,-0.0950954
0.30604,-0.0427467
0.316528,0.000253678
-0.034067,0.00067051
-0.331654,-0.200301
-0.350371,-0.245885
-0.0292483,-0.242575
0.167604,-0.32793
0.397395,-0.202962
0.630154,-0.151931
0.621687,-0.346238
-0.0998407,-0.334914
-0.75269,-0.289084
-0.644039,-0.13239
-0.181179,0.170534
-0.032461,0.578416
-0.0456743,0.99628
-0.115049,1.06199
-0.199987,0.50061
-0.0695786,0.00756879
0.161412,-0.211323
0.216761,-0.423883
-0.00283071,-0.649015
-0.198937,-0.536681
-0.237201,-0.295989
-0.0525948,-0.428625
-0.124842,-0.589337
-0.0523995,-0.33119
0.271353,0.272793
0.486467,0.643419
0.492258,0.690255
0.3133,0.587593
0.0109688,0.612156
-0.276672,0.452993
-0.136463,0.104054
0.0889476,-0.196324
-0.0508033,-0.323159
-0.32449,-0.294161
-0.221989,-0.174468
-0.0815656,0.0220896
-0.141313,0.230183
-0.23365,0.265851
-0.186785,0.140358
-0.0544795,0.0652218
0.232356,-0.267049
0.332669,-0.348809
0.105284,-0.18909
-0.111812,0.16599
0.025194,0.120346
0.288223,-0.0489147
0.614359,-0.194708
0.738543,-0.259832
0.389098,-0.195268
-0.267893,-0.00308209
-0.571304,0.155776
-0.236639,0.147721
-0.159594,0.0539072
-0.199887,-0.0186365
-0.124908,-0.0345379
0.00897913,-0.0618342
0.0655918,-0.049445
0.00698384,-0.180099
-0.0560983,-0.277287
-0.123749,-0.205768
-0.188251,-0.16463
-0.0831754,-0.298602
0.045382,0.0991171
-0.155394,0.0758008
-0.215678,0.0772467
-0.147433,0.0600014
-0.00102186,0.108372
0.0265911,0.184906
0.0361996,0.282962
0.0742055,0.276982
0.172159,0.27179
0.182554,0.215208
0.0749745,0.0740051
0.0191324,-0.00881995
-0.0469832,-0.0185995
-0.189837,-0.0445
-0.0179872,-0.125433
0.20803,-0.165354
0.272848,-0.13553
0.0745908,-0.0819719
-0.184531,-0.0867874
-0.0679947,-0.151744
0.179001,-0.0667041
0.0729149,-0.0445436
-0.0701513,0.0676499
-0.0542746,0.0493975
0.019978,-0.122613
0.0495584,-0.278013
0.00742527,-0.46733
-0.105261,-0.254352
-0.179172,0.120357
-0.088192,0.328954
0.0712163,0.423445
0.086669,0.288643
0.098439,0.237391
0.212053,0.150145
0.230722,0.0432569
0.13498,-0.0611659
-0.104339,-0.0959557
-0.322327,0.0739672
-0.263696,0.131487
-0.161641,0.0424738
-0.0759536,-0.0676565
-0.0573188,-0.105019
-0.0376416,-0.0462508
0.12596,0.233476
0.403829,0.295572
0.499501,-0.0221661
0.312101,0.0341266
-0.133501,-0.0235352
-0.539794,-0.184807
-0.448313,-0.262682
-0.200507,-0.244825
-0.0125786,-0.0505567
0.180329,0.00158378
0.332816,-0.0980017
0.257156,-0.0927637
0.000619375,-0.0434765
-0.252687,0.0754913
-0.25133,0.129826
-0.173199,0.150195
-0.0926668,0.129464
-0.0332568,0.0541593
-0.0156114,0.0204735
-0.0113943,-0.00443282
-0.00182046,-0.0425323
0.0630611,-0.0993895
0.182944,-0.121015
0.220612,-0.050947
0.271344,-0.075472
0.168607,-0.171943
0.0316426,-0.0499089
-0.15318,0.0656717
-0.125129,0.158196
0.0364218,0.0948659
0.0201411,0.00326906
-0.0470285,0.0693704
-0.0658711,0.0693402
-0.0762364,0.0841844
-0.0706339,0.0795248
-0.111178,-0.107128
-0.106814,-0.104864
0.0777805,0.00578812
0.152957,-0.0279377
0.104009,-0.110672
-0.0679003,-0.128634
-0.166735,-0.044363
-0.124228,0.0186763
-0.0863623,-0.00413955
-0.0277176,-0.0171419
0.101745,-0.0806786
0.129357,-0.100271
0.0750409,0.0124917
0.0549026,0.105536
0.0184387,0.163741
0.0372664,0.191154
0.0602356,0.170059
0.0259252,0.103701
0.0442532,0.0131951
0.0344401,-0.0413202
0.00110811,-0.0294553
-0.0864402,-0.00570406
-0.132749,-0.0607578
-0.16189,-0.107492
-0.122873,-0.126737
-0.033349,-0.0928591
0.0535144,-0.0686446
0.141289,0.0242453
0.114808,0.150212
0.0121769,-0.000121761
-0.0783004,-0.0381206
-0.0426226,0.0297926
0.0318638,0.12729
0.000790034,0.0449072
-0.0253772,-0.0753732
0.143783,-0.127891
0.355257,-0.164937
0.330316,-0.138237
0.134782,-0.0521711
-0.046701,-0.124611
-0.231531,0.212566
-0.518479,0.267886
-0.2723,0.169248
-0.0780246,0.0409864
-0.00260949,-0.036011
0.0612891,-0.0527887
0.0830738,-0.099285
0.0805033,-0.0467156
0.00814966,-0.00520504
-0.088711,0.0194647
-0.118401,0.0135483
-0.0505305,-0.0377382
0.0235582,-0.00966454
0.0719617,0.13965
0.16266,0.180283
0.187526,0.0614969
0.114104,0.00567412
-0.0226642,0.010118
-0.104307,-0.0215627
-0.0838812,0.00294299
-0.0791605,0.0176596
-0.0684988,0.0396988
-0.0479907,0.0424559
-0.0260269,-0.138048
0.0165659,-0.216965
0.0512396,-0.130079
-0.0252585,-0.17531
-0.130159,-0.0584619
-0.0898624,0.208862
0.0939575,0.169001
0.185,0.0063804
0.148716,-0.00510253
0.0790822,-0.0229489
0.0573073,-0.0972481
0.0773573,-0.0783508
0.0623419,-0.0211887
0.0297932,-0.0756866
0.0680441,-0.0652913
0.0693325,-0.0654519
-0.000171129,0.0541127
-0.115494,0.129654
-0.145214,0.177077
-0.162313,0.1743
-0.124113,0.114106
-0.0750049,0.108526
-0.0996819,0.0172266
-0.179717,-0.0414059
-0.166942,-0.0561759
-0.0653729,-0.101633
0.0682562,-0.16914
0.142805,-0.127209
0.157735,-0.0927425
0.110499,-0.0543976
0.106099,0.0780286
0.0957047,0.127379
0.26009,-0.0270969
0.417712,-0.050311
0.285915,0.0328908
-0.0915232,0.044371
-0.34937,0.145415
-0.395657,0.136799
-0.28269,0.00753063
-0.102263,-0.00928469
-0.0170029,-0.0116428
-0.0447885,-0.0823144
-0.000320252,-0.140591
0.0520044,-0.127642
0.119814,-0.0539149
0.138231,-0.0859364
0.0182192,-0.00375067
-0.0910546,0.106634
-0.144147,0.0933878
-0.0254905,0.104292
0.115479,0.10697
0.109557,0.0377014
0.0224729,-0.00775534
-0.0627265,-0.02477
-0.0755842,-0.0200183
-0.00475837,-0.0607611
-0.0664183,-0.0872428
-0.0520992,-0.0358888
0.0924739,0.0550141
0.159572,0.0953198
0.0966499,0.137935
0.0112002,0.0108953
-0.110193,-0.123667
-0.0590869,-0.0431479
0.00120912,-0.0177995
-0.0011216,-0.0562198
-0.0360064,-0.0544035
-0.0654066,0.0122832
-0.0309708,0.0523767
0.0121319,0.125938
0.025459,0.04566
0.0500777,-0.0445397
0.0827889,-0.031059
0.0330036,-0.0811032
-0.0244212,-0.0853001
0.0131756,-0.0245113
0.0975179,0.120517
0.0649399,0.033696
-0.0225496,-0.0521547
-0.0272501,-0.136802
0.00858312,-0.252824
-0.0734336,-0.139075
-0.0663205,0.0960147
-0.0408854,0.15564
-0.0360338,0.12882
0.0507867,0.11392
0.183705,0.110846
0.213437,0.104222
0.103795,0.0805717
-0.168907,0.0672113
-0.27532,-0.0342141
-0.0918879,-0.0939788
-0.00403001,-0.0379325
-0.091857,-0.105379
-0.137749,-0.0396538
-0.0445997,0.00127274
0.0519978,0.0265991
0.020209,0.0409217
-0.0143923,0.0209713
-0.00347988,-0.017418
0.0353504,-0.0479018
0.0711254,-0.0803943
0.0814915,-0.0848409
0.109875,-0.0991799
0.0873673,-0.0385649
0.0155894,0.0380247
-0.0667592,0.0337463
-0.066723,0.0117288
-0.0171483,-0.0224204
-0.0397447,-0.00792752
-0.0181145,0.0783637
0.0196168,0.121422
0.00250911,0.0193238
-0.0169119,0.0141361
0.0253265,0.0152023
0.0482633,0.0788301
0.0206431,0.00387035
0.0216891,-0.0426013
0.0186095,-0.00878608
0.00536735,-0.0552677
-0.0181095,-0.129005
-0.037991,0.00245363
-0.0200653,0.010333
-0.00360432,0.00857271
-0.0136484,0.0528104
-0.00209439,-0.0217561
0.00638319,-0.0571794
0.00255229,-0.017874
0.00927627,0.0371387
-0.0131548,-0.0319589
-0.039014,-0.0424019
0.000139623,0.0687264
0.0799777,0.0532341
0.100795,0.0740024
0.0744652,0.128966
-0.0263694,0.0740807
-0.0719182,-0.0207275
-0.069219,-0.0828828
-0.0888326,-0.0648485
-0.0180684,-0.0392774
0.0745186,-0.0240635
0.105208,-0.0181773
0.0250482,-0.0112558
-0.0719066,0.00875064
-0.0232263,0.0183007
0.129275,-0.0155661
0.0965844,0.0103647
-0.0388876,0.130457
-0.150908,0.0511844
-0.118423,-0.0723062
-0.0280437,-0.0774222
0.0454892,-0.0906483
0.0296659,-0.056207
-0.0263594,0.119534
-0.0415173,0.114919
-0.0419185,0.0444054
-0.0251259,-0.0205127
0.0452571,-0.0242353
0.0766713,0.00893207
0.097406,-0.0063092
0.114478,-0.0386871
0.0648038,-0.0859698
-0.00773982,-0.0786832
-0.0973915,-0.0572294
-0.135845,-0.0282865
-0.111004,-0.00972794
-0.0794005,0.00831846
-0.0353326,0.0630997
-0.0102284,0.0950732
0.0309084,0.075053
0.0805857,0.0191342
0.0398975,0.00146838
0.0118019,-0.00266406
0.00453276,0.00192195
-0.00890887,0.0122284
-0.0136056,-0.012938
-0.00332706,-0.046402
0.0311943,-0.0226441
0.0729311,0.00612287
0.0339877,-0.0225954
-0.0223983,-0.0424288
-0.0432019,-0.0684443
-0.031313,-0.0954139
-0.00381438,0.0365342
0.00697156,0.0341462
-0.0147474,0.0765357
-0.0389001,0.146439
-0.0277398,0.0101357
0.0285853,0.00754333
0.0692861,0.0201814
0.0429475,-0.0560189
0.00913551,-0.0248777
0.00654438,-0.0297332
0.0775099,-0.031
0.121402,0.0348023
0.121471,0.0816272
0.118505,0.0755175
0.00602756,0.0234354
-0.18059,-0.0721969
-0.178329,-0.137466
-0.137436,-0.178022
-0.000797936,-0.0935045
0.0315039,-0.0173534
-0.0344822,0.0479268
-0.0955688,0.116279
-0.154557,0.0935423
-0.14775,0.0240078
-0.0754239,-0.00156144
0.0390788,0.0212483
0.118518,0.0519871
0.120148,0.00617166
0.112002,0.00841517
0.0472061,0.00635688
0.0225667,-0.0744538
-0.0237622,-0.0514917
0.00805609,0.0284902
0.079702,0.0463505
0.138401,-0.021822
0.157614,0.0279556
0.079069,0.0148576
-0.0402105,-0.0107528
-0.141428,-0.0102054
-0.131804,0.0276334
-0.0753666,-5.53e-05
-0.0843643,-0.124259
-0.0749904,-0.0562715
-0.0314973,0.0316509
0.0105354,0.0553392
0.0175093,0.0809393
0.0157241,0.0596972
0.0643217,0.0289082
0.0836587,0.00532687
0.0714834,-0.0062816
-0.0377932,-0.0344119
-0.0744489,0.00560513
-0.0463182,0.0241534
-0.0209964,-0.0204418
0.000377492,-0.0500472
0.0200046,0.00791822
0.0592,0.0260474
0.0497083,-0.0146124
0.0147139,-0.036532
-0.0128802,-0.0435445
-0.0236061,-0.0477648
-0.0314519,-0.0506318
-0.062398,-0.0446643
-0.102258,-0.0150675
-0.103501,0.0552806
0.00173721,0.0877406
0.109791,0.0173922
0.185795,0.00188441
0.151212,0.0183946
0.0479628,-0.00187255
-0.00789413,-0.0408606
-0.0223971,-0.0350491
-0.018406,0.070911
-0.00514238,0.0750201
0.0178169,0.00608838
-0.00274956,0.0025347
-0.0360156,-0.040249
-0.092719,-0.0829634
-0.100456,-0.0458252
-0.0249017,0.0691772
0.0106304,0.0810312
0.0284625,0.0111542
0.0378706,0.0193391
0.0673022,-0.042362
0.0625911,-0.0439509
0.0122205,-0.114686
-0.0154327,-0.120444
-0.0185283,-0.00789332
-0.0482197,0.134984
-0.126948,0.0829386
-0.171444,0.0852372
-0.127712,0.0523758
-0.0527222,-0.0171578
0.0114899,-0.026582
0.0695529,-0.0463137
0.0740991,-0.0648779
0.0739322,-0.0678409
0.0558756,-0.0116195
0.0267458,0.0283271
0.0413463,0.0228318
0.0730194,0.0537502
0.126533,0.0556308
0.149385,0.0860287
0.0391647,0.160815
-0.0859424,0.00858416
-0.0613229,-0.142861
-0.0269046,-0.081947
0.0101214,-0.0705483
-0.0220254,-0.0840141
-0.00501906,-0.0434031
-0.0017074,0.00303178
-0.0378756,0.0282818
-0.0794621,0.0748554
-0.0824021,0.0785351
-0.0329806,0.06471
0.0695647,0.0200967
0.0881632,-0.0127725
0.0333561,-0.0280679
-0.0627152,-0.0434083
-0.132499,-0.0535573
-0.0683369,-0.0713956
0.0251327,0.0120586
0.0813339,-0.00578636
0.102432,-0.0778623
0.0787154,-0.133851
0.00209054,-0.100625
-0.00728994,-0.00939474
-0.0447878,0.0421381
-0.0838,-0.0157319
-0.0867984,0.0498661
-0.0389502,0.20405
-0.0152463,0.189626
0.0242505,0.14556
0.0735429,0.147845
0.0718444,-0.0731956
0.0181126,-0.181599
-0.0622263,-0.0279216
-0.083875,0.0213655
-0.0717416,-0.0580214
0.0100905,-0.0896752
0.0748568,-0.0399644
0.0754788,-0.00234234
0.0332772,0.0153891
0.00992253,0.0320449
0.0174996,0.0210971
0.000862095,0.0261424
-0.0153822,0.00927607
0.0090823,0.0140414
0.0241428,0.0131125
-0.00585803,-0.0331031
0.00223107,-0.00979041
0.0332774,-0.0240706
0.0219777,0.0215291
-0.000611699,0.0346732
-0.0239783,-0.0762755
0.0341671,-0.0956189
0.0392687,-0.0435526
-0.0324136,0.0798861
-0.10538,0.180121
-0.0505414,0.0325782
0.0016962,-0.00968629
-0.0199078,0.0197756
-0.0544253,0.0255589
-0.0476572,-0.0234528
-0.0178264,-0.0545699
0.0791816,-0.0475346
0.174946,-0.0447007
0.140493,-0.0446242
0.0391627,-0.0195047
-0.0852076,-0.0590336
-0.104944,0.00444271
-0.0802034,0.113332
-0.0240759,0.0670319
0.0579818,-0.0260321
0.0652667,-0.136995
0.00684943,-0.101546
-0.0259636,-0.0279976
-0.0555813,0.0566608
-0.0530656,0.0981206
-0.0276922,0.123532
0.00568056,0.0639366
0.0279289,0.00922759
0.0107418,0.0254471
0.00680937,-0.000153882
0.0138412,-0.023694
0.0222269,-0.0419556
0.0171376,-0.0102064
-0.00520661,-0.000146961
-0.0410972,-0.0151694
-0.0882165,-0.0417069
-0.0760329,-0.00681894
-0.0223196,0.0122008
-0.00164744,-0.0415269
0.0205924,-0.0410149
0.032907,-0.0768236
-0.0091846,-0.00162414
-0.0218968,-0.0396453
-0.0081771,-0.0283033
0.0361056,0.0173533
0.0710205,0.0445299
0.0536718,0.0705836
0.017487,0.0577427
0.00972136,0.0834425
0.0278715,0.0407128
0.0357789,0.0443025
0.0328275,0.0227058
0.0430282,-0.0856413
0.0302794,-0.0850432
-0.0148883,-0.0552192
-0.105451,0.00549074
-0.105762,-0.0141558
-0.07297,-0.0827854
-0.00463479,0.0032141
0.0567003,0.0218212
0.0586006,-0.0402801
0.000222537,-0.00448671
0.0153524,0.0469035
0.0865666,0.138397
0.122123,0.101691
0.129677,0.0293739
0.0904343,0.0032614
-0.0261961,-0.00547186
-0.134735,0.00726108
-0.12842,0.0385543
-0.0893063,0.0503173
-0.0486643,-0.00833535
-0.0324965,-0.0536153
-0.0349662,-0.0274114
-0.0593166,-0.0653944
-0.0468949,-0.0658575
-0.0162221,-0.0634048
-0.00671868,-0.0837729
0.0433768,-0.0612137
0.0566474,-0.0301659
0.0154482,-0.062546
-0.0295824,0.0783536
-0.0314378,0.111104
0.0219445,0.0638998
0.0660311,0.00481833
0.0590477,-0.0270926
0.0496425,-0.026653
0.0614263,-0.0217003
0.048122,0.0400314
0.00604017,0.115122
-0.0450852,0.12368
-0.0722536,0.0371397
-0.041936,0.0181894
-0.043293,0.00153171
-0.0408251,-0.0233593
-0.0171988,-0.0560023
0.00367722,-0.0893492
0.000819397,-0.12906
0.0291378,-0.230103
0.0682976,-0.16007
0.0392112,-0.0685487
0.000548838,0.0797588
-0.0597879,0.207308
-0.0521435,0.184398
-0.0180101,0.0721415
0.0177666,0.00463396
0.0172533,0.0491898
-0.0123911,0.0687154
-0.0349174,-0.000900417
-0.0225037,0.0310782
0.00602648,0.081983
0.0446468,0.02225
0.0366971,-0.022884
-0.0163791,0.000809527
-0.0171395,-0.000247704
0.0369822,-0.0221821
0.0944676,-0.0623177
0.0683812,-0.128298
-0.00399688,-0.185518
-0.0799686,-0.142455
-0.0799312,-0.0673918
-0.0282176,0.0205286
0.0356141,0.0524932
0.0902222,0.136497
0.0788689,0.134492
0.0565747,-0.0014039
0.0518902,0.0103703
0.0175809,0.0313763
-0.0337643,0.0836904
-0.106382,0.0432995
-0.158324,-0.0220639
-0.0957329,0.00400011
-0.0332362,0.0213305
-0.0151178,-0.000891724
0.00406903,-0.0388039
0.0358665,-0.0346867
0.0562167,-0.0430371
0.0332239,-0.0566899
-0.014565,-0.0521193
-0.0301929,-0.023871
-0.0143142,-0.0663489
0.0103304,-0.0316164
0.0343863,0.0632458
0.00917595,0.0828993
-0.0257668,0.0226731
-0.0105151,-0.00332923
0.0531906,-0.0645868
0.0704004,-0.0183775
0.0476637,-0.040367
-0.00643229,-0.0818096
-0.0725926,-0.077335
-0.0481372,0.02631
-0.0271525,0.161444
-0.00645523,0.142586
0.0477761,0.0776627
0.064094,0.0563672
-0.010144,0.0209452
-0.0568464,-0.0442474
-0.011448,-0.0357557
0.0498451,-0.0517269
0.0408944,-0.0521487
0.00876781,-0.016574
-0.0366662,0.0338472
-0.060118,0.0385169
-0.0601822,0.0451636
-0.0633498,-0.0207891
-0.0165646,-0.0691877
0.0440878,-0.0451922
0.0942457,0.028267
0.103027,0.0618605
0.0425147,0.0366225
-0.0459258,0.0266863
-0.0679868,-0.0479449
-0.0206785,-0.0850241
0.0128121,-0.16689
0.0335707,-0.166015
0.0381969,-0.057989
0.0576133,-0.012929
0.0615749,0.0509673
0.0221708,0.12193
-0.0417919,0.112969
-0.0913972,0.0753124
-0.117823,0.0823316
-0.112815,0.0919047
-0.0469565,0.065465
0.00659514,0.00902468
0.0694681,0.023291
0.0853386,-0.000667036
0.0551581,-0.0150266
0.026181,0.0762245
-0.00509716,0.0630412
-0.00864591,-0.124091
0.0276813,-0.0970849
0.0688298,-0.103949
0.0211672,-0.115626
-0.100043,-0.070608
-0.107019,0.0256141
-0.0334817,0.0623056
-0.00279624,-0.005113
-0.0214135,0.0732533
-0.0316828,0.0892162
0.0301009,0.000531461
0.0456256,0.0124846
0.0388541,-0.0102734
0.0710513,-0.0365331
0.155324,-0.0658971
0.184009,0.0321469
0.0378913,0.00229602
-0.115403,-0.0543205
-0.197764,0.0169158
-0.161038,-0.015244
-0.0585627,-0.0526141
-0.0127252,0.00438321
-0.0195523,0.0853963
-0.0288565,0.0808844
-0.020519,0.00919353
0.000508021,-0.00576664
0.0502507,-0.0145291
0.0753053,-0.048016
0.0791145,-0.0762494
0.0347581,-0.0204463
-0.0269061,-0.0282122
-0.0370896,-0.033261
-0.0200768,0.00565491
-0.0135622,-0.0315637
0.0298428,0.0298674
0.0503547,0.0728154
0.0522459,0.0782314
0.054775,0.0693395
0.0221428,0.0534417
-0.0102203,-0.0248668
-0.0204543,0.000652398
-0.0369267,0.0396976
-0.053348,0.00707089
-0.0376838,-0.0523297
0.00187966,-0.017272
0.00663431,0.0602363
-0.0145982,-0.00833452
-0.0164955,-0.130875
-0.00968656,-0.189755
-0.0311959,-0.169883
-0.0182962,-0.0164842
0.0106895,0.0731084
0.0248178,0.0898924
0.0277662,0.101022
0.0141395,0.0237659
0.019382,-0.0154259
0.0121795,-0.0177759
-0.00686154,0.0228805
-0.0381803,0.053101
-0.0600936,0.0956711
0.00199063,0.0872965
0.0150859,0.0644674
-0.000229513,0.0251973
-0.0121185,-0.037562
-0.0205397,-0.0226907
-0.00545054,-0.0103557
0.0289349,0.000677226
0.051147,-0.0264858
0.0377053,-0.0525917
-0.0134673,-0.0230302
0.0168044,-0.017045
0.0875355,-0.0181959
0.100199,-0.0271322
0.0201289,-0.0539165
-0.0657711,-0.0586482
-0.070076,0.00994686
-0.0846365,-0.000619538
-0.0445814,-0.0701189
-0.0122494,0.0378632
0.0351076,0.0420236
0.087077,0.0394669
0.0645531,-0.0458744
-0.00721702,-0.120014
-0.0343555,-0.0436232
0.000705645,0.0526866
0.0210861,0.0654757
0.000565204,0.0712076
-0.0600364,0.160127
-0.0921102,0.103623
-0.0697558,0.0227293
-0.0102557,0.0211802
0.0397238,-0.0625782
0.0448305,-0.0304029
0.0330045,-0.0108395
0.00822202,-0.00838633
0.00251332,-0.0315608
0.0605747,-0.0725572
0.0236325,-0.081371
-0.0365274,-0.0554256
-0.0489718,-0.0270636
-0.0431679,-0.0140493
-0.0326457,-0.00419388
0.0039418,0.0417966
0.0403453,0.0241863
0.063356,0.0726156
0.0502512,0.0839968
-0.0163137,0.0204118
-0.0375564,0.00646347
-0.04264,-0.0152536
-0.00844054,-0.0388994
0.00354578,-0.0288785
-0.0354754,0.00480527
-0.0582644,0.0257141
-0.0394615,0.0269045
0.00131432,0.0347083
0.0159607,0.0222697
0.0208184,-0.0439874
0.0160976,-0.0786948
0.015419,-0.0341411
0.0241046,-0.0276778
0.0289826,-0.0330308
0.0169833,-0.00572701
-0.00680131,0.0640911
-0.0081692,0.0546941
-0.00109658,0.00953897
0.00595284,-0.0143583
-0.00180361,-0.0212383
0.0149718,-0.0075675
0.07859,0.0182886
0.0570696,0.0376045
-0.0246342,0.0215452
-0.0946466,-0.0180758
-0.0760464,-1.21e-05
-0.0496905,0.00156905
-0.0458617,0.00456941
-0.0148147,-0.00258073
0.0478374,0.00976013
0.0989012,0.00191919
0.114287,0.0346946
0.103197,-0.0458571
0.0575806,-0.114789
0.0811053,-0.0827535
0.117693,-0.00632793
0.0540095,0.0364663
-0.0593927,0.0363686
-0.139685,0.00194731
-0.152998,-0.0142188
-0.128432,-0.045127
-0.0892661,-0.0909135
-0.0515623,-0.080931
-0.0391686,0.0436034
-0.0558671,0.122759
-0.0581587,0.0943029
-0.024923,0.0493741
0.0239431,-0.0226764
0.0684664,-0.0306797
0.0736964,0.0863905
0.0294348,0.0501304
-0.0118947,0.0018919
-0.0232532,0.0257105
-0.00804032,0.0407303
0.025049,0.0270535
0.0695172,0.0361154
0.0713954,0.0199828
0.0491206,-0.00119382
0.012501,-0.0289712
0.0130257,-0.0296769
0.074425,0.014317
0.0564992,0.0204057
-0.0282782,-0.108545
-0.0793512,-0.127209
-0.0768279,-0.0382996
-0.0874641,0.0181943
-0.0737241,-0.0130385
-0.0654278,-0.0243936
-0.0380985,-0.0355188
0.00408765,0.0265868
0.0325803,0.0417991
0.057358,0.017654
0.0802961,0.01847
0.113121,0.0769283
0.0802426,0.0799668
0.0502468,0.0352453
0.0328554,-0.0756679
-0.0266977,-0.0823719
-0.0898149,-0.0220561
-0.114292,-0.0610918
-0.0648241,-0.121824
-0.0312736,-0.106913
-0.0209105,-0.107953
0.0043726,-0.0581905
0.0603759,0.0715785
0.104004,0.156426
0.0876543,0.142754
0.0239065,0.102891
-0.0145293,0.0598745
0.00428202,0.0413835
-0.00591305,0.0338167
-0.00208062,0.0345759
0.0037115,0.0315391
-0.0162793,0.0322169
-0.0679424,0.033349
-0.0823134,0.0156103
-0.0664324,-0.000762139
-0.0710805,-0.0274198
-0.047756,-0.111506
-0.0285122,-0.129828
0.00387183,-0.0242868
0.0441908,0.0428054
0.0729872,-0.0289782
0.0709927,-0.0866692
0.0677052,-0.112206
0.0461774,-0.0644637
0.0143561,0.0215409
0.0316337,0.058779
0.00900107,0.073456
-0.0337281,0.0898713
-0.0287306,0.1018
-0.023673,0.0378868
-0.0346266,-0.0299417
0.00857382,-0.0319314
0.0507131,-0.029729
0.0230957,-0.000478586
-0.00487216,0.0110722
-0.00115437,0.00622275
-0.0125955,0.0087895
-0.000455402,-0.030506
-0.00220563,-0.0383365
0.00857507,0.00237995
-0.0283662,-0.037926
-0.100571,-0.0516013
-0.0747329,-0.0335849
-0.0081027,-0.00283307
0.00483313,0.0462898
0.0128607,0.0383549
-0.00221939,0.00950821
-0.0104626,-0.0141904
-0.000560636,0.0257875
-0.00552013,0.0268933
-0.0073529,0.0177512
0.0141252,0.0139516
0.0352686,-0.0216219
0.0255226,-0.0281094
-0.000470796,-0.0166656
0.0124982,-0.0129359
0.0238821,-0.0140825
0.0265561,0.072455
0.0649832,0.0998024
0.0757677,-0.00828156
0.0549494,-0.0485794
-0.0175166,-0.0364555
-0.0436257,-0.0261828
0.0159524,-0.0902791
0.0278751,-0.0586945
0.00222194,0.0397072
-0.0593208,0.0381768
-0.0834237,0.0011633
-0.0599338,0.0100568
-0.0457004,0.0071397
-0.0455844,-0.0661315
-0.0324326,-0.0367805
-0.018638,0.0525292
-0.00245221,0.0130257
0.0149332,-0.00981549
0.028831,-0.00723764
0.0165978,0.0306042
-0.00237721,0.0866893
0.0372612,0.0691887
0.0957748,0.0382269
0.104297,0.00911778
0.0556653,-0.00876169
0.00367203,-0.00629892
-0.049019,-0.00292644
-0.0783236,0.0254664
0.0144955,0.0288323
0.072859,-0.0356738
0.0718013,-0.0535346
0.0380233,-0.08323
-0.0173622,-0.00724086
-0.00529261,0.125981
-0.0495287,0.0783879
-0.033511,-0.0202401
-0.00823035,0.000113126
-0.0728646,-0.0701876
-0.129536,-0.113516
-0.0951835,-0.172189
-0.0297322,-0.244316
-0.0151512,-0.0740498
0.0152082,0.12339
0.0530706,0.169669
0.0488079,0.15327
0.0207345,0.138324
-0.0148036,0.0747587
-0.0284728,0.00372277
-0.00537526,-0.00415361
0.0266296,0.00210631
0.0448287,-0.0174714
0.0489138,0.00276815
0.028218,0.0118217
-0.016593,0.00205027
-0.0308415,-0.0342557
-0.0011604,-0.0451296
0.0137733,-0.027224
0.0085437,0.0363174
0.000314257,0.0276805
-0.00915663,-0.0253875
-0.0198127,-0.0391036
-0.00758626,-0.0314229
0.00992775,-0.0177732
0.0275444,0.00271944
0.0158463,-0.0171211
0.0138106,-0.0332702
0.0120498,-0.0432918
-0.0303172,-0.0467241
-0.0408653,-0.0240452
-0.0325623,-0.046712
-0.000574239,0.00529199
0.0405178,0.0242529
0.0855791,-0.0106292
0.0766955,0.0618148
0.0184509,0.0690864
-0.0306752,0.0665286
-0.00767042,0.0541264
0.0474948,0.0246694
0.0172819,0.0115937
-0.0517035,-0.00982501
-0.0487491,-0.0593877
-0.054274,0.0296377
-0.049607,0.032071
-0.0361334,-0.0275438
-0.0526555,-0.0328386
-0.0799534,0.00278568
-0.0321843,0.0415862
0.0253043,0.0480349
0.0588027,0.0015914
0.077594,0.028705
0.0515417,0.0375122
-0.0122471,-0.0170955
-0.0529432,-0.0911793
-0.00999008,-0.116333
0.0553918,-0.115479
0.0576363,-0.0852186
0.0271952,0.0278056
-0.0220132,0.0756069
-0.0666315,-0.0637693
-0.0291244,-0.0914591
-0.00247027,-0.0214653
-0.00230056,0.0787536
0.018315,0.113866
-0.00460982,0.089409
-0.00127353,0.0407271
0.0167347,0.00169108
-0.0163341,-0.0305142
-0.0212929,-0.0135383
0.029946,0.0467245
0.0869538,0.0734165
0.0628825,0.0272532
-0.014152,-0.000245485
-0.062806,-0.00615557
-0.0144413,0.0175527
0.0359159,0.0311213
0.0470042,-0.000541951
0.0262681,-0.00867506
0.0103827,-0.0312354
-0.01431,-0.0515884
-0.082921,0.0101172
-0.0650056,0.0516091
0.0175219,0.00295918
0.0433869,-0.0220894
0.0154025,-0.030268
-0.0258124,-0.0468965
-0.0341072,-0.0015643
-0.0238375,0.0201305
-0.0269825,-0.00362366
-0.0385989,-0.0421548
-0.021019,-0.027344
-0.00740144,-0.0505906
-0.0151386,-0.0498385
-0.0223969,-0.00976289
-0.0159076,0.0460561
0.0132003,0.0540941
0.0320546,0.0302956
0.0493866,0.00260342
0.0901517,-0.0363325
0.0873386,-0.053135
0.0363435,-0.0460092
0.00290014,-0.0199163
-0.0269167,0.0114883
-0.0312536,0.0292506
0.00707516,0.0587727
-0.00363373,0.111478
-0.0391759,0.0522982
-0.00888511,0.00237137
0.0411641,-0.00352708
0.0272867,-0.112089
-0.0112807,-0.189451
-0.00759085,-0.0728834
0.0152644,0.0650402
-0.0286966,0.0812866
-0.0555009,0.0540658
-0.0121881,0.0769458
0.0168269,0.0778542
0.00858028,0.0123075
-0.0349303,0.00261038
-0.0179321,-0.00583566
-0.00768783,-0.016758
-0.0413108,-0.00831283
-0.0334584,0.0258555
-0.00459415,0.031513
0.0172589,-0.0186974
0.0143069,-0.0647188
0.0659638,0.0156781
0.0796346,0.0416643
0.0326716,0.0302361
0.00010218,-0.00186729
0.0233591,-0.031312
0.01229,-0.0381589
-0.0806307,-0.0549087
-0.115309,-0.0608749
-0.0442824,-0.0761351
0.0081601,-0.0811478
0.02615,-0.0530684
0.0499676,0.0159139
0.0402949,0.0976739
0.00829205,0.14314
-0.0132568,0.135628
-0.0202251,-0.00966815
-0.0100277,-0.0796394
-0.0156987,-0.0946145
-0.0334352,-0.100817
-0.0453482,-0.0813264
-0.025771,0.00341466
-0.00646007,0.0748067
0.00792421,0.0289005
0.0388006,0.0779891
0.0515996,0.163865
0.0473559,0.084182
0.0512368,0.0329713
0.0683713,0.0137786
0.0584612,-0.02534
0.00363631,-0.042531
-0.0300574,-0.0156592
-0.0533856,0.00190526
-0.0817561,-0.00486182
-0.0448679,-0.0267083
-0.00714015,-0.0183772
-0.0112917,-0.00280865
-0.00983522,-0.0294424
0.0295278,-0.0563246
0.0627269,-0.121092
0.059138,-0.130116
0.0386299,-0.0331901
-0.000284443,0.117407
-0.0740674,0.0813362
-0.087981,0.0104493
-0.0520124,-3.23e-05
-0.0118367,0.0349562
0.0158822,0.0254037
0.0606988,-0.0247473
0.0880396,-0.0166378
0.0601428,0.01138
-0.00778498,0.0157379
-0.108455,0.0307544
-0.0744126,0.0674895
-0.005574,0.0114611
-0.00545534,-0.00293357
-0.0267758,0.00848098
-0.0209142,-0.0127959
0.00175785,-0.0417888
0.00732582,-0.0733255
0.0476061,-0.071332
0.113278,0.0154115
0.0922134,0.0447421
-0.0118477,-0.0180965
-0.109651,-0.0219303
-0.071809,0.0274043
-0.0373889,0.0369742
-0.0124427,0.0188777
0.0484724,-0.0013616
0.0485775,0.0107262
0.0281294,0.0227153
0.0159391,-0.00464843
-0.0193563,0.000505376
-0.0314941,-0.017772
-0.0157152,-0.0844297
-0.00902309,-0.131629
-0.0175373,-0.0677232
0.0216781,-0.0171498
0.0699304,0.00254792
0.0751903,0.0500346
0.0709339,0.0966299
-0.000927113,0.103918
-0.0657831,0.088174
-0.100287,0.0628251
-0.114143,0.0017421
-0.0490323,-0.0187531
0.00299024,-0.0180921
0.0182679,-0.0285389
0.031196,-0.0403932
0.0344163,-0.0509752
0.0538474,0.0233306
0.0836586,0.0938707
0.0592079,0.00295396
0.0165375,-0.0316956
0.0167255,0.045546
-0.00127948,0.0310342
-0.0612509,-0.0398848
-0.119529,-0.0832627
-0.106687,-0.132798
-0.0314527,-0.0768051
0.0284205,-0.0174243
0.0373033,0.0240955
0.0198637,0.0891776
0.0326161,0.0832213
0.0624194,0.0851996
0.0675747,0.0335676
0.0805652,-0.0197833
0.101783,-0.014558
0.00610291,0.033986
-0.113329,0.0490733
-0.159849,0.0351289
-0.132408,-0.0123507
-0.0555341,-0.0623463
-0.0029813,-0.0684208
-0.00556569,-0.0266388
0.013466,-0.0225925
0.0474247,-0.0337589
0.0584509,0.0155281
0.0387787,0.0337253
0.010684,0.0171495
-0.0177466,-0.0234476
-0.0102987,-0.0362082
-0.0154291,0.0421514
-0.0274303,0.076504
-0.00679046,0.0516396
0.015395,0.00457219
0.0236599,0.0170232
0.0143895,0.00548795
-0.017125,-0.0130413
-0.0138534,-0.0531194
0.020526,-0.0777442
0.0191796,-0.0805015
0.0337551,0.0153462
0.0392503,-0.0408265
0.0199121,-0.117029
0.00456004,-0.0960873
0.00063358,-0.0359035
-0.0505167,0.0394722
-0.0756026,0.114294
-0.027382,0.133305
0.0297192,0.0787088
0.0904526,0.00157285
0.0748796,-0.037514
-0.00763299,-0.0429168
-0.0921993,0.0231013
-0.0834663,0.0803853
-0.0426853,-0.00734084
0.00806438,-0.0455718
0.0946511,-0.0477677
0.171785,-0.0106641
0.116489,0.0126906
0.0111604,0.0432094
-0.0956195,0.0365198
-0.127331,0.0253726
-0.0588502,0.00322132
-0.0435151,-0.000136439
-0.0587099,0.00981256
-0.0374486,-0.00124088
0.0284378,0.0132214
0.0741958,0.0129546
0.0561429,-0.0151045
0.025361,-0.0347887
-0.0144679,-0.0435989
-0.0289613,-0.0573002
-0.00782836,-0.0664267
-0.0170097,-0.0419892
-0.0275265,0.0673733
-0.0157659,0.0710341
-0.0189593,0.0111361
0.00732821,0.0632861
-0.0134214,0.0630001
-0.00252173,-0.00579456
0.011416,-0.0265055
0.0708758,-0.015754
0.12352,0.0226639
0.0541032,0.0231968
-0.0273956,-0.00985759
-0.0712832,-0.00806263
-0.0222697,-0.0212228
-0.0176549,-0.0658749
-0.0258237,-0.0164339
-0.00418968,-0.0723338
0.0211392,-0.129876
0.020876,-0.0569036
0.0115517,0.0319021
-0.00870989,0.0270175
-0.0410437,0.0117959
-0.0483514,0.0715689
-0.0451343,0.126241
-0.0218126,0.0458764
0.0365891,0.0228516
0.0488914,0.0123839
0.00842426,0.00639421
0.0237694,-0.00442588
0.0699706,-0.0246745
0.0568358,-0.0122692
-0.00739148,0.0170911
-0.0810615,0.0155766
-0.0141488,0.0385675
0.0238792,-0.0276202
-0.0484537,-0.036161
-0.0828614,-0.0198953
-0.0469686,-0.0529192
0.0124897,-0.0316211
0.016075,0.00673283
-0.00312668,-0.0297316
-0.0105402,-0.00755006
-0.0198397,0.0984355
-0.0249873,0.0410229
0.00569248,-0.0444705
0.0186679,-0.0500249
0.01655,-0.0351853
0.0310124,0.0101514
0.0416037,0.0421699
0.0399211,0.0176846
0.0301025,-0.00285634
0.0142298,0.00695728
-0.00606167,0.0128814
0.00366772,0.0311801
0.0279594,0.00454104
0.0728154,-0.0230126
0.0345757,0.0303955
-0.046352,0.0674172
-0.0567576,-0.0376815
-0.0671954,-0.0707253
-0.0793982,-0.0833645
-0.0322668,-0.0978162
0.0145495,-0.0725098
0.0178269,-0.0282185
0.0297844,-0.0062641
0.0484332,0.00516482
0.0758039,0.0610911
0.089997,0.128876
0.0643137,0.0539691
-0.0210678,-0.0121162
-0.0907592,0.0643428
-0.0946855,0.0908952
-0.0483172,0.0804825
-0.016154,0.0129093
-0.0308493,-0.0575619
-0.0308601,-0.0691901
-0.00978429,-0.0560489
0.0159762,0.028404
0.0316316,0.0298631
-0.00694563,0.00877853
-0.0219115,-0.0275116
0.0145411,-0.0361819
0.0402076,0.0309904
0.0337073,0.0351443
0.0524476,0.020847
0.0403233,0.0111242
0.025972,-0.0249394
-0.03247,-0.0389399
-0.0910231,-0.0329624
-0.0526564,-0.0488735
0.0133213,-0.0524409
0.0153767,-0.0245602
0.0169931,0.0689344
0.00525762,0.0556914
-0.00527864,0.0225656
0.00278037,-0.00271768
-0.0135572,-0.03825
-0.0352404,-0.0141472
-0.00313516,0.0197335
0.053954,0.012924
0.0290218,-0.0269887
-0.00658838,-0.0428454
0.00807638,-0.0250285
0.0516406,-0.00343604
0.0546374,-0.015005
0.0072495,0.000108868
-0.0288418,0.027384
-0.0557052,0.0324401
-0.0504275,0.0163352
-0.0493701,0.0107074
-0.0416097,0.02679
-0.0183747,0.0213595
-0.00528374,-0.025557
-0.00435008,-0.0634274
0.00521701,-0.0638029
0.0607487,-0.00227411
0.0787801,-0.00606954
0.0204867,-0.0445875
-0.0426886,-0.02113
-0.0624135,0.0460503
-0.0417066,0.0460843
0.00953013,0.0314614
0.0382553,0.0318944
0.0275106,0.032651
0.0240146,0.0283879
0.044379,-0.0254148
0.0711377,-0.0652257
0.067494,-0.014788
0.0377023,0.0482325
-0.0395138,0.0321396
-0.141197,0.00705227
-0.112408,0.0205439
-0.0439912,-0.00820129
-0.0108088,0.0075718
0.00127111,0.0252053
-0.00691324,0.0110139
-0.00946155,-0.0101314
0.00558141,-0.0192255
0.0193944,-0.0197221
0.0277265,-0.0426988
0.0262753,-0.0201411
0.0366695,-0.00389886
0.0271794,-0.010484
0.0256889,0.00331275
0.0196021,-0.0116453
0.00851965,-0.00718604
0.0645862,0.0154863
0.0259688,-0.00776296
-0.0405279,-0.0237533
-0.0540851,-0.0158586
-0.0619091,0.0405765
-0.0340612,0.0372013
-0.0144841,0.0247791
-0.00747765,0.0554626
-0.00294587,0.0079588
0.00210183,-0.00284881
0.00676054,0.0143224
0.0123724,0.00260517
0.012784,0.0183377
-0.0122814,0.0195087
0.0127471,-0.00447884
0.0626882,-0.033816
0.084938,-0.040965
0.0348112,-0.0251195
-0.0641309,-0.0501281
-0.0663244,0.00303045
-0.0306573,0.0599595
-0.058067,-0.0126413
-0.0298311,-0.0301041
0.0816511,-0.0226041
0.139631,-0.0454834
0.0740528,-0.0348622
-0.0356983,-0.0300346
-0.034801,-0.0262861
0.0318335,0.0131434
0.0493363,0.0342168
-0.00894333,0.034881
-0.102893,0.0174765
-0.0837516,0.0266898
-0.0446392,0.0508786
-0.0256127,0.0349116
-0.0265959,0.0207005
-0.0408252,0.011156
-0.0419006,0.0134784
-0.0468673,-0.0172765
-0.0309646,-0.0124586
0.0112329,-0.0132832
0.0580008,-0.02168
0.053929,-0.0121861
0.0451581,-0.00152915
0.0304262,0.00395051
0.00181529,0.00497884
0.00865683,0.0119436
0.0640923,0.0125928
0.115735,0.00584554
0.0552429,-0.0154469
-0.023568,-0.0163917
-0.0735791,-1.69e-05
-0.078158,-0.02525
-0.00627425,-0.0437774
0.0484006,0.0151504
0.0165915,0.0181615
-0.00735792,-0.0124041
-0.0211551,-0.0244304
-0.0302897,0.00401026
-0.00185649,-0.0265363
-0.000987236,-0.0293208
-0.00745174,-0.0128391
0.00471475,0.0250898
-0.0169188,0.0751814
-0.0529744,0.041448
-0.0647446,-0.0172939
-0.06525,0.00602759
-0.019935,0.0077784
0.0510334,0.0104655
0.0634791,0.0169625
0.0284159,0.00378691
0.025058,0.00551615
0.0192517,-0.00131321
-0.00291883,-0.0272529
-0.0103561,-0.0232375
-0.0103032,-0.00792669
-0.0237854,0.000174345
-0.0261284,-0.00151599
-0.0101894,-0.00724272
0.0347928,-0.00321631
0.0661566,0.0271456
0.142469,0.0165882
0.219578,0.00844328
0.103391,-0.0252484
-0.105834,-0.0210233
-0.24686,-0.00585225
-0.165445,0.0287358
-0.0475854,0.00390903
0.0136145,-0.0510346
0.0318147,-0.0535983
0.0250681,-0.049487
0.00936447,-0.00223395
-0.00346248,0.053739
-0.0160719,0.0357298
-0.0214642,0.0304688
-0.022783,0.0161819
-0.0192217,-0.000157274
-0.00805598,0.00114938
0.002962,0.0116068
0.00382891,0.00569111
0.00754937,0.00811958
0.0257608,0.0142846
0.0593274,0.0185416
0.0737184,0.00921725
0.0413462,-0.00421878
0.0217474,-0.0115009
0.0430849,-0.0153334
0.0151585,-0.0265448
-0.0529153,-0.029776
-0.0622472,-0.0054729
-0.0710304,-0.0245594
-0.0607514,-0.0222059
-0.045025,-0.0681085
-0.0325767,-0.0490479
-0.0165094,0.0359203
0.0101352,0.0692587
0.0543575,0.0494314
0.0654791,0.0894511
0.0655739,0.048272
0.0312846,-0.008648
-0.0106499,-0.0169915
-0.0187647,-0.0324118
0.00681878,-0.0116545
0.0266815,-0.0207125
0.0123642,-0.0456457
-0.0180877,0.00557982
-0.0153018,0.0317738
-0.0132954,0.0351492
-0.0103086,0.0265739
-0.0197736,0.0101221
-0.020454,-0.00087326
-0.0354596,-0.0222215
-0.0315733,-0.00467897
0.0121449,-0.00838738
0.0320786,-0.00787638
0.0141007,-0.00470601
-0.00245184,0.000470458
-0.00696159,0.00208441
0.0290458,-0.0168028
0.0689537,-0.00356828
0.0694863,-0.0180118
0.0360319,-0.0271345
-0.0401936,-0.0485484
-0.0653742,-0.0251157
-0.0425643,0.0038012
-0.0178505,0.0327865
-0.0193305,0.0371607
-0.0228878,0.0291749
-0.0169121,0.0238297
-0.0162275,-0.0175923
-0.015531,-0.0173819
-0.00113324,-0.0137143
0.0135286,0.00346305
0.0200548,0.0118707
0.00685995,-0.017342
0.00206282,0.0215632
0.00229144,0.0396112
0.00143969,-0.0013287
0.00443948,-0.0180796
0.0162957,0.00870007
0.00943426,0.00922383
-0.00579473,-0.00207488
-0.00767593,0.0124533
-0.00445424,0.015299
0.00408189,-0.00648147
-0.00213158,-0.00999187
-0.0153191,-0.0175768
-0.0234995,-0.0232494
0.00284549,-0.0135825
0.0236795,-0.00960339
0.0293994,-0.00194674
0.0265167,-0.00653826
0.0222746,-0.00656259
0.00978999,-0.000445498
-0.00156589,0.0110893
-0.0206199,0.0402036
-0.031464,0.021477
-0.024298,-0.0129227
0.000296194,-0.00105073
0.000568146,0.00426974
-0.0112478,-0.00125988
-0.00443771,-0.00662989
0.0104676,-0.0156434
0.0055467,-0.0198956
-0.0113317,0.0163603
-0.00650365,-0.0102958
0.000518925,-0.0371756
0.00696587,0.0212153
0.0247898,0.0206287
0.0314391,0.0287366
0.0235692,-0.00134351
0.00892981,-0.0399939
-0.0160442,-0.0507277
-0.0206643,-0.00770193
-0.00544255,0.010242
0.00454065,-0.00475899
0.000511004,0.0257118
-0.00803199,0.0510351
-0.0047687,0.00834721
-0.00939826,-0.000263825
-0.0282694,-0.0115216
-0.00942645,-0.0170794
0.00238168,-0.0103991
0.00507679,0.0302134
0.0322305,0.0390111
0.0480317,0.0291627
0.0137519,0.026777
-0.0281659,-0.0478508
-0.0492461,-0.048642
-0.0268423,-0.0210759
0.0331765,-0.044664
0.0423123,-0.00143115
0.0127823,0.050818
0.00044487,0.0500769
-0.00259344,0.0316859
-0.00995395,0.021509
-0.0184957,0.0279713
0.00872497,-0.0307941
0.0428067,-0.0293996
0.0465256,-0.0263377
0.0133733,-0.0218906
-0.0367001,-0.0100955
-0.0585667,0.00520845
-0.0794999,0.00256047
-0.0730312,-0.00384187
-0.00503412,0.000818778
0.0429518,0.00801216
0.0505234,-0.00391877
0.0604398,0.0152576
0.0548556,0.030578
0.0156175,0.0574219
-0.0266068,-0.00785532
-0.0376483,-0.0571486
-0.0636781,-0.0332469
-0.104421,-0.00224213
-0.0623202,-0.0152005
0.0348239,-0.0209889
0.0988421,-0.045917
0.0874074,-0.025642
0.0615099,0.0181115
0.033071,0.0238462
-0.00187826,0.0155296
-0.0373824,-0.0110299
-0.0334281,0.0213194
-0.0295833,0.0028485
-0.0215336,-0.000583781
-0.00935512,0.0243069
-0.00645165,0.00512913
-0.000425163,-0.011782
-0.00723166,-0.00797509
-0.017975,-0.0157027
-0.0160885,-0.0150583
-0.00417927,0.0111523
0.00653857,0.0281768
-0.00579264,0.0181179
-0.0136005,0.00388044
-0.00852332,-0.00312684
0.0180115,0.00326743
0.0418352,0.00726717
0.0413398,0.00544215
0.0317182,0.01309
0.0274624,0.0019542
0.0158311,0.0153184
-0.0146589,0.00201546
-0.049225,-0.00691936
-0.0526777,-0.0108549
-0.0443264,-0.0254695
-0.0320021,-0.0212045
0.0280385,-0.0124448
0.113083,-0.00163046
0.130812,0.0379735
0.0539405,0.0172693
-0.0132067,-0.0162609
-0.0375165,0.00142155
-0.0711599,-0.0273587
-0.0571806,-0.0089337
-0.0650494,0.00738041
-0.0709367,0.0126881
-0.025111,0.0199878
-0.0162373,-0.00757484
-0.0202633,-0.0176569
0.00418637,-0.0171604
0.0306306,-0.0174502
0.0264796,0.012582
0.0382119,0.0380312
0.09125,-0.00945976
0.0908076,-0.00596055
0.0160653,0.00504307
-0.0570406,-0.0085293
-0.0635645,0.000174074
-0.0374394,0.00502409
-0.0113818,-0.00963086
0.00340827,-0.00865949
0.00428032,0.0250989
0.0259906,0.008423
0.0387777,-0.00754577
0.0130077,0.00378292
-0.0108913,0.0224757
-0.0280271,0.0133977
0.00272172,-0.0248339
0.0399238,-0.0289771
0.0381134,-0.0127626
-0.0090331,-0.0298664
-0.0648873,-0.00864056
-0.0530336,0.0207536
-0.0307096,0.0039522
-0.0131039,0.0210898
0.00415432,0.0120609
0.0251268,0.00152641
0.0364866,-0.00496796
0.016913,0.0222398
-0.0212579,0.0406664
-0.0378405,-0.00706328
-0.0452224,-0.0369508
-0.0235377,-0.0360042
0.0127885,-0.0182947
0.0231505,-0.0138423
0.0271895,0.0151665
0.0372534,0.0132499
0.0266685,0.0220855
0.0117096,0.0245025
0.00743022,0.0151143
-0.0124368,0.000753224
-0.0240705,0.00137167
-0.0197868,0.00143514
-0.00606037,-0.00828591
-0.00168454,-0.0055847
-0.0137656,0.0121579
-0.0212258,0.00435075
0.037568,-0.0166267
0.107541,-0.027013
0.103651,-0.0224087
0.0214907,0.00525902
-0.0493449,-0.0162261
-0.0229056,0.0125285
0.0208117,0.0290062
-0.0401686,-0.00877637
-0.102942,-0.0210871
-0.0841967,0.0241918
-0.0423629,0.0246218
0.00901365,-0.0137158
0.0199903,-0.0581217
0.0292611,0.00198325
0.0347203,0.0334383
0.0306111,0.0188029
0.0161449,0.0128214
-0.00229018,-0.00779235
-0.00376593,-0.00124025
0.00530993,0.0033332
0.003852,-0.0080615
-0.0109352,-0.00848197
-0.0176181,0.00107173
-0.0108886,0.0163887
0.0472281,0.0264316
0.110519,0.0113753
0.0781314,-0.00502118
0.00053956,-0.00579824
-0.0652909,-0.0157002
-0.062638,-0.0168698
-0.0630167,-0.00792211
-0.0694777,-0.000872829
-0.0255288,0.0042432
0.000912847,-0.00412886
-0.00400368,-4.97e-05
-0.0355589,-0.00474285
-0.0542076,-0.0193119
-0.0318808,-0.01385
0.0205288,-0.00133846
0.0521853,-0.00505168
0.0545447,0.00405493
0.0460907,0.0218233
0.0270231,0.00738681
0.0110831,0.00280232
0.00974827,0.00550988
0.0117638,0.00507859
-0.00987041,0.0158995
-0.000575941,0.00468701
0.0067613,0.00161121
0.0095465,-0.00792834
0.00652571,0.00357256
-0.00550705,0.00347374
-0.0164506,-0.00640934
-0.0184082,-0.0168928
-0.0196411,-0.0190751
-0.020307,-0.00670356
-0.0252495,0.00896455
-0.0206261,0.0189734
-0.00343334,0.011381
0.022119,-0.0068286
0.0477052,-0.010179
0.0263904,0.00164558
0.00369531,0.00592047
-0.00602553,-0.0149349
-0.0143668,-0.00313483
0.00330004,0.00289466
0.0101739,0.0034173
-0.00192619,-0.0301489
-0.00963998,0.0078638
-0.0233858,0.0211969
-0.0275821,2.96e-05
-0.0241459,-0.00953185
-0.0216631,-0.00621473
-0.013914,0.00636821
0.00148199,0.00973059
0.0169742,0.0112768
0.016401,0.00156036
0.013688,0.00016601
0.019344,-0.00103464
0.032366,0.00453678
0.0291802,0.000529351
0.0109366,0.00275002
-0.00940647,0.00505062
-0.0167264,0.00234962
-0.0174293,0.0026342
-0.0162205,-0.00443503
-0.00191358,-0.017845
0.013013,-0.0225184
0.0237027,-0.0153064
0.0238711,0.000568393
0.0175146,0.0150982
-0.00213117,0.0185735
0.0225396,0.00240327
0.0929495,-0.000145997
0.0847829,0.00783246
0.0219274,0.00988564
-0.049951,0.00460991
-0.0537007,-0.00695669
-0.0215671,-0.00445971
-0.0148746,0.0148176
