Comp Ch 3,Comp Ch 4
-0.152002,0.0275893
-0.12057,0.0870906
0.0288246,0.0351401
0.102563,0.00494626
0.0492564,0.00776949
0.00388227,0.0275796
0.0169144,0.0668329
0.035286,0.0580791
0.0264884,0.0469025
-0.0748363,0.0451675
-0.178993,0.0227638
-0.18058,-0.00424271
-0.0579759,-0.00316387
-0.0360636,-0.0185438
-0.090438,0.0187716
0.0121278,-0.0262219
0.166665,-0.0572971
0.135842,-0.0395555
0.0293446,-0.0434854
0.0789891,-0.0600003
0.0724686,-0.0190086
-0.0439128,0.00597195
-0.0194002,0.0520007
0.0891574,0.0394112
0.0889923,0.0211161
0.0414183,0.0324578
-0.00163906,0.00966634
-0.0254146,0.00423664
-0.085927,-0.0238207
-0.135705,-0.0199789
-0.109289,0.0213546
0.0337361,-0.0548661
0.129677,-0.098783
0.0539436,-0.0532196
-0.048907,-0.0558582
-0.0267523,-0.0316905
0.0814736,0.118134
0.0558501,0.0809822
-0.0230006,0.00300928
-0.0946004,0.032172
-0.111417,-0.00659193
-0.0582304,-0.0065433
-0.0746893,-0.00574172
-0.142292,-0.159074
-0.169972,-0.178773
-0.203564,0.0377827
0.024224,0.0161288
0.350925,0.0518212
0.247343,0.14241
0.0932782,0.16595
0.129091,0.106862
0.0874046,0.0037753
0.0303543,-0.0149339
-0.00635845,-0.00430286
-0.0560264,0.0285235
-0.0710894,-0.0293168
-0.0203504,-0.00421537
0.0571731,-0.013472
0.0770436,-0.00599098
0.0498264,0.0216968
0.032037,0.0186316
0.0330301,0.0116394
0.0364589,0.0203406
0.0333786,-0.00717779
-0.0407692,-0.0592891
-0.177728,-0.166385
-0.252513,-0.229975
-0.153606,-0.104311
-0.0219392,0.0472901
0.00266072,0.147466
-0.014564,0.0615074
-0.0205379,0.0540117
-0.00260249,0.075341
0.00954372,0.018995
0.0613822,0.0110373
0.106081,-0.0128914
0.0897067,0.00427323
0.0171816,0.059643
-0.0478412,0.0944575
0.0277693,-0.0677142
0.116929,-0.0545906
0.101607,0.0314481
-0.00811176,0.0142731
-0.0764824,-0.0243852
-0.102236,-0.02546
-0.0723855,-0.034267
-0.0199862,-0.0360821
-0.0360398,0.00965349
-0.0743534,0.000997554
-0.0409405,-0.00163473
0.0522788,-0.00576567
0.136044,-0.0341363
0.0815093,-0.0242698
-0.021609,0.026297
-0.0819654,0.0457259
-0.0595251,0.00560096
0.00790823,-0.0133312
0.0761308,0.0873613
0.0321449,0.0298996
0.0470685,0.00435436
0.00416772,0.017081
-0.0467738,-0.0474613
0.00822099,-0.0500017
0.0259923,-0.0247168
-0.0137325,-0.0106742
-0.00515691,-0.0339501
0.107234,-0.0270088
0.158808,0.0312247
0.0770477,-0.036565
-0.089854,-0.0869296
-0.28885,0.0467761
-0.465829,0.0788926
-0.289156,0.0327652
0.187176,-0.0777494
0.361026,-0.0245311
0.309872,0.0427724
0.192247,0.112448
0.0631637,-0.0235823
-0.0494869,-0.049506
-0.126384,0.0133124
-0.104316,0.00829068
-0.0522529,0.00932549
0.00729256,0.0117078
0.0444303,-0.00122298
0.0248149,-0.0480153
0.0331366,-0.0118196
0.0300267,0.0192358
-0.0130851,0.0260081
-0.0578114,0.0164878
-0.0625651,-0.0412893
-0.040107,-0.0115589
0.00462967,0.0474136
0.00792459,0.0537784
-0.0539754,0.0138872
0.00498834,-0.0224089
0.0343112,-0.0103467
0.0245863,-0.0741583
-0.034896,-0.0352385
-0.0472318,0.0196455
-0.024985,-0.0260259
-0.0575574,-0.0198456
-0.0895379,0.00280881
-0.00909815,-0.00225132
0.0859354,0.0205366
0.0906454,0.040496
0.110832,0.025386
0.0813403,0.0151959
-0.00716327,-0.0195093
-0.0201493,-0.0455126
0.037293,-0.0176867
0.0286255,0.00252628
-0.0487217,0.0255515
-0.0948509,0.0329362
-0.110923,0.0459592
-0.063815,0.0623974
0.0123193,-0.0238839
0.0990644,-0.0449416
0.0651564,0.00454222
0.00529815,-0.0159741
0.0125107,-0.101187
0.0309963,-0.0524548
0.0636871,-0.0531587
0.0783156,0.0246439
0.0325976,0.112838
-0.0483265,0.0410876
-0.0600904,-0.00582318
-0.0298055,0.00428923
-0.0380714,0.00527438
-0.0675053,0.0101426
-0.0652133,0.0317111
-0.036106,0.0206806
0.0268564,-0.0358138
0.0791044,0.0012597
0.0637199,-0.00138669
-0.0262528,0.0120277
-0.095414,0.0317839
-0.0392758,-0.00560422
0.0170274,0.0252889
0.02195,0.0158773
0.00354226,0.00305676
0.00388782,-0.0187226
0.00358712,-0.0643071
0.0146977,0.018137
0.0286692,0.0673165
0.0368979,0.0205935
0.00585459,0.00501449
-0.0193117,-0.0376079
-0.0612974,-0.0218051
-0.0335912,-0.00135174
-0.00927871,-0.0674129
0.0190998,-0.0686023
-0.00846633,-0.0119604
-0.0389769,0.0216116
0.0246319,0.0335438
0.130785,0.0173426
0.13608,-0.0281539
0.0612198,-0.0325566
-0.0533209,0.000732793
-0.0705688,-0.0136242
-0.0605135,-0.00449339
-0.0637176,0.0209452
-0.0271076,-0.0483
0.022919,-0.0534242
0.0822271,0.0033402
0.131289,-0.0493959
0.0340104,-0.0794307
-0.124974,0.0678143
-0.167044,0.0481091
-0.0756976,0.0336424
-0.00400615,0.0668257
0.0317539,0.0838653
0.0583407,0.0619576
0.0346497,0.0360357
-0.0021173,-0.0247105
-0.0211668,-0.00917346
-0.0365836,0.090496
-0.0158512,-0.0218885
0.0235909,-0.0809074
0.0149195,-0.0688775
-0.00178621,0.063925
0.0212723,0.0603692
0.0590227,-0.0433166
0.0548141,-0.0442203
-0.00651191,-0.0360348
-0.0587698,-0.0349003
-0.0624226,-0.0290989
-0.019188,0.0152656
0.015035,0.055702
0.0267663,0.0014752
0.0479947,-0.0208012
0.0578813,-0.0167952
0.0449499,-0.0337914
0.0419808,0.0061211
0.0152445,0.0467559
-0.0561496,0.0559769
-0.0805458,-0.00886442
-0.0571432,-0.0396868
-0.0203005,-0.0255241
-0.0177565,-0.0094573
0.0162641,-0.0369536
0.030054,-0.0554035
0.0739529,0.0648976
0.0867744,0.0367196
0.0471797,-0.0471248
-0.0142368,-0.0154216
-0.0824221,0.0363138
-0.113573,0.0536199
-0.0452263,0.0197883
-0.0121504,0.00604338
-0.0114515,-0.00947931
-0.0195657,-0.00312182
-0.0127457,-0.0128471
-0.00413993,0.00423848
0.0103046,0.0237536
0.0496025,0.0881865
0.0569582,-0.0208761
0.0591954,-0.0515681
0.0156743,-0.0211088
-0.0369534,-0.0489485
-0.0494781,-0.0271919
-0.036968,0.00242787
-0.00522266,0.013326
0.0310417,0.0269857
0.0405947,0.0457077
0.0231373,0.014378
-0.0165529,0.00351751
-0.0466698,-0.0398153
-0.0495848,-0.0143363
0.00250214,0.0372996
0.0377896,-0.014129
0.0272833,-0.0835607
-0.00930449,-0.0875553
-0.0148765,0.0535815
0.0115053,0.0256708
0.0406848,-0.0114776
0.0228417,-0.00709241
0.00601539,0.000101011
0.00378989,-0.00386595
-0.0183294,-0.0387616
-0.0484644,0.0550406
-0.0476088,0.0786012
-0.0110765,0.0283418
0.00980458,0.0264329
0.00711432,0.0165264
-0.0109146,-0.0237919
-0.0324127,-0.0261954
-0.0189979,0.0130026
0.0139572,0.0214891
0.0512527,0.0290663
0.0963188,-0.0167387
0.0564007,-0.036896
-0.0717697,-0.0264246
-0.156221,-0.00970099
-0.0766607,-0.00101567
0.0486907,0.00335528
0.0676178,0.00261532
0.0664951,0.00559259
0.0738599,0.00777378
0.0382052,0.00974974
0.00957699,0.0316653
-0.0138798,0.0410806
-0.0221987,0.0168477
-0.0159991,-0.00923772
-0.0188857,-0.0240434
-0.0550326,-0.0347779
-0.0708195,-0.0533628
-0.00304483,-0.0397793
0.0949379,-0.0644864
0.104143,-0.0184143
0.0327273,0.00231007
0.019561,0.00536741
0.0337582,0.0575348
-0.0166213,0.0369679
-0.070198,0.0241429
-0.107815,0.0179667
-0.0692488,0.00767397
0.0156387,0.00531443
0.0147243,-0.00814157
-0.0231626,-0.00581473
3.35e-05,-0.00697695
0.0337293,-0.0318491
0.0595748,0.0199281
0.0806324,0.0379004
0.0114436,-0.0189681
-0.0623063,-0.0520946
-0.0592855,0.00387899
-0.0143488,0.0456596
-0.00072827,0.0427401
-0.00904892,-0.0156115
-0.00975378,-0.00495328
-0.00567027,0.0100986
0.0420411,0.0019657
0.0875256,-0.000770425
0.0367047,0.00389692
-0.0404825,-0.0440849
-0.0858461,-0.0215157
-0.0557692,-0.000660437
-0.0354361,-0.0144097
-0.00355738,-0.00897026
0.0343117,2.48e-05
0.0553522,-0.00222072
0.0507522,-0.0154112
0.00302804,-0.0150504
-0.0265249,-0.0073952
-0.0041612,0.00251935
-0.00106485,0.0305811
-0.00668461,0.00736652
0.000271058,-0.0139543
0.0167991,0.0367331
-0.00819182,0.00581289
-0.0699152,-0.00502504
-0.0965047,-0.0372389
-0.0338524,-0.0243185
0.0849196,0.0216237
0.0780134,0.0242839
-0.00819928,0.0568621
-0.0304454,0.0461361
-0.00212656,-0.0288991
0.00501592,-0.0238985
0.0140845,0.0191421
0.0297253,0.0121787
0.0379931,-0.00545502
0.0339768,-0.0312111
0.0284334,-0.0071246
0.00920174,-0.0103417
-0.00991243,-0.0410406
-0.0135763,-0.00366797
-0.0258686,0.0239982
-0.0505827,-0.0133217
-0.0234507,-0.00442025
0.00371946,0.0065908
0.000655957,0.0168348
-0.012793,0.0370749
-0.0302,0.0194918
-0.0496759,-0.00691897
-0.0745989,-0.0275682
-0.0388971,-0.0131794
0.0259664,-0.0162597
0.0710524,-0.0447273
0.1198,-0.0256632
0.105464,0.0112665
0.0691773,0.0238935
0.0363184,0.00350053
0.054485,0.00990383
0.0703126,0.0243864
0.0149864,0.0105347
-0.0879468,0.00755855
-0.111615,0.0159003
-0.0518395,0.0238602
-0.0291369,0.0313569
-0.0301797,0.0129532
0.000924566,0.00909973
0.0310886,-0.00765147
0.0131091,-0.0311242
-0.00778824,-0.0265862
-0.03078,0.00536792
-0.0398336,0.0457595
-0.046863,0.0396529
-0.0452129,0.0126576
-0.0200356,0.00274648
-0.0216723,-0.00280589
-0.0692166,-0.0196223
-0.0589556,-0.0163626
-0.00332876,-0.0247945
0.035795,-0.035334
0.0389991,-0.0262095
0.054219,-0.00416647
0.0639682,0.0108408
0.0511069,-0.0211639
0.0281329,-0.0150881
0.00568118,-0.0364672
-0.0206858,-0.057675
-0.0319778,-0.03406
-0.00746483,-0.0160927
0.0331484,0.0444344
0.057688,0.0442183
0.00740952,0.0110828
-0.0528991,-0.0052321
-0.0202044,-0.0318324
0.0388602,0.00295002
0.0495614,-0.0144008
0.0183915,0.0438074
0.00097103,0.130265
0.00875511,-0.00738182
0.0245084,-0.122846
-0.00495724,-0.0315283
-0.1063,0.0236581
-0.145218,-0.0236532
-0.0615102,-0.0153742
0.099238,0.00313182
0.133677,0.03719
0.0851116,0.0345233
0.0772661,0.0672675
-0.0174475,0.0306069
-0.0842894,-0.0450581
-0.0551727,-0.0430609
0.0518579,0.00312092
0.090952,0.0197488
0.0829148,0.0160999
0.0203585,0.0168576
-0.106845,-0.00185772
-0.157014,0.00168586
-0.11534,0.0214867
-0.0131332,0.00725913
0.0992372,-0.0268725
0.0986452,0.0132142
0.0169457,0.0788875
-0.0599024,0.0534566
-0.0976831,-0.024931
-0.104212,-0.0377925
-0.091143,-0.00313525
-0.0231024,0.0298708
0.0659031,-0.0125925
0.0751397,-0.0363249
-0.0156868,-0.0280946
0.00701174,0.00109306
0.0702598,0.0197702
0.0379941,0.0143569
0.00534312,0.00091898
-0.0149532,-0.0188516
-0.0433886,-0.0677645
-0.0231621,-0.0410032
0.0184726,0.0249972
0.0644269,0.0227012
0.0873438,-0.0416824
0.100719,0.0145503
0.036417,0.0308852
-0.0419984,-0.0279694
-0.0730898,-0.0125319
-0.0431384,-0.0188438
0.00460699,-0.00781976
-0.0102011,0.00310079
-0.0112578,-0.01136
0.0166464,0.0273624
0.037371,0.0101566
0.0194266,-0.00441789
-0.0100149,-0.00626454
-0.0419574,-0.0050543
-0.0693138,-0.00634501
-0.0657151,0.0108435
-0.0131173,0.0231256
0.0141506,0.0113071
0.0171627,0.0218486
0.0303928,-0.00219001
0.00807816,-0.0159269
-0.0498751,-0.00266265
-0.0912973,-0.0157479
-0.0380627,-0.0337466
0.150369,-0.0102141
0.157069,0.0240488
-0.0359375,0.0229497
-0.133033,0.0124259
-0.0290821,-0.0211826
0.120629,-0.0235091
0.153288,0.0201783
0.128279,-0.0199702
0.0461237,0.00115228
-0.0442716,0.0115613
-0.0810779,0.0220379
-0.0659078,0.0147407
-0.0436614,-0.0121138
-0.0413221,-0.0237274
-0.085797,-0.0614678
-0.122304,-0.0749977
-0.0981025,-0.0192963
-0.0310862,0.000926161
0.0393529,0.0153361
0.136821,0.169791
0.140778,0.0806463
0.0675853,-0.0313452
0.0293174,0.00670913
-0.0937588,0.0279755
-0.245589,-0.00102477
-0.228019,-0.00919224
-0.0269319,0.00252473
0.145038,0.0046083
0.162848,0.0103939
0.152339,0.00070329
0.104303,-0.0700994
-0.000698459,-0.0607264
-0.0146131,-0.0250458
0.0470419,-0.0106159
0.0770184,0.028215
0.0241226,0.00720202
-0.0385854,-0.0350857
-0.0374454,0.00381054
-0.0120977,0.0178119
-0.0443949,-0.0342649
-0.0820653,-0.028964
-0.0277098,0.029835
0.0484684,0.0513373
0.0744092,-0.0435416
-0.0166906,0.0461084
-0.0881902,0.0760224
-0.0865866,-0.0638053
-0.0492178,0.126032
-0.0186203,0.109355
0.0394296,0.00150431
0.0741245,-0.0274033
0.0142335,0.00371162
0.0162338,-0.0451874
0.0423715,-0.0264922
-0.0286749,-0.0055181
-0.125961,-0.00848789
-0.102041,-0.0179048
0.022225,-0.0372599
0.0291477,-0.00731938
0.0207784,0.0126622
0.0533982,-0.0118443
0.0425176,-0.00731615
0.0240223,-0.0317918
0.0334564,-0.0654891
0.0427617,-0.0245819
0.0566995,-0.0506023
0.0216,0.00517703
-0.0565968,0.00311169
-0.0705704,0.034715
-0.0223153,-0.0513311
0.0168383,-0.0111498
0.0287076,0.0493755
0.0148612,0.019767
-0.00763593,0.0059708
-0.0158782,-0.00387149
-0.0341543,0.0834758
-0.0588367,0.114675
-0.0496233,-0.0355529
-0.0239786,0.0146856
0.00343995,0.0179479
0.0106409,-0.0625786
-0.0473257,-0.0366165
-0.0748243,-0.0507975
-0.0181931,-0.0283468
0.073282,0.0212233
0.130879,0.0105457
0.132579,-0.0601248
0.0755021,-0.132296
0.00930917,-0.0490553
-0.0586325,0.123794
-0.074841,0.139992
-0.0407461,0.0567279
0.00698759,0.0111351
0.0352784,-0.0227895
0.00324487,0.0149866
-0.0226879,0.0312962
0.0720489,0.0590174
0.173152,0.0335741
0.0827108,-0.045638
-0.0857654,-0.0424007
-0.152948,-0.0736881
-0.135853,-0.0901421
-0.104318,-0.0282536
-0.0608901,0.0849598
0.0261536,0.0368463
0.0880901,-0.0765712
0.108806,0.00349378
0.0620354,-0.0431065
-0.00598997,0.0222867
-0.0489212,0.122125
-0.02918,0.0445503
-0.0135264,-0.0273352
-0.0157366,-0.059445
-0.0170721,-0.00258586
-0.0521776,0.0234548
-0.0443136,0.0718851
0.00810192,-0.00211803
0.0459973,-0.113211
0.0615304,-0.0585532
0.0324895,0.0535292
0.0135255,-0.0341648
0.0258725,-0.000489933
-0.0217651,0.0476535
-0.0468694,0.0412254
0.0308459,0.044916
0.0513048,-0.00262849
0.00369038,-0.00803931
-0.0125073,0.0588655
-0.00852366,-0.0163648
0.00725785,-0.069062
0.0116573,-0.0247391
-0.00342999,0.0409051
-0.0199958,0.0416139
-0.022987,-0.0424915
-0.0153067,-0.120918
-0.0517266,-0.0484669
-0.0621934,0.101045
-0.0166978,0.0685234
0.0756526,0.00339961
0.0866226,0.0149855
0.0575693,-0.0159444
-0.00291658,-0.0551136
-0.0579336,-0.010514
-0.0223883,-0.0193793
0.00151227,0.0113306
0.0103894,0.0296619
0.00667298,-0.0701694
-0.00227765,-0.118884
0.00567992,-0.0810213
-0.0121979,0.161414
-0.0379999,0.148354
-0.0307714,0.121931
-0.00341741,0.0145594
0.028998,0.0299058
0.0466844,0.0160551
0.0584421,-0.0289473
0.0391008,-0.0167757
-0.0230594,-0.146655
-0.0958343,-0.22038
-0.0895056,-0.0627519
-0.0552903,0.0934758
0.00632554,0.0705307
0.0831831,0.0642113
0.118413,0.0248932
0.117394,-0.0958284
0.0858317,-0.0621077
-0.0036326,0.022506
-0.11806,0.00210441
-0.150371,-0.0136168
-0.0722467,-0.0805008
0.00741645,-0.0905613
-0.0135543,0.00492825
-0.0359775,0.0880347
-0.0177279,0.102818
0.0493501,0.123714
0.0998298,0.132237
0.0830512,0.0232771
0.0390408,-0.153486
0.0306222,-0.0513344
0.0118155,0.036291
-0.0373521,-0.00599704
-0.0177001,-0.0281275
0.0325215,-0.0624786
-0.00163208,-0.0766985
-0.0720926,0.0138717
-0.136584,0.0254896
-0.112031,0.0818426
0.0125458,0.0573311
0.0443339,0.0216364
0.0228585,0.0673373
0.0390558,0.0165064
0.063475,0.0853838
0.0325163,0.0169861
-0.0258916,-0.00879755
-0.0409739,-0.0433762
-0.0202075,0.0928834
-0.0457056,-0.0242225
-0.0581797,-0.0525033
-0.0109295,-0.018041
0.0205651,-0.0597149
0.0434313,-0.0582307
0.0347573,0.128382
0.00416004,0.074387
-0.00449238,-0.164202
-0.0174253,-0.102295
-0.0541828,-0.0166456
-0.0326875,0.00584985
0.0759003,0.0024763
0.105139,0.0107347
0.0451636,-0.00167216
0.0103392,-0.0166209
-0.0220484,-0.00666866
-0.00753789,0.0179268
-0.00585273,0.0409025
-0.0197956,-0.0694867
-0.000489759,-0.0728689
-0.0042371,0.0107324
-0.0154815,0.058649
0.010626,0.0165092
0.0405983,-0.0159064
0.0303247,0.111021
-0.00260949,0.160028
-0.0300735,-0.077318
-0.0140111,-0.157999
-0.00164763,0.0224072
-0.0188296,-0.000616484
-0.0286712,-0.140461
-0.0118807,-0.143276
0.020187,0.0647587
0.0531099,0.113651
0.0337293,-0.00149461
0.0143616,0.0202607
-0.0223016,0.028062
-0.0390447,0.0410155
-0.0186079,0.00728199
-0.000631495,0.0207909
0.00951076,0.0471318
-0.00816575,0.0514136
-0.0742425,-0.0518116
-0.0933358,-0.0968323
-0.0538512,-0.0259624
0.00414019,0.0682731
0.0363632,0.00465392
0.0653208,-0.0267401
0.10047,-0.00625437
0.110139,-0.019527
0.0960056,0.060246
0.0129431,0.0471884
-0.073201,0.0423114
-0.0989762,-0.0105519
-0.0770038,-0.0254834
-0.033108,-0.0721505
-0.00392681,-0.00553238
0.0275201,0.0543356
0.0268748,-0.045774
0.0411327,-0.121212
0.054374,-0.0160275
0.0312773,0.0405238
-0.025381,0.0340033
-0.0705736,-0.0118081
-0.0920978,0.0246452
-0.123787,0.0385083
-0.0550956,0.0443099
0.106209,0.0533027
0.183739,0.027568
0.136734,-0.0418431
0.0632237,-0.0409355
0.0309059,0.0992839
0.0169668,-0.117914
0.0136925,-0.0395923
-0.0220995,0.0400662
-0.0858703,0.108216
-0.165694,0.160538
-0.207073,-0.0698875
-0.101312,-0.136633
-0.0109272,-0.0608761
0.00830071,-0.034797
0.00431305,-0.0348536
0.0337286,-0.0410735
0.087927,-0.0663509
0.170869,0.0303336
0.19384,-0.00310189
0.161548,0.00376421
0.0801274,0.0790289
-0.0815072,0.0558153
-0.252083,0.0456458
-0.235778,0.038368
-0.128391,-0.0283803
0.0623163,-0.0780132
0.188137,0.0320748
0.182923,0.0536786
0.115643,-0.00865534
0.0215209,-0.0876708
-0.059753,-0.0338535
-0.129996,0.19736
-0.158578,0.0243869
-0.143525,-0.0823368
-0.0976132,-0.108486
-0.0318373,-0.119542
0.030841,0.0140971
0.0285851,0.0870189
-0.0275288,0.0958495
-0.0525774,0.0606565
-0.027813,0.0680031
0.111145,0.0319269
0.165583,-0.153197
0.121485,-0.0631963
0.0364635,0.00487074
-0.0261314,-0.0522743
-0.0276325,-0.0197679
0.0321054,0.00462359
0.0102882,-0.00307851
-0.00472147,-0.0203753
0.059307,0.0580447
0.0626484,0.0810987
0.0028789,0.0457298
-0.0664187,-0.00228882
-0.111198,-0.00801175
-0.067307,0.00979983
0.0757403,0.00379623
0.0781956,-0.0358296
-0.00444402,-0.0673963
-0.022505,-0.0491256
-0.0270446,-0.0440392
-0.0183646,0.0156997
-0.0332275,0.029462
-0.0243827,-0.0107276
0.0103424,0.00836694
0.0233778,0.0779241
0.0158731,-0.00205952
-0.0181056,-0.0585222
-0.0373438,-0.0110283
-0.00577444,0.00161905
0.00951748,-0.108564
0.0135383,0.0559981
0.0144087,0.101318
0.0345914,0.071206
0.0458641,-0.0207129
0.0339444,-0.0453572
0.0494098,-0.0607985
0.00280499,0.0511025
-0.0858909,0.00823519
-0.130409,0.000618506
-0.0888342,0.0381205
-0.0396409,0.0339825
-0.0236937,0.0296653
0.00205269,-0.0229745
0.037934,-0.033292
0.0658823,-0.0350557
0.0647434,-0.124367
0.0314682,0.0233129
0.0331713,0.0367265
0.0534394,-0.0593618
0.0633015,-0.0163289
0.0377484,0.0761591
0.00137138,0.0977615
-0.0203008,-0.0147808
-0.0315876,-0.0589519
-0.0159241,0.106919
-0.0276908,0.0980669
-0.0898592,-0.0166088
-0.159185,-0.0419392
-0.16309,-0.0397534
-0.0673216,-0.00971446
0.022153,0.00238775
0.0204486,0.0540188
0.0541142,0.0324833
0.108213,-0.0606989
0.133469,-0.0657274
0.134927,-0.000451113
0.135936,0.0215147
0.0658602,0.0182316
-0.00500404,-0.067633
-0.0394507,-0.0616151
-0.0946728,-0.0285431
-0.12539,0.0134725
-0.0172207,0.0779222
0.124808,0.0281386
0.214675,-0.0605598
0.216913,0.059545
0.0917369,-0.074638
-0.0615067,-0.0139345
-0.218787,0.138942
-0.355914,-0.0653182
-0.312063,-0.0686928
-0.149966,-0.0248545
0.00324767,0.0260313
0.126648,0.0461981
0.11485,-0.0304246
0.0867802,0.0310703
0.0550077,0.04389
0.0357681,-0.0444513
-0.0128374,0.025278
-0.0465246,0.00662549
-0.0327677,-0.00225141
-0.0213619,-0.0607777
-0.0077888,-0.00818132
-0.018505,-0.0815416
0.00894193,0.03784
0.0945972,0.0739298
0.119535,-0.00258396
0.0603804,-0.0794103
0.0474257,0.0447668
-0.0508091,0.0089173
-0.0840083,-0.0584977
-0.0222803,0.00185251
-0.00287391,-0.00240122
-0.0477435,0.0830296
-0.0676184,0.0730287
0.0358504,-0.0201391
0.20022,-0.0312383
0.227018,-0.0445097
0.101854,-0.0101076
-0.110655,0.017647
-0.254069,0.0290135
-0.205716,0.0788667
-0.0882169,-0.081342
-0.0305804,0.019518
0.0108014,0.260881
0.0330365,0.0909918
-0.000113223,-0.0688258
-0.00352157,-0.0561985
0.0459778,-0.125253
0.098456,-0.0908542
0.0508595,-0.152145
-0.054,0.0256799
-0.0602973,-0.0123047
-0.0598835,-0.0779506
-0.024158,0.0268674
0.0498002,-0.0218126
0.0165866,-0.0279855
-0.0413529,-0.00694881
0.0341126,0.0730443
0.0684508,0.184041
0.0454535,0.0925413
0.074594,-0.0356941
0.0486386,0.0205588
-0.000209387,0.115596
0.0285683,0.0111693
0.0327908,-0.04583
-0.0605989,-0.0826022
-0.146555,-0.119616
-0.0601495,-0.0651852
0.0645512,-0.0181596
0.081427,0.0443638
0.168499,0.0594481
0.149639,0.0197211
0.0737466,0.0464732
-0.0647883,0.0336329
-0.200144,0.0136602
-0.108122,-0.0511932
0.0601805,-0.0293744
0.100144,-0.00053954
0.153233,0.0954028
-0.00873125,0.0360612
-0.229498,-0.0642593
-0.231059,-0.062148
-0.124313,-0.0132763
0.0844518,-0.114367
0.293115,-0.0393927
0.297239,0.110357
0.0260771,0.0684405
-0.251535,-0.039587
-0.282568,0.0270449
-0.143361,-0.129531
0.0803357,-0.0995926
0.180994,-0.047125
0.113447,0.0151974
0.0806976,0.0330217
0.0178918,0.0487582
-0.180773,0.0541896
-0.249046,0.0134492
-0.164559,-0.0534106
-0.135735,0.0970202
-0.0405263,0.182586
0.140627,-0.0824755
0.0567973,-0.0123543
-0.15379,-0.0934977
-0.258223,-0.0821746
-0.176299,0.018746
0.0141115,0.0218049
0.185119,0.0888943
0.219617,0.110117
0.232404,0.0680862
0.371167,0.0727787
0.357312,0.00560295
0.129412,-0.0424849
0.00147246,0.0036289
-0.195873,-0.00496606
-0.330767,-0.0443261
-0.194006,-0.0680075
-0.103337,-0.105442
-0.0425992,-0.0823812
0.0927437,0.00190546
0.133201,0.0373148
0.0523515,-0.0210863
0.00651949,-0.0848981
0.0578568,-0.0720641
0.153549,-0.118497
0.134897,-0.0863835
0.0363162,-0.0648318
-0.0552918,0.0120338
-0.120666,0.045429
-0.178384,-0.286439
-0.273418,0.0412974
-0.0829352,0.135348
0.134036,0.180351
0.180956,0.205181
0.082294,0.198207
-0.0945448,0.145221
-0.119574,0.163197
-0.00216695,0.173752
0.0504989,0.0927761
0.0653111,0.0338693
0.124467,-0.0143143
0.288759,0.00833937
0.244255,-0.0589732
0.0564602,-0.0424866
-0.254627,-0.110027
-0.471885,-0.113465
-0.37632,-0.112284
-0.0791143,-0.137616
0.161073,-0.107121
0.195652,-0.0449188
0.0552747,-0.0750647
-0.0658563,-0.0624062
-0.171667,-0.0306115
-0.181301,0.101875
-0.0982284,0.0550012
0.0156737,-0.0543098
0.145633,0.0536079
0.177589,0.0312456
0.104075,0.0328458
-0.0368622,0.0109207
-0.119313,0.00825847
-0.0412861,0.0453871
0.146052,-0.0583863
0.391582,0.00697535
0.529345,0.0701329
0.26415,-0.0604369
-0.178511,-0.141843
-0.375441,-0.0399872
-0.37576,0.0450342
-0.158028,0.050142
0.0204424,0.0399893
-0.0176567,0.0635947
-0.0363575,0.00385487
-0.00988004,-0.156361
0.100882,-0.161176
0.181165,-0.172792
0.23167,0.0918563
0.213642,0.201565
-0.0188664,-0.0186012
-0.220749,0.0472648
-0.231195,0.113637
-0.322867,0.0500315
-0.18154,0.0388361
0.113292,0.0871375
0.326641,0.140731
0.417202,0.16249
0.218182,-0.0215998
-0.104818,-0.237937
-0.279815,-0.277934
-0.499225,-0.203464
-0.543015,-0.203883
-0.410597,-0.0235717
-0.186254,0.117536
0.107976,0.243891
0.330057,0.243452
0.414601,0.129366
0.453248,0.0980478
0.460184,0.0334399
0.362785,-0.023927
0.208163,0.055194
-0.0785867,-0.0146542
-0.350396,-0.20052
-0.375434,-0.169212
-0.25817,-0.0609918
-0.123335,0.161404
-0.026032,0.12041
-0.0439508,-0.0130813
0.0554209,0.119357
0.153688,-0.0740964
0.0644274,-0.177544
0.045491,-0.221083
-0.0030178,-0.159598
-0.0840191,0.02242
-0.091917,0.0350851
-0.0478385,0.119465
-0.0047635,-0.0359337
-0.0148905,0.0540639
-0.0383052,0.246985
-0.0305547,0.132518
-0.0481646,0.0165427
-0.0841676,-0.0477006
-0.0762612,-0.146338
0.032679,-0.14725
0.122601,-0.147842
0.207133,-0.109413
0.21587,0.100053
0.252757,-0.0811309
0.0378915,-0.172926
-0.114951,0.00357606
-0.0859269,0.293272
-0.118239,0.226143
-0.092205,0.114578
-0.0530227,-0.0206735
0.0512342,-0.175457
0.0921089,-0.0120837
0.014984,0.0167872
-0.0676412,-0.113924
-0.110311,-0.0929473
0.0432117,0.0815494
0.288145,0.137247
0.260165,0.13991
0.042118,0.156652
-0.363016,0.0741625
-0.608913,-0.0427684
-0.320356,-0.0596363
-0.00960668,-0.0297111
0.0228667,0.0142887
0.0456467,-0.00551051
0.165173,-0.0549993
0.275376,0.00126074
0.160105,0.0911458
0.0592043,0.00687229
0.0072085,-0.157081
0.0957557,-0.166446
0.233906,-0.0985325
0.110429,-0.000547254
-0.148339,-0.0284494
-0.241613,0.027364
-0.0661122,0.0416396
0.0767539,0.110476
0.0446491,0.133232
0.00629542,-0.051554
-0.0129244,-0.193138
-0.0450318,-0.101519
-0.0343155,0.0373226
0.0147547,0.0552485
0.0387891,-0.0605599
0.0553905,-0.0139154
0.160147,0.068315
0.160771,0.0420603
-0.0731076,0.054513
-0.356543,0.0538536
-0.320355,-0.0882513
0.0218802,-0.15511
0.128326,0.0338402
0.0219489,0.113862
0.0464779,0.056757
0.131986,0.0623726
0.0819701,0.0757186
-0.0151515,0.0218918
0.0129016,-0.0433988
-0.0899429,-0.0546536
-0.086826,0.0219438
-0.014569,0.0130473
0.000553011,-0.0282295
-0.0640427,0.0351781
-0.0772965,-0.00249939
0.154602,-0.0865518
0.348881,-0.0282137
0.257829,0.0422799
0.0466177,0.0415642
-0.252462,-0.0247596
-0.332796,0.00503865
-0.17836,-0.010596
-0.0164149,-0.0383586
0.0254108,0.0431735
-0.00563375,0.0430793
-0.00778059,-0.0738831
-0.110731,-0.0945637
-0.080532,-0.037806
0.00870823,-0.000365918
0.00081858,0.0270833
-0.0219915,0.0299511
-0.0144326,0.0361569
0.171345,0.0424268
0.312692,0.0527735
0.266373,0.0480739
0.131354,-0.0200528
-0.000372089,-0.0998435
-0.171304,-0.0643679
-0.251154,0.0422297
-0.296984,0.0824827
-0.23943,-0.0524807
-0.0457951,-0.103266
0.107279,-0.030371
0.0678356,0.048871
-0.0248953,0.104515
-0.0161228,0.0693865
0.0775506,0.0408642
0.119068,0.014072
0.18104,-0.0770357
0.13897,-0.132967
-0.00194978,-0.101871
0.0381599,-0.0344792
0.0944021,0.0371534
0.0686918,0.143427
0.100332,0.109564
0.0194716,-0.000946155
-0.113755,-0.0182252
-0.21113,0.0104683
-0.234287,0.0233485
-0.113107,0.0223969
-0.00825786,-0.0195552
0.0155039,0.0227325
0.00171582,-0.0290159
0.00405921,-0.0524089
0.00916451,0.016301
-0.0147381,0.0196194
0.000421481,-0.0357127
0.00412274,0.00663463
-0.053106,-0.000131789
-0.134614,-0.0185346
-0.142086,-0.0184992
-0.0186953,-0.0152643
0.111213,-0.0115275
0.151037,-0.0450495
0.174337,-0.0591019
0.178559,0.0146705
0.134294,0.0431547
0.0948092,0.0428323
0.056419,0.0395258
0.0185541,-0.0202488
-0.0119222,-0.0216302
-0.048441,0.0100341
-0.066486,-0.00397045
-0.0493653,-0.0213592
-0.0575259,-0.00481109
-0.0580215,0.00979918
-0.0721833,0.0255095
-0.0460453,0.0143554
0.0292922,0.0120798
0.0494892,0.00430268
-0.00720192,-0.0198665
-0.0793453,-0.0148986
-0.131413,0.00796779
-0.0988225,0.0169242
-0.00126743,-0.00259109
0.0995082,-0.0253914
0.151988,-0.040355
0.0900753,-0.0236406
0.0439523,0.0573826
0.040715,0.0194256
-0.000786172,0.11064
-0.0616219,0.0448022
-0.0905296,-0.0794966
-0.102595,-0.0674429
-0.0961355,-0.0303104
0.00866736,0.034266
0.129227,0.033068
0.190848,0.0051585
0.220642,-0.0137021
0.193092,0.000995047
0.176119,-0.0205983
0.118998,-0.0560134
-0.0950132,-0.0157285
-0.276777,0.0322896
-0.404549,0.0427923
-0.342179,0.024017
-0.138402,-0.00170757
-0.0321558,-0.0523899
0.0488686,-0.098573
0.120443,-0.030265
0.0998683,-0.110455
0.00946516,-0.0507471
-0.0395427,0.0558857
-0.0154397,0.0397358
0.0400342,0.069927
0.0916021,0.106267
0.124147,0.102592
0.0971677,-0.0208152
0.0240313,-0.0419921
-0.0289546,-0.0147317
-0.0722925,0.00526241
-0.0654215,0.0152095
-0.0337183,0.0105264
-0.0256825,0.040735
-0.0017923,0.0690044
-0.0110766,0.0711338
-0.0532639,0.0496554
-0.0554687,-0.0414372
-0.0337249,-0.0820237
-0.0351612,-0.0772025
-0.0132168,-0.00898243
-0.00377295,-0.0642962
0.018185,-0.132369
0.0621651,-0.0388967
0.0846485,0.0951623
0.0735999,0.110174
0.0442973,0.00214692
0.0345312,0.113069
0.0256626,0.0430704
-0.0166279,-0.052357
-0.0301764,-0.0308215
0.000194093,0.0200743
0.0408388,0.0138657
0.0242942,-0.00300486
-0.00363086,0.00948199
0.0222803,-0.0103147
0.0721515,-0.0534699
0.0510076,-0.051348
0.0112494,-0.0357229
-0.0314732,-0.0374561
-0.0841465,-0.0159697
-0.0983421,-0.0147438
-0.0255302,0.00462638
0.0409285,0.0357235
0.0587006,-0.00399811
-0.0153792,0.0706512
-0.0747834,0.0244044
-0.0632569,-0.110746
-0.0560735,-0.208608
-0.0412007,-0.0246007
-0.0476345,0.119625
-0.0432946,0.0662684
-0.0104275,0.0196727
0.0558158,0.0318831
0.117752,0.0370435
0.1117,-0.000797726
0.0944992,0.0343687
0.101833,0.049357
0.0640405,0.0411126
-0.0134846,-0.00743218
-0.112777,-0.0155286
-0.125088,-0.0157596
-0.0711599,-0.0133864
0.00445376,0.00402348
0.0578565,0.0169286
0.0323735,0.0153788
-0.0115659,-0.00339082
-0.0265466,-0.0101651
-0.0218836,-0.0145604
-0.0195475,-0.0224705
-0.00570393,-0.0124661
0.00953164,-0.0222931
0.0242344,-0.0384325
0.0132689,-0.0587077
0.0195652,-0.0504849
-0.0330008,-0.0117127
-0.0579601,-0.0138572
-0.0409329,0.0302479
-0.113679,0.015266
-0.102343,0.00203409
-0.00313067,0.0484891
0.0569696,0.0646974
0.077343,0.012005
0.078192,0.0224958
0.0246567,0.0240822
-0.0451461,-0.0302315
-0.050192,0.0110085
-0.00887439,0.0239322
0.00339291,-0.039215
0.0167731,0.00259059
0.0392609,-0.000172182
0.0823867,0.00838268
0.0591899,0.0215765
0.030145,0.0058963
0.0287803,-0.0169212
0.0592742,-0.0187658
0.14039,-0.0215603
0.142769,-0.0146966
0.0267731,-0.0107679
-0.110233,0.0996128
-0.164107,0.127985
-0.134003,-0.0328622
-0.0366128,-0.142882
0.00573821,-0.0892359
-0.01258,-0.0678572
-0.0511941,-0.0649475
-0.0886507,-0.0868895
-0.0837975,0.0336345
-0.0327947,0.115531
0.0524306,0.0817327
0.0843615,0.0702909
0.0563737,0.0310166
0.0339598,0.00264837
0.0349984,0.02104
-0.00649415,0.00272451
-0.0332757,0.023419
0.0247836,-0.00218306
0.0324778,-0.0203054
-0.0364681,-0.0206515
-0.0717038,0.00464381
-0.0450821,0.0115946
-0.00655119,0.0322651
0.0396404,0.0463169
0.0322531,-0.0124153
-0.00531781,-0.00668576
-0.0312012,-0.00682864
0.0197621,-0.0149724
0.0539331,-0.0247542
0.0351374,-0.0210074
0.0158003,-0.00440903
-0.00990275,-0.0256581
-0.0246017,0.0234748
-0.0364922,0.0390308
-0.0300382,-0.13107
-0.00157737,-0.0110997
-0.00147699,0.0655179
0.00899488,-0.00585715
0.0469614,-0.0464607
0.0745411,-0.0741234
0.0917304,-0.0439973
0.0498892,0.0272989
0.00166603,0.0931973
-0.0389643,0.0420671
-0.0601146,0.0244649
-0.0702275,-0.0231546
-0.0829461,0.00495618
-0.0290612,0.00325015
0.0177457,0.00545836
0.0330959,0.00106249
0.0519132,-0.0271176
0.029975,-0.0235001
0.020252,0.0190092
0.0366144,0.0781458
0.0645295,0.060569
0.0864352,0.0658566
-0.00317171,-0.0824477
-0.0523027,-0.0778735
-0.0674963,-0.054193
-0.136371,-0.0449049
-0.153934,0.0148303
-0.116737,-0.00883134
-0.0273062,-0.0108078
0.0474109,-0.00647605
0.0621572,0.0027018
0.0810225,0.00759495
0.0704876,-0.00516265
0.0519715,0.00584796
0.0251261,0.0122821
-0.0184816,0.0115399
-0.0638567,0.00271813
-0.0257461,-0.029228
0.0166838,-0.0491722
0.0542898,-0.015939
0.0656207,0.046632
0.0267878,0.0264623
-0.0514145,0.0154427
-0.0863042,0.0551408
-0.0473866,0.0214389
0.00456328,0.00707513
0.0506243,0.0187496
0.0605917,-0.0081614
0.0296813,0.0125237
0.00100863,-0.0625401
-0.00361827,0.0359123
-0.0261679,0.0151402
-0.0813276,-0.000689265
-0.0891541,0.0123182
-0.0523865,-0.0272447
-0.0117432,-0.0412407
0.0403169,-0.0231453
0.0790152,0.0248504
0.0532487,0.0194883
0.0162531,0.0122748
-0.0141252,0.00608287
-0.0102716,-0.0861183
0.0410688,-0.0950609
-0.00817986,0.00204403
-0.0457104,0.0395488
-0.0109996,0.00318335
0.0540815,0.0177259
0.0831242,0.03814
0.0600546,0.0432513
0.0149136,0.0368822
-0.0349024,0.0462009
-0.0443054,0.07023
-0.013126,0.0245888
0.0112649,-0.00493814
0.00287976,-0.0280193
-0.0210769,-0.0198741
-0.0381211,-0.0226943
-0.0232986,-0.0251865
-0.0129172,-0.00619833
-0.00326644,0.0016504
0.0378117,-0.00260471
0.0723648,0.0174065
0.11954,0.0556127
0.126606,-0.00916927
0.0382654,-0.0479805
-0.0651482,-0.0618443
-0.135595,-0.0684617
-0.141678,-0.0709383
-0.0917196,0.0489006
-0.0949139,0.00605757
-0.028903,-0.0729225
0.0275765,-0.0807811
0.0314519,-0.00280947
0.0040779,0.0612148
-0.0126368,0.0767928
0.0217591,0.0849806
0.0472667,0.0392485
0.0325768,0.0155101
0.0287425,-0.0121823
0.0421248,-0.0170885
0.032862,-0.00433055
0.018404,0.00830698
-0.0191651,0.00819822
-0.0852371,0.014232
-0.0813766,0.0295685
-0.0293731,0.00825546
0.00141239,-0.0401378
0.00539236,-0.0471441
0.000782256,-0.000589093
0.0138189,0.0462596
0.0389466,-0.0374753
0.0531722,-0.0383676
0.0451737,-0.000826669
0.0133691,-0.0469319
0.0272316,-0.13487
0.050383,-0.0776117
0.0187987,0.042414
-0.0397812,0.0220252
-0.062958,0.0401448
-0.0670415,0.0363586
-0.0772203,0.0939
-0.0874118,0.139181
-0.0662628,0.0708748
-0.0324621,0.0132135
0.00815485,0.00475402
0.057045,0.0334973
0.0833761,-0.0308241
0.124327,-0.0556356
0.135539,0.000738595
0.11628,-0.0192451
0.0626996,-0.0173112
0.0142414,-0.00467634
-0.0132078,-0.0397028
-0.0230373,-0.0224318
-0.0234976,0.0270665
-0.00305924,0.0146874
-0.0309073,-0.00595693
-0.0786542,-0.0143827
-0.101857,-0.0237799
-0.0770451,-0.023775
-0.0141041,-0.0192856
0.0193075,-0.0172292
0.0177867,-0.00612173
-0.00204123,0.000910728
-0.0232596,0.0078826
-0.0472564,0.00715799
-0.0397777,-0.0130575
-0.0165473,-0.0293441
-0.0157843,-0.0283298
-0.0079368,-0.011721
0.0181716,0.0166998
0.0319995,0.0292206
0.0390036,0.0333489
0.0799379,0.0193391
0.113072,0.0275372
0.0661896,0.0509513
0.000537289,0.0165602
-0.0319517,-0.0246606
-0.0299678,-0.0455313
-0.00228615,-0.0866847
-0.0202153,-0.148388
-0.0777053,-0.164332
-0.0892915,-0.0581195
-0.0443379,0.0252029
-0.0183915,0.09447
-0.0126348,0.201523
-0.00854303,0.137218
0.0365566,0.0673369
0.0559141,0.0815486
0.021362,0.0415975
-0.012684,0.0213706
-0.00940329,0.0111816
0.0212602,0.0102151
0.0420209,-0.00939006
0.0512977,-0.00862585
0.0381798,-0.0029926
0.00751742,-0.00913814
-0.0444065,-0.011082
-0.0577821,-0.00810694
-0.0108758,-0.00560849
0.000408383,-0.010027
-0.00021101,-0.0225851
-0.0186925,-0.0253866
-0.0533726,-0.0277989
-0.0731884,-0.0325463
-0.0330105,-0.0526753
0.0438769,-0.0892311
0.148088,-0.092799
0.234867,-0.00504051
0.24539,0.0585905
0.179562,0.00966132
0.0314523,0.0253993
-0.0959439,-0.0314776
-0.134613,-0.0657765
-0.157738,-0.0338026
-0.184321,0.0272363
-0.184254,0.0845022
-0.151701,0.041745
-0.0648443,0.0294686
-0.016056,0.0157696
-0.0318573,-0.00841714
-0.0114809,0.069103
-0.00700706,0.0530827
-0.0105871,-0.0704504
0.0169981,-0.037261
0.0336374,0.00956557
0.0524228,0.0348057
0.0508565,0.0281508
0.0468965,0.0240396
0.0594979,0.007347
0.0659837,-0.00798987
0.0627601,0.00698775
0.042375,-0.0368147
0.0394402,-0.0712066
0.0525961,-0.0401136
0.0225992,-0.0179054
-0.0176204,-0.00672214
-0.04042,-0.0234467
-0.0499803,0.000183317
-0.0307653,0.0534301
0.0022612,0.033053
-0.00639652,0.0108848
-0.0236446,-0.00366912
-0.0232583,-0.0111378
0.00257289,-0.0122269
0.00141841,0.00928191
-0.00312619,0.0152623
-0.00394933,-0.00961857
-0.00873607,0.0193181
-0.0165178,0.0163017
-0.0348733,-0.0294851
-0.0315521,-0.0295272
0.0307256,0.0227134
0.0803144,0.0272912
0.091792,-1.5e-06
0.0283369,-0.042564
-0.0419412,-0.0170461
-0.0633291,-0.000401038
-0.0686311,-0.0155443
-0.050609,-0.0400494
-0.00159862,-0.0287421
0.0964008,0.0564019
0.196565,0.0608192
0.167398,0.00362008
0.0255061,0.0299244
-0.116107,0.0244888
-0.151046,-0.0107939
-0.0982951,-0.0171058
-0.0680975,-0.0193966
-0.0535243,-0.00575364
-0.00336476,0.0288769
0.0377053,0.0364599
0.0166315,0.0101173
-0.00778678,-0.00888337
-0.0172974,-0.0201986
-0.00762113,-0.0255269
-0.0114175,-0.0331029
-0.00969068,-0.0264642
0.0198963,-0.000553856
0.0501443,0.0400245
0.048755,0.0414184
0.01335,0.0188107
-0.00525951,0.0164411
0.00790552,0.0104275
0.000836521,0.00324333
-0.0138642,9.99e-05
0.0219006,0.00755503
0.0608347,0.0245656
0.0489381,-0.0259558
0.0278304,-0.0506234
-0.00972896,-0.0393451
-0.0888121,-0.0365163
-0.0959604,-0.0350194
-0.0896632,0.00807012
-0.120084,0.01119
-0.0910491,-0.0195852
-0.0188998,-0.074722
0.0889027,-0.113026
0.151054,-0.0560714
0.130973,0.0569295
0.0565186,0.0927653
0.00338005,0.131941
-0.0152377,0.0697903
-0.0328288,0.00258426
-0.0542895,0.0266323
-0.028898,0.00558921
0.020515,0.0136152
0.026365,0.0227736
0.00128154,0.0125479
0.0123332,-0.0116229
0.0413916,-0.0332431
0.0313473,-0.0325888
-0.0130271,0.00966053
-0.0332258,0.0440857
-0.0298891,0.0365837
-0.00758176,0.0104814
-0.00100923,-0.0119806
-0.0168744,-0.025922
-0.0188219,-0.0271416
-0.018932,-0.0274853
-0.0194344,-0.0255293
-0.0209417,-0.0214682
-0.0179501,-0.0225743
-0.0143842,-0.0204175
-0.0182886,-0.0101543
-0.021319,0.00019358
-0.0171298,0.00439832
-0.0150113,0.00904892
0.00192636,0.0219554
0.0599539,0.0308884
0.147181,0.0295171
0.210031,0.0210385
0.212784,-0.000254154
0.140934,-0.0264929
0.014803,-0.0433913
-0.0714082,-0.0351471
-0.108958,-0.0183438
-0.133137,0.0224936
-0.170828,0.0158015
-0.196166,-0.12958
-0.104918,-0.0854754
-0.00751044,0.0189385
0.0233228,0.0213511
0.0473148,-0.0384747
0.0546404,0.00387402
0.00147493,-0.0106438
-0.0833107,-0.0347491
-0.0988894,0.0342721
-0.0390759,0.135314
0.000458122,0.193633
0.0111206,0.065277
0.0291644,0.0177886
0.0585847,0.0120329
0.0838488,-0.00462857
0.0828557,-0.00263852
0.0681022,0.00550432
0.0422477,-0.0110036
0.00904539,-0.0306053
-0.017882,-0.0183492
-0.0225544,-0.0306812
-0.0182558,-0.0270633
-0.0131096,-0.00971536
-0.0116427,0.0104866
-0.0186508,0.00750159
-0.0321706,-0.00796326
-0.0371003,-0.0149942
-0.0279387,-0.0146297
-0.0144702,-0.0126645
-0.0067243,-0.00720701
-0.0114335,-0.0124345
-0.0134424,-0.0142256
-0.00734557,-0.0092912
0.0114495,-0.00101576
0.032997,0.00603185
0.0608093,0.0106229
0.107931,0.0125943
0.154257,0.00999449
0.209064,0.0156751
0.171797,0.0269997
0.0643044,0.0184236
-0.0763491,-0.0102127
-0.158925,-0.0374295
-0.167294,-0.049109
-0.168708,-0.0261572
-0.18794,-0.0821976
-0.109244,-0.0640781
0.00533781,-0.0642031
0.0456016,-0.0738361
0.0471199,-0.0102491
0.0258204,0.0237965
0.0174803,0.103099
-0.0132703,0.0640531
-0.0412718,-0.0262283
-0.0220727,-0.00878491
0.00452012,0.00945534
0.0125813,0.0708195
0.00863732,0.0921526
-0.00800773,0.0620041
-0.0137702,0.0617552
-0.00905126,0.105594
0.0127219,0.0789166
0.0385121,0.00485738
0.0476514,-0.0169983
0.0396446,-0.0269951
0.028645,-0.0161774
0.0272839,-0.0240186
0.0244226,-0.0324507
0.0110263,-0.0287826
-0.00636593,-0.0254239
-0.0188299,-0.0304882
-0.0207023,-0.033466
-0.0156311,-0.0239602
-0.00983795,-0.0101477
-0.00748545,-0.00491968
-0.00896492,-0.00653702
-0.0092588,-0.0133385
-0.00263605,-0.0178621
0.00736387,-0.0157833
0.00982084,-0.00706066
0.00240131,-0.000921281
-0.0122271,0.00442736
-0.022797,0.00785666
-0.0241649,0.00522493
-0.0188908,0.00315065
-0.0193038,0.0045324
-0.0232225,-0.0142161
-0.0156655,-0.0375459
0.0467994,-0.0138771
0.148194,0.0371781
0.197812,0.0333716
0.119061,-0.0110296
0.0329477,-0.05665
0.0641186,-0.0546196
0.0501642,-0.13042
-0.0464731,-0.0812235
-0.13234,-0.00618684
-0.164687,0.00285498
-0.145063,0.0739502
-0.0884296,0.0812912
-0.0911268,0.0459353
-0.0904123,0.0155136
-0.0582337,0.111667
-0.00899195,0.0860457
0.0484919,0.01319
0.0640257,-0.0447164
-0.00576091,-0.0635014
-0.0361638,0.016628
-0.0160547,0.0342557
0.00462217,0.0430404
0.0208258,0.0467563
0.0476423,0.0492341
0.0657745,0.0368132
0.0715149,0.0215461
0.0618707,-0.00308137
0.0426028,-0.0144966
0.0225716,-0.0159388
0.0169319,-0.0270425
0.0139969,-0.0357237
0.00206834,-0.0356873
-0.0180885,-0.0340052
-0.0365353,-0.0291288
-0.0402802,-0.0132903
-0.0368408,0.00107813
-0.0315484,0.000895406
-0.0261919,-0.00152776
-0.0244645,-0.00434204
-0.0165507,-0.0104463
-0.00170561,-0.0130269
0.0157297,-0.0131315
0.0280295,-0.0137127
0.0227638,-0.0131281
0.00329675,-0.00649038
0.00371136,-0.00617574
0.0130296,-0.00831558
0.0150631,-0.00617313
0.0119448,-0.00283734
0.0359633,0.00378871
0.0407172,0.00855855
0.0215138,0.021674
0.0868634,0.014467
0.150484,-0.0218625
0.125216,-0.00744366
0.0794884,0.0626957
-0.0212164,0.033358
-0.188064,-0.0493667
-0.317839,-0.154002
-0.210932,-0.0529397
-0.10569,-0.0443913
0.00839665,-0.101671
0.0818214,0.0334958
0.0999422,0.142804
0.0626512,0.0989225
-0.00665582,0.0326878
-0.0378091,0.0694927
-0.030955,0.0847184
-0.0128373,0.0614074
0.0111392,0.0324303
0.00949092,0.00246499
-0.00632345,0.00287953
-0.00377875,-0.00332587
0.0221443,-0.0138669
0.0507986,-0.0143956
0.0629798,-0.0115074
0.0504341,-0.0055721
0.0282893,-0.0095931
0.0129544,-0.0215028
0.00819873,-0.0240971
9.89e-05,-0.0222346
-0.0178822,-0.0241455
-0.0424444,-0.0250873
-0.0603998,-0.0164258
-0.0595609,-0.0106846
-0.0463029,-0.0129293
-0.0304305,-0.00648614
-0.0220518,0.00315444
-0.0129339,0.00579151
0.00430278,0.00221933
0.0273344,0.00379808
0.0443157,0.00586089
0.0459126,-0.00719264
0.039837,-0.0337235
0.0417711,-0.0507768
0.04022,0.00333119
0.0161847,0.00015006
-0.0257383,-0.117483
-0.0533785,-0.128501
-0.0194101,-0.00699342
0.0686902,0.06168
0.147538,0.0446788
0.187539,0.0345169
0.194543,0.0562275
0.0621092,0.166357
-0.167964,0.118031
-0.25881,0.0545072
-0.194427,0.0360791
-0.0810932,4.9e-05
-0.00932868,0.00303359
0.0371713,-0.0100329
0.0402992,-0.0254582
-0.0214991,-0.0151836
-0.0780466,-0.00816273
-0.0583459,-0.0100152
-0.0285908,-0.0209091
-0.0337285,-0.0457316
-0.0263815,-0.0621944
-0.0191581,-0.0517522
-0.0272062,0.0191346
0.00330376,0.0462903
0.0524665,-0.00304369
0.073594,-0.024004
0.0700952,-0.0174953
0.0510045,0.00561474
0.0420819,0.0150561
0.0316648,0.00701529
0.0150109,0.00777463
0.0134079,-0.00249472
0.00459131,-0.0134731
-0.00271054,-0.0163346
-0.036775,-0.0314527
-0.0687857,-0.0427924
-0.0328551,-0.0161354
0.0227873,-0.0560658
0.0412042,-0.0734297
0.0402774,-0.0490894
-0.0253989,-0.00335347
-0.0831055,-0.0174362
-0.0360669,0.0218517
0.0577075,0.0526476
0.122469,0.0652441
0.156058,0.0475498
0.113877,0.0544341
0.0911159,0.0399719
0.0466627,0.0332022
-0.0491339,0.08336
-0.0867818,0.0340565
-0.142797,-0.0526382
-0.217355,0.00834541
-0.171177,0.0187293
-0.0990623,0.0126185
-0.0417185,0.023642
0.00166069,-0.00480494
0.0417852,-0.00555365
0.0731195,-0.0360309
0.0596161,-0.0589173
0.0241535,-0.0381299
0.0253594,-0.0268538
0.0310992,-0.0119996
0.0342399,-0.00520683
0.0596973,-0.0110707
0.0500608,-0.00220406
0.0119255,0.00746652
0.00222224,0.00665533
0.0131818,0.00694591
0.0125656,0.00753501
-0.010207,0.024187
-0.0402796,0.0142833
-0.0290526,0.00785293
-0.0123956,0.00569507
-0.0289741,-0.0135241
-0.0508547,-0.0389166
-0.0418463,-0.0587755
-0.00541928,-0.0434836
0.0101394,-0.0187849
0.00409587,0.0520475
-0.0252558,0.0510063
-0.0456313,-0.0179048
-0.00573845,-0.0486813
0.0791704,-0.0727881
0.124343,-0.0584534
0.0990938,0.0409691
0.0142668,0.115833
-0.0555861,0.080065
-0.0739624,0.0496794
-0.0494544,0.0746296
-0.0269331,0.0106792
0.0382132,-0.0641096
0.102907,-0.0176797
0.0732992,0.0249208
-0.00190057,0.0174161
-0.0458055,0.0190779
-0.0776275,0.0208197
-0.0752671,0.00244045
0.0172054,-0.017818
0.105483,-0.0175146
0.123528,-0.00711291
0.11051,-0.00790102
0.0507369,-0.0142802
-0.0548591,-0.0266466
-0.127911,-0.0437184
-0.127936,-0.0713041
-0.0846425,-0.00603761
-0.0515554,0.0362152
-0.047999,0.0322443
-0.0353416,-0.00794575
-0.0243322,0.00572746
-0.00518695,0.0204233
0.0103075,-0.00591152
0.0185193,-0.0285671
0.0195001,-0.0403019
0.0298754,-0.0206603
0.0261097,0.0177643
0.0256565,0.00214649
0.0357566,0.0275688
0.0102345,0.0378564
-0.0148118,0.0101429
-0.0195744,0.00966523
-0.0127242,-0.0104689
-0.0053137,-0.0119
0.0471629,-0.0263381
0.0855183,-0.0736212
0.0820859,-0.084301
0.0644516,-0.0552168
0.0513602,0.0326113
0.00564852,0.0627911
-0.0440316,0.0509691
-0.0993466,0.0662169
-0.0958471,0.0663694
-0.0295544,0.0479592
0.0170334,0.0664875
-0.00352385,-0.00848038
-0.0429521,-0.0283318
-0.0574495,-0.0109817
-0.0704444,-0.0151928
-0.0675448,-0.0252033
-0.0350423,-0.0507574
-0.00808386,-0.0174118
0.0300565,0.00490395
0.0523562,-0.0172058
0.0900154,-0.00579717
0.119187,0.0111363
0.10232,-0.0337403
0.0943189,-0.00696952
0.0795374,0.0419236
0.00777013,-0.0373765
-0.036249,-0.0852527
-0.036595,0.00073514
-0.0462458,0.0647368
-0.0418145,0.0649391
-0.0550754,0.0454118
-0.0750721,0.0291833
-0.0744345,-0.0033671
-0.0499423,-0.0145099
-0.00362352,0.000343074
0.0655564,-0.0185993
0.0616687,-0.0129891
-0.0204169,-0.00258696
-0.0477551,-0.00810357
-0.0183916,-0.0162448
0.0130636,-0.00914431
0.0151881,-0.00215921
0.0150561,0.00156078
0.00584847,0.00549034
-0.0246721,-0.000147186
-0.0281836,0.000863701
0.00131225,-0.000514507
0.0313523,0.00251854
0.0309779,-0.00755921
0.0153452,-0.0285299
0.00264294,-0.00595001
-0.00191392,-0.00259305
0.00561749,-0.0312241
0.0266732,-0.0156089
0.0258486,0.0385373
-0.00151034,0.0020542
-0.0468661,-0.0119911
-0.044036,-0.00494282
-0.0105229,0.000334328
0.00244507,0.0101998
0.0029606,0.0343708
-0.0103386,0.0476715
-0.0238688,-0.0525961
-0.0088806,-0.0227653
0.0133065,0.0243948
0.024629,0.0372225
0.069824,0.0129423
0.0932395,0.00659051
0.0518515,0.00666175
-0.0142412,-0.000617338
-0.0680329,0.000490396
-0.0280601,0.00781571
0.0133429,0.00853751
0.00201225,0.00151384
0.00476373,0.00232564
0.01458,-0.0129019
0.00360848,-0.0131334
-0.0338803,-0.0169817
-0.0512636,-0.0374098
-0.059007,-0.0345981
-0.047858,0.0255636
-0.0176461,-0.0180197
0.0165782,-0.0276201
0.0449879,0.0389829
0.0320248,0.0375947
0.0598474,0.00346445
0.100076,0.0116372
0.0806314,-0.0250129
0.0174349,-0.0592825
-0.0814918,-0.0344149
-0.148787,0.0488252
-0.13311,0.0329592
-0.0578177,0.0418039
-0.00144155,0.0342742
0.0256412,0.00174772
0.0198748,-0.00967714
-0.000443215,-0.0214179
-0.00396027,-0.0329621
-0.0084898,-0.0266118
-0.0131376,0.022539
0.0102957,0.0634406
0.0345958,0.0447402
0.0215889,0.000150078
0.012301,-0.0151273
0.026904,-0.0347706
0.0505109,-0.0416592
0.0727419,0.004221
0.112086,0.0167267
0.116525,0.0147081
0.04115,0.0371297
-0.0638021,-0.0449465
-0.0825109,-0.0829896
-0.0682621,-0.000439565
-0.0503988,0.0020469
-0.030924,0.0185329
-0.0372526,0.0492327
-0.0487545,0.0238183
-0.0270467,-0.0023517
-0.000483196,-0.0181913
-9.71e-05,-0.0490755
0.00446756,-0.0115218
0.0255805,0.0259386
0.029122,0.0129099
0.0380793,-0.0382167
0.0501801,-0.0616556
0.041229,-0.0238669
0.0133665,0.0374337
0.0121263,0.0346994
0.0137771,0.00280955
-0.0356898,0.0151134
-0.107249,-0.0243753
-0.0960342,-0.0351729
-0.0128953,0.0349602
0.0509625,0.0191952
0.0512305,0.0155726
0.03831,0.0244283
-0.00849368,0.0108153
-0.073328,0.0198365
-0.0875266,0.0386961
-0.0557071,0.0215391
-0.0218305,0.0169876
-0.00173693,-0.00110956
0.0266498,-0.0257464
0.067261,-0.034392
0.113762,-0.0102853
0.0976234,0.0219088
0.0189972,-0.0299261
-0.0361315,-0.0512474
0.00647485,0.0160538
0.0572939,0.0399191
0.0418805,0.00439647
-0.00428987,0.0132379
-0.0344551,-0.0211019
-0.0591255,-0.0374839
-0.0692801,-0.0165724
-0.105475,0.00391986
-0.115896,-0.000964795
-0.0220339,0.000155559
0.0533703,0.00969767
0.0820857,0.0140223
0.0410674,-0.00883104
-0.0146084,-0.0171623
-0.0155581,-0.0139024
0.00565789,0.0121408
-0.00255832,0.0287662
0.00376729,0.00655268
0.0150061,-0.0301111
0.0113153,-0.0526148
0.00875593,-0.0395595
0.00929863,-0.0156898
0.013652,-0.00268251
0.0131589,0.0173487
0.0105438,0.0432762
0.0375984,0.0470237
0.0407161,0.067301
0.0248784,0.0779786
-0.00184476,-0.0224572
-0.0217572,-0.0623801
0.0130527,-0.0709531
0.0712765,-0.0236155
0.0765662,0.0886788
0.0487569,0.033915
0.00693153,-0.0316434
-0.0686723,-0.057246
-0.103153,-0.028393
-0.114294,-0.0455519
-0.0739271,0.0343665
-0.0323136,0.0176046
-0.037145,0.0221616
0.00142924,0.0332188
0.065622,0.00219773
0.122496,-0.00572872
0.0864402,-0.0266304
-0.0187455,-0.1201
-0.0767802,-0.0995902
-0.042285,0.0121428
-0.0447343,0.00941477
-0.0915519,0.0570079
-0.0753583,0.0684145
-9.91e-05,0.0642807
0.0262254,0.0821015
0.0150559,0.00883633
0.0252398,-0.0170169
0.0371789,0.0360289
0.0112611,0.0182791
-0.00513267,0.00587167
-0.00828641,0.0159582
-0.00373989,0.0107821
-0.00116857,0.0195022
0.00203627,0.0058932
0.00454302,-0.0114211
0.0108133,1.35e-05
0.013686,0.00948649
0.0162211,0.00487674
0.0202937,-0.0193886
0.027978,-0.0429848
0.0449249,-0.0407089
0.0427694,-0.0496044
0.0332862,-0.0501253
-0.0126326,-0.0361298
-0.0389044,-0.00209659
-0.000881894,0.0166603
0.0309082,-0.0175554
0.0540738,0.0452789
0.0769614,0.0529824
0.0155778,-0.0155187
-0.0384296,-0.0011343
-0.0705349,-0.00835117
-0.0918099,0.000591024
-0.0552517,0.0146428
-0.0294531,0.00398536
-0.032545,0.0151795
-0.020532,0.00824807
-0.00372118,-0.0370943
0.013341,-0.0410019
0.0397951,-0.035599
0.0502518,-0.0115288
0.00327279,0.00383659
-0.048823,0.0126517
-0.0498123,0.00527101
-0.0249334,0.0342212
-0.0002591,0.0347358
0.0258133,0.0162763
0.0390459,0.00780709
0.029113,1.82e-05
0.0122609,-0.01467
-0.00590016,-0.0179294
-0.00575766,-0.00244895
0.00312997,0.00378967
0.0238064,-0.00379959
0.025171,0.0122644
0.0125002,-0.0192773
0.0179343,-0.0497054
0.0230683,-0.0209537
0.0039204,-0.0307953
-0.0276433,-0.0299112
-0.0727456,0.022864
-0.0867071,0.0662458
-0.0440248,-0.00226318
0.00298081,-0.00403105
0.0672573,0.0351737
0.142873,-0.0213905
0.192146,0.0016817
0.143226,0.0729735
0.00905918,0.0796577
-0.0678028,0.0551336
-0.0922344,-0.00365005
-0.0774948,-0.0241128
-0.0629816,-0.0315407
-0.081182,-0.032376
-0.0751988,-0.000592572
-0.00867729,0.0473817
0.0809848,0.037368
0.0740002,-0.0653411
0.00918681,-0.0523458
-0.0551701,0.00278194
-0.0855261,0.00150166
-0.083821,0.000582399
-0.100125,-0.00955052
-0.115076,-0.040195
-0.0680307,-0.0291295
0.0160601,-0.0219567
0.0772908,-0.00581361
0.0958231,-0.00873838
0.0750918,0.00201723
0.035928,0.0156914
0.0222428,0.00157878
0.0185107,0.00638603
0.0200423,0.0383642
0.0227521,0.0207148
0.0054553,-0.0113709
-0.00781429,-0.00318573
5.09e-05,-0.00762072
0.0127662,-0.0183841
0.0252669,-0.0172754
0.0479155,-0.00239861
0.0623546,0.00988019
0.0482623,0.0345696
-0.0030475,0.0285692
-0.038358,0.0148742
-0.0594688,-0.00546754
-0.067615,-0.0313836
-0.0437976,-0.0264353
-0.0334181,-0.0269143
-0.0310608,-0.0335517
-0.018395,0.0412136
-0.0229996,0.0526756
-0.0133547,0.0112654
0.0757055,0.0197014
0.141641,-0.0109175
0.122358,-0.0223559
0.0581503,-0.00977353
-0.0516675,-0.0734448
-0.0775402,-0.0315051
0.0117023,0.0307413
0.0144074,0.0137036
-0.045305,-0.00432596
-0.0586663,-0.0104208
-0.00802142,-0.0277222
0.0317604,0.0111641
0.0215493,0.0290603
-0.0191376,0.0395739
-0.0537293,0.0499003
-0.0422473,0.0329533
-0.0183441,0.0464295
0.0111459,0.0194279
-0.00162535,0.00678413
0.00206938,0.00323819
0.0135986,-0.00871305
-0.00495105,0.0170106
-0.03644,0.00885757
-0.0329718,-0.0226942
-0.0111893,-0.0169864
0.00740759,-0.0146142
0.0309367,-0.00514988
0.0241476,-0.021624
0.00461179,-0.0281391
0.00273374,-0.0208857
-0.00204575,-0.0248336
-0.00989823,0.0109409
0.014892,0.0255323
0.0297762,-0.0251459
0.0144311,-0.052949
0.00847371,-0.014812
-0.0107057,-0.0201329
-0.0253894,-0.0230605
-0.0317708,0.0128687
-0.0119182,-0.00457402
0.0340838,-0.0149254
0.0435682,0.0249559
0.0333002,0.0278605
0.0154722,0.0297116
-0.0227875,-0.00424947
-0.0115739,-0.0136468
0.00532643,-0.00520851
-0.0133852,0.0114992
-0.0127871,0.0141445
-0.0160775,0.0230455
-0.0435084,0.0346808
-0.0474508,-0.00894706
-0.00932072,-0.0259924
0.081504,0.000446975
0.156385,0.0335442
0.146696,0.0226432
0.062398,0.00600131
-0.01733,0.00949963
-0.0314133,0.00754763
-0.0370356,0.00137981
-0.0649567,-0.0182272
-0.101416,-0.0163735
-0.128089,0.00785203
-0.0908551,-0.0425453
-0.0154756,-0.0188331
0.0148616,-0.0103822
0.0085647,-0.00418448
0.00562603,0.00080887
-0.0059623,0.0170558
-0.0138159,-0.0180445
-0.0183842,0.00751041
-0.0115255,0.0120858
0.0345906,-0.0264853
0.0669245,-0.109049
0.0590708,-0.0102555
0.0234514,0.138307
-0.0384158,0.0472189
-0.0582498,-0.013359
-0.0287758,0.0138474
-0.0151113,-0.00494969
0.0363868,0.0142577
0.0423017,-0.00427688
0.024183,-0.0210559
0.0328698,-0.00139078
0.0427426,-0.00726029
0.0415482,-0.0423285
-0.0080083,-0.027637
-0.0405597,-0.00677109
-0.0363372,-0.0138958
-0.0313157,0.028943
-0.0076911,0.0486433
0.00447805,0.0392012
0.00890345,0.0299142
0.0126819,0.0120072
0.00631648,0.00187095
-0.00256833,-0.0147379
0.0114764,-0.00796094
0.0218923,0.0134131
0.00378697,-0.00454919
-0.013005,-0.0221231
-0.0181345,-0.034928
-0.0320803,-0.00644745
-0.0335891,0.0032256
-0.0184559,-0.00336036
-0.0116532,0.0107687
-0.018016,0.00780815
0.00772751,0.00182161
0.0517109,-0.0304044
0.0975824,-0.0455276
0.107049,-0.0192266
0.0864381,0.00942235
0.0502162,-0.00769699
0.0112815,-0.00887263
-0.0243974,-0.0157919
-0.0234542,0.0265346
-0.00457477,0.0730591
-0.0229422,0.0218231
-0.0741073,0.00587359
-0.116795,-0.0195942
-0.110249,-0.0131008
-0.0794924,0.0133226
-0.0351461,-0.0353824
-0.00180431,-0.0131268
0.00901855,0.00879441
-0.00903428,0.0383993
-0.012057,0.0144006
0.00654978,0.0122465
0.0349153,0.0171209
0.0583006,0.00290095
0.0533688,-0.0104099
0.0183417,-0.00242611
-0.00701063,-0.007647
-0.0043288,-0.010979
-0.0112465,-0.012967
-0.0300617,-0.0232708
-0.0573292,-0.0313309
-0.0520246,-0.0374034
-0.00304584,0.0175679
0.0547181,0.0583056
0.12516,0.042146
0.139381,0.0243759
0.0521976,-0.0280164
-0.0233381,-0.0400451
-0.0418213,-0.0293088
-0.0381904,0.0298098
-0.0202632,0.0324115
-0.0117476,-0.00446618
0.00421731,-0.0173216
0.0049462,-0.0139837
0.00692229,0.0126134
0.00215729,0.00103363
-0.00472715,-0.0229444
0.0159232,0.00133063
0.0485389,0.0188183
0.0163237,-0.0180958
-0.0506799,-0.00204329
-0.0628133,-0.0364125
0.0195188,0.000675336
0.0681985,0.0707188
0.0345454,-0.00118367
-0.0162237,-0.0159712
-0.0680133,0.0127606
-0.062435,0.00904438
0.0167992,-0.00490142
0.102469,0.0377696
0.0962686,0.0316709
0.0125687,-0.0282187
-0.0632603,0.0114429
-0.110717,-0.0111698
-0.105172,-0.0223983
-0.0653117,-0.00214052
-0.0253741,0.00381476
-0.0152699,-0.00261263
-0.00967861,-0.0334678
-0.00737525,-0.0463622
-0.0204784,-0.0357915
-0.0203878,-0.00724498
-0.0152908,-0.000451129
0.00406306,0.0173309
0.0482861,0.024426
0.071796,0.0122869
0.0702418,-0.0337077
0.0353737,-0.000432163
0.0228101,0.0206697
0.017425,0.0084745
-0.029275,-0.0181616
-0.0335431,-0.0214424
-0.0230617,0.0168748
0.00305624,0.0575642
0.000285608,0.0249579
-0.0222015,0.0160627
-0.0321036,0.00892293
0.000939016,-0.00198023
0.0365847,0.0180328
0.0443188,0.0119049
0.0342052,-0.00749778
0.020927,-0.00877679
0.009527,0.0176426
-0.0148232,-0.0229695
-0.0132691,-0.0879676
0.0158645,-0.0520673
0.0161266,0.0319452
0.0186915,0.0528087
0.00961562,-0.00206998
0.00587785,0.0708602
-0.0144594,0.0267542
-0.027489,-0.0248924
0.0126509,-0.0121087
0.0561045,-0.000660198
0.0288737,-0.00438567
-0.0332221,-0.021552
-0.0761875,-0.0283706
-0.0474358,-0.0231445
-0.000272146,-0.00612375
-0.0170964,0.0213449
-0.0288108,-0.00390108
0.0052355,-0.022033
0.0444593,-0.0269281
0.0624635,-0.0263799
0.0471588,-0.0234054
0.0315672,0.00176076
0.0462117,0.0564051
0.0424445,0.0681009
-0.0153226,0.00250132
-0.0709077,-0.0147418
-0.0883985,0.000946982
-0.091078,0.0110548
-0.0885628,-0.00465486
-0.061163,-0.00792811
-0.0174647,-0.00106561
0.0110326,0.00606057
0.0380614,-0.0327307
0.0423821,-0.00727435
0.0357471,0.0845336
0.0526481,0.0227736
0.0541943,0.00899975
0.00919801,0.000422764
-0.015197,-0.0228324
-0.0184978,-0.0129933
-0.0244003,0.00281353
-0.00686212,0.0046728
-0.00248643,-0.00402133
0.0103692,-0.0132579
0.0320538,-0.0168169
0.030703,-0.0168714
0.00947271,-0.0123192
0.00832447,-0.00684611
0.0156366,-0.0146668
0.0260998,-0.0097148
0.020068,0.0199252
-0.0196603,-0.0231712
-0.0595075,-0.0084742
-0.056415,-0.0301652
-0.0314115,-0.0273241
0.00737727,0.0310694
0.0443319,0.0289488
0.012156,0.0206455
-0.0500764,0.0337375
-0.089008,0.0161899
-0.0393817,0.00083156
0.0565768,-0.0153568
0.0995162,-0.0392191
0.0952351,0.00960428
0.0410814,0.0472684
-0.0639604,0.0190399
-0.112479,-0.0138499
-0.0194799,-0.0174896
0.0866317,-0.00773249
0.0994926,-0.00219648
0.0326046,-0.0216397
-0.0619113,-0.0105211
-0.107427,0.00973039
-0.0854841,0.00172447
-0.0161122,-0.0117512
0.0463675,-0.0239989
0.0544565,0.0228482
0.0551598,-0.0149022
0.0948037,0.00494072
0.0904665,0.0473265
0.0263175,-0.0110463
-0.0601316,-0.000658552
-0.120944,0.0293055
-0.0888635,-0.00495701
-0.0377654,-0.0375101
-0.0237242,-0.00511816
-0.0294138,0.0149772
-0.0217641,0.0299345
0.0113668,-0.031945
0.020158,-0.0299156
0.0243135,0.0536103
0.0269209,0.0411367
0.018964,0.0019969
0.00627629,-0.0119762
0.0287529,-0.0302292
0.0578279,-0.0394058
0.0466895,-0.00822206
0.0205837,0.00629346
-0.0110809,0.0208881
-0.0443376,0.0285211
-0.060887,0.00800115
-0.0494757,-0.012692
-0.0209447,-0.0488635
-0.000426033,-0.00799239
0.00422861,0.0129893
0.00712062,-0.0217727
0.023354,-0.0150716
0.0232603,-0.00920395
0.00298832,0.027822
-0.0271169,0.0624036
-0.0414727,-0.00605782
-0.0324266,-0.016964
-0.0142725,-0.00637188
-0.00317322,0.0607409
0.014077,0.00402644
0.0390081,-0.0305469
0.0247616,-0.0279974
0.00777075,-0.026231
0.0438811,0.0362155
0.0858758,0.0690877
0.105166,0.0141867
0.0693168,-0.0624267
-0.0209285,-0.0157007
-0.132644,0.0381709
-0.126485,0.0351736
0.00209542,0.000209156
0.0779196,0.00914252
0.0482049,-0.00978076
-0.0476334,-0.0381376
-0.0922838,-0.00577866
-0.0342643,-0.0069272
0.0217343,-0.0130344
0.0178631,0.00224779
-0.00427025,-0.00265714
-0.00574654,0.0090546
0.0373595,0.003202
0.0608197,-0.0126169
0.0456032,-0.0259609
0.0122624,-0.0253784
-0.0431321,0.0152706
-0.0878757,0.0294571
-0.0682078,3.79e-05
-0.0202584,-0.00990304
0.0236898,0.0183686
0.0452226,-0.00122539
0.0312882,-0.0107504
-0.00676035,-0.0156295
-0.0327891,-0.0160976
-0.0374485,0.00219799
-0.019806,-0.00385123
0.00242364,-0.013169
0.0185316,-0.0301191
0.0179147,-0.0371144
0.00575418,-0.0278951
0.0207505,-0.00505748
0.0670445,-0.00552452
0.0534947,0.0410828
-0.0102542,0.0384091
-0.0520866,0.0233853
-0.0474985,0.0488348
-0.00972791,0.0715123
0.0122074,-0.00982778
-0.0117948,-0.0105865
-0.0445902,-0.0249583
-0.0630377,-0.0300716
-0.0323632,-0.00484663
0.0144742,-0.00710083
0.0461377,-0.00258575
0.0533814,0.00620816
0.0270852,-0.0362541
0.00679531,-0.019946
-0.0229143,0.0188529
-0.0330079,0.0267404
-0.0195486,0.0216859
-0.0162856,0.0192189
0.0264836,-0.00127343
0.104964,-0.00179619
0.0860606,-0.0170274
0.0164989,-0.0270275
-0.0230848,-0.0319712
-0.00315339,0.0286789
0.0450373,0.0679902
0.0408933,-0.0364809
0.0172189,-0.0332093
-0.00739338,0.0268953
-0.0403145,0.0182434
-0.0799184,0.00709964
-0.0995642,0.00325488
-0.0656499,0.000459383
0.0039078,0.00262517
0.0482199,-0.00512392
0.067098,-0.00894853
0.0553118,-0.00160489
0.0381967,-0.0114709
0.0497812,-0.0179846
0.0179586,-0.0232386
-0.0752125,-0.0224006
-0.0974753,-0.00446764
-0.0938287,0.00694306
-0.0493342,0.00768889
-0.00260938,0.0256746
0.00195083,0.0865762
-0.00804334,0.0135649
-0.0154846,-0.0413064
0.00011907,-0.016485
0.0335508,0.00184583
0.0376028,0.0146682
-0.00882384,0.0125971
-0.0438267,-0.0236305
-0.0398871,-0.0259594
0.0165083,-0.00618007
0.0722037,-0.0735476
0.0968441,-0.0276647
0.0839098,0.00981238
0.0262362,0.0145089
-0.0170032,0.0133117
-0.0151291,0.031659
0.00456842,-0.00934411
0.00186248,-0.00435342
-0.0382504,0.0260228
-0.00863273,0.0322426
0.0235178,0.0319641
-0.000859181,0.0372796
-0.0325355,0.0155703
-0.0578831,0.000658377
-0.0493684,0.000771241
-0.0273417,-0.00388912
-0.0142077,-0.0167484
0.0113845,-0.0169234
0.0271707,-0.014894
0.00646395,-0.0138924
0.00322635,-0.0146233
0.0588291,-0.0234424
0.0760894,-0.000173346
0.00956581,0.0218901
-0.0522252,-0.0146006
-0.0513041,-0.00239948
-0.0188187,0.0099799
-0.0111352,0.00963818
-0.0240723,0.0229892
-0.0156063,0.030562
0.0168157,-0.0106614
0.0519662,-0.0200439
0.0511377,-0.0199185
0.0217203,-0.0342795
-0.00479209,-0.0194065
0.00359144,-0.00489493
0.0173453,0.0234774
0.0210459,0.00546245
0.0250488,0.00205307
0.00993255,-0.0194995
-0.00580257,-0.016988
-0.034212,-0.0112699
-0.0607107,-0.00446065
-0.0645453,0.0383649
-0.0515038,0.0395233
-0.0354223,-0.00412524
-0.0169703,-0.0090232
0.00243181,0.000926346
-6.69e-05,-4.75e-05
-3.83e-05,-0.00589082
0.0293702,-0.0033866
0.0497192,-0.000692875
0.0187381,-0.000474566
-0.0157448,0.00549699
-0.0069364,0.0109727
0.0103394,0.00722125
0.0151806,-0.00361771
0.0290283,0.000903462
0.0594294,0.00232726
0.0641541,0.000327687
0.0485162,0.00441068
0.0103691,0.0100831
-0.00763036,0.00547901
0.0297143,0.000635558
0.0454649,-0.00375895
0.00133834,-0.00252848
-0.0549448,-0.00643047
-0.0708312,0.00430757
-0.0760251,0.00158709
-0.0509328,-0.031186
-0.00178332,-0.0178135
0.00902155,-0.0242056
-0.0128561,-0.0347416
-0.0407581,0.00098805
-0.0316613,0.0146181
-0.00604144,0.00826227
-0.0147654,0.00802791
-0.0329059,-0.0104994
-0.0230921,-0.00143539
-0.00290679,0.0311763
0.0418277,0.000757629
0.0547032,0.0131422
0.0254112,0.0231575
0.00749305,-0.00589236
-0.0142678,-0.0244668
-0.0365694,0.0300814
-0.0407566,0.0439118
-0.0318134,-0.0335759
0.00432028,-0.0457089
0.0587463,0.0112286
0.0738662,0.0203703
0.0935826,-0.0082509
0.094814,-0.00331278
0.0422638,0.0478848
-0.0332985,0.0173338
-0.0882898,-0.0395558
-0.0656324,-0.0128509
-0.0178032,-0.00692547
0.00790559,-0.00786609
0.0219004,0.0169708
0.026738,0.00214707
0.00997089,-0.0161105
-0.0469306,0.00408908
-0.0872825,0.0247284
-0.0707048,0.00386898
0.0263887,0.00375733
0.0724124,0.0206817
0.0450967,0.0199414
0.0197966,-0.0015377
-0.00280418,-0.0360074
-0.0236353,-0.0219365
-0.0514407,0.00440449
-0.0276479,-0.00739357
0.0450577,-0.0185452
0.104535,-0.013494
0.0948681,0.0110275
0.100243,0.0202652
0.0784744,0.0024191
-0.0474842,-0.00801982
-0.127109,-0.00652224
-0.106994,0.00297697
-0.0628948,-0.0153436
-0.0393081,-0.0253672
-0.0190071,0.00557922
0.000142988,-0.0192775
-0.00818423,-0.0194925
-0.0384156,0.0287892
-0.042325,-0.0184065
-0.00375431,-0.0041956
0.0117483,0.0474296
0.00177045,0.0406864
0.0114621,-0.00620789
0.0302629,-0.0065072
0.0148021,0.00210161
0.0106961,0.00393784
0.023731,-0.00596459
0.0208203,-0.00869265
0.0188966,-0.00999886
0.00339243,0.00329611
0.00267953,-0.0233187
0.0283383,-0.00205488
0.023846,0.00459088
0.00672467,-0.0169288
-0.00397053,0.0243609
-0.0163284,0.0894846
-0.0266559,-0.00783813
-0.0210027,-0.0212152
-0.011541,0.00436917
0.0102651,0.00337241
0.0112247,-0.0110223
0.00537986,-0.0269849
-0.000913196,-0.0209593
-0.00706662,0.0076293
-0.0121657,0.0320705
-0.00787959,0.0138104
-0.000579264,-0.0043276
0.0093896,-0.0137437
0.0137375,-0.00909768
0.0159879,-0.00511705
0.0118567,-0.0138173
0.00999932,0.000109802
0.0127879,0.0173426
0.0126644,0.00935511
0.0066292,0.00161409
-0.034485,-0.0025499
-0.0656892,-0.00586573
-0.058275,-0.00639125
-0.00500366,-0.00547696
0.0618638,-0.00863126
0.0624216,-0.00572689
-0.000189704,0.00310993
-0.0622139,0.00243569
-0.0600797,-0.00181587
-0.0135026,-0.00401117
0.0101649,-0.00426708
0.0179442,-0.0097446
0.0170823,-0.005315
0.00546677,0.014892
0.00410999,0.022572
0.022755,0.0106494
0.0523535,0.00520709
0.09953,0.00644061
0.121827,0.00545905
0.0785146,-0.00746392
0.00889408,-0.00982121
-0.0683615,-0.0112583
-0.121581,-0.0107686
-0.105075,-0.00205562
-0.069139,-0.00128167
-0.0228481,-0.00171763
0.0279068,0.000374287
0.0853068,-0.00329552
0.0735244,-0.0135133
0.0123451,-0.00576303
-0.0609842,0.00477292
-0.107205,0.0138064
-0.0978451,0.010297
-0.0372454,0.0040215
-0.00858862,-0.00267373
0.00846334,-0.00704114
0.0231569,-0.00722777
0.0295002,-0.00801912
0.0322661,-0.0052079
0.0122192,0.00367702
-0.00312707,0.00783862
-0.000171053,0.0099109
0.0082034,0.00584834
0.00650092,0.000355012
0.00697615,-0.00701843
0.00921873,-0.00259746
0.0134384,0.0122362
0.00776317,0.0195944
-0.00486342,0.00856172
-0.0184372,0.000438428
-0.0263084,-0.00113048
-0.017291,-0.000221141
0.00373144,-0.00162266
0.0257187,-0.00534081
0.0541543,-0.00415605
0.0666814,-0.000728539
0.0537093,0.00447027
0.0414739,0.0055655
0.0220423,0.00449041
-0.00083069,0.00511162
-0.0209131,0.00375638
-0.0427926,-0.000243447
-0.0740192,0.00120033
-0.0629996,0.0202852
-0.0256613,0.0296976
-0.011242,-0.0116403
0.00643696,-0.0553454
-0.0133834,-0.053023
-0.0824419,-0.0497987
-0.0941798,-0.0448458
-0.0378412,-0.0227202
0.0375856,-0.00829554
0.079634,-0.0198657
0.077705,-0.0315701
0.06516,-0.0232894
0.0540331,-0.000552325
0.0330668,0.0283419
0.00836926,0.0539939
-0.000639772,0.0763944
0.00932279,0.0869474
0.0148955,0.0939447
0.00298391,0.0734942
-0.0108713,0.0348982
0.000207244,0.0150222
-0.02005,0.0045952
-0.0617564,-0.011762
-0.0475001,-0.0360209
0.0159362,-0.0564765
0.0805129,-0.0515361
0.0659013,-0.0313997
-0.0242424,-0.0312216
-0.0504665,-0.0770931
-0.00734311,-0.091544
0.0211129,-0.0503252
0.00847764,-0.0272191
-0.00472105,0.0035234
-0.009974,0.0465497
-0.0451967,0.0845576
-0.0834099,0.0947026
-0.0857573,0.0840293
-0.0668492,0.0395625
-0.040648,-0.0218583
-0.0205605,-0.0373513
