Comp Ch 3,Comp Ch 4
0.0801308,0.0277277
-0.0402458,0.0841251
-0.0467228,0.108844
0.048591,0.0856541
0.102022,0.0752672
0.0555722,0.0558403
-0.0330114,-0.00927527
-0.0263229,-0.0776522
0.0595188,-0.0768803
-0.0523102,-0.015038
-0.27902,0.0129894
-0.14614,-0.0100237
0.174142,-0.0224187
0.2273,-0.0333456
0.101507,-0.00245591
0.0345522,-0.0190926
0.078283,-0.0251805
0.073025,0.016418
0.0148784,0.0818156
-0.0470398,0.0787317
-0.12002,0.0308485
-0.170104,-0.0153475
-0.061958,-0.0573547
0.0255015,-0.0417122
-0.0595221,-0.00422836
-0.105014,0.030124
-0.0808173,0.03645
0.0411821,0.0190696
0.185261,0.00835334
0.135496,-0.0329198
0.0553598,0.0169982
0.0600513,-0.0164815
-0.0463651,0.0141189
-0.301234,0.0778113
-0.415872,0.0265994
-0.284168,0.00354073
0.0644025,-0.0259682
0.369024,-0.0087727
0.418514,-0.0406563
0.297741,-0.0319398
0.17083,-0.00877705
0.0280452,-0.127493
-0.0765814,-0.067094
-0.164779,0.0483084
-0.224458,0.120197
-0.229807,0.0598639
-0.0704298,0.0106768
0.131467,0.0243216
0.121392,0.0154743
-0.0109246,0.00484708
0.0708527,-0.0193572
0.150083,-0.0368086
0.100154,-0.00613694
0.0482758,0.00210224
0.0172579,-0.0170138
-0.113598,-0.00344397
-0.123314,0.0233894
-0.0686651,0.0108744
-0.0205918,0.0219658
-0.007214,0.0448246
0.0114409,0.0450562
-0.037429,0.0204893
-0.13018,-0.00661208
-0.187121,-0.0479836
-0.0689621,-0.123464
0.106318,-0.147125
0.198998,-0.0977459
0.0998597,-0.168187
0.0530711,-0.0822509
0.0270498,-0.0541018
0.0508431,0.126776
0.0497022,0.133089
-0.0408568,-0.00562874
-0.108951,-0.151839
-0.103665,-0.0921963
-0.0119256,-0.0114153
0.0514359,0.0696452
0.0201426,0.216448
-0.0177599,0.263616
-0.0370873,0.200412
-0.0827184,0.128578
-0.198637,0.0306467
-0.136922,0.0127888
0.10623,0.0118565
0.238873,-0.0266829
0.142264,-0.0313713
0.0217114,0.0277332
-0.0686414,-0.00529362
-0.0921834,-0.208786
-0.0356306,-0.112946
0.034087,-0.0617903
0.0360386,-0.216923
0.100158,0.062466
0.0180751,0.260929
-0.0314895,0.0273937
0.0550973,0.0143803
0.058759,0.0699782
-0.00252021,0.0247764
-0.0104812,-0.00608495
0.0139534,-0.0371305
0.0309383,-0.0809569
-0.0165319,-0.102964
-0.0848215,-0.096716
-0.0799575,-0.0437922
-0.014373,-0.0622771
0.0661422,0.0268666
0.0277647,0.111965
-0.0360394,0.101113
-0.0649773,0.0116814
-0.0309264,0.00735952
0.0326533,-0.0385291
0.0707411,-0.0944225
0.030199,-0.0139439
-0.0218157,0.120486
-0.0404203,0.109952
-0.0229723,0.0994741
0.0145786,-0.0744017
0.0557883,-0.0312881
0.0558992,0.0455617
0.0170528,0.0203756
-0.00871571,-0.0190806
-0.00984575,-0.0107933
-0.0346356,-0.0454563
-0.0759569,-0.0719465
-0.0941753,-0.0162375
-0.0799729,0.0153596
-0.0470942,-0.0105989
0.0151135,-0.0956537
0.0986075,-0.0781302
0.118547,-0.0187077
0.0637188,0.0434459
0.0655551,0.0661453
0.109161,0.0965111
0.058545,0.0526352
-0.0508382,0.0363819
-0.10797,-0.0161879
-0.105275,-0.0765595
-0.0472033,-0.122907
0.0143813,-0.107722
-0.00152319,-0.115736
-0.0259169,-0.092911
-0.019069,-0.0952261
0.0152904,-0.0611896
0.0212377,-0.0108792
0.0284354,0.134365
0.0163488,0.210894
0.0124721,0.121675
0.00323137,-0.101232
0.00770814,-0.160319
0.0417674,0.049184
0.0435448,0.171609
-0.00475147,0.130247
-0.0418562,0.159653
-0.0085661,0.121628
0.0144339,0.0332282
-0.0026521,-0.0278929
-0.00474935,-0.0673594
0.0504378,0.00729605
0.0527555,0.0757082
0.02065,-0.01254
-0.0145864,-0.0226215
-0.0832617,-0.0441079
-0.0707667,-0.0656743
-0.0418898,-0.0541661
-0.012023,-0.0727558
0.000234017,-0.082922
0.0128161,-0.0345442
-0.0396449,0.00121297
-0.0541075,0.032347
-0.0293613,0.0339884
0.00582324,0.0147889
0.0360126,0.0159927
0.0241056,0.066443
-0.00939432,0.0188032
-0.0373186,-0.049627
-0.0486767,0.00834753
-0.0341422,0.0355794
-0.00826178,-0.00355493
0.0263975,-0.0674734
0.0548141,-0.0160246
0.0184311,0.0583202
-0.047991,0.0408539
-0.0192855,-0.0224535
0.0892512,-0.0804514
0.0874913,-0.0586386
0.0392959,-0.0357403
0.0168262,-0.0256097
-0.00787793,0.00494489
-0.0163325,0.0443958
-0.0252054,0.0305515
-0.040705,0.0381642
-0.0340532,0.0760065
-0.0109474,0.00836522
0.0272331,-0.0152462
0.0548243,-0.00399942
0.00448497,0.0151562
-0.058382,-0.0105177
-0.0478509,-0.0356531
0.0327905,-0.0492574
0.0686356,-0.0496818
-0.0137496,-0.0416509
-0.104891,-0.0302372
-0.0800629,0.0588255
0.00243669,0.0437109
0.0980999,-0.0496251
0.148238,0.0399651
0.0789375,0.0509788
-0.0270646,-0.00155466
-0.0303284,-0.0239422
0.0278087,0.028941
-0.0160591,0.0361574
-0.0413004,0.00393632
0.00922238,-0.0144212
0.0283793,-0.0520068
0.0197259,-0.0335126
0.00543616,-0.0265356
0.0164305,-0.0317462
0.00950308,0.00781957
-0.0350822,0.0688632
-0.0989565,0.0400105
-0.0986826,-0.0171749
-0.0504144,-0.030962
-0.043543,0.00684506
0.0180726,0.0708175
0.0421195,0.0565971
0.00276067,0.0267473
0.00286383,-0.016447
0.0456452,-0.11485
0.0751474,-0.214678
0.0762391,-0.191744
0.0720366,-0.0931943
0.0818584,-0.0129785
0.0436004,0.106731
-0.0352303,0.202165
-0.0886948,0.202591
-0.0553486,0.184617
-0.00144632,0.0832939
-0.0148235,-0.0212655
-0.0780921,-0.0632385
-0.17243,-0.0195322
-0.170089,0.00621122
-0.0682257,0.0301476
0.0221526,0.057802
0.0114666,0.0414916
0.025077,0.00532338
0.0643408,-0.108331
0.0937233,-0.076243
0.0827923,-0.0630455
0.0482985,0.00431844
0.0157512,0.0171688
0.0182465,-0.000705696
0.0424173,0.0151996
0.0654301,0.0378521
0.071915,0.0293268
0.0269009,-0.0434547
-0.0216181,-0.0763028
-0.0234727,-0.0980335
-0.0253144,-0.0536248
-0.0352524,0.00768937
-0.00258313,0.0663071
0.0601931,0.0888348
0.0914563,0.0657733
0.0597453,0.0409489
0.0147144,0.0104436
-0.0096335,-0.0133251
-0.00795368,-0.0626115
-0.00874017,-0.0772564
-0.0451368,-0.0709419
-0.121951,-0.0192555
-0.183974,0.0280134
-0.100729,0.0202456
0.0461762,0.00590658
0.120605,-0.00903052
0.0971439,-0.022583
-0.00145935,-0.00254735
-0.100268,0.00173272
-0.118267,0.0125765
-0.0814869,0.0750343
-0.0162361,0.0261005
0.0196351,-0.00496914
0.0448658,-0.0155253
0.0477645,0.0348409
0.00682546,0.10139
-0.0132674,-0.0313488
0.0352709,-0.0705056
0.00822678,-0.0235147
-0.0360778,-0.0059868
-0.0709521,-0.0177426
-0.0513099,-0.0235021
0.0193879,-0.0238563
0.0880325,-0.016685
0.0805223,-0.0123257
0.0170671,-0.0160205
-0.0379899,0.0133104
-0.0424735,0.024447
0.0172171,0.038089
0.0525349,0.0249593
0.0696396,-0.0507965
0.128563,-0.0487792
0.146404,-0.043067
0.109569,0.0944207
0.000446811,0.0519603
-0.139617,-0.0694316
-0.141861,-0.00405276
-0.0697055,-0.0530624
-0.0273753,-0.0196906
0.00350824,0.0214573
0.024428,0.017593
-0.000713779,0.0229302
-0.020634,0.0443033
0.0195668,0.0160666
0.0698569,0.0118009
0.0348371,-0.00987832
-0.0499026,0.00704681
-0.102586,0.00264003
-0.0845639,-0.020833
-0.0243531,0.0016436
0.00665089,-0.023223
-0.0166858,0.0209927
-0.0332716,0.0144102
-0.0181371,-0.0295467
0.0139636,-0.0240049
0.037636,0.0237016
0.0404938,0.00257126
0.0460114,-0.0208116
0.0408281,0.00952053
0.013004,0.0246999
-0.0517434,0.0107554
-0.0714103,0.00942583
-0.0294953,0.00614213
0.013327,-0.000477862
0.017286,-0.00777994
-0.00913653,0.0205058
0.00843881,0.0221724
-0.0131646,-0.00218333
-0.0376734,0.000641253
0.0472541,-0.0174566
0.109268,-0.0303254
0.077757,-0.0229172
0.0170247,0.0516922
-0.0283019,0.0372944
-0.0649867,0.00966591
-0.0257667,-0.0276404
-0.00979347,-0.0629045
0.00312362,-0.0748921
0.032304,-0.0450555
0.048108,0.0358687
0.00756687,0.0797212
-0.0622895,0.0309673
-0.0566412,0.0211035
-0.0303936,0.0141499
-0.00374377,0.00401556
0.043209,0.0115534
0.14342,0.00399872
0.221511,-0.0334243
0.169996,-0.0323567
0.0419018,-0.0207842
-0.0868965,-0.0266843
-0.113303,-0.0239709
-0.156299,-0.0416615
-0.187894,0.00432825
-0.115929,0.0378596
-0.0545894,0.0411574
-0.0280937,-0.013953
-0.00771024,-0.0684359
-0.031007,0.00105906
-0.0330754,0.0560285
-0.0039454,0.0533972
0.0211219,0.0302008
0.0373273,-0.0141255
0.0424738,0.00151407
0.0492032,0.0895709
0.0341621,0.0419233
0.0137513,0.0160535
-0.00869646,0.0442612
-0.0358878,-0.0975368
-0.0227083,-0.0376637
-0.00320604,-0.0335505
0.0762259,0.0304156
0.168788,0.0413118
0.13311,-0.0104145
0.0668587,0.00782424
-0.0133985,-0.0628325
-0.066641,-0.0495824
-0.0590932,-0.037929
-0.0676674,-0.0754387
-0.0848493,-0.00899426
-0.0828138,0.0441596
-0.0671478,0.0574105
-0.0154797,-0.0139875
0.0427429,-0.0172544
0.0800893,0.0530342
0.134209,0.0392506
0.132308,-0.00341737
0.0543937,0.00634714
-0.021007,0.0209093
-0.07202,0.00240387
-0.0656674,-0.029462
-0.0635305,-0.0282778
-0.0503865,-0.00773114
-0.0422593,-0.00143631
-0.0145599,-0.0229606
0.0131036,-0.0388848
0.0247351,0.000450616
-0.00214751,0.0456643
-0.0601795,-0.0156556
-0.0744584,-0.0449927
-0.016525,-0.0127568
0.13612,0.014229
0.177958,0.0182706
0.124929,-0.00192851
0.016566,0.0113044
-0.155908,0.021425
-0.249803,-0.0113959
-0.170916,-0.0217069
-0.0474049,0.0311815
0.0545446,0.0829754
0.0652134,-0.00303497
0.0642377,-0.00735427
0.0853548,-0.00235313
0.0775682,0.00353356
0.00574328,0.0226552
-0.0220921,0.00791361
-0.0115,-0.00968809
-0.021518,-0.017805
-0.00644246,-0.0303679
0.0390455,-0.0611807
0.0445817,-0.0389028
0.0512251,0.0112036
0.0590223,0.0586461
0.0197064,-0.00864147
-0.038341,-0.0015287
-0.074944,0.0384513
-0.0618625,-0.0404377
-0.0497978,-0.0696501
-0.049884,-0.0396159
0.00861541,0.0702763
0.0432042,0.0829896
0.0348444,-0.0311717
0.0677584,0.00287296
0.062481,0.0026805
0.0070631,0.0533118
-0.0440847,0.0464031
-0.0508861,0.0157458
-0.0211316,-0.00784824
0.00678932,-0.0142352
0.00639842,-0.00992795
0.0185479,0.0175553
0.0294708,-0.00851692
-0.0327057,-0.0225089
-0.0159838,-0.0176826
0.0528259,-0.0161083
0.0377293,-0.0130012
-0.0783293,-0.0652544
-0.114297,-0.0552248
-0.0678369,-0.0241902
-0.0321588,-0.0132975
-0.00548189,-0.0210973
0.0382593,-0.0257709
0.0547749,0.0658463
0.0556514,0.059537
0.0504933,0.0348768
-0.013852,0.052193
-0.0386536,0.0120467
-0.00668517,0.0277454
0.0406432,0.0317051
0.0112189,-0.00532423
-0.0643905,-0.0214214
-0.109049,0.010046
-0.0666427,0.0218176
0.0746567,0.0147817
0.133566,-0.0876471
0.118403,-0.129753
0.0822457,0.043432
-0.0160376,0.000337771
-0.0683418,-0.0131114
-0.0413999,0.0821085
-0.0318431,0.0450137
-0.0262746,-0.0266251
0.00312811,-0.00903585
0.0767341,-0.00759869
0.154512,-0.00765068
0.13222,-0.00778927
0.0125967,0.0020473
-0.086045,0.0130328
-0.0989507,0.0086957
-0.0394065,-0.0433212
-0.0462047,0.0319561
-0.0963951,0.0232581
-0.109085,-0.000402144
-0.0742787,-0.00286914
-0.0656682,-0.00066175
-0.102427,0.008191
-0.0105981,0.028666
0.0694068,0.0107273
0.0839508,-0.0261964
0.0869487,-0.0411801
0.0831998,-0.063375
0.0995747,-0.0491898
0.0976168,-0.0349372
-0.00512974,0.0210034
-0.0792575,0.00403392
-0.0186725,0.0186553
0.0498319,0.0343573
0.0599708,0.0295528
0.0141595,0.0228428
-0.0602766,0.0410501
-0.0659172,-0.0295698
-0.0316896,0.0331874
-0.0707461,0.104539
-0.0615741,0.00879248
0.00547979,-0.131718
0.0576277,-0.02831
0.051381,0.017208
0.0413828,-0.0323532
0.0289422,0.0148935
0.00408661,0.0186297
-0.0437112,-0.0400858
-0.043624,-0.0405337
0.00231136,-0.0212215
0.0033185,-0.00763796
0.00642606,0.117109
0.0207846,0.0598374
0.0259803,0.00848306
-0.0100956,0.0218095
-0.0625991,-0.00940293
-0.075847,-0.00979113
-0.055933,0.000302278
-0.0368885,-0.023915
-0.0463561,-0.021977
-0.0017939,-0.0192334
0.0845259,-0.0411464
0.0997151,-0.035893
0.0954447,-0.0154585
0.128531,-0.00672797
0.0996446,0.00965921
-0.0204355,0.0401549
-0.0346022,0.0256275
-0.0187311,0.0235125
-0.0901859,0.0111694
-0.107034,-0.00304353
-0.0879041,0.0171076
-0.0830134,0.0212849
-0.0673085,-0.0315779
0.019036,-0.0128829
0.117338,0.0174668
0.155331,0.0183505
0.0672558,-0.00545332
-0.0669396,-0.0795581
-0.0723979,-0.0404537
-0.0126024,-0.0112621
0.0146847,-0.00525731
0.0100086,0.0261821
0.00430243,0.0380488
-0.00504301,-0.0122168
0.0214968,-0.0310611
0.0865943,0.0445445
0.0730372,-0.0604624
0.0384899,-0.0353262
-0.0355753,0.00783022
-0.09645,0.0281308
-0.0618508,0.0790927
-0.000192587,0.0220688
-0.0130459,-0.0286555
-0.0305163,0.00485673
-0.0398058,0.00583983
-0.0399992,-0.0316709
-0.0106557,-0.0222999
0.0255011,0.0424427
0.0217193,0.035207
0.00260029,-0.0403661
-0.00443648,-0.116563
0.0327166,-0.0699186
0.0638098,0.0834309
0.0393724,0.113967
0.0312781,0.0482712
0.0697559,0.0408766
0.0620478,0.0335718
-0.00588484,0.011207
-0.0566267,-0.000790008
-0.076186,0.0115402
-0.0888957,-0.0077237
-0.0945417,-0.0598049
-0.0676415,-0.0605549
-0.0220413,-0.0369977
0.00822805,0.00852165
0.0320895,0.0275734
0.0170802,-0.00971237
0.0275158,-0.00481571
0.062586,0.0246786
0.115251,0.0198726
0.111382,-0.0342197
0.0213125,-0.093285
-0.0887859,-0.0566892
-0.100594,0.0438716
-0.0219617,0.00838255
0.0931741,0.03474
0.137925,0.0041514
0.0385525,-0.0432924
-0.106655,-0.0232933
-0.168456,0.0484914
-0.155272,0.060965
-0.0953566,-0.0154844
0.00394252,0.00885056
0.0692298,0.0552396
0.0685071,0.0477401
0.0495381,0.0218967
0.0969696,0.0297452
0.103328,-0.000143042
0.0208356,-0.00468482
-0.0838917,-0.00358823
-0.161815,-0.0271515
-0.125022,-0.0764662
0.00386773,-0.104885
0.0840985,-0.0817209
0.0617359,-0.0189294
0.0138261,0.0335954
-0.00514944,0.0206861
-0.0331126,0.034007
-0.00144452,0.0496865
0.0702515,0.0323712
0.0910684,0.0269422
0.0298496,0.0627463
-0.021418,0.00102499
-0.0143248,-0.0879509
-0.005466,-0.0202332
-0.0109317,0.0672853
0.00602041,0.0206601
0.018875,-0.0150612
0.0429408,-0.0102474
0.0499994,-0.025799
-0.000371273,-0.0268572
-0.0056742,-0.0198993
-0.00250871,0.0253962
-0.0110947,0.0251289
-0.0326339,-0.00339616
-0.0606566,-0.0222868
-0.0777891,0.0381442
-0.0654418,0.0456561
-0.0914997,-0.0196114
-0.0737118,-0.0739288
0.022772,-0.0175934
0.0912139,0.00948323
0.0925742,0.0134011
0.0270312,-0.0180199
0.00907662,-0.0655498
0.0231139,0.00630014
0.00677671,0.0633296
0.0104333,0.0224293
0.0170231,0.00559307
0.0415187,0.0212769
0.00989932,0.0234882
-0.0523479,0.0233809
-0.0687969,-0.00603797
-0.0301408,-0.0139305
0.0363713,-0.0195603
0.0501431,0.0237408
-0.00459956,0.0629246
-0.00850609,-0.00976594
-0.0185997,-0.0385244
-0.0524148,-0.0205204
-0.0366759,-0.000839802
0.0100635,0.00300033
0.00323197,0.0291886
-0.0143151,-0.0235168
-0.00080294,-0.0856231
0.0291035,-0.00893754
0.0275362,0.0298656
-0.0205489,-0.00556918
0.0135671,-0.017474
0.0712086,-0.00160345
0.0786382,-0.0126958
0.0538677,-0.0200062
0.0303577,0.0101756
0.00142967,0.0116971
0.0255072,0.00324212
0.0697547,-0.0246679
-0.0384219,-0.0234835
-0.130478,-0.00733305
-0.0972028,0.0085501
-0.0138812,-0.00823755
0.0668662,-0.0302719
0.0496103,-0.0419679
-0.0148726,0.0267197
-0.0996078,0.0721399
-0.127887,0.0734
-0.0638481,0.0643307
-0.010757,0.00595545
0.0234303,-0.0226272
0.0305392,0.00738951
0.0192098,-0.00427098
-0.0112526,-0.0218169
-0.0550096,-0.0253381
-0.0603963,-0.0276784
0.0133268,-0.0272694
0.0999585,-0.0618723
0.121606,0.021645
0.0646349,0.058119
0.0242411,-0.000675017
0.0329493,0.040067
0.0515204,-0.040838
0.0322525,0.0440713
-0.0147598,0.0920727
-0.0771065,-0.0222542
-0.0751247,-0.0151626
-0.030601,0.00430759
-0.0215938,-0.016099
-0.0395719,-0.0151633
-0.0818278,-0.000647263
-0.0445337,0.00745917
0.0065774,0.02616
-0.00239942,0.00043964
0.0338553,-0.0287942
0.0961531,-0.000797321
0.134758,-0.00698361
0.11076,-0.0187594
0.0206238,-0.000946536
-0.0484751,-0.0106226
-0.106891,-0.0543057
-0.0729459,-0.110894
-0.035116,-0.0881033
-0.0201974,0.0404698
0.0410443,0.113481
0.100972,0.0355612
0.0907823,-0.0430999
0.0299329,0.013189
-0.0531851,0.0498228
-0.0730778,0.0455824
-0.052128,0.0355048
-0.0554074,0.0226059
-0.0215676,-0.0305206
-0.00618247,-0.0169329
-0.0327816,0.0320259
-0.0250248,0.0193393
0.0302427,-0.000502417
0.0716059,0.00952856
0.057105,-0.00626477
0.0443888,-0.000950668
0.0354139,0.0261441
0.00641248,0.0198177
0.0237184,-0.0442708
0.0358019,-0.0669214
-0.00356448,-0.0261722
-0.0388217,-0.0143869
-0.086321,0.0204951
-0.103572,-0.0216604
-0.0349681,-0.051115
-0.00387215,-0.0111308
-0.0493676,-0.000380413
-0.0583136,0.00740842
-0.0232337,0.00821758
0.0255785,0.0106368
0.0331755,0.0221111
0.0470616,0.00786632
0.0681685,-0.0221979
0.0488082,0.0100407
0.0219977,0.0060016
0.0230802,0.0502415
0.010612,0.0513274
0.0269943,0.0546174
0.0530569,0.0307706
0.0428448,-0.0154826
0.0167175,0.00120427
-0.0475004,0.0204573
-0.0735464,-0.0752073
-0.0228598,-0.0781246
0.0465557,0.00866804
0.0824557,-0.0258595
0.105396,-0.115993
0.0333074,-0.00376089
-0.0897984,0.151307
-0.16288,0.0304273
-0.130827,-0.0986645
-0.0583356,-0.0799438
-0.00114583,-0.0306894
0.050902,0.0752219
0.00358323,0.112003
-0.0372284,0.0440108
-0.0292043,-0.0489574
-0.0171935,0.0202578
-0.000100568,0.0405148
-0.0352063,-0.0120713
-0.0314474,-0.059533
0.0517002,-0.0501403
0.0712028,0.0232638
0.000222236,0.0686503
-0.0137974,-0.000756321
0.0198032,0.0159986
0.0613836,0.0016421
0.120122,-0.0349703
0.0886334,0.0109109
0.00913479,0.0189857
-0.0505067,-0.0111238
-0.0487627,-0.0105469
-0.0265965,0.0203366
-0.0375979,0.0155064
-0.0660018,-0.02755
-0.048417,-0.0302075
0.0322657,-0.0237698
0.0499488,-0.00889676
-0.00842869,0.0162416
-0.0615738,0.000256166
-0.0140878,-0.00138789
0.0541651,-0.0342119
0.125925,0.0296847
0.141593,-0.0302504
0.117089,0.00774174
0.0246258,0.0513544
-0.0700758,0.0575446
-0.110977,0.0157988
-0.0782398,-0.0350468
-0.049275,-0.0133839
-0.0377225,-0.0158766
-0.0634341,-0.0218002
-0.114281,-0.0218042
-0.0815142,-0.0885805
-0.00391254,-0.0683258
0.0214154,-0.0457371
0.0122491,-0.00489139
-0.00192496,0.0221004
-0.00523412,0.0557099
0.0556195,0.0822097
0.106968,0.0621267
0.0469703,0.00875795
0.00572002,0.0371966
0.0632645,0.0520757
0.0745752,0.00922202
0.0194481,-0.0165471
-0.0271699,-0.0332161
-0.0535648,0.00671005
0.00497585,0.0613812
0.0167468,-0.0117923
-0.0135688,0.00292012
-0.0311904,0.00128786
-0.0167006,-0.066559
0.0100905,-0.0547316
-0.0039193,-0.0431545
-0.000468395,-0.0186175
0.0518031,-0.0084777
0.0670235,0.0135776
0.0111995,-0.00645324
-0.0270905,-0.017928
-0.0405021,0.0408401
-0.088041,0.0281254
-0.100308,0.0213892
-0.100685,-0.00162683
-0.00287947,-0.0456089
0.0993082,0.100517
0.0653606,0.00650147
0.0176091,-0.142698
-0.0114311,-0.019325
-0.0134061,-0.0268895
0.000563799,-0.054691
-0.0279246,0.0384791
-0.00695944,0.0193836
0.0293621,0.0784563
0.0487982,0.194642
-0.0281636,0.062015
-0.131496,-0.189381
-0.150307,-0.0527702
-0.102901,0.0390537
0.0188629,0.00148959
0.147391,-0.0220691
0.196834,-0.0191299
0.211292,0.0747533
0.148904,0.0799483
0.0262771,0.0127158
-0.0176397,-0.0103668
-0.067623,-0.00740329
-0.0743535,0.00172736
-0.0321182,-0.0233229
-0.00407376,-0.109115
0.0130658,-0.226579
-0.0759924,0.043102
-0.179383,0.07204
-0.121999,0.00527609
-0.0176534,0.030105
0.0250208,0.0928224
0.0420575,0.0461022
0.0642971,-0.0406679
0.0561103,-0.00948802
0.0296689,0.00669
-0.0357655,0.0515551
-0.107887,0.0601078
-0.111335,0.0290181
-0.0657628,-0.0162491
-0.0208148,-0.0724681
0.00670827,-0.0586258
0.094221,0.0249805
0.161588,0.0139098
0.175536,-0.0315534
0.152624,-0.0240224
0.106918,0.0905956
0.0402026,0.0501018
-0.0477963,-0.110399
-0.0460758,-0.0321427
0.00144199,-0.0398715
0.0785523,-0.0951911
0.118119,-0.0401285
0.0930235,0.0716346
-0.0640254,0.122735
-0.215579,0.0290702
-0.257836,-0.034167
-0.209316,0.0388213
-0.104301,0.0391916
-0.0410435,-0.0455215
0.0263639,-0.0310623
0.0920323,-0.0195251
0.144474,0.0382851
0.145085,-0.0712042
0.0762921,-0.0450033
-0.0639191,0.0256042
-0.159827,-0.028704
-0.139624,-0.0619234
-0.0710848,-0.00672877
-0.0904673,0.00594853
-0.08061,0.0767451
-0.0281951,0.159128
0.0235168,0.0524644
0.049759,-0.0438566
0.0816008,-0.0703361
0.137272,-0.0705833
0.234814,-0.0723104
0.309174,0.0540939
0.236055,0.142832
0.12282,0.105636
-0.0620106,0.0136394
-0.259266,0.0838795
-0.304425,-0.136669
-0.293565,-0.227132
-0.238277,-0.0464384
-0.117719,0.11197
-0.0423749,0.0440795
0.0273051,-0.0534442
0.119961,0.00846072
0.173661,0.0337894
0.180176,0.0334029
0.103597,0.0106882
-0.034176,0.0130196
-0.13226,0.00503138
-0.0457085,0.00488105
0.00568998,0.0167011
0.111245,-0.00175091
0.261321,-0.0354856
0.436018,0.0409758
0.313234,0.033756
-0.0673572,-0.040189
-0.22707,-0.0549455
-0.128973,-0.0561301
0.0472014,0.0115174
0.29998,0.0671918
0.211311,-0.00907383
-0.227472,-0.0138642
-0.561419,-0.0243493
-0.530774,-0.00869155
-0.316201,-0.0139265
-0.332273,-0.0774235
-0.384481,0.0197389
-0.250893,-0.0293901
0.217878,-0.0477718
0.643379,0.0424216
0.646249,0.0255773
0.388965,0.0270777
0.252202,-0.00633475
0.145696,0.0169359
0.164067,0.081122
0.0312687,-0.0297573
-0.339807,-0.126518
-0.442918,0.00141409
-0.309374,0.0615485
-0.125412,-0.0490638
-0.14046,0.0347382
-0.133449,0.0728188
0.111031,0.0945595
0.379796,0.00381213
0.469802,-0.0491689
0.185453,8.98e-05
-0.273585,0.0621414
-0.32942,0.0185969
-0.343513,-0.0496521
-0.279779,-0.0522931
-0.053684,-0.0471241
0.0510476,-0.00976649
0.0328887,-0.06434
0.00233903,-0.0042441
0.120815,0.00316927
0.19572,0.0352221
0.114214,0.0473443
0.0696371,0.034814
0.0523104,0.0747229
0.0225319,0.0182908
0.10581,-0.0403164
0.105092,-0.0439321
0.107796,-0.0700131
0.0756052,-0.0860039
0.0234195,-0.0187892
-0.00963517,0.153603
-0.0544858,0.0239173
-0.203515,-0.0949435
-0.325951,-0.0792554
-0.309683,-0.0354902
-0.16963,0.0435711
-0.0634163,0.0877711
0.0875667,0.132984
0.328226,0.0656456
0.344467,-0.0754326
0.0728883,0.0282223
-0.0196929,-0.0782102
-0.0865421,-0.00977097
-0.228884,0.049364
-0.228218,0.024826
-0.000574926,-0.00746635
0.275314,-0.0254883
0.186776,-0.0374181
-0.0703572,-0.0170299
-0.0374292,-0.0384301
0.274145,0.0553995
0.482889,0.183535
0.353159,0.0380111
0.0420038,-0.0210573
-0.216247,-0.0834271
-0.289883,-0.0117439
-0.169002,0.014243
-0.108498,-0.0659555
-0.0507775,-0.126971
-0.0978945,-0.183098
-0.103573,-0.10948
-0.0567071,0.0534802
0.0569416,0.0641516
0.191622,0.197091
0.165508,0.121564
-0.152215,-0.000309765
-0.296826,0.023765
-0.187413,-0.0296592
-0.16748,-0.034382
-0.107878,-0.0427103
0.0397809,-0.0101522
0.165209,-0.022681
0.163523,-0.148793
0.130748,-0.147839
0.164946,-0.0194271
0.239734,0.0980372
0.145434,0.0859515
-0.159302,0.150564
-0.352591,0.0198865
-0.174247,-0.119282
0.0567151,-0.0275398
0.0631242,0.0204433
0.0234854,0.0993107
0.129501,0.121651
0.0948598,0.0709894
-0.0148755,0.0923741
0.0334778,0.0764848
-0.0409716,0.0133776
-0.130696,-0.08122
-0.0807859,-0.0917969
0.0860775,-0.183127
0.0102452,-0.206818
-0.237419,-0.0718967
-0.18942,-0.018013
-0.00206407,0.00940179
0.0478587,0.0609434
0.0266169,0.192033
0.113061,0.222806
0.0547286,0.0947788
0.0382209,-0.101702
0.0999193,-0.11802
0.00620241,-0.051725
-0.0788683,0.00985982
-0.164382,0.0589718
0.0175427,0.0354566
0.181122,0.0314588
0.162123,-0.00597388
0.0588586,-0.0248281
-0.0489957,-0.0545109
-0.204924,-0.0356545
-0.291611,0.0262188
-0.388122,-0.117604
-0.218939,-0.0199846
0.177748,0.10421
0.352908,-0.0225706
0.365731,-0.0647963
0.316918,0.0102778
0.290419,0.0459556
0.216638,-0.0214507
0.073831,-0.096438
0.00892511,-0.0232782
0.00373938,0.0228785
0.0110104,0.0992779
-0.125375,-0.0408245
-0.116079,-0.0471997
-0.239985,0.0336152
-0.336507,0.0228704
-0.19334,0.0222414
-0.108533,0.0392672
-0.068632,0.0585735
-0.044885,0.020944
0.0491229,-0.0847692
0.306929,-0.109185
0.331277,-0.0730684
0.0388833,0.0258732
-0.300146,0.124761
-0.3732,0.104603
-0.0826887,0.0659674
0.153733,0.0529499
0.0941049,-0.00783855
0.00081007,-0.00794317
-0.000851437,0.0014829
0.0941974,-0.0406904
0.187886,-0.103274
-0.0128353,-0.115111
-0.18549,-0.0994979
-0.217746,-0.116532
-0.183208,-0.153092
-0.0342134,0.0231979
0.10515,0.0545409
0.226596,0.115384
0.0969714,0.21607
-0.0588373,0.0864237
-0.0124906,-0.0514294
0.00368761,-0.0657604
0.0958173,-0.124892
0.21514,0.129502
0.280132,0.260477
0.216242,0.0558778
-0.0496315,-0.10871
-0.347074,-0.0348473
-0.341129,0.076183
-0.00615153,0.0779922
0.461576,0.0908046
0.632419,0.123722
0.209731,-0.0496718
-0.582925,-0.0606898
-1.10851,-0.134891
-0.497782,-0.135719
0.168463,-0.0838224
0.257267,-0.121369
0.147925,-0.199959
0.111722,-0.160997
0.0147446,-0.0664378
0.0287043,0.104436
0.148231,0.135519
0.149948,0.223271
0.119935,0.208657
-0.0183796,0.11785
-0.101373,-0.0384684
-0.0681034,-0.118383
-0.114338,-0.0429091
-0.157963,0.0690898
-0.18699,0.0500124
-0.151545,-0.0165294
-0.19606,-0.0468045
-0.106277,-0.0767014
0.216882,-0.151823
0.490355,0.0300882
0.59794,0.0852186
0.448436,0.0664028
0.181882,0.0431197
-0.113001,0.00273479
-0.250009,0.0311969
-0.227694,-0.011101
-0.118684,-0.0490631
-0.026815,-0.0176863
0.0211421,0.0200244
0.0676905,-0.0119501
-0.0286018,-0.0774048
-0.0952649,-0.00720117
-0.131301,-0.0727081
-0.148172,-0.125286
-0.0307329,-0.0815452
0.0924709,-0.0810698
0.00325613,-0.0887282
-0.0789459,0.0913372
-0.0841779,0.15725
0.00768223,0.204202
0.0483413,0.0773894
0.0623363,0.00225882
-0.00136492,0.0411239
-0.0527585,-0.0165922
0.0181389,0.0488948
0.10236,0.0369215
0.0782592,-0.0644036
-0.0996671,-0.0378203
-0.133537,-0.0334767
-0.00206859,-0.053468
0.0546955,-0.0255685
0.0120312,0.0854181
-0.0893705,0.131278
-0.199029,0.0724074
-0.175991,0.00240904
-0.107237,-0.11512
0.0616293,-0.0823554
0.215285,-0.0227296
0.25943,-0.0249173
0.267787,-0.0580617
0.141292,-0.0250077
-0.0343235,0.00340718
-0.167296,0.00521633
-0.132454,0.00417963
0.0274499,-0.0039475
0.168425,-0.0465831
0.238046,0.0104631
0.159565,0.0446526
0.032433,0.0617573
-0.0935955,0.0819613
-0.188404,-0.0353389
-0.170998,-0.0433916
-0.222271,-0.0444805
-0.284962,-0.0255158
-0.156124,-0.00829496
0.146791,0.00673319
0.196487,-0.00732485
0.111461,0.0162145
-0.0376401,-0.0108837
-0.0952689,-0.0254068
-0.00758252,0.0732512
0.0228634,-0.0681872
0.019464,0.00906856
0.0127849,0.0701409
0.0523035,0.0349382
0.147822,0.02774
0.188682,0.0181605
0.0643556,-0.0243753
-0.151442,0.0102879
-0.252111,0.0084712
-0.139591,-0.0500771
-0.0209116,-0.0146942
0.0449232,0.0175896
0.0430743,-0.0304384
0.00416366,0.0126289
-0.0231499,0.0240054
-0.00841474,-0.00677934
0.0333044,-0.0425771
0.0100613,-0.0604909
0.00657277,0.0192011
0.0624483,0.0876249
0.11256,0.0163293
0.135286,-0.0498655
0.11167,0.0149121
0.12408,0.0792719
0.0788133,0.021235
-0.0652291,-0.0358117
-0.220139,-0.0435211
-0.241743,-0.0372137
-0.11169,-0.039948
-0.0341739,0.00853313
-0.00389638,-0.0580829
0.0248792,-0.0629225
0.0501165,0.0509717
0.0742596,0.0421337
0.10283,-0.0219426
0.0934764,-0.028704
0.0380036,0.107788
-0.0486569,0.12625
-0.130873,0.0373463
-0.0630926,0.000505277
-0.00166106,-0.015545
0.00830121,-0.0282167
-0.00855659,-0.0219629
-0.0605192,-0.0271425
-0.0882809,-0.0318178
0.0514221,7.55e-05
0.154574,0.00201136
0.0629112,-0.00501182
-0.0862317,0.0182986
-0.0968373,0.0221833
-0.0363046,0.00914493
-0.0427473,-0.00513826
-0.0482426,-0.0214084
0.0119743,-0.013294
0.0929601,-0.00224629
0.109159,-0.0110611
0.0439881,-0.0302742
0.0245956,-0.0327049
0.0261562,-0.0320667
0.00272261,-0.00637551
-0.0761918,0.0135572
-0.113621,0.00150919
-0.0122686,-0.0164926
0.0750886,-0.0342527
0.114012,-0.0166401
0.11942,0.0291941
0.111032,0.0496099
0.107688,0.0388591
0.0196115,0.0137134
-0.0997139,0.011142
-0.15072,0.0111184
-0.0949456,0.0198642
-0.0710691,0.0151479
-0.0412496,-0.00752458
0.00613001,-0.0177362
0.120344,-0.0272227
0.168674,-0.00843358
0.0823025,-0.0077939
-0.0995833,0.0054039
-0.243689,-0.00877408
-0.23525,-0.0238503
-0.110704,0.0112177
0.0135697,0.0569138
0.0627993,0.0227036
0.123685,-0.0527372
0.121034,-0.019472
0.091645,0.0157667
0.0485811,0.0138672
-0.00599862,0.0180031
-0.0366108,0.00566452
-0.06448,-0.0222996
-0.0721139,-0.0495192
-0.0334669,0.0268062
0.0427962,0.0489704
0.0866977,-0.0184924
0.0643785,-0.0260254
-0.0320036,0.00864948
-0.10384,0.00631527
-0.0674513,-0.0372431
0.00488269,0.0178677
0.043566,0.0324141
0.0462668,0.0474137
0.00360888,0.0182578
-0.0193441,-0.00545031
-0.0249155,-0.00106292
-0.0193894,-0.0103083
-0.0253551,-0.0130592
-0.0121139,-0.0114981
0.0024599,-0.00965465
0.0215803,0.0054927
0.044384,0.011882
0.0649848,-0.0136183
0.032801,-0.0266689
-0.018192,0.00621055
-0.0388338,0.0254503
-0.0188555,-0.052323
-0.000333613,-0.0651202
0.0242035,-0.0700324
0.0330299,-0.0616978
-0.00329753,-0.0332371
-0.0224118,0.0623345
-0.0259193,0.103371
-0.0407029,0.0515319
-0.0744898,0.0526183
-0.110455,0.0236017
-0.0339714,-0.0141088
0.151222,-0.0275382
0.22473,0.0293133
0.1242,0.0384349
-0.0220153,-0.00106847
-0.111008,-0.0271815
-0.089614,-0.0273844
0.0431814,-0.0205239
0.061672,-0.000767822
0.0531522,0.0240806
0.0124564,0.0107839
-0.0243324,-0.0197407
-0.0721245,-0.0194875
-0.0884645,0.00199894
-0.0342989,-0.0451027
0.0396056,-0.0611614
0.0851862,-0.0612028
0.0692242,0.0256002
-0.0410689,0.118054
-0.0821299,0.034831
-0.0438635,-0.0468637
-0.0208673,0.0116808
-0.0063154,0.0181491
-0.0143317,0.026535
0.00432233,0.0437653
0.0174373,0.00753513
0.0061417,0.0125285
-0.0161904,0.0128344
-0.0202223,-0.00929322
0.0156657,-0.0245051
0.0323462,-0.0171897
0.01289,-0.0206476
-0.00567965,-0.00270614
-0.0269482,0.00709757
-0.00548561,-0.00757921
0.0358476,-0.00385397
0.00558979,0.0029007
-0.0569203,-0.00182976
-0.097651,-0.00691818
-0.0778644,-0.0231359
-0.00148787,-0.00463959
0.0854272,0.00667472
0.132141,0.0200063
0.147204,0.0399155
0.102146,-0.0182071
0.0127204,-0.0356821
-0.0631337,-0.044327
-0.132614,-0.0108677
-0.169551,0.0287446
-0.104034,0.0184672
-0.00384258,-0.0178391
0.0556097,0.0124088
0.0712716,0.0190298
0.0415326,0.00499414
0.0386616,0.00212981
0.0440869,-0.00700391
0.0230085,0.00287586
-0.0159297,0.00597288
-0.0561012,-0.0109698
-0.0691313,-0.00388407
-0.0137827,-0.0301812
0.12418,-0.0445128
0.167424,-0.0340112
0.0606873,0.0296533
-0.0215722,0.0546147
-0.0289113,0.0521126
-0.0313518,-0.0124863
-0.0560936,-0.0239214
-0.0771316,0.0338938
-0.0593832,0.0274117
-0.0375771,-0.00181357
-0.017234,-0.0104039
0.0263701,0.0149863
0.0611535,-0.0146114
0.00120414,-0.0610983
-0.0189806,-0.00051359
0.0230519,0.017822
0.04021,0.00473537
0.0527499,-0.00716906
0.0191526,-0.0158766
-0.0387806,-0.0357808
-0.0470021,-0.00548768
-0.0364895,0.0460107
-0.0404237,0.0132132
-0.0353578,0.00455479
0.00657469,0.0173751
0.0314486,0.010179
-0.0134051,-0.00649436
-0.0190183,0.00474102
0.0219434,0.00992584
0.0419369,-0.00184373
0.0523595,-0.0265308
0.0710475,-0.0186778
0.068166,-1.86e-05
0.0485187,-0.0331792
-0.0156081,-0.0695101
-0.0930997,0.00363545
-0.127135,0.00831356
-0.0489035,0.0166637
0.0242064,0.026926
0.0325435,0.0218015
0.0111488,0.027075
-0.0212023,0.0674393
-0.0174354,0.0520871
-0.052636,-0.0155939
-0.0804366,-0.0108222
-0.0548241,-0.00589614
-0.0397107,-0.00599668
0.00211635,-0.011517
0.0500912,-0.0178558
0.0569944,-0.0208803
0.031246,-0.0132388
0.0626246,0.0232042
0.158481,-0.00457765
0.152625,-0.00733183
0.037563,-0.00103281
-0.0616026,-0.00861277
-0.102494,-0.000440893
-0.105024,-0.00116904
-0.05973,0.00221919
-0.00935692,-0.00333585
0.00487677,-0.0110906
0.0110449,-0.0124285
0.0177637,-0.0107579
-0.0127012,0.00680141
-0.0460325,0.0103043
-0.0355657,0.0116133
0.0056852,0.0259928
0.0112754,0.000720056
0.0212437,-0.00909058
0.055764,-0.0109886
0.0722601,-0.0226359
0.0150493,0.0343199
-0.0476505,0.0437903
-0.044682,-0.0756811
0.000611005,-0.0473463
0.0296258,0.0168999
0.0197568,0.0217032
-0.0077476,0.0181958
-0.0100524,0.0159854
0.00880253,-0.00233757
0.0132757,-0.0216422
0.00773909,-0.0145676
0.0200484,0.0237483
0.0447423,0.0267228
0.0244781,0.0234586
-0.022499,0.022066
-0.0751769,0.00327214
-0.0993294,-0.0166113
-0.062292,-0.0202475
-0.0202821,-0.0104322
0.0177003,0.00361791
0.0608363,-5.69e-05
0.0812894,-0.0244854
0.0471183,-0.0382798
-0.0152096,-0.0488256
-0.036938,-0.0153523
-0.0273576,0.0333739
-0.0105767,0.0368036
-0.00654029,0.0172379
-0.00193425,0.0202528
-0.0103667,0.015374
-0.00224456,-0.00514429
0.0636096,-0.0242347
0.12507,-0.0482088
0.12458,0.022481
-0.0168027,0.0730018
-0.17423,0.0012374
-0.179206,-0.0681649
-0.144259,-0.0580525
-0.0832887,-0.0255078
-0.000406606,-0.0361584
0.0413527,-0.0291479
0.0365672,0.033851
0.0310499,0.0675387
0.0700147,0.104597
0.129681,0.0289915
0.121078,0.0125207
0.0692031,0.0242926
0.0108527,-0.00299554
-0.0184823,-0.00780263
0.0237648,0.0147535
0.0510842,-0.00272734
0.0132571,-0.00822274
-0.067454,-0.0407181
-0.135886,-0.047113
-0.12138,-0.0259739
-0.0815732,0.0253934
-0.0145491,0.0164429
0.0130219,-0.0152402
0.0597307,0.00945335
0.139309,0.005125
0.112362,5.81e-05
0.0393235,0.00192038
0.0248589,0.000395254
-0.00210876,0.00700781
-0.0537451,0.00891129
-0.0919105,0.000308003
-0.0683162,-0.00238458
-0.0221481,0.00254077
-0.0323008,0.0144207
-0.0398153,0.0118624
-0.0193884,-0.0091067
0.0125288,-0.0251252
0.0520873,-0.0183835
0.0632237,-0.00590779
0.0143296,-0.00601794
-0.0199784,-0.00780789
-0.0235554,-0.0230862
-0.0106329,-0.0175888
0.022952,-0.0463228
0.0430981,-0.0222785
0.00737289,-0.00818745
-0.0628841,-0.0354439
-0.0724967,-0.0475928
-0.0230941,-0.0661434
0.00239606,-0.0198149
-0.00587542,0.0899593
-0.0279089,0.163529
-0.0124974,0.114863
0.0335144,0.0127482
0.0694883,0.00945463
0.08628,0.00409142
0.0750389,-0.00182668
0.0335631,-0.00593538
-0.0327776,-0.0225842
-0.0794567,-0.0082578
-0.0647245,0.00456842
-0.0229149,-0.0302762
0.0581397,-0.0332166
0.113838,0.034081
0.0547232,0.0195363
-0.0414005,0.0114571
-0.0985617,-0.00346736
-0.0525336,0.00160421
0.0450778,0.0152422
0.0898983,-0.0250509
0.091651,-0.0136251
0.0526634,0.00292472
-0.0538841,-0.0269288
-0.12034,-0.0366354
-0.095718,-0.0191897
-0.0629988,-0.0265519
-0.0652322,-0.023284
-0.0546397,0.0101508
-0.0141408,0.0243249
0.0297277,0.0152179
0.0141521,0.0172253
0.00158133,0.012503
0.00401729,-0.0126445
0.0106078,0.0161513
0.0587982,0.0410203
0.0589821,-0.00449972
0.0472268,-0.0352279
0.0282534,-0.0213348
0.00460886,-0.0112591
-0.0117472,-0.0272281
-0.0237694,-0.0243741
-0.0334143,0.00944737
-0.0124437,-0.0143905
0.00324719,-0.0274469
0.00739897,0.0960599
0.0102435,0.0571354
0.0414853,0.0411273
0.0535568,-0.000812466
0.0613362,0.018452
0.0568851,-0.00176341
0.00636338,-0.0298516
-0.0186323,0.00244311
-0.0482124,0.0116179
-0.055523,0.00977255
-0.0016975,-0.0044415
0.0315079,-0.0257836
0.0280585,-0.0178782
-0.00979022,-0.0116397
-0.0643496,-0.0282688
-0.107073,-0.0310129
-0.106191,-0.00843079
-0.0603116,0.00867963
-0.0218625,-0.00627451
0.00245072,0.00810372
-0.00330318,0.0313488
-0.00616929,0.0213261
0.00759916,0.00982748
0.0541266,0.0141215
0.0740781,0.0257121
0.0515039,-0.020356
0.0313769,-0.0327772
0.0369422,-0.0182492
0.0312751,-0.0237812
0.0131177,-0.0188337
0.00717185,0.0471657
-0.00973525,0.0535292
-0.0168406,-0.0147499
0.00383176,-0.0233192
0.0139568,-0.0337018
0.00209791,-0.0588148
-0.0142168,-0.0394639
-0.00837582,0.0323163
-0.0190874,0.028233
-0.0202747,0.00519894
0.0103365,0.0102813
0.0211601,0.0432703
-0.00843511,0.0155299
-0.0221064,-0.0306439
-0.00564187,0.000242619
0.0375191,-0.00863576
0.0449292,-0.0341063
0.0392694,-0.00691406
-0.000428504,0.0254918
-0.069091,0.0596694
-0.119239,0.0650625
-0.0903776,0.0201063
-0.0323487,-0.0398596
0.015456,-0.0333102
0.0364699,-0.0235897
0.0631031,-0.0231508
0.128335,0.0106885
0.123304,0.0104748
0.0317251,0.0044908
-0.0269952,-0.00768228
-0.0631545,-0.0280365
-0.0318679,-0.0134064
-0.0218353,0.0165211
-0.0543799,0.0237189
-0.0719087,-0.0215611
-0.0922172,-0.0132087
-0.0674285,-0.0116688
0.00674015,-0.0146553
0.0585363,0.00696939
0.0491831,0.0228676
0.0213433,0.0179192
0.00768188,0.00789047
0.0090187,0.00755884
0.00661466,0.0141786
-0.0122325,0.0036967
0.0141946,-0.00104062
0.0846723,-0.00589758
0.125118,-0.0302373
0.0788204,0.0106112
-0.0239647,0.00958578
-0.100364,0.00471811
-0.077595,0.00720515
0.00454009,-0.00075787
0.0577526,0.0016165
0.0739352,-0.00162359
0.043948,0.00896852
0.000849709,0.000574102
0.0306915,-0.0147671
0.0642619,-0.0154645
-0.0517159,-0.00407339
-0.18612,-0.00423423
-0.167515,-0.0040105
-0.106417,0.0145892
-0.0688232,-0.0198187
-0.0330999,-0.0370963
0.0257237,-0.0204997
0.0824988,0.00227094
0.0962897,0.00929046
0.0791398,0.0201496
0.0282705,0.0378206
-0.00736585,0.0244692
-0.0144065,0.00640651
-0.00402286,-0.000500767
0.0169041,-0.00147548
0.0213802,-0.00667654
0.0105437,-0.0060229
-0.0042327,-0.00159567
-0.0238915,-0.00174069
-0.0473004,0.0133224
-0.0311414,0.0210802
-0.00984694,-0.00722799
0.0131778,0.00284653
0.0332963,-0.00985383
0.0206989,-0.034807
-0.0151732,-0.02096
-0.0318298,0.0104451
-0.0127779,0.0238717
-0.0109772,0.000736987
0.0151293,-0.0126097
0.057817,4.32e-05
0.0572852,0.00279281
0.0431787,0.00537079
0.0162664,-0.00532456
-0.0220378,-0.0240333
-0.0385431,0.000937612
-0.0293722,-0.0539714
-0.00199261,-0.00106509
-0.0164444,0.0467687
-0.0130937,0.00777361
0.0198751,0.00322253
0.0731006,0.00684231
0.0962834,0.019204
0.0349361,0.0241761
-0.0311387,0.00896998
-0.0540665,-0.00636298
-0.0571364,-0.0149776
-0.0575628,-0.024178
-0.054314,-0.0151297
-0.0576158,0.0222089
-0.0650046,0.0285191
-0.029072,-0.00972948
0.0301835,0.0176576
0.04682,0.039488
0.0393399,0.0208196
0.0108991,-0.0172262
0.0377969,-0.0129145
0.126787,-0.0181713
0.106755,-0.0174994
0.0232007,-0.0114003
-0.00823365,-0.0152722
0.00820363,0.00633082
0.0375127,0.0158056
0.0109331,-0.0249323
-0.0581323,-0.0212324
-0.0801447,-0.0120434
-0.091864,-0.0142463
-0.108569,-0.0293151
-0.102518,-0.0226756
-0.0286822,0.0247714
0.0538996,0.0264742
0.0945021,-1.9e-05
0.092996,-0.00930633
0.0467188,0.00522517
-0.00199312,0.0202235
-0.0252277,0.0211318
-0.0228586,0.0273452
-0.0176096,0.0243595
-0.0237685,0.0141893
-0.0536334,0.00259223
-0.0698288,-0.00278453
-0.0378455,-0.00363119
-0.0104355,-0.0108216
0.0175813,-0.0076914
0.0369054,-0.0112906
0.0712592,-0.010798
0.131334,-0.00384118
0.146452,-0.0162269
0.0766704,-0.00805723
-0.0190135,-0.0201954
-0.0770691,0.00671323
-0.120986,-0.000113362
-0.118418,-0.045017
-0.0760338,-0.0185482
-0.0351948,0.0156768
-0.00633133,0.0500198
0.00891175,0.0300407
0.00211805,0.0215399
-0.00963859,0.014941
0.0319655,-0.00591274
0.0876691,-0.0114627
0.0879516,0.00114198
0.0525946,0.0071888
-0.00368877,0.00156861
-0.0377218,-0.0140077
-0.044068,-0.0330721
-0.039366,-0.0208103
-0.0288849,-0.0353486
-0.0126556,0.0126023
-0.000482127,0.0848478
0.0306732,0.0394862
0.0519849,0.00213135
0.0460263,-0.00748844
0.027272,-0.0241424
0.0304726,-0.0461703
0.0400879,-0.011526
0.0713418,0.0512047
-0.0256151,0.00450744
-0.133972,-0.020671
-0.0981252,-0.038436
-0.00875844,-0.0198069
0.00432521,0.0286834
-0.0119196,0.0134977
0.00361372,0.00462971
-0.00915019,0.00386554
-0.0352975,0.0201015
-0.0548249,0.00785424
-0.0403962,-0.00245121
-0.00322366,-0.00230734
0.0253209,-0.00321582
0.0253114,-0.00759053
-0.0107345,-0.0137454
-0.0479548,-0.0170722
-0.038252,-0.0052009
0.00537271,0.0197846
0.0621415,0.00772242
0.100846,-0.00146297
0.0791307,-0.00651322
0.0388271,-0.0215916
0.0211729,0.000967797
0.00739222,-0.0214047
0.00604864,-0.0023818
-0.00738708,0.0297834
-0.0207752,0.0284515
-0.0134427,0.0200362
0.0103633,-0.0296818
0.0117327,-0.0406336
0.0136995,0.0335577
0.0147216,0.015257
0.0153637,-0.0102923
0.0238141,0.0184518
0.0624636,-0.00405261
0.0627945,0.0111556
-0.00823559,0.00525076
-0.100341,-0.0270993
-0.142422,-0.0188982
-0.121208,-0.0453821
-0.0932124,-0.0344214
-0.042046,0.0758058
8.86e-05,0.0662769
0.0534788,-0.00219559
0.134807,-0.0131717
0.10609,0.00381208
0.0437477,0.0093175
-0.00173322,-0.0238427
-0.0526578,-0.0393288
-0.0467711,-0.0139131
-0.00223267,0.00878761
-0.0116602,0.011112
0.0390645,0.00666519
0.115357,0.00167707
0.0924865,-0.0082449
0.00599821,0.00808513
-0.0883586,0.00590494
-0.122518,-0.0142505
-0.067644,-0.0224106
-0.011116,-0.019465
-0.00246056,0.00885586
-0.0197691,0.0299232
-0.0292643,0.00835398
-0.0417372,-0.0228606
-0.0416904,-0.00408514
-0.0207656,-0.0105887
0.00735424,0.0031333
0.0440728,0.0408723
0.0515387,0.0372007
0.0431662,0.0105884
0.0326993,-0.00223017
0.0214152,0.00706843
0.0179414,0.00616958
0.00522197,0.00883523
-0.0121995,0.00597716
-0.0216335,-0.00136122
-0.0154672,-0.00218663
0.0084665,-0.0322281
0.0333267,-0.0525581
0.0262969,-0.0426188
0.0024668,-0.0243921
-0.0115124,0.00128015
-0.0142131,0.00680591
-0.0210981,0.0047022
-0.0267243,0.0470626
-0.0170914,0.0432618
0.0134675,-0.0172573
0.0572273,-0.0322455
0.058104,-0.0481143
0.0550101,-0.0213845
0.0338944,0.0329292
-0.0477083,0.0320139
-0.0688018,0.0358161
-0.0569979,0.0572764
-0.02155,0.00373481
-0.00563897,-0.0310523
0.0113303,-0.0131278
0.0137681,0.00219188
-0.000398408,-0.0082481
0.00197785,-0.00802519
0.0134079,-0.00461268
0.0144447,0.00527571
-0.0182428,0.0260035
-0.016614,0.0112279
0.0357065,-0.00325905
0.0654105,-0.00584109
0.0574538,-0.00256802
0.0175309,-0.00703907
-0.0184698,-0.00245111
-0.0381771,0.0118731
-0.0427307,0.00806471
-0.0312833,-0.00362092
-0.0270116,-0.00755046
-0.0152831,-0.00923468
-0.00330839,-0.0171058
-0.00193844,-0.0220444
-0.0233925,0.00395765
-0.0520342,0.0121649
-0.0442271,0.00255861
-0.031577,-0.0172523
-0.0331307,-0.0469545
0.0155738,0.00137436
0.0598494,0.00689074
0.0852411,-0.00594309
0.0804904,-0.0109779
0.0464129,-0.00858163
0.00427327,0.000922306
-0.0352209,0.0051042
-0.0739544,0.0283125
-0.0592597,0.0311704
0.0476877,0.00609421
0.0944033,0.0311537
0.036905,0.0608357
-0.0486607,-0.00247291
-0.100176,-0.00524889
-0.0599475,-0.0293617
-0.0049578,-0.0453514
0.00725845,-0.0160169
0.0294214,-0.00271871
0.0701916,0.00805909
0.0897588,0.0106253
0.069376,0.0177266
-0.00313191,0.0145077
-0.0273942,0.00466038
-0.0396564,0.00302469
-0.0510023,-0.0133574
-0.0245758,-0.0283142
-0.00590963,-0.0109791
0.0147685,-0.0107077
0.0172701,-0.0104562
0.00336384,-0.00454747
-0.0173579,-0.0212651
-0.0471675,-0.0109524
-0.0515301,0.0243273
-0.0254123,0.0416445
-0.0060485,0.0284112
0.0140935,0.00999519
0.0233222,0.00870435
0.0240506,-0.00146851
0.015748,-0.00773813
0.00029417,-0.00706916
0.00304602,-0.0311253
0.0105278,-0.0452457
0.0139969,-0.0317095
0.0120423,-0.00939101
0.0198713,0.0150508
0.0610331,0.0361785
0.0546146,0.0450343
0.0129281,0.0318505
-0.036822,0.0104432
-0.115182,0.0156759
-0.115189,-0.00411313
0.0380182,-0.000484164
0.103224,-0.0154694
0.0428975,0.0146123
-0.063571,0.00110123
-0.101369,-0.0554071
-0.064326,-0.0500575
0.00809033,0.00475115
0.045803,0.0303654
0.100743,0.0146286
0.134537,-0.00514183
0.0913219,-0.018762
0.0284918,-0.0166083
-0.0397171,-0.0101017
-0.0915231,0.0179166
-0.070878,0.0388451
-0.0401366,0.00427463
-0.0394663,-0.0132172
-0.0334576,-0.0130214
-0.00732895,0.0122349
0.0169323,0.0102182
0.0199319,-0.00926394
0.00643325,0.00902444
-0.00563224,0.00884659
-0.00877425,-0.000670154
-0.00501135,-0.00475656
0.00103943,-0.0070857
0.00839059,-0.0124378
0.00503432,-0.00938608
-0.00202027,0.000811278
-0.00602355,0.00366726
-0.00180986,-0.00136959
0.00271742,-0.000984076
0.00469682,-0.00116074
0.000526291,-0.00155316
-0.00167771,0.000634011
-0.00488112,0.00213873
-0.00939039,0.00646049
-0.0137968,0.0142565
-0.017205,0.0147215
-0.0180796,0.00690308
-0.0171421,0.00233529
0.00626398,0.00180489
0.0443141,-0.00734704
0.0494824,-0.0325105
0.0695602,-0.0226008
0.0309095,-0.00334258
0.0149381,0.0131615
0.0802668,0.0104047
0.160472,-0.0413795
0.154942,-0.00738872
0.0337619,-0.0050775
-0.116234,-0.0093342
-0.188186,-0.0172272
-0.185598,-0.0212218
-0.129169,-0.0339618
-0.0651464,-0.00664243
-0.0245982,0.047991
-0.0119771,0.043162
-0.0116449,0.0104725
0.00442039,0.0280439
0.0212883,0.018367
0.0374421,0.036551
0.033423,0.0314348
0.0254617,0.0245823
0.00582792,0.02544
0.0107827,0.0171363
0.0111271,0.00299814
0.0129131,-0.00654553
0.0255566,-0.0086111
0.0302558,-0.00865115
0.0265876,-0.00285173
0.0149967,0.000662603
0.0095711,-0.0106723
0.00130257,-0.02014
-0.0093145,-0.0217116
-0.00982964,-0.0219113
-0.0252083,-0.0187739
-0.0400078,-0.0122253
-0.0408625,-0.00352357
-0.0221403,-0.00216117
-0.0151153,-0.00856148
-0.0182292,-0.00729605
0.0133156,-0.00531649
0.0562018,-0.00406463
0.0781166,-0.000928358
0.0879591,0.00454521
0.0621151,0.0115439
-0.0174717,0.0234675
-0.0543394,0.0260224
-0.0411186,0.000485594
-0.0400436,-0.0347727
-0.0551094,-0.0487649
-0.0607544,-0.051173
-0.0355925,-0.00815672
-0.00128229,-0.00694392
0.0141311,-0.0118701
-0.0230327,0.0336865
-0.0469982,-0.00798146
-0.00856418,-0.0402703
0.0359434,0.0521111
0.0466386,0.0236042
0.0550942,0.0160864
0.0652246,0.00514396
0.049216,0.0232589
0.0233489,0.0122924
0.0330789,-0.00837055
0.0355605,0.00910367
0.0119029,0.021375
-0.0121378,0.0224405
-0.0255257,0.0182018
-0.0293182,0.00547026
-0.0343921,0.00862732
-0.0336275,0.011925
-0.0278644,0.00423135
-0.0249566,-0.000827259
-0.0236018,-0.0267974
-0.020308,-0.023123
-0.0175275,-0.00462216
-0.0144457,-0.012742
-0.00284473,0.00468116
0.0213505,0.00798321
0.0339966,0.00618061
0.0216877,-0.00410193
0.00561861,-0.0125624
-0.0148311,-0.0138571
-0.0241421,-0.0126347
0.0193016,-0.0109764
0.0699897,-0.00749141
0.0984504,0.00619523
0.124903,0.00265391
0.121843,-0.0143021
0.0479991,-0.00275445
-0.0676223,0.00680152
-0.13116,-0.00177019
-0.145333,0.0157321
-0.131248,0.026726
-0.0488736,0.0267764
0.0263528,-0.0220395
0.0501117,-0.00143641
0.0183329,-0.0095407
-0.0406094,-0.0320731
-0.0810353,-0.0301111
-0.122072,-0.0172202
-0.124819,0.00816445
0.0117141,0.0262057
0.143585,0.0310937
0.131401,0.0136978
0.0417759,-0.0362121
0.00209506,-0.0525351
-0.00307907,-0.0271596
-0.00453432,0.00591201
-0.00418736,0.0269046
0.00175554,0.0226393
0.00755643,0.0129678
0.00289319,0.0283572
0.01716,0.0609079
0.0410064,0.0076859
0.0408868,-0.0158129
0.0285476,-0.00439136
0.000606386,0.0236895
-0.0313885,0.0230767
-0.0534975,-0.0271842
-0.0367475,-0.0190551
-0.00144077,-0.000429379
0.0168054,0.0106126
0.0187892,0.0022456
0.0387905,-0.0175337
0.074208,-0.0125777
0.12312,-0.00815442
0.100486,0.00585188
-0.144742,-0.00241432
-0.105952,-0.0182021
-0.0461554,-0.0162503
-0.0274553,-0.00613078
-0.0134966,-0.00423538
0.000570954,-0.00156178
-0.00101621,0.0102057
-0.0313883,0.016613
-0.0689255,0.0155042
-0.0522835,0.00656105
-0.00757796,-0.000959981
0.0543415,0.000873658
0.0558578,-0.0134147
0.00152265,-0.0410233
-0.0262246,-0.047464
-0.00127872,-0.0230559
0.0456419,0.0327704
0.0381986,0.0477783
-0.00831221,-0.0550482
-0.0270116,-0.00140146
-0.0320127,0.0322565
-0.00227466,-0.00481894
0.0393215,-0.011449
0.0582587,0.0223839
0.0329111,0.0250415
-0.00719779,0.0253518
-0.0403479,0.0228824
-0.0388712,0.0027044
-0.0110606,-0.000595011
0.000574713,0.00236023
-0.00450003,0.00453802
-0.0155409,0.00281549
-0.0105809,0.0071655
0.0270402,0.011334
0.0589355,0.00126196
0.0472553,-0.0156094
0.00913462,-0.0106424
-0.0167856,0.0028045
-0.0111472,0.000987381
-0.0177162,-0.000871367
-0.0513875,0.00917172
-0.063219,-0.00559041
-0.0445808,-0.0115301
-0.00299845,-0.000131336
0.0321845,0.0254197
0.0148038,-0.0358399
0.00455872,-0.072927
0.023119,-0.00188066
0.0404367,0.0371275
0.0463951,0.0184066
0.022714,0.0131602
0.0186093,0.0395875
0.0067217,-0.00695121
0.0142135,-0.0552406
0.029459,-0.0242344
0.0272346,0.00641003
-0.0140601,0.0167089
-0.0649135,0.0119889
-0.0593756,0.00493506
-0.0264871,-0.0135868
-0.0215323,0.00665495
-0.0185281,-0.00780167
0.017116,-0.0387374
0.0397559,-0.0138053
0.035606,0.051327
0.0249223,0.00965321
-0.0178874,-0.0109879
-0.0333283,-0.0017647
-0.00396684,-0.00928191
0.0217922,-0.0074374
0.0297311,0.00588462
0.0168827,0.00798723
-0.0159692,0.00519026
-0.0757559,-0.0036958
-0.0826042,-0.000770609
-0.0427588,-0.010651
-0.0106212,0.00192096
0.0316774,0.0141182
0.0600205,0.00855474
0.0464895,-0.00759574
0.0220414,-0.0113629
0.000662451,-0.00800957
-0.0272432,0.00187614
-0.026775,0.0149559
-0.00519834,0.0141112
0.00290253,0.000524878
-0.0259204,0.0127573
-0.0442052,0.0218492
-0.0201333,-0.0269754
0.0489601,-0.0542187
0.0771167,0.0124644
0.0372549,0.0396426
0.0138762,0.0150333
-0.0039761,-0.0168175
-0.00239609,0.0032589
0.00990946,0.0402646
0.0121152,-0.00418295
-0.0186503,-0.0340075
-0.0534937,-0.011384
-0.0275001,-0.00269316
0.027643,0.00530229
0.0370364,0.00472188
0.0276592,-0.000147585
4.92e-05,-0.000354288
-0.0148655,0.00452185
-0.00918303,-0.0114494
-0.00993539,-0.0059423
-0.0202605,0.0122119
-0.0176831,0.0146425
-0.00745674,0.000195388
-0.00324911,-0.00667709
0.00225331,0.00462859
0.0121358,0.0320682
0.0180562,-0.0263491
0.0231088,-0.035693
0.0176221,-0.00411679
-0.019069,-0.00552741
-0.05005,-0.0151171
-0.00193385,-0.0142652
0.0634529,-0.0213459
0.0892507,-0.00936432
0.0586745,0.00117051
-0.026803,-0.00944151
-0.0840776,0.0142397
-0.0922938,0.0274955
-0.0388626,0.0296089
0.00441958,0.0224193
0.00650253,0.00592171
-0.011096,-0.011022
-0.00405627,-0.0090655
-1.06e-05,-0.000267558
0.00178387,-0.031036
-0.00145906,-0.0320059
-0.00489656,0.0347051
-0.00868363,0.0426914
-0.00996983,0.0333175
-0.000285196,-0.0058013
0.0287752,-0.0196891
0.063949,-0.0159373
0.0729704,-0.00693936
0.0640177,-0.00311432
0.00702276,0.00023067
-0.0601141,0.0213327
-0.0856105,0.0233567
-0.0839247,0.0223953
-0.0775008,0.00251886
-0.0266745,-0.0159805
0.0321393,-0.00457289
0.0776202,-0.00346707
0.0897021,0.0070894
0.0676262,0.00434775
0.0199559,-0.0153028
-0.0258438,-0.023365
-0.0338567,0.0139756
-0.0196602,0.0339552
0.00319067,-0.0327923
0.00957932,-0.0286348
0.00257031,-0.0115419
-0.00826726,0.0104653
-0.00601334,0.0131498
-0.00430215,0.0244891
-0.0104784,0.0170653
-0.0325626,-0.0176196
-0.0460053,-0.0144199
-0.0410307,-0.0101403
-0.000279701,-0.0280495
0.0178092,0.00278123
0.0121327,-0.0147412
0.0278943,-0.00254542
0.039156,0.00220216
0.028916,0.00215997
0.0200824,-0.00596615
0.0183918,-0.00322518
0.0124425,0.0082411
-0.00653399,0.0249617
-0.0185003,0.0187826
-0.00669595,0.0118099
0.0101705,0.0104996
0.0145214,0.00306396
0.0108005,-0.00959737
-0.0469167,-0.00853368
-0.107356,0.003093
-0.0966659,-0.0246005
-0.0123762,-0.0134357
0.0615764,0.00221945
0.0894668,0.0390616
0.092827,0.0248684
0.090119,-0.0377756
0.0632847,-0.0392341
0.000705295,-0.0252124
-0.0321946,0.00366335
-0.0491131,0.0165216
-0.0662409,-0.00698258
-0.0619159,-0.00361202
-0.0374888,0.024716
-0.0127353,0.00882767
0.0034862,0.0123578
0.0050618,0.0488726
-0.0145521,0.0293752
-0.027939,-0.0320163
0.0161529,-0.00890798
0.0304555,-0.00552252
0.0103329,-0.0133785
-0.00966875,-0.0223402
-0.0365659,-0.0282485
-0.0175343,-0.0253549
0.0198917,-0.0200812
0.0352309,0.00943659
0.0589244,0.0295192
0.0703268,0.0035281
0.0354554,-0.0082828
-0.0148775,-0.0181983
-0.0464703,-0.0180982
-0.0474642,0.021384
-0.0205975,0.0537106
-0.00485753,0.0083862
-0.00568705,0.0164302
-0.00863941,0.0195506
-0.0128177,0.00261067
-0.00641009,0.00696905
0.00210594,-0.0104749
-0.0061978,-0.0163332
-0.0181654,0.00465633
-0.0184106,0.00228323
-0.00632841,-3.26e-06
0.00769439,-0.000420789
0.0136884,-0.0147409
0.0356269,-0.0252879
0.0445253,-0.0106413
0.0284336,0.0163111
0.0087343,0.0114043
0.000871641,-0.0017557
0.0110643,0.00695246
-0.012017,0.0175512
-0.0330064,0.0144223
-0.0482791,-0.010101
-0.0614726,-0.0274338
-0.0029391,-0.0150857
0.0386375,-0.0116033
0.0170566,-0.00932422
0.0108533,0.0156299
0.0411173,0.00298509
0.0445119,-0.00277676
0.0469047,0.0406331
0.00835349,0.000455176
-0.0399015,-0.0160969
-0.0722363,-0.0119734
-0.0762296,-0.00136508
-0.0515877,-0.0141377
0.0115068,0.00854598
0.0358927,-0.0041354
0.0349094,-0.00984286
0.0437417,0.00682852
0.0497322,0.00974081
0.0496749,0.00516627
0.0251082,-0.0216922
-0.00870509,0.00438684
-0.0210676,0.0127929
-0.0340464,0.0149687
-0.0269669,0.00272637
0.00537626,0.000757293
0.0296882,-0.00548434
0.025492,-0.00567277
0.0334364,-0.00964491
0.0163242,-0.0169485
-0.0174645,-0.00379774
-0.0460906,-6.97e-05
-0.0687109,0.0436042
-0.0423886,0.0260332
-0.0055108,-0.0110641
-0.00235744,-0.016955
-0.0131643,-0.00256158
-0.0263897,-0.00377444
-0.0147374,-0.0148599
0.00343355,-0.0040841
0.0117483,4.92e-05
0.0209521,-0.0321314
0.0361048,-0.0544035
0.0478948,-0.00657228
0.0328788,-0.000305979
-0.00449288,0.0174447
-0.0185038,0.0109134
-0.00653501,-0.00736762
-0.00453823,0.0239006
-0.0160499,0.0494636
-0.00755109,0.0455787
-0.0327794,0.0635396
-0.0594901,-0.0175644
0.00055323,-0.0270679
0.0445722,-0.0099778
0.0236549,0.00138322
-0.0119649,0.0155365
-0.0357452,0.0286447
-0.0456963,0.00144221
-0.0332331,-0.0137087
5.13e-05,-0.0167598
0.00314943,-0.0415852
-0.00448352,-0.0333809
0.0231067,-0.0163129
0.0675908,0.0102555
0.0991474,0.0247686
0.0661793,-0.00360527
0.0333837,0.0146987
0.0114209,0.000353613
-0.0304827,-0.0220854
-0.0613503,-0.00237588
-0.0256428,-0.0150642
0.016921,-0.00682394
-0.000816106,0.000921651
-0.0372967,0.0167849
-0.0142986,0.0191397
0.0178976,-0.0109309
-0.00223838,-0.00766806
-0.0239485,-0.00460878
0.0220323,-0.00828914
0.040137,-0.00439597
0.0191885,-0.0103051
-0.00806406,0.0110318
-0.0326263,0.00714883
-0.0136742,-0.00655831
0.0090861,-0.00554307
0.00793719,0.0055177
-0.00740472,0.00906937
-0.00950162,-0.0105061
-0.000279148,-0.0103195
-0.00103677,-0.00120129
0.0117511,0.00229526
-0.00786239,0.0311889
-0.0323336,0.00896101
-0.0304178,-0.00417565
-0.0197335,-0.0100997
-0.0144565,-0.00374135
-0.000635279,0.0225028
0.00479305,0.0157386
0.00927543,-0.00171985
0.0184831,-0.00197628
0.0231673,0.0212641
0.00971124,0.0048008
-0.0153364,-0.0066862
-0.0239704,0.00189364
-0.0183212,0.0174486
-0.0155643,0.0138667
0.00882249,-0.0247382
0.0433304,-0.0289713
0.0438071,-0.0221854
0.0344207,0.0063483
0.0506657,0.0152676
0.0494327,-0.000500575
0.0191922,-0.0293505
0.0136535,-0.00863091
-0.000906473,0.0223116
-0.0310784,0.0179742
-0.0475546,-0.00966305
-0.0541901,0.0037103
-0.0362191,-0.00673705
-0.0074685,-0.0202058
-0.00120869,-0.0261092
-0.00409895,-0.00145592
-0.00694986,0.0156217
-0.0183554,-0.000441778
-0.0378089,0.00120035
-0.0504494,0.0276597
-0.0394683,0.00156982
-0.00982925,-0.00114653
0.0312767,0.00387661
0.0349676,0.000526548
0.0303152,0.000889222
0.0197454,0.00907812
-0.00440375,-0.00264697
-0.01016,-0.0159437
-0.0013299,-0.00654667
-0.00277208,0.000235304
0.0202969,-0.00702479
0.0462697,-0.00381031
0.0479116,0.0177536
0.0301492,0.0189267
0.0326679,-0.0045189
0.0146477,-2.14e-05
-0.0120328,0.000364247
-0.0184578,0.00252371
-0.0314389,-0.00180118
-0.0603957,-0.0117836
-0.0512123,-0.00945621
-0.0175414,0.00591324
0.0136642,-0.0045147
0.03855,-0.0520734
0.0363848,0.00132399
0.000385698,0.0310634
-0.0280749,0.0132491
-0.0185948,0.00279145
0.0134415,-0.00234408
0.0493514,0.00359234
0.0806682,-0.00255312
0.0593526,0.0153755
-0.0106361,0.0246474
-0.0700362,0.00538606
-0.0477396,-0.00138652
0.00639101,-0.0389096
0.0414275,-0.0353579
0.026455,0.0226413
-0.00706849,0.019865
-0.0328346,-0.01348
-0.0304244,0.0104894
-0.0332256,0.000893633
-0.058449,-0.0134579
-0.0428148,-0.0122326
-0.000825225,-0.0474679
0.00586165,-0.00389714
-0.000449444,0.039163
0.00174318,0.0543853
-0.0122807,0.0376434
-0.0344166,0.00741341
0.00686245,-0.0124264
0.0561893,-0.0203532
0.0341705,-0.0112289
-0.0165342,-0.00643496
-0.0360432,0.00231641
-0.0300628,0.0054695
-0.0214908,-0.000580314
-0.0521784,-0.00768853
-0.0413355,-0.0155412
0.033749,-0.0100245
0.0842166,0.053009
0.0773611,0.038009
0.0935074,-0.0365682
0.102567,-0.0306957
0.0597188,-0.0224754
-0.0133223,-0.0176742
-0.0653871,0.0090978
-0.0755089,0.0018992
-0.0508083,-0.00987631
-0.0228699,-0.0170941
0.0174075,-0.0153065
0.0241877,0.00514643
-0.0224203,0.0306146
-0.0392216,0.0285834
-0.0325157,-0.0147607
-0.0417304,0.00778135
-0.024797,0.0281084
-0.00235033,0.0228573
0.0328699,0.00369306
0.0555727,-0.0222738
0.0718348,-0.0366182
0.0914491,-0.0305931
0.0520332,-0.0356908
0.0242932,-0.00221387
0.0032442,0.0173146
-0.0633695,-0.0058168
-0.0935268,-0.000977935
-0.0597871,0.0168694
-0.021502,0.032578
0.0118659,0.0227634
0.00669341,-0.0327398
0.00469119,0.0130255
0.00564078,0.00355879
0.0256427,0.0418568
0.07209,0.0183322
0.0615747,-0.00574264
-0.013544,0.0271413
-0.0842973,0.0607898
-0.125058,-0.0153954
-0.0831894,-0.0355742
-0.020907,-0.0483464
0.00157095,-0.0110082
0.0168538,0.00948332
0.0212537,-0.0108455
0.00959169,-0.0020362
0.00576246,-0.00358657
0.0163702,0.0155775
0.0115065,0.00361826
-0.0022799,0.00116745
-0.0102505,-0.028803
0.0145619,-0.0254499
0.0225658,-0.00978317
0.0114731,-0.00585007
-0.00980162,-0.00488529
0.0350669,-0.0152174
0.0808516,-0.0352016
0.0563515,0.0379239
-0.0212258,0.0842686
-0.069804,0.00562421
-0.0274872,-0.02416
0.0212957,-0.0105234
0.0433273,-0.0145406
0.0521659,-0.00369328
0.0161101,0.0220897
-0.0229548,-0.0037224
-0.0181932,0.0219378
0.00443668,0.00784846
0.0358756,-0.00804863
0.0399109,0.010602
0.00288542,-0.0108855
-0.0589608,0.00203547
-0.0798333,0.013256
-0.0294121,0.00223576
0.0227766,-0.00734978
0.0320406,-0.0196715
0.00610871,-0.0246893
-0.0106644,-0.0188044
-0.0282018,0.00627801
-0.0462435,0.0178737
-0.0106795,0.000483377
0.0194794,-0.0405946
0.0102468,-0.0200139
-0.0145847,-0.0371952
-0.0394854,-0.00789905
-0.0440934,0.0321302
-0.017875,0.0409976
0.0173225,0.0250684
0.0383561,0.0468155
0.0172056,-0.00622931
-0.00212381,-0.0479219
-0.0099834,-0.0312518
-0.00295183,0.026041
-0.000944651,0.015749
-0.0317673,0.0109447
-0.0509826,-0.0146683
-0.00622744,-0.00115343
0.0187371,0.00630669
0.0292392,-0.00489139
0.0499187,0.0148995
0.0555753,0.0011567
0.0469008,-0.00260997
0.0120205,0.00570941
-0.0305912,0.0396408
-0.0363463,0.0259527
-0.0189707,-0.0337616
-0.000554121,-0.0481268
0.0296887,-0.00645751
0.0410579,-0.00779182
0.0426623,-0.00783726
0.0375677,0.0238649
0.0206178,0.0308969
-0.0167644,0.0209766
-0.0526419,0.0421439
-0.0477616,-0.00888842
-0.0344239,-0.045201
-0.0216078,-0.0184912
0.00201337,-0.0241033
0.030089,-0.00910169
0.0113272,-0.00950539
0.00927755,0.0258927
0.0318257,0.029685
0.00378239,0.00438887
-0.0202651,0.00124594
0.0023581,-0.0117032
0.00681113,-0.0563111
0.0194933,-0.0295456
-0.00654602,0.00909181
-0.0479546,-0.0074438
-0.0389055,0.0245912
-0.011188,0.0442093
0.0227372,0.0108851
0.0370111,-0.00192079
0.0132382,-0.00976919
-0.0101022,-0.0196921
-0.0157578,-0.0118424
-0.0471443,0.0127992
-0.0595392,0.0204477
-0.039327,-0.00078998
-0.0167416,-0.00429098
0.00434026,0.021855
0.00886442,-0.00350032
-0.0014551,-0.0169145
-0.00725478,-0.00223242
-0.0137365,0.0115195
0.00609369,0.00692993
0.0495959,-0.0119272
0.0839899,-0.010312
0.109908,-0.00725715
0.0745208,0.00116874
0.0247034,0.0141051
-0.0235391,-0.0224468
-0.0561109,-0.0265521
-0.0400139,-0.00111486
-0.0405496,0.0112934
-0.0225501,0.0299818
0.0145451,0.0301338
0.0239263,0.00727357
0.0217987,-0.0133681
0.0122479,-0.0124992
0.00159226,-0.00138693
-0.0111725,0.0027688
-0.0118217,0.0152652
-0.0106764,0.0400421
-0.021619,-0.0105428
-0.0344529,-0.0254424
-0.0266849,0.0137674
-0.00151515,-0.0165662
0.00519624,-0.0322797
0.00549819,-0.00667548
0.0104215,-0.00270032
0.00299146,-0.00138213
-0.00768968,0.00372758
-0.00488317,0.0142773
-0.0175763,-0.00404916
-0.0244497,-0.0138748
-0.00230094,0.00604436
0.00298662,0.0338266
0.00472743,-0.00101038
0.0233432,-0.0155594
0.0175624,-0.00750513
-0.001415,-0.00382723
0.0117024,-0.00547202
0.0345217,0.00407966
0.0222199,0.00687626
0.0221379,-0.0143461
0.0120674,-0.0416777
-0.000816898,0.0105507
0.00742229,-0.00107408
-0.0200181,-0.0174011
-0.0328267,0.00918843
-0.00592725,0.0327757
0.0178821,0.0166233
0.0174054,0.0118699
0.0106024,0.00570599
-0.00971996,-0.00934742
-0.0447897,0.0149663
-0.0443567,-0.00829726
-0.0186747,-0.0157817
6.18e-05,0.00498572
-0.0171028,-0.000570873
-0.047395,-0.00044652
-0.0474853,-0.0010612
-0.0252607,0.00304344
0.00925654,0.00300804
0.0279572,-0.00074147
0.0404959,0.00568049
0.0459568,0.0271509
0.0443793,0.0333819
0.0413414,-0.0425886
0.0360658,-0.0482469
0.00997921,-0.000186154
0.00308844,0.0232875
0.00556502,7.12e-05
0.0110148,-0.0085037
-0.000254004,0.0138324
-0.00395265,0.0119792
-0.0180058,-0.00354715
-0.0270527,-0.0287122
-0.0219948,-0.00313369
-0.00189467,0.0309354
0.015038,0.014684
0.0124537,-0.0300747
-0.000104605,-0.005996
-0.0217955,0.0137072
-0.0308116,-0.0162061
-0.0220318,-0.016696
-0.0111502,-0.0355089
-0.00559467,-0.0121262
0.00713354,0.0585134
0.00541463,0.0405625
0.000526557,-0.0267771
0.0186032,0.0399256
0.0188802,0.0537641
-0.00339318,-0.0443906
0.0027987,-0.0239299
0.0195281,-0.00301072
0.0150369,0.00255668
-0.0153775,0.0106369
-0.0379376,-0.00275682
-0.0474242,-0.00293434
-0.0360186,-0.00019438
0.00685145,-0.00949755
0.0556655,-0.00974723
0.0604154,-0.00673251
0.0271437,-0.00861196
-0.00725208,-0.00621119
-0.011799,-0.00369103
-0.00155249,-0.00664628
0.0016498,-0.00487075
0.0116333,-0.00771977
0.0121353,0.00612142
-0.00129173,-0.00308985
-0.0182258,0.00250681
-0.0380179,0.0192448
-0.0403865,0.0321788
-0.0292505,0.0111638
-0.00926118,0.0187034
0.0402168,-0.00813785
0.0740645,-0.0238734
0.0888057,-0.00369958
0.0607284,-0.00579676
-0.0153088,0.00449951
-0.0576591,0.0022268
-0.0429347,-0.00632661
-0.0334729,-0.00848566
-0.0328476,-0.0107861
-0.0237962,-0.0251998
-0.0354955,-0.0172111
-0.0556403,0.00452456
-0.0469489,0.0223587
-0.0513239,0.0307203
-0.0612124,0.0154162
-0.0375097,-0.00138038
0.0377179,0.00200936
0.097207,-0.0275686
0.110782,-0.0216563
0.0676167,-0.00861931
0.0325995,0.000678306
0.0195266,0.0169134
0.00732286,-0.0038361
-0.00797526,-0.00448341
-0.0232571,0.0241018
-0.0107239,0.0232756
0.0181224,-0.00502343
0.0258912,-0.0153872
0.0133528,-0.00370115
0.00119544,-0.00050675
0.00654682,0.0041916
0.013355,0.0206882
0.00854776,0.00928932
-0.0124306,-0.00650495
-0.0277431,-0.00663158
-0.0290974,-0.00149017
-0.0186444,-0.000957852
-0.00928154,0.00312351
-0.00698715,0.00561469
-0.00984949,-0.00304379
-0.00988903,-0.00848445
-0.00334976,-0.00722841
0.00768459,-0.00946021
0.0119116,-0.0109156
0.000990668,-0.0161408
-0.0163079,-0.00142351
-0.0263732,0.0125927
-0.0207848,0.00653999
-0.00700895,0.00607097
0.00948362,0.0144793
0.0333096,-0.00194502
0.0303392,-0.0155563
0.00777877,-0.000692001
-0.0099659,-0.00184682
-0.0275897,0.000742123
-0.0298709,0.0076068
-0.0135351,-0.00309578
-0.00075968,-0.00155982
0.0161603,0.00661314
0.0395584,0.00123234
0.0477691,-0.00205749
0.02976,0.00220448
-0.00202069,0.00743131
-0.0195229,0.00916977
-0.0140109,-0.00286612
-0.00234756,-0.0146542
0.00116333,-0.00786343
0.000351776,0.0162554
-0.00538845,0.0122184
-0.00629194,-0.00200864
-0.00374239,0.00120743
0.00666549,0.00450884
0.0171658,0.00438518
0.0147405,-0.00524439
-0.00887389,-0.0138553
-0.0270848,-0.00886441
-0.0278005,-0.00641498
-0.0179676,-0.0111024
-0.00152275,-0.0101509
-0.0131897,-0.000897904
-0.0201721,0.0134252
-0.0153528,0.0297933
-0.00690373,0.0148751
0.00347263,0.0014633
0.00881681,-0.00356591
0.0198834,-0.000876995
0.0281306,0.00348091
0.0179365,0.00235176
0.00875109,-0.0044071
0.00992955,-0.0160365
0.0159624,-0.022273
0.0165897,-0.0112363
0.0135797,0.00822637
0.00483348,0.016283
-0.00375043,0.000124488
-0.0131986,-0.0171397
-0.0155535,-0.0165241
-0.00348837,-0.0150883
0.00462524,-0.0171359
0.0019354,-0.0218357
-0.00224485,-0.00565248
-0.00534311,0.0154178
0.00153041,0.0171305
0.00979257,0.0116676
0.00285006,0.0219127
-0.0118728,0.040208
-0.0249393,0.0363851
-0.0313222,0.0105899
-0.0233846,0.00478163
-0.0104134,-0.000816094
-0.0053449,-0.010349
-0.00469036,-0.00823204
-0.00198862,0.00115662
-0.00388467,-0.00302479
-0.0066322,-0.0105897
-0.00814117,-0.0152403
8.1e-05,-0.0229029
0.0266044,-0.0297783
0.0405098,-0.0273504
0.043285,-0.0165461
0.0424522,0.0225103
0.0316457,0.0395798
0.0150585,0.0295218
0.00494264,0.0118472
-0.00198735,-0.00185744
-0.0152855,-0.00990425
-0.0213055,-0.0167938
-0.0235162,0.0022837
-0.0321182,0.0164661
-0.012298,0.0130388
0.0357542,0.0116358
0.0141182,0.00809017
-0.0484494,-1.58e-05
-0.0682429,-0.010311
-0.0601265,-0.0142074
-0.0119989,-0.0134886
0.0342341,0.00181262
0.0728172,0.0040791
0.0729613,-0.0183839
0.0605699,-0.0202342
0.0672503,0.006581
0.0634619,0.0245602
0.0443243,0.0149479
-0.0181521,-0.0176209
-0.0640265,-0.00740311
-0.0659412,0.00197385
-0.0594403,-0.00116899
-0.0492137,0.0131012
-0.0772605,0.0182313
-0.085078,0.00105525
-0.0317085,-0.0114788
0.0427052,0.0162438
0.0247813,0.0182993
-0.0615579,-0.0132758
-0.148486,-0.010645
-0.0893937,0.00436833
-0.0704555,-0.0241973
0.0254515,-0.035303
0.165136,-0.0273945
0.237253,-0.0245539
0.184013,-0.0055292
0.0768827,0.0272797
-0.10334,0.0376023
-0.201332,0.0281058
-0.102647,0.0230872
0.0229739,0.00356739
0.165473,-0.00986505
0.158846,-0.00807925
0.0297771,-0.00200253
-0.0497724,0.00588895
-0.0719521,0.00539663
