Comp Ch 3,Comp Ch 4
-0.00530965,-0.0204513
0.0185667,-0.0183525
0.0705158,-0.033849
0.0850538,-0.0628097
0.0570268,-0.0491176
0.068147,-0.0100469
0.113771,-0.0145729
0.118223,0.000769603
0.0955479,0.0179178
0.0794488,-0.0206079
0.0891607,0.0112709
0.0505556,-0.05733
0.0257418,-0.0474014
-0.0351403,0.0695612
-0.136157,0.0591355
-0.205894,0.0264056
-0.156371,0.0185462
-0.0255185,0.0187716
0.188578,-0.00807481
0.155143,-0.0328733
0.000575978,-0.026607
-0.0117032,-0.0234381
0.0382759,-0.00729673
0.0100887,0.0217842
-0.141142,-0.0146984
-0.383923,-0.00939521
-0.194979,-0.00929516
0.137885,-0.00430287
0.176654,0.0482875
0.0988682,0.0674511
0.16856,0.0390251
0.302201,-0.0276659
0.178836,-0.128924
-0.0693696,-0.0377025
-0.191779,-0.0421621
-0.214613,-0.125101
-0.0982403,-0.193586
-0.00444603,-0.0613694
0.0286254,0.239044
0.0156447,0.252864
0.00895544,0.172901
-0.0226936,0.0651421
-0.0405562,0.130715
-0.0871019,0.0632469
-0.0886251,-0.00797287
-0.0300817,-0.0276419
0.0497993,-0.0794176
0.0485996,-0.0296631
0.0352115,0.0564379
0.0449263,0.0056068
0.0163732,0.0037072
0.000853699,0.0250498
0.039508,-0.00862079
0.0363699,-0.19775
0.0353792,-0.21047
0.0374649,-0.214578
0.0124788,-0.144317
-0.0456525,-0.0671218
-0.0737313,-0.0191395
-0.0248237,0.0615774
0.00796349,0.141365
-0.0303469,0.138421
-0.0389142,0.163866
-0.00630244,0.130657
0.00997528,0.127809
-0.00517352,0.0906111
-0.0404669,-0.0199591
-0.0429078,-0.0347808
-0.00922914,0.0231891
0.0132371,0.0595051
0.0306624,-0.0256995
0.00851605,-0.015345
-0.0319573,-0.0799356
-0.041282,-0.0853759
0.00132537,-0.0182156
0.0580667,0.0126706
0.0874518,0.00108884
0.0721576,-0.0660759
0.0490305,-0.108522
0.0278838,-0.0953984
-0.00278685,-0.0505997
-0.0447073,0.0289187
-0.036404,0.128331
-0.00447359,0.145131
-0.00808634,0.0626123
-0.0205973,-0.0247428
-0.0324958,-0.151439
-0.0177784,-0.153849
0.0168153,-0.164639
0.0913423,-0.0918729
0.12502,0.0472187
0.0652049,0.141741
0.0200607,0.192207
-0.0412578,0.112645
-0.0977735,-0.0657026
-0.00346599,-0.119268
0.0667942,-0.136426
0.0462701,-0.0465829
-0.0483204,-0.0422541
-0.0895228,0.0369305
-0.0659835,0.0896007
-0.0426833,0.0995941
0.0249153,0.0786194
0.0973777,0.0647927
0.103681,0.156737
0.00984677,0.0408735
-0.0663104,-0.0793814
-0.101639,-0.0075613
-0.138559,-0.0148784
-0.127533,-0.0831482
-0.0561697,-0.106211
-0.000932297,0.0139634
0.0279052,0.158899
0.041721,0.155427
0.0572534,0.0741309
0.0603635,-0.0422718
0.0521204,-0.0721008
-0.00443765,-0.057375
-0.00541271,0.0504108
-0.00649078,0.0444553
0.0085515,-0.0411842
0.0589221,-0.106496
0.0701075,-0.0773182
0.0190101,0.0272371
-0.00402809,0.0613576
-0.0398028,0.0415633
-0.0788511,0.0373311
-0.0605688,0.0574644
-0.0371942,-0.0426027
-0.0412177,-0.215128
-0.0488919,-0.258167
-0.033372,-0.356151
0.057532,-0.267106
0.105817,0.0323865
0.0684421,0.138797
-0.00774597,0.243133
-0.080666,0.237724
-0.0580133,0.2082
0.0306781,0.138184
0.0833004,0.0283114
0.0426979,0.0265577
-0.0149753,-0.00691488
-0.0340132,0.097097
-0.0221583,0.0266465
0.00306013,-0.121007
0.045758,-0.0293772
0.0585729,0.00704579
0.0416461,0.053821
0.00068037,0.0830001
-0.0229014,0.0229091
-0.0243777,-0.0445619
0.00274575,-0.0692186
0.0102426,-0.058288
0.0211237,-0.156501
0.0161064,-0.159262
0.00735568,0.0131397
-0.036476,-0.0878527
-0.0411259,-0.00331332
-0.0115249,0.0207349
-0.00420617,0.034004
-0.00598668,0.0874104
-0.0241029,0.0677492
-0.0500471,0.0605004
-0.0131186,0.0464644
0.0559454,0.0107988
0.0727928,0.0321407
0.0452892,0.0518555
0.0521209,-0.0109439
0.0460873,-0.0439067
-0.0330057,-0.108867
-0.0898157,-0.0492397
-0.00599822,-0.011977
0.0537038,-0.035314
0.0291849,0.0258717
-0.061082,0.0404028
-0.108994,-0.0121892
-0.0625262,-0.00649516
-0.0496946,0.00228965
-0.00410673,0.0167578
0.0318712,0.00958155
0.0513539,0.0182972
0.0350466,0.0528164
-0.054063,-0.0075371
-0.0918718,-0.0215417
-0.0716577,0.0397529
-0.00782529,0.0127527
0.0781688,-0.000888237
0.102649,-0.0306004
0.0763699,-0.00397052
0.038877,-0.100433
0.0342926,-0.0589778
0.0417101,0.0252511
0.0720628,0.00305941
0.0606134,-0.0100858
-0.0021924,0.00432151
-0.0697874,0.0120488
-0.0543239,0.0264873
-0.0323936,0.0223923
-0.0853273,0.00758564
-0.0705924,0.022801
-0.00982097,0.0442265
0.0664805,0.0618994
0.0980778,-0.0223362
0.0619078,-0.0156798
-0.0364335,-0.0190926
-0.10155,0.00310108
-0.100422,0.0325939
-0.0637945,-0.00663179
-0.00077583,-0.0234537
0.0421367,-0.0489583
0.091593,-0.00217818
0.0934653,0.0210718
0.0653145,-0.0145569
0.0166736,-0.0274143
-0.0239228,-0.00379008
-0.0242931,0.00973061
-0.00772259,-0.0231691
-0.00891325,-0.0619827
-0.0126377,0.0280065
-0.00691327,0.103221
0.0108609,0.0463204
0.00282445,-0.0165175
-0.0144471,-0.0280842
-0.0339832,0.00222445
-0.0454052,0.0235462
-0.0401182,-0.0242084
-0.0517951,-0.0370931
-0.0832357,-0.00600616
-0.0629659,-0.0066357
-0.00826903,-0.00279257
0.0225065,-0.0204332
0.0357928,-0.0104655
0.0227761,0.000660002
-0.00242516,-0.000710958
-0.00772485,-0.00654614
5.13e-05,-0.0677982
0.0258943,-0.0702199
0.0420849,0.0495966
0.0435711,0.0606586
0.0364021,0.0944001
0.0391646,0.106234
0.111243,0.0575715
0.169567,-0.00164975
0.112468,0.0132268
-0.0183253,-0.00499955
-0.110796,-0.0105832
-0.138707,-0.0214292
-0.129594,0.0386194
-0.0489296,0.0327156
0.0275726,-0.0628969
0.0313888,-0.0796334
-0.00274228,-0.0388089
-0.0160654,-0.065648
-0.0173541,0.0144232
-0.00800447,-0.00752255
0.000159743,-0.0387123
0.0172357,0.0988409
0.0127649,-0.00106892
-0.0319094,-0.0365061
-0.0731158,-0.0216861
-0.0666763,-0.00467633
0.011527,-0.00974242
0.0491924,0.0306572
0.0120441,0.0344533
-0.00611102,0.0259703
-0.015596,0.0464457
0.0216892,0.0394255
0.0850073,0.0185138
0.107358,-0.00834802
0.101568,-0.067914
0.0439259,-0.093846
-0.0581403,-0.0301726
-0.0927575,0.0207026
-0.0528764,0.0072169
-0.0101589,0.00468179
0.0265866,0.02937
0.0160634,0.013428
-0.00938881,-0.0329038
-0.0333463,-0.0452322
-0.074206,-0.0571115
-0.0830543,-0.0897811
-0.0359683,-0.0294829
0.0374487,0.0918571
0.0632631,0.10675
0.0329794,0.0325603
0.00813907,-0.0144771
-0.0148516,-0.033741
-0.0012744,0.00675166
0.0453724,0.00487746
0.0801603,0.0378335
0.0380424,0.0369652
-0.0497412,0.0107283
-0.0840959,-0.0406816
-0.0123949,-0.0703927
0.118726,-0.0467448
0.21432,0.108825
0.191849,0.0482204
0.0402339,0.00088937
-0.193632,0.0142086
-0.23693,-0.0233483
-0.111997,-0.051799
-0.02312,-0.026511
-0.0429837,0.0192841
-0.0753867,0.0161693
-0.0137917,0.0106441
0.0493916,-0.0355321
0.0642004,-0.0217197
0.0181787,-0.0193121
0.0123628,-0.0244902
0.0218796,-0.0144549
0.0243592,0.0431623
-0.0191317,0.0746639
-0.0601264,0.0542387
-0.0632089,-0.0057312
-0.0147673,0.0128118
-0.00505216,0.0218868
-0.0379581,0.0108258
-0.0259165,-0.00361282
0.0268072,0.018075
0.0417987,0.00226737
0.0246417,-0.041428
0.0232343,-0.0502731
0.00276017,-0.0632187
-0.0228469,-0.00690266
-0.0193062,0.0261822
0.0135538,-0.00793076
0.0388401,-0.050026
0.0452895,-0.0612895
0.0143525,-0.0555456
-0.0201276,-0.0541836
-0.0482016,0.0221206
0.00611904,0.0740335
0.0368278,0.0908581
0.0336451,0.0828987
0.0566053,0.0878522
0.110146,0.0607485
0.138429,-0.0215466
0.100954,-0.100712
-0.036511,-0.0744818
-0.177607,-0.0413923
-0.190582,-0.040219
-0.0708715,0.0413441
-0.00330087,0.0933363
-0.00483629,-0.00930118
0.0162823,-0.0608868
0.0251486,-0.0677442
0.00944257,0.000724584
-0.0303725,0.136534
-0.0651297,0.0735287
-0.0482321,0.00870584
-0.0193437,-0.0176497
0.0608625,-0.0421975
0.152086,-0.0564186
0.14663,-0.0082996
0.0448108,0.0224491
-0.0611889,-0.0220182
-0.116948,-0.0448516
-0.0612225,-0.0304498
0.0222089,0.000317454
0.064517,-0.0343974
0.0535331,-0.0088649
0.0137872,0.0949007
-0.0244487,0.110998
-0.066284,0.0275605
-0.0526669,0.0245018
-0.0228383,0.026137
-0.000164927,-0.0220037
0.0100305,0.0043424
-0.025402,-0.0359256
-0.041662,-0.0517657
-0.00442745,-0.0486484
0.0225408,-0.036498
0.0192934,-0.0105481
0.018503,-0.00943366
0.00203784,-0.0394845
-0.0271888,-0.0320438
-0.0240974,0.0322649
-0.000890784,0.0568843
0.0259904,0.0307079
0.0344053,-0.0294194
0.021604,0.0636574
0.00916097,0.0894548
0.0146082,-0.0492209
0.0129564,-0.0403775
0.0106167,-0.0031628
0.0163843,0.0178312
0.013349,0.0296565
0.00141795,-0.0277462
-0.0266914,-0.017894
-0.0363176,0.00233348
-0.0378541,0.0214061
-0.00339083,0.00069805
0.0658319,0.00116221
0.103375,0.0183036
0.109497,-0.000811249
0.033793,-0.030254
-0.0832051,-0.028337
-0.13375,-0.0339654
-0.127624,-0.0368647
-0.0968604,0.00161432
-0.0428283,-0.053644
0.0183874,-0.0153273
0.0761898,0.0857709
0.0866267,0.0677433
0.0862481,0.0144531
0.088042,0.02298
0.0480117,0.0227765
-0.0580098,0.0220539
-0.133441,-0.0192949
-0.101866,-0.0675133
-0.0173104,-0.0672136
0.0417065,-0.0360211
0.0748483,-0.0752911
0.0549863,-0.100036
0.0184955,-0.0409366
-0.00596641,0.0187048
-0.0449368,0.0125725
-0.0667117,0.0581409
-0.0504058,0.0542835
-0.00798458,0.0662918
0.0691841,0.0599385
0.117427,0.0374258
0.0583525,0.0072378
-0.0178362,0.0241985
-0.0556195,0.000161174
-0.0831169,0.023371
-0.0684413,0.109676
-0.0388435,0.0275149
-0.00702394,-0.0444216
0.0251251,-0.0374548
0.0160349,-0.0105172
-0.00042842,-0.0660303
0.00813991,-0.0437266
0.0343934,0.0305554
0.0420853,-0.0160334
0.0317837,-0.0250046
0.0202335,0.0150765
-0.00670023,0.0112911
-0.0399824,-0.0173516
-0.0492954,-0.0139294
-0.0301122,0.038071
0.00366164,0.0618984
0.0165374,-0.00287067
-0.0170095,-0.0561011
-0.0183528,-0.0123373
-6.1e-05,0.0151104
0.0211215,0.0224339
0.0352219,0.0119941
0.019997,-0.000369504
0.000741851,0.00843913
-0.00429008,-0.00156396
-0.00825143,-0.0129299
-0.00557355,-0.0305063
-0.005133,-0.045795
-0.00626677,-0.0307523
0.00795471,-0.00907819
0.018548,0.00472286
0.00214571,-0.00250435
-0.00265382,-0.0199082
0.00683707,-0.0240242
0.0127691,0.00681365
0.0198156,0.055282
0.0213303,0.0431202
0.020615,0.0111637
0.0237076,-0.00382811
0.0146526,-0.0304518
-0.00443447,-0.00366315
-0.0191289,0.0248226
-0.0214443,-0.0246063
-0.0145737,-0.0117626
-0.00606245,-0.00514356
-0.00099138,-0.00942851
-0.00853813,0.0368745
-0.0121709,0.0131218
-0.000368319,-0.00682419
0.00965518,0.0157106
0.00843492,0.0118424
0.00723758,0.00957908
0.00380658,0.0196843
0.00251026,0.00749127
0.00137622,0.0236354
-0.00426221,0.00734235
-0.0162853,-0.0212879
-0.0218815,-0.0264249
-0.0175546,-0.01725
-0.0261525,-0.0462076
-0.0303935,-0.0131028
-0.0269514,0.00119347
-0.019888,-0.00220311
-0.00718208,0.0161199
0.0052813,0.0273881
0.0205768,0.040953
0.0337672,-0.0174279
0.0458637,-0.0359231
0.0530277,-0.0405147
0.0387303,0.00929367
0.0125488,0.0519363
0.00049246,-0.0123776
-0.00204634,-0.0853351
-0.0215558,-0.0728603
-0.0299292,0.0291752
-0.0247524,0.0432127
-0.0232477,0.0362545
-0.0313885,-0.0270355
-0.0196038,-0.0554235
-0.0222315,-0.118353
-0.0195305,-0.080297
0.00259243,0.0109072
0.00503766,0.0378001
0.00254708,0.147994
0.0160913,0.189647
-0.0113422,0.139088
-0.0345309,0.0322961
-0.0164997,0.043685
0.0467865,0.0318868
0.112738,-0.0945769
0.150656,-0.137056
0.0947902,-0.129798
0.0146549,-0.0780449
-0.0679038,0.0183032
-0.0947192,0.119209
-0.0279082,0.119696
0.0184735,0.0646583
0.0338188,0.0326443
0.0370008,-0.0249009
0.0175394,-0.0456019
-0.0376617,-0.000737822
-0.0532095,0.042789
-0.0302637,-0.00233559
-0.030634,-0.0513073
-0.0522234,-0.0431094
-0.0668551,-0.0473078
-0.0521992,-0.0192076
-0.0200592,-0.0609202
0.0059252,-0.0513076
0.00778672,-0.005869
-0.00192584,0.00738989
-0.00362435,0.0317987
0.00192887,0.00197035
0.0106602,0.0368021
-0.00234861,0.0059421
0.00494289,-0.0598545
0.0165807,-0.00944861
0.0240248,0.0553424
0.0403661,0.0216439
0.0751086,-0.0191511
0.0800434,-0.0424295
0.0253259,-0.08513
-0.0483118,0.023711
-0.0585097,0.114006
-0.049374,0.0256804
-0.034596,0.014767
-0.0172579,0.00235576
0.0111379,-0.0219639
0.0219254,0.000700159
-0.0112345,0.0248371
-0.0600937,-0.00126927
-0.0488393,-0.0392971
-0.0161266,-0.079801
0.0220941,-0.07281
0.0447361,-0.025469
0.0431299,0.00743004
0.0442918,0.0241169
0.0695111,0.0380406
0.0558584,0.0645244
0.0203184,0.100519
-0.0086526,-0.0236182
-0.0233154,-0.0245409
-0.0379777,0.0108495
-0.0306057,0.0136607
-0.0130996,0.00866694
0.00919041,0.0214691
0.0181596,-0.00924297
0.0347419,0.013387
0.0671494,0.0183467
0.0733199,-0.0493494
0.0468595,-0.0678094
-0.0176346,-0.0695409
-0.0602878,-0.022609
-0.0625433,0.0907502
-0.0756296,0.0793866
-0.0752142,-0.112086
-0.0309898,-0.0394023
0.0235665,0.0709555
0.0490555,0.0605527
0.0310524,0.0216046
-0.00521363,0.00940776
-0.0327871,0.0221246
-0.0918192,-0.00953215
-0.0679275,-0.0016222
-0.012296,0.0375781
0.00469789,0.00336676
-0.000244576,-0.0141066
0.0086024,-0.0246313
0.0231299,-0.0687579
0.0175902,-0.0396929
-0.000811056,0.00387022
0.0301965,-0.0174687
0.0558108,-0.0167615
0.0137225,-0.0045132
-0.0108456,-0.00894396
0.0424596,0.0591302
0.0605607,0.0158338
0.0293727,-0.215134
0.000175631,-0.125678
-0.0232862,0.103291
-0.0582498,0.0975629
-0.0591661,0.0594962
-0.0697289,0.0847149
-0.090856,0.11083
-0.0572739,0.0617612
0.0328717,-0.0372774
0.0921886,-0.0627534
0.0911564,0.0415475
0.10489,0.0604217
0.115558,-0.00257625
0.0568386,0.0429318
-0.0259492,-0.0378875
-0.110404,-0.112004
-0.151433,-0.0949404
-0.08789,-0.0309789
0.00987979,0.048761
0.109403,0.0180668
0.140571,-0.0155207
0.0958283,-0.00163411
0.0320203,0.140938
-0.02767,0.0758478
-0.0662951,0.0246941
-0.0771694,-0.0865551
-0.044749,-0.086828
-0.0321181,-0.0663785
-0.030695,-0.0621253
-0.0489077,-0.0335384
-0.0692598,-0.0352947
-0.0302699,0.0523723
0.0571139,0.102837
0.126641,0.0407947
0.141727,-0.0652247
0.0700658,-0.0209388
-0.0229352,-0.00875487
-0.0875509,0.0215172
-0.110747,-0.0355527
-0.047335,-0.0776711
-0.0235197,-0.0325936
-0.019,-0.0219408
-0.00496183,0.0142506
-0.0107734,0.0270652
-0.0309345,0.0988887
-0.0521991,0.0547361
-0.0195409,0.0316938
0.0581383,0.00825802
0.132774,0.0144091
0.115952,-0.0108459
0.0258927,-0.0382429
-0.0522133,-0.00443854
-0.071917,0.0110407
-0.0463843,0.0182836
-0.00462449,-0.00264036
0.0224277,0.0173458
-0.027047,-0.0583351
-0.0497474,-0.0968952
-0.0229051,-0.0405073
0.0292038,0.0266087
0.0706606,0.00669859
0.0738198,0.0344035
0.0584059,0.0222039
0.0117983,0.0669743
-0.0497825,0.0489051
-0.0443058,0.00658664
0.00386025,-5.84e-05
0.0323624,0.0537796
0.0127293,-0.0157712
-0.0205591,0.00391546
-0.0437811,0.00258657
-0.0306696,-0.0181204
-0.00894445,-0.0391044
0.0117428,0.0182159
0.0187565,0.0288366
-0.0361045,-0.0125268
-0.0831533,-0.0484438
-0.010627,-0.070435
0.0959757,-0.0620771
0.114348,0.0266618
0.0826679,0.0590543
0.00410327,-0.0586261
-0.0829225,-0.0468649
-0.108957,0.0520226
-0.0355195,-0.00372006
0.0264998,-0.0212844
0.022882,-0.00552918
0.00109294,0.00792705
-0.0205853,0.0538564
-0.0330499,0.0802069
-0.0471163,0.0130521
-0.0174187,-0.0475184
0.0282642,-0.110449
0.0457943,-0.0293272
0.0323143,0.0991534
0.0128576,0.103418
-0.0132593,0.00289295
0.003117,-0.0762223
0.0241406,-0.0498269
-0.0149926,0.00457046
-0.0320093,-0.0424608
0.0243628,0.102148
0.0739997,0.0375665
0.0936501,-0.0872872
0.085399,0.0735138
0.0247752,0.0158719
-0.022397,0.0396851
0.00767164,0.0772233
-0.0331406,-0.0131191
-0.151469,-0.0799511
-0.131391,0.0494709
-0.0451396,-0.0235502
-0.0432926,-0.0864352
-0.0756502,0.00370315
-0.0429968,-0.043804
0.00788643,-0.0744507
0.0616568,-0.0608497
0.0978423,-0.00576122
0.114955,0.009532
0.134391,0.0624204
0.0978524,0.031139
0.0644114,-0.0310351
0.0102772,-0.0209602
-0.0773334,0.0124882
-0.155745,-0.011508
-0.126726,0.0281209
-0.07781,0.100227
-0.0473131,0.0330438
-0.0724307,-0.0170724
-0.0327697,0.0019468
0.147346,0.0346611
0.229464,0.0432524
0.0974845,0.0485241
-0.039835,0.00679446
-0.0922435,-0.031627
-0.0634753,-0.0502653
-0.0223376,-0.0804766
-0.0258461,0.0291652
-0.0365162,0.0542096
-0.0112984,-0.0135424
0.0177972,-0.056129
0.0454282,-0.0647783
0.0718189,-0.0384488
0.0505929,-0.0102834
0.00349147,-0.145655
-0.0216282,-0.0671025
-0.0645147,-0.0129926
-0.0654941,0.123563
-0.0377626,0.195954
-0.0183315,0.0636511
-0.00939162,-0.0854302
-0.0125049,-0.0533307
-0.019108,0.109526
0.0271263,-0.023805
0.0920497,-0.077266
0.0942573,-0.0688934
0.0366229,-0.0352791
-0.0112058,0.0187689
-0.0174588,0.0775149
0.00787284,0.105022
0.0106619,0.100439
0.00738059,0.0864105
0.0173086,0.0369185
-0.0243985,0.00185064
-0.0705784,0.0467844
-0.0331239,-0.059305
-0.00268452,-0.0927845
-0.00527865,-0.128102
0.00926988,-0.118063
0.0125535,-0.0779246
0.0108466,-0.015632
-0.00167854,0.0478349
-0.0413098,0.102461
-0.0511158,0.0660383
0.0375577,0.00403466
0.0681701,0.0144809
0.0486539,0.0660511
0.0088376,0.0443664
0.000603056,-0.0211948
0.00680722,-0.0986655
0.018738,-0.0402088
0.0278639,0.081852
-0.00353146,-0.0252262
-0.0198469,-0.226346
-0.0343211,-0.0841263
-0.110006,-0.0361644
-0.120747,-0.0652298
-0.0474321,0.13974
-0.00993401,0.151887
-0.00164817,0.105548
0.00499122,0.0853845
0.00750968,-0.0505306
0.0539943,-0.107169
0.105189,-0.0647814
0.0704122,0.0434494
-0.0024859,0.031016
-0.0364669,0.0751647
-0.0581802,0.0428104
-0.0517359,-0.0132081
0.0195411,-0.0267688
0.134658,-0.0408967
0.146754,-0.0813898
0.0899495,-0.021921
0.0266467,0.0298055
-0.0344632,0.0899057
-0.0743415,0.0749919
-0.0228677,0.0162711
0.0131534,-0.0426352
0.0325392,-0.0461857
0.0322099,-0.0909712
-0.0148796,-0.0556332
-0.115066,0.0685925
-0.128417,0.0329918
-0.0550719,0.0214403
0.0466322,0.0247614
0.0210648,-0.0422388
-0.0736403,-0.0790643
-0.163474,0.00887569
-0.180025,0.10786
-0.0915721,0.0681557
0.0662508,0.0310264
0.263457,0.0769834
0.183305,0.0463585
-0.087321,-0.0255148
-0.104341,-0.098035
-0.108601,-0.195049
-0.0339984,-0.0974793
0.216463,0.0287201
0.309074,-0.0959416
0.237029,-0.0119912
0.123406,0.0926835
-0.0341329,0.00656427
-0.188768,-0.0531945
-0.184146,-0.0103763
-0.098095,0.12596
0.00307192,0.140563
0.0929754,-0.0180053
0.0647242,-0.11285
-0.0742274,-0.0592718
-0.157591,0.0694407
-0.118215,0.086719
-0.0575939,0.075313
0.139413,0.111753
0.07166,0.0208666
-0.196969,-0.0190235
-0.24406,-0.0288012
0.00651122,-0.0889392
0.168451,-0.0395593
0.197774,-0.0213435
0.154149,-0.0723387
0.133701,-0.00854631
0.121119,-0.048707
-0.0251535,0.0115126
-0.180001,0.059323
-0.143836,-0.0709452
0.0225591,0.0113941
0.127745,0.0424773
0.0324739,0.0429052
-0.169362,-0.02225
-0.229175,-0.0498775
-0.157053,0.0364262
-0.0115097,0.141531
0.0785147,0.0681968
0.0278208,-0.0406669
-0.0257304,-0.0267548
0.0511808,-0.0329265
0.11851,0.0545183
0.203425,0.00374058
0.194572,-0.0762768
0.0699055,-0.0876028
-0.0952181,-0.0535206
-0.239899,-0.0905941
-0.121022,0.0166681
0.0837876,-0.187467
0.167868,-0.129904
0.123442,0.128316
0.0742395,0.127634
0.0933742,0.0156581
0.0487603,-0.0474639
0.0191675,-0.108148
-0.0302921,-0.0835395
-0.128575,0.102207
-0.233471,0.113203
-0.344529,0.233442
-0.355776,0.228047
-0.149149,0.222394
0.151087,0.224603
0.401909,-0.0427394
0.374193,-0.206649
0.0977047,-0.323886
-0.0628181,-0.298772
-0.108561,-0.172098
-0.0491156,0.0133939
0.00259304,0.163095
-0.0318486,0.313516
-0.0389005,0.159602
0.0992246,0.0744681
0.179851,0.00294091
0.0577613,-0.044268
-0.00951396,-0.175623
-0.0215003,-0.0762828
-0.185203,0.0642709
-0.195958,-0.0611474
-0.108771,0.103031
-0.0557624,0.0696339
0.00471073,0.0158692
0.100435,-0.0206687
0.159986,-0.0840814
0.096979,-0.168056
-0.0126316,-0.250361
-0.030959,-0.152921
-0.0342844,-0.0313227
-0.0544842,0.04106
-0.0737023,0.116127
-0.125664,0.176151
-0.146179,0.0819072
-0.134847,-0.0406746
-0.103933,0.0927109
0.0265599,0.0483485
0.119238,-0.0404334
0.119094,-0.173968
0.107786,-0.128733
0.0783173,0.0822072
0.0437319,0.154956
0.00720567,0.0269359
0.0568978,0.0282456
0.108368,0.061376
0.0963867,0.0618813
0.0283337,0.0855261
-0.0341252,0.0470996
-0.0408599,-0.0322047
0.0129255,-0.0237773
0.0390983,-0.086844
0.109034,-0.0627249
0.1788,0.0202285
0.160226,-0.0492379
0.0864603,-0.0916622
-0.00243131,-0.0828797
-0.168082,-0.118034
-0.210746,-0.0758657
-0.133926,0.0349236
-0.0615225,0.244569
-0.00841761,0.16041
-0.0425676,-0.0258605
-0.0833907,-0.118483
-0.117704,-0.0100285
-0.153011,-0.00429847
-0.112802,-0.00157025
-0.0130975,-0.042735
0.0803575,-0.0124641
0.081061,0.0197408
-0.0622435,0.0910537
-0.185188,0.0326403
-0.152669,-0.0814855
-0.0287148,-0.0638057
0.104126,-0.0735398
0.265014,0.121832
0.231131,0.160638
0.17903,-0.0394282
0.0848548,0.0163098
0.0133823,0.0757506
0.0231657,-0.0716766
0.0619137,-0.151227
0.120787,-0.0481817
0.028392,-0.00883222
-0.129532,-0.00862007
-0.176512,0.032694
-0.0882465,0.0334969
0.0191082,-0.00665935
0.0160086,0.0491762
-0.0163596,0.115035
-0.00564306,0.202222
0.0349545,0.0406062
-0.00530822,-0.110633
0.0305049,-0.116312
0.0759965,-0.120932
0.0366122,-0.131913
0.00574756,-0.0537292
-0.0508708,0.0410822
-0.111511,-0.0355437
-0.190312,0.0367614
-0.139669,0.0133811
0.0214714,0.0920759
0.115264,0.0657891
0.0438692,-0.0385113
0.0452851,-0.0985973
0.00977364,0.000795831
0.000991467,0.139119
0.0133883,0.0542822
0.038766,0.0438109
0.0327923,0.0176665
-0.000166155,-0.0230386
-0.0918056,-0.0501449
-0.0783878,-0.0152127
0.0488682,0.0502849
0.0951343,0.0368015
0.101883,-0.080932
0.0772008,-0.0626201
0.0444114,-0.0635811
0.0428073,0.0894394
0.0230576,0.0281783
0.00898939,-0.0764505
-0.060285,-0.0637087
-0.1279,0.0203845
-0.109186,0.045509
-0.0566808,-0.00216739
0.00140357,-0.00183234
0.00774767,-0.00709344
-0.0615981,0.000476471
-0.178411,0.0212116
-0.128453,0.0142658
0.0735651,0.00753252
0.19465,0.0349807
0.0643644,0.10788
-0.0460431,0.0583661
-0.084073,-0.0580242
-0.028704,-0.0645002
0.107823,-0.0149499
0.122312,0.0123023
0.0376139,-0.018366
-0.00344277,-0.0116324
-0.0203037,-0.0335308
-0.028188,-0.0370025
-0.0323075,-0.0343948
-0.0260432,-0.0116579
-0.0195894,0.000618954
-0.0187182,-0.0410844
-0.0225736,-0.0379665
-0.0242845,-0.0444674
-0.0134905,0.0254917
0.0526745,0.0557853
0.109623,0.0473534
0.0627111,0.0304282
-0.0162441,0.00344256
-0.0590216,0.0681999
-0.0408847,0.0420525
-0.0103655,-0.0219178
0.0184085,-0.0500845
0.0540356,-0.0334101
0.076185,0.0010243
0.0355432,0.00876265
-0.0151498,0.00986037
-0.0291309,0.0277282
-0.075959,0.0239944
-0.102756,0.0160573
-0.0652186,0.00018825
-0.0312331,-0.0148704
0.00135842,0.00716687
0.0440906,0.00835313
0.0640569,-0.0338787
0.0674297,-0.0186975
0.0630544,-0.0253408
0.0806248,-0.00369802
0.0521459,-0.01304
0.0146002,0.00508933
-0.0490938,-0.00667931
-0.0671126,-0.011526
-0.00603651,0.0114317
0.0205339,0.0319161
0.0187261,0.0627879
-0.00648606,0.029424
-0.0681367,-0.00932883
-0.0268067,-0.0136329
0.0746793,-0.0133571
0.0759573,-0.0120876
-0.00810494,-0.0538739
-0.0646728,-0.0948959
-0.0999105,-0.0185165
-0.0687573,-0.0344023
0.000874609,-0.0459237
0.0157186,0.0720603
-0.010732,0.0691417
-0.0144571,0.0432946
-0.0156326,0.00170653
0.00697358,0.0219055
-0.0273919,0.0084209
-0.0244891,0.0194354
0.0156379,0.0171359
0.0273515,-0.0165753
0.0396609,0.0783266
0.0655624,0.108512
0.0404053,-0.0240135
0.0266953,-0.124109
0.0182207,-0.111688
-0.0194184,-0.0665111
-0.0116657,-0.00496064
0.0267803,0.0531721
0.0658258,0.0221218
0.0389973,0.00851781
0.0117218,-0.0117702
-0.0291037,-0.0316372
-0.135646,0.0118421
-0.159828,0.0279349
-0.0389273,0.0227742
0.0529335,0.0542471
0.0609365,0.0483854
0.0237968,0.0241896
0.0095953,0.00556385
0.0206918,-0.00658352
0.0273264,-0.0193123
0.0130432,-0.0185703
-0.038391,-0.0421204
-0.0637472,-0.0202468
-0.0490134,-0.0278767
0.0210907,0.00360883
0.0460835,-0.000468001
0.0135787,0.0160754
-0.000259513,0.0142697
0.0043922,-0.035787
-0.00903798,-0.0619037
0.000326107,-0.00500079
0.025169,0.0323364
0.00895568,0.000367544
0.0149391,-0.0258899
0.012729,-0.0211635
0.0301606,0.0205487
0.0424883,-0.0130623
0.0225751,-0.0593947
0.00551173,-0.0308857
-0.0255953,0.0553897
-0.0679942,0.0721857
-0.0723722,0.0562798
-0.0507086,0.0584756
-0.0229095,-0.00414189
0.0832007,-0.0232865
0.125561,0.00322159
0.0634171,0.0440475
-0.0326301,0.00257221
-0.0876899,-0.0363512
-0.0645433,-0.0113298
-0.0533173,0.00398716
-0.00731011,-0.0060479
0.0293556,-0.0205594
0.03035,-0.0107633
0.0435989,0.0222859
0.0172465,-0.00559798
-0.00155791,-0.00906508
-0.00348047,0.0626308
-0.0340801,-0.0213813
-0.049227,-0.0817892
-0.00667608,-0.0378488
0.0303414,-0.0500321
0.0690488,-0.0965567
0.0991843,-4.05e-05
0.0471215,0.0523959
0.00349188,0.0670006
-0.0345017,0.0531961
-0.0652624,0.000159776
-0.0500837,0.00698746
-0.0342161,0.0487583
-0.00193237,0.0934773
0.00132546,-0.014736
-0.0170101,0.0201089
-0.042986,-0.0812061
-0.030384,-0.131105
0.00542079,-0.0869128
0.00984797,-0.0285576
-0.0262749,0.0170522
-0.0206074,0.0835178
0.0163564,0.116772
0.0354041,0.0986661
0.0237463,0.0638389
-0.0116126,0.00562488
-0.0418274,-0.021882
-0.0493303,-0.0222782
-0.0468908,-0.0209123
-0.00328371,-0.00605421
0.0393916,-0.0135366
0.0508325,-0.00715076
0.0360755,0.0284513
0.00489159,0.0284299
0.0115033,-0.00719143
0.023146,0.0222126
0.00829437,-0.0329418
0.0252456,-0.0632741
0.0303507,-0.0391965
0.00016784,0.0026137
-0.00930776,-0.0767705
0.0205596,-0.119424
0.0282531,0.00223884
-0.0044667,0.0652489
-0.020938,-0.0199324
-0.0177925,-0.0119269
-0.0515288,0.0333571
-0.0738149,0.0262677
0.0102732,0.0153133
0.00127403,0.0222819
0.051805,-0.0316253
0.0906051,-0.101704
0.0506696,-0.118666
0.00259466,0.0166046
-0.0539664,0.134635
-0.0658274,0.122452
-0.0365348,0.0904158
-0.02863,0.0579537
-0.0218291,0.0227403
-0.0223005,-0.00879573
0.00471595,-0.0285596
0.0509516,-0.0442393
0.0686543,-0.0731129
0.0466636,-0.0621014
-0.00536077,-0.0489996
-0.0111438,-0.00643069
0.0208359,0.0634131
0.0310333,0.0345094
0.0181309,0.0304746
0.0307162,0.0815403
0.0422762,0.0734037
0.0286726,0.00377982
-0.0176134,0.0151768
-0.0625894,0.00698945
-0.0644064,-0.0486047
-0.0813919,-0.0459516
-0.0420337,0.00274896
-0.00903213,-0.0339279
-0.0355746,-0.0636977
-0.0576359,-0.0753387
-0.0339757,-0.0621597
0.000939644,0.0375692
0.0310312,0.0804317
0.07858,0.00155983
0.111557,0.0281002
0.0919656,0.0762965
0.0214462,0.0533951
-0.0909485,-0.00571017
-0.0843125,-0.0422237
0.03489,-0.03568
0.0890561,-0.0247279
0.0747974,-0.0160511
0.0204765,-0.0229797
-0.0244199,-0.0274539
-0.0660192,-0.0447502
-0.0657376,-0.0100307
-0.0242726,-0.000842526
0.0114073,-0.00693965
-0.00785777,0.00816689
-0.069743,-0.0150799
-0.0927275,-0.0095277
-0.0539516,0.0751543
-0.00577489,0.0227539
0.0271788,-0.025141
0.0364602,0.0180908
0.072656,0.0156122
0.0860715,0.0203814
0.0587233,0.009213
0.0023087,0.0169558
-0.0635206,0.00510617
-0.0285549,-0.0273295
0.0219616,-0.0630943
0.0207764,-0.0207003
-0.00713079,-0.00705815
-0.025781,0.0158487
-0.0255887,0.00555954
-0.0358071,-0.00632254
-0.00819844,0.00192538
0.0239267,0.0144822
0.0177504,0.0357274
0.0104607,0.0302883
0.0353548,0.0245729
0.0488449,0.0415337
0.0248214,0.0280198
-0.0285988,0.0259541
-0.0339484,-0.00125621
0.0146362,-0.0497503
0.0521597,-0.0415768
0.0263886,-0.0672534
-0.0195784,-0.0649188
-0.0433733,-0.0244736
-0.0279269,-0.0348611
0.00525839,-0.035019
-0.0108906,0.0150787
-0.0658988,0.111763
-0.064236,0.0852271
-0.0199665,0.0297741
-0.00149181,-0.0101198
0.0390949,-0.0512125
0.0649775,-0.0421251
0.0460361,0.0600239
0.014103,0.0131635
0.0012498,-0.0438856
0.00135216,-0.0556624
0.0264426,-0.0101547
0.0593771,0.019639
0.0786184,0.0148372
0.0752885,0.0332033
0.00385727,0.080384
-0.0968405,0.0702913
-0.134875,0.00637406
-0.108447,-0.0110921
-0.0534925,-0.0766961
0.018478,-0.0902446
0.0319582,-0.0210493
-0.0110758,0.0860423
-0.0440336,0.0132642
-0.0148486,-0.1045
-0.00958983,-0.0600523
-0.0109044,-0.0167082
-0.00833508,0.0270896
0.00198978,0.0164275
0.0186358,0.0247134
0.044486,0.0373582
0.0552891,0.0790033
0.0647159,0.037121
0.0404357,-0.0438092
-0.00273041,-0.0141226
-0.0196867,0.0151712
-0.0532585,0.0128674
-0.0245422,-0.0382538
0.037983,-0.0400085
0.0504783,0.0137033
0.0548374,-0.0406115
0.0270223,0.00613101
-0.016774,0.0403761
-0.0567737,0.0457837
-0.0709237,0.015739
-0.0316114,0.00450551
0.020285,0.00205291
0.043976,0.0127158
0.0335107,0.00213388
0.0263558,-0.0236682
0.0310684,-0.00281723
0.0127642,0.0118022
-0.0245787,-0.0160671
-0.0291939,-0.0242561
-0.0318127,0.0140477
-0.0211851,0.0419963
-0.00859463,-0.0412181
0.0498611,-0.035858
0.0211076,-0.0324188
-0.0411692,-0.0133374
-0.0502513,0.00210925
-0.0439632,-0.0134887
-0.0488449,-0.0194449
-0.0470609,-0.00999192
-0.0361698,0.0367482
-0.0468553,0.0132875
-0.00306763,-0.0288793
0.0926725,-0.0255996
0.124822,-0.0123845
0.155276,0.00357839
0.17398,0.00802071
0.0932804,-0.00931568
-0.105964,-0.0169447
-0.220855,-0.00289645
-0.136694,0.084013
-0.00721166,0.0416277
-0.00433195,-0.0344024
-0.023898,-0.0150759
0.0304085,-0.0267323
0.0795507,0.0458522
0.0810025,0.0657505
0.045484,-0.0139557
-0.00932515,-0.0424229
-0.105766,-0.135933
-0.12554,-0.0749231
-0.0933099,0.0592291
-0.0540571,0.0434431
0.049549,0.0308319
0.101599,-0.004664
0.0758674,0.0572592
0.0336662,0.108828
0.0116921,0.0174655
0.00839338,0.00205364
0.0153964,0.0195522
0.0138999,0.0174016
0.0203135,-0.0864902
0.00870888,-0.0449352
-0.0200189,0.0418127
-0.0133118,0.00155252
0.00349068,0.0563902
-0.0266899,0.0716088
-0.0305008,-0.0274759
0.000113659,-0.0522478
-0.00350263,0.00559233
-0.00761061,0.0144072
0.00992217,-0.0749743
0.00765003,-0.0826111
-0.0121194,-0.0137819
-0.0190152,-0.0435695
-0.0193314,0.0336846
-0.0176731,0.0888916
0.000933395,0.0392167
0.0301649,-0.0113635
0.0534576,-0.0406624
0.0414857,-0.0407974
-0.0276891,0.0128108
-0.0522159,0.0470448
-0.0434225,0.0217471
-0.0396623,-0.0238577
-0.0199665,-0.0281892
-0.00409258,-0.00100983
-0.00184574,-0.00221039
0.0173818,-0.00794043
0.034925,-0.00317547
0.0351388,-0.00197229
0.0376049,0.00209897
0.0400388,-0.0114431
0.0321385,-0.0109938
0.00575187,-0.0063426
-0.0281278,-0.0127658
-0.0135822,-0.0147702
0.0187851,0.0332069
0.0270509,0.042494
0.0401868,0.0128681
0.0208717,0.0163495
0.0119992,-0.00073849
-0.00775308,-0.00571422
-0.0236269,-0.0143099
-0.032036,-0.0029471
-0.0830809,0.00493245
-0.0843327,0.0209912
-0.0506776,0.043927
0.0078513,-0.0261327
0.0837698,-0.0202881
0.0559251,-0.0302097
0.0416092,-0.0868063
0.0392832,-0.0305909
0.0347142,0.06506
0.0199611,-0.00185121
-0.0424309,-0.00400433
-0.0993059,0.00190672
-0.102935,0.0124544
-0.0594335,0.0577327
0.0060338,0.0111437
0.0272355,-0.00259044
0.00381562,0.000142294
-0.04105,-0.00327436
-0.0542319,-0.0234049
-0.0225633,-0.0469981
0.0580733,-0.0476453
0.112233,-0.00533084
0.0871765,0.0573221
0.0285318,0.0189074
0.00577815,0.0270998
0.0188866,0.0331116
0.0117616,-0.0042687
-0.00691565,-0.0196849
0.0144868,0.00440373
0.0148629,-0.0168381
-0.025126,0.0181708
-0.0205552,0.0118102
0.0031101,0.00247419
-0.00610308,0.00136352
-0.0273938,0.0090163
-0.0670029,-0.00133383
-0.0985198,-0.0100333
-0.0867436,-0.00390911
-0.0381021,-0.0194508
0.0686932,-0.068838
0.115941,-0.0653183
0.103014,-0.00358277
0.0480652,0.100921
0.000332771,0.0519196
-0.0304724,-0.0177286
-0.00102261,0.00730798
0.0318201,0.0119503
0.00165036,-0.00877393
-0.0363947,-0.0292047
-0.0334525,-0.0319144
-0.0115636,0.0467917
-0.00215262,0.0991303
-0.00612131,0.018415
-0.0106764,-0.0251704
0.00356907,-0.0154764
-0.0246102,0.087231
-0.0524214,0.069982
-0.040147,-0.0761743
-0.0119631,-0.0838509
0.022349,-0.030539
0.0620774,-0.0337511
0.0577948,-0.03887
0.0334385,-0.0553519
0.023144,-0.0817952
0.0292384,-0.0878622
0.0413646,-0.0623881
0.047357,0.0146825
0.0222724,0.0690385
-0.0503437,0.0812793
-0.0876134,0.0977208
-0.0820469,0.0727073
-0.0393974,0.0263859
-0.000589063,-0.00497558
0.0347123,-0.0451199
0.0358063,0.00728217
0.00533705,0.0566438
-0.0259968,-0.0119084
-0.050058,0.0284903
-0.0341671,0.0563332
-0.00697182,0.0507877
-6.56e-05,-0.00729567
-0.0041469,-0.0220393
-0.00349985,-0.041641
0.0255518,-0.0208462
0.0177845,-0.031192
-0.0253611,-0.0593324
-0.0145901,-0.0390592
0.0265216,0.0170125
0.0250568,0.0449561
0.0295648,-0.0276734
0.0383586,-0.0534844
0.0255463,-0.0485007
-0.00109895,0.0125969
-0.0120358,0.0503131
-0.000685336,0.0359877
-0.00805478,0.0110803
-0.00169382,0.0392461
-0.00502677,-0.013204
0.00642021,-0.0333603
0.00785226,-0.00110718
-0.00929949,0.00503227
-0.0224112,0.0067273
-0.0288268,0.0163899
-0.0255354,0.0301636
0.00673388,-0.0404915
0.0377218,-0.0326586
0.0270913,0.00495826
0.0135234,-0.0202576
0.0210125,0.0289824
0.00757811,-0.0182839
-0.0438105,-0.00331206
-0.0557151,0.0169192
-0.0422259,0.00775472
-0.0307731,0.0108066
0.00472598,-0.00949433
0.0512866,-0.00481252
0.0736746,-0.0181019
0.102276,0.00735338
0.156937,0.00196391
0.103729,0.00542331
-0.0204793,0.00209321
-0.0801765,-0.0109414
-0.110245,-0.0236426
-0.101837,-0.0199418
-0.0709713,0.0121646
-0.0490226,-0.0209755
-0.018346,0.0378182
0.0282557,0.0460701
0.0592952,-0.00589507
0.081878,-0.0321175
0.0842022,-0.00692736
0.0293893,0.00533958
-0.0369501,0.0072932
-0.0559627,0.0130051
-0.0742026,0.0248975
-0.0936723,0.0121675
-0.0865082,-0.0144743
-0.0636323,-0.0559536
-0.00371608,-0.0635946
0.0593143,-0.021928
0.0683593,0.0868488
0.0282496,0.077272
-0.012247,0.0182504
-0.0445131,-0.0295493
-0.0346567,0.0269331
0.0020494,0.0289305
0.0150343,0.011221
0.00219946,0.0190258
-0.0016693,-0.0400171
0.0197518,-0.0266432
0.0338793,-0.010533
0.0460774,0.0168763
0.063058,0.0196252
0.0581738,-0.0102006
0.0433349,-0.0575781
0.0322936,-0.0437572
-0.00979935,-0.00964006
-0.0261196,0.00230976
-0.0298215,0.0130021
-0.0553514,-0.00353182
-0.060067,-0.0156909
-0.0589189,-0.0076752
-0.0706961,-0.025337
-0.0537174,-0.0398029
-0.00712266,0.00667138
0.046058,0.0505857
0.038368,0.0468888
0.0399132,0.0223826
0.033287,0.0156779
-0.00513088,0.0189975
-0.00872618,0.00596611
0.00674663,0.025991
0.00947511,0.00680401
0.0122456,-0.0488677
0.0235366,-0.0443567
0.0548737,0.025333
0.0452807,0.0300783
0.0317701,0.0113418
-0.00843361,0.00462482
-0.037617,-0.009056
-0.0157059,-0.0100751
0.0551043,-0.0171213
0.10033,0.0069923
0.070674,0.0272678
-0.0071562,0.0178481
-0.0876917,0.00544767
-0.128056,-0.0454682
-0.102659,-0.111283
-0.0312761,-0.0571725
0.0164419,-0.0313648
0.0172472,0.00623233
-0.0109056,0.0853455
-0.0320384,0.0649359
-0.0554991,0.00515993
-0.0465306,0.0264645
-0.00941668,0.00146817
0.0111026,-0.00863936
0.00990541,0.0247248
0.000351665,0.00779943
-0.016597,-0.00398604
-0.0137308,0.00486778
0.0395116,0.0181666
0.0779569,-0.0121716
0.0625267,-0.0240375
0.0214685,0.00084527
0.00820804,-0.0227024
0.0493693,-0.027484
0.0512717,-0.0267331
0.0437019,-0.0519706
0.0273995,-0.0120944
-0.0161415,0.0276687
-0.0633145,0.0235259
-0.0728996,0.0422137
-0.0402944,0.0334089
0.000977587,0.00771845
0.0146947,-0.0185647
0.00647499,-0.0234657
0.0139344,0.0333994
0.038562,0.0336537
0.0197457,0.0217851
0.00434222,0.0417169
0.0149834,0.0263525
-0.0195071,-0.0288847
-0.0566219,0.007542
-0.0516256,-0.0132835
-0.0379253,0.00120101
-0.0278503,0.0357235
-0.0121254,-0.0442531
0.0219013,-0.0753957
0.0787176,-0.0525518
0.113817,-0.0531369
0.0802604,-0.0336863
0.00160185,0.00562412
-0.102827,0.0492623
-0.13858,0.0359482
-0.0928796,0.0262124
-0.0422832,0.0106558
-0.00749531,-0.00624171
0.0165481,-0.0243811
0.0399347,0.0171855
0.0244003,0.00635137
0.016686,-0.0211809
0.0174612,0.00713981
0.0118412,0.0128612
0.000513194,0.0245183
0.0182855,-0.0115983
0.078967,-0.0541566
0.12539,-0.0522972
0.135302,-0.0185652
0.0609387,0.0155129
-0.0732433,0.0155445
-0.147917,-0.0216327
-0.104857,-0.00431976
-0.0506165,0.0383768
-0.0317049,0.0453505
-0.0159883,0.0360106
0.0202266,0.00836794
0.0465295,-0.0629676
0.0384485,-0.0824291
0.0105787,-0.00533533
-0.0317898,0.0596398
-0.0624689,0.111058
-0.0805362,0.0283491
-0.0602239,-0.0348544
-0.0415211,-0.0122123
-0.00861665,0.0155848
0.0561756,0.0316507
0.0791625,0.0211534
0.0437827,0.00725988
0.0311677,0.00887018
0.0109075,-0.00531982
0.00113141,-0.000203144
-7.4e-05,-0.0025491
-0.00224386,-0.0052529
0.00395011,0.000603831
-0.000128519,-0.00840412
-0.00212613,-0.00774809
0.00703932,-0.0142288
0.00935248,-0.0249638
0.0163748,-0.0125109
0.0125664,-0.00409646
0.018072,0.0316017
0.0396268,-0.0324636
0.054688,-0.0321223
0.0402559,-0.00805228
0.0143577,0.00492777
-0.051638,0.000872958
-0.120287,-0.00217551
-0.11292,-0.0111699
-0.0245843,-0.00884521
0.0532295,-0.0105797
0.0679329,-0.0103708
0.0313439,0.018399
0.0032614,-0.0198057
-0.00724737,-0.0367538
-0.0297497,-0.0461614
-0.0274948,-0.0098723
-0.00501232,0.0315554
0.00172596,0.057473
0.0194536,0.00447834
0.0658458,0.0232693
0.069295,0.0571722
0.040879,0.0603875
0.0157619,0.0176325
0.0123014,0.0230542
-0.0212907,-0.04693
-0.0573399,-0.077972
-0.0681104,-0.0305953
-0.0666405,0.0170752
-0.0783743,0.0247529
-0.0730135,-0.00372709
-0.0485519,-0.00695597
-0.00197474,-0.0162118
0.0246239,-0.0376479
0.0416104,-0.0421762
0.0502687,-0.0140577
0.0558582,0.0164092
0.0416498,0.0131164
0.0208459,0.0393383
-0.0248493,0.0381015
-0.02726,0.0690226
0.000337968,0.0207191
0.00551057,-0.0343108
-0.00396934,-0.00836839
-0.0346671,0.0231181
-0.0737677,0.0100659
-0.0856838,0.011895
-0.0601307,0.00628865
0.0224981,-0.00299185
0.0740167,-0.0227946
0.0449576,-0.0328534
0.0222216,-0.0159812
0.0480636,-0.0151725
0.0501858,-0.010403
0.0253976,0.0256771
0.0170537,0.0508117
0.0355163,-0.00493661
0.0547015,0.0108975
0.0740332,-0.0195592
0.0746779,-0.0585869
0.0390964,-0.0283354
-0.01721,-0.0318466
-0.0507098,0.0209861
-0.0564491,0.0576306
-0.0413151,0.014033
-0.023504,0.012263
-0.0454568,-0.019588
-0.0547582,-0.0493783
-0.0351874,-0.0428688
-0.0348953,-0.0630246
-0.0206535,-0.0294534
-0.0031106,0.0509646
-0.00760195,0.0232062
-0.0352936,-0.00464264
-0.0485483,0.0391181
-0.0151815,0.0290888
0.0386983,0.00963352
0.061144,0.00965784
0.0416751,-0.00654633
0.0231788,-0.0129996
0.0430858,0.0192351
0.087714,0.0411091
0.103281,0.0120941
0.0843738,-0.00523107
0.0101813,-0.0225769
-0.115345,-0.0355272
-0.144269,-0.0161098
-0.0883911,-0.00055798
-0.0376944,0.017539
-0.0162886,-0.0185897
-0.00663533,-0.00570104
0.01546,-0.0118867
0.0394125,-0.0186986
0.0618875,-0.00132107
0.0838588,0.0233153
0.0412327,0.0409508
-0.0126707,0.0426946
-0.0666048,0.0351016
-0.10849,0.019825
-0.099525,-0.0278912
-0.0170482,-0.0580718
0.0659367,-0.00650718
0.100176,0.0398504
0.0586156,0.0285396
-0.000459671,0.0381431
-0.0479705,0.0335437
-0.0650529,-0.0337234
-0.0337933,-0.0376088
-0.0096486,-0.00170132
-0.00705399,-0.0360133
0.0112378,-0.0359103
0.0278726,0.0135377
0.029203,-0.00377626
0.0380236,-0.00181532
0.0380262,0.00641245
0.0277105,-0.0118369
0.0119689,-0.0103632
0.00381683,-0.0111873
-0.003849,-0.0293446
-0.0346986,-0.0299949
-0.0650031,-0.0112707
-0.0532772,0.0247601
-0.0268751,0.0187913
0.0158264,-0.0187781
0.0668072,0.00930468
0.0632475,0.0252484
-0.00413619,0.00519806
-0.038363,0.0389444
-0.026937,0.0872507
-0.023197,0.000981219
0.0335201,-0.0233025
0.103207,0.0212692
0.0852611,-0.0355197
0.0108667,-0.0583149
-0.0728135,-0.0285773
-0.0967055,-0.0442038
-0.0322519,-0.0305959
0.0149086,0.014414
0.0255131,0.0586754
0.0344121,0.00644175
0.00138628,-0.0120435
-0.0203567,-0.00182383
-0.0427261,-0.0199305
-0.0378341,0.00410304
-0.0284919,0.0249851
0.0139626,0.0280354
0.0505033,0.0618534
0.0376484,0.0278023
-0.000803992,0.00126361
-0.0372935,0.0324878
-0.0397014,0.0519357
-0.0527645,-0.0651677
-0.010313,-0.103312
0.0569667,-0.00471551
0.0475882,0.0196068
-0.00881904,-0.0277511
-0.0187369,-0.0328001
-0.021308,-0.0193598
-0.00904153,0.0230016
0.00763003,0.0168255
0.0209958,0.0137228
0.0698175,0.00200532
0.123805,0.0177332
0.0842807,0.0238426
0.00592067,0.00811053
-0.0258963,-0.0236578
-0.0290292,-0.0471812
-0.036242,-0.111889
-0.0701224,0.0175046
-0.108786,0.0961815
-0.0862281,0.0526346
-0.0540406,-0.0367741
-0.0254629,-0.0160754
0.0296693,0.0392001
0.0435688,0.00410184
0.0195079,-0.0247379
-0.0171695,-0.0288865
-0.04799,-0.0481488
-0.0401576,0.0020523
-0.0113676,0.044653
0.014216,0.0390712
0.0235962,0.0142782
0.0226165,-0.000505414
0.0693963,0.0017289
0.112753,-0.00792102
0.0804305,-0.0123083
0.054877,-0.00184798
0.0608939,0.00498216
0.0391124,0.0115516
-0.00652339,0.00417497
-0.0286823,0.0086635
-0.0687742,0.00558989
-0.0938395,-0.0473748
-0.0750704,-0.0408269
-0.0964216,0.0414003
-0.0838414,0.0317391
-0.00688974,-0.0322599
0.037965,-0.0352108
0.0497875,-0.00751143
0.0604437,-0.00323178
0.082192,0.0303937
0.057986,0.0298068
0.0201651,0.0705945
-0.00812444,0.0243914
-0.00443795,0.00788803
-0.0308186,-0.0157421
-0.0666503,-0.0120443
-0.0706806,-0.0125682
-0.0220045,-0.0362581
0.0162429,-0.0316696
-0.00624251,-0.0242584
-0.0296496,-0.016748
-0.021673,0.0244109
0.0210051,0.0102646
0.0538005,-0.0126555
0.0236134,-0.00717528
0.0216442,-0.00523268
0.0536547,-0.0108901
0.0417572,-0.0231558
0.00899261,0.0127584
-0.0281241,0.0588173
-0.0333863,0.0138847
-0.00109644,0.00569859
-0.0129273,-0.0176144
-0.0178538,0.0167884
0.0213591,0.0122607
0.0279202,0.000789845
-0.00186151,0.00509011
-0.0168853,-0.00126687
-0.0236982,-0.0184153
-0.037987,-0.0427108
-0.04376,-0.0593042
-0.032242,-0.0524097
-0.00019055,0.0151553
0.0272834,0.0653896
0.0215865,0.0381528
0.0173772,0.0212936
0.024407,0.0383088
0.043721,0.0808132
0.0412889,-0.0165252
0.0237229,-0.0392441
-0.00911407,-0.0303945
-0.0384611,-0.00548022
-0.0527112,0.00299238
-0.00653079,0.00345792
0.0114252,-0.00326411
0.0227915,-0.00294951
0.0383563,0.0106642
0.0274302,0.0196134
0.000513062,0.00114493
-0.0176628,0.00379864
-0.0221185,-0.00545854
0.0179202,-0.0139497
0.0962662,-0.0281955
0.0340096,-0.0440484
-0.0392217,-0.0438924
-0.0688234,-0.0492118
-0.0739196,-0.0302144
-0.0198304,-0.00882553
0.00900914,0.00802248
-0.0205448,0.0233294
-0.0291103,0.0758961
-0.0283021,0.064429
-0.0403822,0.00490567
-0.0275548,-0.0229731
-0.0130025,-0.0189671
-0.00440254,0.0436036
0.0267545,0.0587427
0.0401773,-0.000763574
0.0237914,-0.0400471
-0.0290089,-0.0200947
-0.0533737,-0.0102601
0.0012917,-0.0141055
0.0521214,-0.0137757
0.0590542,0.0266364
0.0453662,-0.0268123
0.0622546,-0.0835058
0.085779,0.0125867
0.0705134,0.0559169
0.0146217,0.0510456
-0.0640731,0.0561438
-0.126837,0.032876
-0.0993453,-0.0216454
-0.044579,-0.0487491
-0.00191358,-0.0608889
0.0252511,-0.0438
0.0353084,-0.00143959
0.0352945,-0.00160785
-0.00930192,0.0174191
-0.028044,0.000773256
-0.00743424,0.0185971
0.0153428,-0.0147734
0.0468031,-0.0289701
0.0751008,-0.0327997
0.0727852,0.0174436
0.0323827,0.063331
-0.0279962,0.0675554
-0.0461357,0.0437357
-0.0655199,0.0136135
-0.0767359,0.013873
-0.0352753,-0.0282371
0.0233061,-0.0752448
0.00245728,0.00207224
-0.0479906,0.050606
-0.0587051,-0.0134079
-0.0351892,0.0028843
-0.0193299,-0.00565889
-0.0101275,0.00141841
0.0383428,0.0131559
0.103693,-0.020711
0.09706,-0.022034
0.0268411,-0.00504059
-0.0301081,0.02515
-0.0313368,0.0389043
-0.0397581,-0.0145414
-0.0374352,-0.0118318
-0.0288038,-0.0231353
-0.0114093,-0.0155699
0.0223152,-0.000956491
0.0777922,0.0121741
0.109229,-0.00832113
0.117018,0.000927765
0.0414159,0.0151529
-0.0704723,-0.0101465
-0.1059,-0.00320573
-0.0615003,-0.0171993
0.00650798,-0.0118549
0.0376834,-0.0102798
0.0234962,-0.00965792
-0.0374572,0.00836584
-0.0644063,0.0205699
-0.059278,0.0188919
-0.0394521,0.0173362
-0.0252078,-0.00738809
-0.0130329,-0.00883924
0.0165125,-0.000289187
0.039013,-0.00529656
0.0465773,0.0156917
0.0523598,0.00308627
0.0535927,0.0126431
0.063412,-0.0238557
0.0264608,-0.0854438
-0.031426,-0.0353139
-0.0324625,0.0797911
-0.0148187,0.0132105
-0.0281667,-0.0786202
-0.0377098,-0.0164821
-0.0335735,0.0207448
-0.0414887,0.0360082
-0.0316427,-0.0144841
0.00846734,0.0161918
0.00366506,0.00294158
-0.0290657,0.008384
-0.0413804,0.0413015
-0.00753998,0.019469
0.0283842,0.0183012
0.0564148,0.00861866
0.0974674,-0.00601632
0.160471,0.00196975
0.152028,-0.00944123
0.0885477,-0.0237175
-0.0164393,-0.00274849
-0.0866107,-0.0071858
-0.101086,-0.0203717
-0.0731064,-0.0503476
-0.0460231,-0.0478416
-0.0480418,0.0360015
-0.016487,0.0722601
0.00699966,0.00608244
-0.015388,0.00652477
-0.041681,0.0249649
-0.0854455,0.0152644
-0.108225,0.00309123
-0.062952,0.00138884
-0.00536263,-0.0130239
0.0301009,-0.0159807
0.0628378,0.00241489
0.0940699,-0.0175737
0.058821,-0.012434
-0.0370216,0.00678322
-0.0704807,-0.00292399
0.0763744,0.00300828
0.23826,0.0803733
0.172977,0.0224825
0.0455307,-0.0601053
-0.080085,-0.0512619
-0.14038,-0.0268145
-0.108094,0.0132516
-0.0532054,0.00842008
-0.0346381,0.0108244
-0.0340868,0.0018343
-0.0365944,-0.0292721
-0.0137662,0.0423487
-0.0260875,0.0318754
-0.0395439,-0.00422993
-0.0186944,-0.0245077
0.0340373,-0.0163862
0.0691743,0.00405828
0.0379203,0.00405456
0.0146564,-0.00905447
0.0154577,-0.0251097
0.0337383,0.00266507
0.0391308,-0.000968653
0.0159988,0.00255685
-0.0446947,0.0358914
-0.0548805,0.0194892
0.0269607,-0.0198692
0.0796243,-0.0487679
0.0675742,-0.0671676
0.00814917,-0.0206208
-0.049537,0.0139418
-0.0625162,0.0653114
0.0143189,0.00200536
0.0756448,-0.0138088
0.039617,0.00501482
-0.0362545,0.0483304
-0.0883445,0.060812
-0.061549,0.016981
-0.0140729,-0.0221639
0.010807,0.0375538
-0.0208613,0.045882
-0.0294787,-0.0314185
0.0201902,-0.0145268
0.071317,0.00180187
0.0758702,-0.0137449
0.0476648,-0.015326
0.00572091,-0.0266479
-0.0224525,-0.020852
-0.0701163,-0.0131146
-0.103921,-0.0259132
-0.0553986,-0.021784
-0.00577657,-0.0141721
0.0126363,0.00418691
0.0309284,0.00844101
0.0402219,0.00904723
0.0244319,0.0309288
0.0110135,0.000406443
-0.0102451,-0.021755
-0.0438418,-0.00848708
-0.0492561,-0.00051276
-0.0308744,-0.00761701
0.0167523,-0.0101041
0.0602789,0.0111847
0.0754497,0.00758433
0.0407165,0.00390395
-0.0178309,-0.0130306
-0.0235616,0.0384987
0.00989685,-0.00510783
0.0112828,-0.0317772
-0.0184021,0.00835705
-0.0299935,0.0145316
-0.012191,0.000970437
0.0215973,0.0392584
0.036455,0.0568911
0.00678199,0.0180977
-0.0140161,0.0274054
-0.0274638,0.0151297
-0.0433872,0.00324382
-0.0184885,2.46e-05
0.0231549,-0.0172759
0.0447247,-0.0395417
0.0584078,-0.0503795
0.0336089,-0.0304361
-0.0131302,0.00261534
-0.0174532,0.0119863
-0.020419,-0.0191997
-0.0294222,-0.0147264
-0.0307722,0.00614443
0.0111949,-0.0106224
0.0363311,-0.0200815
0.0020261,-0.0236638
-0.0338463,-0.0299851
-0.0317689,-0.0145213
-0.0201931,-0.00179401
-0.00902683,-0.00811352
-0.00651924,0.0180357
0.00902807,0.0463069
0.0464212,0.00113121
0.0320811,0.0159809
-0.0102079,0.0734013
-0.0247253,0.0738633
0.00847913,-0.0261452
0.0155174,-0.055306
0.000255881,-0.0485294
-0.0201394,-0.0386224
-0.0304757,0.00130221
-0.0194655,0.0413719
0.0170382,0.0207154
0.0706021,0.0365709
0.0992809,0.0283187
0.0552598,0.00171408
-0.00119269,0.00653483
-0.0448887,-0.00640178
-0.0782635,-0.0506803
-0.0819227,-0.0402423
-0.0817318,0.0263368
-0.0350561,0.0422528
0.000984729,0.025846
-0.0132007,-0.0170371
0.000446061,0.00590768
0.0615776,-0.0396941
0.127213,-0.0579825
0.0871298,-0.0594391
0.0147488,-0.105674
-0.0304589,-0.0402684
-0.0840415,0.110877
-0.107172,0.0932361
-0.0627952,0.0246377
0.00157906,0.0111075
0.0331109,-0.00104226
0.0852478,0.0336662
0.133041,0.0181629
0.0985357,0.007937
0.0206269,0.0240678
-0.0563832,-0.0129901
-0.103988,-0.0695615
-0.0776359,-0.0144434
-0.0214341,0.0389811
0.0094394,0.0245634
0.000801601,0.00784773
-0.027544,0.0134592
-0.0443324,-0.00984038
-0.0123108,-0.00118796
0.0103764,-0.0194727
0.0263963,-0.0438232
0.0311219,-0.0403489
0.0126066,0.0330431
0.00223166,0.0364384
0.0232293,0.0277703
0.00525393,0.0126634
-0.0332762,-0.0115134
-0.0273382,-0.0239175
-0.0092349,-0.0381044
0.0111832,-0.0259043
0.018116,-0.015575
0.0184119,-0.044278
0.0363825,-0.0296593
0.0539442,0.00887886
0.0185997,0.0434732
-0.0150669,0.0293201
-0.0157215,0.00639888
-0.0231996,0.0100805
-0.0207215,0.0339754
-0.0218434,-0.0174778
-0.0352689,-0.00906717
-0.0160887,0.0198539
0.00808819,0.0552932
-0.011523,0.0732169
-0.0476323,0.00440928
-0.0360957,-0.0641067
0.0290046,-0.0605546
0.0814615,-0.0226334
0.0740068,-0.0194126
0.0138423,-0.0103032
-0.0231203,0.0128746
-0.0410615,-0.0070736
-0.0433852,-0.0270138
-0.00486563,-0.0221426
0.0303738,-0.0266153
0.051261,0.0309451
0.0812138,0.0540017
0.0914563,0.0546753
0.0499191,0.064091
0.0295174,-0.00377752
0.00555681,0.00143535
-0.0466458,0.0412831
-0.0909997,-0.0470024
-0.103657,-0.0564595
-0.0696544,-0.00462414
-0.0205314,-0.000825927
-0.0108394,0.0128484
-0.0206103,0.021793
-0.0264527,-0.0189267
-0.0192939,-0.00492479
-0.014967,0.00448052
0.01855,-0.00901756
0.0402437,-0.0157115
0.0224123,-0.0219783
-0.0115954,-0.011039
-0.0151322,-0.0161825
-0.000335898,-0.0225416
-0.00930114,-0.0141034
0.0140989,-0.0215417
0.0484579,-0.0309196
0.0529696,-0.0207203
0.0400491,0.033026
0.0288292,0.076998
0.0124932,0.0945793
-0.0177988,0.0115797
-0.0457274,-0.0374269
-0.0795612,-0.00106866
-0.119173,-0.0138547
-0.0884515,-0.00393792
0.0161712,0.0209868
0.0810161,-0.0206772
0.0727612,-0.0132845
0.113763,-0.00188639
0.121351,-0.00657271
0.0307681,-0.00216617
-0.0363905,-0.00768204
-0.0487852,-0.0156644
-0.0160446,-0.0204226
-0.00774744,-0.0292492
-0.0163216,0.00902977
-0.0225989,0.0719535
-0.0188797,0.0551525
-0.0136434,0.012385
-0.0111277,-0.0182215
0.0105169,-0.0299832
0.0100071,-0.0214343
-0.0321019,0.00961489
-0.074406,-0.0085353
-0.0484138,0.0153465
-0.00161173,0.0186198
0.0158054,-0.000481795
0.0323236,-0.0243096
0.0953354,-0.0343371
0.161952,0.00274265
0.182969,-0.0161143
0.0974081,-0.0303782
-0.0579548,0.0284845
-0.167546,0.0512505
-0.157345,0.014792
-0.107142,0.029745
-0.0916305,0.015612
-0.0545201,-0.0263609
0.0155267,-0.0327787
0.0735838,-0.0132577
0.0597455,0.0112026
0.00409649,0.0178911
-0.0050049,0.00492811
0.0166241,-0.0113903
0.0382863,0.0135072
0.0276386,-0.00931332
0.0125191,-0.000429155
-0.0271527,0.00214105
-0.0536386,-0.0026738
-0.0362453,-0.00946662
-0.0186962,-0.0289809
0.00874201,0.0285654
0.0106233,0.0650327
0.0143248,0.020704
0.0427603,-0.0447794
0.0566653,-0.00793719
0.0258905,-0.0392405
-0.00394013,-0.0351871
-0.0550441,-0.0141119
-0.0846587,0.0149611
-0.0396941,-0.00282912
-0.0170105,0.00328374
-0.0106546,-0.002943
-0.00982832,-0.00486922
-0.00659541,0.0147029
0.0471501,0.0261038
0.087109,0.0184613
0.0622474,0.0126924
0.0213049,-0.000530361
0.00773,-0.0105041
-0.0199054,-0.0278259
-0.0357444,-0.0572814
-0.020137,-0.0230474
-0.0012051,0.0223234
0.00183982,0.020071
0.0195107,0.0421724
0.00418406,-0.00563445
-0.0455457,-0.061378
-0.063237,-0.0304202
-0.0322973,0.0290895
0.0392343,0.0474907
0.0858778,0.0393981
0.0931509,0.0121291
0.0500638,0.0237785
0.0200647,0.0420879
0.0178418,0.0577872
-0.0233764,-0.0247949
-0.0715047,-0.0381512
-0.0900978,0.00164823
-0.0267509,-0.0278478
0.0285295,-0.0733853
0.0256234,-0.05348
0.013688,0.0520335
-0.00111605,0.00661635
-0.0192509,-0.0238197
-0.0289482,-0.0269336
-0.020093,-0.022572
-0.0163862,0.00703554
0.00332241,-0.00216252
0.00530456,-0.0198619
0.00184455,-0.00254388
0.00722021,0.00528579
0.00771674,0.0173843
0.0219614,0.0377738
0.0303716,0.0325627
-0.00151406,0.0269567
-0.0432656,0.0115866
-0.0701708,0.000420177
-0.0691026,0.00897964
-0.0208918,-0.0151936
0.0469669,-0.00758194
0.104747,0.0300451
0.145783,1.1e-05
0.0880882,-0.0151004
-0.0054608,-0.00852211
0.00601574,0.00648661
-0.0316034,-0.00176327
-0.117309,0.00184202
-0.0911236,0.00911742
-0.0445956,-0.00940371
0.00451652,0.00951142
0.0468477,-0.0349824
0.0359201,0.00668203
0.0187698,-0.00100084
-0.00839989,-0.0327763
-0.0325685,-0.0190853
-0.0363344,0.00841204
-0.0240243,0.0414287
-0.0169408,0.00339154
-0.0209897,-0.0505812
0.0109371,-0.0605897
0.0435462,-0.0217212
0.042985,0.0803915
0.0227214,0.0611174
-0.0195832,0.012822
-0.0384874,0.00867079
-0.0192216,-0.00837056
0.0179789,-0.0376659
0.0613464,-0.0521678
0.054436,-0.0377259
0.00715831,0.0708045
-0.079207,0.0592326
-0.128271,-0.0040183
-0.0581237,-0.00804982
0.00769272,-0.0104724
0.0498367,-0.0137731
0.0435068,-0.0174242
0.00556938,-3.46e-05
-0.00586639,0.00747663
-0.00241904,0.00696831
0.0130466,0.00195538
0.0472572,-0.0055287
0.106378,-0.0147796
0.0997389,-0.0176237
0.0508719,-0.000170808
0.0066893,0.00081306
-0.0341612,-0.0212108
-0.0485004,-0.00474566
-0.0710584,0.0225019
-0.0949418,0.016072
-0.0777673,0.0121172
-0.0537809,-0.0079902
0.00640577,-0.0213884
0.0862123,-0.0179428
0.0884886,0.0597942
0.0097965,0.0579808
-0.046194,0.00553317
-0.0792127,0.029006
-0.0350437,-0.0121528
0.0644877,-0.000158115
0.121731,-0.0163649
0.120498,-0.0276531
0.0615089,0.00663807
-0.0355363,-0.0306266
-0.0912673,-0.0671381
-0.0792051,-0.0182358
-0.0530127,-0.0339818
-0.0549201,-0.0179437
-0.0548837,0.0373564
-0.0158493,0.00234776
0.0162297,0.0147331
-0.0130435,0.00487695
-0.037724,0.0562954
-0.0109233,0.0462508
0.0339012,-0.00334204
0.0873481,-0.0250115
0.0895841,0.0169316
0.0744493,0.0324295
0.0516946,0.0153967
-0.000664526,-0.0313883
-0.0513346,-0.00637797
-0.060105,-0.0348
-0.0540553,-0.0279799
-0.02374,0.042397
0.00202257,0.00566811
0.0365075,-0.00405838
0.0458753,-0.01277
-0.016854,-0.0196787
-0.0631376,0.00255541
-0.0426476,0.00546008
-0.00147537,0.00632369
-0.0141876,0.00198041
-0.0343457,-0.0136944
-0.0335669,0.0129167
-0.0367523,0.00643531
0.00194464,-0.0110669
0.0591405,-0.01599
0.0713899,0.0165476
0.0537037,0.0139395
0.0428311,0.032482
0.0549739,0.0340977
0.0983018,-0.0201915
0.102801,-0.0278391
0.0146338,-0.0226793
-0.0793175,0.00190816
-0.0800027,-0.00826782
-0.0282738,0.000388247
-0.0165276,0.00965904
-0.0865311,-0.020504
-0.128588,-0.0285528
-0.0777729,-0.0322406
-0.00723144,-0.0542131
0.0137764,-0.00282968
-0.0134072,0.0283107
-0.0212999,0.023677
0.0124734,0.00459574
0.0747567,0.0582016
0.108351,0.0535775
0.0946134,-0.0144563
0.0879987,-0.0190038
0.0623842,0.0128508
-0.00987299,0.00778416
-0.0787385,0.00319842
-0.0763859,-0.0145939
-0.0493232,-0.0432128
-0.00855194,0.00555719
0.0138443,0.0234497
0.000234681,-0.007552
-0.0187048,-0.0288902
-0.00837462,0.0158307
-0.0151917,0.028739
-0.019731,0.0338594
-0.00204475,0.0290238
0.0135728,-0.0221636
0.0163756,-0.0049075
-0.00969474,-0.00727968
-0.0349453,-0.0152619
-0.0769142,-0.015984
-0.103944,0.0207229
-0.0426836,0.00941026
0.0447052,-0.0212561
0.0989927,-0.00502329
0.103024,0.00607701
0.0638617,0.00615228
0.034186,-0.0563066
0.0529221,-0.036398
0.0665127,0.0129114
0.0571001,0.0281439
0.00448545,0.0271549
-0.0691548,0.00719022
-0.0938356,0.00611484
-0.0506221,-0.015034
-0.00595372,-0.0147817
0.00649923,-0.00208556
-0.00764761,-0.0285867
-0.0206539,-0.0203354
-0.0380931,0.0345868
-0.0430979,0.0274499
-0.0233479,0.00812792
0.0144027,0.000911691
0.0777773,0.00347836
0.0652709,-0.00231113
0.00555348,-0.014297
-0.0456183,-0.000525175
-0.0404036,0.0306467
-0.00473715,0.0368018
-0.00549542,-0.0111571
-0.015748,-0.0304532
-0.00942847,-0.0094159
0.00690278,-0.00551723
0.0183296,-0.0148191
0.0193049,-0.0321649
0.0241515,-0.00436967
0.0178471,0.00836949
0.00318265,0.00600262
-0.0184777,0.00419145
-0.0172375,-0.00274828
0.00519897,-0.0105702
0.044739,-0.0148035
0.0137012,0.0422811
-0.0715163,0.0426344
-0.109991,-0.0214977
-0.0810991,-0.061573
-0.00669758,-0.0354787
0.0392821,-0.0035065
0.0311148,0.01205
0.013165,0.0367447
0.0153045,0.0177847
0.0727909,0.0343047
0.135549,0.0610267
0.105275,0.00980029
0.0324438,-0.00640049
-0.0258579,0.00891154
-0.0272275,0.00522579
0.0411503,-0.0221771
0.0365331,0.00620239
-0.0343033,0.0147335
-0.0845546,-0.0157173
-0.0840388,-0.00784808
-0.0445026,0.0078937
-0.0275003,0.0108743
0.000834262,-0.0346724
0.0209933,-0.0326431
0.0245294,-0.00673139
0.00706776,-0.00499863
-0.0456916,-0.0261509
-0.0734248,0.0136878
-0.0495413,0.023331
0.0145816,-0.0300965
0.0445467,-0.00930467
0.0172745,-0.00120033
-0.0132093,0.00199262
-0.00964735,0.00754804
-0.0132707,-0.0060485
-0.0188444,-0.00120027
-0.078857,0.00403739
-0.0832664,-0.000847948
0.0325561,0.0112564
0.141634,-0.0235354
0.140221,-0.0187804
0.0735146,-0.00544018
0.0194219,0.0378501
-0.011586,0.0230903
-0.010504,0.0211408
0.00847283,0.00412308
0.00897314,0.0157624
-0.00752198,-0.0128115
-0.0385491,-0.0170739
-0.0580073,-0.00323302
-0.0354549,-0.0076448
-0.0106104,0.00863986
0.0207282,0.000425865
0.010036,-0.00138629
-0.0320521,-0.0174643
-0.0554267,-0.0153551
-0.0597646,0.0411811
-0.0228468,-0.0114874
0.0468878,-0.00562343
0.0633525,-0.00477652
0.0285988,-0.0149912
0.00403592,0.00903776
0.00302756,0.0306643
0.00194307,0.0330049
0.016041,-0.00695573
0.0263941,-0.027483
0.0395877,-0.00374439
0.0624702,0.00724138
0.0860772,-0.000419569
0.0683875,-0.0323974
-0.0105546,-0.00282977
-0.141183,0.00133978
-0.180369,-0.0171431
-0.0790886,-0.00627739
0.0163963,0.0133956
0.0434,0.00296856
0.0140449,-0.00591548
-0.0150361,-0.0117203
-0.0209929,-0.0089023
-0.0219823,-0.000878051
-0.00132995,-0.0112073
0.0288361,0.00902232
0.0329736,0.0239182
0.0190155,0.00211747
0.00874268,0.00277907
-0.00334023,0.0169888
0.000502092,0.0175826
0.00770186,-0.00916359
0.0200551,0.0114291
0.0417741,0.0193425
0.0457516,0.00563454
0.00818325,0.000303986
-0.0215109,-0.0252841
-0.0577869,-0.0151021
-0.083431,0.00793994
-0.0432557,-0.0162615
-0.00957476,0.0231971
0.0203226,0.0247928
0.065792,-0.0435464
0.0727237,-0.014084
0.03293,-0.0101523
-0.00178008,-0.00600201
-0.00114575,0.0173468
0.00893858,0.00427525
0.00745826,0.00903307
-0.0219206,0.00925627
-0.0371689,0.0108415
-0.0269293,0.0315465
-0.0262844,-0.0294595
-0.0172481,0.0105303
0.00670062,0.000832161
0.0304982,-0.0686724
0.0482991,0.00315957
0.0279043,0.0225714
-0.00819464,-0.00282135
-0.0541086,0.00342411
-0.07823,0.00822751
-0.0464882,0.0134903
0.00720741,-0.00684569
0.0491071,0.00860659
0.0715525,0.0245542
0.0823593,0.00307886
0.0535296,-0.000377377
0.0211943,-0.0027484
-0.00883585,-0.0123485
-0.0408471,0.00219415
-0.0851077,0.0262855
-0.0868421,-0.0383471
-0.0461995,0.0234145
-0.00676638,-0.0219485
0.00235883,-0.0335998
-0.00428591,-0.00351434
-0.0122556,-0.0156359
-0.00243725,0.00394896
-0.00200027,0.042529
-0.00312847,0.0177779
0.0461004,0.0238799
0.10392,0.00947865
0.0880678,-0.00992602
0.0219158,-0.0248821
-0.0442014,-0.0316207
-0.0485804,-0.0143913
-0.0208848,-0.000916907
-0.0217532,-0.00922882
-0.0304912,-0.0193518
0.00283017,0.00587767
0.0335091,0.0123422
0.0352982,-0.0408711
0.0199074,-0.0139067
-0.0347249,-0.000482002
-0.0692918,0.053222
-0.0897609,0.0427205
-0.104211,-0.0066228
-0.0429377,0.0100183
0.0170205,0.013799
0.0832274,-3.22e-05
0.133614,-0.0230801
0.0992523,-0.00860233
0.0424145,0.00484449
0.0181307,0.00192153
0.00156189,0.034554
-0.0230143,0.00234943
-0.0413089,-0.0235946
-0.0451929,0.00837442
-0.0429443,0.0060162
-0.0275379,0.0117123
0.00156012,0.0126059
0.0213385,-0.0394999
0.0400052,-0.0431991
0.0551236,-0.00957582
0.0394093,0.018479
0.00789804,0.0229026
-0.00319639,0.00917941
-0.00657766,-0.00927495
-0.0209138,9.05e-05
-0.0257909,0.00217367
-0.0211396,0.0129513
-0.0198235,0.0315028
-0.00943079,0.0209193
0.000876398,-0.0101838
0.0151472,-0.0314833
0.034876,-0.0337127
0.0357313,-0.0286527
0.0171764,-0.0123328
-0.00932407,0.00029708
-0.0274609,0.00880395
-0.0297097,-0.0102087
-0.0163943,-0.0160401
-0.0144501,0.0146277
-0.0283689,-0.00686722
-0.0288833,-0.00621102
-0.0184752,-0.00282265
-0.0107941,-0.000626905
-0.0194535,-0.00275958
-0.0240682,-0.00505331
-0.0130133,0.00378071
0.00443604,0.0231141
0.0196953,0.00744415
0.0327741,0.00636556
0.0645348,0.0199399
0.0917863,0.035467
0.0751979,0.0309327
0.0316007,0.0223609
-0.0101379,0.0127095
-0.0100993,-0.0198209
0.0200211,-0.034392
0.00738074,-0.0109082
-0.0377893,0.00876711
-0.0736417,0.00942703
-0.0604262,0.0166701
0.00861061,0.00330809
0.0601811,-0.00307489
0.0345249,-0.002275
-0.0266605,-0.0158937
-0.0598275,-0.0234613
-0.0750305,-0.0230914
-0.0685035,-0.0195314
-0.0242712,-0.00609801
0.00368954,0.0183551
0.0187499,0.0255726
0.0163868,0.00575607
0.00365144,-0.00607231
-0.00525484,-0.00520159
-0.0084039,-0.0031617
-0.000750709,-0.00584975
0.0129865,0.0028294
0.016582,0.0109572
0.0132028,0.00144093
0.0163785,-0.0150342
0.00736149,-0.00505397
-0.00205461,0.00932431
-0.0123088,0.0196044
-0.0266771,0.00844388
-0.0433666,-0.0374221
-0.0293196,-0.0511078
0.00810062,-0.0115322
0.0439432,0.0287693
0.0536479,0.0124241
0.030789,0.00706733
0.00151862,-0.00540527
0.023303,0.00561778
0.0330773,0.0131801
0.00882687,0.0056252
-0.0279673,0.000389843
-0.0383293,0.0101501
-0.00148073,0.00469443
0.0437111,0.0160869
0.0638092,0.00738195
0.0722384,0.000918311
0.0646216,0.00474818
0.0481044,0.00489025
0.0136121,0.0163083
-0.0271599,5.84e-05
-0.0453538,-0.00110991
-0.00340397,-0.00648272
0.00900553,-0.017278
-0.0410262,-0.0179625
-0.0858486,-0.0243784
-0.0917009,-0.0233212
-0.0574466,-0.0176993
-0.0415944,-0.00836451
-0.0263094,-0.00145791
-0.00985581,-0.000907372
0.00428885,-0.00287719
0.010457,-0.00523828
0.00908096,0.000602084
0.000475465,0.00788228
-0.00743367,0.00215535
-0.000532731,0.00364
0.016146,0.0126867
0.0241475,0.012929
0.0233849,0.00244963
0.0190071,0.0129849
0.0173782,0.0174281
0.0212142,-0.00281655
0.0200272,-0.00968044
0.00366293,-0.00206398
-0.0207831,-0.00076052
-0.0329458,-0.00968006
-0.015769,-0.0121837
0.0188071,-0.00516837
0.034516,0.00230229
0.0422576,0.00179251
0.0371879,-0.000170961
0.0219631,0.0143732
0.00614764,0.0138396
-0.0024717,0.00862582
-0.00165362,0.0333657
-0.0208117,0.020042
-0.0420211,0.0182576
-0.0304703,0.0108839
-0.0102759,0.0120245
-0.0025432,0.00284283
-0.0120505,0.00302827
-0.0308236,-0.00176889
-0.0359659,-0.0290061
-0.0129212,-0.0426656
0.0176446,-0.0198029
0.0418528,-0.0100761
0.0163927,-0.0148165
0.00780158,-0.0203791
0.037175,-0.0149987
0.0245367,-0.00367424
-0.0253124,-0.00172813
-0.0580616,-0.000472276
-0.0276881,0.00979301
0.0132362,0.00635378
0.0210861,-0.00648148
0.0263777,0.00405406
0.0086834,0.00697378
-0.0172657,0.0097124
-0.0103145,0.0120952
0.0131459,0.00573675
0.0232091,-0.00661517
0.016141,-0.0151912
-0.00856834,-0.0120556
-0.0288188,-0.00386577
-0.0301912,-0.0108943
0.00226164,-0.00416546
0.0453818,0.0387076
0.0566881,0.0472656
0.0171026,0.0160083
-0.0258547,0.000894618
-0.0748579,-0.0117276
-0.110109,-0.0231834
-0.0720892,0.00910548
0.0872183,0.0120358
0.0903191,0.0075326
0.0455616,0.014289
-0.0127214,-0.000849652
0.00435046,-0.00623242
0.0287062,-0.0203298
-0.0487301,-0.0252059
-0.188894,-0.00927341
-0.190211,0.00241574
-0.00238955,0.00487685
0.101005,0.00669784
-0.0254897,0.0176282
-0.0856922,0.0277375
-0.00611548,0.0208568
0.117627,-0.00974611
0.158795,-0.0217974
0.121606,-0.00837297
0.126511,-0.019267
0.138013,-0.00283545
0.110625,0.00544026
0.07856,-0.00256567
0.0462649,-0.0071637
0.00693785,-0.00974783
-0.0512889,-0.0122505
-0.0922373,-0.0176644
-0.113543,-0.0148297
-0.117793,-0.0104826
-0.110908,-0.0164886
-0.110493,-0.0167743
-0.0372335,-0.0067037
-0.213997,0.00730642
-0.371023,0.0286572
-0.0870633,0.0435298
0.268178,0.0258784
0.417944,0.0145523
0.325408,0.0300736
0.115112,0.0230523
-0.0406834,-0.00305467
-0.0568155,-0.0318144
-0.0308543,-0.0357164
-0.0240964,-0.00838121
-0.0748386,-0.00305053
-0.157798,-0.00750582
-0.0925862,-0.0191129
0.0914946,-0.0291094
0.0953046,-0.0233285
-0.0576641,-0.00995596
-0.103653,0.0199755
-0.0674901,0.0405651
-0.0559832,0.0422199
0.0814673,0.0526979
0.195684,0.0366902
0.16836,-0.00563913
0.100596,-0.0252514
-0.0110864,-0.0363936
-0.146203,-0.0365706
-0.250294,-0.00763292
-0.116314,0.0125928
0.0987702,0.0116913
0.191557,0.0114332
0.107375,0.00756298
0.0104186,0.00434991
0.0138327,-0.00376125
0.0561879,-0.0280154
0.0668292,-0.0236356
0.034184,-0.0112199
-0.00455526,-0.00558694
-0.0870422,-0.0107448
-0.154496,-0.00458138
-0.261548,0.0151939
-0.345759,0.0260046
-0.396604,0.0182712
-0.217787,0.00873492
0.098694,0.00536894
0.38991,-0.00952295
0.434583,-0.0101573
0.272756,-0.0107396
0.153024,-0.00931869
0.0890164,-0.0186648
0.0112707,-0.0220736
-0.00124684,-0.00836329
0.00317634,-0.00126806
-0.0371722,0.0045589
-0.0822673,0.00532393
-0.0604083,0.00737615
-0.000807051,0.0273986
0.0554991,0.0191438
0.0805084,0.0212467
0.0306583,0.0227118
-0.0317906,0.0214983
-0.0897621,0.00543266
-0.102354,0.00813687
-0.0691461,0.0156689
-0.064111,0.00595946
-0.0656365,-0.00437208
-0.040546,-0.0218482
-0.0167729,-0.0353821
-0.00894494,-0.0324206
-0.00236614,-0.0133331
0.00159348,-0.0104453
-0.00479343,-0.0271146
-0.0200628,-0.0104236
-0.00307795,0.0240698
0.0399126,0.0389278
0.0712084,0.0328684
