Comp Ch 3,Comp Ch 4
-0.0064024,-0.0569619
0.0286215,0.0417886
0.0144869,0.0341574
-0.018487,0.0159031
0.0130992,0.10115
0.0471795,0.028757
0.0456608,0.00632532
0.0042007,0.130889
-0.0347161,-0.00534704
-0.045828,-0.0587316
-0.100222,0.0838038
-0.100917,0.049075
-0.130317,-0.039032
-0.224075,-0.108184
-0.10644,-0.101121
0.120076,-0.0968436
0.199402,-0.0683495
0.139281,-0.0853559
0.132053,0.0367983
0.19923,0.0871737
0.215006,0.0150604
0.13449,0.0163013
0.0182108,0.00413759
-0.0693523,-0.0611621
-0.0945558,0.00909192
-0.0581709,0.0208181
-0.0195727,0.0171203
0.0245369,0.0666621
0.0057365,0.0815895
-0.0355458,0.0281077
-0.0280261,-0.0363575
-0.024359,-0.0270334
-0.0436986,0.0116947
-0.0827781,0.0171043
-0.00797847,0.0207818
0.0723501,0.0577158
0.0133334,0.0131157
-0.131277,-0.0119522
-0.180816,-0.0979082
-0.0567379,-0.119177
0.0296226,-0.0139449
0.0235521,0.0636113
0.0382512,0.0401106
0.0216888,-0.0643925
0.00971649,0.0435939
0.00372098,0.0583638
0.0266723,0.0441135
0.0522803,0.00918718
0.00967022,-0.0348163
-6.4e-05,0.0111355
0.0190055,0.0250156
0.013868,-0.117393
-0.00194757,-0.0205405
-0.0219588,0.0865203
-0.0112205,-0.0144077
-0.0113698,-0.139702
0.00133207,-0.0129195
0.00349343,0.0627306
0.0337358,0.0824174
0.0503493,0.0211628
0.0389222,0.037635
0.0114165,0.0653938
-0.0383343,-0.0211119
-0.0622435,0.0195954
-0.0513743,0.152292
-0.0294282,-0.105856
0.0224777,-0.22198
0.0332917,-0.00850451
0.0312329,0.0868583
0.0301285,0.0171565
-0.00286263,-0.0253287
-0.042099,-0.0349034
-0.0559656,0.00483559
-0.0239887,-0.0147256
0.0228116,0.0045905
0.0590466,0.00966735
-0.0264313,-0.0324853
-0.102203,0.057092
-0.0280696,-0.0262182
0.0530346,0.0248889
0.0680588,0.0574024
-0.0108326,0.0170975
-0.0401707,-0.0316444
0.0742281,-0.00579468
0.10346,-0.0147136
-0.00359838,-0.0295297
-0.0620251,-0.0166134
-0.0367626,-0.04855
-0.0126782,-0.10279
0.00987754,0.00945247
0.000420697,0.0508527
0.0266976,0.0619668
0.0495969,0.00589084
0.0156573,0.0175312
-0.0223966,-0.0129166
-0.0387656,-0.013089
-0.0212764,0.115301
0.000411535,-0.0179702
-0.000204964,-0.212905
0.0332586,-0.0756056
0.0643135,0.0940757
0.0181172,0.0936653
-0.047161,0.0652842
-0.0632469,0.0124084
-0.0657527,-0.00276532
-0.0245246,0.017683
0.069672,0.000704776
0.0966004,-0.0326609
0.0770518,0.00840617
0.0163226,-0.0118557
-0.0663399,-0.0579263
-0.0829093,-0.108248
-0.0115247,-0.0815813
0.0742696,0.00146148
0.0947651,0.0607362
0.0489354,0.135278
-0.0405137,0.0963731
-0.108258,0.0872914
-0.0879136,0.173838
-0.0956295,0.00796633
-0.0913714,-0.142916
-0.0446641,-0.122162
0.0226509,0.0232383
0.088249,-0.00710568
0.0778938,-0.00446004
0.00163249,0.0227832
-0.0887319,0.0135327
-0.119041,0.00691528
-0.0591931,0.0162167
-0.00471254,-0.0824525
0.08628,-0.0505773
0.127155,-0.00489269
0.0465281,-0.0191631
-0.0105338,-0.00445081
0.0021143,-0.0229915
0.0302527,-0.0502206
0.0697187,-0.0399473
0.0773736,-0.0329305
0.0731843,-0.032849
0.0813897,0.0452808
0.0563685,0.0278295
0.00421809,0.0766869
-0.0150759,0.135026
-0.018816,0.050206
-0.000119216,-0.0170459
-0.0614465,-0.0707319
-0.144373,-0.0574937
-0.129917,-0.0148492
-0.0390212,0.00892043
0.00100324,-0.0329023
0.0135387,-0.0123811
-0.00441061,-0.019704
-0.0286104,-0.140705
0.0112501,-0.0204303
0.00934556,0.049629
-0.0538271,0.0922269
-0.0293139,0.0895235
-0.000288543,0.150157
-0.0108875,0.0277389
-0.00496139,-0.0378648
0.054908,-0.00305863
0.107685,-0.00705656
0.063403,-0.018435
-0.00978537,-0.0162807
-0.0610364,0.00490817
-0.0250914,-0.0567594
0.0541634,-0.0357271
0.115922,-0.00745648
0.0993507,-0.0107879
-0.00864273,-0.0031052
-0.0987577,0.040662
-0.151432,0.0217726
-0.18774,0.0130322
-0.187787,-0.00647294
-0.112687,-0.0131985
0.0460504,-0.0156939
0.204443,-0.014417
0.225827,0.0234553
0.165131,-0.000115235
0.136052,-0.000918836
0.0705155,-0.0074402
-0.0362872,0.00645324
-0.146853,0.0349265
-0.171081,0.0223751
-0.0340193,-0.00793525
0.0604761,-0.0304195
0.100612,-0.019333
0.0664935,0.0062068
-0.009596,0.00456265
-0.0216882,-0.00693068
-0.00732231,-0.0025949
-0.0134826,-0.00925956
-0.0203491,0.004074
-0.0399502,0.0117085
-0.0823712,-0.0171863
-0.0383492,-0.0523884
0.0239361,-0.0118663
0.0298119,-0.0460558
0.0644305,-0.035125
0.0152443,0.0561413
-0.0121814,0.0783005
-0.0143678,-0.00304697
-0.0261368,-0.0416807
-0.0365269,0.0341162
-0.0485542,0.0439735
-0.0147838,0.0115606
0.019802,0.010841
0.0315598,-0.0504751
0.0141283,-0.068936
0.00316096,-0.0495359
-0.00281747,0.03907
-0.0197606,0.0487973
-0.0564427,-0.0167578
-0.08907,-0.00117132
-0.0512358,0.0321464
0.010528,0.0201274
0.106213,0.0137101
0.135006,0.0149047
0.144405,-0.00663606
0.117774,-0.00573056
0.00384603,-0.0116572
-0.086142,-0.00840122
-0.127857,-0.0281988
-0.157476,-0.0336347
-0.124108,0.00407017
-0.041877,0.0128609
0.103099,0.0472083
0.18305,0.0302688
0.204999,0.0280305
0.117744,0.0280354
0.0114698,-0.00528276
-0.0481381,-0.0154832
-0.0718732,0.00916469
-0.0928635,0.0231852
-0.0593795,-0.0530092
-0.0629378,-0.0434621
-0.100256,-0.0157506
-0.110676,0.0219864
-0.0722802,-0.035586
0.00348651,-0.0782647
0.00758011,0.0139846
-0.0277122,0.0441207
-0.000456837,0.0389921
0.0470108,0.044292
0.0477664,0.00899323
0.0181593,-0.0265834
-0.0211374,-0.0343684
-0.0409295,0.0181901
0.0403184,-0.00352229
0.194871,-0.0406984
0.203458,-0.0598659
0.0436922,-0.0204473
-0.154798,0.0127608
-0.170464,0.00783409
0.00360829,0.042388
0.137403,0.0183147
0.164251,0.00907775
0.0884955,0.0160205
0.0220473,0.0301826
-0.0491535,0.0488257
-0.11754,0.0516037
-0.108115,0.0160729
-0.0297272,-0.0407456
0.119012,-0.0126387
0.0878056,0.0016626
-0.0324114,0.00766238
-0.13026,0.0112519
-0.0918671,0.00107938
0.0022272,-0.0215699
0.0112477,-0.03375
-0.0168903,-0.0599692
-0.0651533,0.0207774
-0.0516301,0.0508375
-0.00541251,-0.0648767
0.0215292,-0.0293903
0.00469523,-0.0168419
-0.027234,-0.00591282
-0.0286183,-0.005632
-0.00172865,-0.00694785
0.031491,0.000607576
0.0995582,0.0193486
0.102097,0.00899388
0.0742466,0.00908855
-0.0282642,0.0124293
-0.130249,0.0131209
-0.113687,-0.0247788
0.00457145,-0.0448986
0.0915958,-0.0245292
0.0436643,0.0141407
-0.0462682,0.0457804
-0.0776104,0.0645436
-0.0642884,0.0512142
0.0298828,0.0327163
0.116655,0.0313108
0.091387,0.00129711
0.0110574,-0.0429775
-0.0170111,-0.0691591
-0.0271767,-0.0204494
0.00722782,-0.0061375
0.0404724,-0.0198602
-0.0312978,-0.0100905
-0.0950863,-0.0222654
-0.0355046,0.00336187
0.0349416,0.0113738
-0.0153981,-0.000918549
-0.0427301,-0.0016425
0.0351214,-0.00488073
0.0689707,0.00996182
0.0564365,0.00333399
0.0211841,0.0190833
-0.00366355,-0.0231109
0.0241903,-0.0198156
0.0256623,-0.0176132
-0.00573707,-0.00116727
-0.0469516,0.0080387
-0.0927882,0.00314628
-0.0847516,0.0179462
-0.0274764,0.0462738
0.0191947,0.0506449
0.0180942,0.00445219
0.0351275,0.00398517
0.0628647,-0.0397387
0.058047,-0.0257224
0.0590257,0.00480676
0.0403173,-0.0116759
-0.00126871,-0.027076
-0.00906544,-0.0154141
0.0615625,0.0498735
0.030742,0.0184461
-0.0346521,-0.0220773
-0.129018,-0.0182193
-0.250358,-0.00322153
-0.223388,0.0014412
-0.0862438,0.0159705
0.0783211,0.0280995
0.182602,0.010088
0.146165,-0.00795418
0.100778,-0.012272
0.0903743,-0.000553933
0.109476,0.00417063
0.0852198,0.00933322
0.0490417,0.0176702
-0.000295335,-0.00878446
-0.0762404,-0.0222933
-0.0721253,0.0353206
-0.0127185,0.0140239
-0.0647585,-0.0330564
-0.0934424,-0.0346549
-0.122727,-0.0464757
-0.0937628,0.069928
-0.0681125,0.0353016
-0.0521283,-0.0131174
0.00225581,-0.0218564
0.0455623,-0.0394822
0.0702182,-0.0114074
0.0729665,0.0241339
0.0636437,0.00487918
0.0442471,0.0119529
0.0973833,0.0749001
0.0880692,0.120232
0.0286889,0.0199174
-0.0400478,0.00101879
-0.116709,0.0170012
-0.117301,0.00929591
-0.0149256,0.0078422
0.0704251,-0.01774
0.0310958,-0.0377065
-0.0728866,-0.0325023
-0.0350682,-0.0164175
0.00577492,0.023778
0.0117489,0.0166461
-0.00422534,-0.0881933
-0.0148084,-0.0548163
-0.0537518,-0.024327
-0.0882744,-0.00461423
-0.0650978,-0.0184472
0.00830699,-0.0548089
0.0884388,-0.0531322
0.144116,-0.0310402
0.144981,-0.0270238
0.0796336,-0.0208098
0.00139977,-0.0170004
-0.0386406,-0.025875
-0.0324911,0.00169471
-0.0120495,0.0488721
0.0197258,0.0275999
0.0263928,0.00643767
0.0128338,0.0381527
-0.021645,0.0131372
-0.0496843,-0.0377507
-0.0383585,0.0487551
-0.0584785,-0.00344775
-0.033412,-0.0350492
0.0328633,0.00959904
0.0410343,0.0119941
0.0156341,-0.0119806
-0.0225954,0.0116815
-0.063371,0.0273527
-0.0156606,0.0327907
0.0317088,0.00511225
0.0167145,0.00435047
0.0182408,0.060029
0.00186496,0.0479639
-0.0356567,-0.0463178
-0.0299697,-0.00770235
0.0152445,-0.019498
0.0246496,-0.0252368
-0.0135426,0.00280112
-0.0146313,0.0111942
-0.0203819,0.00697905
-0.0116344,0.00355478
0.0411527,0.00743955
0.0565512,-0.00169844
0.0547897,-0.0298612
0.0646149,0.0099609
0.0692239,-0.00290182
0.0249906,0.026819
-0.0565019,0.0340944
-0.0849167,-0.00363467
-0.0797975,-0.0196202
-0.028299,-0.0281954
0.0514629,-0.0114144
0.0603016,0.00622615
0.0340784,-0.00280646
-0.000609486,0.00586415
-0.0436078,0.00710412
-0.0811763,0.00210467
-0.130165,-0.00362913
-0.118966,-0.0340824
-0.00359138,-0.0087495
0.0789687,0.00538975
0.0815576,0.0117553
0.0560539,0.0103851
0.0837316,0.0126133
0.133353,0.0110002
0.134946,-0.00653069
0.0525184,0.00509193
-0.098803,0.00908941
-0.167902,0.00102546
-0.141969,-0.0135465
-0.0647597,-0.014007
-0.0204366,-0.0128103
-0.0207754,0.0124729
-0.0314913,0.0311604
0.0311426,0.0258779
0.068942,0.00445829
-0.00651632,0.0147136
-0.0779997,-0.0265532
-0.0385716,-0.0433551
0.0100794,-0.0057221
0.00959669,0.00911685
0.00754842,0.0905906
0.0203045,0.0238224
0.0636346,-0.0343106
0.0701843,0.0143375
0.0539058,-0.000652203
0.0524612,-0.0138406
0.0377541,-0.00847125
-0.000138304,-0.00289665
-0.0450857,0.00402903
-0.0698342,0.00699842
-0.0666285,0.00963023
-0.0266425,0.0154483
0.00894233,-0.00183738
0.0334697,-0.00822229
0.0353047,-0.000715858
-0.00878956,-0.00917128
-0.044768,-0.0226987
0.0129511,-0.0335359
0.0731914,-0.031675
0.0310714,0.00696199
-0.0187587,0.0125512
0.00615386,0.000910322
0.11543,0.00795555
0.146453,0.0113953
0.0481655,0.00429058
-0.0739432,-5.17e-05
-0.101752,-0.023191
-0.0997608,-0.032354
-0.104757,-0.0168596
-0.0771566,-0.0268325
-0.0139561,-0.0325102
0.0373224,-0.0269601
0.0102339,0.0230168
-0.0151583,0.0609547
-0.0390079,0.0460687
-0.0577449,0.0319072
-0.0925582,0.0134959
-0.0699496,-0.0153645
-0.00228022,-0.0457756
0.0934085,-0.0206832
0.180209,-0.00216361
0.182377,0.0125484
0.140572,0.00683025
0.037159,0.0482157
-0.0979778,0.00759776
-0.145953,-0.0553138
-0.118621,-0.0499162
-0.043333,-0.028247
0.0629925,0.00460939
0.111376,0.0104341
0.0883941,0.0738025
0.0468353,0.0602298
0.0271224,-0.00737709
0.00218504,-0.0188818
-0.026735,0.0333467
-0.0544032,-0.00418765
-0.073599,-0.0470965
-0.0646532,0.011478
-0.0358088,-0.00741791
-0.0118186,-0.0290208
0.00631192,0.00231261
0.0377581,-0.0200804
0.0655993,-0.0116771
0.0456463,-0.0262494
-0.00669426,-0.0622565
-0.0621503,-0.054863
-0.0968578,0.0283172
-0.0918901,0.108972
-0.0561964,0.0758476
-0.00892384,0.0404198
0.0246675,-0.00616469
0.0310564,-0.053013
0.0218712,-0.0742703
0.0121374,-0.026433
0.0217983,0.057667
0.0268037,0.0615052
0.0248411,-0.0104376
0.0322613,-0.0127624
0.0442951,0.0154686
0.0137151,0.00210439
-0.0135627,0.00943969
0.00522506,0.00897908
0.00482525,-0.0119366
-0.0210688,-0.0611306
-0.0407289,-0.0300471
-0.00654772,0.0190267
0.0475641,0.0193581
0.0520524,-0.043644
-0.0204836,-0.0179779
-0.0714294,0.114736
-0.0659092,0.0474515
-0.0229813,-0.0504881
0.010328,-0.0369138
0.0451595,-0.00995654
0.113509,-0.0126574
0.1538,-0.0396726
0.0801348,0.0250783
-0.0323613,0.0405112
-0.0992473,0.0295606
-0.10115,0.0230704
-0.0844864,0.0252674
-0.0694955,0.0424426
-0.0321871,0.0165247
0.0253987,-0.0288585
0.0550698,-0.0321624
0.0246463,-0.02709
0.00304245,-0.0139933
-0.00349041,-0.00850121
-0.0352563,-0.00679057
-0.0813794,0.0200805
-0.0797763,-0.012301
-0.010091,-0.0647584
0.0663071,-0.0401066
0.0667321,-0.0209691
0.0663089,-0.0125051
0.0852544,0.0220757
0.0509173,0.0968097
-0.00978199,0.00365121
-0.0266044,0.0036324
-0.00894356,0.00823219
0.00770174,0.00259724
-0.00029112,-0.0235227
-0.0153683,-0.0412078
-0.0151461,0.0589798
-0.0134415,0.0271489
0.012456,-0.0039772
0.0177875,-0.00338911
-0.00892983,0.00617396
-0.0276277,-0.0156722
0.0247737,-0.0146607
0.110974,-0.0142709
0.119179,-0.0174368
0.0387879,-0.0170087
-0.0875618,-0.016319
-0.142647,0.020413
-0.0808815,0.0556289
-0.0311341,0.0010248
-0.0314583,-0.0492694
-0.0413769,0.000343321
-0.0431548,0.00702848
0.00778264,0.0340116
0.0359026,0.0401182
0.0176072,-0.0101144
0.0062951,-0.0171289
0.00137332,-0.0531175
0.00888535,-0.0764949
-0.000424422,-0.038765
-0.000826642,-0.0200468
0.0112623,0.054371
0.0137787,0.0871219
0.00129371,0.0602797
-0.00540182,0.0396592
0.00657246,-0.0170068
0.00765319,-0.0596646
0.00217327,0.0110731
0.00370347,0.0215139
0.00357521,-0.00637199
0.0105338,-0.0481997
0.018399,-0.0218291
0.0174379,0.0403436
0.00333423,0.0250538
-0.0103959,-0.012501
-0.00103357,0.0285712
-0.00685683,0.00453934
0.00657588,-0.0213019
0.0237233,0.00721365
0.0177668,-0.00866293
-0.00330199,-0.00994484
-0.00924453,-0.00429313
-0.00476445,0.0168226
0.00606177,0.0196492
0.00829191,0.0120198
0.00778427,-0.0437942
-0.0111691,0.00522043
-0.0285706,0.0215768
-0.0244594,-0.0225109
-0.0216114,0.028569
-0.022266,0.0135353
0.00912996,-0.0156635
0.0429046,0.0145765
0.0214639,0.0193946
-0.0209932,-0.0302221
-0.0317665,-0.101828
-0.0186671,-0.0744339
-0.0138586,0.00761917
-0.0173234,-0.00281959
0.0136437,-0.00977076
0.0352805,0.0118734
0.0258144,-0.0384998
0.00692967,0.000187849
-0.00691599,0.0455037
-0.00506006,0.0989122
-0.00565729,0.0706238
0.00971803,-0.00309797
0.00790472,-0.00554186
0.00731977,0.0406206
-0.0116736,0.00989682
-0.0335531,-0.0435441
-0.0267479,0.00545387
-0.0026139,0.0188091
0.0235607,0.0121494
0.0334696,-0.00773599
0.0165611,-0.0805418
0.0142255,-0.0435891
0.0233647,0.0392946
0.0358292,0.000317546
0.0359839,0.0311313
0.0110315,0.0124922
-0.0152241,0.00596487
-0.0286062,0.00519662
-0.0241789,0.0138708
-0.0344503,-0.0104942
-0.000743749,-0.0205249
0.0230798,0.0222363
0.0233378,-0.0706494
0.0377508,-0.092274
0.0196968,-0.0331473
-0.00756364,-0.000304033
-0.0316746,0.0107698
-0.0515855,0.0304709
-0.0452327,0.0818588
-0.0126443,0.0847803
0.000155535,-0.0382394
-0.0114941,-0.0342764
-0.0148291,-0.0126614
-0.0309745,-0.0247572
-0.0506935,-0.0405161
-0.0369853,-0.0529087
-0.0216553,-0.0131987
-0.00126498,0.0594188
0.0241505,0.00308015
0.0535948,-0.0116051
0.0605263,-0.0345424
0.0440977,0.107639
-0.00895938,0.146389
-0.0325197,0.0157043
-0.0188982,-0.0392007
-0.0520804,-0.0189274
-0.0462531,-0.00427944
-0.0058451,0.0449886
0.0373261,0.0757981
0.0774694,-0.0513877
0.091989,-0.00737145
0.0349383,-0.0250439
-0.0379949,-0.0934077
-0.0393889,-0.0178952
0.0170869,0.0289295
0.0446019,0.010023
0.0332451,0.03292
0.00426094,0.0443624
0.00709031,0.000367058
0.0427176,-0.0116338
0.037676,-0.0162289
0.0253593,-0.0436789
0.0166427,-0.0874308
-0.0251222,-0.0523289
-0.0307448,-0.0282526
-0.021453,0.0261148
-0.0361097,0.0183343
-0.0439422,-0.0677531
-0.0138422,0.12611
-0.0246554,0.0447774
-0.0578639,-0.128071
-0.0864738,-0.00350812
-0.0871918,0.0344155
-0.0551589,0.0418689
-0.00856883,0.0571001
0.0599689,0.00386566
0.074336,-0.0495161
0.0240476,-0.0171586
0.0233295,0.0645266
0.0330169,-0.00712731
0.0180443,-0.0190236
-0.0121878,-0.0161583
-0.0234315,0.0884326
-0.0390729,-0.00618495
-0.0623153,-0.0252623
-0.0449057,-0.0150988
0.0280219,-0.0625522
0.0693682,-0.0240178
0.0279191,0.0419552
-0.00296753,0.0168468
0.0079626,-0.0390554
0.0272345,-0.00557416
0.005513,-0.0757764
-0.00882806,-0.0743903
0.0301842,0.164094
0.134567,0.0388663
0.240707,-0.0342226
0.206797,-0.0267344
0.0945517,-0.0903811
-0.0168528,0.029628
-0.163535,0.0537607
-0.268658,-0.0300711
-0.198389,-0.0231304
-0.0807644,0.0445818
-0.0339029,0.049829
0.0259893,0.0507361
0.0647594,0.0384155
0.0802579,0.0320817
-0.0049683,0.0231683
-0.111826,-0.00183564
-0.114435,0.013824
-0.0925207,0.0509704
-0.0679414,0.0166363
-0.0196071,-0.0384583
0.056528,-0.022397
0.0985622,-0.0665212
0.0929263,0.00251307
0.0248856,-0.0147887
0.014857,-0.0472088
0.013473,-0.0240289
0.0631825,0.0135418
0.0838502,-0.048348
0.0681272,-0.00874994
0.0420793,0.0223044
0.00262081,0.039815
-0.0476835,-0.0267995
-0.0870542,-0.140993
-0.0619153,-0.147539
-0.0344754,-0.0182208
0.0147536,0.0973073
0.0554874,0.068873
0.0589368,0.0634999
0.0479491,0.0726441
0.023005,0.117652
0.00288132,0.0798656
0.017422,0.0213382
0.0246937,0.0378488
-0.0343796,-0.101595
-0.157706,-0.151468
-0.266791,-0.023451
-0.22716,0.0237528
-0.0538072,0.0331858
0.0700094,0.0381731
0.147959,-0.0160264
0.145547,-0.00879111
0.13384,0.031778
0.0530594,0.0221846
-0.0564724,0.0166974
-0.0876375,-0.0339377
-0.0941727,-0.119368
-0.0575382,-0.124667
0.0338819,-0.0372883
0.0748109,0.0479579
0.122386,-0.0208873
0.186888,0.0326854
0.155358,0.0977346
0.0924472,0.0361398
-0.00148069,0.0748246
-0.114115,0.0416579
-0.126105,0.00862327
-0.072509,-0.0282664
-0.0080142,-0.124948
0.0847507,-0.140983
0.121529,0.0282629
0.0997336,0.128757
0.0288911,0.203362
-0.0639024,0.0807181
-0.176366,-0.048796
-0.202301,-0.0813353
-0.174473,-0.126595
-0.0951826,0.0181884
-0.0522899,0.0345359
0.00694784,-0.105291
0.0752789,-0.0960978
0.0749101,-0.0258829
0.0401959,-0.000584351
0.037678,0.0132703
0.030885,-0.0411841
0.0739788,-0.0130837
-0.00463748,0.198987
-0.160709,0.118491
-0.16947,0.0800216
-0.0277792,0.0497266
0.110982,-0.0147619
0.180631,-0.120746
0.215111,-0.147941
0.174103,-0.0941912
0.143489,-0.00298353
0.0987504,-0.0312997
0.0449558,0.0421158
-0.00943927,0.06882
-0.143315,0.0562142
-0.19259,0.0750955
-0.150373,0.0460391
-0.0872355,0.00258605
-0.05288,-0.0274136
-0.0222493,-0.00115982
0.0245037,0.0848464
0.0709614,-0.0121387
0.0769583,-0.0139526
0.0262031,0.0214131
-0.0456313,0.007748
-0.133165,0.000259746
-0.162866,-0.10952
-0.101068,-0.131462
-0.0373404,-0.0772059
0.060136,-0.0383195
0.0852928,0.118445
0.0114254,0.0860906
-0.109546,0.00706159
-0.15514,0.0231261
0.059393,0.00788974
0.274021,-0.108444
0.261208,-0.0246156
0.151107,0.00288127
0.0918601,-0.0411024
-0.00972681,0.0489297
-0.101661,0.0665152
-0.0852773,0.0327277
-0.0043533,0.00514517
0.0351717,-0.0710532
0.0241411,-0.0169814
-0.0142165,0.0442346
-0.039646,0.00880557
-0.0474855,0.0722078
-0.0336291,0.0481718
0.00959474,-0.0892859
0.0202735,-0.134703
-0.0177261,-0.0525404
-0.117502,0.0219851
-0.192544,0.0410826
-0.202969,-0.00948705
-0.117208,0.0567704
0.0126532,0.0813822
0.0441016,0.0486402
0.00717248,-0.0733754
0.0425772,-0.0103027
0.0390621,0.0303805
0.0499702,0.0598388
0.0422996,0.0445743
0.0266499,0.0059426
0.0828848,-0.0352443
0.167574,-0.0453777
0.156289,-0.0204403
0.0840862,-0.0346194
0.00312082,-0.0184935
-0.0792229,0.0125775
-0.139141,-0.051769
-0.170249,-0.125971
-0.0646531,-0.041239
0.0976286,0.0456747
0.163821,-0.0268089
0.0865037,0.0137132
-0.0313009,0.0621746
-0.201493,0.0456652
-0.1903,0.0935117
-0.044282,0.0894069
-0.00425409,0.0433935
0.0023257,-0.0121451
0.041559,0.134784
0.10427,0.0226094
0.111507,-0.0311138
0.0915585,-0.129872
0.0950203,-0.25333
0.0580378,-0.218494
-0.0114948,0.142308
-0.00897814,0.236273
0.0117773,0.132397
0.0358573,-0.00938799
-0.00231063,-0.0955025
-0.0561327,-0.00818637
-0.120826,-0.0316109
-0.1623,-0.123486
-0.165527,-0.0464006
-0.00391031,-0.0279581
0.176364,0.00131989
0.177191,0.0266823
0.136429,0.0671712
-0.0130774,0.110363
-0.152665,0.1207
-0.133972,0.046305
-0.0137513,-0.000725372
0.0924402,-0.0293291
0.113756,-0.114276
0.0624689,-0.141704
0.0150534,-0.0216359
-0.0417759,0.105007
-0.08637,0.095637
-0.0543529,0.041461
0.0722175,0.057191
0.179886,-0.00132599
0.159471,-0.0736677
-0.0184783,-0.0977214
-0.0913516,0.01574
-0.0726017,-0.0144724
0.00456997,-0.062466
0.0188942,0.0391597
-0.00333838,0.0982375
0.00707695,0.0345005
0.0399899,-0.11088
0.0257915,-0.205606
-0.029122,-0.173915
-0.0474402,-0.00428339
-0.0756869,0.0753534
-0.107898,-0.0528695
-0.0846112,0.00888607
-0.107933,0.135752
-0.0939002,0.136951
0.0512165,0.107504
0.193534,-0.0519995
0.172508,-0.0298721
0.0484607,-0.0192894
-0.00378233,0.000412618
-0.0142857,0.102964
-0.110498,-0.0528847
-0.0887714,-0.00476195
-0.0613758,0.042989
-0.118804,0.0433842
-0.118733,0.0343387
-0.0713998,-0.00730003
0.0400949,-0.051205
0.174852,-0.011468
0.275828,0.0408058
0.288861,0.0754072
0.227164,0.0703294
0.0484486,-0.0098221
-0.0480472,-0.104496
-0.152313,-0.0743025
-0.200075,-0.0221651
-0.199681,0.00244444
-0.132833,-0.0171264
-0.085694,-0.0379893
-0.0875049,0.00118535
-0.0229698,0.0622706
0.0383037,0.0159457
0.0620491,-0.00827383
0.0522355,0.00394707
0.00804241,0.0120731
-0.0485693,0.0299236
-0.0402132,-0.0254696
-0.0612895,-0.015719
-0.0231319,-0.0719692
0.0322981,-0.0876847
0.0216068,-0.00265019
-0.0302208,0.0373947
-0.0876386,0.0380036
-0.114819,0.0241354
-0.0946549,0.0566606
-0.0261982,0.0153033
0.154223,-0.0985908
0.267134,-0.0334401
0.227531,0.0404597
0.139187,-0.00922395
0.0282989,-0.0564924
-0.0198102,0.0177149
-0.0478692,-0.0338506
-0.0973942,-0.0476047
-0.0882211,-0.0526016
-0.0362638,-0.0173311
0.0183182,0.185322
0.0172731,0.180803
-0.029463,-0.0685283
-0.0158441,-0.0348722
0.0419638,0.0296824
0.0158186,0.00692555
-0.00203832,0.00427536
0.0220153,0.0337784
0.00101277,-0.0124533
-0.056054,-0.0944201
0.00814065,-0.0965251
0.127181,0.0477888
0.123284,0.138926
0.00360682,0.0930122
-0.115728,-0.0176486
-0.187141,-0.0393911
-0.111555,-0.0464717
0.0122572,-0.0478322
0.0410649,-0.0202378
0.012266,0.0251436
-0.00550323,0.0360603
-0.00103449,-0.029741
0.0216148,-0.027232
0.0323829,-0.0241395
0.0394146,-0.0298309
0.048725,-0.0315479
0.0525571,0.0333565
0.0260961,0.0392989
0.00196507,-0.0332012
-0.0353585,0.00801324
-0.090809,-0.0421245
-0.0930134,0.00825103
-0.0676977,0.129115
-0.0434316,-0.062768
0.00257788,-0.0650743
0.0473637,0.0303376
0.0897396,0.0259522
0.118689,0.0257311
0.100652,0.0120842
0.012176,-0.00270504
-0.0752934,-0.0130717
-0.0972094,0.00062594
-0.0119445,0.0285285
0.0419576,-0.0289234
0.0394858,-0.0806981
0.0229639,-0.0027291
-0.0181635,0.0141341
-0.013933,0.0284425
0.0215318,-0.0119111
0.0913954,0.01941
0.0985469,0.0434531
0.0162744,-0.0544842
-0.0256525,-0.0365029
-0.0659461,0.0137011
-0.109011,-0.034227
-0.111477,-0.0436459
-0.081297,0.047104
-0.0247086,0.100475
0.0759111,0.0511665
0.101922,0.0740154
0.107934,0.106692
0.0968708,-0.109966
0.0275555,-0.0844582
-0.0590693,0.00718193
-0.11904,-0.0082077
-0.121797,0.00255496
-0.0570801,-0.0087582
-0.0162455,0.00638498
-0.013853,0.00106044
0.0138189,-0.0184623
0.0396334,-0.0339359
0.00144286,-0.00542301
-0.0292915,-0.00588177
-0.0349886,-0.00576668
-0.0394211,0.0365213
-0.0352047,0.01395
-0.00403315,-0.0489893
0.0164882,-0.0714935
0.0166098,-0.0543154
0.0270693,-0.0425521
0.0307076,-0.0595878
0.0352392,0.0234098
0.0550826,0.102816
0.0615145,0.0302247
0.0595121,0.0355121
0.0255858,0.0579572
0.0139234,0.0443698
0.0385054,0.0156843
0.0630837,-0.0114811
0.0609322,-0.029122
-0.00603029,-0.0367066
-0.0895969,0.00164657
-0.10648,0.0211586
-0.0472055,0.0185312
-0.0050569,0.0432558
-0.0016615,0.0415092
-0.0272098,-0.0266128
-0.0533421,-0.0173445
-0.0445279,-0.0214283
-0.0158006,-0.00374596
0.0111602,0.0269145
0.0276111,0.015237
0.0289453,-0.0154764
0.0204826,-0.0173717
0.0390114,-0.0277591
0.00192502,-0.034156
0.0151722,0.0205507
0.0677695,-0.0133084
0.0634814,-0.0427954
0.0735982,-0.0241042
0.0334121,-0.0136281
-0.0422356,-0.0721158
-0.0904611,0.00591789
-0.105512,0.0472617
-0.0652221,0.068732
-0.0380626,0.070209
-0.0230097,0.0243363
-0.0195793,-0.00424746
-0.0139365,0.00703398
-0.0336687,-0.00693585
-0.043537,-0.0154857
-0.00574553,-0.00592141
0.0322689,0.00463299
0.0246795,0.0177514
0.0147601,0.0180941
0.0375397,-0.018313
0.0442507,-0.0261147
0.0464503,-0.0285109
0.081339,-0.0464036
0.0946603,-0.0877661
0.0406928,-0.0827199
0.0687003,0.0505702
0.0699886,0.163425
-0.02064,0.0610632
-0.0914049,-0.0332146
-0.0864627,-0.0375815
-0.0680745,0.00486515
-0.034274,-0.0191567
-0.0313361,0.00477588
-0.0481046,0.0268495
-0.0449782,0.0163323
-0.00665752,0.0223176
0.0259754,-0.0312337
0.0177555,-0.0291569
-0.0118419,0.0445026
-0.028745,0.0507769
-0.00433566,-0.00359424
0.0169403,-0.0126708
0.00721255,-0.0200083
-0.0221032,-0.0161453
-0.0216689,-0.0323397
0.0236698,-0.0490338
0.0650852,-0.0374995
0.0518717,-0.049682
0.0161404,0.0124664
9.3e-05,0.0646407
-0.00908461,0.0484839
-0.0205169,0.00847855
-0.0252459,-0.0059801
-0.0174221,0.00306622
-0.0175105,-0.00185573
-0.00330613,-0.0614047
0.0340607,0.0160348
0.0167474,0.0698997
-0.0208624,0.0344936
-0.01468,-0.00379839
-0.0101121,-0.0553665
0.0116726,-0.0618246
0.0429815,0.0561097
0.039205,0.074476
0.0309989,-0.023365
0.0300973,-0.0130501
-0.000703713,-0.0601534
-0.0286327,-0.107494
-0.0317183,-0.0169462
-0.0495906,0.00462742
-0.0678222,-0.0947852
-0.0559968,-0.0536898
-0.0424284,-0.0259986
0.0103108,0.0397765
0.0537462,0.104735
0.0621206,0.131357
0.0220919,0.106898
0.00262956,0.0944345
0.0245716,0.0570022
0.0425999,-0.0446957
0.0308869,-0.0518209
0.014018,0.0194928
-0.012041,0.0126425
-0.0263552,0.0223857
-0.00899126,0.0239003
0.0367435,0.0292131
0.0482753,-0.00555108
0.00570571,-0.0206599
-0.0302437,-0.0682004
-0.0579579,-0.0734338
-0.0867077,-0.0251192
-0.0347265,-0.00822099
0.00935011,-0.0376188
0.0278143,-0.0121
0.00611674,-0.0380055
-0.0252891,-0.0455558
-0.0188976,-0.00537213
-0.0114814,-0.0141431
-0.0197006,0.0187932
-0.0324402,0.0511776
-0.0623436,0.0524062
-0.0241384,0.0754165
0.0506127,0.0270038
0.0794338,0.00288124
0.0688768,0.00580005
0.0414536,0.018452
-0.000219565,0.00142885
-0.0210445,-0.0357884
-0.0246824,-0.0154179
-0.0146785,-0.00145962
0.0265322,-0.00622656
0.0420911,-0.0316793
0.019958,-0.0113626
-0.00993477,-0.0232916
-0.00805976,-0.0173304
0.00488999,-0.00884658
0.00356476,-0.0115222
-0.00479068,-0.0152482
-0.0188239,0.0158409
0.000546488,0.0365668
0.0290604,-0.00296741
0.0473325,-0.092129
0.0454673,-0.0684851
-0.0104182,-0.00584067
-0.05537,0.0223516
-0.0695065,0.0285042
-0.0182561,0.0701652
0.00725715,0.058716
0.0122407,0.0181115
0.0196206,-0.00561109
0.0265836,-0.0146586
0.0156629,-0.0603273
0.0195388,-0.0144167
0.00464945,0.0517612
-0.0353645,0.0610586
-0.0648646,0.0451067
-0.07927,0.00293212
-0.0417603,0.00497299
0.00213546,0.00959151
0.0116597,0.00697016
0.011509,-0.0221797
0.0034496,-0.0396788
-0.001527,-0.0203211
0.0119782,-0.0029355
0.00767095,-0.0790757
0.00897551,-0.07364
0.0188001,0.0120184
0.0137753,0.0326705
-0.0112586,0.0131068
-0.0422421,-0.00994778
-0.0551834,0.0185197
-0.0195557,0.016556
0.0162135,0.0503862
0.0241109,0.10539
0.0186597,-0.0141009
0.0141735,-0.0156548
0.0763255,-0.00754166
0.126303,-0.0419454
0.107181,-0.0500998
0.0355954,0.00214835
-0.00624019,0.0477954
-0.0383844,0.0269247
-0.0599091,-0.00463852
-0.0672659,-0.0253945
-0.0382707,-0.0455437
-0.00904427,0.0244697
-0.00268165,0.0264053
-0.00849516,-0.00740484
-0.0161711,-0.0194315
-0.0130849,-0.060196
-0.0168504,-0.064998
-0.00917954,-0.0174333
-0.00968975,0.0604137
-0.0108722,0.0345426
-0.016957,0.00842398
-0.000679227,0.0386792
0.0276579,0.0144247
0.0604261,0.0242194
0.0692813,0.0119556
0.0346296,-0.00829683
-0.000290033,-0.00742646
-0.000444378,0.000763691
0.0154047,-0.0378856
-0.00275158,-0.0425766
-0.0551458,-0.00811217
-0.0792818,0.0301334
-0.0457477,0.0412073
-0.00275659,-0.00874555
0.0365061,-0.0404345
0.0138574,-0.00532011
-0.056005,0.0632065
-0.0911632,0.0562888
-0.0826044,-0.0122863
-0.0170345,-0.0111547
0.0591203,0.0048406
0.123859,0.00366764
0.147612,-0.0595442
0.0787373,-0.0710305
0.000551779,-0.036807
-0.0355561,-0.00473833
-0.0417415,0.0131815
-0.0131942,0.0341257
0.0210372,0.00681972
0.0246774,-0.0421445
0.00454706,-0.0235964
0.00733818,0.117863
-0.0105167,0.150443
-0.0587253,0.00595181
-0.0865937,-0.0463475
-0.112792,-0.0286419
-0.0767715,-0.0435834
0.0343823,-0.0178165
0.058952,0.00082038
0.0164062,-0.0710224
0.0180516,-0.0859097
0.0182985,0.0146231
-0.00220416,0.0642071
-0.00207521,0.0485987
0.0332587,0.0458477
0.0396421,0.0314154
0.0331205,0.0155014
0.0208986,0.00754609
0.0208562,-0.0096786
0.0140574,-0.0200842
0.019005,-0.0261308
0.0123526,-0.0343187
-0.0115821,-0.0326984
-0.0265063,-0.0209913
-0.0462864,-0.049733
-0.0402474,-0.0507253
-0.0180588,0.0546636
-0.00557777,0.0271568
0.00758073,0.0110024
-0.000736126,0.0582182
0.0162606,-0.0365975
0.00157815,-0.101351
-0.0497223,-0.0443778
-0.0310635,0.0566602
0.00449592,0.0735864
-0.00373136,0.0319665
0.0026966,-0.0216261
0.0260331,0.00480475
0.0262742,0.0236865
0.00310457,0.0497246
-0.00446595,0.0251634
0.000605244,0.00503979
0.0129139,-0.00915959
0.0236298,-0.0163297
0.0289866,0.0027668
-0.004727,0.0122486
-0.0268497,0.0328168
-0.0372647,0.0189129
-0.0273725,-0.010395
0.0150731,-0.0159605
0.0458019,-0.0200465
0.0591916,-0.0294513
0.0318113,-0.0456512
-0.00602047,-0.0218948
-0.0113158,0.00639648
-0.0142057,-0.0231864
-0.00668083,-0.00633132
0.000594327,0.00110444
0.00115858,0.0126856
-0.0110877,0.0235979
-0.00752333,0.00123999
-0.00602961,-0.0115955
-0.0187782,0.0288357
-0.0349285,0.0351428
-0.0258058,0.0162292
0.00610863,0.00801453
0.00895883,-0.0127597
-0.0049115,-0.014464
-0.00827941,-0.00397494
0.00147405,-0.00896037
0.00133998,-0.010533
0.0024599,-0.00673682
-0.00213017,-0.0175648
-0.00688043,-0.0367329
0.00772238,-0.0181951
0.0193082,0.0181134
0.0169177,0.0123144
0.0212721,-0.00660772
0.0266057,-0.0184768
0.0291204,-0.0117299
0.0168911,0.0430414
-0.022924,0.0618434
-0.0390349,0.0234101
-0.0477408,-0.0111516
-0.0387331,-0.0481355
-0.00290782,-0.114131
0.0605637,-0.0499773
0.095364,0.13517
0.0733725,0.0963179
0.0273329,-0.0161484
-0.0100692,-0.00626732
-0.0284286,0.00401826
-0.0393303,-0.00892751
-0.0515391,-0.0469182
-0.0108736,0.00171255
0.0054934,0.00357649
-0.0494893,0.0120701
-0.0943838,0.0437998
-0.0921896,0.00880446
-0.0616667,-0.047814
-0.000292328,-0.00831116
0.0561503,0.00439917
0.0747307,0.0209954
0.0655569,0.0130045
0.0357299,0.00624544
0.000566987,0.00800443
-0.0218659,-0.0177785
-0.0344602,-0.0310173
-0.019432,0.0163496
0.0243012,-0.00345076
0.0539024,-0.0493192
0.0784113,-0.0191164
0.0735941,0.01539
0.0377741,-0.00589149
-0.0183721,0.0109007
-0.0619088,0.00869194
-0.0745019,-0.00701703
-0.06252,0.00743417
-0.0515541,0.0247843
-0.0206175,0.0296825
0.0231953,0.0133087
0.0507017,-0.04597
0.0541514,-0.0321559
0.0476544,0.023424
0.0436028,-0.00297302
0.0175219,-0.022928
0.000298272,0.00362437
-0.026326,-0.00237861
-0.030817,0.00197483
-0.0165166,0.0105523
-0.0264024,-0.00948908
-0.0107014,-0.00120243
0.0157115,0.0226616
0.000739863,0.043978
-0.00740573,0.00395187
-0.0120347,-0.00291588
-0.0551461,0.0143278
-0.076601,-0.0127896
-0.0595073,-0.000668655
0.00278929,0.00625054
0.0302599,0.0179779
0.0170801,-0.0258069
0.0210934,-0.0798168
0.0170212,-0.038011
0.0327185,0.00710654
0.0264237,0.0392711
-0.019131,0.0385286
-0.0276517,0.0237774
-0.0110101,0.00954798
0.0456062,0.000383403
0.0865627,0.0125668
0.072874,-0.0114018
0.0122431,-0.0223864
-0.0217692,-0.0150452
-0.024447,-0.00930606
-0.0272766,-0.00950809
-0.0352427,-0.00188088
-0.0179812,-0.0167373
0.00314227,-0.0497095
0.0214511,0.00397379
0.0369854,0.0180088
0.0126929,0.0461998
-0.0344464,0.0217604
-0.0576346,0.00896733
-0.0511526,-0.031474
-0.000267452,-0.0101615
0.0526334,-0.0423429
0.047625,-0.0588224
0.026558,-0.0725755
0.0193736,0.0307426
-0.00588737,0.109837
-0.0364338,0.083661
-0.0780701,0.0454295
-0.0994546,0.0195987
-0.0909131,0.0055592
-0.0298604,-0.0178329
0.0686146,0.00264961
0.129635,0.0636363
0.114809,0.0227581
0.0373598,-0.0268224
-0.0354496,-0.0211801
-0.0429324,-0.0176666
-0.0175117,-0.0236135
0.0131677,-0.0312424
0.0425614,-0.0214684
0.0665769,-0.0457805
0.0676378,-0.0542387
0.0285662,-0.0353201
-0.0157167,-0.0345135
-0.0662327,-0.0181042
-0.0764094,0.024639
-0.0518641,0.0441948
-0.0570196,0.0414114
-0.0504582,0.042415
-0.00722092,0.0280846
0.0319371,0.0177163
0.0487766,0.00377328
0.0598506,-0.004875
0.0537981,-0.00475556
0.0219058,0.00782156
-0.0341482,0.0101989
-0.0510856,0.0124354
-0.0359508,0.00788695
-0.0198987,0.00494293
0.0153887,0.00170433
0.0072825,0.00133285
-0.045936,-0.015843
-0.0511385,-0.0151209
-0.0243797,0.0192147
-0.0150643,0.0127375
-0.0133153,-0.0538314
0.0098547,-0.0141619
0.0374541,-0.0355828
0.0581953,-0.00696615
0.0541707,-0.00298769
0.0223574,0.024978
-0.0224053,0.0239195
-0.0653229,-0.0426805
-0.0468793,-0.0377119
0.0123472,-0.0136319
0.02591,-0.0201529
0.0376729,-0.016521
0.0487771,0.0193957
0.0505677,0.0347025
0.0464092,0.0309223
-0.000947406,0.0302537
-0.0138927,0.0201668
-0.0124742,0.0256004
-0.0182164,0.0270738
-0.032657,0.00047169
-0.0182069,-0.0457045
0.0179833,-0.0526022
0.0445433,0.00441078
0.0272861,0.0334166
-0.0161946,0.0219318
-0.04157,-0.00554369
-0.031586,-0.016083
-0.00439518,0.000450903
0.0122812,0.00589329
0.0199649,0.00225938
0.0181389,-0.0550482
0.00268356,-0.0140318
-0.0207228,0.0309548
0.00242146,0.00274534
-0.0273454,0.00410915
-0.0670491,0.0348407
-0.0293337,0.00796157
0.0216361,-0.0820315
0.0463707,-0.0558044
0.0349762,0.0962541
0.0156357,0.09117
0.00227124,-0.000413366
0.0121003,-0.00553738
0.00202268,0.00238331
-0.0137355,0.0022013
-0.0252287,-0.0167125
-0.0252511,-0.0234726
-0.0174494,-0.0226146
-0.0149215,-0.00368088
-0.0190415,-0.00661384
-0.0237464,-0.0239381
-0.0181501,-0.0127304
0.0113962,0.0287811
0.0271007,0.00375503
0.0123646,-0.0148563
-0.0241818,-0.0129322
-0.016492,-0.0112413
0.0187016,-0.0106053
0.0441407,-0.0198953
0.0453065,0.00293467
0.0218014,0.0462094
0.0129671,0.0443403
-0.00547548,-0.004651
-0.0113463,-0.0274656
-0.00833644,-0.00115684
0.019381,0.00103712
0.0558947,-0.0110611
0.0234364,0.0118011
-0.0164882,0.0477284
-0.0144645,0.0320059
-0.0136071,0.00538612
-0.0430887,-0.018909
-0.0432282,-0.0044542
-0.0048742,0.0049402
0.0056868,-0.00760992
-0.00176838,-0.00751326
-0.00392043,-0.00812376
-0.00943786,-0.0183331
-0.0141023,-0.0332798
-0.00277957,-0.0301292
-1.46e-06,-0.00562172
0.00421041,0.010373
0.00942791,0.0126902
-0.00648222,-0.0707137
-0.0146769,-0.058167
-0.036968,0.0513793
-0.0353156,0.0556865
-0.00594965,0.0219357
0.0115646,0.0307227
0.0253503,0.0477699
0.0314877,0.00672907
0.054742,-0.0156163
0.0600332,-0.0132524
0.00157757,0.00717643
-0.0303514,-0.00943593
-0.0129585,-0.00556016
0.0216328,-0.00636244
0.0269412,-0.0124706
0.0249075,0.0240386
0.0103406,0.0435833
-0.0277763,-0.00729583
-0.0504309,-0.0293894
-0.0321153,0.00815374
0.00345809,0.0261916
0.0211152,0.00989481
0.0309018,-0.047274
0.0403636,-0.0279192
0.0503076,0.00253077
0.0243472,-0.00696051
-0.00755859,0.00957637
-0.0425406,0.0156954
-0.0701553,-0.0168032
-0.082514,-0.0282725
-0.0649275,-0.00482362
-0.0288116,0.015402
0.00816118,0.00758419
0.0374394,0.00407877
0.0439272,0.00619279
0.047185,0.00733951
0.0338145,0.00982687
0.00618241,-0.00421461
-0.0241408,-0.0204678
-0.0316311,-0.0336754
-0.0143281,-0.0620434
0.0252558,-0.0667081
0.0331021,-0.0498447
0.025624,0.0373635
-0.0198665,0.0735529
-0.0437447,0.0787355
-0.036813,0.0484407
-0.0245947,-0.00716976
-0.00368974,-0.015534
0.00689681,-0.0296007
0.0151202,-0.0384282
0.020673,-0.0325455
0.0109781,-0.00239474
-0.00816003,0.0532626
-0.0200364,0.0709889
-0.0382889,0.0610022
-0.0252455,0.0106409
-0.0195387,0.0168341
0.00316744,0.00162035
0.0560033,-0.000599098
0.0569705,-0.000311604
0.0436494,-0.00486559
0.0494081,-0.0139858
0.0288915,-0.0247465
-0.0104169,-0.0118338
-0.00577653,0.0119399
0.0141475,-0.00574817
0.0190014,0.000631166
-0.0137697,0.00560139
-0.0471544,-0.00300477
-0.035404,-0.0106047
-0.00808308,-0.0150058
-0.0148718,-0.0417783
-0.014418,-0.0258546
-0.0107077,-0.0104456
-0.0120453,-0.0131143
-0.0114408,0.00529496
-0.0195137,0.0326577
-0.0148647,0.0292298
0.00501091,0.0033835
0.0299175,-0.00928016
0.0508394,-0.00527264
0.0495443,0.00305518
0.0320354,-0.00709417
-0.00246053,-0.0301214
-0.0361339,0.00611867
-0.0245121,0.00600384
-0.00165098,-0.0693481
-0.00955143,-0.027474
-0.0106614,0.00679746
-0.0108066,0.0114396
-0.0239076,0.0355258
-0.0246756,0.0088596
0.00342956,-0.013918
0.0405146,0.0147769
0.0391364,0.0346557
0.0270348,0.0202434
0.00507035,0.00449928
-0.0385415,0.0091586
-0.0485338,0.052256
0.000837808,0.0166849
0.0425703,-0.0331379
0.0392208,0.00711005
-0.00758515,0.0100038
-0.022032,-0.0316155
-0.00909585,-0.0313047
0.00303943,-0.00814748
-0.00260013,0.0152443
0.00440176,0.0129813
0.0101753,-0.00113122
-0.00151365,-0.000530885
-0.0312003,-0.0220867
-0.0451925,-0.0348985
-0.0326468,-0.0161012
0.00267527,0.000498337
0.0316617,-0.00622565
0.0425113,-0.0390263
0.0488511,-0.0164995
0.0183966,0.0405499
-0.0367256,0.0380774
-0.0683284,0.0302566
-0.0934959,0.0398062
-0.0622284,0.0216905
0.0296203,-0.0327539
0.0955233,-0.0540105
0.0846432,-0.0526413
0.0460102,-0.0308272
0.0229426,0.0681112
-0.00146105,0.0860206
-0.0119693,0.0641484
-0.00775456,-0.015866
0.00305441,-0.0446574
-0.000134291,-0.0211425
-0.00441818,-0.0228396
-0.000558,-0.0150877
0.00391842,0.0233534
-0.023382,0.0221601
-0.0542543,-0.0179219
-0.0408345,-0.0120827
-0.0143015,0.0505389
-0.00253569,0.0332121
0.00718345,0.00348128
0.013868,-0.0350222
0.0122432,-0.0449147
-0.00527453,-0.0382796
-0.0126702,0.0096819
0.00871889,0.0122002
0.0214955,-0.00748605
0.0245033,-0.0272462
0.0210125,-0.00828755
0.0177133,0.0111033
0.00615437,0.0171436
-0.01845,-0.000491491
0.00375565,0.0171318
0.0312719,0.0159169
-0.00722875,-0.0135147
-0.0560071,0.0123669
-0.0397564,0.0332619
0.0375028,-0.00362831
0.0916502,-0.0110785
0.0595337,-0.0267322
-0.0107103,-0.0183545
-0.0501965,-0.0386201
-0.0662358,-0.0222002
-0.0326979,0.0282733
0.0270515,0.035239
0.0373784,-0.0215498
0.0105617,0.0104706
-0.0226571,0.0162988
-0.0383264,-0.0110412
-0.0292808,0.0281264
-0.019442,0.0406905
-0.00698121,-0.0289887
0.011545,-0.0169417
0.015367,0.00630281
0.00505472,0.0247381
-0.0124003,-0.0123383
-0.0323226,-0.00117614
-0.0387268,0.0163201
-0.0200899,0.019987
-6.85e-05,-0.0391732
0.0145246,-0.0270178
0.0313515,0.00610364
0.0444633,-0.0100055
0.0403659,-0.00314381
0.00156945,0.00219806
-0.0144772,-0.0136718
-0.00608095,-0.0254575
-0.00110533,-0.0605292
0.006627,-0.0711422
0.031873,-0.0110029
0.0583985,0.033946
0.0489211,0.0264674
0.0202294,0.0765849
-0.0262654,0.0903918
-0.0491854,-0.0286056
-0.0417069,0.0295689
-0.0545141,0.0404337
-0.0381856,0.00673151
-0.0194416,0.0139552
0.0117521,-0.023976
0.0550808,-0.0172814
0.0695766,0.0327014
0.0333556,0.00563972
0.0180555,-0.0192552
0.0173647,-0.040617
0.000323511,-0.0371167
0.00135908,0.000667773
-0.0363281,-0.000481923
-0.070374,-0.0154145
-0.0435273,0.0335687
-0.0421669,0.0541117
-0.0642096,0.0270893
-0.0292033,-0.0295743
0.0254369,-0.0377251
0.0443689,-0.0191234
0.0387282,-0.0120435
0.0276925,-0.00239019
0.0139158,0.0045096
0.00636807,0.017212
0.000673861,0.0123644
-0.00244012,0.00369691
-0.0105276,0.0136486
-0.018425,-0.00696585
-0.0188057,-0.0418348
-0.0135027,-0.0363907
-0.00422385,-0.0511459
0.00476065,-0.0226815
0.00918895,0.0581647
0.0118994,0.011674
0.0247506,-0.0255237
0.0299868,-0.00454801
0.0242086,0.0374055
0.0106947,0.0567884
-0.00530668,0.0204245
-0.019364,-0.00940017
-0.0249362,0.00586091
0.00167883,0.0010608
0.0367717,-0.00519256
0.0554529,-0.0334884
0.0413272,-0.0177389
0.0190823,0.0332814
-0.019536,0.0574318
-0.074609,-0.0160808
-0.0682386,-0.0420982
-0.0378606,0.00757295
0.00528207,-0.00278166
0.0195142,-0.0109837
0.00967876,-0.00727509
0.0106256,-0.00849082
0.0130012,-0.0119607
0.00794002,-0.00978332
-0.0122962,-0.00192554
-0.0151941,-0.0177361
0.008121,-0.0273556
0.0254515,-0.0138327
0.0334803,0.0217024
0.027548,0.0519249
-0.0117668,0.0759677
-0.05991,0.0284515
-0.0621606,0.00175974
-0.03871,-0.0290922
-0.0170627,-0.0483001
0.0341159,-0.078328
0.062614,-0.0729134
0.0473079,0.018116
0.0202639,0.0238856
-0.00174435,0.00884714
-0.0318904,0.0542126
-0.078875,0.0250853
-0.062763,-0.0258965
0.0111351,0.00726875
0.0746348,0.030667
0.0904972,0.03006
0.0692483,0.0025639
0.0214208,-0.00658862
-0.026372,0.000429761
-0.0612154,0.0361898
-0.066851,-0.00659296
-0.042105,-0.0291971
-0.0285635,-0.0187424
-0.0122296,0.00556442
0.0194806,-0.00097747
0.0389224,-0.00833865
0.0439152,-0.0170561
0.0348159,-0.0165265
0.0285868,0.0168447
0.00718611,0.0213765
-0.0260007,-0.0148281
-0.0680001,-0.00564198
-0.0681006,0.0190468
-0.0311757,0.0733075
0.0250425,0.034417
0.0640131,-0.0667765
0.0785754,-0.0305356
0.0571265,-0.0015632
0.0269097,-0.00396572
-0.0161361,-0.0302721
-0.0529286,-0.0510847
-0.0664118,-0.0596557
-0.0511635,-0.0372394
-0.0352185,0.0170324
-0.045728,0.0340506
-0.00518408,-0.02269
0.0293395,0.0741154
0.0408784,0.115475
0.0604769,0.0252163
0.0356536,-0.00695352
-0.0338258,-0.000504252
-0.0523182,0.00984748
-0.0316977,0.00392798
-0.00598299,-0.006005
0.0306785,-0.019628
0.0540162,-0.0240277
0.0367961,0.0206324
-0.01356,-0.00933205
-0.0322541,-0.0619528
-0.00342383,-0.0816749
0.0173497,-0.00633208
0.00138419,0.0575085
-0.0134444,0.0515877
-0.0151231,0.0154727
-0.00645455,0.00144948
0.0163085,0.0261845
0.0233534,-0.0198846
0.0436196,-0.0468862
0.0728244,0.0174273
0.0634409,0.0783471
6.12e-05,-0.0287418
-0.0380192,-0.048492
-0.0660598,0.00162801
-0.0535215,0.00498659
-0.0638093,-0.0307032
-0.0714584,-0.0278944
-0.0442579,-0.00137792
0.00280685,-0.00945999
0.0431378,-0.0319537
0.0452246,0.0513163
0.00807782,0.062421
-0.0108646,0.0112769
-0.0138112,-0.0246474
0.00394638,-0.0404667
0.0113597,-0.04399
0.00853584,-0.0271066
0.0378132,0.0250362
0.0530689,0.023383
0.0356717,0.0484983
0.0229951,0.0566798
0.0175367,0.00131477
0.0148823,-0.0291035
0.00961806,-0.0158383
0.0208482,0.0172562
0.0108716,-0.00185261
-0.010122,-0.0205785
-0.0355561,0.00222787
-0.0650153,0.00638991
-0.0905783,-0.0162762
-0.0891734,-0.0136971
-0.0312425,0.00678434
0.0125198,-0.0196815
0.00883988,-0.00416653
-0.0438508,0.0143996
-0.0534144,0.0358698
-0.0176454,0.0306294
0.0672807,0.0119144
0.0949281,-0.0299343
0.0628816,0.00206801
0.0270004,0.0249759
0.0372567,0.00644765
0.0519327,-0.0310501
0.035987,0.0259117
0.021411,0.0410537
0.00646619,-0.0227977
-0.000833999,-0.0271557
-0.00528261,0.00554666
-0.0267046,-0.0163191
-0.0593843,-0.0272059
-0.0733328,-0.00439737
-0.0358024,-0.00110844
0.00486213,-0.00354431
-0.016994,-0.00122759
-0.0439689,-5.3e-05
-0.0372279,0.0122438
-0.00405777,0.00327757
0.0330342,-0.00129193
0.0511759,0.00100722
0.0306689,0.00131115
0.0199264,0.00546697
0.0295428,-0.00574684
0.0154648,-0.0352347
0.00961846,-0.0194484
0.0315278,-0.0283714
0.0394658,-0.0376412
0.0145285,-0.0217724
-0.0354184,0.00228415
-0.0858749,0.0108254
-0.0732861,0.0493169
-0.0255187,0.0268157
0.0235102,0.0179527
0.0469936,-0.00650314
0.0283496,0.0075671
-0.00913039,0.0273615
-0.0223871,0.0296597
-0.0413517,0.0330849
-0.0606714,-0.0213549
-0.0511185,-0.0197908
-0.00644545,-0.0164867
0.0424208,-0.0246586
0.0647839,-0.0343621
0.0564852,-0.0101671
0.0389137,0.0335845
0.020706,0.0241806
0.0188019,-0.00380621
0.0231135,0.00523095
0.0225472,0.014334
0.0182192,0.0101018
0.00421819,0.0154898
-0.0250148,-0.0015957
-0.0302733,0.00292558
-0.0300814,-0.00713436
-0.0454219,-0.0100084
-0.0615024,0.00595886
-0.0633135,-0.00830696
-0.0393409,-0.0212334
-0.0109083,-0.00504717
-0.00295316,-0.004385
0.035288,0.0206139
0.0718751,0.0102103
0.0816739,0.00594656
0.058589,-0.00441546
0.0293512,-0.0279119
0.019981,0.0115728
0.0347117,0.0054996
0.0756946,-0.0597972
0.0787855,-0.0515212
0.00444825,-0.0110647
-0.0895414,-0.00180209
-0.130786,-0.00916424
-0.106844,-0.0218991
-0.0656353,0.0104627
-0.0100406,0.040712
0.0384628,0.0361213
0.0132767,0.0844899
-0.0472653,0.0549499
-0.0430754,0.0147063
-0.00137829,0.0391647
0.005294,-0.0243984
0.00683984,-0.0362507
0.00437807,-0.0215404
-0.0142364,-0.0354585
-0.0124384,0.0054572
0.00463583,0.0145494
0.0226282,0.00641359
0.0361273,0.00325006
0.0376599,0.000350428
0.0332461,-0.0104287
0.0149474,-0.0151677
0.00638075,-0.0113294
0.0062188,-0.00178793
0.022996,-0.0142972
0.0494869,-0.0147401
0.0278944,-0.00190205
-0.025956,0.00492373
-0.0453795,-0.002428
-0.0558653,-0.0138964
-0.0552544,-0.0325588
-0.032424,-0.0237649
-0.00189516,0.0194626
0.0146262,0.0158595
0.0198426,0.0456393
0.0258611,0.0301773
0.020345,-0.0123582
0.0160207,-0.0264526
-0.00395782,-0.0188779
-0.00112116,0.0201703
0.031224,-0.00690713
0.0399015,-0.021337
0.0187904,0.034942
-0.02464,0.024673
-0.0276004,-0.00961196
-0.0185011,-0.0106893
-0.0229985,0.00471553
-0.0340333,0.0143829
-0.0274379,0.0338745
-0.00763572,0.0224474
0.0026586,-0.0288435
0.0017735,-0.0301383
0.00760064,0.0019698
0.0184868,-0.0174416
0.032849,-0.0196755
0.0398614,-0.0233062
0.0462867,-0.0141667
0.0242022,0.0236095
0.0210358,0.0181811
0.00253446,0.00436153
-0.0336021,0.0345065
-0.0543599,0.0357064
-0.0855546,0.00881323
-0.0631512,-0.0184174
0.00123294,-0.0115835
0.0466305,-0.0158671
0.0485754,-0.0315664
0.0271628,-0.00796242
0.00445237,0.00189353
-0.0100642,0.00644401
-0.0193897,0.0244934
-0.0409115,0.0353431
-0.0536559,-0.0207265
-0.02693,-0.0344541
0.0204683,-0.0538509
0.0769533,-0.0536044
0.112804,0.00172629
0.0929275,0.0023575
0.0185152,4.94e-05
-0.0481498,0.0196277
-0.0836081,0.00518168
-0.0742429,-0.010775
-0.0335727,0.0460212
-0.00990333,0.0567772
-0.00810596,0.00183726
0.00279946,0.0315211
0.0575468,0.0273609
0.0864129,0.00266139
0.0768403,-0.0057285
0.0554099,-0.0158676
0.0214712,0.000601353
-0.00530406,0.0217362
-0.0469385,0.0183414
-0.0862144,-0.0287308
-0.0823948,-0.031085
-0.0414921,0.00413223
-0.0170271,0.00718217
-0.0146163,-0.0160999
-0.0136751,-0.00478056
-0.0167895,0.0227662
-0.0103796,-0.00141562
0.00767326,-0.0110558
0.0197167,-0.00235094
0.0127125,0.00782197
0.00666609,-0.0189207
-0.00117247,-0.0481975
-0.00975552,-0.00688539
0.0138412,0.0042756
0.0348646,-0.0251975
0.0124304,-0.0198422
0.00577353,-0.0114341
-0.00261274,-0.0269548
-0.000112474,-0.0211122
-0.0198509,0.0016969
-0.0143693,0.0588876
0.00881483,0.045405
0.00866765,0.0263998
-0.0171289,0.0203854
-0.0106659,0.0174478
0.0124757,0.00884064
0.0223921,-0.01411
0.00699608,-0.0114806
0.00573998,0.0274397
-0.000426205,0.0143301
-0.00580411,-0.00455182
-0.00250069,-0.00668115
0.00224738,-0.0103399
0.0129658,0.000861807
0.0217496,0.00490432
0.0176978,0.00262885
0.0126141,-0.00653162
0.0179118,-0.0157848
0.00877225,-0.0141237
-0.0122492,-0.00808401
-0.0283534,0.00689583
-0.0379752,0.00456184
-0.0349411,-0.0218624
-0.0174567,-0.0146524
-0.00594288,-0.0195282
0.00571679,-0.0238439
0.018644,-0.0125547
0.0290858,-0.0356257
0.022516,0.0233535
0.00416997,0.0453731
-0.00562784,0.0313093
-0.0331511,0.0112717
-0.0615669,0.019771
-0.0501766,0.0147227
0.0122721,-0.010933
0.0842215,-0.00537106
0.0870144,-0.0113778
0.0305766,0.0369875
-0.0182312,0.0191065
-0.044483,-0.0182911
-0.051303,-0.0346324
-0.0412852,-0.0643434
-0.0217252,-0.00510078
0.00452031,0.0375669
0.0339721,-0.00242748
0.0353437,0.0184402
0.0243458,0.0454856
0.00458879,-0.0184585
0.0041331,-0.0419347
0.0176902,-0.0361955
0.0238006,-0.00672562
0.0281375,0.0179431
0.0174472,0.0319399
-0.0124752,0.036332
-0.0445671,0.0217296
-0.0534738,0.00421737
-0.044429,0.00277683
-0.0346671,0.00140725
-0.00641923,-0.0204036
0.0351981,-0.0134685
0.0464066,0.014739
0.0298586,0.0323965
0.00757975,-0.0112709
-0.0019203,-0.0138675
-0.0215411,-0.0152558
-0.0197431,-0.0189749
0.0135587,-0.0432282
0.0294163,-0.00643654
0.00533717,0.0242891
-0.013526,-0.00217391
-0.00074162,-0.0128173
0.0215478,-0.0137187
0.0228817,0.00079298
-0.00202879,0.0622195
-0.0436285,0.0174837
-0.0518527,-0.0105693
-0.0133164,-0.00297397
0.0219159,0.0119409
0.0378419,0.0193932
0.00422374,-0.00541228
-0.0257642,-0.0134826
-0.0313819,-0.000433008
-0.0285822,0.0449485
-0.00407416,-0.0066199
0.00996268,-0.0214109
0.0246477,-0.0400337
0.0397461,-0.0431814
0.0291772,-0.0359306
0.0107646,0.00247035
-0.0103509,0.0106459
-0.0181135,-0.00926864
-0.0113348,-0.0183429
-0.00077622,-0.0153615
0.00249095,0.0339582
-0.00133258,0.0542741
-0.0199214,0.0298332
-0.0325595,0.0170212
-0.030629,0.00991575
-0.0198,0.000923118
0.00129409,-0.00694329
0.0315408,-0.0116926
0.0238705,-0.0185441
0.022115,-0.00479896
0.0347032,0.00741172
0.0175299,-0.0203241
0.0124753,-0.027446
0.0321555,-0.0058942
0.0351315,0.0256515
0.0134462,0.0365351
-0.00519282,0.053233
-0.0285257,0.018913
-0.0709005,0.00105862
-0.0681477,-0.0389572
-0.0454849,-0.0415463
-0.038726,-0.000773911
-0.0143155,-0.0106217
0.0482311,-0.00688365
0.0871356,-0.0120682
0.0825512,-0.0231696
0.0610096,0.00465754
0.016599,0.0125791
-0.023648,0.0146584
-0.0562315,0.0195975
-0.052799,0.0275667
-0.0371795,-0.00102492
-0.0150171,-0.0331672
0.00204164,0.00954803
0.000605091,0.00418346
-0.00369401,-0.00973945
-0.00204205,0.0133973
0.0047782,-0.000101977
0.0134415,0.0124701
0.0131796,-0.00325188
0.00625737,0.00213374
0.00294562,-0.00177182
0.0121699,-0.0151511
-0.00963099,-0.00252769
-0.0305405,0.00984374
-0.0211214,-0.0417592
-0.0185022,-0.0756008
-0.0204529,-0.0527428
-0.0101141,0.0467099
0.00616498,0.057439
0.00705937,-0.0157806
-0.0150466,-0.0296035
-0.0171995,0.00741959
0.0139711,0.00799346
0.11299,0.0126433
0.0597317,0.0269928
0.0387568,0.0375367
0.0540355,0.0485152
-0.0112134,0.050334
-0.0647457,0.040773
-0.0751718,-0.0353974
-0.0668791,-0.00593152
-0.0392842,0.00155385
0.0130894,-0.0300137
0.0506048,-0.0277231
0.0710598,0.00301361
0.0672342,-0.0110439
0.0390718,-0.0292707
0.00112013,-0.0155686
-0.0476135,0.00565446
-0.0804454,-0.00920012
-0.0797111,-0.0137051
-0.0116078,-0.0190253
0.0448417,-0.0114712
0.0567682,0.00163277
0.0402744,0.0315008
-0.00366937,0.0298573
-0.0350337,-0.0105713
-0.0401409,-0.0187214
-0.0429225,0.0283277
-0.0250387,0.0426452
-0.0018652,-0.00833915
0.022261,-0.0197217
0.0437786,-0.0235975
0.0481657,-0.0246475
0.0177556,-0.0146653
-0.0325162,-0.0363346
-0.0404681,-0.0330312
-0.0291616,0.0242388
-0.0164373,0.0394408
-0.000366722,-0.00238999
-0.00214036,0.0365117
0.0167318,0.0390371
0.0500412,0.0175552
0.0569277,0.00983717
0.0511235,0.0453412
0.0368486,0.00797408
-0.0122654,-0.0335582
-0.0533583,-0.013888
-0.0964118,-0.0438034
-0.105735,-0.0367812
-0.0580369,-0.0110284
0.0181962,0.0180201
0.0605899,0.0117836
0.0473302,0.00326556
0.0351786,0.00365156
0.0245901,0.0152167
0.00963337,-0.00428359
-0.00689423,0.00588056
-0.0127107,0.0178412
-0.00821598,-0.00552905
-0.00653893,-0.0134024
0.0110014,0.0101979
0.0245649,0.00263709
0.0246418,-0.0136241
0.0339191,-0.0125958
0.0257408,-0.028313
0.0101537,-0.0278568
-0.00573474,0.0018815
-0.00697288,0.0343991
-0.0072125,0.0442925
-0.0223643,-0.0239463
-0.0761602,-0.0335919
-0.128142,-0.0285866
-0.0808471,-0.029977
0.0192956,0.0298627
0.0530724,0.0173956
0.0487938,0.0358024
0.0547956,0.0393434
0.0424805,0.0029724
0.0228355,-0.00952918
0.0186468,0.0124976
0.0277704,0.0178277
0.0342425,-0.0114174
0.0230327,-0.0185457
0.00993658,-0.00721031
-0.00162017,0.0155367
-0.0292754,-0.0139311
-0.0351788,-0.0268421
-0.0427385,-0.0200467
-0.0474665,-0.0111911
-0.0270063,-0.00641853
-0.0182684,0.0201978
-0.0258134,0.0196022
-0.0348734,0.0193466
-0.0404488,0.0149026
-0.0401424,-0.00424934
-0.00244529,-0.00596026
0.0438831,-0.0116328
0.0563531,-0.012169
0.0662795,0.0023901
0.0551024,0.0163682
0.0507564,0.00619757
0.0531427,-0.0280836
0.0124372,-0.0805006
-0.0255297,-0.0698133
-0.0289599,0.0718764
0.00697489,0.085364
0.0151058,-0.00594713
-0.0160889,-0.0129269
-0.00500216,0.00497918
0.0214296,-0.00857967
-9.44e-05,0.00985294
-0.0372986,0.036163
-0.0457082,-0.0210026
-0.00647544,-0.0244785
-0.00216981,-0.0137485
-0.0110726,-0.00964855
-0.0210338,-0.017613
-0.0253082,0.0206242
-0.0129722,0.0381335
0.00273447,0.0319526
0.0143959,0.0113963
0.006189,-0.00476233
-0.00709786,-0.0203381
-0.0137946,-0.0146435
0.00176398,0.0219214
0.0291516,0.0344245
0.0255161,0.0168148
-0.00677732,-0.0109513
-0.0157357,-0.023502
-0.00540947,-0.0139885
0.00362096,-0.00505366
0.013723,0.00390789
0.0138694,-0.00286186
0.0102991,-0.00122748
0.000135256,-0.0131564
-0.0188516,-0.0113494
-0.0166439,-0.00490119
-0.00149971,-0.0405668
0.00340973,-0.0149411
0.00305305,0.0121983
-0.00191131,0.0456611
-0.00108568,0.0479525
-0.00243922,-0.00975947
0.00288732,-0.0242676
0.00423518,0.0169671
-0.0102403,0.0089068
-0.0276759,-0.0139225
-0.0261722,0.00271352
0.0523399,0.0236147
0.10518,0.0445548
0.0675569,-0.0362885
-0.0108977,-0.0535239
-0.0700279,-0.0220192
-0.0644191,-0.0422128
-0.0117785,-0.0166697
0.0116598,0.0165328
0.00554071,0.0126073
0.0222969,0.0349822
0.0335285,0.0325837
-0.00642425,0.00318423
-0.0529689,-0.00165073
-0.0482213,-0.0218548
-0.0122233,-0.0462529
0.0264381,0.0165786
0.0264084,0.0243692
-0.00101937,-0.012059
-0.00131205,0.0133062
0.00540807,0.00572729
0.0281258,0.00602425
0.0455295,0.012271
0.0314047,0.00379872
0.0109613,-0.0106989
0.0117132,-0.00640144
-0.0186623,0.00568005
-0.0495366,0.014721
-0.0296559,0.0124393
-0.013961,0.0107079
-0.0312989,-0.0109895
-0.0468744,-0.0239571
-0.0258984,-0.013122
0.0052573,-0.0203112
0.0144028,-0.0378789
-0.00800198,-0.0505016
0.00417218,-0.00105384
-0.00531405,0.0375973
0.00461439,-0.00289671
0.0271431,0.00938893
0.0331792,-0.0275711
0.0638166,0.00466578
0.0621264,0.00642072
0.045581,0.0326391
-0.0150593,0.0529286
-0.0477346,0.063663
-0.0438086,0.0238581
-0.0428175,-0.0423894
-0.0600882,-0.00233154
-0.0381129,0.0353071
-0.00800669,0.0165331
0.00420179,-0.0248349
0.0240438,0.00675953
0.0580211,0.0199204
0.0857504,-0.0134509
0.062368,-0.0401126
0.00151743,-0.00908204
-0.0603488,0.00505402
-0.0893373,-0.0309876
-0.0385993,-0.00305717
0.0167177,0.0492615
-0.00162255,0.0167369
-0.0139203,-0.0388722
0.0165279,-0.0232513
0.0244707,-0.00210647
0.00809724,-0.0175251
0.023362,-0.0167416
0.011927,0.0267263
-0.0385184,-0.0139919
-0.0478741,-0.0244871
-0.0258234,-0.0220746
-0.00560107,-0.0587918
-0.0155396,-0.0447631
-0.0007596,0.00907947
0.0197495,0.044501
0.00572308,0.0703555
-0.0158615,0.0201849
0.00680758,0.0122149
0.0362526,0.0265243
0.0464038,0.015789
0.0420636,0.0089204
0.0363854,0.00894136
0.0624889,-0.0470139
0.0828668,-0.0168499
0.041375,-0.00889594
-0.0214137,0.0170218
-0.065806,0.0793421
-0.0862988,0.0268301
-0.0850606,-0.0133891
-0.0691067,-0.0108911
-0.0153436,-0.0156665
0.0192566,-0.0299425
0.0092194,-0.0214781
0.00100684,-0.00693734
0.00319667,-0.00715731
0.00830193,0.0105856
0.00755989,-0.00212566
-0.00296947,-0.0313735
-0.0170717,-0.0559974
-0.0238511,-0.0119684
-0.00611374,0.0355859
0.034931,0.0365886
0.0403406,0.049273
0.0200063,-0.00568983
0.0260828,-0.0632476
0.0147338,-0.0300074
-0.00276191,-0.00855971
0.0301002,0.00983785
0.046041,0.0140212
0.0209902,0.00523995
-0.030573,-0.000153811
-0.0500834,0.0100243
-0.0693363,0.0426389
-0.0381829,0.0133096
-0.000761412,0.0194467
0.0171658,0.0372907
0.0144602,-0.0411838
0.0209319,-0.0255563
0.0232698,0.00904053
-0.000256963,0.0123896
-0.0221728,-0.00467649
-0.0351225,-0.025149
-0.0474055,-0.0104336
-0.0519703,0.0127006
-0.0176649,0.0289375
0.0236637,-0.016131
0.0289743,-0.0446294
0.014892,0.0112866
-0.00180226,0.0139213
0.00413597,-0.00382607
0.0236448,-0.0203688
0.0250334,-0.00563331
0.0161262,0.00368473
0.00880047,0.00891773
0.0223443,0.018743
0.0205819,0.0405502
-0.00113313,0.0402867
-0.0158615,-0.0115914
-0.0266458,-0.0365276
-0.0254077,-0.0335196
0.00459523,-0.00361991
0.0327146,0.0748183
0.0286764,0.0492447
0.0103578,-0.0351832
-0.0119318,-0.0341331
-0.0383822,-0.019403
-0.0556706,-0.00115194
-0.0542522,-0.0218567
-0.019034,-0.00635425
0.0341059,-0.0102765
0.0955549,-0.0302504
0.123297,-0.0416126
0.0574933,0.0254377
-0.0368256,0.0273159
-0.0558257,0.0717454
-0.020493,0.0454076
0.022098,-0.0158412
0.0381086,-0.0288492
0.0241911,-0.0263769
-0.00947147,-0.0157375
-0.0412512,0.0137583
-0.0717174,0.0262536
-0.0760296,0.00243568
-0.0547283,-0.0409459
-0.00488078,-0.0151728
0.0317258,0.00198944
0.0273213,-0.0149457
-6.85e-05,-0.00354636
-0.0160234,0.0264876
-0.00578201,0.0248322
0.0129969,0.0109139
0.0243876,0.00817729
0.00433778,-0.007655
0.0258884,-0.0514369
0.0217391,-0.0581384
-0.00945108,-0.0333092
-0.00363709,0.0110445
0.00284777,0.0673622
-0.00526693,0.0234633
-0.0130027,-0.00518896
0.00181842,0.00709173
-0.00814295,-0.00654128
-0.0351312,-0.0269969
-0.0405572,0.00865868
-0.0217786,0.0295058
-0.0170166,0.0303174
-0.0047017,0.00818328
0.029911,-0.0218965
0.0502217,-0.0285822
0.0252925,0.0132479
-0.029386,0.0261096
-0.00964589,9.89e-05
0.0244438,-0.036829
0.0133322,0.0121355
0.0159736,-0.00115439
0.029713,-0.0192335
0.0234682,-0.0215718
0.0160573,-0.0266503
0.0049649,-0.0012288
-0.00676191,0.0198325
0.00362595,0.0323762
-0.0111528,0.0382047
-0.0210762,0.0423558
0.00257385,0.0306738
0.0376371,0.0014239
0.0331223,-0.0192048
0.0326142,-0.0620028
0.0212852,-0.000331342
-0.000890241,-0.00417915
-0.0271596,-0.00383859
-0.022155,-0.000331067
-0.0231506,-0.00041764
-0.0402718,-0.00380387
-0.0432422,0.00201657
-0.021625,-0.00102231
-0.00613827,0.00663973
-0.00859429,0.00768889
0.00207865,-0.00475875
-0.00740844,-0.00735017
-0.0390046,-0.0173045
-0.0394101,0.00154305
0.0112107,-0.00250767
0.0732573,-0.0400619
0.104133,0.0143755
0.086228,0.0654814
0.0231855,0.00731097
-0.0585027,-0.0487646
-0.129851,-0.0391888
-0.115917,-0.014887
-0.0870032,-0.0016489
-0.106961,0.0189275
-0.0814366,0.0313566
0.0370473,0.0147233
0.133669,-0.00442398
0.138185,0.0087831
0.0780651,-0.00176382
0.0270756,0.00955276
0.0123314,0.0358793
0.014639,0.00508481
0.014463,0.0109989
0.0132327,-0.00561113
0.016146,-0.0222609
0.0127834,-0.0432111
-0.00218659,0.00948382
0.000745892,-0.0124777
0.0441898,-0.000764353
0.0673113,0.0259428
0.0522633,0.0238167
0.0193031,-0.00610439
-0.0148847,-0.00546
-0.0531613,-0.00150406
-0.0739847,-0.0112816
-0.0790334,-0.0120951
-0.0671928,0.0041488
-0.0801624,0.0229749
-0.0702895,0.0228168
-0.0206157,0.00111453
0.00143741,-0.0226745
-0.00155177,-0.0340228
0.00851664,-0.0161425
0.0121196,-0.0011915
0.0246106,0.0182855
0.0533327,0.032905
0.0935756,0.00716535
0.122632,0.0132243
0.0701929,0.00628696
-0.029338,-0.0222666
-0.0999288,-0.021915
-0.0880235,-0.0262614
-0.0515636,-0.0211614
-0.0270547,0.00452433
-0.00587494,0.0303791
0.013258,0.00714232
0.0298454,-0.00675283
0.0698026,0.00607691
0.0790875,-0.0242094
0.0453274,-0.0114359
-0.0128299,0.00440142
-0.0458177,0.00761532
-0.058866,0.00717998
-0.0335268,-0.00122124
-0.0115403,-0.00522
0.00249665,-0.00381055
0.00814175,0.00140231
-0.0136051,0.00380317
-0.0397629,0.00726981
-0.0410188,0.00881779
-0.0209716,0.0054631
-0.00656232,0.00830918
0.0149638,0.00670213
0.0401506,-0.00369769
0.0365651,0.00290968
0.0134108,-0.01086
-0.00599138,0.00889489
0.00378917,0.0448475
0.0241536,0.0475039
0.0519849,0.00159807
0.0711564,-0.0524442
0.0403239,-0.0424129
-0.026271,-0.0534904
-0.0746328,-0.055581
-0.0742929,0.0152286
-0.0300249,0.0410572
-0.00493101,0.0212194
0.0226685,0.00704974
0.05298,-0.0072409
0.0468628,-0.0191096
0.0175232,0.0363935
-0.00116552,0.0183668
-0.00304095,-0.000262579
-0.0097745,0.00569258
-0.0170596,0.00943657
-0.0280214,-0.00310474
-0.0327459,0.000973011
-0.0279771,-0.0107998
-0.00712872,-0.0134023
0.00307328,-0.0182595
-0.00049274,-0.022677
-0.00588631,0.00613174
-0.00686573,-0.00428823
0.00428975,0.0202386
0.0199154,0.0109852
0.0446016,-0.00266455
0.0611295,0.0159559
0.0378073,0.0211599
-0.0124515,-0.0164198
-0.0370666,-0.00108112
-0.0320839,0.0127173
-0.00816215,-0.00307805
-0.00862973,-0.0102998
-0.0179021,-0.0166076
-0.0217663,-0.0113289
-0.0178104,0.00505626
-0.0169497,0.0486495
-0.0182977,0.00236904
0.0151486,-0.0217964
0.0391145,0.0267436
0.0216233,0.0128195
-0.00292452,-0.0271254
-0.00861835,-0.0103321
-0.0141923,0.00419548
-0.012453,0.00451645
0.000733067,-0.0206177
0.0215576,-0.00211859
0.0351259,0.0249256
0.027967,0.0107566
0.0448232,-0.0126911
0.0372628,-0.0493929
-0.0193646,-0.0229899
-0.0432716,0.000150328
-0.0434627,-0.00698379
-0.055099,-0.000767479
-0.0772088,0.00811293
-0.0507269,0.00987818
0.0261073,0.0124957
0.0497771,0.0052388
0.0334439,-0.0180509
0.023504,-0.0147899
0.0231457,-0.00812768
0.0205722,-0.00937137
0.022815,0.0299748
-0.000938875,0.0508373
-0.0228479,-0.00510955
-0.0188525,-0.000121459
-0.00269719,-0.0122111
0.0111979,-0.0073083
0.0190245,0.00317064
0.015901,0.00341188
0.00922172,-0.0143005
0.000304568,-0.0148383
-0.0035154,0.0293848
-0.00175973,0.0175892
-0.00825967,0.00203304
-0.0210988,-0.00415302
-0.0238156,-0.00740578
-0.0316979,-0.00998857
-0.0393165,-0.00582218
-0.0464417,-0.00107706
-0.0372013,0.00357027
-0.00859283,0.00745143
0.0251743,0.00821073
0.0441106,0.00480173
0.0436009,0.00423996
0.0418884,-0.0153208
0.0468351,-0.00234646
0.0360627,0.0348493
0.00377474,0.0227064
-0.0127834,-0.000984951
-0.0141315,-0.00380772
-0.00783777,-0.00764385
0.00955539,-0.0191666
0.0220294,-0.0200556
0.0406573,-0.00297381
0.0325321,-0.00118028
0.00189097,-0.000240983
-0.0322198,0.00192488
-0.0869596,-0.00477815
-0.11726,-0.0216693
-0.0331083,-0.0251985
0.053092,0.0184766
0.0622619,0.0079267
0.0423078,-0.00542644
0.0214377,0.0140603
0.00380317,0.0326935
-0.0133419,-0.00331033
-0.0180574,-0.00758526
-0.0131125,0.00588309
-0.00362914,-0.000752243
0.0034976,-0.00456816
0.00553066,0.00718272
0.0055337,0.0294702
0.00618027,0.0046088
0.00635454,-0.0262751
0.00820199,-0.0104048
0.0052766,-0.00463211
-0.00459929,-0.00693318
-0.0117072,-0.00473983
-0.0182858,-4.56e-05
-0.0221724,0.00914952
-0.0299179,0.0147706
-0.0290106,-0.00910466
-0.0176593,-0.0157481
-0.00740304,-0.016069
0.00022159,-0.0142465
0.0124586,-0.0101032
0.0255383,-0.00719862
0.0359626,0.0029747
0.0329727,0.013804
0.0264029,0.0157085
0.0180569,0.0124396
0.0110061,0.00850166
-0.00529615,0.00347006
-0.0363508,-0.0025998
-0.0526206,-0.00212939
-0.0407801,-0.00205236
-0.0229754,0.00352894
-0.0133089,0.0148163
-0.00328614,0.00636853
0.0114412,-0.00569232
0.0175277,-0.00985095
0.0131005,-0.0126569
0.00735919,-0.0139142
0.0132282,-0.00854509
0.0183289,-0.00335361
0.0209827,0.00461896
0.0244062,0.0113547
0.0228896,0.00855868
0.0144383,0.00687756
0.00637469,0.000853768
0.00334385,-0.00713927
0.000783501,-0.0066059
-0.00420354,-0.00316381
-0.00825191,0.00172652
-0.00520066,0.00540632
0.00235389,0.000832467
-0.000115738,0.00158173
-0.0110789,0.00310775
-0.0100479,0.000605548
-0.000776903,0.00165007
0.00747017,0.00980534
-0.000751387,0.0171356
-0.00542118,0.0149718
-0.0031435,0.0121084
-0.00757713,0.00822058
-0.0105645,-0.000117105
-0.00517532,-0.0104388
-0.00110842,-0.00790113
0.000584334,-0.00855123
0.00298504,-0.00954534
-0.0033702,-0.00735235
-0.0104926,-0.00852857
-0.00736585,-0.00858352
-0.00751827,-0.00622116
-0.00654051,-0.00288417
-0.00542455,-0.00708677
-0.0106039,-0.00755549
-0.0163807,0.00119715
-0.0173099,0.00927179
-0.0112386,0.00533368
0.00245768,0.00110936
0.0453205,-0.0058942
0.0630993,-0.00794536
0.0315691,-0.00701559
-0.0077318,-0.00208878
-0.0313144,0.00107956
-0.0250396,0.0072209
0.00236908,0.0118391
0.0123329,0.00815498
0.00830977,0.004402
0.000580308,0.00184283
-0.00347835,-0.00228612
-0.00679424,-0.00582563
-0.0126411,-0.00466484
-0.0147175,0.00435572
-0.0108637,0.00607325
4.43e-05,-0.00174021
0.0073478,-0.00299733
0.0102936,-0.00388482
0.013105,-0.00666087
0.0152542,-0.00576777
0.0159936,-0.00259481
0.0146191,-0.00145021
0.00391572,0.00649437
-0.0120658,0.0104793
-0.0192691,0.00451811
-0.0201438,0.00028202
-0.0161387,-0.000507556
0.00419423,-0.00385571
0.0307147,-0.00442708
0.0325355,-0.000293737
0.0111455,0.00700608
-0.0168499,0.00732876
-0.0333773,0.00154699
-0.0410969,0.000562323
-0.0274727,-0.00149641
0.00201237,-0.00438831
0.0188173,-0.00428873
0.0252632,-0.00288461
0.0230012,0.000982697
0.00938958,0.00613519
-0.000856932,0.00673436
-0.0039942,0.00290876
0.00719865,0.00113767
0.0219667,0.00162596
0.0129082,0.000848662
-0.00212029,0.00142744
0.00226515,0.00658637
-0.00105625,0.0105943
-0.0257506,0.00522208
-0.0301749,-7.37e-05
-0.023717,-0.00412022
-0.0211781,-0.00847949
0.00134495,-0.00525752
0.0203649,-0.00240235
0.0363659,-0.00359021
0.0392048,7.86e-05
0.0367554,0.00206211
0.0267518,-0.00689347
0.00501298,-0.0131973
-0.0182285,-0.0151028
-0.0635587,-0.00988619
-0.0864743,-0.00444353
-0.0742131,-0.00448133
-0.0364026,0.00384061
0.0225709,0.00750697
0.0237906,0.00636314
-0.0321464,0.00543391
-0.0222106,-0.000297569
0.0523126,-0.00486277
0.114909,0.0032026
0.135747,0.0130262
0.105519,0.0160829
0.0387235,0.0128152
-0.0904891,0.0116884
