Comp Ch 3,Comp Ch 4
0.0175341,0.073172
-0.0021418,0.0365634
0.00462017,0.0336717
-0.00169103,0.0114665
-0.038421,-0.0162164
-0.0650684,-0.0147206
-0.0605563,-0.013806
-0.0325265,-0.00959551
-0.00843947,-0.00161105
-0.000322957,0.00904136
-0.00329948,-0.00297092
0.0366969,0.0233216
0.0602998,0.0252017
0.0320459,0.00688197
-0.0311663,0.00501
-0.0605724,-0.0251311
-0.0568956,-0.10483
-0.0398265,-0.0769606
0.0510015,-0.0246305
0.124118,-0.028135
0.107752,-0.0932139
0.0630896,-0.0570888
0.0391955,-0.0421774
0.0103902,0.0397254
-0.00775057,0.117067
0.00318354,0.142233
0.0401138,0.063167
0.00950115,0.0203285
-0.0590686,-0.0633359
-0.104322,-0.108445
-0.109703,-0.0253956
-0.0815471,-0.0486592
-0.0503172,0.0216824
-0.0482814,0.0353473
-0.0381054,-0.0181426
0.108923,-0.0830838
0.183602,-0.0181748
0.139504,0.0951648
0.0863611,0.105034
0.0422817,0.103911
-0.0185777,0.0295124
-0.0962858,0.0521219
-0.133609,0.0752334
-0.115359,0.025499
-0.0171593,0.0152763
0.00480252,-0.0350827
-0.0413161,-0.0242436
-0.0988836,0.0433012
0.0108004,-0.0257626
0.158033,0.0296145
0.0866773,0.0123678
-0.00296272,-0.0778426
-0.00602531,-0.10744
0.0739847,-0.0484806
0.0997876,0.0359054
-0.112329,0.00573295
-0.203033,-0.14806
-0.101664,-0.248694
0.00802255,-0.170465
0.00411268,-0.177614
-0.0083801,0.00822025
0.0269844,-0.017225
0.0568741,-0.0206944
0.0676472,0.125889
0.0396281,0.239443
0.0208775,0.176894
0.0292767,0.188267
0.0225719,0.0803862
-0.00656494,-0.0469928
-0.0262803,-0.0089006
0.0169642,0.0444316
0.0910445,0.0195313
0.0955146,0.0752805
0.0577776,0.0500037
0.00199483,0.11089
-0.0592357,-0.0187055
-0.0521901,-0.0575505
-0.0276749,-0.0279479
-0.0568489,-0.0273006
-0.0865486,-0.0245659
-0.121063,-0.00959012
-0.119002,-0.038626
-0.0112003,-0.078608
0.102906,-0.0489158
0.169294,-0.0118736
0.163365,-0.0321292
0.0805008,-0.0507228
-0.0942555,-0.0462606
-0.162082,0.027572
-0.188552,0.033572
-0.118494,0.0159891
-0.0393674,-0.0140103
0.0672306,-0.00286373
0.222823,0.0127296
0.352152,0.0401794
0.312165,0.0399323
0.0706794,0.028584
-0.301267,-0.00994689
-0.421564,-0.0347103
-0.227838,-0.0264113
-0.0164083,-0.0144783
0.128705,-0.0168819
0.136689,-0.00148119
0.0657459,-0.00980705
0.00862357,0.00400667
-0.0547944,-0.00201421
-0.0794019,-0.0248668
-0.0919521,-0.0063468
-0.0888436,-0.00463845
-0.0485523,0.016405
-0.000926569,-0.00841225
0.0902558,0.000105777
0.164696,0.00956101
0.0881526,0.0245625
0.0725062,0.0830251
-0.027099,-0.0058978
-0.129572,-0.0787107
-0.0682499,-0.026395
0.0367694,0.00582882
0.0574902,0.0478736
-0.00785327,-0.000549688
-0.107704,0.0361555
-0.138428,0.0362685
0.0170001,0.00644922
0.252154,-0.037712
0.290394,-0.0781917
0.19075,-0.047637
-0.0016578,0.0552992
-0.22345,0.0455928
-0.254027,0.0300718
-0.153065,0.00229954
-0.0521152,-0.0281319
0.101823,0.00998334
0.276315,0.0234053
0.243271,-0.00387943
0.123871,-0.0233209
0.00783204,-0.0281353
-0.20293,0.022879
-0.176448,0.0691718
0.0121643,-0.0486603
0.0321976,-0.0114521
0.0181144,0.00564684
-0.01102,0.000877839
-0.120816,-0.0179199
-0.156009,-0.0183421
-0.16039,0.00269467
-0.187688,0.00382313
-0.121626,-0.00267812
-0.0231266,-0.0321073
0.0681795,-0.0248999
0.1191,-0.00668589
0.130364,0.0133272
0.1059,0.0333276
0.0280995,0.0178274
-0.0676284,0.022253
-0.116113,0.0186398
-0.0984817,-0.0362502
0.00736692,-0.00766259
0.119907,0.0510621
0.185848,-0.00522567
0.281137,-0.0340121
0.262849,0.0242147
0.114797,-0.0137617
-0.0152982,-0.0965355
-0.17536,-0.133296
-0.0696122,-0.0250976
0.0359285,0.0485609
-0.0357803,0.0880324
-0.143214,-0.0891478
-0.149736,-0.0460662
-0.129473,0.193875
-0.11869,0.0609455
-0.113289,0.0392381
-0.0525227,0.0336907
0.0241924,-0.0340581
0.0812137,-0.0375678
0.104228,-0.0685839
0.0899912,-0.10579
0.0814126,-0.0322626
0.0674841,0.0321471
0.123181,0.0241613
0.251713,0.0399694
0.171169,0.0574976
-0.0821236,0.0673857
-0.248492,0.0759666
-0.221157,0.0292425
-0.109071,-0.000412097
0.011848,-0.0143752
0.0333566,-0.0256578
-0.050932,-0.0259698
-0.153043,-0.00287191
-0.150915,0.0515508
-0.0182824,0.0246813
0.148964,-0.0165231
0.207345,0.0251012
0.0819718,-0.0623177
-0.0161459,-0.0533464
-0.0731632,-0.0119565
-0.09294,-0.0402223
-0.061847,-0.0458799
-0.0304834,0.00216362
0.0256034,-0.0724309
0.0965897,-0.0493468
0.12101,0.0107509
0.110367,0.054025
0.0358739,0.00111657
-0.0348758,-0.0220632
-0.0788912,0.105213
-0.0383852,0.102522
-0.00583054,0.0492771
-0.0358528,0.020743
-0.0669916,-0.0204958
-0.0759424,-0.0118725
-0.0469695,-0.0110467
0.0392227,-0.0378093
0.126063,-0.0177653
0.109084,-0.00282209
0.0408821,-0.0633905
-0.0779534,-0.0388058
-0.0433079,-0.0531029
0.07368,0.075138
0.109419,0.0776085
0.0290949,0.0358915
-0.0438666,-0.0141529
-0.082452,8.93e-05
-0.0575488,0.0110591
0.0111844,-0.040633
-0.00286581,-0.0714046
0.00387706,0.00457566
0.0326811,-0.000486678
-0.0149234,0.0156412
-0.0615298,0.00655251
-0.0465278,0.0320868
-0.028904,0.02437
-0.000429869,0.0289292
0.036974,0.0357044
0.0705814,-0.0653533
0.0497998,-0.0385075
0.0445984,0.0386993
-0.00573501,-0.0154288
-0.0821225,0.0114564
-0.0971105,0.00995079
-0.0643576,-0.0565727
0.0563782,-0.0401666
0.0697078,0.0277948
0.0173612,0.0216052
0.0423594,0.0276844
0.0474933,-0.0132766
-0.0347883,-0.0614516
-0.089507,0.00749711
-0.0397427,0.00521078
0.032401,0.0143078
0.0323897,-0.033061
-0.0285289,-0.0313739
-0.0459641,-0.062503
0.0322565,-0.0221822
0.101738,0.0316854
0.0790258,0.0102829
0.0150365,-0.015298
-0.0554059,0.0431936
-0.0686926,0.0793799
-0.0518226,0.000741134
-0.0229297,0.0290503
-0.0202452,0.0568836
-0.0275118,0.00559554
-0.0326451,-0.0164889
-0.00887287,-0.0142017
0.100513,-0.0246114
0.0821182,-0.0192545
-0.0155013,-0.0428256
-0.0177919,-0.0760074
-0.020917,-0.00965444
0.000580086,0.0242117
0.0662539,0.0357624
0.108113,0.0400875
0.10627,0.0334007
-0.00605264,-0.0179061
-0.101854,-0.0257936
-0.115988,0.00885523
-0.0740589,0.0323325
-0.0332015,0.0651534
0.0458784,0.0105044
0.110044,-0.05479
0.0655146,-0.0425247
-0.021493,-0.0146337
-0.0788338,-0.0634342
-0.0636613,-0.0433086
-0.0511927,0.0472856
-0.0522653,0.0984908
-0.040869,0.0670515
-0.0268968,0.024211
-0.00223675,-0.00125754
0.0467688,0.00126986
0.0654628,-0.00683207
0.0214884,-0.0229463
-0.0110536,-0.00788059
0.0484888,0.0261276
0.0777754,0.0285935
-0.0274491,-0.0431013
-0.108283,-0.0777518
-0.0576644,-0.0938579
0.0608838,-0.0445009
0.0725611,0.0353296
0.0178852,0.047481
-0.00552085,0.0234135
0.0135228,0.0402779
-0.00341126,0.0185217
-0.0398291,0.0232519
-0.0622794,-0.0318025
-0.0442487,-0.122965
0.0309082,-0.0270138
0.0469804,0.0963903
0.017053,0.0276726
0.0626366,0.0721828
0.0700721,0.0343907
0.00897338,0.0545171
-0.075089,-0.0101977
-0.029118,-0.0232054
0.0779885,-0.0299352
0.0692776,-0.0637985
0.0245031,-0.040427
0.0263043,-0.0325855
0.0166964,-0.0222693
-0.0297834,0.0420493
-0.11767,-0.0572227
-0.150654,-0.0561643
-0.0932784,0.0529913
-0.0398602,0.0920403
0.0253636,0.0662534
0.040237,0.0359259
0.0677731,0.00841627
0.105466,-0.013181
0.0681265,-0.0130843
-0.00832311,0.0210299
-0.0449527,-0.00568253
-0.117418,-0.0358297
-0.0592257,-0.00633714
0.0528648,-0.0159472
0.0732116,0.0256424
0.0252316,0.00483696
-0.0704288,-0.0460944
-0.0889758,-0.0215564
-0.0599385,-0.0145606
-0.0257387,-0.0650688
0.0157005,-0.0924131
0.0643522,-0.0411714
0.0500284,0.0569384
0.00933837,0.0398031
-0.000966498,0.0343919
-0.0143878,0.0619353
-0.00447191,0.0482472
0.0400182,0.0504349
0.038919,-0.0497151
0.0275401,-0.0418866
0.0567868,-0.00694251
0.0961782,0.0600728
0.0829476,0.00872517
0.0425396,-0.0540113
0.016513,-0.0429763
-0.0276615,-0.0374217
-0.0150953,0.0278789
-0.0525521,0.0331475
-0.119967,0.00381927
-0.141371,0.0127407
-0.0532819,0.00331087
0.0027104,-0.0213781
-0.00565222,-0.0229774
-0.0369079,-0.00842463
-0.0146801,0.0379847
0.0489713,0.0229723
0.0880387,0.0402099
0.0203339,0.0198535
-0.0517056,0.00554912
-0.0152366,0.0618217
0.014718,-0.000406298
-0.0173978,-0.0297295
0.0123481,-0.0239252
0.0610938,0.00416337
0.0508914,-0.0533908
0.0155081,-0.0440989
-0.0223559,0.00534339
-0.0343653,-0.0182167
-0.0205705,-0.0475667
-0.0269856,-0.00244436
-0.0285566,-0.0181045
0.0289035,-0.0226016
0.0587898,-0.0057319
0.0515671,0.00165232
0.0260651,0.0429223
-0.0444702,0.0606297
-0.0698162,-0.0186018
-0.0542301,0.0531001
-0.0184819,0.00615574
0.0115917,-0.0477798
0.0430408,-0.0024227
0.0186793,-0.0188155
-0.0127478,0.0198724
-0.0362627,0.0211944
-0.0677833,-0.0112781
-0.0240388,-0.0079854
0.0894186,0.00744172
0.178815,0.0193125
0.155703,0.0459853
0.0510935,-0.0234168
-0.0333788,-0.0232743
-0.0899832,0.0419159
-0.139631,-0.00958692
-0.0870113,-0.0276107
-0.00955789,-0.000871766
0.00337004,0.0134381
-0.0165064,-0.0156332
-0.0280986,-0.00751352
-0.0259955,0.0112533
0.00751208,0.0333091
0.0349888,0.0302627
0.000120069,-0.00172266
-0.0255492,-0.0215401
-0.0149688,-0.0245915
0.00755946,-0.0240951
0.0011275,-0.0144723
-0.00479983,-0.00958926
0.0277059,-0.00191718
0.0804384,0.000897454
0.0682567,-0.00286924
0.0298346,-0.0814092
0.024778,-0.107483
0.00905071,-0.0736426
-0.0134209,0.0662779
0.0168683,0.125013
0.0126476,0.0728863
-0.000770734,0.066879
-0.00352281,0.0311899
-0.040313,0.00409444
-0.0904785,-0.0121336
-0.0807716,-0.00502785
-0.0736084,-0.00456735
-0.0730772,-0.0156461
-0.0654113,0.0233166
-0.0477697,0.0172625
0.00852133,-0.0142015
0.0690574,-0.00512387
0.119399,0.00834637
0.12088,-0.0162409
0.0810831,-0.0536202
0.0181695,-0.030907
0.00153203,-0.00483747
-0.00897277,0.0270567
-0.0181737,0.0340405
-0.0113218,0.0222992
0.000305012,0.0201048
0.00759604,0.0046979
-0.00219975,-0.0591722
-0.0278511,-0.0441797
-0.00661316,-0.0394058
0.0297905,-0.0075504
-3.88e-05,0.050901
-0.0428769,0.0215441
-0.0309786,0.046594
0.0309792,0.033483
0.0541012,-0.0168349
0.00581035,-0.0244825
-0.0300232,0.00415111
-0.0319607,-0.00877309
-0.0129365,0.00175791
-0.0164585,-0.028087
-0.0336967,-0.0473789
-0.0426501,0.0500682
0.0155962,0.031551
0.0664653,0.0156124
-0.00339302,0.0211332
-0.0446631,-0.00354782
-0.0391046,-0.0584041
-0.0264305,-0.0733776
0.0204018,-0.0553009
0.0370204,-0.0312187
0.0272238,0.00596559
0.0276686,0.00935494
0.0318898,0.0640546
0.0311092,0.118192
0.012057,0.0791572
0.00535203,-7.22e-05
-0.00258103,-0.0171941
-0.0427772,-0.0133056
-0.0280651,-0.0197696
-0.00598572,-0.0219544
-0.0246701,-0.00960531
-0.0339736,-7.82e-05
0.00307688,0.0156302
0.0642147,0.00676478
0.0983326,-0.0225382
0.0798425,-0.0162543
0.00958167,0.00542285
-0.052001,0.00296693
-0.113997,-0.0300562
-0.112947,-0.0522395
-0.0291953,-0.038451
0.0119027,-0.000423496
0.0635032,0.0281422
0.112427,0.011851
0.0980292,-0.0253516
0.0137303,-0.0302184
-0.0696223,0.0464323
-0.0428411,0.0378789
-0.00700979,0.0104149
-0.0191782,0.0157494
-0.0369114,0.000639251
-0.0518577,-0.00774151
-0.0469088,-0.0170356
-0.0293805,0.00101098
-0.0359069,0.00268595
-0.0151568,-0.0421671
0.0223416,-0.0146216
0.0248008,-0.00605387
0.00802318,0.0487389
0.00492405,0.053474
0.00436075,-0.0117284
0.00568965,-0.057951
0.0197985,-0.0509751
0.0135325,0.0271343
0.0255831,-0.0129467
0.0784059,-0.00911092
0.0671349,0.0194445
0.026433,0.042551
-0.0137613,0.00559588
-0.0420544,0.0211259
-0.0112021,0.0353491
0.0189275,-0.0204211
0.0280103,-0.0338857
0.0147463,0.0183648
0.00253321,0.0650427
-0.0336724,0.0297018
-0.0429685,0.019123
-0.0559767,-0.00349764
-0.0614522,-0.00537035
-0.0452106,-0.0111065
-0.0219792,-0.0196987
0.0256629,0.00353323
0.0757506,0.0145493
0.0777405,0.0118411
0.059954,-0.0169093
0.0028509,-0.038102
-0.0457705,-0.0144235
-0.0708985,-0.0099557
-0.0694449,-0.0219021
-0.0575313,-0.0430693
-0.0337755,-0.0475388
0.0375927,-0.0304498
0.06167,0.00132511
0.0536169,0.0433937
0.0186267,-0.0221074
0.0482014,-0.0325955
0.0658877,0.0319573
0.0258305,0.0376578
-0.0356003,0.044831
-0.0634029,0.0642234
-0.0197115,-0.00329868
0.0203458,-0.0375882
0.0223249,-0.00198798
-0.000153819,-0.02078
-0.00518978,-0.0697874
-0.00199583,0.0392261
-0.00774971,0.0371437
-0.00519547,0.00552638
-0.0121326,-0.00321703
-0.019084,0.00266951
-0.015174,-0.00088633
-0.00433887,0.0340703
-0.00351001,0.0406527
-0.0223008,0.00974006
-0.0636689,-0.0182835
-0.0288748,0.00434581
0.00107749,0.0253208
0.0059763,-0.00403223
0.00110807,-0.022303
0.013767,-0.0209919
0.0338424,-0.00806894
0.0258588,-0.0266129
0.0242494,-0.0666251
0.0473715,-0.0609453
0.0778998,0.000437582
0.0703788,-0.0302815
-0.00528583,-0.0591309
-0.085579,0.0145246
-0.112077,0.0575981
-0.0757867,0.0391353
-0.0193544,0.0378889
0.00182803,0.0415391
0.017494,0.104332
0.0544402,-0.00469358
0.0802227,-0.0333105
0.0624413,-0.0180191
0.00015463,-0.0277194
-0.0580331,-0.0418371
-0.069277,-0.0372994
0.0139185,-0.0158465
0.056904,-0.036933
0.0518638,-0.0155969
0.0120672,-0.0284843
-0.0575285,0.0278659
-0.0655829,0.0266709
0.00736182,0.0485448
0.0525392,0.0469665
0.0333891,0.0975025
-0.0306921,0.0621217
-0.0575851,-0.0286526
-0.0331113,-0.0411987
0.0363259,-0.0267544
0.0839206,0.012184
0.0446296,-0.000438356
-0.0187134,0.00246294
-0.0597731,0.00100876
-0.0706439,-0.0115514
-0.052658,-0.0214179
-0.0371571,-0.0147185
-0.00494548,-0.00874298
0.0212761,-0.00717139
0.0119033,0.067185
-0.0183138,0.0300934
-0.0114766,-0.0541537
0.0154994,-0.0106646
0.0576358,0.022987
0.0749475,0.00613737
0.0368164,-0.0119681
-0.0112205,0.00958553
-0.00453831,0.0127246
0.0322391,0.00155277
0.0437458,-0.0113736
0.0193791,-0.00234912
-0.0274743,0.0419717
-0.0398056,0.00364208
-0.0299328,-0.0627694
-0.00393223,-0.0452792
0.0220421,0.00675214
0.0227444,0.000352554
-0.0112227,-0.026725
-0.0563549,-0.00882647
-0.077601,0.00198815
-0.0531441,-0.00220934
-0.0426353,-0.0312573
-0.0396829,-0.018303
0.0046196,0.047638
0.0317627,0.0168641
0.0310274,0.00591855
0.0228415,1.59e-05
0.0228845,-0.0106795
0.0582373,0.00623881
0.0990572,0.02899
0.0931775,-0.00291363
0.0594032,-0.00139899
0.00783374,-0.0165662
-0.0181046,0.036666
0.013084,0.0447933
0.0122327,-0.0311656
-0.0251153,-0.0219695
-0.0428472,0.0105262
-0.0927927,-0.028041
-0.158183,-0.0375731
-0.126487,-0.00870385
-0.0717659,0.0234074
-0.0139052,0.0327343
0.0088954,0.0469698
0.0390167,0.0254489
0.0832704,-0.0455541
0.0814897,-0.0419523
0.0363057,-0.0427357
0.0119162,-0.0460103
0.0270737,-0.0303179
0.0345538,0.021462
0.0325803,0.0205957
0.0360191,0.0128916
0.0318066,0.0249057
0.0279509,0.00321205
0.015932,0.00423676
-0.0448744,0.0439436
-0.0736776,0.00389144
-0.0575618,0.0260854
-0.0180881,0.0709738
0.00469142,-0.0457552
0.0300031,-0.0142691
0.0235395,0.00243505
0.00503995,-0.0941557
-0.0222191,-0.0633382
-0.0390739,0.0639369
-0.0404658,-0.00109992
-0.0416567,-0.0770321
-0.00235131,-0.032277
0.0134,0.042099
0.0173556,0.0791126
0.0717333,0.0626922
0.0659048,0.0114214
0.0127866,-0.00258106
-0.0166434,-0.0135505
-0.00791477,-0.0432344
0.00561778,-0.0458121
0.0121831,0.0101131
-0.00733279,0.0188879
-0.0173237,-0.0220113
-0.0508104,0.0112813
-0.0255374,0.0747785
-0.00545277,0.0128535
-0.0751869,0.0654477
-0.10536,0.0182368
0.025057,-0.035821
0.188842,0.0101489
0.225755,-0.00177728
0.0635257,0.0161969
-0.0360383,0.0748611
-0.0523312,-0.0684185
-0.0389412,0.00244802
-0.0343544,0.00921585
-0.0655274,-0.12137
-0.0508211,-0.146335
-0.0100721,-0.0174121
0.00590523,-0.0299422
-0.0223835,0.0457886
-0.0669214,0.0880752
-0.0986944,0.0383567
-0.0436761,0.0133659
0.0113507,0.0179842
0.00148382,0.00497387
-0.012028,0.00402154
-0.00128977,-0.025423
0.0411698,-0.0130801
0.0546113,0.0268119
0.033106,-0.0317769
0.00344148,-0.0150775
-0.0254992,0.0165356
-0.00915708,-0.00446132
0.0621954,-0.0259898
0.0877373,-0.0378327
0.0198726,0.0425273
-0.013492,0.0778249
0.0346659,-0.00819618
0.0326933,-0.0020853
-0.00730557,0.053462
-0.0238924,-0.00861873
-0.0203485,-0.0697081
-0.0307281,-0.00337097
-0.0228298,-0.0450907
0.00336267,0.0567814
0.0147497,-0.0322085
0.0248204,-0.0206111
0.0458642,-0.0171922
0.039087,0.00227997
0.0421364,0.011795
0.047171,0.0728176
-0.0156242,0.0109928
-0.0889318,-0.00655264
-0.102241,0.0489857
-0.0646747,-0.0334447
-0.00749849,-0.0219409
0.0153352,-0.0396851
-0.00882539,-0.0312861
0.00769651,-0.0367958
0.0091128,-0.0113017
-0.0203009,0.0508142
-0.0407317,0.0282319
0.0611728,0.0310457
0.112106,0.019113
0.0460007,-0.00888874
-0.062567,0.00110912
-0.166592,-0.00812769
-0.129732,-0.0232675
0.0277017,0.00649216
0.114764,0.0556829
0.0830423,-0.035556
0.00376465,-0.0328265
-0.0173067,0.00846865
-0.00515157,-0.0756426
0.0124656,-0.0534041
0.0600399,0.0603671
0.083936,0.0314308
0.0428232,-0.0873371
0.00441431,-0.0206962
-0.0382146,0.0639886
-0.0331978,0.054837
-0.0157902,0.0346324
-0.0257747,-0.0327659
-0.0233323,-0.00330939
-0.0480883,0.02773
-0.0232613,0.0564669
0.010448,0.0676808
0.0146938,0.0297497
0.0558605,0.0112154
0.0961266,-0.093523
0.0748693,-0.0748059
0.00868002,-0.0214984
-0.074232,-0.0508813
-0.0579172,0.0500306
-0.0264933,-0.0307286
-0.0253429,0.0278282
-0.0826393,0.0369823
-0.0863145,-0.0625925
-0.0363173,0.00518054
0.00795871,0.053442
0.0329193,-0.0308503
0.0360081,0.00129913
0.00655187,0.00738919
0.0176845,-0.0292021
0.0257767,0.015667
-0.011063,-0.0283556
-0.0785365,-0.189527
-0.0519156,-0.0122654
0.0161269,0.0625146
0.0987059,0.150231
0.154006,0.161535
0.129404,0.00483424
0.0809477,-0.0197547
-0.00180069,0.0127686
-0.0969394,0.0112297
-0.149083,-0.0789196
-0.133645,-0.0420688
-0.0968918,0.00588106
-0.0073265,0.062782
0.111662,0.0643099
0.177683,0.0720589
0.0613159,-0.0464652
-0.0823261,-0.0654048
-0.0639532,0.00980425
-0.0249399,0.0406159
0.0322303,-0.0413459
0.0524484,-0.0782936
-0.00100841,-0.0803822
-0.0694841,-0.06006
-0.0453702,-0.0473292
-0.0101557,-0.0480857
-0.0344751,-0.0725778
-0.0207405,0.048468
0.0284391,0.167395
0.0582533,0.0251964
0.0383302,0.0353604
0.0464002,0.0249955
0.0729165,0.0546324
0.0359162,0.0607238
-0.0413226,0.0474134
-0.117435,0.00677319
-0.162899,0.021487
-0.0899768,-0.130775
0.0403498,-0.103022
0.0784202,-0.0235244
0.0609086,0.0751566
0.0468091,0.0872894
-0.000605712,-0.0405638
-0.0161379,-0.0816133
0.0236426,0.0118542
0.0342044,0.0224282
0.00445959,-0.0501713
-0.0383389,-0.110141
-0.0504988,-0.00835023
-0.0381981,0.0434504
0.0161628,0.0232386
0.0306288,-0.0626295
-0.00219696,-0.0252133
0.0184028,0.153151
0.0522698,0.0637994
0.0547212,-0.0544945
0.0563196,-0.020979
0.0273915,0.0261416
-0.0201811,0.0211283
-0.00688695,-0.0145353
0.0200206,0.0107544
0.0182186,0.119705
-0.0147965,0.119954
-0.047771,-0.101051
-0.0442959,-0.104711
-0.0571667,-0.103996
-0.0634849,-0.059067
-0.0155969,0.0260526
0.0205293,0.0624192
0.010345,0.0114741
0.00745927,-0.0114101
0.000617958,-0.124613
-0.00784591,0.00771409
-0.00823098,0.101377
0.0154925,0.00816132
0.0124348,0.00435575
0.0266193,-0.0120283
0.0456339,-0.0435932
0.0737355,0.0202044
0.0850234,0.00486214
0.0149714,-0.0139295
-0.0607307,-0.00864325
-0.0849935,0.0506299
-0.0351996,0.0910413
-0.0205761,-0.032306
-0.0795985,-0.0457192
-0.136796,0.0629721
-0.130867,0.0817608
-0.0444828,-0.0452717
0.0615346,-0.0137361
0.0901265,-0.0637658
0.074483,-0.0544647
0.0533706,0.0258789
0.0692027,0.0778468
0.0897623,-0.0252
0.0567967,-0.0185281
0.00761449,0.0238747
-0.0575712,-0.00741803
-0.071217,-0.0164071
-0.0547829,0.0132902
-0.0140066,0.00559944
0.0485591,-0.0667136
0.0629824,-0.0196077
0.0326822,0.0322297
0.0463522,0.00792631
0.0783625,0.0943296
0.031463,0.068486
-0.012769,-0.149263
-0.00160944,-0.0989811
-0.0386338,-0.147435
-0.105038,0.10872
-0.107984,0.0855267
-0.0724486,0.0137551
-0.0495639,0.0361614
0.00183948,0.102009
0.0501462,-0.0242205
0.0721761,-0.0719161
0.0860215,-0.0612348
0.0673317,-0.0303091
-0.0338085,-0.00139515
-0.145375,0.018646
-0.140884,0.0314304
-0.0824623,-0.031057
-0.0780938,0.0286962
-0.0335337,0.0505663
0.0576953,0.0283896
0.141851,-0.00681113
0.157122,0.0165777
0.186141,0.0271581
0.150609,0.0174271
-0.00268386,-0.0729194
-0.0469531,-0.0941845
-0.0317858,-0.0861677
-0.00591713,0.0550164
-0.0232363,0.0485056
-0.0207966,0.102531
-0.0427572,-0.0334557
-0.135008,0.0189175
-0.120397,-0.0290701
-0.0186941,-0.0496436
0.0869699,-0.0187851
0.193237,0.110533
0.167032,0.0880905
0.0230224,-0.124111
-0.0777867,-0.0539122
-0.215476,0.0671234
-0.331248,-0.00396799
-0.250625,0.146589
-0.114113,0.00259934
0.0200407,-0.00834715
0.205012,0.0156691
0.280363,-0.0654453
0.0930385,-0.117627
-0.047791,-0.0506337
-0.129095,-0.0729235
-0.117017,0.0197787
0.0997005,-0.0142824
0.372116,-0.0281583
0.432246,0.0208252
0.236377,-0.0795728
0.00722103,0.0783686
-0.185747,0.144121
-0.293161,0.0945652
-0.224765,-0.106817
-0.0371554,0.0612372
0.115085,0.130564
0.0799515,0.0363354
-0.096548,-0.063258
-0.0548623,-0.105664
0.183932,0.0933664
0.247734,0.145627
0.170345,0.0511377
-0.052034,-0.197691
-0.402913,-0.394557
-0.434104,-0.257692
-0.219237,0.154774
-0.122543,0.221537
-0.0864733,-0.0578154
0.0256627,-0.146825
0.136829,-0.0267768
0.119279,0.0568627
0.0782825,0.0920496
0.0376078,0.130235
0.0530196,0.126586
0.118858,0.113069
0.133061,0.0670809
0.134171,0.169726
0.0750894,-0.0664177
-0.0119564,-0.148825
-0.0774363,-0.0441917
-0.146521,0.123026
-0.188121,0.0987381
-0.0984595,0.0366289
0.0667171,0.012923
0.123097,-0.0226421
0.0448164,-0.36945
-0.163471,-0.629811
-0.309169,-0.394037
-0.155224,-0.20303
0.224265,0.055759
0.494853,0.320839
0.3483,0.436624
0.0332518,0.473632
-0.277319,0.38574
-0.521255,0.0893096
-0.538235,-0.00428952
-0.109207,0.091789
0.342745,0.0400918
0.588769,-0.00111444
0.516146,-0.117015
0.293966,-0.150266
0.128202,-0.136726
0.0880613,-0.217971
0.059589,-0.26662
-0.0190934,-0.285358
-0.316887,0.0596941
-0.679774,-0.0270675
-0.729274,-0.157448
-0.246078,0.0952269
0.0174264,0.0055918
0.161735,-0.117128
0.377238,0.181367
0.322174,0.199885
0.128425,0.2638
0.0266039,0.312207
0.0567478,0.208026
0.108773,0.0801803
0.0364625,-0.0207952
-0.148953,-0.0719684
-0.368891,-0.000226774
-0.400991,0.0216467
-0.107986,0.0437478
0.107937,0.102558
0.0994563,-0.165491
0.113768,-0.261097
0.0919085,-0.173669
0.034829,-0.148288
0.0692612,-0.0603566
0.264136,0.00424478
0.377705,0.00624444
0.27696,-0.00702365
0.173027,-0.146903
0.0102182,-0.29014
-0.13739,-0.0964646
-0.0691871,0.0459493
-0.0236018,0.00339379
-0.0490608,0.232215
-0.0238438,0.204443
-0.0481131,0.0221709
-0.148845,0.0314037
-0.133473,0.0189525
-0.0867343,0.0917994
-0.111181,0.221226
-0.203036,0.0244792
-0.216514,-0.0521702
-0.104874,-0.0562578
-0.0315929,-0.0176754
-0.0350737,-0.067751
0.0243588,-0.0121104
0.264297,0.0821598
0.370958,0.149564
0.0696504,0.103149
-0.280141,-0.0794092
-0.468782,-0.220693
-0.43745,-0.254802
-0.151739,-0.136351
0.149398,0.044767
0.308353,0.0881233
0.414018,0.121851
0.353104,0.0484672
0.186418,-0.0486837
0.0443347,-0.0254495
-0.0516279,-0.0402548
-0.0129067,0.100461
0.0167545,-0.0326331
0.0439021,-0.0567631
0.107549,0.363688
0.0769352,0.116397
0.0449776,-0.134365
-0.0697805,-0.0477248
-0.188938,-0.0942682
-0.104105,-0.0756139
0.143164,-0.0589597
0.378854,-0.130862
0.355725,0.132774
-0.0251914,0.0806728
-0.453978,-0.188883
-0.557855,-0.170251
-0.313057,-0.101796
-0.0983754,-1.56e-05
-0.139547,0.112717
-0.178736,0.0602612
-0.00421207,0.0383768
0.162777,0.137228
0.167062,0.178933
0.134346,0.10091
0.0723701,0.0230757
-0.074229,0.0830824
-0.106057,0.101159
-0.0246097,0.0347029
0.0364273,-0.0448757
0.097737,-0.131982
0.114092,-0.191924
-0.00802106,-0.170342
-0.0137553,-0.13031
0.0816686,-0.193693
0.110589,-0.0738368
0.128561,0.0873422
0.117143,0.160589
-0.087845,0.159104
-0.260883,0.0499814
-0.149488,0.046365
0.175749,0.0908789
0.431575,0.155643
0.277875,0.0469227
-0.0456539,-0.0335545
-0.311813,-0.215725
-0.413641,-0.153799
-0.194718,-0.0194594
0.135783,-0.0604434
0.405782,0.224081
0.296254,0.237797
-0.0289021,-0.0573993
-0.120626,-0.0133899
-0.235969,0.0285836
-0.241373,0.00808197
-0.115069,0.0405071
0.00796735,-0.0505982
0.0786376,0.0118286
0.0534698,0.0598265
-0.0280298,0.0734262
-0.0101653,0.0505194
0.205392,-0.0776758
0.23265,-0.267682
0.197957,-0.316979
0.0989963,-0.337319
-0.0247857,-0.113392
-0.115965,-0.0246797
-0.149977,0.0413707
-0.269826,0.177269
-0.332626,0.120497
-0.306948,0.0753107
-0.240694,0.0951684
-0.0463758,0.120969
0.129462,0.00239598
0.325464,0.0689896
0.344459,0.135776
0.127855,-0.146254
-0.0205436,-0.302525
-0.140343,-0.17136
-0.0869308,0.0987746
0.0992729,0.513705
0.0964839,0.388458
-0.0142323,0.291926
-0.262674,0.182282
-0.234877,-0.0438662
-0.00730347,-0.0915273
0.205488,-0.363722
0.489315,-0.277794
0.597228,-0.207117
0.283621,-0.178502
-0.218941,-0.120762
-0.445572,-0.0519456
-0.243306,-0.0239443
-0.0272019,0.0871567
-0.00983687,-0.0394438
-0.0107305,-0.0215038
-0.0852261,-0.0282791
-0.00156297,-0.0881666
0.0936383,0.0219388
0.0821755,-0.0862678
-0.0551075,0.0320956
-0.171039,0.284769
-0.137153,0.352868
0.000905962,0.209465
0.227403,0.0934221
0.451162,0.01547
0.309251,0.0123516
-0.0905945,0.0472832
-0.563832,0.0409558
-0.995579,0.00107376
-0.713297,-0.0445804
0.0181241,-0.0662165
0.570706,-0.0830694
0.600868,-0.0859718
0.365327,-0.10419
0.140836,-0.0909166
0.0742001,-0.0473106
-0.0353014,-0.0847945
-0.0950552,-0.106351
-0.0945249,-0.0816363
-0.0621858,-0.0668446
0.027422,-0.0532382
0.0529978,-0.0225124
0.176872,0.0195303
0.252757,0.0333932
0.0867563,0.0734944
-0.0511554,0.0645979
-0.20866,0.00464015
-0.344111,0.0436459
-0.166712,0.0449942
0.0159431,0.0417218
0.0678615,0.0648571
0.0743915,0.00181163
0.0151222,0.0131126
-0.0476433,-0.021078
-0.0795325,-0.00420882
-0.104244,-0.0835285
-0.126471,-0.0441012
-0.0807998,-0.109458
0.0320758,-0.0362739
0.0846389,0.0663131
0.136306,0.0587711
0.187421,0.0767168
0.229374,0.129363
0.152738,0.164881
-0.0342768,-0.0330841
-0.175967,-0.133771
-0.190954,-0.106002
-0.0887138,-0.05347
0.0900712,-0.0798848
0.140681,-0.172641
0.0644975,0.0595443
0.0175388,0.19511
-0.0733718,0.0958213
-0.173068,0.0620832
-0.20995,0.00342747
-0.193516,-0.0934484
-0.136406,-0.0338482
0.0329468,0.0893857
0.241081,-0.0271057
0.35046,-0.0805915
0.291169,0.013826
0.178584,0.131847
0.0623195,0.0507422
0.0342939,-0.0426196
-0.00964294,0.0964419
-0.0808232,0.0173761
-0.109618,0.00406892
-0.113035,-0.00517686
-0.0870982,0.0153635
-0.0208762,-0.0569851
-0.000240109,-0.0952003
-0.0269,-0.0396614
-0.0471514,0.00749476
-0.0247911,0.0234034
0.0156934,0.0276717
0.0582507,0.00798737
0.0686701,0.0102289
-0.00646595,0.0396547
-0.0551735,0.0227978
-0.0288065,-0.0423982
-0.028494,-0.124301
-0.00277907,-0.00677913
-0.0135748,0.0735547
-0.0675984,0.00207797
-0.102086,-0.0361795
-0.115221,-0.0920931
-0.0872979,-0.0333179
-0.0231646,0.00169583
0.0432788,0.00192904
0.129454,-0.036452
0.227439,-0.00906008
0.183284,0.0847858
0.0502768,0.0784441
-0.0772957,0.0133748
-0.147695,0.0599002
0.0375908,0.0448365
0.122856,-0.0235571
0.0640841,-0.0349575
0.0327462,-0.0581473
-0.040519,-0.0567762
-0.154327,-0.0586376
-0.273024,-0.01356
-0.247408,-0.00466948
-0.0668297,-0.00378542
0.0342005,0.00599275
0.0684045,0.0335576
0.0742985,0.0635535
0.0291266,0.0674759
0.0352765,0.0523212
0.0594919,0.0309367
0.0287424,-0.00324115
0.0514275,-0.024275
0.0855088,0.00247698
0.105071,-0.00106811
0.0791153,-0.0479428
0.0017093,-0.0817412
-0.0585702,-0.0391712
-0.0663089,-0.0658034
-0.0424521,-0.0713866
-0.0351769,-0.0347146
-0.0209925,0.024062
-0.0162762,0.0557745
0.000826666,0.0983183
0.0163403,0.22908
0.0196893,0.176997
-0.00806091,-0.095361
-0.0540482,-0.126687
-0.0485353,-0.0465091
-0.00821768,-0.0130568
0.0317395,-0.0555226
0.081286,-0.036041
0.107702,-0.0426251
0.0477777,-0.00542847
-0.0469766,-0.00290585
-0.093268,-0.0159375
-0.0571251,0.0155905
0.0111446,0.0396696
0.00703119,0.0342991
-0.0274595,0.0357397
-0.00805464,0.00982765
0.0237152,0.0571529
0.0446313,0.0355815
0.0360376,-0.0921309
0.0575605,-0.0185993
0.10412,0.038195
0.0831501,0.0016404
0.0135653,-0.00883289
-0.0791926,-0.00370528
-0.0993709,0.00532688
-0.0771519,0.00278747
-0.036946,-0.0244956
0.0744799,-0.0367707
0.135437,-0.022639
0.0690895,-0.0159007
-0.0500653,-0.00472947
-0.161622,-0.0339717
-0.206728,-0.0496053
-0.125132,-0.0173001
0.0054014,-0.0286454
0.0913655,-0.0405117
0.101989,0.0101231
0.0630153,0.0735778
0.0502951,0.114914
0.0323449,0.0367374
-0.00685053,0.043139
8.03e-05,0.0330801
0.0101129,0.0163964
-0.0209398,-0.0420549
-0.0146955,-0.0906773
-0.00280674,-0.0403527
0.0116403,0.0491904
0.0245127,0.00491175
0.0257536,-0.0759433
-0.00654562,-0.10544
-0.00908903,0.00168611
-0.00326047,0.116771
-0.0134774,0.0841226
-0.0267997,0.00788203
-0.0294157,0.109486
-0.0559131,0.0441086
-0.0520346,-0.0412311
-0.0328121,-0.0279165
-0.0191729,-0.0137565
-0.0148289,-0.00951464
0.0150287,-0.0341409
0.0314715,-0.0450982
0.0190578,-0.0022178
0.0107029,0.0289654
0.0127027,-0.00161502
0.0132182,-0.0142841
0.0329349,0.0209891
0.0630449,0.0621818
0.05974,0.0259306
0.0632224,-0.0212964
0.0447341,0.00383695
-0.0264131,0.085344
-0.0585183,0.0274783
0.000802773,-0.0640229
0.0706988,-0.153462
0.100768,-0.181991
0.0255851,-0.038931
-0.166207,0.0751897
-0.245827,0.0898773
-0.186213,-0.0378053
-0.0557691,-0.0801204
0.0366023,-0.160067
0.0662007,0.00824014
0.0472348,0.0449071
0.0155412,0.0150462
0.00638102,0.146961
-0.0183,0.134177
-0.00214735,0.0971797
0.0335183,-0.0286068
0.0715931,0.053395
0.0720478,0.0459543
0.0795825,0.00027668
0.0561014,-0.0222013
0.0392443,-0.0376698
0.042889,-0.0719362
0.00090743,-0.0578326
-0.0679169,0.0127666
-0.0610026,0.0238883
-0.00729339,-0.00636274
0.0373416,-0.0133021
0.0308724,0.00469412
0.024666,0.0153375
0.0298696,0.0286463
-0.00573458,0.035518
-0.0453465,-0.0348836
-0.0766127,-0.0610931
-0.118057,-0.0295923
-0.156157,-0.0071151
-0.136712,-0.00557328
-0.0515161,-0.0074428
0.0576082,0.0155642
0.15237,0.0437791
0.125034,0.00157835
0.0293559,0.00433638
0.00778691,0.00339904
0.0504768,-0.022092
0.102651,-0.0530851
0.0876384,-0.0296366
0.0351794,0.0102697
-0.0401377,-0.00084467
-0.0821538,0.0242458
-0.0573453,0.0380861
-0.014647,-0.0552565
-0.0158096,-0.00737116
0.00450858,0.0630484
-0.0132678,0.0231766
0.0197608,-0.0283469
0.0321455,-0.0309012
-0.0235304,-0.0040568
-0.0821912,0.0367033
-0.112374,0.00494095
-0.0780137,-0.0468229
-0.036518,0.0708201
-0.00470687,0.0569941
0.0783216,-0.00375836
0.119259,-0.037971
0.11931,-0.02641
0.062567,0.00500354
-0.0420346,-0.00184337
-0.111958,0.0353507
-0.0918362,0.0986686
-0.0333997,-0.0700814
0.0322701,-0.0253619
0.0556095,-0.00793372
0.031597,-0.023566
-0.00341033,-0.0416063
0.00728924,-0.032771
0.0495052,0.0205994
0.0245243,0.0279033
0.00880835,0.00499394
0.0344061,-0.00448228
0.0256581,-0.000902045
-0.00814708,0.00791691
-0.0416927,0.0194185
-0.0818257,0.0128387
-0.0625936,0.00118504
-0.0150671,0.0008527
0.0388121,0.00973933
0.0423741,0.0131941
-0.00279405,0.00645166
-0.0446507,-0.0119902
-0.0626496,-0.0271778
0.0015398,-0.0337124
0.0833779,-0.0204535
0.143616,-0.00970358
0.141107,-0.0540852
0.107875,-0.0419978
0.0512912,-0.0473303
-0.022528,-0.050137
-0.0517602,0.083094
-0.039013,0.0620715
-0.00580432,0.038853
-0.0104445,0.121944
-0.0655921,0.0189487
-0.147548,-0.0310578
-0.141711,-0.0234589
-0.111783,0.0507162
-0.100803,-0.00991815
-0.0968435,-0.0189412
-0.0504216,0.00802861
0.0249562,-0.0343886
0.069317,-0.00774464
0.0862096,-0.0268864
0.0824316,-0.0349146
0.0733499,-0.0244688
0.0535564,0.0132669
0.0360429,0.0460591
0.0150411,-0.0200202
0.0171994,0.026324
0.0257356,0.0337526
0.0155682,0.0186695
0.0157183,0.0331038
0.0282298,0.022368
0.0274476,-0.00230786
0.0197336,-0.0186157
0.00675225,-0.0201086
-0.010029,-0.0144222
-0.0226709,-0.00346069
-0.0276681,0.000224799
-0.0430101,0.000517759
-0.0364415,-0.000561364
-0.0102417,-0.000247629
0.0110395,0.00542906
-0.00769168,0.00273398
-0.0350942,-0.0113655
-0.0314667,-0.0165853
-0.0193164,-0.00757137
-0.0401517,0.0029721
-0.0307119,-0.00699273
0.0416471,-0.0324713
0.0805311,-0.0358632
0.105249,0.00333255
0.0627111,-0.0452146
-0.0408541,-0.0561531
-0.101212,0.0189991
-0.0341296,0.0267621
0.0845913,0.0803801
0.134921,0.0538789
0.0460196,-0.0164817
-0.0766838,0.031013
-0.135836,0.0440506
-0.0767966,-0.0227868
0.000831013,-0.0344158
-0.0016775,-0.0414838
-0.00911555,-0.0238023
-0.00539274,0.000655683
0.00733605,0.0150703
-0.00960287,-0.0270568
0.0125391,-0.00581534
0.0245818,0.0222385
0.0157216,-0.00254733
0.0307927,0.0228829
0.0300562,-0.0205499
-0.0122925,-0.0240462
-0.048991,-0.00752982
-0.0444392,-0.00990619
-0.0121655,-0.00511016
0.00768198,0.00829914
0.0136716,0.0143398
0.0164867,0.0236454
0.0207448,0.0344989
0.0231382,0.0281935
0.015085,0.0138233
0.000119762,0.00838547
-0.00745212,-0.00204482
-0.0102958,-0.00540242
-0.0135865,-0.016998
-0.0193463,-0.0446291
-0.0258609,-0.0501221
-0.0220725,0.0013523
-0.0130554,0.0301243
0.0132049,-0.0124117
0.080644,-0.0179869
0.157496,0.0067578
0.1929,-0.00906805
0.139047,0.0489351
-0.0211641,0.0406854
-0.144341,0.101453
-0.16903,0.0766153
-0.151105,-0.112412
-0.0925944,-0.0897615
-0.0149969,-0.0797961
0.0509885,0.00228747
0.0698381,0.0557951
0.00708823,0.0277381
-0.0556059,0.0271278
-0.101942,0.0249767
-0.0856438,0.0187137
-0.0555099,0.0107733
-0.0278253,0.00222227
0.00411858,-0.0186765
0.0269953,-0.0239689
0.0372965,-0.0232309
0.0615478,-0.0268215
0.0899517,0.00345501
0.0827011,0.00853166
0.0528093,-0.00769009
0.0274044,-0.00726854
0.0274189,-0.00600332
0.0273662,-0.00153876
0.0193353,0.00374834
-0.000344683,0.00475397
-0.0236992,0.00883294
-0.0316339,0.00302902
-0.0324831,-0.0114755
-0.0379743,-0.00287072
-0.0391262,0.00384034
-0.0360009,-0.00158969
-0.0265508,-0.00667512
-0.0118572,-0.00491223
-0.00100743,0.0046887
0.00572285,0.0104201
0.00777751,0.00865556
0.0133114,0.0020282
0.0175197,-0.00642323
0.0266718,-0.00644594
0.0358396,-0.0127886
0.0333381,-0.0305636
0.0227036,-0.100204
0.060887,-0.0239515
0.078326,-0.0223998
0.0630181,-0.169515
0.00223126,0.0861037
-0.101168,0.197579
-0.113355,0.107002
-0.0789153,0.0490726
-0.0544447,-0.0699036
0.0295736,0.0184065
0.0881787,0.0715697
0.0638254,0.0572421
-0.0312377,0.00782642
-0.0738985,-0.015217
-0.0282357,-0.0557408
0.0271383,-0.0241431
0.0236861,-0.00991437
-0.0334462,-0.003522
-0.073471,0.00850582
-0.0597553,-0.00606815
-0.0239119,-0.0117025
0.00957359,0.0127475
0.029598,0.00878742
0.0239961,-0.0198089
0.0158648,-0.0134592
0.0118316,-0.00614113
0.0117991,-0.00799682
0.0161858,-0.0149995
0.0250173,-0.00954037
0.0292267,0.00259659
0.0221471,0.00691759
0.00977107,0.00667216
-0.00271229,0.00158544
-0.00970366,-0.000523623
-0.0111812,0.00487243
-0.0152266,0.0106092
-0.0177958,0.00302946
-0.0151635,-0.0084042
-0.0146397,-0.0197704
-0.00793253,-0.0244505
0.00324955,-0.0171325
0.00487114,-0.0069914
0.0084187,0.00605976
0.0287678,0.00209344
0.0478859,-0.0334807
0.0517465,-0.0537386
0.0196757,0.0265025
-0.0438897,0.125437
-0.061423,-0.00594815
-0.0160454,-0.0763425
-0.00635546,-0.0454099
-0.0470949,-0.057703
-0.0758072,0.028457
-0.0848795,0.0534497
-0.0773308,0.017881
0.0338683,0.0277516
0.107224,0.00181349
0.0946348,-0.0200402
0.0730188,-0.0134997
0.0405487,-0.0148296
0.0754978,0.0556168
0.0836731,0.0540684
0.0223573,0.0264485
-0.0264379,0.015448
-0.0316222,0.0287881
-0.0203855,0.0248583
-0.0294186,-0.00391099
-0.0281922,0.0014871
0.0014588,0.0103259
0.0123315,-0.00655386
-0.00439762,-0.016066
-0.0313789,-0.0163987
-0.0431126,-0.0254184
-0.0286144,-0.0274314
-0.0112501,-0.0248159
-0.00926736,-0.0150998
-0.0170818,-0.00581971
-0.0221181,-0.0055077
-0.0199609,-0.00211262
-0.00762837,0.00197104
0.00873233,-0.000280279
0.0187914,-0.000420684
0.0104698,0.00248371
-0.00143299,0.00537805
-0.00333736,0.0136744
-0.00281671,0.0106617
-0.00246336,-0.00104408
-0.0103575,-0.00769738
-0.0274809,-0.0254432
-0.0448943,-0.0499283
-0.0270202,-0.0535285
-0.00422385,-0.0223702
0.0305542,0.0559097
0.0827424,0.0613822
0.119641,0.00943583
0.112698,0.00630581
0.0235458,-0.0654267
-0.0661145,-0.0541732
-0.0674046,-0.0580998
-0.0254198,0.00620797
0.00831639,0.12192
0.0147536,0.0166858
0.0141881,-0.0403584
-0.0128121,0.0113579
-0.0228236,0.05414
0.0570158,0.0280443
0.0954532,0.0458587
0.0592347,0.0210716
-0.033982,0.00812976
-0.13937,-0.00418311
-0.137075,-0.00543215
-0.0723854,0.00330185
-0.0099371,0.00677952
0.0219909,0.004868
0.0358707,-0.00473574
0.0214106,-0.0106093
0.00298247,-0.0108403
-0.00990071,-0.000555269
-0.00547374,0.0094656
0.00912903,0.00408716
0.0175776,-0.0133397
0.00367896,-0.0245166
-0.0131937,-0.0264056
-0.0168317,-0.0212335
-0.00533896,-0.0132641
0.00390036,-0.00896812
-0.0128354,-0.00663698
-0.022642,-0.009422
-0.0144658,-0.0230109
0.03901,-0.0488324
0.077588,-0.0533841
0.0513971,0.0797043
0.00295643,0.102891
0.0105221,0.00612148
0.0254183,0.00984536
0.0613795,0.022173
0.0775729,-0.0222371
-0.0227712,-0.0412565
-0.0927584,-0.0601701
-0.102371,-0.069931
-0.101784,0.0546975
-0.0596259,0.0515047
0.0214711,-0.00222215
0.104717,0.0204204
0.140036,0.00435894
0.124546,0.0303392
0.0401932,0.0394791
-0.132716,0.00356781
-0.240227,-0.0120559
-0.147688,-0.0182333
0.000626576,-0.0176078
0.0895052,0.0106445
0.103524,0.0415211
0.0776838,0.0164969
0.0319499,0.00307893
-0.0208974,-0.0326504
-0.0398227,-0.0380678
-0.023755,-0.0252162
-0.000117731,-0.0179076
0.0156158,-0.014571
0.00975409,-0.0295536
-0.0227659,-0.0308983
-0.0251445,-0.0229945
0.00176909,0.000569632
0.0270193,-0.00124189
0.0657451,-0.00104526
0.0598922,0.0253961
0.0462246,0.0893218
0.0160931,0.0587706
-0.00842836,-0.0163386
-0.0160474,-0.0279998
-0.0384104,0.0168427
-0.0455821,0.00186911
0.00728409,-0.011837
0.0364168,0.0236308
0.0414164,0.0439623
0.0414988,-0.0351203
-0.00851758,-0.118633
-0.0996098,-0.0184386
-0.198457,0.0616514
-0.157294,0.0210759
-0.0292565,0.0215915
0.0473606,-0.0462931
0.0366441,0.00170034
0.0236665,0.0383422
0.0351322,0.0587606
0.0564638,0.0158923
0.00692365,-0.0332081
-0.0397435,0.0234849
-0.00930882,-0.00249952
0.0469368,-0.0106442
0.0430888,0.00695192
0.0375845,0.0121691
0.0408529,0.0174993
0.0470664,0.0128888
0.0360716,-0.0199423
0.000385021,-0.0375054
-0.0171744,-0.0420109
-0.0159329,-0.0552356
-0.0105705,-0.0353866
0.00107206,-0.0109561
-0.011755,0.00164174
-0.0121555,0.0533894
0.0153866,0.0581882
0.0633364,0.016195
0.0841711,-0.0158294
0.037549,-0.0675455
-0.0359402,-0.0820657
-0.0647117,-0.0111557
-0.0739686,0.0396736
-0.0438395,0.086906
-0.0174172,0.0949915
-0.0340503,-0.00267406
-0.0322971,-0.0111452
-0.00848213,-0.0207188
0.0332652,-0.0137384
0.0299297,0.0269646
0.0354727,0.0246106
0.0200001,-0.0117589
-0.060023,-0.035335
-0.104443,-0.0447071
-0.084281,-0.000371753
-0.0662849,-0.00498445
-0.00279717,-0.00559247
0.0568372,0.00388268
0.0492593,-0.000148117
0.0516698,0.00545983
0.0555936,0.00503964
0.0509826,0.00643839
0.0541059,0.00852345
0.0445524,0.00327023
0.0306119,0.00176006
0.012453,-0.00613201
0.009686,-0.0407346
-0.016795,-0.00636206
-0.0343179,0.0260632
-0.0121003,-0.0228716
0.00796997,-0.0324571
-0.0070172,0.0239966
-0.0342574,0.019716
-0.0116452,-0.0131599
0.00782659,0.0395459
-0.0149919,0.0222594
-0.0492744,0.0095087
-0.0704451,-0.022544
-0.0230854,-0.0156238
0.0725376,-0.00725315
0.118143,-0.0151858
0.0731313,-0.0225804
0.0389062,0.0124313
0.0060878,0.0649676
-0.0388879,0.0147722
-0.0272949,-0.0164476
-0.0263193,-0.0364245
-0.0476371,-0.0246992
-0.0915809,0.043325
-0.09473,-0.0122273
-0.0253896,-0.0329457
0.0393598,0.00417118
0.0580602,0.0301767
0.0361188,0.0607511
-0.0190621,0.0259459
-0.0657419,-0.0225916
-0.093259,0.000532277
-0.0504777,-0.0107272
0.0418989,-0.0118121
0.0903118,-0.00759077
0.0898238,0.0067671
0.0829302,0.0205229
0.073885,-0.0109751
0.0546109,-0.0569142
0.0126966,-0.0464737
-0.0403436,-0.0505924
-0.0739301,-0.0087549
-0.0657142,0.0681075
-0.0461753,0.0431016
-0.00849228,0.0147347
0.0107985,-0.00501423
0.0605356,-0.00338909
0.0957576,-0.01873
0.0785497,0.014121
-0.00837573,0.0102064
-0.0896513,0.00358398
-0.101769,0.0152476
-0.0891161,-0.0358809
-0.0487538,0.0598202
-0.0346254,0.0465595
-0.00600833,-0.0191094
0.0075481,-0.0143429
-0.00832212,-0.0457539
0.0210136,-0.0335339
0.0570685,-0.0361946
0.0352807,-0.0429317
0.0142801,-0.0179479
0.0604307,0.028865
0.0694331,0.0499244
0.0419485,0.00532544
0.0433743,-0.000610623
0.0418354,0.0286386
-0.00950503,0.0150323
-0.0105626,0.011917
-0.0136236,0.00998135
-0.00120808,-0.030791
-0.0264305,-0.0318383
-0.105861,-0.00783323
-0.148609,0.0309047
-0.104702,0.0216871
-0.00532977,0.00915744
0.0534089,0.0339042
0.0537215,0.0598151
0.0385044,0.0073751
0.0279985,-0.0631603
0.0250005,-0.0687664
0.00360338,-0.037255
-0.0218801,0.0257143
-0.00228266,0.0369421
-0.0068976,-0.0235438
-0.0590625,-0.0360718
-0.0415896,-0.042897
0.0308542,-0.0244012
0.0643709,-0.00378888
0.0693496,0.0316699
0.082888,0.105504
0.0823094,0.0501813
0.0599584,-0.0361698
0.0078793,-0.0454896
-0.0383738,-0.0327861
-0.0658031,-0.0143763
-0.0660968,-0.00144296
-0.0622383,0.0242399
-0.0567943,0.0110019
-0.00809129,0.0303497
0.0104988,0.0391486
-0.031463,-0.00846385
-0.0625881,-0.00579441
-0.073237,-0.0132438
-0.0368406,-0.0014742
0.016914,0.00459393
0.0506579,-0.000352182
0.0328842,-0.0410777
-0.00149821,-0.0402103
0.0153588,0.00851209
0.130515,0.0113261
0.192146,0.0131413
0.110639,0.00356327
-0.00509138,0.00644426
-0.0560135,0.01589
-0.0516312,0.0022329
-0.0268591,0.0468351
-0.0576281,-0.0116097
-0.0690997,-0.049481
-0.0461319,-0.00368192
-0.0197216,0.0545901
-0.0147784,0.00847416
-0.0275722,-0.0370428
0.0157155,0.0248474
0.0422834,-0.0105046
0.0560423,-0.0317571
0.0539945,-0.0466769
0.032721,-0.0133365
-0.00761486,0.0199204
-0.089244,0.0430069
-0.126908,0.0247232
-0.149183,-0.0328453
-0.125442,-0.000606971
-0.0370123,0.0105961
0.0644334,-0.00508858
0.144034,0.0140742
0.178666,-0.00359312
0.138727,0.000699641
0.0782451,0.0314092
-0.00223041,0.00816074
-0.0605698,-0.0610535
-0.0534972,-0.0369306
-0.041176,-0.0434163
-0.00698334,-0.0418585
0.0354761,0.0154238
0.0343071,0.0506514
0.0051484,0.0713404
-0.0306769,-0.00337777
-0.039178,-0.0989689
-0.011439,-0.0444773
0.0319195,0.0899661
0.0508743,0.0742419
0.0335159,0.00980208
-0.0155697,0.0158329
-0.0809887,0.0273152
-0.0992144,-0.00454338
-0.0868901,0.00319454
-0.0418433,0.0187017
0.0035972,-0.0249263
-0.018237,-0.00484703
-0.0140422,0.0368182
0.0556408,0.0216678
0.0654832,-0.0910565
0.0450495,-0.0968926
0.0204641,0.00497893
0.0377995,0.0232054
0.0784188,-0.00511018
0.0547669,-0.021529
0.0131739,-0.00894625
-0.0462264,0.0417888
-0.0797888,0.0538776
-0.0352274,0.0107935
0.003424,-0.0373671
0.0283229,0.00446847
0.0307581,0.0372468
-0.00751533,-0.0125679
-0.00998608,-0.0306895
-0.0144347,-0.0397746
-0.0387702,-0.0217449
-0.0722414,0.0420698
-0.06402,0.0130309
-0.036647,0.0150023
-0.00844333,0.0449858
0.0206468,-0.0233077
0.0420539,0.00165103
0.0660164,0.0387132
0.0496767,0.0070147
-0.000786881,-0.0117732
-0.0189873,-0.0131074
0.0168783,-0.00161665
0.0444295,-0.0224258
0.0463356,-0.0156549
0.0203545,-0.010342
0.00736089,0.0239441
0.00553043,0.0220555
0.0166349,-0.0226451
0.0289172,0.00746426
0.00739684,0.0096595
-0.0210969,-0.0132721
-0.0552266,-0.0124467
-0.0686314,-0.0128856
-0.0585729,-0.026318
-0.0492989,-0.0222276
-0.0321971,-0.0042151
-0.0138105,0.00595467
-0.00949313,0.0179674
0.0197383,0.0094551
0.106353,0.00439088
0.147882,0.0108555
0.101462,-0.000509059
-0.0166962,0.0232149
-0.118992,0.0399286
-0.131516,-0.0307528
-0.0943581,-0.0498915
-0.0603044,-0.0134473
0.0301105,0.0186283
0.0741673,-0.00962977
0.0572355,-0.0487776
0.0188497,0.0174768
-0.0571658,0.0430403
-0.0660306,0.0106818
-0.00282158,-0.0118236
0.0419336,0.0243221
0.0684964,0.0240571
0.0571241,-0.0119206
0.0196471,-0.0150072
5.61e-07,-0.00313761
-0.00355641,0.00347793
-0.010756,0.0194953
0.00734824,0.0275077
0.0210364,0.0128951
0.0177258,-0.0166303
0.00480945,-0.0105698
-0.000811806,-0.00199546
-0.0620533,-0.000272242
-0.0530062,0.0441749
0.011581,0.0332348
0.025694,-0.0272892
0.0188974,-0.0374493
0.00441846,-0.051791
0.000542935,-0.0951751
-0.00361507,-0.0892318
0.00028778,-0.0802264
0.00560368,0.0201133
-0.0492244,0.107763
-0.111322,0.0468682
-0.0836629,0.0744663
0.0130552,0.0519356
0.094468,0.0408013
0.105889,0.00357191
0.0540758,-0.0213213
-0.0146893,-0.00505042
-0.058392,0.00664599
-0.0393548,-0.00959311
0.0221523,-0.0105721
0.0441006,-0.0293195
0.00907324,0.000968173
-0.0420495,0.00776228
-0.0455668,0.000528767
0.00911815,0.00380781
0.0655687,-0.00298805
0.0625917,-0.0467036
0.0239427,-0.0477153
0.0080468,0.00340301
0.00302341,0.0993719
0.0167697,0.0712023
0.0106757,-0.0168232
-0.0284369,-0.0455831
-0.0512153,-0.00129159
-0.0568088,0.0402476
-0.0527315,0.0168525
0.023583,-0.0209297
0.0904263,-0.0158412
0.0875404,-0.013739
0.0214129,-0.007839
-0.024011,-0.0357518
-0.0420015,-0.0120093
-0.0603935,0.00586449
-0.0226316,-0.00451857
0.079437,0.00975616
0.0958176,0.0198613
-0.0204699,-0.0115389
-0.164942,-0.0302651
-0.203519,-0.0179737
-0.126187,0.0103009
-0.0049737,-0.00677304
0.0858755,-0.0221916
0.124847,-0.0093281
0.116781,0.00708962
0.0627616,0.00884035
0.00798614,0.00069965
-0.0186574,-0.00938644
-0.0402648,0.00214941
-0.0280617,0.0301325
-0.00724839,0.0765706
-0.00956185,0.0565064
-0.0171637,-0.00055474
-0.0274496,-0.0594973
-0.0668312,-0.0213848
-0.117321,0.0274684
-0.0917873,-0.00101114
-0.000584619,-0.0391164
0.068648,-0.0289274
0.110542,0.00530678
0.12271,0.0430951
0.0935374,0.00766865
0.066013,-0.0250015
0.0477087,-0.0323505
0.0206008,-0.00222055
-0.00307154,-0.0352379
0.0117637,-0.0132534
0.0356019,0.0447092
0.00998552,0.0389596
-0.0592187,-0.0231811
-0.0673264,-0.0125313
-0.0337415,-0.00556289
-0.0113873,-0.0311824
-0.00300631,-0.0394711
0.02451,0.0375069
0.0307364,0.0859081
-0.0149895,0.0273838
-0.065867,-0.00693969
-0.0542936,0.00985691
-0.0767485,0.0139139
-0.0949122,0.00142356
-0.0599673,-0.00136851
-0.0490485,0.0162525
-0.0137229,-0.00647916
0.0993068,-0.0332527
0.131569,-0.0457231
0.102081,-0.0174476
0.0620062,0.00415405
0.0224455,0.00122968
0.0440969,0.00498853
0.101951,0.013661
0.0852271,0.0129147
0.00536971,0.0190498
-0.0721919,0.00877472
-0.128234,-0.021039
-0.120699,-0.0237391
-0.0705845,9.81e-05
-0.0238667,0.00283385
-0.0136887,-0.0210146
-0.00272396,-0.0510571
-0.00270225,-0.0230088
-0.00241607,0.0119702
-0.00844929,0.0608932
-0.00860602,0.0830196
-0.0159553,-0.000285934
-0.00915648,-0.0453482
0.0293561,-0.0491097
0.0601912,-0.00941831
0.0817183,0.0255625
0.0989904,0.0341747
0.0525757,0.023174
-0.0244692,0.0369464
-0.0705046,-0.0131537
-0.0741507,-0.0546872
-0.0409591,-0.0267216
-0.0227113,-0.0209008
-0.00165609,0.00491631
0.0110138,0.0142513
-0.0185966,0.0208542
-0.0362654,0.0177161
0.00372073,0.00623765
0.0840895,-0.00388558
0.114888,-0.0301621
0.0392797,-0.0229261
-0.0455693,0.00909141
-0.0519433,0.00329254
-0.0504196,-0.00167431
-0.0412283,0.0389799
-0.00469163,0.00595547
-0.0025949,-0.0065813
0.0115944,-0.00205492
0.0195664,-0.00710561
0.00694045,0.0429397
0.00948709,0.0115565
0.010222,0.0197308
0.0160082,0.00938143
-0.00806072,-0.0265682
-0.04272,-0.0374912
-0.0331162,-0.0159676
-0.0156098,-0.0157448
-0.0255291,-0.0208461
-0.0278015,-0.0163836
-0.000132118,-0.00936924
0.0167659,0.01913
0.0267334,0.0248777
0.0408265,0.00546193
0.0574943,0.000502828
0.0690047,-0.0223074
0.0484262,-0.0425775
0.016609,-0.0182863
0.00389642,0.0112548
-0.000706234,0.0202164
-0.00597809,0.0332598
-0.0155721,0.0509022
-0.0180612,0.0129128
-0.0231721,-0.0507978
-0.0456936,-0.0511461
-0.0471286,-0.0286418
-0.0104283,0.0119989
0.0305024,0.052189
0.044139,0.0157496
0.0200274,0.00199335
-0.0213431,0.0144728
-0.0362041,0.0176001
-0.0361828,-0.00280757
-0.0205716,0.00108622
-0.0194643,-0.0195588
-0.0218735,0.0216408
0.0202424,0.0263821
0.0307796,0.000359194
-0.00970201,-0.000924786
-0.0388321,-0.00150581
-0.0336756,-0.00255838
-0.0246302,-0.027091
0.0111356,-0.0225015
0.0421449,-0.00691801
0.0639689,0.0211624
0.0540716,0.0271827
-0.00612148,-0.00259572
-0.058251,-0.0223573
-0.0211886,-0.0292742
0.0352034,0.000639461
0.0591497,0.0142372
0.0251729,-0.0173378
-0.0142442,-0.0251004
-0.0329535,-0.0272839
-0.0174649,0.0320628
0.0218549,0.0203725
0.0596577,-0.0107916
0.0603238,-0.00165055
0.0352355,-0.0113033
-0.00308502,0.00121091
-0.0694243,0.0227196
-0.0997233,0.0153807
-0.046462,-0.000857211
0.00473892,0.00733817
0.0298043,0.0365154
0.0157026,0.0266763
-0.0131631,-0.0311204
-0.0261639,-0.0564014
-0.0249171,-0.0197635
-0.0232057,0.0490681
-0.0152897,0.0501702
-0.00807836,-0.00821869
-0.010299,-0.00901751
0.00482994,-0.0232897
0.0324786,-0.0182965
0.0593511,-0.0408692
0.0890249,-0.0263402
0.0413153,-0.00761432
-0.00665821,-0.00560803
-0.0391838,0.00716323
-0.0564717,0.00399348
-0.0570954,0.00892845
-0.0370174,0.033794
-0.00996282,0.061531
-0.0105379,0.0390641
8.06e-05,-0.00921075
0.0261191,0.00679734
0.0344821,0.00650839
0.0225678,-0.0434286
0.0253796,-0.0205915
-0.0108567,0.0385375
-0.0455914,0.00993167
-0.0330696,-0.0223745
0.00131402,-0.0394281
0.0197981,-0.0229773
0.0524622,0.0175983
0.0457894,0.0194283
0.00017026,-0.0507192
-0.0292783,-0.035807
-0.0159158,0.0373078
0.0522329,0.0341489
0.104945,-7.77e-05
0.0593499,-0.0422273
-0.0328133,-0.0124644
-0.0814406,0.00998228
-0.067222,0.0237875
-0.0359648,-0.00567724
-0.0179489,0.0183245
-0.00663131,0.0512269
0.00684822,0.00279453
0.00692928,-0.0234646
-0.0385185,-0.0484025
-0.0541212,-0.0340135
-0.0326426,0.00778457
-0.005522,0.0227919
-0.016118,-0.00689339
0.0179702,-0.00387131
0.0486019,-0.00481938
0.0894742,-0.0113117
0.0586669,0.0419228
0.011609,0.0724126
0.0202114,0.0345546
0.0435306,-0.0217111
0.0577931,-0.0313201
0.0582939,-0.0221023
0.0166301,-0.0167119
-0.0322599,-0.00685194
-0.0523968,0.00380655
-0.0719218,0.00973912
-0.0677225,-0.000774399
-0.0375057,-0.0198542
-0.0211159,-0.0204767
-0.00452632,-0.0121773
-0.0274708,-0.0015625
-0.0560652,0.00646383
-0.0463668,0.0211315
-0.0128152,0.0245714
0.00909529,-0.0198452
0.0206744,0.00297463
0.0237412,0.015311
0.0226049,0.00551035
0.0285012,0.00485495
0.0175362,0.0157881
0.00499695,-0.00492274
-0.0313688,0.0152992
-0.0452199,-0.0131594
-0.0252846,-0.0565215
0.0136361,-0.00505537
0.0201209,0.0618198
-0.00564387,0.0357078
0.0029191,-0.0388669
0.0532075,-0.0714996
0.0838494,-0.0402356
0.111086,0.0144787
0.108427,0.0545889
0.0685618,0.0432631
0.0177518,0.00236239
-0.028445,-0.017841
-0.0821253,-0.0322523
-0.0986742,-0.0296432
-0.0622409,0.0282442
-0.00972546,-0.00703123
0.0205085,-0.0159313
0.0158083,0.0325958
-0.0106243,0.0464458
-0.00284775,0.0353291
-0.00348837,-0.00951422
-0.029432,0.00755492
-0.0553283,0.0124427
-0.0623257,-0.00745037
-0.0259868,-0.0125763
0.00575309,-0.0344159
0.0230466,-0.0197319
0.0261626,0.010472
0.010681,-0.00271332
-0.00747355,-0.00291272
-0.0380969,0.00188401
-0.0253021,0.00108512
-0.00285796,0.0032416
0.00782578,0.00455092
0.00785994,-0.00312189
-0.00269618,-0.00658611
-0.0188775,-0.00261242
-0.0417014,0.00778755
-0.0466493,0.00731008
5.28e-05,-0.00759388
0.0411457,-0.0231378
0.0611385,-0.0392077
0.076849,-0.031562
0.0477473,0.000326495
0.0154558,0.0111376
-0.00505113,0.0199628
-0.0102561,0.0403186
-0.00893454,-0.00772851
0.0240321,-0.00115843
0.0501805,0.000455299
0.0406881,0.00414078
0.00319908,-0.0189847
-0.000161048,-0.00185683
-0.0183754,0.0134755
-0.0228205,0.0247357
-0.0165619,0.0216767
-0.0116687,0.00285131
-0.0185085,-0.00919845
-0.0409621,-0.0139952
-0.032339,-0.0109627
-0.0058042,-0.0154821
0.00445389,-0.0313623
0.00911402,-0.0319281
0.00292535,0.031003
0.000439946,0.014838
0.00698072,-0.0177118
0.0165769,0.019026
0.0414146,0.0390765
0.0986881,0.0426783
0.110157,0.0235284
0.0285057,-0.0298294
-0.0404902,-0.00855661
-0.0753512,0.0257019
-0.0672415,0.00970584
-0.0742843,0.006248
-0.0611342,-0.00465336
-0.0397041,-0.0434232
0.00199649,-0.00426509
-0.00306662,-0.00982997
-0.00312151,-0.0329826
0.0101379,-0.0249318
0.0121686,-0.00377055
0.0136927,-0.0302196
0.0114183,-0.02492
-0.00315412,-0.00526818
0.000632875,0.0141684
0.00565442,0.0204134
-9.31e-05,0.0440598
-0.00703692,0.0378824
-0.000558025,0.0238092
0.0109448,0.027222
0.0185748,0.0225268
0.0143185,0.014899
-0.0103089,0.022125
-0.0214423,-0.0192326
-0.00941813,-0.0433446
0.00398118,-0.0334453
0.0135485,-0.0234569
0.0293874,-0.00740103
0.0607276,0.0079084
0.0440299,0.0100102
-0.0116758,-0.0285547
-0.0576969,-0.0327739
-0.0722382,-0.00198355
-0.0476003,0.0222247
-0.0316718,0.0201154
-0.0147207,0.0131276
0.00681992,-7.23e-05
0.0212463,-0.0168815
0.0278186,0.00012671
0.0243537,0.0104894
0.0219741,8.67e-05
0.0256955,0.00211132
0.0299146,-0.00604226
0.037852,-0.0157575
0.0328833,0.0141938
0.0105892,0.0071793
-0.0266721,-0.0272607
-0.0510219,0.0313665
-0.0577848,-0.0171744
-0.0704711,0.0138008
-0.0722055,0.0880475
-0.0529164,0.0271014
0.00190956,-0.047483
0.0517032,-0.0317466
0.090901,-0.0126067
0.088936,-0.0129017
0.0329896,-0.017333
-0.0365063,0.0264132
-0.041083,0.01921
0.010357,-0.0255595
0.0701483,-0.0203995
0.113324,-0.0193419
0.0985012,0.000721584
0.032581,-0.0102049
-0.0335346,-0.0393005
-0.0681808,-0.0338015
-0.0796295,0.0394649
-0.0522488,0.0574317
-0.031791,0.0595952
-0.0400291,0.0211755
-0.0335121,-0.040515
-0.0123156,-0.0277891
0.000633936,-0.0152835
0.0141625,-0.00336373
0.00585086,-0.000669697
-0.040645,0.0170007
-0.0399363,0.0363611
0.00599783,-0.015742
0.0206786,-0.043679
0.00052888,0.0375964
-0.0159962,0.0275908
0.00521232,-0.00816792
0.0508575,0.00189314
0.0574692,-0.0011049
0.00740525,0.00153865
-0.0437363,-0.00745757
-0.0527697,-0.00540044
-0.0411819,0.0152242
-0.040758,-0.00797835
-0.0177739,-0.0167652
0.0590283,-0.00708081
0.140346,0.00191601
0.141267,-0.0475103
0.0499607,-0.0188439
-0.0558356,0.00660947
-0.0930103,-0.0345366
-0.055987,-0.0139908
-0.0160332,-0.0204578
-0.00074679,0.04289
-0.00282642,0.0463009
0.0121713,0.0445526
0.0441571,0.0230391
0.033183,0.0134486
-0.00301891,0.0188882
-0.0288272,0.0215605
-0.0225782,-0.0494618
-0.0218269,-0.0286828
-0.000890509,0.0108779
0.0142058,-0.0102392
0.00644621,-0.000189499
0.000659813,0.031248
-0.0156179,0.0124035
-0.0485471,-0.010308
-0.0484248,-0.0113669
-0.011819,-0.00114667
-0.00218684,-0.00905231
-0.00523303,-0.0166622
0.000617908,-0.00635019
0.0267684,0.0287279
0.0157973,0.00232756
0.00601044,-0.00163913
0.019506,-0.00945335
0.0116824,-0.0412477
-0.00850137,-0.00720752
0.014794,0.00705926
0.0591061,0.0175672
0.0692011,0.012154
0.0315388,-0.00423613
-1.59e-05,-0.000469883
-0.0259529,0.00373624
-0.0390046,-0.0184424
-0.00668407,-0.0214099
0.0261118,0.014863
0.0353878,-0.00165174
0.0435263,0.0312233
0.0194315,0.0892032
-0.0375116,-0.0189584
-0.088279,-0.102246
-0.112816,-0.00234552
-0.0743453,-0.000966391
-0.0575411,-0.0493473
-0.0361321,-0.0115176
-0.00823207,0.0343079
0.0171601,0.0497372
0.0356958,0.0271295
0.0232593,-0.00940778
0.00907282,-0.0433179
0.0410209,-0.0076216
0.0732866,0.0226676
0.054095,0.0219286
0.0277967,-0.0029203
0.014362,-0.00581581
0.0367371,-0.00182613
0.0338735,-0.0308031
-0.0050063,-0.0276793
-0.0290087,-0.0066998
-0.0405402,-0.00303844
-0.045601,0.0393648
-0.0340183,0.0410867
-0.0232498,0.0346079
-0.0114054,0.0403471
-0.0123093,-0.00377678
-0.0204195,0.0163357
-0.0293086,0.0136203
-0.020047,-0.0480994
0.0390179,-0.0312747
0.0740257,-0.00911286
0.0498276,0.00594975
0.00267167,0.0123392
-0.0406617,0.00160348
-0.0271977,-0.0326453
-0.00667059,-0.023557
0.0237949,-0.0185002
0.0460384,-0.0159883
0.050282,0.00941415
0.0533438,0.0257204
0.00805202,0.0254976
-0.0554074,0.0147434
-0.0691504,-0.00139019
-0.0659842,-0.0162681
-0.0497345,-0.0118427
-0.0288194,0.00186714
0.00192102,0.00235819
0.0610746,-0.00724286
0.0599433,-0.00209767
0.0137163,-0.0029381
-0.0160506,-0.0149244
-0.0238185,-0.0192367
0.00350589,0.00414946
0.0296652,0.00605677
0.0304189,-0.0111128
0.0322566,-0.00353962
0.0238589,0.00137085
0.0265832,0.0145828
0.0023144,0.0171631
-0.0287181,0.0509277
-0.0305541,0.0571065
-0.0433104,-0.025604
-0.0725607,-0.0276162
-0.0611529,-0.0211118
-0.024249,-0.0173423
0.0530864,4.33e-05
0.109969,-0.00434799
0.0844368,0.0249197
0.0474873,0.00207597
0.0123372,-0.00999668
-0.0173149,-0.00263834
-0.0463818,0.0178642
-0.0326254,0.0302218
-0.0136821,-0.0298904
-0.0107698,-0.0506417
-0.0145869,0.0134764
-0.055411,-0.0065178
-0.07238,-0.0676486
-0.0546057,0.00361959
-0.0332631,0.0445859
-0.00996515,0.0135527
0.0176819,0.00598481
0.012974,-0.00476931
0.0220417,-0.0227923
0.0419857,-0.0173925
0.053459,0.0488078
0.0654628,0.124933
0.0519277,0.0138906
0.0264195,-0.117507
0.0349979,-0.0866206
0.0251527,0.0181413
-0.0138199,0.0525779
-0.0583432,0.0144071
-0.0685462,-0.0218781
-0.0635028,0.0129069
-0.0144277,0.0551862
0.0469065,0.00254786
0.0205337,-0.0243429
-0.027829,-0.0103101
-0.0427078,-0.00434051
0.0103366,-0.0160288
0.0643938,-0.00672466
0.0351874,0.0337791
0.0214642,0.0413457
0.0410949,-0.00481982
0.0149051,-0.0667452
-0.0643694,0.00516718
-0.118462,0.0145265
-0.130031,0.0169355
-0.0696678,-0.0254155
-0.0211061,-0.0105483
-0.00227417,0.0155909
0.0385416,-0.030734
0.0945397,-0.0420353
0.107131,-0.0293532
0.0944121,0.00892935
0.0833309,0.0461473
0.0518733,0.03919
0.0183038,-0.00869106
-0.0228507,-0.025245
-0.0622133,-0.0138425
-0.0740214,-0.000730324
-0.0349376,-0.00863906
-0.0167801,1.32e-05
0.0011931,0.0220402
0.0132596,0.0188475
0.0163048,0.012849
0.00595106,0.0149143
-0.0333818,0.00229582
-0.0565566,-0.0253711
-0.061503,-0.00554042
-0.0418991,0.0394974
0.0218881,0.00653597
0.088591,0.00553823
0.0733473,-0.0190281
0.0348348,-0.0200728
0.0101276,-0.0155636
0.00489581,-0.00195729
-0.00318158,-0.00458383
-0.00927989,0.0218139
-0.00102948,0.0193933
0.0331331,0.0141716
0.074119,0.0597105
0.0524188,-0.0246669
-0.0248952,-0.0718208
-0.06807,-0.0421351
-0.0840623,-0.00815673
-0.0523565,-0.00454741
-0.0293809,0.0124772
-0.0304414,0.0240112
-0.0429128,0.0150481
-0.040799,-0.0305283
0.00811283,-0.0274948
0.0462682,0.00932137
0.0406273,0.0961775
0.0191511,0.0410835
-0.0111513,0.0153075
-0.0238583,0.00308854
0.0017351,-0.0646786
-0.0212748,-0.060902
-0.0760147,0.000484634
-0.0758176,0.00859858
0.00642716,-0.000784844
0.0886475,-0.0106176
0.113953,-0.0140008
0.0941814,-0.017332
0.0637393,0.00365048
0.0301017,0.0303152
-0.0124259,0.0190307
-0.0462487,-0.0147123
-0.0496834,-0.0136434
-0.0426998,-0.00421198
-0.0326946,0.0014224
-0.00913634,0.0214824
0.00531851,0.0411185
0.0251077,0.0147126
0.030767,-0.0170694
0.028479,-0.00537524
0.0278853,0.029756
0.0229865,-0.00661012
0.0246789,-0.0392132
0.0253878,0.0108333
0.0021453,0.0108644
-0.0540732,-0.0340062
-0.0943499,0.00787174
-0.0858988,0.0180287
-0.041398,-0.0145096
0.00189478,-0.01815
0.0241787,-0.00299748
0.0202947,0.0332067
0.0110125,0.0502885
0.026371,0.000603608
0.0563128,-0.0145267
0.0714985,-0.0203911
0.0520973,0.00533785
0.0167741,0.0195106
0.00444429,0.01142
0.019218,-0.0683596
0.0121726,-0.0825788
-0.0437634,0.0367151
-0.0888771,0.0297255
-0.0932372,-0.000967221
-0.0693705,-0.0211497
-0.0687759,-0.034454
-0.0394414,-0.0297679
0.0152121,0.00237861
0.0469335,0.0278494
0.0738655,0.0703529
0.0684675,0.0452369
0.0225284,-0.0214203
-0.0208527,-0.0151597
-0.0431877,0.00420705
-0.0248794,0.0340364
0.0358594,0.00315906
0.0719389,-0.00921953
0.0561314,0.00512672
0.0192691,0.00639761
-0.0280881,-0.00785473
-0.0667922,-0.0241368
-0.0634702,-0.0153914
-0.0322058,0.00719718
0.00431425,0.00264756
0.0360741,2.73e-06
0.0607586,-0.00566458
0.0516571,-0.00799001
0.0346081,0.0231446
0.0271782,-0.00382114
-0.00148022,-0.0322995
-0.0403674,0.00689706
-0.0754043,-0.0213493
-0.0976844,-0.0208476
-0.0967762,0.0100442
-0.0576143,0.0152638
0.000228236,-6.39e-05
0.0581247,-0.0128278
0.0654054,-0.0188603
0.0280491,-0.0155063
0.0254005,0.0694105
0.0550073,0.0643834
0.0328927,0.0166415
-0.00752383,0.00732167
-8.19e-05,-0.0347858
0.0222401,-0.0127707
0.0461279,-0.0110825
0.0525942,-0.00894982
0.0215005,-0.0486515
-0.0170664,-0.097495
-0.0481942,0.0164746
-0.049201,0.0422743
-0.0134587,0.00675314
0.0218565,0.038011
0.0215996,0.0833126
-0.00251956,0.0509676
-0.00127077,-0.0358759
-0.00806754,-0.0444296
-0.0314264,-0.0293212
-0.0257722,-0.00958624
-0.0365662,-0.00241343
-0.0580264,-0.00645028
-0.0984971,0.00281773
-0.0633284,0.010273
0.0508985,0.00012878
0.119212,0.00703976
0.102006,0.0117236
0.0436333,0.0188669
0.0117585,0.0134176
0.00221549,-0.00721241
-0.00384577,-0.0216823
-0.00928816,-0.0324746
-0.0149475,-0.0194485
-0.0228132,0.0162512
-0.0231959,0.0163696
-0.0181625,-0.00557887
-0.0116227,0.00656342
-0.0146992,0.00332739
-0.0153407,-0.0083296
-0.0124818,0.00476214
-0.00636194,0.00479909
-0.000744955,0.00290834
0.00179363,0.00878585
0.0018851,0.0107812
0.00861367,-0.0179239
0.0224267,-0.0337251
0.0230554,0.00991396
0.0188036,-0.00159998
0.0198994,-0.0500105
0.0480732,-0.016942
0.0409798,0.0520421
-0.00422066,0.00933135
-0.0462883,-0.0188798
-0.0576453,-0.00470793
-0.0288392,0.0413049
-0.00886681,0.063078
-0.00565951,0.0339913
-0.00345715,-0.0293329
0.0156507,-0.0214481
0.0235675,-0.0265065
0.0041707,-0.0324086
-0.028604,0.0485338
-0.0567705,0.0405133
-0.0411365,-0.0266761
-0.0190639,-0.0287267
-0.00497578,-0.0192814
0.0131526,-0.0158272
0.0250311,-0.00748365
0.0349303,0.0244344
0.0414269,0.0131949
0.0629024,-0.0195488
0.100034,-0.00562004
0.0910644,0.00134353
0.076032,-0.00853895
0.0679879,0.000877392
-0.0181039,0.0336192
-0.0945478,0.0129575
-0.129592,-0.0116778
-0.121207,0.0210866
-0.0874289,0.00165864
-0.0651146,-0.0177999
-0.0411537,-0.0142897
-0.0048171,-0.0262301
0.0278696,-0.0332375
0.0141588,-0.00398667
0.00117508,0.00237281
0.00988114,0.00933408
0.0348508,0.0259064
0.0507042,0.0107369
0.0421628,-0.0048954
0.0227726,-0.0073678
0.0185587,0.00963911
0.0143231,0.00840361
0.00945079,0.0066236
0.00289797,-0.00298376
-0.00656017,-0.00361733
-0.0168995,-0.00288107
-0.0381835,0.00869443
-0.0605089,0.0203995
-0.0622402,0.0102627
-0.0308295,-0.00453869
0.016729,-0.0138479
0.0413623,0.0092706
0.032804,0.0305611
0.0146876,-0.0245089
0.0186343,-0.0274208
-0.00102188,0.00455311
0.00624456,-0.0137241
0.0612981,-0.0425494
0.119126,-0.0274352
0.0925078,0.00638413
0.00808419,0.0202851
-0.0461628,0.0282495
-0.0537683,0.0154168
-0.0189049,0.00631804
0.00920263,0.00523272
0.00285765,0.00545708
-0.0251106,-0.00460786
-0.0352222,-0.0111937
-0.0193588,0.0138005
-0.0409511,0.0258743
-0.0590894,-0.000667052
-0.0495167,-0.00158791
-0.0279362,0.0018961
-0.00637021,-0.00590408
0.000151114,-0.0080854
0.00924428,-3.6e-05
0.031803,0.00651756
0.0528061,0.00494411
0.0221526,0.0156833
-0.0724723,-0.00864633
-0.0998904,-0.0259147
-0.0336757,-0.0088094
0.0520877,0.00131886
0.0701867,0.00149341
0.0458141,0.00313246
0.0262994,0.011679
0.0146775,0.00451451
0.0131546,0.00305866
0.0424186,-0.0134007
0.0663128,-0.0121636
0.0507816,-0.0138546
0.0182033,-0.0185349
-0.0175002,0.00441165
-0.0514399,0.0135989
-0.0569828,-0.00118418
-0.0412834,0.00234297
-0.0186573,0.0096122
-0.00187086,0.000327278
6.12e-05,-0.00941346
0.0045239,-0.0162375
0.0239586,-0.00373285
0.05017,0.00936683
0.0195739,0.0200572
-0.0540285,0.0137888
-0.0713445,0.00270179
-0.0748955,-0.00503191
-0.0702133,-0.0205701
-0.0329493,-0.00518347
0.0779252,0.0110351
0.149369,0.026384
0.08364,-0.00261758
-0.0086968,-0.0320751
-0.0559666,-0.0296603
-0.0403919,0.0148185
-0.0177302,0.0175806
-0.00375172,-0.00567479
0.0114798,-0.0127254
0.0143031,-0.00394151
0.00490072,0.0118674
-0.0122311,0.00933488
-0.0294889,0.00119591
-0.0248226,0.000755376
-0.00013579,-0.00084708
0.0278237,-0.00212537
0.036192,-0.00855282
0.028169,0.00446887
0.0033077,0.0181605
-0.0126689,0.0187117
0.00224717,0.00991005
-0.00318533,0.00723659
-0.0131116,0.00535923
-0.0155276,0.00318074
-0.0138909,-0.00686007
-0.00662497,-0.00720894
-0.00349149,-0.00510073
-0.00655277,-0.00717836
-0.0153738,0.000370163
-0.0042452,-0.00270791
0.0193597,-0.0048525
0.0250642,-0.00812968
0.0194518,-0.00193468
0.0219185,-0.00219839
0.025577,-0.00386
0.0126356,-0.00254094
-0.00617737,-0.00744429
-0.0370795,-0.00251953
-0.0483827,-0.00292463
-0.0206994,-0.00580064
0.00212012,-0.0029273
0.0255656,0.0111911
0.0421071,0.00717047
0.0300066,0.000939177
0.00336295,0.0196883
-0.0166024,0.0214961
-0.00115035,0.00160383
0.0462864,-0.0157641
0.0832532,-0.00455897
