Comp Ch 3,Comp Ch 4
-0.0406136,-0.151463
0.0416972,-0.269872
0.101483,-0.230572
0.080459,-0.212678
-0.0325547,-0.132083
-0.165729,0.0930144
-0.256142,0.301702
-0.169343,0.290213
0.07698,0.253554
0.215459,0.22953
0.194149,0.0572777
0.0566814,-0.0195204
-0.127805,-0.0259727
-0.10312,-0.0951014
-0.00386489,-0.107506
0.0845668,-0.126417
0.0268646,-0.101003
-0.00459072,-0.00961204
0.0397313,0.0792945
0.0382452,0.132749
-0.0449158,0.118924
-0.136658,0.0640277
-0.070525,-0.034646
0.0707012,-0.116949
-0.0140998,-0.099768
-0.156255,-0.178463
-0.0800449,-0.103008
0.0529312,-0.00740194
0.128055,0.0463935
0.0860917,0.0975416
-0.000566392,0.027048
-0.069256,-0.00152106
-0.0211544,0.000320533
0.0274627,-0.0261576
0.0206242,-0.0365182
0.0487466,0.116571
0.0739289,0.155367
-0.0045849,0.0259464
-0.0236517,-0.0251875
0.00501952,-0.0503769
0.00325833,-0.0566095
-0.0497663,-0.0623163
-0.0996567,-0.0418566
-0.0976711,0.0130908
-0.0690643,0.0270427
-0.0274365,-0.0208251
-0.0538057,-0.000573758
-0.038938,0.0650686
0.0754963,0.0806562
0.170328,0.0390205
0.0961217,0.0460524
0.0262387,0.0127958
-0.0178444,-0.0108466
0.00606894,0.00822289
0.120011,-0.0642471
0.131514,-0.154093
-0.00437795,-0.197193
-0.0801938,-0.203749
-0.0537742,-0.148998
0.0457783,-0.00392901
0.0587955,0.115563
-0.0398143,0.0965485
-0.11928,0.0494161
0.00248176,0.127017
0.119887,0.118775
-0.0239373,0.0758015
-0.114247,0.105058
0.0405981,0.0773712
0.0280522,0.0403223
-0.160873,0.0219506
0.0440906,-0.06487
0.381603,0.0678055
0.0474097,-0.0404212
-0.240309,-0.0221755
-0.232799,-0.0285324
-0.074315,-0.0690662
-0.0279601,-0.0391241
-0.0957041,-0.0245619
-0.0414857,-0.016851
0.049552,-0.0329159
-0.0374845,-0.0317264
-0.141015,-0.0746087
-0.145775,-0.0924956
-0.0794552,0.00487228
0.0685681,-0.0678721
0.192062,-0.0308236
0.300371,0.0393332
0.269138,0.0684326
0.202265,-0.126487
0.100608,-0.015773
-0.0413172,0.0267608
-0.137712,0.0276448
-0.225226,0.122603
-0.219515,0.186147
-0.116917,0.130149
-0.110449,0.0826508
-0.0886807,0.0759409
0.134776,-0.0646516
0.253069,-0.08517
0.130847,0.00861727
0.135606,0.0283013
0.233561,0.0238619
0.245244,0.00299884
0.123871,-0.00757698
-0.251757,-0.0269631
-0.38835,-0.0378764
-0.220619,-0.014742
0.0443244,-0.0322438
0.0359188,-0.0418355
-0.118362,-0.0623312
-0.0946317,-0.0196816
0.0446583,-0.0280153
0.0989098,0.0121425
0.0437227,0.0118247
-0.0121355,0.0329694
-0.061676,0.0188267
0.0140933,-0.0204357
0.175762,-0.0133707
0.188482,0.017478
0.00981042,0.00280738
-0.161941,-0.000509159
-0.207503,-0.0061345
-0.170865,-0.00503992
-0.130377,0.0153554
0.0349748,0.0387377
0.0871941,0.0492174
0.0955397,-0.0117606
0.0614809,-0.0946271
-0.0307385,-0.171044
-0.0508906,-0.043742
-0.0808754,0.0615231
0.00193513,0.0312362
0.0353872,-0.0795633
-0.0604684,-0.174968
0.0224661,-0.0491533
0.180255,0.0606199
0.15116,0.205762
-0.0833932,0.14678
-0.152707,0.0719042
-0.00680121,0.0368264
0.0495017,-0.0379769
-0.0330317,0.0308411
0.002252,0.124432
0.0864952,0.0371283
0.150954,-0.129685
0.169175,-0.110966
0.0949377,-0.000683427
-0.00929198,0.0116695
-0.0566154,0.0253222
-0.115742,0.0397247
-0.105237,0.0287343
-0.0771522,0.0508654
-0.0941386,0.0640067
-0.0593185,0.00614014
-0.0139525,-0.0505365
0.0052091,-0.150851
0.0325164,-0.131322
0.0736225,-0.179293
0.107527,-0.0828661
0.0711342,0.0923312
0.0507055,0.0191578
0.0805897,0.176405
0.0710818,0.111358
-0.0919406,-0.169833
-0.20113,-0.236421
-0.104442,-0.2409
0.0174856,0.00556921
-0.0403353,0.243267
-0.117384,0.264264
-0.0652208,0.183997
0.115156,0.173586
0.0785876,0.0848587
-0.0686241,-0.00815671
-0.079032,-0.0446032
0.0216854,0.0165285
0.0300467,0.018175
0.0982219,-0.0147747
0.195047,-0.0315005
0.153126,-0.062864
0.0453686,0.012412
-0.0111525,0.0905574
-0.0389803,-0.0997926
0.0137217,-0.198783
0.0735577,-0.237886
0.0554932,-0.0807137
0.0189649,0.0618822
-0.160691,-0.00819077
-0.294698,-0.0136383
-0.110563,0.0613394
-0.0109251,0.0791097
0.0175528,-0.0166641
-0.0238787,-0.0284493
-0.0145951,0.0339721
0.0538194,0.0936582
0.0156129,0.0520665
-0.00117283,-0.00553109
-0.0444427,0.0774102
-0.0822235,0.0107079
0.0823829,0.0140705
0.201159,0.0266911
0.144028,0.00435332
-0.0192414,-0.0140339
-0.125249,0.0199596
-0.16424,-0.0466271
-0.183297,-0.0665489
0.000550755,-0.0280057
0.0595072,-0.025296
0.0437755,-0.0410727
0.0788951,-0.0296027
0.0745422,-0.0678998
0.0301618,-0.13032
-0.0471465,-0.0582576
-0.0622893,0.0912289
0.0913927,0.0649253
0.205749,0.0466352
0.150387,0.0538771
-0.0442374,0.0806995
-0.114851,0.0649317
-0.0784402,0.0434757
-0.0445584,0.0724445
-0.0229585,0.0145456
-0.0367887,-0.0338864
-0.044095,-0.0725556
-0.0244396,-0.0923704
-0.0696701,-0.10492
-0.0281873,-0.0612527
0.0486122,-0.00783479
0.0285164,0.0197645
-0.02736,0.0531359
-0.0514699,0.0554337
-0.0120484,-0.00152776
-0.00230747,0.0638113
0.0390821,0.105484
0.0588084,0.0122929
0.0150293,0.0274322
0.039274,-0.0524681
0.0382503,-0.0790376
0.012149,-0.0392473
-0.0395563,0.0110346
-0.0309341,-0.0025552
0.0913277,-0.00863243
0.210228,0.0587775
0.203971,0.0407248
0.059905,-0.0226721
-0.155743,-0.0286129
-0.151162,0.0667816
-0.0263247,0.0418985
-0.052169,-0.0697156
0.0121045,-0.066435
0.000201229,-0.0118239
-0.0137434,-0.122926
-0.0184087,-0.0241938
-0.0285846,0.0292015
-0.113552,-0.078006
-0.0851853,-0.13391
0.0361308,-0.0020564
0.0572909,0.136327
-0.0368588,0.0533874
-0.118279,0.0149021
-0.0550752,0.0735499
-0.0648562,0.0860103
-0.0530422,0.0260255
0.0441953,-0.00948436
0.060216,-0.0205607
0.0410426,-0.0188449
0.0668756,-0.00852301
0.0501319,-0.00210503
0.0158096,0.0223165
0.000379054,0.0364481
0.0204752,-0.0341588
0.00979198,-0.022802
0.0156918,0.0340638
0.067694,0.101284
0.0850803,0.0748613
0.0771629,0.0391592
-0.0184341,-0.0403206
-0.0750361,-0.021951
-0.0529882,0.00538853
-0.0157554,-0.06093
-0.0374665,-0.0707201
-0.0409444,-0.0255037
-0.0497103,-0.0560764
-0.0283678,-0.0535955
0.0234015,-0.0141842
0.0561339,0.0609784
-0.0131168,-0.00648341
-0.0402952,-0.0304866
0.055824,-0.0189975
0.115042,-0.0305891
0.0407974,-0.0472131
-0.0643596,-0.0307703
-0.0482375,-0.0300494
-0.0139394,0.0293585
-0.00484851,0.0475968
0.0198475,0.0320978
0.0667618,0.0323229
0.079916,0.00762513
0.139209,0.0332286
0.149823,0.0484713
0.0861654,0.0510038
-0.0563677,0.00299576
-0.193721,-0.0531659
-0.183749,-0.0514651
-0.151282,-0.00938924
-0.0115764,-0.0154385
0.0667659,0.0267114
-0.0364419,0.0834008
-0.0940323,0.038154
-0.0395549,0.0204337
0.0210386,0.0294807
0.0186546,-0.0286716
-0.00926893,-0.112535
-0.0238026,-0.10913
-0.0150426,-0.0653981
-0.0113845,0.0388998
-0.00820371,-0.00554243
-0.000479196,-0.00797548
0.0456663,0.0573882
0.139061,0.0893164
0.151778,0.146643
0.0281188,0.0564076
-0.0798985,0.0374457
-0.101825,0.0443313
-0.0516768,-0.0221353
0.0205237,-0.0183262
0.0765347,0.0153991
0.0608899,7.26e-05
-0.0177481,-0.0100283
-0.110117,-0.0431301
-0.145289,-0.0296806
-0.064971,-0.0261395
0.0622635,-0.00973002
0.113606,-0.0817011
0.0533893,-0.103019
0.00972378,-0.082298
0.0479286,-0.0489961
0.103484,0.0141317
0.0984309,0.0354844
-0.0377001,0.00395834
-0.103315,-0.0321251
-0.0927437,-0.000230567
-0.0816309,0.0156219
-0.00568567,0.0466569
0.0810725,0.0214483
0.0835843,0.050079
0.0115661,0.0555217
-0.0472883,-0.0104419
0.0162486,-0.0346018
0.0160465,-0.0565922
-0.0247118,-0.0744077
0.0225624,-0.0127001
0.0222992,0.0576288
-0.0468396,0.0499354
-0.0773518,0.0290237
-0.105885,0.00927427
-0.0517639,-0.0485639
0.0226345,-0.0915952
0.0463727,-0.0383635
0.0694302,0.0728154
0.0748946,0.0579375
0.0829116,-0.00130472
-0.0118445,-0.00124715
-0.0700756,0.0717394
0.00558659,0.0680462
0.0460802,0.0312721
-0.0146411,0.0287437
-0.0730814,0.00243139
-0.0357562,0.00414961
0.0152495,0.0252565
0.0279319,-0.0213897
-0.0372858,-0.0342769
-0.104491,-0.0691658
-0.035637,-0.0628697
0.0513029,0.0232553
0.0473031,-0.00849226
0.0289615,-0.0370228
0.0688297,0.0145952
0.0989823,0.0387538
0.0317191,0.0428602
-0.0843039,0.0124106
-0.0829155,-0.0231133
-0.0646658,0.00665966
-0.0392996,0.00693232
0.000670608,0.00977063
-0.00607373,0.0126753
0.00191342,0.0522108
0.00321472,-0.0877751
0.0256439,-0.0622327
0.0769382,-0.0124729
0.108866,-0.0999141
0.100652,-0.0212815
0.0460805,0.0349471
-0.0172083,0.00443252
-0.0226078,0.0471114
-0.0629641,0.0496992
-0.11658,0.0402884
-0.135052,0.00976223
-0.023657,-0.00968619
0.0183029,0.00669565
-0.00407359,0.0315321
0.00195307,0.00503785
0.00976542,0.00639614
0.00219872,0.000330642
0.000486136,0.00314636
0.00330886,-0.00688702
0.0207443,-0.0158528
0.0796197,-0.130245
0.100508,-0.143886
0.0646418,-0.0352492
0.00511056,0.0378807
-0.0289476,0.0938866
0.0002805,0.108168
-0.01731,0.0467641
-0.046779,0.023974
-0.0349391,0.0303632
-0.0293955,-0.0216534
0.0315198,-0.0926796
0.129712,0.00107581
0.0897138,0.0406646
-0.0366044,0.0358262
-0.15635,0.0146636
-0.188444,-0.00769469
-0.124854,-0.0127351
-0.0455124,-0.0591242
0.0417483,-0.0407039
0.0600215,-0.0444909
0.0571048,-0.0259013
0.0530717,-0.0453586
0.0373674,-0.0463103
0.022305,-0.00799837
0.033783,0.0135104
0.01163,0.0487674
0.00781414,0.151261
-0.00845674,0.150829
-0.00650903,0.0747596
0.0644313,0.0339146
0.0770824,-0.0072525
0.0358072,0.00940783
-0.00823228,0.0201342
-0.0903483,-0.0828916
-0.1223,-0.0886984
-0.0452085,-0.0504112
0.00258702,-0.0185486
0.0269748,0.044821
0.0536016,0.0269764
0.0256452,-0.0316604
-0.00649213,-0.00535745
-0.019793,0.012777
-0.000257545,0.0167238
0.00225263,0.00906627
-0.0179286,0.0211606
-0.0509523,0.0371342
-0.033194,-0.00994026
0.0319629,-0.0508369
0.0417976,-0.0718798
0.00953252,-0.0682029
-0.0228006,-0.0702924
-0.0193694,-0.0843048
0.0186806,-0.0821909
0.0336612,-0.00622062
0.0309468,-0.0633365
0.02752,-0.0475338
-0.00258967,0.0349
-0.0176891,0.108041
-0.0317986,0.0922325
0.018629,0.0813009
0.0725521,0.136001
0.0308627,0.18287
-0.043751,0.103558
-0.0737825,0.026964
-0.0484397,-0.014787
-0.0295052,-0.0276164
0.0420174,-0.0614794
0.0507406,-0.018376
-0.0233123,-0.0401217
-0.0840573,-0.114649
-0.0474351,-0.289063
0.0299431,-0.32032
0.0366999,-0.283606
0.010946,-0.115529
-0.0224816,0.109691
-0.0315663,0.268255
0.00681566,0.332169
0.0283157,0.327295
0.0243476,0.180493
0.0360679,0.00340074
0.0324634,-0.0620999
-0.0277381,-0.121079
-0.108106,-0.000134157
-0.112648,0.105046
-0.0273838,0.0841759
0.0543616,0.0910624
0.0902531,0.121801
0.0877409,0.0982771
0.0635881,0.0622488
0.0618728,-0.0304768
0.0986755,-0.0992502
0.0545073,-0.181147
-0.0222178,-0.181429
-0.0365208,-0.173031
-0.0232675,-0.306225
-0.0202362,-0.346239
-0.0343,-0.152423
-0.0510283,0.023121
-0.0264757,0.0756867
0.0126557,0.117727
0.0386413,0.0483111
0.0384312,0.0887638
-0.0266364,-0.0239185
-0.047125,-0.165831
-0.0456758,-0.0860102
-0.0579088,0.085225
-0.0529243,0.192767
-0.0364717,0.350035
-0.0430132,0.38559
0.011738,0.225428
0.0954802,0.00842399
0.0968984,-0.0576403
0.00316357,-0.114456
-0.0756696,-0.0972032
-0.0943633,-0.0114785
-0.0566652,0.0884231
0.00730711,0.115855
0.0520525,0.0423848
0.0637766,-0.035229
0.0973273,-0.0769865
0.108261,-0.066963
0.0429061,-0.0412473
-0.0464553,0.00110063
-0.0947796,0.0207031
-0.0525539,-0.0554241
-0.00995771,-0.124043
-0.00546017,-0.124032
-0.00675954,-0.111108
-0.00557955,-0.115539
0.0107664,-0.10815
0.0360611,-0.0441803
0.0265285,0.0835049
0.00410685,0.145212
0.00957639,0.0979277
0.011966,0.0648389
-0.000979782,-0.0446409
-0.0301028,-0.0512736
-0.0434574,0.0306897
-0.0084892,0.0763738
0.0174232,0.038197
0.0185756,-0.00955719
0.0112156,-0.00598254
-0.0210996,-0.100671
-0.0238835,-0.160335
0.00926055,0.0330002
0.00866378,0.0813214
-0.00231402,0.0273433
-0.0198352,-0.0072094
-0.0321167,-0.0280883
-0.0268268,-0.0093318
-0.0358237,0.025193
-0.0221847,0.0475409
0.00543487,0.0263223
0.0166379,0.00863486
0.0544822,0.00827552
0.0637417,-0.0657089
0.0393819,-0.155409
0.0177969,-0.0510306
-0.0235455,0.0486086
-0.0300134,0.0995855
-0.0390437,0.0977233
0.030966,0.00867925
0.0725816,-0.0566733
0.0572208,-0.014847
0.034084,0.0339481
0.0088272,0.0567181
0.00574554,0.147786
-0.0364841,0.142823
-0.0748234,-0.0343437
-0.0226223,-0.0880205
0.0438294,-0.0846158
0.0676289,-0.0167688
0.00999003,0.0480551
-0.0747222,0.053849
-0.111826,0.00925869
-0.107127,-0.0132311
-0.061738,-0.0424912
-0.017806,-0.0349154
0.0171148,-0.0493798
0.052884,-0.0703115
0.0606634,-0.0372588
0.078703,-0.0179386
0.0832037,-0.0362816
0.0471624,-0.0260596
0.0107443,-0.0245834
0.0173021,0.0453613
-0.0153648,0.110295
-0.0506339,0.0973849
-0.0449841,0.0491225
-0.0222534,-0.00219266
-0.00820988,-0.0373361
-0.0113778,-0.013761
-0.0434053,0.00934855
-0.0555333,-0.0174733
-0.0353508,-0.000855163
-0.036713,-0.098928
-0.0120111,-0.139129
0.0171539,-0.0466827
0.027971,0.0108337
0.104498,0.0650853
0.0729578,0.105337
0.0110068,0.0642082
0.0197014,0.0172929
0.0181158,-0.0359967
0.0172286,-0.037004
0.0300338,-0.0817786
0.0243219,-0.0596896
-0.011137,0.0233191
-0.069623,0.0222671
-0.0836621,0.0692687
-0.0292434,0.0150924
0.0383664,-0.0746948
0.0626327,-0.0582211
0.0252994,0.066629
-0.0313814,-0.0459449
-0.0459586,-0.0227615
-0.0471317,0.0779248
-0.0530221,0.139193
-0.0523805,0.137852
-0.0528235,0.0543597
-0.0276351,-0.0199866
0.028617,-0.09802
0.0725101,-0.122651
0.091193,-0.0744086
0.0825783,0.0146928
0.0484459,-0.00914486
-0.00202668,0.0697033
-0.0480501,0.136061
-0.00495194,0.0429785
-0.00320744,-0.0369374
-0.0513011,-0.0274204
-0.0547222,-0.00398328
-0.0124687,-0.0147409
0.0233664,0.0184998
0.0334304,0.0615192
0.0388284,-0.0877673
0.0390492,-0.105697
0.0337369,-0.0103178
0.0192001,0.0421485
-0.0367447,0.168257
-0.0764385,0.0569579
-0.0435413,-0.110765
-0.0173748,-0.0393235
-0.0121713,-0.023013
-0.00304189,-0.0300511
0.01155,-0.0119652
0.011345,-0.0433439
0.00714428,-0.0565118
0.00901802,0.0804336
-0.00484059,0.108428
-0.00944924,0.0318024
0.0101289,-0.0441674
0.0134292,-0.0225798
0.00153782,0.0077173
-0.00251981,-0.0426237
-0.00261741,-0.031019
0.0108256,-0.0655511
0.0303101,-0.091915
0.0606078,-0.0932182
0.0950127,-0.0357485
0.056076,0.0130586
-0.0107187,0.109009
-0.060575,0.114948
-0.0599644,0.0338707
-0.0407149,-0.0941619
-0.0383154,-0.261639
-0.0243027,-0.211885
-0.00722012,0.00366089
-0.00730484,0.21961
-0.029625,0.266289
-0.0393965,0.247191
-0.0440585,0.156583
-0.0201276,0.0680826
0.0379034,-0.0178756
0.0480197,-0.0592664
0.0064647,-0.0556117
-0.0113181,-0.111777
-0.00785587,-0.12014
0.011927,-0.0569518
0.0432936,0.0075557
0.0314224,-0.03876
0.00362101,-0.105727
-0.0301639,0.0326964
-0.00568466,0.183324
0.0369485,0.0422858
0.049924,-0.0223078
0.0389282,0.000789428
0.0455013,-0.0229028
0.033156,-0.169112
-0.0170629,-0.122334
-0.0583238,-0.0174013
-0.0610407,0.0280262
-0.0482569,0.0966057
-0.0263457,0.181589
0.00776113,0.110869
0.0211002,0.0284262
0.0197033,0.0344987
0.00564329,0.00531445
-0.0200017,-0.039651
-0.0382247,-0.0976537
-0.0185733,-0.153742
0.00656439,-0.20147
0.0120145,-0.0930417
-0.00176089,0.0600226
-0.00680542,0.0493108
-0.00186657,0.13768
-0.00839622,0.103229
-0.0105939,0.0690006
0.00513898,0.12185
0.0265817,0.110735
0.0344909,0.0831631
0.0352656,-0.0164492
0.0626272,-0.0917789
0.085392,-0.117734
0.0571716,-0.150487
0.0105502,-0.118775
-0.0144928,-0.00983433
-0.0446173,0.0644758
-0.0761235,0.0493893
-0.0710157,0.0629191
-0.0726358,0.0652668
-0.0710163,-0.0176169
-0.0303874,-0.0646098
0.00717262,-0.0341454
0.0150096,-0.0532118
0.0184669,-0.0332665
0.0187474,0.0540422
0.00128618,0.0332598
0.000631817,0.0623627
0.0151914,0.0549789
0.0450516,0.0404937
0.0984789,0.0442788
0.0901772,0.0254888
0.0108349,-0.0111733
-0.0539559,-0.0139703
-0.0617986,-0.0389896
-0.0367878,-0.094932
-0.0404449,-0.0692981
-0.0409459,-0.0242515
-0.0212022,-0.016369
-0.00914176,-0.00988864
0.000797354,0.017971
-0.00280061,-0.0176069
-0.00766293,-0.0783052
-0.000453497,-0.0673875
0.00184147,-0.00785783
0.00440664,0.0171592
0.0191314,0.0301634
0.0256161,0.0620708
0.0250992,0.036266
0.0252213,0.00319084
0.00428808,0.0180101
-0.00396379,0.0351339
0.0245596,0.0491033
0.0308001,0.0128955
0.00595519,-0.0242405
-0.0503414,-0.0510195
-0.0739265,-0.0403794
-0.044951,0.0213971
-0.0015542,0.00722419
0.00405608,-0.00288231
0.00776759,-0.0275754
0.0372544,-0.00895288
0.0469827,0.00391631
0.0338375,-0.00759025
0.0115497,0.0571379
-0.00538031,0.0615481
-0.00236225,0.00364356
0.00623997,-0.0556078
0.00783745,0.00870199
-0.00725222,0.0297679
0.01465,0.0234857
0.0471332,0.0379216
0.0409018,0.0191203
-0.00214553,-0.104552
0.00266022,-0.00246387
0.00610221,-0.0165328
-0.0248767,-0.0478821
-0.0695901,0.0260256
-0.116746,0.00279401
-0.102372,-0.0468374
-0.0343956,0.0184022
0.0119975,0.0358546
0.0462296,0.0427291
0.0673473,0.0298899
0.0510681,-0.0545386
0.0197076,0.0369576
0.00663508,0.0436203
0.00475039,0.0717083
-0.0035313,-0.0578233
-0.0215157,-0.0179108
-0.0616981,0.0230232
-0.0499958,-0.0482695
0.0014292,-0.0484914
0.00976386,0.0145324
0.0221067,0.00131319
0.058716,-0.014211
0.0819244,0.0662742
0.00387847,-0.0869768
-0.0111421,-0.106788
0.0106938,0.003502
0.0210568,-0.0574229
0.0303647,-0.0178254
0.00989002,0.0712953
0.00315204,0.0459799
0.0222646,-0.0834359
0.0357768,-0.0382797
-0.00289892,0.0942935
-0.0496553,0.123429
-0.095307,0.0465347
-0.0964383,-0.0177072
-0.0490232,-0.00523172
0.00787077,0.061672
0.0412923,0.0187616
0.0270233,-0.0380229
-0.0422988,-0.0605887
-0.102513,-0.096573
-0.0688545,-0.103751
-0.0197288,-0.0768228
0.000239774,0.0197604
0.0747427,0.216933
0.133977,0.0939068
0.12316,0.00176438
0.120486,-0.000679227
0.133287,0.0288746
0.10144,0.0623747
-0.00328218,-0.0103109
-0.122756,0.0369581
-0.206893,0.120582
-0.182616,0.0767778
-0.0942566,-0.0578597
-0.0204924,-0.122651
0.0800993,-0.0471029
0.0950801,-0.0920449
0.0185328,-0.103588
-0.0519838,0.0932998
-0.0740951,0.082207
0.00453714,-0.0252877
0.0631428,-0.0668214
0.0936189,-0.0585641
0.0792972,-0.0421613
0.020048,-0.039617
-0.0413139,-0.0161259
-0.0549954,-0.0856217
-0.0439745,-0.0271073
-0.0350132,0.0327156
-0.0218519,0.0403189
-0.00285649,0.0137019
0.0377987,0.0152397
0.0289534,0.0163141
0.0560028,0.0498607
0.0746508,0.0866096
0.0448881,0.111495
-0.00931051,-0.0468119
-0.109101,-0.0137762
-0.165027,0.0417601
-0.0734754,-0.0363461
0.018652,-0.0684768
0.0277047,-0.011699
0.0389798,-0.0605055
0.0737392,-0.0427324
0.130493,0.00551081
0.110465,0.0745748
0.0536389,0.0265735
0.0334945,0.0463677
0.0170508,0.0961184
-0.00721396,-0.00534151
-0.0360817,-0.0961377
-0.147418,-0.0527398
-0.190294,-0.0163545
-0.0852609,0.0239658
-0.0398792,-0.016635
-0.0713773,-0.0758262
-0.00781591,-0.0022595
0.0785004,0.0692913
0.125117,-0.0121503
0.102543,-0.030262
0.0485277,0.00454689
-0.0154179,0.0224003
-0.041529,0.128702
-0.0492192,-0.0462312
-0.0309426,-0.0326139
0.015203,0.0286254
0.0382309,-0.000699269
-0.00221619,-0.0342735
-0.00867691,-0.0452675
0.0114374,-0.00147544
-0.0388424,0.00827316
-0.0668506,-0.0143114
-0.0643367,0.0179543
-0.0316306,0.156523
0.0297196,0.0151078
0.119961,-0.064976
0.107721,0.0384673
0.046571,0.023147
0.0128662,-0.034302
-0.0120327,-0.0792918
-0.0233547,-0.0634767
0.00598823,-0.0292925
-0.0493725,-0.0338034
-0.0444386,-0.0372494
0.0303252,0.0599022
0.102698,0.0936443
0.117599,-0.02194
0.101699,-0.0224309
-0.0162901,-0.0545633
-0.163839,-0.166292
-0.178795,-0.17388
-0.0870764,-0.087797
-0.0131794,0.0325208
0.0493063,0.131501
0.0487892,0.266358
-0.0425413,0.251689
-0.0572699,0.133555
-0.00602848,0.0762649
0.020781,0.057986
0.0431534,-0.0374036
0.0424885,-0.137703
0.00386455,-0.0981578
0.0122532,0.0165618
0.0274913,0.0362533
0.0244355,-0.0221271
-0.000640954,-0.0486832
-0.0492672,-0.0822238
-0.0659912,-0.0547003
-0.0329745,-0.199339
0.0521353,-0.12694
0.123991,0.156185
0.12861,0.100774
0.0960443,-0.00855702
0.00257421,0.0772259
-0.164275,-0.00129848
-0.259563,-0.0570799
-0.171534,0.0231813
0.0606605,0.0653493
0.160076,0.0119485
0.198274,0.121418
0.101251,0.218755
-0.0274332,-0.0380932
-0.0632105,-0.222916
-0.118057,-0.247979
-0.231646,-0.0922257
-0.19724,-0.0401778
0.0415855,-0.0510568
0.219581,0.0300487
0.178175,0.221256
0.0325151,0.163439
-0.00910333,-0.0223253
0.0414563,-0.0631422
0.0422456,0.0414456
-0.0620237,-0.0096759
-0.0587579,-0.000529656
0.00362193,-0.00165554
0.0359512,0.00302127
-0.0406707,0.00177569
-0.140882,0.049227
-0.101525,0.0725916
0.0092076,0.0607304
0.149026,0.0100909
0.284776,-0.145798
0.346798,-0.0731146
0.177999,-0.054995
-0.0212765,-0.309269
-0.256976,-0.261808
-0.326024,0.195273
-0.138456,0.209225
0.0897824,0.0844939
0.10493,0.192212
0.0237959,0.101936
-0.0645168,-0.152055
-0.144199,-0.347856
-0.117413,-0.140686
-0.056353,0.273266
-0.0895666,0.235509
0.0089527,-0.0640214
0.00732247,-0.151664
0.00167849,-0.0389677
-0.00508651,0.0691041
-0.178126,-0.0150259
-0.254596,-0.201507
-0.00879144,-0.108048
0.153051,0.108864
0.015268,0.122052
0.0132754,0.0254268
0.145877,0.0334251
0.127248,0.0816997
0.124602,0.108558
0.293067,0.0956043
0.354256,0.11219
0.288059,0.125871
0.166748,0.144929
-0.174544,0.00807031
-0.254452,0.00359729
-0.141072,-0.00751428
-0.0123884,-0.0956561
0.0142286,-0.0631117
-0.0394774,-0.0756417
-0.109281,0.00217848
-0.247706,-0.0184705
-0.184861,-0.200317
-0.0402286,-0.214108
0.0599154,-0.0483762
0.177727,0.121792
0.161118,0.0573744
0.0515596,0.0448649
-0.0108478,-0.079522
-0.00311334,-0.13835
-0.0260769,-0.198849
-0.0803688,-0.170462
-0.100216,0.196368
-0.183982,0.254337
-0.217505,0.0388417
-0.186843,-0.116156
-0.191106,-0.0204678
-0.197986,0.185583
-0.0647357,0.158224
0.14903,0.0942135
0.257532,0.0202325
0.21205,-0.131329
0.205242,-0.172746
0.232445,-0.297284
0.218443,-0.202585
0.171148,0.00351686
0.148995,0.268886
-0.0181972,0.281912
-0.0710467,0.286515
0.000919895,0.260728
-0.0893237,-0.0195351
-0.0730273,-0.232113
0.0579778,-0.215047
0.00136523,-0.115752
-0.139751,0.103321
-0.184001,0.0899688
-0.259314,-0.0663878
-0.236678,-0.00625567
-0.0940884,0.112936
0.0622435,0.0419523
0.206835,-0.000166381
0.234979,0.011197
0.19931,-0.0589371
0.148431,0.0225272
-0.0928126,0.0413441
-0.348052,-0.105287
-0.417937,-0.0216779
-0.231652,0.0772163
0.0617677,-0.055481
0.0976103,-0.203829
0.113897,-0.155461
0.251645,0.0251715
0.28125,0.00665718
0.190847,0.05456
0.128441,0.0746997
0.0138389,-0.00352144
-0.0877473,-0.109855
-0.0939545,-0.126091
-0.0568422,0.0108647
-0.0707111,0.21279
-0.0447621,-0.00114781
-0.0435508,-0.493056
-0.125432,-0.481656
-0.0834486,-0.0102111
0.053758,0.287725
0.146356,0.410724
0.159576,0.315906
0.102886,0.056572
0.0848887,-0.0723764
0.096959,-0.0650568
0.034795,-0.0855091
-0.0538432,0.0467113
-0.10619,0.0766158
-0.129267,0.146051
-0.159327,0.152183
-0.122642,0.13036
-0.082209,0.0406211
-0.0701932,-0.0744625
-0.0646174,-0.0669716
-0.0455141,0.00149939
0.0121152,0.169768
0.087706,0.117208
0.141889,-0.0659806
0.119968,0.0738998
0.0417157,0.109806
-0.029778,-0.0300145
-0.00919657,-0.101866
0.0490194,-0.0375979
-0.00471884,-0.106259
-0.0682597,-0.121255
-0.064548,-0.036432
-0.0734975,-0.432379
-0.1168,-0.948372
-0.105628,-0.481943
-0.0712257,0.197442
0.0246638,0.437698
0.0586481,0.392465
-0.0115523,0.451095
0.0229241,0.476695
0.215688,0.281637
0.356451,-0.0512719
0.371027,-0.252405
0.302747,-0.229259
0.0595922,-0.103004
-0.263949,-0.00878009
-0.370233,0.15405
-0.230303,0.236034
-0.0114615,0.210121
0.260361,0.046827
0.371158,-0.0109285
0.00860826,-0.180897
-0.259968,-0.363233
-0.095045,-0.311745
0.0667953,-0.0867891
0.0104914,-0.0037983
-0.0195508,0.0302632
-0.0673606,0.0941423
-0.160186,0.134612
-0.206439,0.0770315
-0.105123,0.0132841
-0.035125,0.0234138
0.0226619,0.132076
0.0939728,0.0558175
0.0955343,-0.0775111
0.0498647,-0.144459
-0.0787908,0.150281
-0.225385,0.14423
-0.21428,-0.0480162
-0.0225742,-0.108483
0.00684758,-0.0133133
-0.0296157,-0.0433985
0.0891998,-0.0304805
0.237256,0.0150925
0.24724,0.00845416
0.121277,-0.0113711
-0.0792309,-0.055142
-0.183856,-0.0470771
-0.168176,-0.0213092
0.105908,-0.00177711
0.295251,0.00730638
0.179253,0.0350312
-0.0545462,0.043795
-0.233228,-0.00920538
-0.170951,0.0230237
0.0183693,0.0381989
0.110935,-0.0110441
0.0772372,-0.0855922
-0.0375724,-0.126684
-0.113444,-0.121103
-0.0650076,-0.0452063
-0.034775,-0.0593297
-0.00538382,0.0022343
0.00771419,0.015537
0.0747505,0.0715047
0.121017,0.04547
0.149779,-0.138005
0.108098,-0.141369
-0.0284385,0.0870893
0.0552773,0.273568
0.181432,0.146699
0.145723,0.057284
-0.0701728,0.11531
-0.28058,0.122633
-0.31092,-0.0220586
-0.244865,-0.0316664
-0.110867,-0.122611
0.00930846,-0.019512
0.0350005,0.156313
0.0136083,-0.0178294
-0.045665,-0.0667691
-0.0563769,-0.069198
-0.0342962,-0.0689495
0.00369713,0.0317279
0.0377564,0.120671
0.0966013,0.0536371
0.0761135,0.0958014
0.0117207,0.0215268
0.000436571,-0.0976137
0.0153603,-0.00649397
-0.0594175,-0.0461179
-0.0891654,-0.0802161
0.0114975,-0.0327009
0.0972048,-0.0109949
0.13815,-0.0358248
0.117942,-0.0513519
0.0220239,-0.046392
-0.0308255,-0.0387558
0.00304049,-0.00606373
0.0350299,0.0445554
-0.0254861,-0.0284324
-0.0955528,-0.0550944
-0.0433637,0.0742101
0.0325625,0.0877861
0.0235959,0.0379975
-0.0419601,0.0848359
-0.0593244,0.0301978
0.027725,-0.116281
0.102669,-0.0616306
0.131437,0.0111106
0.130214,0.0331626
0.0770435,0.0285692
0.0080913,0.0108267
-0.0606659,-0.0390763
-0.0774638,-0.0769497
-0.0883798,-0.0638454
-0.0877008,-0.0286357
-0.0662353,0.023782
-0.0434674,0.0211651
-0.0310423,0.0187864
-0.0265507,0.12074
0.0103793,0.132813
0.0759546,0.00735394
0.133143,-0.0811303
0.128336,-0.0165355
0.0742206,0.00932153
-0.00357234,-0.0589269
-0.0390875,-0.0711326
-0.0911553,-0.00719362
-0.148963,-0.021444
-0.0698389,-0.016558
-0.0272761,-0.0069278
-0.0164702,-0.019907
-0.00239646,0.0276011
-0.00254995,0.0450838
0.00703033,0.0162902
0.0178218,0.0106076
0.0594823,0.0582249
0.145091,-0.0739588
0.173636,-0.0812816
0.120403,-0.00160255
0.00559108,0.0323517
-0.0812658,0.0504308
-0.0828534,0.0937926
-0.0924232,0.0675196
-0.0783892,0.00850291
-0.0711072,-0.00797973
-0.0680196,-0.0157242
-0.0412285,-0.00309641
-0.0428252,0.0351547
-0.0372302,0.0385299
0.0256952,0.0118209
0.0547731,-0.0164802
0.0118585,-0.0284223
-0.00970413,-0.020316
-0.0411727,-0.0341725
-0.03412,-0.053322
0.0152214,-0.07182
0.0520982,-0.0388338
0.0618723,-0.0273091
0.084388,-0.0862244
0.0760618,-0.0392206
0.0544988,0.0692713
0.0511313,0.0527289
0.0449153,0.0293948
0.00992655,-0.0432456
-0.00201004,0.00369036
0.00150657,0.0865632
-0.0730958,-0.000742268
-0.0959378,0.0142308
-0.0109865,0.0547858
0.0751399,0.115131
0.0482649,0.00282561
-0.0616336,-0.126607
-0.103748,-0.0513214
-0.069799,-0.0580494
-0.00600014,-0.0498441
0.0560531,-0.0145662
0.0568206,0.0741628
-0.0193479,0.118991
-0.0732494,0.0454458
-0.0854039,0.00934595
-0.0630092,0.0294678
-0.00652796,0.070854
0.00911131,-0.00329678
0.00290647,-0.0320654
0.0395106,-0.0122088
0.0375804,-0.0260456
0.0216071,-0.0811634
0.0164052,-0.180451
0.00956939,-0.237551
0.026544,-0.122921
0.0553573,0.0926871
0.0738838,0.201887
0.0597911,0.164454
0.0338497,0.151441
0.00215812,0.0573343
-0.0152741,-0.0505715
-0.00703761,-0.201447
0.0303621,-0.214073
0.0102912,-0.136018
-0.0407754,0.00558602
-0.107705,0.189787
-0.111243,0.135497
-0.0582849,0.0695316
-0.0684246,0.0879532
-0.0937072,0.0558262
-0.0537908,0.0616418
0.0164458,0.0492424
0.0840089,-0.00518405
0.0700076,-0.034706
0.0533832,-0.0847884
0.0874469,-0.0456251
0.0883883,0.036179
0.0203641,0.0243165
-0.0586636,-0.00317267
-0.0958441,0.0682336
-0.10436,-0.143152
-0.0488677,-0.309891
0.0174477,-0.303203
0.0281384,-0.118581
0.0301669,0.131288
0.034032,0.259979
0.0222595,0.282459
0.0120585,0.200729
0.0391522,0.0668152
0.120274,0.00350018
0.151095,-0.0127665
0.066457,0.002696
-0.0237155,-0.0223603
-0.098325,-0.0517878
-0.113569,-0.025407
-0.0616215,-0.00758237
-0.0361831,0.0192068
-0.040319,0.0574391
-0.0283008,-0.00234948
-0.029909,0.0156792
-0.017519,0.0252373
0.00902677,-0.0353577
0.0203504,-0.075526
0.0349998,-0.0962208
0.0451464,-0.158003
0.0141585,-0.164484
-0.00891504,-0.0963631
-0.00674959,-0.129687
0.014632,-0.0352353
0.0187744,0.18921
-0.0103373,0.218659
-0.0209956,0.101685
0.0122983,0.0339844
0.0284112,0.00084436
0.0295392,0.0137932
0.0264618,0.0145896
-0.00413814,0.021332
-0.0319911,0.025712
-0.0329167,0.0171126
-0.0162231,0.0284027
-0.0133017,0.0124341
-0.0189711,-0.0382257
0.0102221,-0.0571489
0.025087,-0.0502838
0.010066,0.0419571
-0.00546408,-0.033674
-0.0307776,-0.0950165
-0.0659147,0.0151999
-0.115541,0.0193242
-0.0734674,-0.0345421
0.0527429,-0.00762039
0.15159,0.0171172
0.145736,0.0340188
0.0573006,0.0669955
0.00351743,0.0296196
-0.00118206,0.0152279
-0.0504486,0.0445919
-0.0443904,-0.0142047
-0.0100802,-0.067474
-0.00483048,-0.0320762
-0.00951953,-0.0349926
0.00582176,-0.0505956
0.00238338,-0.0741115
-0.0263855,-0.0332747
-0.0483579,0.00630316
-0.0418796,0.0322846
-0.0325311,0.023961
-0.0365684,0.0516973
-0.0491092,0.0784016
-0.0171782,0.0614327
0.0972091,0.0458995
0.203219,0.0826013
0.182883,0.034585
0.0624721,-0.0217614
-0.0827202,-0.0774278
-0.115637,-0.0598782
-0.0668012,-0.0906147
-0.0482294,-0.0978201
-0.022209,-0.0832944
-0.00234009,-0.0504845
0.0201759,0.043892
0.0399673,0.103858
0.018932,0.0865665
-0.0377651,0.0784931
-0.0353607,0.0858855
0.0354203,0.0263141
0.0453463,0.0319028
-0.0532049,-0.010625
-0.116282,0.0195563
-0.104077,-0.00435356
-0.0163313,-0.0490503
0.0277916,-0.105825
0.0443849,-0.115186
0.0584318,-0.147802
0.103587,-0.115302
0.0963236,-0.0448572
0.0417192,0.0394395
0.0266465,0.106522
0.0238415,0.155456
0.011557,0.194096
-0.0405809,0.108126
-0.0773235,0.0161761
-0.063305,-0.0324344
-0.0529279,-0.0526021
-0.0637177,-0.0352064
-0.032437,0.00602659
0.0309217,-0.0518608
0.0799372,-0.0997066
0.0578862,-0.0813191
-0.00853006,0.0323553
-0.0585614,0.179242
-0.0491766,0.139413
0.000250606,-0.0436937
0.0102468,-0.036261
-0.00689288,-0.0228089
-0.0209133,-0.057925
-0.0220485,-0.0476893
-0.0232584,-0.0621548
0.00916718,-0.0983354
0.0388535,-0.0927753
0.035321,-0.00411068
0.00862507,0.0827444
0.01022,0.0683238
0.0199698,0.0469592
0.0253526,0.0484462
0.0215455,0.0212662
0.0363628,-0.0417286
0.0503537,-0.042001
0.0399291,-0.0300602
0.0573407,-0.0370977
0.0912672,-0.00658762
0.0373129,0.0142302
-0.052543,-0.0327953
-0.122676,0.05777
-0.151766,0.137215
-0.153963,0.0683113
-0.106388,-0.0166414
-0.0639888,-0.0168025
-0.0411722,-0.00584454
0.0101373,-0.00418251
0.0770334,-0.00975347
0.107376,-0.00818085
0.0751834,-0.0130866
0.0535835,-0.00807375
0.0532206,-0.0386313
0.0391188,-0.0346747
0.00748356,-0.0966109
-0.00547261,-0.112492
0.0167985,-0.0632436
0.0594112,0.111929
0.0370834,0.134652
-0.00682939,0.0196063
-0.0362277,0.040207
-0.0195187,0.0734219
-0.0215665,-0.0334503
-0.0567042,-0.0637884
-0.0339632,-0.0552544
0.00305742,-0.0474982
-0.00172053,-0.0735268
-0.0158608,-0.035314
-0.00863934,0.0734432
-0.0236752,0.0503708
-0.0143703,0.10465
0.00889277,0.162283
0.016266,0.0971943
0.00391506,-0.0532845
-0.0429509,-0.132283
-0.0787965,-0.0544775
-0.0362162,-0.000237242
0.02739,-0.0765544
0.0486501,-0.122944
0.0367434,-0.0535492
0.0414932,0.0416116
0.0433372,0.0614066
0.0406403,0.0894528
0.0347873,0.128552
0.0271708,0.0402577
0.0109566,0.00724039
-0.0207623,0.0199744
-0.0229835,-0.0215744
-0.0450618,-0.0227427
-0.0612358,-0.0702886
-0.0535598,-0.0488233
-0.0309288,-0.00624705
-0.014619,0.0767658
0.00141495,0.0222319
0.0361844,-0.00786641
0.0332805,-0.0184241
0.0239533,-0.0152301
0.0331541,-0.00871978
0.0154656,-0.0293162
-0.0187877,-0.0132496
-0.0409361,0.0337505
-0.0502938,-0.00465428
-0.00646007,-0.0337627
0.0175055,0.00665992
0.00179596,-0.000765303
-0.00581616,-0.00573787
-0.00932816,0.0208506
-0.0157889,-0.0270621
-0.00421061,-0.0529852
-0.00291233,0.0252701
-0.0226643,-0.0146361
-0.0120281,-0.0122491
0.0308347,0.0550743
0.0509229,-0.0238596
0.0687955,-0.0159565
0.0654095,-0.0308872
0.0506866,-0.017712
0.0594461,0.01241
0.0879352,0.00750589
0.0901261,0.0200894
0.0326484,0.0191461
0.00255436,0.0279701
0.0181059,0.0269026
-0.038266,-0.0280787
-0.137248,-0.0788151
-0.185906,-0.0591241
-0.125721,0.0328985
-0.0708085,0.121483
-0.0507448,0.0399661
-0.0155204,0.0139295
0.00544308,-0.0114866
0.0548813,-0.0068016
0.0953886,0.0500813
0.0754618,-0.00988058
0.0258643,0.00775972
-0.0382272,0.0325165
-0.0923744,-0.0303663
-0.0465502,-0.0876944
-0.00840394,-0.114633
-0.0151538,-0.0868347
0.00316354,0.00569245
0.0233147,0.0577826
0.0318396,0.0606988
0.0389286,0.0497617
0.0195161,-0.0023818
0.00501706,0.0191855
0.0193765,0.04974
0.017789,-0.0230763
0.0180075,0.0117191
-0.0145284,0.0745847
-0.0192493,0.120399
0.0245677,0.111753
0.0340998,-0.0866942
-0.000485916,-0.119894
-0.0241594,-0.0366441
-0.040442,-0.0399075
-0.0506566,-0.0461951
-0.0182534,-0.00832911
0.00619666,-0.0393881
0.0225325,-0.0917451
0.0499802,-0.0483744
0.0848652,0.0953197
0.105154,0.0888642
0.135669,0.0052394
0.161195,0.0446468
0.0838693,-0.00785663
-0.0745343,-0.068002
-0.193668,-0.0363192
-0.251268,-0.0946929
-0.201555,-0.0458688
-0.106379,0.0911236
-0.0307981,0.0714215
0.000692957,-0.0853961
0.014696,-0.0825588
0.0371098,-0.0208125
0.0503935,0.045953
0.0352263,0.0966602
0.025858,0.122226
0.063502,0.10724
0.0744781,-0.0639339
0.0453655,-0.153255
0.0157389,-0.0693329
0.0167022,0.0122851
-0.000605291,0.111247
-0.038186,0.073118
-0.0100915,0.0352357
-0.000134714,0.0670747
-0.0306133,0.082968
-0.0426731,0.0230841
-0.0435559,-0.0460105
-0.0416577,-0.0522758
-0.0212624,0.00899847
0.00685228,0.0129533
0.0365688,-0.0572325
0.0209646,-0.0712791
-0.0573994,-0.0471796
-0.0564392,0.0231437
0.0320506,0.00355069
0.0717083,-0.0127553
0.10566,-0.029712
0.0609913,-0.0954982
0.0136272,-0.102006
0.0139771,-0.0445299
0.00779024,0.0166739
0.0206533,0.0337141
0.0352447,0.0387912
0.011656,0.0929753
0.0393613,0.119834
0.0667078,0.0545275
-0.023464,-0.0160053
-0.119953,-0.065273
-0.0825545,-0.052761
-0.0377642,-0.0240455
-0.0390853,0.0657001
-0.0358896,0.0519686
-0.053934,-0.0134041
-0.0576653,-0.0337105
-0.0180341,-0.00901548
0.000396833,-0.0180403
-0.00109448,0.0195724
0.0353191,0.0545475
0.0703876,-0.0171498
0.0531809,-0.108646
0.0129377,0.00332121
-0.0325155,0.0792512
-0.0285859,0.00213579
0.0574921,-0.0565161
0.134555,-0.0511649
0.109519,0.0311838
-0.0083366,-0.0175248
-0.117605,-0.0611685
-0.119345,0.0975577
-0.0761628,0.109548
-0.0414965,-0.00230918
-0.0132585,-0.110343
-0.000942029,-0.0845744
-0.00201383,-0.0333957
0.0330684,0.0411881
0.0253288,0.0671615
-0.0244261,0.0828289
-0.029276,0.0666877
0.0277059,0.0229016
0.104052,-0.0255538
0.123228,-0.0436237
0.0468349,-0.0563238
-0.0218285,-0.0481382
-0.0401449,-0.014715
-0.00965848,0.0159948
0.00271321,0.0633323
-0.0441049,0.044842
-0.038008,0.0519675
-0.00162443,0.0456719
0.00717361,-0.0349293
-0.00955813,-0.0697727
-0.0177162,-0.0884709
-0.00669086,-0.0963421
0.00850853,-0.0302232
-0.00611177,0.0161468
-0.0162678,-0.0403658
0.006508,0.0798903
0.0380373,0.12757
0.049427,-0.0299623
0.0653188,-0.0546965
0.0856312,0.0272808
0.0300008,0.100492
-0.114798,-0.0188894
-0.193472,-0.104385
-0.147522,-0.117914
-0.0556261,-0.0660232
0.0410008,0.0749071
0.148069,0.115143
0.223746,0.107387
0.150774,0.060395
0.0301539,0.00482317
-0.0615823,0.0437691
-0.130647,0.0236002
-0.115511,-0.00817116
-0.102919,-0.031021
-0.0577206,-0.0395942
0.0339843,-0.0313977
0.0722373,-0.0694828
0.0827615,-0.120669
0.0858244,-0.104752
0.0415536,0.00350692
-0.0166107,0.147529
-0.101625,0.13897
-0.135419,-0.0143809
-0.0908992,-0.110553
-0.0196235,-0.0883178
0.0219647,0.0331843
0.0480591,0.0678021
0.0770269,0.10889
0.0771257,0.120653
0.0175293,0.0131682
-0.0824734,-0.0548436
-0.0888477,-0.0641221
-0.00681469,-0.0560531
0.0451416,-0.0523782
0.03035,-0.0418025
0.0293901,-0.0431555
0.0318509,-0.051082
0.0173668,0.0439617
-0.029287,0.0334907
-0.0581112,0.0377438
-0.0434162,0.0416777
0.0111631,0.0352794
0.0630318,0.0213882
0.0487183,0.012442
0.00270526,-4.03e-05
-0.0201475,-0.0218719
-0.0372573,-0.0355349
-0.027906,-0.0302185
0.000408938,-0.00239202
0.0118593,0.0282002
0.0150266,0.000866491
0.0383622,0.00917166
0.0770952,-0.0183277
0.102261,-0.0826468
0.0917138,-0.0492545
-0.000207844,0.0522729
-0.0934133,-0.0385001
-0.125661,-0.04738
-0.101771,0.0425502
-0.0256852,0.09372
0.0218282,0.0120741
0.0246352,-0.030669
0.0187564,0.0487878
0.00527169,0.0636064
0.0104688,-0.00609006
0.0798181,-0.0152414
0.128322,-0.0441818
0.0963903,-0.0179451
0.0134361,0.0240393
-0.116581,0.0310226
-0.229126,-0.024909
-0.187658,0.03833
-0.0953919,0.0819327
-0.0107764,-0.00938808
0.108448,-0.00846482
0.13432,-0.0119159
0.0643372,-0.0168309
0.0211953,-0.0636267
-0.0162729,-0.0961024
-0.0574105,-0.143569
-0.0488855,-0.0607977
-0.013191,0.0194841
0.00533086,0.0428131
0.0100859,0.0544537
0.00800437,0.0459905
0.00696709,0.133293
0.0464209,0.099827
0.0849451,0.0212247
0.0761873,-0.00203061
0.0484164,-0.00950871
-0.0142105,0.00200517
-0.0366768,0.00653328
-0.0394762,-0.000544391
-0.0252492,-0.0353066
-0.0058518,-0.0403724
-0.0175023,-0.0364617
-0.011489,-0.0330139
0.0353449,-0.0250054
0.0365265,-0.0268459
-0.00422467,0.00988307
-0.0185247,0.0641766
-0.0140247,0.034302
-0.0409833,0.021057
-0.0265002,0.0206631
-0.0100905,-0.0100786
-0.0392597,-0.0393262
-0.0563051,-0.0343664
-0.00645669,-0.00109667
0.0369075,0.00976696
0.0406764,-0.0296076
-0.013642,-0.120088
-0.018742,-0.122009
0.0352581,-0.00218113
0.0640326,0.0438522
0.0192425,0.00840683
-0.0371983,-0.0246705
-0.0375803,-0.00451989
0.00642816,0.0609768
0.0369747,0.0941392
0.0571662,0.0836245
0.0589999,0.0974056
0.0291133,0.0546616
-0.000666481,0.00416618
-0.0228668,0.0220515
0.0131162,-0.00472282
0.058838,-0.0221853
0.0481995,-0.0329668
-0.0683858,-0.0725532
-0.155617,0.0139395
-0.132832,0.0841262
-0.0883586,-0.000410252
-0.017899,-0.044514
0.0408394,-0.0609844
0.0662305,-0.0619665
0.0686769,-0.0158848
0.0215751,0.0366686
-0.0434532,0.0091234
-0.0362303,0.00991761
-0.00127264,0.0275243
0.0231446,0.0278926
0.0347003,-0.00613637
0.0488717,-0.0408346
0.0439633,-0.0183413
0.0326085,-0.00616801
-0.00245394,-0.0154172
-0.0278439,-0.0160491
0.00173571,-0.0285798
0.0306148,-0.0251251
0.0581374,0.0191303
0.049113,0.0647883
-0.0139513,0.0193304
-0.0565601,0.0314231
-0.117721,-0.0258058
-0.13121,-0.0759915
-0.0507986,-0.110086
0.0138447,-0.12167
0.0328484,-0.102308
0.0450679,-0.0101815
0.0625142,0.0773483
0.0859736,0.0864157
0.076733,0.167342
0.00621602,0.185256
-0.0585425,0.0578145
-0.0802921,-0.00419794
-0.0540611,0.00323155
-0.0219251,0.00485047
0.00334374,-0.0104549
0.0242189,0.00129838
0.00971617,-0.0366412
-0.00891162,0.000992176
-0.00891257,0.0504565
-0.00871954,-0.0506045
-0.00714489,-0.0531509
0.0107021,-0.0236345
-0.0233421,-0.0119123
-0.0570452,0.0122134
-0.0519428,-0.00436188
-0.0296915,-0.0456128
0.0323688,-0.0727361
0.0787428,-0.0903986
0.119679,-0.038092
0.158793,-0.0494396
0.133787,-0.0950605
0.0549986,0.0103306
-0.0234419,0.0346528
-0.0264542,0.0734575
-0.0173699,0.131774
-0.0230867,0.11767
-0.0789886,0.0703966
-0.131193,0.00712042
-0.0857959,-0.00462767
-0.00618325,-0.0169558
0.00951143,-0.0455447
-0.015314,0.0301999
-0.00945641,0.0691257
-0.016842,0.015367
-0.0188091,-0.00388156
-0.00211612,-0.00404571
0.0193964,0.0202545
0.0029949,0.000877212
-0.0434507,-0.0825394
-0.0460307,-0.0607175
-0.0161626,-0.0638864
0.0249809,0.0224259
0.0709255,0.0611717
0.100247,-0.0163101
0.0759248,-0.0590132
-0.00172321,-0.0179092
-0.0429706,-0.0279472
-0.0391142,-0.0180764
-0.0328887,0.0567673
-0.0206725,0.0771627
0.000467436,0.0208741
0.0202725,0.000534416
0.0354495,-0.00113657
0.0210117,-0.0123367
-0.00218489,-0.0552262
-0.0440475,-0.0579862
-0.0870295,0.0112995
-0.0453709,0.0255918
0.0303387,-0.0467139
0.0415172,-0.110269
0.0250471,-0.129694
0.0277413,-0.075193
0.0439555,0.0398092
0.0412098,0.126203
0.0211195,0.0430902
-0.0120023,0.030406
-0.0150305,0.172892
-0.0620082,0.135553
-0.0792597,0.00916518
-0.0448121,-0.0262045
-0.0090954,0.0368311
0.0249643,-0.0336525
0.0279426,-0.00485628
-0.0164023,0.000624057
0.011942,-0.0333159
0.126036,-0.0222872
0.163005,-0.0197865
0.0941031,0.0141263
-0.0154384,-0.0135663
-0.119001,-0.0596352
-0.142524,-0.0609016
-0.0491267,-0.0501817
0.0408379,0.0827579
0.0614158,0.0361152
0.0570484,-0.0304589
0.00566662,-0.0384451
-0.055551,-0.000364455
-0.0546895,0.0128433
-0.053516,0.0179281
-0.0510688,0.0155548
-0.0171551,0.0204769
-0.0267803,0.0153667
-0.00140988,0.0189877
0.0590345,0.0279369
0.0993488,0.0129905
0.0890847,-0.00594422
0.0211375,-0.0222771
-0.00995399,-0.0462719
-0.0386388,-0.0874538
-0.0541762,-0.0550199
-0.0607166,0.0345791
-0.032746,0.0856133
-0.033035,-6.6e-05
-0.0372418,-0.0940235
-0.0323891,-0.101502
-0.0019168,-0.0725944
0.0426574,0.0175164
0.0415596,0.0773624
0.00870522,0.0910479
0.0102543,0.101736
0.0195241,0.102606
0.0129841,-0.0539929
-0.0029448,-0.0990002
-0.0146871,0.0160559
-0.0258948,0.081142
-0.0194812,0.0733259
0.0087858,-0.00613089
0.0387382,-0.0320348
0.0251578,-0.0241808
-0.0189019,0.0144206
-0.0339551,0.00647229
-0.00288742,-0.006176
0.0291724,-0.0033121
0.0420298,-0.00867855
0.0298406,-0.00187794
0.0131447,-0.00966859
-0.0100016,-0.020652
-0.0327445,-0.0262778
-0.0265827,-0.0231057
0.00681414,0.0217216
0.0138684,0.0349131
0.0103789,0.00970965
-0.0115071,-0.000567647
-0.031924,0.0223566
-0.000691193,-0.0299333
0.0660915,-0.0666642
0.106267,-0.0399659
0.0687617,-0.0680435
0.0486773,-0.118316
0.0561135,-0.0913787
0.019428,-0.001776
-0.0603304,0.094643
-0.148188,0.0901688
-0.1544,0.0705098
-0.0835049,0.112688
-0.03811,0.0214799
0.0159998,-0.0559968
0.0625145,-0.0534062
0.0626684,0.0784035
0.0054515,0.0664798
-0.0347367,0.018414
-0.0235999,-0.037586
-0.0115486,-0.0176332
0.010796,0.046967
0.0304205,0.0355733
0.0246608,0.00754837
-0.0213064,0.0109416
-0.0624877,-0.0170131
-0.0481001,-0.0121491
-0.00902237,-0.002013
0.00131988,-0.021902
0.0307693,-0.0390504
0.0410665,-0.0285598
0.0174093,-0.0163673
0.00510235,-0.0128018
0.0324022,0.00677114
0.0596722,0.0442514
0.012546,-0.00689333
-0.00792191,-0.0138573
0.0141246,-0.0340515
0.00969043,6.43e-05
0.00071209,-0.0496998
0.0133032,-0.0354329
-0.0338503,0.0262202
-0.0623315,0.0445297
-0.0496278,0.0289073
-0.00870843,0.00745359
0.00891329,-0.0122634
0.014011,-0.0154834
0.0282468,-0.0106316
0.00738168,-0.0207003
0.00586136,-0.0205095
0.0577708,-0.0218692
0.097274,-0.0240137
0.0728136,0.00652731
0.00391211,0.0196265
-0.0655307,0.0028453
-0.0802726,0.00797209
-0.0598622,0.0275831
-0.0176172,0.0148504
-0.0122864,-0.0082712
-0.0392511,-0.017627
-0.0316539,0.00516905
-0.0017867,-0.011212
0.0158044,-0.0155783
0.0130696,0.0552888
-0.000632933,0.0365088
-0.0124717,0.012207
-0.0207899,0.0311404
-0.0220296,-0.0233119
-0.0200066,-0.00106524
-0.025423,0.00910648
-0.00616151,0.00290764
0.0306687,-0.0151347
0.0940029,0.00384889
0.111351,-0.0026604
0.0585068,-0.0375464
-0.0430507,-0.00514922
-0.0992069,0.022544
-0.0766541,-0.0145734
0.0144553,-0.0380586
0.0817639,-0.0118719
0.112744,-0.0134997
0.118047,-0.0212265
0.146755,-0.0111624
0.10777,-0.0388874
-0.0433891,-0.0143946
-0.214771,-0.0334111
-0.215083,-0.0814913
-0.114951,0.0508724
-0.077499,0.109904
-0.0440717,0.0880808
0.0214824,0.11285
0.0477188,0.0719062
0.0343514,-0.0319379
-0.0248514,-0.00209853
-0.0348434,0.0254482
0.016077,0.0380375
0.0686219,-0.0134064
0.0687849,-0.0438853
0.0471394,-0.0415603
0.0171871,-0.0320379
-0.0200885,0.0198933
-0.0609585,-0.00783051
-0.0362665,-0.0128165
0.0446941,-0.0137673
0.123476,-0.0130996
0.110837,-0.00531304
5.59e-05,-0.0288517
-0.0890113,-0.0347952
-0.107786,-0.0372851
-0.0524696,-0.0267218
-0.00453524,0.0272143
-0.00862911,0.0392803
-0.0185707,-0.0111776
-0.00111086,0.00888495
0.0359607,0.0104392
0.0702484,-0.0345612
0.0755769,-0.0216671
0.0223093,0.0539452
-0.0713801,0.0368173
-0.11591,0.0217311
-0.0789283,-0.00575606
-0.00739828,-0.0195451
0.0794118,-0.061187
0.130264,-0.0664113
0.114963,-0.0418161
0.0128985,0.000436876
-0.0680878,0.0373232
-0.0932923,0.0755973
-0.106998,0.078327
-0.0702525,0.0374392
0.00948423,-0.0271875
0.0835315,-0.0409103
0.102855,-0.0324342
0.0838019,-0.00627952
0.0361636,0.0912827
-0.0722381,0.0660735
-0.131043,-0.0121268
-0.0733925,-0.0496615
-0.0101261,-0.079725
0.0262903,-0.00726414
-0.00285454,-0.0562384
-0.00712239,-0.0201342
-0.0100374,-0.0165716
0.0239115,-0.0528005
0.102342,0.0852362
0.100122,0.0954492
0.0277371,0.0182954
-0.0446461,0.0269625
-0.0914417,0.059695
-0.0649315,0.00924026
-0.0221151,-0.0726528
0.0190484,-0.0500575
0.0351051,0.0319231
0.0143963,0.0229949
-0.0220529,0.0343094
-0.0417165,-0.0237961
-0.0190291,-0.0240663
0.0236961,-0.0209696
0.0206505,-0.0082413
-0.00829545,-0.00134078
-0.0216593,-0.0197339
-0.00275468,-0.0235649
0.0112131,0.00973795
0.0508258,0.0349429
0.0551348,-0.00854935
0.0204955,-0.0118018
-0.0248338,-0.00712385
-0.0151376,-0.0154877
0.0619553,-0.0245651
0.0697453,0.0175257
0.00560247,0.00512478
-0.0388342,-0.0440825
-0.0343732,0.0114308
-0.0359174,0.0420416
-0.0187806,0.00798842
0.00812237,0.0561981
0.0254947,0.0030104
0.0347801,-0.0734081
-0.0124486,-0.08313
-0.0365511,-0.00749377
-0.0223723,0.00516811
-0.0230577,0.0537805
-0.0377924,0.141149
-0.0755515,0.0997473
-0.105427,-0.0149543
-0.0799251,-0.0747012
-0.0266428,-0.127537
0.00430989,-0.0723375
0.066079,0.0922268
0.12328,0.0843041
0.19095,0.00653093
0.228513,-0.0665541
0.16966,-0.112801
0.0496533,-0.0877117
-0.0599989,-0.0487171
-0.121474,0.0060122
-0.111182,0.0719399
-0.0965319,0.11931
-0.0980375,0.0976793
-0.10331,0.0257691
-0.0507261,0.00636682
0.000310344,-0.007183
0.0079089,-0.050999
0.0149326,-0.0378139
0.00567636,0.0144393
-0.00613456,0.0647542
-0.0164644,0.0346522
-0.0188751,0.031575
-0.0299016,0.0217671
-0.0224405,-0.0171762
0.0169733,-0.0245737
0.0847512,0.0116658
0.132667,-0.00483927
0.136075,-0.10245
0.0883896,-0.10139
-0.00483011,-0.039132
-0.0763335,0.0294988
-0.0887822,0.0418197
-0.0418034,0.0167911
-0.000668359,0.0306416
-0.0111117,0.00442586
-0.0343723,-0.0381104
-0.0586665,-0.0450599
-0.0541092,-0.0238235
-0.0385514,0.0302143
-0.0192441,0.121771
0.0115602,0.0949277
0.0374327,-0.0326082
0.0252337,-0.0610939
0.00677341,-0.044603
0.00175066,-0.0748098
0.0181902,-0.112657
0.0395603,0.0223568
0.074967,0.128647
0.0650949,0.0275752
0.0349874,-0.0264457
0.00388825,-0.0343337
0.00336218,-0.0465857
0.0554974,-0.0234066
0.0759357,-0.000849184
0.00798447,0.0756292
-0.0832627,0.11122
-0.123283,0.0613407
-0.104121,0.0095587
-0.0886271,-0.0102498
-0.0107659,0.015207
0.067431,0.0261341
0.0568898,-0.0123703
0.0172977,-0.0398116
-0.0321247,-0.0409786
-0.0860062,-0.0385013
-0.0827072,-0.00434942
-0.0271322,-0.0587556
0.00125174,-0.0572328
0.0373726,-0.0254988
0.0760255,-0.07238
0.0647049,-0.00370455
0.0451356,0.0450717
0.0100426,0.0396025
-0.0212449,0.0343128
-0.00199109,-0.0224413
0.0244935,-0.0131008
0.00632012,0.0660412
-0.0161761,0.103585
-0.0350133,0.0763167
-0.0481276,0.0384149
-0.0240643,-0.0106826
0.0153695,-0.00875763
0.0213931,-0.026131
-0.00907785,-0.0596347
-0.0121438,-0.0374973
0.0255654,-0.0426326
0.0281976,-0.0300618
0.0123467,-0.0232941
0.00683282,0.0413511
-0.00569225,0.0688563
0.00339777,0.0328946
0.0284258,0.00259334
0.036087,-0.0544401
0.0359332,-0.11827
0.00565639,0.0291163
-0.0386226,0.0645824
-0.0885565,0.0265225
-0.0709995,-0.0118188
-0.0323838,0.0414932
0.0120211,0.0523066
0.0432023,-0.0117774
0.0345986,-0.0369356
0.0105079,-0.0523024
0.0107052,-0.0491859
0.0277367,0.0245254
0.00811609,0.0481458
-0.0409115,0.0188414
-0.0174747,-0.00727043
0.0501737,-0.0122906
0.0627865,-0.0172681
0.0427358,-0.0232457
0.0393422,-0.000980709
0.0246767,0.0120741
0.0218398,0.0022395
0.0589489,-0.00301858
0.0522169,-0.00265793
0.0034888,0.00724384
-0.0705185,-0.00334058
-0.106919,-0.0523998
-0.103256,-0.0387013
-0.110936,0.0036353
-0.0890899,0.0179578
-0.0315605,0.0228766
-0.0184071,0.0178013
0.00792414,0.0389072
0.0220273,0.000698649
0.0131871,-0.0495687
0.015972,-0.0293057
0.0379831,0.0243592
0.0468918,0.00863493
-0.00130534,-0.0224537
0.00185917,-0.0173963
0.0167941,0.0563611
0.00544464,0.0255304
0.0145349,-0.017934
0.0217671,-0.0116251
0.00408679,0.0173774
0.00681154,0.0393315
0.0175309,0.0700149
0.0101996,0.0581088
0.0115445,-0.00111157
-0.00487426,-0.00530485
-0.0414925,-0.0224475
-0.0358871,-0.0638563
-0.0108261,-0.0924407
-0.00157247,-0.066512
0.00701254,0.0206884
-0.018535,-0.037769
-0.0468931,-0.145304
-0.0208884,-0.11155
0.0439503,-0.03835
0.099481,0.0731854
0.0980643,0.185038
0.0712624,0.161114
0.0283078,0.130467
-0.0241475,0.0361466
0.00581962,-0.00648926
0.0259753,-0.0134799
-0.0148728,-0.0165837
-0.0621494,-0.0384174
-0.0923478,-0.0177319
-0.0933019,-0.0141807
-0.058596,-0.0455697
-0.0283421,-0.0339355
-0.0365366,0.0491256
-0.0221814,0.0261178
0.0243561,0.0128322
0.0554785,0.0262056
0.0573985,-0.00134664
0.0684725,-0.0146061
0.0786573,0.0273107
0.0717694,0.0191058
0.0118052,-0.0415383
-0.078663,-0.0456403
-0.094716,-0.0156961
-0.0444354,-0.0251975
-0.0157368,-0.00825838
-0.00201566,0.00027858
0.0296434,0.00410586
0.0474038,0.0014056
0.0594564,-0.00521567
0.0890043,-0.0105676
0.0758855,-0.0286311
0.0405458,-0.0465451
-0.0552456,-0.0341191
-0.153013,-0.0369831
-0.156789,0.0234166
-0.119081,-0.0323615
-0.070921,-0.00207819
-0.0114115,0.00195374
0.0597486,-0.0903855
0.0565389,-0.0992134
0.0117575,0.032517
-0.00339261,0.118947
0.0112121,0.112709
0.0080681,0.171371
0.00136793,0.0855388
0.0451014,0.0115629
0.0355071,-0.0116403
0.0069706,0.00508827
0.0190619,-0.00364195
0.00257535,0.00626029
-0.0268206,-0.0129111
-0.00688314,-0.0318366
0.0322828,-0.0549197
0.0769055,-0.0183421
0.123651,0.00896285
0.150107,-0.000822298
0.0656131,-0.0198626
-0.0559511,-0.0156054
-0.119162,0.00330066
-0.0885053,-0.00267165
-0.0302301,0.0035311
-0.00340267,0.0054672
0.0132358,-0.0166559
0.012636,-0.0175618
-0.0630704,0.0302647
-0.138458,0.00508558
-0.104584,-0.0490055
-0.0265256,-0.0632334
0.00896568,-0.123666
0.0255577,-0.112992
0.0332263,-0.0543429
0.0341181,0.0486103
0.0415834,0.122966
0.0832146,0.109838
0.13067,0.0234949
0.163327,-0.0306185
0.117579,0.0184846
-0.0491791,0.00379362
-0.212631,0.0531473
-0.237666,0.0719826
-0.140803,-0.000919059
-0.0352201,-0.00573315
0.0351345,0.079273
0.0438094,0.071549
0.0431109,-0.0173206
0.0168756,-0.0100557
-0.00129298,-0.00378324
0.0173872,-0.0227048
0.0224833,-0.0526355
0.0234312,-0.064153
-0.00603858,-0.0307392
-0.053355,-0.0299319
-0.0335349,-0.0378256
0.01001,-0.018149
0.0157828,0.0114774
0.016597,0.0163945
0.0188959,0.0208294
0.01557,0.00677316
0.0498586,0.0379193
0.0723596,0.0598434
0.0520113,-0.00775707
0.0266182,-0.0226942
-0.00224616,-0.00597638
-0.0399331,0.0107344
-0.0531624,-0.00801983
-0.0366348,-0.0124178
-0.0201659,-0.0153512
0.00838212,0.010738
0.0485325,-0.000541463
0.0642369,-0.0261407
0.0744276,-0.0303541
0.078143,-0.0106472
0.028321,0.0328371
-0.0156373,0.0153445
-0.0597192,-0.0738946
-0.0430393,-0.0310425
-0.0355611,-0.00410667
-0.0560963,-0.0249688
-0.0710257,0.0391126
-0.0800931,0.0428802
-0.0391004,0.0504987
0.0350173,0.0193086
0.0680082,-0.0244058
0.0954091,-0.0145512
0.0548257,-0.0135979
-0.0124645,0.0228726
-0.0602268,0.0162244
-0.107441,0.0177882
-0.0923741,-0.0166443
0.00671686,-0.0227019
0.0549785,0.0254971
0.0411656,0.0137555
0.0196149,0.0129879
0.0229574,0.0336328
0.0244698,0.00281896
-0.00518997,-0.00895205
-0.0522135,-0.020812
-0.0740253,-0.00780395
-0.0602023,0.0248357
-0.0313472,-0.0148158
-0.0157942,-0.0194354
-0.0306336,-0.00524711
-0.0156835,-0.005284
0.0306404,-0.00761413
0.0431894,0.00118058
0.0737316,0.000105061
0.0675181,-0.0289781
0.0399871,-0.0473569
0.0115057,-0.0233368
0.000708211,0.0658409
0.00659444,0.0624164
0.0375218,0.00723391
0.0562809,-0.0148378
0.0387617,0.00772863
0.0153504,0.0220694
-0.0416344,0.0111794
-0.0654566,-0.025381
0.0105605,-0.0568514
0.0948411,-0.166918
0.0562376,-0.155735
-0.0432888,-0.0532073
-0.139907,0.0671978
-0.131518,0.0976234
0.0158119,0.113705
0.145812,0.112073
0.149288,0.058938
0.0649152,0.0374232
-0.0488173,0.0247258
-0.127321,0.0230282
-0.120783,-0.0126441
-0.0735253,-0.0414788
-0.0363704,-0.0132589
-0.0184329,0.00623431
-0.00990907,-0.000969133
-0.00577545,-0.00409314
-0.00591051,-0.0210653
-0.00765148,0.00146845
0.00530669,0.00134168
0.0389565,-0.00774297
0.0447131,0.00524109
0.0155975,0.00765881
-0.00210719,-0.0110633
-0.000930843,-0.0285277
0.0176658,-0.0410038
0.0312332,-0.0450377
0.0129229,0.00142451
-0.0191097,0.0384677
0.0101404,0.00851965
0.0786056,-0.0111175
0.0843403,-0.0298326
0.0166758,-0.0337141
-0.0585755,-0.024595
-0.110169,0.0333206
-0.144032,0.0526937
-0.119529,-0.0165218
-0.0567177,0.024156
0.0269534,0.0457661
0.1167,0.0264354
0.152075,0.0256183
0.161945,0.0333645
0.174423,-0.0177435
0.134963,-0.0640384
0.0333362,-0.0858471
-0.0776499,-0.0419986
-0.102037,-0.0271139
-0.111554,-0.0120637
-0.118741,0.0414221
-0.0104288,0.0169032
0.0370677,0.0253784
-0.00981675,0.0482428
-0.0548688,0.016473
-0.0691827,0.00197996
-0.0608923,-0.0144047
-0.0456173,-0.024467
-0.0272344,0.0274355
0.00254605,0.062682
0.0346612,0.0191075
0.0378384,-0.00600832
0.0299531,-0.0123385
-0.00298527,-0.0262341
-0.0479138,-0.0132453
-0.026589,-0.00778919
0.0153673,-0.00870611
0.00104821,-0.00432595
0.00834903,-0.00730771
0.051453,0.00715858
0.0715963,0.030764
0.0936778,0.00215243
0.0640919,-0.0316244
0.00352646,0.00151243
-0.0205464,-0.011544
-0.00974523,-0.0579709
-0.0165496,-0.0300266
-0.0319772,-0.0145608
-0.0647066,-0.00381385
-0.0827088,-0.000343303
-0.0400392,0.00995141
0.0248702,0.0140075
0.0789827,0.00688693
0.0829769,0.0130246
-0.000171998,0.0337772
-0.0500454,0.0741146
-0.0268242,0.100205
-0.0375149,0.0156209
-0.0715525,-0.0688976
-0.0298118,-0.0775
0.0188254,-0.00176586
0.0139185,0.063354
0.0444324,0.0389737
0.0898378,-0.0265737
0.0384524,-0.0439238
-0.0631042,-0.0188894
-0.0870799,0.0102394
-0.0566333,0.00419119
-0.0373256,-0.00929634
0.00247102,-0.0177405
0.0399985,-0.00845975
0.0590906,-0.0373015
0.061565,-0.0444249
0.118443,-0.0399243
0.13817,-0.00846674
0.0949326,0.000380393
0.0210203,-0.0352146
-0.0462656,-0.0436285
-0.106878,-0.0229636
-0.117907,0.0303912
-0.0865438,0.06733
-0.0290649,0.0922196
0.0069472,0.0683889
0.0328472,0.06884
0.0189782,0.0488611
-0.0195608,0.0342279
-0.0563735,-0.0283545
-0.0782166,-0.0456439
-0.046282,-0.0107155
0.00280961,0.00076795
0.0364282,-0.0117355
0.0436984,-0.0222921
0.0290365,0.00416396
-0.00722999,0.0183071
-0.00617904,-0.0409982
0.0299941,-0.0501271
-0.00243339,-0.0122104
0.00330273,-0.0565454
0.00888147,-0.114337
0.00489954,0.0400804
0.0237427,0.0779755
0.0405706,0.0317113
0.0151835,0.00438134
-0.0186107,-0.00261912
-0.0391115,-0.00760832
-0.0369804,-0.0289426
-0.0370019,-0.0129717
-0.0338431,0.0634202
0.00128367,0.0725877
0.0344532,0.0531281
0.0120032,0.0328508
-0.0342699,-0.0255365
-0.0507776,0.00158589
-0.0235224,0.00222806
0.0295835,-0.0421788
0.0666982,-0.044815
0.0790993,-0.0453421
0.0709681,-0.0414202
0.0979963,-0.0364199
0.141016,-0.0385178
0.129424,-0.0206682
0.0276651,0.00606609
-0.0860962,-0.0199655
-0.123378,0.0114655
-0.107407,0.0900088
-0.0881605,0.0560373
-0.0860608,-0.00354231
-0.0613065,0.0491964
-0.0211361,0.0488087
-0.0106926,-0.00818888
-0.0238269,-0.00720834
-0.0289575,0.017663
0.000871527,-0.00926382
0.0349735,-0.0304323
0.029289,-0.0176425
0.0204562,-0.0555626
0.0263969,0.015801
0.0152264,0.0754645
0.00320972,-0.00367079
0.0237522,-0.0309329
0.0564658,0.0390851
0.0665547,0.00412158
0.0644222,-0.024358
0.018519,-0.0131816
-0.0402796,-0.0706447
-0.0710988,-0.0254868
-0.123322,0.0223629
-0.111959,-0.00642366
-0.0434165,-0.00189417
-0.0125067,0.00625768
-0.00983983,0.0115907
0.0151259,-0.017502
0.0414613,-0.000251604
0.0543706,0.0363323
0.0643714,0.0159922
0.062293,0.0580652
0.0455535,0.00268828
0.00960705,-0.0441725
-0.0159074,-0.041335
-0.0248906,-0.0399769
-0.0170815,0.0293523
0.00475457,0.023075
0.013569,0.0243296
-0.0177813,0.0233958
-0.0452795,-0.0257925
-0.00184147,-0.0102948
0.0410523,0.0335371
0.0627488,0.017259
0.073125,-0.0198082
0.0219022,-0.0276974
-0.060432,-0.00732177
-0.101975,0.0345327
-0.0916234,0.0373029
-0.0307493,0.0532172
0.0461164,-0.0123489
0.0931051,-0.0860553
0.0981999,-0.0719234
0.0707968,-0.0496488
0.0334748,0.0068406
-0.071651,0.0375175
-0.111049,-0.00048705
-0.0542019,-0.0197017
-0.00352751,-0.0405334
0.0419326,-0.0284442
0.0280558,0.0145271
-0.0503279,0.112595
-0.108602,0.0705498
-0.0659595,-0.00600644
0.00065549,-0.0891106
0.0750024,-0.161229
0.0663135,-0.101531
0.0164463,0.0998803
-0.026898,0.0723298
-0.047397,0.0802914
-0.0630288,0.082149
0.00210871,0.0447509
0.048053,-0.00555954
0.0447262,-0.0129381
0.0335401,0.0020826
0.0119686,0.00350417
-0.0111345,0.00523867
-0.0247231,-0.0343618
-0.0145708,-0.03988
0.0196209,-0.0484701
0.0492246,-0.0674584
0.0147647,0.0619282
-0.032714,0.0646005
-0.032576,0.0127184
-0.0355414,0.00316268
0.0208787,0.00959005
0.0857492,0.0370177
0.0698187,0.0456211
-0.0186172,-0.0686508
-0.0665525,-0.0798748
-0.0712124,0.0296202
-0.0476242,0.0160131
-0.00693477,-0.00951482
0.0520286,0.00298478
0.101651,0.00632073
0.0670718,0.0200233
0.0194393,0.00238891
-0.00961971,-0.0187757
-0.0214642,-0.0350057
0.0497814,0.00559151
0.0930551,0.144395
0.0223609,-0.0115516
-0.0648989,-0.0493948
-0.0871088,-0.00840209
-0.0625928,-0.019039
-0.0565125,-0.0289839
-0.0441709,-0.0169162
-0.040009,-0.00797355
-0.0110929,0.00969027
0.0126804,0.00419491
0.02227,-0.00307323
0.00867864,-0.0434691
-0.00349367,-0.00472572
0.00343521,0.0144652
0.0318161,-0.0243196
0.0133465,-0.0373516
-0.0288468,-0.0266489
-0.0548776,0.0105146
-0.0364667,0.0419669
-0.0104434,0.018474
0.00224997,0.0286685
0.0276815,0.0557463
0.0458562,-0.0503607
0.0605622,-0.0724802
0.0674004,-0.0286215
0.0751305,0.0479644
0.031535,0.0618198
-0.0100093,0.000500492
-0.0114786,-0.0020489
-0.0362274,0.0429713
-0.075379,0.0205582
-0.087537,0.00873941
-0.0604623,0.0031134
-0.0390862,-0.00439128
-0.00759895,-0.0165815
0.038732,-0.0175941
0.0548379,0.0176304
0.0558793,0.00464461
0.0731052,-0.0144327
0.041558,-0.0155449
-0.0226155,-0.002594
-0.0595736,-0.00500649
-0.0192864,0.00525594
0.0530582,-0.000943522
0.0488492,-0.0120203
0.00515726,-0.0113429
-0.0162316,-0.00952916
-0.0208865,0.00842043
-0.0272999,0.0158328
-0.0379957,0.011991
-0.0551732,-0.0236888
-0.0494281,-0.0179399
-0.0128358,-0.00440076
0.0193114,-0.0141413
0.0386212,-0.0289544
0.039963,-0.0385022
0.0545081,0.030573
0.0443464,0.0330714
-0.0222405,-0.0233229
-0.0475913,0.0624027
-0.0305876,0.090102
-0.0288338,0.00696236
0.0135001,-0.0275875
0.048585,-0.0133265
0.0367553,-0.0234565
-0.00596766,-0.0278784
-0.0406378,0.0167331
-0.061982,0.0417107
-0.0450619,-0.0459764
-0.0156542,-0.101129
0.008841,-0.0359699
0.00841115,0.0507779
0.0232357,0.0421968
0.0486566,-0.00603829
0.0421122,0.0190519
-0.00389242,0.0123651
-0.0160814,-0.000403057
0.008718,-0.0312961
0.00696146,-0.00472269
-0.00123203,0.0155042
-0.0104598,-0.00754053
-0.000383113,0.00836436
0.035581,0.0110042
0.0750846,0.0325536
0.0384384,0.0634219
-0.0205789,-0.0413833
-0.0735256,-0.0558148
-0.0690992,0.00344765
-0.0191556,0.0195903
0.0131577,0.0185447
0.0401705,0.00199158
0.0286154,-0.00983668
-0.0141321,-0.0186125
-0.0559763,-0.0357513
-0.0539746,-0.0167549
-0.0112566,0.0297767
0.0236272,0.0492304
0.00946104,0.00620245
-0.00531911,-0.0345211
0.00478827,-0.044677
0.0173337,-0.0484261
0.0298577,0.0396304
0.0105334,0.0579084
-0.0221852,0.0103245
-0.00293633,-0.0188791
0.0156639,-0.0132179
0.0248383,0.0324806
0.0537095,0.101611
0.0419783,0.0719289
-0.0167833,-0.0379046
-0.0665163,-0.0560895
-0.0821979,-0.0467679
-0.0545051,-0.0216016
0.0172465,-0.0100907
0.0371312,-0.0155622
-0.00208812,-0.00869641
0.00557294,-0.0263937
0.0112474,-0.0262491
0.0232348,-0.0364732
0.0428382,0.0161717
0.0173153,0.0353432
-0.0310694,-0.0239263
-0.076377,-0.0503506
-0.0580607,-0.0358529
0.0248796,0.0422024
0.0750147,0.0405702
0.0610711,0.0267412
0.0232721,0.0392388
-0.0148974,0.0273248
-0.017824,0.0252749
-0.0207764,0.0330294
-0.0217989,0.0612978
0.00223855,-0.0104809
0.00561755,-0.0727339
0.0168039,-0.015833
0.0395025,0.0192624
0.0634257,-0.0229975
0.0351587,-0.0681124
0.0131822,-0.0392892
-0.0166063,0.00858951
-0.0180398,0.042724
-0.000925192,0.0244957
0.00319724,-0.0170261
-0.0195834,-0.0221885
-0.0545733,0.039633
-0.0684793,0.00039195
-0.0698447,-0.016709
-0.0784466,0.000273095
-0.0246159,-0.0112374
0.0613084,0.0185003
0.0695693,0.0246404
0.0128674,0.0078176
-0.0326498,-0.00149769
-0.0211361,0.00121108
0.0269534,0.00379108
0.0341474,-0.00134156
0.00233903,-0.00371833
-0.0310568,-0.049956
0.0213495,-0.0154854
0.0570094,3.6e-05
0.0104442,0.0186862
-0.0540674,0.0323401
-0.0807167,0.0348384
-0.0483445,0.00898176
0.00334959,-0.0163591
0.0400342,-0.0195781
0.0452648,-0.00856347
0.036123,-0.0271119
0.0467816,-0.0282749
0.0310144,-0.0346657
0.00175192,1.71e-05
-0.00573383,0.0852921
-0.0201015,0.00881837
-0.0232903,-0.0504254
-0.0223518,-0.0244099
-0.0239502,0.0298345
-0.0221837,0.0567442
-0.0249885,0.0138679
0.00846566,-0.00721645
0.0524033,0.00332258
0.0692326,0.0178643
0.0543869,0.00322622
0.0193316,0.00106607
-0.0145988,0.00312878
-0.0440539,-0.034301
-0.0594873,-0.0243326
-0.0276783,-0.0219221
0.0321219,-0.0142926
0.0774872,0.0135703
0.0620101,0.0213021
0.032669,-0.0573646
0.009237,-0.0415615
-0.00962592,0.00401314
-0.0197891,0.0190246
-0.0369402,-0.00492761
-0.0746589,-0.00222781
-0.0844233,0.0155801
-0.029907,0.0275969
-0.00581372,0.017722
-0.00548724,0.00339776
-0.00371406,-0.0233681
-0.00626149,-0.021809
0.00292873,0.0120676
0.00731369,0.0287514
-0.000451742,0.0216356
0.0082291,0.0182109
0.0263911,-0.000118658
0.0401515,-0.00451374
0.0292432,0.00927571
-0.0129701,0.0253359
-0.0405999,-0.00029204
-0.0195034,-0.00770368
0.028761,0.00844889
0.0468825,0.0274695
0.0181391,0.0403953
-0.0256752,-0.0216769
-0.0532462,-0.0714918
-0.0466129,-0.0235446
-0.000395421,-0.0223052
0.014356,-0.0401726
0.0207353,-0.0253057
0.0412529,-0.0106293
0.0409501,0.00150827
0.0101674,0.0153293
-0.00386734,0.0301639
0.0181898,0.0403862
0.0359934,0.0490286
0.0392085,0.0412268
0.0449664,0.0268295
0.0335242,0.0142793
0.00146405,-3.29e-05
-0.0332966,-0.0109342
-0.0716669,-0.017121
-0.0940183,-0.0155434
-0.0951143,-0.0125682
-0.072538,-0.0176201
-0.0209173,-0.0175853
0.0251674,-0.0159711
0.0315057,-0.0141287
0.031575,-0.00873732
0.0318654,-0.00400902
0.0222414,-0.00291407
0.0106361,-0.0033948
0.0085832,-0.00985119
0.020219,-0.0168566
0.0224647,-0.0205096
0.0108452,-0.0156627
-0.0125392,-0.0129997
-0.0307637,-0.0096907
-0.0113752,-0.000158215
0.000507157,0.0144962
0.00880355,0.0230282
0.0256794,0.0196084
0.0210686,0.013466
0.00548964,0.0045215
-0.0113159,-0.00357172
-0.0237705,0.000338399
-0.0232008,0.00538692
-0.0169751,0.00600704
-0.0231953,-6.76e-05
-0.019362,-0.00193334
0.00121942,-0.00204452
0.0158268,0.00212569
0.01548,0.00541156
-0.00504051,0.00799879
-0.03806,0.0124025
-0.0408701,0.0168771
-0.000853846,0.0153937
0.0511427,0.0107621
0.0620432,0.00496368
0.042054,-0.00693044
0.0530319,-0.00899699
0.0820519,-0.000701752
0.0835351,0.00280188
0.0552215,0.00748439
-0.000494573,0.0110701
-0.074887,0.0053979
-0.127754,-0.00913948
-0.144333,-0.0199759
-0.0984673,-0.0160099
0.0101567,-0.0140801
0.0468437,-0.0202816
0.0360913,-0.0162855
0.0606728,-0.00566955
0.0631113,0.00480696
0.0186091,0.0167089
-0.0612871,0.0207265
-0.124075,0.00821645
-0.0920446,-0.00715469
0.0323181,-0.0149189
0.0655383,-0.0206657
-0.00889781,-0.0208602
-0.0627201,-0.00905354
