Comp Ch 3,Comp Ch 4
0.0178976,-0.0196891
-0.0179974,0.0145068
-0.086568,0.0209571
-0.155171,0.026066
-0.237392,0.0202536
-0.237299,-0.0408546
-0.0889112,-0.103611
0.0625886,-0.08868
0.173871,-0.0284356
0.151099,-0.00116695
0.0663848,0.0216627
0.00702254,0.0725135
-0.00328456,0.0640571
-0.00611174,-0.00215374
-0.0196229,-0.0303905
-0.00151451,-0.0375702
0.000896101,-0.0373613
-0.0434827,0.00103948
-0.0165997,0.0557767
0.0128378,0.0726859
0.0384235,0.0805513
0.0654478,0.0219776
0.118935,0.0179363
0.103847,0.023318
-0.00317121,-0.0336847
-0.0802275,-0.0354452
-0.0879893,0.00265186
-0.0407055,-0.0255588
-0.00374916,-0.128105
0.013521,-0.143975
0.000177251,-0.0984431
-0.0226693,-0.0441774
-0.0237367,-0.019508
-0.0157033,0.00546686
-0.00242385,0.00934523
-0.000630183,-0.045991
-0.00671625,-0.119778
-0.0236818,-0.0987652
-0.038457,-0.040679
-0.0254555,0.0697848
0.0158735,0.188184
-0.0203562,0.244374
-0.0826305,0.205878
-0.036888,0.0996612
0.11248,0.0431952
0.142979,-0.0229952
0.0646022,-0.0237232
-0.00532123,0.0110877
-0.0285099,0.0515899
-0.00526406,0.0538441
0.00807088,0.00139214
-0.00555389,-0.00491823
-0.0245351,-0.0416019
-0.0347372,-0.111505
0.0070945,-0.107994
0.0968562,-0.062602
0.107061,-0.0268468
0.01613,-0.00573939
-0.0476837,0.0684855
-0.0417128,0.0178119
-0.0234296,-0.0138831
-0.0359932,-0.0647669
-0.042302,-0.0443262
-0.048555,-0.0364556
-0.064594,-0.0531623
-0.0473428,-0.0230583
0.0161321,0.0569694
0.0331881,0.110402
0.02834,0.0584339
0.0294805,0.0264938
0.0247102,-0.0181681
0.0182988,-0.0445991
0.00956309,-0.0271151
0.00183976,0.0325579
0.0143634,0.0123667
0.0276371,-0.00251084
0.0170878,0.0183457
-0.00179451,-0.0289317
-0.0021242,-0.0288481
0.00188774,-0.00681096
-0.0117731,-0.0192675
-0.0110099,0.0441686
-0.0268328,-0.023834
-0.0378877,-0.0330942
-0.0641242,0.000145305
-0.0346337,-0.0206237
0.0371107,0.0450468
0.0562614,0.0818154
0.0429819,-0.00440277
0.0322635,-0.0193047
0.0381262,-0.0207803
0.0410063,0.0233983
0.019335,0.0101427
-0.0166839,-0.0265834
-0.0146917,-0.0332573
-0.00227663,-0.0144624
-0.0054129,-0.0440166
-0.0307584,0.00132871
-0.0500352,0.000422366
-0.045613,-0.0177308
-0.0429056,0.0452558
-0.0623623,0.0299747
-0.0321042,0.0372351
-0.0275606,0.0153677
0.00251644,-0.0100107
0.0790259,-0.0464321
0.0815713,-0.0888334
0.0287075,-0.0704644
-0.00812431,0.014288
-0.00868685,0.0581872
-0.000387203,0.0453265
-0.00876174,0.0641944
-0.00151728,0.00763935
0.0205624,-0.0254872
-0.00548797,-0.0380101
-0.091265,-0.00971072
-0.0429484,-0.0190097
0.00687582,-0.0306656
0.01872,0.0518244
0.0539661,0.0706517
0.0546745,0.0243235
0.0668583,0.0355585
-0.0136693,0.0302823
-0.0403764,0.0132787
0.00513696,-0.00721544
0.0333204,0.00779308
0.0483119,-0.0210397
0.0425453,-0.0401471
0.0129897,-0.0453142
-0.0147053,-0.0470087
-0.0256356,-0.0473807
-0.0144639,-0.0144031
-0.0150641,0.0307616
-0.0344012,0.0962432
-0.0557329,-0.00809543
-0.0320548,-0.0187625
0.0196009,-0.00147516
0.0422944,-0.0192117
0.0257636,0.00234107
0.0142185,0.0543865
0.00461277,0.0790119
1.1e-05,0.0634153
-0.0103839,0.055995
-0.0401677,0.013855
-0.0915185,-0.0706319
-0.141899,-0.10826
-0.117245,-0.15075
-0.0485959,-0.0750844
0.0818054,-0.0091581
0.163473,-0.0333324
0.160255,-0.047965
0.151534,0.0356237
0.0823774,0.152983
0.0137827,-0.0093716
-0.0172513,-0.102836
0.00385459,-0.0224943
-0.0114974,-0.0585234
-0.0284545,-0.0653076
-0.0368242,0.0269
-0.0297903,-0.00322391
-0.0546319,0.0600881
-0.098302,0.137281
-0.0730312,0.122415
-0.0361743,0.0735484
-0.0206434,0.0844901
-0.0301943,0.0594325
-0.167352,0.0500119
-0.237953,0.0412102
-0.092106,-0.00704405
0.0554709,0.0344967
0.129322,-0.0269161
0.178214,-0.0317516
0.177973,-0.0310825
0.0841659,-0.0220745
0.0216434,-0.0355735
0.127188,-0.0811465
0.171946,-0.0487546
0.106277,-0.0319712
0.0557735,-0.0437125
-0.00040023,-0.046511
-0.0994912,0.00268186
-0.123376,-0.00957193
-0.0887206,-0.0691918
-0.173322,-0.0197198
-0.242955,0.0192058
-0.11458,0.0237619
0.115869,0.027561
0.2386,0.0414858
0.164927,0.043235
0.0962957,0.0321459
0.058951,0.0163948
0.0266013,0.00583739
-0.0074691,0.00250967
-0.0236715,-0.00547186
-0.0115849,-0.0197022
-0.0256903,-0.00577689
-0.137492,0.033237
-0.239825,0.00249127
-0.201301,-0.0193941
0.0160622,-0.0274472
0.139412,-0.0271244
0.102201,-0.0921993
0.0473641,-0.166462
0.106748,-0.211143
0.120766,-0.197315
0.0330012,-0.0901525
-0.101382,0.0472584
-0.1359,0.191473
-0.121992,0.278397
-0.0973834,0.239553
-0.102643,0.159792
-0.0370163,0.0353185
0.153141,-0.0171629
0.287282,-0.0347331
0.21197,-0.0516547
0.0351707,-0.048849
-0.0759069,-0.0387085
-0.0191509,-0.00241485
-0.0772092,-0.00864094
-0.30996,-0.0280132
-0.386404,0.016137
-0.0896976,0.00660892
0.130477,-0.0517288
0.22001,-0.0300723
0.178366,0.000983552
0.130066,-0.00663637
0.082022,0.0179857
0.0854415,0.0462986
0.0607755,0.0492759
0.117832,-0.0219195
0.0951628,-0.104576
0.00558678,-0.0418241
-0.048222,0.0612915
-0.0814684,0.14565
-0.0858161,0.0487997
-0.0971155,0.0201634
-0.09125,0.00610439
-0.0126208,0.0823955
0.0633655,0.11927
0.0301266,0.0984692
-0.0920737,0.0460235
-0.230422,-0.00545261
-0.230925,-0.028004
-0.184704,-0.0712078
-0.0888109,-0.135731
0.0555459,-0.149036
0.224405,-0.0690766
0.283082,-0.0757362
0.195057,-0.095944
0.0514199,-0.0551813
0.0202706,0.0340765
-0.0150611,0.0580756
-0.063724,0.0623281
-0.0491555,0.00830439
0.0186863,-0.0448564
0.0257402,-0.0792521
0.0720135,-0.0429785
0.0583467,-0.023672
0.0147181,0.0170455
-0.0485828,0.101931
-0.0940505,0.0856331
-0.0673551,-0.00771538
-0.0256721,-0.0296803
0.0706593,0.0313172
0.11839,0.0262316
0.0723571,0.0208925
0.0365105,0.0179876
-0.0555078,0.031085
-0.112894,0.0295163
-0.105348,0.0175256
-0.0523136,0.0182707
0.0174777,-0.024347
0.0432589,-0.0363733
0.0391422,-0.0615152
0.027867,-0.110493
0.0477721,-0.098903
0.0283193,-0.0523419
-0.0150777,0.0327251
-0.00876852,0.0455992
-0.056729,0.00911343
-0.0662415,-7.47e-05
-0.0721967,0.0101097
-0.0697592,0.0591738
-0.00403787,0.0803191
0.0459781,0.0849997
0.0447826,0.0527565
0.033326,0.00183601
0.0101902,0.0224545
-0.0411319,0.00379367
-0.0555566,-0.0572478
-0.0294474,-0.0317016
-0.0576293,-0.0622501
-0.0918152,-0.0555135
-0.0244067,-0.0216478
0.079066,-0.0176619
0.0903743,-0.0157912
0.0658616,0.0527441
0.110136,0.0587333
0.0466455,0.0547727
-0.0343275,0.0771898
-0.0638262,0.0329159
-0.0395712,-0.0920416
-0.0314695,-0.172628
-0.0159181,-0.143211
0.0386609,-0.0896509
0.0474327,-0.0175255
0.0496054,0.0167916
0.091881,-0.0148112
0.108604,0.0271389
0.0498136,0.0885231
-0.0372018,0.0523848
-0.0801522,0.0521739
-0.0575781,0.0129269
-0.0252643,-0.0226261
-0.0226894,-0.0553278
-0.0645586,-0.00465056
-0.0619832,0.0899776
-0.0182386,0.172799
-0.00117902,0.223036
-0.0306999,0.0859747
-0.0235047,0.012072
-0.0090818,-0.00333646
0.0846259,-0.062329
0.181902,-0.0613948
0.14699,-0.020261
0.0263507,0.00590761
-0.0671035,-0.0257518
-0.0997547,0.0117421
-0.112698,-0.0390382
-0.136631,0.0481321
-0.154881,0.0298261
-0.0302813,-0.0101493
0.176694,-0.0227875
0.187571,0.021229
0.0294452,0.0666512
-0.128124,0.0739113
-0.183109,0.0587035
-0.148274,0.0180199
-0.0530209,-0.0442155
0.117678,-0.106985
0.190102,-0.144935
0.137226,-0.176647
0.10139,-0.161944
0.0774545,-0.00432939
0.0186157,-0.00807786
-0.0316484,-0.124448
-0.0271046,-0.181365
-0.0285174,-0.0974232
-0.0718284,0.014981
-0.0451112,0.110481
0.0350937,0.101785
0.0562508,0.0653093
-0.0190593,0.0837913
0.00438318,0.0812675
0.023408,-0.0195456
-0.0141925,-0.000782399
-0.0640146,0.0345971
-0.0321919,0.00372111
0.0366889,-0.0327578
0.048003,0.000509736
-0.0122587,0.0646341
-0.0412364,0.00676436
0.0154677,0.0129326
0.0715172,-0.0222706
0.0328082,-0.0828964
-0.0636905,-0.0550759
-0.0832299,0.00893801
-0.0714683,0.0512605
-0.0380231,0.0614142
0.00443269,0.165839
0.00798102,0.0359188
-0.0131663,-0.0571537
-0.032569,-0.0260957
-0.0376663,0.000390271
-0.0483094,-0.0343024
-0.0334511,-0.0121462
0.0805544,0.0265421
0.156136,0.0199954
0.121996,-0.0512309
0.0771271,-0.0162761
0.132,0.0337772
0.134662,0.00810651
0.0719401,0.0158572
-0.0541133,0.0814504
-0.22787,0.0192985
-0.288239,-0.0254667
-0.239809,-0.0174509
-0.047402,0.0221507
0.0753314,0.0103181
0.115054,0.0156674
0.140767,0.0750172
0.143495,0.0661231
0.0448018,-0.0598493
-0.0994476,-0.08718
-0.123204,-0.0726122
-0.0914256,-0.0712941
-0.104376,-0.0795872
-0.10684,-0.00196424
-0.0430441,0.0483355
0.120597,-0.106718
0.161923,0.0192123
0.14103,0.0866576
0.137916,0.0210664
0.124275,0.0154784
0.049245,0.00200023
-0.0641659,0.00463963
-0.0174545,0.0316907
0.068993,0.043145
-0.0303479,-0.0105297
-0.153597,-0.0217003
-0.164388,-0.000871694
-0.105603,0.0143452
-0.046004,0.00139861
0.0147037,0.0149206
-0.00408799,-0.00375273
-0.0920242,-0.032313
-0.131091,-0.020789
0.00373508,0.00225142
0.132661,0.00640327
0.180822,-0.00661259
0.169275,-0.0190511
0.0607724,-0.0332083
-0.0228227,-0.0481233
-0.0905136,0.0204953
-0.104121,0.0834568
-0.0983966,0.0258564
-0.0626565,0.00748426
-0.0119422,0.0279568
-0.00240278,0.0170509
0.0373097,-0.00109374
0.151018,-0.0479617
0.247437,-0.00525634
0.317773,-0.0306102
0.204782,-0.0421916
-0.0494719,-0.0210745
-0.252178,-0.0291103
-0.251953,-0.0111309
-0.161056,0.0318005
-0.116132,0.0313608
-0.0705848,-0.0226079
-0.0274452,-0.0143883
0.0348785,0.0120501
0.0851847,0.046931
0.0337605,-0.0002318
-0.0313885,-0.0368939
-0.0580836,0.0562639
-0.0173243,0.0344026
0.0383957,-0.0453956
0.00877506,-0.0191205
-0.00415049,-0.00747894
0.0433292,0.00590558
0.0676896,0.0117152
0.0536842,-0.0058942
0.0400603,-0.0411995
-0.0176384,-0.00236844
-0.0995746,0.00650629
-0.097154,0.0165831
0.000559801,0.0160573
0.0154129,0.0230813
0.0171836,0.0318991
0.0814008,0.0238772
0.136611,0.00709955
0.115995,0.00354643
-0.024933,0.00402965
-0.118511,0.00478824
-0.0196651,-0.010343
0.073858,-0.0254363
0.0202458,-0.00493323
-0.0109076,-0.0289012
-0.0464633,-0.0337985
-0.0834627,0.0180568
-0.0825465,0.0020929
0.00341138,-0.0196866
-0.000944976,-0.0417652
-0.0551246,-0.0487215
-0.051117,0.00279574
0.0357477,0.0688002
0.0907169,0.0215621
0.105038,0.0297585
0.191111,0.0256047
0.0770994,0.026478
-0.0837198,0.0251938
-0.19845,0.0199409
-0.174318,-0.0533451
-0.0796879,-0.0804227
-0.0422782,-0.0183711
-0.0245089,0.0604755
0.00139006,0.0690729
0.037349,-0.0300689
0.058615,-0.0299618
0.0787571,0.00251449
0.0670185,-0.0883355
0.0380762,-0.10994
0.0341852,-0.0300761
-0.027215,0.0936173
-0.0392401,0.0716671
-0.0263808,0.0869922
-0.0342029,0.0606241
0.00187795,0.0268491
0.0503391,0.0195766
0.068088,0.0173931
0.00237058,-0.00779611
0.020588,-0.0223091
0.0757405,-0.0130758
0.0856835,-0.0118065
0.0707426,-0.0463897
-0.0185251,-0.0460432
-0.0843131,0.00956875
-0.0978447,0.0310172
-0.10424,0.00381175
-0.0981241,-0.0301207
-0.107575,-0.0976161
-0.070322,-0.0854034
-0.047983,-0.0707449
0.0114305,-0.0243386
0.102193,0.100981
0.104961,0.0579424
0.0226174,-0.0387007
-0.0343828,-0.069276
-0.0312785,-0.0235985
0.0431644,0.0832721
0.0886359,0.115962
0.035915,0.014223
0.00525402,-0.000864021
0.0279811,0.0434027
0.0527407,0.0347656
0.00801271,0.0135579
-0.0457975,0.00847629
-0.030068,0.0240768
0.0140734,0.00574684
0.0433987,-0.0171074
0.0356238,-0.0386534
-0.0416879,-0.0629147
-0.0770788,-0.061532
-0.0147759,0.0166235
0.0937282,0.0128204
0.0866459,0.0115538
0.0418786,0.0265145
-0.0168897,-0.0641482
-0.0857632,-0.0233173
-0.0950222,-0.000623301
-0.0422494,-0.0143641
-0.0082868,-0.0128741
0.0247708,-0.0276138
0.0391618,0.0115056
0.00181551,0.0698579
-0.0388623,-0.0289577
-0.0633458,0.031729
-0.0516358,-0.00374573
-0.021293,0.0143201
0.0108387,0.0732834
0.0775765,0.0832758
0.115031,0.0377089
0.0633839,-0.0396503
-0.0737178,-0.0186424
-0.123423,0.0362754
0.0120842,-0.0303054
0.0837625,-0.068473
-0.0768859,-0.039459
-0.135211,-0.0143926
-0.0428316,-0.027344
0.0348975,-0.0145557
0.0773911,0.111633
0.0372654,0.0480486
0.00676662,-0.0485405
0.00129013,-0.0679279
0.0119377,-0.0244612
-0.0304709,0.043706
-0.0945637,0.0456952
-0.0898959,-0.0365837
0.0111513,-0.0303255
0.146258,-0.00838933
0.176713,0.00223378
0.127529,0.0423796
0.014374,0.013002
-0.101548,-0.0460368
-0.0485477,-0.0631537
0.0913471,0.0248632
0.0673748,0.0447221
-0.0318325,0.0342184
0.00596466,-0.0149379
0.0103274,-0.00853822
-0.0478283,-0.0165505
-0.099709,-0.0100411
-0.105101,0.0182802
-0.0825314,-0.0461616
0.0127791,-0.0428043
0.1105,-0.00589645
0.118529,0.0289127
-0.00357995,0.0887427
-0.10553,0.0253376
-0.139457,-0.0420353
-0.14834,0.00618827
-0.0528637,0.0557913
0.148891,0.0391982
0.199897,-0.0119964
0.00214676,-0.0162
-0.0915693,-0.00641805
-0.0602627,-0.0172208
0.0475892,-0.0303974
0.13518,-0.0755074
0.072305,-0.0525009
-0.0220781,0.0252497
-0.031379,0.0285301
0.0128278,0.0117905
0.00834647,0.0185754
0.0367968,-0.00217162
0.010203,-0.00172968
-0.0152508,0.0165577
-0.0381214,0.0393296
-0.0643182,0.0225296
-0.0612119,-0.0384248
-0.0284769,-0.0423101
0.0398468,-0.0356932
0.0336858,-0.0124354
-0.00670496,0.0693643
-0.00107811,0.0520308
-0.00862456,0.0341974
0.0431457,0.0102519
0.0828214,-0.0199611
0.00270763,0.00924661
-0.0599452,0.00606047
-0.035246,-0.0110202
-0.0250985,0.0104018
-0.00229933,-0.0463649
-0.0215135,-0.0268133
-0.0566824,0.0315369
-0.066402,0.00989564
-0.0182394,-0.0206736
0.0604759,-0.0465992
0.137808,0.00999002
0.0933733,0.018859
0.000739392,-0.0649162
-0.00450771,-0.0694172
0.0110206,-0.00913006
7.97e-05,0.0359269
0.0202349,0.00756278
0.00243143,0.0037407
-0.0539218,-0.031784
-0.0765242,-0.0195232
-0.0392365,0.105521
-0.00842557,0.0439635
-0.0118221,-0.0128832
-0.0110676,0.0106001
-0.0171961,-0.0048309
-0.0400081,-0.0545472
0.0403141,-0.0589041
0.0579952,0.0103436
0.0304049,0.0171295
0.00635117,0.0291639
-0.0125855,0.0411408
-0.0308525,-9.28e-05
-0.0387096,0.00301568
-0.0513275,0.0428378
-0.0531234,0.0334532
-0.0225015,-0.0875566
0.0948799,-0.053537
0.159668,0.0458353
0.115408,0.0338509
0.0391839,0.017591
-0.0344741,0.0334522
-0.0265401,0.0439762
-0.012436,0.0143409
0.00914298,0.0140771
0.0335646,0.0175744
0.0186126,-0.0229109
-0.06253,-0.0583735
-0.143358,-0.0529085
-0.0938,-0.0780031
0.0136994,-0.0610666
0.0958428,-0.00617026
0.0627475,0.00428391
-0.0307783,0.0586173
-0.0879527,0.0656884
-0.0988279,0.00701535
-0.0724182,0.0567354
-0.0557246,0.0169119
0.0297649,-0.0425915
0.10243,-0.0248134
0.0643612,0.0456137
0.0148331,0.0597286
0.00351033,0.0142437
-0.0310835,-0.0522121
-0.0523337,-0.102774
0.0148134,-0.0340963
0.0664077,-0.11884
0.0831545,-0.1856
0.0744642,-0.15652
0.062128,-0.00137369
0.0327465,0.119873
-0.0358178,0.0861903
-0.0440741,0.114134
-0.0274588,0.175969
0.011931,0.173416
0.0287498,0.0918882
-0.0051507,-0.0219884
-0.0583034,-0.00782176
-0.116586,-0.0149069
-0.108707,0.105293
-0.0332946,0.060025
0.0155532,-0.0320749
0.0617724,-0.0277558
0.0837499,-0.0250354
0.028129,-0.0835365
0.0111852,-0.172199
0.0267051,-0.00747757
0.00551578,0.0179493
-0.00842821,-0.0114905
-0.0127127,0.0107489
0.00758698,-0.014394
0.0131827,-0.0277292
-0.0105439,-0.0285036
0.00834443,-0.0218255
0.00839942,-0.04368
-0.0392667,-0.0119414
-0.0493898,0.0372777
-0.0332454,0.0335855
-0.0310279,0.0334261
-0.00348337,0.0518925
0.0369726,0.0161732
0.0284088,-0.0172836
-0.0264853,-0.0146623
-0.0532434,-0.0249537
-0.052196,-0.0262269
0.0759247,-0.0104951
0.148409,0.00720151
0.0951333,0.00429797
0.0155287,-0.0387468
-0.0108979,-0.0320872
-0.00572834,-0.024014
-0.00340668,0.027155
-0.00349385,0.0330248
-0.00754518,0.0493338
-0.0126682,-0.0227327
-0.0357764,-0.0661058
-0.0532106,-0.0363475
-0.0366362,0.0418049
-0.0215022,0.0638467
-0.0509681,0.0204883
-0.0479875,-0.0325975
0.0326768,-0.0169047
0.0734875,0.0399273
0.0300473,0.092715
-0.0389254,0.0617112
-0.0770383,-0.0365301
-0.0588368,-0.066771
0.0180149,-0.115262
0.00863166,-0.0398467
0.0165284,0.110201
0.0204557,0.0341477
-0.0221643,-0.0941631
0.00293935,-0.0534187
0.085393,0.0752643
0.166289,-0.0557392
0.113445,-0.0485807
-0.0125742,0.0715486
-0.0825758,0.0714611
-0.0832017,-0.0197739
-0.045395,-0.0564227
0.0027924,0.0264336
0.012952,-0.0439466
0.0149154,-0.101499
-0.000970377,0.0554045
-0.0349835,0.0887685
-0.0268832,0.146093
0.023855,0.0518181
0.0289166,-0.00288305
0.0413033,0.0242017
0.0585246,0.00631448
-0.00747577,0.0436729
-0.0746997,0.0354372
-0.0963401,0.0277321
-0.107744,0.0462755
-0.114793,-0.0610491
-0.0754467,-0.140858
0.0455457,-0.0423611
0.116456,-0.0249974
0.0789007,-0.0159709
0.0128933,-0.00321807
0.0327831,-0.0733657
0.0939109,-0.0432836
0.0781456,0.0343339
0.0259014,-0.0607235
0.0180753,-0.0923047
0.00832978,0.0145616
0.0220559,0.0677178
0.0582831,0.116743
0.0629349,0.130813
-0.0213498,-0.00905073
-0.0969778,-0.0135309
-0.125564,-0.0242599
-0.0534959,-0.0693306
0.0203955,-0.0945123
0.0429232,-0.0521278
0.0292202,-0.0191957
-0.0265127,-0.0071441
-0.0472346,0.0640251
-0.0591718,0.0566662
-0.0670672,-0.00256471
-0.0816859,0.0156943
-0.0834937,0.0211842
-0.0177293,0.144795
0.0604845,0.133044
0.065848,-0.145006
0.0111553,-0.0719873
-0.0128277,-0.0348945
0.0269808,0.0121404
0.0522995,-0.00596288
0.0466724,-0.0454298
0.024984,-0.0335795
0.0876897,0.0775198
0.134446,0.0494575
0.0798428,-0.0197769
-0.00772741,0.0182452
-0.111933,0.0280719
-0.13848,-0.028005
-0.0986149,-0.0613618
-0.040927,-0.0578934
-0.0201773,0.007206
-0.0352143,0.0583577
-0.0266289,0.0257111
-0.00678688,-0.0078866
0.0422623,-0.0268763
0.0616644,-0.0542063
0.0541384,0.00358785
0.0338866,-0.178006
0.024745,-0.0726456
0.00279483,0.102351
-0.0190748,0.13082
-0.0223527,0.118359
-0.00671319,0.0211673
0.00694459,-0.0174397
-0.00158798,-0.0742559
0.0504612,-0.024139
0.084227,0.0072115
0.00703564,-0.188278
-0.058931,-0.0713318
-0.0350975,-0.0317615
-0.0705026,0.0771187
-0.088516,0.238628
-0.0309375,0.151276
0.0975387,0.102389
0.0663185,-0.0149587
-0.0647098,-0.0524324
-0.084493,-0.0302224
0.0145777,-0.00911083
0.084672,-0.00446016
-0.066274,-0.0181574
-0.168013,-0.00531829
-0.0929043,0.00927677
0.0257938,-0.076397
0.158101,-0.0428475
0.202914,0.0177596
0.160266,0.014977
0.121362,0.00325295
0.0767763,-0.0927572
0.0172248,-0.106173
-0.0525627,0.00477799
-0.127952,0.0467198
-0.124417,0.0865003
-0.105659,-0.0308072
-0.0820771,-0.129245
-0.0459604,0.0436187
-0.0302049,0.151765
0.0163668,0.108473
0.0648206,0.00654152
0.0748659,-0.0143612
0.0227256,0.00660919
-0.0333716,-0.0215301
0.0668791,-0.100925
0.192068,-0.0976166
0.179553,-0.0923745
0.0667365,-0.0550981
-0.0786918,-0.0240156
-0.218208,0.0201029
-0.112126,0.0592034
-0.0447525,0.176322
-0.0627575,0.319141
-0.0277568,0.107097
-0.0749405,-0.0478688
-0.170097,-0.173948
-0.15624,-0.164901
-0.0277209,-0.0629125
0.0937985,-0.0439094
0.125933,-0.00718807
0.107308,-0.0822069
0.0229443,-0.0465641
-0.0428163,0.0940255
-0.0415495,0.0641017
-0.0437729,0.0679967
-0.011586,0.164243
0.0171038,-0.0298477
0.0775674,-0.173052
0.0984504,-0.0900194
0.0989868,0.0556532
0.080398,0.115785
0.0673543,0.0388146
0.0756827,0.0079188
0.0974743,-0.0282473
0.1158,-0.0345685
0.0856296,-0.108569
0.0229171,-0.0348613
-0.0779652,0.0808461
-0.2038,0.233589
-0.239269,0.17242
-0.0751739,0.00722401
0.0377579,-0.024981
0.0753201,-0.0996027
0.0122234,-0.290246
-0.09573,-0.314792
-0.0586828,-0.167838
0.0338441,0.00844704
0.0909585,0.107373
0.0269626,0.165752
0.00067985,0.098559
-0.0280505,0.0864112
-0.0722376,-0.0024946
-0.0531927,0.0329432
-0.00463951,0.00782921
0.0504458,-0.0609305
0.0133022,-0.0812084
-0.131118,0.0688209
-0.215308,0.246459
-0.13833,0.188105
0.110172,0.0409599
0.259016,0.0302527
0.294756,-0.0552657
0.15151,-0.150732
-0.0374631,-0.163568
-0.107758,-0.0750446
-0.0616025,-0.0217178
-0.0103118,-0.00684045
0.010573,0.084098
-0.0231437,0.127514
-0.0595102,0.0143052
-0.0464181,-0.031176
0.0345799,-0.0619902
0.0342374,-0.108757
0.0273979,-0.00124528
0.0894541,0.04495
0.0571842,-0.0226475
-0.0783594,-0.0722833
-0.167173,-0.0146427
-0.133129,0.017913
-0.116285,0.0236569
-0.0999829,0.0817684
-0.113202,0.0199214
-0.0655685,-0.0285374
0.0933223,-0.0173881
0.109363,-0.110028
0.123357,-0.0901531
0.14124,-0.0859962
0.19547,0.1263
0.164054,0.183937
0.047459,0.119745
-0.0244933,0.0476136
-0.0452838,0.039252
-0.0399228,-0.105347
-0.029126,-0.289941
0.0169998,-0.19348
0.0404911,-0.0874102
0.0446639,-0.0415437
0.0566584,0.0773766
0.00528464,0.25033
0.0138783,0.218671
-0.0221434,0.0370274
-0.0379728,-0.165119
0.0212885,-0.103728
-0.020204,0.0507667
-0.153409,0.124213
-0.293387,0.0999302
-0.333467,0.0228082
-0.196514,0.0377856
-0.0298889,0.0424251
0.0942194,0.0265585
0.157077,-0.103465
0.136524,-0.105185
0.0726284,-0.0620682
0.0274745,-0.0194022
0.0896665,0.107535
0.188212,0.165235
0.173159,0.101014
0.0501116,0.0287728
-0.158157,0.0297813
-0.29518,-0.175671
-0.193818,-0.308019
-0.0669767,-0.356664
-0.0135227,-0.172483
0.0349213,0.157409
0.06206,0.279265
0.0593685,0.288821
0.0543655,0.147797
0.0443377,0.0713417
0.0591882,-0.0690215
0.0781035,-0.0586734
-0.0282706,-0.0704734
-0.113004,-0.115176
-0.138863,-0.013132
-0.0576103,-0.0444052
0.0164192,-0.0940817
0.00542368,0.019377
0.0817743,0.160531
0.126775,-0.0321749
0.106336,-0.0586575
0.0837615,0.139645
0.0772691,0.0991381
0.0955867,-0.00477794
0.151856,-0.0220073
0.158661,-0.0511375
0.0212148,-0.221636
-0.0917437,-0.225878
-0.110237,-0.095833
-0.0146114,0.072666
0.157775,-0.0461698
0.176407,0.0886561
0.0547074,0.206837
-0.238353,0.125014
-0.305691,-0.0236902
-0.255222,-0.154229
-0.237382,0.123891
-0.156801,0.299689
0.0142494,0.0848711
0.0697521,-0.049563
0.0559564,0.00408594
0.0242154,0.00186351
0.0667101,-0.00403473
0.14295,0.0599433
0.137366,-0.0302547
0.0832454,-0.152055
0.0693313,-0.079868
0.062292,0.140504
0.139286,0.0338362
0.162117,-0.0529171
0.080272,-0.151349
0.0607784,-0.208837
-0.069792,-0.201876
-0.211675,-0.0493763
-0.198611,0.050273
-0.138273,-0.131376
-0.0426504,-0.167817
0.0563556,-0.116838
0.0885088,0.0532702
0.0350198,0.302489
-0.167057,0.105029
-0.360049,0.147239
-0.28428,0.295867
-0.0212666,0.0824491
0.0228133,0.00788961
-0.109878,0.204194
0.0159897,0.224186
0.215723,0.123028
0.19163,0.142172
-0.00207124,0.118465
-0.141727,-0.115989
0.0361642,-0.179875
0.412129,-0.240893
0.350072,-0.250118
0.0247672,-0.312889
-0.0852983,-0.486567
-0.0322822,-0.605672
0.113171,-0.305895
0.175625,-0.0530646
0.0915286,0.395037
0.0311016,0.748897
-0.119853,0.444067
-0.173062,0.0742863
-0.152705,-0.0766549
-0.177471,-0.136676
-0.164972,-0.152918
-0.017154,0.0332709
0.120439,0.175898
0.20183,0.238403
0.145304,0.156744
0.0721531,-0.0257928
0.0221329,-0.151445
-0.100065,-0.0633463
-0.224039,0.0989353
-0.315127,-0.000980331
-0.275216,0.0442343
-0.101298,0.0445148
-0.000255413,-0.0248477
-0.0587519,-0.0514059
-0.0925622,0.137677
0.0548433,0.117014
0.161725,-0.0965323
0.064978,-0.153262
0.120515,0.0299363
0.0692402,0.14279
0.0127952,0.0720426
0.0479409,-0.0731808
0.0769914,-0.239767
0.0700634,-0.266997
0.0711694,-0.183011
0.167455,-0.0921054
0.174812,-0.223049
0.0329056,-0.248322
-0.114504,0.0480407
-0.26434,0.209939
-0.0680764,0.337151
0.0476328,0.243331
0.0232693,0.0717918
-0.125857,-0.07596
-0.21083,-0.0492787
-0.0156826,-0.0606308
0.208606,-0.0612514
0.34033,-0.038304
0.299734,0.0153813
-0.0315787,0.214173
-0.206776,0.345228
-0.212451,-0.0891102
-0.0770459,-0.121333
0.0686962,-0.124838
0.174841,-0.183365
0.183844,-0.147407
-0.050272,-0.0747865
-0.172741,0.000717839
-0.10609,0.0992873
-0.0144094,0.149978
0.118146,0.131941
0.198807,0.089754
0.114566,0.00396988
-0.116107,-0.0773561
-0.321989,-0.0723193
-0.298337,-0.101026
-0.0713178,0.104348
0.0185767,0.324155
-0.0128453,0.244637
0.0714312,0.0583059
0.182788,0.0152203
0.11657,0.0453184
-0.0146587,-0.0808663
-0.0496324,-0.232452
-0.0239124,-0.278356
-0.00943157,-0.196826
0.0643587,-0.127539
0.118332,-0.0758192
0.0490356,0.0267455
0.0291837,0.148788
-0.0660289,0.129954
-0.100372,0.0553053
-0.101597,0.0514409
-0.127947,0.0374798
-0.0824062,-0.0489609
-0.0617294,-0.0394966
-0.0207452,-0.0518702
-0.00481697,-0.0928665
0.0112472,-0.0519107
0.0416226,-0.000816768
0.084789,-0.0377446
0.0628375,-0.0700539
-0.0866709,-0.0130812
-0.189714,0.03885
-0.103012,0.0868361
-0.0010736,0.0756209
-0.00241415,0.0809756
0.0254831,0.047931
0.0622096,0.0519637
0.0948684,0.0469101
0.15204,-0.0324743
0.178064,-0.026682
0.171253,-0.0021769
0.0915741,0.0575475
0.0114871,-0.0191567
-0.0258756,-0.203855
-0.0232226,-0.0236277
-0.0061071,0.15797
-0.055326,0.0481344
-0.0623485,-0.189874
-0.0203944,-0.088255
-0.0543048,-0.0382879
-0.056325,-0.0140238
0.000844152,-0.0194072
0.0565774,-0.0137739
0.0573089,0.0367086
0.00800895,0.102953
-0.0877328,0.134347
-0.141377,0.131117
-0.0823622,0.144853
0.0111478,0.0588187
0.024598,-0.040757
-0.0134462,-0.06497
0.0372479,-0.0836973
0.0611071,-0.0375144
0.034947,0.0662601
-0.00164559,-0.00863075
-0.0157377,-0.077623
0.00678637,-0.0427638
0.0354622,-0.00972364
0.0669356,0.0177775
0.0706465,0.0419593
0.0481696,0.00112986
0.0740297,0.00462159
0.0017384,-0.0234923
-0.0852294,-0.0233584
-0.0746502,-0.0134486
0.00106308,-0.0425778
0.0601678,0.0653208
0.0855686,0.0266999
0.0580983,-0.136788
-0.025925,-0.0636457
-0.0947099,0.00828773
-0.0769568,-0.119082
-0.105025,-0.168869
-0.0607044,-0.0482707
-0.023342,0.119045
-0.0247856,-0.0413809
0.0234085,0.0356333
0.0999263,0.194911
0.148668,0.110552
0.105437,0.0268405
0.0526977,0.138827
0.0168675,0.164607
-0.0215188,-0.0184932
-0.00534147,0.0149491
-0.081362,-0.0283296
-0.114146,-0.0854312
-0.0420011,-0.058829
-0.0231445,-0.0148015
-0.0370115,-0.0313406
-0.070513,-0.0302877
-0.120222,-0.0183538
-0.129294,-0.0196762
-0.0813222,-0.0135824
0.0111175,0.0114136
0.152374,-0.0194418
0.226664,-0.0134707
0.16354,0.0312093
0.035825,-0.023293
-0.0489065,-0.00778694
0.0446105,0.0216266
0.105761,-0.0012513
0.0898648,-0.0287221
0.0630407,-0.0313328
-0.0121962,-0.0190666
-0.128543,0.0280169
-0.176397,0.0143115
-0.15457,-0.0616711
-0.0322915,-0.0875544
0.113529,-0.119445
0.150738,-0.115594
-0.0127649,-0.0480802
-0.153782,0.0322568
-0.123459,0.179464
-0.0628081,0.194895
-0.0445784,0.148758
-0.133201,0.091763
-0.138489,0.0425031
0.0218725,0.0917315
0.157555,0.0287331
0.169961,0.0278513
0.0874887,0.0319659
0.05371,-0.154239
0.059296,-0.13881
0.0554108,-0.0818264
0.0318572,0.0111397
-0.0653434,-0.00770238
-0.179353,-0.00870896
-0.0849027,-0.0507682
0.0259073,-0.171838
0.0515911,-0.103172
0.0406234,-0.00355801
0.0292527,0.0659695
0.0319284,0.185971
0.0534013,0.227837
0.0393546,0.100587
0.000411142,-0.0731162
-0.053269,-0.0594505
-0.0560449,-0.0397853
-0.0364442,-0.068125
0.0354472,-0.108951
0.066583,-0.0853062
0.0294316,-0.0373687
0.00967607,0.0182752
0.102285,0.0722872
0.119937,0.129226
-0.0258143,0.145596
-0.170519,0.165621
-0.234362,0.0358775
-0.0822843,-0.0559638
0.0216866,-0.156
0.0756729,-0.128403
0.128987,0.0372992
0.0602376,0.0696029
0.042285,-0.00992271
0.00435509,0.0137771
-0.0228489,-0.0519884
-0.0782877,-0.0959012
-0.0701562,-0.149081
-0.021015,-0.0731677
-0.045315,-0.00651585
-0.0685344,0.0181569
-0.113662,0.172091
-0.0551473,0.112042
0.0337911,-0.120556
0.105071,-0.117833
0.0989257,0.0689854
0.0648367,0.0247492
0.0431589,-0.020599
-0.0279171,-0.0542762
-0.0385181,-0.0194183
0.00243761,0.0696054
0.0186605,0.139732
0.0021748,0.0756723
0.022876,0.0189091
0.037541,0.0298628
0.0225231,0.0361141
-0.00955275,0.0473068
-0.00891422,0.0480742
0.0475632,-0.00750779
0.0126477,-0.178113
-0.0264644,-0.255701
-0.0493289,-0.00558272
-0.0905174,-0.0297517
-0.0184993,-0.092795
0.00954099,-0.0307963
-0.0268038,0.0417772
-0.0415505,0.0133578
0.00134461,0.0541006
0.10603,0.0525302
0.0784151,-0.0563063
0.0319153,0.0846832
0.083081,0.154269
0.128542,0.053146
0.0780641,0.0181773
-0.0497119,0.00514317
-0.127359,0.0148533
-0.088754,-0.0607935
-0.0208424,-0.0782478
-0.013151,0.0109033
-0.0410176,0.0459368
-0.0150664,0.032592
0.00170242,0.0609319
0.0336763,-0.00315081
0.0461485,-0.0379096
0.0259417,0.0836664
-0.00568744,-0.106612
-0.0405413,-0.0826015
-0.0883091,-0.0264529
-0.091778,0.0699213
-0.041505,0.0768534
-0.0222923,0.0367781
-0.0756283,-0.00238206
-0.0783631,-0.0782983
-0.039246,-0.0645884
0.00281292,0.07349
0.0737399,-0.0305308
0.0835876,-0.0408106
0.0455159,-0.115532
0.0574059,-0.0461575
0.101122,0.0384915
0.0614531,0.0451875
0.0185893,0.00540952
0.0590893,-0.00727012
0.118412,-0.00308378
0.132205,0.0519219
0.0829159,-0.00849624
-0.0223085,-0.0265671
-0.152746,-0.0214657
-0.227847,-0.0369356
-0.178672,-0.036388
-0.115202,-0.0033246
-0.0423734,0.119363
0.0379637,0.153373
0.0993612,0.0442105
0.101601,-0.041235
0.0874367,-0.0126562
0.0680114,0.00132835
0.0286937,-0.0467838
-0.00929986,-0.0400692
-0.0440467,-0.0454957
-0.0488067,0.0901314
-0.0901654,0.0481228
-0.0934743,-0.0766041
-0.0213369,-0.141267
0.0916326,-0.0281963
0.13649,-0.00525994
0.100693,-0.0114521
0.0116719,0.11586
-0.0379051,-0.0861732
-0.0318048,-0.0198979
-0.0282199,0.108152
-0.00359752,0.0582018
-0.0283175,-0.0391933
-0.0866326,-0.0147256
-0.0587531,0.0201371
0.039331,0.117682
0.0275257,0.0839245
0.0043568,0.00799533
-9.36e-05,-0.065501
-0.0277763,-0.0394087
0.00301052,-0.033534
0.0182838,-0.0371369
0.0118817,0.0737442
0.0257096,0.0687388
0.0233787,-0.0250944
0.0327529,-0.0561555
0.0299374,-0.0927369
0.0399274,-0.112087
0.00206605,-0.026508
-0.055129,0.103443
-0.0676092,0.0580086
-0.0426214,0.049726
-0.0417535,0.0289149
-0.0324469,0.0192512
0.00227643,0.0162544
0.0246405,-0.00142353
0.0747757,-0.0377652
0.107924,-0.0324995
0.103661,0.0144444
0.0507621,-0.0501304
-0.0420445,-0.0426577
-0.126308,-0.0415314
-0.132066,-0.0799101
-0.0710825,-0.1777
-0.0465021,-0.236098
-0.0284257,0.027305
0.00399115,0.238113
0.0154639,0.157448
0.0585093,0.111486
0.129506,0.0811567
0.109657,0.0437311
0.060397,-0.00398695
-0.00491704,0.0211537
-0.0667515,0.0313919
-0.0829879,0.0480659
-0.105043,0.032482
-0.0903947,0.0534643
-0.0683389,0.0454687
-0.0487262,-0.117903
-0.00882601,-0.167561
0.0245607,-0.0936869
0.0541387,-0.0938047
0.045492,-0.0205114
0.0260464,0.061297
0.114926,0.0692792
0.307663,0.000249135
0.334271,-0.0609379
0.137905,-0.0449375
-0.16865,-0.00830027
-0.356123,0.00273437
-0.29463,-0.00624817
-0.110612,0.0323089
-0.0055377,0.0362196
0.0380438,0.00426621
0.0587854,-0.0152267
0.0521279,0.0436664
0.0790869,0.104411
0.0669474,0.129536
-0.0189029,-0.00831897
-0.0220734,-0.122602
-0.0629897,-0.0471671
-0.101738,-0.0414883
-0.108417,-0.0798573
-0.0545498,-0.102838
-0.00241954,-0.0454932
0.00791796,0.0379408
0.0391466,0.132767
0.0837931,0.129722
0.0596323,0.100539
0.0490212,0.110896
0.0428189,0.155255
0.0216189,0.0346379
0.038287,-0.100136
0.050004,-0.101292
-0.00229927,-0.0764218
-0.050248,-0.0787761
-0.0281601,-0.17971
-0.0252063,-0.251108
-0.0059229,-0.0885199
-0.0132406,0.0911104
-0.0130814,0.199888
0.0209292,0.181951
0.0214305,0.0362302
-0.0134805,0.0536163
-0.0665071,-0.00280603
-0.0601562,-0.135725
-0.00809468,-0.12784
0.0697938,-0.0259341
0.1164,-0.00429386
0.0657119,0.101505
-0.0367682,0.174246
-0.0749844,0.164914
-0.0457199,-0.0107539
-0.00928906,-0.0314084
-0.0235849,-0.00277846
-0.0440929,0.0265026
-0.0674979,-0.0239898
-0.0439113,-0.0664347
0.0153119,-0.051018
0.0447586,-0.00242188
0.0292239,-0.0098166
0.0019345,-0.021875
0.0416108,-0.0607389
0.0723358,-0.116457
0.0367585,-0.085754
0.0153024,0.0107953
0.0168848,0.0674209
0.0367894,0.0371639
0.0721434,0.0270653
0.0736088,-0.00523774
0.0467378,-0.0168628
-0.00807262,-0.0624894
-0.0640853,-0.117255
-0.0540207,-0.0860101
-0.0367877,-0.0348935
-0.0299633,0.0352688
-0.0536327,0.0706336
-0.126152,0.151271
-0.130667,0.13255
-0.0659159,0.0382729
-0.000932485,0.006751
0.050248,0.00507892
0.0684923,-0.0278461
0.108361,-0.0196877
0.0987138,0.0189476
0.0321687,0.0237073
-0.0827553,0.000818452
-0.100423,0.0425727
0.0217096,0.020981
0.137875,0.00140793
0.172094,0.0195336
0.0893497,-0.0783243
-0.0431962,0.000107244
-0.0844342,-0.0300568
-0.108039,-0.120949
-0.0954215,-0.155719
-0.0524936,-0.0983913
-0.0243857,0.0240207
-0.0208945,0.131958
-0.0442526,0.12072
-0.0445993,0.0933902
-0.0140297,0.0579018
0.0243058,0.0125247
0.0527195,0.00685593
0.0445775,0.0327247
0.0108188,0.0127643
-0.0195125,0.00263095
-0.0320624,-0.0223832
-0.00762808,-0.0106157
0.00819297,0.00243747
0.000550969,-0.0912496
0.0181616,-0.131263
0.0723061,-0.087391
0.102538,0.045101
0.0953898,0.0102652
0.0374576,0.0199554
-0.0319379,0.0114876
-0.0441771,0.0331407
-0.0608129,-0.00340682
-0.0641719,-0.0440091
-0.00134037,-0.0224809
0.014397,0.0351924
0.0212242,0.123036
0.00878437,0.153806
-0.0247837,0.0346208
-0.0511208,0.0108255
-0.0595842,-0.0312635
-0.020953,-0.0361013
0.00866883,-0.0612744
0.0360208,-0.0546655
0.0549803,-0.0686157
0.0506994,-0.0609349
0.0424126,-0.0231577
0.0140888,0.0430765
-0.00696304,0.0678101
0.0284171,0.0249592
0.0772235,0.0388904
0.0830086,0.0131205
-0.030638,-0.00967118
-0.188126,0.011525
-0.282957,0.0583232
-0.191291,-0.0365815
-0.0214384,-0.104281
0.0977217,-0.0462102
0.111189,-0.0796399
0.0663221,-0.0391267
0.100553,0.0685485
0.131459,0.069154
0.0556848,-0.0305547
-0.00626868,-0.037395
-0.00622926,-0.0251952
0.0321188,0.0434628
0.0372782,0.0380236
-0.0211069,-0.0289774
-0.085792,0.100297
-0.0977911,0.108462
-0.0467002,-0.0509097
0.0274758,-0.0753787
0.0862217,0.050454
0.0864659,-0.0109256
0.046552,-0.0736871
0.0185694,-0.0913177
0.0335341,-0.187722
0.0168599,-0.151309
-0.00628121,0.0220437
-0.0398535,0.118371
-0.112291,0.200275
-0.135803,0.116422
-0.0641364,0.054392
0.00991269,0.0345239
0.0234688,0.0179707
0.0133007,0.070361
-0.0624869,0.0210407
-0.0851887,-0.00339068
-0.018383,-0.0100016
0.0651146,-0.0394781
0.094239,-0.0167337
0.033438,-0.0267026
-0.0109132,-0.0192573
0.0178271,0.00375549
0.10887,-0.011238
0.105818,-0.0330897
-0.00969138,-0.038843
-0.133725,-0.00984045
-0.131678,-0.0260295
-0.0226978,-0.033115
0.00996537,-0.0916538
-0.0133468,-0.0697317
-0.0109522,-0.00129945
0.0100594,0.0508218
0.0227281,0.091306
0.0348206,0.130746
0.0228998,0.0260712
0.023744,-0.0393887
0.0424754,-0.00349887
0.0470637,0.0131555
0.0458053,-0.029383
0.0607247,-0.0907276
0.0336258,0.0119452
-0.0357227,0.118323
-0.0963346,-0.00502012
-0.0984244,-0.0710476
-0.058857,-0.0683273
-0.0629132,-0.0811012
-0.010616,0.0276626
0.0534249,0.0131469
0.0578335,0.0241975
0.00825463,0.146743
-0.0687876,0.0419605
-0.0659285,0.012141
-0.0106706,-0.0107219
0.00949161,-0.0282435
-0.014352,-0.0592906
-0.0284716,-0.0807873
-0.0213037,0.0476784
-0.00259994,0.0880732
0.0179131,0.0378454
0.062101,0.020186
0.14335,0.0145247
0.17761,-0.00349585
0.153174,-0.0104973
0.0819411,-0.0324929
0.0155032,-0.0269965
-0.00304962,-0.00891384
-0.0311395,0.0150427
-0.0484948,0.0129213
-0.0813242,-0.0123507
-0.130046,0.000162182
-0.0919415,0.0152503
-0.033981,0.0132104
-0.023463,-0.0566253
-0.0246587,-0.0535779
-0.0168894,-0.0163848
-0.0147353,-0.0916822
-0.0163955,-0.0586988
-0.0159161,0.0112535
0.0123108,0.0302073
0.0358591,0.0236457
0.0210477,0.0155561
0.000234005,0.0282585
-0.0102707,-0.0190295
-0.0255079,-0.0020069
-0.049659,0.0195872
0.0122763,0.0462456
0.104946,-0.000597027
0.0891321,-0.0239152
-0.0095454,-0.0396245
-0.098014,0.065292
-0.0802861,0.0971333
-0.0278734,-0.0236011
0.0141082,-0.00242767
0.0414807,0.0121015
0.041486,-0.0480968
-0.00856271,-0.041936
-0.0368031,0.0172322
-0.0067153,0.030512
0.0562387,-0.017454
0.100463,-0.0343607
0.0858714,0.021958
-0.000160297,0.0240391
-0.047459,-0.119078
-0.013595,-0.0609282
-0.0350874,-0.108266
-0.0488648,0.0315275
-0.0611253,0.075867
-0.0046176,0.0275734
0.0705169,0.0434391
0.080719,0.065917
0.0323634,0.114713
-0.0378679,0.121918
-0.083837,0.0661164
-0.0680942,0.0174547
-0.0361868,-0.00185532
-0.0237939,-0.0353163
0.0100371,-0.080167
0.0867399,-0.0623872
0.0960233,-0.0438568
0.0694038,-0.0329587
0.0221826,-0.0275513
-0.0247436,0.0742699
-0.0412685,0.0528692
-0.0831458,-0.0275652
-0.0931165,-0.0453225
-0.0248465,-0.0370717
0.0349145,0.0599956
0.0425276,0.0236057
0.0614682,-0.0428066
0.108487,-0.0555642
0.128003,-0.0305855
0.102229,0.0233957
-0.0440993,0.0358578
-0.144529,-0.0231047
-0.141777,-0.0911642
-0.0760502,-0.0600562
-0.0338711,-0.055667
-0.0638932,-0.0763146
-0.0337255,0.0478164
-0.0140115,0.20663
-0.04008,0.104421
-0.0379653,-0.0060074
-0.0213808,-0.0246294
0.0299085,-0.0566549
0.0617243,-0.0756265
0.0663961,0.0350551
0.0416898,0.0541863
0.0041733,-0.00135649
-0.00621627,-0.00480002
0.0108637,0.0381011
0.0249739,0.0690158
0.0239613,0.0584067
-0.00914042,0.0204534
-0.0155099,-0.0242975
0.00802468,-0.0666025
0.0120559,-0.0670454
0.00558132,0.0251443
0.0189759,0.0292653
0.0648609,-0.0300042
0.0731527,-0.0386491
0.0463432,-0.0509021
0.0250257,-0.117165
-0.01671,-0.135826
-0.0440109,-0.0939002
-0.0224278,-0.0284302
0.00981025,0.0907987
0.0215822,0.0798741
0.008842,0.0516273
-0.0335368,0.0723091
-0.0568078,0.0800191
-0.0310103,0.0864941
-0.00514507,0.0393157
-0.0356318,-0.00692692
-0.0816954,-0.00207547
-0.0611856,-0.00401181
0.036811,-0.0212487
0.10851,0.0292406
0.0815094,0.0191142
0.0252091,-0.0284007
-0.0234796,-0.0129798
-0.0609619,-0.00685744
-0.0708681,-0.0420094
-0.04983,-0.00950182
-0.041754,0.0256773
-0.0226966,0.0486992
0.0098014,0.00437521
0.0268735,0.00277012
0.0243076,0.0307221
0.0279646,0.0143866
0.0335433,-0.0126165
0.0225376,-0.0282932
-0.000136127,-0.0260684
-0.0307941,-0.0329069
-0.027005,-0.0565945
-0.00599635,-0.0244839
0.0133508,0.0169884
0.0243698,-0.022624
0.0425457,0.0266592
0.0553248,0.017482
0.0383624,-0.00581509
0.0354776,-0.00179077
0.00160704,0.0335867
-0.0517226,0.0471113
-0.0316353,0.0452513
0.0192312,0.0356051
0.0542931,-0.0213466
0.0402761,-0.17152
-0.0183955,-0.246024
-0.0447798,-0.082516
-0.0413507,0.0225086
-0.0495668,-0.0137069
-0.050466,0.061829
-0.0312108,0.0658146
-0.0109108,0.149657
-0.00794961,0.160913
0.000380019,0.0838771
0.036917,0.0355905
0.0651356,-0.020109
0.0377679,-0.0267985
0.0268955,-0.0117247
0.0197733,0.0323898
-0.004127,-0.00648035
-0.03313,-0.0208326
-0.0342899,0.015679
-0.00740629,-0.0292458
-0.0181173,-0.0449755
-0.0337653,-0.0563913
-0.0458643,-0.0377713
-0.0321831,0.0158335
-0.0143941,0.00069057
-0.00343836,-0.00781515
-0.00579802,-0.0302943
0.00923954,-0.0295987
0.0445427,-0.0147787
0.0956103,0.0282786
0.0904126,0.0302007
0.0527894,0.0610484
0.00456926,0.0774134
-0.0346416,-0.0282849
-0.0507559,-0.101325
-0.027427,-0.0923542
-0.0327852,-0.0155741
-0.0430519,0.0456561
-0.0443841,0.0226885
-0.041049,0.0359889
-0.0436593,0.0387963
-0.0186423,0.0144788
0.0149388,-0.0141083
0.0407785,-0.0088584
0.033823,0.0101853
0.0183118,0.0159824
0.0174864,0.00264923
0.0108714,-0.0246102
-0.0190761,-0.033049
0.0108888,0.00717672
0.0643057,-0.0260133
0.0879514,-0.0216204
0.0459831,0.0179373
-0.000371767,-0.0346033
-0.0185977,-0.0585006
-0.0219413,0.0401089
-0.0155205,0.0879871
-0.0161182,0.0548696
-0.0484264,-0.003287
-0.0256166,-0.0255473
-0.00245827,-0.0371614
0.00572443,-0.0484627
0.00523524,0.0117486
-0.0161227,0.0403779
-0.00313542,0.00440273
-0.00746296,-0.00174141
0.0083883,0.0372558
0.0363036,0.0726677
0.016757,0.0965432
0.00208048,0.0867298
-0.0261607,-0.00396861
-0.0350946,-0.0334586
-0.0193829,-0.0555709
-0.0215869,-0.0631786
0.00396683,-0.0339554
0.038128,-0.0957784
0.0289437,-0.0932878
0.0273031,-0.0414081
0.0613338,-0.0620379
0.0562916,-0.044156
0.0182236,0.0707157
-0.0407976,0.0596214
-0.102154,0.0201544
-0.062043,0.0348053
-0.0245896,0.00234897
-0.0289603,-0.0451305
-0.0255306,-0.0155098
-0.015136,0.00879655
0.00686121,0.0463333
0.00504858,-0.0437103
0.00416036,-0.0689301
0.0117144,0.0466535
0.0125462,0.082359
0.00645554,0.116157
0.0264631,0.115804
0.0102925,0.0543974
-0.00511529,-0.00307373
0.016696,0.014024
0.0033392,-0.0369696
-0.0103201,-0.0450844
-0.012459,-0.147873
0.0247998,-0.253763
0.0978945,-0.157101
0.156575,0.151264
0.0911619,0.196665
-0.0328739,0.0297064
-0.0989644,-0.0274172
-0.0880715,-0.00527321
-0.0794396,0.0234201
-0.0396326,-0.00534985
-0.00853778,-0.015162
-0.0313561,-0.0208869
-0.0390391,0.0114102
-0.0152742,0.0755553
-0.00646386,0.0897352
-0.0156782,0.0421949
-0.0242658,0.00322637
-0.00465205,0.00621835
0.0362964,0.00877281
0.0458261,-0.0286449
0.0285483,-0.035178
0.0142979,-0.0173452
0.0292481,-0.01259
0.0520534,-0.0106889
0.0353792,-0.00426213
0.0285145,-0.0403512
0.0104262,-0.0713395
-0.0256727,-0.0181495
-0.0525984,-0.024123
-0.0485618,0.0201595
-0.036537,0.0113621
0.00964196,-0.00245942
0.0547954,0.015224
0.0463907,0.0629319
0.00256982,0.0358401
-0.0151376,-0.0452971
-0.0115005,-0.0817193
0.000899249,0.00846188
0.000135751,0.0581411
-0.00467306,0.0287113
-0.0492736,0.00929457
-0.0895771,-0.00557127
-0.0536564,-0.0134335
0.00432494,-0.0488077
0.0470569,-0.0681086
0.0428693,-0.0316681
0.025426,0.0228128
0.0361903,0.0430162
0.0182747,0.0328122
0.00464417,0.0329776
0.0418256,-0.0198158
0.056416,-0.0870183
0.0362807,-0.124093
-0.0155908,-0.0619622
-0.0750256,0.136681
-0.102335,0.115301
-0.079014,0.0818159
-0.0210638,0.0414858
0.00827832,0.0118238
0.00959212,-0.0437234
0.0152724,-0.0897313
-0.00237361,-0.0290653
-0.0302749,0.0239047
-0.0546895,0.0475964
-0.0103793,0.122081
0.063585,0.102774
0.0766224,0.0418388
0.0468755,-0.0290844
0.0508213,0.0262352
0.0383073,-0.00482217
-0.00844493,-0.0589467
-0.0079642,-0.0382055
0.0284494,-0.0887636
0.0631123,-0.0367175
0.0742505,0.0495366
0.0889676,-0.00611045
0.0647613,-0.0497602
-0.0238413,-0.118758
-0.132178,-0.126558
-0.171357,-0.0856783
-0.111238,-0.0381092
-0.0609049,-0.0854758
-0.00990009,0.0427434
0.0109029,0.0855409
0.0642713,0.097114
0.0764572,0.0882365
-0.0100017,0.0380113
-0.0695408,0.0543613
-0.0723068,0.0498682
-0.0497602,0.0158494
-0.0065283,0.0696344
0.0231115,0.0842241
0.0300021,0.0195287
0.0310633,-0.0203443
0.0230433,-0.0225743
0.0133443,-0.01787
0.00782193,-0.0222088
0.0126442,0.0290099
0.0174986,0.00412112
0.0250242,0.0145235
0.0412073,0.00400374
0.00717688,-0.0458487
-0.00407012,-0.079944
0.0214802,-0.0824217
-0.00924633,-0.0461799
-0.0193317,0.0027189
0.000183235,0.068268
0.0108475,0.0537264
0.0477829,-0.0213959
0.0245693,-0.0518637
0.000530671,-0.0448133
-0.0312458,-0.0953771
-0.0618534,-0.126667
-0.0535329,-0.0205439
-0.03733,0.0144182
-0.0212945,0.173115
-0.0314497,0.139817
-0.0323048,0.0247721
-0.0246768,-0.00944512
-0.0262731,-0.0255198
0.00677011,-0.0122736
0.077124,0.00298109
0.0990145,-0.0345179
0.0473014,-0.0732791
-0.00820725,-0.0665906
-0.0266642,0.0454891
-0.0339402,0.000802932
-0.0183656,0.00444617
-0.000675694,0.109972
0.0604016,0.141438
0.13504,0.0646062
0.142471,-0.0226153
0.0721872,-0.0622821
-0.00682206,-0.0615632
-0.0437821,-0.0674207
-0.0856852,0.0394824
-0.103454,-0.045535
-0.0745357,-0.0429742
-0.0664281,0.0660019
-0.0761084,0.122287
-0.0370693,0.064441
-0.00681683,-0.0442529
-0.0189047,-0.0808505
-0.0335664,-0.0383175
-0.0109762,0.000853
0.0570679,-0.0148636
0.112203,0.0210363
0.0968556,0.0213433
0.0194385,-0.032628
-0.0719146,-0.104122
-0.0815535,-0.0837427
-0.0450286,-0.0126118
-0.00245085,0.0434716
0.0339826,0.0838085
0.0145043,0.0695266
0.00126253,0.0201348
-0.000936078,0.00958305
0.0185536,-0.0322772
0.0494395,-0.0559973
0.0501633,-0.00127194
0.0126343,0.00653516
-0.0096013,-0.0724183
-0.0114219,-0.0519719
0.0192534,0.025
0.0150596,0.0268729
-0.0164294,-0.0139624
-0.0190006,0.0630464
0.0129922,0.133721
0.0422773,0.109331
0.051735,-0.0350378
0.0439,-0.101917
0.0086308,-0.0271454
-0.0130557,0.0578775
-0.0364665,0.040024
-0.0640859,0.0321286
-0.074816,-0.0458589
-0.0701652,-0.0862734
-0.0405878,0.00142014
-0.00487804,0.0363653
0.0248644,0.0114688
0.0447419,0.0209071
0.0198728,0.00309148
-0.0374801,-0.0151532
-0.0546461,0.0075023
-0.0211726,-0.0184545
0.0203985,-0.030289
0.0491113,-0.0454778
0.0594521,-0.0721659
0.0434159,-0.0618767
0.0177581,-0.0127689
0.0050992,0.0420835
-0.00909891,0.060171
0.00119045,0.0305778
0.00913184,0.0198907
-0.0135721,-0.00663305
-0.0468508,-0.0270742
-0.0687317,-0.019149
-0.0593679,0.0178622
-0.0396361,0.0451631
-0.0161676,0.00200401
0.048729,-0.0141071
0.0792078,0.00464953
0.0455598,0.0356106
0.0101286,-0.0186192
0.012437,-0.0393699
0.0256481,-0.00492236
0.0163287,0.017856
0.0153696,0.00979849
0.00653731,-0.00475072
0.0077302,-4.41e-05
0.0127598,0.00635234
0.000799869,0.023825
-0.00914181,-0.00510234
-0.00415483,0.0107646
-0.0070885,0.0239234
-0.0248248,0.0215819
-0.0287233,0.0173673
-0.0144949,-0.0163772
-0.0365811,-0.0766678
-0.0818492,-0.0526128
-0.0660223,-0.052644
-0.0439322,-0.0804335
-0.0113626,-0.0514742
0.0350291,0.00327163
0.0665624,0.105657
0.0802006,0.128081
0.071631,0.0765171
0.0345821,-0.00509551
0.00241836,0.015841
0.0222182,0.0155469
0.0465532,-0.0858392
0.0469964,-0.117913
0.0460908,-0.101668
0.0119619,-0.0906208
-0.00607763,0.0651115
-0.00220426,0.179528
-0.0191793,0.113968
-0.0568911,0.0370292
-0.0811851,-0.00032038
-0.092438,-0.00649882
-0.0691747,-0.00750791
-0.0326876,-0.0172239
-0.00781845,0.00366236
0.00182658,0.00788634
0.00710591,0.00862106
0.0101726,0.0095151
0.0122466,-0.0152077
-0.000619935,-0.0327836
-0.000451981,-0.0140935
0.0179034,0.0493427
0.024018,0.113582
-0.0232651,0.0506623
-0.0618785,-0.0486246
-0.0446474,-0.0525411
0.0345929,-0.0856143
0.0762317,-0.0984803
0.0791828,-0.0728632
0.040907,-0.0735692
0.00637562,-0.0613332
-0.0146103,0.00563381
-0.0268273,0.0500026
0.0383057,0.0507126
0.100553,0.0500136
0.105477,0.0568518
0.029249,0.0908002
-0.044877,0.0606167
-0.0789409,-0.0116074
-0.0462903,0.0104041
-0.0469381,-0.00255788
-0.068344,-0.0127384
-0.0559831,-0.0353951
-0.0357566,-0.06658
-0.036187,-0.0653244
-0.0524512,0.0135533
-0.0134903,0.0326941
0.0340225,0.00069844
0.0413232,0.00847324
0.0257047,0.0319603
0.0221455,0.0121319
0.020834,-0.0133269
0.0141294,-0.0251364
0.0173534,-0.00781506
0.0299838,0.0277929
0.0478161,0.046933
0.0500982,0.012416
0.019095,-0.0402812
-0.0090453,-0.0358044
0.012704,-0.0458598
0.0242649,-0.0241514
0.000903688,-0.0149588
-0.0306122,-0.0710526
-0.0451977,-0.0259442
-0.0793468,-0.00750592
-0.0919756,0.0349475
-0.0413321,0.0822942
0.035877,0.0613975
0.0802713,0.0575865
0.0523186,0.0402226
0.00974321,0.00212873
-0.038951,-0.0206057
-0.0714176,-0.0725721
-0.0448491,0.0389744
-0.0244176,0.0767133
0.005938,-0.0351673
0.0428638,-0.159555
0.0483052,-0.11546
0.0324444,0.00925352
0.0259388,0.021429
0.0459701,0.0751715
0.0528549,0.097274
0.029989,0.0252304
-0.0566073,-0.0576519
-0.0654157,0.0145276
-0.00668166,-0.0106271
0.0247397,0.00749613
-0.000188654,0.0668286
-0.00908544,0.0674498
-0.0177278,-0.0179376
-0.0370634,0.0414312
0.0044987,0.0731416
0.033848,0.00132992
0.0272953,-0.0202076
0.00914557,-0.0229114
-0.0134656,-0.0437417
-0.025733,-0.0600915
-0.0446188,-0.0590401
-0.0439227,-0.0336628
-0.0235229,-0.0323455
0.00587966,-0.0403291
0.0059009,-0.00610382
0.00548153,0.0598263
0.0373367,-0.0107544
0.0761398,0.00617119
0.111649,0.0166292
0.0739178,-0.0273179
-0.0206362,-0.0300655
-0.0878482,-0.0288514
-0.0700193,0.0411642
-0.0214573,0.111314
-0.00514841,0.088738
-0.0206724,-0.111375
-0.030444,-0.204281
-0.0205049,-0.107935
0.0194425,0.00921804
0.029142,0.0520172
0.011089,0.098462
-0.0086722,0.104532
-0.0400642,0.0129465
-0.0423613,-0.00715553
0.00741233,-0.00168322
0.0135476,0.0842466
-0.0451589,0.00705558
-0.0717335,0.00459625
-0.0175213,0.00669037
0.0450494,0.032203
0.0673811,0.0360085
0.0463808,-0.0308945
0.0426295,-0.0608695
0.0431492,-0.0398037
0.0227881,0.00241092
0.000213842,-0.00495899
-0.0121891,-0.0189425
-0.0260455,-0.0437445
-0.0505745,-0.0431798
-0.0319293,-0.00930255
0.00165096,0.0957739
0.00396637,0.0812513
0.0276655,-0.02473
0.0765838,0.00121427
0.0338465,0.0674676
-0.0260635,-0.0313186
-0.0349628,-0.0141005
-0.0412659,0.013152
-0.0372478,0.0141342
-0.028398,-0.000738124
-0.00563037,-0.0259507
0.0432447,-0.0288381
0.0704912,0.00277433
0.0484933,0.0165717
0.000292151,-0.00172194
-0.0228919,-0.00973929
-0.0175036,-0.033936
0.00409122,-0.0160543
0.0109494,-0.00384502
0.0139664,-0.0127594
0.0210831,-0.00995469
0.0116658,0.00763434
-0.0170471,0.00561615
-0.0198205,0.00331596
-0.0133286,0.00407514
-0.00920694,0.0220742
-0.0200153,0.0179853
-0.0234578,-0.0138974
0.00866613,-0.0317064
0.057811,-0.00860487
0.0578672,0.0339946
-0.00588726,0.00224881
-0.0716602,-0.141186
-0.0905105,-0.0107936
-0.0767852,0.0531266
-0.0175056,-0.00673896
0.0538772,-0.00724201
0.0861791,0.0313978
0.0849618,0.0387902
0.0698214,0.00167369
0.0389889,-0.022408
-0.00491254,0.0273029
-0.0335028,0.0311024
-0.0379342,0.0101636
-0.0561841,0.00866979
-0.0617349,-0.0150512
-0.0453479,-0.0529236
-0.0218634,-0.0583432
-0.0101254,0.0050277
0.0108906,0.0456459
0.0304583,0.0612605
0.00125098,0.0513103
-0.0194201,0.00663395
-0.0139358,0.00780006
-0.0258802,-0.0386934
-0.0366851,-0.0148364
-0.0624328,-0.0228758
-0.0481649,0.00441395
0.00427375,0.0899208
0.0795013,0.0539105
0.105665,-0.0599064
0.0417888,-0.0604152
0.00786803,-0.0614309
0.0197561,-0.0807085
0.0442236,-0.0247793
0.0772001,-0.00118481
0.100911,0.00416588
0.0663906,0.0484025
0.0264869,0.0578282
-0.0281505,-0.0120473
-0.0658059,-0.0172867
-0.130897,0.0252132
-0.159492,-0.0119465
-0.108971,-0.0687304
0.0116358,0.0137827
0.103583,0.0771201
0.144394,0.0594785
0.134605,0.101573
0.0489252,-0.044908
-0.0138326,-0.0231733
-0.114891,0.00469165
-0.193507,0.0223882
-0.147834,0.0206711
-0.0672325,-0.00605958
0.0142926,0.0176848
0.0290322,-0.00427699
-0.00206234,-0.0285768
-0.017885,-0.0260655
-0.0246577,-0.00495266
0.00381992,0.0433151
0.0517794,-0.0812301
0.0599909,-0.117046
0.0375919,-0.0604169
0.00795847,0.0416141
-0.0127026,0.0458131
-0.0206404,0.0125487
-0.000656581,-0.0148638
0.0107399,-0.027254
0.0602724,0.0389395
0.128972,0.0304257
0.110332,-0.00363916
0.0396697,-0.014838
-0.0251574,-0.00718588
-0.0463812,0.0562082
-0.00768509,0.074007
0.0101112,-0.0590688
-0.00206765,-0.0209724
-0.0316373,0.0366972
-0.0460986,0.0471227
-0.07225,0.0423624
-0.0350207,0.00104914
0.0622548,-0.0264623
0.11035,-0.0204196
0.0777929,-0.0691263
0.0407709,-0.115235
0.0119799,-0.0651696
-0.0932883,-0.0143935
-0.187321,-0.0632258
-0.159631,-0.0106865
-0.0795291,0.0942286
-0.0395458,0.0952686
-0.00561646,0.0712378
0.0399335,0.0231239
0.0992275,0.0100457
0.10704,0.0484667
0.0836752,0.0533355
0.0570848,-0.0922953
0.00677712,-0.0739052
-0.0746571,0.031053
-0.115946,0.0645652
-0.0935027,-0.0159131
0.00536595,0.000260676
0.0888561,0.00614014
0.0884742,-0.0217033
0.0572694,-0.00548547
0.0642861,0.000554966
0.052227,-0.0212573
0.0202974,-0.0512941
0.0162187,-0.0103619
-0.0209419,-0.0162431
-0.0523417,-0.00195548
-0.0319594,0.028252
-0.0037245,0.0127684
-0.031495,0.011448
-0.0798481,0.0188032
-0.0804675,0.0230763
-0.0361573,0.0152047
0.00704842,-0.0192738
0.0405511,-0.0406782
0.0615612,0.00148783
0.0437948,0.00691539
0.0144477,-0.011242
-0.0163253,0.0334184
-0.00370673,0.0365457
0.0159603,-0.0158072
0.0231881,-0.0232215
0.0341374,-0.012985
0.0274336,0.00266161
0.022908,-0.00384833
0.0129782,-0.0301048
-0.0252926,-0.0313889
-0.0368022,0.0142126
-0.0385245,0.0142582
-0.063069,-0.00817226
-0.0462804,0.00186951
-0.0268535,0.00906386
-0.0605313,0.0111178
-0.0943935,-0.00477729
-0.0638554,-0.00133809
-0.0136308,-0.0116867
0.024088,0.00656541
0.102178,0.0449636
0.186307,0.00925997
0.151224,0.00978324
0.0712143,0.051876
-0.0271791,0.0101933
-0.06988,-0.0482207
-0.0496556,0.00914502
-0.0173324,0.0409935
0.00178854,-0.0323178
0.00117424,-0.038433
0.0162209,-0.0374205
0.0074951,0.00105514
-0.0282532,-0.072527
0.0050254,-0.0584779
0.0277296,0.0581602
-0.0224086,0.0672019
-0.0893942,0.0211301
-0.11234,0.0362
-0.0741166,0.0322396
-0.0346141,0.0299584
-0.0195586,0.00601745
0.0244359,-0.0336519
0.0775263,-0.0748482
0.123272,-0.0462888
0.18951,-0.0434627
0.198001,-0.0537221
0.114556,0.000809635
-0.0244012,0.0588673
-0.138909,0.0428015
-0.110987,-0.000778824
-0.00865786,-0.0269409
-0.0116426,0.0534449
-0.0712498,0.0429872
-0.121259,-0.0159112
-0.0843724,0.0198953
0.00168439,0.0320829
0.020327,-0.0259286
0.00631826,-0.0607483
0.00502881,-0.0484873
0.00569729,-0.00543822
-0.0127775,0.0440079
-0.0321277,0.041369
-0.0298094,-0.00892023
-0.00935949,0.00319905
0.0181617,0.0628279
0.0253367,0.0496069
0.0370056,0.0360196
0.0577466,0.0962422
0.0480667,0.00319799
0.0179012,-0.114751
-0.0168786,-0.0775178
-0.0156332,-0.0239523
0.00784752,-0.0166795
0.011635,-0.0343514
-0.0181312,-0.0383415
-0.0420242,-0.00193408
-0.0391347,0.0139289
-0.0259585,-0.00863863
0.0203131,-0.0258452
0.040478,-0.0810263
0.0185329,-0.0488146
-0.0163982,0.0339902
-0.0272712,0.0234898
0.0142862,0.0178983
0.0351424,0.0271788
0.0459648,0.0323066
0.0595416,0.022867
0.0369432,0.0513137
-0.0138058,0.0512144
-0.0778295,0.0475397
-0.109858,0.0311946
-0.0690335,0.0165267
0.0418135,0.00735104
0.104888,-0.0247631
0.117607,-0.060837
0.0912515,-0.0749051
0.0387883,-0.115131
0.0346215,-0.0301483
-0.0114865,0.146502
-0.139273,0.0800968
-0.191691,-0.041722
-0.174119,-0.0824762
-0.0726372,-0.0443509
0.0461841,-0.0261707
0.108883,0.00571819
0.105959,0.0398866
0.0448689,0.0707407
-0.0038617,0.0817889
-0.0305638,0.0591331
-0.0281974,0.027657
-0.0185767,0.0109153
-0.00208515,0.000776274
0.00788032,-0.0109615
0.0112468,-0.0285845
0.029391,-0.0324624
0.0334394,-0.0273049
0.0622392,-0.0288624
0.079862,-0.0492963
0.0291389,-0.0610353
-0.0263013,-0.0456766
-0.0605462,-0.0276987
-0.0710125,-0.0286046
-0.0295355,-0.00401122
0.00244899,0.0216753
0.022607,0.0471721
0.0148915,0.0159977
-0.00756534,-0.0545591
-0.0355253,0.0107536
-0.0652047,0.0529721
-0.048469,0.0591106
0.0050041,0.0337293
0.0506241,0.0158936
0.0705646,0.0123339
0.0252504,0.00157713
-0.019197,-0.0261912
-0.0625642,-0.0397915
-0.0431003,-0.0136052
0.0393156,0.0177852
0.0955147,-0.00221516
0.066176,0.0174636
-0.0237171,0.0437179
-0.0477886,0.00507016
-0.0225259,0.0183832
0.017291,-0.0103924
0.01134,0.0251716
-0.0261083,0.0355337
-0.0610502,-0.0309583
-0.0527341,-0.0689107
-0.0157403,-0.107771
-0.0268401,-0.111737
-0.0426097,-0.0543476
0.0173464,0.0614269
0.0706788,0.0404298
0.111159,0.0386168
0.119351,0.0811177
0.106245,0.0355281
0.0832521,-0.0135576
0.0216561,-0.00709227
-0.0474684,0.0510761
-0.0327444,0.0333632
-0.0159328,-0.00229995
-0.0645018,0.0210899
-0.0852222,0.0323745
-0.0748307,0.0104477
-0.0599718,-0.00785585
-0.0440243,-0.0236844
-0.0322395,-0.0244589
-0.00636723,-0.0245159
0.0315808,-0.0197027
0.0389015,-0.0162311
0.00971151,0.000802794
-0.0134258,0.00844741
-0.0265971,0.00437586
-0.0350172,-0.000165785
-0.0327207,-0.0177576
0.00847719,-0.025415
0.0388642,0.00294208
-0.00500316,0.00602867
-0.0332121,0.00573131
-0.00766084,-0.00295793
-0.0105345,-0.0245069
-0.0485947,0.0329811
-0.045447,-0.00102653
0.0156551,-0.040061
0.0821671,0.0110893
0.0811207,0.0311885
0.056447,0.00243983
0.0608836,-0.00220825
0.0329483,6.39e-05
0.00539577,0.00134378
0.0411317,0.00515861
0.0793884,0.00375335
0.113218,0.000120901
0.0892357,0.0056706
-0.0149522,-0.00131839
-0.0922534,-0.0222996
-0.139681,-0.00652303
-0.14546,0.0205967
-0.083008,-0.0187834
-0.0168674,-0.0197036
0.0238507,-0.0290772
0.0368598,-0.0195836
0.00659094,0.00789949
-0.0553713,0.0370273
-0.0649974,-0.0421913
-0.0106819,-0.031573
0.0294155,0.0299202
0.0238446,0.023141
0.0153556,0.0112845
0.000541805,0.0261179
-0.00990495,0.0264681
0.0137602,0.0255244
0.0616816,0.00444133
0.109046,-0.0135223
0.0798758,0.00213744
0.00547343,0.0228636
-0.0397894,0.0125586
-0.0704571,-0.0138088
-0.041446,-0.0263808
0.00642693,-0.0343181
0.0137832,-0.0300542
-0.0127356,-0.00863443
-0.0273741,0.0102447
-0.0156223,0.0163729
0.00415363,0.0180172
-0.00271405,0.00979148
-0.00485624,0.0202355
0.00526868,0.0144451
0.0310675,-0.00115084
0.025977,-0.0104021
0.0065406,-0.021813
-0.0394006,-0.0271652
-0.0625416,0.00849272
-0.0386633,-0.00110754
0.0218242,0.00785004
0.0311503,-0.0107102
-0.0150637,-0.0131132
-0.0368872,-0.0386408
0.00668527,-0.06032
0.0441581,0.0329151
0.0161778,-0.015919
0.0139768,-0.00711334
0.0351137,0.098193
0.0451984,0.0347985
0.0300846,0.00397919
0.00111828,-0.00288272
-0.0323477,-0.0176742
-0.0377296,-0.0176348
-0.0123655,0.0123342
-0.00818058,0.0617562
0.0134462,-0.0170023
0.0305833,-0.0321276
0.0299666,0.0258828
-0.0310029,-0.0192655
-0.083186,-0.0513309
-0.0593339,-0.041385
-0.0214825,0.0308867
0.0121592,0.0676265
0.0277171,0.0199547
0.0387937,0.00671102
0.0310581,0.0342946
0.00494735,0.0489193
-0.0128023,0.0382416
-0.00574717,0.0333085
0.00459451,-0.00721448
-0.0112036,-0.0739626
-0.0535979,-0.112891
-0.0744764,-0.151562
-0.0536411,-0.110445
-0.00856957,-0.100597
0.0169704,0.0361643
0.0246615,0.0926716
0.072686,0.0925269
0.128503,0.112113
0.127629,0.0672719
0.0660448,0.035293
-0.0162568,0.0219529
-0.0783966,-0.0294838
-0.084412,-0.0561173
-0.0503096,-0.0166337
-0.000457928,0.0618685
0.00650014,0.0463346
-0.00701601,0.0358901
-0.0102396,0.0228175
0.0034523,-0.00875301
0.0237007,-0.0237361
0.03762,-0.0339256
0.0156535,-0.0195602
-0.0190792,-0.0113806
-0.0205789,-0.0133522
-0.0357591,-0.0205866
-0.0583251,-0.017484
-0.0657086,-0.026793
-0.0473493,-0.0656243
0.00349086,-0.0542478
0.0464937,-0.100361
0.0537784,-0.0435248
0.073584,0.0944957
0.0921313,0.0877049
0.108666,0.0534375
0.110389,0.0561897
0.0412977,0.0107597
-0.0200825,0.0154418
-0.0599646,0.0148231
-0.100656,0.0306356
-0.0867381,0.0187455
-0.0774455,-0.0148322
-0.0497762,-0.0216104
-0.0202797,0.0281384
-0.0280282,-0.0280498
-0.0499878,-0.0501408
-0.0502995,-0.0469506
-0.0333667,-0.0342233
-0.0495516,-0.0218951
-0.0111532,-0.012646
0.0786908,0.0347505
0.109337,0.0540497
0.0513137,-0.0112206
0.0106519,-7.77e-05
0.0191667,0.00585598
0.0195871,-0.00798109
0.00427786,0.00601507
-0.0197269,-0.00192868
-0.025703,-0.0397653
-0.0312968,-0.0263889
-0.0280501,0.064009
-0.0124573,-0.0103788
0.0197746,-0.0190347
0.0297407,0.00792604
0.0166859,0.032083
0.000983404,0.0101162
-0.00477601,0.0176791
-0.0040089,0.0217988
0.00619281,0.0141256
0.0613849,0.0065124
0.0939021,-0.00415286
0.0548299,-0.0231415
0.0153426,-0.0373829
-0.00883066,-0.0502566
-0.0192559,-0.0123849
-0.0233604,0.0198108
-0.0177944,0.0722307
-0.0400341,0.0069233
-0.065666,-0.050214
-0.0753908,-0.0186972
-0.0392182,-0.0381224
-0.0127558,-0.0150401
-0.00148715,0.0112681
0.0158448,0.0170217
0.044945,0.0306163
0.0625751,0.0252464
0.0381113,-0.00384267
0.0259924,-0.00926806
0.0454157,0.00384466
0.0590031,-0.02015
0.0243143,0.0143537
-0.0320259,0.0109612
-0.0586767,-0.0100882
-0.0625736,-0.00525621
-0.0412019,0.00730995
-0.0139671,-0.00699879
-0.00386758,0.0521874
-0.0152249,0.0548814
-0.025274,-0.0117207
-0.0226578,-0.0154158
-0.0218541,-0.00399397
-0.0142551,0.00468928
0.0041229,-0.00967194
0.0249666,-0.0105648
0.0355792,-0.017759
0.0335883,-0.0166027
0.0161233,0.00224014
-0.00389351,0.000593041
-0.0247685,-0.0164868
-0.016319,-0.00771762
0.0115122,0.0183828
0.00936148,0.00560858
-0.00181522,-0.0290384
-0.00788886,-0.0309085
-0.0158528,-0.000820418
0.00549198,0.00899904
0.0478636,0.0154088
0.0739223,-0.0314408
0.0459291,-0.0382895
-0.0104013,0.0532346
-0.0326017,0.0439316
-0.0386643,0.011462
-0.0359761,0.000568205
-0.00652469,0.0176997
0.0433359,0.015149
0.0457137,-0.0190485
-0.00813689,-0.0504012
-0.0331006,-0.0490679
-0.0251151,0.021876
-0.0202467,-0.0050974
-0.00499415,-0.0139024
0.00684897,0.00704714
0.00270033,-0.0372428
-0.012983,0.0236667
-0.030491,0.0783728
-0.0170824,0.058229
0.00141351,0.0216819
0.0276772,0.0133654
0.0472855,0.003427
0.0130267,-0.0124222
-0.0471582,-0.00689023
-0.0962966,0.0098724
-0.0750761,0.000192087
-0.000132159,-0.0153712
0.0523044,-0.00609073
0.0728051,-0.00416577
0.0699647,-0.00275596
0.0484486,0.0125703
0.0263659,-0.00693087
0.00992642,-0.0241909
-0.00541479,-0.02177
0.0021732,-0.0212501
0.00206227,-0.0248457
-0.0223,-0.0541882
-0.0391154,-0.0752838
-0.00986316,-0.0580269
0.0131384,-0.026435
-0.00379823,0.0538475
-0.0510935,0.0681869
-0.0489877,-0.0129513
-0.0171662,-0.0106285
-0.00149421,-0.106951
0.0370206,-0.00373739
0.0713515,0.0789564
0.0653187,0.0411183
0.0429932,0.0557713
-0.00780075,0.0835007
-0.0361808,0.092619
-0.0363482,0.0784546
-0.0278304,0.0260699
-0.0127596,-0.0190262
-0.0173793,-0.0261931
-0.0414032,-0.0214475
-0.0528129,-0.0106938
-0.0470797,-0.0143307
-0.029896,-0.0175413
-0.00839897,-0.00892843
0.0173881,0.00148467
0.0339645,0.00275631
0.0384362,-0.000426888
0.0606337,-0.00680085
0.0767198,-0.0116389
0.0747302,-0.0115851
0.0472802,-0.00606058
0.0114524,-0.00458974
0.0156116,-0.00652958
0.0340183,-0.00517703
-0.00301165,-0.00506937
-0.0449786,-0.0130985
-0.0684238,-0.0154378
-0.0613767,-0.0143528
-0.0141876,-0.00969515
0.0123691,-0.00768429
-0.00302537,-0.0127599
-0.0377471,-0.0159097
-0.0554209,-0.0117781
-0.0500233,-0.0106693
-0.0305002,0.00406
0.00359559,0.00933028
0.0281346,0.010379
0.0288468,0.0155846
0.008873,0.0126376
0.000243116,0.00368948
0.00139132,0.00111531
-0.00281245,-0.00850053
-0.0111147,0.0130218
-0.0120622,0.00759586
-0.0129068,0.00126989
-0.0322339,-0.00800335
-0.0504396,-0.0149094
-0.0300823,-0.0135385
0.013413,-0.00572237
0.0570993,0.000999379
0.0732505,0.00424949
0.0453811,0.00276736
0.0202905,0.0180525
0.0808986,0.00731993
0.149656,-0.0015751
0.113736,0.000673058
0.013814,-0.00364553
-0.0835221,-0.00325717
-0.116737,0.000599482
-0.085155,0.0107527
-0.0493495,0.0090209
-0.018887,0.00882887
0.0124704,0.019726
0.0381853,0.0120689
0.0294274,0.00844826
-0.00459933,0.00402553
-0.0187378,-0.00452071
-0.00858903,-0.00964539
-0.0191115,-0.0102966
-0.039733,-0.0100797
-0.0454473,-0.00796314
-0.0723262,-0.00599596
-0.0421236,-0.0106211
0.00475101,-0.00996796
-0.00927725,-0.00496621
-0.0382286,-0.00614791
-0.00421155,0.00115666
0.0873067,0.0143687
0.150271,0.0207759
0.134466,0.0118216
0.0451476,0.00262907
-0.0481206,0.00325189
-0.081008,0.00908314
-0.0474335,0.00222773
0.0241495,-0.0084378
0.0827086,-0.0254375
0.0665741,-0.0249521
-0.0219314,-0.0153502
-0.105245,0.0065934
-0.111144,0.010497
-0.0614313,-0.00333052
-0.0121724,-0.00756858
0.0362,0.00080408
0.0332808,0.00286874
-0.0151846,0.00611517
-0.0775298,0.00347361
-0.0823231,-0.00102382
0.00373943,0.00508105
0.0917692,0.011788
0.0946096,0.000519394
0.0514442,-0.000943979
0.0447646,0.00427807
0.0327383,0.00275095
-0.0287485,0.00272557
-0.0764603,0.0182441
-0.0550964,0.0140011
-0.002378,0.00443416
0.0564373,0.00222655
0.0802881,0.00351706
0.0291303,-0.000596745
-0.0282769,-0.0185429
-0.0433506,-0.0138093
-0.0296586,0.0174163
0.00975261,-0.00702852
0.038923,-0.00766128
0.0321114,-0.0105729
0.00472472,-0.0166142
-0.0492872,-0.0200139
-0.0585627,0.0195035
-0.0424309,0.027356
-0.0186863,-0.000405648
0.0207388,0.00357949
0.046443,0.0158847
0.0298346,0.00392382
0.0207913,-0.0151628
0.015721,-0.0310245
-0.00759491,-0.0443778
-0.0247137,-0.0237225
-0.0276764,-0.01147
0.0119681,0.0292171
0.037097,0.0535397
0.0371797,0.0185273
0.0186299,-0.00289137
-0.0115939,-0.013775
0.00216718,-0.0380324
-0.0145417,-0.0587099
-0.050463,-0.0464449
-0.0172495,-0.0206254
0.0103654,0.0159108
-0.00586119,0.0164517
-0.0406284,0.0211721
-0.0859942,0.0299096
-0.0768169,0.0459514
-0.00479274,0.0493611
0.0674258,0.0377048
0.0826611,0.0332303
0.0613524,0.0297209
0.0329433,0.0161615
0.00622155,0.0177878
0.00669747,0.0132303
-0.00214676,0.0024203
-0.0290297,-0.00564105
-0.0407237,-0.00545127
-0.0291406,-0.0125665
-0.0159627,-0.0188365
-0.0185924,-0.0270017
-0.00747775,-0.0393004
0.0541418,-0.0453113
0.136766,-0.035862
0.143036,-0.00997823
0.0129965,-0.0102027
-0.128504,-0.00630506
-0.127517,-0.00204146
