Comp Ch 3,Comp Ch 4
0.0519183,-0.194438
-0.0503372,-0.112601
-0.0290085,0.0301888
0.138891,0.0354461
0.204613,0.0634901
0.103709,0.103876
0.0415226,0.091123
-0.00369453,0.0320271
-0.0173254,0.0144316
0.0295748,-0.0699919
0.0210831,-0.130297
-0.0303649,-0.135101
-0.0722649,-0.0690623
-0.0249418,0.00147635
0.060859,0.140952
0.0293237,0.162522
-0.0251147,0.120448
-0.0200798,0.0668334
0.0190108,0.00232425
0.010327,-0.0304568
-0.0735261,-0.00568941
-0.133838,0.0339473
-0.0951396,0.0358325
-0.0589417,-0.00740605
-0.0744585,-0.0196905
-0.0245088,-0.00941434
0.0190882,-0.0366978
0.0404115,-0.150972
0.0429444,-0.124353
0.0472022,-0.00121439
0.0804931,0.0738337
0.0510463,0.0610996
-0.00560636,0.0600921
0.00197763,0.0704513
0.0462487,0.0704297
0.0507051,-0.00256271
-0.0228022,-0.062591
-0.0282706,-0.0804614
0.0110046,-0.0178342
-0.00980442,0.0157456
-0.0500304,0.00138491
-0.057995,-0.0105381
0.0188516,-0.0126927
0.0836251,-0.00657345
0.0511001,-0.0227045
-0.0470738,-0.0184104
-0.110545,0.0287236
-0.0942928,0.0184673
-0.0313657,-0.014121
0.0216359,0.00839629
0.0302039,0.0117158
0.0400951,-0.00134018
0.0183342,0.0581236
0.0521372,-0.0478046
0.108297,-0.070329
0.0763563,0.0532863
-0.0929621,-0.0246288
-0.132673,-0.065397
-0.0131042,-0.0717786
-0.00407893,-0.0355264
-0.067205,0.0135981
-0.0107776,0.0431622
0.174359,0.0187391
0.142496,0.0672759
0.0311955,0.119015
0.0133456,0.0398137
0.0252897,-0.0363229
0.0290373,-0.0671697
0.00294735,-0.0856812
-0.0389089,-0.0292029
-0.07805,-0.00860442
-0.0877051,-0.0190733
-0.046323,-0.0655334
-0.0303847,-0.125427
-0.0547904,-0.0341202
-0.0282742,0.0425167
-0.00325372,-0.0357724
-0.11077,0.0266683
-0.081004,0.120221
0.0639867,0.154593
0.145954,0.113104
0.139947,0.0311618
0.0952685,0.0046866
-0.00960419,-0.00896341
-0.100704,-0.0561445
-0.0425324,-0.00563765
0.0593411,0.0593647
0.0654267,0.0638073
0.00494673,0.0664076
-0.0179151,0.0544555
-0.0421334,-0.00874806
-0.0718964,0.0278664
-0.0255488,0.0328891
0.130686,-0.00600119
0.160268,-0.00650585
0.0489704,-0.00858038
-0.0580063,-0.0182025
-0.0646299,-0.0236197
-0.0285063,-0.0148467
-0.019082,-0.0527228
0.00342003,-0.129733
-0.0164495,-0.0810658
-0.0660467,0.0594924
-0.108211,-0.0617102
-0.136989,-0.238045
-0.130907,-0.209989
-0.0556003,-0.0780939
0.0282969,0.021004
0.118878,0.137438
0.176085,0.211919
0.125359,0.182955
0.0988557,0.0954838
0.0575,0.0233377
0.00725285,-0.0376679
-0.0226572,-0.00713233
-0.00407924,-0.00320354
-0.00235827,-0.0117125
-0.152321,0.0817593
-0.219252,0.024689
-0.080808,-0.0774646
0.0614716,-0.0389031
0.0737299,0.0348439
0.0463771,-0.154293
-0.0962431,-0.124373
-0.202507,-0.0586914
0.014705,0.0161714
0.258506,0.0932529
0.141329,0.102441
-0.0111606,0.0206798
-0.103457,-0.0251472
0.0186891,-0.0174118
0.0888547,0.0596025
0.083053,0.0582239
0.068798,-0.0858695
0.0325626,-0.0692162
0.0197974,-0.00107085
-0.0161562,0.00252874
-0.0425594,-0.0173137
-0.0128409,0.0364702
0.0120427,0.138069
-0.0134089,0.172281
-0.0431917,0.0575178
0.00304835,-0.0408953
0.018407,-0.0993556
0.00455732,-0.119159
-0.0598117,-0.245357
-0.13354,-0.116185
-0.12443,0.0121139
-0.0305215,-0.0105301
0.0410164,0.100854
0.0322831,0.234899
0.00349226,0.120704
-0.0314833,0.050972
-0.104973,0.0323742
-0.0890839,-0.0202108
-0.00107619,-0.0193035
0.138544,0.00660604
0.143127,-0.0291958
0.0884192,-0.0551103
0.0252908,-0.0420939
-0.0288555,-0.0217413
-0.0125437,0.0416011
-0.0150304,0.0299294
-0.0310594,0.0187672
-0.0143462,-0.146449
0.00491071,-0.157487
0.0310174,-0.0111175
0.0574115,0.000330995
0.0768858,0.0280704
0.0430515,-0.00244221
-0.00941526,0.00160528
-0.0300947,0.0757968
-0.0418395,0.0909525
-0.0424737,-0.0166127
-0.042859,-0.223452
-0.0222845,-0.115125
-0.0398648,0.0793232
-0.0740753,0.132127
-0.0328322,0.0828906
0.0462357,0.101713
0.124425,0.0678675
0.205642,0.0141799
0.205857,0.0369154
0.0671843,0.00328517
-0.046696,-0.0614618
-0.220148,-0.0594024
-0.317761,-0.00816366
-0.275996,-0.0432185
-0.0274461,-0.0143988
0.293426,0.105209
0.320262,0.0632908
0.118055,-0.0273379
-0.0509529,-0.0183596
-0.0118732,-0.0451096
0.0257533,-0.0256347
-0.0225768,-0.0254337
-0.0633867,-0.00123016
-0.0282756,0.0246738
0.191362,-0.0321076
0.146555,0.015488
-0.117754,0.00426134
-0.205457,-0.0385793
-0.175547,-0.0172082
-0.113271,0.0027873
-0.127118,0.0169477
-0.116594,0.00802486
0.0308333,-0.00779265
0.0797662,-0.0179012
-0.0034557,-0.0336886
-0.100801,-0.0201623
-0.0665375,-0.0256473
0.063036,-0.0817536
0.185699,0.0553114
0.193895,0.132122
0.0519964,0.0166815
-0.0344797,-0.0180475
-0.0872838,-0.010498
-0.0839117,0.0106086
-0.00789336,0.0478159
0.052188,0.0465342
0.0224012,0.0424042
-0.0295334,-0.0221225
-0.0423027,-0.0541808
0.0116581,-0.0501164
0.0215106,-0.00127019
-0.0162227,0.0271497
0.0183137,-0.033306
0.158615,-0.0248761
0.16308,0.0209609
-0.0147787,0.0318611
-0.0678051,-0.00539211
-0.114907,-0.0482349
-0.08552,-0.0467421
-0.0203513,0.0171191
0.00396659,0.0271302
0.0356739,-0.0143828
0.0842753,0.039044
0.0686313,0.0189847
0.012709,0.0185796
-0.0584042,0.0110581
-0.0969412,-0.00697112
-0.0644918,-0.0426107
0.0171453,-0.0587546
0.0385869,-0.0291508
0.0120945,-0.0167131
-0.00895496,0.00800236
-0.0491244,0.0277922
-0.0411232,0.0249016
0.0063243,0.0171062
0.0187162,-0.00389452
0.0134793,-0.0248011
0.0284034,0.0391752
0.0540663,0.0331843
0.0455067,-0.00804021
0.0309598,0.00134203
0.0370837,0.0407914
0.088865,0.0894108
0.0817526,-0.0559374
0.00177011,-0.0786229
-0.0930928,-0.0328103
-0.137756,0.0128808
-0.102461,0.0180803
-0.0761387,-0.00753215
0.00882257,0.00998184
0.0688563,0.018834
0.111703,0.0239941
0.122101,0.00208625
0.0315554,0.0178768
-0.0101705,0.0117001
-0.0207159,0.000860566
-0.0181728,0.0196472
-0.0631761,-0.0247175
-0.133835,-0.0139085
-0.0778797,-0.0226285
-0.00378988,-0.0245714
-0.0216096,-0.0176017
0.00549946,-0.0339605
0.0440342,-0.00607423
0.031471,0.0261534
-0.00492359,0.00602096
-0.0216517,-0.0292188
0.0341897,0.0129089
0.115299,0.0521395
0.0692201,-0.00652716
-0.0307008,-0.023284
-0.0733174,0.0610883
-0.0634042,0.0309389
-0.035838,0.0165111
-0.0218355,0.00114421
-0.00420738,-0.0251536
0.0828716,-0.0275434
0.0339717,-0.0195693
-0.0282146,-0.0363516
-0.0609071,0.00437986
-0.0688717,0.00568647
-0.126386,0.0216746
-0.131295,0.0429268
-0.0263701,-0.0395104
0.0367668,-0.00135558
0.0997863,0.0113018
0.101766,-0.0149543
0.0726665,-0.0383536
0.0854319,-0.00190847
0.0994018,0.00822072
0.131837,-0.0428911
0.243463,-0.0266338
0.23478,0.0120164
0.0862482,0.0576284
-0.102344,-0.00249764
-0.210737,-0.0118375
-0.184962,-0.00787222
-0.138712,-0.0125478
-0.13185,0.00522023
-0.112345,-0.0145608
-0.0485285,-0.0584729
-0.0341452,-0.0194276
-0.0212188,0.0851865
0.0254066,0.0937381
0.0392015,0.0262556
0.0380781,0.000754314
0.0414289,0.00046714
0.0562458,-0.0680031
0.0306924,-0.0201059
-0.0439568,0.0307648
-0.0705618,0.00356915
-0.00754258,-0.0071034
0.0267809,-0.00241547
0.0214517,0.0208558
0.00351211,0.00554622
-0.0257873,-0.0110706
-0.0432665,-0.0424829
-0.0147774,-0.0369876
0.108077,-0.0791024
0.165462,0.00175116
0.065016,0.0336431
-0.072649,-0.00325374
-0.0925873,0.040435
-0.0353368,0.0484982
-0.036626,-0.0076032
0.00221241,-0.0731323
0.0256712,0.098636
0.0412295,0.0420173
0.0199917,-0.017095
-0.0499499,0.0474149
-0.0571609,-0.0256601
-0.0187516,-0.00970253
0.0149686,-0.0295456
0.0165598,-0.00757977
0.00625423,0.07235
-0.0113893,0.0971851
0.00165489,0.0927149
0.0353519,-0.0572715
0.0437489,-0.125187
-0.00366853,-0.153709
-0.0230056,-0.0888077
-0.0133525,0.0965633
-0.0265785,0.0601889
-0.0321764,-0.0205286
-0.0107911,-0.00352515
0.0102009,-0.0855041
0.0194643,-0.0145922
0.0190562,0.106122
0.0163258,0.0464309
0.0267288,0.0350738
0.00403814,-0.0254758
-0.037793,-0.0792552
-0.0558917,-0.0395302
-0.0334025,0.0376649
0.0305891,0.051743
0.0910956,0.0453341
0.0402843,0.0259128
-0.0141239,0.0178264
-0.0108766,0.00492981
-0.0164721,-0.0537727
-0.00471479,-0.0383805
0.00366996,-0.0347024
-0.0351515,-0.139567
-0.0724393,-0.0817881
-0.0471943,-0.0352385
0.0252742,0.0148702
0.103706,0.0772144
0.176075,0.0638255
0.147367,0.0270888
0.0480687,0.0447478
-0.0796665,0.0435287
-0.118832,0.0183403
-0.0742042,0.0322214
-0.00677634,0.0488482
1.74e-05,0.0821159
-0.00566674,0.017979
0.0661818,-0.0145694
0.0516386,-0.0129174
-0.0214526,-0.00269924
-0.119133,-0.0109826
-0.246719,-0.122759
-0.188842,-0.104626
-0.0134044,-0.0741865
0.0699946,-0.0475403
0.0592009,0.0649509
-0.0383541,0.0949913
0.0306651,-0.0138424
0.135996,0.0474692
0.134358,0.018742
0.0735723,0.0529715
-0.0160831,-0.0315142
-0.0487033,-0.00287341
-0.0222754,0.00688658
0.00628244,0.00545972
0.0110569,0.0304416
0.0196465,0.0315832
0.0141941,-0.00230146
0.0094174,-0.0451983
0.0218497,-0.0224564
0.0367873,-0.0195414
0.0457523,0.0545445
0.0457469,0.127483
0.00982756,-0.0037817
0.00404611,-0.0532521
0.0408594,-0.0253701
0.0232156,-0.0498531
-0.083176,-0.0534295
-0.146455,-0.0752167
-0.0980489,-0.0791435
-0.0165521,0.0345645
0.00841153,0.075873
-0.0126041,0.0375986
-0.0622241,-0.00463622
-0.0680032,-0.0406951
-0.0304305,-0.0491565
0.0346193,-0.0482675
0.0538593,-0.0108481
0.0458731,0.0325823
0.0392295,0.0317087
0.0385457,0.0386067
0.0172584,-0.0118055
-0.0308645,-0.0191494
-0.0351601,-0.0294383
0.0148306,0.0535014
0.0241782,0.0835878
-0.00168277,0.0237823
0.0156982,-0.0570381
0.0559467,-0.111038
0.0491724,-0.0520006
0.00918867,0.0676326
0.00415799,0.0416537
-0.015506,0.0774196
-0.0392155,0.107041
-0.0442607,0.0396593
-0.0427033,-0.0438436
-0.0183982,-0.0440466
-0.018778,0.00774991
-0.00911268,0.14528
0.0274588,-0.0927848
0.0584935,-0.108764
0.0294589,-0.0251194
0.0187501,-0.0075507
0.0443797,-0.0122521
0.0409235,-0.00913996
-0.00697543,0.0152394
-0.0303516,-0.0159846
-0.0232375,0.00127865
-0.00409777,0.00415444
0.00289034,0.0178367
-0.0110712,0.0510188
-0.0140375,0.0113615
-0.0212719,0.0205259
-0.0382973,0.0290395
-0.0979596,0.0162755
-0.112968,-0.0309398
-0.0198497,-0.107869
0.0700853,-0.0380416
0.0565869,0.0319671
-0.0345865,-0.061874
-0.0304356,-0.116123
0.109592,-0.106363
0.16457,-0.0670273
0.107873,-0.0162507
0.0608046,0.0633655
0.0336749,0.103122
0.0135649,0.0602875
-0.0550838,0.0615832
-0.12202,0.128077
-0.159335,0.116176
-0.0891,-0.0254256
0.05514,-0.029077
0.0768819,-0.000364066
0.0426007,0.0197182
0.0334064,0.0215909
-0.00959906,-0.00477938
-0.0471218,0.0399943
-0.0489402,0.0429577
-0.040725,0.0160744
-0.0241684,-0.0525711
-0.00804189,-0.0421169
-0.00678857,-0.0415364
0.0200575,-0.0378203
0.0217194,0.0250962
-0.0252305,0.0944408
-0.0624477,-0.0591709
-0.0377811,-0.121271
0.0508147,-0.075183
0.114558,0.0241129
0.0453157,0.00615115
0.020437,-0.0562634
-0.0186249,-0.0248139
-0.0641558,-0.100563
-0.0304609,0.0335937
0.0344769,0.0902191
0.0425212,0.0794374
-0.00725309,0.137372
-0.0798162,0.0632615
-0.0908948,-0.0781179
0.00706585,-0.0486494
0.0786053,-0.0466172
0.0128958,-0.0673499
-0.0145885,0.0142236
0.0212814,-0.000231704
0.0630592,-0.000698391
0.0644508,0.00562384
0.0272693,-7.33e-05
-0.00678678,0.0110328
0.0313988,-0.0148536
0.0321008,-0.0301975
0.029404,0.078555
-0.00787447,-0.021493
-0.0373566,-0.0894102
-0.0219168,-0.00373648
0.00970601,0.0895639
-0.00488345,0.0340137
-0.0393671,-0.0442797
-0.0391927,0.0742885
0.0106404,0.0500506
0.0606842,0.00747627
0.0339008,-0.00410557
-0.0687647,-0.00587388
-0.147391,0.013788
-0.102345,-0.0439239
0.0117948,-0.0969205
0.0772758,-0.0154116
0.0486166,0.0726156
-0.00313448,0.0395469
-0.0150423,0.0530535
-0.00695622,0.0319985
0.0494302,-0.0743672
0.0907673,0.00112677
0.0507106,-0.0294797
0.0134814,-0.0188131
-0.0571041,0.0322768
-0.0422352,-0.0537885
-0.019272,-0.0151772
-0.0139135,0.0381928
-0.00315517,0.0512109
-0.0342362,-0.0601219
-0.075428,-0.00861965
-0.0897205,0.00889061
-0.0392567,-0.028682
0.0172095,-0.0263651
0.0318892,-0.0808115
0.0470336,-0.0350724
0.0411603,0.100925
0.0300008,0.00298927
0.0149827,-0.0289232
0.00492202,-0.0171759
0.0160908,0.0691142
0.0297645,0.123212
0.0262178,0.0340219
0.0302433,-0.0259191
0.0247303,-0.00359269
0.0111461,-0.00291833
0.00358607,0.00154022
0.0072377,0.0178478
-0.00089051,-0.0892013
-0.0060936,-0.0415762
-0.0237889,0.0378109
-0.0555637,-0.0100049
-0.0731626,-0.00352915
-0.0486846,0.0561921
-0.00800054,-0.0261768
0.0328315,-0.0950828
0.0685054,0.0330356
0.0353156,0.0272273
-0.0199151,-0.0473375
-0.0504504,-0.0696613
-0.0123817,0.0172641
0.0509337,-7.81e-05
0.032306,-0.051761
0.0308335,-0.0274885
0.0766368,0.0850049
0.0366514,0.102094
-0.0546515,0.0172596
-0.0888374,-0.113168
-0.0570594,0.0788017
0.012643,0.109253
0.0331018,0.0408532
0.00431838,-0.011265
-0.0375652,-0.014332
-0.0840829,-0.0555715
-0.0923136,-0.0654494
0.0169907,0.0329544
0.0900797,0.031382
0.0933656,-0.0355981
0.0661286,-0.0964048
0.0789215,0.0315419
0.0617763,0.101089
-0.0177759,-0.00268138
-0.0996758,-0.0553714
-0.106236,-0.0259183
-0.0722678,-0.125325
0.000505838,-0.0447414
0.0598415,0.00628277
0.080551,-0.0523721
0.0640989,0.0863058
0.0328257,0.136786
-0.0357436,0.0822376
-0.0797274,0.0363532
-0.0898373,0.0201361
-0.0522779,0.0537234
0.00137342,-0.0654071
-0.00970655,-0.0449136
0.016236,0.0369972
0.0272744,0.0138638
0.00894391,0.0180764
-0.00722454,0.00801225
0.00947832,0.00828036
0.0193464,0.043869
0.0118533,-0.0581004
0.0102704,-0.116848
-0.00439427,0.0287388
-0.0116999,0.0678105
-0.00948722,-0.0965906
-0.0272567,-0.173055
0.000545072,0.0677186
0.0533545,0.0245582
0.0638616,-0.0988461
0.0172026,-0.164591
-0.0192958,-0.0673285
-0.0311087,0.145744
-0.0224246,0.15081
-0.00243506,0.104069
0.0101925,0.0605074
0.00193872,-0.0551088
0.000914254,-0.0634199
0.0213786,-0.00724806
0.00743783,0.00781722
-0.016848,0.0483218
-0.0243206,0.00849463
-0.0228517,0.0626058
-0.0149356,0.0550024
-0.0135246,0.0159434
-0.0107073,-0.00155978
-0.00737416,-0.00143797
0.0180917,0.00153046
0.0758361,-0.0248126
0.110528,-0.0396394
0.101925,-0.0113504
0.0585773,0.0273416
0.00177025,0.139055
-0.0548018,0.0431621
-0.0879355,-0.113082
-0.0683044,-0.027464
-0.0641519,-0.0435814
-0.0559338,-0.0382609
-0.0376314,-0.0361686
-0.0125688,-0.00189071
-0.00419236,-0.017622
0.00298201,-0.0928482
0.00977815,-0.0732919
-0.00133083,0.0336164
-0.0126201,-0.0124525
-0.00569671,0.00524199
-0.0271893,-0.0223982
-0.0329,-0.0494331
-0.004343,0.0428047
0.0246396,0.0245615
0.0303966,0.128945
-0.000365644,0.0560655
-0.0136846,-0.000660321
0.0163247,0.00290867
0.0399023,0.00830506
0.019193,0.00296873
-0.00227561,0.0212735
-0.0103759,-0.0192791
0.0384536,-0.0317478
0.0522983,-0.0675668
0.071296,-0.00526188
0.0788266,-0.00754512
0.0268034,-0.02665
-0.0181331,0.0165219
-0.0441217,0.0476589
-0.0652041,0.0413825
-0.0833218,0.04818
-0.0746015,0.0352099
-0.0640619,-0.0266511
0.0149187,-0.0274671
0.0922956,0.0117898
0.0666129,-0.00361172
0.0236633,0.0371625
0.0213754,0.0123553
0.00471296,-0.140252
-0.0298076,-0.156866
-0.0465603,-0.13507
-0.0222639,0.0447875
0.0495409,0.153479
0.0633208,0.052772
0.00658451,0.0702223
-0.0226377,0.190976
-0.0407816,0.0612248
-0.032235,-0.114159
-0.019624,-0.129194
0.00469058,-0.0891932
0.0200182,0.030796
0.00414579,0.0520671
0.00192134,0.0584919
0.00797378,0.0407217
-0.000930375,0.0214406
-0.0124775,0.0251178
-0.018862,-0.0558345
-0.024247,-0.0407676
-0.0136578,-0.0578571
0.0258869,-0.0269626
0.021246,0.0357266
-0.012822,-0.00881498
-0.0141289,0.0220861
0.0246245,0.0864785
0.0182683,0.00622212
0.00459469,-0.0386238
-0.0312869,0.0170462
-0.0742058,-0.00505481
-0.0525797,0.01423
0.03846,0.0201783
0.0846589,0.00259976
0.0740727,-0.0739098
0.0268833,0.0761278
0.0184089,-0.0335669
0.0514373,-0.0911381
0.0540918,-0.0445932
0.0209887,-0.0192886
0.0167154,0.0148646
-0.0134742,-0.0089842
-0.0517509,-0.0401388
-0.0706393,0.0185821
-0.0810084,-0.0124822
-0.0880383,0.0164421
-0.0973599,0.0282279
-0.0688945,0.0623547
-0.0320856,0.0606926
0.014709,-0.0299085
0.0606139,-0.0335463
0.0591234,-0.0242514
0.0483207,-0.0425062
0.0485579,-0.042554
0.0448614,0.0728203
-0.00303614,0.0912066
-0.0761459,-0.0906081
-0.122817,-0.0628467
-0.16544,-0.143902
-0.0843978,-0.0570554
0.0604299,0.0583516
0.088231,0.126793
0.058256,0.0606992
0.100917,0.11717
0.0820127,-0.0311163
0.0996365,0.0121084
0.103604,-0.00148495
0.0537167,0.042471
0.0890629,0.165758
0.0856597,0.0946338
0.054027,-0.0896948
-0.0204259,-0.14532
-0.10536,0.00475459
-0.151282,0.0304081
-0.174453,-0.0337661
-0.100806,-0.0744269
-0.0306082,-0.123225
0.0184089,-0.0451262
0.0758066,0.0720445
0.0862252,0.00196544
0.0229655,-0.106126
-0.0138584,0.0270019
0.0188238,0.0485661
0.0647422,0.0327488
0.0758176,0.0203887
0.0205304,0.0100533
-0.0818763,0.0222495
-0.144844,0.0136272
-0.141655,-0.0790785
-0.0665733,-0.0281785
-0.00154967,0.00564685
0.0199721,-0.0126918
-0.00351456,0.115353
-0.0526605,0.0287391
-0.0261771,-0.00096857
0.0777807,0.0624226
0.172488,0.0450555
0.173198,0.0798946
0.000760793,-0.00206522
-0.0893259,-0.049064
-0.0298301,-0.0650351
0.00710687,-0.038313
-0.0316527,0.0147251
-0.0968903,-0.00549322
-0.100877,0.0278824
0.0014688,-0.0272728
0.0834959,-0.0827516
0.0700391,-0.0676741
0.0597747,-0.00478188
0.0677737,0.0332847
0.0723146,-0.00547694
0.104344,-0.0625817
0.0715637,-0.1915
-0.0418671,-0.0732525
-0.13469,-0.0166016
-0.148463,-0.011822
-0.0877963,0.0921333
-0.0722535,0.0510537
-0.0521544,-0.0365012
0.0246772,0.117697
0.0888333,0.15279
0.0739148,0.0870529
-0.00238794,0.0727134
-0.0717152,0.121206
-0.0378595,0.0283273
-0.00203339,-0.0458229
-0.0289776,-0.0637905
-0.0316833,0.030118
0.0222523,0.0188132
0.0591895,0.0364675
0.0480032,0.023555
0.0200014,-0.0410258
-0.0396587,-0.0708187
-0.119539,-0.0710661
-0.119174,-0.124103
0.0113065,-0.0434449
0.166353,0.146271
0.14925,0.051117
0.0619317,-0.0337305
-0.00911059,-0.0284626
-0.00695494,-0.00871497
0.0283356,0.010102
0.0961563,0.0597127
0.121076,-0.000165779
0.0999629,-0.106475
0.0331387,-0.203803
-0.0788367,-0.107155
-0.1291,0.111543
-0.0971569,0.151736
-0.0765915,0.0899135
-0.0637776,0.0686836
0.00581468,0.00643167
0.0569907,-0.132513
0.0423154,-0.116755
-0.00256113,-0.126101
-0.0289431,-0.0806869
-0.0367355,0.101118
-0.0324027,0.0763591
0.00296391,0.021422
0.0387677,0.0899988
0.00956257,0.0478425
-0.033637,0.015123
-0.0806623,-0.0454827
-0.137241,-0.0275308
-0.185166,-0.00818744
-0.190792,0.047185
-0.0693293,0.054565
0.112927,-0.0316206
0.221113,-0.0144462
0.138074,-0.025232
0.0447604,-0.0140627
0.0647091,-0.00262098
0.149113,0.0923032
0.130787,0.0345748
0.085583,-0.0458008
0.0806324,-0.0504901
0.0152341,0.0278762
-0.0878475,0.0140205
-0.0869343,-0.0697774
-0.0384859,0.0267324
-0.0447513,0.0200731
0.00587838,-0.0154367
0.0226166,-0.117019
0.00858942,-0.00482735
0.00744254,0.0391659
-0.00851778,0.0176065
-0.0836345,0.0168896
-0.152627,-0.00402377
-0.222056,0.0192035
-0.180083,0.0175591
-0.0464501,0.0584639
0.139417,-0.0446757
0.192501,-0.0657972
0.159859,0.0448274
0.1062,0.107001
0.0313121,0.0238093
-0.0328629,-0.10033
-0.0369742,-0.0988
-0.0372246,0.00723687
-0.0697548,0.0156354
-0.0858226,0.0323645
-0.03032,0.0295681
0.0628683,-0.00682446
0.108214,-0.0262924
0.0791582,-0.0331176
0.0198961,0.0106765
-0.0301284,0.0248994
-0.0209849,0.0124545
-0.0443136,0.0165908
-0.00661353,0.0256553
0.0132025,-0.0111741
-0.0481849,-0.0322942
-0.0551881,0.0244931
-0.024883,0.01205
0.0461047,0.0496294
0.087826,0.052986
0.0609863,-0.0673059
0.0199262,-0.0298121
-0.0569879,0.0018252
-0.0858151,0.117659
-0.0296006,0.0435023
0.0248876,-0.105485
0.0442096,-0.0252476
0.0220902,-0.030438
-0.0104308,-0.0569604
-0.0384555,-0.142984
0.0222855,-0.0154348
0.200881,0.159944
0.254783,0.0976993
0.104956,-0.0510748
-0.0711145,0.0173881
-0.149872,0.0580055
-0.137845,-0.0137375
-0.137426,-0.0758896
-0.129255,-0.0893761
-0.138064,-0.0147722
-0.175329,0.0696657
-0.155282,-0.0537984
-0.00132255,0.00747289
0.151565,0.0206736
0.19067,0.13074
0.125297,0.185414
0.0502611,0.0303579
0.0220906,-0.0102598
0.00368293,0.00807656
-0.0216276,-0.0399273
-0.0243264,0.0119966
-0.0316567,-0.0895024
-0.0164399,-0.103022
0.00086914,-0.0569512
0.0146929,-0.124575
0.0667016,-0.168234
0.0839954,0.0333958
0.131804,-0.185949
0.21149,-0.0676943
0.124842,0.0196248
-0.024027,0.060521
-0.0502154,0.204393
-0.130601,0.0893503
-0.209989,0.102088
-0.121472,0.195352
-0.0449672,0.0763725
-0.0788261,-0.0859272
-0.0461075,-0.0401811
0.0034732,-0.039659
-0.020595,0.0832744
-0.0890286,0.039263
-0.0435197,0.0419616
0.15102,0.0516218
0.307294,-0.0921199
0.176379,-0.189812
0.00382253,-0.151727
-0.0994655,0.0732003
-0.229796,0.0767828
-0.265164,-0.0365473
-0.152706,-0.0173295
0.00716132,-0.00967122
0.108782,0.0831763
0.076839,0.0271684
-0.0271125,-0.0741215
-0.0203759,0.00662649
0.0233553,0.0806014
0.0409263,0.137594
0.054459,0.058989
0.0993192,-0.00306283
0.0836913,0.00970937
0.0224438,0.0728684
0.027841,-0.0846872
0.0949408,-0.201449
0.0866365,-0.179032
0.0274421,-0.101024
-0.038681,0.033065
-0.0523193,0.0625471
-0.0463908,-0.0202128
-0.0424413,-0.0074865
0.0383025,0.0309756
0.0176018,-0.0108532
-0.086656,-0.00911269
-0.086136,-0.0216553
-0.113777,0.00584635
8.22e-05,-0.0364974
0.189528,0.0265008
0.113337,0.0517091
0.024092,-0.0278363
0.00994426,-0.0206872
-0.0797666,0.0754121
-0.143456,0.172432
-0.159271,0.17344
-0.11021,0.0516094
0.0151087,-0.108473
0.057631,-0.111147
0.0264097,-0.0179312
0.0593573,-0.122998
0.18466,-0.128705
0.322933,-0.0640509
0.279238,0.068635
-0.0190452,0.13521
-0.414143,0.0598908
-0.524607,0.0571611
-0.21045,-0.0530195
0.0363089,-0.00991117
0.109182,0.0488352
0.0723257,0.0891323
0.0131511,-0.0497155
0.055093,0.0132643
0.106834,-0.0455678
0.0781122,-0.129633
0.0249409,0.0283604
0.0504816,-0.0357444
0.133259,0.00581996
0.227964,0.084951
0.156091,-0.0840543
-0.0325422,-0.0904547
-0.0737229,0.103194
0.0567673,-0.0323947
0.160966,0.0743805
-0.0572323,0.23783
-0.304192,0.0354401
-0.386263,-0.115599
-0.234432,0.0162474
-0.028342,-0.0625191
0.0676407,-0.0110714
0.0286044,-0.0816756
-0.0980988,-0.0809545
-0.193667,-0.0649282
-0.200323,-0.0890871
-0.103862,-0.0497107
0.0591273,0.0541011
0.191416,0.131377
0.251656,0.083411
0.235366,-0.0440758
0.179072,0.0255974
0.131251,0.0562945
0.1475,-0.0203882
0.140793,-0.111675
0.0434653,-0.0103542
-0.194518,0.059239
-0.294959,0.129211
-0.108613,0.107468
0.073208,-0.086193
0.167926,0.00568465
0.00888902,-0.0426977
-0.126154,-0.040632
-0.163833,-0.00180553
-0.166686,0.0871325
-0.0792079,0.161374
0.106271,0.10012
0.315715,-0.105102
0.373498,-0.0948198
0.302722,-0.0620837
0.000564645,0.00686305
-0.388772,-0.125496
-0.470251,-0.159253
-0.375525,-0.0205744
-0.112459,0.09559
0.171267,0.293949
0.223159,0.181325
0.134418,0.0217067
0.0994641,-0.0246913
0.0236697,-0.180109
-0.084221,-0.217406
-0.0677134,-0.180063
-0.0187535,-0.159877
0.0506104,0.0214224
0.0727725,0.149132
0.0859066,-0.0483494
-0.00913444,-0.259914
-0.140122,-0.21183
-0.0674709,0.0479615
0.137132,0.141829
0.214945,0.0348732
0.0890712,0.162314
0.0334954,0.146721
0.00213004,0.101782
-0.137381,0.00969527
-0.178403,0.0606785
-0.124015,0.0783686
-0.0391156,0.164691
0.0366313,0.180358
0.125439,0.0798489
0.207926,0.0242089
0.206691,0.036322
0.016672,-0.0226611
-0.243793,-0.059665
-0.202881,-0.0166834
-0.0371458,-0.301645
-0.0494358,-0.277475
-0.217894,-0.13329
-0.357404,-0.104835
-0.286661,-0.114925
-0.0383856,-0.138276
0.102396,-0.0475161
0.229053,0.180289
0.27793,0.212789
0.2093,0.144806
0.241235,0.158443
0.287084,0.29621
0.194955,0.243323
-0.0444934,0.00185988
-0.27729,-0.150488
-0.252277,-0.177948
-0.0293091,-0.246698
0.177826,-0.0258694
0.355132,0.136231
0.212397,0.0847773
-0.012606,0.161631
-0.200159,0.0551902
-0.270203,0.0286038
-0.208612,-0.0526178
-0.217169,-0.158869
-0.156675,-0.219735
-0.149905,-0.152902
-0.00761334,0.0188148
0.20315,0.151531
0.226046,-0.242872
0.272226,-0.269833
0.220046,-0.168907
-0.0188335,0.0523455
-0.19348,0.156705
-0.180082,0.129169
-0.0498851,0.130988
0.0456665,0.0958105
0.045514,0.0356608
-0.0247759,-0.0778074
-0.290489,-0.0846408
-0.42045,0.0492992
-0.185804,0.155601
0.251961,0.240454
0.611714,0.24857
0.530101,-0.00817416
0.25622,-0.0605271
0.0424211,-0.0441916
-0.332661,-0.0966204
-0.628908,-0.36683
-0.409566,-0.287191
-0.0585996,0.0476364
0.18953,0.162462
0.109504,0.25049
-0.0754609,0.0588325
-0.0163955,0.0245922
0.14636,0.0641205
0.098945,-0.21313
0.0584052,-0.24721
0.018265,0.098249
-0.149812,0.125287
-0.072593,0.106472
0.167882,0.139687
0.171659,0.112109
0.112617,0.03646
0.0472973,0.0622341
-0.239142,-0.0660716
-0.404047,-0.170998
-0.218153,-0.218622
0.0514759,-0.297972
0.209201,-0.274367
0.52297,-0.216418
0.825728,-0.218028
0.598228,0.0510873
0.295216,0.405155
-0.190296,0.305147
-0.652961,0.163777
-0.748857,0.0874033
-0.690527,-0.0940761
-0.335428,-0.141165
0.122697,-0.0187243
0.373908,0.138095
0.32836,0.0927477
0.226485,0.0966365
0.203785,0.188873
0.0728623,0.190079
-0.172341,0.0856442
-0.319046,0.105555
-0.330088,-0.0273262
-0.120304,-0.146924
-0.0951797,-0.161167
-0.101704,-0.0972083
-0.0284775,-0.108041
0.0571251,-0.15261
0.0893591,-0.0463607
-0.0590165,0.0249757
-0.103254,0.115232
0.0319071,0.198342
0.240284,-0.0253795
0.364984,-0.0489538
0.217758,-0.029916
0.161807,0.136048
0.0693231,0.115699
-0.00438335,-0.0878676
0.126427,-0.011282
0.147188,-0.0614582
-0.0183138,-0.129292
-0.289304,-0.162931
-0.584442,-0.131268
-0.498736,0.0281167
-0.269482,0.081869
0.0881925,0.000798668
0.125833,-0.028187
0.118314,-0.0480134
0.00213588,-0.0671381
-0.226574,0.0747296
-0.209922,0.000954649
0.206361,-0.105595
0.619119,-0.0563717
0.557214,-0.092345
0.305566,0.00616702
0.168675,0.0982082
0.232168,0.069677
0.362728,0.0628181
0.225191,0.0433178
-0.0620242,-0.026889
-0.25266,0.0442423
-0.523663,0.109115
-0.513709,0.10734
-0.405574,0.0637397
-0.414252,-0.00595452
-0.231203,-0.0148779
-0.0233868,0.00906161
0.0957561,0.0134512
0.00717618,0.0132417
0.0106217,0.00557606
0.0226751,-0.00248281
0.0706637,0.0185046
0.186509,-0.00124397
0.192041,-0.0538722
0.0990071,-0.0548201
0.0472314,-0.125099
0.0764403,-0.207083
0.102574,-0.0866208
0.0464828,0.0926353
-0.0423236,0.132371
-0.105085,0.0307567
-0.0861223,-0.0809408
-0.0341459,0.0130713
-0.0242962,0.0928926
0.00346349,-0.0391169
0.029687,0.0761183
0.034617,0.0847506
0.0245465,0.0171769
0.0120395,0.0244283
-0.0240318,0.0391913
-0.095988,0.0570921
-0.119573,-0.0532752
-0.0081557,-0.0340401
0.0576801,-0.0679887
0.0979972,-0.125596
0.132182,-0.0122915
0.163322,-0.0388241
0.0698408,-0.0773198
0.0107161,-0.0135532
-0.0185102,0.0342571
-0.0513892,0.0638665
-0.0107547,0.0376158
-0.0195408,0.019854
-0.0649072,0.0459968
-0.123249,0.149458
-0.123487,0.00511158
-0.0454376,0.00298047
-0.0245611,0.0151729
0.0354636,-0.0368726
0.0913974,-0.0686538
0.130988,-0.0863428
0.094447,-0.106053
-0.0105683,-0.0721929
0.00772953,0.0231769
-0.0312984,0.126014
-0.116564,0.064275
-0.109727,0.0359783
0.00221474,0.0188735
0.206574,0.114017
0.334607,0.0426566
0.219049,-0.107191
-0.0871903,-0.0595504
-0.285868,-0.0200553
-0.290866,-0.0756084
-0.224263,-0.0709157
-0.0126678,-0.00782915
0.24237,0.0345333
0.302026,0.0228765
0.155699,0.0633239
-0.116989,0.0954934
-0.266168,0.0279087
-0.171386,-0.0515856
-0.0381424,-0.0369797
0.0361657,-0.0187062
-0.0556215,0.0277333
-0.072218,0.0898
-0.0383716,-0.0942635
-0.035766,-0.0425898
0.00288095,0.0604817
0.046977,0.149838
0.0340349,0.0706229
0.0639486,0.0927824
0.103579,-0.109467
0.0899005,-0.274019
0.0363417,-0.318396
-0.0139814,-0.343255
-0.0895515,-0.143191
-0.122709,-0.00392008
-0.0493412,0.0482861
0.0493788,0.271427
0.0133894,0.330851
-0.036653,0.185784
-0.0851407,0.0465488
-0.10709,0.0471967
0.0251179,0.115022
0.133235,0.021399
-0.01101,-0.0261722
-0.139135,0.0944012
-0.0402598,0.101403
0.302044,0.0304924
0.459287,-0.0393981
0.409305,-0.151147
0.203264,-0.1586
-0.114919,-0.00276605
-0.272973,0.0271024
-0.237107,0.00628434
-0.104684,0.0137263
-0.147578,0.00969755
-0.158807,0.0402311
-0.02991,-0.0254226
0.0217392,-0.230249
0.0145293,-0.20704
0.00620208,-0.0462253
0.00248262,0.193344
0.0102648,0.106276
-0.00767967,-0.0525153
0.0284988,0.0481218
0.101123,0.0516856
0.174359,0.019077
0.203035,0.0194326
0.102968,0.00794331
-0.14402,-0.0286262
-0.369544,-0.0623858
-0.427024,-0.0539891
-0.189779,0.0464292
0.0598762,-0.0630744
0.185411,-0.0470457
0.16096,0.0349664
0.0761688,0.0466748
0.0336921,-0.00188535
0.00617666,-0.0741231
-0.0184138,-0.151686
-0.00485458,-0.102743
0.0247272,0.188628
0.13074,0.147686
0.10272,0.0819741
0.0182314,0.0393301
-0.0787685,0.0659138
-0.133482,0.0498894
-0.056262,0.00977439
0.0265434,0.0073354
-0.0646444,-0.147662
-0.10356,-0.163648
-0.0377485,-0.0681954
-0.0427706,0.0400066
-0.00789734,0.0498082
0.0424819,0.0594427
0.0316494,0.108466
-0.0373397,0.00234147
-0.00011303,0.0204032
0.157352,-0.0167028
0.178099,-0.0548428
0.12072,0.00907155
0.0168919,0.0153873
-0.00306094,-0.0176668
0.0629283,0.0181143
0.136912,0.0162018
0.111225,-0.0952374
-0.0212769,-0.116865
-0.0131211,-0.000228738
-0.0682231,0.0872273
-0.203009,-0.0189108
-0.228571,0.000850585
-0.16546,0.0864484
-0.0981358,-0.0549971
0.0470293,-0.180952
0.0848251,0.0311546
-0.0245584,0.106202
-0.14051,-0.0726551
-0.142402,-0.100148
0.0106444,0.0254323
0.0750751,0.145347
0.0379457,0.142558
0.0501012,0.00774533
0.102648,-0.0338637
0.10727,0.0454652
0.0771648,0.0968277
0.0179688,0.0302759
0.0155398,-0.00703825
0.0593797,-0.0440817
0.0520673,-0.023434
-0.138146,-0.0132463
-0.262589,0.00795198
-0.0939135,0.0232623
0.046896,0.00632667
0.235455,-0.0732323
0.511845,-0.0300559
0.397373,0.0319933
0.0514911,-0.0321933
-0.290167,-0.0284227
-0.368763,-0.0304833
-0.130842,-0.00435222
-0.0566537,-0.00317152
-0.0905974,-0.0202453
-0.0923653,-0.0275322
-0.0129569,-0.0429929
0.0391024,-0.0209728
-0.0228029,0.00614625
-0.0327016,0.0330062
0.0195353,-0.0275605
0.0483813,-0.080069
0.0510264,-0.050206
-0.039554,0.0457991
-0.153638,0.122182
-0.145795,0.133076
0.00517792,0.0276114
0.0748915,-0.0231823
0.0855371,-0.0466583
0.0626805,-0.169027
0.0468846,-0.0900394
0.0856081,0.036928
0.086187,0.0104209
0.059434,0.0995055
0.0283977,0.104243
0.00396971,0.0936505
-0.0288477,0.0732931
-0.0412985,0.0234566
0.00170868,0.0469066
0.0816709,0.010199
0.104339,-0.0310075
0.0621155,0.00488755
-0.0185562,-0.219206
-0.123209,-0.22192
-0.202394,-0.0502246
-0.184917,0.143401
-0.0862952,0.131915
0.0267318,-0.0594099
0.0824338,-0.031222
0.10563,0.0855933
0.0740711,0.0114699
-0.00398645,-0.0419874
-0.0860868,0.000294289
-0.137262,-0.0122685
-0.0750475,-0.0251013
0.049089,-0.0234068
0.0378236,0.0654465
-0.0350177,0.104172
-0.011333,0.0684565
0.104509,-0.0543095
0.148279,-0.0272899
0.117706,-0.0237193
0.040497,-0.0434864
0.00984404,-0.00367658
0.0317094,0.0260139
0.0202405,0.0324296
0.00355748,-0.0374176
-0.0243071,-0.0206123
-0.0735242,0.0729935
-0.0686573,-0.0719681
0.0257962,-0.0859005
0.03691,0.0290212
-0.0290299,0.0470604
-0.143303,0.0328619
-0.125271,0.0179319
-0.0235099,0.00972143
0.0197295,-0.0154017
0.0322405,-0.0282502
-0.00209122,0.000763506
0.000466248,-0.0519669
0.0969761,-0.0519839
0.117745,0.115532
0.0396453,-0.0297748
-0.036707,0.0151452
-0.0889184,0.0452357
-0.119676,-0.0851935
-0.13276,-0.0836366
-0.0394972,-0.0305374
0.11023,0.0572865
0.117491,0.0269732
0.0624966,-0.0050301
0.0271834,-0.0316898
0.0190646,0.0260409
0.0599999,0.0530573
0.0787189,0.00244605
0.0962,0.0280728
0.0571188,0.0454407
-0.00474333,0.00927606
-0.0281559,-0.0207911
-0.0463371,-0.0263441
-0.115448,-0.0635565
-0.081607,-0.0697075
0.0413743,-0.00285242
0.0453103,0.0666491
-0.0353224,0.0610829
-0.122696,0.0495497
-0.106623,0.0542067
-0.0409121,0.0152182
0.0339426,-0.0400623
0.0797,-0.0332538
0.0874516,0.00818632
0.0357173,0.0338334
-0.00237243,-0.0161139
3.01e-05,-0.0301216
-0.0648438,-0.0737916
-0.100242,-0.0404565
-0.111304,0.0817373
-0.0694728,-0.0062948
0.00431238,-0.00191794
0.0694692,0.000724098
0.0348682,-0.122962
0.0150326,-0.0998571
0.0719934,-0.0626904
0.110589,-0.0364748
0.0639499,-0.109009
0.0013056,0.0898805
-0.0425992,0.194842
-0.0149896,0.121499
0.0449427,0.150695
0.0512041,-0.102867
-0.00711205,-0.107575
-0.0571071,0.0940725
-0.0163765,0.136748
-0.0607121,0.0326091
-0.179152,-0.0203416
-0.0784277,0.0357229
0.116798,0.0645177
0.153831,-0.00393846
0.059766,0.00688432
0.0785583,-0.0307121
0.044194,-0.0961567
0.0314395,-0.0239476
0.0192806,-0.0791664
-0.018654,-0.0714362
-0.0525661,-0.028778
-0.0998965,-0.0934636
-0.138201,-0.116785
-0.128441,0.0584955
0.0233155,0.0294107
0.170427,-0.00949798
0.139955,0.0168124
-0.00771707,0.0184342
-0.119684,0.00138517
-0.0526526,0.0298579
0.0404626,0.0567103
0.036583,0.088688
-0.0386442,0.11958
-0.140873,0.0303057
-0.127459,0.00862248
-0.0750557,-0.0285038
0.00387131,-0.012285
0.0705925,-0.0155932
0.0777812,-0.018561
0.0979782,-0.0110798
0.137271,-0.00299834
0.136862,-0.00729262
0.0569191,-0.00413332
-0.0470483,0.0230085
-0.0736585,-0.0196834
-0.0800266,-0.0612122
-0.0527815,-0.0463726
-0.0379617,-0.0331446
-0.0633987,0.0107504
-0.0503458,0.0255625
0.0427606,-0.0229882
0.13524,-0.111596
0.175959,-0.13317
0.181498,-0.0378728
0.120194,0.0972213
0.0538693,0.0300238
-0.0467976,0.0315525
-0.157408,0.00875551
-0.209404,-0.124974
-0.12967,-0.0637594
-0.0203516,0.183555
0.00736162,0.0248684
-0.0264347,0.031613
-0.0534483,0.119084
-0.0559353,0.178816
-0.0645718,0.0940485
-0.0376938,-0.0207087
-0.011222,-0.0145625
-0.0346274,-0.0184301
-0.0325087,-0.0170826
-0.0306314,-0.042474
-0.0204566,-0.0816745
0.0280396,-0.0150052
0.0657215,0.0315451
0.0920821,0.0236214
0.0848664,-0.0588381
0.0546985,-0.0802432
0.0737778,-0.0205463
0.0621459,0.00877653
0.0325271,0.0548018
0.0465256,0.0120945
0.0185684,-0.0238386
0.0759628,-0.0151189
0.193292,-0.0337503
0.121193,-0.0443579
-0.0946445,-0.00235781
-0.173258,-0.00700227
-0.109471,-0.0277985
-0.00328794,-0.0611128
0.0205179,-0.0393185
-0.0222853,0.120172
-0.0445134,0.152723
-0.0228682,0.0399012
-0.041786,-0.0573116
-0.0341589,-0.0367508
-0.0219752,-0.00292111
-0.0770839,-0.0204296
-0.0466999,-0.0305422
0.0012106,-0.027287
-0.00582582,-0.104019
-0.00844039,-0.0101831
-0.050867,0.0267662
-0.0879533,0.0913513
-0.0452544,0.115918
-0.0183217,-0.0129913
0.019308,-0.0453863
0.0615345,-0.0083429
0.107292,0.0481681
0.137516,-0.0149022
0.150511,0.0239591
0.142739,0.00987834
0.122091,0.0274591
0.0613436,-0.0190187
-0.0830218,-0.120983
-0.234171,-0.0314799
-0.245442,-0.0752044
-0.138253,0.00704874
-0.0324655,0.0741899
0.00352784,0.0587132
0.00642353,0.00392065
-0.0333012,-0.0936063
-0.0843946,0.0257381
-0.0624517,0.145345
0.0320261,0.0534685
0.0863513,0.00170854
0.127333,0.0269456
0.174544,0.0461879
0.237995,0.0086488
0.228885,-0.0476756
0.140816,-0.0644904
-0.0117548,-0.067306
-0.138243,0.0244562
-0.156253,-0.0179647
-0.095132,-0.0405908
-0.0226916,0.0625421
0.0350268,0.021415
0.0279911,-0.0572052
-0.0562341,-0.0697244
-0.17716,-0.00224685
-0.170629,0.0962852
-0.115224,0.0405969
-0.0429854,-0.0414661
0.0391773,-0.0375711
0.078004,0.00754241
0.0889861,0.0164911
0.0671537,-0.0313172
-0.0174893,0.00622231
-0.057769,-0.00592255
-0.0266168,0.0215621
-0.00939572,0.0417395
0.0319781,0.0278994
0.0841604,0.00160461
0.0797222,0.0526023
0.0526113,0.0111136
-0.00330612,-0.0729584
-0.0395167,-0.0142555
-0.0803381,-0.068745
-0.0812379,-0.0717254
-0.0091127,-0.099644
0.0844605,-0.0916069
0.125962,0.0288858
0.0714825,0.0418376
-0.0106493,0.062192
-0.0676973,0.0856126
-0.0646085,0.056247
-0.0409622,0.0338378
-0.0438964,0.0400977
-0.00498681,0.0308118
0.0561479,0.00663123
0.079455,-0.0152996
0.0743333,-0.0161978
0.0459874,-0.040054
-0.00930464,-0.0254917
-0.0404599,0.0401538
-0.0920591,0.0195004
-0.0805599,-0.0134343
-0.00698236,-0.0338405
0.0159044,-0.0702738
-0.0391521,-0.113949
-0.0533945,-0.0781796
-0.0309447,-0.0228124
-0.0117401,0.0224845
0.010156,0.08533
0.0738838,0.112282
0.101844,0.0763827
0.123303,0.0740043
0.135829,0.0451671
0.00931453,-0.00300137
-0.0805572,-0.0308833
-0.0672558,-0.0177366
-0.0546914,-0.00721038
-0.0795066,-0.0155477
-0.0664949,0.043845
-0.0234489,0.0585035
0.0342553,-0.11825
0.0782188,-0.213646
0.0677392,-0.154409
0.0553611,0.00846835
0.0285739,0.0659308
-0.0846966,0.0632422
-0.12294,0.0931888
-0.0530515,0.0356884
-0.0229476,-0.0385112
0.00849334,-0.0825342
0.0505947,-0.0644483
0.016498,0.0816174
-0.0411334,0.128317
-0.0326947,0.147516
0.000984239,0.0606416
0.0325758,-0.0236657
-0.0151329,0.0410832
-0.0520652,0.0713652
-0.0269727,-0.0443938
0.0150619,-0.0940002
0.0303046,-0.0357613
0.0167372,-0.0160546
-0.00976151,-0.0304714
-0.0229568,0.0503254
-0.018644,0.0499788
-0.000596725,-0.0719504
0.0482238,-0.050805
0.0857405,-0.0180076
0.118422,-0.0547942
0.129372,-0.0899978
0.127094,-0.0594928
0.169104,0.0304898
0.194173,0.0626871
0.0579589,0.0466281
-0.160363,0.0682819
-0.29144,0.0292814
-0.319513,-0.02476
-0.208391,-0.00938258
-0.0707159,-0.0393608
-0.00797236,-0.0097138
0.0154619,-0.0552776
0.0532445,-0.106978
0.0678968,0.0361512
-0.0201995,0.0941903
-0.0507422,-0.0303605
-0.0141989,-0.0892904
0.0121462,-0.0541407
0.0174754,0.0929797
0.0306035,0.171203
0.023559,0.000603357
0.0428415,0.0467476
0.0755973,0.132919
0.0584678,0.0648623
0.0132288,-0.112064
-0.0118577,-0.0621355
0.00885022,-0.0219743
0.0299614,-0.023192
0.00341773,0.0274172
0.0150593,0.0559051
0.0346755,-0.0997209
-0.00806868,-0.142227
-0.0457536,-0.0737035
-0.0407479,0.0139718
-0.0249669,-0.00396369
0.0143321,-0.0226706
0.044427,0.0589876
0.0309505,0.142665
0.0124854,0.0677829
-0.0229321,0.00231063
-0.0284198,-0.01659
-0.0501634,-0.0104953
-0.0930317,0.0199148
-0.0930396,-0.0128569
-0.0281498,-0.0192127
0.0399085,-0.00765185
0.0562635,-0.0236379
0.0218822,-0.0239626
0.0135393,-0.0149504
0.0664741,-0.00713831
0.0952203,0.0304242
0.138976,0.0554112
0.197351,0.0450545
0.0991291,-0.0398395
-0.025633,-0.0515002
-0.131253,-0.027638
-0.232293,0.0276987
-0.170256,0.000854079
-0.0670814,-0.0236374
-0.0255349,-0.048747
0.00717118,-0.00867482
0.0502023,0.0779884
0.0146128,-0.0152596
-0.0263221,-0.0342738
-0.0243568,0.0216898
-0.0324983,-0.024492
-0.0292642,-0.0595657
-0.0073819,-0.0479249
-0.0116784,-0.0306218
0.00800539,0.0691704
0.0553025,0.0922664
0.0723351,0.0294367
0.0594253,-0.0145333
0.028436,-0.0278369
0.0174859,0.00471243
-0.003309,0.0514391
0.00815899,-0.0286677
0.0355347,-0.0408461
-0.00233726,0.0451099
-0.0590985,0.00603212
-0.132364,-0.000289308
-0.159851,0.0754932
-0.0369553,0.0425024
0.0661053,0.0118834
0.0377017,0.0195808
-0.0319498,0.0137883
-0.00203893,-0.0928627
0.0522511,-0.0994244
0.0962725,-0.0746279
0.157857,0.0178216
0.198172,0.100076
0.140863,-0.0250157
0.00954005,0.0783172
-0.0430317,-0.000588743
-0.0188308,0.0127734
-0.00645572,0.0211834
0.00887979,-0.00889533
-0.00575819,0.0174642
-0.0485524,-0.0100493
-0.0750343,-0.00117721
-0.0695288,0.00994243
-0.0983801,0.00551612
-0.066638,-0.0582126
-0.0284454,-0.116748
-0.0328409,-0.0592159
-0.0263225,-0.0440487
0.0101523,-0.0951949
0.0114614,-0.0862144
-0.0440694,-0.0377131
-0.0910595,-0.016706
-0.0905988,0.0469684
-0.0427367,0.129045
-0.00941124,0.130969
0.0238531,0.111548
0.0462558,0.151478
0.0357398,0.0169655
0.0333427,-0.0583379
0.0656295,0.0678498
0.118678,0.0644243
0.127239,-0.00445884
0.0783264,-0.0664495
0.0153091,-0.008391
-0.0396539,0.0033524
-0.0709598,-0.023527
-0.0564069,-0.0592913
-0.0303868,-0.00743769
-0.0373729,-0.00108965
-0.0593901,-0.065052
-0.0315104,-0.0431979
-0.00500995,-0.0806981
-0.00919279,-0.0916256
-0.0160614,0.00291928
0.0457818,0.0684262
0.0903132,0.0554089
0.0588532,0.0159826
0.0454368,0.027055
0.085163,0.0513015
0.114842,0.046898
0.0969145,-0.0489925
0.00996263,-0.0561422
-0.0606212,-0.0607566
-0.0843253,-0.0472947
-0.0770641,0.0681464
-0.0420286,0.0537607
0.00196358,0.0248243
0.0228452,0.00312096
0.0344275,0.00825403
-0.017375,-0.0024976
-0.089309,-0.0183648
-0.137844,-0.0112775
-0.140228,0.000394887
-0.105544,0.0175739
-0.047628,-0.0227955
0.0136448,-0.0166535
0.0515021,0.0322235
0.0604806,0.0156386
0.0626765,0.0539135
0.0757256,0.105151
0.063847,-0.0015875
0.0395321,-0.116447
0.00845276,-0.0818
-0.0317897,0.0375628
-0.0635581,-0.03649
-0.0298281,-0.0828399
0.0121342,-0.00769017
0.0348856,0.0288422
0.066827,0.00132904
0.0700585,0.000863348
0.039751,0.0173305
-0.00389138,0.0526651
-0.0231612,0.0253101
-0.0340806,0.0495058
-0.0200575,0.0286494
0.00188203,-0.0563883
0.00438618,-0.0343774
-0.00360527,-0.0735704
0.014228,-0.0465128
0.0253516,-0.0119152
0.0477628,0.0562289
0.016107,0.0504088
-0.043341,-0.0384901
-0.0483274,-0.0093952
-0.0325415,0.00602331
0.00049368,0.012996
0.0166976,0.027144
0.00522941,0.0497004
-0.0203902,0.0384771
-0.0517341,-0.0302429
-0.0657136,-0.0598271
-0.0560023,-0.0963938
-0.0283776,-0.0325983
0.00509046,0.0792612
0.0109694,0.115421
-0.00813233,0.0480899
-0.0157881,0.030455
0.0284633,0.0475282
0.106483,-0.0161925
0.121508,-0.0269687
0.0689791,-0.000222712
0.00236359,-0.00503547
-0.0647949,-0.000578968
-0.0440743,-0.0114922
0.0131973,-0.0304543
0.041036,-0.0530121
0.0320389,-0.0357157
0.0224322,-0.0270552
0.00337105,-0.0876375
0.0300725,-0.116913
0.0533809,-0.13282
-0.0307073,-0.0442929
-0.0952991,0.0409797
-0.146277,0.158465
-0.129336,0.128324
-0.0395405,0.0790976
0.0175613,0.0408923
0.0475523,0.0334761
0.0302495,0.0745547
-0.0110874,0.00770664
-0.0199937,-0.000629455
-0.0163368,0.0200273
-0.00894162,0.00867536
0.00566579,0.0142676
0.0131806,0.00244538
0.00950698,-0.0401803
0.0265153,0.0126287
0.0438524,0.0284
0.0624251,-0.0023567
0.0804459,-0.0334819
0.060571,-0.0324131
0.0357487,-0.0931374
0.046627,-0.122574
0.0480001,0.058178
0.0154601,0.0122751
-0.0029411,-0.0696521
0.0803793,0.0868248
0.099569,-0.0404586
-0.0135527,-0.0392871
-0.17056,0.0272107
-0.218976,0.0100151
-0.140972,0.00169261
-0.0500525,0.0367473
0.00866816,0.0517915
0.0486118,0.0163521
0.0558831,-0.00687928
0.00124008,0.0018294
-0.0507548,-0.00912775
-0.0768126,-0.0212136
-0.0739931,-0.0285579
-0.063209,-0.018166
-0.0108848,-0.0129116
0.0403878,-0.00542957
0.0393135,-0.00356861
0.038888,0.00496753
0.0831891,-0.00565805
0.116612,-0.0272412
0.0898062,-0.0271404
0.041528,-0.0198927
-0.00348994,-0.0100323
-0.0612385,-0.0210178
-0.0630901,0.0276804
-0.0308014,0.0220061
-0.0152854,0.0438902
-0.0333953,0.029802
-0.0165024,0.00827473
0.0719209,-0.00451998
0.0740084,-0.0231146
0.0350049,0.0428188
-0.00803439,0.0168438
-0.0474661,0.00369638
-0.0381288,0.00448909
-0.0152337,0.011477
-0.00668382,0.0380664
-0.0251939,0.0276565
-0.037455,0.013256
-0.020634,0.0202471
0.000606241,0.0075815
0.0364553,0.00841302
0.0789671,0.0174355
0.0900144,-0.0148895
0.0161584,-0.125022
-0.0386503,-0.0335395
-0.0501719,0.00685912
-0.0358205,-0.0611035
-0.00624035,-0.0539821
0.00564476,0.034673
-0.0143656,0.0199702
-0.0295193,-0.00570189
-0.0141259,0.00603192
0.0685621,0.0186359
0.103132,0.066364
0.0780703,0.0728506
0.00446282,0.00566031
-0.0821017,-0.0195284
-0.106047,-0.0644862
-0.0309779,-0.096216
0.0538123,-0.108914
0.0706165,-0.0601559
0.0632184,0.0869974
0.00872734,0.058636
-0.0603747,0.0113746
-0.0922021,0.0439364
-0.0670765,0.0487554
-0.0174619,0.0454132
0.010624,0.0556178
0.0207131,0.0609953
0.00294659,0.0251842
-0.0317989,-0.0270655
-0.0517157,-0.031032
-0.0201006,-0.017395
-0.00900986,-0.0221038
-0.028985,-0.0176469
0.00894262,-0.0581902
0.059502,-0.0620586
0.0752645,0.0469448
0.0663487,0.0689715
0.0396214,-0.0146125
0.0107825,-0.0040045
-0.0129724,-0.00591681
-0.0487986,-0.0271321
-0.0477178,-0.00468214
-0.0326409,0.00766893
0.0239512,-0.00974627
0.0837118,-0.0211751
0.0774738,0.00192343
0.0449648,-0.00626922
-0.0261097,-0.0573504
-0.0711403,-0.0653554
-0.0345027,0.0354436
-0.00682238,0.117354
0.00381999,0.0272553
-0.00659558,-0.0161824
-0.0267821,-0.0295066
-0.0378882,-0.0809402
-0.0608158,-0.121416
-0.0628356,-0.0226331
-0.0375611,0.0455144
0.00524791,-0.00987883
-0.00542995,0.036054
-0.020294,-0.0229332
0.00780062,0.0107462
0.018087,0.0864368
0.0360275,0.0979654
0.0792105,0.0839844
0.0816815,0.0274308
0.0407672,0.0188213
0.00898501,0.0793535
0.0103854,0.023661
0.0280837,-0.00855487
0.0144357,-0.0249142
-0.0307035,-0.0244132
-0.0684699,-0.0220791
-0.0746374,-0.072403
-0.0376988,-0.122036
0.0149068,-0.109896
0.0638627,-0.0399633
0.0731662,0.0438395
0.0297717,0.102844
0.0115385,0.056303
0.0229329,0.0130956
0.0280651,0.0321618
0.0686943,-0.00527007
-0.00153461,-0.0288714
-0.0337594,-0.0420396
-0.056532,-0.00962614
-0.0476962,0.0471582
0.0137278,-0.0121582
0.0661496,-0.0294105
0.0317897,0.000389926
0.00240245,0.0084183
-0.0136748,0.002224
-0.0994778,0.0620436
-0.144511,0.00107368
-0.103724,-0.00862258
-0.0534537,-0.020582
0.0133497,0.000722536
0.0691795,-0.0018389
0.0541644,0.0268439
-0.00319194,-0.0100414
-0.0475391,-0.0346627
-0.034667,0.00952454
-0.0065176,-0.0529942
0.0516308,-0.0292402
0.0720093,-0.00248628
0.0365229,-0.026287
-0.031739,-0.0493635
-0.0359465,-0.00756629
0.019531,-0.00801938
0.0854209,-0.0582282
0.0838236,-0.0446821
0.0194088,0.0512336
-0.0434768,0.0635543
-0.0342816,0.0663186
0.0219937,0.0730708
0.0169983,0.0829027
-0.0417813,0.04011
-0.0470527,0.0100506
-0.00569136,0.0265429
-0.00176894,0.00779225
0.0145501,-0.027077
0.0541026,-0.041483
0.0502494,-0.0566542
0.00835784,-0.0378924
-0.0122881,-0.032884
-0.0429272,0.0133609
-0.0499043,-0.0178307
-0.0431379,-0.0818656
-0.0149382,-0.0553169
-0.0206154,-0.0243276
-0.0358354,0.0351133
-0.0193531,0.0785643
0.0187513,0.0563881
0.0363959,0.0465728
0.043413,0.0364709
0.0324484,0.00816852
-0.00531519,-0.00317116
-0.00743258,-0.00926548
-0.0025085,0.00559513
-0.0175492,0.011719
-0.0461914,0.0136912
-0.0439868,0.000737849
-0.00696702,0.00352923
0.0298272,0.000683742
0.0354532,-0.00710905
0.0173677,-0.0227892
0.00342283,-0.00189202
0.0234386,-0.0205151
0.0352733,-0.00256796
0.0142592,0.00415531
0.0188606,-0.0488962
0.0125044,-0.0516164
-0.0169464,0.00537371
-0.0178102,-0.00692556
0.024618,-0.052551
0.06751,-0.00777907
0.0746394,0.0343077
0.00791119,0.00348856
-0.0688367,-0.0132449
-0.112231,0.0353191
-0.12515,0.0362908
-0.0144037,-0.0309537
0.0864214,-0.0299116
0.067138,0.0368594
0.0354589,0.134669
0.0203108,0.0865426
0.00838187,-0.0596075
-0.00832108,-0.0701334
-0.0218294,-0.0299789
-0.0398639,-0.0366614
-0.0544654,-0.0494724
-0.0785727,-0.00574053
-0.0952957,-0.0305067
-0.0525911,0.0366364
0.0524794,0.0532891
0.111936,0.0362633
0.0933142,0.0206153
0.0543199,0.0672686
0.0144522,0.0626374
-0.0223438,0.0264531
-0.0531308,-0.0198977
-0.0606488,-0.0836243
-0.0123055,-0.0941392
0.0580682,-0.0588912
0.0639225,-0.0262393
0.012755,-0.020241
-0.011863,0.00238683
0.0139233,0.0529801
0.0263992,0.0928748
0.00661264,0.0441132
-0.0439297,-0.0176705
-0.0578384,-0.0122857
-0.00942535,0.000570211
0.0350859,-0.0163669
0.0286553,-0.024613
0.00130278,-0.0537298
-0.0167257,0.0738991
-0.0311152,0.0706501
-0.015949,-0.0605012
0.0190456,-0.0342411
-0.00733811,-0.0124488
-0.024546,-0.0247658
-0.0274824,-0.0200576
-0.021106,0.0226339
0.0318716,0.0198259
0.0616696,0.0174261
0.055613,0.0088742
0.0276614,0.0105293
-0.0355728,-0.00167261
-0.0305586,-0.0289538
-0.0112256,0.00254806
-0.0271874,0.00360622
-0.0439057,0.013797
-0.0313774,0.0196875
-0.036382,-0.0284041
-0.0403389,-0.0536016
-0.0385116,-0.047862
-0.0259624,-0.0849347
-0.00684224,-0.0589164
-0.017452,-0.0515065
0.0184782,0.00106884
0.134902,0.0701097
0.227162,0.092459
0.198732,0.0855362
0.0611748,0.050378
-0.0863637,0.0282356
-0.169767,-0.000320777
-0.134558,-0.010383
0.00480598,0.0314268
0.108638,0.0635109
0.102247,0.0402577
0.011943,0.0380765
-0.111984,0.0109348
-0.172529,-0.0114483
-0.136106,-0.0581179
-0.0351706,-0.0629088
0.0585718,-0.0759742
0.0591116,0.0213581
-0.0053736,0.0567846
-0.02794,0.00706983
0.000131697,-0.0399755
0.0483102,-0.0459328
0.101837,-0.0151246
0.0730145,-0.0297853
0.00634431,-0.0658363
-0.0474198,-0.0147718
-0.0937549,0.0163252
-0.0604614,0.024319
0.0370006,0.0393618
0.0561864,0.0202418
0.0224118,0.0213718
0.0176833,0.0526573
-0.00937053,0.0126483
-0.0240597,-0.014969
-0.00140125,-0.00720811
0.025652,-0.019874
0.019849,0.0146759
-0.00266149,0.00273731
-0.033108,-0.0149501
-0.0553067,0.00645627
-0.064344,-0.00225432
-0.0477043,-0.0266662
-0.0256511,-0.0259585
-0.00185086,0.00933024
0.0206974,0.0075469
0.0158415,-0.00334058
-0.000155615,-0.00119979
0.0674494,-0.0156301
0.166071,-0.0317655
0.144858,-0.0166509
0.044473,-0.0348651
-0.0296252,0.00322698
-0.0926012,0.0139905
-0.0997527,-0.0748
-0.0483918,-0.0918113
-0.00460004,-0.048629
-0.0162593,0.0595494
-0.0378875,0.0914567
0.0120411,0.0777846
0.11041,0.085565
0.167405,0.0671966
0.129292,0.0440778
0.065483,0.0463985
-0.00451955,0.0115302
-0.0730304,-0.0698176
-0.126644,0.0222456
-0.132475,0.0686278
-0.138836,-0.0465476
-0.113481,-0.031776
-0.0608958,0.014031
0.0117841,-0.037854
0.0434348,-0.0785225
0.0454746,-0.024047
0.00707701,0.0058435
-0.0227905,0.0105324
-0.0209989,-0.00496093
-0.0181765,-0.0163347
0.0057582,-0.0109501
0.0575128,0.0114619
0.0933425,0.0347344
0.096566,-0.0222048
0.0662551,-0.0148972
-0.0116223,-0.0112654
-0.0438918,-0.00141703
-0.0466456,0.0167824
-0.0681229,0.0149596
-0.0570031,-0.011566
-0.0129496,-0.0394094
0.0210144,-0.0210171
0.0423955,-0.0203736
0.0314639,0.00484325
0.0101274,-0.039396
-0.0104657,-0.00250046
-0.0273849,0.110928
-0.00579816,0.0342222
0.0284249,-0.0153025
0.0384936,0.0553384
0.0206141,0.0139407
0.00801323,-0.0485417
0.00574572,-0.0114473
-0.00966948,0.0179041
-0.0106591,0.03408
-0.0215312,0.00474496
-0.0254658,-0.0112969
-0.00749679,0.0188174
0.0209077,0.00359395
0.0586508,-0.0288973
0.0395376,-0.0720124
-0.0149051,-0.0560884
-0.0110355,-0.00789365
0.00129254,-0.0218509
0.0302505,-0.0634781
0.0417472,-0.0226939
-0.0197937,0.077721
-0.0726372,0.0399133
-0.0792426,0.00526754
-0.0383981,0.016283
-0.000599443,-0.0204663
-0.0653926,-0.0892259
-0.112354,0.118872
-0.110618,0.108029
-0.0902651,0.0100367
-0.0369571,0.00127387
0.00786974,0.0188245
0.0683388,0.0259393
0.189794,0.0459359
0.258335,0.0198805
0.241397,-0.0527573
0.194185,-0.039914
0.0779282,-0.0138866
-0.0623771,0.0159356
-0.139349,-0.00378928
-0.128935,-0.0592968
-0.116277,-0.0300598
-0.0714192,0.00639641
0.0103385,-0.00885356
0.0170086,-0.073822
-0.0128976,-0.0350455
-0.025573,-0.00215656
-0.000627537,0.0394879
-0.00881668,0.0404429
-0.0490134,0.0271105
-0.0560515,0.00839982
-0.027172,-0.00635384
-0.00848617,0.0118768
-0.00782477,0.00880366
0.00505639,0.0169624
0.0201567,0.0122222
0.0182355,-0.031203
0.00782141,0.0488649
0.00908689,-0.0170941
0.0470751,-0.0485376
0.0501158,-0.000832397
0.00708467,-0.0464945
0.00565866,-0.090551
0.0311296,-0.0113034
0.0151853,-0.0162045
-0.0125431,-0.014966
-0.0321233,0.0388639
-0.0347778,0.0424556
-0.0464612,0.0362578
-0.0719832,0.0406515
-0.0977638,0.0275477
-0.0567837,0.00502273
0.0172627,0.0104625
0.0616159,0.0164292
0.0496673,0.00948929
0.025627,0.00134496
0.025184,0.00490249
0.0455539,-0.0122981
0.123394,-0.0139868
0.14537,0.0078679
0.056668,0.00821795
-0.0461339,-0.00774097
-0.101079,0.00191734
-0.0960435,-0.0398748
-0.0636672,-0.0497448
-0.0301429,0.0353622
-0.00226892,0.0188879
0.0379834,-0.00976933
0.0575654,-0.000996986
0.025408,-0.00737563
-0.000740135,-0.0156343
0.0112418,-0.00894923
0.0317725,0.022167
-0.00530152,0.0383911
-0.0756908,-0.0279477
-0.086083,-0.0104128
-0.043148,0.0299442
-0.0176576,0.0158057
0.00274636,0.0195841
0.0518981,-0.0345102
0.0905624,-0.0414854
0.0680743,0.0332164
-0.00145646,0.0181029
-0.0585926,-0.00805401
-0.0705495,-0.029305
-0.064879,-0.0935329
-0.0212704,0.027709
0.0213714,0.0299787
0.0367802,-0.0290341
0.0204112,0.0366586
-0.00682165,0.0578311
-0.00997201,0.0494898
-0.00148739,0.0522801
0.00304385,0.00665403
0.0253943,-0.046473
0.060022,-0.0216526
0.0565776,-0.0240056
0.0229854,-0.0326192
0.00444936,0.000957238
0.00271286,0.00406088
0.00125108,0.0279325
-0.00572578,-0.000807349
-0.0389196,-0.0350926
-0.0769419,-0.0335412
-0.0752665,-0.0611609
-0.0593318,-0.0316209
-0.0253291,0.0806258
-0.00544985,0.0246423
0.0208596,0.0125559
0.0261868,0.00299426
0.0410258,-0.0124208
0.0512431,0.0180419
0.0396582,0.00183583
0.052016,-0.00725604
0.0423922,-0.0182586
0.0107119,0.00368999
0.0146029,0.00508353
0.0101173,0.00560654
-0.028521,0.00769787
-0.0554331,0.0187349
-0.0666963,0.0239087
-0.047507,0.0320657
-0.002751,0.00973172
0.0287527,-0.00764535
0.0303873,-0.0226129
0.0289688,-0.0255258
0.0119373,-0.0128039
-0.0206761,0.0159917
-0.00357578,-0.0188296
0.0138681,-0.021126
0.00364123,-0.000195786
-0.01309,0.0192163
-0.0166472,0.00651314
-0.00576549,-0.0265819
0.00356847,-0.0310984
0.00570586,0.000873657
-0.0113298,0.0458553
-0.0356814,0.0291781
-0.0125581,0.004257
0.0208552,0.00218447
0.0632858,0.00689973
0.0804456,-0.00200826
0.0320613,-0.0206505
-0.0277429,-0.0306402
-0.0687648,-0.029908
-0.091636,-0.0203493
-0.0579861,-0.00328043
-0.00133601,0.0192421
-0.000163328,-0.0186984
-0.0235664,-0.00562275
-0.0136213,0.0524355
-0.00239119,0.0523049
0.0119865,-0.0160252
0.0305381,0.0312497
0.0547515,-0.0127006
0.0988439,-0.0505362
0.140501,0.010724
0.0975635,-0.0158324
0.0331501,-0.0125441
-0.00410646,0.0153715
-0.0426019,0.018831
-0.0806563,-0.00732863
-0.0876895,-0.0253365
-0.1001,-0.0563036
-0.124366,-0.00148081
-0.0791319,0.0312021
-0.0186407,0.0441151
-0.0245413,0.0268229
-0.026996,-0.00675626
-0.0085357,0.00192616
-0.0234233,0.0183408
0.0363877,-0.0131908
0.0978689,-0.0312285
0.0802162,-0.0145536
0.0708079,-0.00858109
0.0818343,-0.0079068
0.0239407,0.0243153
-0.00863212,0.0539789
0.00428362,0.0188627
0.00282249,-0.0287909
-0.0114987,-0.01496
0.0205512,0.00944709
0.0421526,0.0258448
0.029665,0.0688031
-0.0164162,0.0328321
-0.0565472,0.00732094
-0.0628538,-0.0441941
-0.0165207,-0.131367
0.0545053,-0.141064
0.0580451,-0.147022
-0.0047671,-0.0877895
-0.0808323,0.038232
-0.100405,0.167525
-0.0691806,0.16674
-0.0465001,0.104519
-0.0321517,0.0679449
-0.012985,-0.0109677
0.021073,-0.063641
0.0469956,-0.0559851
0.0217621,-0.0174317
0.0160943,-0.0105924
0.0568576,0.0110944
0.0966956,0.0352497
0.0892012,0.0488284
0.0571172,0.0337013
0.0107463,0.0376688
-0.0391514,0.0452199
-0.0509947,0.0214522
-0.05667,-0.0437229
-0.0557816,-0.0540937
-0.0329437,-0.060549
-0.0117131,-0.0699423
0.0181757,-0.114756
0.025462,-0.0976938
0.00340437,-0.0113817
-0.0292348,0.0242373
-0.0339316,0.0360009
-0.0271352,0.0482696
-0.00377243,0.0641553
0.0240224,0.0947255
0.0254719,0.0439312
0.0103012,0.00539374
0.00488354,0.00123147
0.00237096,0.0241628
0.00560736,0.0257656
0.0190437,-0.0138926
0.0173716,-0.0357487
0.00403343,-0.0172413
0.00784032,-0.00776179
0.00871283,-0.0252494
0.000906781,-0.0295515
-0.00485427,-0.0259979
0.00101404,-0.0183107
0.00500262,-0.000353282
-0.00932067,-0.031325
-0.010959,-0.0690085
0.00378766,0.0391743
-0.0196293,0.0731894
-0.0380422,0.0228
-0.038233,-0.019847
-0.00983174,0.0203086
0.0180542,0.0213317
0.0419269,0.00304697
0.068813,0.0330945
0.0748881,0.0574409
0.051679,0.0117534
0.00498502,-0.0510784
-0.0501567,-0.0676813
-0.0817861,0.0166889
-0.0720839,-0.0568796
-0.0431258,-0.0475866
-0.00179805,-0.00695833
0.0403646,0.00212132
0.0423374,0.0408015
0.0178964,-0.00775249
-0.00513662,-0.0890987
-0.0181672,-0.0686096
-0.016481,-0.0129981
-0.00996427,0.00622653
-0.0258544,-0.00703731
-0.0605744,-0.0201066
-0.0492705,0.0340378
0.0142751,0.0829762
0.0740774,0.132325
0.0830078,0.0749319
0.0298437,0.0270231
-0.0198316,0.0253325
-0.0166293,0.0370881
0.00704512,0.0432315
0.0591558,0.0181255
0.0980789,0.0108643
0.050101,-0.0285248
-0.0338459,-0.0349751
-0.1094,-0.0376091
-0.132535,-0.0194628
-0.0850097,-0.0299774
-0.0236611,-0.0442381
0.0247429,-0.0581286
0.0570971,-0.0377053
0.0640206,0.0225205
0.0266807,0.0141295
-0.0168042,-0.0282512
-0.00780908,-0.0302107
0.00923635,0.0273137
-0.00898266,0.0312388
0.00219621,-0.00232453
0.00184295,-0.00223801
-0.036598,-0.0028128
-0.0461152,-0.00773891
-0.0118282,0.00478171
0.0289642,0.00898498
0.0512902,0.0365585
0.0396544,0.0263107
0.0316015,0.0301603
0.0172356,0.00712804
-0.010928,-0.0367135
-0.0206396,-0.0300564
-0.0264387,-0.0321674
-0.0416878,-0.0323817
-0.0296185,-0.00600857
-0.0159853,-0.00533711
0.000451077,-0.0175475
0.0214407,-0.0325392
0.0282817,-0.0275428
0.0307149,0.0136009
0.0457995,0.0317604
0.0337628,0.0503865
0.000145227,0.0385411
0.0293647,-0.013293
0.0402404,-0.00822331
-0.0130434,0.0031583
-0.0158482,0.0720681
0.0052896,0.0181659
-0.0083747,0.0103222
-0.0326976,-0.020629
-0.0655065,-0.0505046
-0.0720432,-0.050778
-0.0519164,0.00793794
-0.0318983,0.017662
-0.0222111,-0.0308216
-0.00261469,-0.038122
0.0202857,-0.0139686
0.0317674,0.00159823
0.0409907,0.0779959
0.025613,0.0896177
0.00529916,-0.0145136
0.00537789,-0.0577751
-1.56e-05,0.00266105
0.00628012,0.0390497
0.0238447,0.00924958
0.00970283,0.0100509
-0.022912,0.00707059
-0.0292455,-0.0368735
-0.00799263,-0.0133165
-0.00982252,-0.030765
-0.00727274,-0.063096
0.0250008,-0.00920309
0.0397389,0.0295281
0.0332998,0.0127686
0.0514008,-0.000493165
0.0825908,0.0337762
0.0629067,0.0014637
-0.00819097,-0.0107276
-0.0616218,-0.00359332
-0.0596544,-0.0277297
-0.0343479,-0.0155606
-0.0234822,-0.00948033
-0.00114317,0.00974511
0.0254101,0.0318134
0.0528762,0.0456729
0.0387764,0.0281357
-0.00486505,0.0216757
-0.0547442,0.00307967
-0.101271,-0.0226589
-0.111562,-0.0387517
-0.0860166,0.0507505
-0.059256,0.12332
-0.0475139,-0.0538822
0.0160511,-0.0819451
0.096676,0.00229314
0.104775,0.0181801
0.0625888,0.011267
0.015023,-0.00302276
-0.00346176,-0.00796609
0.00560964,-0.00731882
0.0335192,-0.00301652
0.0482322,-0.0173521
0.0429658,-0.0500717
0.0306679,-0.0612614
0.0206688,-0.0312215
-0.00600709,0.0149631
-0.035698,0.0298922
-0.0428615,0.00292776
-0.0325542,0.0357932
-0.0441359,0.0426191
-0.0434791,0.0263406
-0.0120606,0.00622662
0.00346556,-0.00222023
0.0027104,-0.0167896
0.0104906,-0.06105
0.0185803,-0.00548929
0.0205415,-0.00283182
0.000845145,-0.0110624
-0.018265,-0.00771518
-0.0125961,0.0176052
-0.0130232,0.0335915
-0.0202742,0.0121779
-0.0080826,-0.00191102
0.00424725,-0.0144309
0.00171367,-0.0315269
-0.00158352,-0.0128142
0.00131113,0.0180425
0.0237924,0.0337954
0.0354597,0.0056542
0.0276964,-0.00369482
0.0176088,-0.0276258
-0.0131582,-0.00234203
-0.0406993,0.0321978
-0.0193766,0.00448185
0.0458632,-0.0241913
0.0931527,-0.0250505
0.0871187,0.0193034
0.0325901,0.0159381
-0.036233,-0.0134361
-0.0810835,0.0269273
-0.0684636,0.0986952
-0.0346329,0.0253559
-0.0179063,-0.0990579
-0.0160015,-0.0519339
-0.0106258,0.00773128
-0.0176167,-0.0391893
-0.0324852,-0.00369042
-0.00608522,0.0199255
0.0285846,0.00553091
0.0239056,0.0110696
-0.00614507,0.000881328
-0.0390504,0.0358608
-0.0668498,0.0845914
-0.0599635,0.00387704
-0.0223686,-0.0804907
0.0115465,-0.0681786
0.0431588,-0.00266238
0.0725115,-0.0282925
0.0735379,-0.0494227
0.0548345,0.0613921
0.0430317,0.0692491
0.0281159,0.0408859
0.0440738,-0.00372291
0.0704328,-0.00988244
0.0486983,0.0277236
-0.0187697,-0.00934887
-0.0604264,-0.032262
-0.043667,-0.0193116
-0.014791,-0.000910855
-0.0285642,-0.00923165
-0.0392548,-0.030177
-0.0242624,-0.045508
-0.00516519,0.0520257
0.00229282,0.0593357
-0.00165633,0.0131331
-0.0154656,-0.0185264
-0.0144333,-0.00377251
-0.00366955,0.000971341
-0.00756751,-0.00773369
-0.0240804,0.0130582
-0.0310523,0.0139895
-0.0201003,-0.00903158
-0.00858728,0.00114163
0.00817898,-0.000132121
0.0340329,-0.00283412
0.0451163,-0.0160087
0.0360003,-0.0187223
0.0174077,0.00328715
-0.00230489,-0.00606482
-0.0191075,-0.0142624
-0.0197012,-0.0124657
-0.000756419,0.0108337
0.0119976,0.0310761
0.0302894,0.0138707
0.0283375,-0.0014924
0.0100088,-0.022143
-0.00969666,-0.0401566
-0.0220035,-0.0293456
-0.0202901,0.0204657
-0.0176831,0.0327706
-0.0122887,0.0115158
-0.00393373,-0.00786722
-0.00694656,-0.0103583
0.00135195,-0.00771071
0.0211254,-0.0250429
0.00914387,-0.00398772
-0.0103862,0.0348598
-0.0161605,0.0029387
-0.0400938,0.0157084
-0.0586645,0.0234513
-0.0336019,0.0286552
0.00326617,0.0128647
0.0192057,-0.0189496
0.0152701,-0.00260605
0.0154355,-0.0401995
0.0283106,-0.0266098
0.0362833,0.083448
0.0383623,0.0241104
0.0353579,-0.0228671
0.0163179,-0.0561137
-0.00295143,0.0204871
-0.0215916,0.0666834
-0.0230937,-0.0108796
-0.00549526,-0.0570685
0.00438833,-0.00187774
0.00505402,-0.0153012
0.0114012,-0.013207
0.0141138,0.00926781
0.00814372,-0.0361023
0.0125467,-0.0141733
0.00186002,0.00631353
-0.02063,-0.0429228
-0.0512613,-0.046745
-0.0705199,0.0288607
-0.0360572,0.0104303
0.0349864,0.0391996
0.101569,0.0347015
0.0926239,-0.0582037
0.0185271,0.0336686
-0.00255158,0.0461328
-0.00230595,-0.00930162
-0.0278524,-0.00221705
-0.0389985,0.0394366
-0.0309508,0.00806712
-0.0127043,0.0128102
-0.00440446,0.0463922
-0.0139575,0.0259082
-0.0162455,0.0158511
-0.0191119,0.0208906
-0.0136328,0.00958038
0.00257842,-0.00510207
0.00149765,-0.0178906
-0.00282237,-0.0198569
0.00106184,-0.0263639
0.00969939,-0.0722694
0.0124834,-0.117596
-0.00361462,-0.078492
-0.0294484,0.0126142
-0.0361298,0.0263608
-0.0219006,0.0405758
-0.00656606,0.027068
0.0192311,0.0325712
0.0633291,0.0176824
0.069797,0.0335686
0.031476,0.0148528
-0.0128359,0.0270329
-0.0446455,0.0159865
-0.0538055,-0.00608145
-0.0286147,-0.013275
0.00178768,-0.0082129
0.0100885,-0.00271819
0.0128396,-0.0153327
0.0191015,-0.018406
0.0232185,-0.0179625
0.0332297,-0.0113945
0.0445072,-0.0458233
0.0370691,-0.0127378
0.0145954,-0.0014545
-0.00459539,-0.0246491
-0.0272056,0.0237905
-0.0679971,0.0287461
-0.090016,0.000672679
-0.0586968,0.0207335
-0.0139644,0.00254741
0.0223861,0.0114324
0.0635687,0.0212876
0.0546618,0.0649346
0.0256124,0.0284403
0.0196675,-0.0265246
0.0196316,-0.0243333
0.0126364,-0.0195621
0.00553823,-0.0032236
0.000636692,-0.0032497
0.00795595,-0.0100859
0.0195973,-0.000139112
0.0103608,-0.0253081
0.00241656,-0.0404521
-0.00150753,-0.00369665
-0.00212938,0.0199136
-0.0108591,0.0265147
-0.019285,0.010443
-0.0232611,0.0104369
-0.0247124,0.021711
-0.0229805,0.00613033
-0.0186696,-0.00574449
-0.0140108,-0.00750415
-0.018663,-0.00647826
-0.0312719,0.00197069
-0.0339487,0.012289
-0.0217208,0.00866768
-0.0116199,0.000858182
-0.0116474,-0.00788082
-0.0121903,-0.0238568
-0.0043831,-0.0180437
0.0117533,-0.000506245
0.00574298,0.00978924
0.0206446,0.00485624
0.07751,-0.00670434
0.0814986,-0.0108335
0.0333612,-0.0114412
0.0152824,-0.00719148
0.00701321,-0.00121747
0.0102622,-0.00341182
0.00977354,-0.00843183
0.0114637,-0.00842637
0.0152918,0.000653157
0.00393353,-0.000276246
-0.0309133,0.00592842
-0.0595211,0.007157
-0.0593656,-0.00156548
-0.0352971,0.000838731
-0.0171519,0.0124708
-0.0134887,0.0191024
-0.00951843,0.0103206
-0.00679702,0.00668795
0.00107315,0.00432912
0.0169156,0.00404242
0.0322692,0.00277721
0.0417291,-0.000210724
0.0326127,-0.00593297
0.0131805,-0.002807
-0.00369109,0.00187643
-0.0113792,0.00201446
-0.010248,-0.00468616
-0.00613188,-0.00502679
-0.0109542,-0.00531609
-0.024479,-0.00283822
-0.0331478,0.00200011
-0.0266104,0.0120192
-0.0145941,0.0141501
-0.00668134,0.00414333
0.000664577,-0.00211323
0.0243131,-0.00233618
0.0488801,-0.00355844
0.0489196,-0.00288942
0.0352685,-0.00376413
0.0132704,-0.00739611
-0.00547638,-0.000429374
-0.0155556,0.0029472
-0.0170395,-0.00156061
-0.016129,-0.00183874
-0.0179972,-0.00136566
-0.0188041,-0.00753562
-0.0176043,-0.00643232
-0.00598568,0.00819401
0.00783466,0.0159214
0.023509,0.0105947
0.0260977,0.00615761
0.00817074,-0.00186733
-0.0136671,-0.0124673
-0.0231353,-0.00943399
-0.0194933,-0.000377412
