Comp Ch 3,Comp Ch 4
0.0141864,0.0198987
0.0151786,0.00355586
-0.00266006,-0.00292062
-0.0189172,-0.00168468
-0.0164895,-0.00692744
-0.0031609,-0.0141753
0.0269491,-0.00952423
0.0392323,0.00926958
0.00444739,0.0160874
-0.024967,0.00216069
-0.0211326,0.000880454
-0.0303669,0.00852191
-0.0654885,0.0118938
-0.0861663,0.0116651
-0.0568548,0.0190571
0.00436861,0.0591182
0.119042,0.0534797
0.264977,0.0040586
0.242403,-0.0143881
0.041525,-0.0325682
-0.104435,-0.0438451
-0.165187,-0.0435643
-0.125593,-0.0406083
-0.0231673,-0.0194996
0.00710956,0.00164277
0.00448776,0.0054817
0.00124247,-0.00140099
-0.00468864,-0.00333792
-0.00294706,-0.00504923
-0.00787415,-0.00750999
-0.0371662,-0.00230932
-0.0810257,0.00702685
-0.0710779,0.0217471
-0.0219639,0.0334432
-0.0432672,0.0289049
-0.0784201,0.0120277
-0.0380189,-0.00191066
0.0431186,-0.0152234
0.100636,-0.0274021
0.113841,-0.0271796
0.0639564,-0.00135133
0.0463518,0.008533
0.0307314,0.00436776
0.0297201,0.00319491
0.0261001,-0.0104147
0.0145039,-0.0193203
0.0108266,-0.0162309
0.0127197,-0.000821821
0.0109149,-0.00213806
0.00816979,-0.00230761
0.00671692,0.0210462
-0.00283945,0.0279304
-0.00834646,0.00735667
-0.0160359,0.0102234
-0.0199703,0.00733168
-0.0316765,-0.00196561
-0.0354784,-0.0100952
-0.00505659,0.0144862
-0.0220021,0.0214121
-0.0723001,0.011367
-0.0937128,0.0102653
-0.108035,-0.00930205
-0.0763727,-0.0106894
0.0346824,-0.0049314
0.0756996,-0.010628
0.0488846,0.00624548
0.0120512,0.0257988
0.0613366,0.0224897
0.0391562,-0.000979289
-0.0163228,-0.0123365
-0.0200807,0.00860489
-0.0204933,0.00587654
-0.0220237,-0.022564
-0.025148,-0.0213556
-0.0315771,0.00197621
-0.00983493,0.00776684
0.158401,0.0022801
0.190041,-0.00636983
0.0984142,0.000870785
0.0449471,0.000759906
0.0218263,-0.0159043
-0.0131068,-0.0434644
-0.0703182,-0.0334537
-0.114124,0.00792122
-0.132039,0.0248533
-0.0881462,-0.00344421
0.0285913,-0.0119225
0.0916937,-0.0178653
0.101294,-0.0201052
0.0391448,-0.0194343
-0.054677,0.0033921
-0.0576037,0.0294672
-0.0310399,0.0195191
-0.0100858,0.0113524
-0.00878832,0.0109141
-0.00865006,0.00499999
0.0317837,-0.000403724
0.0402731,0.00905726
-0.0210428,0.0109436
-0.0236153,0.0139523
0.0186497,0.0169875
0.0303926,0.0136162
0.0142975,0.0031774
-0.00736766,0.000924517
-0.0157235,-0.00683509
-0.0122757,-0.0235287
-0.00890589,-0.0261899
-0.00766445,0.00379076
-0.00562827,0.0145777
-0.00492833,0.00199361
-0.00842875,-0.00285198
-0.0092312,-0.00304263
-0.00271917,-0.0131219
0.00209612,-0.0145757
-0.00124204,-0.00115317
-0.00361239,0.000390349
-0.00323043,0.0122814
-0.00402856,0.0201369
-0.00780867,0.00136031
-0.00946461,-0.0117233
-0.00794317,-0.0133835
0.0019778,-0.0217593
0.00301223,-0.0254837
0.00216833,-0.0116065
0.00959877,0.0130265
0.012464,0.0146095
0.00931441,0.00461606
0.00160177,0.000348565
-0.00147764,-0.00575689
-0.00384663,-0.00889403
-0.00667698,0.00187991
-0.00622629,0.0153961
-0.00461303,0.0199544
7.98e-05,0.0224204
-0.0108197,0.0200103
-0.0392773,0.00561395
-0.0075988,-0.00327003
0.047906,-0.00634298
0.0359921,-0.0161836
0.0130618,-0.0274259
-0.00446467,0.0420692
0.0116708,0.0254848
0.0142145,0.0172429
-0.0117397,0.00814129
-0.0302993,-0.0137293
-0.0163814,-0.0302361
0.0212049,-0.0301015
0.00541512,-0.0398047
0.000569305,-0.0241816
0.0227929,0.00423417
0.0318325,0.0146216
0.0331685,0.00458242
-0.00808532,-0.000867741
-0.0191445,-0.00629178
-0.0447065,0.00301416
-0.0664119,0.0108651
-0.0413302,0.0350495
-0.00356106,0.0475001
0.0239446,0.0245414
0.032316,0.0128999
0.0343302,0.00153911
0.0190345,-0.015939
-0.0105277,-0.0327944
-0.0165984,-0.0334398
-0.0101242,-0.0334345
0.00503869,-0.00910898
0.0285835,0.0111164
0.0300187,-0.00044417
0.000530884,-0.0107578
-0.0238588,-0.00842138
-0.00336928,-0.00133184
-0.011092,0.00879958
-0.0133976,0.0154288
-0.00506011,0.0321279
0.00616245,0.031057
0.0115997,0.0141812
0.000581833,0.0112555
-0.0174313,0.00155056
-0.0125654,-0.0136156
0.00461247,-0.0231865
0.00362096,-0.0288497
-0.00672454,-0.0232254
-0.00680722,0.00228316
-0.00965493,0.00789196
-0.00826312,-0.0118947
-0.00959277,-0.0140673
-0.0110894,-0.00279366
-0.00125182,0.000665575
0.015989,-0.00421767
0.0425423,0.0158497
0.0377059,0.0380846
0.0233442,0.0241457
0.0178465,0.0139931
0.0110053,0.0107461
-0.00687174,0.00163207
-0.0193551,-0.0101299
-0.0167863,-0.012616
-0.0283268,-0.0158119
-0.0537329,-0.00856673
-0.0626022,0.00848525
-0.0222226,0.00363469
0.0549454,-0.0154307
0.0636419,-0.0118935
0.0361743,-0.00916338
-0.0036162,-0.0136195
0.00667585,-0.0130655
0.0342374,0.0142715
0.0127187,0.0291879
-0.00591796,0.0147215
-0.0131348,0.0122866
-0.0209202,0.00999163
-0.0543459,-0.00739862
-0.0472377,-0.0226452
0.0012224,-0.0209591
0.00552467,-0.0190916
0.0108225,-0.00799542
0.0315711,0.00807995
0.0328735,-0.000668342
0.0332414,-0.0139617
0.0282803,-0.0096298
-0.00401621,-0.0109389
-0.0320962,-0.00611047
-0.0494541,0.00417813
-0.0318104,0.0197326
-0.0175987,0.0271126
0.00378422,0.0143856
0.00772196,0.0115523
0.035842,0.00463137
0.049071,-0.0127985
0.0205557,-0.0169519
0.00436821,-0.00907263
-0.000289134,-0.0045457
-0.0121866,0.0143673
-0.0315373,0.0220473
-0.0218672,0.00352796
-0.00892523,-0.0113853
-0.00968101,-0.00558563
0.005962,0.00448328
-0.00555805,0.000350159
-0.0137474,0.0102796
-0.00405937,0.0287341
0.0121513,0.0227935
0.0134611,0.00931184
0.000872923,0.000942348
0.0121297,-0.0147898
0.0161193,-0.0239085
-0.00190703,-0.0214395
-0.0225899,-0.0158428
-0.0122408,-0.00712258
0.0165167,0.00835165
0.0170604,-0.00107324
0.00653056,-0.0203195
-0.00984041,-0.0116403
-0.018166,-0.00276828
0.00421931,-0.00855794
0.0309009,-0.0132491
0.023336,0.00969032
0.00180591,0.0313927
-0.00665866,0.0241481
-0.00956588,0.00623327
-0.0166011,-0.00209303
-0.0190688,-0.0109514
-0.00933685,-0.0185409
0.00241591,-0.00391942
0.000577373,0.000680447
-0.00544188,0.00801309
0.0134831,0.0295517
0.0210547,0.0214886
0.0108239,-0.00413883
-0.00155361,-0.00674425
-0.00538659,-0.00937993
-0.0191654,-0.00957311
-0.0225491,-0.00670495
-0.00899773,0.0127255
-0.0115145,0.0220323
-0.0166106,0.0109184
0.0117843,0.00924191
0.0185437,0.00143305
0.0022924,-0.0209593
0.0101232,-0.025813
0.0203046,-0.00802889
0.0264814,-0.0108797
0.00931803,0.0077664
0.00123318,0.0218805
0.00532633,0.00192664
0.0022607,-0.0207929
-0.00783954,-0.0116819
-0.0117284,-0.00259333
-0.0172751,-0.0153436
-0.0177527,-0.00461962
-0.013111,0.0167368
-0.00837014,0.0157165
-0.0021573,0.0056901
-0.0068019,0.00673335
0.00592478,-0.00230499
0.022244,-0.0140394
0.021901,-0.0129039
0.00082009,-0.00441628
-0.00422795,-0.00150179
-0.00196196,0.0174248
-0.00387305,0.0205014
0.00418238,-6.29e-05
0.00469176,-0.00533834
0.00942634,-0.00519144
0.0114902,-0.0162803
-0.0284517,-0.0199751
-0.0343665,0.0022978
-0.0164307,0.0230904
-0.0186342,0.0149846
0.0144041,0.00391486
0.0177595,-7.99e-05
0.00629404,-0.0111833
6.2e-05,-0.0173232
-0.00117824,-0.00528539
0.006842,-0.00215091
-0.00313718,0.00126621
-0.0160718,0.0168115
-0.017594,0.0141377
0.00851498,-0.00345346
0.00309409,-0.0083641
-0.0255493,-0.009132
-0.0314988,-0.0164715
-0.00819452,-0.0164621
0.0274273,0.00931728
0.0370472,0.0231234
-0.0043174,0.0199369
-0.0300918,0.0143264
-0.0326525,0.00289887
-0.0226263,-0.00747669
0.0232248,-0.0054552
0.0802925,0.00233847
0.0683716,0.00135875
0.0286847,0.00880775
0.029521,0.0184021
0.00566888,0.00914278
-0.018981,-0.00288798
-0.010086,-0.00522004
0.00872244,-0.0157623
0.00454792,-0.0216734
-0.0482867,-0.0100061
-0.0721325,0.0108357
-0.00879429,0.0100241
0.0308275,-0.00299098
0.0295783,-0.00270999
0.0089042,-0.00826963
0.0062137,-0.0202045
0.00221601,-0.0140815
-0.014868,0.000425902
-0.00467304,0.00502764
0.00120083,0.016588
0.00234215,0.0173489
0.00725233,0.00318846
0.0169926,-0.00491699
0.00648206,-0.00511862
-0.00417754,-0.0116793
-0.0104879,-0.0161003
-0.0211278,0.00131051
-0.0175094,0.0162062
-0.00268817,0.00617691
-0.00376079,-0.00333578
-0.00316296,0.00673998
-0.00300852,0.00209315
-0.00620539,-0.00209926
-0.00662912,0.00075922
-0.00213497,-0.00190948
-0.00452992,0.0126318
-0.00148216,0.0232457
-0.00126249,0.0131677
-0.00908424,0.00113684
-0.00929729,-0.0103922
-0.0082581,-0.0146354
0.00453751,-0.0160449
0.0184804,-0.0220504
0.0164501,-0.00096646
0.0150367,0.0178451
0.0124429,0.0115371
0.00915582,0.013296
0.00999673,0.00657646
0.0107907,-0.010377
0.00207228,-0.0128249
-0.00503908,-0.00302726
-0.00741327,-0.000424452
-0.00505166,0.0149705
0.000900533,0.0246237
0.0021109,0.00431721
-0.00343777,-0.0191556
-0.0073746,-0.0144596
-0.00785663,-0.0131953
0.000680788,-0.0210004
0.00822481,-0.0142392
0.00772388,0.00772348
-0.00173224,0.0138581
-0.00850355,0.0086692
-0.00746523,0.00369087
0.00297147,-0.00516362
0.00588266,-0.0129461
-0.00246502,-0.00967288
-0.00855506,-0.000503561
-0.0126527,0.00466733
-0.0215658,0.0178556
0.00815736,0.0214322
0.0277419,-0.0061393
0.00217238,-0.0203853
-0.00896901,-0.00363916
-0.000251716,-0.00597443
0.0216483,-0.00867774
0.0265356,-0.00905159
0.00268398,0.0129486
-0.0239231,0.0180319
-0.0348773,0.00994874
-0.0504604,0.00606324
-0.0220975,-0.00946456
-0.00436221,-0.0171931
0.00574962,-0.016718
0.0234542,-0.000294952
0.0104242,0.0106985
0.0314695,0.0210856
0.0475543,0.0185435
0.0221671,0.000675605
0.00139046,-0.00333025
-0.00790887,-0.00450688
-0.0121963,-0.0166735
0.000337628,-0.022247
0.006972,-0.000874188
0.000647969,0.0205684
-0.0177296,0.0146787
-0.0263439,0.0105808
-0.0244559,0.00360249
-0.000362469,-0.0110018
0.0143792,-0.0207491
-0.00855193,-0.00586308
-0.0183121,0.00600531
-0.00952602,0.0120216
0.0212325,0.0237882
0.0162147,0.0154611
0.0107324,-0.00832194
0.0117522,-0.0168237
0.00989721,-0.0142405
0.00301756,-0.0273593
-0.0166159,-0.0226776
-0.0165122,0.0144069
-0.00502649,0.0248399
0.00142138,0.0105298
0.0086603,0.00478506
0.0147,-0.00203604
0.0177117,-0.00965993
0.00965598,-0.00964793
0.00511731,0.00374852
0.00435596,0.00666646
-0.0074743,0.0161023
-0.0246282,0.0167815
-0.0309661,0.0101199
-0.0219956,0.000295399
-0.0048399,-0.00713825
0.000741104,-0.0197318
-0.00474651,-0.0260117
0.0167655,-0.0189235
0.0101826,0.00555464
-0.0146219,0.0165359
-0.0199282,0.0087462
0.0158196,-0.00216814
0.0255787,-0.000998759
2.42e-05,0.000723319
0.00401811,-0.00665871
0.00895265,-0.000610712
0.0124367,0.00922883
0.00732409,0.0319886
0.00327731,0.0274603
0.00452509,-0.0126567
0.00693408,-0.0070014
0.00231855,0.000754439
-0.00591828,-0.0196562
-0.0101868,-0.0252715
-0.00833473,0.00114487
0.00490882,0.0228593
0.010429,0.0145325
0.00603513,0.0079218
0.00695064,-0.00289227
-0.00270152,-0.011448
-0.011971,-0.0142784
-0.006493,-0.00829535
-0.00864148,0.0105341
-0.00777253,0.0151163
0.00213675,0.0215595
0.00649201,0.0072897
0.0039204,-0.0120383
-0.00467383,-0.0156057
-0.015134,-0.019776
-0.0244049,-0.0280689
-0.0190878,-0.0290633
0.0135736,-0.00550176
0.0257547,0.00850694
0.00543425,0.00186222
-0.015227,0.00205851
-0.00843495,0.00258618
-0.0150537,-0.0025992
-0.0135368,-0.00218714
0.0165447,0.00464402
0.00943035,0.00704486
-0.0048878,0.0244557
0.00921858,0.0327247
0.0160892,0.00780698
-0.00234738,-0.0144436
-0.0152455,-0.00640637
-0.0101527,-0.00374569
0.0066528,-0.0148668
0.0261369,-0.0169806
0.0249436,-0.00548347
0.0184476,0.00251835
-0.00559032,0.00349862
-0.00464066,0.00517118
-0.00577186,5.61e-05
0.00387347,-0.00357917
0.00488185,0.00803813
0.00120952,0.0153736
0.0082187,0.00912329
0.011158,0.0190573
0.00297239,0.0180099
-0.0153097,-0.00327351
-0.0280671,-0.0114256
-0.0153702,-0.00444756
-0.00501064,-0.014129
-0.0126604,-0.0225802
-0.00987825,-0.00709524
0.00456235,0.0130205
0.00603748,0.00668937
0.00661346,-0.000716795
0.00778911,-0.00285476
0.00424941,-0.00931638
0.00156811,-0.016496
-0.00525543,-0.00794666
-0.00663703,-0.00209554
-0.00531086,0.00718308
-0.0010745,0.0270132
-0.0155001,0.0205535
-0.0140256,-0.00157075
0.000338066,-0.00585841
0.00998725,-0.00169964
-0.000375256,-0.015607
-0.00618157,-0.0463492
-0.0072943,0.000383574
-0.0065356,0.0580685
0.00917146,0.0318384
0.0289528,0.00452329
0.0247302,-0.00923054
0.00569433,-0.0222561
0.000233382,-0.00665501
0.00129183,0.0145736
0.0112389,-0.00654465
0.0151102,-0.00229721
0.0149873,0.0130565
0.00168033,0.010262
-0.00190055,-0.00366206
0.00575321,-0.0148385
-0.0085973,-0.0202325
-0.017045,-0.0234131
-0.0211874,-0.0196487
-0.0208245,0.000838647
0.0101977,0.00988507
0.0164967,0.00442945
0.00225052,0.00683561
-0.00553287,0.00435968
-0.00771411,-0.00314462
-0.0131699,-0.00155834
-0.0141295,0.0083238
-0.00715262,0.0103334
0.0035821,0.0273518
0.00536842,0.0315974
9.87e-05,0.00745999
-0.0082597,-0.00561603
0.00372902,-0.00944107
0.0125803,-0.022792
0.0092113,-0.0298878
0.00619747,-0.00352534
0.0126134,0.0212938
0.0128593,0.0126832
0.00501359,0.00099346
0.00071986,-0.000222853
-0.00373314,-0.0106469
-0.0101793,-0.0164076
-0.0114455,-0.00884919
-0.0171069,0.000897469
-0.0170755,0.0151937
-0.00785978,0.0257187
0.000834476,0.00464754
-0.00542608,-0.00619077
0.0202701,-0.00465617
0.0236227,-0.00475639
0.000208327,-0.0091001
-0.0184162,-0.0188389
-0.0143012,-0.00144629
0.00291681,0.0113983
0.0185581,0.000903485
0.0059795,-0.0191955
-0.0112894,-0.0302254
-0.0144241,-0.0177186
-0.0101143,0.00683256
-0.00259808,0.00841084
0.0028381,0.000121231
0.0072893,0.0140254
0.0160984,0.0376925
0.0160493,0.0296396
0.0126028,0.0073664
0.0119629,0.0017922
0.00166721,-0.0116052
-0.0100655,-0.018008
-0.0190047,-0.0164273
-0.00791949,0.0128953
0.0181273,0.0250442
0.0158914,0.00763689
0.00745184,0.00692426
-0.001386,-0.0037137
-0.00976459,-0.0141086
-0.0111956,-0.0154125
-0.00629413,-0.00382236
-0.00115324,0.000528447
-0.00167443,0.0164637
-0.00375353,0.0220515
-0.00166289,-0.0028419
-0.00487902,-0.0193417
-0.00173801,-0.0146613
0.00399606,-0.0175025
-0.00349673,-0.0228406
-0.00713284,-0.0228563
0.00157813,-0.00318988
0.00815411,0.0185144
0.0119096,0.00753622
0.0162282,0.0025474
0.00563778,0.00276882
-0.00471253,-0.0175763
-0.00739492,-0.00535785
-0.00560124,0.00827132
-0.00559817,0.0147677
-0.00468517,0.0284496
-0.00196787,0.0101771
-0.0076393,-0.00297239
-0.015342,0.00295349
-0.00844128,-0.00862151
-0.00416226,-0.0125604
-0.00422945,-0.0170078
-0.001286,-0.0199236
0.00622419,-0.00379285
0.0106077,0.0113951
0.0126268,0.0250689
0.019405,0.00877846
0.00663863,-0.00688092
-0.00905243,0.000323435
-0.00980794,0.0104356
-0.000865442,0.00286788
-0.000605468,0.010712
0.000706943,0.0257319
0.00286568,0.0228743
-0.00137764,0.000642598
-0.000745086,-0.020104
0.00310784,-0.0325687
0.00620377,-0.0275744
0.00283239,-0.000615119
-0.0134747,0.0278559
-0.0169569,0.0284353
0.0139388,-0.0475841
0.0194147,-0.0221704
-0.0105063,0.0503318
-0.0142767,0.00694688
-0.0052353,-0.0206488
-0.00235239,-0.00342321
-0.00279916,0.00200496
0.000268647,0.0114579
0.00706798,0.0157773
-0.00194547,0.00372692
-0.0126979,-0.00431245
-0.00511423,-0.00275372
0.00195893,-0.0109496
0.00155143,-0.0325253
0.00373978,-0.0290928
0.013746,0.0156583
0.0194304,0.0275202
0.0145166,0.00866605
0.00675351,0.00343646
0.00113647,-0.00271639
-0.00249754,-0.00808104
0.00458541,-0.0264948
0.000313911,-0.00321523
-0.0119118,0.00490092
-0.017207,0.0179031
-0.00840468,0.0177054
0.00843067,0.0171972
6.78e-05,0.00732862
-0.00804183,-0.000808659
-0.00745175,-0.0105228
-0.00368486,-0.0255836
0.0059081,-0.0106292
0.0191566,0.00886214
0.0119726,-0.00312186
-0.00112076,0.000146894
-0.00178222,-0.00961556
-0.00448793,-0.00894796
-0.00328214,-0.0226394
-0.00275168,-0.0183815
-0.00715013,0.00306538
0.000746929,0.00294348
0.0118348,0.00272416
0.00180163,0.0244334
-0.00437979,0.0129986
-0.00143167,-0.0189431
0.0055504,-0.00734825
0.000527089,0.0148692
0.00248128,0.0249789
0.00683551,0.01547
0.00514345,-0.00140921
-0.00553374,0.0300488
-0.00900614,0.0444236
-0.0145608,0.00900527
-0.0183837,-0.014254
-0.00724654,-0.0312646
0.00849499,-0.0576986
0.00622618,-0.0179459
0.00461732,0.00973812
-0.0047383,-0.00111071
-0.0108729,-0.00959692
0.00401091,-0.00213234
0.00286596,0.00399303
-0.00153368,0.0070015
0.00446702,0.0105498
0.0106881,0.033258
0.00313423,0.0348887
0.00767319,0.018916
0.00396294,0.0151185
-0.00833657,-0.000341824
-0.0117075,-0.0325172
-0.00446737,-0.0362762
0.00865604,-0.0326807
0.0131627,-0.0270324
0.0138599,-0.0145492
0.00372505,-0.000496968
-0.00497618,0.00212383
-0.0163261,-0.00518267
-0.017274,0.00177043
-0.0036216,-0.0041394
-2.08e-05,-0.00780863
-0.00709555,0.0274775
0.00867657,0.0539142
0.0279023,0.0303704
0.013884,0.0205043
0.000325807,0.00610805
-0.0117112,-0.0110411
-0.0209618,-0.0241683
-0.0276085,-0.0253109
-0.0109661,-0.0207021
0.00821787,-0.0138723
0.0191494,0.00769999
0.0243765,0.0137068
0.0115813,-2.88e-05
0.00570298,-0.0100773
0.0139257,-0.00586584
0.0137114,0.00178398
-0.000427218,0.00407189
0.00139018,0.0179638
0.00353764,0.0286201
-0.00814863,0.0103923
-0.0192221,0.0107986
-0.0113423,0.000319265
0.000973214,-0.021409
-0.00130755,-0.0329978
-0.0026552,-0.0243618
-0.00985724,-0.0234195
-0.019705,-0.00873913
-0.0254709,0.0195244
-0.0265619,0.0118577
-0.0084403,-0.00761014
0.00716666,-0.00827175
0.0038134,-0.00300238
0.0218617,-0.00801295
0.0287112,-0.000434938
0.0103649,0.0278313
-0.00570753,0.0364199
-0.0200539,0.0216642
-0.00244668,0.00604922
0.0275342,-0.00301801
0.0196175,-0.0166326
-0.00166544,-0.0202651
-0.00357024,-0.0117344
0.00136344,-0.0145624
0.00376802,0.00895662
0.00200999,0.0235417
-0.00290689,0.00779621
-0.00444628,-0.00965315
0.00185636,-0.00546765
0.00158954,-0.000830449
-0.00016738,-0.00674947
0.000121311,0.00147533
0.002134,0.0229608
0.00703645,0.0175264
-0.000293369,0.00625628
-0.00984578,0.00446916
-0.0118676,-0.00751234
-0.0173964,-0.0178796
-0.0226223,-0.0166932
-0.0129654,-0.0239288
6.74e-05,-0.0503833
0.00348181,0.00772391
0.0227038,0.0532433
0.0236599,0.00962959
0.00592034,-0.00454067
-0.0111661,0.00140864
-0.00834363,-0.000832028
-0.00172951,-0.00986458
-5.84e-06,0.00896043
-0.00249065,0.0229326
-0.00325186,0.00984378
0.000672631,0.00199741
-0.00063541,-0.00589183
0.00190736,-0.0334112
0.0085576,-0.0398854
0.00425531,0.0201476
-0.00297622,0.0188749
-0.000739404,0.0088888
0.0063583,0.0344346
0.0246346,0.0159697
0.0311907,-0.014263
0.0199572,-0.00629793
0.0299552,-0.00740744
0.0141941,-0.0149693
-0.0260411,-0.0126507
0.00177933,0.00526019
0.0170498,0.0134628
-0.013332,0.00782432
-0.0208925,0.0106482
-0.0188981,-0.000974199
-0.0478063,-0.011622
-0.0627463,-0.0185274
-0.0404134,-0.0217518
0.0109781,-0.0118619
0.0139729,0.0206487
0.00971466,0.0273325
0.0497837,0.00530727
0.028864,-0.00507966
-0.0172043,-0.0095301
-0.0480229,-0.0136687
-0.0647157,-0.0172983
-0.0114589,-0.0169572
0.050385,0.00880079
0.00993186,0.0204342
-0.0249945,0.0163696
-0.00195708,0.000585554
0.0328616,-0.0174391
-0.00567293,-0.0162044
-0.110932,0.00393047
-0.0753972,0.0220743
0.00332981,0.0211906
0.0431211,0.00953521
0.177973,-0.00821022
0.151097,-0.0244649
0.0752687,-0.0176742
0.058755,-0.00279307
0.00498854,-0.00733969
-0.0842896,-0.0112744
-0.133832,0.0110736
-0.0928897,0.0296847
-0.0619259,0.0203929
0.00460847,-0.00722636
0.0626036,-0.0178766
0.113721,-0.0240628
0.146999,-0.0305104
0.0932562,-0.0129741
-0.0479036,0.00755212
-0.121411,0.03501
-0.158744,0.0720232
-0.171633,0.0705878
-0.0425525,0.0184298
0.0770793,-0.0279048
-0.00904044,-0.0375724
0.0216064,-0.0230277
-0.0338088,-0.0095221
-0.00272743,-0.0040193
0.0510058,-0.0142699
0.0529256,-0.0228232
0.18202,-0.00507769
0.199752,-0.0114894
0.135487,-0.033038
0.0440877,-0.0261795
0.0333251,0.033695
-0.03964,0.0357312
-0.170359,0.0213115
-0.284201,0.0254552
-0.354685,0.0248923
-0.265248,0.0130729
-0.0974258,-0.0136436
0.0650927,-0.0448001
0.112399,-0.0315967
0.129333,0.00884386
0.301245,0.0133328
0.344654,0.00292058
0.251758,-0.0244259
-0.0939993,0.0111001
-0.245734,0.0124834
-0.0867264,-0.0115362
0.0332869,-0.0230689
-0.0489379,-0.03342
-0.155933,0.00345605
-0.135867,0.0425373
-0.0151462,0.0458969
0.00345674,0.00880912
-0.113597,0.00954848
-0.176232,-0.000768366
0.0415761,-0.0191742
0.160394,-0.0180415
0.24517,-0.00849707
0.191125,0.026718
0.179564,0.0381262
0.205519,0.0254523
0.128769,-0.0366136
-0.0513649,-0.0324816
-0.111857,-0.0311497
-0.0418819,-0.0175655
-0.00253525,0.0179319
-0.00649219,0.0134154
-0.0531797,0.00270456
-0.0801403,-0.0368345
-0.140856,0.0134816
-0.130637,0.0297212
-0.00300353,-0.0129792
0.122847,-0.00935685
0.0972843,-0.0229801
-0.0563282,-0.00165829
-0.177477,0.0125045
-0.145665,-0.0147211
-0.0345887,-0.00490776
-0.0504965,0.0277587
-0.0748561,0.00352659
-0.0472265,-0.0196826
0.0420334,-0.021911
0.0711577,-0.0248418
0.0426148,0.0250253
-0.0393392,0.0573905
-0.142914,0.0183434
-0.023718,-0.00843522
0.0393139,-0.0084804
0.00171428,-0.0122393
0.120706,-0.00190165
0.198185,0.0216711
0.213393,0.0478143
0.0835929,0.0198384
-0.137051,-0.0177171
-0.191242,0.0119933
-0.125086,0.0180777
0.0119116,-0.0351101
0.194766,-0.0959468
0.131242,-0.0125261
0.0140885,0.0369194
0.0231211,0.0226096
0.0528721,0.0336478
-0.0331679,0.020552
-0.0791513,0.00488214
-0.062635,-0.0601132
-0.09521,-0.0575823
-0.12618,-0.0400092
-0.0526709,0.0289569
0.0666758,0.0937975
0.102315,0.0375592
0.0154177,0.00483357
0.0111112,-0.0321648
0.0559418,-0.0915138
0.0920164,-0.0793736
0.0448296,0.00928801
-0.010059,0.0665053
-0.0502996,0.047389
-0.046182,0.0278867
-0.0449284,0.00625202
-0.0635573,0.00509953
-0.118239,-0.00106144
-0.187666,-0.0190587
0.101153,0.0184283
0.308786,0.0807605
0.172654,0.00476103
0.261867,-0.0474662
0.195033,-0.0714512
-0.0513133,-0.0450387
-0.318466,0.0278308
-0.321059,0.0146522
-0.15194,-0.0184402
0.13171,-0.0884589
0.226937,-0.00673161
0.100858,0.129952
-0.02763,0.0152566
-0.178234,0.016519
-0.236514,0.093187
-0.161537,0.0389041
-0.038198,-0.0955544
-0.0869719,-0.13148
-0.0733981,-0.0556026
-0.0395805,0.0415015
-0.066528,0.058364
-0.171992,0.0364662
-0.238751,0.0112381
-0.234669,-0.00657541
0.0245182,-0.00402967
0.318863,-0.050204
0.420381,-0.0585376
0.4036,-0.0398169
0.423486,0.0159128
0.322682,0.0641006
0.223731,0.0600591
0.0114216,0.0475318
-0.10342,-0.0241377
-0.0933154,-0.0903007
0.00299564,-0.0347292
0.0187211,0.0401849
-0.0620253,0.0527882
-0.0430975,-0.0193626
-0.137935,-0.0537837
-0.256545,0.0103514
-0.191878,0.009737
0.00532448,-0.0222978
0.0831616,-0.0178368
0.0142246,0.0143002
-0.00663049,-0.0390546
0.109519,-0.0296942
0.199908,0.10015
0.0665185,0.0461109
-0.187922,-0.0151925
-0.32222,0.0544509
-0.333708,0.0666129
-0.0778177,0.0120598
0.171901,-0.0331337
0.226691,-0.0239476
0.0984692,-0.0100253
-0.00732733,0.00954177
-0.0178548,-0.00197854
-0.0849964,-0.0291724
-0.100802,-0.0420486
-0.0948856,-0.0252564
-0.110141,-0.0132782
-0.0192541,0.0227595
0.168658,0.0282622
0.11491,-0.00453313
-0.00153091,-0.000394635
0.0318303,0.00681087
0.0832237,-0.00221916
-0.013356,-0.00284491
-0.235214,0.0154899
-0.252003,0.0369419
-0.0531459,0.0650395
0.260592,0.0468087
0.409468,0.00832642
0.384037,-0.0767597
0.245241,-0.0781914
-0.00385265,-0.00579525
-0.229682,-0.0148899
-0.298083,-0.018857
-0.283024,0.0137495
-0.281593,0.0429213
-0.279218,0.0104645
-0.250039,-0.0235707
-0.109162,-0.000676987
0.0891224,-0.038492
0.178475,-0.00303531
0.13444,0.000715858
0.20398,-0.00942949
0.315882,-0.0025182
0.2622,-0.0105391
0.127576,-0.0275304
0.0310974,-0.0401731
-0.107446,-0.0100875
-0.137683,0.000993871
-0.0791364,0.0185243
-0.114857,0.0127203
-0.139571,0.0416222
-0.00482889,0.0333966
0.221879,-0.052931
0.349304,-0.0699719
0.172683,0.0122051
-0.0499193,0.0241612
-0.115931,-0.0397306
-0.143001,-0.0308421
-0.0734389,0.0441905
-0.0211747,0.0844098
0.0266894,0.0480602
0.0754357,0.0104191
-0.0314846,-0.0285868
-0.126566,-0.0283202
-0.13027,-0.00270746
-0.125698,0.0236024
-0.0629356,0.0364106
0.0237439,0.0512679
0.0616068,0.0106874
0.0737232,0.0576283
0.140387,0.0587546
0.216132,-0.0477314
0.229686,-0.0261579
0.0331604,-0.0337364
-0.245236,-0.0192689
-0.435006,0.0317273
-0.314443,0.0463825
-0.00980756,0.0554307
0.0504496,-0.0327953
0.0218013,-0.119094
-0.0150711,-0.0180897
-0.00505541,-0.0045944
0.0427123,-0.0509935
0.0719728,-0.00750496
0.0956669,0.0110924
0.194062,-0.0431112
0.18436,-0.0365246
0.0826495,0.00267177
-0.016855,-0.0107782
-0.0708353,-0.0285416
-0.159421,0.0239999
-0.14811,0.0283098
-0.0509037,0.0137391
0.00645991,-0.00795395
0.0106737,0.00513778
-0.0964949,0.027698
-0.113963,0.0170445
-0.0286318,0.022713
0.225904,-0.0279367
0.256497,-0.0492234
0.213335,0.0194877
0.0940302,0.0114319
0.00269495,0.0154418
0.0196105,0.0374849
0.101186,0.00448272
0.0487844,0.00840801
-0.118953,0.000445766
-0.110437,-0.0121852
-0.0882115,-0.0227777
-0.226423,-0.0457329
-0.281897,-0.00545498
-0.131355,0.0137808
-0.0132772,-0.0119054
-0.0330259,-0.0111205
0.000128877,0.0275327
0.0566482,0.0240342
0.14337,0.0105676
0.130246,0.0297861
0.0928375,0.0247272
0.0820218,-0.0153953
0.0109207,-0.0256229
-0.0520442,0.0110144
-0.0640768,-0.0190219
-0.0544872,-0.0423801
-0.0205236,-0.00730266
-0.0582561,0.0252392
-0.0451026,0.00970201
0.0547148,0.0159375
0.142704,-0.0156311
0.172259,-0.0169249
0.165607,-0.0228607
0.0231505,0.00305488
-0.0951673,0.039802
-0.0855066,0.0300952
0.0361308,0.046557
0.0598402,0.0169762
0.0158467,-0.0383456
-0.014782,-0.0196671
0.0665264,0.037187
0.082427,0.0209122
-0.0551624,0.0191997
-0.0780811,-0.0209132
-0.0543894,-0.0313463
-0.16214,-0.0274695
-0.215074,-0.0233132
-0.131386,-0.0180367
-0.0827539,0.00468584
-0.0473778,0.00665345
0.0507154,0.01485
0.0801073,0.0245957
0.0348294,0.021043
0.0289383,0.0170557
0.0884913,0.026638
0.125229,-0.000397297
0.128228,-0.0114144
0.0844546,-0.0127752
0.0294865,-0.0235071
-0.0402612,-0.0243186
-0.0952592,-0.011067
-0.094735,-0.016447
-0.0954941,0.0103966
-0.0839686,0.0462134
0.0036652,-0.0164972
0.0593193,-0.0229573
0.0523727,-0.000180732
0.0292962,0.00161851
0.00653846,0.0161585
-0.00165897,0.0229086
0.0317665,0.0106943
0.0378854,-0.00286119
-0.00825256,-0.0160622
0.00568164,-0.00189709
0.0325546,-0.00579481
0.025642,-0.0220008
-0.00575473,-0.0419296
-0.0164703,0.00365112
-0.0257625,0.0195342
-0.0243056,-0.00551115
0.00946132,-0.0261599
-0.00144932,-0.0342303
-0.0297041,-0.0173413
-0.0116808,-0.00744328
0.0288703,-0.00521474
0.0205447,-0.00337514
-0.0222574,0.00415849
-0.0262219,0.0157943
-0.0329674,-0.00124571
-0.0342049,0.00423143
-0.0105622,0.00537135
-0.0150685,-0.00894582
0.063919,-0.010407
0.0802212,-0.0205382
-0.0249036,0.0207068
-0.0875149,0.046393
-0.094938,0.0207663
-0.121229,0.0121518
-0.0401669,0.0153769
0.123571,0.0355971
0.267543,0.0325748
0.217552,0.001455
0.0298658,-0.00112681
-0.0965865,0.0200226
-0.0880638,-0.00987551
0.0425628,-0.0188349
0.0928439,-0.0171536
0.0902611,-0.0214684
-0.000791122,-0.000959266
-0.157872,0.0149376
-0.220269,-0.0149386
-0.156557,-0.00950634
-0.0417253,0.0457592
0.0236679,0.0224647
0.0225341,-0.0151434
0.0207048,-0.0278832
0.00529257,-0.0302698
0.0465216,-0.0202318
0.0226015,0.0240466
-0.00168574,0.0430796
0.0175564,0.020184
0.00502152,0.000710471
-0.0257532,0.0108228
-0.0249424,-0.00653519
0.0220572,-0.026527
0.0182342,-0.0332501
0.0160286,-0.00691822
-0.00140962,0.00939392
-0.0327546,0.00200358
0.00144954,0.00593621
0.0430131,0.0404727
0.00984454,0.0408787
0.0209142,-0.0182763
0.156259,-0.020446
0.105773,-0.0139631
0.0208508,-0.0251179
-0.0144263,0.0119066
-0.0464818,0.0146795
-0.109474,-0.0244681
-0.114177,-0.028033
-0.0673,-0.0125374
-0.04433,-0.0215246
-0.0364544,-0.0337085
0.00990113,-0.0253053
0.0703328,0.00556533
0.0850901,-0.0118013
0.0532958,-0.0470506
0.0232591,0.0275479
-0.0114801,0.0408183
-0.0492519,-0.0522876
-0.0461238,-0.0184305
-0.042694,0.0157682
-0.0370702,0.0600692
-0.00476487,0.0223886
0.0104309,-0.00423416
-0.00780271,0.00861242
-0.0467666,0.0224462
-0.0269264,0.00846955
0.0827836,-0.0357308
0.15512,0.00334252
0.178687,0.0478271
0.0995759,0.030826
-0.0432054,-0.012149
-0.107274,0.00617395
-0.0506497,0.0138446
-0.0148959,-0.027443
-0.0519777,-0.0158559
-0.0486081,0.0130153
0.0137203,0.00663063
0.029468,-4.29e-05
-0.0274551,0.0130135
-0.090593,0.0188291
-0.0445669,-0.00517466
0.0477554,-0.0169652
0.0738427,0.00601007
0.0358759,0.0272276
-0.0147064,0.0511392
-0.0149969,0.0464337
-0.0277442,0.0294449
-0.0400087,0.0185331
0.0114657,-0.00175514
0.0273391,-0.0238382
-0.00348346,-0.0326044
-0.0244788,-0.0306983
-0.0434294,-0.0304738
0.032303,-0.0311601
0.0392786,-0.0251351
0.0293394,-0.0179148
0.0470451,-0.0240184
0.0427931,-0.0285547
0.00698996,5.58e-05
-0.0740278,-0.0194278
-0.130955,-0.016205
-0.0817627,0.00646346
-0.00979495,0.0107319
-0.00315295,0.0204932
0.0112801,0.00799309
0.026359,-0.0250123
0.0369209,-0.0638331
0.0419934,-0.0547151
-0.0081737,0.0393421
0.0025325,0.0217236
0.0436535,-0.0291586
0.0829998,-0.0142215
0.0800472,0.0205576
0.0694655,0.00964616
0.0791842,-0.000526297
0.00263744,0.0103351
-0.0508581,-0.0476144
-0.10179,0.00948026
-0.0833256,0.0893661
0.0127455,0.0502099
0.104276,0.019284
0.0993816,0.00538788
0.093358,-0.0327335
-0.0583502,-0.0178104
-0.212351,-0.00563813
-0.192377,-0.00160406
-0.0847514,-0.000753498
-0.0119541,0.00195542
-0.0218263,0.00172028
-0.0461279,0.0159112
-0.0324344,0.0273691
0.0416363,0.0319355
0.0866767,0.0131562
0.0697585,0.00480611
0.0549295,0.0202188
-0.00464245,0.0270814
-0.0697073,0.0259373
-0.048244,0.0284805
0.0375931,0.00188299
0.0662688,-0.0126015
0.0198623,-0.0195849
0.000474062,-0.0346295
0.015301,-0.0287006
-0.000241811,0.00573211
-0.00215233,-0.00992292
-0.01518,-0.033496
-0.0386833,-0.0397622
-0.0582808,-0.0180128
-0.021387,0.023693
0.0839987,0.0139708
0.0657312,0.0210044
0.00750925,0.0033661
-0.0174912,-0.0114377
0.0257479,-6.96e-05
0.0543813,-0.025491
0.0430859,-0.0063882
0.0632385,0.0149333
0.0839207,-0.00410466
0.00493732,-0.0283015
-0.0729193,-0.0118851
-0.0790262,0.0345293
-0.0531666,0.0397443
0.0136806,0.00126097
0.0611511,-0.0092819
0.0765194,-0.000960345
0.0377169,-0.0203101
0.0362921,-0.000548222
0.0955813,-0.00596364
-0.0670354,-0.00526901
-0.193329,0.0216748
-0.188205,0.0238073
-0.0881041,0.00142937
-0.0379207,-0.00876492
0.00591266,-0.0258562
0.043738,-0.00534449
0.0656596,0.00193581
0.0684127,-0.00741647
0.0399539,0.00259158
-0.00116077,0.00451911
-0.0692326,-0.00864382
-0.0811302,-0.00818496
-0.0498391,-0.0136076
-0.0423956,-0.023365
-0.0733334,-0.0246818
-0.0199245,-0.0106661
0.151122,0.00162854
0.165368,0.0247192
0.0684669,0.0250827
0.041171,0.00226822
0.00987808,-0.00290844
0.0144909,0.0276599
0.10196,0.0140332
0.0562874,-0.000199783
-0.0904057,0.00586647
-0.133949,0.00463884
0.00396449,-0.000308303
0.071504,0.0270752
0.0671774,0.0194576
-0.0335043,-0.00856107
-0.128634,-0.0240219
-0.106991,-0.0057392
-0.00654275,0.0140285
0.0540724,0.0299756
0.00340413,0.0149269
-0.0577456,-0.0088401
-0.0902424,-0.01942
-0.0229656,0.00526812
-0.0101248,-0.00796171
-0.0673555,-0.0431422
-0.0684425,0.0200575
0.0400655,0.0433966
0.130804,0.0269488
0.0719085,0.00550279
-0.00965562,0.00203453
-0.0170152,-0.00253285
0.0324694,-0.0139658
0.0801931,-0.0126394
0.0669547,-0.0045087
0.0190479,-0.00267385
-0.00326015,-0.0053475
0.00564602,-0.000893731
0.0121058,-0.0144483
0.0109086,-0.0215973
0.00237566,-0.0184054
0.036976,-0.000362954
0.105662,0.00240719
0.128205,0.00160682
0.0091909,-0.0255348
-0.132413,-0.0195624
-0.162286,0.012917
-0.14961,-0.00564661
-0.106601,-0.0165115
0.0381416,-0.019759
0.0898758,-0.0158704
0.0662515,0.0138008
-0.00579542,0.0292352
-0.0384151,0.0312145
-0.0767188,0.0180969
-0.0338522,-0.025849
0.011309,-0.0127239
-0.0327174,0.0198429
0.000589469,0.00613475
0.0226489,0.00251809
0.00168949,0.0193779
-0.0148233,0.0192235
-0.0716387,0.0188099
-0.0694122,0.00831333
0.0340204,-0.0146654
0.107202,-0.0363119
0.0668057,-0.0352116
0.0670993,-0.00686624
0.0582188,0.0122352
-0.0278783,0.00775075
-0.0616509,0.000538484
-0.0422177,-0.0291521
6.86e-05,-0.0130663
0.0484314,0.0176256
0.0654406,0.00287624
0.0745285,0.0267302
0.122731,-0.00435817
0.159345,-0.00547172
0.0581838,0.00200766
-0.132783,-0.0337862
-0.183395,-0.0332692
-0.150982,0.00929672
-0.0960785,0.0166384
-0.0232226,-0.0303077
0.0141024,0.0411963
0.029812,0.0478544
0.0670224,-0.0207263
0.0469198,-0.0119795
-0.0332613,0.00399796
-0.0777652,0.0214894
-0.0320949,0.0108776
-0.00914681,-0.00039259
0.0801315,-0.00980009
0.107804,0.00111992
0.0141423,0.0252772
-0.0834199,0.00174822
-0.0912889,-0.0200744
-0.07041,-0.0213429
0.0222048,-0.0232657
0.106571,0.00468007
0.162152,0.0120819
0.159084,0.0318342
0.0619386,0.030349
-0.106913,-0.0254609
-0.168877,-0.0174159
-0.0620859,0.00106884
-0.0251098,-0.00124066
-0.00543042,-0.0117309
0.0359171,-0.019436
0.0113879,-0.00126256
-0.0516587,0.044149
-0.100078,0.0407185
-0.0504874,0.0223548
0.0933755,-0.0168501
0.100737,0.00591158
0.0653907,-0.00172809
0.0369851,-0.0223162
-0.0574569,-0.0180921
-0.093716,0.000155773
-0.0559299,0.00621133
0.0182956,-0.0148095
0.0455781,0.00567873
0.0200288,-0.0336847
-0.0351842,-0.0100313
-0.0304751,0.0023321
0.0395413,-0.0434409
0.0129163,-0.0224942
-0.0375807,0.0173225
0.00451849,0.00754623
0.0202828,0.0343823
-0.0598469,0.0454276
-0.0926046,0.0228266
-0.0148435,-0.00522873
0.0193333,-0.00727306
0.0252938,0.0155903
0.0262981,-0.0168325
0.00840616,0.00890978
-0.00816477,0.00656039
-0.00503039,0.0153889
0.101835,0.00473489
0.154027,-0.0163783
0.110502,-0.0316666
0.0292824,-0.0120335
-0.0953459,0.0210186
-0.131521,0.031713
-0.0745267,0.0115637
0.00618414,-0.0150387
0.0469779,-0.0277423
0.0412547,-0.0139413
0.0364638,0.0193759
0.0528491,-0.015983
0.089419,-0.0113816
0.0442238,-0.00151459
-0.0660926,-0.013896
-0.118016,-0.00222473
-0.11729,-0.00992142
-0.0770375,-0.0200414
-0.0370274,0.00442879
0.0163029,0.0197104
0.0239281,0.0213287
0.010611,0.0153234
0.0221921,0.0255899
0.0694697,0.0102034
0.104252,-0.00619106
0.0646687,-0.0152427
0.019499,-0.0268579
-0.0713119,-0.0278644
-0.162221,0.0134092
-0.183786,0.0494664
-0.010435,0.00438319
0.0937981,-0.0645469
0.0628917,0.00815528
0.0413809,0.0288444
0.0398936,0.00125626
0.0547952,0.00314476
0.138092,0.000803788
0.044237,-0.00969138
-0.159884,-0.0219897
-0.193541,-0.00262561
-0.0805409,0.00208096
0.00579276,-0.00260214
0.04825,0.00109086
0.0613294,-0.00569611
0.0359449,-0.0166889
-0.0175506,-0.0155536
-0.0347973,0.00703548
-0.0452161,0.0120985
-0.0775716,0.00223574
-0.0291655,0.0014757
0.0410854,-0.0238027
0.0591823,-0.01394
0.110727,0.0200191
0.120415,0.027954
0.055359,0.00654322
0.00920484,0.0193816
-0.0486542,0.00806648
-0.0692834,-0.0111359
-0.0394191,0.00681853
-0.00179326,0.0200955
0.0668915,0.00857905
0.0937809,-0.013857
0.0541077,-0.0155472
0.0107393,0.00878605
0.110007,0.0147049
0.0632783,0.0249209
-0.08505,0.00767069
-0.144874,-0.0187962
-0.147317,-0.0520719
-0.0935659,-0.0503143
-0.0503832,-0.00481859
-0.0426149,0.0387905
-0.00479615,0.0396083
0.020902,0.00941148
-0.00134259,-0.00100133
-0.0096392,-0.00779999
0.0351939,-0.0176069
0.0407857,0.00975222
0.04379,0.0127173
0.079766,0.00443077
0.0903936,0.00492616
0.0259583,0.0178757
-0.0423972,-0.00252962
-0.0590306,-0.00633798
-0.0504747,-0.0170518
-0.0416903,-0.00854192
-0.0514562,0.00704148
-0.00974129,-0.00721623
0.0593317,0.00462047
0.0279794,0.0117951
-0.00349605,0.00297452
-0.0202655,-0.0260031
-0.0274798,0.00380553
0.00218962,0.0173274
0.0530108,-0.0372318
0.0354109,-0.040571
-0.0347416,0.0375183
-0.0668776,0.0538111
0.000417337,0.0121328
0.0719682,-0.0144102
0.0571095,-0.030155
-0.0263176,-0.0227789
-0.0427463,-0.00751686
-0.0293388,0.000555778
-0.014983,4.74e-05
0.0220815,0.0142862
0.0525204,0.0123208
-0.00152105,-0.00449655
-0.0453662,-0.0152578
-0.019254,-0.0178489
0.020663,-0.0347407
0.00239335,-0.0118968
0.034092,0.0118749
0.0804044,0.0279537
0.129338,0.0155748
0.116313,0.00798147
0.0185944,-0.00504969
-0.0840028,-0.00830517
-0.0931846,0.00549993
-0.10011,0.0259388
-0.167556,0.0252724
-0.178542,0.0201096
0.0196316,0.0180395
0.112476,-0.00482456
0.031988,-0.00572255
0.0282802,-0.0109678
0.0239112,-0.0158192
0.0267781,-0.013263
0.00731548,-0.00415724
0.0286483,0.0168397
0.124365,-0.00484475
0.0144434,-0.0235756
-0.130441,0.00439333
-0.0903237,-0.0240555
0.0293699,-0.0188483
0.0204948,0.0345415
-0.0393169,0.0253354
-0.025369,-0.0600187
0.0445133,-0.0103496
0.106531,0.0608122
0.103482,0.0525626
0.104972,0.0065084
0.0639192,-0.0195664
-0.0694643,-0.0212633
-0.167885,-0.0595658
-0.205793,0.00485123
-0.0979291,-0.000267103
-0.0256853,-0.0123722
0.00226102,0.0029734
0.0318559,0.00883043
0.0570086,-0.00298276
0.0575181,-0.0120371
0.0310851,-0.0135388
0.0303574,-0.000887381
0.0200077,0.0290914
-0.0266054,0.04212
-0.0152424,0.028898
0.0159381,0.0140737
-0.0382953,0.0178427
-0.0110115,-0.0161652
0.0387345,-0.0323534
0.0394391,-0.0183125
0.00534122,-0.0145916
-0.0221799,0.00463041
0.0251698,-0.000859023
0.0437594,-0.00215817
-0.0265074,-0.00481759
-0.0396914,-0.001805
-0.00706977,-0.00777776
0.0352317,-0.0132405
0.0539051,-0.0130592
0.0727528,0.011236
0.0525624,0.0242736
-0.0599963,0.028813
-0.0701544,0.010354
-0.0338026,-0.00414988
-0.0049755,-0.0143672
0.0745482,0.00584979
0.0769877,-0.00794645
-0.0414601,-0.0316014
-0.0757674,0.0152716
-0.0490973,0.0265205
0.0454251,-0.0022414
0.0503124,-0.0276072
-0.0547149,-0.0335533
-0.0856248,-0.0193705
-0.0603018,0.00976353
-0.0232961,0.02113
-0.014325,-0.00270378
0.0119703,-0.0243708
0.0245104,-0.000206302
0.00279681,0.050212
0.00120653,0.0435084
0.0198201,0.00219038
0.0221374,0.00171724
0.00689631,-0.00344195
-0.00756651,-0.000107705
0.0081445,-0.0109551
-0.0082418,-0.0193822
-0.022519,-0.0110627
0.00619811,0.00287065
0.0405319,-0.00215287
-0.00843489,-0.00559731
-0.0178933,0.0108299
0.0106487,0.0249739
0.0549634,0.025631
0.0726447,0.0158823
0.0298133,-0.020142
-0.0253754,-0.0237606
0.0203889,-0.00366588
0.101022,-0.0019419
0.0957998,-0.0158579
-0.0196672,-0.0198307
-0.0771806,-0.0136333
-0.112563,-0.00288494
-0.107073,0.0150221
-0.0519605,0.0144456
-0.0172253,-0.000383698
0.017225,-0.0268947
0.0487235,-0.00976463
0.0385052,0.0154391
0.0149096,0.0205611
-0.0578995,0.0281419
-0.116572,0.0479071
-0.0606956,0.0312115
0.0136835,-0.00676855
0.0466358,-0.00211552
0.00726064,-0.0480274
0.00616977,-0.0547339
0.0647476,-0.0275217
0.0667719,0.0109864
0.0337514,0.0311859
0.037467,0.0123552
0.0255808,-0.0241883
-0.000596892,-0.027472
-0.00152317,0.0112824
-0.00367192,0.0249396
-0.00627757,0.000761833
-0.0385192,0.0117034
-0.048018,0.0198835
-0.00130724,-0.00372398
0.00572659,-0.0122656
-0.0331238,0.0131903
-0.0484379,0.013675
-0.000997562,-0.0163089
0.0698911,-0.016315
0.108434,-0.00454697
0.0944467,0.020887
-0.0319186,-0.0153449
-0.134336,-0.0338411
-0.157004,-0.00632897
-0.0881879,0.00628259
0.00127151,-0.0348929
0.0397089,-0.00475374
0.04418,0.0248457
0.0415919,0.0226805
0.0479656,0.0188867
0.0107323,0.0143195
-0.0156231,-0.0614901
-0.0184976,-0.0450918
-0.0260259,0.0621589
0.0139471,0.0151362
0.0569275,-0.0297596
-0.014079,-0.00365477
-0.0335013,0.0289232
0.0410332,0.0181445
0.0942921,0.00229746
0.0461992,-0.00638505
-0.0223963,0.00136439
-0.00972469,-0.000713854
-0.000953884,-0.00832901
0.0115486,-0.00917342
0.00729798,-0.00933706
0.00634073,0.00862884
-0.00763126,0.0169527
-0.053875,-0.0156736
-0.0533017,-0.0161207
-0.0392048,-0.0044243
-0.0558909,0.0165958
-0.045135,0.0372324
-0.0043132,0.0280691
0.0511021,0.0168145
0.099479,0.0125366
0.151858,0.00296583
0.175761,-0.0105837
0.13237,-0.0177228
-0.0113687,-0.0487043
-0.17609,-0.0506692
-0.177531,0.00600019
-0.124465,0.0224622
-0.0722641,0.0165644
-0.00842704,0.010596
0.0350197,-0.0183166
0.0665212,-0.0334299
0.0359157,-0.0156676
-0.106218,0.0221207
-0.111573,0.0553963
0.00410463,0.040311
0.0470831,-0.00499651
0.0176232,-0.0250644
0.0193712,0.0139522
0.0316974,0.0150479
0.0142252,-0.0130688
0.0123733,-0.021701
0.0154511,-0.0120687
-0.00713246,-0.0168805
-0.00237925,-0.0237814
0.0247654,-0.00706085
0.0241495,0.0199946
0.0653856,-0.00354291
0.0824076,-0.02217
-0.0198158,-0.0193253
-0.091551,0.0140812
-0.0887373,0.0295729
-0.0982758,0.0279773
-0.0401345,0.0105888
0.0199729,-0.00408867
0.0379052,0.000277103
0.0351854,0.0193993
0.0376205,0.00635615
0.010971,0.0096229
0.0117844,-0.00191867
0.00406706,-0.0135461
-0.00222387,-0.00333566
-0.00769368,-0.0131041
0.00767423,-0.0195443
0.0499083,-0.0160531
0.0287893,-0.00827682
-0.00540895,0.0114816
-0.0215753,0.0382426
-0.0425538,0.0416832
-0.0420608,0.0218078
-0.0487774,-0.00472024
-0.0419192,-0.0158964
-0.0128257,-0.0151725
0.0334721,-0.0387008
0.0655729,-0.031863
0.0737014,-0.0107327
0.107641,0.0344806
0.10795,0.00730842
0.0251611,-0.0696471
-0.0830932,-0.0173839
-0.109715,0.017043
-0.0674012,-0.00907229
-0.0218579,0.00436446
0.0171487,0.0305861
0.033112,0.038353
0.0337837,0.0157427
-0.0163914,0.0361427
0.0107057,0.0470276
-0.00577783,0.00768756
-0.0745467,-0.0297391
-0.0321458,-0.0579543
-0.0193993,-0.0702267
-0.0645723,-0.00489774
-0.0440471,0.0573154
0.0500789,0.0144913
0.0768155,-0.0237961
-0.0346546,-0.00794469
-0.0615929,0.00521139
0.102257,-0.00703111
0.187587,0.00750059
0.131302,-0.00660283
0.0341049,-0.0103365
-0.0400233,0.0209825
-0.0399545,-0.00570804
0.000320651,-0.0198977
0.0658914,0.00798774
0.0939576,0.0296009
-0.0472788,0.0130033
-0.154559,-0.0132192
-0.145675,0.00239585
-0.0459001,0.016755
0.00764201,-0.0115316
-0.0393552,-0.0404911
-0.0741324,-0.00244561
-0.052367,-0.0209679
-0.0404754,-0.0247497
-0.07955,0.0359862
-0.0498258,0.03631
-0.0287346,0.0324127
0.0198076,0.0122126
0.0536191,-0.00563004
0.0902725,0.0139711
0.154614,-0.0206095
0.150276,-0.0448474
0.0875121,-0.0266131
0.0117799,0.0122206
-0.0361066,0.0301713
-0.0205755,0.0164962
-0.0226567,-0.0300652
0.00714253,-0.0223265
0.0452435,0.000463274
0.0801398,0.0285601
0.00161895,-0.00680157
-0.117892,-0.00627966
-0.126007,0.0259804
-0.08926,0.019849
-0.0102549,-0.0121273
-0.00427378,-0.0233865
-0.0010176,-0.0137665
-0.00565281,0.008977
-0.0532658,0.0247712
-0.0448746,0.0498427
0.0703578,0.045502
0.0686158,0.0187118
-0.0609582,-0.0322334
-0.0314569,-0.0702516
0.0474812,-0.0267536
0.107186,-0.0144872
0.112778,-0.044153
0.0290813,-0.0524782
-0.117133,-0.0292545
-0.166988,0.00897284
-0.119774,0.0422092
-0.0226592,0.034864
0.0576306,0.00797794
0.0698859,-0.0127814
0.136172,-0.0261012
0.122275,0.0166957
0.0633917,0.0221262
-0.0505869,0.0223144
-0.0570216,0.058562
0.0757987,0.0285208
0.226319,-0.0363343
0.196082,-0.0153504
0.031219,0.0311212
-0.177041,-0.00222082
-0.225654,-0.0279741
-0.261338,-0.00810667
-0.200164,0.0369358
0.00581855,0.0153992
0.136613,-0.0166546
0.11275,-0.0144071
-0.0715571,0.000325619
-0.0944302,-0.0214949
0.0638646,-0.0590329
0.125159,0.00553858
0.0578076,0.0722886
0.0564924,0.0475454
-0.0123102,0.0203289
-0.0601711,-0.009879
-0.113766,-0.0162127
-0.100389,0.00516419
0.0671897,-0.0701465
-0.0376936,-0.049387
-0.0837141,0.0187192
0.0237803,0.0250224
0.148578,-0.00258718
0.0902392,-0.00971607
0.0279678,-0.0166203
0.0676027,-0.00979833
-0.0181342,0.00853281
-0.0689251,0.00664156
-0.0462971,-0.00537726
-0.0155766,0.00857982
-0.00164924,0.0174804
0.0235922,0.00936259
0.00854358,0.016081
0.0252396,0.00155104
0.046227,-0.00752126
0.0391684,-0.00275433
0.023589,0.00348115
-0.0212288,0.0193201
-0.0182086,0.00849748
-0.00113647,-0.00419331
-0.0264125,-0.00983282
-0.0505402,-0.00546038
-0.0295766,-0.00172907
0.00421628,0.00959722
-0.00956449,-0.00362417
-0.041045,0.0101849
-0.0270171,-0.00922563
0.0176129,-0.0415321
0.0883878,-0.0628277
0.124097,0.028225
0.0460708,0.0618612
-0.0733103,0.00412603
-0.10956,-0.000588924
-0.0765439,0.0223723
0.0472758,0.0202081
0.135656,-0.00537764
0.0157761,-0.00384998
-0.128581,0.0156142
-0.178558,-0.00335531
-0.201452,-0.035747
-0.0411962,0.0195694
0.153397,0.0397156
0.113112,-0.0122601
0.065574,-0.0153865
0.0548573,-0.0253212
0.00682877,-0.0413914
-0.02142,-0.032672
0.0322005,-0.00706251
0.0834374,0.00258222
0.0608763,0.00417297
-0.0370231,0.0245801
-0.138249,-0.0261811
-0.100786,-0.010014
0.000241074,0.0432329
0.0601281,-0.00945057
0.115781,-0.0085182
0.0913125,0.0164188
0.0523198,0.00500088
0.0111111,-0.00613295
-0.0371331,-0.0163512
-0.104214,0.00980135
-0.13966,0.020618
-0.114867,0.0144333
-0.0432516,-0.0152391
0.00425168,-0.0573445
0.0694052,-0.0387639
0.155119,0.0290592
0.119127,0.0361033
-0.00500717,0.0109874
-0.0897501,-0.0113577
-0.0616912,-0.00280653
0.00230503,0.0140919
0.0507967,0.0182287
0.071153,0.0108058
0.0515008,-0.0225018
0.0455161,0.00578099
0.0296043,0.0384246
-0.00250748,-0.00260533
-0.0296204,-0.0351934
-0.0493715,-0.022197
-0.0252952,-0.00893933
0.000466591,0.00556025
0.0106066,0.0110703
-0.0683483,0.0228245
-0.15535,0.0393181
-0.0660318,0.0205009
0.0864634,-0.00538731
0.138031,-0.0205506
-0.00228123,-0.0356438
-0.103057,0.00947716
-0.0789063,-0.00168561
-0.0792584,-0.0260399
-0.0354615,0.00798032
0.0510673,0.02448
0.0703099,0.0158887
0.0483171,-0.00320053
0.0428581,-0.00820093
0.0943252,-0.0157475
0.25942,-0.00777777
0.28531,0.01505
0.0121485,0.0069791
-0.273336,-0.00356475
-0.230376,-0.018511
-0.0953409,0.00976667
-0.0436337,0.0187758
-0.0248067,-0.00921621
-0.0042599,-0.0116306
-0.0611375,-0.00147203
-0.0916325,0.020102
-0.024393,0.0205362
0.0129727,0.0135868
0.00661975,0.0193361
0.0216311,-0.00391115
0.0253208,-0.0383731
0.00634985,-0.0335957
0.000484193,-0.0226985
0.0299484,0.0108787
0.0860069,0.0132483
0.0847116,0.0124338
0.0218008,0.00237583
-0.0190842,-0.00465196
0.0374548,-0.012647
0.0736571,-0.0281182
0.0209057,-0.00180636
-0.0267487,0.0151756
-0.0643555,0.027352
-0.0432214,0.0338509
0.0605037,0.0293113
0.134165,-0.0254181
-0.0462617,-0.0161192
-0.185396,-0.00124695
-0.157512,-0.0248595
-0.0784137,-0.0200667
0.016737,0.00919787
0.0729523,0.00763386
0.110649,0.0020249
0.124318,-0.0128252
0.126969,-0.0250746
0.0502625,0.028606
-0.021456,0.0563555
-0.0519222,0.0204831
-0.0926775,-0.0201433
-0.112697,-0.0270797
-0.0895329,0.0160307
0.0058713,0.000825799
-0.0096311,-0.0127087
-0.0307968,-0.0298138
-0.0193877,-0.0333578
-0.0249949,-0.0196245
0.0075148,-0.0243394
0.0854264,0.0176693
0.129076,0.0155332
0.096431,-0.00572644
0.0517099,-0.00753632
-0.0170731,0.0172697
-0.0338993,0.0380151
-0.0130006,-0.00232641
0.0144509,-0.0222493
-0.00978077,-0.0045303
-0.0204381,0.0324722
-0.0279505,0.00718558
-0.0584197,-0.00392363
-0.061819,-0.00550284
-0.0181362,-0.020638
0.0184033,-0.0448571
-0.00911738,-0.0551132
-0.0388441,-0.00872263
-0.0173037,0.0351595
0.0475051,0.0301154
0.0842403,0.0584521
0.135552,0.0473433
0.177426,0.0151266
0.0750252,-0.0362471
-0.0798004,-0.0313465
-0.160007,0.0277943
-0.15313,0.0360647
-0.0529875,-0.00139814
-0.0229427,-0.0100252
-0.0432318,0.0371726
0.0119994,0.0221891
0.0397547,-0.033757
0.0342783,-0.040067
-0.0294932,-0.0195064
-0.0756371,-0.00239585
-0.0466284,0.0327964
0.02108,0.00627237
0.0182978,-0.0160983
-0.0132308,-0.000421798
-0.000197264,0.00290133
0.0482192,-0.024873
0.0702249,-0.0182573
0.0425169,0.00440939
-0.00498617,0.00953084
-0.00640579,0.0193411
0.00988941,0.0152487
0.048371,-0.0261161
0.0529393,0.00815456
0.00123193,0.0276648
-0.0559014,-0.0154415
-0.0725885,-0.0220074
-0.0635236,0.00469317
-0.0421715,-0.000492824
-0.0230973,-0.00620627
0.0186729,-0.00804915
-0.0196255,-0.0202499
-0.00995269,0.0113492
0.00457012,0.018162
-0.0105834,-0.0193878
0.0399402,-0.026692
0.0540226,0.060429
0.0212582,0.0791023
-0.00146026,-0.0149219
0.0807761,-0.0357651
0.113731,0.023722
0.049021,0.0158563
-0.0169213,-0.00646558
-0.0101246,-0.0343402
-0.00493441,-0.0397303
-0.0908683,-0.0182219
-0.0440506,-0.0426272
0.0270999,-0.0249892
-0.00618378,0.0304864
-0.034986,0.0377976
-0.0388185,-0.00244493
-0.0223841,-0.0246173
-0.0401468,-0.00870199
-0.06317,0.0137897
0.00697917,0.0162849
0.0743962,0.00409346
0.0788817,-0.000791148
0.049344,0.00135989
0.0159473,0.00365219
-0.0371184,0.00337545
-0.0393968,0.013693
0.0062663,0.0205844
0.0296672,0.00734137
-0.0112723,-0.00132319
-0.0315191,-0.0198755
0.00833028,-0.0451313
0.0166849,-0.0423045
0.0231143,-0.0302044
-0.00471234,-0.0176938
-0.0500821,-0.00242937
-0.0503705,0.02956
0.0119577,0.0414966
0.0676319,0.0349823
0.0558526,0.0456937
0.00428661,0.0452176
0.012569,-0.0406971
0.0308379,-0.0441994
0.021353,0.0210399
-0.0513409,0.0247808
-0.0637936,0.0331373
-0.0331747,0.0284072
0.0152093,-0.0239927
0.0649692,-0.0683194
0.0663173,-0.0507993
0.0223403,0.0157374
-0.0291393,0.00250167
-0.109363,0.0217556
-0.129082,0.0464744
-0.155017,0.0349939
-0.125185,0.0298193
0.0140708,-0.0149307
0.104894,-0.0419088
0.178782,-0.0318486
0.133597,-0.0241653
0.144985,-0.00737503
-0.000557243,-0.0186742
-0.106264,-0.0207999
-0.127913,-0.00695208
-0.0600432,-0.000438504
0.0178236,-0.00407693
0.039778,0.0177655
0.0389284,0.0239924
0.0452184,0.00555368
0.037372,0.0107493
-0.00556698,-0.00484255
-0.076839,0.00305845
-0.0635226,0.0211852
0.0292675,-0.00778014
0.032287,-0.0368925
-0.0147023,-0.0381062
0.0363222,0.0183425
0.0433929,0.0528696
-0.014301,0.0307131
-0.0697212,0.0128888
-0.110912,0.0121789
-0.0789609,0.00165146
0.0215854,-0.0119007
0.0846495,-0.00184804
0.0358457,-0.000868804
0.0300129,0.00708646
0.0748539,0.003155
0.0935543,0.01833
0.0204706,-0.0095901
0.0183993,-0.0247288
0.0670517,-0.00736199
0.122529,-0.00128973
0.101464,-0.00842672
-0.0354043,-0.01376
-0.174774,-0.00664004
-0.140643,0.0159471
-0.0689576,0.00405568
-0.0801418,-0.00203909
-0.0858358,0.00611309
-0.0387502,-0.00198069
-0.0174841,-0.0343057
-0.0380751,-0.0435138
-0.0136996,0.0223998
0.00591324,0.0500626
0.0571247,0.0114772
0.0759931,-0.0117186
0.0261734,-0.0175527
-0.0157068,-0.00651539
-0.0203586,-0.0269413
0.0174176,-0.0150959
0.0989954,0.032487
0.0966908,0.0228708
0.00557169,0.0211369
-0.0231855,-0.00902796
-0.00139428,-0.0411205
-0.000475279,-0.0341466
0.00114643,-0.0062239
-0.0021278,0.0129279
0.0165342,0.0471975
-0.00281622,0.0425262
-0.0267529,-0.0133304
-0.0311918,-0.0282189
-0.0506001,0.00873704
-0.0346416,0.0158149
-0.0162277,-0.00965916
-0.00737083,-0.0344538
-0.0393942,-0.0465813
-0.0323307,0.00237178
-0.00330209,0.022235
0.0207224,0.0286748
0.0484624,0.0137355
0.0737403,0.00202633
0.0829426,-0.0293706
0.0505544,-0.0216134
0.024244,0.0150058
-0.00329191,0.0134952
-0.0452353,0.0255864
-0.0782286,0.0529717
-0.115285,0.0118694
-0.146863,-0.0151469
-0.081413,-0.0126233
0.00269121,-0.023007
-0.0410846,-0.0209162
-0.00149706,0.0382413
0.122895,0.0238683
0.0438804,0.0194321
0.0537756,-0.00887576
0.108804,-0.01237
0.14006,-0.00600423
0.220364,-0.022115
0.203426,-0.0115678
0.0483242,0.0149429
-0.0525141,-0.0189978
-0.0584974,-0.042671
-0.0843901,-0.0109479
-0.139548,-0.00467855
-0.188034,-0.0123007
-0.141074,-0.00962125
-0.0844841,0.0188268
-0.000527006,0.0407053
0.0421075,0.00992127
0.0105291,0.0179861
0.0277591,0.0238745
0.0521173,-0.00566659
0.00301433,-0.0264709
-0.0319757,-0.0173496
-0.0217521,-0.015593
-0.0268593,-0.00695308
-0.0372571,0.0014986
-0.0352164,0.0375096
-0.0325725,0.0165307
-0.0131113,-0.0194523
0.0551115,-0.0104602
0.112736,0.00490601
0.104889,-0.00132185
0.018234,-0.00152586
0.0119621,0.0344436
0.103423,0.0244574
0.0626289,-0.0179834
-0.0206176,0.0196747
0.00535988,0.010723
-0.0172821,-0.0287055
-0.0453088,-0.0225808
-0.000416496,-0.025136
-0.00579981,-0.0423142
-0.0834805,-0.01338
-0.10566,-0.00230607
-0.108632,0.0142503
-0.093786,0.00901449
-0.0369175,-0.024933
0.00828024,-0.00300225
0.0503117,0.0343049
0.064503,0.0352565
0.0643332,0.014253
0.0320787,0.0060565
-0.00397257,0.0149695
0.004986,-0.00361913
0.021232,-0.0314956
-0.0346815,-0.0546463
-0.0763268,-0.00685655
-0.0236882,0.0237931
0.0457113,0.0204798
0.0608338,0.02356
0.0545953,0.0100989
0.0309546,-0.0132888
0.0397129,-0.0280114
0.00534101,-0.0222969
-0.0233926,-0.0102183
-0.0152721,-0.00121704
0.0265212,0.0155539
0.00938165,0.0312938
0.00800876,0.0252469
0.00811824,0.0198671
0.0378209,-0.0314988
0.0664398,-0.0151469
0.0216979,0.0210659
-0.0495138,-0.00692814
-0.0473681,0.0149356
0.0157269,0.0169444
0.0213319,0.00639656
0.00943094,-0.00683802
-0.0581637,-0.0141389
-0.05633,-0.0225442
-0.0967887,-0.00588552
-0.120358,-0.00059859
-0.0443163,0.00655424
0.0510668,0.0265112
0.0251076,0.0361702
-0.00364762,0.0254039
0.0456047,0.0117995
0.100618,-0.00319604
0.0706266,-0.0138341
0.00650129,-0.0251759
-0.0289306,-0.0279642
0.0316603,-0.0214721
0.00387742,0.00452844
-0.025275,0.0142194
-0.0127863,-0.0056181
-0.0293367,-0.0147593
-0.0376836,-0.0126625
-0.0554639,-0.00664057
-0.0541632,0.0118297
-0.0127628,0.0169871
0.00464832,0.0177014
-0.0127041,0.00535815
0.0146932,-0.0191915
0.0602692,0.00214938
0.0820866,0.0126028
0.100551,-0.0259503
0.144988,-0.0554001
0.0912864,-0.0292039
-0.10593,0.0256521
-0.215349,0.0152351
-0.217481,0.0303896
-0.0828464,0.0239299
0.0847492,-0.0180432
0.10952,-0.017246
0.0513444,0.0044557
0.0446933,0.00420706
0.0652811,-0.0038978
0.0102078,0.000844611
-0.0478718,-0.0181586
-0.0846719,0.00409743
-0.117791,0.0308231
-0.0987617,-0.00844629
-0.033966,-0.0206286
0.0744585,-0.0330356
0.0788728,-0.0161695
0.019467,0.0355217
0.0185952,0.029699
0.0392875,0.0330547
0.0318962,0.0337971
0.0768484,0.014975
0.139723,-0.0136677
0.120133,-0.0273342
0.0628849,-0.0163778
0.0057277,-0.0104383
-0.116359,-0.00597858
-0.179851,-0.00019386
-0.101802,-0.00800149
-0.0394564,-0.00253481
0.00703043,0.000146477
0.0573211,-0.00979405
0.0968087,-0.00077946
0.0767393,0.0162841
0.0171333,0.0275899
-0.123994,0.00390185
-0.217039,-0.0267636
-0.0492138,-0.00955815
-0.00540147,-0.00525479
-0.0176987,-0.00239358
0.059879,-0.0296625
0.0912725,-0.0117879
0.0988776,0.0663854
0.03376,0.0566492
-0.0450463,-0.00473206
-0.129381,-0.000559509
-0.098934,0.00237026
0.0236903,0.00117947
0.133938,-0.00718531
0.109486,-0.0172586
0.0149676,-0.0218268
-0.0538967,0.0118302
-0.039172,0.0012012
0.0039347,-0.0129142
-0.00745616,-0.00693747
0.00410021,-0.0213778
0.0502531,-0.0167476
0.0658843,9.27e-05
0.0825563,0.00899089
0.0772616,0.0117542
0.0575226,0.022538
0.0252568,0.00606051
-0.118901,-0.0178049
-0.194369,-0.0186258
-0.122693,0.00218648
-0.0141786,-0.00149721
0.045428,-0.0372209
0.053019,0.00948373
0.0188809,0.0621636
-0.0219443,0.0102635
-0.0640618,-0.0245222
-0.0969335,-0.00404594
-0.0592788,-0.0054604
0.0638594,-0.0129698
0.13222,-0.000286043
0.0639241,0.0208664
0.0526107,0.0378631
0.0395003,0.0294863
-0.0275951,-0.00744565
-0.0646406,-0.0148182
-0.0833801,-0.0103465
-0.0212663,-0.019337
0.0499259,-0.0221333
0.0199327,-0.0205934
-0.0577064,0.0141534
-0.111442,0.0212746
-0.0136241,-0.00330628
0.0706272,-0.0225079
-0.00766756,-0.0330668
-0.0519736,-0.0518045
0.0260117,0.00581969
0.0671024,0.0551844
0.0403671,0.025274
0.0631538,-0.00227772
0.0747599,0.0100737
0.101542,0.0119586
0.152783,0.00142488
0.0890735,-0.0232633
-0.0289699,-0.0425633
-0.0678297,-0.00916552
-0.0958565,0.0413633
-0.0970274,0.0374478
-0.112442,0.00690608
-0.0558211,0.0107184
-0.0508039,-0.00624612
-0.0934374,0.0134899
-0.0847808,0.0365582
-0.0624714,-0.0307912
0.0288038,-0.0427805
0.0816309,0.0054238
0.0500916,0.0373876
0.0206235,-0.00202065
0.0293876,-0.0429626
0.0138079,-0.00804695
0.00300269,0.0146391
0.0293039,0.0387704
0.150977,0.0103894
0.136274,-0.00311085
0.00597786,0.0120603
-0.0624244,0.00338654
-0.0234364,-0.0102345
0.00146443,-0.00916894
-0.0193219,-0.0168183
-0.0247202,-0.0400191
-0.01725,-0.0452914
-0.0271929,-0.00744648
-0.0229864,0.0116081
-0.019291,0.00823615
-0.0204058,0.0146193
-0.0567424,0.00237803
-0.0332622,-0.0254421
-0.00945878,-0.0114119
-0.0428149,0.0222087
-0.0045224,-0.00530401
0.0049465,0.0252572
0.0942633,0.0527074
0.136644,0.021372
0.0266716,0.00812125
-0.0502165,0.00451615
-0.00182288,0.0254505
0.0144353,-0.00688411
-0.0109369,-0.0261212
-0.0403573,0.000583043
-0.0266431,-0.00412685
-0.0194557,-0.0220434
-0.0324207,-0.0385323
-0.070058,-0.0114255
-0.050088,-0.00705788
0.0172177,0.00114651
0.049616,0.0176095
0.0543977,-0.00441025
0.0392431,-0.0179292
0.0137467,0.0181406
0.0578963,0.0224439
0.0913971,0.00775844
0.00819965,-0.000828213
0.0225862,-0.0201515
0.116387,-0.0342234
0.0455212,-0.0197903
-0.135504,0.031803
-0.203052,0.00639913
-0.126958,0.00324931
-0.075817,0.0251847
-0.103707,0.0224444
-0.0705244,0.0116444
0.00908806,-0.0116645
0.0821588,-0.0315576
0.0651499,-0.00399254
0.0658492,0.025185
0.052808,0.0127105
0.0464874,-0.000519814
0.0376732,-0.00687145
0.0498471,-0.0270265
0.047044,-0.0296308
0.00553965,-0.0138424
0.00319049,0.00880115
0.0363218,0.00776351
0.0305399,-0.00461374
-0.016929,-0.000244636
-0.0800623,-0.00970054
-0.0767726,-0.00918851
-0.00199138,-0.0181076
-0.00480661,-0.000718569
0.0072481,0.0163226
0.0452277,0.0259698
0.013284,0.0068355
-0.0242632,-0.00379621
-0.0208429,0.0380166
-0.00776321,0.0479784
0.0348661,0.00678475
0.0519351,-0.0290487
-0.00824659,-0.025056
-0.0611134,-0.000296629
-0.0127006,0.0103948
0.0751526,-0.00842332
0.0740473,-0.0222677
0.027434,-0.0090398
0.00487502,-0.00983276
-0.0697226,0.0201546
-0.121731,0.000590585
-0.0743167,-0.0164867
0.0195361,0.0643122
0.0577555,0.0767769
0.0546352,0.00910324
0.160804,-0.00127577
0.203113,0.00606841
0.0204757,-0.0800411
-0.183905,-0.0961071
-0.191837,-0.0114383
-0.155632,0.0296059
-0.0758199,0.0506704
-0.0125188,0.0607946
-0.0034427,0.0595833
-0.00836613,0.0159915
0.0719917,-0.0538524
0.0692761,-0.0269808
-0.025204,0.01775
-0.0383664,0.024862
0.0256055,-0.104036
0.0965305,-0.264919
0.0419174,-0.170236
-0.0301117,-0.0379982
-0.0439158,0.0271865
-0.0214169,0.0302633
-0.021403,0.0700825
-0.0611857,0.0477945
-0.0532777,0.0537095
-0.0393612,0.0770625
0.0312879,0.144352
0.032542,0.0180509
-0.0647826,-0.0304828
0.0204906,-0.116546
0.0928795,-0.0683761
0.0404368,0.0263322
0.00100226,0.0946177
0.031959,0.147704
0.0384007,0.203866
0.0634454,0.124787
0.0896384,-0.0107052
0.0551737,-0.107256
0.0269644,-0.10461
-0.0206467,-0.0609386
-0.0830042,2.17e-05
-0.0771816,0.03339
-0.0423922,0.068098
-0.0557768,0.0606436
0.0449152,-0.0102765
0.00873848,-0.0505776
0.0277189,-0.0468955
0.0993577,-0.0433044
0.173213,-0.045481
0.151076,-0.00723918
0.0300265,0.0131336
-0.0683617,0.0374313
-0.087486,-0.00926316
-0.09101,-0.0115869
-0.172697,-0.0223435
-0.175914,-0.0631765
-0.0560217,-0.0379095
0.01429,0.00888789
0.00282675,-0.0118499
-0.0203282,-0.0339061
-0.0217117,-0.00240349
0.0042314,0.00801481
0.0252337,0.0787303
0.00882528,-0.0381003
-0.0237284,-0.110924
0.0212192,0.0278153
0.0356763,0.103247
0.0291056,-0.0219223
0.00148386,-0.039881
-0.00387257,-0.047819
-0.0060347,-0.00529237
-0.000915627,0.049325
0.0164648,0.0201523
0.0268495,0.0134027
0.0211984,-0.00189277
0.011783,-0.0139976
0.00165974,-0.0167834
0.00674283,-0.0121274
0.0172949,7.43e-05
0.01114,-0.0231022
-0.00459635,-0.0399826
-0.0286169,0.0963322
-0.05304,0.0959642
-0.0327167,-0.000734667
0.00355044,-0.0200048
0.0560894,0.0485704
0.153602,0.00605324
0.212061,-0.0161939
0.235007,-0.0958342
0.220906,-0.0771189
-0.0312578,-0.0440597
-0.33967,-0.03966
-0.29013,-0.00974539
-0.13464,0.0255927
-0.0596191,0.0428135
-0.0494756,0.037667
-0.00889201,0.00166086
-0.00525214,0.00375933
-0.0219698,-0.00303384
-0.00482093,-0.00887209
-0.00404812,0.0271392
-0.0114916,0.0594441
-0.0172887,0.0250131
-0.0121796,-0.00267737
0.0120814,-0.00641174
0.0274547,-0.0113143
0.027633,0.00692276
0.0316918,0.0238633
0.0430147,0.00342664
0.0353449,-0.00960818
0.0346063,-0.00745837
0.0492473,-0.00627528
0.0244957,-0.00568846
-0.00780439,0.00806405
-0.0258277,-0.000647552
-0.033748,-0.0051416
-0.0147278,0.0292616
0.0188173,0.0194026
0.017665,-0.00850832
-0.0081335,-0.0175272
-0.0145267,-0.0175485
-0.00366266,-0.0204372
-0.00891056,-0.0177242
0.00467528,0.00116023
0.022903,0.0143259
0.0328888,0.0277097
0.0397384,-0.0012467
0.051246,-0.0189303
0.0529094,0.004788
0.0530382,0.0054359
0.0425231,-0.0042551
0.00160182,0.00477161
-0.0701441,0.0112047
-0.0892395,0.025318
-0.0643173,0.0243319
-0.0507806,0.0117582
-0.0678564,0.00165914
-0.0833119,-0.00934179
-0.0410908,-0.0194693
0.0123256,-0.0177736
0.00618582,0.00432962
0.00605511,0.0162767
0.0158811,-0.00869809
0.0363447,-0.0114714
0.0517642,0.00850128
0.0443394,-0.0182037
0.0145793,-0.00401287
-0.000728903,-0.014235
-0.0075851,0.00135422
-0.00713606,0.0422827
0.00380055,-0.00934993
-0.00119123,-0.0239236
-0.0155502,-0.0166395
-0.0102196,-0.0142233
-0.000461572,-0.022104
-0.00453728,-0.00813043
-0.0204256,-0.00149603
-0.0210426,0.0075299
-0.00589865,0.015044
0.00291942,-0.000182328
0.0123972,-0.0212571
-0.00470327,-0.000913139
0.0277836,-0.000270164
0.0281507,0.00858111
0.00574081,-0.0119571
0.00158777,-0.0149998
0.0109053,0.00716336
0.00848519,0.0184476
-0.00106819,0.00768155
-0.00351378,-0.00407683
0.0226947,-0.00805386
0.0582941,-0.00782268
0.0524222,0.00552218
0.0223133,0.0180575
-0.0312687,0.0240648
-0.062202,0.00296629
-0.04026,-0.00881699
-0.0358126,0.0181125
-0.0500605,0.00178612
-0.0146341,0.0222153
0.0201037,0.00864756
0.00778273,-0.0226938
-0.0308443,-0.0115485
-0.048472,-0.000810987
-0.0465912,0.0251381
-0.0441015,-0.00468699
-0.0420121,-0.0360595
-0.0442129,-0.0274331
-0.0416069,-0.0242462
-0.0377114,-0.0274706
-0.00658072,-0.00867498
0.0285566,0.0123128
0.0239025,0.0164159
0.0961936,0.0220155
0.347471,0.0296258
0.494927,0.0230767
0.391924,0.0185516
0.107416,0.0464155
-0.265103,0.00217956
-0.396482,0.0108984
-0.0793744,0.0482221
0.356201,0.0522327
0.392011,0.0313984
0.0661647,-0.00282881
-0.305219,-0.0343589
-0.498664,-0.0395533
-0.528601,-0.068807
-0.40625,-0.0233937
-0.19853,0.00135165
-0.00889183,-0.0270788
0.0847539,-0.0292434
0.0946821,-0.028642
0.0655565,-0.0290491
0.0371078,-0.0236465
0.0463254,-0.017709
0.041631,-0.0280504
0.0333572,-0.00763103
0.0102714,-0.00570683
-0.0103557,-0.00566225
-0.00099076,0.00238964
0.0359545,0.00749097
0.0609765,0.0131722
0.0472135,0.0250099
0.0218779,0.0417098
0.00400067,0.0372829
-0.00237089,0.0204537
-0.0166608,0.00987135
-0.0217214,0.00297156
-0.0239469,-0.00761925
-0.0400573,-0.0174251
0.0203762,-0.0215892
0.188053,-0.0146881
0.310247,0.0117138
0.294576,0.0221555
0.237993,0.0112642
0.241434,0.00431344
0.209329,0.00970565
0.0168032,0.0143799
-0.193478,0.00595981
-0.412099,0.00218552
-0.664029,0.00820331
-0.626488,0.00650322
-0.37111,0.00497154
-0.11715,0.0133972
0.331095,0.0161178
0.971653,0.0192979
1.22384,0.024496
0.98512,0.00403041
0.334105,-0.0119939
-0.474599,-0.0204105
-1.10588,-0.0379354
-1.15633,-0.046203
-0.700515,-0.0267445
-0.353546,-0.0207827
-0.145673,-0.0150463
0.101292,-0.00373341
0.172766,0.0123526
0.138629,0.0194517
0.0866597,0.0132834
0.0656222,0.0115883
0.0469711,-0.000840721
-0.00392181,-0.0130573
-0.0524906,-0.0327075
-0.050301,-0.0227826
-0.0126449,-0.0126352
0.0671588,0.00026251
0.0998373,0.00228788
0.11052,0.00442312
0.260526,0.00623619
0.574392,0.0196895
0.642413,0.0219822
0.443769,0.0125425
0.0639786,0.000544659
-0.276672,0.0159563
-0.410841,0.02909
-0.346576,0.0187356
-0.198301,0.010032
-0.132637,-0.00913873
-0.196802,-0.0234779
-0.271815,-0.030124
-0.227577,-0.0278848
-0.116035,-0.0249851
-0.0206961,0.0238134
0.0192883,0.026059
0.0231467,-0.00620087
0.0208083,-0.00325283
0.0297299,0.00425353
0.0970465,0.00673119
0.166317,0.00533324
0.210471,0.0168589
0.179525,0.0276964
0.148065,0.0145917
0.214501,0.000813897
0.112677,-0.0108482
-0.0447183,-0.0205254
-0.161351,-0.0354848
-0.316525,-0.0281741
-0.336064,-0.00767815
-0.201043,-0.0151532
-0.0940854,-0.0023383
-0.00831208,0.00914348
0.0724872,0.00501472
0.372474,0.0111016
0.920189,0.014229
0.991103,0.0279117
0.490199,0.0186744
-0.146111,0.00548715
-0.674839,0.00564461
-0.780406,-0.0100471
-0.552231,-0.00330688
-0.367881,0.00776648
-0.111967,-0.00220267
0.0135458,-0.0189598
0.00458185,-0.0158888
-0.0563415,-0.0143919
-0.0746989,-0.00388784
-0.0604958,0.0113207
-0.0155435,0.0131138
0.0431507,0.00253065
0.0610078,-0.00320781
0.0454366,0.00707199
0.0478293,-0.01784
0.0441743,-0.00618252
0.102663,0.0253424
0.135099,0.0286683
0.160864,0.0107234
0.152612,-0.000607255
0.124108,-0.00928517
0.0864497,-0.0201893
-0.0150153,-0.0195647
-0.114056,-0.0108511
-0.131568,-0.0121677
-0.119201,0.00330789
-0.000785628,0.01562
0.234126,0.00536072
0.286557,-0.00762386
0.144738,-0.0112838
-0.0884164,-0.0174835
-0.30341,-0.0136604
-0.314621,0.00620794
-0.122385,0.0356515
0.00603311,0.028041
0.0356961,0.0108319
0.0592634,0.0129349
0.09146,0.00758655
0.108631,0.00192223
0.0612417,-0.00175933
-0.0238975,-0.0102638
-0.0589077,-0.0112046
-0.102809,0.00412553
-0.0994516,0.00692097
-0.0424636,-0.0153858
-0.0678755,-0.0230544
-0.0950569,-0.01815
-0.0693975,-0.0158412
0.0185605,-0.0129662
0.0946989,0.00597339
0.096368,0.0226126
0.0581988,0.0237907
0.0529121,0.027704
0.0673606,0.000748833
0.0734622,0.00110071
0.039901,-0.0077909
-0.0352081,0.0023116
-0.0885535,-0.00692206
-0.0863437,-0.00768267
