Comp Ch 3,Comp Ch 4
0.138493,0.0206217
0.176501,0.0211418
0.133775,0.0306974
-0.00177004,0.0250065
-0.139975,-0.0256093
-0.215286,0.0421181
-0.196584,0.0531605
-0.11157,-0.0335699
-0.0537342,-0.0392029
-0.00805361,-0.0841896
0.020827,-0.0685825
0.0289599,-0.0370469
0.0365271,-0.0143587
0.0241731,0.0395214
0.0161583,0.0470906
0.0266596,0.0178897
0.00904137,-0.00755459
0.00170729,-0.0129171
-0.0011124,0.00765794
-0.0194361,0.0260671
-0.0401575,0.0368415
-0.0366493,0.0350747
0.00270322,-0.00588131
0.0176844,-0.0152723
0.0376532,-0.0287659
0.0930196,-0.0210368
0.117246,-0.000633028
0.160377,0.0572506
0.1063,0.0660517
0.0131418,0.0229359
-0.138124,0.087709
-0.254891,0.143864
-0.13676,-0.0858818
0.00128169,-0.166364
0.0596468,-0.0970786
0.054096,-0.0499512
0.0302225,-0.0109158
0.025189,0.00301075
0.0109053,-0.00397661
-0.0443046,-0.0172896
-0.0573987,-0.0555808
-0.0548396,-0.0540362
-0.0313245,-0.0401174
-0.00835968,-0.00206479
0.00893141,0.0542178
0.0607642,0.0317686
0.0800068,0.0862128
0.074485,0.0584426
0.00417472,0.0554404
-0.0354888,0.0957286
-0.00757343,-0.0121472
-0.0101224,-0.0808446
-0.0373698,0.00942362
-0.0285028,0.116131
0.00755623,0.042541
0.032203,-0.0578918
0.0350517,-0.0139973
0.0326139,-0.0383867
0.031043,-0.0591284
0.0185733,-0.0548834
0.00585981,-0.0481668
-0.0031587,-0.000797623
-0.0109339,0.0253466
-0.00128835,0.0199841
0.0230242,0.0319236
0.00669292,-0.0169159
-0.0155571,-0.0676751
-0.00269931,-0.0209354
-0.0174475,0.0519984
-0.0188926,0.0350913
-0.0458069,0.0113706
-0.0346836,0.0358481
-0.0207895,0.0169549
-0.0646266,-0.0117798
-0.0784174,-0.0570265
-0.0044488,0.000316892
0.0581065,0.0225171
0.0733514,-0.0318502
0.0484712,-0.0114697
-0.018983,0.0612901
-0.0682525,-0.0261419
-0.053685,-0.0726035
-0.0192328,-0.0248033
0.0146432,-0.011809
0.00992544,-0.00586597
0.0282095,0.0022937
0.0555468,0.0236757
0.0525348,0.0430307
0.101303,0.050628
0.105202,0.0549627
0.0665414,0.0361964
0.0660096,-0.0151513
0.00398336,-0.0445545
-0.123806,-0.0320662
-0.139954,-0.00132107
-0.0738039,0.0383046
-0.0212526,0.0146564
0.0060434,-0.0240273
0.0175633,-0.0182839
0.0270626,-0.00535878
-0.0021726,0.0122019
-0.0240856,-0.00863377
-0.033272,-0.0629403
-0.0316388,-0.0483542
-0.0423335,-0.0222724
0.00103888,-5.21e-05
0.0298042,0.0292427
0.0202734,0.0240641
0.0292972,0.00477776
0.0141559,-0.0129188
-0.00408145,-0.0153739
-0.0196934,0.00591367
-0.0323882,0.0229986
-0.0457959,0.0201242
-0.0786699,0.016699
-0.0731552,0.00508126
-0.0338508,-0.0111812
0.0126746,-0.00565736
0.0650464,0.0235643
0.0792583,-0.00765915
0.0694227,-0.0457533
0.0537811,0.0105994
0.0241458,0.0243088
0.00408736,0.0124213
0.0124182,0.0210358
0.0210244,0.0369612
0.0245349,0.0408277
0.0279012,-0.0362157
0.01481,-0.0381395
0.0187249,-0.00358099
0.0311185,-0.00862475
-0.00150123,-0.0203701
-0.0295271,-0.00390274
-0.0214529,-0.0156376
-0.0388339,-0.012245
-0.0653313,-0.00157162
-0.0292795,0.00929988
0.0114373,-0.0022688
0.00786807,0.016312
-0.0102373,0.0350967
-0.0139595,-0.00565132
0.00234479,-0.0394548
0.0139333,0.00521167
0.0160334,-0.00701593
0.0129088,-0.0237416
0.000309073,-0.0308685
-0.00984007,-0.0395832
0.00535561,0.00289602
0.00676521,0.044736
-0.00753561,0.0275969
-0.00146974,0.0235967
0.00253343,0.0291873
-0.00116254,0.0614568
0.011746,0.0192792
-0.0223228,-0.0236503
-0.0756429,0.0448309
-0.0711695,0.00439524
-0.00574125,-0.0521216
0.0376357,-0.0420958
0.0410904,-0.0617907
0.0309347,-0.0401762
0.0355473,-0.026216
0.0256043,-0.00477155
0.0101771,0.0309449
0.00361379,0.0247826
-0.00388701,0.053352
-0.0161139,0.059583
-0.0123973,-0.0252364
-0.00830464,-0.0412844
0.00357393,0.0208289
0.0348156,0.0228728
0.0275958,-0.0320822
0.000355797,0.00534495
-0.0238127,0.0267155
-0.0337704,0.012781
-0.0130179,0.00558594
-0.00961985,-0.00433944
-0.0132461,-0.0346558
-0.0233736,-0.0167488
0.0120499,0.0164423
0.0286791,0.0141117
0.0167129,-0.0108599
0.0281485,-0.0303552
0.0234883,-0.068054
0.0128502,-0.0522409
-0.0009595,-0.0113142
-0.0128898,0.0186843
-0.0200047,0.0333538
-0.0360868,0.0381996
-0.0200215,0.0271913
0.0186535,0.0121169
0.0327779,0.0181158
0.0173028,0.0350804
0.00435851,0.0638995
-0.00150855,-0.0103396
-0.027184,4.62e-06
-0.0470697,0.0598916
-0.0246374,0.00813945
0.0119392,-0.113473
0.00759366,-0.0586382
-0.0117095,0.00961209
-0.0121224,-0.03455
0.00224062,-0.0336547
0.0148296,-0.0207884
0.0180991,0.0375877
0.0147209,0.0708204
0.00528789,0.0486866
-0.0112751,0.0520417
-0.0152275,0.0272432
-0.0165397,0.0405259
-0.00468958,-0.0730675
-0.00602018,-0.0636684
0.00668426,-0.0295043
0.0215825,0.0137212
0.0173674,0.0120245
0.014322,-0.0239212
0.0163978,-0.0340567
0.000582846,-0.0292848
-0.0142521,-0.0286767
-0.0203474,-0.00940232
-0.0072035,0.0182211
0.00818743,0.0220899
0.0125546,0.0335961
0.00501269,0.029365
0.00455077,0.00251337
0.00599656,-0.0133438
-0.00769801,-0.00323418
-0.0209948,0.00347548
-0.0139352,0.0195177
0.0247821,0.0174064
0.0388639,-0.0147794
0.00434667,-0.0337948
-0.0259623,-0.0228761
-0.0335476,-0.0210061
-0.0312916,-0.0195128
-0.0520936,-0.000880164
-0.0493574,0.0452205
0.0258229,0.0921595
0.0681151,0.0296612
0.0528255,0.00723869
0.0567895,0.00385235
0.095751,-0.0283626
0.0806235,-0.0343054
-0.0112211,-0.011664
-0.085267,-0.0176103
-0.101506,0.0143447
-0.0740876,0.00290075
-0.0153307,-0.0298237
0.0259256,-0.0446585
0.0189022,-0.0373552
0.00543971,-0.0214794
-0.00718447,0.00690902
-0.0175197,0.0420805
-0.00955913,-0.00554569
-0.00440762,0.00104099
-0.00407544,0.0369051
0.00500934,0.0347138
0.0113864,0.0274734
0.0179515,-0.00852541
0.0160978,0.00185763
-0.0015884,0.0158041
-0.0208746,0.0134795
-0.0285204,0.00882532
-0.0385879,0.000582275
-0.0488197,-0.0133121
-0.0538701,-0.0406095
-0.055007,-0.0488453
0.0219757,-0.026422
0.087273,-0.0254995
0.0686298,-0.0322745
0.0588929,0.0182767
0.0170346,0.0406667
-0.0147197,0.042355
0.0150875,0.049769
0.0516167,-0.0391159
0.0446734,-0.0487987
0.0123556,-0.0155963
0.00214459,0.00601306
3.64e-05,0.0224726
0.00489029,0.027435
-0.00383881,0.0377943
-0.021952,0.0601297
-0.0180177,0.0326843
-0.00816392,-0.00257883
-0.0077587,-0.104276
-0.0133735,-0.0799482
-0.0353153,-0.00405892
-0.0395855,0.0122138
-0.0174414,-0.00156062
-0.0214045,0.00677401
-0.0241012,0.00645149
-0.0178741,-0.00229636
0.0129135,0.00668104
0.0645258,0.00692152
0.0826104,0.0114087
0.0662964,0.0356036
0.0603588,0.0519833
0.0196242,0.0169439
-0.0566485,-0.0367225
-0.0902866,-0.03835
-0.0749865,-0.00325234
-0.0363338,0.0146816
-0.00398463,-0.00101016
0.020472,-0.00561795
0.0326827,0.011653
0.0261606,0.020128
-0.00811737,0.0106528
-0.0284896,-0.00876022
-0.01981,-0.0148423
-0.00598272,-0.0209005
0.00264567,-0.00500381
-0.0050033,0.0255277
-0.0122143,0.0141602
-0.00900014,-0.00142164
-0.00027425,-0.010912
0.00627957,-0.0103056
0.0198412,0.00490313
0.01996,-0.00940851
0.0123106,-0.0250999
0.00943504,-0.015048
0.00554362,0.0280141
-0.00940102,0.0188011
-0.0246676,-0.0256637
-0.0201857,-0.028907
-0.00439205,-0.0314481
0.00592744,-0.0351791
0.0107106,-0.0180414
0.0113351,0.0293537
-0.00474644,0.0502981
-0.00742056,-0.00564005
0.00567517,0.00989612
0.0146858,0.0256927
0.0152833,0.0224033
0.0107704,0.0228722
-0.0040013,0.0401801
-0.00463111,-0.0148687
0.00418741,-0.0431497
0.00653121,0.00858268
0.0167078,0.014825
0.0150669,-0.0220977
0.00147557,-0.00564267
0.010023,-0.0402322
0.0185018,-0.0503075
0.00358762,-0.0251926
0.00491394,-0.00662614
-0.0118784,0.0323747
-0.0528057,0.0786714
-0.0442865,0.0731071
-0.00052945,-0.0330718
-0.000548868,-0.0125167
-0.000479373,-0.0286584
0.0139674,-0.0516374
0.00914857,-0.0065855
0.0198695,0.0209757
0.0265846,-0.0199258
0.0158305,-0.0774139
-0.00223261,-0.0783123
-0.019638,-0.0166025
-0.00447228,0.0250228
0.0166018,0.0599267
0.0322981,0.072103
0.0043583,0.0548401
-0.0279698,0.0353443
-0.0506222,0.0307608
-0.0926682,0.0415575
-0.0592262,0.0424781
0.00767658,0.00810363
0.0249094,-0.0801218
-0.000295093,-0.0792302
0.00872296,-0.0298275
0.0390394,0.0314148
0.0330729,0.0735516
0.0192466,0.0491414
0.0194541,-0.0565921
0.0206571,-0.0628621
0.0182693,-0.0343407
0.0071592,-0.0155331
-0.0199259,-0.00143787
-0.0224571,0.0308534
-0.000354013,0.0555895
-0.0219218,0.0556728
-0.0611862,0.0774139
-0.0594344,0.0512315
-0.00733158,-0.120412
0.0169074,-0.0685438
-0.00541404,0.010154
0.0318335,-0.0172896
0.108016,-0.00179546
0.0788288,-0.00325728
0.0194967,0.00726274
-0.0282588,-0.0118365
-0.0385154,-0.0339419
-0.0260977,-0.0227085
-0.00842432,-0.00670089
-0.0126833,-0.00790597
-0.0319961,0.0274714
-0.0235951,0.0366915
0.00779767,0.00294332
0.0464996,-0.0231961
0.0565048,-0.00333075
0.0346651,0.0195956
0.0081689,0.0207466
-0.0265842,0.0128368
-0.041139,0.0126622
-0.0322188,0.00946458
-0.0246133,0.00474951
-0.0174391,0.0060122
0.00519964,-0.00282621
0.0236635,-0.0317971
0.0149515,-0.0331855
0.00676625,-0.0114141
0.0075237,0.00391301
0.00701861,0.0238967
0.0164,0.0196547
0.0235648,-0.017376
0.0123921,-0.0179876
-0.010093,0.00765102
-0.0230942,-0.0213462
-0.0378897,-0.00607266
-0.0385632,0.0363721
-0.00751354,0.013488
-0.00112468,-0.0109439
0.000211258,0.00399272
0.0206588,0.0168976
0.0292336,0.00214713
0.0100259,-0.0139217
-0.00979445,-0.0406317
-0.00812308,-0.0201563
-0.00116816,0.0105633
0.0160907,0.0230531
0.023903,0.0086506
0.0104095,-0.0114272
-0.00145951,-0.00999964
-0.00367986,0.0028322
-0.0132606,0.00603704
-0.0284196,-0.00796485
-0.0176567,-0.00587205
-0.00901159,0.0258577
-0.00227558,-0.000998383
0.0256919,-0.0230306
0.0328706,-0.0126466
0.0101683,-0.0163359
-0.0122086,-0.0192687
6.4e-05,0.00162122
0.0134575,0.0254159
-0.0230756,-0.00164619
-0.0334202,-0.0374784
-0.0177294,0.000420227
0.00278276,0.0106736
0.0308522,0.0984875
0.0335233,0.0933383
0.0206098,-0.0626713
-0.00768593,-0.0686662
-0.0443856,-0.0350355
-0.0401134,0.00380332
-0.00880542,0.00306326
-0.0026232,0.00200563
3.05e-06,-0.00437537
-0.00367813,0.0151071
0.00294815,0.0332471
0.0149689,-0.00610834
0.0102829,0.00095655
0.0140674,0.0258063
0.0410124,0.00459056
0.0448557,-0.0380052
0.00415823,-0.0188873
-0.0184946,0.00716395
-0.0125346,0.028034
0.00664826,0.0309472
-0.00162044,0.024041
-0.0161917,-0.0551725
-0.0180127,-0.0437722
-0.0180135,-0.0132877
-0.0165113,-0.00257699
-0.00687068,-0.00958947
-0.0113957,-0.0317893
-0.0293905,-0.020275
-0.033585,0.0767876
-0.0181275,0.112227
0.0130293,0.0157847
0.0311024,0.0148478
0.034531,-0.00289594
0.0297117,-0.0642333
0.0152038,-0.0387848
-0.0016294,0.0164244
-0.0152694,0.0377779
0.00817672,-0.0153431
0.0146932,0.0121689
0.00483364,0.00180309
-0.00394636,0.00403921
0.00869277,-0.0275344
0.010747,-0.0786781
-0.00785465,-0.0580042
-0.0111249,-0.0334544
-0.010876,0.000339518
-0.0126916,0.0686868
-0.0178984,0.0677373
-0.00883169,0.0107417
0.0162281,-0.000740077
0.0301301,0.00516364
0.0328971,-0.0104657
0.0215379,-0.0299716
0.00642869,0.0177742
0.00503748,0.0381657
-0.00479776,0.0228476
-0.013659,-0.00215119
-0.0144895,-0.00503194
-0.0218923,-0.00864689
-0.0290975,-0.0190089
-0.0291836,-0.0273535
-0.0244574,-0.0326031
-0.00917941,-0.0172552
0.0215423,0.00253296
0.0287746,0.0110345
0.0238577,0.00787187
0.0269868,0.0197423
0.0316503,0.00271627
0.0193481,-0.0119254
-0.0192617,0.0159625
-0.0561553,0.0265513
-0.0220867,0.0227885
0.00471169,0.0138324
0.00402134,0.0102907
-0.000406559,-0.00664232
-0.0100067,-0.0212179
-0.0197833,-0.0218491
-0.0231173,0.00417884
-0.0245765,0.0299929
-0.00106654,0.0318853
0.00995793,-0.02043
0.0102213,-0.0410732
0.0582825,-0.0230631
0.0386684,-0.00963213
-0.00674205,0.0255134
-0.0136555,-0.000443348
0.00121015,-0.00964449
0.0130922,0.0199411
0.0129048,0.0161826
-0.000185141,0.0109286
-0.00156009,0.0217134
0.0110913,-0.00342445
0.00643757,-0.0491004
-0.0139774,-0.0300342
-0.015443,-0.0537646
-0.013566,-0.055788
-0.0110731,-0.00358703
-0.00861509,0.0384662
-0.0172264,0.0189852
-0.0289802,-0.00239534
-0.0144274,-0.0144258
0.012618,0.013572
0.0305888,0.0159478
0.0392819,0.0372303
0.0149535,0.0579236
-0.0105918,0.0112893
-0.0221069,0.0131982
-0.0095215,0.0267415
0.00510175,-0.0610527
0.0111916,-0.0496174
0.00711027,-0.0137248
-0.00947146,0.0133345
-0.019274,0.0558905
0.00255876,0.0484769
0.0303683,0.0149964
0.0306652,-0.0327071
0.0134977,-0.0220047
0.0134532,-0.000231052
-0.0106085,0.00931855
-0.0327257,-0.00380446
-0.0276547,-0.00568086
-0.011389,-0.00419784
-0.00593364,-0.0105532
-0.0130604,-0.0190304
-0.0300094,-0.0334582
-0.027681,-0.0180299
-0.0110779,-9.77e-05
0.0110727,-0.00604885
0.0128779,-0.0247594
-0.000689177,0.0132712
-0.00300413,0.0589177
0.016537,-0.0151373
0.0162484,-0.0385688
0.00822965,-0.0521255
0.0114625,-0.0200066
0.00677087,0.00733265
0.0026449,0.0140023
0.0200157,0.0514386
0.0285016,0.0523186
0.0209987,0.0117236
0.0142722,0.00312858
0.0256212,-0.00376159
0.0287765,0.00674658
-0.0100535,-0.0161945
-0.042494,-0.0197458
-0.0381662,-0.00799965
-0.0123773,0.0103506
0.00660045,0.0181749
0.0315365,0.00643396
0.0204514,0.0055035
-0.022191,0.00925767
-0.043041,0.000797729
-0.0256361,-0.00652055
-0.000517482,0.0215269
0.0294566,0.0284806
0.033375,0.00266822
0.00235471,-0.00271362
-0.0134928,-0.00398283
-0.0109104,-0.021723
-0.0107305,-0.013745
-0.0221773,-0.00710301
-0.00469175,-0.0105152
0.0169712,-0.0106042
0.0211092,-0.0569658
-0.00842121,0.00244535
-0.015603,0.0135244
-0.0040416,-0.018094
-0.0103856,-0.004083
-0.0127649,-0.00367856
-0.0214386,0.00337222
-0.0171204,0.029895
-0.00466121,0.0307974
-0.00091752,0.00962838
0.0117485,0.027583
0.0139094,0.00550174
0.0108386,-0.0401557
-0.00165091,0.0410941
-0.0121036,0.0875211
0.00496226,-0.0400176
0.038696,-0.0596705
0.0467452,0.0022657
0.0103888,-0.00291745
-0.00757399,-0.0467943
-0.00323928,-0.0213093
-0.00520972,-0.00272377
-0.0213119,-0.000638357
-0.0185775,0.00698271
-0.00636522,0.053907
0.0080977,0.0110918
0.0120539,-0.011761
0.00273137,0.00688075
0.00727262,-0.0202158
0.0144293,-0.0534587
0.00149274,-0.0445294
-0.0307165,-0.021592
-0.0462184,0.00861583
-0.0249575,0.058913
-0.00767979,0.0465722
-0.00234072,0.028807
-0.0124126,0.0102455
-0.0349499,0.00325285
0.00321664,0.00551093
0.0559806,-0.018385
0.0366077,0.00296708
0.0462675,0.056563
0.0970123,0.0786886
0.047885,-0.0169745
-0.0271519,-0.0686006
-0.0788263,-0.0088924
-0.101784,-0.013671
-0.0525051,-0.0325646
0.000256217,-0.0443735
0.0218695,-0.0154968
0.0425243,0.0100403
0.0481587,0.00273561
0.0468609,-0.0407175
0.0357326,-0.0416787
0.00254683,0.0043401
0.00183924,0.0624186
-0.00515402,-0.0166932
-0.0369192,-0.0129735
-0.0518686,0.0426145
-0.0767817,0.0176161
-0.0404229,0.00560531
0.0293595,0.00191429
0.027498,0.0111097
0.0187078,0.0359395
0.0124261,0.0134436
0.0144281,0.000859148
0.034965,0.0130627
0.0436571,0.00127974
0.0159744,-0.0183854
-0.0141106,-0.021381
-0.0307065,-0.0194244
-0.058908,-0.0206776
-0.057245,-0.0201323
-0.0200441,-0.00901788
0.0315056,0.00516309
0.0444741,-0.00302569
0.0479121,-0.00532224
0.0321045,0.00301499
-0.00261494,-7.33e-05
-0.0186704,-0.0210751
-0.0245139,-0.0199001
-0.0212527,0.0138277
-0.0361271,0.04349
-0.0262002,0.0578743
-0.0110727,0.0438592
-0.0231365,-0.0241015
-0.0424606,-0.0612712
-0.035898,-0.0198289
-0.0197965,-0.0202385
0.0107015,0.0329928
0.0169682,0.0164746
0.0256615,-0.00686649
0.071217,-0.0111558
0.103254,-0.0196888
0.085453,-0.0245171
0.0373298,-0.0170846
0.0182081,0.00682429
0.00661366,0.0340173
-0.00597513,0.0328623
-0.0127707,0.0513342
-0.0262272,-0.00318064
-0.0330285,-0.0425274
-0.0312849,-0.0165993
-0.0262033,0.0178463
-0.0157062,2.43e-05
-0.00100187,-0.0121544
0.0191192,-0.00703926
-0.0156918,0.00943715
-0.0441012,0.0178939
0.0158431,-0.0100865
0.0168367,-0.0106019
0.00619746,0.0133929
-0.0228557,0.00854813
-0.0208278,0.013008
0.0147204,-0.0108982
0.0177176,-0.036736
-0.0197192,0.0203222
-0.0132611,0.0156013
0.00696774,-0.0234755
0.0271408,0.00625303
0.0266351,0.0482655
0.00550012,-0.0346884
-0.0143991,-0.0177952
-0.0168336,0.0751635
0.00461515,0.0383537
0.0111776,-0.0445076
-0.0264937,-0.0367069
-0.027252,-0.0437207
-0.0208815,-0.0204986
-0.0124676,-0.0111518
0.00861858,-0.00528836
0.0125247,-0.0058059
-0.00770349,-0.001576
-0.0058573,0.0193483
-0.000978386,0.0288114
-0.00519915,0.0111117
-0.00574828,-0.0209481
-0.0142173,-0.012233
-0.0215416,-0.00187036
-0.00745367,0.00889029
0.0269245,0.0226311
0.0435351,-0.00063623
0.0170801,-0.00790455
-0.0115046,0.000308799
-0.0241755,0.00305488
-0.0110346,-0.00191194
0.0262398,-0.00214599
0.0458605,0.0251989
0.0653918,0.011706
0.0662254,-0.0190268
0.0447449,-0.0064549
0.00157198,-0.00443637
-0.0315248,-0.0115123
-0.03924,-0.00496092
-0.0406062,-0.00170459
-0.0437694,-0.00339658
-0.0534631,0.00344554
-0.0335178,0.0144303
-0.0292854,0.0152112
-0.0357462,0.00933923
-0.0152763,0.0081307
0.0236674,0.00147693
0.0316929,-0.00239156
0.0608054,0.00187352
0.0374533,-0.00707202
-0.0168574,-0.00584996
-0.0164854,0.0109967
0.0191306,0.0227161
-0.0299298,0.0168017
-0.049705,0.00547735
-0.044553,-0.0215602
-0.0413514,-0.0201056
0.00368227,-0.0156249
0.0593189,-0.028326
0.0605229,-0.0210557
0.0880721,-0.00920343
0.0405492,-0.00237194
-0.012542,0.00443182
-0.0285462,0.0210738
-0.042967,0.0264829
-0.0374844,-0.0178062
-0.000800131,-0.0248928
0.0426807,0.0141823
0.0389147,0.0421057
-0.00726019,0.0912934
-0.0545642,0.0535214
-0.011805,-0.0361604
0.0272327,-0.0366643
0.0391878,0.0100512
0.0595629,0.0174018
0.0555847,0.00894655
0.0260844,0.0346605
-0.0172683,-0.00607935
-0.0429578,-0.0648898
-0.0391308,-0.0682838
-0.0315589,-0.0518805
-0.0293981,-0.0396018
-0.0243235,-0.00648229
-0.00923677,0.0629663
-0.00316441,0.108536
-0.00164503,0.0566704
0.00372122,-0.056093
0.00912056,-0.0959325
0.00943966,-0.00677281
0.0031746,-0.141109
-0.00280473,-0.428598
-0.0102781,-0.46015
-0.0110707,-0.3321
-0.00605728,-0.0962287
-0.00227309,0.223283
-0.0067371,0.468113
-0.0129061,0.559921
-0.0190605,0.473865
-0.0175274,0.252154
-0.00684373,0.0310789
0.00270502,-0.120137
0.00643168,-0.143268
0.0119005,-0.056794
0.0135626,0.06376
0.00896985,0.108345
0.00918648,0.0802864
0.010584,0.0204275
0.00852836,-0.0113045
-0.00126681,-0.0178523
0.000975405,-0.0155887
0.00302524,-0.0238799
-0.000614456,-0.0440612
-0.00182863,-0.0645396
-0.00350475,-0.0854446
-0.00622681,-0.0841608
-0.00677278,-0.0759229
-0.00899099,-0.0620136
0.00528558,-0.0431923
0.026981,-0.0237168
0.0209873,-0.000205734
-0.00392382,0.0181552
0.00504223,0.0144342
0.017566,0.00838739
0.0214972,0.0106911
0.0105001,0.00940643
-0.017666,0.0108598
-0.0305056,0.0267847
-0.0147599,0.00664754
-0.00523412,-0.0354543
-0.00472286,-0.0432771
-0.00349981,-0.0402143
0.00655579,-0.0565495
0.0124492,-0.0355699
0.0131585,-0.0206029
0.00603819,0.00599636
0.00248539,0.0406441
-0.00475496,0.0220486
-0.000687642,0.0232523
0.00162686,0.00856308
-0.00869837,0.0417561
-0.0104605,0.0359938
-0.0108696,0.0138059
-0.0231195,0.0556217
-0.0148228,0.0502257
0.0134028,-0.0209908
0.00722555,-0.0465345
0.00349029,-0.0622177
0.00998944,-0.0479038
0.0152904,-0.0374194
0.014556,-0.026887
0.0112498,0.0176901
0.00898215,0.0159623
-0.00964408,0.0256476
-0.0424879,0.0367257
-0.0446634,-0.0160325
0.00578329,-0.00357217
0.0211613,0.0245781
0.0084912,0.0171987
0.023203,0.0227066
0.0350586,0.0323787
0.00706631,0.0132104
-0.012372,-0.00262305
-0.0171392,-0.027296
-0.00434081,-0.0464703
0.048299,-0.0426592
0.0217094,-0.00783996
-0.0900498,0.031977
-0.112731,0.0104774
-0.0650077,0.0508641
-0.0206806,0.104687
0.0098569,-0.0139376
0.0478865,-0.0882234
0.0578983,-0.0453743
0.0811212,-0.0412984
0.0727603,0.0208087
0.0479396,0.0449939
0.0545602,0.0307643
0.0558963,0.0273245
-0.0060545,0.00288219
-0.0666335,-0.0124417
-0.0713359,-0.0498407
-0.0404924,-0.0762591
-0.0304658,-0.0198117
-0.0102909,0.00790616
0.0403476,0.0142026
0.0591333,0.0272267
0.0224105,0.0163562
-0.0432727,0.000276325
-0.0978976,0.00928884
-0.0622396,0.0207814
0.0523284,-0.00101036
0.0268142,-0.0191155
-0.0495056,0.009808
-0.067166,0.0376311
0.0134657,-0.00353086
0.0291183,-0.00817742
-0.0593263,0.00725659
-0.132419,0.00862058
-0.102946,-0.00112281
0.0315497,0.0102158
0.164191,-0.0469417
0.150491,-0.105494
0.077862,-0.00756036
0.0109362,0.0926878
-0.00816781,0.0539806
0.102575,-0.040599
0.162027,-0.0169745
0.0594158,0.0600287
-0.0824145,0.0647381
-0.116419,0.0658189
-0.0693122,-0.000209515
-0.0561374,-0.0469828
-0.0805041,-0.0359467
-0.0946156,-0.0590302
-0.0530568,-0.0232154
0.0209003,0.00816161
0.0210927,-0.00297949
-0.0521004,0.0119496
0.104002,-0.0185501
0.111513,-0.0326141
0.0526291,-0.081695
0.0313176,0.0116691
-0.0365348,0.0756089
-0.045749,-0.000504994
-0.0205009,0.0772407
0.00564616,0.0661321
0.0560663,0.0154513
0.0286987,-0.0648955
-0.0907548,-0.0791299
-0.0349734,-0.0491642
0.0162682,0.00957909
-0.0739652,0.0742318
-0.134129,-0.0369769
-0.110241,-0.0574462
0.104513,0.0350375
0.199594,0.0126134
0.0251266,0.0243087
0.0100178,0.05127
0.0825883,-0.0363186
0.00406268,-0.00539338
-0.159235,-0.00511215
-0.23298,-0.0827043
-0.11679,-0.0644985
0.062635,0.0095052
0.0996261,0.0446219
0.159019,0.0849627
0.228452,0.106475
0.173179,-0.028268
0.0137332,-0.111671
-0.189181,-0.017282
-0.280097,0.111181
-0.326127,0.0260796
-0.238163,-0.107919
0.156314,-0.0339927
0.276229,0.0113285
0.225477,0.0216835
0.147582,0.00118082
0.249572,0.0245317
0.309445,0.0288525
0.198558,-0.0473067
0.0191541,-0.0301577
-0.231165,0.00323597
-0.294204,-0.0245446
-0.213482,-0.054959
-0.127894,-0.0524735
-0.0463218,-0.0442617
0.00790953,-0.0138912
0.117782,-0.00928506
0.150645,-0.0321834
0.149855,0.0337971
0.152806,0.110105
0.159927,0.115254
0.0334809,0.155151
-0.156744,0.0649585
-0.240431,0.0106554
-0.307051,0.0104344
-0.336211,0.0429218
-0.17954,-0.0263217
0.0379488,-0.0365565
0.0643099,-0.0734802
0.0172418,-0.0719136
0.0134623,-0.0255863
0.0197524,-0.0240375
0.0374408,-0.0219722
-0.034549,-0.0049611
-0.0748702,0.0324145
-0.0125628,0.00450455
-0.0452388,0.00583773
0.0169327,0.0195323
0.113835,0.0194994
0.193042,0.00144765
0.15807,-0.0855555
0.0394527,-0.00835335
0.00860023,0.0249179
-0.0561216,-0.0199772
-0.0473996,0.00403093
0.0832757,0.0123106
0.0984907,0.051227
-0.00613083,0.0401719
-0.0186848,0.0789789
0.00476556,-0.0231578
0.0220778,-0.0715875
0.0273683,0.0266563
-0.010235,0.0189995
-0.0298907,0.00209553
-0.0396037,-0.0658094
-0.12956,-0.0280127
-0.0487124,-0.00506974
0.088824,-0.0398831
0.0435512,-0.0738553
0.0400224,-0.00625849
-0.00970646,0.0598098
-0.0789832,0.0411265
-0.0836513,-0.0149369
0.0387727,-0.0218685
0.101838,0.0213026
0.0510722,0.01968
0.0160452,-0.0456243
0.0349748,-0.0285572
-0.0401951,0.0104717
-0.0659768,0.00756827
-0.0987613,0.00393845
-0.0655828,0.00519669
-0.0148754,0.00224886
-0.016568,-0.00193569
-0.00274038,-0.000917483
-0.0156433,0.00445437
-0.0364678,0.0417848
-0.038874,0.0918964
-0.0172984,0.0664587
-0.00530775,0.068982
0.0308998,-0.0768164
0.0638256,-0.123665
0.0771641,-0.0884777
0.0540555,-0.0135513
0.0552849,0.0137849
0.0485273,0.0697072
0.0508811,0.0397924
0.102804,0.00101831
0.0299998,0.0167594
-0.118694,-0.0129918
-0.165681,-0.0256843
-0.106615,-0.0249401
0.00473119,-0.0239084
0.0653052,-0.00844981
0.0527421,-0.0351103
0.0176645,-0.0198305
-0.00532385,0.000227117
0.00996007,-0.00463495
0.0241889,0.00772926
0.0126024,-0.00802082
-0.0159871,-0.00791901
-0.0269445,0.0221984
0.0663735,0.0554281
0.10124,0.0308577
0.122092,0.0315384
0.076372,0.0198819
-0.123724,-0.0554941
-0.235911,-0.0380324
-0.14174,6.2e-05
-0.0119359,-0.015011
0.0248646,0.0202031
0.0102889,-0.00359171
0.00994097,0.0143906
0.0226068,0.0118038
0.0456377,-0.000466968
0.0311797,-0.0372656
0.00255282,-0.0335548
-0.0193642,-0.00983321
-0.0558035,0.0121862
-0.0850032,0.011908
-0.0671621,0.0174019
0.0189533,0.0213523
0.0140093,0.00667447
0.0338236,0.0183546
0.0741653,0.0252677
0.0935846,0.0141509
0.0914778,0.0115496
0.0284904,0.0173095
-0.0692834,0.0240154
-0.032004,0.00205514
0.00288988,-0.0276417
-0.00132934,-0.0490794
-0.0107772,-0.0489184
-0.00105567,0.0176768
0.0829702,0.0191737
0.0572403,-0.019469
-0.032955,-0.0300173
-0.095391,0.0230054
-0.0793321,0.0238747
-0.035613,0.0153236
-0.0591254,-0.00429775
-0.0759301,0.0120159
-0.0171307,0.0382927
0.0305349,-0.0198128
0.07434,-0.00767601
0.120946,0.0118746
0.0870182,-0.0268569
0.0885426,-0.0521718
0.0542995,-0.03377
0.00334979,-0.00286793
-0.0324823,-0.0064453
-0.0172104,-0.0487023
-0.00483802,0.00951088
-0.0367993,0.0569312
-0.0648907,0.0619516
-0.116969,0.0207097
-0.0676639,-0.00593818
0.026476,0.048089
0.069882,0.0701025
-0.0300074,0.0600669
0.0628794,0.0553612
0.136094,-0.0355303
-0.0371501,-0.149012
-0.0960073,-0.0773233
-0.0297448,-0.0190892
0.0162221,-0.0127538
0.0303301,0.0203222
-0.00332653,0.00108766
-0.0403955,-0.0617944
-0.0876968,-0.0461567
-0.0509437,0.0410543
-0.00844984,0.0692506
0.0405019,0.100077
0.1112,0.0802309
0.139299,-0.0085129
0.0682091,-0.0800532
-0.0158666,-0.0732379
-0.0461494,-0.0383899
-0.00910609,-0.0104506
-0.0213158,-0.0149379
-0.0301668,-0.00161006
-0.0126481,-0.0323913
-0.00967265,-0.00770685
-0.0249429,0.0335568
-0.0333165,0.0381592
-0.0279869,-0.0258899
-0.0205967,-0.000424636
0.0192297,0.0311808
0.0469734,-0.0118626
0.00750664,0.00154232
0.019667,0.0160302
0.0534285,0.0456684
0.0499879,0.026356
-0.0500679,-0.0390188
-0.0933533,-0.031363
-0.016366,0.0209167
0.00947678,-0.0625395
-0.0376892,-0.0588833
-0.0592857,-0.0181569
-0.0201105,0.000733823
-0.0142494,0.0690212
-0.0175636,0.0825
0.00356275,0.00896947
-0.0234175,-0.0379655
-0.0311469,0.00418867
0.0318812,-0.000953112
0.0104894,0.00979557
-0.022141,0.0558939
0.014348,0.113569
0.136751,-0.0303749
0.120228,-0.0810051
-0.000332521,-0.0444659
-0.0310107,-0.00503615
0.0342137,-0.00901744
0.0194661,0.00101162
-0.0129304,-0.0178069
-0.00198636,-0.0140492
-0.0104076,-0.00268668
-0.0223783,0.0147788
-0.0279234,0.0196939
-0.00920013,0.0115069
0.0300362,0.0303727
0.00348191,0.0169449
-0.0294638,-0.0447407
0.0155036,-0.00518844
0.0248126,0.0274755
-0.0176605,-0.0148295
-0.0255775,0.0384686
0.00360018,0.0448995
0.0146722,-0.0369788
-0.0223277,-0.0335624
-0.0188298,-0.0186372
0.000880668,-0.0070053
0.00733229,0.0420602
-0.00929204,0.0302614
-0.0218277,-0.00891194
-0.0520648,-0.00603526
-0.067826,-0.0391602
-0.0411795,-0.053974
-0.0717503,-0.0311036
-0.0463133,0.00505378
0.043536,-0.00592174
0.185439,-0.0240417
0.167698,0.000583977
0.0197847,0.0265353
-0.0117565,-0.0341158
0.0454468,-0.0390253
0.0241687,0.00978452
0.0499638,0.0201844
0.0271591,0.0233868
-0.0261696,0.0201637
-0.0840948,0.0103591
-0.0846401,-0.0299068
-0.0612048,-0.0253697
-0.042386,0.00105493
-0.0177042,0.0200854
0.0155303,0.02711
0.011972,-0.000976278
-0.036075,-0.0049365
-0.0493824,0.00846313
-0.0214789,-0.0227933
0.0267316,-0.0126064
0.0291728,0.00826798
0.0467323,0.0143349
0.0570945,0.011406
0.0352799,0.00794798
0.00288201,0.0202517
-0.00378791,0.0427583
-0.0125266,0.0432588
-0.0697571,0.0822759
-0.095861,0.0667145
-0.0624235,0.0275784
0.0165377,-0.0400325
0.0442075,-0.0927766
0.00124721,-0.0152088
-0.0171979,-0.00848673
0.0350968,0.0178358
0.0861647,0.035815
0.0728875,-0.0156967
0.0421161,-0.0620667
0.0411121,-0.0426337
0.0348499,0.0279853
0.0371898,0.0350899
-0.00529674,-0.0168506
0.00984275,-0.00714626
-0.0419055,0.0115249
-0.0258575,-0.0182796
0.000259865,-0.0249067
-0.131099,-0.0305951
-0.191607,-0.0330613
-0.0766664,-0.0340096
0.0285246,-0.00743273
0.0969489,0.00498595
0.1265,0.0294995
0.0896258,0.0240962
0.033694,0.0161683
-0.0289641,-0.012447
-0.0594151,-0.0399461
-0.0260639,0.00899936
-0.0395216,0.0506527
-0.0293683,0.0253674
0.0076238,0.00840993
0.00646921,-0.00997285
-0.00823728,-0.0255902
-0.0144929,-0.0359066
-0.00110784,-0.0261074
0.0160129,-0.00545858
0.0168004,0.0132245
-0.000712191,0.0184964
-0.00829312,0.00777808
0.0176949,0.0076065
0.055557,0.0329251
0.0461373,0.0131116
0.0156683,-0.01342
-0.0206562,-0.00419198
-0.0475811,-0.0187256
-0.0329642,0.00415114
0.0291129,0.00643189
0.0525527,-0.00218951
-0.00669562,-0.00365237
-0.0461284,0.00237947
-0.0153274,-0.0241345
0.0111071,-0.0477663
0.0187075,0.00717828
0.0170958,0.0222162
0.0188889,0.0028788
0.00480913,-0.00312697
-0.0344145,0.00842949
-0.0776251,0.0549264
-0.0701133,0.0505528
-0.00747837,0.0541121
0.0860534,0.0256097
0.144538,-0.0152862
0.0689611,-0.0410302
-0.0264911,-0.0495325
-0.0291616,-0.024134
-0.00923067,-0.00751368
-0.0918116,-0.0164101
-0.0975488,-0.00817575
-0.026537,-0.0257234
0.0244812,-0.0177616
0.0459024,0.0124917
0.0261048,-0.0212795
-0.00301143,-0.0199806
-0.00128861,0.00992204
0.018441,0.00978683
0.0162957,0.0247631
0.00344195,0.0267373
0.00346008,-0.0155606
-0.0138336,-0.0207475
-0.0337826,0.0149173
-0.0544715,0.0550054
-0.0730663,0.0499861
-0.00827318,-0.0121364
0.064207,-0.0269417
0.0630467,-0.0469778
0.036431,-0.0353877
0.0186358,-0.0161261
0.0144331,0.0025072
0.00374063,0.0196374
-0.0207452,0.0164699
0.0546647,-0.00570355
0.112599,-0.00822853
0.0460705,-0.0225838
-0.0203879,-0.00221748
-0.0599076,0.0135096
-0.0642932,0.0216333
-0.099896,0.0354582
-0.116899,0.0307758
-0.084976,0.00384291
-0.0386192,-0.0323157
0.078681,-0.000725268
0.187627,-0.0100842
0.183829,-0.0135676
0.0920853,0.0150119
0.00322575,0.0132558
-0.110454,0.022384
-0.173827,0.0385361
-0.18121,0.03309
-0.149693,-0.0061254
-0.0861566,-0.0097127
-0.0189609,-0.0243814
0.0610131,-0.0673703
0.152565,-0.0383375
0.262138,0.00163134
0.26268,-0.00936616
0.0648619,-0.00509069
-0.121382,0.0179126
-0.115822,0.0229026
-0.0440942,0.0264711
-0.103287,0.0378643
-0.141006,-0.0274421
-0.0659911,-0.0422276
0.0636798,-0.0047411
0.0386507,0.0146672
-0.210319,0.00661675
-0.17198,0.0398065
0.00779801,-0.012004
0.031447,-0.00623477
0.114773,-0.000900481
0.0715514,-0.0283424
-0.0325239,0.00401738
0.0581383,0.0132503
0.238304,0.0222721
0.211606,0.0223328
0.0334028,-0.00868547
-0.0300654,-0.0520407
0.0295358,-0.0384335
0.00652517,-0.0081755
-0.0473159,0.022878
-0.0242504,0.0462234
0.00458604,0.0247363
0.091881,-0.0279479
-0.019663,-0.0668991
-0.0230687,-0.0441062
0.0479714,0.0676292
-0.0314823,0.11163
-0.0447071,0.00130467
0.00501532,0.0131131
0.0452462,0.0045802
-0.00796713,-0.0724727
-0.0691599,-0.0457019
-0.0580881,-0.00697584
-0.0249527,-0.00416802
-0.0261238,0.019932
-0.0293158,0.0727536
-0.0193176,0.0140119
-0.00437832,-0.0504357
0.0266109,-0.00979434
0.017332,0.0149807
-0.0320303,-0.00789248
-0.0383281,-0.0295139
-0.018216,-0.00214898
0.0271929,0.0124347
0.0451788,0.0071874
0.00773715,-0.000975688
-0.0276126,-0.00421288
-0.0444675,0.00484864
-0.0338669,-0.00906746
0.0323585,-0.0344607
0.0552582,0.006562
0.018476,0.00721369
-0.031887,-0.00398134
-0.0701401,-0.00789666
-0.0809618,0.0251743
-0.0499273,0.0221622
0.0198903,-0.016615
0.0104908,-0.0167093
-0.0456525,-0.0115324
-0.0167302,0.00352847
0.00169576,0.0739419
-0.0141212,0.0370941
0.0345887,-0.00709222
0.0714448,-0.0149261
0.0375903,-0.0286921
0.0278461,-0.00623175
0.0501072,-0.0135759
0.0231666,-0.00332806
0.0168688,0.0258248
0.0380241,-0.00466583
0.0652162,-0.0128045
0.00794324,0.00762435
-0.0423925,0.00938055
-0.0203868,-0.0181072
-0.0491129,-0.00754351
-0.115282,0.00187251
-0.120032,-0.00463653
-0.0332734,0.0142701
0.043627,-0.00191616
0.0872699,-0.0328753
0.0302624,0.0115929
-0.0459987,0.00201967
-0.0211531,-0.0320076
0.00865148,-0.0449259
0.0504227,-0.0268926
0.0272465,0.0623748
0.0331412,0.0654348
0.104083,0.058799
0.0827926,0.0156344
-0.0307411,-0.040665
-0.0746394,-0.085745
-0.0382968,-0.033002
-0.0338977,0.0624161
-0.0459443,0.0558628
0.0134409,-0.0253155
0.0739873,-0.0256351
0.0326967,-0.0144399
-0.0172124,-0.00865196
-0.0249538,-0.00603369
-0.0179546,-0.0112841
-0.0111798,-0.0155218
-0.00569959,0.0317257
0.0153963,0.00961949
0.0135012,-0.0157629
0.00813308,-0.00642787
0.00397621,0.00477033
-0.0162107,0.00798234
-0.0372596,0.00841463
-0.00578639,0.00103247
0.0348966,-0.00491107
0.0231315,0.0018969
-0.00291082,0.0159518
0.00783792,0.00629045
0.0290042,-0.0286858
-0.0147947,-0.0319406
-0.0215753,-0.0251713
-0.00536211,-0.0139658
0.00225674,-0.00700033
0.0123795,0.00962713
0.00776207,0.028829
0.0288842,0.0763348
0.0513826,0.030199
0.0335819,-0.0507043
0.0135918,-0.0358458
-0.0286328,-0.0953146
-0.0617611,-0.103178
-0.0907241,-0.0268107
-0.00782118,0.0633977
0.0656684,0.0965004
0.035939,0.0613842
-0.00975764,0.0461157
-0.019876,0.0382429
0.0501645,0.0226984
0.0508322,0.00371583
-0.0134571,0.0127009
-0.0852122,0.00624394
-0.119934,0.00768917
-0.0940866,0.0291649
-0.0518144,-0.0172256
-0.0205414,-0.0167839
0.0378912,0.0143525
0.017262,0.00778588
0.0191853,-0.00798885
0.0425995,-0.00829302
0.0579738,0.00221641
0.0257666,0.0108992
-0.00987379,-0.00420311
-0.007325,-0.0216711
-0.0134863,-0.0265289
-0.0200337,-0.0273105
-0.0165117,-0.0225328
0.0180387,-0.00802324
0.0355949,-0.00263108
0.0364634,-0.0116096
0.0371915,-0.00890409
0.034218,-0.00430268
0.0271378,0.00164956
0.0250828,0.000788878
0.022224,-0.00106455
0.0179763,-0.011219
0.00788777,-0.00626454
-0.00178163,0.00664613
-6.29e-07,0.0058364
-0.0120579,-0.00428913
-0.0207995,-0.00255036
-0.0334209,0.0243551
-0.0548798,0.0250363
-0.0823482,-0.0351956
-0.107998,0.0293843
-0.0804693,0.0569691
-0.0588556,-0.0193554
0.0207118,-0.0403027
0.0682091,-0.0269214
0.0935395,0.0356928
0.15583,0.0841826
0.051143,0.0155982
-0.0055778,-0.0448827
0.00753518,-0.0138974
-0.00692729,-0.0512944
-0.0524599,-0.0140115
-0.0346507,0.0270901
0.0334163,0.0586996
-0.0162658,0.0292807
-0.0217459,-0.0750498
0.0390659,-0.0567974
0.0467466,-0.0107618
-0.0327959,-0.0214601
-0.0852646,-0.0189179
-0.0981527,0.0696384
-0.0274337,-0.0457469
0.0395709,-0.0405378
0.0545188,-0.0310628
-0.000495226,-0.010434
-0.0119341,0.0280838
0.029691,0.0484157
0.0177749,0.0354066
0.00705908,0.0108681
0.0110106,0.00672726
0.00518033,-0.0103764
-0.0134634,-0.00946633
0.00280601,-0.00433121
0.0214011,0.00713041
0.0247864,0.0132211
0.0279455,0.000749501
0.0307344,-0.00386958
0.0238345,-0.000935429
0.00177072,0.0106932
-0.0117344,0.0105863
-0.0099867,0.00605506
-0.00872659,0.00412319
-0.0234694,0.0141127
-0.0314858,0.0337672
-0.0339197,0.0314713
-0.0186453,0.0101559
-0.015948,-0.00746402
-0.025957,-0.0103862
-0.0207565,-0.00807499
-0.0111939,-0.00138489
-0.000880654,0.00860714
0.0193348,0.00282947
0.0342678,-0.0142776
0.0467276,-0.0167999
0.0439329,-0.0108
0.0179945,-0.00666248
0.00177975,-0.00968172
4.6e-05,-0.0118082
-0.00196896,-0.0149954
-0.00496953,-0.00165871
-0.0106177,0.0108251
-0.0166426,0.00078408
-0.0154123,-0.0174351
-0.00518144,-0.0250908
0.00373336,-0.0268446
0.00261518,-0.0223186
0.00258734,-0.0104839
0.00801605,0.000959062
0.0194005,-0.00506193
0.0263826,-0.0104082
0.0244305,-0.00529875
0.00973422,-0.00206994
-0.0151321,-0.000880549
-0.0444264,0.00341832
-0.0546085,0.00919016
-0.0581453,0.0164932
-0.0538018,0.0343252
-0.00420059,0.0535562
-0.00340779,0.073782
-0.0241228,0.0351363
-0.00346805,-0.0371875
-0.0198597,-0.0246822
0.00714244,-0.00659338
0.0341504,0.00408674
0.0408851,0.0174243
0.0811003,-0.0254396
0.095239,0.00870875
0.0379665,0.0122149
0.0262566,-0.0253588
-0.0119991,-0.0116525
-0.0393678,-0.0285815
-0.0446179,-0.00836436
-0.0179289,-0.00327276
-0.0223137,0.0127566
-0.0315502,0.0249646
-0.00626492,0.000379541
-0.00356181,-0.0073797
-0.0246519,0.000714673
-0.0229796,-0.00521863
-0.0279833,-0.0117119
-0.0328135,0.00624573
-0.00587905,0.0200264
0.0330035,0.000247361
0.0726468,-0.0146798
0.040736,-0.0090175
0.0126904,0.0232958
0.00858924,-0.00281342
0.00436481,-0.0115297
0.0020758,-0.0021663
0.00247234,0.0102634
0.00248012,0.0188654
0.00078518,0.00262331
0.000726954,-0.0161787
0.00247119,-0.0311363
0.000973915,-0.0441702
-0.0128743,-0.0158621
-0.0526525,0.0146395
-0.0407606,0.0393221
0.00696995,0.00212209
0.0140105,0.00672522
0.0120248,0.0340361
0.0182165,0.0063088
0.0438561,-0.0254552
0.0178174,-0.0480163
-0.0338117,0.0149374
-0.0363182,0.0418749
-0.00866327,0.0247293
-0.00506334,-0.0251539
0.00401234,-0.0189751
-0.0070256,0.0213261
-0.00627355,-0.0216223
0.0310742,-0.041853
0.039884,-0.0152292
0.0119765,0.0142459
0.00615269,0.0296349
0.00816167,0.0106397
-0.0185768,-0.0239445
-0.0386025,0.00675837
-0.0150384,0.0129645
0.0112621,-0.00976084
0.0105127,-0.0056412
0.00048843,0.00455853
0.0020527,0.0167659
0.0177202,0.0128829
0.018363,0.0158899
0.0306744,-0.0114846
0.0519751,-0.0231475
0.0470796,-0.025001
0.00982229,-0.0188409
-0.0436705,-0.00613996
-0.0257515,0.00729742
-0.00326661,-0.0154428
-0.0473192,0.00644452
-0.0815521,0.0257549
-0.0611707,0.0122297
-0.0521626,-0.0022923
-0.038642,-0.000907696
-0.0273453,0.00604172
-0.0492375,0.0128667
-0.0365788,0.016494
-0.0114285,0.00360396
0.00274143,0.0122267
0.150672,-0.0162098
0.154865,-0.0124727
0.099553,-0.00381664
0.0201148,-0.000615421
-0.0651817,0.0218569
-0.0958177,0.0241257
-0.033907,0.0114598
0.0429018,0.00977298
0.11582,0.00619649
0.107258,-0.00159988
0.0638924,-0.0129298
-0.0217025,-0.0270417
-0.10971,-0.0298303
-0.117037,-0.0182942
-0.025122,-0.00163435
0.0443693,-0.00362253
0.0346341,0.00492407
-5.31e-06,0.00372254
0.0237998,-0.0118429
0.0857718,-0.0244318
0.150944,-0.0301412
0.129886,0.018926
0.0193256,0.0676494
-0.078484,0.03615
-0.17185,0.00721769
-0.179487,-0.0198983
-0.145251,-0.0318595
-0.114044,-0.0142851
-0.0444239,-0.0141426
0.00337093,-0.0231204
-0.0025359,-0.00614015
-0.0244131,0.016823
0.0451584,0.0156134
0.0769996,0.0102237
0.0617723,0.029004
0.0380336,0.00128275
-0.00670822,0.00856579
-0.0920504,0.0456496
-0.11572,0.0373415
-0.0474198,0.00344799
0.0339949,-0.00146986
-0.00776433,-0.00887622
0.0380631,-0.0219798
0.171927,0.00073139
0.159853,-0.00446804
0.087758,-0.0172963
-0.0399039,0.00363149
-0.113797,-0.0280707
-0.124653,0.00056756
-0.0532369,-0.0335657
-0.0127588,-0.0592518
3.71e-06,-0.0148544
0.0338094,0.0109237
0.0407295,0.0125201
0.0155575,0.0260364
0.00921976,0.0260029
0.00810774,0.00523196
-0.000330148,0.0021768
0.00940741,0.00675801
0.0404331,0.000816711
0.0700272,-0.0171279
0.0403327,0.0105675
-0.0256008,0.0538889
-0.00580501,0.0294013
0.0900163,-0.04057
0.0875903,-0.0366479
0.0263203,0.010998
-0.0464241,-0.0229985
-0.0747361,-0.0301417
-0.0751242,0.0140775
-0.0567482,0.0620269
-0.0344492,0.0238262
-0.00224576,-0.0154832
0.0286963,-0.0321908
0.0547077,-0.0196177
0.0510141,-0.00433583
0.0282207,-0.013982
-0.00592303,-0.018762
-0.0401425,-0.0220238
-0.0570974,-0.00169679
-0.0138048,0.0202733
0.00459415,0.00694866
-0.0149563,0.0197585
-0.0309959,0.0151463
-0.0132047,-0.00372312
0.030095,-0.00866688
0.0416041,-0.00539486
-0.0205092,0.0113377
-0.0587381,0.0423417
-0.0361644,0.0188479
0.0179784,-0.0447353
0.0492052,-0.0351489
0.0118546,0.0126281
-0.0156318,0.0233401
0.00402337,0.00622754
0.0437514,-0.03221
0.0298917,0.0170173
0.0203106,0.0490553
0.00370194,0.017913
-0.0175739,-0.0175377
0.00119246,-0.0569079
0.0565324,-0.0320269
0.0760149,-0.03199
-0.0169839,-0.0333237
-0.121189,0.0278402
-0.112515,0.107195
-0.0380232,-0.00452652
0.0408392,-0.0397503
-0.0191056,0.0386576
-0.0447459,-0.0460033
-0.00524248,-0.0513841
0.0343588,0.0100323
0.035883,0.0117121
-0.0373063,0.0228625
-0.0509639,0.0269655
-0.00474877,0.0154547
0.0573137,0.0046941
0.0428202,0.00390122
-0.0219729,-0.0205301
0.00805204,-0.0120265
0.0317358,0.00506982
0.0191685,0.0060266
0.0263543,-0.00520639
0.0214246,0.00755527
0.00565609,0.00294854
-0.0185179,-0.0053146
-0.0393675,-0.0248896
-0.0337797,-0.0210995
0.0011052,-0.00668203
0.00196982,0.00472339
0.00522453,0.0246711
-0.00747011,0.0149952
-0.0440766,0.00218169
-0.0266628,0.0181217
-0.0149951,0.0418173
-0.0556712,0.0237258
0.051932,-0.00982411
0.153817,-0.00595685
0.0770084,0.0134661
0.0690056,-0.014389
0.0140745,-0.011981
-0.0307002,-0.00948762
-0.00401004,-0.024579
-0.0188076,-0.039785
-0.03383,-0.0102942
0.0335943,0.0157134
0.0243547,0.0132857
-0.0601919,0.00585442
-0.0672587,0.00145342
-0.0012087,-0.0136678
0.0252421,-0.0275599
0.0740263,-0.00582146
0.0658834,-0.00185798
-0.0507098,-0.00985888
-0.132146,0.00466983
-0.132534,0.0209266
-0.0779393,0.0144583
-0.0129217,0.022405
0.012023,0.010022
0.0298681,-0.025122
0.0216466,-0.00961645
0.00913533,0.0301926
0.0310639,0.0437544
0.0284628,-0.0389625
0.0193191,-0.0295906
0.0313636,-0.022061
0.0297455,-0.0189246
0.000898857,-0.0067419
0.00100241,0.0107707
0.00573945,0.0284339
-0.0148978,0.0546755
-0.00530474,0.0279507
0.019869,-0.0188542
0.0399902,0.0333631
0.0430557,0.0235531
0.0492862,-0.0302171
0.0171876,-0.0150427
-0.0603879,-0.0383848
-0.112483,-0.0125663
-0.0817636,0.0111774
-0.0174901,-0.0375956
0.0517987,-0.0325144
0.0677633,-0.0156125
0.0212639,0.00848953
0.00204839,0.00125069
0.00351042,0.00216526
-0.0114735,0.0029605
-0.0662466,0.0220309
-0.0630508,0.0310774
-0.0221966,0.0165745
0.00426143,0.0152083
0.0299194,0.00078078
-0.00658003,-0.00787658
0.0123453,-0.0120916
0.055432,-0.0164805
0.0591861,-0.0153265
0.0360627,0.00698801
-0.00177613,0.022555
-0.0226986,0.0108484
-0.0208655,-0.00975136
-0.00460441,-0.0152663
0.0190297,-0.0157814
0.0144793,-0.0104169
0.00369656,-0.00615207
0.000417642,0.0205171
-0.00490022,0.0196246
-3.21e-05,-0.00618308
0.0058301,-0.00292564
0.0142599,-0.000270619
0.0103453,-0.000618627
-0.00696709,0.0162368
-0.0230788,-0.00138553
-0.0210983,-0.0161262
-0.00753053,0.0582461
0.0424131,0.0581468
0.0217172,-0.000127616
-0.0656356,-0.0349708
-0.0615609,-0.0352663
-0.00120457,-0.000116026
0.00284332,0.0066294
-0.0215813,-0.0405369
-0.0166896,-0.0461087
0.00722967,-0.00323109
0.0299457,0.000846211
0.0202113,0.0213749
0.0227658,-0.0056165
0.0513516,-0.0493384
0.0353621,-0.0248239
-0.00577863,0.0357873
-0.017845,0.00468897
-0.00220119,0.0101947
-0.0201735,0.0185424
-0.0280564,0.0133369
-0.0118044,0.00996627
0.0137201,0.00668885
0.0259298,-0.00142082
0.0260963,-0.00783014
0.0306188,-0.0209994
0.00723894,0.0256653
0.00315998,0.050185
-0.000860508,0.0181792
-0.0542171,0.00964784
-0.0340781,0.0187132
0.00224586,-0.0436683
-0.0205047,-0.0484534
-0.0733354,-0.0146149
-0.0985622,0.0219026
-0.0330364,0.0703495
0.0442778,0.0416317
0.0659475,-0.0385727
0.011623,-0.0417906
-0.0118742,-0.0105622
0.0253778,-0.00940328
-0.00985253,-0.0450662
-0.0112273,-0.0090564
-0.000753387,0.0240764
-0.00964319,0.0555263
0.0231215,0.0421283
0.0298953,-0.0411292
0.0334547,-0.0454399
0.0493031,-0.0207172
0.0283122,-0.00069349
0.0226442,-0.0135942
0.0129994,-0.022123
-0.0421775,0.0179354
-0.0369877,0.0385207
-0.000715446,0.021188
0.00847199,-0.00169684
-0.00866712,-0.0135777
-0.0143045,-0.00611443
-0.00620459,-0.00343286
0.00716993,0.0162257
0.0103214,0.00764378
0.0082831,-0.0140398
-0.000814081,-0.00757531
0.00304293,-0.00490479
0.0123605,-0.0061026
0.00828025,-0.00795962
-0.000281492,-0.00236818
-0.00814085,0.00121575
-0.00835819,0.0144229
-0.00438731,0.0163831
0.0108339,0.00639582
0.0113348,-0.00528619
-0.0215055,-0.0114739
-0.048535,-2.82e-05
-0.0396433,0.0122128
0.0111391,0.00804358
0.000366236,0.0138514
-0.0311101,-0.00160055
-0.011238,-0.0143209
0.0146666,-0.000268135
0.0276649,0.000183465
0.0333397,-0.00524426
0.0244492,0.00316873
0.0342352,0.000234274
0.0100782,-0.000488308
-0.0395261,0.0175213
-0.0311494,0.0157177
0.00313713,0.00373579
0.0184863,-0.00785294
0.0497325,-0.00108757
0.0886667,0.00740117
0.0788452,-0.0136664
0.0117564,-0.00531603
-0.00828337,0.00820315
-0.015808,-0.00926544
-0.0458153,-0.0272293
-0.0585912,-0.0341826
-0.0595107,-0.0171174
-0.0520927,-0.00509666
-0.0294596,-0.00112238
-0.0120771,-0.0137992
-0.0123839,-0.000343537
-0.016017,0.0140849
-0.00458567,0.0131596
-0.000739234,0.0146816
-0.00722942,0.0466834
-0.00321801,0.009665
0.0269805,-0.0305871
0.0532157,-0.0357565
0.00240218,-0.00613534
-0.0504185,0.0253898
-0.0193426,0.0105914
0.0362067,-0.0202155
0.0230477,-0.0299852
0.00886349,-0.0199298
0.0163099,0.0457871
0.0338974,0.0291431
0.0361167,0.0115376
0.0235693,0.0245295
-0.00675021,0.0665834
-0.00058897,0.00935658
-0.0222776,-0.0274301
-0.036818,-0.0167264
-0.0390918,-0.00405718
-0.0289174,-0.0368655
-0.00569012,-0.00809507
0.0434809,-0.00985962
0.0642798,-0.0267874
0.010696,-0.0162868
-0.0199576,-0.00343651
-0.0210127,0.00188631
-0.015854,-0.00198041
-0.00994737,0.00407682
-0.0161795,0.0200516
-0.0147849,0.0232883
0.0235168,0.0192387
-0.0018761,0.010195
-0.0890146,0.00295784
-0.0592451,-0.00907432
0.00675686,-0.0143764
0.032661,-0.0223827
0.0485718,-0.0192348
0.0282317,0.00278099
0.00426731,0.0202623
-0.00400607,0.0124392
0.000345864,0.00700067
0.0312571,0.00098688
0.0407864,-0.0027674
-0.0268459,-0.00261035
-0.0393183,-0.0130951
0.00171332,-0.0126312
-0.0244919,0.00931887
0.00209545,0.0204162
0.0543045,0.0121305
0.0395758,0.00313842
0.00377878,-0.00311329
-0.0332402,-0.00244558
-0.0490994,0.00688647
-0.0134948,-0.0142372
0.0261613,-0.00937429
0.018234,0.0155559
-0.0152883,0.0512331
0.0132054,-0.013657
0.038606,-0.0492859
0.0522628,-0.00993154
0.0450365,-0.0140138
-0.00625414,0.00202923
-0.0562369,-0.0347281
-0.0239243,-0.0135216
0.0140964,0.0201475
9.14e-06,0.0140302
-0.0168213,0.00108141
0.00272305,-0.00124804
0.0112675,-0.0020923
-0.00308153,0.00119039
-0.0281883,0.0153815
-0.0239367,0.0126322
-0.0152181,0.0059124
-0.0222459,0.0186735
-0.0146539,0.0222994
-0.0246324,0.00920012
-0.019715,-0.00904662
0.00892608,-0.0424023
0.0581226,-0.00815302
0.0674439,0.0263704
0.0316755,0.06507
0.0370132,0.00973348
0.0471772,-0.0403024
0.00854602,-0.0407558
-0.05324,-0.0265651
-0.0556327,-0.0185885
-0.0542554,-0.0279871
-0.0645975,-0.00081502
-0.0623834,0.0426141
-0.0572687,0.0115979
-0.0180011,-0.00912996
0.0229894,0.00776655
0.0281464,-0.00513507
0.0317148,-0.0298592
0.0507706,-0.00509733
0.0439269,0.0102163
-0.0090787,0.014178
-0.0301545,0.0270128
0.0147983,0.0207569
0.0690439,0.0047778
0.0382698,-0.0300455
-0.0210749,-0.0167583
-0.0165439,-0.0197076
0.0131078,-0.00267294
0.0261161,0.0157944
0.0611105,0.0124596
0.10604,0.0388485
0.0562024,0.0146736
-0.00669664,-0.015799
-0.0222375,-0.0143008
-0.0950683,-0.0196235
-0.163609,-0.018927
-0.0795942,-0.00521981
-0.0513093,0.0201067
-0.0538845,0.0403489
0.0218949,0.00285806
0.0770513,-0.0163562
0.0251448,-0.0120844
-0.0459109,-0.00841522
-0.040547,-0.0114683
0.0130474,-0.0197713
0.0280837,0.00958209
0.0184366,0.0194696
0.00644811,0.0296148
0.0249017,0.0162433
0.0895662,0.00249721
0.089149,0.021761
0.0451701,0.00622833
0.0227898,-0.0411362
-0.0281142,-0.035962
-0.0453464,-0.00277973
-0.0209897,0.00436473
-0.0175864,-0.00728319
-0.0353983,-0.0100896
-0.0159301,-0.010782
0.0177767,-0.0179502
-0.0172172,-0.0162145
-0.0237697,0.00295107
-0.00247222,0.0292839
0.00722128,0.0145769
0.00645101,-0.00222089
-0.00607256,0.00495047
-0.0202361,0.00809688
-0.029144,0.0168332
-0.0150064,0.0302914
0.0382907,0.0243394
0.072503,0.00206689
0.0568849,-0.0164035
-0.0238636,-0.0113161
-0.081534,-0.0160516
-0.0564185,-0.0223428
0.00697747,-0.0159065
0.0129321,-0.0169112
0.0119619,-0.01819
-0.0271772,0.0112813
-0.0381325,0.0229545
0.0106367,0.0011836
0.0381428,0.004816
0.0417216,0.0067339
0.0402727,-0.00408772
0.0346757,0.0068771
0.0318527,0.00445117
0.0304568,-0.000953716
-0.0175822,0.0108008
-0.0647156,0.0301152
-0.0564314,0.0171216
-0.0248654,-0.00446522
-0.0115723,-6.27e-05
-0.0202904,-0.0308492
-0.0215233,-0.0289935
-0.0175644,-0.0185251
-0.00162874,0.00424349
0.0168717,0.000134154
0.0195422,-0.00914714
0.0149737,-0.0114672
0.0170704,-0.0126006
0.0232127,0.000635173
-0.00277941,0.0123773
-0.0546652,0.0151522
-0.095381,0.0454809
-0.057,0.0536658
0.0375196,0.0432572
0.113175,-0.0141833
0.113894,-0.0575973
0.0405904,-0.0360237
-0.0122133,-0.0435565
-0.0229686,-0.0255529
-0.0167555,0.00617726
-0.00300507,0.0280517
0.0491177,0.026792
0.0986561,0.0172386
0.119032,0.0140313
0.0666958,-0.00445242
-0.017547,-0.00865822
-0.110315,-0.00118812
-0.124984,-0.0175121
-0.113866,-0.0165548
-0.075989,0.00824351
-0.0301073,0.0180662
-0.0142825,0.0192637
-0.0083747,0.0109136
0.0172818,-0.0173072
0.0102889,-0.0352463
-0.0162391,-0.0350525
-0.0117042,-0.00608063
0.0120008,0.0100469
0.0221759,0.00955442
0.016836,0.00654629
0.0138305,0.00150691
0.010535,-0.00870619
0.0101907,-0.0134636
0.0159816,-0.00461449
0.0229239,1.55e-05
0.0222747,0.0114407
0.0197405,0.0193626
0.00912981,0.00804149
-0.00230751,-0.0045348
-0.00860996,-0.00240621
-0.00959017,-1.86e-05
-0.0127981,0.000801141
-0.0300814,0.0109389
-0.0308632,0.0249
-0.000336913,0.0134501
0.0281437,0.00625459
0.0140496,-0.00163153
0.0133955,-0.00230122
0.00289283,-0.0244836
-0.00019585,-0.00125017
0.015757,0.0198994
0.0336473,0.00801605
0.0433068,0.00453432
0.00694467,0.00409636
-0.0479374,-0.000706807
-0.0686426,-0.00500766
-0.0399385,0.00077541
0.00481771,0.00224501
0.0343054,-0.00378973
0.0235888,-0.00663232
0.0143857,-0.000582481
-0.015474,-0.00507384
-0.0344547,-0.0141423
-0.0348742,-0.00812769
-0.00144467,-0.00254773
0.0183826,-0.00362169
0.02427,-0.00715941
0.0594694,-0.00911392
0.0300953,-0.00158689
-0.0306823,0.0120098
-0.0209745,0.00355462
-0.0157185,-0.0126549
-0.0223104,-0.0138656
-0.0133841,-0.00109636
-0.00304427,0.000371468
-0.0106506,-0.00390028
-0.0156804,0.00268161
-0.0053063,0.0138428
0.00336177,0.0127018
0.00307698,0.00975025
0.0044439,0.00478913
0.00263526,-0.00528697
0.00619857,-0.012824
0.011624,-0.00782001
0.0155692,-0.00352988
0.0152891,0.00426505
0.0156287,0.020719
0.0137055,0.0234057
0.00505881,0.0101513
-0.00184163,0.00976934
-0.00355328,-0.017106
-0.0107648,-0.0174494
-0.0179393,-0.00936393
-0.0118576,-0.00529267
-0.0103012,0.00727446
-0.0164443,0.015104
0.0363834,0.009423
0.107162,-0.00951828
0.0493717,-0.0164418
-0.0331914,-0.00629648
-0.0384293,0.0142824
-0.0177623,0.0073015
-0.00792623,0.0654179
-0.0476095,0.0859369
-0.106515,-0.00310144
-0.076969,-0.0530641
0.0227013,-0.0544894
0.108745,-0.0346731
0.0912292,-0.0437286
-0.0108596,-0.045685
-0.075005,-0.0129078
-0.0409387,0.0161829
-0.000686487,0.0149585
0.0318183,0.0431611
0.0465766,0.0114946
0.0228782,-0.0504304
0.000305322,-0.0311314
-0.00697856,-0.021385
-0.00374206,-0.00768887
-0.00253748,0.00375148
0.0015674,0.0048314
0.00664154,0.00202826
0.00908816,0.00282664
0.0019136,0.0105278
-0.0271026,0.0261517
-0.0345912,0.0433675
0.00652131,0.0371441
0.023789,0.0193184
0.0137722,0.0049877
-0.0033992,0.00238062
-0.0157297,-0.00450151
-0.00579707,-0.0199143
0.0157641,-0.0213283
0.020305,-0.0235611
0.0133888,-0.00634015
4.63e-05,-0.0125532
-0.00784573,-0.0109334
-0.0156063,-0.00311169
-0.017193,0.00586968
-0.0223326,0.00863312
-0.0212309,0.0161188
-0.00406454,0.0251354
0.0426141,0.0400047
0.0381333,0.0421703
0.0141588,0.0191451
0.0268101,0.0208303
0.00128753,0.0228593
-0.0443733,-0.0182758
-0.0313596,-0.0164706
-0.003137,-0.0310853
0.00337852,-0.0752349
-0.000567345,-0.0112027
0.0425171,0.000470666
0.0840779,-0.0219889
0.064635,-0.0273795
0.00362745,0.0198525
-0.0757721,-0.0113139
-0.123493,-0.0114537
-0.1015,0.00518011
-0.0301366,0.0237017
0.0220622,0.0273697
0.029088,0.0129017
0.0233264,0.0050836
0.0217521,-0.00960985
0.0104003,-0.0242097
-8.2e-05,-0.026249
0.00797607,-0.019104
0.0182391,-0.0114086
0.0143477,-0.000235424
0.0134369,0.031783
0.00760724,0.0237932
-0.0105642,0.00823689
-0.0314303,0.0228919
-0.04049,-0.0231839
-0.0359,-0.0205952
-0.0275076,0.00658366
0.027422,0.0215813
0.072689,0.0326702
0.0265487,0.0166517
0.00995757,-0.0447481
0.00289961,-0.031271
-0.00817327,-0.00928424
-0.00432295,0.00101801
0.00798914,-0.00417997
0.00228172,0.00687669
-0.00675342,0.0187022
-0.00408246,0.0156282
-0.00901677,0.00392924
-0.00751989,-0.013134
0.00284015,-0.000596935
0.00617892,0.000710106
0.0100625,-0.00217558
0.0119877,-0.00244315
0.00121384,0.0155678
-0.0102406,0.0219889
-0.0100101,0.00344261
-0.00768384,-0.00472477
-0.00214551,-0.00744119
0.00432959,-0.0283008
0.0104103,-0.0241971
0.00758821,-0.00895991
-0.00261876,0.00645364
-0.00378267,0.0120278
-0.00745615,0.00629958
-0.00677527,-0.0007533
0.000919111,0.00577801
0.00403698,0.00735392
-0.00399263,0.00308228
-0.00273518,-0.00301284
0.0046711,0.012822
0.00516564,0.0224369
-0.00352887,0.022426
-0.00830447,0.0055225
-0.016449,-0.00664298
-0.0147269,-0.0136845
-0.0086152,-0.0145914
0.00392397,-0.00935586
0.0143473,-0.00585512
0.0186592,0.0054887
0.0350315,0.0114635
0.0459677,0.00314708
0.0401121,0.00550126
0.0468441,0.00810884
0.0401005,0.0008701
-0.027084,-0.0300105
-0.0614475,-0.0148999
-0.0439195,0.0118474
-0.0084101,0.000471112
-0.012538,0.00196126
-0.0109919,-0.00255374
-0.0113064,-0.00563315
-0.0376396,0.0115927
-0.0625438,0.00770896
-0.0468976,-0.00956256
-0.0291654,-0.00905918
-0.0197604,-0.00318892
0.00577205,-0.0166912
0.0365172,-0.0105318
0.0668966,-0.00479475
0.0450593,0.0341863
0.00575033,0.0281083
-0.0181289,-0.0183291
-0.0193633,-0.00351219
0.0107241,-0.00162235
0.0158848,-0.00415477
0.0166197,-0.00822475
0.0131551,0.000265899
-0.00598603,0.00637554
-0.0089641,-0.0151079
0.0230593,-0.0213482
0.0122827,0.00318623
-0.0107937,0.000959573
-0.00722134,0.00928728
-6.47e-07,0.00880484
0.00232876,-0.0180996
-0.00492549,-0.00447816
-0.00597784,0.00654063
0.0119481,0.013642
0.00726873,-0.00286954
0.00254975,-0.000362927
0.00361321,0.00289917
0.000828147,0.00097265
-0.00469521,0.0189803
-0.0094309,0.012839
-0.0113397,-0.00853209
-0.0150392,-0.00873712
-0.0235377,-0.000360227
-0.0121703,-0.00123933
0.00975329,0.00540206
0.0183085,0.00934801
0.0091759,0.00044067
0.0122729,-0.00554245
0.0080315,0.000744584
0.00858676,0.00454693
0.014108,0.020705
0.00919537,-0.00387948
0.0101946,-0.00335752
0.0134483,0.000605281
0.0116307,-0.00707252
-0.0197752,-0.00563946
-0.0513145,-0.00336435
-0.0528348,-0.0128371
-0.036415,-0.013154
0.00156619,-0.00356488
0.0119367,-0.00261029
0.00859536,0.0171444
0.00107604,0.0240467
0.0131186,-0.0198357
0.0324346,-0.0285787
0.0368201,-0.0130901
0.042803,-0.0154716
0.0490318,-0.0128232
0.0458888,0.00807914
0.0129902,0.0313932
-0.0273607,0.0146066
-0.0704119,-0.00352439
-0.0918527,-0.0059777
-0.0493204,0.0184918
0.0323282,0.00999126
0.0506194,-0.000887461
0.060968,-0.00229017
0.0935758,0.00506091
0.0450067,0.0132175
-0.0500438,-0.00102372
-0.0930451,0.00571426
-0.0857598,-0.000986708
-0.041364,-0.0134648
-0.0161249,-0.00508029
-0.00584207,-0.0147347
-0.00298081,-0.0109508
-0.000704975,-0.00772169
0.00430837,-0.00495949
0.00164657,0.0144915
0.00552164,0.0176439
0.00479791,0.000313061
-0.0114917,-0.0133691
-0.000879851,-0.000422704
0.0208582,0.00729368
0.0342524,0.0177631
0.0379394,0.0100567
0.0216338,-0.0046244
0.0527583,-0.00156505
0.0551403,0.0056784
-0.00771412,-0.00118184
-0.0441381,-0.0113702
-0.0152124,0.0137119
-0.0103692,0.00949362
-0.0326147,-0.00447411
-0.0574748,-0.00546703
-0.0289448,-0.00434421
-0.0048945,-0.00883863
-0.00843895,-0.0104953
-0.0151404,-0.00670544
-0.00893399,-0.00226408
0.00078621,-7.46e-05
0.00280512,0.00742648
0.0201863,0.0112234
0.0320964,0.00395737
0.019863,-0.0063114
0.0158491,-0.0143888
0.0040808,-0.0191837
-0.00379727,0.00474129
0.00646756,-0.000330224
0.00968619,-0.00012376
0.00384617,0.00359276
-0.00247115,0.0028022
-0.00725723,-0.00341815
-0.0157918,-0.0059143
-0.0188877,0.00114366
-0.0154514,0.0131657
0.00823502,0.00333956
0.011797,0.003883
0.0130617,0.00991391
0.0225204,0.00793631
-0.00312797,-0.0141652
-0.0116668,0.02387
4.69e-05,0.0402379
0.000172537,-0.0187792
-0.0067465,-0.0160286
-0.00800159,0.00497411
0.00644394,0.00695595
0.0160047,0.0270752
0.0217919,0.0337129
0.0214825,-0.00797516
0.00482163,-0.0438329
-0.0207291,-0.0221892
-0.0380732,-0.0135648
-0.0326453,-0.0173927
-0.0304735,0.0145645
-0.000220789,0.0049973
0.00683358,0.0255469
-0.0122614,0.0157786
-0.00463564,-0.0180233
0.0124231,-0.0334579
0.0216744,-0.036173
0.013618,-0.0134761
0.00919404,0.0067123
0.0109912,0.00431424
0.0224172,-0.00675766
0.0222597,-0.00184643
0.00319313,-0.00111883
-0.0163812,-0.00496067
-0.0179065,-0.000687834
-0.0133629,0.00872811
0.00624742,0.0143109
0.0166209,0.0170176
0.00480189,0.0213406
0.000413848,0.0112941
0.00011947,-0.0055991
0.0216186,-0.01291
-0.00257418,-0.00729924
-0.0314132,-0.000290952
0.00116202,0.0186928
0.0659316,0.029392
0.104956,0.00628972
0.047271,-0.00748548
-0.0334738,-0.0246611
-0.102189,-0.0388655
-0.0981474,-0.0047784
-0.0486925,0.0153395
0.00107364,1.09e-06
0.0145711,-0.000931394
0.019893,0.00443546
0.0110106,0.00230953
-0.00565513,-0.00678024
-0.0136419,-0.0136146
-0.0137408,-0.00662651
-0.00510836,0.004644
0.00558369,0.00538404
0.00298364,0.00798977
0.00125945,0.00475428
0.000581373,0.00190492
0.0105345,0.00214082
0.0112451,0.00212723
0.0137134,-0.00943351
0.0136226,-0.010538
-0.00608177,0.00314872
-0.0197191,0.00379601
-0.0317417,0.00493364
-0.0205708,0.00547776
-0.00193276,0.00172571
-0.0281112,0.011177
-0.0108803,-0.00038595
0.0504351,-0.0167126
0.0460062,-0.00785427
0.0701142,-0.00123141
0.0735282,0.0127267
0.0249759,0.0119255
-0.0390813,-0.0120792
-0.0951321,-0.00795077
-0.0746121,-0.000209486
-0.0202133,-0.00521683
0.00747302,-0.00359238
0.0253321,-0.00773205
0.0456072,0.0211231
0.049333,0.0835989
0.034063,0.0369944
0.00111367,-0.0607893
-0.0458739,-0.0542329
-0.0462425,-0.0138552
-0.0228107,0.00225387
-0.0115018,-0.0181298
-0.00947712,-0.00695952
-0.00358482,0.0126129
-0.00047351,0.0163191
0.00226654,0.010841
0.001628,0.00601618
0.00461155,0.00698005
0.00816608,0.0193658
0.00886362,0.0466517
0.0152952,0.0183443
0.0194615,-0.045203
0.0203309,-0.00256599
0.0144389,0.00108924
0.00630058,-0.0519573
-0.00488314,-0.0279974
-0.0162366,0.0177069
-0.0163811,-0.0211762
-0.0174099,-0.0139055
-0.0215763,0.0233703
-0.0080373,0.0360746
-0.00150224,0.00622744
-0.0144862,-0.0311288
-0.0140547,-0.0194278
-0.011064,-0.00476595
-0.00880274,0.00372167
-0.000341558,0.0196058
0.00976828,0.03246
0.0217664,0.0197279
0.0282473,-0.00813337
0.0159351,-0.0178401
0.00521364,-0.0146041
0.00341835,0.00163871
0.00789252,-0.00231742
0.00986214,-0.0182939
0.00187911,-0.0126204
2.13e-05,0.00374112
0.00241516,0.00877372
0.0035601,0.00362119
0.00862526,-0.00625428
0.00878947,0.000898276
0.00337699,0.00168043
-4.32e-05,-0.00812857
-0.0005661,2.01e-05
-0.00425098,0.00535984
-0.0100171,0.0199482
-0.00551253,0.0338706
-0.00123149,0.0110172
-0.00257213,0.0201413
0.0136673,0.0098021
-0.00615811,-0.0149625
-0.0190092,-0.0122802
-0.0171344,-0.0163823
-0.00389813,0.0135228
0.0196541,0.0119499
0.00915479,-0.00527261
-0.0153,-0.00912748
-0.0213638,-0.0177921
-0.0124812,-0.0151765
-0.0123386,-0.000685362
-0.00816863,0.00605745
-0.0018603,0.00961234
0.00235616,0.0228948
0.00978451,-0.00742794
0.00941611,-0.0455801
0.00159316,-0.00141239
-0.00135029,0.0142295
0.00219956,-0.0249547
0.00173507,-0.0135584
-0.00257993,0.0218892
0.00292263,0.00901985
0.00479417,-0.00836661
0.00107959,-0.00348347
0.00496833,-0.00644431
0.00668526,-0.0277947
0.0041778,-0.0124152
0.00538272,0.00713549
0.0089483,-0.00804987
0.000939334,0.00429493
-0.00721061,0.0206642
-0.0133181,0.00866244
-0.0229541,0.00346805
-0.0201516,0.00419505
-0.0138842,-0.00270948
0.00151123,0.000476803
0.00637845,0.00539116
0.0143758,0.0160697
0.0191161,0.0174265
0.0243283,-0.00615409
0.0149122,-0.0062649
-0.00222431,0.00902653
-0.000493173,-0.000520193
0.00970418,-0.00402664
0.0171767,-0.00444785
0.0143389,0.00758015
0.012166,0.0243965
0.00662126,0.00476023
-0.0147902,-0.00329968
-0.0290173,-0.0182929
-0.0348275,-0.00843738
-0.0156361,-0.0110796
0.0166467,-0.0144186
0.00994106,0.00238857
0.0124871,0.0244761
0.0351587,0.0330289
0.0473936,0.0123077
0.0304932,-0.0202627
-0.0148089,-0.00117828
-0.0440273,-0.0265379
-0.0365514,-0.0385826
-0.0255394,-0.0160361
-0.0179993,-0.00265965
-0.0126041,0.0134457
-0.00347964,0.0167038
0.00683919,0.0100683
0.00548849,-0.0142261
-0.00521752,0.00537662
-0.00503552,-0.00797593
-0.00291972,-0.0156711
-0.0105503,0.00339304
-0.0165333,0.0137554
-0.026328,0.00957355
-0.0240539,0.00940857
0.00875562,0.0160161
0.0326731,-0.0075112
0.031469,-0.0120543
0.020512,-0.00808943
0.00688284,0.0163615
0.0014849,0.0101465
0.00717414,0.0171485
-0.00280357,0.0080605
-0.0245304,-0.0159195
-0.0181403,-0.0108019
-0.000474448,0.0148633
0.00404704,0.00262941
0.00765815,-0.00644964
0.00702074,0.00990064
0.00445625,0.0101285
0.00040027,-0.00438447
-0.00162709,-0.00349356
-0.00179443,-3.04e-05
-0.0025644,-0.0171888
-0.00660115,-0.00830994
-0.00572254,0.00948203
-0.0035079,0.00362788
0.00359043,-0.00524415
0.0118906,0.00212083
0.0154562,-0.00102854
0.0109776,-0.00487067
0.00344792,-0.00650473
-0.00553799,-0.0115748
-0.00466336,-0.0171354
0.00316068,0.00389429
0.0216498,0.0181432
0.0361251,0.0181582
0.0380174,0.00914062
0.0390444,0.00935245
0.0203509,-0.00498469
-0.0244738,-0.0114507
-0.0584688,-0.00846732
-0.0568809,-0.00164306
-0.031107,0.000562692
-0.0132772,0.0128682
0.00782565,0.0176434
0.015886,0.00363541
0.00748244,-0.00792267
0.00310926,-0.0118933
0.00109268,-0.015889
-0.00217867,-0.0136456
-0.00619914,-0.00574761
-0.00577176,0.00311396
-0.00506384,-0.00497123
-0.00674296,-0.00794203
-0.00623709,-0.0040739
-0.000932603,-0.00661093
0.00639812,-0.00833586
0.0031806,0.000368519
0.00282174,0.00468774
0.000794233,0.0106942
0.00282892,0.0208181
0.00265606,0.0170144
-0.00168486,-0.000616871
-0.00329115,-0.00791534
-0.00612066,-0.00860094
-0.00519733,-0.00946392
-0.00224966,-0.00632912
-0.0021991,0.00504361
-0.0127816,0.0160364
-0.00873933,0.00176399
0.0063023,-0.00801594
0.011052,-0.000867639
0.0123603,-0.00310227
0.0107549,-0.00786386
0.00467016,-0.00500577
0.00257901,0.00296741
0.00288258,0.0146359
0.0084571,0.0182155
0.00615957,0.0116557
-0.00106642,-0.0037422
-0.0021099,-0.0108995
-0.00483494,-0.01229
-0.00923532,-0.011959
-0.00854995,-0.0118115
-0.00279072,0.00470431
0.00111424,0.0107426
0.00252231,0.000283468
0.00479182,0.00144311
0.00512526,-0.00153142
0.000286512,-0.00303572
-0.00220368,0.000272707
0.0011804,0.00351372
0.00149848,0.00682496
0.0023021,0.0132537
0.000640732,0.0175941
-0.00340617,0.00469183
-0.00899283,-0.00952721
-0.0120969,-0.0100295
-0.00821757,-0.00959726
-0.00543721,-0.0117776
-0.00590886,-0.00151092
-0.00178567,0.0123922
0.00323255,0.00649987
0.00977865,0.000631045
0.0114075,0.00126421
-0.00305441,-0.00168719
0.0105961,-0.00795679
0.0600994,0.000936534
0.084828,0.00485658
0.0743432,0.00405367
0.0337269,0.0100699
-0.0281293,0.00264486
-0.0922782,-0.011032
-0.10665,-0.0170547
-0.0607894,-0.00708269
-0.0232207,-0.00515452
0.00324592,-0.00521622
0.0369471,0.0067064
0.0652549,0.0164987
0.0698091,0.00523273
0.044761,-0.0023191
-0.0045673,-0.00465397
-0.0529279,-0.00448334
-0.0878679,-0.00709071
-0.0641099,0.00176335
-0.0413291,0.00409111
-0.0281929,0.0158295
-0.0030637,0.0258959
0.022104,0.016841
0.0241016,0.00314246
0.0123196,-0.000146888
0.0107692,-0.00518824
-0.0134162,-0.0113471
-0.0397239,-0.00541592
-0.0732955,0.011196
-0.079825,0.0141478
-0.0138287,0.00949782
0.0149261,0.00479771
0.0536226,-0.0106542
0.0705437,-0.0280668
0.0572852,-0.0317927
0.0511085,-0.0241985
0.0364846,-0.0229864
0.0135101,-0.00470997
-0.00172789,0.0097682
0.0171326,-0.00627282
0.0249419,-0.00507103
0.0236574,0.00822516
0.0548661,0.00615619
0.0634116,0.00195006
0.0381106,0.00371107
-0.0248207,0.00565862
-0.033929,0.0022621
-0.00968795,-0.00202471
-0.0161371,-0.00140148
-0.0111215,-0.00234794
0.0478118,-0.00522291
0.0866344,0.00317793
0.0454116,0.00648809
-0.0299929,0.00244837
-0.148388,0.00944075
-0.175042,0.0096304
-0.0900991,-0.00541382
-0.0315788,-0.0128454
0.00141696,-0.0129452
0.0188271,-0.0143732
0.010493,-0.0117748
-0.0102716,0.0122344
-0.043982,0.0360388
-0.0639107,0.0336834
-0.024063,0.0171593
0.000119836,0.0200204
0.0446431,0.00851213
0.067235,-0.00331612
0.0340078,-0.012962
-0.0100028,-0.0056468
-0.0617449,0.00409979
-0.038941,0.000269686
0.0684032,-0.0117978
0.124214,-0.0219328
0.108882,-0.0235058
0.0593327,-0.0153526
-0.00703962,-0.00622647
-0.0728079,0.00497394
-0.0799171,0.0121165
-0.0626615,0.0149247
-0.035369,0.0181751
-0.0259707,0.0157529
-0.0103224,0.00456745
0.12758,-0.00530273
0.357521,-0.0123679
0.416226,-0.0216759
0.290167,-0.0142217
-0.00365818,-0.00844038
-0.370336,-0.0174109
-0.469212,-0.0184697
-0.318767,-0.00780912
-0.160584,0.000789383
-0.0420044,0.00777217
0.0369133,0.0225933
0.0557786,0.0434906
0.0337068,0.0411435
-0.00206493,0.0186968
-0.0130375,0.00340672
0.0175905,-0.0051008
0.0917234,-0.0162906
0.112621,-0.0161708
0.0495904,-0.0168975
-0.0256454,-0.0174846
-0.0561127,-0.00797466
-0.0594468,-0.0035724
-0.0509625,-0.0120584
-0.0208595,-0.0122003
0.000446723,-0.00734611
0.0185702,-0.00642992
0.0373844,0.00261574
0.0490317,0.0230157
0.0384945,0.0363905
0.0235513,0.0242352
0.0256447,0.0124088
0.0674828,0.00670451
0.125745,-0.00600638
0.13302,-0.0147867
0.0160448,-0.0100501
-0.119868,-0.0154336
-0.174133,-0.00814082
-0.133405,0.00951723
-0.0801723,0.0027115
-0.0376898,-0.0143604
0.00418521,-0.012877
0.0392197,-0.00740533
0.0609255,-0.00213589
0.0666391,0.00480592
0.0684743,0.0245906
-0.000790562,0.0330002
-0.0591158,0.020643
-0.0290054,0.0153451
-0.0122806,0.00859073
0.00848671,-0.00410076
-0.0078103,-0.0120693
-0.0446415,-0.0138673
-0.0592933,-0.0196008
-0.0377433,-0.0102619
0.0142081,-0.00147258
0.0571973,-0.0146438
0.0681753,-0.0297302
0.0591107,-0.0244439
0.0496153,-0.0208984
