Comp Ch 3,Comp Ch 4
0.0141526,-0.0148893
0.0235393,-0.00812113
0.0358078,0.0113664
0.0248638,0.0416985
0.00308298,0.036724
-0.0200305,0.023279
-0.0221591,0.0218274
-0.005125,0.014331
-0.0112173,-0.00605293
-0.0265185,-0.0254861
-0.048336,-0.0278161
-0.0419185,-0.0282735
0.012119,-0.00529718
0.00843772,0.0230035
-0.0145978,0.00661834
-0.00377782,-0.0406509
-0.0177062,-0.0405822
-0.0333562,-0.0229471
-0.0349929,0.00776271
-0.04149,0.0401639
0.00299675,0.0404354
0.103233,0.0168879
0.0688897,-0.0070222
0.0303397,0.00085084
-0.0466909,-0.0297783
-0.138286,0.00762278
-0.0704796,0.0515912
-0.0196964,0.0339295
-0.01049,0.0120203
0.0834978,0.00345791
0.0913316,-0.0175481
0.0961765,-0.0467122
0.0639391,-0.0510986
0.0169228,-0.0606465
-0.0243963,-0.0315173
-0.11312,0.0355178
-0.0949612,0.0882067
-0.0703284,0.0781732
0.0134854,0.035724
0.12112,-0.00224324
-0.0296732,0.00423728
-0.111001,-0.00239997
0.0393483,-0.00892503
0.108994,-0.0248898
0.0411371,-0.0211421
0.0626098,-0.0395427
0.0727831,-0.0419516
-0.0190952,-0.0232663
-0.0893871,-0.0381104
-0.090628,-0.0097337
-0.10512,0.023984
-0.0497588,0.00983501
0.0567421,-0.0176123
0.0725645,-0.00423141
0.0115157,0.0456899
0.00693365,0.0538484
0.0619556,0.0150536
0.0462301,-0.00666233
0.0111085,-0.00966764
0.0099422,-0.0108745
0.0107092,-0.00253065
0.0193076,0.0135118
-0.00261833,0.00624734
-0.0726616,0.0154808
-0.0941672,0.011601
-0.037259,-0.0149165
0.0695108,-0.0175055
0.0753995,0.00259491
0.101685,0.0232577
0.156525,0.00841341
0.0626284,-0.00759376
-0.0218929,0.0153211
-0.0772878,0.00717129
-0.0713661,-0.0343568
-0.134035,0.0129585
-0.226314,-0.00831518
-0.139222,-0.051093
-0.00213457,-0.0619497
0.0314215,0.0125415
0.0315944,0.00860274
0.0250934,-0.024334
0.0219202,0.0207003
0.0112776,-0.0244444
0.000838873,-0.0119395
0.0129051,0.00339611
0.0215433,-0.00497263
0.0322922,0.0102446
0.0414022,0.074079
0.062608,0.030757
0.073932,0.0171288
0.0170841,-0.0249897
-0.0166745,0.00268044
0.00224154,0.0207888
0.00150158,0.0282844
-0.0274437,-0.00643226
-0.0367853,-0.0384886
0.0182629,-0.0125563
0.0426087,0.0189434
-0.0203352,0.0012876
-0.0967908,-0.00855005
-0.112576,-0.0135614
-0.0271356,-0.00527693
0.052217,0.0370899
0.0426244,0.0247419
0.0107123,-0.00377543
-0.0277012,0.0227988
-0.0546382,0.0290071
0.030624,-0.0243532
0.0961838,-0.021248
0.111017,-0.0177567
0.0634648,-0.0126811
-0.00782073,-0.0107415
-0.0461039,0.00326082
-0.00775824,0.0116514
0.0115009,0.0124029
0.0214972,0.00965339
0.0484762,-0.0249647
0.0610854,-0.0346468
0.0549486,-0.0269729
0.0216153,-0.0296129
-0.0433404,-0.00726199
-0.0927064,0.0129731
-0.0858379,0.0200607
-0.0431846,0.0233301
-0.00413786,0.00941264
0.0084005,-0.0085725
-0.0131675,-0.0148694
-0.0322595,-0.00862662
-0.0368514,0.00652595
-0.0341131,0.024813
-0.0173709,0.0186442
-0.0070787,-0.00977311
-0.0244289,-0.0105162
-0.00298476,0.0112859
0.00332068,0.00202852
-0.0121306,-0.0158707
-0.0118098,-0.00733883
-0.00271449,0.012668
0.0115964,0.0199687
0.0479527,0.00355218
0.0798059,0.00197458
0.0175648,0.0066368
-0.0251265,-0.00459914
0.00975032,0.00406417
0.0376992,0.0198495
0.0221255,-0.0035274
0.0148765,-0.0202912
0.0132173,-0.014918
-0.0114285,-0.0224833
-0.0312353,-0.0203925
-0.0679251,-0.00589577
-0.0327168,0.000365712
0.0289292,-0.018231
0.0300639,-0.0129473
0.0448239,0.0157511
0.068616,0.0175768
0.0659616,-0.00182215
0.044586,-0.00465303
0.00274216,0.00515715
-0.0710198,0.00992352
-0.127323,0.0091162
-0.108384,0.00453351
-0.0649274,0.0204228
-0.016451,0.0468244
0.046552,0.0241554
0.0570966,-0.0508644
0.0301994,-0.0261963
0.00594367,-0.0229555
-0.0075512,-0.0248843
-0.00923309,-0.0166529
-0.0175156,0.0237804
-0.00576455,0.0420058
0.0168413,0.0116686
0.0189735,0.0181296
0.0130858,0.026354
0.0059046,0.00801702
0.0428634,-0.0323813
0.0445275,-0.0313713
0.00365688,-0.0132971
-0.0292056,0.0163168
-0.0179809,0.0257387
0.0392194,0.00193718
0.0193709,-0.0117254
-0.00914463,-0.0165678
-0.013158,-0.0371688
-0.00832264,-0.0394399
0.000216964,-0.020628
0.0120339,0.0196447
0.020842,0.0421048
-0.0056445,0.02762
-0.0484699,-0.00683649
-0.0260054,-0.0255299
0.00516231,-0.000260341
0.0036732,0.0250019
-0.00876206,0.0183884
-0.0318027,0.0190962
-0.0277559,0.0256821
0.0382662,0.00476543
0.0219584,-0.0164892
-0.0723196,-0.0160671
-0.0440879,-0.00832249
0.00997643,-0.021699
0.00551906,-0.018324
-0.0129235,-0.00995811
-0.017336,0.0388767
0.0353878,0.0244342
0.106171,-0.00442099
0.0812984,0.00513072
0.0119717,0.00262643
-0.022452,0.00992307
-0.0283169,0.0348714
-0.0641538,0.0206499
-0.0574985,0.00604644
0.0310855,-0.0309205
0.0458916,-0.00254219
0.0403973,-0.0238477
0.0244151,-0.0377381
0.0213832,-0.0183971
0.0370289,-0.0539245
0.00501474,-0.0485531
-0.0555339,0.0108557
-0.0550637,0.0319129
-0.0404886,0.0185065
-0.073853,0.0351692
-0.0858523,0.026898
0.00828782,0.000635566
0.0204783,-0.0090984
-0.0135897,0.000264319
-0.00069061,0.00114686
0.0250391,0.0116245
0.042437,0.0136381
0.035655,-0.00665
0.023548,-0.00189344
0.0198953,-0.0174776
0.00314116,-0.0270516
-0.0195461,-0.0265027
-0.00691514,-0.0209975
0.0291014,0.0108342
0.0310245,0.030033
0.0128631,0.0295936
-0.00201846,0.0196485
-0.0134317,0.015328
0.00181637,0.00237703
0.00419209,-0.00400661
-0.00070852,0.00749285
0.0220119,-0.00444823
0.0130788,0.0114363
-0.0118585,0.00849523
-0.0342998,0.00286997
0.00246779,-0.0209331
-0.00937516,-0.0247245
-0.0798728,-0.0243461
-0.0606109,-0.01248
0.020167,-0.003768
0.0299078,-0.00106581
0.00823715,0.0196053
0.0307415,0.0376107
0.0117586,0.0282182
-0.00220697,0.0242822
0.0321466,0.0135817
0.0690166,0.0237013
0.0629586,0.0342065
0.03371,-0.0158105
-0.0131698,-0.0525904
0.00622233,-0.0252368
-0.0357338,-0.0313645
-0.0558614,-0.0380967
-0.0557159,-0.0397169
-0.0828948,-0.0417371
-0.0904764,-0.0270387
-0.039443,0.0101445
0.0397764,0.0155959
0.0337988,0.00548849
0.0296402,0.0328352
0.0631721,0.0304006
0.0645815,-0.00244393
0.0135405,-0.0225559
0.0332705,-0.0246403
-0.0205459,-0.00740462
-0.107652,0.0162355
-0.0576537,0.0335714
0.0397783,0.00843108
0.0457974,-0.0149711
0.0265424,-0.00677118
0.0428671,-0.00639982
0.0389441,-0.0254834
0.00200216,-0.0194531
-0.0174579,0.0176184
-0.0141719,0.0384285
-0.0183345,0.0181339
-0.0209504,0.013721
0.00846784,0.00821795
0.0292162,-0.00487935
0.0148627,-0.00583379
-0.0140311,0.00259137
-0.0115576,0.00371826
0.00712419,0.0144571
-0.00154702,0.0257442
-0.0272058,0.00231183
-0.0342335,-0.0128806
-0.0246201,-0.00805587
-0.021248,-0.00911473
-0.0413665,-0.015336
-0.0414929,-0.0149519
-0.0175207,0.0229704
-0.00804818,0.0332808
0.0201957,0.0380602
0.0733996,0.0153323
0.0666999,-0.00874771
0.0201485,-0.0181736
0.0150228,-0.0194096
0.00704109,-0.0203674
0.00611264,0.00343681
0.00711948,0.0310636
0.00689532,0.0159085
0.011894,-0.0249855
-0.0115196,-0.0163534
-0.015584,-0.00802136
-0.011426,0.00289419
-0.0147443,-0.0216158
-0.0129454,-0.034762
0.029999,-0.0118933
0.0483823,0.00228567
0.00909443,0.0110875
-0.0100634,0.00597981
-0.0442964,-0.00301466
-0.0808224,-0.00276747
-0.068271,0.00244394
-0.0296502,0.0323151
-0.00147975,0.0243499
0.00463536,0.0463152
-0.011941,0.00684427
-0.0231799,-0.0332906
0.017595,-0.0239671
0.0393053,-0.0301727
0.0968542,-0.0367097
0.101284,-0.0274251
0.0356204,0.0285759
-0.00772143,0.0265628
-0.0403037,0.00195934
-0.0596727,0.00148368
-0.0667824,0.011927
-0.0631132,0.029875
-0.00960469,0.038167
0.037249,0.0132054
0.0294758,-0.0483868
0.0613265,-0.00914725
0.0979631,0.0266256
0.0936416,-0.00533806
0.0506144,-0.0170332
0.00866013,-0.0170477
-0.0471705,-0.0207166
-0.0829151,-0.0332345
-0.144325,-0.0180646
-0.102158,0.0192075
0.0358637,0.0233395
0.0399909,0.00711798
0.00942593,0.00264979
0.00373938,-0.00593581
-0.0128279,-0.0072749
-0.0127284,0.00429552
0.000612023,0.00544828
-0.0165673,0.0143601
0.0159362,0.0300454
0.0435736,0.0224375
0.00778417,0.00153865
0.0167163,-0.0171416
0.0131703,-0.022372
-0.0290668,-0.013288
-0.0322093,-0.0246591
0.00154174,-0.0079828
0.0262404,0.0162971
0.0205002,0.00923669
0.0178998,-0.0189943
0.0197641,-0.0143823
0.0106096,-0.00893399
-0.00553492,-0.0142063
-0.0244734,-0.00922984
-0.0079111,-0.0116715
0.0218269,-0.00659202
0.0059968,0.0248358
-0.00065543,0.0216021
-0.00204786,-0.00784246
-0.0139218,-0.000595683
-0.0193123,0.00373471
-0.0279273,-0.00014063
-0.00802634,-0.00772697
0.00573212,0.0146364
0.00188511,0.0247998
0.00757599,0.0172328
0.00605589,0.0116115
0.0188941,0.00972075
0.00403674,-0.00712664
0.00490077,-0.0248391
0.0192979,-0.00969742
0.0348333,-0.00215318
0.045983,0.0379819
0.0182264,0.0504002
-0.0586024,0.0148691
-0.0974419,0.0046251
-0.0616359,0.0105433
-0.0231461,-0.00135032
0.00361452,-0.027768
-0.0197308,-0.0104844
-0.0323582,0.00275499
-0.014581,-0.0178542
0.0598771,-0.012944
0.0685664,0.000813036
0.0206694,-0.0118445
0.0219893,-0.0187484
0.0210436,-0.00257133
0.00678012,0.0133429
-0.00910603,0.00586092
-0.0209679,0.00862021
-0.0148438,0.0137586
0.0146918,-0.00571878
0.0265084,-0.0134947
0.000473223,-0.00961217
0.00812484,-0.0183113
0.00963424,-0.0176392
0.00703815,-0.0121727
0.000709438,0.00185091
-0.0365608,0.00265947
-0.0388739,0.0293116
2.73e-05,0.0144001
-0.00238369,-0.00765139
-0.0176893,-0.0228412
-0.0120094,-0.014689
0.0201769,0.00620157
0.0396657,0.0178939
0.00984464,0.0369838
0.000841356,0.0290465
0.0191541,0.00958462
-0.0292434,0.0126613
-0.0479109,-0.025202
-0.023338,-0.0401806
0.00256676,-0.0403097
0.00284287,-0.0105005
-0.0154546,0.0304505
0.0211453,-0.000993091
0.00720394,-0.0105915
0.0197328,-0.00543181
0.0647048,-0.00399409
0.0684827,0.00246821
0.0474847,-0.00235016
-0.00445268,0.0096184
-0.0358301,0.0247618
-0.023058,0.0367853
-0.0746743,0.0308449
-0.0919536,-0.00185269
-0.0190534,-0.0107484
0.0360539,-0.0140158
-0.01089,-0.0254065
0.0115635,-0.037453
0.0261557,-0.012931
0.0204789,0.00193666
0.00820126,0.00393667
-0.00453166,0.0078552
-0.00592293,0.00251578
-0.00452661,-0.0101
0.000948198,-0.0172015
0.00197007,-0.000150931
-0.000538643,0.0147054
-0.00976832,0.041967
-0.0121948,0.0439094
-0.0133374,0.0280842
-6.34e-05,-0.00165335
0.00241025,-0.0196162
-0.00743296,-0.0320732
0.00473305,-0.0229426
0.0179964,-0.0181793
0.0189045,-0.00855463
0.0196432,0.00539665
0.00489679,-0.00380983
0.000747991,-0.0194399
-0.0127034,-0.0249493
-0.0153012,-0.0278333
0.00755946,-0.0044207
0.0130771,0.0166374
0.00212823,0.0121428
0.0128143,0.0308352
0.0389528,0.0376772
0.0330603,0.0166802
0.0286519,0.00850027
-0.0415462,-0.00112319
-0.113593,-0.0152629
-0.105774,-0.0295083
0.0114714,-0.0202539
0.0994154,-0.00544707
0.0841791,-0.0125312
0.0378799,-0.0211884
-0.0353413,-0.0171067
-0.0796003,-0.0143589
-0.00945177,-0.0185115
0.0168491,-0.000464582
0.0259123,0.0132311
0.0185417,0.0135644
0.0155846,0.0268505
0.00445519,0.0337901
-0.0125908,0.0656898
-0.00955622,-0.00446827
-0.0227643,-0.0162591
-0.0318872,-0.00775366
-0.0214825,-0.0134038
0.00433958,0.0251789
0.0253466,0.0416699
0.0198541,-0.00239924
0.0185715,0.00526449
0.00640865,-0.0224845
-0.014154,-0.0337717
-0.0299604,-0.0216283
-0.0378614,-0.00802775
-0.0521801,0.00433224
0.0281457,-0.00222385
0.0412994,-0.00966304
0.0179288,-0.00718664
0.0216499,0.0130802
0.00314863,0.0152585
-0.00935899,0.00549698
0.0419084,0.00376242
0.040933,0.0225766
0.0127871,0.0276986
-0.00173102,0.0194775
-0.000825002,0.0232879
0.012181,0.00200436
-0.00712238,-0.0276892
-0.0444565,-0.0443966
-0.0585921,-0.0493099
-0.0264632,-0.0393907
0.00355888,0.00884301
0.0193779,0.0251947
0.0116595,0.00965332
-0.0195553,0.00303884
0.000497864,0.00786334
0.00886714,0.019862
0.00826041,0.0226221
-0.00206707,0.0268769
0.00311236,0.035171
0.00988587,0.0152246
0.0139522,0.0081644
0.000810956,0.00362478
-0.0200132,-0.0185713
-0.0364661,-0.0431435
-0.0266812,-0.0387233
-0.018551,-0.0285901
-0.00798561,-0.0155237
0.00375947,0.00769614
0.00370902,0.0132084
0.000690159,-0.000532541
0.00530051,-0.00908743
0.0126939,-0.000674839
0.0200956,0.00296904
0.0331136,0.0136246
0.0357408,0.0401229
0.0277845,0.0441979
0.00966579,0.0118179
0.00680487,0.00422707
0.015865,-0.0126268
0.0015716,-0.0349572
-0.0303286,-0.0363293
-0.0675402,-0.0117126
-0.0952475,0.00507423
-0.0506337,-0.00603272
0.051389,-0.00535028
0.129137,-0.00483598
0.0610954,-0.0158454
-0.0129178,0.019651
-0.0156868,0.00131635
-0.0309715,-0.00759768
-0.0504341,-0.00775808
-0.0211424,0.00269954
0.0164904,0.0206554
0.037338,0.0225984
0.0329284,0.00847008
0.0178047,-0.0213627
-0.0176979,-0.029906
-0.0281518,-0.0479159
-0.0149627,-0.0386003
-0.0122587,-0.0169072
-0.0204935,0.0149339
-0.0234267,0.0264034
-0.0554261,0.012221
-0.0516606,0.0265472
0.0576625,0.0245975
0.098206,-0.0110872
0.0421329,-0.0160962
-0.0291848,0.0141487
-0.000101507,0.0267316
0.0264245,0.0214981
0.0136647,0.0122447
-0.0234352,0.0159099
-0.049222,0.00580567
-0.0164542,-0.0374935
0.0330941,-0.0315821
0.018941,-0.0242249
-0.0247911,-0.0196298
-0.0154999,0.0265616
0.0167485,0.0349651
0.0358036,-0.00581553
0.00576259,0.00195893
0.0193964,0.00424003
0.0441897,0.0271398
-0.0191066,0.0468239
-0.049581,0.0369457
-0.0387166,0.00180409
0.0208061,-0.0697232
0.0284208,-0.0294291
0.00164536,0.0176817
-0.00512863,0.00498247
0.000694735,-0.0315622
-0.00951921,-0.0441573
-0.0225739,-0.0247036
0.00093892,-0.00216491
0.0222403,0.019189
0.014132,0.0347008
-0.000605833,0.0280058
-0.0146429,0.000167224
-0.0200013,-0.0149455
-0.0133205,-0.00268775
-0.0140369,-0.00674658
-0.0204537,0.00265038
-0.0189733,0.0149071
0.0116522,0.00347399
0.0134977,-0.00675745
-0.0326032,-0.0272783
-0.0494246,-0.0333487
-0.0189814,-0.0199471
0.0432465,-0.00978718
0.043549,-0.00905152
0.0272525,0.00862151
0.0324271,0.0333112
0.0414731,0.0296878
0.0271455,0.0104983
-0.00693021,0.00332944
-0.0126204,0.00153893
-0.0166754,0.00452372
-0.00966908,0.00570203
-0.0110371,0.0214695
-0.0237657,0.0230042
-0.0218397,0.0110826
0.00286273,-0.000665695
0.0099993,-0.0149817
-0.0344649,-0.0223421
-0.0103267,-0.020419
0.0399403,-0.021577
0.0126702,-0.0048337
-0.018914,0.0296157
0.000106542,0.0214179
0.0198884,0.00417244
0.0139465,0.00365581
0.0432697,-0.00152167
0.0431012,-0.00608432
-0.00805059,0.00650028
-0.0197316,0.013468
0.0310329,0.0244751
0.0148954,0.00810301
-0.0490342,-0.0243541
0.0199327,-0.0433968
0.0382933,-0.0381831
-0.0310195,-0.0373264
-0.0632671,-0.00197619
-0.0644543,-0.00551125
-0.0777123,-0.00541543
-0.0654344,0.0426121
0.00714186,0.0290815
0.0790812,-0.00531914
0.0112344,0.00710609
-0.0528738,0.0211762
-0.00685436,-0.0237762
-0.00736829,-0.0233727
0.00830408,0.015012
0.0646955,0.0101561
0.0495239,-0.0107647
0.0565405,-0.010414
0.0622477,-0.0150684
0.0623251,-0.0199982
0.0420377,-0.0136799
-0.0399272,-0.00926365
-0.0970719,-0.000734054
-0.0575813,0.0320673
0.0265225,0.0418511
0.0485535,0.0169128
0.0385143,0.00250312
0.0362412,0.000762774
-0.00460611,-0.00120847
-0.0297099,-0.0120846
-0.00195199,-0.0163553
-0.0132784,0.00800891
-0.0380136,0.0276112
-0.0204914,0.0180384
-0.0187663,-0.0131791
-0.0563436,-0.0288413
-0.0839433,-0.0177135
-0.0409107,-0.0112374
-0.0109286,-0.00977918
0.00862046,0.00145195
0.0276329,0.0190784
0.0192261,0.0210368
0.0129017,0.00592834
0.0464367,0.0093704
0.0610368,0.0219789
0.0629848,0.0030404
0.0516661,-0.0270199
-0.00798705,-0.0133127
-0.0277393,0.0194816
0.0130354,0.0372315
0.0018471,0.00760786
-0.0360236,0.0072333
-0.0403795,-0.0292475
-0.0441856,-0.0404081
-0.0841781,-0.00320137
-0.0720078,0.0112115
0.043462,-0.00662869
0.0624026,0.0124174
0.030658,0.0142482
0.00916626,0.00153781
0.00718311,-0.0105304
0.00873529,-0.0104287
0.00211088,-0.00366598
0.0153659,-0.0176117
0.0342081,-0.00434725
0.0314474,0.0234943
-0.0115728,0.017
-0.0686158,0.00117898
-0.0448357,-0.012372
0.0105764,-0.0278351
0.0390026,-0.0104848
0.0356673,0.0217922
0.0237898,-0.000714793
0.000802711,0.0211461
0.00362387,0.0304352
-0.0127673,-0.00476218
-0.0373339,-0.0175332
-0.0192393,-0.00642949
0.0155253,-0.03226
0.0263952,-0.00972759
-0.00948578,-0.0112403
-0.0654393,-0.00326356
-0.0438456,-0.000126431
0.0140216,0.00592936
0.023351,0.0163342
0.0284851,0.0151277
0.0132282,0.01045
0.00322479,-0.0172143
0.00499247,-0.0147924
-0.0137253,-0.00409235
-0.0195274,0.0207167
-0.0194359,0.0246254
-0.0335477,0.0246064
-0.00789,0.0187911
0.0333225,0.00755184
0.0553398,-0.0123648
0.0719331,-0.0330574
0.037797,-0.0237283
-0.0162557,-0.00225096
0.0147859,-0.00273436
0.0216268,-0.00345044
-0.0159286,-0.00623851
-0.0273411,-0.0240473
-0.0551536,-0.0055875
-0.0500148,0.0428971
-0.0257959,0.0141962
-0.0136464,0.00853715
0.0279251,-0.00112507
0.0612437,0.00365966
0.016054,-0.00468987
-0.0440204,-0.00947597
-0.0656047,-0.00614303
-0.0300205,-0.0151999
0.0183998,-0.00778437
0.0687059,0.00916081
0.0441247,0.0111871
-0.00718622,0.00153081
-0.0402939,0.00855625
0.0271008,-0.0019928
0.053998,-0.012844
0.0105872,-0.001171
-0.0190956,0.00868615
-0.0236582,-0.00578125
-0.000510091,0.0123982
0.00855596,0.0228829
-0.00862322,0.0152646
-0.0067106,-0.00193516
-0.00205276,0.00565273
-0.0031434,-0.00793575
-0.00412401,-0.0278449
-0.0193389,-0.0271548
-0.0261315,-0.0125702
-0.00767189,-0.0229755
-0.00439991,-0.0139048
0.00939418,0.0313553
0.0218241,0.0143765
-0.00289453,-0.0146932
0.00226637,-0.0267981
0.0115739,-0.0135974
0.00960233,-0.00718976
0.0252507,0.00546458
0.0141253,0.0254675
-0.0326774,0.0229627
-0.0313584,0.0131923
-0.0295834,0.0307078
-0.0200718,0.025992
0.00577008,0.00520537
0.0026667,-0.00959908
-0.000254629,0.00210017
0.000514133,0.017814
-0.00638814,0.0065085
-0.00147358,-0.0252897
-0.0129031,-0.0727904
0.00646821,-0.0765227
0.0517106,-0.0584244
0.033717,-0.0180086
0.0116888,0.0107536
0.00627359,0.0356941
0.00638045,0.0718
-0.00377309,0.0925012
-0.00753818,0.053955
-0.00260552,0.0322604
-0.0120863,0.00822143
-0.0178543,-0.0167269
-0.0119527,-0.0264474
-0.00383605,-0.0360701
0.00859802,-0.0368159
0.00912573,-0.0140317
0.0081524,-0.00989614
0.00954962,-0.0141223
0.0149019,-0.0223208
0.0205627,-0.03491
0.00984381,-0.00935179
0.000283966,0.0269285
0.00728798,0.0490171
0.0130867,0.0593851
0.00227126,0.072362
-0.0117012,0.0503654
-0.0267166,0.0395946
-0.0196133,0.0005831
-0.00793441,-0.0712682
-0.0185463,-0.125913
-0.0192594,-0.106535
-0.000637224,-0.0522079
0.00417919,-0.0510504
-0.00113068,-0.122653
0.00754334,-0.132221
0.00880875,-0.0499685
0.00464541,0.0668165
0.00991185,0.0522228
0.0225467,0.0525289
0.00815948,0.170132
0.00524318,0.220429
-0.00989802,0.165624
-0.0301913,0.0810241
-0.0484628,0.0302406
-0.0460254,0.005327
-0.00975033,-0.00290402
0.0245726,0.00394152
0.0141981,0.00876775
-0.0151602,-0.00626412
-0.00724422,-0.0073707
0.01501,-0.00520058
0.0121202,-0.0208205
0.00546621,-0.0584744
0.0169134,-0.0720603
0.0374014,-0.0286616
-0.000389969,-0.0354412
-0.0159903,-0.0622619
-0.00788221,-0.0709414
-0.0202888,-0.0269167
-0.0363273,-0.00257798
-0.0327303,0.0019238
-0.00984728,-0.0639344
0.0330813,-0.0757714
0.0391018,0.00274443
0.00408853,0.0431408
-0.00974382,0.0822754
-0.0103089,0.0652292
-0.00183269,0.0322335
0.0195429,0.0090193
-0.00222688,-0.00855926
0.0555659,-0.0573942
0.00696745,-0.0101332
-0.0271829,0.0381901
0.0191317,0.0121614
0.0312392,-0.0129432
0.0546959,-0.0524861
0.0793991,-0.0493354
0.00791304,0.0281629
-0.0459295,-0.0108489
-0.0532872,-0.0169737
-0.0511141,0.0493758
-0.0442223,0.0319488
0.0450814,-0.0240147
0.0988382,-0.00888709
0.0732769,0.0197121
0.0123151,0.0260795
-0.0680128,0.033886
-0.0925654,0.0161139
-0.0540457,0.00582758
-0.0114398,-0.00876112
-0.0115106,-0.0501964
-0.0164669,-0.0539494
-0.0265073,-0.024517
0.0151934,-0.0244587
-0.00605251,-0.00570532
-0.0421782,0.0342606
-0.00848668,0.0914484
0.0379052,0.0505573
-0.0283497,-0.0258773
-0.0904543,-0.0425312
0.022566,-0.0163184
0.0866174,-0.0161197
0.0514725,-6.42e-05
-0.013549,0.0283994
-0.0460185,0.0222213
-0.0351867,0.0186384
0.00451496,0.00905242
-0.0186328,-0.0314298
-0.0119135,-0.0403061
0.0716198,-0.02152
0.111461,-0.0206329
0.0536303,-0.0201038
0.0346472,-0.00876626
0.0586158,0.0165133
0.091739,0.0411945
0.105753,0.0194317
0.0772212,0.0258286
-0.0570934,0.00541602
-0.136603,0.00484761
-0.0886581,0.0221482
-0.0539274,0.00420702
-0.0698011,-0.0218921
-0.0699694,-0.0160418
-0.0724631,0.014818
-0.111265,0.0548885
-0.100245,0.0271178
-0.0493789,-0.0406113
0.00188224,-0.0676628
-0.0358226,-0.00116457
0.020167,0.0303727
0.144407,0.00230678
0.102046,0.0397037
0.118945,0.00550525
0.0903025,-0.042229
0.0288151,-0.0247277
0.0106455,0.00283632
0.0313737,0.0145251
-0.00733921,0.0208811
-0.0587046,0.0435062
-0.184524,0.0331679
-0.318682,0.0185857
-0.130235,-0.0221755
0.245967,-0.0301871
0.346056,-0.0397377
0.296705,-0.0238112
0.218723,-0.0193919
0.0349778,-0.0916619
-0.147775,-0.0724537
-0.32627,-0.0180921
-0.303726,-0.034946
-0.232072,0.00301459
-0.193055,0.038819
-0.0754561,0.0561515
-0.0149881,0.108824
0.0748617,0.0633376
0.374594,0.00284686
0.63563,-0.000818874
0.572265,0.0821799
0.482382,0.0791034
0.228337,0.00913786
-0.262263,-0.0767964
-0.505801,-0.0817473
-0.62847,-0.0618294
-0.594288,-0.0276256
-0.273798,-0.00761165
-0.0605528,0.00638872
-0.0150799,0.0146201
0.0363308,0.0509823
0.174713,0.0111773
0.166573,0.0329912
-0.110479,0.030692
-0.216477,0.0144378
-0.264186,0.0310246
-0.176328,0.0444083
0.19295,0.0427718
0.340269,0.00651838
0.228727,-0.099162
0.329513,-0.159875
0.336924,-0.108846
0.16661,-0.0628813
0.0355004,-0.0563408
0.0317544,-0.00116179
0.0277227,0.0547048
-0.112429,0.0307316
-0.325217,0.0444564
-0.305259,0.11451
-0.0272741,-0.0567798
0.176958,-0.0877082
0.116479,0.0627747
0.0464775,0.0225398
0.061839,-0.105746
-0.0707515,-0.0743557
-0.141162,0.0634733
-0.203398,0.147426
-0.172991,0.0936803
0.0255175,0.00932212
0.146117,-0.0166521
0.111594,-0.0276275
0.0412688,-0.00795274
0.0522374,0.0246903
-0.0266066,0.0124043
-0.13751,-0.0209704
-0.172972,-0.0326983
-0.102247,-0.00977784
-0.0972736,-0.0109481
-0.010601,-0.0359207
0.216354,-0.0408121
0.234646,-0.0216177
0.116437,-0.00924056
0.0567335,-0.0176336
0.0806307,-0.00813023
0.0745687,0.0377703
0.074941,0.0782653
0.165489,0.0851389
0.163943,0.0314382
-0.0745811,-0.0283515
-0.152869,0.00994102
-0.127632,0.0362529
-0.108205,-0.00694976
-0.0667877,-0.0312439
-0.119184,-0.0562458
-0.200513,0.0203759
-0.273812,0.100311
-0.317313,0.056161
-0.193897,-0.132413
-0.0861519,-0.167286
0.1384,-0.0187062
0.347957,0.0198193
0.252326,0.015218
0.195777,0.071165
0.0986126,0.0638545
-0.0566226,-0.00481389
-0.0236338,0.025638
0.09777,0.0694337
0.183978,0.0780814
0.316961,0.00559727
0.398862,-0.113125
0.176604,-0.108783
-0.0610292,-0.0143729
-0.143996,-0.0151098
-0.206432,-0.0703621
-0.309173,-0.053676
-0.344652,-0.00354787
-0.272667,0.0393564
-0.149065,-0.0134745
-0.0636361,-0.0108026
-0.0215685,0.106794
0.0353784,0.162743
0.200882,0.0615864
0.194785,0.038635
0.188683,0.0442094
0.170946,-0.0476035
-0.0107559,-0.125139
-0.173009,-0.0807055
-0.211642,-0.029152
-0.0636182,-0.0612402
0.0937928,-0.0756445
0.0632761,0.00379797
0.0208116,0.0442437
0.13189,0.029373
0.127087,0.0171899
-0.098385,0.0363275
-0.17596,-0.0415201
-0.224358,-0.0240916
-0.155954,0.00644249
0.0311189,0.0310894
0.0731096,0.0234913
0.0146634,0.0440402
-0.0340571,0.123213
-0.0633927,0.0519658
0.0600942,-0.0306388
0.113085,-0.00606177
0.0112793,0.0453591
0.00716429,0.0325739
0.0125446,-0.0144082
-0.0512224,-0.0306286
0.0690457,-0.096934
0.032521,-0.0527368
-0.0609056,0.0297393
-0.0972698,0.0236907
-0.0695127,-0.0294515
0.06306,-0.04912
0.185184,-0.0610973
0.172966,-0.0705328
0.0500861,-0.0460207
-0.0913664,-0.0555588
-0.0544867,-0.0469182
-0.00214988,-0.0133495
0.0136441,0.00224035
0.025129,0.0133438
0.0330565,0.0333727
0.0518352,0.0381158
0.0228064,0.0285103
-0.0215902,0.0391757
-0.0605276,0.0270664
-0.0502399,0.0478235
-0.0468059,0.0749254
-0.0638898,0.0788025
-0.0436529,0.0440428
-0.00679973,0.0289953
0.0584611,0.010116
0.0795306,-0.0283063
0.0250271,-0.0303136
0.0429036,-0.0235241
0.0862176,-0.0223426
0.0860228,-0.0207855
0.0702742,-0.0248177
0.0544838,-0.0105689
0.0638267,0.012379
0.0304084,0.00953047
-0.0525224,-0.000600378
-0.116866,-0.0261274
-0.163041,-0.00948913
-0.215769,0.00477037
-0.17126,0.0109771
-0.148755,0.0344304
-0.0457615,0.000192891
0.106675,-0.0542032
0.207539,-0.0599684
0.101995,-0.0442204
-0.112447,-0.024153
-0.0639934,0.00249867
0.110904,0.0097252
0.0744888,-0.0166198
9.33e-05,0.00213651
0.0324272,0.0154398
0.0263322,0.0398293
-0.000234273,0.051996
0.0305839,0.0305178
0.0194238,0.0125861
0.00428655,-0.019528
-0.0133681,-0.00608847
-0.00936519,0.0106583
0.0112187,0.00834431
0.0221467,-0.00307509
0.0117668,0.0229077
-0.0250994,0.0148519
-0.00600347,0.00368381
0.0404279,-0.0112779
0.0228808,0.00729598
-0.0402658,0.0467701
-0.107733,0.0438209
-0.0898806,-0.0107077
-0.0830416,-0.025788
-0.140873,-0.057388
-0.0379708,-0.0450883
0.0928347,-0.0341433
0.140738,-0.0180829
0.063507,-0.00229384
0.018018,0.0284396
0.054135,-0.0173396
0.0973665,-0.0373804
0.0639173,-0.00959431
0.0596022,0.012438
0.072657,0.0361901
-0.0015471,0.0362735
-0.102334,-0.0174004
-0.129072,-0.0372912
-0.143145,-0.00188593
-0.0856523,0.0214777
-0.0625057,0.0176454
-0.0336984,0.00225472
0.0646676,0.00172239
0.0486727,0.0319284
0.0293204,0.0219992
0.0433858,-0.00641965
-0.0151564,-0.0324197
-0.0122781,-0.0141326
0.0308352,-0.00485238
0.049246,0.00449195
0.0382996,-0.003964
-0.00337418,0.000333655
0.00476882,0.000736115
0.0284787,-0.0146564
0.0356831,-0.0135395
-0.0287348,-0.0315432
-0.0568235,-0.0298715
-0.00447186,-0.00218413
0.0413221,0.0205393
-0.033275,0.0266625
-0.0487599,0.0181965
-0.050228,0.00933316
-0.051259,0.00672156
0.0347066,-0.00634885
0.0493989,-0.0208681
0.0703633,-0.0155365
0.228185,-0.00836684
0.0728638,0.00623707
-0.147122,0.0288124
-0.105673,0.0197408
0.0634649,-0.0155148
0.0397059,0.0247697
-0.0659389,0.0418222
-0.0848122,0.0209099
-0.00917343,0.00556492
0.0677124,0.0134821
0.0873016,0.0235612
0.0519423,0.0363965
-0.0419811,0.00721656
-0.10798,-0.033471
-0.0610379,-0.0174065
-0.0326234,-0.0116273
-0.0634564,0.0285203
-0.0691204,0.0241131
-0.0513991,0.00307314
-0.0659308,-0.00667791
-0.064899,0.0108008
-0.136076,-0.0156191
-0.0247365,-0.0435242
0.172339,-0.0349396
0.157244,-0.0357062
0.107315,-0.0319256
0.00283429,-0.0193232
-0.0338282,0.0341696
0.0231911,0.043727
0.00255119,-0.0238366
0.0376558,-0.0350333
0.0911673,0.00382393
0.0988836,-0.00126508
0.0667154,-0.00997759
0.0178134,-0.0135296
-0.0158125,0.000192037
0.0314054,0.0328347
0.084247,0.0360521
-0.00435016,0.0166679
-0.105957,0.0168865
-0.180124,-0.0375596
-0.100205,-0.0594196
0.00700284,-0.0152951
0.000400424,0.00778379
-0.0273726,0.00412351
-0.0200437,0.00237522
0.0141386,-0.00459034
0.0339476,-0.00718872
0.0102432,0.00820761
-0.000449384,-0.0158768
0.00247782,0.0111874
0.00290291,0.00395956
0.0103792,-0.0296192
0.0530829,0.0333764
0.05995,0.0219482
0.0235398,-0.0564904
-0.0169589,0.00699796
-0.0712496,0.136574
-0.00175784,0.0142006
0.0342433,-0.0272323
0.0226846,0.00510768
-0.140995,0.026017
-0.131035,-0.0047034
-0.0297349,-0.0153407
0.0326228,0.00236146
0.0629382,-0.0338416
-0.0327558,-0.0350987
0.0209954,-0.027465
0.012349,-0.0169117
-0.021598,0.0099138
0.0272029,0.00825756
0.0214605,0.00600864
0.010313,-0.00955432
0.0408071,-0.0184674
0.04784,-0.00851172
0.0376204,0.0063328
0.0545402,0.0125432
0.0559812,0.0311968
0.0334505,0.0252608
-0.00824717,-0.00022953
-0.0212013,-0.00177368
-0.0112748,-0.00717928
-0.0617714,-0.0216638
-0.060638,-0.0174765
-0.0449213,0.0159111
-0.0412924,-0.00288947
0.00645377,0.0314886
0.0965805,0.0339721
0.149431,0.00708553
0.128425,0.00565029
0.0662297,-0.0207265
-0.0915314,-0.0322324
-0.20285,-0.0400316
-0.19127,-0.0263386
-0.111257,0.00479869
-0.0119846,0.0139982
0.0588706,0.0804355
0.0592675,0.0494718
-0.00933799,-0.0107951
0.0752317,0.00105229
0.195114,-0.0138903
0.18347,-0.0206514
0.0471653,-0.028181
-0.251954,0.0230572
-0.374447,-0.00284387
-0.152423,-0.0144051
0.0232883,-0.00324627
0.068206,0.019441
0.0494417,0.0501075
0.0413522,0.0181936
0.0256183,-0.0633245
-0.00396038,-0.0901942
0.0160512,-0.0241457
0.0527208,0.0437564
0.0060589,-0.0264017
0.0628952,0.00530014
0.0857561,-0.00203991
0.0153227,0.0143904
-0.00863464,0.0131513
-0.0346662,0.0171367
-0.0346423,0.0296664
0.0545169,0.0125519
0.0728927,0.000828068
0.0560834,-0.00646603
0.0308519,-0.0117951
0.011203,-0.00449785
-0.0027016,-0.00853769
-0.00468561,0.00295963
0.0153425,-0.00306983
0.0141168,-0.0192328
-0.00153118,-0.0230477
-0.0595251,-0.020146
-0.125109,-0.00722826
-0.106446,0.00258841
-0.0558751,0.00317785
-0.0608154,0.00580767
-0.0469411,0.00928278
0.00100251,0.0360748
0.0821683,0.00725437
0.0872134,0.00193914
0.0432602,-0.0203615
0.048237,-0.0442929
0.0974995,-0.0236593
0.0753107,0.0408444
0.016906,0.0448386
-0.000463257,0.0375281
0.0645245,0.013774
0.132744,-0.0201262
0.014323,-0.00513789
-0.239029,0.0634983
-0.222514,0.0290025
-0.123421,-0.0262208
-0.020884,-0.038908
0.00937566,-0.0514499
-0.0419387,-0.0404599
-0.0679049,-0.0181869
-0.0196281,0.0122375
0.00963159,-0.00102767
0.0241883,-0.0084195
0.0870055,-0.00265079
0.0571298,-0.000645255
-0.0185542,0.0126957
-0.0541809,-0.00420547
-0.00232033,0.00527347
0.0932272,0.00232348
0.081879,-0.00444283
0.032638,-0.00285909
0.00517883,0.0133018
0.0137989,0.0195483
0.057454,0.0225519
0.0454084,0.0213038
0.00291497,0.0127009
-0.00398018,0.00350135
-0.0118297,-0.00470311
-0.0227839,-0.00478999
-0.0095573,-0.0216618
0.0110961,-0.0230123
0.0202404,0.00956631
0.0079299,0.00236641
-0.023904,-0.0031519
-0.0562487,0.000604907
-0.0459866,0.000764721
0.0109588,-0.0143281
0.0368988,-0.015908
0.0428527,0.00316226
0.0263096,0.0146816
-0.014216,0.0375713
-0.0159756,0.0408698
-0.00673779,-0.0110809
-0.0281808,-0.0162608
-0.0427523,0.0238996
-0.0985301,-0.00308984
-0.122514,0.0134389
-0.0357734,-0.0390017
0.0151473,0.0157241
0.0767925,0.0423181
0.122307,-0.0134876
0.0700022,0.0211589
0.177704,0.00361481
0.147897,-0.0139618
-0.158899,-0.0410771
-0.271419,-0.0225079
-0.111877,-0.0119179
-0.0159297,0.00912638
-0.0572469,0.00634074
-0.0334525,-0.0236746
-0.0105595,-0.0142603
-0.00458726,-0.00648958
0.0331581,-0.0256089
0.0867262,-0.0166418
0.122183,-0.0081433
0.135061,-0.0312148
0.0675002,0.00184334
0.0158901,-0.00583984
-0.0298038,0.0129222
-0.00795425,0.0239341
0.0657375,-0.0032763
0.0370663,0.00107278
-0.0351345,0.0117568
-0.0342512,0.0210421
-0.0479228,0.0250493
-0.0249494,0.0060413
-0.0038991,-0.00687279
0.000266386,-0.00340098
-0.0188023,-0.00467376
-0.0243713,-0.0228385
-0.00105133,0.00100557
0.0259809,-0.00993377
0.0120147,0.00983916
-0.0305084,0.00220362
-0.0743828,-0.0136525
-0.0629783,-0.011399
0.0154486,0.00682447
0.0803593,0.015823
0.113267,0.0105851
0.0798616,0.00634271
-0.032719,0.0280623
-0.0752749,0.0356917
-0.0417733,0.00622197
-0.0611976,0.00361446
-0.039629,0.0704693
-0.00419637,0.0227637
-0.0717439,-0.00597158
-0.0442313,-0.0489107
0.0443993,-0.0266111
0.0148507,0.00951167
-0.0247219,-0.0237189
-0.0374931,-0.0144168
-0.113214,0.0208594
-0.152707,0.00492519
0.00644789,-0.00134674
0.171205,-0.0159218
0.167712,0.00648152
0.100192,0.0217071
0.0727256,0.00942828
0.0609621,0.0550383
0.0296084,-0.0160472
-0.00954487,-0.0690338
-0.0603922,-0.0465642
-0.0579669,-0.0338177
-0.0279672,-0.0470447
0.00683879,-0.00237074
0.0137315,0.0213477
0.0303255,0.0269008
0.0405802,0.00582145
0.0423659,-0.0082208
0.0481766,-0.00413179
0.0270576,0.0169259
-0.0326101,0.0288115
-0.0670441,0.0306931
-0.0334509,0.0149003
-0.0147243,-0.00518469
-0.0759469,-0.00614009
-0.0634335,-0.0464419
-0.0400744,-0.0460239
-0.0361838,0.00555815
-0.00382581,-0.0190623
0.0413402,-0.0224594
0.0408376,-0.000769265
0.00593442,0.0151422
0.00425647,0.0102537
0.0195593,-0.0221472
0.0526321,0.0187628
0.0774025,0.011063
0.0725133,0.0172631
0.0430728,0.0338695
0.0349326,0.0158489
-0.0177547,-0.00884253
-0.0947201,-0.00747834
-0.104091,0.00149489
-0.0336097,0.017996
-0.0156451,-0.012107
-0.0252864,-0.0261474
-0.00556239,-0.0036701
0.0256805,0.0126969
0.042175,0.00719582
0.0173632,-0.00553672
-0.0340401,0.0138231
-0.0554198,-0.000582737
-0.0456748,-0.0131694
-0.0127247,-0.0183178
0.0506543,0.0063806
0.0741486,0.0126926
0.0573262,0.0196039
0.0296657,0.00954804
-0.00530589,-0.0112749
-0.0339359,-0.0168224
-0.026218,-0.0174438
0.0125604,-0.0212034
0.0486101,-0.0237431
0.000625518,0.00523524
-0.150992,0.0464153
-0.12856,0.0557724
-0.0505379,0.0110398
-0.0134543,0.0215423
0.0215184,0.00351351
0.074965,-0.0249578
0.0482147,-0.0106952
-0.0290482,-0.00837249
-0.036525,0.016851
0.0356003,0.0275977
0.0758809,0.0155219
0.054051,-0.0352966
0.0359252,0.00111632
0.0146901,-0.00172539
0.0518459,-0.0501479
0.0561195,-0.0439235
-0.0056652,0.00250731
-0.0456305,0.0430109
-0.00880021,0.0174203
0.0792292,-0.00150642
0.127067,-0.0058045
0.0886981,-0.0216173
-0.0378058,0.00457949
-0.139776,0.0118622
-0.135618,-0.0338323
-0.0800772,0.0119838
-0.0308605,0.027593
0.00190917,0.0182316
-0.0147853,0.0224111
-0.0208766,-0.0252223
-0.0199733,-0.0523141
-0.00467839,-0.0408129
0.00174831,-0.015195
0.0030313,-0.00041163
0.00848349,0.0016177
0.0317393,0.00696498
0.0210833,0.012121
-0.00653325,0.0111983
-0.0358939,0.020505
-0.0215285,0.0369871
0.00894949,0.0319999
-0.00845852,-0.00165765
-0.0129287,0.012365
-0.0705597,0.0107254
-0.114906,0.00232559
0.0294009,-0.0135322
0.15615,-0.00239761
0.17652,-0.0270654
-0.00831823,-0.0416832
-0.0775175,-0.00510595
0.00862226,0.0204766
0.00262431,0.0223634
0.00708093,0.01297
0.037043,0.00218827
-0.0689156,-0.013441
-0.0502406,-0.0597687
0.0483717,-0.0610458
0.0461651,0.0169229
0.00928677,0.0166698
0.00107976,0.00931616
0.0453856,0.0109463
0.0510164,0.0181676
0.0477173,-0.00710694
0.059427,-0.00375001
-0.0264668,0.00420781
-0.0823907,0.030898
-0.0653983,0.0375227
-0.031002,0.0213579
0.00825175,0.0155599
0.0270879,-0.00251364
0.00648023,-0.0206047
-0.0410412,-0.0208416
-0.0513103,-0.0172444
-0.0175277,-0.0254206
0.0289,-0.00950394
0.0419173,0.0180922
0.0975812,0.0134661
0.0486325,-0.00732903
-0.0597425,-0.014853
-0.03436,0.00112819
0.0512881,0.0248846
0.0689079,0.0328439
0.0513427,0.0582084
-0.109062,0.0225925
-0.134736,-0.0249302
-0.119762,-0.0183686
-0.208594,0.00988357
-0.151976,-0.0290154
0.0501032,-0.0235246
0.142287,-0.0306559
0.0918521,-0.0416724
0.03349,-0.00831812
0.0083342,-0.0149833
0.00570296,-0.00114707
0.0283035,0.0162202
0.086512,0.00656749
0.0715994,-0.00556977
0.00215703,-0.0141197
-0.00396597,0.025066
0.0199817,0.0148097
0.0403581,0.00839112
0.0283695,0.0162255
0.00254964,0.011864
-0.0199342,-0.00149621
-0.0226369,-0.0156379
-0.0215199,-0.0198656
-0.0154682,-0.00112963
-0.0159885,0.0127441
-0.0102652,-0.0394685
0.00654589,-0.0488732
0.00236794,0.0129071
-0.0138673,0.0371569
-0.0232708,0.0467579
-0.0214053,0.0176225
-0.00690337,-0.028725
-0.0107964,0.0239883
-0.0178482,0.021163
-0.00105114,-0.000854003
0.0516309,0.0180392
0.0881432,0.0345645
0.0249529,0.00259779
-0.0163138,0.0201267
0.0377214,-0.0549284
0.053721,-0.0564508
-0.0187958,-0.0090903
-0.0134436,0.0209913
-0.00831583,0.0155424
-0.0555835,0.0192211
-0.0739445,-0.00652193
-0.043015,-0.066837
-0.043115,-0.0762613
-0.00739829,-0.0411905
0.0224056,0.059178
0.0587022,0.0669658
0.0729389,0.0354098
0.00950326,0.0140253
-0.0805496,-0.0115538
-0.116545,-0.0211376
-0.0488207,-0.00934821
-0.00198876,0.0040708
0.0141128,-0.00991728
0.0208796,0.0123991
0.0130589,0.0135872
0.0173763,0.00749571
0.0276341,0.00601613
0.0267888,-0.0141934
0.0117775,-0.00721012
0.00996985,0.00169512
0.0114978,0.00383406
0.0110289,0.0109742
5.77e-05,3.21e-05
0.00751461,-0.0120544
0.0127238,-0.0102793
0.0237885,-0.0218036
0.0295234,-0.00415681
0.00511045,-0.00137678
-0.0303007,0.00379681
-0.0378536,0.00687859
-0.015002,0.00985369
0.0123672,0.0210749
-0.00324792,-0.00361919
-0.0943879,-0.01076
-0.183241,0.0116827
-0.0577969,0.0120739
0.122395,0.00572499
0.225934,0.00370952
0.158024,-0.0159395
0.045022,-0.0279397
-0.0426997,0.0175801
-0.0816381,-0.00825311
-0.179824,-0.026926
-0.0891719,0.0142026
0.0917326,0.00607525
0.111499,0.00448927
0.0642186,0.030184
0.050785,0.0013078
0.0130733,-0.0151411
0.0144179,-0.0118444
-0.0108117,-0.0152158
-0.0335819,-0.0191942
-0.0217334,-0.000102757
-0.0501026,-0.0114693
-0.0712396,-0.00546236
-0.0113333,0.0237694
0.0101363,0.0243337
-0.0579106,0.0161988
-0.103816,0.0249082
-0.0476904,-0.00824653
0.067389,-0.0171863
0.0811067,0.01086
0.0347232,0.0093374
0.0357411,0.0458951
0.117374,0.032133
0.0965928,-0.043929
0.0211108,-0.0415924
-0.0658037,-0.0142702
-0.11261,0.00172242
-0.0439898,0.00840465
-0.00658412,-0.000241128
0.0167291,0.00922155
0.00120842,0.0137565
-0.00653855,0.00677697
-0.00791386,0.0134026
-0.0410346,-0.000341844
-0.0339085,-0.00420557
0.060585,-0.0478746
0.0965937,-0.0450826
-0.000550208,-0.00639215
-0.0615543,0.00222724
-0.0620289,0.0187451
-0.0375524,0.00294593
-0.0270495,-0.0016523
0.0480178,0.0206416
0.10199,-0.00433778
0.0454433,-0.0202929
0.00560066,0.00704066
0.0359338,0.0205421
-0.00484504,0.00131545
-0.0801827,-0.0390073
-0.0789603,-0.0414327
-0.0837532,0.00777401
-0.0404239,0.015634
-0.0342672,0.00848412
-0.0490154,0.0133291
0.0084408,0.000721127
0.0467264,-0.0053907
0.0283142,0.00619342
0.0373215,0.00954959
0.0545594,0.0266842
0.0561604,-0.00184955
0.0302607,-0.0159049
0.00515664,-0.0090867
-0.00655719,-0.00480244
-0.00505105,0.00150335
0.0286324,0.0161752
0.0800714,0.0154037
0.0555023,-0.0237015
-0.000597629,0.00638495
0.0422507,0.0127779
0.0358449,0.0390038
-0.0811516,0.0138717
-0.113015,0.000947022
-0.0653006,-0.00910792
-0.00672081,-0.00326147
-0.0020973,0.00164676
-0.0124694,0.00398544
0.0539261,-0.00658144
0.0555499,-0.026524
-0.0183465,-0.0258285
-0.0616256,-0.0163402
-0.0319883,-0.00483324
-0.00573926,0.00410616
0.0122804,0.00034685
0.0259665,-0.00622454
0.0245781,-0.00388186
0.0112797,0.0148627
0.0088999,0.0150049
0.00593509,-0.0179856
-0.021562,0.00152483
-0.0503669,0.0217074
-0.0364229,-0.00626407
-0.0484134,0.0135861
-0.0561964,0.0128129
-0.0282897,0.0161484
0.0385555,0.00430765
0.0474999,-0.0108725
0.0362495,0.0116524
0.0325849,0.0020377
0.0180356,-0.0290509
-0.0242712,-0.0348223
-0.00401447,-0.0186585
0.0298104,-0.00109463
-0.00531099,0.00484429
0.00755812,0.00310863
0.00291369,0.00555851
-0.0297726,0.0259315
0.0226891,0.0204388
0.0650668,0.00283146
0.000741327,0.00753647
-0.0309533,0.0056783
-0.0290768,0.0112272
0.0623851,-0.0040041
0.123905,-0.0354233
0.0639784,-0.0351015
-0.0567589,0.0149804
-0.124162,0.00656008
-0.0861293,-0.0121947
-0.0851744,-0.00094915
-0.0588053,0.0149622
0.0341783,0.0274099
0.074318,0.0208104
0.0844241,0.0112037
0.017677,0.0146651
-0.0534188,-0.0173253
-0.031472,-0.0357893
-0.044912,0.0128549
-0.0206867,-0.000687305
0.0271681,-0.0241814
-0.00288122,-0.0461079
0.0212356,0.00246803
0.0342722,0.0179498
-0.0329686,0.00619555
0.00647313,0.00508576
0.0738489,0.01098
0.119156,0.00357885
0.163849,-0.0392863
0.048804,-0.0179472
-0.133205,-0.0105643
-0.163352,-0.00281218
-0.0950874,0.0119523
0.00529549,0.0126564
0.0166545,0.0382496
-0.0148365,0.020034
-0.0345246,-0.00700771
-0.0175644,-0.0176893
-0.00567337,0.00555772
-0.00141039,0.0176875
-0.000463489,0.0264552
-0.010733,0.0147137
0.0232876,0.00649986
0.0175832,0.000179953
-0.0392101,-0.0205299
-0.036432,-0.020248
0.0413744,-0.0201575
0.0997817,-0.0283917
0.048083,0.00336259
0.0256784,0.0316608
0.0131032,0.0127669
-0.0055995,-0.00413726
-0.00831318,-0.0136038
0.0253271,-0.0294707
0.0350405,-0.0179911
-0.016187,0.00576268
-0.0796906,0.00650806
-0.0873134,-0.000585513
-0.0361717,0.00364463
-0.0226826,0.025421
-0.0371057,0.0200248
0.00545219,-0.00539064
0.0615383,-0.0267771
0.0567568,-0.0150969
0.0372954,0.0167703
0.0297887,0.039543
0.0155671,0.0269462
-0.0106561,-0.0222638
0.0204022,-0.0289218
0.0315617,-0.00700321
-0.0226793,0.00364125
-0.0216142,0.016996
0.0205094,0.0167964
0.0264185,-0.00521982
0.0277685,-0.0223791
-0.0241369,-0.032212
-0.0727562,0.00431554
-0.0708856,0.00825451
-0.0690874,0.00897128
-0.0203157,-0.0186589
0.0689056,-0.00358697
0.089305,0.0267832
0.0825246,0.0163866
0.0681162,0.00247226
-0.0370452,-0.00466628
-0.156451,0.00671847
-0.220632,-0.00367568
-0.0550768,0.00816541
-0.0335352,0.0157263
0.00929743,-0.0107059
0.0660368,-0.000958695
0.0494735,0.00530604
0.0921868,-0.0133177
0.153417,-0.0226926
0.0751127,-0.0132886
0.00293793,-0.0152686
0.0644006,-0.022667
0.0325997,0.000711258
-0.021473,0.0261642
-0.086405,0.0175183
-0.137461,-0.0114842
-0.0860325,-0.0300432
0.0402822,0.019758
0.0799455,0.0385306
0.0158017,-0.0177586
-0.028397,-0.00869658
-0.00957234,0.0152745
-0.0457357,-0.000507062
-0.0471425,-0.00678841
0.00901282,-0.00877246
0.0254387,-0.00805137
-0.00860857,-0.000856947
0.0210033,0.0156392
0.115652,0.0211129
0.14539,0.0124301
0.0821138,0.031472
-0.121841,0.0119959
-0.18913,-0.0188268
-0.0499444,-0.0193027
0.0506832,-0.00231962
0.0572856,0.00707663
0.0274175,0.00567934
0.0514434,-0.00369133
0.0444936,-0.00228809
-0.0285105,0.0101449
-0.0640805,-0.0355556
-0.0267137,-0.028636
0.00750749,-0.0319544
-0.00154411,0.00705197
0.000872227,0.0201488
-0.0254865,0.0175445
-0.0329923,0.0259522
-0.0353221,0.0186077
-0.0420819,0.0031365
-0.0908955,0.000866361
-0.0998475,-0.00042923
-0.0149583,-0.0099794
0.0045901,-0.0393451
0.0220936,-0.028261
0.0561474,0.0108877
0.0363046,0.0353261
0.062524,0.0159767
0.073714,-0.00754556
-0.0188964,-0.00948435
-0.0384252,-0.00156629
0.0520955,-0.0139355
0.0110402,0.0345623
-0.00888766,0.0288517
0.0890626,-0.0316543
0.0983398,-0.00886905
0.0404292,-0.00141976
-0.0416183,-0.00688417
-0.0530653,-0.0183332
-0.0375027,-0.0365118
0.0204895,-0.0122416
0.0293618,0.0265938
-0.0185495,0.0108543
-0.0255924,-0.00390212
-0.00803961,-0.00704704
0.0245017,0.0198161
0.0421282,0.0162081
0.0110027,-0.00348046
-0.0368175,-0.00411927
-0.0252884,0.000348982
-0.0638128,0.0283591
-0.0335359,0.0264543
0.0212745,-0.00942792
0.0481141,-0.0162503
0.0451616,0.000328993
-0.0413842,-0.0290457
-0.0830671,-0.0117576
-0.0299942,0.0038206
-0.0280499,0.00839163
-0.0107168,-0.000850691
0.024034,-0.00177931
0.0133266,-0.00869992
-0.010166,-0.00126529
-0.00937578,0.00576117
0.00959327,-0.0126613
0.0577355,0.00432752
0.0667861,0.00171794
0.01805,-0.00785269
-0.0697861,0.00963396
-0.13683,0.0416479
0.000663667,0.0237222
0.0828493,0.00269895
0.083787,0.00693009
0.0353889,-0.0494546
0.0204577,-0.0262965
0.0780602,0.0406917
0.0842348,0.000764619
0.015764,0.00484603
-0.0783967,0.0127389
-0.185648,0.0124075
-0.15791,-0.00598923
0.00531249,-0.012017
0.107138,-0.00511901
0.0418428,-0.0265199
-0.0911705,-0.0326038
-0.078436,-0.0238025
-0.028224,0.00401156
0.0215793,0.0151724
0.0446153,-0.0234607
0.028511,-0.00807503
0.0175722,0.0454034
0.0348324,0.0290785
0.101593,0.021752
0.133677,0.00451129
0.170603,-0.0282863
0.134178,-0.0149121
-0.0682886,-0.026275
-0.188891,0.0127791
-0.166794,-0.00645803
-0.10676,-0.00246936
-0.0920561,0.013451
-0.0192226,0.0289158
0.0344271,0.0212986
0.020682,-0.000599574
-0.0159415,-0.00718417
0.00806952,-0.0128675
0.0438258,-0.0172146
0.00253971,-0.0145172
-0.0292388,-0.00224693
-0.00518072,0.00187408
0.0139512,-0.00458677
0.00977325,0.0239356
0.0101359,0.0273596
-0.00682141,0.000722456
-0.0259134,-0.0149186
-0.0101576,-0.0073492
0.0122623,-0.0103633
0.0213271,0.0168844
0.0617003,0.0318873
0.0874116,0.016798
0.0624499,-0.00941011
0.0088729,-0.0232881
-0.0264514,-0.0385814
-0.0319669,-0.0428989
-0.0286462,0.00605805
-0.0429056,0.0206229
-0.0306345,0.0229921
0.00331112,0.00229364
0.0425197,-0.000976754
0.0400524,0.0120806
0.0242438,0.0022799
0.0145104,-0.00730114
-0.0309709,0.000835241
-0.0535622,0.00344212
-0.0604426,0.0230002
-0.0617627,0.0346973
0.0365211,0.00849918
0.119515,-0.0215067
0.0784142,-0.0168592
0.0203987,-0.029622
0.0484662,-0.00564605
0.0660858,-0.0312088
0.00241746,-0.0503759
-0.166002,0.0457259
-0.187114,0.047399
-0.0247736,0.0147544
0.00430783,-0.0205982
-0.0122717,-0.0410786
-0.00194247,-0.00660457
-0.0450574,0.0409103
-0.0961286,0.0393621
-0.0261259,0.0126281
0.0475078,0.0224053
0.0538811,0.00135287
0.136174,-0.0497708
0.114472,-0.0306062
0.0332897,-0.00575321
0.0340544,-0.0189951
-0.033578,-0.026619
-0.0506004,0.0235383
0.055487,0.0357419
0.0790159,-0.00632701
-0.0326244,-0.024476
-0.0533859,-0.00455351
-0.0216139,0.0378799
-0.016922,0.0402337
0.0406536,-0.0262473
0.0116939,-0.0607755
-0.0583305,-0.0214931
-0.0115771,0.0198626
-0.0352028,0.0170576
-0.111117,0.00669006
-0.132185,0.00910734
-0.0209116,0.00141147
0.0383485,-0.0157267
0.0021306,-0.0110532
-0.00423689,-0.00305425
-0.00445561,0.0112458
0.039063,0.0112521
0.0500521,0.0227233
0.033701,-0.0388136
0.0324334,-0.0511844
0.0909518,0.00747373
0.0899828,0.0222782
0.0432124,0.04144
0.0119017,0.0299734
-0.00196541,0.0062983
-0.00025606,-0.00376163
-0.0384055,-0.0089969
-0.0421074,-0.0022968
-0.0514411,0.00919836
-0.0330485,0.026355
-0.00612259,0.0187014
0.0111261,0.000863537
0.021022,0.00561082
-0.012925,0.0158861
-0.0278355,-0.0146629
-0.0118912,-0.0354196
-0.0216252,-0.0197563
-0.012454,-0.0188521
0.0142152,0.0191702
0.0844589,0.0175494
0.0756078,-0.0160495
-0.0091553,-0.0148375
-0.021075,-0.00593962
-0.0233392,0.00947708
-0.0238742,0.0108677
0.0708662,0.00350078
0.108563,0.0116069
0.0109113,-0.0109353
-0.132398,0.0173788
-0.104744,0.0255533
-0.0130827,-0.0146427
0.0625047,-0.0412647
0.00817626,-0.0312293
-0.0729841,-0.00567547
-0.0426346,-0.0132629
-0.0118528,0.0374032
-0.00925031,0.00177806
-0.0807632,-0.0498075
-0.125295,-0.043701
-0.0489998,-0.0185493
0.077882,0.000917263
0.0963456,0.0122879
0.0425113,0.0193679
0.0184701,0.0342504
0.0505122,0.0692045
0.0903499,0.0406014
0.133486,0.0234868
0.0935883,-0.00867562
0.0337525,-0.0214197
-0.0241356,-0.0140717
-0.0497758,-0.0231532
-0.0537817,0.00355609
-0.0669318,-0.0146994
-0.0466803,-0.00667991
-0.0307142,-0.0474078
-0.0751127,-0.0381637
-0.0799268,0.0216182
-0.0245168,0.0225865
0.0187168,0.00549497
-0.00736468,0.0203975
0.00111837,0.0290732
0.022922,0.0101357
-0.0048787,-0.0152064
-0.0177332,-0.0080077
0.00899009,0.00990898
0.0358308,0.0057398
0.0428521,-0.0019839
0.0070094,-0.00408209
0.00848031,-0.0140055
0.0508418,0.00157028
0.00165008,0.00618064
-0.0355255,0.00388628
0.022138,0.00482847
0.0644467,0.000828201
0.0739885,-0.00604275
0.0496208,0.00352742
-0.0563542,0.0241621
-0.124494,0.0181186
-0.0596333,-0.00028182
0.00991156,-0.0185547
0.00549438,-0.0294453
-0.0133815,-0.0174264
-0.00896412,0.00115827
0.0300547,0.00643946
0.0350688,-0.0209233
0.0304763,0.0106957
0.105144,0.0528334
0.165396,-0.00718364
0.105726,-0.0170571
-0.0299718,0.0028579
-0.130617,-0.0164506
-0.130518,-0.0190917
-0.096025,-0.00137906
-0.0823138,0.0219373
-0.0814863,0.0344532
-0.0550202,0.0355143
-0.0420762,0.0115977
0.00614316,-0.0166756
0.0299628,-0.0302741
0.0405129,-0.0332447
0.0824487,-0.0627926
0.0671312,-0.035197
0.040179,0.0345444
-0.0169145,0.0195298
-0.0251196,-0.0033487
0.0128605,-0.0231755
0.0426596,-0.0275917
0.00857542,0.044415
-0.0130695,0.0415297
0.0228131,0.036252
0.0469949,0.0241669
-0.0111742,0.00690651
-0.035573,0.0116033
-0.0248918,-0.0361662
-0.0467602,-0.0212235
-0.0824816,-0.0126792
-0.0393017,-0.0162912
-0.0553392,0.00214768
-0.0175026,0.0154544
0.0508082,0.0167488
0.00898834,0.000748394
-0.000332756,-0.00936911
0.0492693,-0.0107673
0.123702,-0.016271
0.148161,-0.00123234
0.252603,0.0081348
0.257164,0.0354119
-0.0209044,0.00408296
-0.205315,-0.00438547
-0.274283,-0.0133893
-0.231161,-0.00837143
-0.109828,-0.0258246
-0.0347087,-0.0338876
-0.0729713,-0.0102783
-0.0108341,0.0264866
0.0924249,0.0365677
0.0555665,0.0308528
0.0440422,0.008766
0.0493962,-0.0336129
-0.0660051,-0.000845578
-0.120437,0.0174676
-0.0407057,0.00305207
-0.032966,-0.0119284
0.0476377,0.000893213
0.130974,-0.00574413
0.127765,-0.00395981
0.0392317,0.00103268
-0.0230446,-0.0218745
-0.021248,-0.0140271
-0.00235453,0.0019085
0.0165169,0.00932372
0.0186552,0.0084307
0.0221343,0.0192251
0.0502833,0.0173222
0.0701579,0.00480101
0.0649468,-0.0157068
-0.0177863,-0.01602
-0.102958,0.00609192
-0.0936613,-0.0174537
-0.00160666,0.0120294
0.0713908,0.0251152
0.0391737,-0.00784974
-0.074056,-0.0311719
-0.106991,-0.0390026
-0.0933667,0.016207
-0.0286143,0.0306565
0.0661221,-0.00141438
0.112261,0.00823002
0.0818355,0.00925791
-0.00774524,0.0147463
-0.0731789,0.0158779
-0.0886887,0.00374886
-0.0554991,-0.00614435
-0.02955,-0.00198348
0.0383669,-0.0152259
0.0395415,-0.0290936
-0.0165592,0.0163985
0.00251816,0.0524997
0.0228791,0.00082438
0.0428468,-0.0258107
0.0549372,-0.0203137
0.0147113,-0.031864
-0.00536312,-0.0434526
0.0209124,0.000642271
0.0208216,0.0198463
0.0147703,0.0307035
-0.0124866,0.0242136
-0.0327989,-0.00133084
-0.0202591,-0.0113819
-0.013304,-0.00147707
0.00581601,-0.0159082
0.017203,-0.033879
0.0194051,-0.0215321
-0.00990012,0.051732
-0.0282846,0.0147023
-0.0121383,0.0244141
0.0139712,0.0400923
-0.0537665,0.0173227
-0.0266915,-0.000114792
0.0399995,-0.0133042
0.00194824,-0.00643826
-0.0197715,-0.000132894
0.0745841,-0.00326622
0.102536,-0.0129628
-0.0157272,-0.0120719
-0.0664907,-0.0149781
-0.033128,-0.00465648
-0.0907427,0.00166067
-0.0744299,-0.0073966
0.0287247,-0.0102441
0.0512452,-0.00948474
0.0347536,-0.0101093
-0.00629586,-0.00372926
-0.0113672,0.0184734
-0.0121803,0.00146743
-0.0510296,-0.00843327
0.0208672,-0.00309578
0.190414,0.00517088
0.142695,0.0274489
0.0310165,0.0462309
-0.032191,0.0155016
-0.0687253,-0.0317053
-0.0885229,-0.0305742
-0.120707,-0.0269029
-0.127244,-0.0161188
-0.0246671,-0.0181947
0.0204373,-0.0160647
-0.0399053,0.0332874
-0.0346,-0.000766031
-0.0036114,-0.00212432
0.0150933,0.0265598
0.0180735,0.00309473
0.0183914,0.0290097
0.0556404,0.00459896
0.0979569,0.00441958
0.161665,0.0150631
0.184783,0.00423188
0.0205434,-0.0233716
-0.112435,-0.0294448
-0.0872554,-0.0119566
-0.0307161,-0.00782513
-0.0691198,-0.0118453
-0.0643405,-0.0051251
-0.00852102,0.00702958
0.0167682,0.0259233
0.00470314,0.009259
-0.0264123,0.0339682
-0.0314529,0.0155276
0.00311278,-0.0258522
0.0230184,-0.0114318
0.0204659,0.00435504
0.0106514,0.00598536
-0.0108371,0.00391149
-0.0130507,0.00272183
0.0148032,0.00437952
0.0237155,-0.00839026
0.0174707,-0.017487
0.0132693,-0.025343
0.000640374,-0.0295733
-0.0165411,-0.0121389
-0.0144604,0.0128132
0.0203248,0.0146926
0.043685,0.0133759
0.0291429,-0.00283633
0.0270891,-0.0147191
0.00613438,-0.000935227
-0.037087,0.00806485
-0.084055,0.0286574
-0.0399342,-0.00273678
-0.0238822,0.00119309
-0.0369503,0.0211035
-0.000244503,0.00970734
0.0310349,0.0123378
0.0277541,0.00666045
0.0340997,-0.0291788
0.0530069,-0.0342702
0.0574045,-0.00697384
0.0221437,0.0155806
0.0313992,0.00206821
0.0839365,-0.00777251
0.0445154,-0.0111278
-0.0687127,-0.00549874
-0.111281,-0.0100024
-0.0865841,0.00915835
-0.000327719,0.00675676
0.0368755,0.0115153
-0.0174089,0.0284096
-0.0751048,0.0180201
-0.11796,0.00521557
-0.105228,0.0150044
0.0120867,-0.000389038
0.026987,-0.0298444
0.0374387,-0.0624132
0.00964335,0.00512966
0.0370001,0.0396948
0.0546184,0.00668157
0.0149473,0.00644595
-0.00157628,0.000141004
0.000576277,-0.00162482
0.0443628,-0.0196003
0.0954781,-0.0333987
0.0280847,0.00875852
-0.0225228,0.0135617
-0.0133877,0.0281052
-0.00695764,0.0110262
-0.0311637,-0.00757366
0.00441447,-0.0164078
0.0292507,-0.0206728
0.0515224,-0.0247626
0.0882196,-0.00688067
0.0281791,0.0241408
-0.0924953,0.0137531
-0.1063,-0.00289736
-0.0831905,0.00529352
-0.0292279,0.0289898
-0.0158495,0.0491665
-0.0385287,0.0301886
-0.00653884,0.00300985
0.0691916,-0.0191766
0.131355,-0.0404852
0.0662322,-0.0125064
-0.0073657,0.0171358
-0.0519937,-0.0151347
-0.0655422,-0.0242823
-0.0344243,-0.0190457
-0.0200683,-0.0284065
-0.0172567,-0.000673747
-0.00926678,0.0111154
0.0045139,-0.0116423
0.00425851,-0.0309766
0.00515375,0.017405
0.000748792,0.0376955
0.00930155,0.00609045
0.0137392,-0.00589353
0.0101298,0.00184706
0.00404797,0.0159273
0.0201408,0.0266401
0.0412397,0.01828
0.036636,-0.0011343
-0.0112704,-0.0161862
-0.021673,-0.0180576
0.000362883,-0.0154443
0.0207184,-0.0134851
-0.00658803,0.0284646
-0.0506349,0.00754877
-0.0463668,-0.00747663
0.00530909,0.00323789
0.0489076,0.0088876
0.117118,-0.0151683
0.0698754,-0.0180182
-0.0794059,-0.0202095
-0.0986527,0.00577094
-0.0278112,0.0292677
0.00533365,0.00973825
0.0427045,-0.00680465
0.008997,-0.0170527
-0.0410028,0.016782
-0.0110639,0.00931292
-0.00291955,0.011157
-0.00741691,-0.0482376
0.0858161,-0.0726421
0.113704,0.028116
0.00959501,0.0372885
-0.0908664,0.00189044
-0.123221,-0.00324366
-0.0912481,0.000564221
0.00843225,-0.00365083
0.0394449,0.000439945
-0.00154258,0.00596449
-0.0474567,0.0291608
-0.0404546,0.0299956
0.0108187,0.00880941
0.023786,0.000480679
0.0542299,0.00926275
0.0351509,0.00646355
-0.0345447,-0.0274581
-0.0408588,-0.00397362
0.0548228,-0.00259614
-0.00702018,-0.00685128
-0.0155926,-0.00373228
0.0643333,-0.00389742
0.0320937,-0.0132996
0.0270736,-0.0105726
0.0414196,0.0163125
0.0559326,0.013527
0.0587911,0.00460443
0.0289129,0.00806342
0.0364896,-0.00781049
-0.00874991,-0.0188709
-0.106715,-0.016422
-0.134503,0.000471942
-0.0886758,-0.00915486
-0.0489067,-0.0356025
0.00756302,0.0104311
0.0443964,0.0453138
0.0101803,0.0090945
-0.056664,-0.0073925
-0.0364256,0.0135261
0.0126012,0.00468911
0.0372581,0.00904772
0.0369838,0.00636496
0.0316202,-0.0166273
0.0639537,-0.0113205
0.0667806,0.00533791
-0.0262029,-0.00271652
-0.0638827,-0.0168602
-0.0137121,-0.00949826
0.0234037,0.0062741
0.0158471,-0.0214307
-0.00777729,-0.0299077
0.0085419,0.00566297
0.0386139,0.00537355
0.0224061,0.0104659
0.00496165,-0.00623307
-0.0262198,-0.0145958
-0.0310231,0.0123179
0.00852312,0.0466501
0.0631553,0.0515712
0.130883,0.02623
0.15284,0.00523509
0.0540261,0.00672406
-0.132866,-0.0160352
-0.249792,-0.0163975
-0.279089,-0.0113155
-0.13595,-0.00457028
-0.0340869,-0.0411566
0.00488948,-0.0353915
-0.0257705,0.0626309
0.00219432,0.00958556
0.0800031,-0.00896426
0.118721,-0.00815825
0.172978,-0.0223127
0.133102,-0.0101998
0.0165466,-0.00367336
-0.0618555,-0.0256689
-0.0634389,-0.00894578
-0.0484532,0.0224569
-0.04805,0.0131013
-0.0321164,0.00460902
0.0262777,0.00760295
0.0462854,0.00760012
0.0182986,-0.011838
0.05695,-0.0344313
0.0906912,0.0155249
0.0354588,0.0222805
0.0158603,0.0118515
0.055344,0.0113237
0.0192206,-0.000646646
-0.136802,-0.000377869
-0.162433,-0.0162605
-0.0792412,0.0140385
0.0252301,0.0311774
0.118904,-0.0342002
0.0593728,0.0062448
-0.0510289,0.0170129
-0.0560749,0.00436795
-0.000661644,-0.00590397
0.0307277,0.00597365
0.0387061,0.00461867
0.0471582,-0.0365071
0.0257663,-0.0231312
-0.0239703,-0.00262273
-0.048723,0.000115462
-0.0405055,0.0107551
-0.0448114,0.0120816
-0.0396087,0.00115053
0.00959295,-0.0130654
0.0364756,-0.0085065
0.0479371,0.0172623
0.0463807,0.041763
0.0156364,0.0118359
0.0117821,-0.00468558
0.0335784,-0.0130653
0.0882744,-0.0187297
0.0377879,-0.0208049
-0.0830855,-0.0221385
-0.0929578,-0.0208548
0.0116124,0.00860712
0.0596544,0.0290088
0.0168179,-0.00167461
-0.0230959,0.00326842
-0.0362429,-0.0132637
-0.0477715,-0.0267102
-0.0858665,-0.0185157
-0.123997,0.00160187
-0.137051,0.0325092
-0.12243,0.0553975
0.00502088,0.0471903
0.181365,0.00917022
0.184303,0.000614847
0.11517,0.00539755
0.0592226,-0.0595508
0.0340689,-0.0631761
-0.000923485,0.0352576
0.0432528,0.0417255
0.0529616,0.00114368
-0.0616875,-0.0216081
-0.10345,-0.0142948
-0.0578459,-0.00429565
-0.00969335,-0.0172982
0.0143788,-0.0108023
0.0120767,0.0147375
0.0163599,-0.00667837
0.0779406,0.00661724
0.0473254,0.00976352
-0.0886266,0.00397799
-0.165688,0.0244089
-0.112311,0.0131158
0.00271267,-0.0259299
0.0384017,-0.0129278
0.00197103,0.0101262
0.017072,0.0056321
0.0849435,-0.00854619
0.120492,-0.0104934
0.138035,-0.00161031
0.0692035,0.00281663
-0.0782717,0.013986
-0.116013,-0.0019941
-0.0320354,-0.0154293
-0.0491722,0.0300869
-0.123262,-0.0394677
-0.0842675,-0.024053
-0.0128261,0.0203575
0.00634138,0.0104341
0.00126717,0.00624314
0.00300615,0.00647331
0.0184651,-0.00113213
0.0603951,4.87e-05
0.1413,-0.0110137
0.149256,-0.013388
0.108092,0.0060137
0.0785337,0.0496098
-0.0103471,-0.0106327
-0.0911921,-0.0504565
-0.0465009,-0.0814921
-0.0597834,0.0157834
-0.111606,0.0701024
-0.0695328,0.0179862
-0.015333,-0.0191098
-0.0293317,-0.0290952
-0.063116,-0.00877741
-0.0990296,0.0208621
-0.0421671,0.0606566
0.0732608,0.0707551
0.206801,0.0334399
0.264805,-0.00563472
0.0880891,-0.0345261
-0.0550148,-0.0379029
-0.0452364,-0.0196301
-0.0896819,-0.0370094
-0.151653,-0.0362662
-0.150384,-0.0154048
-0.0778287,0.0191423
0.0201305,0.029628
0.0867277,0.0126865
0.0707162,0.0336196
0.0558942,0.0679962
0.0455987,-0.0198719
-0.0267697,-0.0640065
-0.0589369,-0.0147184
-0.0605106,0.0289684
-0.0686558,0.0178784
-0.0579345,-0.0134902
-0.0274688,0.00614851
-0.0339174,0.011501
-0.0198701,-0.0160744
0.02654,-0.0274344
0.0443372,-0.0287338
0.0480764,-0.0467744
0.0542569,0.0107681
0.0638728,0.0419442
0.0727223,-0.00312116
0.0335822,-0.009107
-0.0181282,0.0168566
-0.0165103,0.0119926
0.0248337,-0.0134173
0.132295,-0.00306994
0.233274,0.0116418
0.218325,0.0217304
0.062717,0.0275793
-0.0925971,0.029704
-0.202672,-0.00031523
-0.184987,-0.0272109
-0.169226,-0.0303385
-0.200665,-0.0641139
-0.0742835,-0.0444411
0.0349758,0.00519354
0.0580929,0.00932821
0.0241704,-0.0216593
-0.00219264,-0.00863377
0.00669141,-0.00344852
0.0553516,-0.00640838
0.0518986,0.0312505
0.0227764,0.0609765
-0.0243925,0.0740739
-0.0416222,0.0534139
-0.0298906,-0.0206953
-0.0465244,-0.0234564
-0.0157799,-0.00363376
0.00845941,-0.0296482
0.0884595,-0.0243141
0.172685,-0.0296814
0.201581,-0.0120454
0.192059,0.00621246
0.0115057,0.0177694
-0.161183,0.0181897
-0.163633,-0.000642492
-0.19879,0.017282
-0.150988,0.0236086
-0.0754349,-0.00186661
-0.0861375,0.0173715
0.024841,-0.0143881
0.123628,0.0144265
0.169095,-0.0115662
0.11198,-0.0105414
0.0297715,-0.0248895
-0.00463354,-0.0250563
-0.0363586,-0.00579271
-0.086958,0.00210445
-0.107777,0.0222503
-0.0255229,0.0249587
0.0511513,0.00354455
0.098315,-0.0213584
0.0886815,-0.00626097
0.0615466,0.0234829
0.0164186,0.00289272
-0.132918,-0.0431025
-0.199416,-0.0329215
-0.0928201,0.00264579
-0.0507216,0.0224214
-0.0622279,0.00458255
0.0147369,0.0185319
0.0606641,0.0169798
0.0727904,0.00971964
0.156121,-0.00147766
0.194587,-0.0247916
0.0993925,-0.00153278
-0.00799863,0.00754055
-0.0700667,-0.010015
-0.0965624,-0.00150778
-0.067032,-0.0114998
0.0126857,-0.0291281
0.0352787,-0.00186222
0.0624909,0.0270643
0.0519637,0.0290523
-0.0211828,0.0114351
-0.0414655,0.0119566
-0.0280197,-0.00453018
-0.101684,-0.0223655
-0.0979325,-0.0211931
-0.00947109,-0.0118206
0.0174399,-0.0158028
-0.0146075,0.00165226
-0.0484469,0.0270639
0.0104367,0.0227893
0.131692,0.0125278
0.154533,-0.0460108
0.0609608,-0.0353049
-0.0888331,0.012814
-0.134184,0.0223513
-0.0378673,0.0154095
0.103528,-0.0204509
0.0628206,0.0152986
-0.0571737,0.0192382
-0.100061,-0.0164386
-0.0512743,-0.0195904
-0.0313856,-0.0136134
-0.0179717,0.00284149
-0.00540758,0.0131396
-0.0217903,0.0304805
0.0173262,0.0229086
0.103263,-0.0198345
0.132123,-0.0161597
0.0830949,0.0231274
0.0223845,0.0195881
-0.0411659,-0.0216591
-0.0576725,-0.0206055
-0.098283,0.00705904
-0.0481298,0.000554432
0.0307865,0.00806255
0.0620224,0.0153247
0.123205,0.0061839
0.171956,-0.0016123
0.0750349,-0.0124437
-0.111983,-0.0137361
-0.22949,0.00614081
-0.249202,0.00982793
-0.134474,0.00793008
0.0254266,0.0103105
0.0848315,-0.00457653
0.060352,-0.0138004
0.0398628,-0.0148683
0.044361,-0.0126438
0.0190197,0.00969868
-0.00126428,0.000904646
-0.0222961,0.0116151
-0.0182243,0.0133328
-0.0376056,0.000939505
-0.031194,-0.0110903
0.0196312,-0.0183988
0.0391799,-0.0143394
0.0401246,0.0142085
0.0961182,0.00980139
0.161299,-0.00626761
0.115314,-0.00975193
0.0189741,-0.0114837
-0.0221434,-0.00540792
0.00883488,-0.0147364
0.0156572,-0.0108864
-0.0133951,0.00605264
-0.0362297,0.0253324
-0.0611034,0.0209588
-0.0890354,-0.0129163
-0.0890837,0.00452386
-0.0780604,3.19e-05
-0.0747587,-0.0161675
-0.0543013,0.00868507
0.018219,0.0207815
0.0591802,0.0437854
0.0262992,0.0788015
-0.00409357,0.0283744
0.01117,-0.0394529
0.0223313,-0.0241413
-0.00304169,-0.0288118
-0.011353,-0.0383673
0.00261324,-0.0397229
0.0251841,-0.0283916
0.0211785,0.0128123
-0.030594,0.00264798
-0.0477726,-0.0183276
-0.035148,-0.0030145
0.0295291,-0.00307097
0.0915879,-0.00200883
0.100229,0.00721826
0.0245436,0.00686422
-0.0204135,0.0155297
0.0324422,0.0159721
0.022152,0.0272111
-0.0419052,0.0150079
-0.0631208,0.00755942
-0.0436514,-0.0208217
-0.0423117,-0.0293697
-0.0481149,-0.0160177
-0.0253273,-0.00733535
-0.00337575,0.0136163
0.0009542,0.0108043
0.00365822,0.00440291
0.00748556,0.00152295
0.017866,-0.00981579
0.0291708,-0.012816
0.0327307,-0.0137588
0.0352112,0.0287229
0.0298616,0.0409729
0.00936499,-0.0294539
-0.0120605,-0.0199747
-0.0161318,0.00988261
-0.025089,0.0145804
-0.0320764,0.00757329
-0.0178451,-0.010789
-0.00933955,-0.0122159
-0.00149811,0.00863717
0.01886,0.0139566
0.0184061,0.00144476
0.0508599,-0.00372239
0.0329269,-0.0025885
-0.00973912,-0.0194442
-0.0328127,-0.019587
-0.0266954,0.00932538
-0.00946861,0.0212452
0.012461,0.0228871
0.0346498,0.00951205
0.0476166,-0.00167834
0.0355912,-0.0047219
0.014751,-0.00508813
-0.00527912,-0.00935945
-0.0244713,-0.0148731
-0.0228238,0.00566464
-0.0193082,0.0208558
-0.0265639,0.00389834
-0.0302145,-0.00364149
-0.0233091,-0.0120459
-0.01784,-0.0173442
-0.0182176,-0.0188131
-0.0110203,-0.0118848
-0.0116096,-0.0150461
-0.0119832,0.0274296
0.0231956,0.021001
0.0346086,0.000764121
0.0127742,-0.00269841
0.0156915,-0.0051751
0.0243567,-0.0110495
0.00545964,-0.0128152
-0.0117945,-0.00852073
-0.0190205,0.0144455
-0.0223033,0.0284493
-0.0338197,0.0161589
-0.0137739,0.00897445
0.0523114,0.00419207
0.0956862,-0.00266443
0.0924413,-0.00318043
0.0539473,0.00253088
-0.00467987,0.0021536
-0.0689135,0.0102604
-0.0927195,0.0177994
-0.0787715,0.0122182
-0.0419726,-0.00413259
-0.0176834,-0.0140107
-6.03e-05,-0.0210841
0.0121445,-0.0243177
0.025147,-0.0240031
0.0255592,0.0011473
0.0201154,0.00889872
0.00294008,0.00151681
-0.015146,0.00181574
-0.0189735,-0.00385438
-0.0177476,-0.0128054
-0.0132979,-0.0115191
-0.00648734,-0.00344109
-0.000726239,-0.00157455
0.0123019,0.011359
0.021509,0.0155074
0.0199984,0.00218678
0.0146488,-0.00433267
0.0125263,-0.00132325
0.0107962,-0.00781055
0.00664455,-0.0136816
0.000550253,-0.00189166
-0.00189858,0.0159727
-0.00573245,0.0144168
-0.00728083,0.00653463
-0.00718499,0.00290384
-0.0106248,-0.00380918
-0.0186037,-0.00471083
-0.0219764,0.00419881
-0.0153366,0.00328894
-0.00835818,0.00647142
0.00293668,0.0216312
0.00890469,0.0205802
0.00430215,0.00377383
-0.0028567,-0.00721385
-0.00359885,-0.0121971
-0.00481608,-0.0166253
-0.00651852,-0.0194531
-0.00574828,-0.00315775
-0.0109389,0.0128665
-0.0180792,0.00532555
-0.00921677,0.000253094
0.0281049,-0.000620447
0.148579,-0.00442159
0.210759,-0.00522958
0.136376,0.00130424
0.0472701,0.00411231
-0.0403762,0.0100596
-0.148056,0.0173581
-0.176045,0.00977905
-0.0824736,-0.000609379
0.0183004,-0.00315214
0.0355342,-0.0129064
-0.00868561,-0.0274499
-0.0880578,-0.0299674
-0.131836,-0.00814324
-0.121405,0.00334127
-0.108391,-0.000940071
-0.074016,7.88e-05
-0.0112556,-1.33e-05
0.06713,-0.00752202
0.0854756,-0.011594
0.148738,-0.00555572
0.341967,0.00426034
0.425557,0.022664
0.259625,0.0295955
-0.0435487,0.0148921
-0.312749,-0.00286727
-0.396368,-0.0112087
-0.334842,-0.014964
-0.200464,-0.0201245
-0.038627,-0.00784754
0.125995,0.0124416
0.44393,0.020298
0.622531,0.020825
0.462812,0.0176966
0.11684,-0.00232828
-0.300874,-0.0260153
-0.597731,-0.0222457
-0.621682,-0.00213763
-0.406948,0.0132933
-0.203232,0.0195664
-0.078699,0.00977834
0.0252426,-0.00436441
0.192461,-0.000282203
0.261645,0.00415724
0.160186,-0.00384882
0.0486593,-0.0117859
-0.0580583,0.000429616
-0.0885469,0.0149168
-0.0350705,0.00398573
0.0371428,-0.0109245
0.128873,-0.0132398
0.314933,-0.00861815
0.682557,0.00309001
0.781902,0.0147071
0.440104,0.0169084
0.0127995,0.0115536
-0.390692,0.011953
-0.735597,-0.000913804
-0.827937,-0.0131464
-0.561367,-0.00259664
-0.232057,-0.0018713
-0.0837449,-0.0189943
0.0388204,-0.0191335
0.0768884,0.000893506
0.0357432,0.011009
0.0278103,0.00506734
0.00846608,-0.0019599
-0.0174,-0.00901598
-0.0582542,-0.0136102
-0.106838,-0.0142054
-0.0871058,-0.00687802
-0.0511727,-0.00261998
0.0407234,0.010396
0.15859,0.0156978
0.375918,0.00406613
