Comp Ch 3,Comp Ch 4
0.259756,0.0286625
0.060781,-0.00399911
-0.150832,0.0635711
-0.265557,-0.0018573
-0.334837,-0.0621503
-0.249058,-0.00829492
-0.0738108,0.0259835
0.0439204,0.0187466
0.0825556,0.0332301
0.0528237,0.0073288
-0.0155914,0.0167538
-0.0382764,0.0120768
-0.0244016,0.0119189
-0.00921619,0.0030264
-0.0421514,0.0607069
-0.0612912,0.0975559
-0.0347672,0.0275989
-0.036853,-0.0424209
-0.00378255,-0.0201484
0.0841017,-0.00250835
0.154965,-0.0293748
0.140154,0.00713788
0.0664881,-0.00959115
0.0387021,0.0049758
-0.0114977,0.0140566
-0.0605288,0.0219715
-0.0259852,-0.0332122
-0.0255468,-0.0534842
-0.0613663,-0.0480404
-0.0554847,-0.00171976
-0.0156487,0.00805568
-0.0455407,-0.0494667
-0.0725906,-0.0366131
0.0409444,-0.0397045
0.0571081,-0.0452915
0.0360011,-0.0408161
0.0649141,-0.0461496
0.0667937,-0.0504523
0.0693069,-0.0151614
0.0795077,0.0177611
0.0548096,0.0210388
0.0159546,0.028234
-0.00760158,0.0295369
-0.0590666,0.0210287
0.00627962,-0.00254241
0.0581644,-0.00428036
-0.00781049,0.0021851
-0.101265,-0.0021202
-0.143909,0.0209656
-0.111724,0.0181779
-0.0246591,-0.00335499
0.0415458,-0.0140606
0.0293275,-0.0134891
0.020982,-0.0229811
0.0483918,-0.0140108
0.0554506,0.0181315
0.0280561,0.038389
0.0151114,0.0241986
0.00508866,0.0140281
-0.00340254,0.00623115
-0.0262823,0.00234578
-0.046766,0.00102535
-0.0431643,0.00109541
-0.0500632,-0.000385806
-0.0259506,0.0141157
-0.00598046,0.0274561
-0.0260956,0.0273671
-0.0250261,0.00222151
0.0298723,-0.0185958
0.0728786,-0.0122681
0.0658531,-0.00462724
0.0355406,0.00529766
0.0132577,0.0450006
0.00763953,0.0429024
0.0392745,0.00517621
0.0488808,-0.0325367
-0.0133584,-0.0210483
-0.0687616,-0.0145949
-0.0285973,-0.0100649
0.0128407,-0.0173492
0.000995817,-0.0276471
-0.00336555,-0.0116659
-0.000990915,0.0131211
-0.0073397,0.0114917
-0.0185417,0.00585418
-0.0864765,0.0301025
-0.13853,0.0600947
-0.102214,0.024297
0.00972967,-0.0280895
0.145175,-0.0545716
0.0807905,-0.0286693
-0.0098324,0.0151143
-0.022188,0.0361098
0.0137713,0.0296593
0.0459542,0.00183693
0.054056,-0.00664683
0.0108887,-0.0018393
-0.0309144,0.00393341
-0.0226485,0.0133988
-0.0010275,0.00375298
0.0140265,-0.0117254
0.022759,-0.0210075
0.0245494,-0.0208491
0.020028,-0.0233132
0.00143829,-0.0261699
-0.00924224,-0.0137362
-0.0198446,0.0139397
-0.0165906,0.0379646
-0.0086357,0.0251552
0.00479686,-0.0168691
-0.0168357,-0.0145368
-0.0382647,-0.014528
-0.0267594,-0.00699148
0.00435029,-0.0110949
0.0193533,0.00965608
0.0303606,0.0273637
0.0108522,-0.00208953
-0.0225473,-0.0032674
-0.00104104,-0.00369198
0.0148105,-0.0218558
0.0119025,-0.0264732
0.00455948,-0.023446
-0.0400648,-0.0165057
-0.0404001,-0.00138111
-0.000119357,0.0055515
0.0330945,0.0371619
0.0547796,0.0193205
0.0436635,0.00610015
0.0443052,-0.00501662
0.0538546,0.0224383
0.0255622,0.0474557
-0.0336113,0.0235716
-0.100032,0.0198163
-0.13091,0.00983478
-0.0977137,-0.0134066
-0.0843597,-0.0250679
-0.0425688,-0.0176756
0.0196711,-0.0109886
0.0552694,-0.0305264
0.129407,0.0137419
0.0994947,0.0471411
0.0890764,0.0204604
0.0618785,-0.0254604
-0.000706052,-0.00716596
-0.0371881,-0.0445563
-0.0325941,-0.031358
0.000367944,-0.00597655
-0.0201849,0.0378952
-0.0388412,0.0141127
-0.017611,-0.0214111
-0.0419534,-0.00390914
-0.0226423,-0.0109123
0.0350691,-0.0332716
0.0284523,-0.0400801
-0.0217285,-0.0243388
-0.00759412,0.012517
0.00955659,0.0402576
0.00712805,0.0419358
0.0269538,0.00511466
0.0182596,-0.00991339
-0.0250227,0.00178077
-0.027554,-0.00622931
0.003187,-0.000760667
-0.00287012,0.000198559
0.0217291,0.00355708
0.0622969,0.0232643
0.00147153,0.0156053
-0.0638637,-0.00137131
-0.0335403,-0.00905973
0.0171183,-0.0180951
0.00760997,-0.021508
-0.0070439,-0.0346522
-0.00454683,0.0128282
0.00870015,0.0230812
0.014408,0.00863444
0.00667216,0.00669556
-0.00447705,0.00974705
-0.0163511,0.0147644
-0.023367,0.0268766
-0.00426562,0.0117005
-0.00196844,-0.0211691
0.00235182,0.0034831
0.026486,0.0109496
0.0293926,0.00299619
0.0305524,-0.0188577
0.00353797,-0.0347353
-0.0337838,-0.0176635
-0.00711572,-0.0193695
0.0171463,-0.00891456
-0.00350851,0.0779375
-0.0510633,0.0709714
-0.0384517,0.0264743
-0.0282153,-0.0162392
-0.0109938,-0.012868
0.00305452,-0.0182335
0.0170281,-0.0312489
0.0162978,-0.034418
0.0377004,-0.0343519
0.0358239,-0.0110093
0.0257098,-0.0157394
0.0353727,-0.0163516
0.0220412,-0.0111232
0.02964,-0.0125153
0.0128904,-0.00680016
-0.0180196,0.0247588
-0.0342757,0.0592437
-0.0571641,0.0553132
-0.019859,0.0386695
0.0332476,0.0225068
0.0145183,-0.0117244
0.000371931,-0.0413646
-0.00683451,-0.0331117
-0.0168649,-0.0315858
-0.0202599,-0.0233981
-0.00950094,0.00775098
-0.00016154,0.0101965
-0.00837163,-0.00926244
-0.010842,-0.0115228
-0.010622,0.00109307
-0.0134611,0.00146785
-0.0151818,0.00614593
-0.0270902,0.0387856
0.00362307,0.054569
0.00585633,0.0332387
0.0166764,0.013823
0.0390049,-0.00257281
0.0317912,-0.0210483
-0.00783127,-0.019394
-0.0277382,-0.0176251
-0.0502575,-0.0284024
-0.0157082,-0.0237737
0.0286377,-0.0117404
0.0190099,0.0465912
0.0160141,-0.013999
0.0341253,-0.123345
0.0260013,-0.096316
0.00384358,-0.00174479
-0.00147748,0.0282812
0.0148095,0.0676608
0.0182875,0.106303
0.0104526,0.0629278
-0.00614715,-0.0185356
-0.0120859,-0.0241848
-0.00836495,-0.0227478
-0.0213239,-0.0246964
-0.0342069,-0.000775743
-0.0340598,0.00602682
-0.0209227,0.00985238
0.00259094,0.02859
0.0204459,0.00529946
0.00901721,-0.0132963
0.00197127,0.00488658
0.0198966,-0.0125809
0.017463,-0.0174151
0.0102175,0.00774155
0.0109939,0.0364761
0.0097349,0.0246968
0.0114556,0.0121726
0.00882971,0.0129567
0.00125823,-0.0134525
-0.013218,-0.0393212
-0.0252293,-0.0372045
-0.0304304,-0.0216354
-0.0380935,-0.0148102
-0.0316293,0.0332309
-0.0279497,0.0257053
-0.0365326,0.00487534
-0.0350678,0.0144864
0.0149255,-0.0207694
0.0527959,-0.057281
0.0505326,-0.0298704
0.0682924,0.00575022
0.0559435,0.0331345
0.0277551,0.0262983
-0.00134682,0.0160885
-0.013068,0.00557794
-0.00976389,-0.00469599
-0.0241686,-0.0177157
-0.0288955,-0.025258
-0.0243147,-0.0234804
-0.0121421,-0.00594681
0.0168447,0.0157228
0.0327893,0.00796951
0.0119527,-0.00514892
0.00943661,0.0040104
-0.000672319,0.0419025
-0.013537,0.0339445
-0.0179968,-0.0521437
-0.0339893,0.000153181
-0.0358499,0.0464278
-0.0308936,0.0386839
-0.0354044,0.0307314
-0.0467911,0.0159204
-0.0296859,-0.00500322
0.0232134,-0.0207635
0.0541117,-0.0145783
0.0290579,-0.0138215
0.0137496,0.00640636
0.00390169,0.0289561
0.0136449,0.00944454
-0.0168684,-0.0107237
-0.00951755,-0.0169878
0.0337981,-0.0230633
0.0479864,-0.0252652
0.0540938,-0.00910517
0.0523295,0.0202462
0.0379465,0.0222679
0.00930545,0.00651534
0.00488158,-0.00203528
-0.015588,-0.00460229
-0.031,0.00279875
-0.0193465,-0.0074888
-0.00204595,-0.0231371
-0.00222494,-0.0230149
-0.0119391,-0.00502985
-0.0295803,0.0230458
-0.0476467,-0.0190584
-0.0517294,-0.0099213
-0.0238456,0.00746078
0.000152404,0.0082975
0.016993,-0.0202682
0.0169744,-0.0127426
0.0125773,0.0211114
-0.00282105,0.0171791
-0.0186379,0.00941501
-0.0300928,-0.00938304
-0.0362523,-0.0215626
-0.0117641,-0.0277237
0.0331119,-0.0241643
0.0501519,-0.0163686
0.0356518,0.000495425
0.0168346,0.0235823
0.00527993,0.0175117
-0.00419716,-0.00529824
-0.00624139,-0.0080725
-0.00284914,-0.0135492
0.00426981,-0.0193197
0.00597324,-0.00945773
-0.00864359,0.0178019
-0.0212671,0.0367147
-0.01516,0.0220117
-0.00102223,0.010436
0.0360589,0.0035545
0.0335364,-0.000811038
0.013486,-0.00897556
7.12e-05,-0.00526076
-0.0202747,-0.00227137
-0.0127449,0.0162155
0.0212517,0.0279646
0.020402,0.0332496
0.015828,-0.00248601
0.0255791,-0.00785965
0.0068088,-0.00239637
-0.0400424,-0.0186708
-0.0510924,-0.00925865
-0.0297459,0.0485625
0.00630778,0.0160634
0.0201519,-0.0164425
0.000718108,-0.0106505
0.0247461,-0.0400138
0.00477941,-0.0534499
-0.0454706,-0.0277283
-0.043134,0.0230794
-0.0506843,0.0109718
-0.0201722,0.0409786
0.040577,0.0539904
0.0529157,0.00380363
0.0294281,-0.0165809
-0.0136817,-0.0311728
-0.0482113,-0.0319518
-0.0242447,-0.0288086
0.0197204,-0.00668201
0.0342591,0.0175905
0.0291424,0.0143454
0.0419149,0.00508242
0.00615435,0.00474644
-0.010574,-0.00508076
-0.0214341,-0.0146945
-0.0230752,-0.0117521
-0.0160726,-0.00586211
-0.00492173,0.0133678
0.0180318,0.0304396
0.0184946,0.0142941
0.00310928,-0.0081159
0.00328606,-0.014468
0.00465519,-0.0119875
-0.00211733,-0.0137812
-0.0168981,-0.0135789
-0.0271135,0.0162095
-0.00775142,0.029946
0.00933843,0.00572213
0.0138226,0.00358478
0.0114787,0.0219196
0.00193894,-0.00593826
-0.00852904,-0.027803
-0.00811274,0.00949187
0.00312417,-0.00392026
0.00985268,-0.00160599
0.0163696,0.00636351
0.0218073,0.0108206
0.0138823,-0.000820751
-0.00326635,0.00942415
-0.0218221,-0.0184706
-0.0343092,-0.0338475
-0.0359458,-0.0351815
-0.0166216,0.00589577
-0.0121125,0.0551763
-0.0059391,0.0389067
0.00811778,0.0262483
0.0354925,0.00768828
0.0337091,-0.0432314
0.0104099,-0.0344126
-0.00355707,-0.0140408
-0.00582872,-0.00525186
-0.00547336,0.0186544
-0.0161109,0.0308611
-0.0125218,0.0141483
-0.000588011,-0.00297665
-0.00691987,-0.00477687
0.00845926,-0.00614435
0.0160462,0.000387349
0.00720958,0.00582373
0.0032825,-0.0142857
0.0107004,-0.018047
0.00735802,-0.012438
-0.00328674,-0.0138981
-0.00388794,-0.0153956
-0.00221949,-0.0195117
0.0041985,-0.00819374
0.00819591,-0.000463459
0.0183849,0.0250894
0.0320437,0.0592824
0.03184,0.0110649
-0.0091575,0.00543867
-0.028162,0.00632125
-0.015789,-0.00835835
-0.020503,-0.0186988
-0.0353911,-0.0206653
-0.0295876,-0.00289873
-0.0172986,0.0191592
-0.0101327,0.00768657
-0.0107249,-0.0016987
-0.0109546,-0.00532238
0.00847351,-0.0168678
0.0301664,-0.0236226
0.0465653,-0.0154607
0.0338844,-0.00726931
0.0255201,0.0110178
0.0325814,0.0308362
0.0211595,0.0251267
-0.00126441,0.00721762
-0.0212638,0.000480715
-0.0287938,-0.00694204
-0.0171075,-0.0108713
-0.0126467,-0.0119518
-0.0140556,0.00851733
-0.00780233,0.0225853
-0.00162196,-0.00277585
-0.00488897,-0.0100502
-0.0129584,-0.0137619
-0.0262834,-0.0198249
-0.0299024,-0.02017
-0.0135858,-0.0031693
0.00374715,0.0144392
0.0164274,0.0380371
0.0240842,0.021089
0.0141793,0.0206848
0.00281101,0.0167846
-0.00918044,-0.0108027
-0.00825762,-0.00287995
-0.00974593,-0.00884189
-0.0352374,0.00494834
-0.0225516,0.059656
0.0215438,0.0119795
0.0300693,-0.0263633
0.0209,-0.0142807
0.0051783,0.0609521
-0.00119864,-0.025708
0.00238862,-0.100838
0.00649635,-0.044841
0.015532,-0.0121916
0.0240567,0.0152045
0.0259613,0.0239189
0.0128702,0.00576281
-0.0012035,-0.00260312
-0.02139,-0.00493117
-0.025862,-0.0182914
-0.00455308,-0.0314389
0.00333418,-0.0130002
0.0461403,0.0102087
0.0681899,0.00793103
0.0272335,0.00193888
-0.0420751,-0.00156361
-0.102131,-0.00857521
-0.0923054,-0.00443992
-0.0467352,0.0130035
0.0275302,0.0128167
0.0332414,-0.00152988
0.0268509,0.0240519
0.0416903,0.0300111
0.0205232,0.0157112
0.00245642,0.0103235
0.00708735,0.00150099
0.0227049,-0.0158874
0.0111638,-0.0237259
-0.00191879,-0.00621302
-0.00978552,0.00705999
-0.00797994,-0.00383423
-0.0110187,-0.00829902
-0.0160894,-0.0123267
-0.0112203,-0.0201198
-0.00850088,-0.0158054
-0.00522576,0.00173622
0.00460787,0.00840583
0.0106083,0.0253515
0.014525,0.0420856
-0.00205228,0.0303873
-0.0142207,0.0128086
-0.00666021,0.00320446
0.0106257,-0.00843091
0.0195088,-0.0217352
9.48e-05,-0.0187431
-0.00802082,0.00429566
0.00351444,0.0126641
0.00725847,0.00171393
0.00277484,-0.00414459
-0.00552582,-0.00917178
-0.0157821,-0.0115685
-0.0186036,-0.00268693
-0.0251746,0.0125858
-0.0239704,0.0160941
0.00765956,0.0284997
0.0010366,0.0318152
-0.00183182,0.0119052
-0.00198933,-0.00199977
0.00689273,-0.00796757
0.0301597,-0.0254113
0.022113,-0.040116
-0.000301377,-0.0295768
-0.0078854,-0.00329225
-0.0168944,0.003691
-0.0263619,-0.00315967
-0.0227395,-0.0170657
-0.00841021,-0.0240202
0.028027,-0.0175539
0.0598446,-0.000343107
0.0565467,0.01175
0.0387825,0.0134817
0.000222748,0.0277083
-0.0407864,0.0307436
-0.043506,0.00701859
-0.0268717,-0.00723657
-0.00433819,-0.0154135
0.0208047,-0.0207781
0.0350584,-0.0182915
0.0102534,0.00500249
-0.0177097,0.00592816
-0.0425441,-0.00165023
-0.0402751,0.02185
-0.029461,-0.0127389
-0.00418623,-0.0229281
0.00158964,-0.00663587
0.00109293,0.0132309
0.0118027,0.0295624
0.00550382,0.0266594
0.0218241,0.0202505
0.0328005,0.0245069
0.020436,0.0238984
-0.0019076,-0.0277044
-0.0235241,-0.0140132
0.011224,-0.0199026
0.0156671,-0.0263563
0.00559964,-0.000242119
0.00286028,0.00766928
0.000638688,-0.0302551
0.00514204,-0.0356845
0.00157199,-0.00806243
-0.0138222,0.00443083
-0.00382455,0.00290012
-0.00422855,0.0102037
-0.027962,0.0228497
-0.0274914,0.0528663
-0.00874124,0.0319254
0.0218267,-0.00453907
-0.00578194,-0.00698788
-0.0306192,-0.0167903
-0.0120646,-0.0362104
-0.00398545,-0.0293905
-0.0142159,-0.0272065
-0.00135087,-0.0194231
0.051704,0.0142766
0.0392946,0.0130204
0.00306217,0.00983279
-0.0185165,-0.00125284
-0.0236171,-0.0113663
0.0246188,0.00433734
0.0594936,0.0382
0.0414162,0.0436606
0.0185719,-0.00499186
-0.00689758,0.0285225
-0.0176511,-0.00142141
-0.0145281,-0.00732114
-0.00920068,0.00379933
-0.00541698,-0.00262331
0.00849422,-0.0268291
0.0107805,-0.0186803
0.00860368,0.00857174
0.012113,-0.00138809
-0.00524533,-0.00860962
-0.0140145,-0.00516419
-0.00764919,-0.0244375
-0.0247826,-0.0435394
-0.0337894,-0.0170087
-0.0153278,0.00965394
-0.00730981,0.0217837
-0.00491766,0.0323815
0.0200824,0.0228193
0.0365366,0.00929438
0.0179266,0.003903
0.0117374,-0.00146712
-0.000428427,-0.00666188
-0.0284058,-0.00562292
-0.0297914,-0.000485064
-0.044333,0.00308204
-0.0498189,0.0170967
-0.052461,-0.0221029
-0.0142486,-0.0239784
0.0237854,-0.0137634
-0.00141354,0.0161234
0.00503326,0.0269642
0.0530707,-0.00930624
0.0542362,-0.00578407
0.037704,0.0107713
0.0349038,-0.000448976
0.0274877,-0.00883736
0.0191197,-0.00479226
-0.0113296,0.0145147
-0.0186566,0.0234625
-0.0235044,0.0185175
-0.0307285,-0.0099407
-0.0207706,-0.00240939
-0.00735271,-0.00619487
0.0091716,-0.00210792
0.0185503,-0.00419277
0.0176224,-0.0235865
-0.0255734,-0.0168537
-0.0268828,0.00579738
0.00268377,0.010022
0.0237133,0.0257834
0.0277806,0.0303634
0.00595183,0.0179496
-0.0203243,0.00546435
-0.0279482,-0.00370241
-0.00126675,-0.0280895
0.02494,-0.034381
0.0233004,-0.0100184
0.0161877,0.0134062
0.00273445,0.00398121
-0.0271538,-0.00205862
-0.0353598,0.000970642
-0.0148992,-0.0178941
-0.0216569,-0.042933
-0.0360624,0.00379707
-0.00288171,0.000857793
0.0250507,0.00500729
0.0336062,0.0285737
0.021163,0.0222833
0.000988488,0.00363452
0.000235034,0.00273793
0.0077152,0.0066811
0.0317894,-0.0133151
0.0282081,-0.0145539
0.00708378,-0.000696101
-0.00225474,-0.0073793
0.0197332,0.00367126
0.0143466,-0.00333764
-0.0166329,-0.00726238
-0.0432535,-0.00447242
-0.0478218,-0.0135192
-0.0738801,0.0149457
-0.0140785,0.0355456
0.0393073,0.0670624
-0.0158916,0.0463666
-0.0321537,0.0056041
-0.0176155,-0.0136937
-0.0141485,-0.0450664
-0.033103,-0.0450774
-0.0147663,-0.0218486
0.022284,-0.00808697
0.0667844,0.01674
0.106136,0.00933114
0.0584242,-0.0337543
0.0127938,-0.0382775
-0.00674218,-0.0200958
-0.00529324,-0.0206667
0.00528471,-0.00963061
-0.000502597,0.00814582
-6.1e-05,0.00967264
-0.00493113,0.0246111
-0.00854177,0.0340746
-0.00691656,0.0192284
0.003041,0.00765544
-0.00140625,0.000707642
-0.0179056,-0.0120884
0.00171427,-0.00997956
0.0242968,-0.00705147
0.0121984,0.00238829
-0.0273757,0.0167511
-0.0565164,0.0292832
-0.0647514,0.0160041
-0.0185237,0.00855371
0.0255449,-0.00622703
-0.00232758,-0.0314699
-0.0367845,-0.0235556
-0.00976204,-0.00640338
0.0274407,0.00675235
0.0395977,0.00535325
0.0289567,0.00388785
0.0209858,0.00550272
0.0145163,-0.000953741
0.0180444,0.00577941
0.00305689,0.0164944
0.00194879,0.0155606
-0.0065663,0.0127483
0.00092495,0.0100344
0.00716841,-0.00142308
-0.0196083,-0.0118946
-0.0281178,-0.0283837
-0.0105244,-0.00277728
0.014623,-0.0245405
0.00987663,-0.0426943
-0.0119415,-0.00112154
-0.00565239,0.00540317
0.0191047,-0.0258923
0.0135198,-0.014073
-0.0050188,0.016639
0.00478748,0.0114721
-0.0347222,0.013242
-0.0627595,0.0407066
-0.0299758,0.0493153
-0.0154105,0.0207763
0.0492671,0.00253141
0.0648393,0.00131376
0.00986954,-0.00167398
-0.025482,-0.0213723
-0.0268209,-0.0463924
0.0113499,-0.0366142
0.0875929,-0.00524809
0.109938,0.0179004
0.0261459,0.021283
-0.0819025,0.0192778
-0.0693551,0.0105776
-0.0215937,-0.0189383
-0.0124822,-0.0126411
-0.0413701,0.0271378
-0.0529791,0.00729305
-0.0480952,0.0334691
-0.0478222,0.00711624
0.0120629,-0.0392455
0.0635603,-0.0217457
0.0727775,-0.0511471
0.0713113,-0.04403
0.0515658,-0.00211235
0.0155143,0.02671
0.00622789,0.0039937
0.0428856,0.00350274
0.0333045,-0.00245564
-0.00962295,0.00204282
-0.025475,0.0201854
-0.0575324,0.0335217
-0.045434,0.0341391
0.00120215,0.0738775
0.0774829,0.0109924
0.0587276,-0.0187369
-0.0965758,-0.0371884
-0.143096,-0.0311457
-0.047358,-0.0354668
0.0324121,-0.0373599
0.035908,-0.020525
0.0155494,-0.0120366
-0.0279738,0.0178318
-0.0624276,0.0338547
-0.0331356,0.0184929
0.00129791,-0.0299618
-0.0132223,-0.0192355
-0.0131459,-0.00381192
0.0112196,-0.000757701
0.0142649,0.00365257
0.0304257,0.0215894
0.0202789,0.0240606
0.0314004,0.0101104
0.0580698,-0.00213167
0.0532538,-0.00537112
0.0354385,-0.00874884
0.0513316,-0.0136592
0.0508888,-0.0097626
0.0283964,-0.00743117
-0.0178792,0.0243542
-0.0767956,0.0313679
-0.113775,-0.0112586
-0.0553835,-0.0303785
0.00587025,-0.0281354
0.0190882,-0.00978025
0.015983,0.0116412
0.0437798,-0.00192426
0.0135214,0.0689169
-0.0210792,0.0385184
-0.0022133,-0.0179126
0.00509215,-0.0183778
-0.0188048,-0.0157819
-0.0599199,0.0179498
-0.0956689,0.0746562
-0.0304027,-0.014078
0.0334503,-0.0315566
-0.00844114,0.020391
0.00607488,0.0176041
0.0488025,-0.0228168
-0.0527814,0.0048878
-0.107832,0.0359141
0.0344996,0.00836075
0.0948749,-0.0419328
0.118068,-0.027377
0.140351,-0.000828191
0.0872955,0.00283621
-0.00617786,-0.0100387
-0.0344863,-0.0326871
-0.0301986,-0.0174263
-0.00678156,0.00545899
0.0147819,-0.0288461
0.00192988,-0.0205657
-0.0106053,-0.0047352
0.0209056,-0.00370754
0.0444531,-0.00669777
0.0418954,0.0121621
0.0289943,0.0328284
0.00956343,0.0802248
-0.0255054,0.0105937
-0.0629079,-0.120245
-0.112078,-0.0678503
-0.145373,0.00542014
-0.10624,0.0370631
-0.0021402,0.0573834
-0.00215707,0.0305978
-0.127359,0.0308892
-0.151151,0.0270393
-0.0767144,-0.0445223
0.0691778,-0.0499318
0.100574,-0.028456
0.0691794,-0.0255181
-0.0132776,0.00901228
-0.0429417,0.0365354
0.0419797,0.0876443
0.0306097,0.0807392
-0.0806002,0.0249777
0.0250434,0.00511816
0.121591,-0.0287254
0.014519,-0.0809844
-0.0604775,-0.0263274
0.184567,-0.0373309
0.490333,-0.0115919
0.422921,0.00449049
0.191226,-0.00111378
-0.0121757,-0.00154439
-0.164229,-0.0149826
-0.243944,0.0190731
-0.274365,0.0287628
-0.22595,-0.0235934
-0.0909772,-0.0461941
-0.0410433,0.0239093
-0.0260613,0.0779922
-0.00954586,0.0298199
0.0385325,-0.0192783
0.0329308,0.0412097
-0.0955732,0.0150901
-0.157441,-0.0652974
-0.158986,0.0185307
-0.0523565,0.038655
0.0188419,-0.000962535
0.0558266,0.000767477
0.115637,-0.0673436
0.0690816,-0.0393787
-0.00568658,-0.00607124
-0.0882872,0.00889803
-0.0125605,0.0624131
0.0801135,-0.0183487
0.101338,-0.0651016
0.157777,0.0721468
0.115662,0.0583779
0.0530968,-0.0161936
0.0328626,-0.0732918
-0.0152081,-0.086423
-0.0654555,-0.0432864
-0.0644795,0.00534171
-0.0425957,0.0450447
-0.0174622,0.0121081
-0.00371596,-0.0439341
-0.0184476,0.0217155
-0.079329,0.0793659
-0.0166248,0.0342558
0.0403654,-0.00591433
-0.0318999,-0.0144032
-0.0727365,-0.014134
-0.0225316,0.0258162
-0.0221197,-0.0557088
-0.0607825,-0.0623765
-0.0665261,0.00503426
-0.00259539,0.0623707
0.0986593,0.0291566
0.118391,-0.0128693
0.0662724,-0.00973894
0.0721131,-0.0333188
0.188876,-0.00217456
0.171643,0.0534841
-0.00305367,0.0217573
-0.045095,-0.0831878
0.00526217,-0.0607256
-0.0124618,0.0924936
-0.0395852,-0.0283108
-0.0963838,0.029056
-0.137767,0.212629
-0.10735,-0.0285183
0.0221345,-0.198708
-0.0280948,0.0169178
-0.0799384,0.099253
-0.0740022,0.117154
-0.176751,-0.0615179
-0.120013,-0.152191
0.095572,-0.0713373
0.092701,0.00969594
0.0600707,-0.00158225
0.0140257,0.0115732
-0.0462132,0.0687827
0.0913792,0.0281777
0.14619,-0.0660481
0.0477847,-0.124244
0.044422,0.0509843
0.125955,0.172669
0.0808067,-0.0177827
0.00322633,-0.097621
0.0262684,0.0201884
0.162163,0.0737361
0.219816,0.131145
-0.0454041,0.0735447
-0.192137,0.0485177
-0.0494457,-0.0769235
0.0150697,-0.156659
-0.0561096,-0.132201
-0.165586,-0.0784268
-0.328238,0.0103558
-0.351706,0.0790874
-0.262445,0.118103
-0.0448173,0.0286904
0.0590965,-0.0538128
0.135508,-0.102173
0.21585,-0.107456
0.156124,-0.0190219
0.0600498,0.0439107
0.00725737,0.0885637
0.0875715,0.20201
0.120388,0.00229071
0.0627528,-0.0331048
0.045204,-0.00336794
0.174218,0.00451922
0.292477,-0.0302508
0.034074,0.18312
-0.285153,0.0576393
-0.445678,-0.140926
-0.489524,-0.112883
-0.216921,-0.101736
0.0847801,-0.03303
0.292393,-0.0169409
0.368234,-0.00237001
0.23642,0.0315124
-0.000777381,0.0306005
-0.14186,-0.0137835
-0.104381,0.0339464
-0.0216914,-0.0160418
-0.00408517,-0.0357405
0.0229621,-0.0668653
0.0579126,-0.0225567
0.0323104,-0.0179989
0.00125776,0.0141217
0.0233571,0.051788
0.0566601,0.0417575
0.0180472,0.00818986
-0.028052,0.00410187
-0.0408431,-0.0263899
0.0255142,-0.0572605
0.0513818,0.0400517
0.0711465,0.0288275
0.100835,-0.0228328
0.0400877,-0.0170506
-0.0951137,0.00147819
-0.211374,0.034911
-0.188827,0.041379
-0.102463,0.0309785
-0.0489072,0.0130733
0.0203946,-0.00876131
0.0795884,0.0334977
0.0699786,0.0653174
0.105715,0.0108642
0.116151,-0.0118138
0.0727187,-0.0416359
0.0481587,-0.0540619
0.030065,-0.0236986
0.0142571,0.0225309
-0.0210882,0.0656823
-0.0649485,0.0911326
-0.0715307,0.0367004
-0.0833745,0.0672344
-0.0614257,-0.0336087
0.0174035,-0.0817424
0.0211693,-0.125059
0.0187792,-0.0585147
0.0334865,-0.048302
-0.102524,0.0430818
-0.190068,0.148435
-0.126464,-0.00683785
0.0722481,-0.0649461
0.119513,-0.0528666
0.0989596,-0.0574
0.0638801,-0.0269262
-0.0431383,-0.00772688
-0.0866932,-0.00209151
-0.0381132,-0.0254131
0.088228,0.00150861
0.0530812,0.0785214
-0.0418669,0.0661543
-0.0593353,0.0298423
-0.0919995,-0.0356355
0.00691224,0.0400494
0.0144108,0.127493
0.115742,-0.00775443
0.1922,-0.0559939
0.215769,0.0378802
0.28907,0.0789332
0.23157,-0.00982944
0.0675473,-0.0145648
-0.112185,-0.0630569
-0.415055,-0.159391
-0.540994,-0.0235779
-0.340951,-0.021763
-0.100125,-0.0526065
-0.0300057,0.0258649
0.0843915,-0.00033013
0.201578,0.000714176
0.136666,0.0434013
0.0307665,0.0528
0.0242015,0.0424283
0.0834851,-0.0114924
0.07231,-0.00282578
0.0222496,0.0442398
0.00798272,-0.0568986
0.0458229,-0.0430807
0.0420174,-0.0434206
0.00425911,-0.0257087
-0.0294926,0.0288422
-0.0292468,0.000598913
-0.0264709,-0.000445997
-0.0301112,-0.0243667
-0.0615517,0.0298127
-0.0268524,0.086655
0.0678196,0.0149484
0.0517694,-0.0681705
0.0533635,-0.12841
0.0149384,-0.0322174
-0.0541632,0.0776805
0.0269613,0.0517072
0.133792,0.00436079
0.0821551,-0.0172282
-0.0402511,-0.00958548
-0.127663,0.0162813
-0.220282,0.0368755
-0.269335,0.0358047
-0.202227,0.0711688
-0.0781655,0.129456
0.152646,-0.0058853
0.323222,-0.127594
0.252888,-0.136228
0.0537881,-0.0202209
-0.0845676,0.0159239
-0.110796,0.0116379
-0.0302653,0.0162592
0.110292,0.000859741
0.105938,-0.0246132
0.0519896,0.0365686
-0.0021068,0.0473917
-0.0334268,-0.00856641
0.015578,-0.0189902
0.00607156,0.0107876
-0.0679535,0.0172163
-0.0794102,-0.00799582
-0.0387826,-0.0219643
-0.00779352,-0.013011
0.0275234,-0.0187248
0.0296773,0.0165146
0.0120954,0.0227349
-0.00568488,-0.0197169
-0.00533481,-0.0186952
-0.0303932,0.125293
-0.00596648,0.00496908
0.0241483,-0.0255089
0.0636725,-0.0362552
0.0609203,-0.0161792
0.00728831,0.127189
-0.0127725,0.206677
0.0372291,-0.125787
0.0455992,-0.215223
-0.00833101,-0.100322
-0.131255,0.0183447
-0.230523,-0.111286
-0.106218,-0.0718998
-0.0175112,0.00427227
-0.00283583,0.024583
-0.0327104,0.101692
0.0122761,0.112626
0.189417,0.107579
0.347593,0.0816509
0.377177,0.00224635
0.093928,-0.143909
-0.270069,-0.124466
-0.377346,-0.0149144
-0.158906,0.0434047
-0.0680441,0.0623547
0.00585957,0.0223529
0.0312566,-0.00772915
-0.0299788,-0.0177435
-0.014619,-0.0081075
0.0198587,-0.00157095
0.023447,0.0135572
0.0182192,0.0129854
0.00721548,-0.00737223
-0.0124804,0.0108656
-0.0313959,0.0288412
-0.0417222,-0.0320512
-0.0452992,-0.0513247
-0.0172135,-0.0201907
0.0390559,-0.0312832
0.0467537,-0.034259
0.0442225,-0.0119329
0.0304304,0.0251172
0.044048,0.0133129
0.0443551,0.00494491
0.0556642,0.00513035
0.0489324,0.00190669
-0.0379196,0.0200652
-0.0544194,0.0174757
-0.06292,-0.0111692
-0.0773634,-0.0213701
0.00228701,0.0500093
0.0285809,0.072826
-0.00551707,0.0419473
-0.00796819,0.0739795
0.0789872,0.0253039
0.126046,-0.0336843
0.147872,-0.0194182
0.200143,0.00633586
0.284982,-0.0304382
0.17855,-0.0295606
-0.150481,-0.0350176
-0.315978,-0.0822861
-0.234687,0.0329699
-0.17033,0.0816553
-0.170944,0.0383314
-0.0785441,-0.0706753
-0.0340172,-0.0904293
-0.00576663,0.0244007
0.000367937,0.10751
-0.0713044,-0.0157515
-0.100611,0.0339348
0.0312347,-0.0320767
0.0404018,-0.0638422
0.0152548,0.0646041
0.0334451,0.169575
0.153488,-0.0876458
0.235397,-0.14275
0.149215,-0.0324982
0.0597869,-0.0390544
-0.0228365,-0.0314031
-0.116586,-0.0276037
-0.148485,-0.0283367
-0.0494681,0.0334047
-0.00881015,0.013422
-0.0225543,0.00105866
0.0203185,-0.0247385
0.0853343,-0.0153743
0.0365479,0.0128804
-0.001543,-0.0200334
-0.0178135,-0.0571242
-0.0307631,-0.0190784
-0.0446818,0.011859
-0.0312866,0.0102772
0.0084063,0.0288687
0.0133601,0.0230699
-0.000729545,-0.0129251
0.0513047,-0.00125872
0.0775572,0.0241172
0.0674122,0.0187114
0.0586681,0.0295193
0.0525373,0.0965329
0.00528036,0.0923246
-0.0795742,-0.0133584
-0.140176,0.00164319
-0.12592,0.0439168
-0.0262739,-0.0105616
0.0123459,-0.0442056
0.00595623,-0.00953931
0.0489563,0.00181995
0.0472326,0.0286272
0.00590286,0.0697151
-0.0269537,0.0551257
0.0576572,-0.0926424
0.0496069,-0.0428009
-0.0857076,0.044081
-0.175098,0.0574484
-0.0874985,0.0321024
-0.0175765,0.0564725
0.0507305,-0.00460502
0.0354883,-0.0846961
-0.00768207,-0.0173767
0.0281171,0.00250474
0.0274319,0.0168169
-0.0176306,-0.00609596
-0.0357136,-0.0023081
-0.0291564,-0.0263146
0.00151598,-0.0345324
0.058852,-0.0257234
0.0896952,-0.0262559
0.0837325,-0.0250468
0.0321457,-0.0241577
0.012208,-0.0191836
0.00715108,0.011796
-0.00924889,-0.0207998
-0.0441899,0.00690723
-0.0431075,0.00953503
-0.0576894,-0.01462
-0.088991,-0.0139492
0.0588631,-0.00942608
0.151614,-0.0571359
0.0120345,-0.0405405
-0.0735886,-0.000519372
-0.0364803,-0.0170894
-0.0150377,-0.0227994
0.026557,-0.00860963
0.123432,0.0173787
0.0975663,-0.0263352
0.0216722,-0.000845755
-0.0121393,0.0218235
-0.00794958,0.0246672
0.0241967,0.0355632
-0.0196246,0.00517312
-0.0150999,0.00734245
0.113321,0.0205081
0.170596,0.0277175
0.124467,0.0155887
-0.0718486,0.00109403
-0.307487,0.0112395
-0.292917,0.00938734
-0.118089,0.00724253
-0.0453197,0.0182293
-0.0188815,-0.0229986
0.00777624,-1.54e-05
0.0487676,-0.0136273
0.111367,-0.0700362
0.0863092,-0.0465258
0.0257637,0.0162097
-0.00216182,0.0459618
-0.016273,0.080073
-0.0259841,-0.0330922
-0.0174852,-0.100137
-0.00396284,-0.0489496
-0.00518387,0.0272458
-0.00621824,0.0340808
0.00331914,0.0913661
0.0223295,0.0369152
0.0363558,0.0206941
0.0363972,0.0214724
0.0458784,-0.00873755
0.0224067,-0.0111608
0.00301596,-0.00512449
-0.0213722,0.0134974
-0.0102952,0.0149304
0.0141542,-0.0222479
0.00209511,0.0118969
-0.04555,0.0581595
-0.0455662,-0.0483808
-0.0470812,-0.0604778
-0.0443067,-0.0297371
-0.020997,0.00277831
-0.0186122,0.0125929
-0.0658672,0.0288865
-0.0590685,0.0475954
0.0598482,0.0320122
0.181751,0.00805734
0.24499,-0.0179691
0.0522557,-0.0438705
-0.14022,-0.0350074
-0.0921317,0.0589011
-0.0411429,0.0408185
0.092258,-0.00228922
0.093141,-0.0339747
-0.105273,-0.0899353
-0.109987,-0.0241146
0.00607357,-0.0015517
-0.0119302,0.00794034
-0.0645727,0.0180515
-0.0144568,0.0471227
0.0180747,0.0190946
0.0403337,0.0116163
0.0496305,-0.00541549
0.0118821,-0.0131227
-0.00381141,-0.0215031
-0.00412982,-0.00433162
0.0136467,0.039345
0.0149921,0.00691912
-0.0355665,-0.0298755
-0.0374685,-0.0470608
-0.00452281,-0.0275093
0.0231581,-0.0316603
0.0361928,-0.00657702
0.00182969,0.000812727
-0.0224815,-0.0130192
0.00667847,0.0279183
0.0156753,0.0471472
0.0101597,0.00537705
0.0174876,-0.00314687
0.0114685,0.0182102
-0.0376482,0.00214426
-0.0411147,-0.0166303
0.0088353,-0.00698556
0.0614121,-0.0175866
0.0573287,0.0255816
0.0146604,-0.010867
-0.0373615,-0.0218774
-0.0552285,-0.0143822
-0.0187396,-0.0220434
-0.0103768,-0.0114925
-0.0174709,0.032486
-0.00997054,0.0325678
0.034133,0.0358927
0.0585132,0.040268
0.0745928,0.0785027
0.066505,0.0133855
0.0303592,-0.0151315
-0.0243358,0.00412279
-0.0625265,-0.0388921
-0.103861,-0.018061
-0.0596394,-0.0362083
-0.0740678,-0.00133886
-0.022579,-0.018503
-0.0149916,-0.0119616
0.0183199,0.0198343
0.0944641,0.0420069
0.0568005,-0.0242002
0.0700245,-0.00101416
0.0306675,-0.00867432
-0.018815,-0.0514538
-0.0372726,0.0104905
-0.0877316,-0.00856901
-0.0327834,-0.00504055
-0.0198867,0.00143375
-0.0384687,-0.0266195
-0.0643315,0.0197216
-0.0301741,-0.00118675
-0.000291242,-0.0117351
0.0291648,0.00183913
0.0591961,-0.00659199
0.0363672,-0.0145028
0.0155183,0.00285319
-0.00291923,0.00639292
-0.030642,-0.00228102
-0.0172421,-0.0234389
0.00193571,0.00892651
0.017953,0.0387169
0.0250446,0.018285
0.0106351,0.00859012
0.00312496,-0.00588622
0.0181956,-0.0121278
0.0484857,0.00338678
0.0362819,0.00938801
-0.00735796,0.00590509
-0.00751755,0.00921124
0.0113942,0.0338662
-0.0227201,0.035947
-0.0313312,-0.00343974
0.00273334,-0.0165941
0.00850758,-0.0275197
-0.0202158,-0.0706768
-0.0285298,-0.0481909
0.00877148,0.0277023
0.0247165,0.0442802
0.0352539,0.0393825
0.00913226,0.0383893
0.0358339,0.0105571
0.0496062,-0.0033503
0.0141752,-0.00988364
-0.00365663,-0.00452743
0.00264384,-0.00996206
-0.0430315,-0.0163641
-0.0605334,0.00937707
0.0640568,0.0254071
0.18243,-0.000413372
0.183082,-0.00872421
0.0923237,-0.00451899
-0.113446,-0.038381
-0.306599,-0.0348229
-0.258344,-0.00152976
-0.117002,0.0543259
-0.0595004,-0.00059081
-0.036793,-0.0202537
-0.0157785,-0.0312635
0.0311293,-0.0132974
0.0354045,0.0469131
0.0541181,0.0691783
0.0491305,0.0378936
0.0474696,-0.0935999
0.024914,-0.0584083
-0.0246501,0.0371792
-0.0114377,0.0132778
0.0338702,-0.0457975
0.0718046,-0.0562615
0.0585039,0.00572316
0.0390618,0.0374947
0.0739601,0.0134356
0.0695514,-0.00401134
0.0545032,0.0146734
0.0227766,0.00872637
-0.0618395,-0.00539711
-0.0547502,-0.00280477
-0.090843,0.00815882
-0.115515,-0.0288268
-0.0613727,-0.000923877
-0.0115336,0.0546931
0.0636994,0.0440273
0.124681,-0.025238
0.082222,-0.0253347
-0.0201369,-0.00743495
-0.0816553,-0.0409364
-0.0708036,-0.0420967
-0.0547152,0.0178479
-0.0517962,0.0108801
-0.0305482,-0.0100992
-0.00189122,0.0224248
0.0372938,0.0403757
0.0537304,0.0117921
0.0412072,0.00262173
0.0406615,-0.014297
0.0436491,-0.019435
0.0471661,-0.024423
0.0132562,0.00407707
-0.0468752,0.0284717
-0.0904279,0.00846141
-0.0813539,0.0219557
0.000135598,0.0458601
0.0977661,0.00286264
0.120104,-0.00408261
0.0259164,-0.0428101
-0.0783095,-0.0352105
-0.0724707,-0.00868153
0.0131093,0.0217048
0.0692617,0.0386111
0.0223843,-0.029991
0.0208196,-0.0393187
-0.010792,-0.000779648
-0.0731435,0.0240094
-0.0730347,-0.00514965
-0.00118183,0.00502334
0.0319787,0.0389931
0.00430836,0.0304068
-0.0271769,-0.0720941
-0.0381267,-0.00485144
-0.0213148,-0.0257478
-0.0224457,-0.0363106
-0.0327225,0.0635921
0.0064639,0.0217131
0.0807918,-0.00959984
0.0502729,0.0243321
0.00791398,0.0237901
0.00737565,0.0155673
0.0591208,-0.0250024
0.0271957,-0.0269772
-0.0851961,0.0578138
-0.0658673,0.101909
-0.0851197,0.0970536
-0.022717,-0.0936099
0.0429339,-0.156863
0.0586738,-0.0675338
0.0793828,-0.0170804
0.0802576,0.0116022
0.0942945,0.0320636
0.102336,0.0225129
-0.00218549,-0.0198698
-0.0850996,-0.0197822
-0.046082,-0.00678405
-0.0856474,-0.00298657
-0.104993,-0.00573623
-0.0676184,0.00837991
-0.0424969,0.0174263
0.0501521,0.0296318
0.0409456,-0.00131194
0.0168753,-0.00540368
0.0283499,-0.00164267
0.0179104,-0.00211862
-0.0743518,0.0273258
-0.0421724,0.00745616
0.00391782,-0.0355755
0.018971,-0.017066
0.0221582,0.0251584
0.0155596,0.0313039
-0.00501831,0.00676824
-0.0141366,-0.0257215
-0.0050401,-0.00965765
-0.00436744,-0.00442201
0.00725298,-0.000585816
0.0193899,0.00614401
0.0768035,-0.00160395
0.069454,-0.000316328
0.0402741,-0.0135111
0.014066,-0.00344493
-0.0359823,0.00765628
-0.0584983,0.00798827
-0.0053228,-0.0217585
0.00620516,-0.000634894
0.0134884,0.0495848
0.0235471,0.0744648
-0.0293894,-0.0219777
-0.0816095,0.00957872
-0.0290278,0.0509822
0.0551775,-0.0580458
0.0670279,-0.0534148
0.032977,0.00110469
0.039906,0.0228687
0.0885478,0.0573369
-0.00882841,-0.0150913
-0.162804,-0.0923716
-0.178026,-0.0403356
-0.0854083,0.0126549
-0.0199767,-0.0159145
-0.00662285,-0.0296734
0.0142069,-0.000681706
0.0280503,0.0261712
0.024602,0.0300434
-0.00864641,-0.0148899
-0.0192263,-0.0148055
0.0153814,-0.0256352
0.0435906,0.038175
0.0748719,-0.00955275
0.0808502,-0.0286185
0.0458971,0.00849815
-0.00960953,0.0321687
-0.00992672,0.0364247
-0.0015067,0.040286
-0.00746224,0.0503601
-0.097549,0.0595368
-0.0259536,0.00475747
0.110926,-0.0717538
0.0795291,-0.0537899
0.0139122,-0.0186189
0.00596098,-0.0088188
-0.0392412,-0.0102407
-0.0818473,-0.0635763
-0.0721569,0.00916988
-0.054094,0.0206355
-0.00856911,0.0351611
0.0614614,0.0411175
0.0566171,0.00842652
0.0277733,-0.0167589
0.0364864,-0.0269069
0.0322811,-0.00351268
0.00268093,0.0107261
-0.0508298,0.0272553
-0.0895656,-0.0265548
-0.0249269,-0.00116162
0.00377424,0.00334442
-0.0098768,-0.0416156
0.0175769,-0.0187004
-0.00438518,0.0520629
-0.00960438,0.00158303
0.0379719,-0.00521673
0.0339389,-0.000189653
0.0247455,-0.0251076
0.0293357,-0.0242431
-0.00750394,0.00498646
-0.0276144,0.0204577
0.0139705,-0.0214735
0.0947322,-0.0172842
0.0376853,0.0127942
-0.108497,0.0457472
-0.103073,0.023953
-0.0684376,0.0155897
-0.0134489,0.0183904
-0.0373067,0.00681393
0.124816,-0.0269242
0.184759,-0.0535297
0.00521187,-0.0569896
-0.0391407,-0.021875
0.00912545,0.00561106
-0.0252411,0.0211689
-0.0770018,0.0604551
-0.0766382,0.0417637
0.0355166,0.0122924
0.0574277,-0.0232438
0.00397375,-0.0290823
-0.0156907,-0.000982553
-0.00375284,0.0128372
-0.000370633,0.0264302
0.0061866,0.001818
0.0181166,-0.00498956
-0.00424009,0.0190611
-0.0310934,-0.00377695
-0.0286874,-0.0150563
-0.043422,-0.00256266
-0.0305196,0.0109075
-0.00290589,0.00738225
-0.00640426,-0.0358635
0.0234851,-0.00342324
0.0220888,0.0679457
0.0280041,-0.0494781
0.0111445,-0.0459402
-0.0146552,-0.0286002
-0.0182632,-0.0139702
0.00847489,0.0121422
0.0286597,0.0318074
-0.000260239,0.0151451
-0.00388176,0.0377989
0.0109379,0.0141297
-0.0149591,-0.0647528
-0.0113438,0.0083077
0.0110114,0.0108304
0.0359465,0.02719
0.0215856,0.0830559
0.0589639,0.0321811
0.11132,0.0325071
0.0892771,0.0499845
0.0819719,-0.0614808
-0.0181239,-0.0531768
-0.163324,-0.0597353
-0.195756,-0.0512666
-0.178926,-0.0267294
-0.116107,0.00867106
-0.00611242,-0.0169613
0.0797492,-0.0324953
0.0856353,-0.0137067
0.0243965,0.0231891
-0.0156037,0.00617974
-0.00053057,0.0136536
0.01471,0.00853676
0.0592541,-0.0384354
0.07274,-0.0100208
0.0220782,0.0259964
-0.0167765,0.0310261
-0.0111878,0.0313836
0.0369074,0.0249439
0.0704169,0.00784927
0.0244092,0.00666737
-0.026313,-0.0207452
-0.0375368,-0.0203893
-0.0399684,0.0267592
-0.0509836,0.0127515
-0.0522911,-0.0244383
-0.0832304,-0.00917927
-0.031424,-0.0147776
0.0495576,-0.0118487
0.0420029,-0.00563802
0.0102933,-0.00468201
0.000683181,0.0124756
0.0506393,0.0327645
0.0959689,0.01507
0.11955,-0.0354007
0.0738249,-0.00731551
0.00702088,0.00411936
-0.00564989,0.020019
-0.01617,0.0102321
-0.056528,-0.026579
-0.0750899,-0.022427
-0.0884351,0.00728749
-0.103025,0.0100685
-0.0941281,-0.0162758
-0.0913804,-0.00561177
-0.0620739,0.0224622
0.0449541,0.033853
0.136986,-1.78e-05
0.121728,-0.0217803
0.0040076,-0.00193365
-0.0890619,0.00991871
-0.0979604,0.0184547
-0.0175899,0.0235095
0.0146881,-0.0561027
0.0414,-0.0463428
0.0639413,-0.00161097
0.068601,-0.00239703
0.055172,0.061872
0.0499336,-0.0112792
0.0628957,-0.0141726
0.037073,-0.0167791
-0.0115221,-0.010118
-0.037396,-0.0163391
-0.0427978,0.00613419
-0.0201668,-0.0048979
-0.000763656,0.021343
-0.0188926,0.0304429
-0.0418728,0.0404803
-0.0194298,0.0420521
0.0807514,0.0064559
0.188055,-0.015519
0.175212,-0.0535971
0.00109934,-0.0461255
-0.122894,0.043983
-0.191602,0.0217478
-0.134449,-0.00693143
-0.142523,0.00980301
-0.0786447,0.00673564
0.00794705,-0.0144688
0.0414524,-0.0108362
0.0549644,-0.045718
0.0168117,0.00625099
-0.01684,0.00820129
0.00589948,-7.9e-05
0.0260046,0.0170013
0.00632315,0.0610417
-0.00804215,0.00715155
-0.0250105,-0.112987
-0.0304071,-0.0785106
0.0114768,0.0217709
0.101846,0.0304205
0.122612,0.0272116
0.107648,0.0588806
0.0582823,0.0472946
0.00408037,0.0126136
-0.0326235,-0.0395284
-0.0520681,-0.0267991
-0.0783956,0.01404
-0.0849697,-0.0201008
-0.0746113,0.00192497
-0.0445335,-0.0096124
-0.0215753,-0.02336
-0.0111586,-0.0345333
-0.0112184,-0.00537278
0.00311736,0.00637355
0.0301213,-0.00590298
0.0549872,0.0268906
0.0429378,0.0222902
0.00494924,0.0162528
-0.00154448,0.021858
0.0140471,0.006518
-0.00304207,0.035499
-0.0115167,-0.0265884
0.0561622,0.0176435
0.140015,0.0238998
0.213739,0.00158984
0.219288,0.0214726
-0.0304971,0.0412709
-0.241926,-0.0401853
-0.250185,-0.0607545
-0.19383,-0.0352402
-0.0749038,-0.0267659
-0.00766385,-0.00501428
-0.00993225,0.00209866
-0.0189162,-0.00542769
0.0261836,-0.00395129
0.0935847,-0.00876126
0.0814523,-0.0086221
0.00410391,-0.00888712
-0.03616,-0.00121917
-0.00349299,0.00659445
0.033692,0.0163587
-0.01809,0.0190927
-0.0775839,0.00794308
-0.0630129,0.0113801
-0.00245594,0.00786714
0.0205464,-0.0126774
0.0531289,-0.0182744
0.0286969,0.00919457
0.008405,0.0216726
0.0580207,0.0317656
0.0574559,-0.00515191
0.101799,-0.0837481
0.0831049,-0.033757
-0.00655363,0.0236901
-0.016796,0.0158514
0.0528504,0.0421416
0.1459,0.0458722
0.0525421,0.037439
-0.175364,0.0211021
-0.26821,-0.0517749
-0.159614,-0.0434747
-0.0806652,0.0137228
-0.0325549,0.00419293
-0.0359156,0.00205158
-0.00856801,0.0284062
0.0921667,0.0579874
0.180808,-0.0375303
0.139439,-0.0661092
0.0410494,-0.0402227
-0.0105459,-0.0244703
0.0305025,-0.038387
0.0942607,-0.0169281
-0.009536,0.0411705
-0.113813,0.0454071
-0.0557138,0.0289933
-0.0360002,0.0423616
-0.0315487,0.0643139
0.027351,0.0675111
0.0130271,-0.0558233
0.0319434,-0.108054
-0.015267,-0.00799506
-0.0887706,-0.0191902
-0.104275,-0.0209705
-0.0567971,-0.0125324
0.0281332,-0.0223194
0.0759906,-0.00710538
0.0300277,0.0154701
-0.0266244,-0.00148071
-0.0288283,-0.013081
-0.0567058,-0.011572
-0.0444513,0.00433604
0.0409713,0.0225764
0.0650584,0.00834256
0.0491358,-0.000496003
0.0372238,0.00506939
0.0130268,-0.0139529
-0.00910057,-0.00371485
0.00495368,0.00624232
0.0246729,0.0260615
0.0206727,0.0377749
0.0631236,0.00484557
0.022067,0.0065549
-0.00449956,0.0030702
0.000262332,-0.0145549
-0.0221534,-0.0242604
-0.0467877,-0.00989286
-0.022849,0.0221786
0.100735,0.0109934
0.0207978,-0.0149974
-0.0731702,0.00200424
-0.0987805,-0.000265965
-0.0355766,-0.030896
0.0182356,0.0298902
0.000825178,0.0945732
-0.0326356,0.012593
0.0208745,-0.0384223
0.0625668,-0.00679475
0.0423348,0.0167243
0.023857,0.0217983
0.0133199,-0.0122662
0.0146468,-0.0491125
-0.0228938,-0.00989464
-0.122344,-0.0039923
-0.131211,-0.00372904
-0.0501257,-0.00217975
0.0368101,-0.0217967
0.0893047,-0.0190172
0.0895257,-0.0433496
0.0434348,0.00167702
-0.00636815,0.0426958
-0.00754686,0.0449619
0.0393759,-0.00280666
0.0192494,0.0124832
-0.0543552,0.0404269
-0.0404547,0.00851447
-0.0231942,-0.0541259
-0.0222703,-0.0535546
0.0039155,-0.0362744
0.0229297,-0.0252317
0.000974404,-0.0055634
-0.0553005,0.0389922
-0.0184689,0.0462726
0.139174,-0.00611927
0.206822,-0.0368341
0.0801574,0.0116893
-0.143823,-0.0107896
-0.231838,0.0208803
-0.167296,0.0597215
-0.0318228,0.0490265
0.0946984,-0.00786555
0.214348,0.00329463
0.156002,-0.00753146
0.0477557,-0.0156307
0.0493095,-0.0294122
0.00760235,0.0023186
-0.059004,0.0417894
-0.132605,0.0405603
-0.189024,-0.057305
-0.192679,-0.0498436
-0.0829937,-0.00799284
0.0520495,0.00378269
0.0926001,-0.0377138
0.123662,-0.00946587
0.0783571,-0.034633
-0.0156475,-0.0129595
-0.0492028,0.0292259
-0.0429451,0.0425661
-0.000833722,0.0401047
0.0347489,0.0325541
0.0209575,-0.0273984
-0.0189136,-0.0225934
-0.0372573,-0.00645436
-0.011439,-0.00779566
0.0228854,0.00684875
0.0388944,0.000509557
0.0475449,0.0152105
0.0348011,0.00464245
0.0119444,-0.0136839
0.00243319,-0.0195095
0.0100021,-0.0159857
0.0179207,0.0191208
0.0118978,0.0334227
-0.00352137,0.0155649
-0.0217299,0.0235739
-0.00449849,0.0179372
-0.00277841,-0.0637822
-0.0295924,-0.0661192
-0.0292907,0.0126712
-0.0308489,0.0384809
-0.0431745,0.0103885
-0.0458714,-0.0100035
-0.0206238,0.0009303
0.0371121,-0.00144486
0.111142,0.000504451
0.154176,0.0568919
0.178162,0.07873
0.109082,0.0103984
-0.0648917,0.00180998
-0.146452,-0.0373405
-0.193894,-0.0454416
-0.174315,-0.00870876
-0.0396066,-0.00111535
0.0965105,-0.000884235
0.135943,-0.0125808
0.110059,-0.0220525
-0.0427962,-0.0354537
-0.183066,-0.0026873
-0.0591395,-0.00198873
0.0806401,-0.0203556
-0.0265447,0.00389745
-0.0715258,-0.0014743
-0.0100395,-0.0210818
0.0185009,-0.00751879
0.0140351,0.021433
0.0176322,0.0468503
0.00280048,0.027536
0.00584549,0.0203808
0.0279438,0.0301099
0.0463934,-0.0467202
0.0435046,-0.0292575
-0.00866333,0.0123905
0.017465,-0.0351526
0.0428982,-0.0254401
-0.00789808,0.0144707
-0.03536,0.0338948
-0.0335107,-0.0279501
-0.052815,0.00121294
-0.0787156,0.00859564
-0.0484399,-0.000571254
0.0129401,-0.00887491
0.0175184,0.0440631
0.0221815,0.0896842
0.0997407,0.0257827
0.171152,-0.0424431
0.148533,-0.0203763
0.0556103,-0.0129623
-0.0653739,-0.0318381
-0.120148,-0.00920813
-0.0798051,0.000979831
-0.0247668,-0.014094
-0.0265438,0.00451399
-0.0786286,0.0241757
-0.0600448,-0.0505043
0.0228085,-0.0454108
0.044547,0.0339795
0.0440344,0.043084
0.0101608,-0.0119807
-0.0206953,0.0224771
-0.0208684,0.0407392
-0.0214439,-0.0062759
-0.0530642,0.00195892
-0.0599623,-0.00425064
-0.00997717,-0.0204644
0.0317617,-0.0122032
0.0406692,-0.00891956
0.013423,-0.016852
-0.00592392,-0.00285267
0.0145533,0.00308106
0.0496981,-0.00267592
0.056544,-0.00241959
0.0224041,-0.00162558
-0.00111827,-0.0354517
-0.0170639,-0.0326204
-0.0276931,-0.0198901
-0.00971592,0.0117237
0.00253514,0.106834
-0.00860063,0.044763
-0.060944,-0.0459868
-0.0846123,0.00346314
0.0121174,0.0426576
0.114894,-0.0249372
0.0684588,0.00433458
0.102312,0.0420689
0.141817,0.10288
0.120731,-0.0322473
-0.005382,-0.0942685
-0.138507,-0.073842
-0.178049,-0.0271453
-0.084756,-0.0184012
0.0169424,-0.0314555
0.0797782,-0.0113649
0.0914781,0.0218612
0.0399155,0.0162141
-0.0359735,-0.0118309
-0.0690585,-0.00946916
-0.159858,0.018215
-0.162214,0.0188263
-0.0813467,0.00623074
-0.0472003,0.0164222
-0.0170737,0.0609752
-0.0056948,0.0664578
-0.024905,0.0443187
0.129014,-0.0246272
0.239858,-0.0729428
0.113287,-0.00502367
-0.0507639,-0.0242113
-0.0845832,-0.0500809
-0.0499957,0.00786416
-0.0185294,0.0299837
0.00894115,-0.000142467
0.00141695,-0.00185703
-0.0210063,-0.0126208
-0.021273,-0.00449643
0.0225277,0.0628494
0.0624094,0.00600561
0.0693984,-0.0290359
0.0389295,-0.0295252
-0.05179,0.0288223
-0.0659101,0.0165027
-0.017789,-0.0208713
0.0184849,-0.0148694
0.0557583,-0.0417086
0.00097207,-0.0758585
-0.0142614,-0.00102622
0.0779851,0.0533852
0.127485,0.0714976
0.0782258,0.0205981
0.0126478,0.000703853
-0.0532261,0.0252823
-0.0658236,-0.00145151
-0.0475542,-0.0486276
-0.00731525,-0.00362882
0.0709906,0.045246
0.0323856,-0.0081575
-0.0738635,0.0199249
-0.0717641,0.0327789
-0.0637212,-0.00962748
-0.0834163,-0.0193954
-0.0455487,-0.0397604
0.00895762,-0.0584701
0.0315302,-0.0220271
0.0233567,0.01566
0.0113027,0.0132242
0.0124295,-0.000654229
0.00799256,0.0121829
0.0165181,0.0380494
-0.00288107,-0.00851631
-0.0765835,-0.0254639
-0.112457,-0.00084556
-0.057462,0.043914
0.00897452,0.0257909
0.0390427,-0.0355403
0.0652033,-0.0366487
0.0952516,0.013099
0.0646347,0.050359
0.0381984,-0.00378445
0.086051,-0.0816793
0.0504491,-0.0156206
-0.0548942,0.0302735
-0.0374525,0.0030717
0.0701348,-0.0171407
0.0641162,0.00156073
0.048349,0.00686334
-0.0499867,-0.0148265
-0.0974049,-0.0389427
-0.0763906,-0.0384644
-0.0784852,0.0176892
-0.0695344,0.0535056
-0.0480963,0.0285594
-0.0262375,0.0380687
-0.00706029,-0.0157269
-0.0287709,-0.0626746
0.0030501,0.0162063
0.00171194,0.0773242
0.00599797,0.0496913
0.0720364,-0.0136008
0.0404229,-0.00653138
-0.0416602,0.0232848
-0.0410157,0.0276013
0.0812068,0.000641414
0.1531,-0.0164629
0.0343234,-0.0338336
-0.0539229,0.0018879
-0.0268234,-0.0214838
-0.037254,-0.0298937
-0.0581932,0.0051592
-0.0165357,-0.0216123
0.0312533,-0.00521161
0.0743665,-0.0321303
0.111698,-0.00840784
0.11647,0.0233325
0.0837573,0.0474788
-0.00304039,0.0453237
-0.0959762,-0.00994747
-0.137001,0.0167885
-0.119447,0.019948
-0.102242,-0.0746407
-0.0825069,-0.0624207
-0.0097481,-0.0410666
0.125036,0.0100237
0.181241,0.0339915
0.105031,0.0565312
0.0415607,0.0721945
0.013626,0.00917266
0.0326109,-0.00997248
-0.0560679,-0.0497354
-0.200059,-0.0633129
-0.189246,-0.0495638
-0.0726472,-0.0152961
-0.0114503,-0.0101139
0.00164427,0.0241816
0.0356946,0.0198113
0.0554586,-0.014264
0.0451796,-0.0125224
0.0295561,-0.0117383
0.0104404,0.0251593
-0.0148821,0.0295435
-0.00458844,0.0314605
0.013563,0.017782
-0.0342212,0.0139245
-0.0774596,0.0206081
-0.0317297,0.012908
0.060788,-0.015166
0.151237,-0.0300201
0.125329,-0.00343292
0.0416862,-0.00139611
-0.0216933,-0.000557961
0.0131844,-0.007773
0.0478513,0.00653871
0.0598902,-0.00816117
0.135045,-0.0143666
0.0233276,-0.00687702
-0.160745,0.00988322
-0.172613,0.0204674
-0.116007,0.0166054
-0.053081,-0.0202062
-0.0292905,-0.0054244
-0.0234465,0.0297355
0.0060785,-0.0337569
0.030553,-0.0472053
-0.00218294,0.00310966
-0.0247414,0.0310013
-0.0199632,0.0277241
-0.00336908,0.0548897
0.0755973,0.0824205
0.140142,-0.0535285
0.0727674,-0.0590979
0.0480674,0.0333796
0.0508637,-0.0625577
-0.0818287,0.00174264
-0.128303,0.0493548
-0.0706382,0.0418025
-0.0325729,0.055077
0.0295261,0.0268111
0.0332298,-0.115451
-0.0229519,-0.0775967
-0.0287738,-0.0274741
0.0441545,0.00243127
0.0799757,0.0292663
0.0179453,0.0174511
-0.0769716,-0.0186592
-0.12853,-0.00955978
-0.0680515,0.00341539
0.0618856,-0.00155356
0.124097,0.0352043
0.120217,-0.00552685
0.10553,-0.0537909
0.0507892,-0.0286046
-0.115237,0.00794067
-0.22215,0.03731
-0.0621263,0.0454916
0.155428,0.0103746
0.126323,-0.0114347
-0.0540734,-0.0283901
-0.148953,0.00165775
-0.17218,0.0165976
-0.137536,-0.0123108
0.00817991,0.0107647
0.13607,0.0191423
0.177138,-0.00196693
0.122925,-0.0106419
-0.0189425,-0.00782291
-0.119268,-0.0471154
-0.0899138,-0.00400799
-0.00683936,0.0372006
0.014866,0.0450193
0.0296991,0.0291717
0.0740268,0.00198608
0.149311,-0.031683
0.116376,-0.0218317
0.00518648,-0.0289656
-0.0245646,-0.0112737
-0.018251,-0.00742194
-0.0579863,0.00331244
-0.0735232,-0.00274269
-0.068848,0.000634447
-0.0666769,0.0133241
-0.0513676,-0.0320117
-0.010823,0.0237065
0.0271029,0.0531154
0.105733,-0.0358355
0.115326,-0.0011955
0.0546765,0.0453544
-0.00678411,-0.0084986
0.00678177,-0.0421862
-0.00913012,-0.0186524
-0.033135,0.044346
-0.0652171,0.0261894
-0.153532,-0.0450258
-0.111234,-0.00535734
0.0951412,0.0341556
0.202141,-0.00760291
0.0678509,-0.0396177
-0.0951066,-0.0548668
-0.130093,0.0315776
-0.0578329,0.0649117
0.0592944,0.0128059
0.0721388,0.0220099
-0.0316701,0.0619369
-0.0243321,0.010726
-0.00709772,-0.0510794
-0.00718727,-0.0539019
0.000542505,-0.0203622
0.0616716,-0.00609422
0.0785658,-0.0425008
0.0325744,-0.0286346
-0.0271846,0.00124019
-0.0233307,0.0216412
-0.051219,0.0253714
-0.071536,-0.00741777
-0.054016,-0.0363568
-0.0150491,0.0106893
0.0198427,0.0220182
0.00435154,0.0346241
0.0308824,0.0661166
0.0885963,0.00940351
0.0571366,0.0036755
-0.015066,0.0210466
-0.00883264,-0.0220676
0.0408817,-0.0182215
0.0366561,0.00140514
0.0768284,-0.0540725
0.0583235,-0.0135332
-0.0114771,0.0185758
-0.0729238,0.0159856
-0.154255,0.014286
-0.0818515,-0.00646554
0.0916941,-0.0175692
0.077787,-0.00779906
0.0570024,-0.037246
-0.0406459,-0.00416858
-0.146607,0.0222714
-0.101312,0.0214389
-0.0580629,-0.0194238
-0.0329908,0.0236029
-0.0169904,0.0614871
-0.0104839,-0.0352661
0.0119981,-0.0300326
0.0321414,0.039859
0.0606703,0.0136251
0.0451884,-0.00965781
-0.00179187,-0.0318395
-0.0713201,-0.0475292
0.0036699,-0.00718952
0.185728,0.0268476
0.16351,0.0285762
0.0149359,0.00747924
-0.0903655,0.0182658
-0.0996896,-0.000857421
0.0018026,-0.036772
0.0156259,-0.0463826
-0.036059,-0.027329
-0.0346232,0.0190535
0.0085659,0.0952589
0.0653597,0.0445207
0.151992,-0.0673762
0.111601,-0.065835
-0.00773112,0.0239121
-0.14806,0.0469508
-0.116491,-0.00207301
0.0198059,0.0220217
-0.0272401,0.0268605
-0.0816441,-0.0580658
-0.00877654,-0.118097
0.0610881,0.020716
0.0680601,0.0907938
-0.0392909,0.0421848
-0.163055,0.0278041
-0.0852404,-0.069894
0.00774166,-0.019102
0.0102254,0.0444164
0.0496496,0.106705
0.131339,-0.0504332
0.135189,-0.0637624
0.0830884,-0.0120718
-0.0119909,-0.0349887
-0.125806,-0.0450342
-0.145382,-0.0182297
-0.0851839,0.0206913
0.0174027,0.027288
0.0893442,0.0360183
0.148875,-0.0133024
0.0968507,-0.0299197
-0.00287798,0.0256291
0.00279272,0.0521138
0.0198224,0.0653921
0.0177003,-0.0456964
0.0405786,-0.0820114
-0.0317269,-0.0131593
-0.17528,-0.00368871
-0.15912,0.0148984
-0.00953181,0.00550454
0.0567349,-0.00162219
0.0346895,0.0113904
-0.0313031,-0.0533589
-0.0225624,0.00161372
0.0348445,0.0765231
0.0254647,0.0304172
0.00997412,0.0153457
0.0267949,-0.0329969
0.0289167,-0.0821217
-0.0389815,0.0163482
-0.0661321,0.0501396
-0.048973,0.0247526
-0.055329,0.027059
-0.0161233,-0.0255327
0.00887951,-0.00486726
0.0312903,0.0218713
0.0493097,0.0256245
0.0590789,-0.041414
0.0760438,-0.0314266
0.0754618,-0.0441796
0.0675441,-0.0245684
0.0280453,0.0121139
-0.014207,0.0175354
-0.0522385,0.00843913
-0.0551231,0.00641732
-0.0269022,0.0423812
-0.00373257,-0.00592922
-0.0471876,-0.0110734
-0.149821,0.0247063
-0.0573901,0.0449533
0.218741,0.0230631
0.306647,-0.0241526
0.120908,-0.0533438
-0.112354,-0.0279915
-0.215216,0.0332355
-0.169189,0.0271592
-0.133997,0.0521637
-0.0557325,0.0093942
0.0462408,-0.0475728
0.157937,-0.00830382
0.177542,-0.0306646
0.0532643,-0.0854543
-0.0978711,-0.00642188
-0.15608,-0.00143381
-0.0837787,-0.0558577
0.0568764,-0.0656471
0.0168394,-0.0090602
-0.0949341,0.0429344
-0.0505919,0.02174
0.0397181,0.0967909
0.0450906,0.0977024
0.04559,-0.00721605
0.0122116,0.147687
-0.00917739,0.146295
0.0107825,-0.0973875
0.0946955,-0.106595
0.200502,-0.0913338
0.0810432,-0.0584688
-0.121487,0.0105702
-0.18527,-0.0112566
-0.118654,-0.0491109
0.0190972,-0.0418914
0.0296725,-0.00616726
0.00569151,0.0175901
-0.00734373,0.0403788
0.0583498,0.0606208
0.0615295,-0.0237708
0.0757809,-0.0214016
0.0477047,-0.0136494
-0.0354009,-0.0459359
-0.0705028,-0.0385268
-0.0802636,0.0291852
-0.0391352,0.0122904
-0.0213698,0.0102727
0.00986649,0.00976837
-0.0141151,-0.00405103
-0.0182549,0.018395
0.0739676,0.0103824
0.113647,0.0562342
0.0227528,0.0279011
-0.06412,-0.00655635
-0.0510908,0.0518549
-0.0436852,0.042965
0.0176426,-0.000187983
0.0189088,-0.00277836
0.129937,-0.0394871
0.176144,-0.0253223
-0.0354113,0.0190242
-0.138941,0.0515453
-0.100651,0.0192415
-0.0512877,-0.0422174
-0.0471706,-0.0807392
-0.0152081,-0.0663084
-0.0453256,-0.0442258
-0.0456141,-0.0119788
0.0121571,0.0252708
0.0464133,0.0544501
0.044422,0.026013
0.0457693,-0.0286434
0.0334392,-0.0266626
-0.019702,-0.0247967
0.0226108,0.000564713
0.068197,-0.0152056
0.0691676,-0.0398465
0.0686625,0.00753516
-0.0503775,0.036255
-0.0378418,-0.0200674
0.0431463,-0.0536794
-0.0359899,0.0280035
-0.124676,0.098874
-0.157227,0.202764
-0.0702335,0.0734425
0.0580727,-0.135725
0.0412565,-0.0165503
0.0387961,-0.0195007
0.137489,-0.0488743
0.133577,-0.0329569
-0.0125341,0.0271699
-0.123874,0.0218473
-0.114543,0.097861
-0.0545513,0.0354854
0.0132943,-0.0726898
0.0198642,-0.0412206
0.0108904,0.00218439
0.0433828,-0.0480201
0.0640046,-0.0595959
0.0689223,-0.0497452
0.0430185,0.000236039
0.00359996,0.0417412
-0.0727298,0.0167913
-0.0777522,-0.00849496
-0.0201894,0.000406774
-0.0220559,0.0216291
-0.0434502,-0.0227268
-0.0427861,-0.0185889
-0.000365931,0.00733231
0.0371786,-0.0154931
0.022402,0.00496681
-0.00447347,0.00425303
0.0471247,0.0289284
0.0937026,0.032466
0.0703358,0.0148742
0.0975238,-0.000414393
0.112111,-0.00138072
-0.00125629,0.00858846
-0.139397,-0.0508498
-0.177751,-0.00247022
-0.133944,0.0158014
-0.0819687,0.0362189
0.0100836,0.038163
0.0567702,-0.0216394
0.0343991,-0.0133293
0.0389014,0.0034073
0.0302201,0.0266303
0.0660641,0.0474532
0.161275,-0.0412083
0.134867,-0.0593132
-0.0326608,-0.0357173
-0.164066,0.00195882
-0.15247,0.0366476
-0.0552682,0.0228542
0.0112506,-0.0159301
0.0361826,-0.0162407
0.0595271,0.0254064
0.0375493,0.0266233
-0.0150618,-0.0258041
-0.0579955,0.0365095
-0.0483015,0.0423559
-0.01951,-0.0513487
0.0212635,-0.117674
0.0482551,-0.0489634
0.0455954,0.0192728
0.0162101,0.0287994
-0.0595807,0.0315075
-0.12934,0.00996997
-0.102789,0.00204109
-0.0283825,-0.022955
-0.0157036,-0.0162279
-0.0216056,0.0285713
0.0424902,0.0437676
0.0820237,0.0144889
0.147302,0.0407895
0.147107,-0.0365536
0.0135101,-0.0314382
-0.111693,0.0054327
-0.119211,-0.0561448
-0.00155136,0.0104146
0.0130668,0.0382943
0.0568353,-0.00233893
0.0790017,-0.0167241
0.0388997,-0.00791331
0.0552693,0.0183298
0.0392579,-0.00814581
-0.0371228,-0.0239555
-0.0773392,-0.0183994
-0.0250201,0.0601746
0.0439569,0.0994232
0.052898,0.0460221
-0.0248779,-0.0209322
-0.101982,-0.0224886
-0.094181,-0.027683
-0.0369421,-0.0476017
-0.019857,-0.0339533
-0.0273671,-0.0117262
0.0140888,0.0257097
0.0688631,-0.000967588
0.0591433,-0.0453701
-0.00719656,-0.033981
-0.0763126,0.0336842
-0.0640351,0.0107691
0.0204344,-0.0361279
0.0467044,0.000999292
0.0614036,0.0194792
0.0810278,0.0558921
0.0670926,-0.0202978
0.026276,-0.00951518
-0.0453678,0.0313229
-0.106071,0.00998936
-0.0643415,0.0411121
0.135989,0.013488
0.287547,-0.0422099
0.200039,-0.0249003
-0.0489985,0.00144474
-0.239124,0.00316985
-0.167828,0.00827503
-0.0955507,0.00372598
-0.0711836,-0.052765
-0.0190308,-0.0551434
-0.0295329,0.0173341
-0.0546873,0.056948
-0.0815364,-0.0145572
-0.0472572,-0.00175647
0.0103506,0.0152254
0.0216172,0.00180825
0.0213947,-0.00366262
0.00119325,0.0224228
0.0390007,0.0423608
0.0978037,0.0120616
0.118772,0.00740367
0.0638734,0.0670287
0.0470073,0.0662633
0.0820236,-0.0281656
0.0237049,-0.0187368
-0.096846,-0.0280809
-0.0738804,-0.0765429
0.033685,-0.0481132
-0.00613151,0.00377725
0.0471539,0.0196921
0.124082,-0.00316683
0.0244901,-0.0534869
-0.077622,-0.0796509
-0.152395,0.0694144
-0.154055,-0.00308653
-0.0739009,-0.0205658
-0.0460147,-0.0132557
-0.0204164,0.0155678
0.0932698,0.0224666
0.190861,0.00610877
0.170008,0.0188756
0.043326,-0.00672148
-0.116307,-0.03649
-0.128554,0.0212442
-0.0145855,0.0186861
0.0322468,-0.0398897
-0.0112273,-0.00694952
-0.0592523,0.0178286
-0.0992576,0.0229724
-0.0733688,-0.00969561
0.0416098,-0.047656
0.0991491,-0.00509326
0.0257779,0.0272742
0.0199324,0.0081531
0.0222552,0.0618684
-0.0305552,0.0396049
-0.0100421,-0.0199017
0.0533914,0.00402252
0.0978558,0.0424503
0.107253,-0.0128293
0.136605,-0.00677868
0.167052,0.0308466
0.0214899,-0.0104287
-0.144242,-0.0499806
-0.203595,-0.021512
-0.141179,-0.0335988
-0.0863691,-0.0993164
-0.08453,-0.00362689
-0.0904143,0.040436
-0.0198218,0.0495526
0.0468911,0.0831255
0.0439937,0.0736017
0.0146321,-0.0060229
-0.03789,0.0410679
0.0274244,-0.00395313
0.0734456,-0.105597
-0.0312711,-0.103291
-0.0775383,-0.0126133
-0.0182047,0.00609844
0.0290364,-0.00192996
0.0697099,0.00892394
0.105898,0.0317311
0.0502002,0.021009
0.0009139,-0.0236248
-0.023562,0.00696026
0.0152391,0.0514567
0.127302,0.0391975
0.182536,-0.0297409
0.0090709,0.00302857
-0.183923,-0.0395608
-0.19118,-0.0557803
-0.170634,-0.0125439
-0.113887,0.0035571
-0.00183043,0.0529223
0.0778348,0.0507922
0.0796721,-0.00513508
0.0633763,-0.0315348
0.0758284,-0.0130834
0.0985976,0.00141129
0.0666528,0.0500469
-0.0436384,0.0363522
-0.0947708,0.0187175
-0.0610105,-0.0784791
-0.00157387,-0.0548491
0.0259035,0.0410869
0.0505669,0.0712077
0.143469,0.0402644
0.0954365,-0.020147
-0.0703639,-0.0828523
-0.0993355,-0.0946029
-0.0645879,-0.0170774
-0.0815095,0.0180061
-0.126117,0.0109615
-0.112867,-0.00243415
-0.0253493,-0.0372798
0.0831271,0.0146374
0.136067,0.127988
0.111256,-0.0213326
0.0720346,-0.0315427
0.0412806,-0.00918289
-0.00735789,0.0248556
-0.0715838,0.0362397
-0.0961843,0.00686355
-0.00093318,0.052995
0.059431,0.0193798
0.0142021,-0.0398796
-0.0632219,-0.0298737
-0.00516165,-0.00648524
0.0728907,-0.0170779
0.0826383,0.00910857
0.0422689,0.0133529
-0.0638544,0.0196546
-0.128075,-0.0246192
-0.099861,-0.0573376
-0.023487,-0.0686752
-0.0352178,0.00637755
-0.0152798,0.0367666
0.037843,-0.000943897
0.0171624,0.00721875
-0.00649458,0.00768592
-0.016658,0.0501309
-0.012227,0.0743477
0.0595004,0.0400166
0.118782,-0.114695
0.115923,-0.0209281
0.078352,-0.0283875
-0.00487184,-0.0432515
-0.0749642,0.0123332
-0.0603866,0.0099328
-0.064894,-0.0354244
-0.00590342,-0.0363304
0.0446199,0.0151771
0.0823305,0.092603
0.149615,0.134906
0.194795,0.0994685
0.132939,-0.0258642
-0.0360984,-0.106471
-0.234386,-0.136899
-0.322947,-0.0553276
-0.227597,0.00807169
0.0331897,0.00413891
0.148812,0.0391048
0.0743656,0.0634797
-0.0399417,-0.0120669
-0.0523439,-0.0146017
-0.019497,0.115458
-0.0870842,0.0566991
-0.126188,-0.131242
-0.0437756,-0.0375205
-0.0168434,0.0908195
-0.0470294,0.16433
0.0784375,0.00445515
0.133718,-0.0949815
0.0774075,0.000908215
0.0345828,-0.0322337
-0.0220304,-0.106238
0.0995138,-0.102577
0.221103,-0.0204455
0.122383,-0.0738966
-0.0818008,0.00226782
-0.18822,0.0068769
-0.188448,0.0391823
-0.0485118,0.0536367
0.0319156,0.00709926
0.0370435,-0.0406049
0.00499155,-0.0508522
-0.0352147,-0.0397937
-0.0476157,0.098814
-0.0431054,0.0528762
-0.0542966,0.00123082
0.00268268,0.0774342
0.111044,0.0872097
0.136354,0.0126475
0.124269,-0.0666185
0.0676837,-0.0531951
0.0482628,0.0844713
0.00930403,0.0994847
-0.000564127,-0.0390543
0.0491017,-0.00133973
-0.0116158,0.0805551
-0.0463593,0.0106631
0.0555279,-0.165333
0.165373,-0.124694
0.245374,-0.0412052
0.315078,0.00610718
-0.00623433,-0.00042625
-0.457711,-0.00475078
-0.505903,0.00913375
-0.279241,-0.0156358
-0.145832,-0.0822981
-0.0854226,0.0194481
-0.0190276,0.106264
0.0435637,0.129579
0.0511683,0.0968537
0.00918858,0.0751782
-0.0142376,-0.0728787
0.02166,-0.14417
0.0480985,-0.054435
0.131521,0.0161044
0.238119,0.0215594
0.303699,0.0973307
0.220138,0.0501077
-0.0480509,-0.086095
-0.290171,-0.0501614
-0.218555,-0.0618655
-0.0917131,-0.0366882
-0.0631866,0.0072368
-0.0207491,0.0399272
0.0576449,0.0438861
0.0641494,0.00922935
0.0413169,-0.0369328
0.057065,-0.0430814
0.0364437,0.0241761
-0.0246088,0.0522715
-0.0587486,0.0293989
-0.0767778,0.00181462
-0.154334,-0.0529502
-0.122906,-0.0591629
-0.00466165,0.0164278
0.0847234,0.0486789
0.149874,0.00714163
0.164046,-0.0308304
0.14458,-0.00192145
0.158079,-0.0252808
0.0777531,0.00773908
-0.0229655,0.00987816
-0.0599474,0.0443159
-0.0985607,0.112791
-0.124516,-0.00775155
-0.0940134,-0.0795055
-0.00915501,-0.0699548
0.0506149,-0.0608935
-0.0548766,-0.029428
-0.168742,0.0351069
-0.189491,0.14086
-0.059839,-0.0626314
0.103417,-0.0660062
0.179942,0.0644731
0.136365,0.0554368
0.0419143,0.0375764
0.00497835,-0.023121
-0.00168449,-0.0439096
0.0121459,0.0218554
0.0195636,0.0577269
0.00214502,-0.0316271
-0.0182355,-0.0914453
0.0561359,-0.0412351
0.155144,0.00393338
0.0337249,0.0144685
-0.187453,-0.0129544
-0.219115,-0.00628908
-0.118875,0.02975
-0.0465744,0.0290817
0.0108869,0.0372385
0.118207,0.0250641
0.184968,0.00511907
0.144197,-0.0522794
-0.00428223,-0.0257688
-0.101456,-0.00404721
-0.0832541,0.0160738
-0.0730096,0.0479806
-0.040871,0.00022434
-0.0163205,-0.0727685
-0.00690333,-0.0458054
0.0114831,-0.00575444
0.0264044,0.0145485
0.0203164,0.00939758
0.010693,-0.00920591
0.00996629,0.0164514
0.0290066,0.0330521
0.0441172,0.0318398
0.035756,-0.0287302
0.00818036,-0.031416
-0.0130937,-0.0162366
0.00370707,-0.00909265
0.0414615,0.00929187
0.0444893,0.010081
0.0107096,0.0117626
-0.00323537,0.0269682
-0.0133605,0.0329874
-0.00191196,0.012949
0.0177997,-0.0117142
-0.000916782,-0.0111397
-0.0517473,0.00284345
-0.0451749,0.041755
-0.0167494,0.0325467
-0.0273612,0.00854859
-0.0423747,-0.0173166
-0.04196,-0.0178357
-0.032357,-0.0193073
-0.0159835,-0.0190469
0.00746733,0.00031649
0.0320368,0.0164823
0.0519552,0.00227043
0.0527956,-0.0111747
0.0224383,-0.0057224
-0.016524,-0.0185602
-0.0365429,0.0113875
-0.043568,-0.000635557
-0.0450721,-0.0153676
-0.0431358,0.00235846
-0.0212703,0.0179153
0.00438973,0.0123868
0.0305111,-0.00559282
0.0313565,0.0294973
0.0170777,0.0334656
0.00979401,-0.0364697
-0.0207615,-0.09648
-0.0365744,-0.014966
0.0192528,0.0392078
0.0727809,0.0443102
0.0666434,-0.00181862
0.0225653,-0.058485
0.0292307,-0.023958
0.143192,-0.00835524
0.200336,0.0318465
0.148419,0.0473156
0.0699555,0.0664757
-0.0408805,-0.0297024
-0.151554,-0.0417898
-0.210291,-0.0162146
-0.183073,-0.0129721
-0.132142,-0.00267319
-0.0977667,-0.00453526
-0.0353272,0.0019656
0.0307478,0.0335499
0.0371338,0.034408
0.00489099,-0.0408892
-0.0371206,-0.0283131
-0.0311034,-0.000594543
0.000961172,0.000874111
0.0182478,-0.00287663
0.029344,-0.00206584
0.00976238,0.00197865
-0.0312857,0.0233013
-0.0622872,0.0405258
-0.0178904,0.0406239
0.0189111,0.00903179
0.0304461,-0.0355329
0.0278037,-0.0370277
0.0315444,-0.0270228
0.0453764,0.00820697
0.0630056,0.0195834
0.0824674,0.00157998
0.119361,-0.00456056
0.150492,-0.00282095
0.093201,-0.00333742
-0.0204223,-0.00431076
-0.155393,-0.0018248
-0.185141,-0.00827142
-0.141582,0.00119492
-0.0660592,0.0209223
-0.000396689,0.018508
0.0469536,-0.00106971
0.0611341,-0.0104854
0.0575382,-0.00952105
0.0321721,-0.0226554
-0.000764335,-0.0173344
-0.017838,0.0270438
-0.00528718,0.0355637
-0.0138207,-0.0247179
-0.03413,-0.0234262
-0.0333113,-0.0117148
-0.01806,-0.0141923
0.000803761,-0.0129575
0.010426,-0.00502657
0.00398223,0.00514825
-0.00316891,0.0216489
0.0113454,0.0534719
0.0323292,0.021851
0.036815,-0.0283954
0.0306534,-0.00584656
0.028588,-0.00410711
0.030168,0.0255824
0.0499438,0.0225868
0.0685608,-0.00923768
0.0334511,-0.0110414
-0.056836,-0.01508
-0.136223,0.00581628
-0.112775,0.0600157
-0.041728,0.0288538
0.0218306,-0.0364353
0.052984,-0.0381954
-0.0551766,-0.0701634
-0.0842148,0.00428717
-0.0582386,0.0252536
-0.0335989,0.0158851
-0.0172206,-0.0400207
0.00489459,-0.035816
0.0513382,-0.00203119
0.105723,0.0151608
0.100735,0.0374987
0.128435,0.0174289
0.212138,0.00777726
0.150512,0.0202941
-0.0102802,-0.0134899
-0.0547129,-0.0203153
-0.0381166,-0.0115804
-0.081643,-0.0227276
0.0349109,-0.0366885
0.190717,0.0120815
0.0892927,0.0257935
-0.0313032,0.00776458
-0.0770926,0.00531408
-0.196208,0.00850472
-0.349401,-0.00594676
-0.367825,-0.00365117
-0.225925,0.0291323
-0.1385,0.0377593
-0.0790698,0.0215166
0.0336242,0.0167649
0.127388,0.0025487
0.321284,-0.0169546
0.626611,-0.0294867
0.604546,-0.0259083
0.314018,-0.0184731
-0.0721122,-0.00586522
-0.427517,0.00100169
-0.576859,-0.00588007
-0.427761,-0.00510076
-0.194602,-0.0037563
0.00385826,-0.0035242
0.0940198,0.00076372
0.100537,0.00705913
0.0899663,0.0268318
0.118088,0.0382847
0.123667,0.025325
0.0521825,0.00938041
0.00115355,-0.0139586
-0.0867766,-0.0318568
-0.175145,-0.040941
-0.169934,-0.0373936
-0.0713036,-0.033281
-0.0293284,-0.00760166
-0.0142415,0.00673637
