Comp Ch 3,Comp Ch 4
0.0637493,-0.0192636
0.0153887,-0.0268675
0.00597132,-0.0130536
-0.0047634,-0.0247752
-0.042974,-0.00533886
-0.0503534,0.00379469
-0.0757466,0.00223166
-0.0787531,0.0123284
-0.0144681,0.00622487
0.0560771,0.00865014
0.0838744,0.0181751
0.0722269,0.0357796
0.0371457,0.0635798
0.0106571,-0.000821353
-0.0228179,-0.0418103
-0.0216876,-0.00899646
-0.0117527,-0.0153502
-0.00916382,-0.0177113
-0.0156291,0.0190541
0.0114192,0.0343888
-0.00875893,0.0179226
-0.144519,-0.0344949
-0.202856,0.00673307
-0.189939,-0.020904
-0.128365,-0.0417189
-0.0909488,0.00821133
-0.0130443,0.0685413
0.177357,0.0320048
0.397193,0.0335326
0.350999,0.03125
0.222333,-0.053879
0.104509,-0.0709782
-0.0215006,-0.023934
-0.0911781,0.00515438
-0.140967,0.00335977
-0.143919,-0.00234187
-0.0685951,0.0249171
0.0298141,-0.0507544
0.0460211,-0.0757169
0.0154136,-0.0604317
-0.0294624,-0.0159768
-0.0528173,0.0357675
-0.0718155,0.036726
-0.0734491,-0.0189787
-0.0669663,0.00922568
-0.0929395,0.0514879
-0.145645,0.0223662
-0.0927267,0.0257039
0.133171,0.0230744
0.449334,0.0380796
0.609264,0.0137941
0.582414,-0.00294855
0.230519,0.0117791
-0.32207,-0.00227897
-0.583093,-0.0179271
-0.468514,-0.0139525
-0.480004,-0.00967705
-0.458771,-0.00248964
-0.149067,0.0286335
-0.0166879,0.0700408
0.0323774,0.0523027
0.0879943,-0.0194679
0.26813,-0.0763049
0.516089,-0.101888
0.585008,-0.0619714
0.501332,-0.000248511
0.134585,0.0295019
-0.283265,0.0123095
-0.485251,0.0124771
-0.493802,0.0248479
-0.331616,0.038139
-0.137138,-0.0121862
0.0156931,-0.0243675
0.107384,-0.0130058
0.189128,0.013364
0.184489,0.0335692
0.0969451,-0.0106686
0.0237896,0.00156352
-0.0690174,-0.00390308
-0.116611,-0.00428854
-0.0551165,-0.0157108
-0.0275208,-0.0151136
-0.0699241,0.0060866
-0.0564475,0.0203534
0.00694248,0.00634631
0.0466236,-0.0242893
0.0931526,0.00210191
0.176828,0.00213177
0.185902,-0.0128585
0.109644,0.0112979
0.0664358,0.0351792
0.0315602,0.0522853
-0.0105642,0.0244015
-0.0754546,-0.0351043
-0.0704337,-0.034112
-0.061686,-0.0116586
-0.0792459,-0.00556348
-0.0866309,-0.0107691
-0.0675072,-0.00928338
-0.0778649,0.0163495
-0.0900287,0.0138207
-0.0228807,-0.0165014
0.0571605,-0.00904062
0.0856136,-0.00982301
0.0798151,-0.0231292
0.0768528,-0.00600594
0.064307,0.0140363
0.0232701,0.0101727
-0.00416377,0.0214245
0.0349186,0.0414498
-0.0008599,0.010019
-0.0656057,-0.00540231
-0.0799257,-0.0235603
-0.030547,-0.0221823
0.0147112,-0.0241158
0.00470264,-0.0190762
-0.0106007,0.00258721
-0.00645415,0.0174928
-0.0162652,-0.00255989
-0.0131753,-0.026544
0.0800899,-0.0145976
0.116577,0.0113946
0.0797712,0.0157845
0.075936,0.0257842
0.0563418,0.00145717
-0.0357895,0.00904099
-0.110523,0.0185474
-0.186215,0.0038116
-0.2045,-0.00330381
-0.119961,-0.0351392
0.00878761,-0.075191
0.0611224,-0.0444231
-0.0049447,0.0402425
-0.0334051,0.0710549
0.0187512,0.0207175
-0.030556,-0.00919974
-0.0745698,0.000409609
-0.00645377,0.00217417
0.105021,-0.00639702
0.146463,0.0328828
0.127074,-0.00153475
0.132091,0.0223152
0.10793,0.0276254
0.0553306,0.00253435
0.0262028,-0.0655244
-0.0268595,-0.0347583
-0.0760884,0.0157626
-0.093325,0.0213236
-0.118476,-0.00971121
-0.11386,-0.0157487
-0.10348,0.0121577
-0.037946,-0.00190244
0.0248243,-0.00787227
0.0854118,0.00324442
0.128022,-2.66e-05
0.111429,-0.0145727
0.0510584,-0.020321
0.0129581,-0.0114838
0.00396258,2.87e-06
0.00281231,0.0105578
-0.0386412,-0.0093617
-0.0698721,-0.0264227
-0.0717862,-0.00992657
-0.0433086,0.023413
-0.00771665,0.0458421
0.0156506,0.0480343
0.0262407,0.0516992
0.0341142,-0.0384969
0.0250234,-0.0150253
0.0490887,0.00757631
0.0733508,-0.0344514
0.0266392,-0.00601503
-0.0370945,0.0141325
-0.0186005,0.000224656
-0.00904818,-0.00544515
-0.0460768,0.0123496
-0.0959125,-0.013181
-0.082626,-0.040613
-0.0287161,-0.013915
-0.0754289,0.0111079
-0.0652628,-0.00373334
0.0238931,0.0072587
-0.0417084,0.0408242
-0.0399632,0.0516359
0.0116561,0.0399046
0.0691423,0.0171285
0.0606939,-0.0102381
0.0718992,-0.0207348
0.0768749,-0.0168776
0.0654811,-0.0322066
0.0401799,-0.0655104
-0.0282406,-0.043403
-0.0233462,-0.0109519
0.0149128,0.00637015
0.0336385,-0.00548535
0.0308694,0.019379
0.0244183,0.0371694
-0.00752603,0.0100443
-0.0762464,0.0304177
-0.102112,0.0529519
-0.0534944,0.0382776
-0.0381093,-0.00913388
-0.0316933,-0.00350893
-0.00100511,0.00576846
0.0175851,0.010536
0.0446993,-0.0145678
0.0588499,-0.0259349
0.0327266,-0.0535334
0.0463732,-0.0234587
0.109257,-0.0109717
0.0943361,-0.0204349
0.036336,-0.0257916
-0.0344782,-0.011004
-0.0726157,-0.00744108
-0.0970079,0.00641528
-0.127623,0.0664073
-0.0494497,0.0529572
0.0318005,0.0225438
0.053287,0.0128372
0.0117409,-0.00101865
-0.00305133,-0.0298802
0.0493519,-0.0196598
0.0724026,0.0235281
0.0480158,0.0161806
0.0118889,-0.0191388
0.00714303,-0.00550843
0.011125,-0.00667616
-0.0200296,-0.0466118
-0.0492804,-0.0253827
-0.0675471,-0.00845411
-0.0506084,-0.00762222
-0.0073245,3.59e-05
0.00489814,0.0284281
-0.0221557,0.035031
-0.0464167,0.0209219
-0.0188417,-0.000365549
0.0289387,-0.00469222
0.0409201,-0.000430018
0.00323882,0.0246421
-0.00672172,0.0247241
-0.019352,-0.032657
-0.0363581,-0.0181223
-0.0331256,-0.00716294
-0.0134534,-0.0139563
-0.0201913,-0.0171091
-0.0172528,-0.00821059
-0.0259009,0.00190094
0.0160751,-0.00948105
0.0661586,-0.0129388
0.0506309,0.0136804
0.036662,0.0185141
0.0459176,0.0231757
0.0394813,0.0515338
0.0370619,-0.0355199
0.0202224,-0.0476181
0.0177155,-0.0156054
0.0491199,-0.00423969
0.0451973,0.00714607
0.0124442,0.0222693
-0.0221385,0.0234133
-0.0433272,0.0147264
-0.0655202,0.00954569
-0.071574,-0.0234442
-0.0666954,-0.0288093
-0.0530184,-0.0212915
-0.0288232,0.0260211
-0.0314023,0.0255733
-0.0425237,0.00202156
-0.0548746,0.0159494
-0.00618757,0.048833
0.0714581,0.00788498
0.107288,-0.0327869
0.152894,-0.0221267
0.123505,-0.0120068
0.0145462,0.0152002
-0.0512371,0.0301427
-0.0908425,-0.00526087
-0.102194,-0.0407309
-0.0948332,-0.0254808
-0.035622,0.00890925
0.0113049,-0.000306444
-0.0107872,-0.0055848
0.00912766,0.0100726
-0.00944441,0.0312148
0.0195855,0.00910956
0.0709524,-0.0111712
0.0589914,-0.0397952
0.020672,-0.0418716
0.000155213,-0.0212321
0.00214093,-0.00219421
0.012023,0.0332979
0.0195093,0.0650382
0.0251564,0.0273471
0.0264783,0.00859834
0.0167111,-0.0246779
0.00792518,-0.00327073
-0.00150964,0.0189742
-0.0188664,-0.036137
-0.0442067,-0.0452889
-0.0579798,0.0171596
-0.0403415,0.0275558
-0.00828307,0.0199601
0.0290125,-0.014444
0.0258666,-0.0460988
0.0034895,-0.0375799
-0.0230508,-0.0247655
-0.0415353,0.00242102
-0.0068094,-0.00012058
-0.0168966,0.000813644
-0.020772,0.0158352
0.0264251,0.00685731
0.0307314,0.0159608
-0.0138418,0.0324763
-0.0808441,0.038496
0.000603291,0.00181032
0.092777,-0.00520176
0.0683524,0.0113247
0.0201925,-0.0182624
0.00896748,-0.0175569
-0.0106379,-0.00802769
-0.0455052,-0.00916449
-0.0370756,-0.00872495
0.0079199,-0.00266078
0.0545241,-0.00592673
0.0569913,0.0209571
-0.00612823,0.0376288
-0.0313813,0.0216993
-0.00504857,-0.0154108
-0.0155854,-0.00688511
-0.0382036,-0.000267089
-0.0483998,-0.000336428
-0.0396431,-0.00889614
0.0011871,-0.00522305
0.0412316,0.0125363
0.086343,0.00328252
0.0686619,-0.000928054
0.019369,-0.000492154
-0.0233858,-0.00641498
-0.0390094,-0.0595795
-0.0430049,-0.0833242
-0.0244038,-0.0318758
0.0240233,0.0326325
0.0426194,0.0404974
0.0518925,0.0342113
0.0289496,0.0227086
-0.00778449,0.00227412
-0.0421068,-0.0116715
-0.0596521,-0.0153754
-0.0473634,0.00219268
0.00398519,0.0249619
0.0151315,0.00336104
0.0202326,-0.0165775
-0.00596356,0.0264853
-0.0382327,0.0508809
-0.0727937,0.0240599
-0.0835881,-0.0257003
-0.0210757,-0.0125806
0.0414592,0.0195551
0.0348275,0.0382877
0.0274411,0.0341711
0.0337939,0.0573323
0.0112075,-0.0141618
-0.0109713,-0.0236679
-0.00231134,-0.0549545
0.0114764,-0.0633236
-0.0316518,-0.0438774
0.0195795,-0.00948617
0.0440206,0.00752663
0.0134299,0.0155666
0.0420662,0.00680821
0.0280973,6.91e-06
-0.0043782,-0.00386946
0.00307041,0.00436875
0.0156379,0.014064
-0.000524726,0.028683
-0.00507622,-0.0119549
-2.39e-05,-0.0143164
-0.0100915,-0.00262593
-0.0269951,0.00847706
-0.0246524,0.000775837
-0.0130771,-0.00253899
-0.0114032,0.00850729
-0.0141395,0.0431446
0.00346949,0.0480814
0.0267054,-0.0499148
0.0338777,-0.047151
0.0285591,-0.0223543
0.0560192,-0.0109424
0.0561959,-0.0028276
0.0141867,-0.0102102
-0.0323819,-0.0160978
-0.0491627,0.0108224
-0.0285292,0.0142359
-0.0281582,0.00239313
-0.0242559,0.00159314
0.00133849,0.00721295
0.00350832,-0.00272233
-0.0389101,-0.00994154
-0.044722,-0.00177561
-0.049375,0.0119424
-0.0647725,0.00909168
-0.0568719,0.00132398
-0.0296482,-0.00151463
-0.000954033,-0.0130413
0.0347198,-0.0179607
0.0583833,-0.00977668
0.0425512,0.00221611
0.0510361,0.0139179
0.0586028,0.0266369
0.0500316,0.0133592
0.0294597,-0.00514904
0.00469231,-0.0122034
-0.0274118,-0.00587374
-0.0444781,-0.00250809
-0.0359922,-0.00730469
-0.0243011,0.00947028
-0.00175766,0.0284458
0.00780494,0.0176476
0.0238869,0.0177954
0.0510436,0.0107019
0.0751206,-0.0207339
0.0827145,-0.000912121
0.096223,0.0229422
0.163789,0.0203387
0.172581,0.00965319
0.0833868,-0.0381754
-0.108206,-0.0341886
-0.252701,-0.0296943
-0.301166,-0.000100855
-0.261973,0.00219224
-0.138175,-0.0310593
-0.0272896,-0.0158367
0.0212722,0.0127978
0.0734122,-0.0291788
0.0741845,-0.0283009
0.0223377,0.0237445
-0.0329252,0.0269535
-0.0751702,0.0284384
-0.0311454,-0.0227457
0.0700707,-0.0356673
0.107259,0.0100314
0.0656732,0.0371272
0.00936939,0.010761
0.00701885,0.0103674
0.0641508,0.0247343
0.0806924,-0.036697
0.0668624,-0.0255207
0.0580936,-0.0129391
0.0334482,-0.00439752
0.0033597,0.0210699
-0.0345053,0.0212012
-0.0505916,0.00295873
-0.0342327,0.00589166
-0.0252684,0.00362508
-0.0290467,-0.00697056
-0.0223738,-0.00600244
-0.0532867,0.0261291
-0.0870452,0.0425141
-0.0719057,0.0295778
-0.0371927,0.0250567
-0.0142351,0.000450199
-0.0132133,-0.00721293
-0.00115764,0.00432253
0.0397973,-0.00251435
0.0549265,-0.0223143
0.0591153,-0.0117153
0.130399,-0.0234014
0.098055,-0.0263586
-0.00111158,-0.00745553
-0.0174415,0.00145655
0.00686191,-0.00300832
-0.0121122,-0.0108402
-0.0542662,-0.0263506
-0.0820254,-0.0195151
-0.0343259,-0.000439413
0.0519476,0.0204456
0.0359551,0.0318496
-0.00864238,0.0114222
-0.0145637,-0.00194479
0.0274979,0.00732697
0.0594246,0.0156052
0.111658,-0.00700854
0.132262,-0.0169242
0.0157348,-0.0403668
-0.12153,-0.0162718
-0.149275,0.0162601
-0.067613,0.0290434
-0.0250769,0.0225949
-0.0186585,0.00684819
0.0109194,0.0132139
0.0179496,-0.0184334
-0.0133684,0.00304619
-0.00845563,0.00834279
-0.01172,0.0147732
-0.0250729,0.0169187
0.0145291,0.0225968
0.0267892,-0.0183874
-0.0181814,-0.0718408
-0.0597264,-0.0420633
-0.0239618,0.00113026
0.0227175,0.0127681
0.0238293,0.00581911
0.021214,0.00158102
0.0331985,-0.00702133
0.0270147,-0.024087
0.00856582,0.00116244
-0.0086528,-0.00235038
-0.0102371,-0.00926668
-0.0125608,0.0330463
-0.00742754,0.0407281
0.0107208,0.00827517
0.0308958,-0.0146581
0.0508509,0.000720389
0.0395445,0.0311342
0.0214892,-0.00639931
-0.00223833,-0.0111873
-0.0205265,-0.0215235
-0.0241109,-0.0229894
-0.0235264,-0.0154173
-0.0187084,-0.0106098
-0.0107915,-0.00278937
-0.0017186,0.00838801
-0.00420036,0.00908416
-0.0139336,0.00256258
-0.0245376,0.00570368
-0.0284827,0.0190828
-0.0144619,0.0278894
0.00397556,0.0241333
0.0272397,-0.0135695
0.0396013,-0.0343529
0.0197246,-0.0267964
-0.0380277,0.00742618
-0.0795788,0.0304362
-0.0751775,0.0233072
-0.00936523,-0.00191078
0.0460667,-0.0106896
0.0386798,-0.00687439
0.0339802,-0.00993635
0.032564,-0.0011754
0.0319152,-0.0020984
0.0394046,-0.00967272
0.0123417,0.0069784
0.0126437,0.0168744
-0.011071,0.0129969
-0.0889498,0.0143036
-0.0864955,-0.00434408
-0.00555149,0.0053891
0.067227,-0.00440307
0.0744975,-0.0429604
0.0616011,-0.008067
0.0186074,0.0254524
-0.0452209,0.0305494
-0.0391709,0.0156974
-0.0795352,0.00426205
-0.124595,0.00791563
-0.0952153,-0.0147499
-0.0347189,-0.0208642
0.0413572,-0.0154249
0.122479,-0.00408407
0.122139,-0.0314444
0.0715757,-0.0371035
0.058491,-0.00837049
0.0253768,0.0257475
-0.0556889,0.0284611
-0.0533037,-0.00913547
-0.0433189,0.0231249
-0.0257128,0.0137096
0.0593283,0.0238485
0.0897709,-0.0386574
0.0386879,-0.0513603
0.00492908,0.0022012
-0.00889101,0.0246173
-0.00587897,0.0106487
-0.0113579,-0.00771154
-0.0185207,-0.00865007
0.000676327,0.00869178
-0.00253082,0.0328063
-0.00411712,0.035612
0.0102871,0.0582778
-0.031998,0.0500582
-0.116002,-0.0515546
-0.0737478,-0.0785445
0.0173516,0.00441728
0.0355123,0.00755496
0.040096,-0.0360617
0.0381597,-0.00617644
-0.00999162,0.0087474
-0.0214432,-0.004579
-0.0382631,-0.0242802
-0.0952863,-0.0132763
-0.0743115,0.00431743
-0.0115742,-0.00101637
-0.0119151,0.0239409
0.00744565,0.0042967
0.0754916,-0.0118929
0.140515,0.0234469
0.107022,-0.0085287
0.0523136,-0.0171272
0.0311215,-0.0105641
0.00301032,0.00650799
-0.0255569,0.00258385
-0.0243923,-0.00993521
-0.0142937,0.0335992
-0.0170111,0.0473301
-0.0473029,0.0110561
-0.0401379,-0.0328669
-0.00234753,-0.0191838
0.0323885,-0.00167577
-0.00181731,0.014887
-0.0500697,0.0186209
-0.00720322,-0.00796679
0.0364146,-0.0124495
0.0418925,-0.00382634
0.038485,-0.00970175
0.0112363,-0.00673489
-0.016625,0.0101216
-0.0167595,-0.0094866
-0.026043,0.00569547
-0.0582738,0.0327285
-0.0474326,0.00767369
-0.0270386,-0.0189187
-0.0153288,-0.0146909
0.0423908,-0.00764504
0.0594797,-0.0145465
0.0112309,0.000745088
-0.00279421,0.0146023
0.0146444,-0.00397335
0.0184993,-0.0247528
0.0113211,-0.0143932
-0.00221222,-0.0107165
-0.00652857,-0.0127125
0.00889681,-0.0181824
0.00469957,-0.000272029
-0.0300542,0.0291428
-0.0429915,0.0276234
-0.0418644,0.0122572
-0.031319,0.00147673
-0.0058137,0.00354849
-0.0035226,0.00517449
-0.0216343,0.0119584
0.00372571,0.0157142
0.0400917,0.000181428
0.0169741,-0.00246487
0.0238181,0.00779202
0.040378,-0.00675948
0.00640888,-0.00273793
-0.0183322,0.000703473
0.00984798,-0.0122853
0.0205388,-0.022837
0.0176036,-0.00274204
0.00153373,0.00955014
0.00554586,-0.000482754
0.0115928,0.00338176
0.0157529,-0.00465253
0.0169269,-0.011886
0.00437049,-0.0148463
0.00818212,-0.011632
0.00429717,-0.00755625
-0.0335035,-0.0017963
-0.0612601,0.00320232
-0.0188048,0.0184633
-0.00918356,0.0312816
-0.0290015,0.0224169
-0.0203712,-0.00059406
-0.00903101,0.0410308
0.0028416,0.0228127
0.0281688,0.0379866
0.0751798,0.0168597
0.0545235,-0.0114086
-0.0157987,-0.0218331
-0.0852896,-0.019353
-0.0767751,-0.0092604
0.0107665,-0.0256456
0.0239987,-0.0334842
0.0108574,-0.0097917
-0.0107877,0.0164426
-0.00529207,-0.00324144
-0.00967923,-0.00523743
-0.00750054,-0.00439018
0.0281729,-0.0356437
0.04581,-0.0371723
0.0474796,-0.0287312
0.0108322,0.0211104
-0.0337708,0.0847652
-0.0229063,0.0733063
0.00249819,-0.0501988
0.0223844,-0.0836628
0.0283294,-0.0454451
0.0284371,-0.0154093
0.0460767,0.000970288
0.0366024,0.00344871
-0.0112318,0.0256644
-0.0713317,0.0575361
-0.0946628,0.0517975
-0.0770415,0.000993285
-0.0209839,-0.0299374
0.0232288,-0.0310297
0.0389281,-0.0139213
0.0483026,0.00634524
0.00394245,0.00430222
-0.0313871,0.061425
-0.0548568,0.0359969
-0.0247455,-0.0366471
0.0267734,-0.0564571
0.0392494,-0.000277994
0.00932205,-0.0183258
0.0181485,-0.0302277
0.021432,0.000589747
0.0244109,0.0345908
0.0163273,0.0514979
0.0015418,0.0224663
-0.01093,-0.0122202
-0.00741266,-0.00767115
0.00448807,-0.0120259
-0.006811,0.00593949
0.017178,-0.00203848
0.043633,0.0049641
0.0232529,-0.00314259
-0.0078252,-0.0234025
-0.0329483,-0.00532919
-0.0243028,0.0118305
-0.0226979,0.0134609
-0.0183122,-0.0198519
0.0238185,0.0040362
0.0316405,0.0213785
0.0070684,-0.00242216
0.00262352,-0.0121148
0.00602845,0.0179372
-0.0142175,0.00674415
-0.0438146,0.0172926
-0.0619975,0.00545132
-0.0325346,0.00366872
0.0285242,-0.01005
0.0335136,-0.00507338
-1.81e-05,-0.000899964
-0.00222123,-0.0117803
0.0130572,0.00904163
0.00852951,-0.00665621
-0.0094457,-0.00529451
-0.0231576,0.0153263
-0.0324524,-0.00137885
-0.0208584,-0.0151991
0.0187955,0.00376072
0.0446903,0.0294262
0.0373005,0.0151868
0.0325285,-0.0240868
0.0264196,-0.035288
0.0228355,-0.0427997
-0.00213174,-0.0342292
-0.0220891,-0.0201657
-0.00394873,-0.0127558
-0.0271889,0.0281567
-0.0300177,0.0230853
0.00897803,0.0300908
0.0496596,-0.0112772
0.0257294,-0.0220279
-0.0100987,0.0411009
-0.0307365,0.0153039
-0.052419,0.00218081
-0.0280921,0.0112064
0.00675379,-0.00604719
-0.0068496,-0.00423996
0.0288435,0.0064764
0.0604445,-0.0043999
-0.0941782,-0.0185232
-0.190555,-0.0189699
-0.127031,0.0174314
-0.0370805,0.0553966
-0.0101127,0.0301268
0.0330931,-0.00462006
0.0538506,-0.0278787
0.061874,-0.0378994
0.101837,-0.0366929
0.120267,0.00571455
0.0690759,0.0504096
0.0172656,0.0357561
0.0340956,-0.0166603
0.0461152,-0.0450146
0.0616519,-0.0524814
0.0135025,0.0162533
-0.0400685,0.0481115
-0.0355501,0.0351809
-0.00199014,-0.0565992
-0.0283378,-0.0137676
-0.0422111,0.0822418
-0.0183552,0.0974853
0.0352926,-0.0263887
0.0574895,-0.0891061
-0.0059358,-0.0460939
-0.0476733,-0.00115165
-0.023525,-0.041245
-0.0363813,0.016525
-0.0666099,0.0608425
-0.0133164,0.0242647
0.0323229,-0.0183911
-0.0275669,-0.0144247
-0.0695601,-0.00984183
0.0333417,-0.0120611
0.0913503,-0.0368784
0.0326445,-0.0172267
-0.0335695,-0.00979221
0.0107813,0.00838293
0.0299768,0.0446947
-0.00837885,0.0619739
-0.017283,-0.0175724
-0.0240785,-0.0188827
-0.0431724,0.00549593
-0.0155108,-0.00790327
-0.00294286,0.0168318
0.00501959,0.0603772
0.0221619,-0.001082
-0.00667925,-0.0275682
-0.0373813,-0.0208945
-0.0388844,0.0214369
-0.0409948,0.0616836
-0.0120108,0.0567983
0.0398739,-0.0673073
0.0809384,-0.115479
0.0996996,-0.014076
0.00710179,-0.0307105
-0.0222592,-0.0669727
0.00677491,0.0120432
0.0452347,0.0640754
0.0342831,-0.00369113
-0.0122473,-0.0463711
-0.00892046,-0.0282764
0.0171547,-0.0314567
0.0500442,-0.00368288
0.0856595,0.024036
0.0472892,0.0209725
-0.0324058,0.0221111
-0.051187,0.0428771
-0.0963428,0.0470335
-0.128517,0.0736588
-0.166388,0.0500743
-0.175867,0.0055799
-0.0731279,0.013511
0.0173767,-0.00233802
0.177316,0.0207804
0.0951411,-0.00229352
-0.111713,-0.104069
-0.181924,-0.052095
0.0859685,0.0066575
0.223103,-0.032368
0.108253,-0.0216463
0.0834891,-0.00789029
0.144946,-0.00315148
0.0836582,-0.012132
-0.00276552,0.0283597
0.00267618,0.032802
-0.0215888,0.02478
-0.0262811,0.0114597
-0.0513605,0.00769469
-0.0885455,-0.011205
-0.0692127,-0.00312212
0.0117949,-0.0614349
0.00514878,-0.0555938
0.0325761,0.00579641
-0.048373,-0.0158583
-0.125471,0.00698413
-0.0924953,0.0410751
-0.0431003,0.0867608
-0.0259461,0.0245838
0.0786557,-0.0547034
0.0713001,-0.000353271
0.0112963,0.037419
0.0341514,0.10121
0.0961189,0.00229526
0.0296896,-0.0700978
-0.0817676,-0.0185648
-0.0383204,0.0059617
0.0375387,-0.018554
0.0177589,0.0160057
-0.0829541,-0.00868255
-0.1479,-0.0844106
-0.0850367,-0.0516955
0.0759219,0.0293645
0.163292,0.115275
0.128428,0.208634
0.0944258,-0.0114099
0.121962,-0.236897
0.0133421,-0.0583351
-0.0911883,0.00721432
-0.114204,-0.00702009
-0.116277,-0.0516162
-0.0607942,-0.0171079
-0.00764581,-0.0073744
0.0679817,-0.0316115
0.0578072,-0.037545
0.0712699,-0.0392717
0.192784,-0.00984467
0.187429,0.0566375
-0.062781,0.0684084
-0.302872,0.0453938
-0.295487,-0.0239374
-0.121639,0.0217575
-0.0323934,0.0526322
-0.0216369,0.00696595
0.121845,0.00513566
0.147776,0.132121
-0.0763797,0.136968
-0.0989023,0.0299958
-0.087841,0.00154737
-0.165664,0.0444533
-0.0953882,0.0661878
0.160894,-0.128745
0.256732,-0.198287
-0.0773606,-0.0491106
-0.193793,-0.00169002
-0.0152552,-0.0572456
0.206625,-0.069708
0.261724,-0.0191303
0.264753,-0.0330595
0.358251,0.0293648
0.589265,0.0750531
0.677689,0.0231923
0.353313,-0.0740822
-0.0737939,-0.0534997
-0.409655,-0.0320641
-0.730863,-0.0133074
-0.785107,-0.00337789
-0.644295,0.00530642
-0.366084,0.0857638
-0.0966333,0.0923256
0.0293317,0.0264421
0.0595571,0.0198119
0.0782494,0.0232219
-0.00199912,-0.00328802
-0.13532,0.0263846
-0.0239624,0.0403737
0.0330057,0.0374471
0.0817551,0.0786419
0.100064,0.0119725
0.224358,-0.0145904
0.392686,0.0205389
0.229526,-0.070411
0.043472,0.0140696
-0.028132,0.0183489
0.020779,-0.139608
0.106444,-0.0953747
0.0189759,0.00720077
-0.134326,0.0503051
-0.204145,-0.00195049
-0.175961,0.0456867
-0.0623293,-0.00751692
0.00412896,-0.0260439
0.0652276,-0.020679
0.0300931,-0.0052243
0.0568546,-0.0481234
-0.0735492,-0.0318088
-0.0832645,-0.044972
0.0352025,-0.0321346
0.117879,0.0222329
0.134075,0.012275
0.145527,-0.0178973
0.1963,-0.0156373
0.193514,0.00438999
0.0180979,0.000341463
-0.158931,0.00721609
-0.189556,0.0100561
-0.138582,0.00440798
-0.123487,0.0240047
-0.0469571,0.00540862
0.0242233,0.00837165
-0.0475802,0.0119654
-0.0844072,-0.00945086
-0.0381826,-0.0356218
-0.00734932,0.0411446
0.0259406,0.0229188
0.0432096,-0.00794571
0.0585452,0.00513934
0.0281661,-0.00483541
-0.0118022,-0.00274525
0.041856,0.0120061
0.0595606,0.0303169
0.0648816,0.0439055
-0.00170551,0.0158289
-0.0488285,-0.016755
-0.0264243,-0.035131
-0.047483,-0.0265923
-0.0257086,0.0111739
-0.0318755,0.0155013
-0.100853,0.0372364
-0.119929,0.0193824
-0.0871636,0.0226303
0.0263708,0.104945
0.0453932,0.0923856
0.113707,-0.111332
0.138768,-0.173954
0.0879751,0.0168592
0.0272946,0.0404889
0.0850837,-0.0115661
0.1358,-0.016972
0.0596208,0.000957388
-0.0822845,0.0224399
-0.152141,0.0421673
-0.103106,0.00601608
0.00923521,-0.0247285
0.0574504,-0.0344904
0.0276008,-0.0137116
-0.0228721,-0.0614843
-0.0764912,-0.0688783
-0.0330373,-0.00274561
0.0214155,-0.0307437
0.012108,0.00631308
-0.0479732,0.0415529
-0.0419952,-0.00456146
-0.0145492,0.0273681
-0.0112343,0.0338499
0.0117372,0.0240779
0.069294,0.0150104
0.0214132,0.0245865
0.003513,0.022887
0.0140744,0.0103795
-0.014557,-0.00712833
-0.0208395,-0.00182965
-0.0445456,0.0073691
-0.0480791,0.00576645
0.0250444,-0.0183175
0.115114,0.0340167
0.123635,0.0363428
0.0845079,0.0288109
0.0317521,0.00130876
-0.00836103,-0.0236939
-0.0423944,-0.0351217
-0.016557,0.00571138
-0.0167046,-0.00375905
-0.0747769,0.0151922
-0.0554619,-0.044855
-0.00982583,-0.0554418
-0.0153418,-0.0171841
-0.0517036,-0.0254869
-0.11324,-0.0226073
-0.119752,0.0222308
-0.0640962,0.0227755
0.00185534,-0.00707123
0.085854,-0.0109991
0.118235,-0.0371573
0.0853432,-0.00192063
0.0743248,0.0699291
0.0515519,0.0439766
0.0246804,-0.0127917
-0.00126613,-0.0147337
-0.0706952,0.0208694
-0.0695426,0.0232866
-0.0159393,-0.0153495
-0.0420345,-0.0246513
-0.125066,-0.0281203
-0.0773203,-0.00317532
0.0808808,-0.0349055
0.0484943,0.0208013
0.0480273,0.00664418
0.0747577,-0.0319078
0.0101945,0.00021928
-0.00162072,0.0229082
0.104562,-0.00604113
0.168289,-0.00576938
0.0899352,0.0166033
0.0228213,0.0171666
-0.0748972,0.0361724
-0.0993912,-0.0347114
-0.106895,-0.071919
-0.100558,-0.0252024
-0.0291599,-0.00246516
-0.00709517,0.00249092
-0.00657877,0.0113505
0.00215133,0.017418
0.00412313,0.015759
0.00315713,0.0257013
-0.00190341,0.0271687
0.0254297,0.01807
0.0289517,0.0165956
-0.000835231,-0.0157715
-0.00559633,0.0075838
-0.00935501,0.0122729
0.0454766,-0.0141209
0.0441676,0.00220674
-0.0123263,-0.0218638
-0.0538078,-0.0175162
-0.0374426,-0.00733511
-0.01939,0.00593677
-0.0233588,0.0527386
-0.0593699,0.0649409
-0.0283102,-0.00821983
0.0364245,-0.00459093
-0.0192813,-0.00760213
-0.0380254,-0.0125032
0.0643867,-0.0310692
0.122447,-0.0992129
0.0521577,-0.0729584
-0.0010428,-0.0119232
0.0675276,0.0104851
0.0715346,-0.015559
-0.0413257,-0.0407769
-0.088961,-0.0178134
-0.0514446,0.0557831
0.024331,0.0882334
0.0800497,0.0320813
0.0163457,0.0443987
-0.00974902,0.0622181
-0.056826,0.111339
-0.128405,0.109202
-0.0379516,0.0338905
0.061964,0.0187324
0.0348591,-0.03709
0.00721624,-0.0127787
0.0394984,-0.00331026
0.00544995,0.00484272
0.00234241,0.00942442
-0.0100089,0.00554552
-0.0836623,0.00115659
-0.0893482,-0.0172216
-0.0355667,-0.0267848
0.0192434,-0.0269686
0.0561451,-0.0998945
0.0186983,-0.0811162
-0.0555555,-0.0314973
-0.0703979,-0.0268011
-0.0208234,-0.0292284
0.0589017,-0.0238446
0.0594122,-0.0250094
0.0154936,-0.00172536
-0.00444591,-0.0371062
0.0105605,-0.0443271
0.0512938,-0.0369181
0.0561182,-0.0229832
-0.0349453,-0.0334555
-0.0747649,-0.0726712
0.0264226,-0.0362986
0.0602893,0.0607126
0.0682676,0.06717
0.10605,-0.00234093
0.0916302,-0.015673
0.0229694,-0.0489795
-0.0251218,-0.0260564
-0.0258843,0.00688741
-0.0101743,-0.00824541
-0.0606083,0.0333913
-0.11532,0.0711901
-0.0842713,0.10691
-0.0161858,0.0414739
-0.00124444,0.0328561
-0.0279071,0.0801995
-0.00349724,0.0620637
0.061637,0.0613579
0.0471554,0.00511805
-0.0227953,0.00671632
-0.048229,0.00393508
-0.0136051,-0.00177039
0.0403747,-0.00755649
0.0308478,0.0146566
0.0274741,-0.00426607
0.00120063,-0.00467404
-0.0422692,-0.0184962
-0.0407527,-0.0121274
-0.027335,0.0380943
0.00175531,0.0221596
0.0261243,-0.014862
-0.00859194,-0.00744938
0.00221766,-0.0239637
-0.00819052,-0.0151195
-0.0128476,0.0615509
-0.029853,0.00411962
0.0125536,-0.0527972
0.00779135,-0.0438584
-0.0344711,-0.000535755
0.0177681,0.0640492
0.0635532,-0.0139214
0.0732732,-0.0800758
0.0692525,-0.0553274
0.0330035,-0.036468
-0.00231226,-0.0171917
-0.0466283,0.0035468
-0.0702639,0.00566044
-0.0403554,0.0134263
-0.0896869,0.0349489
-0.0557874,0.0133579
0.0363239,-0.0216122
0.0542667,-0.0135212
0.0613472,-0.0205993
0.0179219,-0.0428162
-0.00871133,-0.0343095
-0.020574,-0.0168727
-0.00838932,-0.000816772
0.0110767,-0.00249947
0.0176445,-0.00566711
0.0210596,-0.000359481
0.0114251,0.00328025
0.00246484,0.0206164
0.000551444,0.0423718
0.00491534,0.0171587
0.0142929,0.00206051
0.0248662,0.00818986
0.0176545,-0.00544378
-0.00720577,-0.0010358
-0.0215228,0.00131343
-0.0179686,0.0202566
-0.0113888,-0.00931946
-0.00982197,-0.0220494
-0.0182143,-0.0304042
-0.0147088,-0.00183246
-0.00790168,0.00523089
-0.0322995,0.00322179
-0.0578716,-0.00282548
-0.0448254,0.000943515
0.0124652,0.00103316
0.0156501,0.0221036
-0.00859441,0.012899
-0.0148774,0.0523373
-0.00112674,0.0524664
-0.0234165,0.00981348
0.0213442,0.0548289
0.00563987,0.103218
-0.0674051,0.00674264
-0.0113847,-0.0455494
0.0905288,-0.0231753
0.0884251,-0.0218823
-0.0445467,-0.0827329
-0.0102189,-0.043603
0.0657602,-0.0497026
0.0402884,-0.0359534
0.0804312,0.00873906
0.0722868,0.0480703
0.0373839,0.0538163
0.0477823,-0.0282598
0.0204861,0.00434721
-0.0332772,0.0229276
-0.0756474,0.00345037
-0.0807212,-0.00785324
-0.049007,-0.00367317
0.00276658,-0.0132817
-0.0105771,-0.0209192
-0.0473372,-0.0212908
-0.0420108,-0.00131821
-0.00513423,0.00424142
0.0103692,-0.0117739
0.0193681,-0.0339522
0.0171004,-0.0263883
0.0118886,0.0144144
0.0123465,0.0135134
0.00512599,0.00192903
-0.000470468,0.00789572
-0.000143234,0.0227458
0.00725589,0.0313877
0.00269237,0.00078773
-0.00910032,-0.0220742
-0.00271683,-0.0410629
0.00592795,-0.0321152
0.00137122,-0.00875279
-0.0048487,0.0018896
-0.00622563,0.00549625
-0.00112162,-0.00583275
0.00891054,0.00642232
0.0254619,-0.0032028
0.0327407,-0.0216791
0.0313958,-0.00904112
0.0232595,-0.00145339
0.0020255,0.0452647
-0.025493,0.0992005
-0.0444336,0.00542073
-0.0537169,-0.00622989
-0.0268997,0.0152619
0.00155909,-0.0252102
-0.0340675,0.00167485
-0.144923,-0.0297904
-0.220619,0.00252829
-0.0417977,0.0356203
0.0753133,0.0137271
0.126149,-0.0124209
0.173956,-0.00856555
0.101781,0.0217969
0.00642828,0.039105
-0.0257713,-0.0554639
-0.0687443,-0.0281773
-0.0611698,0.00438794
-0.0196013,0.00884901
0.0931799,0.00666686
0.153152,0.00620025
0.0982153,0.0279799
0.0343244,0.0201933
-0.0359067,0.0150937
-0.064902,0.0138493
-0.059738,0.00350923
-0.0440464,0.0494305
-0.0102514,0.0428529
0.0133621,-0.0270617
-0.010832,-0.0657992
0.0121227,-0.0443099
0.0225185,-0.0392152
-0.00296897,0.0152588
-0.0100116,0.0384276
-0.000752033,0.0185426
0.0132124,-0.0402305
0.0233322,-0.0415484
0.00995469,-0.0287592
-0.000822241,0.0156747
-0.0011983,-0.00759836
0.011866,-0.0458763
0.00965227,-0.0225969
-0.00967205,0.0146561
-0.0232393,0.00823777
-0.0289558,0.00305494
-0.0138881,0.00371974
0.00466182,0.0240633
0.00184264,-0.0353664
-0.0118016,-0.0435746
-0.0199388,-0.00252621
-0.0194851,0.00857616
-0.0195716,0.0282012
-0.00348536,0.0248386
0.0426601,-0.00412006
0.0412676,-0.0282078
-0.025153,-0.00800998
-0.0366622,0.0220389
-0.0011846,0.0272755
-0.0124794,0.0271566
-0.0477582,0.0326604
-0.0433954,0.0551279
0.00812966,0.0502115
0.0457438,0.0168215
0.0102731,-0.00256473
-0.0821714,-0.00206493
-0.0847082,-0.0157652
0.0536261,-0.0242311
0.1623,6.32e-05
0.11195,0.0137491
0.0315825,-0.0138711
-0.0532112,-0.0373243
-0.0910117,-0.0432226
-0.0492538,-0.0417176
0.0363634,-0.0288404
0.0450258,-0.0241029
0.000108726,-0.0038881
-0.0220107,0.0168981
-0.00996261,0.0221719
0.00844711,0.0218279
0.00514557,0.0168381
0.00244293,0.00250342
0.0126541,0.0126636
0.00992612,0.0384359
-0.00399248,0.0179461
-0.00345832,-0.00413781
0.0464718,0.0062762
-0.0166595,-0.0288563
-0.0814911,-0.04438
-0.0489632,-0.00584699
-0.0192113,-0.00897987
-9.75e-06,-0.022221
0.0105033,-0.00956796
0.0249083,0.00862449
0.0138958,0.0129541
-0.0213325,-0.000504705
0.0153106,0.013428
0.0715595,0.0578982
0.0744262,0.0426966
0.0451301,0.0017337
0.0163777,-0.00887339
0.00759152,-0.0292608
0.0125571,0.00231785
-0.0715031,0.0298726
-0.125044,-0.0280505
-0.0340908,-0.0491422
0.00104591,-0.0547513
-0.0260453,-0.0111106
-0.0232935,-0.00701304
-0.0108838,-0.0136685
0.024099,0.0260136
0.042252,0.0318559
0.0379686,0.0110088
0.0191069,0.0139985
0.00208632,-0.00997495
-0.0275486,-0.025098
-0.0443809,0.0135673
-0.0156984,0.0271149
0.0053219,0.0128603
0.0119038,-0.036218
0.0310983,-0.0282362
0.0315472,0.0458595
0.0296733,0.00930229
0.014781,-0.034728
0.0232948,-0.00979633
0.0399917,0.00153661
-0.0135322,-0.0203649
-0.0514111,0.00639059
-0.00546811,0.00301479
0.0371919,0.00632585
0.0206386,-0.00650046
0.00583788,-0.00421402
-0.00458969,0.0446367
-0.012803,0.0453321
-0.0288336,-0.052467
-0.0550531,-0.0132597
-0.0510332,0.0285353
-0.0171935,0.0269774
0.00163766,-0.0100654
-0.00122176,-0.0249682
0.0648361,-0.000362834
0.0695412,-0.0067695
0.0213833,-0.0265727
-0.00748085,-0.0058732
-0.0426055,0.021834
-0.0596272,0.0415584
-0.0380964,0.0501368
0.0359667,0.0296183
0.0949835,-0.0055464
0.073532,-0.0249665
-0.0448065,-0.00789979
-0.116267,-0.00757524
-0.0687055,-0.00314186
0.0107651,0.0335383
0.0509437,-0.00725549
0.0276606,-0.0141748
-0.022925,-0.0130348
-0.00650498,-0.0220479
0.0266135,-0.00654376
0.0049803,0.0229347
-0.0276069,-0.0298237
-0.00695313,-0.0605076
-0.00330296,-0.00574269
-0.0141696,0.0143231
-0.0161007,0.0481614
-6.62e-06,0.0353846
0.0228375,-0.0461595
0.0151552,-0.0338111
0.0119976,0.0195984
0.0170348,0.023348
0.0309397,0.0182691
0.0192594,0.0341196
-0.00520499,0.0245911
-0.0249228,0.0355209
-0.0404402,-0.0305494
-0.0659813,-0.0737217
-0.0554686,-0.0713798
-0.0304746,-0.0391722
-0.0289725,0.0371346
0.0278224,0.0527268
0.0842791,0.0172396
0.0728743,-0.0204171
0.026017,0.00669848
-0.00614122,-0.00983784
-0.0226812,-0.0210784
-0.0269753,0.0054888
-0.0177715,0.0300038
0.00707236,0.0371094
0.0557235,0.00157331
0.0745512,-0.00688205
0.0911096,0.00211046
0.106115,-0.0252086
0.0427691,-0.0524557
-0.0564124,-0.0286554
-0.118837,0.0193966
-0.103508,0.0228657
-0.0850175,0.00463115
-0.030191,0.00231025
-0.007332,0.00288255
-0.0158303,-0.00884027
0.00935974,-0.0150058
0.00628724,0.0180749
0.0176943,0.0528777
0.0135196,0.038561
0.0074737,-0.0108102
0.0528562,0.00682757
0.0603482,0.00943918
0.0145241,-0.0849424
0.0208224,-0.0425682
0.00964977,0.00181138
-0.00775772,-0.0294655
-0.0298736,0.0135317
-0.0122573,0.0589425
0.00113114,0.000579094
-0.0287473,-0.0114008
-0.0411855,0.0245907
-0.0343693,-0.0080659
-0.0543596,-0.0177148
-0.0516311,-0.00935222
-0.0544006,0.0185955
0.0241315,0.0222114
0.0909554,0.00819502
0.0665294,-0.00894901
0.0201162,-0.0282742
0.000555868,0.0367074
0.00868202,0.0279519
-0.0111861,0.0144486
-0.0449019,0.0355762
-0.0227557,0.0158657
0.0196835,-0.00311577
0.0455372,-0.0212012
-0.0420302,-0.0274146
-0.109131,-0.0308937
-0.0442035,-0.0442696
0.00847705,-0.0120771
0.0664213,0.0377749
0.106707,-0.00415183
0.102612,-0.0347864
0.05755,-0.0516349
-0.0098595,-0.0517621
-0.0364312,-0.0153002
-0.00412586,0.00665198
0.0283812,0.0280862
0.0105157,0.0342332
-0.000744513,0.0227177
-0.0102287,0.0242239
-0.0233192,0.0190198
-0.0103647,-0.00495723
0.00464922,-0.0226536
0.00204048,-0.0233083
-0.00806341,-0.016171
-0.0176387,-0.00694309
-0.0207204,0.00723079
-0.0148096,0.00197332
-0.00410141,0.0080019
0.00587312,0.0119253
0.0063527,0.00182226
-0.00492386,0.00120315
-0.0181281,-0.0146809
-0.00987872,0.0577885
0.021328,0.0543585
0.0505536,-0.0465748
0.0362518,0.000477286
-0.00138999,0.112076
-0.051208,0.00948118
-0.081925,-0.0469632
-0.058471,-0.0131222
-0.015009,0.0421488
-0.00137659,-0.0182376
0.0172629,-0.0252516
-0.0105266,0.0515645
-0.0159848,-0.0102731
-0.0194901,-0.0243262
-0.0778462,0.0165253
-0.0980632,0.0311409
-0.0261681,0.0266196
0.167848,-0.00348361
0.23233,-0.0141632
0.0289863,-0.0215423
-0.0714695,-0.0325973
-0.0131696,-0.0384766
0.00431305,-0.0409527
-0.0115011,-0.0288921
-0.0125123,-0.00891732
0.00255897,0.00415024
0.00675621,0.0250591
0.00775338,-0.00095794
-0.0367749,-0.00261098
-0.090822,0.0164139
-0.0497592,0.0150315
0.0354189,-0.00370085
0.0862877,-0.0107507
0.047703,0.00488752
0.0236086,0.02459
0.0159624,0.0130438
0.00522476,-0.000201605
-0.0135891,-0.00718456
-0.0157918,-0.0162461
-0.00171595,-0.0233459
0.00792337,-0.019912
0.0120043,-0.0195086
0.00626424,-0.0121018
-0.00105611,-0.00133844
-0.00472218,0.000236848
-0.000135216,0.00244762
0.00460776,0.013769
0.00299081,0.0250886
-0.00453623,0.00884725
-0.00914005,0.017532
0.00344648,0.021832
0.00206446,0.0635963
0.000662839,0.0321838
-0.00723569,-0.0485452
-0.0132707,-0.0550833
-0.0279644,-0.0254601
-0.0501029,0.00386991
-0.0528055,0.0194515
-0.0125821,-0.0197857
0.0478165,-0.0537
0.0571873,-0.00143021
0.0222078,0.0386369
0.0248556,0.00155889
0.0397758,-0.0243711
-0.00943985,0.019096
-0.0411906,0.0416551
0.0234518,-0.000702943
-0.0117994,-0.0424594
-0.0544159,0.000502206
-0.0250489,0.026339
0.077598,-0.0193289
0.0548942,-0.0258024
-0.0386992,-0.00097159
-0.0479422,0.00590588
-0.0256719,0.0148313
-0.0473555,0.00844271
-0.0453157,0.0222522
-0.0010855,0.0279367
0.0409778,-0.000116877
0.0539693,-0.0211899
0.0302989,8.74e-05
-0.0112878,0.00903973
-0.02576,0.00756142
-0.0231364,0.0168545
0.00841624,0.0178908
0.0268659,-0.00656012
0.0200276,-0.0314916
0.0114744,-0.00476885
0.00654744,0.00642106
0.0114978,-0.0117744
0.0192326,-0.0121056
0.0180257,-0.015363
0.0017676,-0.00962313
-0.0121776,0.00313497
-0.0143527,0.00334824
-0.00594925,-0.00896081
-0.00200678,-0.0103802
-0.00228177,-0.00958619
-0.00708736,-0.0139632
-0.0107928,-0.0138279
-0.00501116,-0.000976086
0.00916008,0.0044334
0.0186153,-0.00670664
0.01421,-0.00948261
-0.00154047,-0.0130094
-0.012002,-0.012027
-0.00931103,0.00142906
0.00390847,-0.00745324
0.0279775,-0.0111059
0.0223104,0.0291638
-0.0247413,0.068851
-0.0958868,0.0467466
-0.0891998,0.0487923
-0.00584425,-0.0242705
0.0618302,-0.0269022
0.0575208,-0.10031
-0.0110963,-0.0123931
-0.0558753,0.0226389
-0.0505255,0.0859106
0.0316932,0.117269
0.103723,0.00143409
0.0383418,-0.0741284
-0.0886428,-0.0745999
-0.152817,-0.0218148
-0.0549349,-0.00323241
0.0651955,0.0270037
0.117203,0.004317
0.0850519,-0.00390583
0.0352935,-0.0196052
-0.0902648,-0.0326362
-0.05932,-0.0164358
0.0330654,-0.00474129
0.0595956,0.00702159
0.0671577,0.018015
0.0624463,0.029205
0.0307172,0.018373
-0.0110697,0.00414217
-0.0121479,-0.000185743
-0.00200895,-0.00342026
0.00673791,-0.0104356
0.00689491,-0.00785144
-0.00414462,-0.00328072
-0.0295973,0.00996056
-0.0400032,0.0315732
-0.0189576,0.0307171
0.00249971,0.00271595
0.00291574,-0.0278473
-0.0213738,-0.0177183
-0.0373812,-0.00621081
-0.0268931,0.00669774
-0.00546378,0.0223275
0.0121053,0.0495384
0.0164336,-0.00133696
0.000881387,-0.0329849
-0.00634896,-0.00905503
0.00359786,-0.00118366
0.0200699,-0.00176577
0.0243285,-0.011594
0.000967051,0.0100771
-0.021859,0.0441913
-0.0238423,0.0214533
0.00044483,-0.0157827
0.0188291,-0.0533937
0.000710239,-0.0185944
-0.0316232,0.0273855
-0.0425377,0.0169903
-0.0459673,0.020521
-0.000609279,0.0189393
0.0854436,-0.0428124
0.0282848,-0.0285658
-0.0621477,0.0264453
-0.0398987,0.0118957
0.0241034,-0.0314301
0.0732357,-0.0108034
0.0673226,-0.013793
0.0148371,-0.00763305
-0.0196627,0.00493734
-0.0359572,0.0177826
-0.0499771,0.0427792
-0.011381,-0.00643119
0.043027,-0.0229001
0.045554,-0.0158671
-0.0446425,-0.00932095
-0.0623099,0.00239818
-0.035496,0.0662526
-0.0379287,0.0507195
-0.0396672,-0.0494964
-0.0338785,-0.0497419
-0.00319865,-0.0333243
0.0420028,-0.0321937
0.0920918,-0.00620549
0.0597335,0.00589947
0.00764906,0.00434324
0.0189892,0.0198876
0.0665254,0.0171133
0.0584516,-0.00452973
0.0223537,-0.00423857
-0.0202158,-0.00190734
-0.029755,-0.0142994
-0.0162286,-0.0104015
-0.0100802,0.000526542
-0.00531268,0.00799156
-0.0122027,0.00993211
-0.0186266,0.00411776
-0.0209674,-0.00298002
-0.0079246,-0.00905273
0.00218836,-0.00660866
0.00901899,0.0105643
-0.0128966,0.020201
-0.050388,0.00493462
-0.0195525,0.00248273
0.0662846,-0.00349261
0.0481605,-0.0276062
0.00688993,-0.0258901
-0.0190197,0.0118752
-0.0214449,0.00729027
-0.00986325,-0.0352365
0.00707856,-0.0131991
0.0370367,0.0153368
0.0212657,0.0300783
-0.0127736,0.0210646
-0.0200679,-0.021935
-0.0142344,-0.021925
-0.0134212,-0.000577222
-0.0144637,0.00717236
-0.00861019,0.0137471
-0.0249337,0.034387
-0.058368,0.0555299
-0.038346,0.0248982
0.0708533,-0.00286703
0.104481,0.0105646
0.0130863,0.0114829
-0.025113,-0.0340321
-0.0275815,-0.0406255
-0.0257283,0.00217964
-0.038956,0.0269795
-0.064248,0.0202377
-0.0234131,0.00358256
0.0363148,-0.00167221
0.0362815,0.00549328
0.0236842,-0.0190937
0.00327157,-0.0199962
0.00264669,-0.0158271
0.00168317,-0.0151776
-0.0146502,-0.00038112
-0.0145926,0.0110782
-0.00583961,0.00461202
0.0114054,-0.0197376
0.0193024,-0.0047638
0.00789553,0.0117724
-0.00201657,-0.00560751
0.00479527,-0.00399703
0.00574377,0.000986165
0.00828931,0.000745646
0.00377672,0.000159541
0.0107307,-0.00213967
0.0328918,-0.00645573
0.0185526,-0.00687859
-0.00480899,0.00143538
-0.0216863,0.00746396
-0.0177309,0.00981712
0.0092811,-0.00218281
0.0294855,-0.00538275
0.0172596,0.00472532
0.0094267,-0.00860582
0.00245472,-0.0343695
-0.0233525,0.00344855
-0.0398917,0.00997316
-0.0527712,0.00375689
-0.0648082,0.012063
-0.0783598,0.0235528
-0.0506167,0.0271367
-0.0644185,0.062121
-0.00901578,0.0417442
0.0646075,-0.0142212
0.0837841,-0.02765
0.0647616,-0.0296881
0.0919622,-0.0669087
0.0475621,-0.0440603
0.0181188,-0.0190769
0.0368589,0.0118987
-0.00138928,0.0342653
-0.0079727,0.0226867
0.0820294,0.0120065
0.128102,0.00310968
0.0437223,-0.0153314
-0.0711098,-0.0188791
-0.0737613,-0.0064176
-0.0596637,-0.0139019
-0.000555713,-0.0302911
0.00632702,-0.0213205
-0.0623473,-0.00860355
-0.0665769,-0.00153613
-0.0624362,0.0137555
-0.0242009,0.0204755
0.00424531,0.0086225
-0.00405055,0.00238316
-0.00908962,0.0126
-0.00408346,0.0169264
0.00121051,-0.0011313
-0.00595386,-0.0194363
0.00239433,-0.00917985
0.0243306,-0.00157001
0.0275644,-0.00151122
0.0268313,-9.07e-05
0.0199414,0.00315858
0.0135397,-0.00352835
0.0166983,0.00115585
0.0131672,0.0207894
0.00106742,0.0307706
-0.00498603,0.0493965
-0.00852764,0.0163078
-0.00865928,-0.00906534
-0.0046879,0.00105527
0.00492483,-0.0101354
0.00687379,-0.0190772
0.00198428,-0.0148898
-0.00546044,0.000158312
-0.00196889,0.00943784
0.00504198,-0.00978096
0.00329533,-0.0203634
-0.00119305,-0.0128292
-0.00118893,-0.012333
0.000938022,0.00499423
-0.00445621,-0.00828662
-0.0219745,0.0237498
-0.0189825,0.0558138
-0.00697751,0.0132865
0.0134971,-0.00941156
-0.00194469,-0.00495443
-0.0273316,-0.0117096
-0.0275442,-0.0194491
-0.0202164,-0.00976074
-0.00250613,-0.000415306
-0.00896026,0.043387
-0.079624,0.066464
-0.0606498,0.0187872
-0.0637221,-0.0298015
0.0159993,-0.0398633
0.0651096,-0.0378705
0.0410447,-0.0247297
0.0412468,-0.0118429
0.0224465,0.0203165
0.0410037,0.0129327
0.0807029,0.0037651
0.0360512,0.00863933
-0.00308448,-0.000877925
-0.0160627,-0.0349205
0.0140386,-0.0678614
-0.000934075,-0.0338809
-0.00377995,0.0607768
0.00253442,0.0445596
0.0281463,-0.024001
0.0429578,-0.0152697
0.0301407,0.00305936
0.00689286,-0.00516478
-0.0498982,-0.00838062
-0.0964461,0.0111704
-0.0360558,0.0184661
0.0216534,1.12e-05
-0.00343261,0.0121983
-0.0324092,0.0187739
-0.00312536,0.00759728
0.0168891,0.0108326
0.00298736,0.0192089
0.00115836,0.0131542
-0.0118811,-0.0139165
-0.0111906,-0.00826931
0.0162464,0.00410795
0.0361445,-0.00435367
0.0352486,-0.0084862
0.0159572,-0.00988709
0.00317623,-0.0162571
0.00487759,-0.0180243
0.00387318,-0.0109224
-0.00116128,-0.00892365
-0.00975873,0.0172153
-0.0130389,0.0280664
-0.0145409,0.00226928
-0.0110077,-0.0128794
-0.010319,-0.0146863
-0.00443076,-0.0208103
0.00113741,-0.0227771
-0.0240767,-0.00749688
-0.0516272,0.00501719
-0.0373709,0.010207
0.0153578,0.00229976
0.0318638,0.0170401
0.0456381,0.0346499
0.0613524,0.00610595
0.0686699,0.00536289
0.0642415,-0.0122397
-0.00408348,-0.032182
-0.0706211,0.0162718
-0.0666281,0.00414725
-0.038533,-0.00933955
-0.0252486,-0.00888835
0.00102443,-0.00431705
0.00912222,-0.00270435
0.013844,-0.00790711
-0.00246486,0.015088
-0.00588534,0.0392073
-0.0157087,0.0356819
-0.0135665,0.0332685
0.00205535,0.00298043
-0.00380881,-0.0352248
0.0102848,-0.0471805
-0.00719498,-0.0194072
-0.0298774,-0.00776825
-0.0143525,0.000316182
0.00546603,0.0188381
0.0232862,0.0220118
0.0205135,-0.00167053
0.0056058,-0.0186932
-0.0281437,0.0227881
-0.0648089,-0.0132443
-0.0299109,-0.0165281
-0.018126,0.0296593
0.0258205,0.0439719
0.0546062,-0.0352177
0.0450832,-0.0499854
0.0525698,-0.0161014
0.0213172,-0.00869695
-0.0192156,0.000449542
-0.032118,0.0123156
0.00979178,0.00921159
0.0214741,0.0105283
0.0107674,0.025282
0.0355542,0.025371
-0.0125009,-0.00774893
-0.0277128,-0.00424704
0.00955994,-0.00456127
0.045033,-0.00187616
0.0354519,-0.00935647
0.0155573,-0.0198069
0.0035426,-0.00868317
-0.0353292,0.00151666
-0.0495531,0.00795646
-0.00733387,0.00285922
-0.0156635,-0.00430546
-0.0158373,0.00734039
0.0105131,0.0228053
0.00138773,0.0369266
-0.00249273,0.0182667
-0.0064899,-0.0165555
-0.00423113,-0.0248783
0.00132732,-0.0234093
0.0109337,-0.0148868
0.0278854,-0.0161953
0.0133506,-0.0146063
-0.0373453,-0.000346734
-0.0532027,0.0152807
-0.00764324,0.00651324
0.0308026,0.00201126
0.0214234,0.0134508
0.0315323,0.00747767
0.0120153,-0.0046737
-0.0276199,-0.00293906
-0.0180498,0.00537745
-0.00701296,0.00172292
-0.0394717,0.000459914
-0.0456002,0.0181835
-0.00154913,-0.0133993
0.0482397,-0.0234683
0.00832913,-0.00661121
-0.0476333,-0.0103183
-0.0237531,-0.00272378
0.0146254,-0.00287113
-0.00311362,-0.0120824
0.0164403,-0.0121192
0.0408145,0.0241107
0.0170641,0.0167611
-0.00485016,0.00985282
0.0176792,0.0152999
0.00232253,-0.00904091
-0.0167431,-0.0217562
-0.0104808,0.0105858
-0.0167956,0.0447593
-0.00151624,0.0264168
0.000610248,0.0137337
0.0448734,-0.00304614
0.0453269,-0.0250452
-0.000158838,-0.0232277
-0.0236318,-0.0343047
-0.0179861,-0.00817285
-0.00912177,0.00969885
0.00715594,0.00306717
0.030885,0.00432738
0.0177814,0.0128366
-0.00388785,0.00741565
-0.00490746,0.000399779
-0.0328733,0.00074027
-0.0390666,-0.0214697
-0.0418817,0.00783051
-0.00076941,0.022002
0.0116356,0.00312987
-0.0158536,-0.0101811
0.0160837,-0.0206914
-0.0151319,-0.00771984
-0.023311,0.00763732
0.0383638,0.00530863
0.0578134,0.0311693
0.0334436,-0.00862249
0.0252963,-0.0387468
0.0122537,-0.00138589
-0.0269789,-0.0164627
-0.0177105,0.00325418
0.041248,-0.00263545
0.0177433,0.00783646
-0.00273372,0.0309837
-0.0167899,0.0405167
0.0184005,0.0101364
-0.00192416,-0.0231512
-0.0478144,-0.0265072
-0.0454746,-0.0132857
0.00627181,0.00262882
0.00555636,-0.00488148
-0.0110137,0.00521355
0.00395937,0.0416612
0.035187,-0.000490696
0.0241598,-0.0313987
-0.0275541,0.0016098
-0.0381628,0.0160035
-0.0226136,-0.00140835
-0.0292445,-0.0243799
0.0368206,-0.0142629
0.0880938,0.0149215
0.0453055,0.00990407
-0.0196691,-0.00455732
-0.0496472,-0.0291076
-0.0332896,-0.0242847
-0.00171654,-0.00457049
0.0188197,-0.0137429
0.0200765,-0.0151096
0.0136567,0.00309292
-0.0069076,0.015584
-0.0188835,0.0222052
-0.0269893,0.0340025
-0.0360508,0.0274625
-0.0309959,-0.0319343
-0.0302319,-0.0213198
-2.48e-05,0.0502047
0.0223014,-0.00356691
0.00670491,0.0175911
0.023027,0.0266661
0.0544225,-0.0245248
0.0389243,-0.0338242
-0.000226112,-0.0159576
-0.0142901,-0.0093346
-0.00091878,-0.0270985
-0.0208926,-0.00371139
-0.0173574,0.0387947
-0.0175464,0.0161723
-0.00808079,-0.00265239
-0.00438869,0.0410746
-0.00275394,0.0361863
0.00147488,-0.0166814
0.00456512,-0.036076
-0.0514165,-0.0169327
-0.0318566,-0.00292524
0.0268875,-0.00186894
0.0753707,-0.00696596
0.0375942,-0.00170751
-0.00386118,0.00432269
0.000524691,0.00186038
0.00251788,-0.00564949
-0.0071282,-0.0135272
-0.0313663,-0.00114524
-0.0265761,0.00955357
-0.0116848,-0.00182986
-0.050037,-0.00183859
-0.00778923,-0.00216397
0.0518914,-0.00611523
0.0599263,0.0166091
0.0404284,0.00361429
0.0263773,-0.0102534
0.0213029,3.77e-05
-0.0216647,0.00785448
-0.0243604,0.00528732
0.00500049,-0.00485317
0.0110887,-0.00114752
-0.0180903,-0.00286203
-0.0124434,-0.0166575
0.0323916,-0.0079092
0.0385131,0.000322498
0.00458225,0.0175813
-0.00571761,0.0176362
-0.0248462,0.013581
-0.024489,-0.00666695
-0.0163777,-0.0187983
-0.0156462,-0.0216615
-0.0166352,0.00123999
-0.0372209,0.0145797
-0.035701,0.017184
-0.0176351,0.011462
0.023687,-0.0157079
0.0398854,-0.0316769
-0.0156794,0.0279687
-0.0529427,0.0234629
-0.00663372,-0.0226685
0.0302436,-0.0178268
0.013463,0.022623
-0.0141647,0.0562798
0.0164926,0.059109
0.0437521,-0.0516801
0.0524429,-0.077564
0.0132649,-0.00793563
-0.0137436,0.0267618
0.0197613,0.0331092
0.0174359,0.0209121
-0.0228845,0.00779656
-0.0179352,0.0254892
-0.00160425,0.0229819
-0.0122522,-0.0229819
-0.0105622,-0.0484298
-0.00551968,-0.0308094
-0.0092875,-0.0208382
-0.00866667,-0.00797877
-0.0092357,0.0397228
-0.00208894,0.00606168
-0.00347425,0.00369813
0.001037,0.00495143
-0.00556446,-0.0220841
-0.0076909,-0.0308088
0.00788077,-0.0146228
0.0265503,-0.021904
0.01941,-0.00649608
0.0114,-0.00832876
-0.0176841,-0.0103513
-0.0366695,-0.00258278
0.00135159,0.0207638
0.0145126,0.0142598
0.0178848,0.00530163
-0.00105632,0.0292669
-0.0210387,0.0395158
-0.0100657,0.012435
0.0314824,0.00607152
0.00954512,-0.00405074
-0.000829383,-0.0070027
-0.00283348,-0.0191116
-0.0530852,-0.00832894
-0.0736004,0.0077521
-0.0494254,-0.0156282
-0.00670518,0.0111808
0.0324815,0.0326067
0.089336,-0.0293124
0.107046,-0.0174359
0.116134,0.00272458
0.0354922,0.00721443
-0.0468419,-0.00732781
-0.0584087,0.00378341
-0.0170544,0.0211001
0.038398,-0.000453802
0.0152044,-0.00478007
-0.0179468,-0.00635627
-0.0424975,-0.0203673
-0.0462825,-0.0166935
-0.0325679,-0.0233518
-0.0168542,-0.027104
-0.0129018,0.00614159
-0.0177622,0.0360404
-0.0326832,0.0410349
-0.023134,-0.0261331
-0.0148057,-0.0240331
-0.0298567,0.0176959
-0.00587611,0.0101165
0.0423006,-0.00427457
0.0410551,-0.00317483
0.0241368,0.0193204
0.0188374,0.00790537
0.00451297,-0.00202843
-0.0140274,-0.00621873
-0.000843378,0.00171792
0.0404919,0.00203873
0.0332033,-0.0029771
0.00966229,-0.0184211
0.0118851,-0.00143294
0.00476048,-0.000633255
-0.00627469,-0.00871432
-0.0275204,0.00519464
-0.0248622,0.0136836
-0.0109253,0.00954937
-0.00899379,0.00906716
-0.00366712,0.0217803
0.0247984,0.0167343
0.0177741,0.00915591
0.0411172,0.0106237
0.0767355,0.00307754
0.0248254,-0.00703581
-0.0248939,-0.0214624
-0.0678606,-0.0216332
-0.0634971,-0.0156043
-0.0521059,0.0129441
0.0097029,0.0232652
0.0422763,-0.0371802
0.013411,-0.0323461
-0.0186863,0.00173809
-0.0302908,0.00342266
-0.0214754,-0.0133164
-0.0238582,0.0106787
-0.0390983,0.0281326
-0.017207,0.00604622
0.000979399,-0.00647012
-0.0143239,0.0107277
-0.0324296,0.00387001
0.00578809,-0.0121319
0.0901303,-0.00641887
0.0935406,-0.00409913
0.0582108,-0.0116779
0.0570134,0.00785241
0.0549293,-0.00518679
0.000991457,0.0096434
-0.0689398,-0.00627743
-0.0556945,-0.00765883
-0.0284631,0.0135297
-0.00791325,0.0241187
0.00902962,0.0189424
0.0017002,0.021081
-0.0190759,-0.00970262
-0.0602021,0.00274589
-0.0384909,-0.0404985
0.0146493,-0.032564
0.0123139,-0.0185179
0.00477673,-0.0166812
0.0187638,0.0126751
0.0319733,0.0211607
0.015903,0.0346702
-0.00962608,0.0160897
-0.0117766,0.0195051
0.0193882,-0.0267073
0.0295285,-0.0266735
0.0263033,-0.0196476
-0.00775087,-0.0165047
-0.0335103,0.0135627
-0.0168109,0.0274489
0.0209344,0.0298725
0.00777489,0.00672468
-0.0127479,-0.010419
-0.0246852,-0.0150609
-0.0292931,-0.012745
-0.0120706,-0.0131493
-0.00910056,-0.00661756
-0.0168733,0.00284831
-0.0180014,0.0108971
0.00272896,0.00354204
0.0217393,-0.0143408
0.0103467,-0.0109305
-0.000104924,-0.00330801
0.008723,-0.00638259
0.0329875,-0.00372983
0.0299372,0.00904614
0.00460552,0.0305089
0.0055362,0.0268546
0.00761218,-0.00670448
0.00192949,-0.0162248
-0.02024,-0.0109234
-0.0390632,-0.00117542
-0.0173344,-0.00469261
0.0270932,-0.0144572
0.0468613,0.00605561
0.0199552,0.016427
0.00107622,0.0130102
-0.00346354,0.0142035
-0.0292291,0.0167922
-0.0359329,0.00892281
-0.0334603,-0.00458917
-0.0175729,-0.00247116
0.00210973,0.0233939
0.0329425,0.00411856
0.0373084,-0.00491832
0.00681237,-0.0152167
-0.0125676,-0.0284912
0.00544081,-0.0248212
0.0153352,-0.00323778
-0.00517204,0.0214012
-0.0341204,0.0487416
-0.0502543,-0.000134753
0.0288396,-0.0355048
0.0324882,-0.0182532
-0.0118795,-0.0086533
-0.0129194,-0.00899579
-0.00535749,0.00101566
-0.0115095,0.0133582
-0.0265519,0.0070681
-0.0127906,0.0231594
0.0455247,0.0398446
0.0726947,-0.0236607
0.0335357,-0.0218222
-0.00767451,-0.01549
-0.0553739,-0.00858453
-0.0541662,0.0219902
-0.00635275,-0.0318126
0.00833757,-0.0304389
0.0125427,0.0124907
0.00131042,0.0124977
-0.0225525,-0.0157654
-0.00965177,-0.00993286
0.0453245,0.00885856
0.0788715,0.019816
0.0756301,0.00651672
0.0441776,0.00650089
-0.00775785,0.0465164
-0.0733927,-0.00715056
-0.100322,-0.0311124
-0.0708844,0.00601002
-0.0387164,-0.038354
0.0152911,-0.0395039
0.0638206,-0.022495
0.0747986,-0.0116521
0.00586452,0.0165692
-0.0732591,0.0256153
-0.0353929,0.0118351
0.0180253,0.0041864
0.000422906,0.0082233
-0.00279872,0.0110481
0.0191228,0.000121959
0.00799603,-0.00580168
-0.0141761,-0.00176456
-0.0296536,0.0316811
-0.0331562,0.0198543
-0.0390874,0.0108613
-0.028998,0.0368873
0.00680147,0.0322633
0.0387566,-0.00183134
0.0645126,-0.0446783
0.0826428,-0.0359494
0.0856721,0.0010176
0.0131406,0.00418043
-0.0521115,-0.0152456
-0.0755403,-0.0135329
-0.0469488,-0.00402639
-0.00176018,-0.00639779
0.0185877,-0.0107648
0.0383834,-0.00156612
0.0228747,0.00725747
0.00611941,0.0123478
0.0110186,0.0121613
-0.00381078,0.00797115
-0.009886,0.00168054
-0.00678605,-0.00236729
0.00870011,-0.00853134
0.045162,0.00062442
0.065692,0.00785298
0.0607035,0.0114171
0.0334876,-0.00205725
-0.0839134,-0.0153457
-0.116351,-0.0150072
-0.0582167,-0.00766282
-0.0301979,-0.00209627
-0.0185019,-0.00949883
-0.00803872,0.0108817
-0.000607354,0.0462314
0.035601,-0.0114955
0.0502474,-0.026104
0.0165135,-0.0150897
-0.00786527,-0.00362348
-0.0200768,0.000676299
-0.0279239,0.0048678
-0.0384588,0.00354831
-0.0418294,0.0258588
0.00603851,0.0313359
-0.00338418,0.00727885
-0.068559,0.00178994
-0.0472538,-0.00769404
0.0255742,-0.024487
0.0443553,-0.0173019
0.0661131,-0.00248834
0.084782,-0.0216812
0.0209295,-0.0111465
-0.0308362,-0.00310889
-0.0296992,-0.00276356
-0.0321745,0.0117445
0.0201219,0.0285608
0.0524195,-0.00164441
0.07342,-0.00864734
0.0625948,0.001166
0.0408177,0.0113672
0.0289433,0.0147093
-0.00155134,0.00156422
-0.0489001,-0.00870679
-0.0689817,-0.0361143
-0.0570891,-0.0103271
-0.0364644,0.0322551
-0.0381462,0.0125669
-0.0310445,-0.0164783
-0.0124127,0.000302768
-0.0048663,0.0360423
0.0306387,0.00652867
0.047809,-0.0173594
0.0195809,-0.0157885
-0.006279,-0.0209268
0.0133581,-0.0125223
0.0414674,0.0379051
0.0362799,0.0461906
-0.0178486,0.0166746
-0.0585947,-0.0290512
-0.0832986,-0.0201435
-0.052385,0.0258578
0.0226827,-0.0188764
0.05897,-0.0114275
0.0614341,0.00532952
0.0346773,-0.0260121
0.0189652,-0.0517859
0.0185272,-0.0202788
0.0565585,0.0223176
0.0491819,0.0292146
-0.00617094,-0.00792957
-0.0612367,-0.0249038
-0.0934482,-0.00532087
-0.148482,0.0190648
-0.178628,0.0672194
-0.100992,0.0581332
0.0148436,0.0455083
0.123224,-0.00318284
0.109706,-0.0342627
0.110032,-0.0518946
0.0609975,-0.0344923
0.0457522,0.00326078
0.0286797,0.0305476
0.0269078,0.0180168
-0.00882442,-0.0321591
-0.0604517,-0.0467294
-0.0869565,-0.0238863
-0.0125287,0.0209733
0.0809317,0.0181141
0.0588115,0.00993617
-0.0403034,-0.00426433
-0.0735882,0.0152412
-0.0561001,0.00678007
-0.0531641,-0.001535
-0.0403978,-0.00234262
-0.0126242,-0.00837987
0.0319305,-0.0449965
0.0698768,-0.0099384
0.0628023,0.0304544
-0.000455513,0.0212823
-0.00971599,-0.0142944
0.011822,-0.0120697
0.00383949,0.00637916
-0.0376172,-0.00512299
-0.0231349,-0.003703
0.0488298,-0.012099
0.00880976,-0.0445893
-0.0505279,0.00082122
-0.0082101,0.0504845
0.0377596,0.033561
0.0406516,-0.016522
0.000672712,-0.0352258
-0.0392128,-0.0224631
-0.0409354,-0.0388411
-0.0189387,-0.017564
0.0179174,0.0230677
0.0521763,0.0279306
0.0796767,0.0452072
0.0834988,0.0738759
0.0713158,0.0368202
0.103714,0.0463443
0.0289374,0.0305684
-0.141526,-0.0517175
-0.118953,-0.0657389
0.061307,-0.00494226
0.130553,0.00956135
-0.00239002,0.0049768
-0.146544,-0.000473298
-0.107935,-0.0368908
-0.0432508,-0.0361547
-0.0302312,0.0130523
-0.0259537,0.0159937
-0.00921955,0.0112094
-0.0281815,0.0247596
-0.0250896,0.012687
-0.0404059,-0.0111628
-0.0438326,-0.0192662
-0.0027361,-0.0185332
0.0326834,0.0127349
0.0207821,0.0412675
0.0227595,0.0294184
0.0656789,-0.0308764
0.027515,-0.0343585
-0.00273682,-0.0100195
0.038889,-0.00510315
0.0620475,-0.0264163
0.00593271,-0.0141293
-0.0213629,-0.0316947
-0.0318176,-0.0156606
-0.0282981,0.0316471
0.0170642,0.00217889
0.0219065,-0.0245136
0.0120551,0.00657297
0.0400314,0.0634371
-0.0315829,0.0145789
-0.0956634,-0.0164347
-0.0027042,0.0111067
0.041683,0.0216661
0.0892745,0.00766784
0.112858,0.0154396
0.0801879,0.0323165
-0.0753776,0.0209079
-0.145709,-0.00754182
-0.0475025,-0.0427126
0.00182559,-0.031755
0.0256792,0.00184725
0.0223113,-0.0040753
-0.0271585,-0.0078899
-0.000557702,-0.0233972
0.0208388,-0.0353012
-0.000158739,-0.0226723
-0.0747483,-0.00481079
-0.0867238,0.01135
-0.00849426,0.0485228
0.0462479,0.0414482
0.0151937,-0.010138
-0.0241969,-0.0331867
0.0105963,-0.0131705
0.0385764,0.000887363
0.0221385,-0.0225088
-0.00679752,-0.00356389
-0.0172072,0.0288283
0.00177525,0.0234681
0.028867,0.0137373
0.0154966,0.0191408
-0.0123744,0.0187148
-0.0127616,-0.0159216
-0.00904718,-0.020598
0.0117094,0.00154466
0.0363511,0.011806
0.0897718,0.00705913
0.103913,0.000130878
0.0506999,-0.0105409
0.00482883,-0.0388827
-0.0310842,-0.02369
-0.0571933,-0.0218603
-0.0734427,-0.0233256
-0.0688001,-0.00702347
-0.0449838,0.0175179
-0.00811671,0.0125595
0.00764085,0.0160279
-0.0248786,0.0420983
-0.0852032,0.0195648
-0.104111,-0.0249451
-0.0761859,-0.0353977
-0.0150727,0.0241395
0.0923727,0.0757908
0.10621,0.106226
0.0908401,0.0553707
0.0665828,-0.0606985
0.0108627,-0.0725511
-0.0388385,-0.0405482
-0.102785,-0.0137088
-0.0709325,-0.0246133
-0.0138227,-0.0151614
0.0560213,0.00885686
0.0624208,0.0029894
0.0642717,0.0153279
0.11689,-0.0273926
0.112683,-0.0313186
0.0337421,0.00061613
0.0153489,0.0241411
0.0716217,0.0069812
0.0396878,-0.0185142
-0.139419,-0.00575898
-0.207885,0.0092317
-0.103576,0.0031453
-0.0349415,0.0511518
-0.0168557,0.0162329
0.0387572,-0.0347168
0.0767607,-0.0261455
0.0365556,-0.00340235
-0.00439097,-0.0117847
-0.0476471,-0.022092
-0.0489958,-0.00292409
-0.0483423,0.0114651
-0.0603691,-0.0123708
-0.0316775,-0.0187753
0.0367259,0.007743
0.0663309,0.0223145
0.0895886,-0.00775594
0.0794175,-0.00402315
0.0197824,0.00807847
-0.0246907,-0.00624283
0.0104991,0.0159314
0.0323108,0.0237916
0.0225363,0.00765736
-0.00564771,0.0367608
-0.0357612,0.0520247
-0.0349789,0.0483777
-0.0285905,0.0214031
0.0131297,-0.00861628
-0.014503,-0.0202366
-0.0865143,-0.0675642
-0.0735611,-0.0461567
0.0126218,-0.0239354
0.0805859,-0.0239739
0.0450631,-0.0019395
-0.0176539,0.0236104
-0.052714,0.0216976
-0.0412371,0.00460457
0.00775266,0.00612159
0.0519858,0.0140948
0.0832432,0.0109108
0.080467,0.011068
0.0518093,0.0150364
0.0286375,-0.00562331
-0.063734,-0.0341872
-0.110275,-0.0574281
-0.0945102,-0.0107039
-0.0467128,0.032457
-0.0388539,0.0144304
-0.0367688,0.00630481
0.00140008,-0.0168421
0.00536757,-0.0173994
0.0474626,-0.00725464
-0.000472082,0.019197
-0.0180991,0.0284045
0.0872456,0.013396
0.124465,0.0165512
0.0762656,-0.0304178
-0.0518065,-0.0475131
-0.116085,-0.0042611
-0.0312909,0.0351977
0.0118747,0.00923262
0.0289712,-0.0229767
0.0717093,-0.00661394
0.10664,0.00782687
0.0954471,-0.021689
0.00457063,-0.0136437
-0.0864039,0.00688944
-0.103604,0.0159624
-0.0451384,0.0187358
0.0315018,0.00613028
0.0265733,0.00220403
-0.00207078,-0.000635378
-0.0157737,-0.018806
-0.0306671,-0.0137555
-0.0141065,-0.000637598
-0.00372915,0.00521043
-0.0396981,0.0184075
-0.0713088,0.00797779
-0.00379099,0.0215375
0.028122,-0.00851514
-0.00751876,-0.024282
-0.0276302,0.0129031
0.0406974,-0.0120513
-0.0100339,-0.003626
-0.0276037,0.0301156
0.112987,-0.0189867
0.160688,0.00877297
0.0538792,0.0364989
0.0298159,0.0401991
0.0855625,0.00596484
0.0842806,-0.0536105
-0.00574605,-0.0452269
-0.157633,-0.0107528
-0.210414,-0.0125881
-0.106707,-0.0120744
-0.0214866,0.00118066
-0.0107368,0.0238593
-0.0269958,0.0222134
-0.0266443,0.0103772
0.0164664,-0.0160088
-0.00209596,0.00840017
-0.0194826,0.0119219
0.0128755,-0.00287641
0.0302113,-0.00373721
0.0200536,-0.0231721
-0.00857075,-0.036526
0.0120886,-0.014786
0.138877,0.0448077
0.189711,0.0464679
0.0401999,0.00277173
-0.0972091,0.000212901
-0.0676794,-0.00901952
-0.0476892,-0.011315
-0.109936,0.0185858
-0.11028,-0.00997892
-0.00529946,-0.0103468
-0.00681216,-0.0303442
0.00506901,-0.018872
0.027315,0.0368962
0.00115977,0.0614037
-0.0300167,0.10387
-0.0332076,0.0583664
-0.0157252,-0.0968478
0.00930117,-0.0929505
0.0521773,-0.0503479
0.0844259,-0.0541793
0.0851913,-0.00907315
0.0648719,0.0280549
0.0496772,0.0192257
0.0307198,0.0228507
0.052268,0.0231939
0.103873,-0.00804542
0.00429809,-0.0191896
-0.10018,0.0032211
-0.12992,0.030066
-0.092441,0.050655
-0.0555021,-0.00918344
-0.0581457,-0.0583306
-0.0319844,-0.0107288
-0.045695,-0.0155002
-0.0493165,-0.0298209
0.0397481,-0.00745227
0.074614,-0.00425026
0.0551168,-0.0169749
0.0405357,0.0144495
0.039493,0.0387418
0.0306374,-0.0294869
0.0643475,-0.0468622
0.0724144,0.0496599
0.0298253,0.120678
0.0201245,0.0960706
0.0372374,-0.0130648
-0.0124638,-0.0853127
-0.0866925,-0.0949774
-0.0679627,-0.0113431
-0.0147569,0.0814282
-0.035833,0.0112681
-0.0688744,-0.0109567
-0.0251744,0.0327503
0.0746582,0.0306111
0.10124,-0.0210716
-0.0422088,-0.0591594
-0.108285,-0.0441704
-0.0541485,-0.0279843
-0.058701,0.00680011
-0.0305343,0.0221364
0.017978,0.00914178
0.0430105,0.00322945
0.0417922,0.0064662
0.0314722,0.0216124
-0.0180228,0.0139943
0.00446721,-0.0368251
0.032147,0.00184264
-0.076892,0.0257971
-0.125052,0.0139694
-0.0304752,-0.00913527
0.00275498,-0.0104564
0.0081407,0.0174747
0.0527276,-1.75e-05
0.0527899,-0.0209001
0.0289059,-0.0150243
0.0140364,-0.0291443
0.0285973,-0.0115296
0.0681214,0.0234651
0.0715588,0.0226704
0.0662456,-0.00715577
0.0654968,-0.0209845
0.0771245,-0.0147947
0.0894956,-0.00892878
0.0859579,-0.000769937
0.0250188,0.021344
-0.0792775,0.036074
-0.166429,0.00383393
-0.162289,-0.00626938
-0.114877,0.00826583
-0.0416138,0.00319259
0.014403,-0.00945829
-0.0216365,0.0196002
-0.0612497,-0.0132822
-0.0399769,-0.0132262
-0.026342,-0.0293097
-0.0175669,-0.00348665
0.00656499,0.0119093
0.0230195,0.0330003
0.0174079,0.0325318
0.016503,-0.0406033
0.0287433,-0.0423937
0.0443544,0.057348
0.0824555,0.0200248
0.0855411,0.0222036
0.0568292,0.059459
0.0265649,0.0735044
-0.0147345,-0.0379337
-0.0599308,-0.0683202
-0.0613072,-0.0358165
-0.0186443,-0.0492128
-0.013531,-0.0170895
-0.0199548,-0.0433883
-0.0228335,-0.0333343
0.0368362,0.0282887
0.0546293,0.0142295
-0.0445902,0.00945893
-0.0720907,0.0253188
-0.0394326,0.00950608
-0.01551,0.0830857
0.0323887,-0.00808811
0.0362798,-0.0773171
0.0364726,-0.0561928
0.0231448,-0.00974348
-0.0168364,0.02054
-0.0431617,0.0163883
-0.0500387,0.00679764
-0.0478451,0.0189627
-0.0565063,0.0245645
-0.0534424,0.0202099
0.0384563,0.00402376
0.104094,0.00388821
0.110837,0.000981606
0.0736072,-0.00476103
-0.020041,0.0165354
-0.146616,0.0261295
-0.144958,0.00976866
-0.0226392,-0.0133507
0.0347763,-0.0413529
0.249342,-0.0230801
0.670284,0.00903616
0.754353,-0.0144356
0.49214,-0.022681
-0.00458018,-0.0291727
-0.467656,-0.0276359
-0.685616,-0.0236889
-0.682977,-0.0259582
-0.430791,-0.0187951
-0.206522,0.00544626
-0.0916989,0.0193696
-0.00642326,0.0238774
0.0879769,0.0307433
0.0928457,0.0346366
0.0388811,0.0265244
-0.00943346,0.0217803
-0.0461813,0.0187448
-0.068437,0.00145208
-0.0207568,-0.0153302
0.0244736,0.00645229
0.0760108,0.00724326
0.124556,0.0016871
0.184227,0.0111347
0.229797,0.00448258
0.304791,-0.0108141
0.293918,-0.0172475
0.168674,-0.0173469
0.00429826,-0.0271333
-0.213735,-0.0228019
-0.272783,0.0058461
-0.154749,0.0318199
0.0135209,0.0317093
0.0105307,0.0261367
-0.0751789,0.00780249
-0.224804,-0.0171832
-0.304201,-0.0268394
-0.182304,-0.02174
-0.0813934,-0.0226897
0.0596572,-0.0106542
0.118845,0.00207751
0.054723,-0.00703896
-0.018931,-0.0199866
0.0494736,-0.00826991
0.208205,0.0119926
0.305697,0.0151876
0.263931,0.0184401
0.131772,0.0321502
0.0337075,0.0296407
-0.0544394,0.0142853
-0.129816,0.0042878
-0.128946,-0.0144891
-0.209547,-0.0168063
-0.233126,-0.0122538
-0.0418807,-0.00368299
0.12071,-0.00524016
0.114065,0.00391178
-0.0390812,0.00729008
-0.217682,-0.0132349
-0.307444,-0.0245232
-0.190223,-0.0226278
-0.0348765,-0.018919
0.0548301,-0.0081315
0.272866,0.0195055
0.674506,0.0533125
0.728913,0.053941
0.431309,0.0273557
0.0217299,0.0050783
-0.500999,-0.0157231
-0.732422,-0.029878
-0.558644,-0.0261742
-0.217702,-0.0159957
0.123809,-0.00786705
0.252537,0.00833602
0.221252,0.00621525
0.0573419,-0.013885
-0.00563068,-0.0212382
0.0712781,-0.0121784
0.0970077,-0.00193935
0.0489248,0.00624995
-0.0976159,0.0159819
-0.271528,0.0229173
-0.271232,0.0141127
-0.163976,0.0139676
-0.0997309,0.01738
0.00605601,0.00694615
0.0669737,-0.00535593
0.0841558,-0.00753262
0.0501127,-0.00713446
0.0548512,0.00178565
0.0831057,0.0133087
0.104521,0.00787263
0.0902295,-0.0139535
0.0238638,-0.0235718
-0.020079,-0.0259959
0.00395456,-0.0289969
0.0819028,-0.018457
0.109619,0.00353829
0.0610545,0.0125008
-0.0308606,0.0111326
-0.0594242,0.0177722
-0.00718237,0.0143831
0.0305742,-0.00179873
0.112068,-0.00444516
0.195563,0.00552007
0.135114,0.00185649
0.0223892,0.00376951
-0.0799834,0.0079527
-0.123763,-0.00453615
-0.122879,-0.0193243
-0.138261,-0.0116848
-0.103365,-0.0136348
-0.0420101,-0.0199772
0.000215276,-0.0105379
0.00325857,0.00898408
-0.0170402,0.012294
-0.0236767,0.00622599
0.0195388,0.0141019
0.106099,0.0106604
0.130459,-0.00193678
0.0669637,-0.00179691
-0.0430228,0.00787234
-0.0522844,0.0139349
-0.0157758,0.0232159
0.00469312,0.0152104
0.0096752,-0.00887418
-0.00488211,-0.0163946
-0.00127678,-0.0157294
0.00432544,-0.0214213
-0.00709559,-0.021487
-0.0432659,-0.00144961
-0.0658713,0.0189797
-0.0643821,0.00320947
-0.0165916,-0.0186625
0.0986016,-0.0198081
0.158929,-0.0153756
0.115722,-0.00979322
0.0429324,0.0089297
0.0221388,0.0150975
-0.0187952,0.0338393
-0.0775139,0.0640216
-0.0660736,0.0479135
-0.0716445,0.00492069
-0.0451939,-0.0145974
0.112453,-0.0221671
0.150232,-0.0278925
0.0455828,-0.0207087
-0.119017,-0.00747336
-0.287985,0.00636874
-0.232002,0.00869803
-0.0399721,0.0127795
0.174552,0.0125363
0.204917,0.00403312
0.102088,0.00122809
-0.0419641,0.00757341
-0.131823,0.000855818
-0.147884,0.00724355
-0.0697487,0.00817602
-0.00653452,-0.00734585
0.0151154,-0.0211343
-0.00291561,-0.0184109
-0.028065,-0.0191601
-0.0290373,-0.0183432
0.00870432,-0.00641775
0.0194477,0.0150981
0.0104745,0.0213017
-0.00654137,0.0140539
-0.00765927,0.0115599
0.0131866,0.00348789
0.0427221,-0.00616099
0.0486622,-0.00706488
0.0358847,-0.00314294
0.0228899,-0.00612316
0.0207572,0.00278345
0.0331257,0.00388332
0.0401028,-0.0123909
0.0213336,-0.019126
-0.0075832,-0.0156527
-0.0231458,-0.0174584
-0.0171059,-0.0226219
-0.00618566,-0.00472795
-0.00224291,0.008188
