Comp Ch 3,Comp Ch 4
-0.009016,-0.0201683
-0.0200253,0.0110149
-0.0398389,0.0236549
-0.0503935,0.0243385
-0.117088,0.0355837
-0.101285,0.0293086
-0.0360738,-0.00636635
0.0526928,-0.0200585
0.0571256,-0.005825
0.0308673,0.00737015
0.123457,-0.0115753
0.135079,-0.00884166
0.0389127,-0.00654448
0.0247334,0.00620224
0.0659605,-0.00526129
0.108396,-0.0140987
0.0897518,-0.0054167
0.0826124,0.0111603
0.0704984,0.0425875
0.0060714,0.0303313
-0.0740686,0.034853
-0.0861562,0.0151802
-0.0765529,-0.0250662
-0.0723343,-0.00493723
-0.0275162,-0.00235574
0.00610097,-0.0145183
-0.0360385,-0.0108211
-0.0764996,0.022437
0.0185648,0.0270968
0.0817178,0.0169708
0.0837709,-0.0109389
0.0713425,-0.00705999
0.0403172,0.0390223
0.0235961,-0.0138142
0.0229722,-0.0831031
-0.0121131,-0.0294474
-0.0142427,0.00990434
-0.0142533,-0.000708425
-0.0198466,-0.0107943
-0.0687867,-0.008655
-0.103164,-0.00733327
-0.101152,-0.021737
-0.090129,-0.00560009
-0.0345182,-0.0182245
0.0804073,0.0061365
0.110511,0.0390385
0.0227271,0.0333449
-0.0592443,0.0128463
-0.0171429,0.00909078
0.0438034,-0.00319743
0.0218695,-0.0370744
0.000369386,-0.00984136
-0.0742302,0.0274439
-0.0796539,0.0205508
0.0337186,0.00232785
0.0738671,0.00733056
0.0648405,-0.000354973
0.0406352,-0.0100096
0.00111295,-0.00937927
-0.00813364,-0.022207
0.0155052,-0.0115269
0.0178158,0.00440642
-0.00901095,0.0168496
0.00206736,0.0100578
0.0115843,-0.0175288
-0.0215634,-0.0171783
-0.0336033,0.000739632
0.00846618,0.0165748
0.0283007,0.0145478
-0.00891269,0.032643
-0.0087209,0.0321304
-0.00675749,0.0141282
0.00567765,-0.0160724
0.0250488,-0.0239247
0.00675684,-0.00220201
-0.0287036,0.00568364
-0.0355527,-0.000682825
0.0017608,-0.00603922
0.0154462,0.00143947
-0.0364187,0.00927787
-0.0734103,0.00256281
-0.0395888,-0.0158126
0.010363,-0.0276462
0.0519395,-0.0351568
0.0441587,-0.00494088
0.00733207,0.0349144
0.0478833,0.0369374
0.0741771,0.0239723
0.0106325,-0.0166234
-0.049056,-0.0187642
-0.0501683,-0.00592373
-0.039326,-0.0139669
0.0250973,0.00900847
0.0715164,-0.0401213
0.0409202,-0.0271972
0.0292814,0.00571651
0.0349179,0.00695141
0.0223584,-0.00937793
0.0102535,-0.0208846
-0.0145206,-0.0132316
-0.0494513,0.0222754
-0.0554362,0.0623292
-0.0456571,0.0634692
-0.0262316,-0.000594661
-0.024829,-0.0197381
-0.0259699,-0.0134352
-0.035097,0.0130952
-0.0569716,-0.00495715
-0.0229251,-0.013589
0.0317171,-0.0123401
-0.0086272,-0.00984214
-0.053001,0.00383326
-0.0230755,0.0127109
0.00697095,-0.0112185
0.0291644,-0.0200393
0.0715351,0.00412733
0.108625,-0.0187792
0.0820669,-0.0345422
0.0394891,-0.0160578
0.023152,0.0225208
0.00856114,0.0351292
-0.0122858,-0.0182896
-0.0478485,0.0214029
-0.0632795,0.0338928
-0.0661957,0.0188693
-0.0698319,0.0190583
-0.0108165,0.0195614
0.074734,0.0321292
0.0708637,0.0105276
0.0322799,-0.0207148
-0.00610052,-0.032529
-0.0221353,-0.0537337
-0.0142617,-0.0537945
-0.00111137,-0.0178259
0.00590688,-0.0169723
-0.0219166,0.000541916
-0.0486036,0.0503263
-0.0443832,0.0580134
-0.0390893,0.019867
-0.0167041,0.0166864
0.00618509,0.0151823
-0.00124433,0.0160137
0.0106074,-0.013826
0.000574261,-0.00873314
0.0186571,0.0125595
0.0508192,0.0105475
0.0133394,0.019476
-0.0130646,-0.00296432
0.0370625,-0.0428565
0.093623,-0.0791873
0.0905632,-0.0511233
0.033819,-0.00596055
-0.0272091,0.00422427
-0.0836582,0.0129526
-0.0699332,0.0240341
0.0268548,0.0363568
0.0349361,0.000416737
0.023841,-0.0234273
0.0135492,-0.0201406
-0.00236165,-0.00181088
-0.0240094,0.00944552
-0.0494673,0.011255
-0.0411488,0.0265258
-0.0228324,0.0163451
-0.0217346,-0.00111385
-0.0161503,-0.00759539
0.00115085,-0.0309452
0.00437718,-0.0299467
-0.00584398,-0.00607619
-0.00224152,0.0207142
0.0370475,0.0261796
0.0420306,0.0158978
0.010178,0.0199797
-0.00352578,0.00607885
-0.00943796,0.00920471
-0.00145061,-0.01093
-0.00227117,-0.00888633
-0.0162628,0.0133424
-0.0134459,-0.00192015
0.00279211,-0.01492
0.0145931,-0.0172151
0.0111498,0.0086885
0.000592106,-0.0355194
-0.00347622,-0.0108863
0.00720031,-0.00881599
0.022311,0.00763566
0.00477372,0.00851107
-0.013869,-0.0128485
0.00546634,-0.00474286
0.00584881,0.0375485
-0.00858286,0.0294734
-0.000378983,-0.000313145
-0.000378085,-0.0223277
-0.0071817,-0.00794781
-0.0205661,0.0122494
-0.0233475,0.0258291
0.000768919,0.0167343
-0.0118642,-0.00494262
-0.0407439,-0.0376108
-0.0129171,-0.0123565
0.0232701,-0.0276181
0.0523714,-0.0279946
0.0606556,0.0074252
0.0344819,0.0520563
0.0136884,0.0572521
-0.00716768,-0.0107156
-0.0278748,-0.0231301
-0.055914,-0.00691334
-0.0617757,-0.00238176
-0.0279776,0.00118696
-0.00975389,-0.00183354
-0.0178379,0.00695818
0.00948798,0.015182
0.0445066,-0.00280482
0.0129711,-0.0188869
-0.0236062,-0.0100447
0.0148486,-0.0077967
0.0408926,-0.037396
0.0205639,-0.0298674
0.0265565,0.0111923
0.0334546,0.0169316
0.0210753,0.020153
0.00496825,0.0255734
-0.00227632,0.00370511
-0.0162956,-0.00417242
-0.0197376,-0.00985836
-0.0286322,0.0240679
-0.0229678,0.0564189
0.00129009,0.0701063
0.00752941,0.00024544
-0.0056394,-0.0900787
-0.0218497,-0.0573511
-0.0127218,-0.0389299
-0.00366737,-0.0349359
0.0105833,-0.0115267
0.00786308,-0.000131657
-0.0126813,0.0197152
0.000951229,0.0288456
0.0179196,0.0109391
0.00417133,0.00860066
-0.00272009,0.00648504
0.00183277,-0.0160341
0.00105868,-0.00820845
-0.00364875,0.012253
-0.0110995,0.00166317
-0.0200087,0.0331134
-0.00217566,0.0456623
0.0236602,0.0122079
0.0395369,-0.0144818
0.0326025,-0.0250838
0.00352929,-0.0195864
-0.0118524,-0.0148685
-0.0179633,0.00269563
-0.0204734,0.019918
-0.0140785,0.0149421
-0.00221262,0.00155546
-0.00735066,0.0024516
-0.00659147,0.0136922
0.0202329,-0.0109145
0.0185177,-0.0179558
-0.00346358,-0.00113614
-0.00669356,-0.0270097
0.00499791,-0.0169811
0.0215389,-0.000589041
0.0271824,0.0144444
0.00655505,0.0359747
-0.00917826,0.0183778
-0.0207912,-0.0252034
-0.0501963,-0.0329585
-0.031737,0.0107113
0.00254663,0.0277945
0.00354189,0.0238462
-0.00195561,0.00620519
-0.0349988,-0.0159861
-0.0259001,-0.022765
0.00527964,-0.0123749
0.0134611,-0.00621988
0.00338088,0.00336039
0.0473719,0.0187335
0.0487694,-0.00769246
0.0150526,-0.0253294
-0.00603133,-0.00970619
-0.0133426,-0.00444827
-0.0211518,-0.0182091
-0.0332239,-0.0136263
-0.0142706,0.00763115
0.00376802,0.0148358
0.0287622,-0.0101748
0.0281618,0.0334297
0.00930168,0.0309989
0.0260814,0.0182585
0.030187,-0.0263078
0.00944709,-0.025
0.00481655,-0.00968411
-0.0139959,0.00310225
-0.0250419,0.0266181
-0.0202946,0.048232
-0.0104838,0.0353012
-0.0035888,0.0423882
0.0044964,-0.021366
0.00366751,-0.052155
0.00729584,-0.0503906
-0.00203423,-0.00840197
-0.00955983,0.0353202
-0.00989712,0.0255835
-0.00292478,0.00663496
-0.00219776,-0.0152606
-0.0126252,-0.00278256
-0.0100336,-0.0261307
0.00343361,-0.059658
0.00216094,-0.0264504
-0.00997328,0.00411249
-0.00531313,0.0199025
0.0264565,0.0261251
0.0384485,0.013426
0.0227813,0.0037942
0.0049769,0.0111381
-0.00622737,-0.015276
-0.0154011,-0.00719604
-0.0354367,-0.0114284
-0.0440118,0.00159078
-0.0651042,0.00993544
-0.0287911,0.000299017
0.0112371,-0.00451704
0.0161929,0.00256351
0.0242239,-0.00797989
0.0440195,-0.00571124
0.0401871,0.00119313
0.0267128,-0.0199021
0.00932356,-0.000671327
0.00253666,0.027097
0.0161368,0.0145618
0.0200036,-0.00608354
0.0127763,-0.0059147
-0.00207601,0.00681316
-0.0121077,0.0118012
-0.0260878,0.0324708
-0.0281622,0.0383625
0.012741,-0.00667252
0.0181169,-0.0276386
-0.00236454,-0.0306437
-0.00548678,-0.00438267
-0.0181508,0.0262941
-0.0312304,0.021789
-0.0268552,-0.0438844
-0.0255816,-0.0117865
0.00423287,0.0125341
0.037386,-0.00527947
0.0183137,-0.0123481
-0.000953119,-0.023467
-0.000618722,-0.0157166
0.00747165,0.0100754
0.00825643,0.010223
-0.00198633,0.0185728
0.00891845,-0.0287242
0.00721758,-0.00439768
0.00982748,0.0450974
0.00577948,0.012989
-0.00617186,0.0128096
-0.0179402,-0.0414363
-0.0364101,-0.0259905
-0.0506327,0.0805838
-0.0227175,0.0315516
0.00930363,0.0247363
0.0126242,0.00648368
0.00101055,-0.0501112
-0.0106789,-0.0159906
0.00604272,0.0160393
0.0196855,-0.00695198
0.00891588,0.0111001
-0.00911081,0.0482933
0.00213203,-0.0296267
0.0183687,-0.0698863
0.0112198,-0.0146921
0.00626313,0.0272037
0.0079823,-0.0128597
0.00916123,-0.0413271
0.00353345,-0.0122415
-0.00300304,0.033049
-0.00181827,0.0291251
0.0156639,-0.0322884
0.018541,-0.021394
0.0127671,0.031419
0.0179652,-0.00451445
0.0141847,-0.0107676
-0.000563466,0.000467327
-0.00790026,0.00780951
-0.0128655,0.00698603
-0.0151711,0.00628227
-0.016753,0.0057699
-0.0301799,-0.0149552
-0.0323308,-0.0136911
-0.0335022,0.000880611
-0.018021,0.00956661
0.0169877,0.00811152
0.0101634,0.0166869
0.00267551,0.00810897
0.00613949,-0.00250087
0.00991645,0.00671954
0.00477617,0.0228493
0.00578547,-0.0073263
-0.000273345,-0.00935645
0.00393028,-0.0130168
0.0150448,-0.0336712
0.0126986,-0.0121403
0.000215075,0.0453836
0.000262091,0.00978397
0.00529142,-0.0376001
-0.000719668,-0.020831
-0.00206828,0.00400525
0.00676946,-0.0158946
0.0158979,-0.0140352
0.00333601,0.0143257
-0.0035992,0.024065
-0.0112167,0.0540253
-0.00843381,-0.00375232
-0.00342151,-0.0630521
0.0150848,-0.0506483
0.016129,0.0155093
0.00294496,0.029873
-0.00346935,-0.00150247
-0.00277762,-0.00298256
-0.00435906,0.0150358
-0.00483152,0.013527
-0.0063591,-0.010173
-0.0227564,-0.0179787
-0.0322654,0.00609557
-0.0276353,0.0216859
-0.016903,0.0554435
0.026312,0.0391733
0.0426473,0.00655989
0.0469755,0.00304609
0.037878,-0.0153286
0.00527828,-0.0397351
-0.0252089,0.0101028
-0.00138405,-0.0185549
-0.0261697,-0.0201355
-0.053703,0.00868197
-0.044052,0.0202977
-0.0438282,0.0243245
-0.00483431,-0.0367152
0.0213259,-0.0333977
0.042102,-0.0152608
0.0538033,-0.00924748
0.042545,0.00986416
0.0145928,0.0216322
-0.00892007,0.0263507
0.0125873,0.00521999
0.00837716,-0.0011605
-0.00632482,0.0332698
-0.0147279,0.0140466
-0.0108066,-0.02731
0.00252819,-0.0292306
0.00706828,-0.00303355
0.00119658,-0.00738159
-0.00387418,-0.0195468
-0.0089696,-0.0122714
-0.00654253,-0.00378738
0.00419359,-0.00883821
0.00854772,-0.000371007
-0.00393728,0.0134527
-0.0165338,0.00814409
-0.0146255,0.00982795
-0.00934943,0.0237141
-0.00236744,0.0208554
-0.00100812,0.0525873
-0.00280023,0.0203323
0.00187492,-0.0310019
0.00511098,-0.0131491
-0.00864296,0.0332642
-0.0199244,0.0443178
-0.00391858,0.0602529
0.0128915,0.0598149
0.0243009,0.029844
0.016453,-0.0553819
-0.00195962,-0.140544
0.00242682,-0.150974
0.00587919,-0.158495
0.00921569,-0.157013
-0.0031162,-0.114486
-0.0133498,-0.0460068
-0.0330551,0.0179871
-0.0489745,0.0432951
-0.0299036,0.021094
-0.0117119,0.0178659
-0.0138777,0.066847
0.0120884,0.107379
0.0474493,0.122805
0.0619016,0.156606
0.0382368,0.163384
0.00779264,0.0908583
0.00205391,0.0252232
-0.0141785,0.0148669
-0.0240968,0.00871664
-0.00267703,-0.0110399
0.00453228,-0.0105697
0.00924851,-0.00735793
0.0110624,-0.0175382
0.00868582,-0.0391315
0.00960149,-0.0468837
-0.00186393,-0.0521029
-0.00626697,-0.0702685
-0.0217476,-0.0745915
-0.0246639,-0.0316176
-0.019593,0.0235336
-0.00827066,-0.0114103
-0.00400213,-0.0480442
-0.005607,-0.0315388
0.000122355,0.0181016
0.0036137,0.0304142
0.0321191,0.00846739
0.0131937,-0.00863122
-0.026508,0.0380169
-0.0254111,0.0603149
-0.00661756,0.0903354
0.0145158,-0.0144276
0.0306613,-0.140613
0.049516,-0.0887139
0.0486892,0.0410903
0.0374114,0.053744
0.045533,-0.000957047
0.0233213,-0.021893
-0.0420123,-0.0136834
-0.0764302,-0.00609785
-0.055015,-0.00933221
-0.0542496,-0.0111504
-0.0759389,0.0366949
-0.0795465,0.0326638
-0.00981539,0.0160369
0.0509824,0.0326663
0.0733508,0.0462296
0.0866782,0.020535
0.0542516,0.0047665
-0.0126896,-0.0314823
-0.0420095,-0.054479
-0.0595302,-0.0381536
-0.0587721,0.000125986
0.000115057,0.0211901
0.043399,-0.00841538
0.0313145,0.00303682
0.0266031,-0.0184819
0.0256665,-0.0579702
0.0189373,-0.0456943
0.00328604,-0.0135713
0.00456471,0.0201889
0.00949509,0.0350005
0.0147809,0.0575686
-0.00463634,0.0820809
-0.0423873,0.0215131
-0.0388937,-0.050195
-0.0154536,-0.0252912
0.000407674,0.0197645
0.00957028,0.00650777
0.0079573,-0.00697134
0.00642286,0.000281386
0.012939,0.0050809
0.0601065,-7.77e-05
0.0739493,-0.00637995
0.00822255,-0.0121983
-0.0561554,0.000352825
-0.0593294,0.0275611
-0.0321742,0.00926957
-0.0335242,0.0114788
-0.00509266,-0.012067
0.0125756,-0.0442479
0.0453918,-0.0301254
0.0281745,0.0036828
-0.00599515,0.00888072
-0.032816,0.00444902
-0.0554679,0.0127713
-0.0540242,0.0047432
-0.0097913,-0.0033237
0.0223275,-0.00625145
0.0396506,-0.0165028
0.0397372,-0.0315861
0.0339955,-0.0305719
0.0392847,-0.0180862
0.0183129,0.00171985
-0.0218315,0.0215306
-0.0462102,0.0279801
-0.0138963,0.0260335
0.0185991,0.0130519
0.00258729,-0.00174585
0.00286572,-0.0115857
0.00223609,-0.000840428
-0.0393773,0.0184468
-0.0309539,0.0169638
-0.0166826,-0.00341689
-0.0217703,0.0051864
-0.00385097,0.0119944
0.0214987,-0.0142529
0.0240973,-0.0380143
0.0106839,-0.0146743
-0.0146813,0.00453243
-0.0323204,0.00114454
-0.04043,0.0226319
-0.0413902,0.020642
-0.0429641,0.0135979
-0.000372452,0.00294051
0.0632617,-0.0178943
0.0561328,0.00173581
0.0510645,0.00604238
0.055263,-0.00272905
0.0505859,0.0163931
0.0464423,0.010453
0.0380708,0.012123
0.00974454,0.0195078
-0.0210205,-0.0220704
-0.0345284,-0.0440329
-0.0225156,-0.0177765
-0.0173611,-0.0156187
-0.0308682,0.00230365
-0.0197814,-0.0172954
0.021597,-0.0108789
0.0442805,0.00536329
0.0605755,0.0307724
0.0485187,0.00992154
0.0342132,-0.0168249
0.000667352,-0.0103453
-0.061164,0.0125079
-0.0993103,0.0211086
-0.124985,0.0283358
-0.12614,0.00797508
-0.068348,-0.00437836
-0.02178,-0.0342399
0.0274964,-0.0527559
0.0472571,-0.021983
0.0395318,0.000450448
0.0468974,0.0271816
0.069634,0.0367484
0.0406325,0.00613642
-0.0129749,-0.00534966
-0.0285904,-0.0106048
-0.0215909,-0.0109346
-0.0116275,0.0327755
0.00248397,0.0789952
0.0200709,-0.014858
0.0281659,-0.0308125
0.00846905,0.052907
0.0116812,0.0392244
0.0190916,-0.0574682
0.0151012,-0.0805551
0.0150341,-0.0183278
-0.0030562,-0.00772126
-0.0107824,0.00849651
0.00157829,0.0220037
0.00825993,0.00799619
0.00393844,-0.00313133
0.0171334,-0.00423194
-0.00307627,-0.0143589
-0.0505884,-0.0114661
-0.0790246,-0.0018943
-0.0485659,-0.000613233
0.00521979,-0.0024461
0.0669815,0.00103609
0.0891451,-0.00327053
0.0703342,-0.010861
0.0473841,-0.0143133
0.00431115,-0.00834532
-0.0369719,0.00503675
-0.0621617,0.0128301
-0.0726318,0.0352539
-0.0483709,0.0465026
-0.0146195,0.0249184
-0.00219947,-0.00633878
-0.00293172,-0.00696532
-0.00879836,0.00980277
-0.0315079,0.00548198
-0.0298071,0.0146597
-0.00573025,0.0120285
-0.0167743,-0.004444
0.00557422,-0.0191873
0.0238476,-0.0235666
0.0508514,-0.0296946
0.0475639,-0.0251244
0.085563,-0.0183253
0.0784257,-0.0140632
0.0326509,-0.00365322
0.0215022,0.015379
0.0110654,0.0130209
-0.015321,0.0303363
-0.0382562,0.062387
-0.054846,0.0207177
-0.0402336,-0.0540815
-0.00339999,-0.036315
0.0178871,0.0129347
0.0116779,0.0225674
0.0169281,-0.0133393
0.0115051,-0.0180197
-0.018828,-0.0119185
-0.0322581,-0.0182419
-0.044948,-0.0421409
-0.0843605,-0.0180334
-0.0974682,0.033253
-0.0745365,0.029532
-0.0739095,0.0329865
0.0078594,0.0109226
0.110625,-0.00419124
0.09689,0.00573099
0.0603986,0.0276994
0.0640592,-0.00333096
0.0838008,-0.00968835
0.126802,0.0269148
0.135205,0.0278232
0.0633115,-0.030832
-0.0358405,-0.0414278
-0.109883,-0.00462876
-0.169734,-0.0261515
-0.157971,-0.0180587
-0.0455907,0.0108849
-0.00512368,-0.00536614
-0.033121,0.0175293
-0.0275996,0.02848
-0.0140108,0.00675241
-0.0335942,-0.0337089
-0.00527127,-0.000907422
0.0310862,0.0409299
0.0508582,0.0044745
0.0569579,-0.0208945
0.0449079,-0.00355671
0.0371947,0.000481905
0.0285772,-0.00388016
0.0250289,-0.016937
0.0100065,-0.0177028
-0.0167309,-0.00625265
-0.0329362,-0.0300716
-0.0228739,-0.0254083
-0.0314435,0.0416852
-0.0226256,0.0681816
0.0344572,0.044242
0.0235796,-0.0111593
0.00656769,-0.0109371
-0.00102821,-0.01492
0.00538964,-0.0153156
0.0185353,-0.0199909
0.0205817,-0.00929632
-0.00445359,0.0253911
-0.0282893,0.0292602
-0.0389946,-0.00571023
-0.0297872,-0.0136232
-0.0118832,0.00127985
-0.00817415,-0.0117269
0.00286514,-0.00427045
0.0248611,0.0227546
0.0447723,0.0259682
0.0349257,0.0431873
0.0130797,-0.0190002
0.0144329,-0.0584357
0.00717348,-0.027318
-0.0181122,0.0109786
-0.0323297,0.00504522
-0.018448,-0.0324035
-0.00839817,0.0177309
-0.00597234,0.0696725
-0.00134671,0.0203376
-0.00468704,-0.0499857
0.0198615,-0.0325574
0.0374118,-0.048588
-0.00801152,-0.0248346
-0.0460565,-0.00358326
-0.0490999,0.00880645
0.000860561,0.0330899
0.0360431,0.0134653
0.0434312,0.00610326
0.0339952,0.0032526
0.0402929,-0.00210755
0.0165364,-0.00521958
-0.0148758,-0.00657634
-0.0378763,-0.0039044
-0.0583763,0.0131143
-0.0485332,0.0455451
-0.0146353,0.00647872
0.0324368,-0.00647092
0.00352158,0.0117625
-0.00848288,0.0021942
0.0641289,-0.0299708
0.120984,-0.0376567
0.0710607,-0.000823101
-0.0303301,0.0198163
-0.0834794,0.00981352
-0.0947756,0.00757204
-0.123282,0.00386293
-0.0950261,0.0167113
-0.0295221,-0.0085395
-0.0162363,-0.0723587
0.0231548,-0.0246176
0.0629762,0.0251736
0.057414,0.0124238
0.0365667,0.00644404
0.0252339,0.0105383
0.0145362,0.00536992
-0.00199218,0.00664105
0.0133126,0.0207756
0.087382,0.0198907
0.172332,-0.042768
0.153692,-0.0253063
0.011903,0.0183942
-0.125791,0.0370282
-0.182905,0.00819475
-0.145705,-0.00568248
-0.0329296,-0.0113614
-0.00994963,0.00344087
-0.0181766,0.0131168
0.0150511,0.016298
0.0606542,0.00208193
0.0706024,-0.00435956
0.0363389,0.0300607
-0.0103944,-0.00224699
-0.0289382,-0.0716786
-0.0517374,-0.0221332
-0.096366,-0.00799215
-0.0080783,-0.00458083
0.0593714,0.0268113
0.051217,0.00845649
0.0134596,0.00169831
0.024924,0.00915107
0.0641609,0.0113509
-0.0109181,0.00720995
-0.105919,0.00167536
-0.136226,0.00780116
-0.126601,0.0252557
-0.0277621,-0.0247813
0.0700555,-0.034083
0.128721,-0.0276837
0.120766,-0.0301746
0.0765345,-0.028319
0.0113401,0.000455099
0.0325142,0.00349056
0.0713276,0.0277907
0.0719782,0.048676
0.0161364,-0.0243635
-0.0204678,-0.0457175
-0.0350484,-0.0298336
-0.0701782,-0.0283105
-0.0656288,-0.00159765
-0.0244118,0.0360102
-0.0749698,0.0278838
-0.12675,0.078528
-0.0612258,0.132853
0.0517797,0.0932091
0.0635237,-0.026037
-0.00283757,-0.0848065
-0.0263026,-0.0809279
0.0374302,-0.0428127
0.0875231,0.00797789
0.115369,0.0226385
0.0883301,0.0151573
0.0345099,-0.0336553
0.0334951,-0.0162233
-0.0233822,0.0164869
-0.069214,-0.00717457
-0.0332496,-0.102031
-0.0249214,-0.0313189
-0.0411127,0.092126
-0.0902536,0.0829263
-0.135378,-0.00554358
-0.223021,0.0299855
-0.115014,-0.0309906
-0.022166,-0.0734261
-0.185422,-0.0406641
-0.193299,0.0293225
-0.121072,0.0439768
0.0669982,0.0186485
0.374392,-0.0163584
0.395746,0.00753083
0.201271,-0.0805648
-0.00312029,-0.10039
0.0142655,-0.0270409
0.136372,0.0294378
0.205329,0.112111
0.295088,0.0582296
0.138294,-0.0523908
-0.0317568,0.0136991
-0.0489886,0.0950472
0.0400528,0.0902552
-0.013136,-0.019895
-0.0827343,-0.0243664
-0.176762,0.0544671
-0.394706,0.00305777
-0.362646,-0.0460438
-0.230725,-0.0281965
-0.101375,-0.0323658
0.0990921,-0.0192779
0.255158,-0.0639882
0.0869739,-0.0303257
-0.123374,0.00259859
-0.183595,0.0186498
-0.214772,0.0289085
0.0396534,0.00988498
0.311839,-0.0196756
0.25185,0.078826
-0.100251,0.0747957
-0.252735,-0.0822309
0.0557794,-0.105219
0.337254,0.0221468
0.257437,0.0469656
0.206165,-0.0255135
0.0305954,-0.0410464
-0.151201,-0.00987518
-0.138317,0.00088366
-0.111532,-0.0592597
-0.0644058,-0.0409083
0.00594553,0.0175329
0.0434174,0.0397046
0.140633,0.0203235
0.3775,-0.000702383
0.422404,-0.00979796
0.226942,0.00385344
-0.0429774,-0.00429222
-0.281498,-0.000737141
-0.465387,0.00146993
-0.426535,0.0449866
-0.207215,0.0596919
0.00858091,0.0417385
0.118167,0.0276776
0.0407478,0.0396999
-0.119328,0.0511454
-0.146278,-0.0349437
0.0399502,-0.0592727
0.138505,0.0151138
0.0661681,0.0352116
-0.0439872,-0.00496909
-0.124144,-0.0414954
-0.139418,-0.0357766
-0.0891803,-0.0339755
-0.0482505,-0.0251419
0.0136827,-0.0151445
0.0444939,0.0150445
0.0744694,0.023024
0.0729044,0.002023
0.0584618,0.0139029
0.0513759,0.0293695
0.0376154,0.0683423
-0.00343819,0.0530391
-0.0528519,0.00719115
-0.0415283,0.0219895
-0.0498266,-0.0582458
0.0426305,-0.139142
0.0973188,-0.0870947
-0.00727957,0.0399528
0.0338871,-0.00962503
0.112272,-0.0212379
0.114712,0.00906067
0.0546805,0.00264814
-0.0184249,-0.0111307
-0.0298194,0.0253013
-0.0295723,0.0465107
-0.0256975,-0.0316305
-0.0144806,-0.0224132
-0.0325951,0.00792325
-0.0817975,0.0752091
-0.084403,0.0622781
0.125551,-0.021367
0.190159,-0.0531804
0.0644479,-0.0358992
-0.10896,0.00585449
-0.263601,0.0033509
-0.191332,0.0104133
0.0416256,0.00998277
0.00120653,-0.00646933
0.0138161,-0.00526628
0.0750688,-0.00478945
0.0857087,0.0273909
0.11918,0.0409424
0.0753549,0.0139503
0.0672052,-0.0139878
0.0749977,-0.0442292
0.030441,-0.063693
-0.0804392,-0.0357746
-0.131616,0.0118254
-0.112201,0.0377279
-0.0644307,-0.0134055
-0.0139064,0.0143281
0.0406808,-0.0461429
0.068132,-0.0495906
0.0774904,-0.000111267
0.110567,-0.00965135
0.121018,-0.04799
0.0276792,-0.00448946
-0.0391731,0.0369446
-0.0533311,0.0283205
-0.0232721,0.0279255
0.00252824,0.027164
0.00950142,0.00887406
-0.0154312,-0.00761064
-0.109313,0.00349544
-0.164597,0.0364266
-0.0675026,0.0676626
0.0751062,0.0268468
0.0228096,0.00873242
-0.0231179,0.0519821
0.0312524,-0.0535145
0.052507,-0.0601893
0.049195,0.0253809
0.0759322,-0.0129305
0.0558598,0.00824459
0.0656397,0.0269392
0.097803,0.0142492
0.10333,-0.00833051
0.0177739,-0.01545
-0.10027,-0.030765
-0.17652,-0.0325946
-0.179101,-0.014691
-0.143865,0.0196905
-0.0807378,0.0308155
-0.0418196,0.00531244
0.0346647,-0.0283511
0.106293,-0.0538392
0.110715,-0.022285
0.0993405,0.0277404
0.0491025,0.0119827
-0.0576769,0.0132468
-0.0839144,0.051512
-0.085148,0.0191655
-0.060905,0.00785376
0.0693112,-0.00295107
0.0875395,-0.00614454
-0.0169986,-0.0180418
-0.0989789,-0.0144251
-0.0571518,-0.0137003
-0.0180739,-0.0221838
-0.0635236,3.33e-05
-0.0489142,0.028823
0.126956,0.0153409
0.119807,-0.0291927
0.0153382,-0.0359659
-0.0282671,-0.0137251
-0.0498989,0.0625607
-0.0525085,0.0484154
-0.00635365,-0.00154728
0.026848,0.0200182
0.0407643,-0.000206853
0.0309917,-0.00855099
0.0370327,-0.0200771
0.0630942,-0.036013
0.0883896,-0.0340836
0.0572669,0.0152675
-0.0294905,0.0708905
-0.0616961,-0.0181958
0.0716721,-0.106692
0.068248,-0.0174933
-0.0965902,0.02984
-0.0686328,0.00526806
-0.0241032,-0.0420053
-0.0515968,-0.0356589
-0.0336008,0.056037
0.00918871,0.0788995
0.0269072,-0.00648938
0.00162024,-0.0126479
0.00350381,-0.00545489
0.0302976,0.0079974
-0.0155425,0.00418536
-0.0695442,-0.0023606
-0.0252862,0.0189327
0.05006,-0.006226
0.0177567,-0.0349589
-0.0389979,-0.0117628
0.0252035,-0.0116758
0.0811491,-0.0357992
0.0774327,-0.0181805
0.0489473,0.0605785
-0.020833,0.082085
-0.0605008,-0.0173275
-0.0375229,-0.0179197
-0.0179806,-0.00112454
0.00230983,0.00261152
0.016674,-0.0145703
0.0197923,-0.0249201
0.0128523,-0.00738952
-0.00343838,0.0169707
-0.0193932,0.00546085
-0.00592359,-0.00130174
0.0233791,-0.0468925
-0.0391072,-0.0369094
-0.0368172,-0.0327365
0.000589364,-0.0163386
-0.0313598,0.0144788
-0.0113532,0.0463939
0.0302479,0.0439476
0.0848022,0.0417955
0.157994,0.0286176
0.068576,0.0347889
-0.163958,0.0193109
-0.227529,-0.006536
-0.116479,0.00619736
-0.0187784,-0.00523194
0.0353945,-0.0547365
0.0541865,-0.0342538
0.0565412,-0.00472703
0.0250303,0.00222528
0.024693,-0.00318629
0.0301811,0.0296404
-0.0110261,0.0439929
-0.0219575,-0.0232382
0.00957748,-0.0324152
0.0442466,0.0327591
0.0511836,0.0454218
0.0391621,0.00923894
-0.0435113,0.00850828
-0.0988888,0.00661304
-0.0373816,-0.0166844
0.00454406,-0.0387489
-0.0207594,-0.0308514
-0.0684481,0.0266377
-0.0472037,0.0465836
0.0790649,-0.052296
0.0794967,-0.0904655
-0.0122697,-0.0423066
0.00874967,-0.0149533
0.0518973,-0.0192441
0.062009,-0.0177051
0.00701427,-0.012323
0.000181624,0.000727921
-0.0107985,0.0964453
-0.0122991,0.0399467
-0.0145737,0.00942987
-0.025819,-0.0153234
0.00752671,-0.0201384
0.1012,-0.0134499
0.0460032,-0.00586959
-0.0347554,0.009157
-0.0302184,0.0450273
-0.0312944,0.0626884
-0.0634943,0.0132605
-0.0862491,-0.0254114
-0.0403649,-0.00439135
0.10114,-0.00363305
0.117919,0.0207676
0.0257705,0.0680857
-0.0990575,0.0733131
-0.14498,-0.00508498
-0.0429957,-0.0277102
0.0573428,-0.0220627
0.0561672,-0.0569373
0.00917815,-0.0541526
-0.00876812,-0.0389221
0.0307433,0.000428983
0.0488359,0.0625786
0.0545668,0.0166414
0.0518028,-0.0133541
0.0104696,-0.0164915
-0.0901087,-0.0190178
-0.118214,-0.00378083
-0.0586993,0.0116938
-0.007693,-0.0181203
-0.0109382,0.00112095
-0.0213008,0.0259829
-0.0131437,0.015602
-0.0209201,0.00463367
0.006992,-0.00977187
0.0576617,-0.0185637
0.043161,-0.0288844
0.0391482,-0.0387255
0.0734987,-0.0148846
0.0549505,0.0102853
0.0521696,0.0303457
0.0561371,0.0525907
0.0691976,0.0211952
0.0488055,0.0370606
0.00198717,0.0396092
-0.124381,-0.00591279
-0.189442,-0.0228534
-0.116372,-0.0284358
-0.0525862,-0.0248296
-0.00878129,-0.0364049
0.0176228,0.00923402
0.0368134,0.00190607
0.0589163,-0.0224311
0.0191467,-0.0169124
0.00965205,-0.0179003
0.0286028,0.0168791
0.0410821,0.00201364
0.0552563,-0.0376247
0.0579929,-0.029587
-0.00181621,0.0251867
-0.0707069,0.00742116
-0.0682478,-0.0159689
-0.0614674,0.0163389
-0.0887846,0.0333192
-0.0426717,0.0232901
0.0233687,0.0278391
0.0375782,-0.0676833
0.040406,-0.0543744
0.0328684,-0.0265797
0.0106026,0.00373179
0.0424075,0.0572821
0.055387,0.0786063
-0.00112827,0.0289113
-0.0875752,-0.0258913
-0.0262281,-0.0296152
0.0392279,-0.01059
0.0179548,-0.0218585
0.00694546,-0.0281755
0.00800584,-0.023479
0.0477491,-0.00618603
0.0468922,0.0210167
0.0083303,0.0191489
0.0359279,0.0542148
0.0962363,0.0339574
0.0394901,-0.0572819
-0.10765,-0.0159264
-0.153669,0.0339344
-0.0810522,-0.00420648
-0.0418531,-0.0201773
0.0042629,0.0167126
0.109384,0.0279655
0.0761765,0.00810545
0.00596382,-0.0331368
-0.061749,-0.0365699
-0.0450507,-0.0190618
-0.00517034,-0.00161714
0.00627152,-0.00943861
-0.0219328,-0.00302376
-0.0305131,0.0169791
-0.0132188,0.0132992
0.00715091,0.0105074
0.0175078,-0.00614445
0.00634179,-0.0403086
0.00559251,-0.0117746
0.035605,0.0379089
0.0497116,0.0428585
0.0350021,0.0387328
0.00146595,0.0367791
-0.0527796,-0.0113905
-0.0892856,-0.0400834
-0.0199504,-0.0281483
0.0233413,-0.021603
0.0119722,-0.0129573
0.00468151,0.0219626
-0.00255705,0.0572707
0.0107675,0.0451182
0.0179726,-0.0278205
0.0229074,-0.0485302
0.0182309,0.00295141
-0.0020394,0.0360845
0.00919324,0.0269113
-0.0255291,-0.0188923
-0.0437094,-0.0321801
0.0212484,0.00433063
0.0411873,-0.00587051
0.00625204,-0.0204685
-0.0397406,-0.00729321
-0.0414026,-0.0124759
-0.0545273,0.0643812
-0.0332025,0.0623929
0.109261,-0.0814592
0.150966,-0.0675911
0.069061,-0.0216599
-0.0570536,0.00859628
-0.0962136,0.0122991
0.00177584,0.0060549
0.00782481,0.0112413
-0.0379794,0.0283874
0.0213021,0.0276066
0.0200478,0.00438575
-0.0436377,0.0172924
-0.00241465,0.0224177
0.0163439,-0.00539652
-0.0450136,-0.0229931
-0.0261948,-0.0757683
-0.0194448,-0.0186872
-0.0324362,-0.00869044
-0.00606857,0.0653026
0.0384399,0.0860078
0.0282154,0.0198591
-0.00561525,0.0369097
-0.0243008,-0.0277019
-0.0159734,-0.0297912
0.0198652,-0.0900844
0.0399116,-0.0372105
0.0380409,0.0132149
0.0499785,0.0212089
0.0650494,0.0122614
0.0048664,0.0371233
-0.0564102,0.0306417
-0.0469983,-0.0697798
-0.0113034,-0.0817868
0.0353948,-0.0100822
-0.00767957,0.0495747
-0.0798116,0.0447401
-0.0276451,0.00546845
0.0128233,-0.00762468
0.00941636,-0.0237528
-0.014,-0.00555683
-0.0295795,-0.002178
-0.0317571,0.0121668
-0.0371675,0.0559267
0.00919727,0.0140538
0.0732314,0.0143311
0.0726516,0.0389877
0.0552162,0.0021987
0.0434082,0.00038547
0.0452137,-0.00398096
0.00714511,-0.0590416
-0.0529229,-0.0275409
-0.0594468,0.0122058
-0.0230275,-0.0266935
-0.00843894,-0.0303858
-0.0181748,-0.0216353
-0.0422386,-0.00572685
-0.0722369,-0.0169299
-0.0750031,-0.00790823
-0.0587995,0.0182035
0.0126662,0.0404177
0.109222,0.0225216
0.0974262,-0.0413697
0.0488045,-0.0405349
0.009028,0.00406853
-0.0185493,0.0183058
-0.00997841,0.0548014
0.0315472,0.0219329
0.036578,-0.0285745
0.0198074,-0.029281
-0.0320393,-0.0168907
-0.00683966,0.00909826
0.0500037,0.0316755
0.0753045,0.0238514
0.0347201,0.0077649
-0.0443311,0.0217715
-0.0665941,-0.00198447
-0.0762047,-0.0262885
-0.0600385,-0.0267688
0.00483163,0.00790168
0.0991198,-0.00547178
0.0701698,-0.0199015
-0.0254011,-0.000328614
-0.085921,0.00383947
-0.0720109,0.007161
-0.0248621,0.0202983
0.00676366,0.0125829
0.0289917,0.00140649
0.0424485,0.00848506
0.0485142,0.0122929
0.0161293,0.0145302
-0.0174247,-0.00423241
0.020301,-0.0175124
0.0142917,-0.0145468
-0.0326632,0.00257247
-0.0444119,-0.0109318
-0.0230492,-0.0141526
0.0256868,-0.00312537
0.0293654,0.0108378
-0.050035,0.0226684
-0.0604025,0.0370452
-0.0603823,0.0450888
0.00835274,-0.0400032
0.0611812,-0.0467268
0.0488161,0.0419633
0.0424638,0.0146649
0.0375625,-0.0631023
0.0164132,-0.0234171
0.0287725,-0.0179442
0.010964,-0.00224112
-0.0537112,0.0166691
-0.134617,0.0173915
-0.198299,0.0322316
-0.059311,0.00974357
0.00418518,0.0110596
-0.00797383,0.011209
0.0789156,-0.0324288
0.0950212,-0.0423559
0.0677921,-0.0252843
0.0380334,-0.00562322
-0.010614,-0.0154797
-0.0243303,-0.0134786
0.0185065,0.0197211
0.0258087,0.0526951
0.0250301,0.000310871
0.0267788,-0.023702
0.080405,0.00729922
0.146307,0.00961265
0.110629,0.0182014
0.0571708,0.0397041
-0.00172007,-0.0540169
-0.0856529,-0.0375638
-0.096809,-0.0219514
-0.10442,-0.021462
-0.0881583,-0.0138409
-0.0638814,0.0149586
-0.035245,0.0280864
0.00507563,0.0169166
0.00878077,0.00973395
-0.00438371,-5.24e-05
0.0109974,0.00129321
0.0176414,0.0349299
-0.000219488,0.0297884
0.010398,0.0284299
0.0377066,-0.0163256
-0.00294343,0.0288447
-0.0173626,0.038931
0.0173229,-0.04414
-0.00898535,-0.0621074
-0.0233137,-0.0516206
-0.0131056,0.000612203
-0.0683239,-0.000436386
-0.162868,0.0125914
-0.0789467,0.0192502
0.12483,0.0520167
0.135172,-0.0199432
0.0835564,-0.0490384
0.0336876,-0.0338526
0.020724,-0.0278889
0.0159548,0.028684
0.00571074,0.0286004
0.00192525,-0.0150922
-0.0117363,0.00585824
-0.038112,0.0228888
-0.0364632,0.00782585
-0.0409889,0.011297
-0.0172111,0.0772815
0.0457701,-0.039473
0.0562376,-0.0965974
0.0256296,0.00858979
0.0300043,0.015578
0.0149543,0.0044551
0.0266958,0.0286081
-0.00190828,0.0190797
-0.0397436,-0.0182969
-0.0638501,-0.0311758
-0.0466233,0.0242469
-0.0438469,0.0224191
-0.065204,-0.00361532
-0.0128095,0.0106364
0.0535049,0.0129538
0.0251072,-0.0188392
0.0083766,-0.0257307
0.0542522,0.00650469
0.0387234,0.00383068
0.00183462,0.0108871
-0.00897002,0.0311287
-0.0104391,0.0120269
-0.00523327,-0.00833118
0.0153585,-0.0100405
0.0309544,-0.0239757
0.00141345,-0.0364757
-0.0285138,-0.0284835
-0.0131267,-0.0150446
-0.0240932,0.0140496
-0.0400138,0.014263
0.000804447,0.0025404
-0.000134815,0.0205823
0.0120188,-0.00742496
0.0298784,-0.0261338
0.0302973,0.0225379
0.0419741,0.0266448
0.0526445,0.0271055
0.0487574,-0.00846805
0.00141638,-0.0158803
-0.0371443,0.0558477
-0.0863695,-0.0311274
-0.0819167,-0.00939623
-0.0484384,0.0280708
-0.0291678,-0.00947674
-0.0269899,-0.0168561
0.0122141,-0.0570618
0.0186034,0.0203412
0.0310601,0.0588737
0.0617216,0.037288
0.0170511,0.0325021
-0.0596417,-0.0323118
-0.0444591,-0.0560046
-0.0250531,-0.0109781
0.00331885,0.0195695
0.0441773,0.00701649
0.0614704,0.00112934
0.0347464,-0.00230743
-0.0107625,-0.0229908
-0.0276214,-0.0429859
0.00858676,-0.0301467
-4.93e-05,-0.00154314
-0.0331206,0.00806803
-0.0138592,0.029621
-0.00115409,0.0468942
-0.0294996,-0.0247291
-0.0203318,-0.0407135
-0.0195133,-0.0282717
0.0143745,-0.00906386
0.0399074,0.0269567
0.0673435,0.010419
0.0339688,-0.0192332
-0.0436337,0.0200492
-0.0118902,0.0418115
0.0272082,0.0358055
0.058266,-0.0450406
0.00877124,-0.0676019
-0.0152169,-0.0057747
-0.0440596,0.0439169
0.00991068,0.0377505
0.0671366,0.00666281
0.0524866,-0.0129631
0.0285037,-0.0159998
0.0280294,-0.0284389
-0.00426396,0.00444736
-0.0366838,0.0478709
-0.0541036,0.030027
-0.0447921,0.0500584
0.0224725,0.131048
0.0643315,-0.00987768
-0.00819086,-0.111032
-0.0668686,-0.0502395
-0.0622716,-0.0253604
-0.0162596,-0.0228294
-0.0337923,-0.0177254
-0.0445281,-0.00190352
-0.0151956,0.00815667
0.00576033,0.0139583
-0.0042148,0.00300626
0.000749726,-0.0119547
0.0124172,-0.0292997
0.00750677,0.00989257
0.0109366,0.0305553
-0.0317312,-0.00144534
-0.033291,-0.0176688
-0.000264037,0.00442779
0.0459224,0.0178723
0.0545304,-0.0095083
0.051652,-0.0342432
0.0436648,-0.0286307
0.0235268,-0.018912
0.00194923,0.000264023
-0.0188229,0.0194173
0.0070092,0.0313473
-0.00127445,0.00720247
-0.0937567,0.00487236
-0.0692453,0.0103961
0.0488286,-0.0193822
0.0896961,0.00189591
-0.0341509,0.0227376
-0.149914,0.0664018
-0.141383,0.037985
-0.0984318,0.0556889
0.0360408,0.0594866
0.148776,-0.014069
0.102993,-0.0448888
0.0965627,-0.103014
0.0878064,-0.0381546
0.0209662,0.00573867
-0.0609133,0.00235473
-0.0671381,-0.0194947
0.000464302,-0.04509
0.0463313,0.0103338
0.0598559,0.0110279
0.0631795,0.00171314
0.0499582,-0.00560171
0.0445355,-0.00394142
0.021567,0.000184797
-0.0254194,0.00608326
-0.0555583,5.06e-05
-0.0581284,-0.0177512
-0.0696233,-0.0162411
-0.0497171,0.00119104
-0.00370428,0.0264471
0.0120045,0.023788
-0.00732159,0.000389
-0.0391583,-0.00840999
-0.0269168,0.0144941
0.00192646,0.0163669
0.00868273,-0.0104327
-0.0113311,-0.0426515
-0.0109331,-0.0256152
0.0111702,-0.00736997
0.0385437,-0.000379814
0.0187005,0.00393583
-0.0134506,-0.00573588
0.00475414,-0.0192418
0.0519903,-0.0151013
0.0599501,-0.00665257
0.0302775,-0.0118305
-0.00439308,-0.0111558
-0.0365669,-0.000895822
-0.0486727,0.0143093
-0.02937,0.0175127
0.0272254,0.0203923
0.0260649,0.040607
-0.0131098,0.0897678
-0.080998,0.0292075
-0.098799,-0.00470032
0.030814,-0.00568845
0.100817,-0.0475848
0.00802649,-0.0124866
-0.0415727,0.0234556
0.0300232,-0.00463596
0.0268413,0.00238563
-0.0437216,0.0415313
-0.0843813,0.0503047
-0.0884254,0.0430625
-0.0247856,0.00192921
-0.00123245,-0.0484806
0.011937,-0.0304518
0.0353209,0.0130558
0.0361654,0.0165548
0.0395498,-0.034739
0.0511779,-0.0114125
0.0424859,-0.027165
0.020393,-0.0300057
0.0269096,0.0107245
0.031269,0.0799366
-0.00663903,0.0242806
-0.0539393,-0.0894549
-0.0575685,-0.040412
-0.0350061,0.0139932
-0.0223413,0.0126424
-0.017363,-0.00018169
0.0187989,0.0453056
0.0437651,0.0051323
-0.0329159,-0.0202809
-0.0196959,-0.00951018
0.0742367,-0.022942
0.035016,-0.025631
-0.0172935,-0.00480572
-0.0106198,0.00818915
-0.0234025,0.00699835
-0.0129791,0.00525496
0.00388028,-0.00483207
0.0405385,-0.0160203
0.0707003,-0.0103257
0.0487892,-0.00151424
0.0175969,-0.0136202
-0.0035792,-0.0396013
-0.0400031,-0.0257395
-0.041985,0.00504479
-0.0561827,0.0107813
-0.0343002,0.0238538
-0.0044281,0.0135954
0.0114431,-0.0292768
0.0200282,-0.0206719
0.0340951,0.0362268
0.0441264,0.00972069
0.00681987,-0.0258929
-0.0691061,-0.0270257
-0.0316128,0.00704891
0.0582915,0.0176127
0.0495544,0.00612828
-0.0176635,0.0461036
-0.0337695,0.0344238
-0.0296641,0.0615452
-0.00865001,0.0176546
-0.0115262,-0.0278769
0.000155043,-0.0360962
0.0481834,-0.00578702
0.0523471,0.0189911
0.0113826,-0.0368984
-0.0231922,-0.0366515
-0.0491373,0.0122327
-0.052361,0.0173093
-0.00723799,0.0179459
0.00885678,-0.0235495
0.0146693,-0.00284191
0.0230568,0.0439744
0.0259094,0.00714391
-0.0271173,0.00957471
-0.0388321,0.0217003
-0.0246989,-0.0247211
0.00411542,-0.045823
0.0244066,-0.0100141
0.0301419,9.01e-05
0.0303461,0.0102301
0.015123,-0.0019387
-0.00365951,-0.0141576
-0.00652136,-0.00334815
-0.0121725,0.0176055
0.00576676,0.000755961
-0.0125311,0.00431164
-0.0543702,0.0193533
-0.0453408,0.0128592
-0.00672546,-0.0118942
0.0197195,-0.0116109
0.0382433,0.0277782
0.031339,-0.0429505
-0.0023439,-0.0213374
0.00110948,0.0191879
0.0314314,0.043692
0.0721959,0.0379162
0.0837112,-0.0374021
0.0195489,-0.0605729
-0.0523665,-0.0197972
-0.0872708,0.00214315
-0.0593535,0.00291988
-0.0365496,0.0223518
-0.0216903,0.0149554
-0.0160859,0.0169868
-0.00469789,0.037774
-0.00950666,0.0512806
-0.0206712,0.0442233
-0.00584672,0.0115122
-0.00398902,-0.067841
0.000504049,-0.0499898
0.0221851,-0.0203637
0.0476924,0.00737301
0.0674796,-0.00921285
0.0403658,0.00421948
-0.0249319,0.0527599
-0.0604954,-0.00875725
-0.0716044,-0.0558544
-0.0254445,-0.0290112
0.0585458,-0.00925756
0.0640647,-0.00479648
0.049334,-0.0058444
0.0351875,0.000854946
0.00204396,0.0132429
-0.014032,-0.0162569
-0.0430955,-0.0246316
-0.0272962,-0.013211
-0.0257907,0.00956584
-0.0491277,0.0176346
-0.00235119,0.0064356
0.0497942,-0.00296599
0.0409807,-0.00254355
0.0258104,0.00712522
0.0333972,0.0131106
0.0478142,0.015588
0.0177939,0.0444893
0.00131226,0.0332956
0.00840576,-0.00273716
0.00698035,-0.00499132
-0.0591351,-0.0056588
-0.0740391,-0.0171879
-0.0707275,-0.00113021
-0.0411385,-0.0227793
-0.0277302,-0.000962019
0.000448503,0.0431436
0.0376938,-0.0232587
0.0372591,-0.0147409
0.00579523,-0.00585202
-0.0194801,-0.0354736
-0.0163758,-0.0273619
0.00789707,-0.0278548
0.0142921,0.00257542
0.00803509,0.0605015
0.00250044,0.0686855
0.0109437,-0.00142937
-0.00316348,-0.0158829
-0.015527,0.00219587
-0.00934687,0.000898895
0.00370988,-0.00196827
0.00448184,-0.0178224
0.00340662,0.00117335
0.0391751,0.0171736
0.104297,0.0067175
0.0631486,-0.0205575
-0.0106055,-0.0351509
-0.0367965,-0.014947
-0.0118149,-0.00285149
-0.013259,0.0123273
-0.019034,0.00871905
-0.0420855,0.00433317
-0.0419477,0.00974114
-0.0183487,0.00700655
-0.00433914,-0.000398732
-0.0122247,-0.00482636
0.00365686,-0.0120742
0.0123616,-0.0169218
0.00299942,-0.00791073
0.000906493,0.00900442
0.0121512,0.0122667
0.0030568,0.00217615
-0.0111829,-0.00259097
-0.01434,0.00239015
-0.0225064,0.00805779
-0.0136375,-0.00424932
0.0195425,0.0206204
0.000990642,-0.000701737
-0.041973,-0.000371274
-0.0387185,0.0298377
-0.0173139,0.0154262
0.0146868,-0.0185099
0.0556105,-0.0115545
0.0401167,0.00722233
0.0446187,0.00996522
0.0524535,-0.0243987
0.0157145,0.0083971
-0.0230133,0.033101
0.00844351,0.0892245
-0.0121543,0.0174327
0.0256127,-0.156148
0.053267,-0.0836214
0.0412499,-0.0109794
0.00131972,-0.00462143
-0.0648939,-0.000833295
-0.0715512,0.0362238
-0.00974703,0.0361001
-0.0154371,-0.00697177
-0.0617928,-0.0174059
-0.0213639,0.0279342
0.0112307,0.00970424
0.00430684,-0.00510371
0.0257693,0.00570008
0.0297614,0.0164633
0.0147652,-0.00318566
0.019382,0.00169657
-0.0240374,0.00360081
-0.0215652,-0.00134845
-0.00492313,0.000853089
0.00184888,0.00278916
0.0336067,-0.0113657
0.0447152,0.000207929
0.0434661,0.0158898
0.0191781,0.0115923
-0.00489177,-0.00657837
-0.0562544,-0.0094022
-0.0575035,-0.0234033
-0.0176201,-0.037591
0.0305416,-0.0308988
0.0077705,0.00904247
-0.0514827,0.0206465
-0.0599365,-0.0155755
-0.0250998,0.00797879
-0.0687809,0.00682828
-0.0428601,0.019258
0.033729,0.0175755
0.0642259,-0.000593987
0.0840407,0.00819337
0.0432828,0.0579838
0.0405346,-0.0037415
0.0260943,-0.0457075
0.0146023,-0.0323648
0.0097515,-0.00668142
-0.00565112,-0.0175581
-0.00714365,-0.00555819
-0.00682838,0.0255563
-0.00144198,0.00575959
-0.0132377,0.000687654
-0.0151887,-0.00309645
-0.00860051,0.00539959
-0.00781014,0.0402295
-0.00659291,0.0549212
-0.00590048,-0.0110519
-0.0075122,-0.043197
-0.00708357,0.0151851
0.0117408,-0.00586733
0.00357811,-0.00943344
-0.0201437,0.0212328
-0.0119416,0.00841168
0.00927488,-0.00923542
0.00792105,-0.0222664
0.00704206,-0.0332739
-0.0113876,-0.00698646
0.000794896,0.0124872
0.0100621,-0.0113632
0.00500225,-0.0190396
0.00093592,-0.00875178
-0.00585685,0.00022404
-0.0128036,-0.00150579
-0.0198924,0.00685437
-0.0189624,0.00819861
-0.0110981,0.0238783
0.0307673,0.0281399
0.0342896,0.0394622
0.00612167,0.0199529
-0.00928416,-0.0214754
-0.00783684,-0.0146919
0.00204336,0.00199049
-0.00760172,-0.0149458
-0.041858,-0.012828
-0.048697,0.00439907
0.0195026,-0.011922
0.0989918,-0.0225592
0.13943,-0.0213798
0.0648379,-0.018831
-0.113043,-0.00648051
-0.137123,0.0278715
-0.0488989,0.0420864
-0.0322437,0.0220232
-0.026426,0.0285837
0.0217658,-0.0342814
0.0681619,-0.00770859
0.0151217,-0.0118468
-0.037793,-0.0135291
5.95e-05,0.00744218
0.00130007,0.0584572
-0.00149982,0.0197924
0.00465922,-0.0282561
-0.00131769,-0.0178697
0.00699968,-0.0159003
-0.00306181,0.0183982
0.00652837,-0.000319878
0.00832987,-0.0415526
0.0105813,-0.0504084
0.00543285,-0.0244088
0.0215097,-0.00573162
0.0543174,-0.00606735
0.0650851,-0.00809837
0.0462728,0.0377542
0.00117604,0.0830086
-0.0334357,0.0190948
-0.0257521,-0.0115385
-0.0188598,0.0456628
0.00953318,0.0390447
-0.0210922,0.0141531
-0.125286,-0.0150078
-0.0642855,-0.051574
0.0151914,-0.00869794
0.0299408,-0.0219844
0.0239158,-0.0133821
-0.000122846,0.0253177
-0.0108416,0.00103205
0.0276041,-0.0410288
0.0292513,-0.0295745
-0.022498,-0.0267554
-0.0138332,-0.0213332
0.0119577,0.007283
0.044378,0.0107253
0.0502749,0.0272157
0.0414128,0.0308107
0.0240368,0.0302048
-0.0252216,0.021474
-0.043775,-0.0295222
-0.00338122,-0.0348009
0.010546,-0.00150491
0.00195256,0.0114696
0.0037866,-0.0071952
-0.00602946,0.0115018
-0.0053658,0.011518
-0.00443969,0.00729443
-0.0036685,-0.0217789
-0.0108932,-0.045167
-0.0579611,-0.00775537
-0.00780809,0.00810895
0.0235757,0.0159355
-0.00534553,0.040607
-0.0374253,0.0255963
-0.0212588,-0.00307735
0.0111632,-0.0237403
-0.0132513,0.0115674
-0.0239859,0.013708
-0.0265728,0.00730166
-0.0179836,0.000623891
0.00781138,-0.00929251
0.0350873,-0.0485542
0.0194116,-0.0243178
0.0115438,-0.0236721
0.0159905,-0.0259002
0.0380321,0.00999217
0.0789837,0.0453906
0.0249902,0.00488104
-0.0382703,-0.00306512
-0.012232,0.00899424
0.0233116,0.0230836
0.0171062,0.0408081
-0.00593986,0.0210172
-0.04637,0.00502524
-0.0291905,-0.0355645
0.000299061,-0.0321196
-0.0127356,-0.00461302
-0.0258344,0.00496571
-0.00172809,0.0107279
0.00308324,-0.0175929
0.0124333,-0.0413307
0.0252709,-0.0236228
0.0139887,-0.000285159
0.0155891,0.00586437
0.0429568,0.0098093
0.0196216,0.0227274
-0.0211347,0.0389286
-0.0687926,0.0323732
-0.145772,0.00513857
-0.122555,-0.00380769
-0.0495437,0.0147225
0.0128496,-0.00281831
0.0678638,-0.00345325
0.0938524,0.0288548
0.0450403,0.0100794
0.0343326,-0.0553179
0.0668855,-0.0468386
0.0476569,0.0126857
0.0345818,0.0568802
0.0174483,-0.000708027
-0.0136045,-0.03829
-0.00468008,-0.026584
0.00288493,-0.00269112
-0.00309856,0.0106058
-0.00207577,0.00228371
-0.0252581,0.0150697
-0.0295789,0.0200106
-0.0188525,-0.0138712
-0.0227756,-0.0329768
0.00824749,-0.0162202
0.0551699,-0.00336261
0.057784,0.0128039
0.0240813,0.0155993
-0.00701206,0.0131988
-0.0698046,0.00508366
-0.0825699,0.0193288
-0.0207624,-0.0212482
0.000294099,-0.0272535
-0.028632,-0.00288085
-0.0265958,-0.00887972
0.0279877,0.0229378
0.0618409,-0.0190141
0.0473205,-0.0204237
-0.00792227,0.0282019
-0.0274809,0.0285722
-0.0129829,-0.00953514
0.00391111,-0.020895
-0.0221813,-0.0325777
-0.0261392,0.022123
0.00234535,0.075207
-0.0178346,0.00776091
-0.00492544,-0.0503659
0.0166757,-0.0514299
0.00625597,0.00272993
0.0155643,0.00305586
0.0223116,-0.00149686
0.027921,0.0553302
0.0254541,0.0294491
0.036261,-0.0228931
0.00375082,0.00492635
-0.0438649,-0.00836129
-0.0328763,-0.00127149
-0.024935,0.0341454
-0.0223495,0.032892
-0.0169241,0.00393762
0.00456533,-0.0200011
0.0155192,-0.0366579
0.0372913,-0.0118741
0.0246253,-0.0063052
-0.00790825,-0.0106116
-0.00218272,-0.00873325
0.0120927,-0.0030964
0.0112267,0.0135939
0.00209572,0.0283411
-0.0128538,0.0115091
-0.00658202,0.0389434
0.00726606,0.0622022
0.010874,-0.0213941
-0.00740993,-0.0742142
-0.0279012,-0.0367456
-0.0326771,-0.0104247
-0.043746,0.00767995
-0.0594708,0.0159956
-0.0199878,0.00654124
0.0297713,-0.0199188
0.0421591,-0.0204261
0.03615,-0.0104328
0.0174012,-0.0163513
0.0206335,-0.00614621
0.0142559,-0.00557645
0.000575601,-0.00910245
-0.0105462,0.0109911
-0.0211099,0.0153333
0.0085419,0.0119609
0.0379526,0.00801654
0.0277464,-0.00877834
0.0243774,-0.0124861
-0.00471467,-0.00536373
-0.00847856,0.00745539
-0.00509159,0.00946988
-0.032387,0.00453864
-0.0262049,0.0151632
-0.00608794,0.0190215
-0.00609324,0.00478005
0.00848474,-0.0247878
0.023655,-0.0243876
0.0336456,0.0162697
0.0482495,-0.00626805
0.0251986,-0.0176164
-0.00248668,0.0230015
-0.0331489,0.00991098
-0.0566821,-0.00114117
-0.0254926,-0.0196473
0.00260674,-0.0177026
0.0035524,0.0404631
-0.00546545,0.031438
-0.0246078,0.00683246
-0.00460385,-0.00656081
0.00200604,-0.00799817
-0.0132258,0.0275999
-0.00845616,-0.031649
-0.00214317,-0.0368451
-0.0158174,-0.0207496
-0.0301814,-0.00160127
-0.0130378,0.00786784
0.0273465,0.00857987
0.0479674,0.00953483
0.0447034,-0.0148404
0.0124146,0.02993
-0.045876,0.0266843
-0.0725129,0.0212983
-0.011114,0.00954412
0.0418285,-0.0287479
0.0419479,-0.0111689
-0.00127076,0.0323195
-0.00393474,-0.0204457
0.0643228,-0.0447048
0.0794974,-0.00805656
-0.0367543,0.033095
-0.133892,0.0456388
-0.144655,0.025854
-0.056041,-0.00314579
0.00708991,-0.0392629
-0.0303313,-0.0470975
0.0174229,-0.0324502
0.0988963,-0.00713625
0.144493,0.00740272
0.113719,0.0117612
0.0466267,0.0294016
0.0318812,0.0227041
0.00533832,0.00272551
-0.0250426,0.00342749
-0.0377819,-0.031663
-0.0337613,-0.0245095
-0.0232477,0.0104428
-0.0125295,0.0064725
-0.00612136,-0.00735982
0.00275827,-7.31e-05
0.00432172,-0.000240292
0.00488012,0.000273124
0.00504948,0.00241446
0.00300434,-0.0123211
-0.00197194,-0.00663241
-0.00466894,0.00345588
-0.0112472,0.00609122
-0.0107396,0.0163436
-1.37e-05,0.0135474
0.00203098,-0.00506349
-0.0147543,0.0112534
-0.0301291,0.0250767
-0.0178136,0.00685641
0.0308692,-0.0238423
0.0127121,-0.0434945
-0.0300413,-0.0222341
0.013584,0.0217457
0.0515945,0.0184257
0.0412578,0.0117986
-0.00527057,0.0126619
-0.0919812,0.00203046
-0.109536,-0.0012486
-0.0582323,0.0108177
-0.0512918,0.0447651
-0.0295228,0.0563949
0.0524249,-0.0270063
0.0960196,-0.0782805
0.0498808,-0.0631948
0.00400388,-0.0220532
-0.000806596,-0.0142701
-0.00797219,-0.00317477
0.0166467,0.0300607
0.0296424,0.0348329
0.0275981,0.0183308
0.0107612,0.0132811
-0.0245764,0.00551324
-0.0113332,-0.0175006
0.0326288,-0.0214728
0.0389889,-0.0175886
0.0132912,-0.000392195
-0.0179571,0.0114838
0.00342424,0.0199091
0.023266,0.00705102
-0.00416313,-0.00166913
-0.0357022,0.00134383
-0.0259441,-0.0138746
-0.0204224,-0.0145153
-0.0203002,0.00424743
-0.0141577,0.0321134
0.00228404,0.0278588
0.0199311,0.00771287
0.0048295,-0.0337792
-0.008682,-0.0332577
0.0181386,-0.0236674
0.0209206,-0.0112887
-0.0310316,-0.00924304
-0.0592252,0.0194251
-0.033057,0.0386689
-0.0166401,0.0278518
0.00960146,0.00493285
0.0460299,0.0168467
0.0361267,-0.000615
0.0288122,-0.059369
0.054307,-0.0236661
0.0317183,0.0236113
-0.0418997,0.0337178
-0.0408495,0.0197047
0.035957,-0.0223784
0.03702,-0.0192117
-0.0204743,-0.0084488
-0.0334237,-0.0240732
-0.0237792,-0.0168943
0.0293047,0.013321
0.0290343,0.0257788
0.0364851,0.0379643
0.0120928,0.025215
-0.0704781,0.0297752
-0.0791963,-0.000642895
-0.0424071,-0.0237409
-0.0485403,-0.0197118
-0.00957288,-0.00958319
0.0473951,0.00766377
0.0409497,0.000130286
0.0221599,-0.0172357
0.0156973,-0.0108471
-0.00351713,-0.0126098
-0.0167779,-0.0102076
-0.00591261,-0.00655661
-0.00471094,-0.00264786
-0.0159628,-0.00324174
-0.0285775,0.0272239
-0.0204744,0.0313801
-0.0224311,0.0150741
-0.0313725,-0.00457326
-0.0112712,-0.0222393
0.0113608,-0.00574346
0.0547267,0.0211639
0.0532393,0.00910635
0.0358617,0.0241558
0.0146335,-0.0118447
-0.011797,-0.0249765
0.015729,0.0141028
0.089216,-0.00736332
0.0524758,-0.0421553
-0.0258891,-0.040398
-0.00897872,-0.0358194
0.0201221,-0.0309535
0.00865458,0.00569525
0.0154057,0.0252121
0.0247515,0.0169408
0.0134094,0.00289109
-0.00290309,-0.00200806
-0.0146159,-0.00938726
-0.0470069,0.0169181
-0.0547437,0.0282054
-0.0271886,0.018813
-0.0158248,-0.00116894
-0.0331851,-0.010448
-0.0254664,-0.00520805
-0.0116629,-0.00575964
-0.0029363,-0.00397128
0.00936525,0.00387438
0.00499634,0.00879051
-0.0190923,0.0268811
-0.0294988,0.030224
-0.0172199,0.0109307
0.00740836,-0.00590656
0.0475853,-0.00680306
0.116029,-0.00385226
0.122684,-0.00641001
-0.0491815,-0.000171309
-0.0827288,0.00103819
-0.0127782,-0.012042
0.0147941,-0.00621302
-0.0168863,0.0320345
-0.0599204,-0.000667044
-0.087703,-0.0198689
-0.0548564,0.01399
-0.0244846,0.012411
-0.0404133,-0.0250165
-0.0183644,-0.00261152
0.0314046,0.0130894
0.0769856,-0.015113
0.0675441,-0.00449043
0.0313009,0.0413278
0.023406,0.0282335
0.0219735,-0.0378357
0.000165823,-0.0306947
-0.0378009,0.00246843
-0.0329299,-0.0023705
-0.0111988,-0.00819046
-0.0158758,0.00531134
0.0196779,0.016144
0.0460722,-0.0296275
0.04829,-0.0174133
0.0330506,0.00636927
0.00907486,0.00180752
-0.00367446,0.00693472
0.00440925,0.0120955
0.00570737,-0.00443518
-0.025452,-0.00918871
-0.0341745,-0.0103654
-0.0165852,-0.0212731
-0.00653212,-0.0222265
-0.00185939,0.019592
0.00958134,0.0417018
0.0012611,0.00536681
0.00685118,-0.0124375
0.00376962,0.00122985
-0.00420959,-0.000166329
0.0147154,-0.00750785
0.0266132,2.24e-05
7.95e-05,0.0231883
-0.019657,-0.0158891
-0.0191067,-0.00651135
-0.0128875,0.010289
-0.0164702,0.00462572
-0.0123273,0.00329145
0.0204276,-0.00695817
0.01592,-0.0176209
-0.0137984,-0.00361172
0.0101234,0.0164697
0.0165274,0.011832
-0.0158605,0.0039738
-0.03551,0.0595793
-0.0267033,0.0267611
-0.0316798,-0.0396839
-0.032649,-0.0248434
-0.0202126,-0.00299485
-0.0205641,0.00301959
0.00992773,0.00477266
0.0305056,0.000262105
0.0587008,-0.00471091
0.0508736,-0.00567361
0.039338,-0.0068895
0.0419586,-0.00499033
0.0163501,0.00385317
0.0212638,-0.0783793
0.012701,-0.0289919
-0.0078523,0.019116
-0.0227126,0.0257527
-0.043863,0.0363716
-0.0216353,0.00030517
0.00587246,-0.0195235
0.00648877,0.0132537
-0.0338558,0.046614
-0.0284707,0.0215513
0.00879299,0.00335937
0.00576497,0.00257911
-0.0345701,0.0253973
-0.0587764,-0.00664712
-0.00463295,-0.0306976
0.0400405,-0.0305099
-0.0104703,-0.0273916
-0.0527016,-0.00491167
0.0279415,0.0142487
0.0734657,-0.0128365
0.0498111,-0.0286517
0.0434068,0.000772349
0.0424493,-0.0208116
0.0157327,-0.0322708
-0.022969,-0.0151518
-0.0252318,0.0080715
-0.0160111,0.0216633
-0.0231513,0.028442
-0.0164484,0.0213864
-0.0167616,0.0126447
-0.0320251,0.00617476
-0.0444587,-0.00950036
-0.0443537,-0.0109924
-0.00616338,-0.00607043
0.0411531,0.00894866
0.0335523,0.0254454
0.00589939,0.0304861
-0.0202958,0.0365246
0.000422414,0.0118707
0.0365793,-0.000352425
0.0663528,-0.0354601
0.0521528,-0.0125106
0.0443283,0.000995533
0.0384225,0.0364942
0.0144003,0.063187
-0.0160014,0.0171622
-0.0372408,-0.0976043
-0.0427545,-0.0267028
-0.0655091,-0.000845267
-0.0282526,-0.0157837
-0.0253587,-0.0295684
0.00464114,0.0359283
-0.00330755,0.0593887
-0.00289342,-0.04062
-0.000772914,-0.0533546
-0.0207308,0.00690129
-0.0202227,0.0118032
-0.0149886,-0.00508956
0.00922774,-0.00792762
-0.00604915,-0.00291965
-0.00231523,0.0419742
0.0296286,0.0332685
0.0310819,0.000614632
0.00186507,-0.0320511
-0.022229,-0.0513641
0.00306363,-0.0212919
0.00672221,-0.0108326
0.00379123,0.0110149
0.0240486,0.0387994
0.0784264,0.0139054
0.0507275,0.00274364
-0.00123998,-0.0132056
0.0438115,-0.00642874
0.0246179,0.000556832
-0.0342572,0.0287311
-0.0471521,0.0195036
-0.076562,-0.008641
-0.0619319,0.0053736
-0.0342167,-0.00922686
-0.0509919,-0.0160842
-0.0681977,-0.0408497
-0.00609069,-0.0295735
0.0274784,-0.0269596
0.028056,-0.0193401
0.0190489,0.034874
0.0321379,0.0368472
0.0497648,0.0179582
0.0505237,0.0131106
0.042124,0.0103775
0.0238513,0.00922659
-0.00689495,0.00769231
-0.0146109,0.0217835
-0.00448377,0.067951
0.0065707,-0.026508
-0.012147,-0.0335053
-0.0390769,0.00561779
-0.0386723,-0.00304743
-0.0214381,0.0035398
-0.0224854,0.0481202
-0.0181212,-0.0255592
0.000958709,-0.0967054
0.0153499,-0.0255788
0.0428196,-0.00183092
0.0588959,0.000122356
0.04448,0.00366361
0.0214653,0.0154874
-0.0138673,0.00525095
-0.0526005,-0.00355495
-0.03016,0.00361233
0.00256096,0.00238152
0.00561143,0.0176143
-0.007942,0.0193476
0.00196964,0.000569705
0.00642331,-0.00897666
-0.0125336,-0.00547843
-0.0138986,-0.0219043
0.0154269,0.00755036
0.0629002,0.0167474
0.0267322,0.015202
-0.0455111,0.0134852
-0.0721441,-0.0173911
-0.0418956,0.00907335
0.0193544,0.0126515
0.0511004,0.000841685
0.0417053,0.00749173
-0.0294575,-0.0024916
-0.0255456,-0.0095388
0.0147177,0.000104064
-0.0200556,0.00311333
-0.0280519,-0.00434368
0.0133628,-0.0256326
-0.0508734,-0.0310281
-0.0749086,-0.0198174
0.0120555,-0.0266469
0.0381632,-0.004394
0.0552457,0.0404331
0.0478626,0.0485182
0.0170275,0.0182836
0.00848614,-0.00742821
-0.0269419,0.00397078
-0.0304898,-0.00284584
0.0323253,-0.0296442
0.0271313,-0.0232828
-0.0114377,0.0382094
-0.0433512,0.0352474
-0.0307316,0.00736843
0.0129792,0.00054588
-0.00427903,0.0107879
0.00879208,-0.0109607
0.0571401,-0.0276575
0.0399422,-0.0172027
0.0229604,-0.00118287
-0.0193346,-0.0128579
-0.0205452,-0.0277554
-0.036332,-0.014021
-0.0408713,0.0103063
0.0025242,-0.0514264
0.0196267,-0.0124271
0.0348585,0.0396354
0.0645494,0.00015644
0.0481119,0.00964464
-0.00201027,0.021637
-0.017955,0.0381574
0.0173084,-0.00466443
0.0227437,-0.00295406
0.00292511,-0.0109298
-0.00740684,-0.0172676
-0.0157603,-0.0171591
-0.0556691,-0.00829565
-0.0656482,0.00341802
-0.0265983,0.0575617
-0.012915,0.0404869
-0.0296596,-0.000790556
-0.0200282,-0.0246359
-0.000173881,-0.0244673
-0.0262979,-0.0107005
-0.00977476,-0.0109251
0.0249787,0.0078603
0.03049,0.0349331
0.00831066,0.0195127
-0.000821696,0.0428098
0.0340514,-0.0175494
0.0240534,-0.0291347
-0.0208542,-0.0246533
-0.00230253,-0.0185838
0.00063894,0.0192327
-0.0261979,0.0022622
0.00678545,0.0197297
0.0183574,0.0113293
0.0155022,-0.00552261
0.0258223,-0.0159115
0.0213892,-0.00244604
-0.0017616,0.0153585
-0.0089821,0.0106764
-0.0123926,-0.0349158
-0.0162943,-0.057423
-0.00334845,0.0136761
0.0311609,0.058185
-0.0235917,0.0261059
-0.102541,-0.0226248
-0.0495949,0.0023262
0.0495011,-0.00288866
0.0518869,-0.0252932
0.0310141,0.0186832
0.0209945,-0.0151497
0.013093,-0.0318977
0.0181778,-0.0155944
0.0416626,-0.0160717
0.0252679,0.000130835
0.0140983,-0.00149063
-0.00760242,0.015258
-0.0332436,0.0290095
-0.0238273,0.0110165
0.00269997,-0.0118587
0.00592512,0.0180671
-0.00791018,-0.017011
-0.0387922,-0.00678159
-0.0329348,0.00255135
0.021096,-0.0173399
0.00184729,0.0204283
-0.0369182,0.0021479
-0.0012427,0.010192
0.0150271,5.74e-05
0.0122941,-0.0155077
-0.0102745,-0.0275124
-0.0172756,-0.059018
-0.0152146,0.00480158
0.000728954,0.109
0.00418524,0.0456129
0.0287874,-0.0278007
0.00622562,-0.0198185
-0.00744206,0.000859421
-0.0170803,0.00533639
-0.0107816,0.00474917
0.00809172,0.0183418
0.0254715,0.0466683
0.00787964,0.0302759
0.0330384,-0.00332908
0.0541906,-0.0199423
0.0246254,-0.0404694
-0.00684821,-0.0457299
-0.022917,-0.0449434
-0.0311165,-0.0325572
-0.0443188,0.016856
-0.0486098,0.0149841
-0.0202836,-0.0131945
-0.0101057,0.00245082
0.00474343,0.00896697
0.00715611,0.00531546
-0.0029115,0.00211434
-0.0285522,0.0288081
0.0140939,0.0479011
0.0514458,0.0333352
0.0486039,0.000545637
0.075662,-0.0338209
0.0995236,-0.0171174
0.0624557,0.00258778
-0.0205089,-0.0124152
-0.071655,-0.0298871
-0.0802193,-0.038841
-0.0463971,-0.0104945
-0.0147739,0.0305206
-0.0177466,0.00643927
-0.0370223,-0.0184956
-0.0450393,-0.0029217
-0.0361395,0.0218505
-0.0557625,0.0969869
-0.0624077,0.0645429
-0.0469317,0.0020988
-0.05855,-0.0209935
-0.0087236,-0.0113629
0.0880441,-0.0148248
0.132471,-0.0452107
0.0517813,-0.0315026
0.00946609,-0.00559059
0.0346234,-0.0219373
0.0519585,-0.0116301
0.0448695,-0.0081526
0.0265565,-0.0288629
0.0337098,-0.0299244
0.0551393,0.00292198
0.0435685,-0.000490788
-0.021452,0.0149666
-0.0721902,0.0385722
-0.046092,0.00725726
-0.00632133,0.0279568
-0.00374429,0.0260759
-0.0150261,0.015693
-0.0559353,-0.00284571
-0.0522097,-0.0363366
-0.0125756,-0.0197814
0.0316892,-0.0074072
0.0277381,0.0293855
-0.00383164,0.0394078
0.0111665,-0.0283868
0.0217152,-0.0261377
-0.00522362,-0.00405329
-0.0568121,0.0112901
-0.0325482,0.00136604
-0.00883737,-0.00416082
-0.0605201,0.0150441
-0.0656179,0.0323851
0.0371394,0.0351462
0.0986913,-0.00797254
0.0959448,-0.04584
0.056173,-0.0533136
0.013503,-0.00454393
-0.0172239,0.031717
-0.0398235,0.0149951
-0.0689967,0.00357658
-0.0279995,0.0045606
0.0535721,-0.0249903
0.0642757,-0.028961
0.0366254,0.0180107
0.0148083,0.00231847
-0.0757125,-0.0118649
-0.0967007,-0.000683238
-0.00698199,0.00916904
0.0399252,0.0105819
0.047813,0.00429967
0.0681799,0.0208242
0.0767212,0.00790239
0.0333024,-0.0205455
-0.100404,-0.0264166
-0.164146,0.00550356
-0.0671112,0.0168114
0.0296276,0.00222364
0.0597327,-0.0326049
0.1124,-0.0189943
0.117243,0.0213237
0.0603025,0.0259592
0.00703329,0.0282433
-0.0360556,0.01958
-0.0768777,-0.0652417
-0.152248,-0.0218341
-0.118362,0.00540553
-0.0308889,-0.00404164
0.00103332,0.0047134
0.006897,0.0235686
0.0064859,9.25e-05
-0.000545983,-0.0281375
-0.0201567,0.0182649
-0.0380767,0.0358169
-0.00996697,0.0250587
0.0308223,0.0298215
0.040171,0.0396432
0.0258207,0.00540927
0.0751648,-0.0204688
0.0655003,0.00119888
-0.0185585,-0.0121539
-0.0637252,0.0155833
0.00575941,-0.00179005
0.11434,-0.038679
0.12885,-0.0444431
-0.0481922,-0.0204554
-0.0746017,-0.0145835
-0.00114926,-0.00169086
-0.03121,-0.0140533
-0.0627504,-0.0265741
-0.0228388,0.0280549
0.0138418,0.00255799
-0.00814409,-0.0449855
-0.0302042,0.0107578
-0.0147348,0.0365233
0.0151617,0.00166251
0.0570711,0.00333945
0.0309395,0.00432631
-0.0224917,-0.0115516
0.00535428,-0.000452954
0.0265505,0.0106924
0.0137675,0.0154619
0.0134028,0.000783975
0.0174032,-0.00193131
0.0288337,0.0207921
0.0234247,0.0194454
0.000440168,-0.0236316
-0.0129099,-0.0144017
-0.0105438,0.0232056
-0.0427891,0.0269299
-0.0618054,0.000758142
-0.0481894,-0.0420907
-0.0461312,-0.0173118
-0.0355354,0.00951639
-0.0121428,0.0110767
-0.00289611,0.0152143
-0.0190372,0.0131873
0.00425335,0.00105978
0.0647238,-0.00615124
0.0812327,-0.0109481
0.0541038,-0.0121141
-0.0103771,-0.00237251
-0.039869,-0.00526609
-4.49e-05,-0.00240049
0.0488844,0.00125919
0.0673067,0.00465791
0.0523167,-0.00802295
0.0108604,0.023797
-0.0145767,0.00636877
-0.0254221,-0.0293076
-0.0302119,-0.01854
-0.0417294,0.00432814
-0.0349443,0.00429628
-0.0191839,-0.00780119
0.00403588,0.00507029
0.0109577,0.0329395
0.0198824,0.0360339
-0.00396139,-0.0230904
-0.0261049,-0.0479218
-0.0475912,-0.0199905
-0.04892,-0.00261717
-0.019556,0.0176938
0.0218936,0.0251362
0.0627098,0.0228695
0.04481,0.00649774
0.0133311,-0.0270884
0.0162555,-0.0327245
0.0255193,-0.0239616
-0.00238525,0.00267165
-0.0411982,0.0180476
-0.0302385,0.0177155
-0.0233984,-0.00258103
-0.0097247,0.00414345
-0.029434,0.00768457
-0.0366738,0.0252182
0.0132508,0.0259868
0.031808,0.0227523
0.0259682,-0.00814408
-0.0120974,0.0188646
-0.00163939,-0.00640621
0.00927705,-0.0308922
0.0234065,-0.0244944
0.0223099,-0.033286
0.0312332,0.00264567
0.0486188,-0.00375635
0.0321994,0.0216085
0.0170505,0.0103797
-0.00832874,-0.00671935
-0.0593944,-0.0195161
-0.07153,-0.0200025
-0.0509677,0.0209018
-0.0172171,0.0117091
-0.0110739,-0.00505388
-0.0104916,0.00149944
-0.00948593,0.0202497
0.00166877,0.087004
0.0215893,-0.0123893
0.0181364,-0.114213
-0.0041862,-0.0427439
-0.0138298,0.00220667
0.0144981,-0.00565423
0.040936,0.0128107
0.032113,0.0262662
0.0433744,0.0190262
0.0373894,0.00425133
0.000562784,-0.012697
-0.0350136,-0.00467243
-0.0335238,-0.00387235
-0.0427227,0.0106966
-0.0357572,0.0160744
0.007101,0.00906439
0.0280024,-0.00182603
0.00777665,0.00273341
0.0155132,-0.00425305
-0.00208968,0.0115271
-0.0276955,0.00911561
-0.0166605,0.00391218
0.0417074,-0.0136716
0.0392894,-0.00376559
-0.00545154,0.0173341
-0.0711746,-0.00820342
-0.0832124,0.0200655
-0.00820699,0.00684065
0.0581833,-0.0208557
0.0162105,-0.0230681
0.0035318,-0.0133173
0.0483906,0.00475896
0.0310877,-0.000881015
0.0154665,0.00456545
0.00712813,0.0168581
0.0171814,0.0176446
0.0117567,0.0129702
-0.0273347,-0.0154494
-0.055703,-0.025595
-0.0285862,-0.0218922
-0.0383678,0.00239797
-0.0268339,0.0225749
0.0546579,0.0177111
0.0260648,-0.00139024
-0.0279612,-0.0145425
-0.0617913,-0.00511073
-0.0193424,0.0110349
0.0270978,0.00574467
0.0236889,-0.00698073
0.0180867,-0.00308287
0.013798,0.00176649
0.0249947,-0.00605702
0.0468013,-0.00977948
0.0492927,-0.0118218
0.0503791,-0.0102955
0.0429454,-0.018454
0.00200557,-0.0154914
-0.0410618,-0.000557711
-0.0496287,0.00698149
-0.0456363,0.0143115
0.0156668,0.00813114
0.102344,-0.00163078
0.115178,0.00733981
0.0888886,0.00893361
0.0220056,0.00249464
-0.0957997,0.00594261
-0.152715,0.00312824
-0.140438,0.0065136
-0.110575,-0.000353216
-0.0398664,-0.00988385
-0.000952151,-0.0102363
0.00421493,-0.019433
0.013363,-0.0182511
0.000598137,0.0165906
0.00422447,0.0286198
0.0319198,0.0113648
0.0347742,0.0061385
-0.00114637,0.0050474
-0.0358411,0.0103801
-0.0252989,0.0281371
-0.00371201,0.0372136
0.0125734,-0.0244836
0.0167869,-0.0240987
0.0149211,0.00728552
0.0192473,0.00187892
0.0160222,-0.0111414
0.00419054,-0.00963975
-0.00989626,0.000484043
-0.00619615,-0.00718907
0.0119591,0.0013892
0.0222583,0.00244799
0.0107024,0.0135105
-0.00187717,-0.0193181
-0.00377463,0.0121347
0.00749245,-0.00777209
0.0166829,-0.0315459
0.0130209,-0.00859013
0.0120995,-0.00188219
0.00622691,0.00451537
-0.0132717,0.013967
-0.0145877,0.0123932
0.0089093,-0.0245081
0.0190551,-0.0219717
0.0113718,0.0137685
0.00738052,-0.00608907
0.00389152,-0.0191905
0.00863269,-0.00813554
0.00988286,0.011301
0.00389426,0.0124022
0.00541336,0.00474243
0.00696624,-0.00163054
-7.56e-05,-0.0066888
-0.0139774,-0.000463667
-0.0211921,0.00158936
-0.0144447,0.00377207
-0.00610358,0.0135967
0.00278718,0.00949376
0.000760646,0.0212961
0.00026182,0.0129044
0.00793189,0.00268684
0.0147977,-0.00806426
0.0113651,-0.0169555
0.00767801,-0.00995862
-0.00501788,0.00801459
-0.0190105,0.0172673
0.000735756,0.00807082
0.0125134,0.0041002
0.00669003,-0.000368446
-0.00458449,-0.0051647
-0.0264857,-0.00551965
-0.0512344,-0.00240022
-0.0487318,-0.00867366
-0.0139339,-0.00966329
0.00657331,-0.00029358
0.0122239,6.9e-05
0.00529943,-0.00843325
-0.00658654,-0.0152529
-0.0255181,-0.0104168
-0.0372069,-0.00567096
-0.0255622,0.00404682
0.00525568,0.0122403
0.0444275,0.0055935
0.0770565,0.00348775
0.101153,0.00841979
0.0655706,0.00793472
0.0288508,0.0101094
0.00557162,0.014363
-0.00278329,0.0127125
-0.0311187,0.00228392
-0.0833946,0.00473046
-0.0605539,0.00914165
-0.0515643,-0.00496653
-0.0515992,-0.0204779
0.00309626,-0.0216578
0.0451662,-0.0231873
0.0348189,-0.0211705
0.0095613,-0.00980233
-0.023445,0.00437911
-0.0692868,0.00457999
-0.0792111,-0.00392274
0.0824561,-0.00473378
0.207551,-0.00132419
0.151642,0.00161205
0.0490721,0.00275831
-0.0518046,0.00769597
-0.140043,0.0151788
-0.125037,0.026976
-0.00938375,0.0267279
0.114165,0.0119399
0.171429,-0.00360176
0.134189,-0.00871446
0.0147637,-0.0116728
-0.11736,-0.00983425
-0.199417,0.00458901
-0.247887,0.0183066
-0.22741,0.0102961
-0.114428,-0.00366881
-0.0384591,-0.00855245
-0.00562174,-0.0152596
0.017732,-0.0177756
0.129049,-0.00758757
0.224024,-0.00637291
0.234203,-0.00517503
0.155165,0.00874592
-0.0591875,0.00799836
-0.208464,-0.00893218
-0.172003,-0.0122519
-0.0636957,-0.0118478
0.0605306,-0.01374
0.118957,-0.0123359
0.0783192,-0.000514005
-0.0720992,0.00788945
-0.111251,0.00300757
0.162755,0.0115602
0.796067,0.0230015
1.04755,0.02832
0.679433,0.0240167
0.00627888,0.0107805
-0.67895,-0.00412918
-1.12117,0.000935439
-1.09527,0.00943745
-0.664658,-0.00430286
-0.2504,-0.0171531
0.0050986,-0.0138132
0.0712992,-0.017472
0.0560452,-0.0196727
0.0162631,-0.00701866
0.00231735,0.0143906
0.0319608,0.0178555
0.0567803,0.00410548
0.0403017,0.00129447
0.0119497,-7.07e-05
0.0111536,-0.00696858
0.0494,-0.00457174
0.103913,0.000980602
0.147718,0.002957
0.235105,0.0150314
0.351165,0.0149993
0.368153,-0.0019929
0.254824,-0.01335
0.0468417,-0.0155504
-0.137137,-0.0193653
-0.0477405,-0.0153927
0.0237272,0.00246318
-0.0248218,0.0111166
-0.083183,0.00371802
-0.0868023,0.00319272
-0.0876774,-0.000792772
-0.109633,-0.00164698
-0.107409,-0.000649532
-0.0584151,0.00767698
0.0213979,0.00974914
0.0617366,0.0134455
0.058562,0.0166753
0.0585122,0.0065817
0.0791864,-0.012236
0.105125,-0.0153635
0.110306,-0.0156619
0.0756823,-0.0188302
0.0136237,-0.0149734
-0.0340538,0.00410877
-0.044414,0.0132767
-0.0273301,0.014289
-0.0381446,0.013002
-0.0645213,0.00143023
-0.085824,-0.00234545
-0.0718416,-0.00554385
-0.0252721,0.000359003
0.012612,0.000115315
0.0259913,0.00657938
0.0343739,0.0158431
0.0498311,0.0047952
0.0805705,-0.0111766
0.0677051,-0.0138048
