Comp Ch 3,Comp Ch 4
-0.00797693,0.0350231
0.0625646,0.0397667
0.13661,-0.0821944
0.155596,-0.0574327
0.153075,-0.0111308
0.125232,0.00641138
0.067725,-0.0320071
-0.0387392,-0.0312286
-0.0993566,-0.0300399
-0.0385867,-0.0501637
0.0208732,-0.0444048
-0.0434295,-0.0650604
-0.0855511,-0.0389511
-0.0125316,0.0388302
-0.0215557,0.0804626
-0.0796664,0.107933
-0.0812219,0.0320614
-0.0172224,0.00323071
0.00712619,0.0635983
0.00656255,0.036294
-0.00424482,-0.0352343
-0.0313413,-0.0216491
-0.0206707,-0.0133733
0.0392223,-0.0266566
0.0481245,-0.0158831
0.0313854,-0.00878523
0.0214506,0.00278337
0.00767521,0.0281191
-0.00241765,-0.00131422
0.00244637,-0.0273826
0.0164788,0.00234382
0.017607,0.011217
0.0223429,0.00383713
0.00365171,-0.00352308
-0.0306475,-0.000209215
-0.04105,0.00658648
-0.0294804,0.0076633
-0.0166158,0.00375294
-0.0194511,-0.00307571
-0.0240113,-0.00988418
-0.0288457,-0.0160654
-0.0319903,-0.000520425
-0.0177058,0.0101497
-0.00296495,0.0308895
-0.00732161,0.0390196
0.00430824,0.0235892
0.0226749,0.000387568
0.029186,0.00197515
0.0266958,-0.00835565
0.00225842,-0.0328122
-0.00712866,-0.0187256
0.0175832,-0.00602644
0.0305257,0.015364
0.0116031,0.00973034
0.00279596,-0.00226527
0.0152085,-0.00924023
0.0047295,-0.0284014
-0.0110885,-0.0251636
0.0216553,-0.00617286
0.0235782,0.00384423
0.0206716,0.018194
0.00358046,0.0226508
-0.0212993,0.00367269
-0.00835985,0.0145314
0.020376,-0.003607
0.0238317,-0.0255294
0.00250784,-0.0252155
-0.00721795,-0.00751986
0.00635851,0.0166709
0.00976286,0.0163977
-0.0281198,0.0127927
-0.0654317,0.019909
-0.0504438,0.00950164
-0.011764,-0.019045
-0.0158789,-0.00516627
-0.0043382,-0.00126752
0.0360545,-0.0050074
0.0493993,0.0085004
0.0628224,0.00373509
0.0524816,-0.0120372
0.00824601,-0.00155572
-0.0325842,0.0099828
-0.0655954,0.0120716
-0.0899273,0.0133512
-0.0756159,-0.0072882
-0.0182673,-0.0108014
0.0613471,-0.0146158
0.0517499,-0.00424494
0.0353838,0.0174291
0.0275103,-0.0143176
0.0323866,-0.02831
0.0417623,-0.00667643
0.00667848,-0.00807222
-0.0154314,-0.0173095
-0.0220094,0.00265848
-0.0261128,0.0298067
-0.00165736,0.0144769
0.00091571,0.0260098
-0.0245787,-0.0024109
-0.0340549,-0.0580199
-0.0305586,-0.0486624
-0.0216639,0.00696185
-0.00776023,0.0221241
0.0153525,0.0145504
0.021173,-0.001293
0.0182763,-0.0110392
0.0128469,0.00954236
-0.00318139,0.0306056
-0.00802592,0.0802328
0.00744866,0.0279082
0.0249041,-0.0133229
0.0430342,-0.0499699
0.0452238,-0.0709004
0.010194,-0.0337974
-0.0136394,-0.0186273
-0.0223762,-0.00563864
-0.0265791,-0.0030613
-0.00718036,0.00501347
0.0159517,0.0206341
0.0027248,0.0135017
-0.0219856,0.0252224
-0.0166154,0.0351192
0.0166517,0.0183825
0.0173903,-0.00836875
-0.00477807,-0.0241802
-0.00755136,-9.26e-05
0.00128567,0.00394865
0.0036861,0.0146638
-0.00408955,0.014591
-0.00366938,-0.010305
0.00513415,-0.0200889
0.00874853,-0.0156267
-0.0189709,-0.0288469
-0.0616737,-0.0358533
-0.075607,-0.00289073
-0.0630539,0.0231315
-0.033176,0.0177249
0.00816911,0.0188553
0.0693743,0.0243321
0.0785995,0.0106362
0.0407562,0.00398068
0.0202371,0.00572164
0.0273955,0.0030347
0.0153346,0.027775
0.00619662,0.050192
0.00114602,0.0584661
-3.35e-05,0.0646194
-0.00664147,-0.057404
-0.00990466,-0.0718525
-0.00562053,-0.00943408
0.00263074,-0.0480869
0.00125916,-0.0146836
-0.000238184,0.0159192
0.0138649,-0.00543782
0.0305473,0.0158973
0.0261414,0.0188826
0.00199266,0.0121366
-0.0148763,0.0206975
-0.0168589,0.000623386
-0.0310658,-0.0148735
-0.0282278,-0.0133632
-0.0317349,-0.0288737
-0.0243951,-0.0220724
-0.0408475,-0.0176686
-0.041935,-0.0171643
-0.033244,-0.00993221
-0.00402537,-0.0181195
-0.00962754,0.0042248
0.0122428,0.0215145
0.0638255,0.0163627
0.078941,0.0155994
0.0519913,0.0181435
0.0221147,-0.00495649
0.00338786,-0.0261269
-0.0229866,0.000510894
-0.0210207,-0.0310371
-0.00917328,-0.00601337
-0.00126916,0.0543579
0.00479811,0.0395381
0.00579793,-0.0206235
-0.00362694,-0.0666596
-0.0081516,-0.0292232
-0.00566252,-0.0172937
-0.00881249,-0.0166783
-0.00651773,0.0100801
-0.00060036,0.0282682
-0.00251057,0.0338589
-0.0130215,0.0359666
-0.0195044,0.0378394
-0.0131585,-0.017
-0.0137751,-0.0331765
-0.0168775,-0.000672776
-0.0170529,0.0147338
-0.0132774,0.0307495
0.00742616,0.0500669
0.0217173,-0.0190648
0.0204206,-0.0316384
0.0170227,0.0293208
0.0262303,-0.00812781
0.023024,-0.0731226
0.0279303,-0.0633805
0.0364752,-0.0100512
0.0243697,0.0507116
0.00935498,0.0458427
0.00311561,0.00306423
0.00317453,-0.00589981
-0.0070619,0.000764215
-0.00687267,-0.00592588
0.00356147,-0.00864711
-0.010691,0.00488379
-0.0221972,0.0116164
-0.0137681,0.0146124
-0.00123605,-0.00588372
-0.00634703,-0.0191195
-0.0127084,-0.00892207
-0.0209013,-0.0181804
-0.0333617,-0.0271352
-0.0352834,0.00359723
-0.0192993,0.0318251
0.000911275,0.0266366
0.0211925,0.0231153
-0.0125561,0.0318437
-0.0241928,0.0120454
0.0176113,-0.0270925
0.0246262,-0.0206028
0.00912023,-0.00850971
0.0088238,-0.000737376
0.0435547,0.013723
0.0335352,0.00544649
0.00395469,-0.0200115
-0.0145223,-0.0185568
-0.00590959,-0.0131669
0.00455007,-0.0307911
-0.00573084,-0.0368197
-0.0272882,0.0164269
-0.0223578,0.0571921
0.00786891,0.0518597
0.0247866,0.0171598
0.0208108,-0.0231495
0.0128187,-0.0260683
-0.000958937,-0.0165563
-0.0121962,-0.015179
-0.0109522,0.00460636
-0.00342824,0.0373194
0.0128927,0.0176058
0.0307518,-0.00416849
0.0117412,-0.0350698
-0.0233035,-0.0314923
-0.0211623,-0.0155982
-0.0121154,-0.000496711
-0.00710023,0.0469161
0.00987349,0.0308555
0.0122772,0.0361935
0.0146682,-0.00485539
0.00928786,0.0138547
0.00530312,-0.0103966
0.0130282,-0.0754949
-0.000620792,-0.0312685
-0.0307461,0.00640221
-0.0350987,0.00553225
-0.0120701,0.0102323
0.000285168,0.0200583
-0.01123,0.0215174
-0.0183914,0.00271196
-0.0201741,0.0177841
-0.0162109,-0.0372926
-0.004948,-0.0620692
-0.00534619,-0.0184682
-0.00109465,0.0257503
0.0220984,0.0282863
0.0258878,-0.0271696
0.0143625,-0.0390103
0.00794194,-0.00232043
0.0133178,0.000821038
0.0170278,0.00376275
0.0246463,0.0121759
0.0120496,0.00700312
-0.00231577,0.0318737
-0.00779133,0.0443648
-0.0219978,0.0269024
-0.0407177,0.0232266
-0.0516632,0.00142779
-0.0368329,-0.0253603
0.00447939,-0.0275143
0.0264933,-0.0120896
0.0480762,0.0138755
0.0650841,0.00881377
0.040388,0.0131816
0.0158979,0.017859
0.0065068,-0.0186285
-0.0019361,-0.0358418
-0.010858,-0.0138996
-0.0172653,0.00356697
-0.0380093,0.0291783
-0.0514328,0.0360311
-0.0463399,0.0201975
-0.0265396,0.0203927
-0.0113925,0.00779338
0.00257121,0.00202664
0.0340017,-0.00463485
0.0427607,-0.0680383
0.035669,-0.028363
0.0286527,-0.00561181
0.0221277,-0.0197325
0.00818924,-0.0137599
-0.0130599,-0.0117447
-0.0170709,-0.0211444
-0.00285811,-0.0162692
0.00148218,-0.00798978
0.00219263,0.026269
0.0136205,0.0643415
0.0186788,0.0370438
0.0183175,0.0282004
0.0108833,0.06885
0.0109306,-0.0238469
-0.0118069,-0.0731358
-0.0484948,-0.042624
-0.0454723,-0.00722178
-0.00965082,-0.000935723
0.00921092,-0.00250214
0.000293096,0.0222702
-0.017153,0.0730403
-0.0333299,0.0714754
-0.00796581,-0.115973
0.0183216,-0.109754
0.00621866,-0.0329102
-0.0158374,0.00143955
-0.0171635,0.0288527
-0.0025559,0.0333246
0.000553897,0.0150764
0.000880286,0.00821527
0.00854969,0.0123585
0.0147219,-0.00241029
0.00164676,-0.014241
-0.0124101,0.0206474
-0.00801163,0.0145786
-0.00106204,0.00405706
0.0123628,-0.00808836
0.0151488,-0.0348903
0.0143736,-0.0239566
0.0160683,-0.0160923
0.00716083,0.0163337
-0.0011444,0.0806095
0.0014895,0.0743413
0.0157405,-0.0501144
0.0143909,-0.0486333
0.00569415,0.00643893
0.00652175,0.0321092
0.00739223,0.0258899
0.00329319,-0.0313961
-0.005635,-0.0635753
-0.0137181,-0.02853
-0.0212404,0.0204239
-0.0198485,0.0195222
-0.00952143,0.00572533
0.0111178,0.0022616
0.00986183,-0.00855458
0.00229112,-0.0162149
0.000440439,-0.0315289
0.0056255,0.00587965
0.00399749,0.0655275
0.0145949,0.0821617
0.0167227,0.00132375
0.00712757,-0.0498718
-0.0140373,-0.0126563
-0.0334017,0.00364582
-0.0358742,0.00621848
-0.0207525,0.0230824
0.0135214,0.0357741
0.0397692,-7.86e-05
0.0315519,-0.0488293
0.0205256,-0.0483906
0.00631145,-0.0251872
-0.0176419,-0.000304839
-0.0413361,-0.00412959
-0.0557797,-0.017747
-0.0254113,-0.0166721
0.00812903,0.0179427
0.0158751,0.0499251
0.0193704,0.0620348
0.035886,0.0779204
0.041914,0.046164
0.0261956,-0.0140531
0.0200424,-0.0989619
0.0100375,-0.0565663
-0.0146349,0.00248224
-0.0335523,-0.00227425
-0.0510731,-0.0308095
-0.0455182,-0.000581175
-0.0302728,0.0190694
-0.0177182,0.00198923
-0.00830568,-0.0260235
3.12e-05,-0.0236789
0.0192355,-0.00372307
0.0274506,0.0175582
0.0242547,0.0270603
0.0110979,0.0133375
0.010615,0.00265306
0.0132109,-0.00029479
0.00468301,-0.00642473
0.00132623,-0.0117817
0.00345657,-0.011917
0.00660574,-0.0041561
0.00493288,-0.00762266
0.00278147,-0.0118735
-0.00021576,-0.0112177
-0.00879877,-0.0157943
-0.0150066,-0.0196774
-0.0157579,-0.00690503
-0.00785892,0.00751296
0.00335332,0.0736978
0.00695003,0.0883787
-0.00358716,-0.00535627
-0.0109671,-0.0612774
-0.00997006,-0.0329864
-0.0097015,-0.00064764
-0.00732961,0.0422741
-0.0062774,0.0334106
0.00309188,-0.0128747
0.00874102,-0.0114018
0.0337929,0.00489708
0.0498993,0.0912658
0.0464868,0.0364958
0.0298684,-0.0699074
-0.0114204,-0.0676935
-0.0450336,-0.0490049
-0.0166141,-0.0499884
0.0113601,-0.0197039
0.0183083,0.0257933
-0.00147856,0.0165961
-0.0238828,0.0194464
-0.0236771,0.0332482
-0.0273827,-0.00384171
-0.0417748,-0.0301302
-0.0140394,0.00271547
0.0295328,0.0183842
0.0423472,-0.00628703
0.0145127,0.103542
-0.015629,0.0264123
-0.0573469,0.0148629
-0.046557,-0.0483009
-0.000963492,-0.0949122
0.0122118,-0.0335337
0.012576,-0.00900091
0.0164951,0.0166809
0.0210379,0.0305878
0.00671669,0.0220873
-0.0150505,0.0103461
-0.0103398,-0.0124052
-0.00239532,-0.0262543
0.00412485,-0.0246919
-0.00121313,0.00635851
-0.00337807,0.0310967
0.0134654,-0.000931124
0.0235404,-0.0306154
0.0075368,0.0186654
0.00183673,-0.00784486
0.00845424,-0.0200006
0.0156148,0.00482759
0.0347676,-0.000288934
0.0384027,0.00246019
0.0177889,0.0240668
0.00974628,0.0279111
-0.00392844,0.0222701
-0.0218544,0.0301247
-0.0235412,-0.0224562
-0.0158467,-0.0475141
-0.00642591,-0.0163031
-0.0106574,0.0374754
-0.00840081,0.0437196
-0.0105373,-0.0172196
-0.00801601,-0.0186581
0.000303686,-0.0388806
-0.01458,-0.0064447
-0.0458537,0.0581868
-0.0293414,0.0619678
0.00856161,-0.0641069
0.00278125,-0.024909
0.00890266,0.017818
0.0315475,0.0087246
0.0258225,-0.0328429
0.0112028,-0.0174064
0.0105391,0.00137126
0.00623209,-0.0154055
7.73e-05,0.0295514
-0.00657082,-0.000186229
-0.0129239,-0.0937963
-0.0260665,-0.0347019
-0.0352391,0.0975912
-0.0237664,0.112227
0.00134689,0.0942077
0.0256895,-0.077985
0.0298578,-0.0795729
0.0152208,-0.0165079
0.00220422,0.0123719
0.0152178,-0.0189239
0.0346792,-0.031169
0.0313505,0.00581598
0.019266,0.0185007
0.00570893,0.00109253
0.000346973,-0.028127
-0.0085665,-0.0194788
-0.0133436,0.0146476
-0.0103535,0.0107661
-0.0108214,0.0103348
-0.019685,0.024999
-0.0373636,0.0337216
-0.0401797,0.0051044
-0.0352712,0.0521913
-0.0198658,0.0250392
-0.0051144,-0.0025206
0.00158484,-0.0147039
0.0105801,-0.0333267
0.00596074,-0.0282426
0.0123584,0.0212023
0.00221797,0.039544
0.000191404,0.0529628
0.00503204,0.0311971
0.0113601,-0.0745294
0.0172852,-0.03761
0.00816097,0.0310998
0.0122124,-0.0498192
0.00982669,-0.100821
-0.0141609,-0.0501734
-0.0153141,0.000562895
0.0112785,-0.00474748
0.0194372,-0.0224822
0.0371272,-0.0121869
0.0292951,-0.00871959
-0.0220224,-0.0226132
-0.0488381,-0.0161978
-0.0232643,0.0130964
0.0116385,0.0134036
0.00956583,0.0754746
0.0485954,0.0994584
0.0616369,0.0507759
0.00378018,0.0265003
-0.0593325,0.0437011
-0.0512912,-0.0467488
-0.0441724,-0.0638836
-0.0809887,0.023442
-0.0259827,0.129852
0.122649,0.118623
0.170221,-0.0196755
0.115554,-0.17318
0.0407143,-0.0611329
-0.0568887,0.0182212
-0.129113,-0.0760671
-0.0787824,-0.111718
0.0105007,0.0280426
0.00970978,-0.0164174
0.018758,0.0300622
0.0204436,0.0688039
-0.00560235,0.00826443
-0.0227744,-0.000847846
-0.050327,-0.00881178
-0.0524308,-0.0337793
-0.0466009,-0.0442573
-0.0127737,-0.0305618
0.00365982,0.00481038
-0.00636451,0.0156589
-0.0159107,0.0183643
-0.0186742,0.0211076
-0.0234089,0.042907
0.0100701,-0.0269099
0.0147074,-0.044007
-0.0205187,-0.00338296
0.0249772,-1.34e-05
0.0745606,-0.00626205
0.0395439,0.152397
-0.0208186,0.193547
-0.00956764,-0.0952389
0.00799249,-0.162592
0.000252175,-0.0117899
-0.00306115,-0.0210743
-0.00987072,0.0347562
-0.0271012,0.0980404
-0.0126814,0.130837
0.0347055,-0.0476189
0.041482,-0.162466
0.01032,-0.0682022
0.0246476,0.0335368
0.076169,0.0621801
0.0818789,-0.0113668
0.0410292,0.0432005
-0.00780216,0.075953
-0.0661991,-0.0428831
-0.0948615,-0.0566806
-0.0652384,0.014236
-0.00589126,-0.0298926
0.0367863,-0.0660883
-0.00285911,-0.0403941
-0.0325484,-0.0694813
-0.0162445,-0.0309156
-0.0193454,0.0329256
-0.0127442,0.0290452
0.017436,0.0132423
0.031304,0.021883
0.0139446,0.0250904
-0.0104403,0.0449208
-0.0257805,0.0325621
-0.0216619,0.0306884
0.0380128,0.00212243
0.121814,-0.00682488
0.13774,0.00379923
0.0941833,0.00442318
0.00674786,-0.00839861
-0.0511696,-0.0399493
-0.0908851,-0.0166433
-0.119441,-0.00663347
-0.117251,0.0312147
-0.0771587,0.0358718
-0.0243887,0.0168721
-0.00256483,0.00760885
0.00499065,-0.014733
0.0233753,-0.015804
0.0247048,-0.0100706
0.032206,0.0120931
0.0323336,0.018334
-0.0153421,0.00201233
-0.0728441,-0.00439025
-0.0700262,-0.0375752
-0.0370565,-0.0339635
0.0288887,-0.0400593
0.0709433,-0.0272057
0.0754327,0.000706416
0.0585488,0.0227847
0.0331138,0.0150682
-0.0214683,0.0212475
-0.0295925,0.0206625
0.113081,-0.00665707
0.137912,0.0101515
0.0643892,0.0699909
0.0065191,-0.010364
-0.0314943,-0.048874
-0.0964117,-0.0127585
-0.0968624,-0.0205214
-0.0709611,0.000975591
-0.0230851,-0.00374188
0.0336911,-0.0409314
0.0341991,-0.00565697
0.0138803,0.0111149
0.0139416,-0.0204575
-0.0139917,0.0251294
-0.0248443,0.0769929
-0.0552648,0.0965479
-0.0793145,0.0192956
-0.0283856,-0.0137391
-0.006599,-0.013435
-0.0249246,-0.0273269
-0.0192055,0.0633514
-0.00733267,-0.00402491
-0.00503194,-0.076625
-0.00698279,-0.0523286
0.00338984,-0.0220836
0.0217117,-0.00517234
0.0680191,-0.0249232
0.0684604,-0.0138013
0.0542217,-0.00768713
0.0276376,-0.0115519
-0.00442904,-0.00124441
-0.019752,0.0160965
-0.0145089,0.0111642
-0.0158692,-0.00175781
-0.00374229,-0.0130827
0.0135581,-0.0144086
0.00555749,-0.0159135
0.0104625,0.013608
0.000937544,0.0793732
-0.000623816,0.0293365
-0.000281897,-0.00750177
-0.0137372,-0.0196248
-0.01875,-0.0222067
-0.0263995,-0.00829811
-0.034542,-0.00300031
-0.0310948,0.00647378
-0.0229993,0.0174834
-0.00483589,0.00802851
0.019883,0.00176699
0.0378865,0.046555
0.0377186,0.0270514
0.0347123,-0.0235518
0.0133182,-0.0358257
-0.00802157,0.0170776
0.0205039,0.000900533
0.0670311,-0.0262237
0.0667962,-0.00239479
0.0247877,-0.00681813
-0.00681463,-0.0123856
-0.0169459,0.00151993
-0.0186318,0.00250593
-0.0551546,0.0138166
-0.0578016,-0.0184123
-0.0308751,-0.0263313
-0.0184755,0.00413456
-0.0339066,0.0183826
-0.0301032,0.00727369
0.00597948,-0.00673905
0.0120672,-0.00934519
0.00701852,-0.0118467
0.0133722,-0.0339608
-0.000693402,0.0077218
-0.0117226,0.0401834
-0.0118612,0.00978233
-0.00619411,0.00118779
0.0432145,0.0159842
0.116959,-0.00702314
0.130825,-0.0247445
0.0674667,-0.0308385
-0.0314943,-0.0262006
-0.102324,0.0316737
-0.129305,0.101352
-0.105361,0.0210819
-0.0457232,-0.0072239
0.0321311,-0.00624049
0.0638061,-0.0324978
0.0510396,-0.0257162
-0.00299252,0.0140141
-0.0433454,0.0282493
-0.116758,0.0124254
-0.076649,-0.00548109
-0.000232118,-0.0272178
-0.00822634,-0.0201257
0.0133389,-0.00257095
0.0289636,0.00686068
0.035893,0.000749929
0.0498121,0.00778749
0.0633153,0.0243968
0.0539939,0.0164515
0.0414072,-0.0391855
0.0238577,-0.0408212
0.00847971,-0.019837
0.0162108,-0.0102119
0.0219297,0.000211954
0.00298504,0.0594106
-0.0274592,0.0628984
-0.02175,-0.0633823
-0.00524525,-0.0640787
-0.0121621,0.00115707
-0.00346692,0.0029382
0.00966558,-0.0145218
-0.0172627,-0.00435399
-0.0370622,0.00612989
-0.0412531,0.0269967
-0.0264328,0.0222838
0.0119726,0.0198813
0.0363337,0.0120864
0.03802,-8.72e-06
0.00691688,-0.0140478
0.00563242,-0.0371406
-0.00323435,-0.0123115
-0.0219203,0.0130357
-0.0405627,0.0269754
-0.06755,0.0341157
-0.0745439,0.0317355
-0.039856,-0.00116417
0.00459292,-0.0188503
0.03156,-0.0274919
0.0661889,-0.0147301
0.0778545,-0.0017649
0.0399992,0.0103767
0.0254225,0.00990601
0.0251956,-0.00570223
0.0124779,-0.00608021
0.0203135,-0.00170941
0.0144477,-0.00483591
-0.0206158,-0.0122848
-0.0687726,-0.00823821
-0.0754003,0.0187525
-0.0263167,0.015381
0.0190647,0.00622576
0.00401986,0.00266951
0.0146726,-0.0076809
0.0481815,-0.00374913
0.0147338,-3.88e-05
-0.0161901,0.00161998
-0.0268746,-0.00788633
-0.00343432,-0.00803577
0.0315776,0.0128177
0.0395152,0.000286789
0.00814026,0.0117711
-0.0256721,0.0202657
-0.0435634,-0.0063798
-0.021308,-0.0380085
0.0092943,-0.0134058
-0.0268771,0.0181083
-0.0357361,-0.00114891
7.65e-06,-0.00100823
0.0405057,-0.00868423
0.049164,-0.0155091
0.0396957,-0.00897396
0.0271699,0.00653126
0.0018358,0.0190327
0.0234124,0.0243399
0.0281495,0.0219415
-0.0454132,0.00190371
-0.0316346,-0.0212066
-0.00333646,-0.0126149
-0.0343359,-0.00386603
-0.0639989,0.0103313
-0.0518722,0.0191649
-0.0339921,0.0153865
0.0935744,0.0126874
0.121578,0.0299828
0.033553,-7.79e-05
-0.0413304,-0.00594555
-0.0988003,-0.0320004
-0.084548,-0.0351997
-0.054599,-0.00711827
-0.0268836,0.000273339
-0.00260679,0.00277193
0.0964013,0.0281402
0.186453,0.0135856
0.090826,-0.024427
-0.0201155,-0.0400853
-0.0628781,-0.0108164
0.00312656,-0.00991676
0.0398029,0.00868203
0.024286,0.00103476
-0.00756881,-0.040231
-0.166942,0.0335065
-0.218047,0.0578769
-0.152389,-0.0126622
-0.151913,-0.0687358
0.0483405,-0.0387729
0.249357,0.010021
0.0831161,0.082542
0.0576449,0.0623547
0.0385973,0.0287486
-0.0182287,0.00308604
0.0600352,-0.0798485
0.095546,-0.060457
0.124862,-0.0355231
0.0761383,-0.0269722
-0.0649845,0.0291472
-0.0223241,0.0693526
-0.0519241,0.0184357
-0.0894815,-0.0569329
-0.11177,-0.0145706
-0.122566,0.0391601
-0.131337,0.00705775
-0.128451,-0.00904056
-0.055831,0.00784749
0.039567,0.000827605
0.266665,0.0207661
0.290313,-0.00841319
0.138503,-0.0527148
0.119575,0.021309
0.0500686,0.0279423
0.0114428,0.104275
0.0151264,0.121672
-0.00279796,0.0055841
-0.00423571,-0.165319
0.0418845,-0.111788
0.0397555,0.0240603
-0.0179541,0.111974
-0.0287826,0.0743564
-0.0973024,-0.102743
-0.271428,-0.0839462
-0.292501,-0.0235082
-0.179224,-0.0420597
-0.100889,-0.0141347
-0.038915,0.0155735
0.187097,0.0590842
0.27763,0.00324711
0.0590644,0.010161
-0.066679,0.0113416
-0.051788,-0.0805302
-0.00402643,0.000320048
0.119699,0.08842
0.161598,-0.0102005
0.115042,-0.0520596
-0.0369434,-0.0460863
-0.233022,-0.0163771
-0.167205,0.0393711
-0.0702783,0.0650821
-0.00165652,0.0315203
0.0544843,0.0516248
0.0261115,0.0415509
0.0257092,0.0612368
0.0869006,0.132927
0.0991534,0.156524
0.0479786,-0.180988
0.0161809,-0.315452
-0.116158,-0.111016
-0.0745629,0.0303642
-0.00494074,-0.0297184
-0.0195941,-0.0230841
0.0987417,0.134387
0.138719,0.134353
0.00756647,-0.0178478
-0.0778477,-0.128421
0.0580667,0.020016
0.232287,-0.00382274
0.234323,-0.00466454
0.0951805,0.0270606
-0.147027,0.00259151
-0.387799,-0.0808916
-0.365677,-0.00929685
-0.122919,0.0267389
0.166611,0.0779865
0.332829,0.0723996
0.31338,0.0472863
-0.0790274,-0.00648368
-0.410535,-0.0547708
-0.386455,-0.0578244
-0.355294,-0.0185245
-0.154563,0.0124035
0.111643,0.0972144
0.146937,0.144087
0.15137,-0.0154713
0.167697,-0.0910725
0.14582,0.0367208
0.0843883,0.0344328
-0.0291156,-0.0241514
0.0691993,-0.108452
0.172634,-0.0586028
0.161036,-0.032664
0.0571442,-0.0222856
-0.119425,-0.0523085
-0.171331,0.0596319
-0.0291208,0.023751
0.0590555,0.00529039
-0.0107621,0.0451547
-0.0375102,-0.00737957
0.000581111,0.0276708
0.0452029,0.0152722
0.098722,-0.0553336
-0.0735773,-0.0490367
-0.223584,-0.0444267
-0.172699,-0.0186709
-0.024147,-0.0110837
0.0108323,0.0100303
-0.00871598,0.0163427
0.00429919,0.0169162
-0.0165404,0.0488855
0.0409085,0.0472441
0.10044,0.00681949
-0.0155312,-0.0622322
0.00330819,-0.0304416
0.19205,-0.0190717
0.178669,0.0366478
0.0875113,0.0769717
-0.120349,0.00383184
-0.0835492,-0.0343092
-0.0031363,0.0284266
-0.0184271,0.0609925
-0.028238,0.106866
0.0852081,-0.0826043
0.0818886,-0.134013
-0.0294819,-0.0829217
-0.0689258,-0.0577229
-0.0471074,-0.0134804
-0.141685,-0.0268276
-0.154435,-0.0187105
-0.0645604,0.0558059
0.102455,0.0578747
0.0839831,0.0323081
-0.053537,-0.0637892
-0.0871352,-0.0305264
0.12166,0.00918094
0.279247,0.0469455
0.102494,0.0514229
-0.148926,0.058372
-0.282482,0.0418514
-0.107427,-0.0693569
0.471776,0.0375184
0.930231,0.0458346
0.844814,-0.0354184
0.353911,0.0477511
-0.203066,0.0485039
-0.836315,0.000167866
-0.937434,-0.0178326
-0.606326,-0.0529597
-0.251409,-0.0712145
-0.040283,-0.0396348
0.112603,-0.0178029
0.110519,0.00760439
-0.00470637,0.00125853
-0.0945376,-0.0056127
-0.104392,0.00293006
-0.0795766,0.0151384
-0.0508068,-0.00870073
-0.0450123,-0.0180996
-0.0189298,0.000937563
0.056223,0.0739066
0.165886,0.0742562
0.292195,0.0185182
0.311852,-0.0395506
0.180301,-0.0566426
0.0730489,-0.0104944
0.00903753,-0.0307407
-0.0292019,0.0330737
-0.0232686,0.00679025
-0.00220043,0.0175424
-0.0506388,0.0224424
-0.11517,0.0325527
-0.0933912,0.0381097
0.0120704,0.0332437
-0.0641002,0.0135864
-0.210599,0.00612582
-0.175803,0.00764896
-0.0693247,-0.0307196
0.0579219,-0.065216
0.218876,-0.0357177
0.220011,0.00326283
0.146903,-0.00587189
0.157723,-0.0306992
0.102487,-0.0633065
0.0230217,0.00236368
-0.0777768,0.12778
-0.144838,0.0150912
-0.193688,0.0262803
-0.196489,0.0159796
-0.0474695,-0.0643392
0.0978069,-0.00609441
0.18635,-0.0116094
0.0606132,0.0514268
-0.0128626,-0.0567804
-0.0421296,-0.0942878
-0.0703517,0.0437894
-0.0270265,-0.00956431
0.0596213,-0.0887151
0.0962119,-0.00538042
0.088116,-0.0319024
0.0688728,-0.0190654
0.0100769,0.0118173
-0.0303902,0.0439197
-0.0167307,0.00934728
-0.0480541,0.00593821
-0.065403,0.026058
-0.0679331,0.0490497
-0.0430281,0.0293489
-0.0595614,-0.00034712
-0.118349,0.0437917
-0.0381996,0.0494395
0.10368,-0.0155256
0.145393,-0.00380122
0.0766965,0.0226127
-0.0233623,0.00319523
-0.0458737,0.0181862
-0.0434706,0.0225061
-0.00425134,-0.00756035
-0.033293,-0.00836878
0.0381082,-0.0221222
0.00714963,0.0141132
-0.0105322,0.0048294
-0.00624123,-0.040596
0.0373359,-0.0398137
-0.0160047,-0.0513491
-0.0932226,-0.0350418
-0.0847318,-0.0317496
0.0140668,-0.0237766
0.0486489,-0.0135883
0.0266975,0.015949
0.0738779,0.0453339
0.119199,-0.00494553
0.0883959,0.0363201
0.00653743,-0.0628082
-0.124586,-0.0803546
-0.209734,0.0779144
-0.158031,0.0899118
-0.0124606,0.0197066
0.0916908,-0.00519177
0.0395106,-0.0117325
0.120775,-0.0156578
0.128762,-0.0178379
-0.0449953,-0.0233243
-0.0758103,-0.00407932
0.00666095,0.0298311
0.0204692,0.0396332
-0.0202402,0.055495
0.0112769,0.0451868
0.0686652,-0.0339125
0.0750839,-0.0365539
0.00949482,-0.0217711
-0.0885313,0.00634356
-0.109582,0.0447194
-0.0453409,0.00195839
0.0223132,-0.0326406
0.107835,-0.0099072
0.0862286,-0.0536104
0.0109214,-0.0695326
-0.0892992,-0.0217904
-0.13921,-0.0336156
-0.0956694,0.00355408
-0.0726435,0.0799559
-0.0182008,0.0516608
0.0433546,0.0228456
0.050842,-0.0390611
0.111038,-0.0184634
0.121196,0.0062294
0.120205,-0.0192267
0.185336,0.00830727
0.164437,0.0263
0.090617,0.02215
0.0202301,0.0460755
-0.0843612,0.0389672
-0.257541,0.0278881
-0.271973,-0.0166724
-0.181828,-0.0354372
-0.0852238,0.000522131
-0.0854162,0.0291081
-0.0321681,0.00815461
0.0671349,-0.00918758
0.0951089,-0.0159405
0.128199,-0.0291962
0.0616194,-0.051975
0.0369299,-0.0451524
0.0139629,0.00430855
-0.0493299,0.031236
-0.054257,0.0283768
-0.0104206,0.0453568
0.0528228,-0.0439846
0.0572087,-0.0596774
0.0139002,-0.0331994
-0.0228366,-0.0233088
-0.0216684,-0.00143013
-0.0210291,0.00159498
-0.020966,-0.0105062
-0.0218743,0.00632028
-0.0113576,0.0469207
-0.00271853,0.0451656
0.00389089,-0.0313823
0.00762097,-0.004645
0.0562177,0.00647931
0.0718585,0.0525914
0.115779,0.0238255
0.120919,0.00111604
-0.0132502,-0.049069
-0.1127,-0.0523556
-0.0690049,0.0190283
-0.093504,0.0645793
-0.134516,0.0432826
-0.113236,-0.0571479
-0.0609916,0.0607454
0.0890379,0.102939
0.120684,0.0421555
0.107934,-0.0582873
0.0449803,-0.0881307
0.104658,-0.0497471
0.0391478,-0.0374162
-0.0507895,-0.0298317
-0.0267773,0.0216146
-0.0737191,0.0390277
-0.133563,0.0074588
-0.0639646,-0.0316676
-0.0530906,-0.0344195
0.0187939,-0.0237658
0.0458145,-0.0280326
0.00255405,-0.0311363
0.0341614,-0.0158469
0.0490324,0.00495895
0.0840523,0.00464671
0.0958695,-0.00751034
0.0663257,-0.00776891
0.014196,0.00125163
-0.011807,0.00970876
-0.0462621,0.0458076
-0.047742,0.104269
0.0276776,0.0671654
-0.0128516,0.0259306
-0.0414165,-0.0508168
-0.0536039,-0.024174
-0.0596122,0.0217986
-0.113873,0.0117483
-0.000796491,-0.0315261
0.0634197,-0.0426956
-0.0644281,0.0510946
-0.0281726,0.0333116
0.150377,-0.0331913
0.111761,-0.0115856
-0.00204651,0.014114
-0.0743345,0.106031
0.00129958,0.0486411
0.0614253,-0.0472605
0.0285225,-0.1006
-0.0487829,-0.0641266
-0.126347,0.0317417
-0.0482493,0.0463604
0.0848517,-0.00274089
0.061282,0.0174507
-0.00575407,-0.0105515
-0.0120228,-0.0212706
0.0211251,0.00343155
0.0213591,0.0428746
0.0189935,0.0431456
0.0221154,0.0075708
0.0243743,-0.0372537
0.0154985,-0.0112902
0.0285448,-0.0156976
0.022227,-0.0214385
-0.0132645,-0.0259571
-0.0582643,0.00594903
-0.0725032,0.0114704
-0.0727352,-0.0404971
-0.0496738,-0.000900292
-0.000713072,-0.0306169
0.00470953,-0.0257097
0.0341714,0.0151447
-0.00281923,0.0359856
-0.0176101,0.0455399
-0.00959908,0.0187919
-0.00679199,0.0438522
0.00459123,0.0756892
0.00658149,0.0326768
-0.00289364,-0.081079
-0.00971514,-0.111765
0.0306312,-0.0668726
0.0351004,-0.016099
0.0211213,0.00890246
0.0541414,-0.0178402
0.0976452,-0.0465967
0.0634289,0.0189783
-0.0226894,0.117742
-0.0936488,0.0602424
-0.170359,0.0121463
-0.123278,0.0317707
-0.0805799,0.0255325
-0.107365,0.00242734
-0.000874498,-0.0455846
0.126071,-0.0397808
0.146724,-0.0062006
0.116012,-0.0134431
0.0810373,-0.0554343
0.0671902,-0.0605597
0.0421318,-0.0440678
0.0131024,-0.0448128
-0.0238556,-0.0144331
-0.0560506,0.0254411
-0.0376114,0.0093245
-0.00892336,0.00773517
0.00243616,-0.0221764
-0.0240852,-0.0121168
-0.0355361,0.0615699
-0.000476545,0.0828265
0.0330038,0.103011
0.0266518,-0.0223762
-0.0149964,-0.0779397
-0.031709,-0.0429003
-0.0187138,-0.00462478
-0.0209273,0.010125
-0.0141828,-0.00478517
-0.0188021,0.0183308
0.0319285,0.0492962
0.112071,-0.000711311
0.0958192,-0.0632875
0.0485813,-0.0279046
-0.000571467,0.0147384
-0.0365934,0.0017314
-0.0488534,-0.00915625
-0.101417,0.024156
-0.0637381,0.0327664
-0.0157619,0.0196683
-0.0182808,0.00774858
0.00094787,-0.00643364
0.0292409,-0.00870453
-0.0603618,0.00360996
-0.109693,0.0025643
-0.0756082,0.005529
-0.065905,0.018313
-0.0805649,-0.0213054
-0.0607648,0.000973493
0.0883899,0.0189303
0.159337,-0.0121139
0.139731,-0.0130295
0.0917677,0.00619885
0.064721,0.0297147
0.0363534,0.0667601
0.0757995,0.0021909
0.0783348,0.0157686
0.0121933,-0.0252532
-0.013444,-0.0471272
-0.0194883,-0.0740839
-0.0292602,-0.0179045
-0.0414715,0.0128064
0.0119906,-0.0170536
0.0598042,0.0144867
0.0181814,0.0546119
-0.0658704,0.0083849
-0.0795254,-0.0217361
-0.04577,-0.0221406
-0.00220469,0.00843705
-0.0152951,0.00360098
-0.121309,0.00582209
-0.149542,0.0136236
-0.0894454,-0.00683854
-0.0164258,0.0173468
-0.00914992,0.0167
0.00288278,0.00267979
0.0386572,-0.0150661
0.0587958,-0.031846
0.104882,-0.0441231
0.0906055,-0.0112391
0.0461952,0.0222028
-0.00067893,-0.00528791
-0.0337493,-0.0282277
-0.0318101,0.00111129
-0.0191459,-0.0075391
0.0247607,-0.024893
0.052502,0.00795304
0.058364,0.0189444
0.078815,0.00979969
0.0887529,-0.00314333
0.0360325,0.00344947
-0.00393025,0.0150477
0.0176597,0.00760721
0.00305327,0.0133857
-0.0848084,0.0491681
-0.125099,0.0317919
-0.0385982,-0.0326796
-0.00236686,-0.00364692
-0.0310095,0.0320358
-0.0406037,0.0127146
0.00979144,-0.0144798
-0.0186468,-0.0112379
-0.0908885,-2.53e-05
-0.0498153,0.00719702
-0.0152042,-0.00262453
0.0540213,-0.0150179
-0.00277617,-0.00663683
-0.0889722,0.0300869
-0.066068,0.0283378
0.00792223,0.0391928
0.0468169,0.0625073
0.0801878,-0.0373699
0.0785403,0.00131104
0.0264779,0.0448405
-0.0706108,0.0143211
-0.0388831,-0.0154363
0.0864298,0.0159113
0.201056,-0.0628107
0.185587,-0.0474318
0.0637117,-0.0345264
-0.0555964,-0.0297145
-0.109486,0.00648554
-0.110663,0.0186146
-0.0776009,0.0199685
-0.00248549,-0.0342636
0.0507607,-0.076499
0.0309877,-0.0321427
0.0456352,0.0139232
0.0635934,0.0102879
0.0237397,0.0116685
-0.0311775,0.00441739
-0.0570536,0.00366288
-0.0954996,0.00295873
-0.113649,-0.00448942
-0.0778157,0.000984761
-0.030392,0.00525292
0.0212544,-0.0081012
0.0418507,0.0116453
0.0309309,0.0106096
0.000613416,-0.00814509
0.0201004,-0.0125864
0.0379474,0.00427131
0.00778304,0.0107475
0.00960976,0.0184574
-0.0541393,0.000519333
-0.131795,-0.0247702
-0.0584182,-0.0144442
0.0579082,0.00193934
0.0609092,-0.00772925
0.106062,-0.00920477
0.106966,0.00168241
0.028772,0.000234252
0.0269168,-0.00467215
-0.0226867,0.0129125
-0.0914248,0.0172601
-0.11743,0.00864777
-0.174436,0.00158822
-0.154251,0.0148211
-0.0823528,0.000304274
0.0495292,-0.0174435
0.232002,-0.0110006
0.483543,0.0407478
0.550876,0.0360133
0.232871,0.0164456
-0.138006,0.0145947
-0.323076,-0.0124665
-0.399902,-0.0490673
-0.371337,-0.0445086
-0.107202,-0.00794434
0.254656,0.0214502
0.369903,0.0241082
0.355037,0.0167918
0.250388,0.00636186
-0.0821198,0.00145936
-0.381592,-0.00334759
-0.417359,-0.0304144
-0.364216,-0.0378678
-0.225768,-0.00365586
-0.0981101,0.0150203
-0.000638118,0.0248695
0.0628705,0.0357453
0.103084,0.0159478
0.0928915,-0.000289905
0.0421419,-0.00462912
-0.0139669,-0.0319402
-0.0691383,-0.0290689
-0.0632802,-0.0132489
0.0289491,0.00344407
0.119358,0.0235731
0.177754,0.0262489
0.186557,0.0160244
0.199505,-0.0158115
0.168686,-0.0261308
-0.0271222,-0.015906
-0.12736,-0.0115448
-0.0892178,-0.00733213
-0.0518401,0.0206325
0.0517525,0.0180379
0.0458214,0.00692114
0.0241288,0.0047193
-0.0111565,0.0198126
-0.0867425,0.00304384
-0.138384,-0.0225095
-0.137849,-0.0415783
-0.0691033,-0.00811513
-0.0122411,-0.00110914
0.01981,-0.0238134
0.0545673,0.0197317
0.0870588,0.0233533
0.0963214,-0.0374277
0.0425232,-0.00431429
0.00185346,-0.0105897
-0.024051,-0.00194593
-0.0211997,0.0530289
0.00282383,0.0196402
0.0432939,-0.00693825
0.0299362,0.00568085
-0.000506401,-0.0242344
-0.00107134,-0.0440739
0.0230083,-0.0304687
0.0448257,-0.00316236
-0.0134598,0.0287647
-0.108698,0.0426649
-0.0744513,0.0421659
-0.0827965,0.0217464
-0.0718994,0.0169889
-0.0355953,-0.0700334
-0.0191914,0.0186059
-0.0159907,0.0360159
-0.0789642,-0.00115524
0.00730797,0.0319078
0.135008,0.0827108
0.15406,-0.00216609
0.118409,-0.0502339
0.0577263,-0.0740206
-0.0408402,-0.0663677
0.000147519,-0.034047
0.0542574,0.0245715
-0.0230214,-0.00627653
0.00435317,0.0282738
0.055135,0.0310525
0.0727614,0.000680559
0.0705488,-0.0074126
0.0379999,-0.00728232
0.00314749,-0.00360451
-0.0821585,0.000690473
-0.134296,0.0243947
-0.139128,-0.0123551
-0.0865483,-0.0131554
0.00890472,-0.0107348
0.0431771,-0.00383371
0.017763,0.00730124
-0.00985509,0.0135683
0.00523147,0.0131387
0.0179141,0.0302545
0.030603,0.0336204
0.0596202,-0.0152642
0.0339839,-0.0154087
0.0119918,-0.00464809
-0.0868582,-0.0101565
-0.070668,0.0308937
0.0318177,-0.0176774
-0.0153053,-0.0285349
-0.0461951,-0.00714757
-0.0585806,0.0048627
-0.0128399,-0.00456502
0.0104148,-0.0129147
-0.00185327,-0.0207605
0.0129389,-0.0170885
0.0462867,-0.0112537
0.0422976,0.000513562
0.0562082,0.0170235
0.076665,0.0236359
0.0068625,0.0143578
-0.0894385,0.0123803
-0.0979247,-0.0085017
-0.0350145,-0.0225839
-0.00277694,-0.00838005
-0.0269543,0.010229
0.0190214,0.0254395
0.0536688,0.0173064
0.0276646,-0.00123243
-0.0352741,-0.00934789
-0.0363998,-0.0125457
0.00173483,-0.0143138
0.0760879,-0.0169532
0.0422762,-0.0156669
0.00542883,-0.00317247
-0.0252176,0.00128741
-0.0701465,0.0165132
-0.0633114,0.0197406
-0.00916579,-0.016983
0.0166245,0.02848
0.0114851,0.0779876
-0.0258068,0.0552619
-0.0128115,-0.00916088
0.0532488,-0.0320856
0.0385362,0.0152421
0.0679877,0.00376273
0.132261,-0.0156558
0.152984,-0.0681573
0.0746178,-0.0373401
0.0143381,0.0260158
-0.0446716,0.010326
-0.128763,0.0417714
-0.226923,0.0816676
-0.246659,0.0294969
-0.162343,-0.027917
-0.0694368,-0.0476975
0.0167174,-0.0436532
0.0823884,0.0142878
0.104357,-0.0190385
0.127124,-0.0736501
0.105574,-0.0133051
0.0193582,0.0106184
0.0236616,-0.00569812
0.0270329,-0.0121024
0.0131824,-0.00409621
0.0218454,-0.00213624
0.0433083,-0.0103064
0.0548588,-0.0135549
0.0183632,-0.00393289
-0.035392,0.00253168
-0.034838,0.00378615
-0.0201232,0.00424734
-0.0240642,-0.0021176
0.0473413,-0.0159833
0.106417,-0.0100451
0.112373,0.00345236
0.0584498,0.016227
-0.0455871,0.0289004
-0.126456,0.0252135
-0.168328,0.00921408
-0.11769,-0.00105534
-0.0987477,-0.00405975
-0.107112,-0.0114018
-0.0413856,-0.0207424
0.0209049,0.0145136
0.00684708,0.0591802
-0.0427129,0.0321759
0.00681991,0.0799865
0.127606,0.0494545
0.0879597,-0.0698235
0.052685,-0.0726652
0.112885,-0.0279946
0.100187,0.0178663
0.0340689,0.0424939
-0.0241822,0.0276724
-0.0188009,0.0385476
-0.0265872,0.029996
-0.0609957,-0.0568093
-0.0330404,-0.0337766
0.0106961,-0.0332228
-0.00421635,-0.0341963
-0.0253432,0.00928112
0.0150747,5.55e-05
0.0319827,0.00596799
0.0339428,0.0178614
0.0232723,-0.0300247
-0.0186914,-0.0451406
-0.0325249,-0.0277777
-0.0301424,-0.00322618
-0.0272998,0.000916763
-0.0244042,0.0132436
-0.00695213,0.0175791
0.00124615,0.000721245
0.00541851,-0.0108748
0.0102975,-0.0062414
0.0116114,-0.0080145
0.0222086,-0.0128308
0.022667,-0.0107074
0.0199696,-0.00752623
0.0172154,-0.00280532
0.00739573,0.00795393
-0.0048914,0.00334631
-0.0170144,-0.00224911
-0.0549996,0.00190819
-0.0778485,0.0184959
-0.0490407,0.0316752
-0.0201506,0.037245
0.0123966,0.036099
0.0128807,0.0259217
0.0173901,0.0108675
-0.00454536,0.00782644
0.0368035,0.00984904
0.0906346,0.00461041
0.0387946,-0.00750099
-0.0335749,-0.0273608
-0.0519692,-0.0271819
-0.0221708,-0.0118889
0.0915769,-0.0339606
0.0480185,-0.0299417
0.00793633,-0.00144347
0.0423646,-0.00896234
-0.0231284,-0.0327649
-0.0581565,-0.0116725
-0.0767632,0.0209223
-0.0835013,0.0247584
-0.0333655,0.014775
0.0128356,0.00744297
0.0258333,0.0136752
0.0718081,0.00745167
0.0607604,-0.00976232
0.0133255,-0.00456096
0.000283959,0.0214979
-0.0140059,0.0217219
-0.0399532,0.00278001
-0.0116959,-0.00799476
0.0155255,-0.00489258
0.0221216,-0.0127712
0.00604638,-0.0165048
-0.0225788,-0.00607856
-0.0292226,0.00643869
-0.0313914,0.0204744
-0.00720464,0.0106732
0.00446723,-0.00648581
-0.0102386,-0.00363695
-0.00973797,-0.00534997
0.0214162,-0.0199936
0.0344985,-0.0143794
0.0297922,0.00663896
0.019665,0.00350792
-0.00528257,-0.0035146
-0.0106818,-0.00525977
-0.000880869,-0.0101149
0.0095636,-0.00816801
0.00676927,-0.0171571
-0.00512174,-0.0157026
0.000804532,0.0178637
0.0577354,0.0317957
0.0997969,0.0320731
0.0624645,0.0205567
-0.0519342,0.00179472
-0.0699321,0.00657927
-0.0667338,-0.0147435
-0.0812478,-0.0288013
-0.0645771,-0.0141803
-0.0547782,0.00817128
-0.0214768,0.00849815
0.00870698,-0.001621
-0.0243335,-0.00221025
-0.0308941,-0.0042098
0.0203116,-0.0117607
0.0586478,-0.019683
0.0554853,-0.00656295
0.0465151,-0.000494033
0.0306755,0.00612588
0.0123264,0.0413338
0.0100028,0.0213012
0.033938,-0.00510598
0.0330442,0.00143273
0.0425602,0.00676875
0.0675829,0.00261912
0.0426211,-0.00568807
-0.00108608,-0.00354628
-0.0310706,0.000737064
-0.0572634,-0.0106803
-0.0914957,-0.00648611
-0.0882808,0.0141782
-0.105849,0.0169084
-0.130239,0.0094846
-0.0236988,0.0361399
0.0668232,0.0197836
0.0926716,0.00610826
0.101347,-0.0225134
0.112158,-0.0488372
0.0985,-0.0375231
0.059902,-0.0148618
-0.053056,-0.000785973
-0.0822567,0.0176086
-0.071785,0.00784113
-0.0410481,0.0157549
-0.0304685,0.00687701
-0.0709123,-0.0274139
-0.0853703,-0.0417135
-0.0283661,-0.016831
-0.00235762,0.0323908
0.0149456,0.0753046
0.0553503,0.0167249
0.0176675,0.0520545
0.0271139,0.054392
0.0405231,-0.00664011
-0.0236051,-0.0630093
-0.0573776,-0.0719507
-0.0388091,-0.0331607
0.028086,0.00885897
0.0754063,-0.00535532
0.0641963,-0.020208
0.0542758,0.00173807
0.0423461,0.0102558
0.0297721,-0.000591734
0.0384539,-0.0159792
0.0185969,-0.0158078
-0.0187023,-0.0210307
-0.0531257,-0.0177148
-0.0283823,0.00126754
0.0019652,0.0263911
-0.0148346,0.0377981
-0.0369126,0.0381402
-0.109405,0.0202284
-0.131066,0.0109307
-0.030511,-0.00301527
0.0761271,-0.0223143
0.0930946,-0.0256806
0.0453486,0.00189217
0.0785942,0.0263113
0.0580956,0.0192356
0.0203409,-0.015052
0.0106746,0.0100053
0.0593158,-0.017063
0.0975258,-0.0434456
0.0421463,-0.058333
-0.122208,-0.0270569
-0.210588,0.0460253
-0.0449047,0.0532675
0.00941725,0.00656967
-0.0140268,-0.0125315
-0.0469048,-0.0105032
-0.0875072,-0.00277067
-0.0837073,-0.0167779
-0.0633247,-0.0278219
0.0432536,0.0112216
0.160364,0.0227686
0.140114,0.00989728
0.135183,-0.0095111
0.108684,0.00521811
0.0505955,-0.0255951
0.018177,-0.0213862
-0.026594,0.000862161
-0.0378114,-0.00155361
-0.00675683,0.0218296
0.00212874,0.0372138
-0.0149322,0.0536096
-0.0869669,0.0196691
-0.135968,-0.0323544
-0.0834609,-0.00264139
-0.0602398,0.00464872
-0.107183,-0.00989061
-0.0454319,-0.00522315
0.103968,-0.00554009
0.138109,0.0294869
0.07085,0.0309918
0.0225004,0.0237808
-0.0197977,0.0360438
-0.0456943,-0.0295688
-0.0539912,-0.0800476
-0.0540491,-0.0226251
-0.039753,0.014015
-0.0478171,0.00916454
-0.000500163,0.015092
0.0550516,0.02672
0.0407844,-0.0280982
0.0656455,-0.0373746
0.122089,0.037017
0.065476,-0.0080834
0.0161651,-0.019948
-0.0380231,-0.00386074
-0.0738543,0.0174365
-0.0705947,-0.00101943
-0.0216603,-0.0335416
0.0528177,-0.0164049
0.0437824,0.0103668
-0.0639457,0.0263665
-0.147982,0.0395219
-0.103038,0.0201711
0.0399779,0.00786518
0.164083,0.0131998
0.133422,-0.0192441
-0.0150685,-0.0571718
-0.124194,-0.0378817
-0.0562079,-0.0273195
0.0119902,0.0166099
-0.0117188,0.0448988
0.00700904,0.0172575
0.114657,-0.00578721
0.169511,-0.0112972
0.164322,-0.0107531
0.0930869,-0.00655677
-0.000998821,-0.0015715
-0.0341821,0.00509599
-0.133944,0.015151
-0.184427,-0.00170699
-0.165078,-0.0164268
-0.104268,0.00666664
-0.0558665,0.0147987
0.0193212,-0.00970928
0.0218567,-0.0172396
0.00774905,0.0035624
0.0293062,0.0189973
0.0480404,-0.00784284
0.0448207,-0.01707
0.01113,-0.0170683
-0.030437,-0.0166649
-0.00376285,0.00465486
0.0417322,-0.032916
0.0450791,-0.0062587
0.0508353,0.0231422
0.0655472,0.0181156
0.0525618,0.0160864
0.0104308,0.0166651
-0.0453982,0.0793397
0.00376127,0.0413165
0.0695276,-0.0201539
-0.00494087,-0.0276096
-0.107076,-0.0082964
-0.107877,0.0118148
-0.0927627,0.00322315
-0.0300054,-0.0210274
0.0353979,-0.0352724
0.0380163,-0.0312889
0.0372456,-0.024192
0.0310496,0.00423014
0.00902991,0.0313507
0.0101279,0.00922977
0.00743274,-0.0237538
-0.00283019,-0.0106861
0.00564021,0.0146361
0.0351035,-0.012627
0.0369082,0.00301207
0.0466775,-0.010251
0.0246569,-0.00819944
-0.0172092,0.0077862
-0.047447,0.0247919
-0.0478283,0.0386325
-0.041934,0.0389183
-0.104016,0.016681
-0.095985,-0.0134381
-0.122395,-0.0283692
-0.123485,-0.0645339
0.0509158,-0.043195
0.102505,0.0190925
0.114401,0.0588326
0.123875,0.0648305
0.0525366,0.0110791
0.00917214,-0.0147087
0.00647684,0.00959537
0.0607646,-0.0576951
0.126701,0.0108405
0.108431,0.0590706
0.00591992,-0.00164965
-0.0149169,-0.00921574
-0.0047506,0.00356849
-0.00157293,-0.0338461
-0.0137681,-0.0169989
-0.0443787,-0.0179259
-0.0642297,-0.0274176
-0.120814,-0.0026649
-0.134967,-0.0164914
-0.0735864,-0.0257346
-0.0323728,-0.0171745
-0.00824472,-0.0150284
0.00803183,0.000368212
0.0186746,0.017352
0.030225,0.0276948
0.0321342,0.0270004
0.0309091,0.00519759
0.0182796,0.00424687
0.00714994,0.0087419
0.00342732,-0.00106327
0.00675942,-0.00744609
0.000563521,0.00626068
0.00596063,0.0120794
0.00330387,0.00660107
0.00642685,-0.00719377
0.0198368,-0.0117399
0.015062,-0.0178517
0.00480534,0.0146242
0.0147708,0.0246988
0.0120023,0.0149629
-0.0437175,-0.00418606
-0.0419596,0.0047047
-0.0264644,0.0198823
-0.032887,-0.00541577
-0.0354904,-0.0180872
0.0154625,-0.0187135
0.0303905,-0.0136311
0.00252091,-0.000377256
0.0291919,0.0202268
0.0664126,0.0119814
0.0449859,-0.0122037
0.0114436,-0.00309224
-0.0330778,-0.0102281
-0.0349331,-0.0482733
0.0246356,-0.0153075
0.0331376,0.0109407
0.016021,0.00203566
0.0360647,0.00214255
0.0145401,0.0233586
-0.0239109,0.0225418
-0.00732779,0.00463672
-0.0130392,0.00911675
-0.0109993,0.0120861
0.0160699,-0.00317639
-0.0148347,-0.00639461
-0.0454238,-0.00540354
-0.0023606,-0.00143339
-0.0267156,0.0289493
-0.0417563,0.00843359
-0.0195805,-0.010585
0.00756826,-0.0170024
0.0267611,-0.0160861
0.0160909,0.0102923
0.0174083,-0.00479075
-0.0284855,-0.0223019
-0.0549807,0.022486
-0.0113036,1.33e-05
-0.0283718,0.00176428
-0.074639,0.0205161
-0.044093,0.00787892
0.0216388,-0.018014
0.0824755,0.0219088
0.0517623,-0.0347747
-0.0165786,-0.0094352
0.00579707,0.0344087
0.0817446,-0.0115499
0.0876307,-0.0628169
0.0980609,-0.0353319
0.063429,0.0132003
0.0171874,0.0102592
-0.0202318,0.00189598
-0.0659081,0.026608
-0.0740241,0.0357481
-0.0236719,0.0166679
0.0201938,0.00373022
0.00685712,-0.0103318
-0.0120474,-0.0340259
-0.0310712,-0.0130848
-0.0716307,0.00919874
-0.050127,0.000613205
0.00721165,0.0400468
-0.0109682,0.0396871
-0.0308745,0.00232694
-0.0119699,-0.046519
0.0512896,-0.027975
0.05866,-0.0155368
0.0106083,-0.02174
-0.00349606,0.00510498
0.0151132,0.0141898
0.0100807,0.0283634
0.0214375,0.0171157
0.028242,-0.00190204
-0.0230311,-0.00576148
-0.0916449,-0.00979309
-0.0297947,-0.0138307
0.045523,-0.0128925
0.0249708,-0.0215204
0.00633723,0.000666381
-0.00396108,0.0295122
-0.00776332,-0.00755764
-0.0377013,-0.0239202
-0.0551684,0.00365908
-0.0201633,0.0500075
0.0125481,0.0806714
0.0348586,-0.0120796
0.0262817,-0.0438081
0.0399965,-0.0408087
0.101314,0.00435936
0.0921805,0.0105414
0.0366719,0.0356667
-0.0195211,0.055196
-0.0638411,0.0391536
-0.0820752,0.0050575
-0.0791257,-0.0552426
-0.0538643,-0.0460638
-0.0188784,-0.0217703
-0.0146643,-0.0213766
-0.0274462,-0.0131005
0.00151455,-0.00900473
0.0336111,-0.00796788
0.0166514,-0.00844542
0.0143108,0.0069692
0.0249124,0.0259854
-0.00384768,0.0171151
-0.0114927,-0.00777871
0.00879365,-0.0128826
0.0177482,-0.0118192
0.0186225,-0.0108471
0.0162788,-0.00030358
0.0156681,-0.00339201
0.0147677,0.000359388
0.0101008,0.0147853
0.00742795,0.00885108
0.00693408,-0.00965876
0.00187929,-0.0065369
0.00492165,-0.00563786
0.00153587,-0.00710411
-0.0196493,0.00454018
-0.0474216,0.0206853
-0.0704488,0.0371572
-0.0758083,0.0325847
-0.0306249,0.0181525
0.00904601,0.00404641
0.064648,-0.0125006
0.0683354,-0.0481312
0.0844351,-0.0254225
0.0727368,-0.0143371
-0.00903397,0.0242333
-0.0320789,0.0489505
0.0483779,0.0149302
0.0665223,-0.015645
0.0331454,-0.0250747
-0.024793,-0.0358781
-0.0222307,-0.00237172
-0.0474837,0.0356998
-0.130814,0.0058279
-0.14217,0.0035413
-0.0598828,-0.00356541
0.0411701,-0.00738744
0.0335813,-0.0108154
-0.049067,-0.0249831
-0.0688007,0.0334687
0.0108415,0.00998316
0.0765149,-0.0156814
0.11278,-0.0115367
0.0713229,0.00398991
0.0259188,-0.00143865
-0.00367358,-0.00503646
-0.0557701,-0.001018
-0.0461335,-0.000775099
-0.00261926,-0.00368867
0.0272722,0.00894096
0.0275514,0.0189196
0.0377082,0.00430651
0.0230325,-0.00483623
-0.00457694,-0.00889061
-0.0112382,-0.0137308
-0.00485114,-0.0157793
0.00817268,-0.00937858
0.00837641,-0.0084614
-0.000451969,-0.0109311
-0.00853528,0.0120349
-0.0490346,0.0270098
-0.0678695,0.0136273
-0.0337515,0.00451612
-0.00415537,-0.0109532
0.0263436,-0.0294619
0.0301224,-0.021153
0.029442,0.00461589
0.0462435,0.0280142
0.0478469,0.0137776
-0.00866212,0.0154898
-0.0223827,0.0290515
-0.0134198,-0.0168393
-0.0260145,-0.0265935
0.0103505,0.0401497
0.0665593,0.0388355
0.018567,-0.0222845
-0.0341721,0.0356868
-0.0408626,0.0161018
-0.0460875,-0.0011745
-0.0898409,-0.021894
-0.0655442,-0.0382976
0.0484741,-0.0312455
0.160133,-0.014046
0.127121,0.00789229
0.0532638,0.0583709
-0.0571385,0.0660331
-0.124019,-0.0395095
-0.0998378,-0.0970356
-0.0424747,-0.0111651
0.0190639,0.0369263
0.0763924,-0.0150876
0.0551357,-0.0475759
-0.0647218,0.0110368
-0.0746024,0.0286661
-0.00882214,0.00186381
-0.00512096,-0.00839246
0.0276052,-0.0080174
0.052628,-0.0104981
0.043621,-0.00842371
0.00673401,0.00255336
-0.00444728,0.00918635
-0.0338372,0.0049434
-0.038835,0.00657987
-0.00638092,0.00559069
0.0223543,-0.0037216
0.0296634,-0.0110381
0.0284877,-0.00290063
0.0304942,0.00327913
0.0162123,0.0149066
0.00628457,0.0268665
-0.0160123,0.0210395
-0.0285177,0.00643502
-0.0087736,0.0027735
0.0231187,-0.0005091
0.0122753,-0.0197708
-0.00872114,-0.0178657
-0.0135974,-0.00253004
-0.0014795,0.00047236
0.0172463,-0.0199951
0.0101781,-0.0107276
-0.012875,0.00696919
-0.00987056,-0.0094957
0.00232153,-0.022028
0.0290291,-0.014974
0.0517872,0.00114754
0.015545,0.022451
-0.0354807,0.024352
-0.0468297,-0.00347001
-0.0702296,0.0129795
-0.0911482,0.0429954
-0.0764348,0.00854367
-0.0170511,-0.0152047
2.79e-05,-0.00105606
0.00106912,0.0211907
0.0128181,0.0194788
0.0973097,0.00652698
0.0646684,-0.0141049
0.0339679,0.000402541
0.0434064,0.00769073
-0.0512875,-0.0350546
-0.0608759,-0.0295654
0.0560316,-0.00241682
0.161319,-0.00223705
0.0952232,0.0106636
-0.0204006,0.0329816
-0.0537615,-0.0129323
-0.0961633,-0.0164991
-0.103622,-0.00868951
-0.108832,-0.0267171
-0.0355308,-0.0421055
0.0399017,-0.00890991
0.0430785,-0.000790745
0.0122908,0.00464057
-0.00736424,0.008494
-0.0210811,0.00306725
-0.0302419,-0.00129497
-0.0218383,0.00294279
0.0317482,0.00440343
0.043153,0.0131567
0.0188869,0.0287248
0.0166485,0.0351746
0.0248952,0.0229827
0.0293185,-0.0178977
0.0385134,-0.0121683
0.0344716,-0.0124003
-0.00521788,-0.00234087
-0.0198722,0.0174655
0.00623427,0.0116892
-0.0257047,0.00464702
-0.0260376,0.00672584
0.0401209,-0.000546318
0.093519,-0.00405718
0.0897745,0.0027369
-0.00412862,-0.00993908
-0.107702,-0.00764359
-0.0728309,-0.0010619
-0.0421129,0.00212764
-0.0339578,0.00298158
-0.0349716,-0.014608
-0.0394602,-0.00539827
0.0258326,0.00609427
0.0704304,0.00188215
0.031635,-0.00559536
0.00170461,0.0150581
0.0166944,0.0155245
0.0485289,0.0109839
0.0586857,0.003249
0.0488806,-0.0237024
-0.0197103,-0.0328113
-0.0989612,-0.0116329
-0.0407281,-0.0024491
0.0272175,0.000106632
-0.0252805,0.00645261
-0.0557539,0.0095157
-0.0194264,0.00100859
-0.00758653,-0.00510739
-0.030387,-0.00490185
-0.0513855,-0.0136025
-0.0418834,-0.00226923
-0.0200602,0.00666829
0.00825308,0.0175315
0.0298246,0.0215979
0.0430921,0.0154503
-0.00363004,-0.0171888
-0.045295,-0.0211354
-0.0296275,-0.0113319
0.00697124,0.0111046
0.0763335,-0.00114342
0.0698119,0.0299685
0.0406195,0.015577
0.0645628,0.00415483
0.0349616,-0.0238233
-0.0309065,-0.0297213
-0.0418704,-0.000575146
0.00258204,0.0082506
0.0617596,-0.00568876
0.053439,-0.00353466
-0.0202294,-0.00115258
-0.0542439,0.0121589
-0.0363029,-0.0151245
-0.00377823,-0.0119195
0.0135035,0.00683234
0.010869,0.0104099
-0.0594653,-0.0155443
-0.0432219,-0.0105306
-0.0406563,0.0263091
-0.024902,0.0152685
0.0136409,-0.0090131
0.0351632,-0.0249656
0.0116601,-0.02017
-0.0278403,-0.00849018
0.00271365,-0.0151892
0.047293,-0.021579
0.0225456,0.00409892
-0.0143044,0.0218377
-0.0686896,0.0280811
-0.0719005,0.0298862
0.00703497,0.00405669
0.0590606,-0.0232191
0.0570191,-0.0182395
0.0449201,-0.00462072
0.0369985,0.00941879
0.0209798,0.0169021
0.0354867,0.0138274
0.0364789,0.0174301
-0.0046612,0.0248373
-0.01567,0.00804795
-0.00568321,-0.004432
-8.22e-05,-0.0202217
-0.00175366,-0.00267796
-0.0384682,0.0300712
-0.0569825,0.0117282
-0.0426341,-0.0285243
-0.00782249,-0.00178358
-0.00937036,0.0147664
-0.0253347,0.0164261
-0.00454858,0.0133212
-0.0139087,-0.0158916
-0.010617,-4.54e-05
-0.0030689,0.0413587
-0.0297511,0.0479976
-0.057967,0.00325977
-0.0153209,0.00324301
0.0444104,-0.0479554
0.0809432,-0.0587581
0.0472381,-0.0445249
0.010818,-0.0327097
0.0175861,0.00236966
0.0537303,0.0148048
0.0521386,0.013477
0.0206828,0.00159587
-0.0255404,-0.0167472
-0.0654475,-0.018068
-0.0401684,-0.0074609
-0.012288,-0.00672311
-0.0194348,-0.00917972
1.56e-05,0.0158814
0.0452686,0.00745834
0.0389183,-0.00298713
0.00974136,0.00246973
-0.00466678,0.00685403
-0.0182446,-0.0044581
-0.0218056,-0.0240355
-0.0138107,0.00467832
-0.0102096,0.0315394
0.00788445,0.0156215
0.00492696,-0.00359188
-0.00886864,0.0100541
0.0394243,0.00332964
0.0703403,0.007699
0.0439577,0.0423485
-0.0484211,-0.00101322
-0.148804,-0.0414975
-0.0838987,-0.0628432
-0.00618508,-0.0144027
0.0212953,0.0390439
0.0119183,0.0237281
0.0146603,-0.0133503
0.00473233,-0.0296809
-0.000335329,-0.00640471
0.0406545,0.0207751
0.092758,0.0153448
0.0884205,0.0223845
0.0406897,0.0192154
0.008315,0.00850718
-0.0377718,-0.0125657
-0.0748349,-0.0110577
-0.0673556,0.00647035
-0.0478459,0.0315394
0.0161751,0.0816179
0.0475079,0.0473963
-0.0332639,-0.0432987
-0.0595766,-0.0717481
0.0249217,-0.0353535
0.047839,-0.00623455
0.012392,-0.0195046
-0.0439666,0.0123268
-0.0611144,0.045882
0.0422016,0.00995267
0.0733642,-0.0572393
-0.03784,-0.0192215
-0.0515722,-0.017025
-0.00519293,0.0357225
-0.0570467,-0.00796011
-0.0845392,-0.0184816
-0.0286079,-0.00875179
0.0306164,0.0198986
0.100353,0.0078644
0.149058,-0.011453
0.10483,-0.00354985
0.0432897,-0.00419966
-0.0271932,-0.0108566
-0.0445158,-0.00955985
-0.0437696,0.00375555
-0.0422364,0.0124334
-0.0415962,0.00152178
-0.0205306,-0.00863097
-0.00810537,-0.000237574
0.00578302,0.011543
0.00114536,0.00366667
-0.00744381,-0.00238817
-0.0129479,-0.00186848
-0.015986,0.0158691
0.0240286,0.0218313
0.0829094,0.000332787
0.139271,-0.0219776
0.104834,-0.0216138
-0.023277,-0.00876537
-0.117879,-0.0141994
-0.11068,-0.0190994
-0.0584334,-0.00564968
-0.0107921,0.0319259
-0.00534838,0.0471
-0.00606149,0.0265836
-0.0250852,-0.00403343
-0.0869787,-0.00941948
-0.0185622,-0.00465957
0.0754717,0.000976391
0.0762597,0.0148442
0.0447276,0.0334265
0.00331468,-0.0203038
-0.0206753,-0.0370705
0.031024,-0.00765382
0.0717925,0.033991
0.0844069,-0.0275304
0.0970675,-0.0371875
-0.062918,-0.01172
-0.20346,-0.00325863
-0.109636,0.0286987
-0.100677,0.100068
-0.112812,0.0418404
0.0469717,-0.067937
0.0974401,-0.0707736
0.0760109,-0.038998
0.0812131,-0.0271054
0.0317053,0.0110378
-0.0156169,0.0441841
-0.0275605,0.0175497
-0.00660175,-0.00662383
0.0130498,-0.00321803
-0.0134368,-0.00768738
-0.0461462,-0.00774108
-0.0211662,-0.0131597
0.0500608,0.000700555
0.0687623,0.0423375
0.0415294,0.077018
0.00670322,0.0100801
-0.0195904,-0.064119
0.0039163,-0.0505165
0.00775358,-0.0179898
-0.0156376,0.00166013
-0.0654743,0.0105122
-0.0737957,0.0215748
-0.0145304,0.0466098
0.0477082,0.0159169
0.0152802,-0.0239147
0.00301367,-0.00288016
0.00940495,0.00904931
0.000783036,0.0104286
0.00750112,-0.00967273
0.0177728,-0.0175669
0.0619886,-0.0134445
-0.00166624,-0.0109294
-0.0396664,0.00590203
0.0300771,0.0132311
0.0135715,0.0139539
-0.00209818,-0.00407408
-0.00837232,0.0189126
-0.0456684,0.00653799
-0.0503958,0.0133585
-0.0268358,0.0189761
-0.0197251,-0.000959851
-0.0137656,-0.00301739
-0.0208221,-0.0347305
-0.0210775,-0.0376159
0.0536688,-0.0132746
0.166157,-0.0113837
0.162243,0.0246501
0.108365,-0.0149452
0.0140635,-0.00261904
-0.0912863,0.0104948
-0.106494,-0.00433841
-0.0819735,-0.00592231
-0.054886,-0.0118148
-0.0114398,-0.0126801
-0.0212171,0.0144695
-0.0586267,0.0393156
-0.0483638,0.0197201
0.0217791,-0.00874109
-0.00132913,-0.00106492
-0.0869551,-0.00702059
-0.036618,-0.0186105
0.0370167,-0.0161798
0.019205,-0.0024265
0.0148458,0.0102986
-0.00669412,0.0123354
0.0102977,0.00532535
0.0360427,0.0113508
0.0241346,0.0167419
0.0273387,-0.00481265
0.0393014,-0.0229221
0.0863121,-0.0211327
0.130337,-0.00903861
0.10447,0.00266703
0.0394013,0.0105288
-0.0266623,-0.00628107
-0.136932,-0.0289912
-0.173298,-0.0222913
-0.0262916,-0.0261951
0.0270522,0.000411263
-0.027841,0.0194844
-0.0366946,0.0169494
-0.00932212,0.00879437
-0.00172886,0.0131032
-0.0707428,0.0342199
-0.0946415,0.0373231
0.00716531,-0.00337322
0.115572,-0.0391868
0.109652,-0.00451533
0.0462258,0.0169581
0.0566808,0.00835824
0.0395231,0.00403961
-0.027647,0.0519118
-0.00148572,0.0138579
0.0595989,-0.0373054
-0.0173484,-0.0435214
-0.108198,-0.0197076
-0.120397,-0.00231162
-0.0845179,0.017224
-0.0348077,0.0550926
0.0272973,0.0308599
0.0356591,-0.0451437
0.033828,-0.0570257
0.0290101,-0.030072
0.0326907,-0.0065557
0.0344294,0.0049086
0.0203501,0.0234365
0.0040473,0.0266834
-0.0606995,7.91e-05
-0.0703026,0.0168529
-0.0278843,0.0228692
0.0719092,0.0143057
0.0817749,0.00416992
-0.0107095,-0.00880388
-0.0363566,-0.0021663
-0.0448386,0.00983287
0.0109833,-0.0392495
0.0608944,-0.0208065
-0.0094005,-0.00229226
0.00173575,-0.00499811
0.0514035,0.00308975
0.0364661,-0.0129724
0.0103457,0.0315689
-0.0168413,0.0378824
-0.0378949,0.0302881
0.0263855,-0.0130503
0.00599309,-0.0408444
-0.0579743,-0.0511672
-0.044358,-0.0219727
-0.020254,0.00628203
-0.00802502,0.004126
0.0529319,0.0103943
0.0680556,0.0289047
0.06021,-0.0103697
0.0080916,-0.0164592
-0.0157848,-0.0099318
0.017137,-0.0191665
0.0203837,-0.0274134
0.0176261,-0.0127065
-0.00776688,0.040294
-0.0745033,0.0642719
-0.107746,0.0225002
-0.050901,-0.00536179
-0.00512492,0.0343299
-0.00948427,0.0130272
0.0106787,-0.0540087
-0.0304725,-0.0460479
-0.0571083,0.00605986
0.0142169,-0.00595854
0.114554,0.00581709
0.107712,0.00484395
0.0282402,0.0296842
-0.0537613,0.0293286
-0.0541563,0.0172567
-0.0153848,0.0173408
0.0284057,-0.0343371
0.000550965,-0.0251245
0.000410954,-0.00073604
-0.0122034,-0.0148112
-0.0506238,-0.0242146
-0.0389729,0.0182846
0.0443192,-0.000168149
0.0691033,-0.0432839
0.0177887,-0.0139007
-0.0211833,0.0170024
-0.0235965,0.00343336
-0.0253255,-0.000125913
-0.018817,0.0119789
-0.00336639,-0.00912223
-0.00110237,-0.0511555
-0.0420729,-0.0254086
-0.0781853,0.0209458
-0.0943308,0.0569407
-0.0433916,0.056828
0.049577,0.0195795
0.151373,-0.0286516
0.0918864,-0.0435296
0.0702305,-0.00337539
0.137539,0.0755009
0.118,0.0575591
0.0771241,0.0599031
-0.0237193,0.0173867
-0.120008,-0.0613431
-0.0700254,-0.0524992
0.0382477,-0.02355
0.0381676,-0.0124364
-0.0569346,-0.0275477
-0.12014,-0.0313922
-0.0968606,-0.00815787
-0.160946,0.0285377
-0.159702,0.0475396
0.0065419,-0.0109007
0.123454,-0.0122662
0.102354,0.0343503
0.0648227,0.0260697
0.0826379,-0.00548884
-0.0312529,-0.0256788
-0.182215,0.00648083
-0.150672,0.0148945
-0.0604873,0.0437395
0.117476,-0.0426774
0.270361,-0.0888809
0.310485,-0.0476481
0.238013,-0.039675
-0.0546762,-0.0111913
-0.195211,0.000940357
-0.143944,0.00728943
-0.0862224,0.00203803
-0.0522583,0.00173397
-0.0032834,0.00832991
0.0909928,0.0247276
0.148381,0.0402084
0.0639023,0.0643055
-0.064331,-0.00168625
-0.156272,-0.0124783
-0.263648,-0.0008203
-0.249924,-0.00519287
-0.123538,-0.0231401
0.00483708,0.00194956
0.130653,0.0310957
0.2126,0.0224233
0.176328,0.0284109
0.0580463,0.00398122
-0.0266979,-0.0238309
0.0221901,-0.00402125
0.130241,0.00295537
0.0689884,-0.0416787
-0.0332537,-0.0291549
-0.0464975,0.00172199
-0.0805169,-0.00678008
-0.0540246,0.0644115
0.132151,-0.0389705
0.222358,-0.0528804
0.178832,-0.0070749
0.0472935,0.0101669
-0.130361,-0.0052109
-0.238477,-0.0239942
-0.179412,-0.0107583
-0.0846342,0.0136825
-0.0849844,0.0449855
-0.0732324,0.0588607
-0.106829,0.0407948
-0.0954405,0.0258157
0.00705435,0.0232294
0.00425942,0.00360718
-0.022936,-0.0210631
-5.16e-05,-0.0237272
0.0678218,-0.00456416
0.0781299,0.0129046
0.0501808,0.00393914
0.0300625,0.00861029
0.0292197,-0.020749
0.0293055,-0.0419753
-0.00483048,-0.0259006
-0.0222859,-0.01114
0.0112978,-0.0104294
0.0490624,0.00535392
0.0483136,0.0125887
0.017806,0.0269049
0.052952,-0.00781549
0.11462,-0.0479798
0.0926896,-0.029695
0.0831615,-0.0288389
0.0531189,-0.0117383
0.00280741,0.000179433
-0.0158362,0.0136474
-0.0635652,0.0229776
-0.0838573,-0.0104125
-0.0123218,-0.0238622
-0.00723128,-0.00950185
-0.0879148,0.0125345
-0.107346,0.0309812
-0.0498165,0.0424918
-0.00735644,0.0211827
0.0262739,0.00402777
0.185776,0.0102842
0.316719,-0.0185559
0.261443,-0.0270617
0.0577295,-0.0105812
-0.231273,0.00262974
-0.391979,0.0825568
-0.270592,0.0846213
-0.179143,-0.0526095
-0.178082,-0.0424672
-0.0772839,-0.00705066
0.0437228,-0.0118422
0.0597172,-0.00556947
0.0465146,-0.0206114
0.0202761,-0.0313579
0.0550828,-0.016272
0.0727493,-0.000357457
0.0318312,-0.00475007
0.0216006,0.0230329
0.0188384,0.0592746
-0.0224336,0.0547374
-0.0183601,0.0472439
0.0898768,0.00722563
0.16139,-0.0453258
0.0492648,-0.0219031
-0.0158225,0.0198736
-0.0192645,0.00615607
0.0116848,0.00443
0.0556709,-0.0280902
0.0676222,-0.0628779
-0.000451103,-0.0354985
-0.0105936,0.0115023
-0.0146239,0.0057187
-0.0477674,-0.0106181
-0.0533733,-0.0119313
-0.0304878,0.0098594
-0.00987765,0.00988222
-0.00164592,-0.0108813
-0.0177973,-0.00575842
-0.0266299,0.0190946
0.00834609,0.0150196
0.051569,0.0207477
0.0680608,0.000230652
0.0622496,0.0120436
0.00178752,0.0191364
-0.0688227,-0.00929537
-0.0568165,-0.000579922
-0.0420428,-0.00549306
-0.0788772,-0.0184739
-0.0490503,0.00468756
-0.000617705,-0.00201997
-0.00191661,-0.0053868
0.0334356,0.0308128
0.0580635,-0.0114957
-0.0242225,-0.0169754
-0.0532732,0.00490096
-0.00680345,-0.00507307
0.0433191,-0.0158585
0.0648156,-0.00978929
0.0649833,0.0162588
0.0567487,-0.00288136
0.00806607,-0.01921
-0.00837969,-0.0287935
0.00201013,-0.0229491
0.0129055,-0.011066
0.00205931,0.0146197
-0.00831874,0.0156999
-0.0102134,-0.00796996
-0.0640749,-0.0125131
-0.0941247,0.00969567
-0.0350398,0.00475842
0.014977,0.0272147
0.0272882,0.0843304
0.0145681,0.0391505
0.0589094,-0.0124542
0.0471547,-0.0248264
-0.0516586,-0.0516243
-0.0654123,-0.0688587
-0.101852,-0.000240356
-0.0561615,0.0407125
0.0352513,-0.0111543
0.0623128,0.0101573
0.0275346,0.0227953
0.0330547,0.0447844
0.0368427,0.0104219
0.0247048,-0.0177773
-0.00986734,-0.0104607
-0.027075,-0.0168594
0.0210711,-0.0651021
0.0272282,-0.0298399
0.0268175,0.00471693
0.0721448,0.0309934
0.110834,0.0228504
0.0896966,0.00311977
0.0422137,0.00948451
-0.025348,0.00639462
-0.119666,0.0333585
-0.177748,0.0323354
-0.131858,-0.000483451
-0.0441417,-0.016484
0.0132673,-0.0214828
0.0125921,-0.00864123
-0.0318561,-0.00834823
-0.0620171,-0.00723299
-0.0116879,-0.0177887
0.0218918,0.0139331
0.0661373,0.0816312
0.0904834,0.0136919
0.0110987,-0.0226916
-0.0148708,-0.00724092
0.0651155,-0.0153803
0.0660742,-0.0182269
0.0141951,0.00627688
-0.0659078,0.00349631
-0.093169,-0.0108015
-0.0135047,-0.0119049
0.0662511,0.0437135
0.0420982,-0.0362574
0.0104733,-0.0601947
0.000808758,-0.0179019
-0.00886041,-0.0293353
-0.0382602,0.00137046
-0.047053,0.00205197
-0.0316918,-0.00226689
-0.0137117,0.00205579
0.00620353,0.00265319
0.012594,0.0207909
0.0209428,0.00613136
0.0260327,-0.00230088
0.0199247,0.0210991
0.0284395,0.0255709
0.0633143,0.0155477
0.055431,0.00325302
-0.0294398,-0.00141305
-0.142474,0.0538439
-0.137318,0.0828827
0.00422633,0.023095
0.073557,-0.0664593
-0.0302764,-0.0600025
-0.079662,0.0406681
-0.0421988,0.0375923
-0.00127054,-0.0501281
0.0294497,-0.0444122
0.0566329,0.00332942
0.0955206,-0.00145266
0.137976,-0.0172114
0.164723,-0.0186941
0.106337,-0.0090468
0.00194139,0.00255918
-0.0572143,-0.0100142
-0.0677486,-0.0240657
-0.0614635,-0.0210852
-0.0364851,0.000158058
-0.035361,-0.00294097
-0.0483058,-0.0138843
-0.0393445,-0.00226477
-0.0234844,0.010816
-0.0195064,0.00304393
-0.000766126,0.0270705
0.000571566,0.0443953
-0.00824267,0.015192
0.00161753,-0.015798
-0.00887219,0.014102
-0.026017,0.0200489
-0.0217474,0.00917281
-0.0194378,0.0214557
-0.0197271,0.021463
0.00048302,-0.00649928
0.0152586,-0.0208339
0.0193548,-0.0172188
0.0293704,-0.0145908
0.0398214,-0.0223121
0.0297234,-0.0100461
-0.0149081,0.0389215
-0.0628677,0.0300194
-0.0944286,0.00476836
-0.0852214,-0.00908497
-0.0590868,-0.00268156
0.00321024,-0.00832558
0.0547348,-0.000934234
0.0920503,0.0249512
0.111821,0.0187177
0.116551,-0.00869002
0.102929,-0.0327993
0.0366664,-0.0513776
-0.00845621,-0.0413009
-0.056123,-0.0354019
-0.0961203,-0.0298877
-0.08498,-0.0158119
-0.0663352,0.00523754
-0.0234554,0.00989026
-0.0385874,0.000354903
-0.0770502,0.0102852
-0.0189186,0.023384
0.0940334,0.0127466
0.198052,0.00384359
0.394161,0.0163576
0.383739,0.0292491
0.165432,0.0406656
-0.0378988,0.0414012
-0.0966301,0.0220816
-0.0725558,0.00695665
0.217072,0.013765
0.280431,0.0161957
0.0743192,0.0118022
-0.133651,0.00835294
-0.553157,0.00501864
-0.853208,-0.0123441
-0.565804,-0.0258997
-0.213886,-0.0227957
-0.112055,-0.017643
-0.142669,-0.0105908
-0.102731,-0.000717835
-0.0506305,-0.00166948
-0.0227004,-0.0100354
0.04384,-0.0201003
0.142575,-0.0325391
0.270232,-0.0454305
0.451819,-0.0441885
0.500192,-0.022629
0.540716,-0.00971579
0.621764,-0.00638087
0.38037,0.00348552
-0.0183287,0.0214723
-0.377912,0.0184872
-0.694833,0.0139685
-0.607064,0.00944763
-0.243021,0.00584102
0.03114,0.00264302
0.147597,0.010224
0.226586,0.0118413
0.424588,0.0262338
0.56165,0.0365945
0.4133,0.0194596
-0.00214976,0.00268705
-0.440601,-0.00305833
-0.824999,-0.0044721
-0.953977,-0.00630342
-0.756108,-0.00284577
-0.31293,0.0120144
0.0174979,0.00892648
0.34186,-0.00954298
0.74303,-0.00823177
0.644357,0.00123958
0.274665,0.0085228
-0.128781,0.00194187
-0.372268,-0.00542901
-0.213845,-0.0131813
0.255599,-0.0147556
0.378383,-0.0157823
0.0762538,-0.0246165
-0.230869,-0.0352668
-0.492965,-0.0316693
-0.41432,-0.0155905
0.329942,0.00224249
1.09102,0.0223694
1.90929,0.0517018
2.01869,0.0476557
0.995899,0.0230517
-0.338889,-2.49e-05
-1.6707,-0.0244239
-2.11037,-0.0298971
-1.64157,-0.0154625
-1.0348,-0.00145899
-0.539953,0.00928434
-0.238006,0.0245419
-0.106161,0.0261288
0.0462446,0.0132815
0.114204,0.00434865
0.10425,0.00305103
0.0926196,-0.00515002
0.101447,-0.0119337
0.132499,-0.00966183
0.212171,-0.00308719
0.386836,-0.00361455
0.497279,-0.00381989
0.409141,0.0039061
0.172593,-0.00310468
0.0253546,-0.020856
0.0399178,-0.00794209
0.107478,0.00497962
0.192508,0.0149013
0.252543,0.0230736
0.15733,0.016392
-0.0116234,-0.00472884
-0.20192,-0.0147681
-0.310921,-0.0107292
-0.259747,-0.00710874
-0.183939,-0.00365317
-0.0945732,0.00423472
-0.0210941,0.00326014
0.102519,-0.0095501
0.357242,-0.00742257
0.500658,-0.00265431
0.495421,-0.00636467
0.270893,-0.0175462
-0.107872,-0.0181078
-0.199985,-0.00916585
-0.227837,0.0158017
-0.301941,0.0321999
-0.216973,0.019082
-0.0994074,0.00661607
-0.0587464,0.00302564
-0.075025,-0.00142121
-0.0761468,-0.0058251
-0.0567171,-0.000555141
-0.034111,0.0102174
-0.0284711,0.00729376
-0.0228599,0.0037
-0.0100261,0.00856315
0.022756,-0.00028535
0.0669114,-0.0123874
0.0967782,-0.0123355
0.113328,-0.00238784
0.136534,0.0109577
0.118807,0.0424421
0.0592589,0.0446045
-0.011467,0.0253439
-0.0607822,0.00210655
-0.0944032,-0.00926556
-0.0923351,-0.0193264
-0.0790255,-0.0371268
-0.0523165,-0.0285107
-0.0181818,-0.0120756
-0.00435643,-0.0147811
0.0054557,-0.0167642
0.0622619,-0.0151239
0.106817,-0.0194508
0.0597745,-0.0171656
-0.0153931,-0.00385403
-0.0747123,0.00654006
-0.107683,0.0136375
-0.0688293,0.0177191
0.00975126,0.00765592
0.0178376,-0.000867744
0.00253811,-0.00103586
-0.00588399,-0.00379688
0.0397443,-0.00787175
0.0254673,-0.00809819
-0.0375867,0.00500706
-0.0771704,0.0143722
-0.131679,0.00842845
-0.0984728,0.00776692
0.0294138,0.00673877
0.13578,0.0039651
0.0988265,0.00126364
0.0382977,0.0063771
0.171074,0.0067484
0.221694,0.0101444
0.054473,0.00555248
-0.178299,-0.0149011
-0.214838,-0.023463
-0.173989,-0.0124607
-0.13156,-0.00535623
-0.0554202,-0.0113372
-0.0194473,-0.00998719
-0.00765869,0.00502244
-0.0200801,0.0117641
-0.0441173,0.00614482
-0.0566051,0.00777942
-0.020035,0.00334053
0.0404105,-0.00143781
0.0997578,0.00306564
0.11148,0.0114415
0.0750208,0.00795997
0.0244199,0.0132419
0.012466,0.0117867
0.0541557,-0.00206843
0.0768043,-0.00928656
0.0633164,-0.0113629
0.0648627,-0.0153458
