Comp Ch 3,Comp Ch 4
-0.00114418,0.0151546
0.00146053,0.00355392
0.0105806,0.0103469
0.00859476,-0.00279395
0.00417978,-0.0417974
-0.00497506,-0.0418244
-0.0184538,-0.00834673
-0.0125086,0.0212504
0.00442851,0.00220119
0.00439642,0.0105657
-0.000498083,-0.0180441
0.0205572,-0.0244068
-0.0013749,0.00468828
-0.0277327,-0.0139504
-0.05273,-0.00758228
-0.051601,0.0321307
-0.0551631,0.0411868
-0.0172229,-0.0237665
0.0155311,-0.0627518
0.0252391,0.0011018
0.0207331,0.0111986
0.0379399,0.0251697
0.0824236,0.0263594
0.0698879,0.00717457
0.0182829,-0.0069302
-0.00954414,0.0649633
-0.0226936,0.0800411
-0.0223693,0.0204555
-0.00981396,-0.0363347
-0.00357015,-0.01289
0.0107815,-0.0703
0.0150816,-0.0499093
-0.00121428,-0.0244679
-0.0206961,0.0124647
-0.0102178,0.0203665
0.000689294,0.0128805
-0.0064288,-0.00562755
0.00340658,-0.00328637
0.016533,-0.00971122
0.0188184,-0.0107303
0.00871136,0.00748026
0.0083374,0.0104133
-0.0251819,0.0184256
-0.0748198,0.00793088
-0.0348934,0.00371281
0.0244692,-0.0368565
-0.00534945,-0.0479463
-0.0235834,-0.0268438
-0.00250272,-0.00108445
0.00744258,0.0259929
0.00909739,0.0472837
0.0129317,0.0450989
0.0467741,0.0174951
0.0527751,-0.0172564
-0.00263097,-0.0289535
0.00914014,-0.0299148
0.0523815,-0.0265691
0.0148699,-0.0164147
-0.0373908,0.0055817
-0.0354647,0.0242354
-0.0932474,0.0201775
-0.13199,0.0143614
-0.0395826,0.00204238
0.0405169,-0.00472893
-0.0680737,-0.0071809
-0.168391,-0.0165825
-0.116522,-0.00287387
-0.028333,0.0219582
0.0238138,0.0205058
0.101574,0.00652293
0.254824,-0.0311265
0.291685,-0.0440367
0.199949,-0.0351468
0.0836168,-0.0210086
-0.0136842,-0.00940668
-0.0418445,0.0147304
-0.0519517,0.0286881
-0.0463992,0.0160832
-0.0135407,0.00646322
0.0100056,-0.00262949
0.0266591,-0.0115442
0.014223,-0.00809634
-0.00392474,0.0145862
-0.0182544,0.0397984
-0.0621883,0.0291258
-0.0815113,0.0134447
-0.103797,0.00156643
-0.111293,0.00426526
-0.129446,0.000505661
-0.142589,-0.0219998
-0.0349085,-0.0231284
0.0526527,0.000620723
0.0559311,0.06715
0.0827368,0.0396476
0.132408,0.0208243
0.145674,-0.0205693
0.101548,-0.0476359
0.046687,-0.0379662
0.0248494,-0.0653288
-0.0208794,-0.0208454
-0.0396307,0.0302515
-0.0406274,0.0551302
-0.0266409,0.0510948
-0.0405838,0.0257839
-0.0819775,0.0108304
-0.0891576,0.0286125
-0.0179678,-0.019818
-0.0220855,-0.104553
-0.0585266,-0.0350664
-0.0436638,0.0197165
0.0136858,0.0314863
0.0335679,0.00227495
0.0319567,0.0292014
0.0164644,0.0291742
0.00682641,-0.00236316
0.0371956,-0.0457336
0.030862,-0.012873
0.0102437,-0.00394992
0.0128442,-0.00409864
0.0135775,0.0194719
0.0209866,0.029391
0.0178513,0.0201855
0.0071828,-0.0554048
-0.00771181,-0.0282934
-0.0107686,-0.00307506
-0.00695874,0.0108014
-0.00209969,0.0261794
-0.00514251,0.0290394
-0.00569804,-0.007181
-0.00353979,0.00975158
0.00367901,-0.0494361
0.0150077,-0.0511505
0.0217778,-0.0269965
0.010588,0.0311606
0.0121835,0.0154129
0.0310004,-0.0120219
0.035638,0.00422268
0.0227574,-0.0137713
0.0095797,-0.0274347
-0.0064563,0.0132458
-0.016696,0.0475496
-0.0210967,0.0229363
-0.0337836,0.0171387
-0.0466386,0.0285272
-0.0372845,0.00855312
-0.0215682,0.0188626
-0.0301067,0.00195666
-0.0192107,-0.0478103
0.0211962,-0.0352254
0.0322585,-0.0181279
0.0225265,-0.00805348
0.0213738,-0.0084911
0.0313317,-0.00117554
0.0330455,0.00272807
0.0137291,-0.00685039
-0.014249,-0.0236978
-0.00975092,-0.0231537
-0.00334093,-0.0130724
-0.0296965,0.0203317
-0.032803,0.0410031
-0.0300499,0.0233988
-0.0562835,0.011027
-0.0326275,0.00869279
0.0207778,0.0166353
0.0324084,-0.00972238
0.0434141,-0.0226386
0.0277416,0.00628323
-0.0435863,0.0319294
-0.105811,0.00531426
-0.0908014,-0.0185511
-0.053136,-0.00761415
0.0470662,-0.0116883
0.0775531,-0.0437806
0.0714908,-0.0242448
0.0631821,0.000960514
0.0503669,0.0109156
0.0406451,0.03
0.0337141,0.00707351
0.0422534,-0.0349208
0.00932663,0.0169232
-0.0169065,0.00394072
-0.0134462,-0.0116978
-0.0183317,0.00152219
-0.00406338,0.0206262
0.00367095,0.0110393
-0.0306902,0.0100653
-0.0172228,0.00584339
0.0238305,-0.00607349
0.0488769,-0.00517558
0.0224519,0.0167157
-0.0115126,0.00645452
-0.0242097,0.00926915
-0.0291569,0.017292
-0.0398047,0.0264951
-0.0333352,-0.0235855
-0.0403125,-0.0318767
-0.0432722,-0.00177012
-0.034184,-0.0184283
-0.0162202,-0.0346806
0.0144684,-0.0149099
0.0414489,0.0290162
0.0504131,0.0391585
0.04786,0.0416028
0.0327191,0.0479358
-0.0042461,0.00719209
-0.0103605,-0.0189484
-0.0201161,0.0490909
-0.017568,-0.0443725
-0.0202292,-0.0895991
-0.0252586,-0.0157544
-0.0442566,0.0215708
-0.031918,0.0177899
0.012495,0.0183549
0.0459759,0.0105259
0.0543876,-0.0350858
0.0473155,-0.0469651
0.0295678,-0.0387368
0.00340321,-0.00577545
0.00319896,0.0132298
0.0112321,0.014114
0.0112964,0.00220569
0.0047771,-0.00033513
-0.00921431,-0.00215902
-0.0275179,-0.00507079
-0.0480637,0.00446045
-0.0501307,0.0333945
-0.0429884,0.0578122
-0.0299057,0.0180552
-0.0096646,-0.0243832
-0.00129801,-0.00877922
0.00946361,-0.0222389
-0.000429315,-0.0124117
0.00685573,-0.00679015
0.0118856,-0.00837915
0.0122035,-0.00270528
0.0277006,-0.022145
0.0249934,0.00622207
0.0299995,0.0339793
0.0338737,0.0108186
-0.00304448,0.012943
-0.00618598,0.0231966
0.00560573,-0.0414869
0.0240695,-0.0233494
0.0291531,-0.00187595
0.0255959,-0.0100214
0.00843699,0.00215924
-0.0282167,0.00192809
-0.027059,-0.0346703
-0.0143034,0.0558548
-0.00904531,0.0928568
-0.026132,0.00121477
-0.0401471,-0.0793379
-0.0235554,-0.020201
-0.00502269,0.00720278
-0.01051,-0.00647409
-0.0070303,-0.00191725
-0.0141529,0.00518136
-0.0308273,0.0150367
-0.0271811,0.0248443
-0.00233893,0.0229873
0.0299948,0.000164235
0.0390956,-0.0132105
0.0495354,-0.0141557
0.0304592,-0.0141695
0.0155959,-0.0198606
0.00732118,-0.0236825
-0.00625891,0.000530018
-0.0104471,0.0280813
-0.00158079,0.0243853
0.00417673,0.00940307
0.00400058,-0.00209445
0.00638204,-0.0111479
0.00503801,-0.0084967
-0.0162666,0.0160922
-0.022289,0.0269718
-0.0267573,0.0266136
-0.0292304,0.0307892
-0.0309063,-0.0254973
0.0170083,-0.0476978
0.0517055,-0.0381213
0.024129,-0.0225922
0.00893986,-0.0244763
-0.00189381,-0.0175366
-0.0106749,0.000692678
-0.0106646,0.0244627
-0.0047945,0.035243
0.0060748,0.012401
0.0164707,-0.0405102
0.0160779,-0.0423705
0.00274805,0.0118901
-0.00688991,0.0256638
0.00284524,-0.00516227
0.00384771,-0.0135189
0.000210181,0.0096781
0.00365832,0.0138374
0.00646384,0.00499383
0.0156861,0.0192088
0.0104789,0.0302402
-0.0119601,0.00537346
-0.0113103,0.0424585
0.00855044,0.0486303
0.0091643,-0.0283528
-0.0109113,-0.0493385
-0.0222501,-0.0158249
-0.0204709,0.00160794
-0.0274232,0.0137564
-0.0360672,0.0366243
-0.00539749,0.0096619
0.038555,-0.0574529
0.0365209,-0.0154944
0.00285526,0.0128722
-0.00433855,-0.0161545
-0.00530619,-0.0160205
0.00164446,-0.00436002
0.00486099,-0.0272115
0.0239335,-0.0334269
0.00763983,-0.00102393
-0.0114762,0.0504064
-0.00813615,0.00461684
-0.0106156,0.00588989
-0.0139302,0.0117358
-0.0157391,-0.00604658
0.00927648,-0.0230182
0.0212244,-0.00448066
0.0112518,0.0184545
-0.000399944,0.0104019
-0.0128143,0.00566832
-0.0193793,0.00289661
-0.0151166,-0.00125467
-0.00720899,-0.0150064
0.00259096,-0.00830078
-0.00427892,-0.00979753
-0.0135826,-0.0187696
-0.0171788,0.0178392
-0.0197017,0.0141621
-0.00995184,-0.00804452
0.00135314,0.0228158
0.0384334,0.017451
0.0438327,0.0158946
0.0116786,0.00121884
-0.0125626,-0.020363
-0.0062006,-0.00160044
-0.00390977,0.0174807
0.00937933,0.00232696
0.0264815,-0.00318311
0.0162229,0.0278452
0.00530453,-0.0142614
0.00638329,-0.0792123
0.0135645,-0.0640172
-0.00856721,-0.00849138
-0.0230332,0.0316181
-0.0204079,0.0295169
-0.00114202,0.0250416
0.00507923,0.0285341
0.00753701,0.0201743
-0.011053,0.0190781
-0.0250231,0.0367251
-0.00814596,-0.00695733
0.0118939,-0.0127698
0.0171571,-0.00692488
0.0155331,-0.026813
0.0147902,-0.0381787
0.0119676,-0.0264153
0.014369,-0.00238402
0.00506115,0.00602983
0.00401768,-0.0276141
-0.00832889,-0.0121219
-0.0214696,0.0210866
-0.0162016,0.031675
-0.0154491,0.0242095
0.000723523,0.00683086
0.0207137,-0.00541702
0.00830016,0.000216135
0.000812546,-0.0019179
-0.00151176,0.00295836
-0.0247058,0.0232616
-0.0355716,0.0480645
-0.0231601,0.00521786
-0.0178898,-0.0226613
-0.00141777,0.00242848
0.0249138,-0.0357096
0.0143326,-0.0272047
-0.00892329,-0.0111222
0.00517596,0.00217419
0.0175117,0.0132898
-0.00636352,0.00592147
-0.0183336,0.00608407
-0.0186033,0.00234625
-0.0204255,-0.0105768
-0.0182729,-0.0234377
0.00390151,-0.0313295
0.0301292,-0.00219153
0.0399943,0.0386694
0.0378641,0.0542325
0.0288955,0.0113192
0.0191406,-0.0118821
0.00297116,-0.0166219
-0.00801869,-0.00903253
-0.00317764,-0.00471853
-0.0126486,-0.00797892
-0.0196248,0.00743014
-0.0152823,0.0150858
-0.00860964,0.0148272
-0.00409896,0.0041347
-0.000343707,-0.0129716
-0.00276343,-0.0175687
-0.010095,0.0161533
-0.00829871,-0.000806455
-0.00413952,-0.0184087
-0.00745777,0.0100947
-0.00511635,0.0176094
0.00742964,0.001085
0.0143029,-0.00636187
0.0141277,-0.0167135
0.0193459,-0.0130272
0.00724048,-0.0204755
-0.00351042,-0.0198242
-0.00305736,-0.0201262
-0.0013103,0.0262877
-0.00566163,0.0313415
-0.0114908,-0.0186819
-0.0104305,-0.0286173
-0.0130602,-0.0213451
-0.011452,-0.00134807
0.0248541,0.0128811
0.0402888,0.00430077
0.0087471,-0.00865291
0.00219926,-0.00875968
0.0115811,-0.0108678
0.00880495,0.0242343
-0.00303365,0.0124844
-0.00619234,0.00123403
-0.00126384,0.0431473
1.1e-05,0.0649118
0.00406521,-0.0171283
0.0117824,-0.0321148
0.00433147,0.00361853
-0.00216122,0.0118693
-0.00218805,-0.0165067
-0.00688326,-0.0297318
-0.0231288,-0.00498279
-0.0427728,0.0086104
-0.0479292,0.0155364
-0.0324192,0.0153312
-0.020681,0.00247121
-0.00416988,-0.0127323
0.0282361,-0.00969977
0.0554994,-0.00998553
0.0477577,-0.0141622
0.0192646,-0.0209737
0.00704146,-0.0208898
0.01069,0.0109678
0.0197349,0.053919
0.0144524,0.0282575
-0.00759887,0.0123096
-0.0137262,-0.0137878
-0.00765441,-0.0127451
-0.00354385,0.0223712
0.0106848,0.0198448
-0.00717104,0.0205141
-0.0261717,0.022674
-0.0271833,-0.00798441
-0.0211195,-0.05565
-0.0187311,-0.086983
-0.0301363,0.028049
-0.0119535,0.0588169
0.0139982,0.0176208
0.0144603,0.0244655
0.0106069,0.0224053
0.00577018,0.00198738
0.0143119,-0.0348876
0.0179,-0.0300561
0.014702,-0.0329835
0.00643657,-0.0375772
0.00452451,-0.0278526
0.00119544,-0.00909446
0.00060689,0.0084058
0.00202754,0.00240232
-0.00701674,-0.010159
-0.0277856,0.0374042
-0.0344603,0.0506956
-0.0246847,-0.00204399
-0.00490277,-0.01006
0.00589377,0.012734
0.015775,0.00766075
0.0184081,0.00686695
0.0202047,-0.00775808
0.0212509,-0.0322111
0.019079,-0.0486852
0.0129684,-0.0329833
0.0168601,-0.00930522
0.0103171,-0.00773926
-0.00222174,0.0164478
-0.00782575,0.0132551
-0.0119988,0.000197884
-0.017271,0.0137128
-0.0209403,0.0213438
-0.0217478,0.00971252
-0.0190401,0.0100457
-0.00698754,0.0303348
0.00775981,0.0253874
0.015728,0.00254588
0.0101055,0.00201945
0.000973483,0.00876138
0.00243331,-0.007035
0.00878618,-0.0319286
0.00635936,-0.0203936
-0.00259969,-0.00182315
-0.000993457,0.00522267
-0.000657881,0.0259074
-0.000705802,0.00707623
-0.00948731,-0.00563303
-0.0161929,-0.000614961
-0.0206565,0.00900036
-0.0170161,0.00529565
-0.00713131,0.00323529
0.00489527,0.00420067
0.00943064,0.00740321
0.00574652,0.00900432
0.00813501,-0.00967221
0.0168649,-0.0316458
0.0150432,-0.0279689
0.0135078,-0.0295273
0.00768696,0.00416566
-0.00223544,0.0223257
-0.00479217,0.0168205
0.00066774,0.00731536
0.00231637,-0.0142518
-0.00443318,-0.0238413
-0.0106304,-0.00952603
-0.00905059,0.0150594
-0.00602472,0.00712669
-0.00152288,0.00720246
0.00391777,0.00977615
0.011901,0.0130755
0.00968326,0.0117304
0.00997231,0.00384119
0.0158665,-0.00843612
0.0163901,-0.0209652
0.00740645,-0.023499
-0.00699837,-0.0104463
-0.0135527,0.0100522
-0.00255455,-0.00181361
-7.76e-05,0.0341135
-0.0161693,0.0495253
-0.0253549,0.0118302
-0.0222847,0.00722934
-0.0164812,0.0163692
-0.0105851,0.00885458
-0.00317003,0.0108427
0.0112591,0.00582298
0.0203122,0.0330982
0.0213802,-0.0138841
0.0244326,-0.0400092
0.0175991,-0.0829916
-0.00509637,-0.0638847
-0.0125628,-0.0164535
-0.0194065,0.00186839
-0.0260176,0.0224482
-0.0195624,0.0200798
-0.0090879,-0.0136195
-0.0110205,0.00621772
-0.00930469,0.00273241
-0.0142927,-0.0267578
-0.02539,-0.00832895
0.00473098,0.00392767
0.0668127,-0.000231202
0.0780653,-0.0107602
0.0511871,0.000599576
0.0223933,0.0227803
0.00593454,0.00691716
-0.00187453,-0.00192444
-0.00791113,0.00462597
-0.0082041,0.00449719
-0.00217225,-0.012807
-0.013018,-0.00313539
-0.0168666,0.0158748
-0.0117395,0.00777724
-0.0103941,0.0264263
-0.00621837,-0.00728626
-0.00865894,-0.0357155
-0.00402049,-0.00805266
-0.00445104,0.00984977
-0.00428695,0.0250609
0.00725263,0.0175348
0.0115145,0.0132946
0.0204807,0.00723695
0.0174978,0.016264
0.00268659,0.00341576
-0.0128825,-0.0151605
-0.0183818,-0.0246298
-0.0157198,-0.00114494
-0.0372602,0.00510599
-0.0494165,0.0144778
-0.0469953,0.0155134
-0.0272863,0.0123873
0.000735346,-0.0128397
0.00991694,-0.012254
0.00273534,-0.0104033
-0.0291727,0.00124021
-0.033962,0.0130319
-0.0273414,0.00474989
0.00603847,-0.000196778
0.0381941,-0.0154302
0.0559674,-0.0306807
0.0698882,-0.0297848
0.0688193,-0.01775
0.056,-0.0104687
0.0422947,0.00660281
0.0317017,0.0191564
0.0262429,0.00816319
0.0146729,-0.000744573
-0.0112635,0.00626755
-0.0273193,0.00688885
-0.0226236,0.00307938
-0.0269452,0.0101475
-0.0477813,0.0250641
-0.0562923,0.0262653
-0.0420194,0.0172897
-0.037368,0.0131052
-0.0202947,-0.00131505
0.00492407,-0.015724
0.0257414,-0.0164032
0.0316249,-0.0107826
0.0270084,-0.00732439
0.0184135,0.00598701
0.0102605,0.0116051
0.0183149,-0.00548778
0.0107204,-0.0167091
0.0103816,-0.0129213
-0.00164655,-0.0147941
-0.0171406,-0.0130607
-0.0156162,0.000234101
-0.00950572,0.0150676
0.000753029,0.019452
0.0060261,0.0100241
-0.0107719,-0.00224643
-0.014768,-0.00918907
-0.00904391,-0.015816
-0.0131965,-0.011371
-0.014984,-0.0090935
-0.0136427,-0.00178433
-0.0144375,0.011077
-0.00671284,0.00789684
0.0187792,-0.010606
0.018212,-0.00654552
0.00787342,0.0141404
0.00218198,0.0249527
0.0239696,-0.00821608
0.0300094,0.019044
0.00775397,0.0243998
0.00201881,-0.0203258
-0.000604738,-0.0276858
-0.00732691,-0.0166972
-0.0213728,-0.000925666
-0.0422263,0.015788
-0.0451658,0.0106168
-0.0344456,0.00559049
-0.0299249,0.00836658
-0.0193128,0.00953122
0.0141554,-0.00543031
0.0185761,0.0011573
0.0295338,-0.00207278
0.04304,-0.0282224
0.0425057,-0.0474641
0.0339753,-0.0297098
0.0258624,0.0132307
0.00549676,0.0248167
0.000253992,0.00437422
0.00270169,0.0047242
-0.0230527,0.0123731
-0.0198365,0.0358396
-0.00850889,0.0251994
-0.00531171,0.0166185
0.00339544,0.0222751
0.012635,0.00788413
0.0548159,-0.024893
0.0559313,-0.0320071
0.0149485,-0.0190895
-0.0109654,-0.00894095
-0.026851,-0.00600403
-0.0169161,-0.00875491
-0.00641909,0.00271615
0.0162972,0.0164543
0.00984547,0.0133536
-0.0399604,0.0108952
-0.0550941,0.00598991
-0.0320714,-0.00607511
-0.0117248,-0.022614
-0.0274061,-0.0216864
-0.0184711,-0.00112874
0.0103143,0.0138164
0.00494689,0.0211015
-0.00501667,0.00928704
0.00451731,-0.0189135
0.0245229,-0.0172135
0.0447492,-0.00839918
0.0481321,-0.00999803
0.0304716,-0.0126142
-0.00474533,0.00443665
-0.03082,0.0169977
-0.0251916,0.0103958
-0.0175555,0.0025541
-0.00930094,-0.00181218
0.000682661,-0.00366877
0.00940835,-0.00468846
0.0174051,-0.00232176
0.0177335,0.000703655
-0.0133527,0.0103582
-0.025934,0.0211681
-0.0153725,0.0135101
-0.00312657,0.00150311
-0.00453939,0.000220673
0.000347959,-0.000738955
0.0291397,-0.004027
0.0230099,-0.0109208
0.000809738,-0.00533851
-0.0197744,0.00889153
-0.0296422,0.00580849
-0.0234601,0.000304478
-0.000969323,-0.0106305
0.00428689,-0.0166821
0.00349564,-0.0123771
0.00562467,-0.00718533
0.00765845,-0.00282216
0.0101329,0.0128381
0.00503345,0.0194089
-0.000367383,-0.00847227
0.00285322,-0.0206541
-0.00302993,-0.0077083
-0.0158599,-0.00547319
0.00638221,-0.0213052
0.00705984,-0.0114223
-0.0174666,0.00235794
-0.00704696,0.00636707
0.0104322,0.0143829
0.00851911,0.00950499
0.00213558,-0.00524528
0.000759167,-0.0234733
0.00341531,-0.000309869
0.00718704,0.0251835
0.00513237,0.034785
-0.00595524,0.0551237
-0.00269728,0.0210219
0.0235903,-0.00314038
0.0252795,-0.0114465
0.0158632,-0.0560137
0.00631991,-0.0362957
-0.000828201,-0.0193583
-0.0125042,0.00517849
-0.0200396,0.0176971
-0.020085,0.0283123
-0.0215173,0.0664748
-0.0151984,0.0415744
-0.00445382,-0.042774
-0.000784574,-0.0534045
-0.00178547,-0.0317323
0.005116,-0.00831562
0.0080429,-0.00683214
0.00510951,0.0163712
-0.000791522,0.0419802
0.000408996,0.0337489
0.0059741,-0.00607985
0.00560943,-0.00274867
0.00508132,-0.00920267
0.0043211,-0.0557462
-0.00519735,-0.00979766
-0.00384165,0.00905108
0.0014738,0.000394168
0.000286436,0.00475049
-0.00121225,0.00604587
0.00110207,-0.00932459
-0.00214722,-0.00371229
-0.00205544,0.000750441
0.00548672,-0.00628521
0.00708853,0.0126081
0.00448781,0.0309149
0.00434393,-0.0113503
0.00168514,0.0149403
0.00502724,0.0353688
0.012405,0.00701128
0.0232803,-0.063891
-0.00954015,-0.0108662
-0.0305742,0.0369925
-0.0235027,0.0142539
-0.021931,0.00851574
-0.0122415,0.00494957
0.00324036,-0.0265099
-0.0242111,-0.0218013
-0.0530384,0.00570115
-0.053927,0.0370321
-0.0133765,-0.00642858
0.0325117,0.00968903
0.0461039,0.0340668
0.0618842,-0.0291298
0.0695676,-0.0249904
0.0501409,-0.0380652
0.00799553,-0.0172751
-0.0241471,0.0329498
-0.0182293,0.0193702
-0.0103932,-0.0248378
-0.00746371,-0.00568983
0.0218408,-0.00541157
0.031226,-0.00527068
-0.00506521,-0.000917349
-0.0341703,-0.00884894
-0.0141614,-0.0115296
-0.0230377,-0.0320491
-0.0145863,-0.0182846
0.0263672,0.00528414
0.0488849,0.0168177
0.0317735,0.0255248
0.00655002,0.0264171
-0.00400094,0.0633263
-0.0238841,0.00520304
-0.0490353,-0.102886
-0.0732096,-0.0240863
-0.0567196,0.0544626
-0.0119317,0.0413958
0.0021506,-0.0117973
0.00596402,-0.052297
0.0177982,-0.0141897
-0.000374924,-0.00542878
-0.0113715,-0.0173123
0.00384252,0.0109446
0.0321416,0.0412337
0.0608309,0.0392186
0.0237576,0.0217114
-0.00950909,0.0133685
0.0045224,-0.0111537
0.00863625,0.000976257
-0.00295766,0.0281687
0.00178621,0.0333323
-0.00417308,-0.0501056
-0.0258354,-0.0651128
0.00356263,-0.025945
0.0180038,0.00963815
0.00498955,0.0185145
0.00411318,-0.0107308
0.0229532,-0.0190201
0.0224523,-0.00167578
-0.00774383,-0.0107325
-0.023238,0.0132071
-0.00456284,0.0248351
0.0136406,0.0288272
0.0105041,0.0115848
-0.000191589,0.00353924
0.0031419,-0.0183724
0.00329554,-0.0150244
0.000103355,0.00358118
-0.010598,0.00852004
-0.0389508,-0.00747532
-0.0362924,-0.00269997
-0.0296225,0.00438561
-0.00438252,0.00191724
0.0502947,0.00657398
0.039269,0.00950103
-0.0054606,-0.00993028
-0.0289771,0.00209988
-0.0250861,0.0277186
0.00223211,0.0187215
0.0065472,-0.000626842
-0.00659418,0.0262082
0.0120088,-0.012643
0.00580469,-0.0522021
-0.0317057,-0.0485267
-0.0438482,-0.00984327
-0.0142321,0.0253139
-0.00100833,0.0297963
0.0117518,0.00167647
0.0354549,-0.0148713
0.0393969,-0.00554582
0.0348198,-0.00719766
0.033048,-0.0346926
0.0340071,-0.0282405
0.0143446,0.0333176
0.0111049,0.056964
0.00330891,0.0327941
-0.0102993,-0.00347607
0.00278363,-0.00903719
-0.0053974,-0.0413573
-0.00670215,-0.0113635
0.00709074,-0.0296921
-0.032605,-0.00444311
-0.080626,0.0411271
-0.0787592,0.040539
-0.0650427,0.0037527
-0.0357607,-0.00779695
0.0224074,-0.0687117
0.0719775,-0.115088
0.0223984,-0.0140835
-0.0264644,0.0579495
0.00569412,0.0681443
0.0514964,0.0464599
0.0438537,0.0393591
0.00740999,0.0147775
-0.0344574,-0.016301
-0.0526738,0.0414798
-0.0541184,0.0124791
-0.0244749,-0.0169906
0.0489016,0.0297013
0.074901,-0.0177833
0.0578464,-0.045332
0.0457733,-0.0188311
0.0117819,0.00202261
-0.0110728,0.00995246
0.00478776,-0.0187893
0.0143704,-0.042177
-0.0182284,-0.00159782
0.0107379,-0.00297714
0.0393403,-0.00647508
0.00527403,0.0374368
-0.0322127,0.0097682
-0.0622141,-0.0380421
-0.0123706,-0.0444087
-0.00599007,-0.0181147
-0.0403785,0.000436407
-0.0631917,0.0135174
-0.0638992,0.0616682
-0.000630132,0.0184686
0.0712142,-0.023601
0.158084,0.0118775
0.0951915,0.0285769
-0.0302973,0.00452345
-0.0657951,0.0102614
-0.0505505,0.0672898
-0.184719,0.0825403
-0.207685,0.0336387
-0.0774292,-0.0326295
-0.003627,-0.0906631
0.0313916,-0.0427824
0.0636816,-0.0307066
0.147665,0.0409267
0.213658,0.00151305
0.156762,0.0332129
0.077769,-0.0606935
0.0285928,-0.0566813
-0.00992364,-0.0682735
-0.0416852,-0.0704479
-0.0359421,-0.0618073
-0.0405642,0.0157055
-0.0564908,0.0849958
-0.0946675,0.0561602
-0.0700931,-0.0423061
0.0509274,-0.0422466
0.172589,0.00232094
0.0736105,0.0078262
-0.0920745,0.0510736
-0.148585,0.0479738
-0.122255,-0.00231889
-0.0817995,0.0363909
-0.0502544,0.0399753
-0.00427455,0.0275617
0.0191723,0.0299804
0.0249424,0.014034
0.168719,0.0611769
0.194973,-0.0627872
0.126751,-0.0976135
0.0323786,0.112563
0.100626,0.023197
0.0443872,-0.0418354
-0.141029,-0.00921931
-0.13953,-0.0348171
-0.0853335,-0.00499834
-0.00546048,-0.0300036
-0.0297742,-0.053751
-0.0215019,0.00213408
0.0209549,0.152241
0.0594998,0.0290386
0.0913953,-0.0507465
0.108028,-0.0385905
0.0282695,-0.0858984
-0.106372,-0.0497712
-0.168457,0.0261834
-0.11293,0.0459687
-0.061617,-0.0176214
0.0197574,-0.0148006
-0.0398664,-0.020333
-0.0867074,-0.02307
-0.0137123,-0.00593124
0.0594031,0.0302346
-0.00973263,0.0453877
0.0576824,-0.00169816
0.116571,-0.0530399
0.0704369,-0.027561
0.0280109,0.0239357
-0.0296993,0.0266881
-0.087228,-0.0283126
-0.0905815,-0.00835912
-0.0443566,0.0200391
0.00817818,0.00149252
0.0849481,-0.0329939
0.161898,-0.0304271
0.0708774,0.00365306
-0.108201,0.0385283
-0.117209,0.0366414
-0.00221527,0.0241171
0.0550378,-0.0118811
0.0472525,-0.0350109
0.00217665,-0.0299095
0.0423925,-0.0059522
-0.00747256,0.00984798
-0.11548,0.00123756
-0.133003,0.0266702
-0.0734525,-0.0143199
0.08302,-0.0323813
0.169887,0.00846556
0.111862,-0.00650986
0.0152721,0.0217222
-0.06375,0.0997004
-0.0860389,0.11417
-0.0763096,0.0654851
-0.0172619,-0.0777211
0.00706181,-0.139222
0.0916494,-0.0428941
0.138608,-0.000893792
0.035615,0.0558709
-0.0191525,0.0718825
0.00346057,0.113676
-0.0222724,0.111573
-0.0860439,0.0705023
-0.201824,-0.0629247
-0.16307,-0.0933642
0.000891319,-0.069148
0.146764,-0.0698508
0.107802,0.0153845
0.0650556,-0.0458435
0.0514708,-0.0997919
0.0834599,-0.0223593
0.0407993,0.038397
-0.00705101,0.0326542
-0.0535622,-0.00557128
-0.0681747,-0.00588391
0.0243743,-0.0469256
0.0410658,-0.0321947
-0.0646898,-0.00480203
-0.0866521,0.0203556
0.0113082,0.0678412
0.0181718,0.102229
-0.0245026,-0.000625778
0.0651096,-0.0154461
0.156293,-0.00285704
0.111897,-0.0176762
-0.026906,0.0290471
-0.0653662,0.0290879
-0.0297556,-0.0178214
-0.0279542,-0.0172377
-0.0370376,0.0276581
-0.0456726,0.0544057
-0.04284,-0.0734996
-0.025763,-0.115662
-0.0397381,-0.0385494
-0.0376887,0.027589
-0.0282775,-0.0314897
0.00847818,0.00323047
-0.0254185,0.0353213
-0.0357385,-0.0219968
0.00481752,0.00900462
-0.0156059,-0.0414509
-0.0403077,-0.0462643
0.0260137,0.0153807
0.0684275,0.0239302
0.0405179,0.0181886
0.0261453,0.00523281
0.0144369,0.0223088
0.00535414,0.0528907
0.012392,-0.0138083
0.0403164,-0.00632225
0.0307894,0.0176556
-0.0169859,0.0259751
-0.034931,-0.0157137
-0.0449286,-0.00360066
-0.0464781,0.0243807
0.0807449,0.0255371
0.193044,0.0097353
0.168681,0.0137358
0.0981627,0.0251766
0.0158167,0.00801928
-0.067473,0.0144554
-0.102032,0.0168551
-0.0895266,-0.0233067
-0.0748032,-0.0355827
-0.0595723,-0.017999
-0.00876078,-0.00439826
0.0316438,-0.0100535
0.0191604,-0.0280983
-0.0475677,-0.0304064
-0.0962851,-0.0329498
-0.0529947,-0.0736316
-0.0393844,-0.0340456
-0.0343219,0.0319988
0.00381252,0.00357082
0.0341434,-0.0327585
0.0283186,0.0428318
-0.00723618,0.100588
0.0118184,0.0350362
0.0719105,0.0270068
0.104165,0.0101021
0.120481,0.0014739
0.0240763,-0.028425
-0.0760816,-0.064021
-0.0827993,-0.0365008
-0.0433068,0.00374136
-0.0241809,0.0210474
-0.0303292,-0.0133757
-0.0589145,-0.0306766
-0.0148783,-0.00940834
-0.0263033,0.0186027
-0.0153499,0.0805494
0.0531899,0.0399546
0.0367326,0.0365475
0.0422271,0.0984541
0.0404697,-0.0350734
0.0415384,-0.0816037
-0.020829,-0.0270442
-0.0509701,-0.0137304
-0.00873356,0.0270022
0.00861711,0.0412682
-0.0032773,-0.00192658
-0.0278457,0.0215061
-0.0163911,-0.0245146
0.0123375,-0.07805
0.0271051,-0.0520121
0.0131245,-0.0235906
-0.00605114,-0.0380387
-0.0187317,-0.0126704
0.00922264,0.0191295
0.0135763,0.0166751
-0.020394,0.0191836
-0.0660224,0.0205162
-0.0356795,0.00564388
0.0357054,-0.00182449
0.0760144,0.013037
0.0423339,0.0382742
0.0200977,0.0339628
0.0226747,0.00594395
0.00616793,-0.0105043
-0.0141545,-0.000945529
0.0153529,0.00257748
-0.000925837,0.000461553
-0.0108997,-0.00386331
0.00938441,-0.0177713
-0.00121664,-0.0266513
-0.00979103,-0.0123394
-0.0271813,-0.00485128
-0.00914265,-0.00459557
-0.00523968,-0.00142619
-0.0110396,-0.0177621
-0.0130518,-0.024286
-0.0224199,-0.00590543
-0.0402816,0.0317219
0.00466755,0.0213953
0.0173894,-0.0501455
0.0176747,-0.0405176
0.0195868,-0.0110413
0.0518717,0.024625
0.0386797,0.0246901
-0.0365535,-0.0287161
-0.0527218,0.0105963
0.0314871,0.0351726
0.061849,0.0185792
0.00295299,0.0149331
-0.0539331,0.0385871
-0.0570524,0.00522231
0.0101376,-0.00372332
0.0428182,0.00410327
0.051148,8.07e-05
0.0494952,0.0299573
0.0404149,0.052206
0.0290797,-0.0212567
0.000758329,-0.0374135
-0.0347283,0.0037522
-0.0602354,0.00456074
-0.0867235,-0.0127168
-0.094378,0.0346599
-0.105613,0.0240152
-0.0823507,-0.000523103
0.0277447,-0.0173739
0.0760928,0.0310206
0.107921,0.0446064
0.0304226,-0.0691308
-0.0167148,-0.0705311
-0.00604782,0.0199523
0.00461942,0.0501483
0.010123,-0.0271784
0.00610895,-0.0427419
0.025759,-0.00234775
0.0304701,-0.0206516
0.0085848,-0.0297746
-0.0160871,-0.0178807
-0.0192563,-0.013736
-0.00201307,0.0163802
-0.0130651,0.0406812
-0.0242263,-0.0232683
-0.0414137,-0.032635
-0.0319201,0.00997213
-0.0149476,-0.00334842
0.00885244,-0.0189186
0.0603906,0.00908982
0.0927768,0.0285376
0.0407972,0.0463276
0.00306373,0.0226615
-0.0361806,0.0112854
-0.0212898,-0.00471305
0.0457015,-0.00371762
0.0281839,0.00772261
-0.0218076,-0.024328
-0.0186494,-0.0222771
-0.0254322,0.00349698
-0.0243837,-0.00529567
-0.0387227,-0.0148378
-0.0689672,0.00832506
-0.0500767,0.0276868
-0.0142525,-0.0161018
0.0386014,0.00300282
0.0857939,0.0244477
0.0695232,0.0123317
0.0541724,-0.00672465
0.045619,-0.00210879
0.000514869,0.00543692
-0.0437879,0.00333059
-0.0344682,-0.00766621
-0.000495672,-0.00537188
0.0240567,-0.000912435
0.00568119,-0.00920191
-0.0136237,-0.0178462
-0.043875,-0.00875982
-0.0565807,-0.0120015
-0.014586,-0.00350713
0.000796172,0.00210814
-0.00429703,0.0408777
0.0159181,0.0146664
0.0157707,0.00209588
0.0244006,0.0188144
0.0272597,-0.00162093
-0.0134075,-0.0230687
-0.0130096,-0.031794
0.00690784,-0.0302862
0.00252224,-0.000656769
0.0036777,-0.0319163
0.00677067,-0.0281311
0.00146564,0.0152034
0.00414168,0.0203748
0.016498,0.00240462
-0.00979532,0.0137023
-0.00442964,0.00451562
0.0144469,-0.0140385
-0.0163909,-0.00640251
-0.0525969,0.0263908
-0.0448392,0.0750885
-0.00666157,0.0299564
-0.00201328,-0.0155338
-0.00718078,-0.00895501
0.0162611,0.0107214
-0.00983202,0.0594432
-0.0194836,0.0554154
0.0220193,0.0272322
-0.00438795,-0.00812766
0.0101636,-0.0258387
0.0499757,-0.0693736
-0.0178361,-0.0667335
-0.0325986,-0.0334769
0.00651485,-0.0221744
0.0112465,-0.0170597
0.0284996,-0.00799348
0.0352705,0.00632036
0.0158431,0.00975013
0.0132759,-0.00035875
0.0185887,0.00429932
0.023212,0.0104555
0.0210441,-0.000655761
0.0185629,-0.00591941
0.009877,-0.0205918
-0.0169863,-0.00969419
-0.0596088,0.0269121
-0.0619268,0.0542471
-0.079787,0.0597
-0.0521503,0.0234261
0.00522869,-0.00397409
-0.0386731,-0.00112239
-0.0284351,0.00149032
0.0616225,-0.0153491
0.0197434,-0.029608
0.0272739,-0.0438559
0.0660772,-0.0185481
0.0586718,-0.0175243
0.0151475,-0.0130334
-0.0522027,0.0172226
-0.0805242,0.0306448
-0.00345813,-0.00147121
0.137742,-0.0201585
0.0778587,0.00474123
0.0212077,-0.0096532
0.00403064,0.0232308
-0.0299023,0.00390315
-0.0266098,-0.0410727
-0.0223715,-0.0516308
-0.061241,0.0017078
-0.0158326,0.0390837
0.0370262,0.00844187
-0.0480871,0.018576
-0.0950137,-0.021565
-0.0531599,-0.016406
0.0264437,-0.0208453
0.103554,-0.0391842
0.0856219,-0.0439565
0.0287258,0.0172655
0.00515811,0.0189176
-0.00268529,0.0258457
-0.000402197,0.0473891
0.00550863,-0.0100526
0.00818168,-0.0256577
0.00357658,0.00776161
-0.000663981,0.0230803
0.0119122,0.000408466
0.00449374,0.0274621
-0.0119295,0.0460457
-0.0223254,-0.00731204
-0.0480012,-0.013978
-0.0555369,0.00510126
-0.0443944,0.00115543
-0.0347443,-0.00745271
0.0146698,-0.0164012
0.0484725,-0.00682738
0.0411625,0.0129143
0.033232,0.0188062
0.0148108,0.0107863
-0.00692883,-0.00340646
-0.0466836,0.00107803
-0.0464832,0.0206831
0.00530571,0.000469367
0.0186956,0.00233725
-0.00952537,-0.00148908
-0.00314537,0.00570167
0.00230513,-0.00290958
0.033925,-0.00800447
0.0156495,0.00204906
0.00338882,-0.0157109
-0.00437655,-0.022995
-0.0230855,-0.0124212
-0.00758035,-0.00671382
-0.0115675,0.043059
0.000376724,0.0149575
0.000427165,-0.0686164
-0.00292707,-0.0302198
-0.018937,0.0333722
-0.031578,0.037924
-0.00362496,-0.00156678
0.025495,0.00665438
0.0352949,0.0280781
0.0351078,0.0460499
0.032225,0.0129263
-0.010854,-0.0466453
-0.0523515,-0.0584174
-0.0348978,-0.0347768
0.0156394,0.00221957
0.0654202,0.00540648
0.084824,-0.0153568
0.0262832,-0.00849079
-0.0384121,0.0294714
-0.0696103,0.0292662
-0.065476,0.0468043
-0.00852497,-0.0212839
-0.00168615,-0.0157996
-0.0325029,-0.0269174
-0.0353297,0.00195252
-0.0169926,0.022251
0.000813418,0.0260415
0.0874911,0.00980626
0.0735736,-0.00810238
-0.0151153,-0.0214834
0.00221645,-0.0161971
-0.0152016,-0.00878658
-0.0208787,-0.0314593
-0.0145818,-0.0138881
-0.0226038,0.0466727
0.00990387,0.043073
0.00911094,0.0434733
-0.00463042,-0.00140382
0.0205912,-0.0162574
0.059708,0.0251682
0.0864213,0.0512498
0.0356777,-0.0145696
-0.0405094,-0.0921127
-0.062465,-0.0570367
-0.0488077,0.0153667
-0.0198865,0.0340401
-0.00727601,0.0581065
-0.00350187,0.0066936
-0.00132091,-0.0284033
-0.0114975,-0.00135742
-0.0294444,-0.031137
0.0101202,-0.0362804
0.0594768,-0.0231345
0.0430651,-0.027737
-0.0584296,-0.018783
-0.081685,0.0139278
-0.0033171,0.00656357
0.0208754,-0.00629382
0.0191823,0.0417712
0.0199837,0.108536
0.0265368,0.046927
0.0130674,-0.0381798
-0.00972689,-0.0250522
-0.0659791,-0.0435019
-0.0430864,-0.0144231
0.0328378,8.51e-05
0.0461419,-0.00612507
0.0241121,-0.0138528
-0.00366264,0.00760849
-0.0080952,-0.0247469
0.00182611,-0.0208438
-0.000579591,-0.00774925
-0.00461312,-0.0019964
0.00542245,-0.00628553
0.0167859,-0.0510166
0.0275667,-0.00499872
0.0338047,0.121254
0.0379466,0.0757109
0.0368531,0.0320728
0.0342398,0.0400383
0.0135921,-0.0288888
-0.0404329,-0.0758019
-0.0832765,-0.0637275
-0.0485387,-0.0334627
-0.0194227,0.020809
-0.014444,0.0291948
-0.00108922,0.0218893
0.00425504,0.0904581
-0.0108462,-0.00679645
-0.011682,-0.0807176
0.0198132,-0.0432477
0.0239221,-0.0440368
-0.0127595,-0.0125588
0.00140957,0.0120574
0.0321966,0.00370406
0.015457,0.00321023
-0.0243716,0.00942836
-0.0369562,0.00254255
-0.0378093,0.00323763
-0.0178442,-0.00258985
-0.0324668,0.00534819
-0.0600729,0.0176619
-0.00810351,-0.000909954
0.0370445,-0.0158195
0.0439075,-0.00876423
0.068653,-0.00794905
0.0725758,-0.0155717
0.0686306,-0.0116207
0.0178355,0.0158715
-0.00148176,0.0328958
-0.0102613,0.0472701
-0.0432456,0.0105523
-0.0466946,0.00233732
-0.0244653,0.0500804
-0.0238046,0.0512751
0.00298259,-0.0523957
-0.00810599,-0.0808815
0.00684678,0.0526829
0.024924,0.0336141
0.00804661,-0.0163506
0.0192839,-0.0562866
0.0119256,-0.0661789
-0.00492992,-0.027643
-0.0234638,0.0189035
-0.0245407,0.0233168
-0.00561048,0.022849
-0.00465735,0.0212685
-0.00801459,0.0137021
-0.00144223,0.00924667
0.011731,-0.0106974
0.0335331,-0.0173115
0.0415324,-0.000702871
0.0280423,0.00253603
0.00716668,-0.000342032
-0.00811387,0.00171329
-0.00976691,-0.0039226
0.00466901,-0.0171146
0.0128044,-0.0156922
-0.0130052,-0.00321978
-0.0246277,-0.00804239
-0.026015,-0.0130158
-0.0176759,-0.00509192
-0.0128874,0.014758
-0.0357506,0.0252649
-0.0762306,0.061378
-0.0651325,0.100349
0.0114427,-0.0242505
0.0641578,-0.0861498
0.0827493,0.0213611
0.0755075,0.0491844
0.0282806,0.0170414
0.0292082,0.0264936
0.0433861,9.65e-05
-0.0162531,-0.0923028
-0.148892,-0.0776011
-0.164473,0.0106706
0.00239063,0.0488322
0.104112,-0.0209872
0.0723318,-0.0824987
-0.0429334,-0.0223647
-0.0319039,-0.00492924
0.0330511,-0.0232416
-0.0155589,0.00222835
-0.0233526,-0.0330989
0.00663128,0.016314
-0.0128221,0.0242601
0.00802874,-0.00150891
0.0148094,-0.0146726
0.00976381,-0.00460081
0.0109796,0.0106019
0.0255259,0.0369221
0.0360841,0.0475864
0.0314699,0.0369561
0.0168656,0.0234827
-0.00366864,-0.0374325
-0.00692546,-0.0093157
-0.00489402,0.0151368
-0.0115069,0.0073352
-0.0106388,0.000104462
-0.0132204,0.00287166
-0.0105867,0.00859158
-0.00436317,0.0137801
-0.000976392,0.0148364
-0.00901186,0.0118993
-0.0245903,0.0194507
-0.0161081,0.0284745
0.0113615,0.018383
0.0130165,0.0019909
0.0104826,-0.0124151
0.00812092,-0.0213932
-0.0128884,-0.0191222
0.000682466,-0.00306936
0.0349713,0.0116754
0.0317845,0.00628206
0.0126136,-0.0039953
-0.0087102,-0.0143697
-0.0200995,-0.0356176
-0.00911341,-0.0240466
-0.00187838,-0.00569196
-0.0414788,0.0259074
-0.085731,0.0337027
-0.12133,0.0141644
-0.0919139,0.0574847
0.0415794,0.0657014
0.139085,0.0238338
0.104679,-0.0407992
0.0747859,-0.0863508
0.0578774,-0.0650266
-0.01451,-0.00357526
-0.0908542,0.028271
-0.044854,-0.00517696
0.0252428,-0.0449752
0.0257073,-0.00520135
0.0546495,-0.00131632
0.0914475,-0.0108339
0.0355648,0.00358798
-0.0156538,-0.00310905
-0.0508853,0.027755
-0.058958,0.0315612
-0.0525626,-0.060271
-0.033459,-0.027013
-0.0209924,0.0201848
0.0116405,0.0015554
0.00516493,-0.0134606
0.00698259,-0.0326562
0.00756777,0.0119054
0.00299619,0.0201724
0.00861857,-0.00164896
-0.00138837,0.000245407
-0.00821847,-0.00911543
-0.0032512,-0.0267502
0.00727254,-0.0279473
0.0126874,0.00869698
0.0163038,0.032337
0.00934722,0.0257655
0.00708698,0.028403
0.0149412,0.0178541
0.0171817,0.00611733
0.00772547,0.00355011
0.00404599,0.000243565
-5.27e-05,0.02344
-0.00939244,0.00792924
-0.0136704,-0.0353392
-0.0118423,-0.0166197
-0.00977545,-0.00894492
-0.0115683,-0.00968216
-0.0132453,-0.0113147
-0.0127314,-0.00618604
-0.016021,-0.00138969
-0.00960977,-0.010451
-0.00504339,0.0133785
-0.0349959,0.0933539
-0.0632766,0.033378
-0.0349622,-0.0580878
0.00759892,-0.0300748
-0.00265236,-0.015446
0.017602,-0.00542072
0.0710072,-0.0276418
0.0735017,-0.0230934
0.0218883,0.024749
-0.0149468,0.0290832
-0.012899,0.000297467
-0.0245117,-0.025186
-0.0306818,-0.000993667
-0.00441062,0.0865966
0.0639133,0.0870657
0.0369294,-0.0568069
-0.00334506,-0.0462445
0.0570767,0.00350558
0.0964332,-0.0178148
0.0498036,-0.0303876
-0.022871,-0.00991322
-0.0374503,0.0200377
-0.0262808,0.0342124
-0.0611841,-0.00839648
-0.0605959,-0.00212062
-0.0266629,-0.00300031
-0.0277422,-0.0195971
-0.056888,-0.0125721
-0.0408598,-0.000548804
-0.0351547,-0.00286212
-0.019549,-0.00892936
0.0142629,-0.0086097
0.0191939,-0.00495231
0.0214307,8.89e-05
0.0436459,0.0116972
0.0515186,0.0137488
0.0467012,-0.00425094
0.0375675,-0.0130994
0.000602975,0.0210297
0.023386,0.0270349
0.0729448,0.0254527
0.00807688,0.0136813
-0.0728669,-0.023263
-0.0613951,-0.0222396
-0.0681123,-0.0209884
-0.0448561,-0.0148665
-0.00815295,0.00693684
-0.00240944,0.0104581
0.0107358,0.0111753
0.0162756,0.0337169
0.0144176,0.0401406
0.0154429,-0.010627
0.0144423,0.00249281
0.0102237,0.0394588
0.0430404,0.0331372
0.0882455,-0.0034455
0.0652215,-0.065087
-0.0520064,-0.0475638
-0.104162,-0.0221805
-0.0532806,-0.0213645
-0.00551595,0.00786963
-0.0120017,0.00860406
-0.0308056,-0.0237413
-0.0217617,-0.0101674
-0.00463419,-0.00285682
0.0254451,-0.0270286
0.0277661,0.000957196
0.0209843,0.0410894
0.0257961,0.0179364
0.0311096,-0.00422755
0.0168983,0.00281241
-0.00556138,-0.00712314
-0.00536005,-0.0310529
-0.00698613,-0.0194813
-0.0196887,0.0270783
-0.0184305,0.0264343
-0.00318942,0.0236934
-0.00104061,0.0187091
0.00294933,-0.00996985
0.00477711,-0.0218464
0.00474145,0.0418228
0.00755458,-0.041068
0.0040322,-0.0621754
-0.0170761,-0.00708363
-0.00362036,0.0149946
0.0161125,0.0335542
0.00861633,0.0119227
0.0168628,-0.00753143
0.0353717,-0.00356116
-0.014953,0.014249
-0.0718461,0.0148177
-0.0279684,0.00242263
0.045737,0.0291425
0.0426249,0.0278195
0.0240202,-0.0122844
0.00392401,0.0331692
0.0223471,0.0441427
0.0517346,-0.0096071
0.040037,-0.04702
-0.0710424,-0.0296241
-0.083196,0.000705799
-0.0448938,0.0126382
-0.0226278,-0.0418495
-0.0836759,-0.0230068
-0.0761395,0.0283656
0.0374243,0.00204679
0.0632961,-0.0192318
0.0369335,0.00579524
0.0288818,0.0118825
0.0354561,-0.00350032
0.0349455,0.00295604
0.0195251,0.0150327
-0.0157482,0.0159618
-0.0353214,0.00828729
0.0172834,-0.0383592
0.0645452,-0.0293462
0.0464816,-0.0243542
0.013397,-0.0358928
-0.0601671,-0.0245284
-0.0984968,0.0436484
-0.0675822,0.0727536
-0.0568781,-0.032293
-0.0555991,-0.0606792
-0.0269497,-0.00056953
0.0102723,-0.0170596
0.0218444,0.0155737
0.0213603,0.0562035
0.039214,0.00359412
0.0681587,-0.0068708
0.0595466,0.00889573
0.0151344,-0.0156023
0.0171466,-0.0147702
0.0436412,0.00754494
0.0308417,0.00878135
0.00626056,0.0241957
-0.0233132,0.0310059
-0.0303245,0.00659408
-0.011344,-0.0215255
-0.0215292,-0.00768088
-0.0505413,0.0370951
-0.0365709,-0.00159177
-0.00669867,-0.0233789
0.00233299,-0.0332733
0.00524087,0.034047
0.00568134,0.00195778
0.0285079,-0.0426711
0.0546728,-0.0118871
0.0530035,-0.00844
0.0266351,-0.0109833
-0.0231309,0.00345696
-0.0363434,0.0218746
-0.021312,0.0284586
-0.010953,0.0210611
-0.00745328,0.0369173
0.00312271,0.00839398
0.004635,-0.0535568
-0.0142098,-0.0163731
-0.012401,0.0190225
0.0245711,0.0138728
0.0431853,-0.00659903
0.015765,0.00692359
0.0158857,0.0173669
-0.0109628,-0.0135198
0.00166453,-0.0396395
0.01736,0.011532
-0.00914604,0.0141002
-0.0242643,0.00220833
-0.0340495,0.00477911
-0.0413882,-0.00308167
-0.0506051,-0.0026121
-0.00480842,-0.041114
0.0108836,-0.0217101
0.000279234,-0.000221273
-0.00826169,0.030029
-0.00365967,0.022472
0.0100219,-0.0173592
0.0138586,-0.00853293
0.0137116,-0.00973916
0.020843,-0.00542717
0.0272061,0.0096081
0.0127028,-0.00037179
-0.000307628,-0.00846477
0.0095819,-0.00630417
0.00544636,0.0324617
-0.0030209,0.0402697
0.00850711,-0.016641
-0.00796239,-0.0393375
-0.0437011,-0.00408259
-0.0335829,-0.00787478
0.00507468,-0.0502042
0.00586249,-0.00129463
-0.00101774,0.0530888
-0.0133359,0.0552628
-0.0220927,0.0107488
-0.0178065,-0.00377594
0.00986939,0.0165324
0.0240849,-0.00328217
0.0142478,-0.0309673
0.00252262,0.00821469
-0.00360001,0.0395939
-0.0138469,0.0249478
-0.0246216,-0.00356095
-0.000366402,-0.0594732
0.0403496,-0.0735437
0.0411362,-0.0332265
0.0299882,0.0126942
0.00611505,0.0122506
0.00714017,0.0119235
0.0276589,0.0249292
0.01062,0.0173649
-0.00327188,-0.00597022
-0.0612527,-0.0074053
-0.0773968,-0.00217492
-0.0198486,0.00393149
-0.00166674,0.0077475
-0.00553287,0.00209358
0.0289079,0.0231231
0.0503782,0.0439452
0.0231177,-0.0132891
0.0338029,-0.012691
0.0235317,0.0257445
-0.0483152,-0.00691429
-0.0751811,-0.0437559
-0.0512164,-0.0188345
0.00301001,0.0044024
-0.0129454,0.0231255
-0.0308697,0.00962635
0.0264001,-0.000568639
0.0834337,-0.00460076
0.101808,-0.0104887
0.0655197,-0.0223744
-0.0297604,-0.00505574
-0.0454747,0.0286427
0.00249044,-0.00681552
-0.00128477,-0.0346232
-0.0406264,-0.01773
-0.057153,3.91e-05
-0.0579218,0.00828007
-0.0417064,0.0281118
-0.0328591,0.00439099
-0.00583012,-0.00305832
0.0118792,0.00794496
0.026698,0.00158293
0.0504534,-0.0166186
0.0455285,-0.00347543
0.0270252,0.0036692
0.0489197,-0.00129683
0.0485097,0.00830915
0.00978771,0.0341078
-0.018746,-0.0291128
-0.031101,-0.0256022
-0.0298352,0.0149553
-0.0597109,0.0284071
-0.0430228,0.0427533
-0.000327878,-0.0182727
0.0363574,-0.03386
0.0423042,-0.0308436
0.0368759,-0.0146837
0.052526,0.0227641
0.0442457,0.0433415
0.0149085,-0.0115054
-0.0461819,-0.0498899
-0.0585777,-0.0450386
-0.0319969,0.00273623
-0.0173554,0.00292536
0.00440382,-0.0106523
0.00872812,0.0180253
0.00653322,0.0384512
-0.0208747,0.0171406
-0.040199,0.00080709
-0.0172,-0.0012664
-0.00295456,-0.0080155
-0.00175427,0.0125163
0.0339615,0.0397826
0.0530305,0.0110284
-0.00375006,-0.00263923
-0.0330243,-0.00458252
-0.0139412,-0.0319984
0.0202612,-0.0256769
0.0198494,-0.0220665
0.0295458,-0.0327481
0.0285766,0.000736105
0.00422915,0.00135934
0.0108987,0.00504971
-0.0124041,0.00825414
-0.0183513,0.0111593
0.0123138,0.000673502
0.000993119,0.0222216
-0.0159201,0.0339935
-0.00741904,0.0383437
-0.0263848,0.0428284
-0.0169021,-0.0140226
-0.0160247,-0.0262278
-0.0379673,0.0636715
-0.00206936,0.107996
0.0244275,-0.0569957
0.00910996,-0.115328
-0.00401478,-0.0393156
0.00710513,-0.0175758
0.0282486,-0.016349
0.0266132,-0.00506668
-0.0245072,0.00529593
-0.0742893,0.0128369
-0.0578486,0.0409354
0.000244997,0.0363737
0.0377393,0.0211858
0.0423447,0.0213651
0.0316624,0.00313669
0.014888,-0.0571018
0.00632361,-0.0663305
0.00898182,-0.0361044
0.0150235,0.0134198
-0.0211307,0.0225109
-0.0406196,0.0164945
-0.00716196,-0.002141
-0.00365083,-0.0357251
-0.0114673,-0.01291
0.0189736,0.0282318
0.0640771,0.00212794
0.0710703,-0.0110448
-0.00621209,-0.00887824
-0.056384,-0.0116447
-0.02204,0.00293938
-0.0156333,0.0214065
-0.0371265,0.0275948
-0.0292522,0.00360786
-0.00113163,0.000983814
0.00758571,-0.00834836
-0.00751136,-0.0204554
-0.0117677,-0.0203181
0.0064685,0.00655257
0.0199862,-0.00669271
0.0155598,0.0255187
0.0169254,0.0364956
0.0522907,0.00230617
0.0701662,-0.020654
0.0234456,-0.0141134
-0.0192705,-0.00420565
-0.00151925,-0.00452077
-0.0373895,0.0105765
-0.0700039,0.00175739
-0.0232866,0.0285203
0.0095441,0.0205451
0.0158698,-0.0159216
-0.00758604,-0.013517
-0.0328628,-0.0167128
-0.0399929,0.00521538
-0.0329682,0.0158783
-0.0259167,0.0150076
-2.37e-06,-0.0232436
0.0359613,-0.00766528
0.0354573,-0.0325033
0.0248141,-0.0321405
0.0190381,-0.0203493
0.0226168,-0.013126
0.0163807,0.0176869
0.00633996,0.0199163
0.00787064,0.0222138
0.00987291,0.0197514
0.0148512,0.00133922
0.0064997,-0.000778003
-0.00113118,-0.00332381
-0.00589086,0.00289278
-0.0170473,0.0125219
-0.0161048,0.00596524
-0.0174043,0.00339847
-0.0396354,0.00449018
0.0111327,0.0164122
0.0384678,0.0604086
-0.00842601,0.0220762
-0.0279952,-0.0124107
0.00412015,-0.067959
0.0544224,-0.0455402
0.012585,-0.0184451
-0.0456392,-0.0307798
-0.0284426,-0.0294122
0.00265958,0.0632963
-0.0191915,0.103139
-0.0197305,-0.0103784
-0.00383455,-0.0231882
0.00688412,-0.00648969
0.0116877,-0.0103536
0.0124803,-0.0121535
0.00293198,-0.0024221
-0.00335954,0.00383514
0.00853795,-0.00969813
-0.0140871,0.00584875
-0.0209299,0.00496864
0.0209343,0.00907785
0.0367223,0.0316749
0.0463471,0.00153404
0.0354404,0.0302117
0.0203594,0.0221818
0.00190798,-0.0439729
-0.0108653,-0.0379845
-0.0244825,-0.0251576
-0.0186317,-0.0148842
-0.00466178,-0.00418394
0.00390679,-0.00294387
0.00339237,-0.020626
-0.0104427,-0.0107626
-0.0334033,-0.00770864
-0.029191,-0.00706654
-0.0116846,0.0064015
0.00751181,0.0167236
0.00304994,0.010995
-0.0135203,-0.00827423
-0.00466917,0.0137076
0.00240953,0.0308362
0.025681,0.0199111
0.0591288,-0.0104836
0.0633433,-0.0267958
0.0719086,0.0118
0.0661921,0.0238695
-0.047133,-0.00109324
-0.170581,-0.0216495
-0.118667,-0.00163177
-0.0466086,0.0217119
-0.00387611,0.00875073
0.0148684,0.00611674
0.034929,-0.0598199
0.037553,-0.0339012
0.0296272,0.0257957
0.0156175,0.0205032
0.0234545,0.0144633
0.00511951,0.0320007
-0.0376452,-0.0350612
-0.0364462,-0.0383717
-0.0149828,0.00714789
-0.00660644,0.0183663
-0.00340551,-0.00573071
0.00978553,-0.023611
0.0197977,-0.00859529
0.0137969,0.00731327
0.00526415,0.00717916
0.00116021,-0.00119777
0.00330044,0.00402987
0.0101744,0.00871762
0.0115784,0.00492878
0.000673531,0.00363473
-0.00308543,0.0136952
-0.00170903,0.0220734
-0.0121862,0.0131539
-0.0391853,0.00695291
-0.0341326,0.00411314
-0.000154157,-0.0076115
0.011848,-0.0138373
0.00455589,-0.00588109
0.00358398,0.00110188
0.0169474,0.00951414
0.0102397,0.0142195
0.0154484,-0.00236331
0.0434257,-0.00769737
0.0874385,0.0167642
0.057163,0.00712452
-0.0100621,-0.0384071
-0.0697714,0.0036274
-0.0593343,0.04604
-0.0176819,0.0476747
0.0223487,-0.00115391
0.0672157,0.00259358
0.072561,-0.0145513
0.0417354,-0.0423495
-0.00746626,0.0047466
-0.0290021,0.0125114
-0.0292658,-0.0394825
-0.088334,-0.0287856
-0.107797,-0.00835418
-0.0366947,-0.00193813
0.0664439,-0.00932228
0.0706543,-0.00394584
-0.00285556,0.0158938
-0.0473262,-0.0238945
-0.0444318,-0.00655392
-0.0305924,0.00127556
-0.0295139,-0.00522295
-0.0190065,0.0115164
0.0178649,0.0179297
0.0284015,0.000146804
0.0140502,-0.00970785
0.00398452,-0.00546281
0.011201,-0.00484338
0.0611112,-0.00530603
0.021184,0.0147904
-0.0406463,0.00632681
-0.0237798,-0.0129016
-0.0138983,-0.00975056
-0.00345238,-0.00990354
-0.0101678,-0.0111549
0.00195954,-0.0171597
0.0115371,0.00665735
0.00178291,0.0218109
0.0121126,0.0197303
0.0270738,0.0068086
0.0179987,-0.00871189
0.00640786,-0.00417426
-0.00689141,0.0105507
0.00596912,0.00546988
-0.00677028,0.0242799
-0.0388817,0.0611737
-0.0322081,0.0596225
0.0114846,0.000236575
0.0667194,-0.0152406
0.0202646,-0.0661617
-0.0307698,-0.0770206
0.0303116,-0.0655835
0.064513,0.0442543
0.001735,0.101166
-0.0462218,0.0306245
-0.0369963,-0.0439953
-0.0158926,-0.00976056
-0.00756911,0.0320854
0.000303643,-0.0214779
0.00503564,-0.0141673
-0.00174874,0.00011408
0.000218474,0.0147465
0.00254887,-0.0385788
0.00125759,-0.0404885
0.00231305,-0.00882746
0.00210814,-0.00715684
0.00367172,-0.00758567
0.00652452,-0.00367079
-0.000946236,0.0012158
-0.00871057,0.000112219
-0.0106806,-0.00547454
-0.00969378,0.00871324
-0.00587487,0.0199585
-0.000871932,0.0184101
0.0098798,0.00685891
0.0418498,0.023272
0.0848089,0.0373926
0.114489,-0.00125565
0.0349372,-0.0588163
-0.128679,-0.0417353
-0.154771,0.0200024
-0.060572,0.0279078
-0.00800862,0.00943028
0.0149716,-0.0157574
0.0345018,0.0232262
0.035208,0.0410095
0.00922181,0.0265178
0.01193,-0.00400146
0.0215295,-0.0174365
-0.0206169,0.0305817
-0.0187033,0.0294738
-0.0176657,-0.0576734
-0.035236,-0.0707398
-0.0397378,-0.0298347
-0.0317425,0.0142038
0.0111854,0.036324
0.0358088,0.0135897
0.0252589,-0.0262363
0.00719729,-0.034508
0.00897312,-0.0080685
0.0187526,0.0259698
0.0200902,0.0159476
0.0140899,-0.0122152
-0.0035133,-0.0153544
-0.0134801,0.00651892
-0.0163448,-0.00832991
-0.0204722,-0.00730443
-0.0127258,0.00484146
-0.00507263,0.00897501
-0.00195845,0.00337839
0.00274727,0.00371481
0.0138602,0.0173327
0.0207253,0.0147421
0.030381,0.0100553
0.0193365,0.0195767
0.0139336,-0.0148141
0.0343252,0.00544593
0.0491884,-0.00256384
0.0114464,-0.00283187
-0.0416143,-0.00534928
-0.0657245,0.00640566
-0.062102,-0.00351056
-0.0570866,0.00787251
-0.054689,0.0113811
-0.0558458,-0.00735819
-0.00413915,-0.0133618
0.0424014,0.0023539
0.064321,0.00230728
0.102193,0.00786285
0.120159,0.0304828
0.0284063,0.0110145
-0.0403202,-0.0136964
-0.0419818,-0.0249312
-0.0563935,-0.0190299
-0.0155194,-0.0159296
0.0350889,-0.0204246
0.00841319,-0.0567312
-0.0390259,0.00453765
-0.0376174,-0.00259222
-0.0156252,0.0249884
-0.00193969,0.0521658
0.00885316,0.0319466
0.00759207,0.0271841
0.00161576,-0.00980023
0.00566421,-0.0595137
0.00594251,-0.0162199
0.0104114,0.0149028
0.0132168,0.0160889
0.0115729,0.00698902
0.00788773,0.00427032
0.00856734,-0.00353195
0.0116602,-0.0115488
0.0107381,-0.0157437
0.00367587,-0.00879432
-0.00515001,-0.00652713
-0.011689,-0.00845388
-0.0180106,0.00135082
-0.0237008,-0.00759236
-0.0257026,0.0137306
-0.0193282,0.0457763
-0.0175116,0.0183214
-0.000992336,-0.0147836
0.0176697,0.0141621
0.00345419,0.0345819
-0.0485289,-0.0122526
-0.0570399,-0.0124446
-0.00256673,0.000127056
0.0402327,-0.0139182
0.0451482,-0.0133637
0.0532822,-0.0257324
0.102577,-0.0222692
0.130928,0.0255649
0.110011,0.0192319
-0.0293193,0.00864652
-0.149385,0.0133105
-0.0913934,0.00830806
-0.00410363,-0.00834897
-0.00614447,-0.0412496
-0.0383651,-0.0503482
-0.0225169,-0.0126744
-0.000169842,0.0185968
-0.0178667,0.0136863
-0.044074,0.00994433
-0.0305924,0.0391605
-8.61e-05,0.0127202
0.0164001,-0.0141173
0.0160893,-0.0205852
0.000850411,-0.0129145
-0.0105318,-0.00839132
-0.00994569,0.00654331
-0.00819335,0.00160153
0.0231384,-0.0137286
0.0325075,-0.0146312
0.0148972,-0.00254975
0.00776074,0.00262259
0.00825949,0.00687245
0.0149695,0.0113634
0.0166518,0.00963334
0.00920215,0.0091025
0.00128791,0.0359966
0.0097151,0.00284909
0.00171645,-0.042043
-0.0106537,-0.0150253
-0.0195799,0.011995
-0.00567465,0.0272676
0.0200372,0.0291037
0.000528109,0.0197185
-0.0231149,0.0144338
0.00572236,-0.0467546
0.0129142,-0.0459263
-0.0055248,0.00256985
-0.0059381,0.0524636
0.00498679,0.00967457
0.00543044,0.0490308
0.0213103,0.0162996
-0.00417058,-0.0435885
-0.0333981,-0.043111
-0.0348984,-0.0181879
0.00709487,-0.000846308
0.0237361,0.00122888
0.0254954,0.00157032
0.0125452,0.00244774
-0.041337,-0.00400306
-0.0384448,-0.043046
-0.0244104,-0.0207044
-0.00921363,0.0203187
0.0110358,0.00468832
0.0149028,0.00556558
0.0208235,0.0195142
0.0404145,0.014951
0.0351028,-0.000787377
-0.0119948,-0.0196834
-0.0451958,-0.0151771
-0.0288722,0.0144517
-0.0186607,0.0209652
-0.0131344,-0.004854
0.0253093,-0.0265104
0.0326227,-0.0184333
-0.00569192,0.0203905
-0.0180142,0.0423589
0.00608859,0.0170771
0.0168305,-0.0271983
-0.0155072,-0.0241027
-0.0286031,0.00077428
-0.0120052,0.00620308
0.00671794,0.00640779
0.0391663,0.0147037
0.0534178,0.0355436
0.0110662,0.0329801
0.00793818,-0.0154159
-0.006609,-0.0193026
-0.017567,-0.0135947
-0.0135891,-0.00958022
-0.0173021,-0.00177735
0.0101178,0.0140783
0.0314454,-0.00456466
0.0157629,-0.0241574
-0.00848554,-0.0441958
-0.0158231,-0.00525578
-0.0206534,0.0342169
-0.0126783,0.0202024
-0.00734899,0.0145163
-0.00614049,0.0120532
0.00320688,-0.00861343
0.0270534,-0.0155607
0.0215123,-0.0118151
-0.0135657,-0.0140303
-0.0268593,-0.0112517
-0.00411948,0.00340699
0.0265532,0.0167274
0.0472853,0.000754234
-0.0161603,0.0201253
-0.0447868,-0.0182838
-0.000717296,-0.0188268
0.0364374,-0.0280266
0.0182926,-0.0232319
-0.00796865,0.00671588
-0.0252408,0.00889784
-0.0320202,0.0313881
-0.0175859,0.0441575
-0.000575701,0.0193499
0.0100542,-0.023787
-0.00985751,-0.021552
-0.0398929,0.0217749
-0.015676,0.00572901
0.00637446,-0.0165571
-0.00473569,0.0273485
-0.00948149,0.0205249
0.0233048,-0.0276201
0.0358478,-0.01743
0.0193499,0.00080136
0.00372383,0.00174691
0.00152984,-0.0156965
0.00592565,-0.0177505
0.0129238,-0.0017526
0.00590747,0.010279
0.000333504,0.015432
0.00701422,0.0170626
0.0217856,0.00814433
0.0205928,-0.00586486
0.0285168,-0.0026487
0.00370484,0.038946
-0.0522022,-0.00748905
-0.0535415,0.0276404
-0.0220391,-0.0190116
0.00472135,-0.0405049
0.0263805,-0.0147495
0.0325,0.00309536
-0.00121028,0.00542011
-0.0466431,0.00215534
-0.0171644,-0.00307375
0.0478618,0.00546599
0.0520677,0.00610792
-0.0147206,-0.0147574
-0.067484,0.00327216
-0.0548466,0.0299563
-0.0217368,0.00183112
0.00208059,-0.0289565
0.0163406,-0.017518
0.0267111,-0.0125997
0.0166162,-0.00311922
0.0223629,0.0108967
0.0279108,0.0118034
-0.000768207,0.0110648
-0.0244469,0.00011865
-0.0167241,-0.0101213
0.000704308,-0.0133681
0.00254085,-0.0140426
-0.0043116,-0.0121052
-0.00905457,0.00518723
0.00615171,0.0019653
0.0217796,0.00939142
0.00303349,-0.0100369
-0.00684155,0.00224709
-0.00597774,-0.00486348
-0.033472,-0.0215297
0.00390136,-0.0192582
0.0480728,0.0169911
0.00656277,0.0160882
-0.0147607,-0.00184119
-0.0022071,-0.00553905
0.00481846,0.0017881
0.00396316,0.00722967
0.0223683,0.0198627
0.0411371,0.029022
0.0486667,0.0247982
0.0421571,0.0104508
-0.0172682,0.0322467
-0.0686855,-0.00840983
-0.0632797,-0.0336383
-0.0463274,-0.00161743
-0.0280296,-0.02368
-0.024031,-0.0392141
-0.0139508,0.00444839
-0.00526852,0.0236508
0.0100657,-0.0230857
0.0277106,0.000139853
0.0662881,0.00837874
0.103272,0.0148186
0.0616676,0.00188192
-0.0726421,-0.0313614
-0.109249,-0.0248889
-0.0310819,0.0196345
0.0115729,0.0075377
0.0013987,-0.00283911
-0.00606296,0.0101846
-0.0107423,0.00980121
-0.0105559,0.00726343
-0.0115462,-0.00413586
-0.0113114,-0.0170192
0.0135545,0.00076366
0.0241624,0.00886373
0.00828218,7.92e-05
0.00854298,0.0202058
0.0280468,0.0372843
0.0565052,0.00135244
0.0820238,0.00978058
0.0228404,0.00648539
-0.0594044,-0.0158477
-0.0620833,-0.0117821
-0.0415257,0.0130587
-0.0144132,0.0145545
0.00535499,-0.00766547
0.0109248,-0.00489588
0.0102927,-0.0123635
0.0143967,-0.0530447
0.0136991,-0.0338211
-0.00501277,0.0147578
-0.0216285,0.0577543
-0.00873874,0.0239582
-0.00825944,9.47e-05
-0.0180539,0.00474886
-0.0272445,0.0578817
-0.0137265,0.0193476
0.0240166,-0.0732519
0.0396737,-0.0753674
-0.00351608,-0.030354
-0.0359127,-0.016929
-0.00789408,-0.00397187
0.016478,0.00221098
0.0206206,0.00286613
0.0240523,0.0196645
0.00481321,0.0539288
-0.0141485,0.0222148
0.00497404,-0.0300445
0.0124702,-0.000908817
0.0241379,0.0217516
-0.00355009,0.0108294
-0.0447965,-0.00675889
-0.0101461,-0.00174319
0.00986113,-0.0104577
-0.0196276,-0.0171895
-0.00672452,0.00482429
0.0210789,0.0100354
0.0121114,0.000218379
-0.0018228,-0.0048837
-0.0145258,0.00863535
-0.0155973,0.00850819
-0.00560658,-0.0326456
0.0192007,-0.0353114
0.0349971,-0.00097605
0.0322112,0.007052
0.00433903,-0.00300618
-0.0207619,0.00460189
-0.0227796,0.00104453
-0.0161008,0.00183718
-0.0198213,0.0202074
-0.0108247,0.0417839
0.00340186,-0.00607531
0.00122467,-0.00362895
0.00398131,0.0127167
0.00615947,0.00272123
0.00481588,0.000260981
0.00515585,0.00390363
0.011289,0.00144287
0.0113334,-0.00664949
0.00535718,-0.00558532
0.0141027,0.00334147
0.0181228,0.0101195
0.0190063,0.00577478
0.00695402,0.00603254
0.00334966,-0.00454656
0.00531511,-0.00671462
-0.0181557,0.00797835
-0.025979,0.000396604
-0.00918062,-0.00731781
0.00752827,0.00887944
0.0092099,0.00837322
0.00262699,-0.00526918
0.00171654,-0.00465196
-0.00155973,-0.00658699
-0.00790049,-0.0148566
-0.0179328,-0.0312036
-0.0247427,-0.0220438
0.00118028,0.000791032
0.014426,-0.0105708
-0.0163156,-0.000517714
-0.0381078,-0.0124841
-0.0355577,-0.0102084
-0.0171249,0.00529997
0.00872679,0.0184924
0.0491444,0.0131833
0.0403182,-0.0104942
-0.037935,-0.00327784
-0.0484478,0.0168146
0.00469514,0.0231803
0.0537047,0.000796657
0.0619759,-0.018172
0.0206561,-0.0377899
-0.0356208,-0.00108762
-0.0254305,0.00495962
0.00415876,-0.00994849
-0.045459,-0.0052853
-0.0705286,-0.00332671
-0.0285052,0.00402228
0.013092,0.0140642
0.0135056,0.00422503
-0.0150037,-0.00281098
-0.0195667,0.0256984
0.0138959,0.0233282
0.0265097,0.0135133
0.0455081,0.0104568
0.056111,-0.0148761
0.0296064,0.03479
0.0340663,0.0215869
0.0656979,-0.028512
0.0573706,-0.0143828
-0.0349134,0.00539497
-0.0902725,0.00393966
-0.0551893,0.00264087
-0.0163681,-0.011176
-0.00147953,-0.017213
0.00794666,-0.00939082
0.00194765,-0.00526962
-0.00891552,0.00455044
-0.00524494,0.0104081
-0.00134115,0.0117663
0.00639707,-0.00161747
0.0138064,-0.0113254
0.00949487,-0.000899889
0.00850765,0.00476795
0.0216104,-0.0014562
0.0334473,-0.00162735
0.0166341,0.0097884
0.00289412,-0.00292299
-0.00229026,-0.0115086
-0.00843269,0.00244301
0.00341934,0.00854357
-0.00600085,-0.0194629
-0.0167976,-0.0193957
0.0287799,0.0134395
0.0340383,0.00602831
-0.0509279,0.00543556
-0.092463,0.00478914
-0.0523926,0.00842434
-0.019903,0.00301275
-0.0153511,0.000846769
0.0127789,0.00517063
0.0100803,0.00398632
0.00308949,-0.0157143
-0.00767667,0.0153626
-0.0103408,-0.000178294
-0.000239014,-0.00682667
0.0227359,0.00743551
0.0258122,-0.00509346
0.0169646,-0.0175944
0.00782329,-0.0213067
0.00195537,-0.020815
0.00672595,-0.00362832
0.0295729,0.00863342
0.0357672,-0.00126241
0.0276251,-0.00283435
0.0150929,0.00704622
-0.00616975,0.0240222
-0.00214644,0.0433962
0.0113141,0.0267234
-0.0185901,-0.00916385
-0.0466134,-0.0202194
-0.0133836,-0.0290602
0.0257977,-0.00682907
0.025127,-0.0143202
-0.0145648,-0.0282174
-0.0407407,0.00137976
-0.0174462,0.00109053
0.00544545,0.0128593
-0.000430819,-0.00641822
-0.0199035,0.00653916
-0.0197718,0.00834109
0.00338383,-0.00779479
0.0133495,0.0251453
0.0268315,0.00547617
0.00310141,-0.0131518
-0.0477014,0.0279135
-0.0201624,0.0270641
0.04982,0.00175005
0.098731,0.00280129
0.103124,0.0360445
0.0135943,0.0132696
-0.0896332,-0.0327914
-0.0959501,-0.0372479
-0.0462182,-0.0225141
-0.0138219,-0.00650637
0.000647431,0.00940832
0.0072697,0.00869894
0.00941081,-0.000519226
0.00166836,-0.00327563
0.00127716,-0.0130473
0.000110099,-0.0108725
0.00348119,0.00208672
0.00650857,0.0237849
-0.0276815,0.0189323
-0.0330479,0.00461212
0.00294687,0.0179333
0.0280351,0.0105735
0.0264444,-0.0227306
0.0325764,-0.0423671
0.0269109,-0.0329221
0.00189576,-0.0282896
0.00779904,-0.0125585
0.0328356,0.0234319
0.0319819,0.027935
0.00102352,0.00746054
-0.0687704,0.00636372
-0.069201,0.00162071
-0.0136842,-0.0149029
0.00345944,-0.0101232
-0.0120177,0.0174042
-0.00191645,0.0338156
-0.0048831,0.024864
-0.0308822,0.00750299
-0.0108028,-0.0188513
0.0202902,-0.0213217
0.0118026,-0.00787949
-0.00769374,-0.0273886
0.0238705,-0.020838
0.0222785,0.00835552
-0.0131086,0.00527164
-0.0104596,-0.0157238
0.0275099,-0.00526965
0.0306704,0.00536306
0.0117768,0.00573919
-0.01197,-0.00492339
-0.0150639,0.0105732
0.000348476,0.029935
0.0033418,0.0353707
0.0101242,0.0223281
0.0283994,0.00941882
0.012847,0.00181792
-0.00502945,-0.0288383
-0.0298726,-0.0239188
-0.0418439,-0.000511067
-0.0181091,0.0109652
0.0010813,-0.00225141
0.0229143,-0.0155932
0.0457246,-0.0216928
0.0430918,-0.0154037
0.0246833,0.00560252
-0.0212839,0.00472119
-0.0533773,0.00335697
-0.0333874,0.0028691
-0.00996905,0.016096
-0.0205001,0.0258754
-0.0219022,-0.0185208
-0.0179553,-0.0213526
-0.00270411,-0.00408817
0.0124859,0.00108732
0.0113087,-0.00687009
0.00790334,-0.00994537
0.00442472,0.000145625
0.0115084,0.0129254
0.026236,0.00921369
0.0327853,-0.00703135
0.0177147,-0.0084253
0.00320866,0.0013325
-0.00279995,-0.00281416
-0.0120012,0.000690816
-0.0310144,0.015677
-0.0309939,0.0109729
-0.0275963,0.00920253
-0.0188677,0.00721618
-0.000540899,-0.00614944
0.021734,-0.0114166
0.0222521,-0.00654958
0.0170097,-0.000977792
0.0186774,0.0177524
0.0175048,0.00772862
0.0299232,-0.00258427
0.0465874,0.0272212
0.0477519,0.00395627
0.0301651,-0.0217333
0.00569125,-0.0127703
-0.0566357,0.00646133
-0.0696462,0.0162813
-0.0303904,0.0402867
-0.00261174,0.006615
-0.0098278,-0.0467234
-0.0132527,-0.019312
-0.00117463,-0.000579583
0.00404373,0.00551986
0.00981522,-0.00398013
0.00915078,-0.00968179
-0.00522211,-0.00197424
0.00531123,0.00925739
0.0217706,0.0037262
0.00820668,-0.00213608
-0.0216724,-0.00759231
-0.0224187,-0.00339133
-0.0147537,-0.00161991
-0.00321829,-0.0136972
-0.0051151,-0.00419229
-0.0218179,0.0166125
-0.020758,0.00462292
-0.0198475,0.00265237
0.00506641,0.00490932
0.0305719,-0.00247844
0.0470069,-0.0107122
0.0319647,-0.00613414
-0.0111225,0.000108877
-0.029124,-0.000217185
-0.011121,0.0107185
-0.00137059,0.00498419
0.00458744,-0.0117334
0.0147056,-0.0107252
0.0161189,-0.00748961
0.00998527,0.0109555
0.00592024,0.00487721
-0.00145165,0.00886404
-0.00226875,0.00644391
0.00182298,-0.00919136
-0.00773516,-0.00212992
-0.0122831,0.00301403
-0.00969221,-0.00571146
0.000338865,-0.00919109
0.0127818,-0.000755461
0.00950844,0.0031296
0.00786716,0.00647461
0.00553595,0.0112891
-0.00808705,0.0019848
-0.0248935,-0.00391334
-0.0136659,0.00478253
-0.0116909,0.00222484
-0.00735437,0.0138667
0.00946346,0.00189301
0.00888507,-0.026141
0.00756942,-0.0128447
0.00836453,-0.0082197
-0.00116095,-0.00446651
-0.0097166,-0.00563838
-0.00951646,-0.00387092
-0.0125941,0.0215178
-0.00426702,-0.0092843
-0.00227435,-0.011944
-0.00750832,0.00935548
-0.00235771,0.0159714
0.00582607,0.00606121
0.00963139,0.00133765
0.00734863,0.0030293
0.00513415,0.00152518
0.00501748,-0.00334665
-0.000145627,0.00684255
0.000663688,0.0171488
0.00564991,0.00820495
0.00593416,-0.002583
0.00851851,-0.00560603
0.0231886,-0.00700911
0.0344684,-0.0108467
0.00218465,-0.0159555
-0.0301916,-0.0122248
-0.0392815,-0.00512664
-0.0257881,0.00760023
-0.005243,0.00944079
0.000464116,0.00279235
0.00569711,-0.00159928
0.0148881,-0.00594228
0.0107073,-0.00841556
0.0125926,-0.0147231
0.00630206,0.0093057
-0.0116254,0.0387373
-0.0139894,0.0292117
-0.00349253,-0.00794897
0.00164064,-0.0189371
0.00619046,-0.0147251
0.00264421,-0.00896886
-0.00480813,0.0163939
-0.00436236,0.00731787
-0.00347787,0.00611778
0.00347883,0.00797981
0.00250572,0.00224958
-0.00277409,-0.00805529
0.00586941,-0.00628688
0.0177518,-0.00417928
0.0394489,-0.0032818
0.043312,0.0073855
-0.00056486,0.0112443
-0.0348017,0.0105717
-0.0248464,0.00998254
-0.0113294,-0.00694067
-0.00552203,-0.0189917
0.0107164,-0.00928358
0.0133315,-0.0145589
-0.0219936,-0.0085135
-0.0193104,0.00443305
0.000299529,0.0157535
-0.0109758,0.011827
-0.00662159,-0.003402
0.0083713,-0.00200735
0.00514906,0.00740897
-0.0084507,-0.0197651
-0.00488548,-0.0181661
9.54e-05,-0.00534132
-0.00227135,0.00299739
0.00333321,0.00205588
0.00628714,-0.0054204
0.00229827,-0.00808803
0.00220618,-0.0075645
0.00649801,-0.00911767
0.00709523,-0.00384851
0.00290635,0.0040749
-0.00370586,0.0134546
-0.00945622,0.0209115
-0.0040988,0.0137763
0.00306365,0.000279031
0.00367032,-0.000937292
0.0035257,0.000529369
0.0045885,-0.0014994
0.0065602,-0.00500741
0.0120659,-0.00137351
0.0213714,0.00207627
0.00785636,9.52e-05
-0.0164727,0.00121463
-0.0134291,0.00512699
-0.00454352,0.00102617
-0.00236282,-0.00254744
-0.00636858,0.00813071
-0.00750235,0.0119111
-0.0125965,0.0254137
-0.0150798,0.016641
-0.00895526,-0.0152908
-0.0028746,-0.0164702
-0.00227711,-0.00796199
-0.000805225,-0.00505228
0.00128262,-0.00789161
0.00337715,-0.00857791
0.00360742,0.000204808
0.00756286,0.000476199
0.00960504,-0.00452675
0.00273923,-0.00383351
-0.00127163,-0.00432959
0.00219932,-0.00594081
0.00477837,-0.0038483
0.00216368,0.00528288
-0.00071596,0.0092253
-0.00621588,0.0154065
-0.00523806,0.0181425
-0.000637764,0.00646142
0.00388527,-0.00301305
0.00370088,-0.00398832
0.00443935,-0.00667363
0.00362058,-0.0135291
-0.000572924,-0.014023
-0.00439749,-0.0033873
0.00125953,-0.00592098
0.00376664,-0.00956857
0.00202719,-0.00564412
0.000862012,-0.00958564
9.82e-06,-0.0137168
-0.00103581,-0.00908374
-0.00120581,-0.00324316
-0.00418203,0.00747792
-0.00657372,0.0216959
-0.00202083,0.0279025
0.00125886,0.0136676
0.00304868,-0.00496583
0.00109249,0.00515698
0.00302536,0.00560827
0.00154462,-0.00775282
-0.00417809,0.00220278
-0.00801837,0.0218115
-0.00227817,0.0160694
-0.00223912,-0.00400873
-0.00302522,-0.00496585
0.00273732,-0.0222644
0.00445267,-0.00165115
0.0036238,0.00853249
0.00230624,-0.0239509
-0.00373376,-0.00467021
-0.00728024,0.0128638
-0.00229236,0.0144185
0.00717432,-0.00493633
0.00525052,-0.00458932
0.00629103,0.00287906
0.0077087,-0.00308638
0.0037016,-0.0101279
0.00441757,-0.0035047
0.0178437,0.00229624
0.0278459,-0.0048385
0.0215169,-0.00243563
-0.00534249,0.00612852
-0.0183325,0.00659495
-0.0273707,-0.0114876
-0.0535594,-0.00339568
-0.0438184,-0.0101917
-0.0372707,0.0013181
-0.0249522,0.00782252
0.00428171,0.00321663
0.00679069,0.00301308
0.00631286,0.00943878
0.00523525,0.00745407
0.00244627,0.00141137
0.00260216,0.00254371
0.0118805,0.010386
0.0401481,0.0110465
0.0336029,0.00535301
0.0291226,0.000239887
0.0507523,-0.0089575
0.0627345,-0.0187753
0.0194944,-0.0184446
-0.0195069,-0.0105003
-0.0456284,0.000640972
-0.0853761,0.0110875
-0.073067,0.0170864
-0.0478551,0.0117998
-0.0273567,0.010365
-0.0096247,0.0073034
0.0105692,0.00120371
0.022741,-0.00495085
0.0247945,-0.00173868
0.0241277,0.000219138
0.0294408,-0.00803456
0.0288817,-0.00896544
0.0245715,-0.00954629
0.0242104,-0.0131903
0.020377,-0.0129344
0.0155727,-0.00452209
-0.00987041,0.00393396
-0.0167594,0.0112171
0.00717989,0.0147367
0.0219787,0.00834289
0.021889,-0.0010461
0.0149006,-0.00289352
0.00176746,-0.00588916
0.0118688,-0.00841282
0.0348362,-0.0101157
0.0265626,-0.000530761
0.00370969,0.00478652
-0.0318717,-0.00330809
-0.0613404,-0.00422843
-0.0494684,-0.00543698
-0.0243029,-0.00792105
0.0308644,-0.00752287
0.0706521,0.000205241
0.063103,0.00343755
0.0328811,0.0120758
-0.000833668,0.0158834
-0.07048,0.00480494
-0.0771909,0.00106107
-0.0267844,0.00377278
-0.032605,-0.00206363
-0.0323521,-0.0059704
-0.0223111,-0.000256846
-0.0128254,0.0112935
-0.00235222,0.00883584
0.00456298,0.000208527
0.0055779,-0.00387422
0.00132594,-0.0102381
-0.00504629,-0.0132467
-0.0118515,-0.0094777
-0.0158435,-0.00214906
-0.0108785,0.000460007
-0.00276303,0.00600214
0.00090514,0.00645159
-0.011828,-0.00496199
-0.00384585,-0.00780215
0.012303,-0.00728491
0.0389433,-0.00902846
0.0453055,-0.0103457
0.0549075,0.000479892
0.0527391,0.0148093
0.0369573,0.0143739
0.000605261,0.0121188
-0.0353047,0.0104694
-0.0473608,0.0076445
-0.0317623,0.00214022
-0.0368093,0.00813169
-0.000614047,0.0104233
0.054359,0.0145297
0.0771651,0.0178703
0.0523329,0.00698185
0.0024545,-0.00842393
-0.0556466,-0.00662442
-0.0891516,-0.0104323
-0.057422,-0.015233
-0.0339068,-0.0165482
-0.032592,-0.00416418
