Comp Ch 3,Comp Ch 4
0.223711,-0.00466521
0.153064,-0.0289575
0.0211802,-0.0327203
-0.0439693,-0.00764399
-0.0242914,0.00463567
0.026601,-0.00876527
0.0457441,-0.0268459
0.031059,-0.00184982
0.0167111,0.0231849
0.0348126,-0.017988
0.00234307,-0.0306246
-0.0377561,-0.0125197
-0.0342768,-0.0138144
-0.0306899,-0.00606741
-0.0453837,0.0174372
-0.0582212,0.0246161
-0.0681987,0.0091826
-0.0566235,-0.0034204
-0.0323429,-0.00374013
-0.0180625,-0.00127528
-0.0165204,0.000185823
-0.0162978,0.00386621
-0.00253941,0.00483623
0.0190673,0.0103469
0.0372559,0.0261678
0.0439007,0.0296609
0.0363256,0.0109758
0.0246269,0.00664661
0.0211872,-0.000829029
0.0146919,-0.0206887
-0.00389776,-0.012407
-0.0291804,0.0070548
-0.0414829,0.0192714
-0.039116,0.00195921
-0.037103,-0.0106911
-0.0303444,-0.00609308
-0.0258772,-0.0165237
-0.0200898,-0.0287346
-0.00868781,-0.0150154
0.0107738,0.00506921
0.0220569,0.0415703
0.0315827,0.0330483
0.0336984,-0.00244122
0.0290942,-0.00170654
0.0359461,-0.00988761
0.0457795,-0.0292328
0.0284467,-0.0068808
-0.00426643,0.0252397
-0.026421,0.0248137
-0.0310903,-0.0125216
-0.0326277,0.0297605
-0.0218206,0.00211315
-0.0103643,-0.0180177
-0.0140192,-0.00108845
-0.0124579,0.000147299
0.00169287,0.0269213
0.0278579,-0.0193185
0.0377068,-0.00885789
0.041676,0.0118537
0.038657,-0.0139905
0.0227023,-0.0132866
0.0151993,0.0050277
0.0187893,-0.0228224
0.00213619,-0.0306584
-0.0289366,-0.0110695
-0.0603752,0.00903143
-0.0544634,-0.00262073
-0.0402262,-0.0186861
-0.0461948,0.00753349
-0.017826,0.0148563
-0.0227868,0.034644
0.00629532,-0.0350071
0.0836159,-0.0338091
0.115242,-0.00897561
0.102826,0.0159158
0.0789654,0.0296585
0.0399204,0.0245458
-0.0129903,0.0131639
-0.0673506,-0.00868581
-0.095909,-0.0214866
-0.0704896,-0.0228478
-0.0542152,0.00289641
-0.0282628,0.0206334
-0.000514631,0.00138474
0.00438485,-0.00640501
-0.0302267,-0.00876307
-0.0456875,-0.0093271
-0.0466462,-0.00812286
-0.030854,0.00752424
0.00587495,0.0159416
0.0196733,0.0223572
0.0226506,0.0359115
0.0576535,0.0167524
0.0787458,-0.0229383
0.0754822,-0.0260108
0.0814904,-0.0263037
0.0623386,-0.0221431
0.0254556,-0.0175428
-0.021356,0.00176934
-0.0477268,0.0164166
-0.0434517,0.0152483
-0.0441759,0.0170675
-0.0307861,0.0107237
-0.0316182,0.00504107
-0.0375856,0.00404925
-0.0171973,0.0142365
-0.00996027,0.012247
-0.0150424,0.0337404
-0.00326247,0.019199
0.00594405,-0.00452882
0.0189307,-0.0193829
0.0342012,-0.0216471
0.0350928,-0.0302899
0.0276938,-0.0336939
0.0102105,-0.0223192
-0.0194718,-0.00513734
-0.0160574,0.0015822
0.00727221,0.00455536
-0.00210963,0.00394872
-0.0212328,-0.0118799
-0.0109297,-0.0087035
-0.00692437,-0.0276006
0.00352256,-0.0212068
0.0137623,-0.00564202
0.00437804,0.0153822
-0.012173,0.0129766
0.00499213,-0.0121575
0.00738717,-0.0106145
0.00968488,0.0106279
0.0120077,0.0147028
-0.00280612,0.00128532
-0.00868502,0.0438102
-0.0213698,0.0389613
-0.0208618,0.0173566
-0.00994469,0.00285186
-0.00750763,0.023941
-0.0143535,0.0195265
-0.0161332,0.0107805
-0.0112063,0.0124424
-0.00120993,-0.0143815
-0.00365955,-0.00776794
-0.0085945,-0.00176128
0.0134686,-0.00841206
0.034776,-0.0113671
0.0318252,-0.00257265
0.0293495,-0.00710941
0.0264905,-0.0100243
0.0184699,-0.00498611
-0.00537027,0.0152731
-0.0239005,0.0244594
-0.0150751,0.0138128
0.000218518,0.0175788
0.00407431,-0.0154197
-0.00762306,-0.0218931
-0.0150515,0.00751534
-0.00704375,0.00425849
-0.00319912,-0.00096735
-0.00688731,0.00909908
-0.00688237,0.0119038
0.00527018,-0.008048
0.00730536,-0.012971
0.00479081,-0.0125573
0.00724331,-0.0187563
0.013243,0.0222585
0.00827407,0.0437055
0.00318898,-0.0169733
0.00171199,-0.0322648
-0.0012275,-0.025692
-0.00682639,-0.0219432
-0.00807087,0.020431
-0.00649001,-0.0117014
-0.00230851,-0.0636126
0.00511963,-0.0306286
0.00887207,0.00204308
-0.00103483,0.0115257
-0.00710085,-0.00591158
0.00253709,-0.0120821
-0.00250391,-0.00364733
-0.00654481,-0.00331151
0.00272271,-0.00975029
0.0135584,-0.0110156
-0.000404354,0.0154499
-0.0242638,0.0363829
-0.0441931,0.0409168
-0.056779,0.0553245
-0.0113021,0.0495477
0.0554684,0.0429867
0.0470172,-0.00219818
0.0103299,-0.0416693
-0.000473631,-0.035986
-0.0172076,-0.012046
-0.0151846,-0.00429188
0.015016,-0.0240847
0.0210975,-0.0276818
-0.00109761,-0.00998375
-0.0183791,-0.0229899
-0.0144329,-0.0357994
-0.014885,-0.0234093
-0.00830641,0.0107528
0.0163507,0.0298807
0.0491266,0.0271503
0.0547748,0.0263807
0.0530433,0.0203035
0.0306923,0.0121511
0.0119488,0.00630804
-0.00644935,0.00404479
-0.0288258,-0.00962472
-0.0416302,0.00646808
-0.0304025,0.0307081
-0.0122074,-0.0193521
-0.0107891,-0.0289804
-0.0096949,-0.0186087
-0.0036128,-0.0274784
-0.00448144,-0.0302466
-0.0156039,-0.0153245
-0.0139883,0.0180212
-0.014775,0.0266331
-0.028589,0.0166996
-0.0263389,0.0098507
-0.0220554,0.0341681
-0.0221414,0.0239544
0.0331722,-0.00171693
0.0755995,-0.0227929
0.0365908,-0.0190474
0.0127174,0.0107306
0.022732,0.00763957
0.0168118,-0.0143392
-0.000563,-0.00759181
-0.00955411,-0.0264927
-0.000894545,-0.0182343
0.00491225,-0.0168161
0.000306072,-0.00476332
-0.00582726,0.027326
-0.00599157,0.0353463
-0.00274419,0.0264301
0.00545072,0.0131112
0.00331068,0.0129335
-0.00666717,-0.00578133
-0.0123625,-0.0100357
-0.0141963,-0.000190346
-0.017418,0.00430093
-0.0141748,0.0189282
-0.00961583,-0.00571193
-0.010554,-0.0124417
-0.0115531,-0.0252492
-0.00242474,-0.0353192
-0.00633479,-0.0258
-0.0103971,0.00469417
-0.00271429,0.0580023
0.000146897,0.0946651
0.0103973,0.0438588
0.019115,-0.0340107
0.0137422,-0.0667433
0.00691146,-0.0434113
0.00349914,-0.0158715
-0.00047202,0.00272897
0.00226117,0.00166699
0.00417562,0.0157902
0.00520626,0.0183212
0.00605224,-0.00261351
0.00588943,-0.0102217
0.00606524,-0.00690708
0.00762947,-0.0125969
0.0108376,-0.0230675
0.00453573,-0.0141026
-0.0040119,0.0244824
-0.00119656,0.0336349
0.00231774,0.0106862
0.00525311,0.00174632
0.0179587,-0.0103796
0.0224041,-0.013996
0.000842083,0.016038
-0.0269871,0.0156316
-0.0392845,-0.026477
-0.0372136,-0.000211507
-0.0336805,0.00883511
-0.0307881,-0.00981094
-0.0438474,-0.0216633
-0.0367545,-0.0225815
-0.0247974,-0.0214816
0.0486296,0.0367083
0.0675595,0.0595435
0.0507095,0.0309041
0.0448501,0.00899186
0.0302648,-0.0037218
0.0065696,-0.0211512
0.0172619,-0.0318037
0.024199,-0.0423763
0.0193631,-0.0365545
0.00414095,0.00134903
-0.00815692,0.0199647
-0.0196848,0.0139474
-0.0232726,0.00381282
-0.0232895,-0.00890163
-0.0239275,-0.0135273
-0.0241687,0.0136611
-0.0136223,0.0189074
-0.00232954,0.0121841
0.00595747,0.0190113
0.0116439,0.0155458
0.0145476,0.0127154
0.0123152,0.00414079
0.010445,-0.0163341
0.0155985,-0.0290415
0.00937198,-0.0132964
0.00754504,-0.0129397
-0.00248271,-0.0144426
-0.00779226,0.00258949
-0.02379,-0.0247148
-0.034656,-0.015418
-0.0309272,0.0181111
-0.0201076,0.0402881
-0.00788244,0.0212261
0.00296963,-0.0122277
0.0103436,0.00926749
0.00854574,-0.00738627
0.0132634,0.000258484
0.0143125,0.00974768
0.0129004,-0.00844238
0.00624752,-0.0226642
-0.00138976,-0.0247993
-0.0206442,-0.0158255
-0.0281986,-0.0097744
-0.0204069,0.00646974
-0.0144595,0.0130351
-0.00149661,0.00801925
-0.00316767,0.00958714
-0.0039483,0.0277183
0.00714865,0.00855143
0.021589,-0.00602387
0.0192302,0.0153391
0.00769397,0.0284739
0.0039835,0.0184815
-0.0018545,0.0192719
-0.00121051,0.00311369
0.0249352,-0.0249096
0.0351821,-0.0346924
0.0141757,-0.0270502
0.0035815,-0.00829649
-0.00336477,0.00646024
-0.00692801,0.0321336
-0.00422064,0.0135089
-0.00607928,-0.00658014
-0.0183088,-0.017515
-0.027494,-0.00866751
-0.0292319,0.00807071
-0.0101779,0.00678575
0.020325,0.010377
0.0215774,0.0186479
0.0129118,0.00641907
0.00670411,-0.00533899
0.00445519,-0.012808
0.00417071,-0.0233785
0.00221276,-0.0221034
0.0153356,-0.00784656
0.0321365,-0.017484
0.02491,-0.00515879
-0.0131192,0.0237973
-0.0325222,0.00505776
-0.0290773,0.00358883
-0.0096513,0.0175154
-0.00758837,0.019543
-0.0145218,0.00204097
-0.0118273,-0.00574664
-0.0093336,0.00838333
-0.00297664,0.00206719
0.00518865,-0.011731
0.0103374,-0.00318743
0.00907606,-0.0316101
0.00251567,-0.0240595
-0.00391945,-0.0171426
-0.000629089,0.0332569
0.00793458,0.0367245
0.00849326,-0.0265425
0.00488539,-0.02403
0.00170789,0.0119677
-0.00732227,0.00655357
-0.00797187,0.00316559
-0.00370576,0.00991318
0.00116513,0.0100512
-0.00410039,0.0152863
-0.0184473,0.0214402
-0.0304398,0.0104804
-0.039775,0.00238957
-0.047003,0.00152208
-0.00778516,-0.0218417
0.0424895,-0.0406513
0.0438105,-0.0163833
0.0341033,-0.0181417
0.0344772,-0.018019
0.050798,0.0125115
0.0557735,0.0216548
0.0291388,0.00877526
-0.0153643,0.00407588
-0.0313716,0.0166687
-0.00351333,0.0179082
0.00990266,0.0123224
-0.000410697,0.0206768
-0.00101098,0.020235
-0.00436794,0.0304438
-0.00490465,-0.0223339
-0.00679265,-0.0776492
-0.0175071,-0.068253
-0.0454123,-0.0349643
-0.0265869,-0.00495752
0.0309868,-0.00156508
0.0151471,0.0175568
-0.00811702,0.04113
-0.0144013,0.0393607
-0.0126056,0.00514207
-0.01153,0.00613047
-0.000229252,0.0148559
0.0194555,0.00343115
0.0376304,-0.00670061
0.0407215,0.00199264
0.0169128,0.00223217
-0.0193489,-0.0134705
-0.0315485,-0.0141926
-0.0161487,-0.0059135
-0.0189167,-0.00796682
-0.0279767,-0.0192409
-0.0161397,-0.0117066
-0.0188801,-0.00316247
-0.01979,0.0488803
-0.0132141,0.0255158
-0.00592015,0.0270021
0.0103464,-0.00243118
0.0209061,-0.0311677
0.0404444,-0.025933
0.0103102,-0.0161578
-0.00505443,0.00192667
0.00704185,0.0111734
0.0184354,-0.000987754
0.0196242,-0.0166558
-0.000337386,-0.0040191
-0.0163801,0.00265218
-0.0147159,-0.00610395
-0.0182771,-0.0113911
-0.0244313,-0.00179876
-0.00460875,0.00667575
0.0143768,0.0254126
0.0286964,0.0290862
0.058385,0.0230213
0.0381688,-0.0150836
-0.0112177,-0.0183133
-0.00686986,-0.000222419
-0.0152154,0.0117608
-0.0355506,-0.0171872
-0.0257962,-0.0105359
-0.0140346,-0.00406049
-0.00901481,0.00243408
-0.00315892,-0.00924747
0.00367973,-0.032404
-0.00513383,-0.0163337
-0.0116713,0.0222586
-0.0108945,0.0467615
-0.00828956,0.0435468
-0.00253894,-0.00799272
0.0110334,-0.0252173
-0.00122052,-0.00465454
0.00363278,0.0179128
0.0202568,0.0170502
0.00816706,-0.00421227
-0.00422234,-0.00484148
-0.0105393,0.0279509
0.00673067,0.00187414
0.0139175,-0.0130267
0.0113206,-0.00332259
0.000643115,-0.0245654
-0.00296806,-0.0343773
-0.00524934,-0.0184068
-0.00868055,-0.0142698
-0.0047244,-0.00238632
-0.0049136,0.0178983
-0.00263031,0.0269196
0.0155285,0.0126839
0.0217612,0.00344659
0.0108756,0.00515229
0.0100903,0.000104362
0.0076146,-0.00809558
0.0105773,-0.00472861
0.00261386,0.0179311
-0.0178456,0.019627
-0.0171424,-0.00062922
-0.014105,0.00413012
-0.0356905,-0.00171636
-0.0525261,0.00679711
-0.00696937,0.00423416
0.0360359,-0.00508564
0.0344094,-0.0283607
0.0280548,0.0188333
0.0301709,0.0220098
0.0260136,-0.0346004
-0.0116874,-0.0364756
-0.00327231,-0.0170119
0.00297226,-0.00181862
-0.00969292,0.017905
0.0173184,0.00283573
0.022618,-0.00131126
0.0215813,-0.00540256
0.0190707,0.00503719
0.0181012,0.0182722
0.0227076,0.00513373
0.0168827,-0.0254714
-0.0186576,-0.0196473
-0.0599035,-0.00541401
-0.065862,0.0199584
-0.040697,0.0379788
-0.0240409,0.0138488
-0.0108292,-0.00722532
0.000240021,-0.0102994
0.0244794,-0.00648714
0.019829,-0.00984908
-0.00161304,-0.00741424
-0.008611,0.0272804
-0.00576708,0.0582786
-0.0194307,0.0412156
-0.0228914,-0.0174624
-0.0124924,-0.0287557
-0.00490482,-0.033163
-0.00273974,-0.0557271
0.000262394,-0.00813988
-0.00531065,-0.00618591
0.0139969,0.00984785
0.0373719,0.0174469
0.0267481,0.00391213
0.031201,-0.0089847
0.0368965,-0.00873986
0.0412208,-0.00544692
0.0342917,-0.00412606
0.0109276,0.00606185
-0.0102421,0.0185728
-0.0251459,0.00917877
-0.0348817,-0.00206452
-0.0358722,-0.000386864
-0.0566366,-0.0071052
-0.0365158,-0.015601
-0.0172342,-0.00807482
-0.0182512,-0.00379328
-0.00876263,-0.000330837
0.0097185,0.0156822
0.0270438,0.0169932
0.0403516,-0.00728216
0.0300446,-0.0276115
0.00898989,-0.0176449
0.00869437,-0.00484031
0.0112009,-0.00650046
-0.0135583,0.0123578
-0.0272157,0.00915174
-0.0143763,0.00738514
-0.00871333,0.00421234
-0.0130009,0.00793544
-0.00772741,0.00689746
-0.000854164,-0.00922304
0.00935025,0.015096
0.0229672,0.0381883
0.0153756,-0.0100745
0.00256534,-0.00234109
0.00849929,0.014891
0.00536195,-0.00535646
-0.0220986,0.011154
-0.0230324,0.0137182
-0.0166512,-0.00437141
0.00169277,-0.0134555
0.0123863,0.00684509
0.0101004,-0.00905843
-0.00512684,0.000929716
-0.0256141,-0.00785796
-0.0193078,-0.00963079
-0.0103262,0.00563518
-0.0020193,0.00943661
0.0212696,0.00272657
0.00823488,0.00125735
0.00693924,0.0266831
0.0268829,-0.0211381
0.0314278,-0.02874
0.0136554,0.0150996
0.0178355,0.0486463
0.0367696,-0.01396
0.0207363,-0.0483286
-0.0181968,-0.0277793
-0.0335909,-0.00566099
-0.041224,0.0158939
-0.035794,0.0101011
-0.0238175,-0.00617826
-0.0120656,-0.00505164
-0.00062014,0.00658526
-0.000685922,-0.00870164
-0.00516905,-0.00605374
-0.00630485,0.0233062
0.0041495,0.0259103
0.0214665,0.00203507
0.0489846,-0.017835
0.0544958,-0.0259873
0.0345281,-0.0234425
0.0158686,-0.0166063
0.00170266,-0.0147989
-0.0158616,0.00135173
-0.029378,0.0162667
-0.0213029,0.00814004
-0.00733434,-0.00517671
-0.00564865,-0.00073393
-0.00228633,0.00997601
0.00035573,0.0129995
0.00723543,-0.00858337
-0.00429645,0.0039151
-0.0367864,0.019488
-0.0521903,0.0286945
-0.029406,0.00399781
0.00621388,-0.0155059
0.0526188,-0.0229474
0.0353471,-0.0206153
0.00904259,-0.00464942
0.00335407,-0.00103577
0.00454059,-0.00272239
0.000841562,0.00262602
0.00337446,0.0190348
0.00319362,0.0080085
-0.000355832,0.00385127
-0.00682293,0.00875103
-0.00629504,-0.00533449
-0.00354276,0.00225811
0.0137731,0.00306495
0.0100263,0.00225713
0.022691,0.0148853
0.0252878,0.00348882
0.00182684,-0.00475434
-0.0142134,-0.029516
-0.00616924,-0.017113
0.0099699,0.00191205
-0.00277117,0.000990793
-0.0263102,0.0247508
-0.0327112,0.00910698
-0.0268623,-0.00388747
-0.00433046,0.00483222
0.0236115,0.00589599
0.0227085,-0.00321331
0.0228423,-0.0280687
0.0153745,-0.00744468
-0.00188386,0.00612468
-0.0179964,0.0212765
-0.0197194,0.00337202
-0.0235985,0.0116838
-0.0309322,0.0243194
-0.00905112,0.0226456
-0.00208251,-0.0224963
-0.0133943,-0.0180658
-0.0117769,0.0108841
0.00387722,0.0180921
0.020101,-0.00420983
0.0124163,-0.0175845
-0.0152379,-0.00992183
-0.0277363,0.00472637
-0.0350077,0.0234223
-0.0135788,0.0011005
0.0259449,-0.0369977
0.0331683,-0.0156439
0.0216105,0.0249338
0.0126522,0.00535636
0.0122721,-0.00421081
0.0239742,-0.00923719
0.0132062,0.0152094
0.0273015,0.0173408
0.0231992,-0.0180186
-0.0108878,-0.0172309
-0.024672,-0.0102865
-0.0185703,-0.0116002
-0.0172003,-0.0011924
-0.021498,0.0165775
-0.0269939,0.0112621
-0.0142114,-0.0458691
0.0112064,-0.0554241
0.00413657,-0.0187662
-0.0111446,0.0200569
-0.00437573,0.036704
0.010023,0.0173826
0.0124328,0.0292472
0.0372688,0.0179411
0.0430391,-0.0280999
0.0255905,-0.018638
0.0176577,-0.0151822
-0.00248711,0.0142159
-0.0262984,0.018564
-0.0372901,0.0193016
-0.0512993,0.0595138
-0.0543353,0.0596583
-0.020663,-0.0404439
0.0216705,-0.079436
0.0097563,-0.000695276
0.0219998,0.0175081
0.0258755,0.0128217
0.0310509,-0.00256336
0.0419529,-0.00238424
0.0350938,-0.0168026
-0.0055456,0.0130555
-0.0370707,-0.024799
-0.0209554,-0.115456
-0.00116056,-0.00654229
-0.0068028,0.0836524
0.0100115,0.101304
0.0411719,-0.0228103
0.0300992,-0.0748444
-0.00487354,-0.0255962
-0.0107193,0.0220966
-0.0170977,0.0307835
-0.0207341,0.0866764
-0.0318716,0.0352472
-0.0563867,-0.0198427
-0.0443791,-0.114131
-0.029028,-0.000787883
0.0015776,0.0290275
0.0370633,-0.00330285
0.06249,0.0161384
0.0460859,-0.0275819
0.0112589,-0.0501435
-0.01409,-0.0162482
-0.0147116,-0.000595362
-0.00176694,0.0916917
0.00446906,0.0488974
0.00527153,-0.00512614
0.0152401,-0.0967886
0.0102473,-0.075534
0.0116702,-0.0131894
0.00840082,0.00605467
0.000140328,0.0114654
-0.0103182,0.0687664
-0.0111752,0.103816
-0.00457454,0.0348428
-0.00421361,0.0685406
-0.0125832,-0.00790656
-0.0148023,-0.105072
-0.00130864,-0.00567433
0.000295825,-0.0544481
-0.00223055,-0.0688664
-0.00350416,-0.0231513
-0.00855971,-0.00676311
0.00136509,0.00188732
0.0163778,-0.010886
0.0156579,-0.0138843
0.0129727,0.00521657
0.00256282,0.0372821
-0.00223689,0.0435878
0.0102642,0.0261828
0.0057609,0.0213955
-0.00879574,0.0211332
-0.0112189,0.00849061
-0.0116685,-0.0223052
-0.0176063,0.0025845
-0.0305168,0.0615655
-0.00629253,-0.0703278
0.0169431,-0.039855
0.0121168,0.0071527
0.0147247,0.0079017
0.0179368,-0.0144817
0.007356,-0.0248682
-0.00320305,-0.0199363
-0.00839408,0.00232961
-0.0176762,0.0222551
-0.0296629,0.0232754
-0.0161235,0.0415764
0.00531063,0.00154226
0.00462389,-0.0215073
-0.00413816,-0.0120467
0.00141545,0.00188001
-0.0443935,0.0309339
-0.0796566,0.0372457
-0.0147828,0.000931452
0.0120195,-0.0122994
0.0151446,-0.0166876
0.036617,-0.0109025
0.0424001,-0.00485922
0.0455143,0.0145993
0.0510357,0.0256442
0.0732088,0.0612765
0.0848162,0.0616595
0.0525747,-0.0550987
-0.0105564,-0.060322
-0.0479679,-0.0489404
-0.0320277,-0.0325317
-0.0386419,-0.0109317
-0.069235,-0.00659099
-0.0500147,0.0188261
-0.00112426,0.0108836
0.033308,-0.0350596
0.022839,-0.0179011
-0.0140928,0.0258567
-0.029538,0.0821522
-0.0184927,0.138086
-0.0166791,-0.0299108
-0.0240052,-0.123187
-0.0336872,-0.0289203
-0.0541495,0.010995
-0.0463687,0.00748895
0.00034247,-0.00487144
0.0302864,0.000162647
0.0358768,-0.00328604
0.0710466,-0.0296822
0.104241,-0.035386
0.0520102,-0.00336456
9.86e-05,0.00300539
-0.020638,-0.000668184
-0.018489,0.00294231
0.00132954,0.0162013
0.030262,-0.0295586
0.0360435,-0.0720841
-0.000844307,0.00177066
-0.0423349,0.0175443
-0.0524729,0.0260031
-0.04063,0.0249558
-0.00776644,-0.00890148
0.00799234,-0.0192203
-0.00152092,0.0173927
0.00212083,0.0108875
0.0110089,0.0303489
0.00643215,0.0636435
0.00429141,0.0190605
0.0163307,-0.0226965
0.0158817,0.00342152
0.01312,0.00801987
0.00764345,-0.032271
-0.0117629,0.0319228
-0.0201666,0.0499413
-0.0232634,-0.00508871
-0.0235035,-0.0188949
-0.00677129,-0.00955051
-0.034239,0.0217002
-0.0787157,0.0361711
-0.00651673,-0.0183957
0.0674745,-0.0668845
0.0519483,-0.0344975
-0.0189171,-0.0118239
-0.0393892,0.0410932
0.0606327,-0.0122084
0.100463,-0.0876693
0.0399669,-0.0162271
0.00390336,-0.0061982
-0.035986,-0.0146744
-0.0536717,0.023419
-0.0196011,-0.00237657
0.0107759,-0.00572484
0.0822137,0.0876641
0.113203,0.0664217
0.0443071,-0.034944
-0.0208246,0.0975249
-0.0955131,0.0467709
-0.252926,-0.0906914
-0.25729,-0.0328013
-0.170269,0.00622464
-0.0415966,0.0332235
0.216271,0.00138836
0.281034,-0.0153027
0.202447,-0.0282842
0.126877,-0.0476122
-0.036461,-0.0450363
-0.17333,-0.0151909
-0.255171,0.060496
-0.162277,0.0547552
-0.0497317,0.0320403
-0.0773812,0.118168
-0.0830644,-0.017218
-0.0461321,-0.0805292
0.00825998,-0.104002
0.130964,-0.107936
0.178474,-0.0941404
0.207425,-0.0477295
0.216045,0.0816108
0.143606,0.106095
0.069514,0.00725951
0.0263229,-0.0839506
-0.0169875,-0.0482448
0.049162,0.0430195
0.076327,0.0721229
-0.0366539,-0.00814924
-0.0658304,0.00617608
-0.0566829,-0.00530301
0.00402604,0.0675347
0.0906369,0.0680854
0.0570921,0.0530005
-0.0547005,0.0281832
-0.099574,0.0486022
-0.136494,0.110245
-0.113985,0.00549139
-0.0535576,-0.00694253
-0.0789174,-0.0219282
-0.119413,0.0484881
-0.0319786,-0.0953486
0.0582408,-0.287019
0.098099,-0.0883968
0.108529,0.167527
0.0763678,0.18375
0.0465887,-0.0288485
0.0468878,-0.127071
0.0102054,-0.102167
-0.0531502,-0.0698574
-0.0616005,-0.0339959
-0.038045,-0.00867093
-0.0283777,0.0059566
-0.0188817,-0.0130243
-0.00229308,-0.00326499
0.00822616,0.00692647
0.0158984,0.000308688
0.00272717,0.0249675
-0.0125019,0.0198932
-0.0154582,0.051149
-0.00937123,0.0143877
-0.0259279,-0.0380454
-0.0257835,0.0192274
-0.0566372,0.0295836
-0.103512,0.0477333
-0.120919,-0.0211023
-0.100549,-0.00852808
-0.000574098,0.0365154
0.048473,0.0592582
0.0770678,0.0495052
0.100167,0.0200005
0.0664382,0.0133071
0.0421133,0.00271578
0.0701069,0.00978079
0.07619,0.0175424
0.0583425,0.00347169
0.0388494,-0.00215441
0.0277625,0.018618
0.00545319,0.0559459
-0.0406982,0.0104579
-0.0460782,0.0237716
0.0191142,0.000682292
0.0547125,-0.0620132
0.0662681,-0.077868
-0.0640907,-0.0226931
-0.0981683,-0.0272604
-0.0322763,-0.0932414
-0.0582703,-0.0915825
-0.0503304,-0.016772
-0.0422077,-0.0102298
-0.0440395,-0.0352858
-0.0233041,-0.0222643
0.0212188,-0.026989
0.0448277,-0.0251377
0.0499643,-0.0167387
0.0687666,0.0381454
0.0873236,-0.00682196
0.0516146,-0.0342548
-0.0305177,-0.011808
-0.0707964,0.0275994
-0.0788759,0.0348131
-0.112084,0.0578353
-0.118457,0.0546482
-0.0444203,0.0780641
-0.0102315,0.0642924
0.0284244,0.0366223
0.11376,0.0117958
0.10507,0.0157189
0.0611742,0.0265281
0.0587001,0.00226731
0.00402185,-0.00487176
0.00447619,-0.00867739
0.0422378,-0.0332899
0.0701951,-0.00299341
0.0471106,0.0233149
0.0116378,0.0034541
-0.0104085,0.00829394
-0.00851171,0.0797458
-0.017262,-0.0407966
-0.016053,-0.121517
-0.0232475,-0.0224244
-0.0209503,-0.061474
0.00185957,-0.0361107
0.0247214,-0.0149749
0.0438644,-0.0563229
-0.0055003,-0.0188813
-0.051077,0.0265087
-0.0741271,-0.00974796
-0.120844,-0.0919801
-0.104382,-0.0606289
-0.0573315,0.0242137
-0.0203762,0.0274082
-0.0472139,0.00876211
-0.033848,0.0196182
0.033021,0.0422999
0.0903118,0.0605567
0.127,0.0728323
0.0549966,0.0582962
0.0146734,0.0505544
-0.0549305,0.0268425
-0.115673,0.0191489
-0.0307996,0.0111377
-0.0159861,0.0405429
-0.0730599,-0.00913699
-0.0626597,-0.0265387
0.0385605,-0.0196711
0.107417,-0.0299491
0.0649399,-0.0120563
0.0951751,-0.0211676
0.170625,-0.0466405
0.174185,-0.0106526
0.13508,0.0164387
0.0549589,0.0302235
0.0228069,0.0366867
-0.00192877,0.0250684
-0.0502594,-0.00124684
-0.075294,-0.0157652
-0.0862337,-0.0198367
-0.103096,-0.0202899
-0.0783101,-0.0303658
-0.0685364,-0.0310478
-0.0792863,-0.00488309
-0.0979743,0.0125517
-0.065407,0.000392242
0.0127622,-0.00662787
-0.00131181,-0.000965047
-0.0124411,0.00823576
0.0425236,0.00228184
0.0832252,0.0303665
0.0480837,0.0402899
0.0102661,0.026745
-0.00421328,0.00959822
-0.00060998,-0.00478368
0.0109031,0.0087755
0.0209123,0.0190792
0.0362027,0.037588
0.0483786,0.0712559
0.0150726,-0.0250055
-0.0256311,-0.114914
-0.0196784,-0.012515
-0.0315306,0.0475372
-0.0445187,-0.00650852
-0.0354361,-0.0501369
-0.040283,-0.02137
-0.00226046,-0.0182965
-0.0211788,-0.00576764
-0.0418447,0.00185814
-0.0551471,-0.0123523
-0.0257914,-0.0145433
0.0673435,-0.0169921
0.0342861,-0.07151
0.0355581,-0.067602
0.0733088,-0.0326563
0.0416757,-0.0137017
0.0565803,-0.0202398
0.0823035,-0.00380768
0.0718626,-0.0176251
-0.00723928,-0.020362
-0.0419001,0.00913958
0.0069508,0.0458701
0.0117276,0.0671125
-0.0259783,0.0673856
-0.0520441,0.0975585
-0.0528334,0.088334
-0.0545631,0.0222707
-0.0452364,-0.00107374
-0.0488591,0.0182526
-0.0602049,-0.0157326
-0.0849242,-0.0260857
-0.0196283,-0.0315623
0.0529395,-0.0238706
0.0277439,-0.0157146
0.0156423,-0.00501652
0.0323258,-0.00878024
0.0275305,-0.000272355
0.0418251,0.0278852
0.0261811,-0.0637043
-0.00276232,-0.0721052
0.0415349,-0.0382033
0.00775188,-0.00189642
-0.0359808,0.0299465
-0.0302386,0.0158135
0.0124022,-0.0300649
0.0511684,0.00243331
0.0585218,-0.0164202
0.00725652,-0.0335832
-0.002025,0.000420435
0.0318685,0.0197951
0.0485822,-0.00847393
0.00130136,-0.0384907
-0.0127226,-0.0250734
-0.04428,0.0342306
-0.0350274,0.0591726
0.00198548,0.0375265
-0.0152976,0.0808091
-0.0211097,0.053761
-0.0229549,0.0281864
-0.0424422,0.0363821
-0.0254356,-0.00380483
-0.02996,0.0103025
-0.0395072,0.022935
-0.0317311,0.0174305
-0.00972836,0.00643864
0.0185041,-0.0348644
0.0250609,-0.0307589
-0.000203791,0.0196135
0.00486804,0.0298019
0.0325251,-0.0045015
0.0475955,-0.0386529
0.0339423,-0.0368485
0.00349417,-0.0190306
-0.0264743,-0.00353839
0.00234895,0.0100299
0.00404821,0.0186928
-0.00588925,0.00105774
-0.0206288,-0.0295778
-0.0205326,-0.0312192
0.036961,-0.0141391
0.0532251,-0.0263474
0.0327082,-0.043215
0.0263163,-0.0190782
0.0034219,0.0156516
-0.0308957,0.0313903
-0.0222066,0.0279477
0.00332437,0.00214876
0.0251592,-0.023692
0.00899933,-0.0278131
-0.0343619,-0.0145381
-0.0488242,-0.00636266
-0.052596,-0.00780127
0.00719481,-0.00542112
0.0426594,0.000783782
0.0117792,0.000330726
-0.0351491,0.0100289
-0.0285136,0.0371663
-0.0528045,0.00597428
-0.0452363,-0.00777197
-0.0188261,0.00138162
0.00395435,0.00969698
0.0118255,0.0474165
0.00975769,0.0417002
0.0320613,0.00136542
0.0455029,0.0050056
0.0143536,0.0566968
-0.00863101,0.0183849
0.0655995,-0.0586458
0.115521,-0.0213656
0.0526777,0.00649718
0.0202525,-0.00305578
0.0162659,-0.00791469
0.0090018,-0.00330392
-0.00494603,-0.0110638
-0.0253934,-0.0200582
-0.0575559,-0.00730825
-0.0843786,-0.00613584
-0.0909083,0.0164509
-0.0490484,0.0331391
-0.0183087,0.0134299
0.0514936,-0.00802803
0.0805767,-0.0428603
0.0147086,-0.0204907
-0.0306485,0.0172975
-0.00406383,0.0412177
0.0168136,0.0486125
0.00841307,-0.00156413
0.00303753,-0.0278951
-0.0304567,-0.0164982
-0.0263723,-0.0396595
-0.00293776,-0.0332832
0.0125491,-0.0208296
-0.00654198,-0.00972218
-0.00619338,-0.00202028
0.0168961,0.0363924
0.0266545,0.0380368
0.0347581,-0.0183284
0.0266345,0.00374005
0.00801128,-0.0255556
-0.00134844,-0.0284658
0.00509783,-0.00386919
-0.00283443,0.0209225
-0.0211432,0.0279329
-0.0421707,-0.0214559
-0.0820305,-0.0421232
-0.0678638,0.0122459
0.00478238,0.0143786
0.0398637,-0.0059076
-0.000885473,0.003358
-0.0228957,0.0162806
0.00859384,0.0153198
0.0277957,0.00988263
0.0435767,0.00147381
0.0223169,-0.0074619
-0.0219183,-0.00763669
-0.023874,0.0119672
0.0518272,0.00413062
0.0511267,-0.0329852
-0.039615,-0.0254741
-0.0394499,-0.0161158
0.0439011,-0.00538938
0.0438129,-0.00623544
0.00975041,0.00787656
-0.000282623,-0.00519007
-0.00204644,-0.0169629
-0.00593433,-0.00813703
0.00352758,-0.00637091
0.0142281,0.00964763
-0.00694431,0.025439
-0.00773615,0.0150179
0.0212482,-0.00591126
0.00485637,0.00393343
-0.0140655,0.0143754
-0.00362563,0.016642
-0.00522375,0.00752206
-0.023141,0.0115101
-0.0513457,0.0334187
-0.0650504,0.0065551
-0.0510647,0.00946844
-0.01574,0.00845633
0.00763695,-0.00421852
0.0202865,-0.000802493
0.0305669,0.00994093
0.0278667,-0.00550453
0.0221941,0.0029497
0.0169912,0.0338378
0.0214098,0.0337499
0.0107286,0.011159
-0.00200247,-0.00627017
-0.00459275,-0.00214337
0.00953619,0.00171314
0.0331644,-0.00192101
-0.005071,0.0127172
-0.0288073,-0.0104217
-0.0209671,-0.0314728
0.00899854,-0.0300701
0.00455147,-0.031538
-0.0258706,-0.0233753
-0.0148546,-0.0192451
-0.0168242,-0.0175928
-0.019636,-0.00476768
0.0182987,0.0221569
0.0178459,0.0133498
0.0153831,-0.0171456
0.000378024,0.0141103
0.0331684,-0.0199331
0.0804026,-0.0246599
0.0229096,-0.0109525
-0.042161,0.00254073
-0.0155742,-0.00968788
0.020557,-0.00748589
-0.0022316,-0.0105359
-0.0266929,-0.0204311
-0.000142104,0.00756272
0.0014156,0.00939621
-0.00840441,-0.0198352
-0.0118598,-0.0110654
-0.0107631,-0.00164287
-0.00896933,0.0306475
-0.0185085,0.0132648
-0.0252961,-0.0145382
-0.0499578,0.0307402
-0.0338921,0.0114286
0.00544576,-0.0105957
0.0030593,0.00349372
0.0161178,0.0067049
0.0130716,-0.00233238
0.00231191,-0.00329624
0.000887121,0.00416886
0.00548728,0.0283121
0.0121529,0.00214959
0.0134598,-0.0313772
0.0130595,0.0038019
-0.000704075,0.0197122
-0.011614,0.0289655
0.0130062,-0.00430926
0.0531908,0.0066064
0.0820216,0.0304109
0.0582339,-0.0134256
0.0130479,-0.0236324
0.00115098,-0.0232522
0.0117569,-0.00477585
-0.0122373,0.0169904
-0.0263646,0.00817103
-0.0212456,0.00240369
-0.0587677,0.00756324
-0.0784967,0.0106587
-0.0516557,0.0151099
-0.0158078,0.0204437
0.0322357,0.00197106
0.0265843,0.000647233
0.0129722,0.0114985
0.0163033,-0.00749564
0.00309767,-0.0269221
-0.00319324,-0.0119764
-0.0135677,-0.0148777
-0.036201,-0.00108812
0.0125345,-0.017518
-0.0202678,-0.00325462
-0.0432145,0.024827
-0.0349027,0.021549
-0.0504733,0.0110008
-0.018934,0.0161573
0.0369612,0.0046953
0.0568351,-0.00766605
0.043003,-0.0136764
0.0134269,0.00331313
0.00310666,0.0112859
0.00484024,0.0284114
0.0168109,-0.0172244
0.0214919,-0.0385068
0.0318747,-0.0324862
0.042459,-0.0435441
0.0315948,-0.0121726
0.016174,0.00242404
-0.0042768,0.0226154
-0.024266,0.0205521
-0.0130924,0.0193844
-0.0285436,0.0342437
-0.0694473,0.0391812
-0.0732089,-0.0127882
-0.0369136,-0.00130629
-0.028276,0.0122695
-0.00162217,-0.0337831
0.0251641,-0.0104561
0.0490953,0.0165771
0.0168946,0.00544194
-0.00855697,-0.0364373
0.0333254,-0.0148403
0.053033,-0.0285178
0.0336676,0.00663109
0.0208039,-0.0068551
-0.00350748,-0.0138553
-0.0224319,0.0212253
-0.00217148,0.0321882
0.00446274,-0.00255351
-0.0180469,0.00810701
-0.0269566,0.0215674
-0.0207535,0.0165965
-0.0121975,-0.00133282
-0.0305029,-0.00480842
-0.0735313,0.0241212
-0.016465,-0.0138252
0.0353822,-0.0417179
0.014635,-0.0190766
0.0494282,0.000658605
0.0506378,0.0077729
0.0198234,0.00493081
0.0265455,0.0121629
0.0247328,0.0205138
0.00673909,0.00216159
0.000784035,0.00111173
-0.0109698,0.00116553
-0.00262065,-0.0176726
0.0163708,-0.0171779
0.00430944,0.0187817
-0.00451554,0.0162742
-0.00749923,-0.0224183
-0.0334012,-0.00308821
-0.00544113,0.0327952
0.0452413,-0.0284087
-0.0305598,-0.0574076
-0.053169,-0.0475797
0.0213067,-0.0531066
0.0126092,-0.0136483
-0.00265649,0.0248398
-0.0299473,0.0340093
-0.0455973,-0.00210561
-0.00693433,-0.00168497
0.0257432,0.0110446
0.0218812,-0.00643949
0.0186301,-0.0194439
-0.00151408,0.00235186
0.00341229,0.0161062
0.00269547,0.0114016
-0.00981469,0.00951206
-0.00615337,-0.0112004
0.0025116,-0.0206562
0.009628,0.00626507
0.00349488,0.0123508
-0.00448054,-0.00417503
-0.00552388,0.0115997
-0.0120657,0.0728618
0.000189195,0.0302243
0.0270978,-0.0142888
0.0258013,-0.0216711
0.0101242,-0.00501061
0.00279336,-0.003225
7.15e-05,0.0120094
-0.00540457,-0.00436367
-0.0148135,-0.0171627
-0.0323697,0.0122665
-0.0507209,0.0170218
-0.0077141,-0.0038297
0.038668,-0.0154006
-0.000770584,0.00559512
-0.0494198,0.0186724
-0.0197725,-0.0202812
-0.00703373,0.00993624
0.0335215,0.0313334
0.0361406,0.0160567
0.0415724,-0.0050169
0.0131015,0.0111404
-0.0877406,0.0314026
-0.0856565,0.0116408
-0.014255,-0.0227487
0.0308428,0.0123316
0.0684493,-0.0195417
0.0128785,-0.0346162
-0.0233699,-0.0252847
0.00457741,9.12e-05
0.0414956,0.0106868
0.0345841,-0.023738
0.00788862,-0.0475541
0.00869709,-0.0369119
-0.0113185,-0.00184129
-0.0208813,0.0214487
0.00233907,0.00913227
0.0132122,0.0117924
0.012104,0.0116137
0.0151845,0.00104384
0.0122998,-0.00444054
0.00427656,-0.00300296
0.006195,0.0114646
0.00955612,0.0103191
-0.0021036,0.00819594
-0.0194429,0.000686181
-0.0174235,-0.00677993
-0.00726285,0.00393378
0.00268508,-0.00134438
0.00350846,0.00017707
0.00424325,0.0102542
-0.00586362,0.00760137
-0.0110966,0.011108
-0.00501996,0.0384987
0.00536713,0.00793724
0.017662,-0.044907
0.0169173,-0.0292552
0.00291779,0.0160678
-0.0251779,0.044602
-0.0372286,0.0561281
-0.0332734,0.00149447
-0.0351916,-0.00389404
-0.0453345,-0.0183925
-0.0329512,-0.0368694
0.0192295,-0.0311262
0.052966,-0.0161339
0.0235673,0.00335371
-0.00307398,-0.00573932
-0.0213928,0.0319427
-0.00391248,0.0355911
0.0117965,-0.00528696
0.00330382,0.0248701
0.0561531,-0.0183498
0.114354,-0.0476209
0.03711,-0.0373584
-0.0797134,-0.0118994
-0.077924,-0.00710056
0.0234848,0.017949
0.0768312,0.026707
0.035535,0.011046
-0.00203512,0.00943862
-0.051815,-0.0033986
-0.0692094,-0.0610921
-0.0719604,-0.0175527
-0.0503668,0.0269428
-0.0220918,0.0286565
0.0124553,0.0193643
0.0253805,0.0190408
0.0345599,0.00326163
0.0459735,-0.0151927
0.031682,-0.0250132
0.0220505,-0.0277527
0.0215696,-0.00699818
0.00933313,-0.00208535
-0.00224788,-0.00288198
-0.00304521,-0.0105556
0.00155024,-0.0241968
0.00237872,-0.0226738
0.00340176,-0.0179365
0.00476233,-0.00314342
0.00517571,-0.0407428
-0.00307028,-0.0239377
-0.00517528,0.0211718
0.00406939,0.0198055
0.00781047,0.0103294
0.00399637,0.0114032
0.00117731,0.0065304
-0.00147076,-0.00547591
-0.00461347,-0.0104411
-0.00184768,0.000593654
-0.0095326,0.0426836
-0.0156922,0.063816
-0.00988924,0.0303321
-0.00439501,0.0131946
-0.0189235,0.0186994
-0.04186,0.00963187
-0.0534732,0.00678461
-0.0729625,0.0260404
-0.0918465,0.0692825
-0.0185288,0.0311332
0.0493051,-0.0251815
0.0148207,-0.00444914
0.018911,-0.012978
0.0500461,-0.0386816
0.0428714,-0.0293501
0.054926,-0.0106526
0.0392312,0.00518637
-0.0012031,-0.000661158
-0.0137246,0.00751998
-0.0298923,-0.00308129
-0.0476258,-0.0271352
0.00317,0.0212593
0.0492874,0.0387982
0.068275,-0.0292105
0.0669443,-0.0419042
0.0309484,0.00712672
0.013192,0.00704292
0.0286299,-0.00616165
-0.00634831,-0.0111972
-0.0610481,-0.0281244
-0.0483868,-0.00661114
-0.00617073,0.00804163
-0.00815425,0.00965201
-0.0238801,0.0143566
-0.0132527,0.00584931
-0.00566561,0.000277645
0.0101115,-0.00612366
-0.0112548,-0.00431108
-0.020974,-0.00387659
-0.00496457,-0.016441
-0.00571405,-0.017712
-0.0128387,-0.00144904
0.0108953,0.00690869
0.0254748,-0.00366005
0.0127545,0.0160073
0.00891539,0.0107424
0.0183402,-0.0271606
0.0134293,-0.0308452
0.000563188,-0.033331
-0.0106868,-0.00317817
-0.0181482,0.0131089
-0.0245683,0.0150738
-0.0235122,0.0108339
-0.0135913,0.0132587
-0.00977039,0.0083811
-0.00842769,-0.0184604
0.00795761,-0.0125031
0.0166629,0.00174594
0.0356021,-0.00502532
0.0508023,-0.0176245
0.0162436,-0.0153277
-0.0327663,-0.0194836
-0.0442744,-0.00600662
-0.0106581,0.00880695
0.018839,0.0198651
0.0201724,0.0217487
0.00167066,0.0232713
0.000280527,0.0294687
-0.00418116,0.0200489
-0.0280864,0.00878246
-0.00184788,0.012329
0.0405256,0.0318469
0.0300951,0.00587821
-0.0114776,-0.0441809
-0.0280242,-0.0238855
-0.0197839,-0.00397258
0.00198989,-0.00490636
0.0163964,-0.00964858
0.00748254,-0.00989241
0.00988197,-0.00668708
0.00772411,-0.00104836
-0.00303477,0.00353016
-0.00670475,0.00423512
-0.0107865,0.00370198
-0.0105285,0.0128596
-0.00431724,0.0180182
-0.00577851,0.00467036
-0.0129082,0.00373235
-0.0109558,0.00252148
0.00106984,-0.00094291
0.00562252,0.00161533
0.00802646,0.00694516
0.0262608,-4.75e-05
0.0340057,-0.0189488
0.0096086,-0.0197231
-0.00786247,-0.00319136
-0.00102928,-0.00290553
-0.00231639,-0.00774161
-0.0232089,-0.00157518
-0.027723,0.00871368
0.00404515,-0.000503378
0.00797832,0.00466468
-0.00596158,0.0284404
-0.00430746,0.0202372
-0.0136091,0.0125868
-0.0294262,-0.0025728
-0.0246362,-0.00462679
0.0134533,0.0211981
0.0226802,0.0248534
0.0121081,0.00520131
-0.0130875,0.00241216
0.00293706,-0.00893836
0.0474735,-0.0306115
0.051932,-0.0111721
0.0251713,0.00925398
-0.0306338,0.0147539
-0.0440272,0.0249519
-0.0170468,-0.015824
-0.00855957,-0.0299116
-0.00908594,-0.0225027
-0.00669199,-0.0154698
0.00136233,-0.0187353
0.0120225,-0.0345111
0.0145492,-0.0244173
0.00875436,-0.00876076
0.00371865,-0.00441167
-0.000965274,-0.000791183
-0.00579683,-0.00770282
-0.00499934,0.0328973
-6.81e-05,-0.00938963
0.00274695,-0.00807629
0.014675,0.0237242
0.0133743,0.0157932
-0.0204972,-0.00690865
-0.0200823,0.0117731
0.0122124,0.0280512
0.0197082,-0.00690349
-0.00307658,-0.0152571
-0.0159085,-0.00586867
-0.00994428,0.026844
-0.00508524,0.0130762
0.0155766,0.0186573
0.0203451,0.00496079
-0.0157626,-0.0354538
-0.021421,-0.00401328
0.00520404,0.0444566
0.0554406,-0.00891894
0.0380567,-0.0303163
-0.0494636,-0.0317614
-0.091342,0.0204344
-0.0430861,0.0463451
0.0207643,-0.0108643
0.0455267,-0.0132806
0.0102389,-0.00926949
-0.0165876,-0.0142074
-0.00783401,0.00378844
0.0037169,0.0066118
0.00588251,-0.00413299
-0.00175843,-0.000619572
0.00205362,-0.00747649
0.0169493,-0.00746549
0.0193121,0.00221453
0.00569829,-0.0062661
-0.00333509,0.00723403
-0.00676066,0.0253104
-0.00402237,-0.0156083
0.00873853,-0.0407387
0.00295077,0.0117293
-0.00212946,0.0557042
0.00711198,0.0191726
0.0107619,-0.0192292
-0.00569544,-0.0105081
-0.00969016,-0.0126786
0.00446869,-0.0129712
-0.0159169,-0.00999485
-0.0274519,0.00446995
0.00537083,0.00903436
0.0193448,-0.00558995
0.0179556,-0.00715656
0.0175856,-0.00723963
0.00295738,-0.00446193
-0.0127435,0.0012504
-0.00717916,0.0224688
0.00621264,0.0426622
0.000464832,0.0238803
-0.0166635,0.0245999
-0.00742746,0.00996169
-0.0205684,0.0229136
-0.0498048,0.0293105
-0.0277592,-0.0373167
0.0336449,0.0111315
0.0478617,-0.0249213
0.0259917,-0.0254587
-0.00375669,-0.00802864
0.00609669,-0.022386
0.0239798,-0.014602
0.0360761,-0.0123185
0.022445,-0.0287233
0.00153623,-0.0167522
-0.00529032,-0.00225429
-0.0197444,0.0107444
-0.0152788,-0.00099861
-0.0198655,-0.018348
-0.0289984,0.0175348
-0.00731591,0.0245705
0.0177577,0.0147995
0.0185145,-0.00321255
-0.00453126,0.00762678
-0.0253684,0.0122866
-0.0358046,0.0170555
-0.0124961,0.00549028
0.0125978,-0.0011214
0.0138974,-0.03422
-0.00580644,-0.034223
-0.00434075,-0.0171276
0.0391344,-0.0119574
0.0534239,-0.00769618
0.0190904,0.00490262
-0.00295761,0.00819112
-0.0269814,-0.00325939
-0.0399553,-0.0208302
-0.025641,0.00629601
-0.00997532,0.0314534
-0.0100963,0.0212013
-0.0201491,0.0142257
-0.0229842,0.0208857
0.0280127,0.012298
0.100969,0.0159862
0.126975,0.0131262
0.054419,-0.0122922
-0.0794663,-0.0237057
-0.117997,-0.0357314
-0.0790127,-0.026602
-0.0304553,0.0023298
-0.00275527,0.0203045
0.0109834,0.015603
0.00285425,-0.00125494
0.00496172,-0.00931202
0.00867579,-0.00916455
-0.0133163,0.0183982
-0.00913066,0.0249688
0.00582096,0.0217825
0.0150613,0.00257287
0.0129973,-0.0210998
0.0127998,-0.0148912
0.00537608,0.00184759
-0.00304816,-0.0134362
0.01246,-0.0187673
0.0222191,-0.00981298
0.00463138,-0.00182628
-0.0126546,0.00060998
-0.010234,-0.00225206
0.00697011,-0.00641722
0.0206428,0.00377898
0.0160637,0.00880463
0.00240932,0.00426881
-0.000161202,-0.00548524
0.00419364,0.00551286
0.00618246,0.0149748
-0.00912603,0.0185253
-0.00856719,0.0126677
0.0031547,-0.00471787
0.00182411,-0.0280297
0.00216876,-0.0167182
0.0234317,-0.0168412
-0.00232809,-0.013547
-0.046759,0.00413067
-0.0263931,0.0145257
0.000961172,0.0120601
0.00669053,0.014047
0.0064009,0.0225234
0.0116618,0.0320691
0.00818648,0.0122493
-0.0257866,0.0317556
-0.0396701,0.00476463
-0.0370897,0.0304494
-0.0349017,-0.00723024
0.0236345,-0.0471824
0.0394126,-0.0343839
0.0199232,0.000137422
0.00362736,0.00123787
-5.97e-05,-0.0126117
0.0170559,-0.0172802
0.0319815,0.00756046
0.0117885,-0.00373183
-0.0097599,-0.0237836
0.00565974,-0.00953535
0.0117132,-0.00479024
-0.00210633,0.000999524
-0.00504344,0.00644931
0.00417327,0.00343793
0.0175799,0.0111736
0.000193131,-0.000326174
-0.0189088,-0.011532
-0.00573883,-0.00134603
-0.00561215,-0.00833134
-0.0335104,-0.0250071
-0.034086,-0.0117489
-0.0262205,0.0108234
-0.0184367,0.0309039
-0.000461886,0.0530624
0.0338112,0.0230353
0.0385351,-0.0279651
0.0274718,-0.0231475
0.0270339,-0.0254417
-0.000541328,-0.024004
-0.0406627,0.0123026
-0.0740343,0.0260938
-0.0149581,0.0236876
0.0463766,0.0381751
0.0363653,-0.00291465
0.0231387,-0.0430942
0.000152226,-0.0160233
0.0327269,0.0016539
0.0825564,0.0212134
0.0387052,-0.0107052
-0.0505663,-0.0133126
-0.0591053,0.00908151
-0.0260913,0.0020907
-0.0135511,0.0176365
0.00341571,0.0228232
0.0268741,-0.0162115
0.00806939,-0.026703
-0.0165929,-0.0162564
-0.0226622,0.011708
-0.0136993,0.0349301
-0.00680159,-0.00231215
-0.024718,-0.0261428
-0.023944,-0.0188299
-0.00480293,-0.00240821
0.0335515,0.00881927
0.0464909,0.00596848
0.0150149,0.0229444
0.0280758,0.0171508
0.0315862,-0.0130192
-0.0161581,-0.0195212
-0.0718503,-0.0180804
-0.0443758,-0.0144574
0.00766943,-0.00499295
0.0191695,-0.00927862
-0.00676852,-0.00613814
-0.0293422,0.00423458
-0.0317553,0.0104563
-0.0129292,0.0117551
0.00153446,0.00867858
0.00432427,0.00889054
0.0141906,-0.0153612
0.0220342,-0.0161157
0.0196838,0.0247007
0.0313746,0.0162379
0.0462209,0.0251837
0.0380313,0.0140144
-0.000313833,-0.00638576
-0.0292917,0.00203299
-0.0134665,-0.00119163
0.0112405,-0.0281924
0.0103213,-0.0127783
-0.0103796,-0.00317851
-0.0228711,-0.00316148
-0.0199392,0.0142113
-0.0151254,0.0133539
-0.0203859,-0.0124123
-0.0268982,0.000202262
-0.0173992,0.0372336
0.00227687,0.0214842
0.0291862,-0.0368961
0.0429104,-0.0345151
0.0265111,-0.00401302
0.00922343,0.0120427
-0.00324836,0.00623563
-0.0342589,0.00711766
-0.0233003,-0.00245636
0.0158331,-0.0163215
0.0205336,-0.00102575
-0.00149283,0.007562
-0.00875873,0.000134485
0.00575814,0.0107698
0.0106732,0.0198632
-0.0141225,-0.00282786
-0.0348373,-0.0243476
-0.0184777,-0.0113239
-0.00769161,-0.000576657
0.0128316,0.0106092
0.0400192,0.0144908
0.0495819,-0.00175308
0.0121534,-0.0162484
-0.0165951,-0.0266203
-0.0207644,-0.0364217
-0.0176992,-0.0228964
-0.0280245,-0.00986866
-0.0310772,-0.000858335
-0.00191547,0.0112463
0.00728147,0.00776664
-0.0191133,0.0118457
-0.00354272,0.0169778
0.0307036,0.0148991
0.0174743,0.0251707
-0.00192489,0.0079791
-0.00640066,0.00553562
0.00356094,-0.00391184
0.00785601,0.0270463
-0.00905286,0.0191366
-0.00516593,-0.0391824
0.00941491,-0.0164578
0.00744211,0.000655801
0.0155601,-0.00220098
0.0271639,0.00643974
0.00571088,-0.00183055
0.00561778,-0.0023146
0.0190655,0.0104813
-0.0061964,0.0141445
-0.0144449,-0.00163352
0.000511016,-0.0063937
0.0168061,-0.0136807
0.003445,-0.00238082
0.00455972,-0.00586412
0.00741237,0.00635908
-0.0285832,0.025639
-0.0311535,0.0121562
-0.0162679,0.0106156
-0.0135056,0.0100156
-0.00529581,-0.00243119
0.011078,-0.0118622
0.0294024,0.000118697
0.0252118,0.0233707
-0.00257795,0.0199576
-0.0219528,0.00859523
-0.0291942,0.00734258
-0.0267361,-0.0342043
-0.00215733,-0.0491549
0.0211474,-0.0210284
-0.00601279,-0.0067953
-0.0281917,-0.0126127
-0.0179533,0.000816405
-0.00765652,0.0102604
0.0296013,-5.08e-05
0.0499669,-0.00683663
0.0297109,0.0047955
0.0116812,0.0117902
-0.00752658,-0.0260099
-0.00937987,-0.0275658
0.0133454,0.0105974
0.0289968,0.0329719
0.0160938,0.0430367
-0.0408865,-0.00722338
-0.060093,-0.0131672
-0.0234838,0.0185932
-0.00131617,0.00453958
-0.00167809,-0.0230302
-0.00850769,-0.015933
0.00159845,0.0107524
0.0317318,0.0276912
0.0728475,-0.00132714
0.0553269,-0.0307302
-0.0142168,-0.0428745
-0.0459824,-0.0149225
-0.0330331,0.00400195
-0.0279681,0.0272258
-0.0157701,0.0455286
0.00136485,0.0209021
0.0069676,0.0230414
0.0185783,-0.00393212
0.00215221,-0.0102872
-0.0247621,-0.0194243
-0.0250021,-0.0275502
7.08e-05,-0.0102023
0.0219905,-0.00548427
0.0323793,0.004069
0.0194855,0.000572909
-0.028004,-0.0118626
-0.0320663,-0.00994808
-0.00685452,-0.00533278
0.0130476,-0.0110687
0.033861,-0.00204327
0.0227784,0.0284496
-0.0227926,0.026447
-0.0307758,-0.00547432
-0.00210011,0.00318083
-0.000789153,0.0049789
0.00724721,-0.0111131
0.0338388,-0.0272737
0.0115816,-0.00666486
-0.00763093,0.0304748
0.00322564,0.00955991
0.0212702,0.0139671
0.0250731,0.0201024
-0.0265701,0.0172208
-0.0616539,-0.0169816
-0.0268924,-0.0290038
-0.00351944,-0.0148708
0.0114966,0.00733713
0.024229,-0.016155
0.0396816,-0.034407
0.0644955,0.0233106
0.0525385,0.0196188
-0.0300056,0.00706424
-0.0641252,0.0567907
-0.0301991,0.0384787
-0.0196217,0.036119
-0.00491018,-0.0102964
0.0140963,-0.0920017
0.0126243,-0.0544668
0.00810231,-0.00623585
-0.00101884,-0.00131578
-0.00698415,-0.00250446
-0.0164141,0.00358144
-0.00370875,-0.00195477
-0.00118115,0.00513374
-0.016391,0.0189251
-0.0108924,0.0136398
-0.00769296,0.0191044
0.00807626,0.0149995
0.0163092,-0.00624941
-0.0110184,-0.0108218
-0.0255922,-0.0164169
-0.0155894,-0.0174599
-0.0210603,0.0294451
-0.0317275,0.039599
-0.00979133,0.0295445
0.0304329,0.00984043
0.0581424,-0.014362
0.0656998,-0.01705
0.0396545,0.00890905
0.0172536,-0.0204673
-0.0322405,-0.0362734
-0.0566519,-0.0130601
-0.0112432,-0.00770697
0.00704532,-0.00602339
0.00996649,-0.0222381
-0.000765164,-0.0375402
0.00296923,-0.00656128
0.00822371,0.0143208
0.0152256,0.0357421
0.0211484,0.0210543
-0.00572221,0.00677219
-0.0317038,0.0441686
0.0311568,-0.001769
0.0327813,-0.0709431
-0.00373928,-0.05041
0.00627541,-0.0229447
-0.0283807,0.0406782
-0.0242264,0.0620443
0.00958941,0.0511815
0.0235143,-0.00578485
-0.000554635,-0.0305541
-0.0306789,-0.0423623
-0.0399762,-0.0438518
-0.0261834,0.00466513
-0.00787643,0.0256061
0.00535665,0.0152392
0.00780714,0.030721
0.016503,0.00857669
0.0113209,-0.0211705
0.0057889,-0.0183316
0.00655479,-0.00474885
-0.00754272,0.00971288
-0.00699681,0.00128357
-0.00362129,0.00310157
0.00504456,0.0291935
0.0254353,0.00359036
0.0141043,-0.00829921
-0.00730115,0.00179378
-0.0049374,-0.00454565
0.00159082,-0.0149611
-0.00346649,-0.0135531
-0.00486754,-0.00418691
-0.0167464,0.026284
-0.0241083,0.0104497
-0.0183552,-0.00419717
-0.000200723,-0.00408307
0.0142019,0.000821097
0.009724,0.0182503
0.00554676,0.00425641
0.0111823,-0.0404664
0.0112685,-0.0159641
0.00895246,0.0163107
0.011994,0.0106162
0.00459607,0.00981094
0.00127594,0.00302932
0.00412546,-0.00849872
0.00677641,-0.01523
0.00583792,0.00999511
0.00273797,-0.00284805
-0.010243,0.0210394
-0.0162537,0.0366889
-0.0160144,0.00910873
-0.0103952,-0.0174718
0.0100122,-0.0131563
0.0215896,-0.0150522
0.0100283,-0.0210228
-0.00480886,-0.00261813
0.0139647,0.0107439
0.00172908,0.0053069
-0.0462622,-0.0058414
-0.0492685,0.00568772
-0.032907,0.00189763
-0.0212619,-0.0234132
-0.0113485,0.000169185
-0.0217903,0.0218641
0.00130465,0.0160311
0.0320501,0.0442081
0.0468506,0.00485099
0.0742031,-0.0247542
0.0382416,-0.0371581
-0.0418567,-0.0212772
-0.0527815,-0.0162513
-0.0127131,-0.0120332
0.0136628,0.014297
0.0249708,0.022206
0.027843,0.0073483
0.023599,-0.0040159
0.0033268,1.16e-06
-0.00354484,0.00901978
0.00888125,-0.00287754
0.00166052,-0.00160358
-0.012971,-0.0234755
-0.000133717,-0.0108773
0.00359747,0.0121856
-0.0106936,0.011479
-0.00726422,-0.0111456
-0.0115374,-0.0209682
-0.0079737,-0.0173243
-0.0210818,-0.00809995
-0.0218534,0.0157438
0.00242322,0.0379225
0.0304889,0.0374321
0.0118623,-5.95e-05
-0.0347941,0.0201139
-0.00330674,0.00877228
0.0190416,-0.0423671
0.0262045,-0.00316304
0.03845,0.0299057
0.0114539,0.00228354
-0.00248915,-0.0233971
-0.0302742,0.011785
-0.0626749,0.00892144
-0.0037065,-0.0418228
0.0388545,-0.0163774
0.0192674,0.0154015
-0.0149911,-0.00791123
-0.0193173,-0.035887
-0.0123579,0.000267526
0.0171151,0.0469164
0.0350388,0.0174944
0.00387036,-0.0114962
0.00249168,-0.0102403
0.00942491,0.00599971
-0.020928,0.046459
-0.0308661,0.0567423
-0.00493048,0.011202
0.00515962,-0.00788872
-0.0105475,-0.0341727
-0.00657449,-0.000152077
0.000516797,-0.0118497
-0.00292798,-0.0343716
0.00483103,-0.0275218
0.0173764,-0.0167384
0.0102508,0.00564285
0.00148706,0.00685042
0.000921529,-0.00423858
0.00549717,-0.0166059
0.00852205,-0.012103
0.00917821,-0.0108781
0.00247764,-0.0141539
-0.00992879,-0.00352472
-0.00415253,0.007629
0.00109706,0.0160435
-0.0245941,0.02393
-0.0518462,0.0178351
-0.0434604,-0.000765029
-0.00165242,0.00117445
0.0201536,0.0103754
0.00538968,0.000825291
-0.00106354,-4.03e-05
0.011844,0.0162899
-0.00201652,0.00641202
-0.0224635,-0.0153634
0.0320884,-0.000741384
0.0684972,0.0163792
0.0632671,0.00014782
0.0473691,-0.0102246
0.0154629,-0.000423805
-0.00143405,0.00064733
-0.0135454,-0.00535117
-0.0284794,0.00360316
-0.0365585,0.00178368
-0.0333215,-0.00826928
-0.0241734,-0.00906243
-0.00964727,7.65e-05
0.000529547,0.000174736
-0.00414342,-0.00925437
-0.0118973,-0.00228194
-0.00845681,0.0114116
0.0214003,-0.00573885
0.0608747,-0.0078071
0.0613815,0.0144141
0.000115561,-0.0132771
-0.0283494,-0.0409232
-0.0104563,0.00704317
-0.0293858,0.0305476
-0.0575832,0.0223758
-0.0251993,0.0182566
-0.00991893,-0.0551017
-0.0288197,-0.0569635
-0.0115928,0.0223507
0.00252505,0.0528837
0.00436421,0.0359293
0.0348275,0.016075
0.0436082,0.0101737
0.0277164,-0.0122134
-0.00488585,-0.0316353
-0.0277822,-0.0310643
-0.0136804,-0.0146194
-0.0116884,-0.00802203
-0.0192337,-0.00927752
0.00367863,0.00198282
0.0228903,-0.00170204
0.0195319,0.00539462
0.0234128,0.00579074
0.0207958,-0.015173
-0.0118536,0.00196188
0.00332744,0.0125044
0.0220004,0.0348572
0.00109837,0.0485522
-0.0324264,0.0149957
-0.0321764,-0.0405907
-0.00645768,-0.0290548
0.0023727,-0.0114312
0.0029897,0.00257605
0.0100278,0.0156166
0.00581536,0.00946833
-0.00111573,-0.0259018
-8.02e-05,-0.0340606
-0.00644162,0.030222
-0.000856079,0.0193664
0.00575496,-0.0100564
0.00572006,0.0070379
0.00110373,0.00921768
-0.00336328,0.000613006
-0.00537931,0.00211564
-0.00348058,0.010738
-0.00188578,-0.00125638
3.51e-05,-0.00869163
-0.0017576,0.00332181
-0.00400419,0.00905094
-0.00173016,-0.000124728
0.00722333,-0.0076275
0.0153455,-0.000609789
0.0370354,0.0149252
0.0534135,0.0029175
-0.0078396,-0.00799729
-0.0212117,-0.0162463
-0.00233095,-0.00492125
0.00606091,0.00719812
-0.00500283,0.000334157
-0.0372416,-0.0018234
-0.0479071,-0.00592974
-0.0242556,-0.00595732
-0.0139962,0.0155282
-0.00985016,0.0578705
3.02e-05,0.000686437
0.0220808,-0.0301776
0.0473627,-0.00281513
0.0391695,-0.00570011
0.020972,-0.0449544
-0.0309472,-0.0190292
-0.0750398,0.0134277
-0.0313963,0.01041
0.00249605,0.0372263
-0.00334925,0.0361346
0.0197495,-0.00605264
0.0396967,-0.0194601
0.0211303,-0.0121352
0.0108646,-0.0121878
0.0181705,0.0095794
0.0236516,0.00911283
0.00805577,0.0015957
0.0121283,0.0345387
0.00676222,-0.0327529
-0.00733609,-0.04099
-0.0274569,-0.0247636
-0.0358172,-0.0179904
-0.0229583,0.00137411
-0.0181249,0.0181841
-0.0107389,0.0332589
-0.000856199,0.0219841
0.00782143,-0.00109059
0.0129579,-0.00145183
0.0167161,0.00846928
0.0277421,-0.015099
0.00665098,-0.0259353
-0.0151091,-0.0179843
-0.0134285,-0.0135287
-0.000324924,-0.0116801
-0.0212205,-0.00978286
-0.0346696,0.0168118
-0.0157454,0.00854596
0.0107672,-0.00204816
0.0225719,0.00917108
0.00692412,0.0158977
0.0026628,0.0166062
0.0190891,0.023941
0.021105,0.0171624
0.00503578,0.0032698
0.0058235,-0.00455987
0.00592165,0.0197626
0.00567902,0.00511406
0.0036077,-0.0313612
-0.023578,0.0106104
-0.0347069,-0.0117866
-0.0165413,-0.025485
0.0117167,-0.00160698
0.00671064,-0.00595577
0.0342369,-0.0422249
0.0639587,-0.0112682
0.00459889,-0.00486655
-0.0535723,-0.00834377
-0.0272002,0.0146764
0.0238923,0.0173155
0.0165866,0.00232789
0.00144676,0.0138763
0.0205983,-0.0201077
-0.0177747,-0.0379041
-0.0334276,-0.000637427
-0.00264448,0.0170616
-0.00907545,0.00865686
-0.0146226,-0.00158297
0.00238077,0.0165872
-0.000503429,0.0208754
-0.03086,0.0155856
-0.0215115,0.0214233
-0.000365991,0.00181266
-0.00120069,-0.00200195
-0.01944,0.0147122
-0.018252,0.0207055
-0.00811103,0.0262964
0.00511364,0.00697666
0.0302713,0.00295124
0.0306318,0.00273195
0.0163928,-0.0202791
0.0161053,-0.00990796
-0.00200231,0.0225596
0.00213195,0.0101268
0.00870783,0.00257036
0.00342154,-0.00198432
0.00202145,-0.0217248
-0.0105259,-0.0207906
-0.00426104,-0.012075
0.00749377,-0.00580032
0.01055,-0.0128594
0.00529224,-0.00166165
0.00478252,-0.001377
0.0058288,-0.00850362
0.0461488,-0.0192097
0.0885479,-0.02715
0.0596956,-0.0202763
-0.0309516,-0.0352856
-0.0751976,-0.0256667
-0.0557972,0.00611619
-0.0319267,0.0248958
-0.018066,-0.0100851
-0.0119677,0.00206201
0.00710931,0.0196442
0.0333119,0.00385805
0.0345458,0.00728162
0.00569529,0.0226878
-0.021508,0.00288349
-0.029817,-0.00581369
-0.0140516,0.00779537
-0.0211376,0.00434799
-0.0289643,0.0117369
-0.0277454,0.00692509
-0.0339187,0.0045301
0.0112344,-0.0125982
0.0263503,0.00823681
-0.0156685,0.0428468
-0.0356624,0.0241107
0.00746993,-0.0164538
0.024841,-0.0144717
-0.000851973,-0.00312529
0.003039,0.0101698
0.0239586,0.00532436
0.0136835,-0.0317363
-0.00799194,-0.0274042
-0.00107969,-0.0142104
0.0149622,-0.00401419
0.0248608,0.00652491
0.0251483,0.0212666
0.022274,0.00416458
0.00718327,0.000990781
-0.0160464,0.0191279
-0.0318169,0.0214855
-0.042574,0.0303885
-0.0651461,0.0302088
-0.0593029,0.0147427
-0.0178172,-0.00160828
0.0364997,-0.0153765
0.0437634,-0.01508
0.0130401,-0.00929737
0.0137062,0.0194549
0.0387074,0.029943
0.0651549,-0.00449428
0.0517705,-0.0495912
0.00295182,-0.0601085
0.029016,-0.0468978
0.0713062,-0.0278045
0.0363511,-0.00364682
-0.00741042,0.0155398
-0.0178361,0.0255863
-0.0143394,0.0247684
-0.0275284,0.00752249
-0.0346715,-0.0131749
-0.0476444,-0.0111199
-0.0412155,-0.00993615
-0.0241046,-0.0181437
-0.0207874,0.0124012
-0.0247392,0.0084288
-0.00564228,-0.0235936
0.0208393,-0.0017374
0.0360289,0.0224339
0.0724022,0.00888782
0.0682245,-0.00235289
0.0369912,-0.0142462
0.00506938,-0.0116796
-0.0456361,0.0310596
-0.0638118,0.021677
-0.0473313,-0.018337
-0.024051,-0.0191805
-0.0272392,-0.00507697
-0.0255978,0.0128945
-0.0132877,-0.0109899
0.0077906,-0.0202943
0.0311365,0.00773837
0.0465463,0.027986
0.0419828,0.0178259
0.0136096,0.00532176
0.0252188,-0.00444374
-0.0472382,-0.0213892
-0.0689624,-0.00168001
0.0352918,0.0126911
0.0940019,0.0293881
-0.0122384,0.0124158
-0.136248,-0.0179608
-0.0918463,0.00470617
-0.00629713,0.0234607
0.00854164,0.00420316
-0.000828137,-0.0224513
0.00211306,-0.026796
0.0136676,-0.0209016
0.0243104,0.00181775
0.0271098,0.00195477
0.0208387,-0.00770958
0.0210865,0.0220319
0.0140219,-0.0121207
0.00267462,-0.00182533
-0.0245402,0.0622465
-0.0562851,0.0586088
-0.0597081,0.0160565
-0.0282948,0.0407345
0.00510885,-0.00827116
-0.00756919,-0.0272486
0.019727,-0.0180161
0.0222248,-0.0204927
0.00360951,-0.0236306
0.00655952,-0.0195086
0.0312278,0.0109058
0.052141,0.0176039
0.0536905,0.00768477
0.0417002,-0.0123338
0.0403989,-0.0393804
0.0318409,-0.0332077
0.0430898,-0.0127564
0.0206107,0.0049179
-0.0217363,0.00515846
-0.0374838,0.0120115
-0.0196823,0.0170236
-0.0207107,0.0143009
-0.0454788,-0.00251985
-0.0502192,-0.0247074
-0.0427161,-0.0206502
-0.0335528,0.0169635
-0.0150055,0.00764092
0.00458862,-0.0232593
0.00328299,-0.00807092
-0.0145354,-0.0105403
-0.0227917,-0.000377912
0.0124692,0.0088905
0.045677,0.00528586
0.0353637,-0.00922539
0.0375605,-0.00931514
0.00744825,0.00533493
-0.0295545,-0.000792558
-0.00822531,0.0115988
0.0210153,0.0326332
0.0150716,0.0284076
-0.0209142,-0.00197382
-0.0421678,-0.0279019
-0.00779158,-0.00856308
0.0258282,0.0131728
0.0213977,0.0239096
0.0355511,0.00449655
0.0638542,0.0191101
0.119775,0.032097
0.136384,-0.0315078
-0.00311787,-0.0176813
-0.167542,-0.00400132
-0.193231,-0.0360375
-0.10771,-0.0353814
-0.0313816,0.0368868
0.00185917,0.0264164
0.0408515,-0.0375489
0.0714479,0.00104566
0.066288,0.00691117
0.0347024,-0.0408257
-0.0117767,-0.0145616
-0.0274435,-0.010465
-0.0279116,0.0235031
-0.0237177,0.00711589
-0.0199364,0.00390005
-0.000756141,-0.00713664
0.0150467,-0.0110183
0.00185533,0.015328
-0.00909753,0.0214584
0.0131015,0.0293604
0.0415598,0.0213746
0.0164998,0.0109122
-0.0428965,0.0148431
-0.0561595,0.00338935
0.037532,-0.0118012
0.066089,-0.0352414
-0.00565323,-0.0267717
-0.0303358,-0.00433598
-0.0209989,0.0163521
-0.00144101,0.0216291
0.0263496,0.0163326
0.00696764,0.0110631
-0.00781804,-0.00539795
-0.00296474,-0.0250542
0.008295,-0.0324476
0.0198656,-0.0192781
0.0324927,0.00692465
0.0712072,0.0307522
0.0346424,0.0229774
-0.0320472,-0.00530931
-0.0440152,-0.0150007
-0.0577454,-0.00339986
-0.0821847,0.000997763
-0.0848856,-0.00116694
-0.0618008,-0.00655223
-0.0391421,0.0168263
-0.00782026,0.0105887
0.0209901,-0.00163016
0.0533483,-0.0248981
0.0575753,-0.0209952
0.0356844,0.0194573
0.0401719,0.0177535
0.0585271,-0.0180104
0.0547965,-0.0073488
0.0352377,0.00338164
0.0398614,-0.0150906
0.0474513,-0.0239593
0.0565893,-0.0190744
0.0255633,-0.0123837
-0.00552883,-0.0113006
-0.0242705,0.00445735
-0.0511935,0.0164829
-0.0576591,0.0199368
-0.0723779,0.00874168
-0.0892945,0.00768676
-0.0389435,0.0304099
-0.00424888,0.0306799
-0.018347,0.0125931
-0.0707037,-0.00951087
-0.0790667,0.00371755
-0.0291693,0.0230872
0.0236337,0.0167867
0.0116535,-0.00166272
0.00549416,0.00750825
0.0648896,-0.0250944
0.10249,-0.0323384
0.0492902,-0.0231349
0.00304456,-0.0397172
-0.00843483,-0.0128265
0.0147199,0.0107399
0.0304154,0.00807502
0.00398597,0.0138506
-0.0136663,-0.00377236
-0.00156172,-0.013557
0.016251,-0.0052533
0.0178398,0.0120845
-0.0311637,0.025092
-0.0542979,0.0374828
0.00481116,0.000787542
0.0466785,-0.0188649
0.0440375,-0.0103768
0.0118953,-0.00589103
-0.0149122,-0.0214053
-0.03678,0.00427121
-0.0422985,0.0169878
-0.0275356,0.00183628
-0.00526044,0.0141119
0.0176013,0.00313366
0.00677426,-0.0221482
0.0143362,-0.0191731
0.0439583,0.0190484
0.0348751,0.0301993
-0.00297432,0.0071097
-0.0275164,0.00608945
-0.00682945,0.0335468
-0.00938335,0.0473512
-0.0118609,-0.00235184
-0.0146554,-0.0386861
-0.0294071,0.00163153
-0.0290574,0.0313916
-0.0159201,0.0018302
-0.0156412,0.0247026
-0.0483583,-0.0102419
-0.0862653,-0.0443721
-0.0232903,-0.0365838
0.0540539,-0.0400021
0.0919539,-0.0278975
0.0761648,-0.0186432
0.0395083,-0.0160396
0.0132671,-0.0197495
0.00367201,-0.00122843
0.0139572,0.000715311
0.0159591,0.00303632
0.0371675,0.00217459
0.057545,-0.0113782
0.0184599,-0.00287336
-0.0240927,0.00822122
-0.0135765,0.00573245
0.016227,0.00091089
0.00299449,0.0113556
-0.0339936,0.00717021
-0.0597363,0.0026975
-0.0349499,0.00300659
-0.0334106,0.004108
-0.0329952,0.00288049
-0.0214886,0.00440756
-0.000535129,0.0259711
0.0191431,0.0376277
0.0339917,0.00567262
0.003526,-0.0186238
-0.0276723,-0.010099
0.0146463,0.0388526
0.0437735,-0.00849801
0.0238798,-0.027853
-0.0120311,0.00502246
-0.0390177,0.00324868
-0.0361512,0.0109154
-0.0152796,0.0341968
-0.00247763,0.00357546
-0.0312188,-0.0120226
0.00800875,-0.0286861
0.0407469,-0.0270473
0.0194585,-0.0234746
-0.00313441,-0.0226994
0.00132279,-0.00310489
0.0166747,0.0262596
0.0135806,0.0267036
-0.0164453,0.0238854
0.011473,0.0463121
0.0589465,0.0461794
0.0638727,-0.0581625
0.00837831,-0.07657
-0.0799962,-0.00550895
-0.0508702,0.0143643
-0.0336307,-0.00382988
-0.0454906,-0.00331476
-0.0415239,0.0126011
-0.0207896,0.0100285
0.0140585,-0.00202785
0.0412423,-0.0213326
0.0243512,-0.0248264
0.00596031,-0.00232732
0.0208335,0.00401852
0.034912,0.0159574
0.0373638,0.00808063
0.04867,-0.00158952
0.0481554,-0.00374508
-0.0138021,0.00539287
-0.0808623,-0.00715241
-0.108219,0.00845109
-0.0825821,0.0223949
-0.0390368,0.00969598
0.0327499,-0.00251797
0.0381554,-0.00153122
-0.00473186,0.00941695
0.0182275,-0.0182429
0.0407291,-0.00828853
0.0299773,0.0103652
0.0256254,-0.000519297
0.0351697,-0.00215223
0.0484573,-0.00448073
0.0408894,-0.0140668
0.0250423,-0.0167676
0.0100745,0.00182748
0.0168135,0.0097788
0.0222602,0.00979116
-0.0144346,0.0253185
-0.0520326,0.024439
-0.0527692,0.000446056
-0.0765344,0.00144775
-0.0725395,0.000813338
-0.0405356,-0.00688274
-0.0146411,-0.0117532
0.0185219,-0.00756583
0.0370881,0.00308822
0.033837,-0.01308
0.0369873,-0.0165796
0.0478317,-0.00795295
0.0130862,-0.0181752
-0.0183743,-0.00987316
0.0114573,0.00497172
0.00955913,-7.38e-05
0.00053384,0.00578318
0.0320171,0.0206481
0.0307124,0.00346806
-0.0388781,-0.00552143
-0.0512213,0.0152381
-0.0334351,0.0259183
-0.015506,-0.013022
-0.04199,-0.0391502
-0.0821139,-0.0183045
-0.0481499,0.00704055
0.0159893,0.0249646
0.0337822,0.0130632
0.00169491,0.00381867
0.0267118,0.0124035
0.0449965,0.0105359
0.0248731,0.0017273
0.00189231,-0.00779503
-0.00987239,0.0104479
0.0201458,0.00747853
0.0306773,-0.0012087
0.0130934,0.00333751
-0.00131706,-0.00109227
0.0104062,-0.0174876
-0.00509665,-0.0155948
-0.0137261,0.00113093
-0.00536162,0.0257045
0.000497526,0.00667343
0.0109439,-0.0486394
0.0407088,-0.0280557
0.0385999,0.0289326
-0.0256903,0.00534865
-0.0834387,-0.0300679
-0.0515635,-5.32e-05
-0.0174529,0.0475671
0.00406596,0.0502136
0.0290703,0.0078318
0.0342179,-0.00220175
0.0661493,0.00621562
0.0965971,-0.00939233
0.0341292,-0.0289123
-0.0224728,-0.0503211
0.00533615,-0.0140561
-0.00798045,-0.000400706
-0.0541098,0.0198249
-0.0596386,0.00627105
-0.0383108,-0.0215749
-0.0481259,-0.0140483
-0.0513906,-0.0037058
-0.0328913,0.0138207
-0.00121791,0.02063
0.0465793,0.0244995
0.0715686,0.0265399
0.0572226,-0.0229057
0.0233789,-0.0280361
-0.0438488,0.00319549
-0.074999,0.0120757
-0.0311683,-0.0104565
0.0074908,-0.0198317
0.0126784,-0.0105034
0.00553708,-0.00337682
0.00679046,0.005605
0.00328663,0.0186545
0.00550074,0.0151344
0.0105594,-0.00175721
0.00795637,-0.000328915
0.00995231,0.00268075
0.0127255,0.0074528
0.00951818,0.0151801
0.00883034,0.00691184
0.0129004,-0.00578165
0.00777794,-0.00838761
-0.00742534,-0.00520169
-0.00211658,0.0052186
0.00190126,-0.0395735
-0.0156921,-0.0312254
-0.0258812,0.00548353
-0.0175134,0.0113969
-0.00234806,0.010999
-0.0124065,0.005408
-0.000982991,-0.00810992
0.0549418,0.00624445
0.0841728,0.0279573
0.0569575,0.0245764
0.0197195,0.0149202
-0.0424415,-0.00381712
-0.0742378,-0.0248414
-0.0629567,-0.028892
-0.0547981,-0.0188319
-0.0180482,-0.00316863
0.0236012,0.00474177
0.0238513,-0.0083139
0.000410393,0.00112252
0.00120558,0.0167638
0.00720401,0.0138926
0.00820139,0.0043787
0.012687,-0.0111184
0.0146661,-0.0230958
0.00569991,-0.00772742
-0.00569617,0.0075133
-0.0107663,0.00257962
-0.0141169,0.0122751
-0.0148411,0.022209
-0.0141992,0.00734077
-0.00988303,0.0133472
-0.007343,0.0082826
0.0134478,-0.00173695
0.0387218,-0.00177648
0.00918411,-0.00784036
-0.0735004,0.0232327
-0.0786721,0.0290001
-0.0113777,-0.0159766
0.0303359,-0.0419792
0.0330422,0.0236676
0.0461523,0.0091678
0.0428554,-0.0253974
0.0117222,-0.0191252
0.000769825,-0.0070436
0.0160786,0.00104046
0.0352951,0.00704417
0.0487457,-0.000746786
0.0223363,-0.0223231
-0.00309387,-0.0302745
-0.00270689,0.014084
0.0382392,0.00203747
0.0372118,-0.0268623
-0.0518713,-0.0137864
-0.0756176,0.0276096
-0.0160816,0.00970204
0.027925,0.00306558
-0.00515944,0.0031141
-0.0292501,-0.00141018
-0.0265884,0.00325059
-0.0139987,0.00311571
-0.0112006,-0.00202808
-0.0178223,0.0244275
-0.017436,0.026013
-0.0190955,0.0191668
-0.0234502,0.0280371
-0.0119205,0.0230991
0.010731,-0.0275503
0.00401403,-0.0368831
-0.00487931,-0.029879
0.0178531,-0.0151697
0.0228166,-0.00204712
0.00130357,0.00739892
-0.00542934,-0.000520513
0.0112951,-0.0143422
0.0197977,-0.00634239
0.00135722,0.00689618
-0.00375364,0.0332701
-0.00355717,0.00826954
-0.00692355,-0.0213729
0.00128489,0.000734114
0.0135664,-0.00484491
0.00765583,-0.0145576
-0.00252581,-0.0196084
-0.00489239,-0.02171
-0.0055492,-0.00831425
-0.00294883,0.0441812
0.00397028,0.0584719
0.00450149,0.0307338
-0.0021852,0.000837502
-0.0119987,0.0089053
0.0116585,-0.0381637
0.0726669,-0.0352442
0.109684,-0.014284
0.10006,-0.00728058
0.0489333,0.00490479
-0.0124974,0.0117484
-0.0558913,0.000427453
-0.0941458,-0.00245868
-0.104075,-0.000691421
-0.0822584,-0.00393844
-0.0525869,0.00045347
-0.0314508,0.0089639
-0.0174758,0.0118687
0.0117952,-0.00476367
0.0374024,-0.00799177
0.0221153,0.0161605
-0.00337913,0.0112813
-0.0237485,-0.00729435
-0.0374889,-0.00561266
-0.0472033,0.00114906
-0.0487697,0.00931551
-0.0204825,0.0122221
0.0116717,0.0103692
0.0251505,-0.00343309
0.0757971,-0.0121898
0.15885,-0.00602828
0.194224,-0.00543665
0.18441,-0.00494207
0.110529,0.00360902
0.0168226,0.0030267
-0.0633206,-0.00871979
-0.13803,-0.00740416
-0.21926,-0.00284314
-0.1868,-0.00593941
-0.0517506,-0.0130543
-0.00723055,-0.0129759
-0.0161583,-0.0112861
-0.0118329,-0.00206759
-0.0052783,0.0107688
-0.000718409,0.00544219
-0.00569157,-0.00646269
-0.0148253,-0.00528693
-0.00983907,-0.00197301
0.00272401,0.000456046
-0.00336757,0.001855
-0.0173443,0.00627447
-0.0212137,0.00993569
-0.0264971,0.0119814
-0.0283631,0.0233369
-0.0151189,0.0236129
0.00650676,0.0185736
0.0564726,0.0119871
0.115019,0.0141052
0.138607,0.00942883
0.10754,0.00402552
0.0709306,-0.00212467
0.0570096,-0.021608
0.111113,-0.0321465
0.124395,-0.0282661
0.0562593,-0.0265516
0.0631679,-0.0165286
0.0789122,0.00695094
-0.0288845,0.0213335
-0.190294,0.00271953
-0.142593,-0.0197051
0.00860152,-0.00801351
-0.0562328,0.00919944
-0.176089,0.00462945
-0.141709,0.00649672
-0.134333,0.006585
-0.147078,0.000705365
-0.0932047,0.00071047
-0.0175476,0.00612512
0.0342936,0.0113292
0.0190545,0.0313287
0.0153042,0.0130555
0.0427904,-0.00809344
0.0498377,-0.0128237
0.0516836,-0.00536048
0.0521488,0.00612285
0.0539659,0.0004421
0.0510158,0.000716346
0.0423707,-0.000219356
0.0368642,-0.00954804
0.0392652,-0.0191986
0.028183,-0.0230195
0.00772213,-0.020878
0.00766661,-0.00259123
0.0552824,0.0112557
0.0955151,0.0155065
0.0796871,0.0147141
0.00414615,0.0101426
-0.0855656,0.00019075
-0.142532,-0.0073794
-0.148609,-0.0150973
-0.113498,-0.0068843
-0.0424173,-0.0103386
2e-05,-0.0155853
0.0122376,-0.0203249
0.0159808,-0.0280084
0.00911782,-0.0264043
0.000304066,-0.0032601
-0.0119832,0.00543753
-0.0347376,0.00308222
-0.0434918,0.0113877
-0.0292797,0.0208639
-0.024924,0.0136006
0.0118465,0.00274829
0.0798153,0.00500861
0.123893,0.00696739
0.166689,0.00806797
0.267608,0.0180882
0.368912,0.0281226
0.291212,0.0213787
0.250359,0.0078408
0.120485,0.00885952
-0.137211,0.00423167
-0.363998,-0.00599117
-0.516397,-0.0144264
-0.553507,0.00260998
-0.227139,0.0284748
0.173885,0.03565
0.246796,0.0275893
0.11848,0.000845069
-0.0864528,-0.017008
-0.279942,-0.0162466
-0.307777,-0.0108051
-0.0858148,-0.00987186
0.0880901,-0.00346016
0.0586186,-0.00273503
0.0469034,-0.0138672
0.0289049,-0.0192207
-0.0569539,-0.0174807
-0.0621386,-0.0207697
0.0242469,-0.0195355
0.127047,-0.00939706
0.149628,8.88e-05
0.110262,0.0130369
0.0581133,0.0244094
0.0326604,0.0178033
0.0316889,-0.00130451
0.0260263,-0.0107926
0.0220171,-0.0147674
0.0296665,-0.0167178
0.00811366,-0.0120001
0.021779,0.00406568
0.0567733,0.0125972
0.0486425,0.00597025
