Comp Ch 3,Comp Ch 4
-0.0215525,0.0506211
-0.00765394,0.0129209
-0.00014136,-0.0412783
-0.00560346,-0.0274621
-0.0119917,0.0144668
-0.009529,0.0575401
0.00195497,0.0387581
0.0075429,0.00579743
-0.000190632,-0.018408
-0.0197383,-0.0234668
-0.0107353,-0.0499904
0.000972726,-0.0396786
0.00542161,-0.00525955
0.0276922,-0.00377324
0.02575,-0.0183864
0.00716898,-0.0184167
-0.00175877,-0.0371867
0.000158141,-0.057317
0.00049365,-0.0197289
0.00455156,0.0247834
-0.00917647,0.0237396
-0.0221849,0.0485215
-0.0130618,0.0472975
0.0156445,-0.00474373
-0.0173947,0.0169852
-0.0311649,-0.00333061
-0.00799644,-0.017164
-0.00656323,-0.0294677
-0.0147871,-0.00473633
0.00896174,0.0110141
0.023569,0.0734468
0.00879586,0.0928514
0.0278619,0.0474266
0.0262873,-0.0454579
-0.0225148,-0.110139
0.0234143,-0.0555986
0.0240319,-0.0150205
-0.00673882,0.0119361
-0.0450864,0.0361543
-0.041169,0.013426
-0.0427381,-0.0128641
-0.0604169,0.00181277
-0.0240508,-0.0201944
0.0208944,-0.0552064
0.0273342,0.00862541
0.00628641,0.0580818
-0.00384118,0.0280586
0.0338147,0.0090597
0.105402,0.0520522
0.165791,0.0608846
0.181348,0.011943
0.0947709,-0.0674203
-0.0107356,-0.0559672
-0.0937349,0.0195418
-0.150615,0.00943169
-0.130029,0.0119202
-0.0316243,0.0287943
0.0529085,-0.0221969
0.108334,-0.029767
0.0502447,0.0294994
-0.0710244,-0.010319
-0.165068,-0.0848069
-0.163862,0.00982088
-0.106734,0.017767
-0.0772835,-0.00291175
-0.0997391,0.00426259
-0.119377,0.0156401
-0.112487,0.00648629
0.0612741,0.0257132
0.189233,0.0196602
0.153712,0.00611905
0.163824,0.0226053
0.136187,0.0151276
0.0841455,-0.0148442
-0.0187651,-0.0220093
-0.099315,-0.0452989
-0.134615,-0.0746255
-0.0509804,-0.0430671
0.0228409,0.027374
0.0859704,0.0402055
0.203905,0.0155943
0.199991,-0.00811409
0.0616056,-0.017686
-0.0223968,-0.00857056
-0.0472104,0.0032515
-0.091129,0.0109831
-0.140964,0.0116808
-0.136286,0.0406128
-0.070926,-0.00967654
-0.00130497,-0.00548845
-0.0151106,-0.00891298
-0.0204304,0.00255479
-0.0105874,0.00564047
-0.0103787,0.020883
0.0494391,0.0556351
0.0535547,0.0673432
0.0370462,0.0168717
0.00435858,0.0901116
0.0447454,0.00300515
0.135802,-0.132853
0.0933834,-0.0830416
0.0424637,-0.0423941
-0.0235981,-0.029459
-0.102415,0.00933125
-0.116965,0.034117
-0.0942757,0.00787217
-0.198196,-0.00199682
-0.308245,0.00288893
-0.181716,-0.0137972
0.168733,-0.0411434
0.271261,-0.0223995
0.223276,0.0166905
0.134242,0.015975
0.0723659,0.0138241
0.033505,0.0211045
0.0223774,0.00652969
0.0266024,-0.0463249
-0.00671159,-0.0510747
-0.00996509,-0.0280974
-0.0101844,0.0233983
-0.0111489,0.0511036
0.014424,-0.0200826
-0.000941189,-0.0100878
-0.0361464,-0.0256264
-0.0224073,-0.0344136
0.000761133,-0.0103898
-0.0230647,0.0269183
-0.0415972,0.0599988
-0.038767,0.0843924
-0.0252312,0.0542301
-0.0274409,0.0184478
-0.0635714,0.0122027
-0.0919065,0.00690946
-0.0799044,0.00735244
-0.00368104,-0.00151951
0.097195,-0.0619723
0.0978558,-0.0276712
0.0432129,0.0169363
0.0402049,0.0331965
-0.00086606,0.0368157
-0.0374571,0.000546505
-0.0378713,-0.0343415
-0.00565331,-0.0599314
0.00198838,-0.0137336
0.0728027,0.0629701
0.0750516,0.064276
-0.0345887,-0.00196607
-0.0330085,-0.071602
-0.0222572,-0.0357048
-0.0781287,-0.0363753
-0.0312007,-0.0357743
0.0333974,-0.044396
0.0324528,-0.0494001
0.0188525,0.0310196
-0.00554992,0.0501061
-0.0315914,0.0127641
-0.0244796,-0.0154061
0.0335067,0.0131416
0.0563852,0.00765529
0.0439314,0.0094683
0.0230243,-0.0283825
-0.0125023,-0.0148743
-0.0437338,0.0224789
-0.05129,0.0218038
-0.0330022,0.00611916
-0.00769872,0.0140732
0.0110046,-0.0124475
0.0230763,-0.0166898
0.0276564,-0.027763
0.0157469,-0.0192933
0.0157231,-0.000357585
0.0136307,0.0117966
0.0127722,0.0108518
0.0261639,0.0139956
0.04349,0.0121944
0.053929,-0.0306929
0.00606366,-0.0240216
-0.0458297,0.0114665
-0.0672407,0.0360446
-0.0922141,0.0307012
-0.0845122,0.0241852
-0.10069,0.0294202
-0.122279,0.0152258
0.0260734,-0.0086733
0.049858,-0.0187929
0.0446032,-0.0421721
0.066822,-0.0265004
0.0522516,-0.00567952
0.0426007,-0.00252787
0.0859077,0.000197394
0.103873,0.0107825
0.0550308,-0.0428636
-0.00755673,-0.0608615
-0.0603564,-0.0309566
-0.0525968,0.0408422
-0.0132273,0.11122
0.0318184,0.0772328
0.0253935,0.0782875
0.00399449,-0.0712125
-0.00952956,-0.0652794
-0.0251676,-0.0672202
-0.0237867,-0.022431
-0.00779167,0.0241948
-0.00679053,0.0935685
-0.0263375,0.0680092
-0.064327,-0.0566919
-0.0576789,-0.0378599
-0.010008,-0.0225719
0.0235412,-0.0233237
0.0231082,-0.0202635
0.0210763,0.00628412
0.010859,0.040912
-0.0236375,0.0304705
0.0174537,-0.0195512
0.0331914,-0.0166129
-0.0018471,0.00742593
-0.00682895,-0.00720393
-0.00738328,-0.0165414
-0.0101795,-0.00929478
-0.0068689,-0.00336258
0.0194877,0.0101205
0.0426334,0.0218974
0.0279022,0.00341542
0.00417591,0.000720859
-0.00701797,0.0153367
-0.00959918,-0.00969044
-0.00612709,-0.0441484
0.0225606,-0.0136339
0.054446,0.0276267
0.019888,0.0256967
-0.0319854,0.0184875
-0.0673656,0.0350206
-0.0447168,0.0208694
-0.0300919,-0.00699808
-0.0370181,-0.00786014
-0.0134032,-0.0109334
-0.0267664,-0.00620378
-0.039667,0.0248356
0.0214362,0.034268
0.0958729,-0.00485082
0.0834539,-0.0568063
0.021297,-0.0670801
-0.000684548,-0.035523
-0.0198014,-0.00381423
-0.034812,0.0277562
-0.000385859,0.046553
0.0470669,0.0126865
0.00889504,0.0336488
-0.0332421,0.0273259
0.00297384,0.0128085
-0.0180016,0.0417531
-0.040056,-0.0177401
-0.00512579,-0.0453741
-0.0159242,-0.0137319
-0.00332179,0.0057746
0.0136558,0.00538163
-0.0159209,-0.00529596
0.0113632,-0.0188614
0.0194928,-0.0303493
-0.00192475,-0.0392944
0.0178314,-0.0344477
-0.0102607,0.0315182
-0.0264627,0.0680461
-0.0153805,0.0207179
-0.0176326,-0.0488733
-0.0318507,0.00447164
0.00647166,0.0218319
0.0771595,-0.00321586
0.0484867,-0.00430881
0.00798508,-0.00142855
-0.0281891,0.0141644
0.00741766,0.023333
0.0637081,-0.00124396
0.0116022,-0.0113567
-0.0388485,-0.00655685
-0.0530602,-0.0253529
-0.0788925,-0.0596596
-0.0483211,-0.0394379
0.0210656,-0.00390401
0.0497414,0.00773858
0.0573299,0.0142425
0.0622556,0.0240286
0.0235238,0.0208312
-0.0041627,0.00823776
-0.0140596,-0.00789186
-0.0288612,0.000584893
-0.0158148,-0.0153435
-0.00127275,0.0164264
0.0185772,0.00819997
0.0239715,-0.0151422
-0.0107728,-0.0129705
0.0124268,-0.00589301
0.030267,-0.00406726
0.0103711,0.0113978
-0.000903114,0.0447668
0.000961734,0.0149357
-0.0113619,-0.0249129
-0.0226512,-0.0188268
-0.017734,0.00901662
0.00197839,-0.00594794
-0.00665179,-0.0087577
-0.0368016,0.00444222
-0.057582,-0.000609004
-0.074275,0.0112009
-0.0742711,0.0405207
-0.0393266,0.01894
-0.000223523,-0.030563
0.015258,0.00439904
0.0232246,0.0351662
0.0157544,0.0017888
0.0334352,-0.0369641
0.111723,-0.0103078
0.131811,0.0174489
0.0643537,0.00805353
0.0435099,0.00698384
0.0339788,0.00511687
0.0293188,-0.0138325
-0.0118324,-0.0348823
-0.110266,-0.0148427
-0.118194,0.0114179
-0.0332436,0.0412056
0.0188083,-0.0114576
-0.0627357,-0.00905576
-0.0825464,0.00544601
0.0116123,-0.0300788
0.0376662,-0.0501489
0.0257097,-0.042435
0.0371743,-0.0166075
0.0241938,0.0222793
0.00945213,0.0257997
-0.00560622,0.00876562
-0.0180056,-0.00197474
-0.012568,-0.00110608
-0.00611166,0.00502601
0.0010414,0.00245346
0.011201,0.0210661
0.0135718,0.0362052
0.0209784,0.0709819
0.0285822,0.0329443
0.0218245,-0.048476
0.00598106,-0.0380352
-0.00168932,-0.0178019
-0.00796251,-0.0301144
-0.0153886,-0.0403796
-0.00215997,-0.0160432
0.00039911,0.0187413
-0.00460898,0.0176184
-0.00465756,0.0233135
0.00339285,0.033134
0.00342658,0.0621319
0.00485332,-0.0400213
-0.00358223,-0.0857388
-0.03714,0.00599294
-0.0398625,0.0174462
-0.032576,0.0103765
-0.0586073,0.0154313
-0.0584272,0.0309736
-0.0874949,0.0290879
-0.101276,0.0313359
0.0134402,0.0120938
0.119732,0.00225526
0.133408,0.0158302
0.0880849,0.00453992
0.0655171,-0.0102926
-0.0117611,-0.0341557
-0.0115226,-0.0425792
0.0488781,-0.0320394
0.0506466,0.0100613
0.006906,0.0120466
-0.0102159,-0.0570344
0.0224417,-0.0113792
0.0461049,0.0222666
-0.00866033,0.00814915
0.00210373,-0.00500063
0.00026531,0.00935301
-0.0161123,0.0190198
-0.0796476,-0.0263333
-0.177997,-0.0381728
-0.0666426,0.0370204
0.0125022,0.0403593
0.0173917,-0.0304072
0.0328781,-0.00768947
0.0168013,-0.00966334
-0.00715741,-0.0351573
0.013425,-0.0246439
0.0239894,0.0345293
0.0318359,0.0146757
0.0382692,0.00587195
0.0331269,0.0209771
0.0201874,0.00950911
0.0131843,-0.00446769
0.0231229,-0.0100562
0.0188327,-0.00112962
0.00508427,-0.014816
-0.0135919,-0.00650593
-0.040874,0.0217803
-0.0431007,0.0140311
-0.0305373,-0.0122147
-0.017211,-0.00600837
-0.030504,-0.0184529
-0.0436792,-0.0154983
-0.0140181,0.0100736
0.0326654,0.0388613
-0.0246457,0.0417562
-0.0501388,0.0244603
-0.0231251,0.00380409
-0.0149686,-0.00771091
0.0282435,-0.0110313
0.0796383,-0.00324054
0.0576347,-0.0192223
0.0308232,-0.0302849
0.0073882,0.00478193
-0.00550851,0.0137097
0.00469159,-0.011889
-0.0157647,-0.000836408
-0.00602902,-0.00754082
0.00108185,-0.0424005
-0.00775869,-0.0129332
0.0137116,0.0410394
0.0361545,0.0321768
0.0385906,-0.000959351
0.00392609,0.0225111
0.00399054,0.0312528
0.0355381,0.00798801
0.055833,-0.0235454
0.0129638,-0.0270911
-0.0391312,-0.0229598
-0.0738915,-0.0127639
-0.0834676,0.00932513
-0.0934571,0.016169
-0.0433144,0.00324576
-0.0167041,0.0117183
-0.012193,0.000661014
0.00482893,-0.0201883
-0.0278165,-0.0211825
-0.0318273,-0.00850955
0.0252123,-0.00851986
0.088716,0.0057126
0.122924,0.0188965
0.119727,0.0242431
0.0783358,0.00634849
0.0208567,0.00387326
-0.0268749,-0.0187938
-0.077765,-0.0355944
-0.0973149,0.000610291
-0.07249,0.0257782
-0.0414473,0.0181114
0.0128602,0.00217146
0.0382074,0.0147828
0.00216092,-0.033682
-0.0143965,-0.0395026
0.0190064,-0.0123226
-0.00911927,-0.00198261
-0.0142352,0.00873851
0.0232345,0.0383237
0.0186197,0.0510322
-0.00142962,0.0193564
-0.018821,-0.0442013
-0.0179209,-0.0181164
-0.000980176,0.0072115
-0.0075238,-0.00737428
-0.0171609,-0.0267392
0.0207423,-0.0301309
0.0402604,0.011277
0.0192013,0.0182998
-0.0304857,0.00138928
-0.00363654,0.0261864
-0.0248036,0.017628
-0.0173236,-0.0247426
0.0182483,-0.0111039
0.0546143,0.00975072
0.0379892,0.013984
0.00495253,0.0225053
0.00544215,-0.00602676
0.00277524,-0.0144379
-0.0174121,-0.011302
-0.0203806,-0.0185826
-0.0215023,-0.00711497
-0.048464,0.0651371
-0.0566679,0.106032
-0.0318323,-0.00290852
0.00468653,-0.0706476
0.0160139,-0.0566171
0.00724333,-0.0347308
0.0305342,-0.0171473
0.0357318,0.0124309
0.0400295,0.0159627
0.0170488,0.0408165
-0.0296042,0.0527099
0.0248514,0.0262365
0.12615,-0.0408656
0.142214,-0.0458473
0.0877483,-0.0321771
0.0120142,-0.0412415
-0.102964,-0.0281065
-0.182872,-0.00701008
-0.132628,0.00493007
-0.0333096,0.00478415
-0.0100102,0.0037144
-0.0113331,8.89e-05
0.0244442,-0.0144586
0.0894099,0.00151119
0.108489,0.0214224
0.0190814,0.0376451
-0.0883649,0.0476731
-0.137902,0.0219247
-0.112229,0.011377
-0.0610494,-0.0272798
-0.0231054,-0.00775872
0.0272088,-0.00189481
0.061744,-0.0207826
0.0848818,-0.0344597
0.0583171,-0.00985448
0.0413203,0.0107892
0.0291226,0.0167692
0.0180762,0.00500761
0.00570924,0.0189035
0.013582,0.00649696
0.00576362,0.00152846
-0.00964162,0.0169154
-0.00362507,0.000757611
0.00899879,0.0102117
0.0423959,0.00748045
-0.013149,-0.00425815
-0.0586793,-0.00361915
-0.0279769,-0.0016334
-0.0147108,-0.0137172
-0.0361222,-0.0144187
-0.0124412,0.0126845
0.0506639,0.0163993
0.01189,-0.00506128
-0.0670008,-0.0152734
-0.0304289,-0.0162474
0.0238522,-0.0212607
0.00398277,-0.00885087
-0.0208802,0.00693815
0.0415382,-0.0100331
0.0621134,0.00314659
0.0450615,0.0217022
0.0171531,0.0131477
-0.0155354,0.00897881
-0.0386506,0.0176789
-0.0292975,-0.0247978
0.0067497,-0.0523194
0.0208918,-0.0173523
0.00733125,0.0105765
-0.010787,0.018415
-0.0120376,0.0216471
-0.00618345,0.0354563
0.0143688,0.00909298
-5.6e-06,-0.0196883
-0.0368019,0.00625174
-0.0426736,-0.00258997
-0.0292071,-0.00292868
0.0151073,0.0389675
0.0388696,0.0011057
0.021639,0.00782748
-0.0152665,-0.00268155
-0.00794738,-0.0250675
0.00021342,-0.0306433
0.00248199,-0.0143334
0.0560158,0.0222499
0.115289,-0.010302
0.105964,-0.0253857
0.0288601,-0.00300157
-0.0737543,0.00241363
-0.117258,-0.0240819
-0.0809403,-0.0360342
-0.0891492,-0.0171174
-0.0877361,0.0100448
-0.0112291,0.0272639
0.063105,0.036039
0.0582886,0.0468161
0.0188127,0.0362703
-0.0107468,0.0339114
0.00246363,0.0208017
0.0153657,-0.0629563
0.0230603,-0.0761701
-0.0220714,-0.0237327
-0.0391205,0.00864597
-0.00363784,0.00247461
0.0303187,0.00682893
0.0556165,0.0103351
0.023084,0.000411403
-0.0401893,-0.00455778
-0.0321308,-0.00380618
0.00509959,-0.00405218
0.0405909,0.00921798
0.056368,0.0238292
-0.0114584,0.0125488
-0.044766,-0.00685792
0.0181276,-0.00306802
0.0234337,-0.0034103
-0.0427611,-0.0214461
-0.0335187,-0.0297621
0.026459,-0.0104557
0.0167138,0.019191
-0.0176868,0.0331925
-0.0138898,0.0300039
0.00400824,-0.00219329
0.0181585,-0.00267754
0.0226177,-0.00232021
0.0115834,-0.00738845
-0.00233334,0.0371389
-0.00370745,0.0715923
0.019056,-0.00172626
0.0297911,-0.018737
-0.00620522,-0.0236077
-0.0175607,-0.0116724
0.00746091,-0.0154931
-0.0177698,-0.0237893
-0.0350666,-0.0225461
-0.017696,0.0123059
-0.0304999,0.0159133
-0.0233737,-0.0137135
0.00121363,-0.00754628
0.00888505,-0.0188724
0.00695441,-0.0289606
-0.0136231,0.00159956
0.00160321,0.0237209
0.0263778,0.0188671
0.0268912,0.0080656
0.0374704,0.000673866
0.0252523,-0.00344467
0.00680519,-0.00327986
-0.0189258,0.00881605
-0.018011,-0.00197492
0.00976969,-0.0191604
-0.000305118,-0.0139557
-0.0435903,0.0287253
-0.0211966,0.000142434
0.0454782,0.0126737
0.0399102,-0.000676019
0.0236518,-0.0252251
0.00316695,-0.0133189
-0.00592117,-0.0149403
-0.0382648,-0.0154927
-0.0384987,0.0394179
0.000112924,0.0499082
-0.0185304,0.00355341
-0.0528255,-0.00499325
-0.05174,0.0110914
0.0201369,-0.0137863
0.0228538,-0.0142975
-0.0146075,0.00843906
-0.0050817,0.036802
0.0213577,-0.0281975
0.00359518,-0.0168942
0.0160434,0.00404792
0.0584815,-0.00110984
0.065523,-0.0220623
0.025718,-0.0161987
-0.0245193,-0.0118907
-0.0442884,-0.0261538
-0.0172628,-0.00778504
0.00310993,0.0163806
-0.011279,0.0215244
-0.0245315,0.0124733
0.0225602,0.00211728
0.0187683,-0.0194785
-0.0172665,-0.0114053
0.0141332,0.022921
0.0145603,0.0251301
-0.0100691,0.00271739
-0.0304066,-0.00891193
-0.00934136,0.0266831
-0.0111073,-0.0169579
-0.0252666,-0.0299035
-0.00850486,-0.0130615
0.0248068,-0.00813083
0.0265061,0.0212421
0.0116169,0.0376199
-0.00244364,-0.00541159
-0.0837958,0.00973317
-0.0587799,-0.0191219
0.0572207,-0.0290903
0.0637903,-0.00892849
0.0397313,0.0131423
0.0255068,0.0310672
0.0264258,0.0200274
-0.000841815,0.0155567
-0.0324764,0.0133027
-0.0436957,-0.0111378
-0.0345151,-0.0311327
0.0117894,-0.0404541
0.0569711,-0.0190404
0.0595402,-0.010957
0.0493634,0.0218434
0.0324377,0.0138664
-0.00196898,-0.0243161
-0.0272369,0.00243817
-0.0357661,0.0223248
-0.066364,0.0105609
-0.0529592,0.00500576
0.00072078,0.033005
-0.00753724,0.0591017
-0.0302632,0.0357455
0.00143154,-0.00149015
0.0038496,-0.0447954
0.00455763,-0.0455186
0.00137363,-0.0329028
-0.0289441,-0.0138852
-0.0524045,-0.00971343
0.0344128,-0.0119441
0.0745779,0.00396481
0.0328821,0.0047332
0.0220004,-0.0231652
0.0129819,-0.00724304
-0.0118219,0.0131975
-0.011105,0.0147018
-0.00414855,0.0317879
0.00242769,0.0348187
0.0328829,0.027061
0.0176861,0.0242817
0.00156452,-0.000915752
-0.00450446,-0.0267204
-0.0352869,-0.0209321
-0.0461145,-0.0156944
-0.0601955,-0.0200502
-0.0373406,0.00171962
-0.0224553,0.0306614
-0.0357738,0.0157175
0.00442327,-0.0367254
0.0564316,-0.0325924
0.0669606,-0.0125495
0.0581845,-0.00232874
0.0312542,0.0175961
0.00614889,0.035502
0.00210261,0.0343553
0.0349466,-0.0229972
0.0450502,-0.0222269
0.0285576,0.0148069
0.0163091,-0.00731496
0.000288957,-0.0265414
0.00595734,-0.0136334
-0.0351366,-0.0153543
-0.105993,-0.0103496
-0.116364,0.0187313
-0.0835093,0.0296313
-0.0488848,0.00694149
0.00680719,-0.00519992
0.0487046,-0.0160963
-0.0146596,-0.0234767
-0.0542176,-0.0187357
0.0101599,0.0260673
0.0679479,0.026114
0.0744174,0.0126694
0.0544579,0.0108321
0.0690442,-0.0126046
0.106239,-0.037297
0.0633271,-0.031556
-0.0574115,-0.0120986
-0.110617,0.00416919
-0.0747357,0.0152385
-0.0120478,0.0278808
0.00987029,0.0573019
-0.0233346,0.0704989
0.00262444,0.0131675
0.0424954,-0.0847201
0.0232579,-0.0660036
-0.0263056,-0.0250233
-0.0179868,0.00962709
0.0101926,0.0269569
0.013035,0.0338409
0.000243485,0.0295279
-0.0517464,-0.000815664
-0.120887,-0.0153135
-0.0465497,-0.0249518
0.0293805,-0.00596039
0.0256141,-0.0036052
0.0527639,0.0018598
0.0635059,0.0129003
0.0564936,0.00135412
0.0695224,-0.0196736
0.0423912,-0.00458962
-0.0557704,0.00802153
-0.0553847,-0.0160961
0.0161861,7.73e-05
0.0272347,0.0183675
0.00535412,0.0305385
-0.00788501,0.0277018
-0.0161991,0.0130552
-0.00594791,-0.0320464
0.00869472,-0.0379906
0.0264282,0.00971472
0.0133278,-0.00349826
-0.0169855,-0.000604763
-0.0112311,0.0140658
0.00632122,-0.00259407
-0.00288223,-0.0187139
-0.00389745,-0.0171861
-0.00444975,-0.00166414
-0.0155698,0.000374378
-0.0259707,0.0118352
-0.0226113,0.0130531
-0.0105807,0.029537
0.000873046,0.0209551
0.00536083,0.016693
0.00757432,0.0230935
0.00483616,0.00963571
-0.022314,-0.0246459
-0.03276,-0.0376129
-0.0178571,-0.0153129
0.00236214,0.044248
0.0128765,0.0539495
0.0204908,-0.0408547
0.00753145,-0.0696981
0.000255101,-0.02946
-0.00696449,-0.0146054
-0.0112267,-0.0136333
-0.00697759,0.0208199
0.00383146,0.0142824
0.0150012,-0.00655003
0.0138193,0.0225431
0.0183648,0.0143936
0.00588065,-0.00747446
-0.0197683,-0.0110719
-0.0189437,-0.0193873
0.000660486,0.0310419
0.0193978,-0.0135385
0.0180283,-0.0167995
0.0213321,0.0196414
0.0254898,0.0289526
0.0209242,0.00634567
0.00735721,-0.0337828
0.0091273,-0.038265
0.0313291,-0.0209032
-0.000462584,0.00200685
-0.0490841,-0.00375575
-0.072522,0.0143194
-0.0518186,0.0317324
0.00535293,0.0244937
0.0271951,0.00273772
-0.00763217,-0.0161204
-0.0171535,-0.0231654
0.00563864,-0.0350376
0.0184939,-0.00961658
0.0147861,0.0491063
-0.0257808,0.0582691
-0.00826784,0.0433964
0.0617335,0.0469625
0.0750233,0.0415039
-0.00851932,-0.0740019
-0.0929267,-0.0840225
-0.0715656,-9.41e-06
-0.0105394,-0.0031244
0.00337706,0.00349571
0.0065612,0.00996893
0.0276983,0.0187539
0.0313979,-0.0291211
0.0383421,-0.0341173
0.0463558,-0.0151453
0.0381369,-0.00847628
0.0172371,0.0119828
-0.020463,0.0262848
-0.0300406,0.0155373
0.00345627,-0.0284153
-0.00853314,0.00600082
-0.000633318,0.0399877
-0.0195932,-0.039073
-0.0431365,-0.0636375
-0.0333456,0.00179139
-0.0303786,0.0479494
-0.0482168,0.0440419
-0.0181967,0.0455714
-0.0190736,0.00926127
-0.0474135,0.0310106
0.0350354,-0.0752803
0.125719,-0.0870088
0.0743242,-0.0205218
0.0429331,-0.00148413
0.0363183,0.0258359
-0.0452706,0.0465822
-0.128257,0.0415477
-0.109317,0.00756741
-0.00936039,-0.0144092
0.0553045,-0.0137976
0.00355664,-0.0310415
-0.0384438,0.0106947
0.0785888,0.0238709
0.109181,0.029
0.035771,-0.0174485
-0.00454571,-0.0352119
-0.0258484,-0.0139256
0.083212,0.0135955
0.167121,-0.0385709
0.0256533,-0.00218217
-0.123016,0.0600308
-0.140436,-0.00563846
-0.0801701,-0.0102565
-0.0529968,0.021538
-0.0253838,0.0384567
0.0352403,0.0213245
0.101334,-0.0461671
0.0967772,-0.0916429
0.0697018,-0.0374486
-0.00629399,0.068391
-0.0752619,0.0515548
0.00808583,0.00485709
0.0127043,0.0717171
-0.177491,0.0328608
-0.206073,0.0437876
0.123777,0.0022188
0.294846,-0.023354
0.134258,-0.0383013
-0.0812212,-0.0700266
-0.160351,-0.0670104
-0.223558,-0.0342061
-0.221292,-0.00701498
-0.130493,-0.0427382
-0.013829,-0.00824293
0.133519,0.0713081
0.295996,0.0852109
0.39119,0.0174106
0.229822,-0.0310004
-0.0657126,-0.0076039
-0.21658,-0.0200077
-0.231163,-0.0658428
-0.199015,0.0233952
-0.0544922,0.0292904
0.0362595,-0.00214121
0.0775305,-0.000919296
0.144767,0.0232123
0.165736,-0.0426962
0.0474791,-0.0681296
-0.160838,-0.0109065
-0.220482,0.00310996
-0.108005,0.0307096
0.0746815,0.0460958
0.272967,0.0415532
0.338982,0.0368948
0.261236,0.152763
-0.120324,0.193733
-0.543271,-0.00455755
-0.54924,-0.167796
-0.373451,-0.148384
-0.105713,-0.0933504
0.159409,-0.043692
0.279281,0.0365558
0.312993,0.0760318
0.20865,-0.000572491
0.06893,-0.042797
0.0861368,-0.0457996
0.0659294,-0.0366079
-0.0150635,0.0665095
0.026435,0.0456726
0.132064,-0.010144
0.203706,-0.00128226
0.0746453,0.0662195
-0.0916355,-0.00760497
-0.0920985,-0.134054
-0.0662314,-0.140193
-0.100224,0.0436686
-0.109668,0.0896613
0.0286574,0.00585312
0.119815,0.0538031
0.0345394,-0.0299738
-0.0452895,-0.00533156
-0.111777,0.030932
-0.220798,0.0477882
-0.232769,0.0210104
-0.208399,-0.00880204
-0.049927,0.0235943
0.0432903,-0.020304
0.0389646,-0.0431112
0.213696,-0.0605846
0.284494,0.056496
0.0598176,0.037744
-0.138701,-0.0283748
-0.0824429,-0.0525754
0.0908336,0.0434318
0.0973016,0.0146265
-0.0161886,-0.0085148
-0.0791338,0.022436
0.011125,0.00563869
0.0402239,-0.0767516
-0.0695795,-0.127718
-0.0581991,0.0315298
0.082679,0.064457
0.123492,0.0114205
-0.0512208,0.0264998
-0.0753269,0.0438315
-0.106877,0.060699
-0.0522183,0.0160025
0.176666,-0.0363229
0.221393,-0.00505032
0.140081,0.0229276
0.192398,-0.00517034
0.0427131,-0.0664665
-0.19197,-0.0637717
-0.35054,0.0249438
-0.397189,0.0750173
-0.198695,-0.0167151
-0.0190841,-0.0821452
0.0674438,-0.0887431
0.182388,-0.00275842
0.212218,0.0244154
0.158895,-0.0308409
0.024042,-0.0316026
-0.0167456,0.0130677
-0.0705548,0.057808
-0.14001,0.0323421
-0.128053,0.0890764
0.006764,0.0591297
0.189608,-0.000975419
0.231272,-0.00251442
0.199497,0.00378888
0.117422,-0.0621321
0.0289639,-0.0103506
0.0230187,0.0555224
0.126717,0.0470588
0.181565,-0.00213329
-0.0115227,-0.0883871
-0.321896,-0.162608
-0.45257,-0.118279
-0.338815,0.0869865
-0.107936,0.096056
-0.0388776,0.0235014
-0.0183809,0.0690171
0.134175,0.0776234
0.131177,0.0931001
0.0322316,-0.0269662
0.0765135,-0.0183837
0.138394,0.0773443
0.28122,0.0527061
0.197997,-0.0520693
-0.14829,-0.072241
-0.266724,-0.0054872
-0.242244,0.0768102
-0.204663,0.237151
-0.0991132,-0.192903
0.0317351,-0.305425
-0.0588208,-0.0756001
-0.08368,-0.0767433
0.0619794,-0.00288805
0.215797,0.0736578
0.305812,0.0732943
0.239455,0.0846526
0.0767888,-0.0130595
-0.075117,0.0504241
-0.17606,0.118787
-0.0405809,0.0479166
0.121735,-0.05959
0.137306,-0.0810102
0.0882674,-0.0291844
-0.0658699,-0.0185901
-0.190782,0.0323404
-0.184477,-0.0848985
-0.0986183,-0.0721754
0.00569589,0.0248892
0.0459523,0.0209571
-0.00799537,-0.022254
-0.142944,0.0168534
-0.0961337,0.0436817
-0.053843,0.039556
-0.0147469,-0.00130691
0.0393103,0.000559424
0.0687716,-0.0109207
0.0840161,0.0132145
0.0359135,-0.0270428
0.0219849,-0.0357315
0.0392812,-0.0254493
0.0779865,-0.00863389
0.0592963,-0.00822315
0.0360229,-0.00124498
0.0249894,0.0132401
0.0165757,0.00328374
0.00595446,-0.0114479
0.0117812,-0.00424016
0.00837969,0.0474746
-0.0340015,0.0304069
-0.0553445,0.0431265
-0.046534,0.0933096
0.0472983,0.129318
0.0839519,0.0780862
0.0462562,-0.0942079
0.0658652,-0.0497422
0.0401569,0.0103438
-0.0476699,0.0607726
-0.178992,-0.0667558
-0.247723,-0.167901
-0.0219917,-0.0574042
0.149441,-0.0123534
0.0199264,-0.0754689
-0.120242,-0.0712775
-0.0620735,0.0220415
0.0277523,0.075707
0.0433981,0.0128365
0.0931904,0.00178115
0.106776,0.00762213
0.0360736,-0.035402
-0.0181784,0.0457423
-0.0220863,0.0648273
-0.00301634,-0.0113757
0.0047472,-0.0241203
0.0279327,0.00195932
0.0485924,0.0276755
0.0878952,0.0358738
0.102041,0.00857237
0.0638568,-0.0228822
0.0182565,-0.0231325
-0.0580609,-0.0223898
-0.187187,-0.00832753
-0.248586,-0.0107617
-0.163292,0.0129976
0.0482025,-0.00441061
0.0687102,-0.00268998
0.0600043,0.00443833
0.123621,0.0217609
0.106546,0.0239736
0.125491,0.00704618
0.0663296,0.0333767
-0.0703364,-0.0544124
-0.109333,-0.0261452
-0.017564,0.00965276
0.0676113,0.0326501
0.000406939,-0.0221705
-0.143873,-0.0770704
-0.145202,-0.0611566
-0.118151,-0.0297952
-0.0352253,-0.000790066
0.08997,-0.00172001
0.121931,0.0210728
0.0229629,0.0785226
-0.0630765,0.105223
-0.11991,0.023637
-0.13923,-0.00552253
-0.0687533,-0.00711135
0.126527,-0.0419587
0.216124,-0.0574437
0.110998,-0.00944898
-0.04217,0.0121524
-0.0372059,-0.00354066
0.0838964,0.0506032
0.0418913,0.0468379
-0.0726773,0.00523796
-0.0766271,0.0224357
0.0252501,0.0323253
0.0825454,-0.0327308
0.066871,-0.083864
0.0163189,0.00111813
0.000971376,-0.00893099
-0.053046,-0.00330239
-0.10532,0.0109843
-0.0705796,0.0166575
0.0390128,0.0179337
0.0887571,-0.0134605
-0.00207444,-0.0112192
-0.0607969,-0.021642
-0.0254329,-0.0238924
0.0317471,-0.0293635
-0.0316679,-0.0234582
-0.0446907,-0.0128412
-0.00511685,0.0042071
-0.00543871,0.0272731
0.0194653,0.0323377
-0.0317224,0.0546611
-0.0578607,0.0759316
-0.0231855,-0.0129587
0.0134027,-0.0439494
-0.0382518,0.0141627
-0.0079479,0.0238952
0.12092,-0.0206005
0.0749609,-0.038923
-0.033563,-0.0221397
0.0206664,0.011437
0.095571,0.0691219
0.124505,0.0495605
0.205685,-0.0192192
0.221887,0.0101526
0.0551329,-0.0063954
-0.0327198,-0.0746069
-0.179565,-0.0307415
-0.325534,0.041324
-0.270429,-0.00363179
-0.152041,-0.0529389
-0.0394379,-0.0568343
0.0120801,-0.0072666
0.0242136,0.058045
0.0254037,0.0380513
0.0614678,0.04653
0.0525914,0.0335637
0.0224296,0.136962
0.0507641,0.0496397
0.160984,-0.0940481
0.339011,-0.0706553
0.282711,-0.0184573
-0.0527518,-0.0338074
-0.233013,-0.00931506
-0.212746,0.0158483
-0.129954,-0.0513422
-0.161478,-0.0368954
-0.11316,-0.00352845
-0.0447548,0.00975577
0.00464707,0.0157348
0.0525452,-0.0381207
0.029116,-0.0140675
-0.0190304,0.0203736
-0.00552571,-0.0086954
0.0407903,-0.0779292
0.0726793,-0.0845598
0.0755765,-0.00928384
0.0420559,-0.0211453
-0.0104013,0.0467574
-0.0276619,0.0924658
0.0163747,0.0814696
0.028093,-0.0249097
-0.0393635,0.0148097
-0.08829,0.015423
-0.102453,-0.0023741
0.00587242,-0.0287326
0.0748098,0.00483458
0.0474507,0.0336764
0.0226687,0.0358633
0.088531,0.011529
0.10116,-0.035796
0.0167004,-0.0443979
-0.040591,-0.0329878
0.0279572,-0.0255525
0.0749044,-0.0169919
0.0188844,0.057623
-0.0628134,0.0257262
-0.0968708,0.0330857
-0.0501133,0.0496519
-0.00284931,0.0582559
-0.0190263,0.0535589
-0.0124048,-0.0413597
-0.0365255,-0.0601914
-0.0279693,-0.027344
-0.0080918,-0.0142413
-0.00800247,-0.0125988
-0.0210059,-0.0604206
-0.0126511,-0.0293266
0.0259039,-0.00195907
0.0293624,-0.00286008
-0.0291808,-0.00427965
-0.00635798,0.00361412
0.031188,0.0594322
0.0337339,0.0715736
-0.0112137,0.0429106
-0.0534603,0.0115884
-0.0387399,0.0238369
0.0375822,0.0774547
0.147128,0.0857797
0.126859,0.0424346
0.0363484,-0.0278825
-0.083496,-0.060407
-0.17262,-0.0684018
-0.130394,-0.0805147
-0.0516401,-0.0487408
0.0265243,-0.0637057
0.0645221,-0.0430765
0.0491896,0.00466165
-0.00927572,0.0190004
-0.0510099,0.0537238
-0.0625067,0.0467127
-0.0219151,0.0196144
0.0939298,0.0346139
0.144948,-0.033495
0.0664656,-0.0275188
0.1271,-0.0271044
0.17007,-0.0454926
0.0329205,-0.0194913
-0.119394,-0.0157034
-0.121505,-0.0282076
-0.0970445,-0.0155799
-0.0552838,-0.0176721
-0.0521914,-0.0201555
-0.0524416,-0.00398989
-0.0391172,-0.00634933
-0.0149115,-0.00838579
0.0333733,0.049645
0.012241,0.0239856
0.0114424,-0.0135964
0.0513144,-0.020506
0.0234062,0.0170714
0.0196061,0.0355929
0.0156895,0.013882
0.0352384,0.0468001
0.0233081,0.0858941
-0.0242992,-0.00508347
-0.0134531,-0.0676416
-0.00474976,-0.0536744
-0.074301,-0.0102645
-0.0805716,-0.024013
-0.0293242,0.0361025
0.0755067,0.0711157
0.116644,0.0463515
0.0615883,0.0297597
-0.0154548,0.00904382
-0.112163,-0.0463864
-0.0942492,0.00243147
-0.0298647,0.0366805
0.0589199,0.0415213
0.148643,0.00552083
0.256176,0.0367655
0.144612,0.066134
-0.0505097,-0.0394875
-0.225274,-0.128996
-0.261999,-0.0543867
-0.117125,-0.037095
-0.00262321,-0.0637845
0.0307987,-0.0722137
0.0131708,-0.00410943
0.00817133,0.0161086
0.0524727,-0.00373992
0.0646424,-0.00522884
0.0203059,0.051289
-0.000180032,0.0919986
-0.054184,0.0429736
-0.111307,0.0289937
-0.0759513,0.0496835
-0.0816147,0.0776232
-0.10686,0.0200551
-0.0496621,0.00132469
0.112887,-0.0228237
0.192206,-0.0100949
0.143618,-0.0663375
0.130664,-0.0591923
0.0706546,-0.03185
0.0118106,-0.0223554
0.00378317,-0.0196323
-0.00222595,0.0055374
-0.00770988,-0.00243758
-0.00264118,-0.0718281
0.00872447,-0.090653
-0.0194753,-0.0493338
-0.014333,-0.0113564
0.01768,-0.0292733
0.00602654,0.0315082
0.00725664,0.0845081
0.0095076,0.0541497
0.0281574,0.0159935
0.0515531,-0.0130085
0.0192111,-0.0316112
-0.0301315,-0.0174372
-0.0926248,0.0288939
-0.106763,0.00822367
-0.0847362,-0.0282982
-0.0895483,-0.0132939
-0.0359333,0.00109761
0.073583,0.0150815
0.0832253,-0.0196862
0.0345973,-0.00948433
-0.000180177,0.00210354
0.000822206,0.00429329
0.0433438,0.0198578
0.0711468,0.027459
0.00962893,0.0393737
-0.0370008,0.0249776
-0.0821626,0.0150784
-0.0824552,-0.0348271
-0.0774846,-0.0317668
-0.0620282,0.000446644
0.0113815,0.0278582
0.0514771,0.0441401
-0.0441142,0.0494871
-0.169675,0.0216946
-0.0570647,-0.00651253
-0.0672662,-0.0453751
-0.202346,0.026746
-0.163418,0.0637537
0.127437,0.0500392
0.359933,0.0541156
0.263151,-0.0253003
0.1349,-0.0903973
0.0130075,-0.0514299
-0.162062,-0.0308398
-0.103004,-0.0479044
0.0106947,-0.0146822
0.00952892,-0.0207189
-0.00770931,0.0128676
0.0633276,0.105574
0.0512722,0.0543909
0.0804912,-0.0462473
0.0782161,-0.0602002
0.150635,-0.0446225
0.178463,-0.0185941
0.122429,0.0169784
0.0317854,0.00601459
-0.0520509,0.0342453
-0.0414478,0.084916
-0.0336763,0.0564151
-0.0366103,0.0179853
-0.0473214,-0.0653701
-0.0573192,-0.0512045
-0.024368,0.00231552
0.0512676,0.0130039
0.0814664,-0.0621604
-0.0954947,-0.0195685
-0.210489,0.111951
-0.125956,-0.0292598
-0.0590707,-0.0591213
-0.074514,-0.00504741
-0.0657478,0.0192095
0.0166014,0.0561146
0.125655,-0.00910908
0.131253,0.0295885
0.0271284,-0.0368175
-0.0343358,-0.0100779
-0.0605986,0.0734382
-0.0433488,-0.0111906
-0.0065186,-0.0253363
-0.0291884,0.0567976
-0.0494456,-0.0513414
-0.0459104,-0.0737251
-0.0174337,0.0702949
0.0140394,0.0778619
-0.0369916,-0.00980955
-0.051675,0.0377714
0.015358,-0.0189182
0.0458092,-0.107221
0.0764231,-0.0525101
0.160325,0.00846159
0.174816,0.032106
0.0582388,-0.0149321
-0.0738682,-0.0445432
-0.126539,-0.0426823
-0.101747,-0.0457376
-0.12116,0.00275055
-0.103878,0.0456666
0.0358503,0.0644725
0.103293,0.0224077
0.0950254,-0.0126424
0.0712217,0.0492254
0.0412925,0.0917334
0.039335,-0.0570257
-0.0388929,-0.101994
-0.172854,-0.0339498
-0.189239,0.000196552
-0.115054,0.00388513
-0.0165603,0.0153984
0.0573999,-0.000678991
0.07057,-0.0105645
0.0305917,0.0048152
-0.0637481,0.00980148
0.0540868,-0.019964
0.218338,0.0256742
0.115182,0.0511491
0.0275095,0.0256639
0.0112668,-0.0195138
0.102739,-0.107375
0.0680771,-0.0774985
-0.0246456,-0.0131727
-0.0298681,-0.00773939
0.00580016,0.0606086
-0.0763735,0.0957302
-0.0725048,-0.000188643
8.57e-05,0.00922734
-0.00135733,-0.00208945
-0.0955017,0.00790173
-0.190609,0.0058513
-0.12214,0.0040639
0.00265771,0.0115329
0.102705,0.0132773
0.109827,0.00484436
0.107728,-0.0414093
0.0565633,-0.0652638
0.010993,-0.0389531
-0.0113698,0.0177087
0.00732059,0.0649968
0.0143295,0.00600846
-0.0788136,-0.0326845
-0.0786661,0.0285186
0.0141801,0.00148495
0.0426531,0.080848
0.0944445,0.0014766
0.123912,-0.0301101
0.0719831,-0.0774683
-0.0461832,-0.0566095
-0.111457,0.0116904
-0.0685034,0.0304788
0.0471252,0.0218479
0.150112,0.0145465
0.16086,-0.0187741
0.0245887,-0.0443253
-0.211294,0.0560839
-0.227567,0.0810251
-0.15143,0.00679402
-0.0972806,-0.0274414
-0.0788884,-0.027058
0.0235134,0.000243169
0.157352,-0.033357
0.146342,-0.0606152
0.0500523,0.103184
-0.0277791,0.146037
-0.0639499,-0.00217768
0.0142262,-0.0477533
0.114363,-0.0304733
0.0754154,-0.0476218
0.0689594,-0.0706737
0.00720754,-0.047029
-0.0856839,0.00391452
-0.149388,-0.0122035
-0.0982059,0.0375443
-0.0132426,-0.00518699
0.00966911,0.00416181
0.0195163,-0.00333938
0.0507838,0.0728275
-0.00247546,0.0670311
0.0199011,-0.0159216
0.0898551,-0.00540509
0.001025,0.0256414
-0.101545,-0.0187459
-0.0940642,-0.0293736
0.0212163,-0.0450615
0.0119705,-0.00738655
0.0174885,0.00385405
0.0397739,-0.0428174
-0.0163956,-0.0570998
0.00748748,0.0183485
0.110448,0.0108166
-0.013539,0.0125328
-0.084855,0.0427508
0.00296031,0.0812944
0.038679,-0.00821603
0.0748562,-0.0639846
0.0554005,-0.055527
0.0401596,0.0223247
-0.0446113,0.0294218
-0.0753363,0.0160444
-0.0724529,0.0237661
-0.0680811,0.00858225
0.0345593,-0.0415367
0.107009,-0.0508255
0.0157896,-0.0207039
-0.0667934,-0.0169863
-0.0462006,-0.0214876
-0.00190815,-0.00326151
0.0156024,0.0157376
0.00277042,0.0136106
0.0116182,0.0116808
0.0199823,0.0219888
0.0146743,0.030298
0.0164479,-0.00596166
0.0113513,0.0137105
0.0430549,0.0703244
0.063111,0.0293115
0.0184619,-0.0126365
0.0190905,-0.000623081
-0.0274363,0.0129055
-0.16616,0.0333979
-0.184142,0.0697303
-0.0398934,0.00635654
0.0312447,0.000555939
0.0781965,0.0348532
0.246132,0.000239241
0.257009,-0.0550425
0.0121194,-0.0759019
-0.211528,-0.100625
-0.288163,-0.0565197
-0.148835,-0.0270231
-0.0675291,0.0346526
-0.0951132,0.0227097
-0.0284853,-0.0193492
0.134416,-0.0117482
0.108519,-0.00464403
0.0774544,-0.018712
0.0431975,-0.0500388
-0.0133909,0.00635779
-0.013703,0.0732582
0.0622768,0.0269229
0.0589053,0.0132789
0.0318828,0.00992274
0.0225955,-0.00323482
-0.013542,-0.00496378
-0.0534719,-0.00241607
-0.0446733,-0.0196092
0.0202628,-0.0250553
0.0584871,-0.00470778
0.0332402,0.0293089
0.0163285,0.0152175
0.00202005,0.0164211
-0.0320524,0.0736533
-0.0643081,0.0129853
-0.00580661,-0.00846585
0.104192,-0.00243039
0.160109,0.0356421
0.266532,0.0191036
0.235542,-0.0273212
0.0843258,-0.0482637
-0.17297,-0.0995516
-0.434477,-0.0532156
-0.418453,0.0594388
-0.236391,0.0616366
-0.157786,0.0105079
0.0110759,0.0252829
0.120127,0.0263228
0.124064,0.0264546
0.0215488,0.0527275
-0.0179975,-0.00149915
0.0217626,-0.121272
0.0337809,-0.0898806
0.0427666,-0.0532357
0.0417246,-0.00138206
0.0357875,-0.0117873
0.0705523,-0.0224994
0.0676579,0.0335078
0.0780333,0.0696445
0.0720545,0.0177331
0.0225484,-0.0295415
0.00286153,0.000120179
0.00288958,0.0136381
0.0190764,0.0401987
0.0282369,0.0191007
0.0211459,-0.0211983
-0.0243921,-0.0362149
-0.0801488,-0.00647681
-0.0385232,0.0204377
-0.0233821,0.0100567
-0.0354714,0.021562
-0.0141937,0.0453356
-0.00794026,0.0602243
-0.0256807,-0.02666
-0.0508754,-0.0589089
-0.058817,-0.00928264
-0.0305962,-0.0157929
0.0272207,-0.0112433
0.0780966,-0.0148379
0.076693,0.00629231
0.0813041,0.0111688
0.0281612,0.0199038
-0.0125348,0.0214876
-0.0395286,0.0230496
0.0458649,0.0149627
0.201388,-0.015183
0.150562,0.0211532
-0.0963227,-0.0128797
-0.269544,-0.0962943
-0.30768,-0.0278446
-0.203672,0.0567769
0.0113053,0.0806369
0.133173,-0.0465042
0.0997162,-0.0444116
0.0116362,-0.017654
0.0428156,0.00331645
0.0140513,0.0134727
-0.0342197,0.0141522
-0.0218082,0.00747461
0.0256624,-0.0109688
0.0381004,-0.0169372
0.0205355,-0.00417901
0.00632995,-0.0127997
-0.00108353,-0.0216462
0.0163083,-0.0366123
0.0146097,0.0171382
-0.00778635,0.0473231
-0.0239698,0.0213525
0.0111069,0.0191195
0.0463084,0.0120895
0.0440284,-0.0138135
0.0123252,-0.00843863
-0.0421246,0.00636942
-0.0437968,0.00895251
0.0222433,-0.0106832
0.0604252,-0.0272017
0.0403095,-0.0033705
-0.0197601,0.0062497
-0.057726,0.0040872
-0.100332,0.030999
-0.106942,0.063824
-0.0223734,0.0779861
0.0565111,0.11542
0.0673665,-0.0857903
0.0993328,-0.159003
0.141848,-0.0798459
0.10736,-0.0134629
-0.0272235,0.0355024
-0.0698614,0.0349261
-0.0021555,0.0408833
0.0901427,-0.0425697
0.0973527,0.0017965
-0.0337797,0.0939644
-0.115999,0.10097
-0.105917,-0.0180686
-0.0877028,-0.132257
-0.119589,-0.0828742
-0.0849104,-0.0951194
-0.0201943,-0.0517349
0.0179206,-0.00177561
-0.0478293,0.0433782
-0.0786322,0.0226934
-0.0261256,0.0111218
0.00369931,0.00760113
0.0377733,-0.0096989
0.0934607,0.0147791
0.0842615,0.0405468
0.0440749,0.0984043
0.0895041,-0.0505344
0.0894504,-0.0895114
-0.0347828,-0.0144264
-0.115916,0.0362434
-0.0365751,0.0303535
0.048906,0.0159046
0.0804806,-0.00517147
0.0886552,-0.0176045
0.0633554,-0.00307192
-0.0129718,0.0196593
-0.0245978,0.0231793
0.00104181,0.0185959
-0.000488246,-0.0027632
0.013948,0.0251007
0.108406,0.0233267
0.142226,0.0010894
0.121202,0.0179536
0.00260761,0.0382525
-0.156242,-0.0193788
-0.29544,0.0966363
-0.246782,0.00963951
-0.128849,-0.0982831
-0.130346,-0.0603404
-0.0954237,-0.0351046
-0.0779006,-0.0179233
0.00370728,-0.00230227
0.123882,0.00511303
0.141082,-0.00500122
0.121159,0.0335396
0.117551,0.0329354
0.0726337,-0.00747844
0.0247221,-0.0540236
0.00267375,-0.0192555
0.02052,0.0354794
0.042836,-0.0104659
0.0924973,-0.0731266
0.0779292,-0.0164092
-0.0231185,-0.010648
-0.0930616,-0.020358
-0.0832871,-0.0112173
-0.013798,0.00985872
0.0146005,0.0246506
-0.00766817,0.0305325
-0.00962109,0.0223203
0.000907846,0.012974
0.00198444,0.00832812
-0.00166954,0.00432672
-0.0112328,0.00747158
-0.0203941,0.0218106
-0.0347653,0.0226654
-0.0191841,0.00743348
-0.00815339,-0.0126409
-0.0112264,0.0114366
0.00446127,-0.0192085
0.00405939,0.00379457
-0.00418006,0.0621789
0.0119953,0.0103937
0.0306901,-0.121944
0.0135809,-0.0435157
-0.0164676,0.0280228
-0.0520313,0.046681
-0.0338575,0.0128667
0.116812,0.0156963
0.263151,0.0347063
0.27139,0.027527
0.0789348,0.0310933
-0.180025,-0.0099576
-0.312933,-0.0137555
-0.252729,0.00804554
-0.0922269,0.0203761
0.0546318,-0.0399279
0.138337,-0.0406983
0.193185,-0.0173624
0.200313,-0.017853
0.0610246,-0.0140911
-0.159439,-0.0144834
-0.279643,-0.00440267
-0.219894,-0.010036
-0.138439,-0.0212467
-0.0572841,-0.0254538
-0.0106654,-0.000978608
0.0141063,0.00898951
0.0205615,0.00208115
0.0123687,-0.0022979
0.0587866,-0.00415577
0.0798287,-0.00587257
0.0563916,0.00329964
0.0372801,0.0148583
0.0336427,0.0114513
0.0496222,0.00954208
0.056369,-0.0129949
0.03468,0.0205161
-0.0201882,0.0428943
-0.029332,0.0357003
0.0232174,0.0367445
0.103625,-0.000481769
0.084971,-0.0328046
-0.0376782,-0.0576353
-0.105564,-0.00806138
-0.0785769,0.031955
-0.0150562,0.00873771
0.0515542,0.0160894
0.107414,0.0277759
0.159684,-0.00513371
0.107805,-0.0374015
-0.0563314,-0.0479277
-0.19,-0.0411872
-0.166328,-0.0447647
0.00834688,0.00159124
0.15046,0.0660081
0.180397,0.115389
0.107009,0.0575593
-0.0292125,-0.0388481
-0.0985581,-0.0642888
-0.0875659,-0.000921341
-0.0985095,-7.86e-05
-0.100293,-0.065828
-0.0733936,0.0166231
0.00616411,0.0861835
0.0189145,-0.0260573
-0.0583835,-0.0689174
-0.094997,-0.0042151
-0.053723,0.012877
-0.00868475,-0.0255091
0.0134348,-0.0251424
0.0362139,0.031779
0.0319423,0.0443847
0.0534664,0.0265536
0.0487361,-0.0441875
-0.00425987,-0.0727917
-0.0188042,-0.036519
0.00713167,0.0116497
0.0582954,0.0232583
0.0689103,0.0173065
0.0442022,0.00206816
0.0105752,0.0154981
-0.0222261,0.0527619
-0.0138331,0.0560999
0.0139592,-0.00427776
0.0108309,-0.028345
-0.0123076,0.00354652
-0.0147076,0.0207629
0.00286962,-0.00256375
-0.00616263,0.0355588
-0.0404991,0.0121138
-0.0421211,-0.0459193
0.00556087,-0.0193175
0.00406071,-0.0130534
0.0274479,-0.0291449
0.0492883,0.00371255
0.0144839,-0.0177653
-0.0115367,-0.0539232
-0.0432871,-0.0121885
-0.0159271,0.0615288
0.0187323,0.046057
0.0258297,-0.0490935
0.0127771,0.00933414
-0.0245629,0.109475
-0.0519494,0.0412788
-0.0431172,-0.0410255
-0.00149513,-0.0326766
0.0676042,-0.0276496
0.0453708,-0.0222969
-0.0456685,-0.0066251
0.00164667,-0.0371507
0.0463979,-0.0971034
0.00748652,0.00244835
-0.0277989,0.0703687
0.0176294,0.00916081
0.0207995,0.0163499
0.0319487,0.0124515
0.0459682,0.0249145
0.0161306,0.0652329
-0.0459888,0.0602402
-0.0472882,0.0286557
-0.0234267,-0.00248336
-0.0237346,0.0284023
-0.127081,-0.00617889
-0.162768,-0.0357635
0.0405034,-0.10076
0.157724,-0.0875791
0.0343565,-0.0542367
-0.0703734,-0.00988046
-0.0465763,0.0175634
0.00345769,0.0138802
0.0287919,0.00546143
0.0405432,0.00161633
0.0356443,-0.00852405
-0.00477266,-0.00886813
0.0273044,0.0503555
0.127646,0.0796498
0.200664,0.0503865
0.174868,-0.0281984
0.00927635,-0.0652942
-0.152726,-0.023158
-0.225357,0.00753934
-0.169896,0.0137578
-0.105572,0.00858618
-0.00454515,0.0328476
0.132318,0.0362305
0.129867,-0.0136105
0.0584824,0.00515142
0.0255167,-0.0011005
-0.0567338,0.00710353
-0.113258,-0.00504369
-0.0472607,-0.0193357
0.0313818,-0.0525033
-0.0479492,-0.0364704
-0.085864,-0.0413253
-0.028647,-0.00625558
-0.0121917,0.0597911
0.0554533,-0.0153299
0.0530656,-0.0324939
0.00278656,-0.00755496
-0.00777463,0.000342299
0.0312774,0.0145461
0.10608,0.00852053
0.0814228,-0.0251358
-0.03264,0.0198816
-0.0747686,0.0443074
-0.0613105,0.0273984
-0.0141768,0.0437559
0.0650304,0.0361632
0.0845788,0.132653
0.0830692,0.0362095
0.105735,-0.0679325
0.06125,-0.0131106
-0.0549485,-0.101619
-0.146138,-0.0626076
-0.140865,-0.0309881
-0.0703876,-0.0250483
-0.0686455,0.00702567
-0.00494895,-0.00301546
0.0710399,0.00450434
-0.00840995,0.0231206
-0.0340267,0.0224876
0.00689703,-0.0239373
0.00491384,-0.0359132
-0.0300005,0.00778884
-0.0387164,0.0102324
0.0277861,0.00494804
0.0865284,-0.0113445
0.0188767,0.0588635
-0.0330179,0.0467919
-0.0197386,-0.022371
-0.00101343,-0.00826005
-0.00188902,-0.00160857
0.0218509,-0.0225387
0.0885658,-0.0341728
0.0419536,-0.01704
-0.00115874,0.0182269
0.0150469,0.0216874
-0.0120864,-0.00550374
-0.0275356,0.00448156
0.0599531,0.0114729
0.0812981,-0.0504573
0.00652221,-0.0191598
0.0151411,0.0413407
0.0116103,0.0349646
-0.0625866,0.023401
-0.157246,0.0670319
-0.145363,0.0758933
-0.0118832,-0.0244244
-0.0334009,-0.00263194
-0.0748828,0.00777798
0.0258512,-0.0963237
0.0733773,0.0158944
0.120382,-0.0102779
0.0833296,-0.0784651
0.00211502,-0.0784668
-0.0322795,-0.00843865
0.0637629,0.0250817
0.0677811,-0.00555744
-0.0666561,-0.0173698
-0.150652,0.0145623
-0.050652,0.0080702
0.0438499,0.00240677
0.0338039,0.0191359
0.0911148,0.0267755
0.168183,0.0517488
0.16565,0.0655449
0.142183,0.00655003
-0.0153754,-0.00594679
-0.19558,0.0103655
-0.247617,0.0123267
-0.222657,-0.027474
-0.139916,-0.0679896
-0.0357432,-0.0518238
0.0417729,0.00969613
0.102786,-0.0353521
0.0842949,-0.0411395
0.0539459,0.00176372
0.0244232,-0.00474519
0.00881692,-0.00777255
0.0320827,-0.00397894
0.0836512,0.00763224
0.0664703,0.0222139
0.0222906,0.0316254
0.00778869,0.00673016
0.0314465,0.0111013
0.0387147,0.0966898
0.0706007,0.0714025
0.0777369,0.0186727
-0.00553348,-0.0647495
-0.158408,-0.0673231
-0.227058,-0.0324953
-0.163519,-0.0171843
-0.0588519,-0.00233259
0.00339707,0.00322888
0.0183644,0.00439944
0.00637626,-0.00945877
-0.00359978,0.0122104
-0.0171266,-0.0043588
-0.0918989,0.0146683
-0.0550983,0.0588358
0.0980953,0.0398365
0.236469,0.0197985
0.215394,0.0141188
0.0571546,-0.0177908
-0.0563649,-0.0356608
-0.135143,-0.0339945
-0.0995228,-0.0493361
-0.0101019,-0.0215409
-0.0032582,0.0468643
0.0026355,0.0154994
-0.0292928,-0.00698564
-0.0631261,0.012518
-0.0141708,-0.00975763
0.0283385,-0.0436381
0.0327188,-0.0279956
0.0137825,0.0170114
-0.00435725,0.028084
0.00359142,0.00867333
0.0634347,0.0161777
0.0701579,-0.00871647
0.0332038,-0.00632987
-0.0120691,0.00376532
-0.0157933,-0.00178988
-0.00100585,-0.00648499
-0.0177797,-0.00891841
0.00987762,-0.00916431
0.0518095,0.00105722
0.0153489,0.000961103
-0.0309565,0.00390449
-0.0658355,0.0127848
-0.0670365,0.00847795
-0.013533,-0.0221394
0.0193706,-0.00267686
0.0262095,0.0153017
0.0151387,0.03456
0.126043,0.0336469
0.256262,0.0315342
0.161262,-0.0118311
-0.0790861,-0.00939119
-0.245366,-0.00416229
-0.214519,-0.0576269
-0.112443,-0.0428829
0.00549294,-0.0175663
0.0412521,-0.016355
0.0255052,-0.00403597
0.0165079,0.0118105
-0.00501106,-0.0056937
-0.0159869,0.000563465
-0.0112392,0.0347553
-0.00835566,0.0505237
-0.0177444,-0.0156328
0.0264385,-0.0553401
0.0183643,-0.00173069
-0.0166351,-0.00534523
-0.00422568,-0.0137999
-0.0220453,0.0264998
0.00849717,0.0463324
0.0474737,0.0213991
-0.0135692,0.00402875
-0.0523845,-0.018984
0.0193158,-0.00447704
0.0374631,-0.0230876
0.0170425,0.00796586
0.0288377,0.00294608
0.0243007,0.0117004
-0.0266231,-0.0170779
-0.0138472,-0.024173
-0.0647737,0.0109839
-0.0950638,0.0537603
-0.00657513,0.0466191
0.0168316,0.0288548
-0.0621233,-0.057446
-0.00196548,-0.0495601
0.118802,-0.0201963
0.0926853,-0.0212597
0.0626125,-0.018627
0.0443472,-0.00878619
-0.0145702,0.00677842
-0.0519212,0.0338737
0.00456384,-0.0228235
0.0546024,-0.00111484
0.0515478,0.0268974
0.046958,0.0399403
0.103287,0.0587905
0.114292,0.0541928
0.0446088,0.0542398
-0.0229569,-0.115045
-0.0636161,-0.0935177
-0.129246,0.041256
-0.165814,0.0106185
-0.117638,-0.106446
-0.0752018,-0.0578197
-0.0341646,0.0476378
-0.0154417,0.04623
-0.0732396,0.0170273
-0.119097,0.00970831
0.0304616,0.0271641
0.0227698,0.0455913
-0.0189633,0.0223245
0.0419779,-0.0823687
0.0437444,-0.0741987
0.0320583,-0.0104082
0.0443051,0.0612331
0.0571311,0.0168416
0.0880494,0.000513855
0.159456,0.00846604
0.10148,-0.00696399
-0.0527267,-0.0421103
-0.137903,0.0451593
-0.10183,0.120584
0.0309268,0.0920718
0.0653183,0.0272142
0.104801,-0.00846074
0.122176,-0.0503267
-0.00421581,-0.0919236
-0.0285316,-0.0736798
-0.0837638,-0.0394035
-0.133797,-0.023377
-0.0981788,-0.0128757
-0.086982,0.00647001
-0.0345338,-0.015519
0.0311438,-0.023904
0.0466328,-6.45e-05
-0.00782759,0.0253619
-0.0208614,0.0137839
0.0133837,0.0758435
0.0206471,0.0302832
0.0925253,-0.0140383
0.12987,0.0132516
0.120078,0.00648104
0.0621032,-0.000661517
0.0266788,0.0432273
0.0877962,-0.0119265
0.193316,-0.0471095
0.0797442,-0.0306724
-0.242677,-0.0272914
-0.374937,-0.00224028
-0.237862,-0.0343815
-0.11173,0.0347483
-0.0446494,0.0248776
-0.0145602,-0.018647
0.0272808,-0.054903
0.0630835,-0.017221
0.0443927,0.00513196
0.0488956,-0.0104327
0.0457312,0.00820698
-0.0155057,0.0136214
-0.0249041,-0.0306643
0.0137092,-0.00179501
-0.0260745,0.0536987
-0.0586218,0.125897
0.0269973,0.151746
0.129853,-0.0252267
0.143631,-0.110375
0.115532,-0.0378523
-0.000780587,-0.0523955
-0.0480586,-0.0315664
0.00988136,-0.000438372
-0.0188479,0.0117216
-0.0132407,0.011611
0.0146123,0.0310769
0.0107143,-0.00373252
0.00901483,-0.0524432
-0.0188476,0.00105836
-0.0366211,0.0208592
-0.0426854,-0.000725662
-0.0711434,-0.0116924
-0.0804455,-0.0257282
-0.0449298,0.0279875
0.0110953,0.0229738
0.0350347,-0.0137076
0.0357649,0.00736326
0.021251,0.0320953
0.0107061,0.00694375
0.0249094,-0.0178633
0.0227122,0.0447297
0.00460693,0.0147952
0.00480289,-0.0576623
0.0102671,-0.00925284
-0.00849956,0.0182706
-0.0949951,0.0453461
-0.116675,9.5e-05
0.000624929,-0.0292293
0.186139,-0.00947117
0.243225,0.0207462
0.141882,0.0863338
-0.0245146,0.0281066
-0.132164,-0.134524
-0.159777,-0.0913788
-0.0948149,-0.0450304
-0.0460955,0.0194449
0.0161935,0.0416314
0.0698332,0.00603452
0.0848687,0.00244749
0.0198868,0.0011913
-0.0864326,0.0438766
-0.131298,0.032378
-0.058907,-0.0308294
0.0268117,-0.0279987
0.0592848,0.0214596
0.0404151,0.00791603
-0.0330267,-0.0370901
-0.0731123,-0.0296126
-0.0203268,-0.00821265
0.0125003,0.0286982
0.0475277,0.0222953
0.0782227,0.01512
0.0510531,0.0352585
0.038508,-0.0379109
0.0300941,-0.0484454
0.00384097,0.00856567
0.0320797,-0.00901579
0.000679715,-0.0165495
-0.0516543,-0.0215844
-0.0737095,-0.0143641
-0.104123,0.0162543
-0.125112,0.0527651
-0.0832444,0.0214884
0.0176377,-0.0249599
0.182415,0.0475923
0.315461,0.088947
0.257295,0.161645
0.0374078,0.112302
-0.189868,-0.0935453
-0.265399,-0.168916
-0.119897,-0.12374
-0.0194744,-0.0538961
-0.0294968,-0.0069068
-0.0336419,-0.00715069
0.037859,0.00828485
0.0515279,-0.0387818
-0.0163871,-0.0275641
-0.0733145,0.0336575
-0.0829422,0.0522445
-0.0121108,0.0295091
0.0591168,0.0130642
0.0943601,0.0073606
0.067486,-0.0134178
0.00765713,-0.00559504
0.00748544,-0.01368
0.0140294,-0.00749215
-0.0150713,-0.00432965
-0.062871,0.00833742
-0.0413334,0.0351535
0.000402937,0.06073
0.0242538,0.0229034
0.0614847,-0.0170511
0.203814,-0.0181608
0.185945,-0.0291021
0.0336634,-0.0139314
-0.0857933,-0.0196584
-0.184538,-0.0299921
-0.162166,0.00366459
-0.0769011,0.0452287
-0.0196848,0.0363236
0.0133313,-0.0486645
0.0342768,-0.0342245
0.0742315,0.0081368
0.0722378,0.0100421
0.0730478,0.00343995
0.0768047,0.0156849
0.0335531,-0.00144035
-0.107256,-0.0160917
-0.188059,-0.0279841
-0.125367,-0.012634
0.0200655,-0.0119686
0.124452,0.00291108
0.111931,0.0227922
0.0867748,0.0550232
0.0297213,0.0300806
-0.0251107,0.0199523
-0.101861,-0.0325215
-0.118499,-0.0228377
-0.0851585,0.0183536
-0.0292246,-0.00532898
0.0120225,0.035865
-0.00606347,0.106058
0.0448152,0.0674503
0.130672,-0.0182761
0.14617,-0.147623
0.0385453,-0.0663665
-0.0497506,-0.0312925
-0.0932815,-0.0113132
-0.0686614,-0.012027
-0.027988,-0.0109784
-0.0593229,0.0377218
-0.0807535,0.0374762
-0.054547,0.0190376
-0.0215576,0.0284727
0.0105594,0.00183226
0.0818924,-0.0473028
0.0948897,-0.0300512
0.0868299,-0.00128554
0.084176,-0.0118603
0.036818,0.00945469
-0.0178665,0.0334316
-0.0719024,0.0073346
-0.0946734,0.00336417
-0.0515319,-0.0361902
-0.041589,-0.022991
-0.0521736,0.0131693
0.0186259,0.0190706
0.0717151,0.0289886
0.0437065,0.0265743
0.0108297,0.0436046
0.0221377,0.0439232
0.0574697,-0.0264102
0.0600935,-0.0589202
0.0771028,-0.0666691
0.0684263,-0.0512604
0.053207,0.0164658
0.126908,0.0587097
0.206711,0.0713291
0.150499,0.00236738
-0.130467,-0.0884149
-0.305832,-0.0554685
-0.283956,-0.00535829
-0.217849,0.0153491
-0.119467,0.00252516
-0.0103433,0.0108217
0.0437911,0.0259526
0.0541652,0.0357208
0.00757806,-0.00571637
0.020256,-0.0162504
0.0215846,0.00451742
-0.039132,0.0202957
-0.0797313,0.0504036
-0.043693,0.0205913
-0.000917776,0.0116934
-0.0346268,0.00875293
0.026441,-0.00481142
0.0520397,-0.0548502
0.0382364,-0.0913747
0.0528456,-0.0338741
0.0483241,-0.0142535
0.0153868,0.0250463
0.0305863,0.0767395
0.0541658,0.0268861
0.0694986,0.0134082
0.162262,-0.0282228
0.242745,-0.0215595
0.212717,-0.0160025
0.0183124,-0.00274319
-0.178515,-0.0355642
-0.255204,-0.0286191
-0.202355,0.0176353
-0.125133,0.0255142
-0.0601694,0.0185924
-0.0537207,0.029571
-0.052724,-0.00357527
-0.014275,-0.0209141
0.0448031,-0.00536625
0.0608889,0.00733441
0.037028,0.00929163
0.0853913,-0.000637088
0.0930292,0.0135648
0.0246513,0.04311
-0.0151948,-0.00603697
-0.0529846,-0.03274
-0.0641652,-0.0609712
-0.0330825,-0.0119472
-0.0112104,0.0511003
0.00551925,0.0275653
0.00255062,-0.0107363
0.057718,0.0287926
0.17153,0.0557833
0.169124,-0.0140767
0.0562304,-0.0410442
0.00788629,0.0248325
-0.103335,0.0163433
-0.172621,-0.0596262
-0.228506,-0.0837075
-0.206513,-0.0145847
-0.117036,0.0244591
-0.0737587,0.0576209
0.0876562,0.0716741
0.263396,-0.0445009
0.293692,-0.0577537
0.171645,0.00652065
-0.00489057,-0.0279445
-0.151987,-0.0441363
-0.128922,0.0301925
-0.0326407,0.00830135
-0.0942067,-0.00119472
-0.0695741,-0.0267234
-0.0173391,0.0291974
0.0304827,0.0151278
0.162446,0.0174948
0.194383,0.0369865
0.127028,0.0193946
0.015133,-0.0200725
-0.0874718,-0.0413179
-0.100674,0.00770026
-0.0725947,0.00646769
-0.0623106,-0.00318225
-0.0686429,0.0583294
-0.0396578,0.0135085
-0.0261531,-0.0237125
-0.0343306,-0.0237732
-0.00413536,-0.040875
0.00168029,0.0314889
0.0424084,0.00154524
0.178082,-0.0471686
0.104817,-0.0189227
-0.0414504,0.00379086
-0.0899771,0.0254364
-2.12e-05,-0.00476549
0.0342395,0.00488628
-0.00138148,0.0482349
-0.0204197,0.0596306
-0.0779634,0.0641936
-0.0713478,0.0028551
-0.0367731,-0.0505054
0.00606185,-0.0333138
0.0288354,-0.0332722
-0.00980811,-0.00666958
0.0135702,-0.00170156
0.0836981,0.0151569
0.0777603,-0.0103373
0.0151775,-0.0227478
-0.0261801,-0.0356589
-0.0681315,-0.0521343
-0.0474767,0.00494584
0.0194119,0.0210737
0.0419223,0.01682
0.0461246,0.0503304
0.034033,0.0244814
0.0218796,0.0128729
0.0441928,0.0246282
0.0910596,0.00502343
0.103527,-0.0261807
0.0271755,-0.0186843
-0.0844229,-0.0404241
-0.141574,-0.0479706
-0.0963841,-0.0118559
-0.00739573,0.0586861
-0.0038862,0.0162609
-0.0684952,-0.030124
-0.0629317,-0.0275208
-0.0407633,-0.00909447
-0.0339389,0.0112061
-0.0204548,0.0279161
0.0103384,0.0538247
0.028348,0.0112898
0.0811952,-0.0309276
0.125496,0.0132073
0.0677611,0.016715
-0.00952923,-0.00818258
-0.0185491,-0.00148094
-0.0368001,0.0408657
-0.0861983,0.0590947
-0.0781311,-0.0542632
-0.0172632,-0.0698557
0.051493,-0.0523663
0.0514796,-0.0257349
0.0333509,0.0336602
0.0882568,0.0339795
0.162731,0.0219432
0.204729,0.068028
0.172821,-0.0181216
-0.0053448,-0.0826188
-0.187811,-0.0159945
-0.315469,0.0593252
-0.276506,0.0486175
-0.152734,-0.0525123
-0.0148875,-0.00765466
0.0488129,0.031817
0.0422884,0.0322259
-0.0428034,-0.0711038
-0.055404,-0.0433836
0.0131903,0.0106039
0.00218369,0.0118202
-0.0221537,-0.0136775
-0.0261458,-0.001263
-0.0313783,0.0109538
0.0216177,0.0487409
0.0522808,0.0559754
0.0506757,-0.00117793
0.146041,-0.0779962
0.129772,-0.0513573
0.0718004,-0.0324571
0.100182,-0.0137408
0.0952322,0.0120423
0.0330823,0.0185931
-0.0166094,-0.000289094
-0.0298778,0.030838
-0.0247659,0.0371987
-0.0148509,0.0534576
0.0675016,0.0343437
0.0623847,-0.074819
-0.0691475,-0.112247
-0.159944,-0.0508666
-0.0882494,0.0182737
-0.00232974,0.0503658
0.00520615,0.065238
-0.0305672,0.0525795
-0.0935436,-0.00385059
-0.0991124,-0.0315358
-0.0694366,-0.0401169
0.0214679,0.0025791
0.039573,0.0658978
0.0347512,0.0945264
0.0773079,0.0232518
-0.00382665,-0.0258189
-0.0563344,-0.034828
0.00765257,-0.0471172
0.0359197,-0.0409151
0.0453839,0.0261614
0.0985847,-0.0333374
0.146601,-0.0583331
0.147242,-0.0139152
0.0986488,-0.0221587
-0.00455857,0.0183135
-0.047649,0.0541155
-0.0301974,0.0560777
-0.0661058,0.0238997
-0.148156,-0.0759584
-0.16167,-0.0410104
-0.0938969,-0.0222146
-0.0207873,0.00366985
0.0387428,0.0189917
0.050845,0.124399
0.0528397,-0.0026122
-0.00106858,-0.0838215
-0.0829628,-0.0333364
-0.101005,0.0254968
-0.024098,0.0345589
0.0123603,0.0175604
0.0355229,-0.00813738
0.0644218,-0.0149424
0.0271175,0.0173918
-0.0176205,-0.00753418
0.0505529,0.0633333
0.144641,0.0422159
0.105024,0.0172293
0.0508595,-0.0137191
-0.0550628,-0.122321
-0.198752,-0.0785472
-0.183938,-0.0316589
-0.0955207,0.022521
0.0471535,0.0720279
0.225432,0.0588697
0.250883,0.0369085
0.183798,0.070801
0.0331446,0.000348151
-0.133273,-0.0836632
-0.206696,-0.0994229
-0.224898,-0.0372202
-0.128647,0.0411307
-0.0699904,0.0230811
-0.0386681,-0.0433641
-0.0331406,0.0171939
-0.0400388,0.0390781
-0.00620818,-0.00907203
0.0671359,-0.0312028
0.104766,-0.0165948
-0.0394708,0.0341443
-0.0794891,0.0203854
0.00217562,-0.00614938
0.113213,-0.0127481
0.230164,0.020409
0.269149,0.0641955
0.212047,0.0107159
0.0421709,-0.0100466
-0.0643362,-0.0708575
-0.144516,-0.127627
-0.235446,-0.0252787
-0.179008,0.0876096
0.0352303,0.0338194
0.133929,0.0307723
0.0541406,0.0539554
0.00130024,0.00178331
0.0053508,-0.0201508
0.0738422,0.0271499
0.0946793,0.0529884
0.0286432,-0.024042
-0.140238,-0.106189
-0.225887,-0.0681938
-0.127259,-0.0299066
-0.0350543,-0.000482698
0.0247616,0.017885
0.0284366,0.0148098
0.0680541,0.036845
0.0670854,0.000572656
0.00517081,0.0193909
-0.00404415,0.0848853
0.0185445,0.10312
0.0200912,-0.00376218
0.0535478,-0.080225
0.0945088,-0.0576018
0.0107698,-0.0172652
-0.105987,0.00995888
-0.134786,0.0125025
-0.0888866,-0.0102782
-0.0622118,-0.0172901
-0.0172394,0.00223167
-0.0049032,0.00180791
0.010274,0.0235157
0.0506208,0.0475268
0.063963,-0.0218138
0.117484,-0.0870846
0.17195,0.0313424
0.14571,0.0260291
0.00920324,-0.0450098
-0.137871,-0.0232679
-0.161085,0.0256207
-0.045232,0.00131349
0.108915,-0.0322011
0.165067,-0.00729802
0.163624,0.027323
0.0285993,0.0148909
-0.157975,-0.0151265
-0.218269,-0.0265529
-0.184089,0.00614134
-0.125023,-0.00949989
-0.0350393,-0.0234646
0.0106357,0.00215632
0.0274113,0.0263374
0.0463014,0.0317981
0.0035074,0.0460013
-0.0717995,0.000679823
-0.0779669,-0.00928612
-0.0540089,0.027952
0.00823766,0.0583884
0.0742637,0.0137505
0.120526,0.044509
0.193078,-0.0316496
0.236281,-0.0359362
0.157027,-0.00459015
-0.0182925,-0.000232906
-0.0725531,-0.0220848
-0.0216062,-0.0565693
0.00735388,-0.0337334
-0.0427127,-0.0198269
-0.0979564,-0.0280508
-0.0627358,0.000457107
-0.0563534,0.0378705
-0.0716102,0.0107293
-0.0746624,-0.0190401
-0.0437286,0.0496046
-0.00322861,0.0487455
0.000575726,0.0364623
0.0276009,-0.0198297
0.0090195,-0.0262953
-0.0925183,0.00118307
-0.0894486,-0.0376269
-0.0357351,-0.0387847
-0.0146017,0.0146073
0.0846377,0.0469718
0.210178,0.00746397
0.192311,-0.0302908
0.0427323,-0.0242225
-0.0805358,0.0166378
-0.0469793,0.100667
0.0631078,-0.000704555
0.185877,-0.0833883
0.229579,-0.0405716
0.105681,-0.0284973
-0.204033,-0.0397632
-0.366763,-0.0252189
-0.223181,0.000119869
-0.0176946,0.0279885
0.048173,0.0156004
-0.0122723,-0.0286996
-0.0148528,0.0251418
0.0615725,0.0750581
0.0532854,0.0422942
-0.0336419,0.0164301
-0.0342456,0.00666733
0.0165737,0.0202653
0.00652557,0.0631434
-0.0392871,0.0320684
0.0230674,-0.0748275
0.0960134,-0.0764876
0.0422312,-0.0553777
-0.0264075,-0.0357648
-0.0666944,0.00433422
-0.0212855,0.00251135
0.0302066,0.0120198
0.0784495,0.0123641
0.073961,0.0168673
0.00293366,0.00788618
-0.0228696,0.00714615
-0.0297808,0.00382098
-0.0433059,0.00223271
-0.0192433,0.00453085
0.0200872,-0.0159851
0.03027,-0.0301896
-0.000652865,-0.0118837
-0.0293394,-0.0057878
-0.0922867,0.00599287
-0.0983311,0.032732
0.00248893,-0.00361398
0.038139,-0.00355218
-0.012566,0.00261699
-0.0389674,0.00724905
0.0196485,0.00397071
0.0469552,0.0062133
0.0443332,0.0216324
0.0636268,-0.00208382
0.111482,0.00355683
0.248383,0.0132513
0.327279,0.0290806
0.0650263,-0.00917369
-0.276392,-0.0318214
-0.310299,-0.020179
-0.213075,0.00311916
-0.127472,0.00728174
-0.0555022,-0.0095973
-0.0107045,-0.000447132
0.0729046,0.0144186
0.122326,0.0139744
0.079199,0.0100067
0.0532108,-0.0197822
-0.0282986,-0.049139
-0.0795683,-0.00340627
-0.102606,0.018642
-0.0528546,0.0171016
0.0388748,-0.0264038
0.0558365,-0.00296829
0.0509992,0.0191094
0.02664,0.0350924
-0.00242332,0.0351883
-0.0274711,-0.0182867
-0.0163979,-0.0783017
0.00737847,-0.0154733
0.0157512,0.0277694
0.0148895,0.0149336
0.00652199,-0.0302464
-0.00860435,-0.00788809
-0.00304143,0.02369
0.0102843,0.0370973
0.0133063,0.0309974
-0.00935931,0.043376
0.00440554,-0.0049398
0.0460159,-0.00418919
0.0450897,-0.0133915
0.0319499,-0.0404042
0.0113011,-0.0133214
-0.0206523,0.00448008
-0.0559075,0.00844616
-0.0564771,-0.0212602
-0.0129894,-0.0590395
-0.0105748,-0.0171374
-0.0424654,0.0544895
-0.0562908,0.0553346
0.00407493,-0.00241165
0.085653,-0.0219856
0.102722,0.0480408
0.127907,0.0201748
0.0880595,-0.0501585
-0.0527984,-0.00369688
-0.114292,-0.0216593
-0.0820351,-0.0567661
-0.0501354,-0.0131844
-0.0356561,0.0139939
-0.0535624,-0.00534732
-0.0323847,-0.00909744
0.119879,0.00419447
0.215552,0.0379575
0.174489,0.0894279
0.0297884,0.0397816
-0.162526,-0.0328271
-0.184356,-0.0304985
-0.122203,0.0122371
-0.0872455,-0.0495269
-0.0392204,-0.0893936
0.0341154,-0.0146522
0.0579066,0.0513389
0.0246677,0.0369014
0.0143135,0.00904737
-0.0137528,-0.00619839
-0.0473584,-0.00388641
-0.033546,-0.0100352
-0.0218503,-0.0220803
-0.0243504,-0.00598434
-0.0119083,0.014864
0.00694286,0.0371851
0.010338,0.0304298
0.0315607,-0.00543258
0.0524835,-0.0174026
0.0506541,-0.0111352
0.038357,-0.0124014
0.0362018,0.0111044
0.0365921,-0.00720842
0.03398,-0.00959939
0.027821,-0.0038716
0.012539,-0.011097
-0.00412025,-0.0130676
-0.0142461,-0.0143899
-0.019281,0.0038446
-0.0221646,0.00553612
-0.020243,0.000414165
-0.0129493,0.0129
-0.0100635,0.0186518
-0.00715962,0.0247757
-0.000147228,0.0406426
0.0098477,0.0117237
0.0101156,-0.0135558
0.0127073,-0.0247311
0.0194655,-0.0145827
0.0175766,0.00263255
0.0192661,0.0107203
0.0121001,0.00548942
-0.0117201,-0.00130243
-0.0236283,-0.00334654
-0.0159374,-0.00645574
-0.0243503,-0.0135582
-0.0197466,-0.014495
-0.0159632,0.000896713
-0.015402,0.0124291
-0.0143853,0.00706322
-0.0125994,0.00270306
-0.00698989,-0.00083878
-0.000595595,-0.00241342
0.00794673,-0.000639137
0.0194396,0.00400084
0.023675,0.00295669
0.0241661,0.00703664
0.0279449,0.010875
0.0217485,0.000973558
0.00781646,-0.00608134
-0.00367682,-0.00543911
-0.0114148,-0.0106643
-0.0183918,-0.014589
-0.0194996,-0.00699479
-0.0143439,0.00767131
-0.00885435,0.0127035
-0.00957935,0.00731027
-0.0103685,0.00623746
-0.00954551,0.00253545
-0.00826155,-0.00211739
-0.00498373,-0.00145129
0.00256684,0.000151453
0.00676381,-0.000105099
0.0126379,0.00680164
0.0109442,0.00922105
0.00338489,-0.000577181
-0.00288231,-0.00666428
-0.0050737,-0.00667359
-0.00628351,-0.00989132
-0.00945203,-0.0137355
-0.00967338,-0.00639065
-5.92e-06,0.00756988
0.00903137,0.00740428
0.00817517,-0.000777186
0.00446132,-0.00523365
0.00508809,-0.0102995
0.00740625,-0.00983822
0.010226,-0.00370433
0.0110606,0.000122407
0.00859944,0.00494046
0.00524465,0.0139262
-0.000699674,0.0148955
-0.0113396,0.00282969
-0.0174689,-0.00718853
-0.02074,-0.00962802
-0.0265013,-0.0105953
-0.0271344,-0.00680186
-0.0171106,0.00453697
-0.00221818,0.00719109
0.013218,0.00227886
0.0299259,0.00415183
0.0535628,-0.00329938
0.0638127,-0.00721711
0.0418401,-0.0129119
0.00910691,-0.00443741
0.00913328,0.00688318
0.032183,0.0185077
0.0692427,0.0249139
0.0761166,0.0156858
-0.00777152,-0.0111929
-0.122211,-0.0210919
-0.153058,-0.0211859
-0.111463,-0.0122145
-0.0685477,-0.00393262
-0.0323067,0.00833776
-0.00571707,0.0123744
0.00441586,0.00760566
0.00614231,0.00450879
0.00343245,-0.000609627
0.00420092,-0.00370943
0.0135054,-0.000109925
0.0265608,0.0028141
0.0296591,0.00246502
0.0247911,0.00807148
0.0214025,0.00824382
0.0186256,-0.00107596
0.0183106,-0.00394548
0.0185129,-0.00430187
0.0107189,-0.00713532
-0.000891325,-0.0133084
-0.00652105,-0.00345837
0.00114821,0.0130199
0.0111389,0.0128404
0.00920678,0.00899057
0.00575651,0.00521345
-9.11e-05,-0.00156008
0.000895076,-0.00903999
0.00874074,-0.00818382
0.00463249,-0.00526281
-0.00323837,-0.00171546
0.00131514,0.00751704
0.00387521,0.00364374
0.003561,-0.00523075
0.00702128,-0.00475102
0.00996826,-0.00491764
0.00847188,-0.00966669
-0.000297456,-0.0119682
0.00232983,-0.00123587
0.00768547,0.0093089
0.00986629,0.00330424
0.00109734,-0.00393431
-0.00914119,-0.00758395
-0.0183402,-0.0102626
-0.0245739,-0.0103437
-0.019541,-0.00338297
-0.0135332,-0.000995951
-0.0124605,0.0075419
-0.0113096,0.017094
-0.0102602,0.0184796
-0.010682,0.0178337
-0.00530062,0.0222815
0.00409399,0.0194414
0.0028678,0.0124182
-0.00439869,0.00450996
-0.00151212,0.00534236
0.0025947,0.00685226
-0.00264618,-0.00638236
-0.0134039,-0.0113326
-0.0208956,-0.0122735
-0.0212515,-0.0155704
-0.0125412,-0.0121214
0.00363159,-0.00710071
0.0127295,-0.00440926
0.0145819,0.00468344
0.0113641,0.00581723
0.00603072,-0.00349019
0.00823036,-0.0115386
0.0148832,-0.0148815
0.0154186,-0.0208561
0.0130788,-0.0244878
0.0119879,-0.0129703
0.0143262,0.00456703
0.0154266,0.00979862
0.0238888,0.00533528
0.054701,0.00691678
0.0602319,0.00324278
0.0402515,-0.00114698
0.0157101,0.00330789
-0.0232005,0.00884149
-0.0684844,0.0129256
-0.0892125,0.0218807
-0.0756256,0.0215026
-0.0359621,0.0130457
-0.00521401,0.00302367
0.0513775,-0.00691808
0.0697966,0.00205606
0.0423798,0.0107506
-0.00503411,0.0104114
-0.041812,9.81e-05
-0.0613875,-0.00646633
-0.0753341,-0.0103237
-0.0745803,-0.019073
-0.0631387,-0.0235449
-0.0249655,-0.0221736
0.0664327,-0.0173712
0.10644,-0.00773872
0.0864586,0.00124794
0.0315078,0.000237184
-0.0189545,-0.00254167
-0.024982,0.00313337
-0.0022347,0.012512
0.0419404,0.0190015
0.0603773,0.0249138
0.0482494,0.0294393
0.00867341,0.022438
-0.0663809,0.00263782
-0.141094,-0.0103882
-0.0755479,-0.0148424
0.024821,-0.0215515
0.0461502,-0.0242729
-0.00199163,-0.0185502
-0.0304279,-0.0149252
-0.0221603,-0.00810532
-0.0196201,-0.00210277
0.00786095,-0.00183591
0.0253736,-0.00022763
0.0270684,0.0107346
0.0203847,0.0112665
0.039165,0.00580982
0.0219534,0.0214975
0.0770079,0.0370437
0.146495,0.0334636
0.0894891,0.0217939
-0.0310537,0.0048837
-0.145315,-0.0133668
