Comp Ch 3,Comp Ch 4
0.00428148,-0.0139603
0.0156918,-0.021165
0.000946331,-0.00195135
-0.0367355,-0.00356061
-0.0337072,0.00706823
0.0145454,-0.00590467
0.0361772,-0.00911852
-0.0158989,-0.00597138
-0.0544789,0.0307883
-0.0543315,-0.0262963
-0.0281651,0.00752064
-0.0123064,0.033399
0.00129583,-0.0243363
0.0152487,-0.0367009
0.0559847,0.0222462
0.0234205,0.0113344
0.0244208,0.0134319
0.0380621,0.00516493
0.0201711,-0.0141098
0.0282044,0.000297763
0.0481232,0.0309006
-0.00118573,0.00673005
-0.0384047,-0.00603802
-0.0194218,0.00435601
-0.0206766,0.0306121
-0.0609746,0.0662564
-0.0507861,0.0246034
-0.0757039,-0.0489535
-0.0775213,-0.00853398
-0.0701282,-0.00633389
-0.114388,-0.0474714
-0.0452031,-0.0530861
0.0883831,-0.00582305
0.108514,0.0204708
0.120319,0.0194808
0.0486151,0.0284338
-0.0157614,-0.0304297
-0.0184199,-0.0358716
0.0478231,0.0105554
0.0411094,0.028128
0.0643088,0.00604865
0.117812,-0.024632
0.112795,-0.0328769
0.0246997,-0.0261345
-0.00815494,-0.0373216
-0.00989321,-0.00831787
0.000104932,0.0295134
-0.00156612,0.053074
-0.04497,0.0520632
-0.0567236,0.0263029
-0.0333489,0.0272556
-0.04166,0.00504864
-0.0441722,-0.0107477
-0.0362186,-0.0520543
-0.0726966,-0.0343641
-0.0807757,0.00489636
-0.0363237,0.0182997
-0.0060086,0.00453742
-0.0585704,-0.0122542
-0.0130925,-0.0183226
0.0923571,0.03593
0.105759,-0.0518326
0.0948501,-0.0470665
0.105121,0.0161297
0.104526,0.0712525
0.0393553,0.0473707
-0.0189075,-0.0229655
-0.119824,-0.0265365
-0.172999,-0.00586733
-0.0841669,0.00952284
0.0236241,0.0099299
0.103917,0.0175653
0.103624,0.01755
0.0141665,-0.00564496
-0.0701023,-0.0212579
-0.100966,-0.0151674
-0.090017,0.00988564
-0.0453258,-0.0257823
-0.0066369,-0.00262109
0.0393566,-0.0254754
0.0467161,-0.00740092
0.0404182,0.00541983
0.0223892,0.00812648
0.00134655,0.00391999
-0.00934014,0.0105241
-0.0168097,0.0346058
-0.0284879,0.0355833
-0.0449842,0.012106
-0.00980268,-0.0290127
0.0344448,-0.00253604
0.036214,0.00765099
0.0418703,0.00901683
0.0736586,-0.0255941
-0.00774068,0.00199949
-0.0472842,0.00444783
-0.0188359,-0.00720909
-0.00169574,0.00313871
-0.0057295,0.0140094
0.0156318,-0.00581269
0.0474342,-0.0174194
-0.0142448,-0.0107556
-0.152088,0.00866377
-0.110599,-0.0100562
0.0550876,0.00112658
0.086069,0.0113438
0.0692064,0.0354458
0.0773179,0.0159242
0.0453268,-0.0358272
0.00830083,-0.0466153
-0.00844518,-0.010277
0.00154068,0.0244179
0.0483852,0.0188713
-0.00900641,-0.00746826
-0.0622808,-0.00624596
0.0107349,0.000882389
-0.00746757,-0.00443226
-0.0573612,0.00415357
-0.0320317,0.0143339
0.00901157,0.0149574
0.014043,0.0404713
0.0362723,0.0117141
-0.00244865,0.0062371
0.0188709,-0.089945
0.0001543,-0.0562292
-0.0700477,-0.0058809
-0.120513,0.0440765
-0.122635,0.0288633
-0.0811404,-0.031767
0.0292057,0.00841617
-0.035941,0.053647
0.0121752,0.0434493
0.0950367,0.0376235
0.098945,-0.0247407
0.0684515,-0.0537575
0.0386918,-0.0272189
0.0513758,-0.0421238
0.0606693,-0.0620419
0.0688512,-0.0306879
0.0590535,0.00683036
0.0153947,0.0149556
-0.0237555,0.0163149
-0.0281362,0.0150496
-0.0270404,0.0149383
-0.0687035,0.0223067
-0.0807218,0.015393
0.0206967,0.0104374
0.0688801,0.0160906
0.0666272,0.00789878
0.0311954,0.00962537
-0.0331949,0.0100357
-0.0747121,0.00735483
-0.0952056,0.00450355
-0.0868829,-0.0065622
-0.0320248,-0.0146603
0.0184302,-0.011414
0.0397996,-0.0249037
0.0422489,-0.0207721
0.0339004,-0.00555303
0.00776806,-0.00821886
-0.0181724,-0.0089111
-0.0407042,0.00330059
-0.0508175,0.0162457
-0.021934,0.0364818
-0.00149795,0.0274749
0.0274447,0.000252294
0.047166,-0.00653707
-0.00359354,-0.00718347
-0.0163703,-0.0140288
0.062453,-0.0256381
0.197114,-0.0324432
0.155983,-0.0188477
-0.0127435,0.0203545
-0.0511531,0.0438483
-0.087855,0.0460922
-0.167289,0.0204613
-0.153167,0.0122177
-0.0960059,0.011851
-0.084549,-0.0134019
-0.0224478,-0.00334433
0.00408377,0.042832
0.0263909,0.0488974
0.0611362,0.0235938
0.0594292,-0.0518123
0.0367815,-0.0691891
0.0534136,-0.0492678
0.0578346,-0.0266023
0.0390355,-0.0209702
0.0186897,-0.0531643
0.0235109,-0.0192726
0.00971988,0.0226341
0.00963669,0.00554635
0.0186449,0.0314688
0.0239965,-0.0341512
-0.00624735,-0.017734
-0.00935866,0.0167599
0.0549734,0.0308038
0.0373377,0.0392567
-0.0206634,0.0364138
-0.0514625,0.016535
-0.0634482,-0.0190478
-0.084206,-0.0104478
-0.0342601,-0.00534519
0.0371977,-0.00524662
0.00528259,-0.00434267
-0.0933317,0.0155164
-0.140673,0.0206352
-0.00768385,-0.0131022
0.109675,-0.0179591
0.132982,-0.0239675
0.10145,-0.0329757
0.021165,-0.0343656
-0.0535261,0.00205037
-0.0469816,0.0365874
-0.0234502,0.0452168
0.0157524,0.0254872
0.0454999,0.00214629
0.0859643,0.00587118
0.072958,-0.0232599
-0.0184151,-0.0277979
-0.112159,-0.0200747
-0.0902355,0.00230773
0.00021937,0.00379633
0.0347068,0.0218926
0.0258385,0.0246685
0.00215438,0.0253971
-0.0249052,0.0839781
-0.0790554,0.03757
-0.0710845,-0.0149431
-0.0763379,0.000753669
-0.117631,0.00771016
-0.0319468,-0.0219444
0.128355,-0.0910016
0.172153,-0.0692969
0.11826,-0.0259162
0.0436606,0.000600829
-0.0229354,-0.000846292
-0.0559671,-0.0047265
-0.0884963,0.00128591
-0.0449368,0.0168647
0.0221005,0.0417998
0.058135,0.0478847
0.081136,-0.019508
0.067784,-0.0492752
0.0369645,-0.0153246
0.00369907,-0.0228882
-0.0430706,0.0299883
-0.0422115,0.0293177
-0.00961825,-0.00604744
-0.023191,0.0263763
0.0349917,-0.0119763
0.060307,0.0193312
-0.0363143,0.0156316
-0.125844,-0.0397689
-0.0876428,-0.0454492
-0.013207,0.00587339
0.0184918,0.0245495
0.00215235,0.00527171
-0.000670907,-0.00127099
0.015147,-0.0274262
0.0460088,-0.0141086
0.0493258,0.014289
0.0463454,0.0404203
0.035457,0.0252129
0.0101168,-0.00711481
0.00301043,0.014492
-0.0132226,0.00198083
-0.0349226,-0.0269742
-0.049933,-0.0172632
-0.0513145,0.0185013
-0.0411834,0.022675
-0.00326879,0.000119052
0.0372521,-0.00122359
0.0458079,-0.0045705
0.032653,-0.0228683
0.0113087,-0.0371313
-0.00372578,-0.0192442
-0.00228184,-0.00865455
0.00445605,-0.0152746
0.00858616,0.0145224
-0.000826917,0.0420682
-0.00716779,0.0272044
-0.009617,0.0404556
-0.0212002,-0.00935596
-0.0332029,0.0179103
-0.0337275,-0.0122983
-0.0162213,-0.0353227
-0.0079761,-0.00495144
-0.00513297,0.0332069
-0.00317267,0.0426901
0.0133909,-0.00198424
0.0346247,-0.0286697
0.029816,-0.0246658
0.0169872,-0.0209947
0.0056863,-0.0215877
0.00208165,-0.0220351
0.00772432,0.00745582
0.013373,0.022068
0.00910879,-0.00526788
0.00371295,0.0260364
-0.00860502,0.0379462
-0.00410176,-0.00101194
-0.00765783,-0.0108456
-0.0143487,0.00256726
-0.0193215,0.0124794
-0.00731761,0.0208871
0.0177942,0.0103381
0.0307489,-0.00509879
0.0262815,-0.0410265
-0.0037887,-0.0331118
-0.030409,-0.0286073
-0.00947066,-0.041988
0.000477162,-0.0387127
-0.0184376,0.0181206
0.00663643,0.0485636
0.00873619,0.0454538
-0.022654,0.0474098
-0.0134805,0.0726039
-0.0243856,0.0106799
-0.0405861,-0.071454
-0.0731899,-0.0235983
-0.0968554,0.017512
-0.0676925,-0.0280193
0.0134598,0.0166694
0.0968565,0.0172239
0.108401,-0.0365643
0.00540602,-0.0376864
0.0366202,-0.0177417
0.104983,-0.0290902
0.00877599,-0.0455398
0.0106729,0.00246412
0.0877551,0.0152276
0.0777291,0.0032345
0.0271039,-0.00643582
0.00465564,0.0128234
-0.0292683,0.00922075
-0.0544192,-0.00136625
-0.0294514,0.0103304
-0.034714,0.0210006
-0.0532253,0.0364646
-0.0589208,0.0270377
-0.0818902,0.0144406
-0.037122,-0.0385183
0.0174348,-0.0322862
0.00047972,-0.0154077
-0.0220728,-0.00612179
-0.0238629,0.00804333
0.00673934,0.071453
0.0328664,0.0229951
0.0221722,-0.0313898
0.0537833,-0.0157408
0.0518261,-0.00895569
0.0241394,-0.0161156
0.00291937,-0.012009
-0.0154607,-0.0163665
-0.0298061,0.0129506
-0.0182426,0.0482468
0.0154995,0.0112583
0.0678426,-0.00126514
0.0401362,0.00126156
0.0163882,-0.012655
0.0309592,-0.0122028
0.0186836,-0.0115166
0.0261003,0.000775129
-0.0205573,0.0279347
-0.0279627,0.0116617
0.000937632,-0.00628452
-0.0202592,-0.0352864
-0.0352721,-0.0187588
-0.02637,0.00837094
-0.0287137,0.027665
-0.0425445,0.0132239
-0.0267739,-0.000612985
-0.00525914,0.0368884
-0.002529,0.0189287
0.0058895,-0.008622
0.0313488,-0.00388228
-0.0127899,-0.0121505
-0.0824455,-0.0412898
-0.056454,-0.0283627
-0.0100945,0.0229661
-0.0106597,0.0161778
-0.0777288,0.018447
-0.125012,0.0446303
0.0728658,0.0208124
0.102736,-0.0278812
0.0710392,-0.0593026
0.0417382,-0.0318492
-0.0057998,-0.0114516
0.0482756,0.0355651
0.0535165,0.0338291
0.0444221,-0.0354137
0.0663762,-0.0233086
0.063196,-0.0120681
0.0308401,-0.0194384
-0.00866587,-0.0189985
-0.0631167,-0.0134749
-0.0417163,-0.0266454
0.000332241,0.015801
0.0171689,0.0402105
0.00493889,0.0162927
-0.0119829,0.0153454
0.00581206,-0.00267788
-0.00896678,-0.00416688
-0.0504075,0.00976572
-0.0537272,0.0161195
-0.0498136,0.0208463
-0.00149924,0.0121078
-0.0134568,0.0138331
-0.00223185,0.0118148
0.0211955,-0.0209709
0.0393548,-0.0620119
0.0517783,-0.0335212
0.0236426,0.0114714
0.0252441,0.0194846
0.0029093,0.0405051
-0.0224745,0.0501057
0.00154478,-0.0214961
0.01446,-0.0243788
-0.0115006,0.00262153
-0.0220943,0.0280966
-0.00736069,-0.00532087
-0.0125551,-0.0268757
-0.0634457,0.0163141
-0.133296,0.0306017
-0.183998,0.0237532
-0.141201,0.0193667
-0.0425561,-0.00189105
0.0494667,-0.0391906
0.0911104,-0.0453781
0.139003,0.00364208
0.167332,0.00781411
0.185118,-0.0132435
0.0865599,-0.0141239
-0.0446173,-0.00608234
-0.0379935,-0.024166
0.00285951,-0.0293333
0.00300552,-0.0099768
0.0224962,-0.00746597
0.043646,0.00805648
0.0221263,0.0147703
0.0175843,0.00387298
0.0117231,4.22e-05
-0.0125399,0.00916423
-0.0239727,0.0124043
-0.0340528,-0.01779
-0.0477494,-0.014394
-0.040277,0.00328808
-0.018856,-0.0162022
-0.0294343,0.0147585
-0.0421588,0.0302074
-0.045549,0.0123053
-0.0542588,0.00280959
-0.0648739,-0.00574631
0.00354351,-0.00847257
0.0499949,0.0117363
0.0154726,0.0318774
-0.0144085,0.0399092
0.0148774,0.00504533
0.0641257,-0.017077
0.0431301,-0.0285793
0.0416884,-0.00145719
0.0295473,0.00359747
-0.0216989,-0.0170646
-0.040228,0.0318213
-0.0390482,0.0197036
-0.0360504,0.0244119
0.0220516,-0.0139401
0.0468869,-0.0131468
0.0457184,-0.0295969
0.0589024,-0.0388832
0.0476601,-0.01334
-0.0171712,0.0204888
-0.0476998,0.026011
-0.0320473,0.00686262
-0.0158103,-0.0184323
-0.0225982,-0.0206223
-0.012855,-0.00945618
0.0208247,-0.012469
-0.00356865,-0.0234724
-0.0238732,-0.00208301
-0.00214342,0.0157143
-0.0330245,0.0202596
-0.0787953,0.0311607
-0.0797666,0.0376698
-0.00365184,0.0158282
0.0564993,-0.0363172
0.0874215,0.00605874
0.119957,0.0631224
0.0562619,-0.000518224
-0.0367689,-0.0403849
-0.0386282,-0.0217988
-0.0174066,-0.0179878
-0.0214103,0.00645584
-0.0397733,0.00312855
0.00749599,-0.00454783
-0.0154781,-0.0264244
-0.0517828,-0.00981628
-0.0299919,-0.00507575
-0.0385553,0.000501793
-0.0400721,0.0113465
-0.0269156,0.0146988
0.0385945,0.0147036
0.0918728,0.0827991
0.0680801,0.0520749
0.012433,-0.035884
0.0189414,-0.0526906
0.0652441,-0.00292345
0.0707545,-0.00272296
0.0493839,-0.0319158
0.0173507,-0.0191072
-0.0132827,-0.00930654
-0.0511997,-0.00633447
-0.0726477,-0.0124477
-0.041427,-0.00102755
-0.014918,-0.00246623
0.0278229,-0.00393802
0.00167191,-0.0147409
-0.0359343,-0.0195518
-0.0297801,-0.0192659
-0.0202037,-0.00516039
0.0123302,-0.00119732
0.0680204,0.00836904
0.0385242,0.0249752
0.00809866,0.0287937
-0.00752151,0.0207392
-0.0266472,0.0144765
-0.0152444,-0.0100504
0.000400344,-0.014645
0.0143751,-0.018779
-0.00559325,0.0285164
-0.016319,0.0218633
-0.0408945,0.0055641
-0.0961697,-0.00408483
-0.0599778,0.0188157
-0.00461507,-0.00936062
0.0198478,-0.0030238
0.063853,-0.0111952
0.0866197,-0.0161025
0.0567706,0.0133544
0.025684,0.0210172
0.024637,0.0254807
-0.0122672,0.0209965
-0.0552491,0.000202021
-0.0802585,-0.00898769
-0.0520797,-0.00172837
-0.0165441,-0.00294695
0.04162,-0.00708433
0.0957098,-0.0261212
0.0513527,-0.0339271
0.00603757,-0.0365865
0.0205852,-0.00989163
0.00455699,0.0206866
-0.0300218,-0.00692501
-0.0520533,-0.0237853
-0.037871,0.0235641
-0.00373541,0.0489736
-0.00231963,0.0134119
-0.0465435,-0.00859897
-0.058805,-0.0244987
0.0133203,-0.0277879
0.0666433,-0.000583904
0.0903437,-0.00981044
0.0554966,-0.0045173
-0.0314666,0.0164051
-0.0731305,-0.0133147
-0.00613328,-0.040738
0.0195028,0.0762968
-0.0278422,0.0383101
0.00368502,-0.042215
-0.00722496,-0.0180345
-0.00969989,-0.0130553
-0.00458004,0.00623672
0.029499,0.0697485
0.0304902,0.0334298
-0.0278302,0.00735609
-0.0212551,0.0158716
0.0342743,-0.00647948
0.0732425,-0.0486139
0.0428734,-0.0318322
0.0220189,0.00916526
0.0329193,0.0125401
-0.0109234,0.0111903
-0.115773,0.0161848
-0.0647997,-0.0184317
-0.00257542,-0.0393328
-0.00755021,0.00317871
0.008646,-0.00978044
0.0132807,-0.00856705
0.00414184,0.0188974
0.00179033,0.0554764
0.0126674,0.00536604
-0.00807402,-0.0263717
-0.0197214,0.0129049
0.0123371,0.0146491
0.0349208,-0.0149568
-0.0494988,-0.035777
-0.0696167,-0.014423
-0.0186295,0.00227085
0.0201752,-0.00211324
0.0116968,-0.0037566
0.00229984,-0.00896461
0.0336714,-0.0198115
0.0432962,-0.0118112
-0.00760295,0.00486808
-0.0140626,0.00665452
-0.00318423,0.0212982
0.0146552,0.0510106
0.0226594,0.0337638
-0.00856701,0.0081931
-0.017693,0.0118032
0.000776605,0.00153473
0.00239799,-0.0515097
-0.00202154,-0.0387601
0.0157402,-0.0107831
-0.00186355,0.00628516
-0.0117206,-0.00882625
-0.0182749,-0.0115804
0.0101342,-0.0199795
0.0106497,0.00451245
-0.00529921,0.0106093
0.0164264,-0.000125018
0.0170669,0.00613325
-0.0118469,0.0250961
0.00431361,0.0247005
0.0300603,-0.0135507
0.0236041,-0.00786949
-0.0126742,0.0179912
-0.0356139,0.0367019
-0.0663672,0.0182597
-0.0116312,-0.0410945
0.0608212,-0.0125877
-0.00517024,0.0136298
-0.0824747,-0.0112251
-0.0608711,-0.0318368
-0.058436,-0.000665472
0.0550578,-0.00546942
0.0733139,-0.0129317
0.0306526,-0.00919033
0.00766988,0.0121799
0.0453539,0.0247788
0.0615838,-0.00135755
0.019399,-0.0209933
0.00219438,-0.00652134
-0.0134838,0.00923477
0.0193684,0.0131612
0.0304581,0.0162976
-0.0287734,0.0143717
-0.0651979,0.00663052
-0.0797832,-0.0197164
-0.0825875,-0.00638661
-0.0382227,0.0205005
-0.018433,0.00653668
0.00556814,-0.00810716
0.061475,-0.00205906
0.048509,0.00438373
0.0207507,0.0119924
0.0464237,-0.00875023
0.0397446,-0.020011
0.0215463,-0.00956715
0.00865934,-0.000762252
0.00365818,-0.0068221
0.0198098,-0.0201002
0.014346,-0.00560801
-0.000877258,0.0274643
-0.0169091,0.0102195
-0.0448381,0.0124455
-0.0586297,0.0126118
-0.0464092,-0.0179962
-2.28e-05,-0.0265348
0.0459349,0.00230227
0.0768762,0.00729615
0.023045,-0.0235846
-0.00270658,0.00782759
-0.022087,0.0184191
-0.0633531,0.0252415
-0.0435494,0.00583962
0.00734377,-0.00419028
0.0269627,0.00477732
0.0379112,-0.00770987
0.00712427,-0.0623868
-0.0369269,-0.0353297
-0.0353766,0.00781027
0.00297995,-0.00541862
0.0210998,0.0670091
0.00405805,0.0695051
-0.0101254,-0.0138588
-0.018944,-0.0275157
0.00234654,0.035425
0.0213527,0.0923998
0.0268369,0.00512529
-0.0150692,-0.0176297
-0.0236019,-0.0419735
0.0411809,-0.0440986
0.0330443,-0.017138
-0.0335522,0.00642888
-0.0433608,-0.023006
0.0267923,-0.011263
0.0512975,0.0315044
-0.00241963,0.013518
-0.0144533,0.00357707
-0.0256085,0.0381792
-0.0569305,-0.0455333
-0.0409018,-0.10011
-0.0352256,-0.0320814
-0.044954,0.00511563
-0.00583233,-0.00102206
0.0139906,-0.0133418
-0.0165123,-0.00756835
-0.001112,0.0205274
0.055517,0.0180004
0.0695722,-0.0329405
0.0339111,0.0240289
0.00798801,0.0891655
0.023166,0.144289
0.0509303,0.0241322
0.0534815,-0.0276877
0.0523861,-0.104209
0.0503391,-0.110807
0.00474539,-0.0192551
-0.0282947,0.0189483
-0.0535425,-0.00281266
-0.0321589,0.00156708
-0.00501408,0.017852
-0.0438204,0.0164418
-0.0144344,-0.00151193
0.039214,0.0060016
-0.00782356,0.0117478
-0.0530542,-0.00278844
-0.0161871,0.0178361
0.0255503,0.0231635
0.0225217,0.00263385
0.00141773,0.0286862
-0.000874662,0.0179693
-0.0084256,-0.0208854
-0.0865204,-0.0255286
-0.132438,-0.00483781
-0.0927458,-0.00414978
0.0391249,-0.0087654
0.120859,0.00203146
0.0397268,-0.0019936
-0.0238683,-0.0266484
0.00959518,-0.0270417
0.0321789,-0.00715331
0.0198263,0.00161638
0.00484207,0.00618019
0.019217,0.0311846
0.0492454,0.0448362
0.0267161,0.0243714
0.0162898,0.0137678
0.0105136,-0.00672801
0.00179719,-0.0356824
0.00219345,-0.0277954
-0.0220501,0.00640944
-0.0522072,0.0413266
-0.0621242,0.0228961
-0.0237418,-0.0365663
-0.0194175,-0.0182789
0.000402215,-0.013377
0.022534,-0.0362501
0.00442869,-0.0193326
-0.00668382,-0.00815985
-0.000644442,0.00223471
0.00813806,0.0300184
0.0332947,0.0171183
0.0447805,0.0102897
0.0319567,0.0203687
0.0194179,0.00989322
0.00740272,-0.0113958
-0.0117521,-0.0186097
-0.027675,-0.0174925
-0.0502516,-0.0109306
-0.0447016,0.00971287
-0.0582329,0.012229
-0.0462967,-0.000461952
0.0413461,-0.00603146
0.0542158,-0.00242699
-0.00307435,0.0145163
-0.0217253,-0.00034336
0.0142254,0.00144837
0.0301688,0.00291863
0.0120712,8.15e-05
-0.000942768,0.00212979
-0.0213574,0.013097
-0.0372218,0.0411266
0.0219891,0.026285
0.0273449,-0.0113327
0.0140687,-0.00570746
-0.00919716,-0.0216638
0.0235168,-0.0213453
-0.0255525,0.00878054
-0.0209043,-0.038723
0.0319993,-0.0292837
0.00857415,-0.011698
0.061378,-0.0187401
0.0754419,-0.011411
0.0282195,0.0187416
-0.032423,0.0428405
-0.0485407,0.0397742
-0.0173523,0.00510448
0.00463055,-0.00296974
-0.0203554,-0.00534504
0.00382598,-0.0352725
0.0227983,-0.0110157
0.00965586,0.00735112
0.0147667,0.0153941
0.023533,-0.00704524
-0.000318688,0.0163151
-0.0177751,0.0149566
-0.0299411,-0.00335586
-0.060613,0.0116784
-0.0628925,0.007517
-0.0146636,-0.0289522
0.00972361,-0.0263184
0.0130281,0.00605895
0.0128504,-0.0162266
0.00501416,-0.0207044
-0.00625382,-0.0279163
-0.0117519,-0.00731434
0.0240255,0.00190912
0.0617791,-0.00368299
0.0142602,0.00819513
-0.0269517,0.0243764
-0.00324156,0.0238239
-0.0150416,-0.0156618
-0.0154155,0.00789263
-0.0139869,0.0318285
-0.0343954,0.0315101
-0.053711,0.00604903
-0.0376848,0.00348317
0.00538904,0.0237537
0.034283,0.00851722
0.0220914,-0.0246803
0.0986588,-0.0131602
0.0574109,0.00218711
-0.0103313,0.0080996
-0.0151473,0.0116962
-0.0134597,0.000201374
-0.0500756,-0.0685602
-0.0456948,-0.0250745
0.0330704,0.0624869
0.0900782,0.0325411
0.0623464,0.0808361
0.0181245,0.00645818
-0.0712986,-0.11051
-0.10003,-0.0737071
-0.0677893,0.0183739
-0.00902349,0.0273812
0.00317208,-0.0254634
0.0431901,-0.00145318
0.0558416,0.0227103
0.0367777,-0.00205081
0.0293399,-0.0130151
-0.0127242,-0.0150896
-0.0749623,-0.00556551
-0.0311525,-0.00630832
0.0403194,0.00600248
0.0195156,-0.0023166
-0.0832602,-0.00586089
-0.0701502,-0.00791883
0.0476019,-0.0070584
0.0785312,0.0139208
0.0739275,0.0074808
0.0541835,0.0359976
-0.00244799,-0.0218352
-0.049364,-0.0329353
-0.0833417,0.0304585
-0.0565206,0.0816672
0.00385644,0.056436
0.0864436,0.0184274
0.128787,-0.0514215
0.084663,-0.111911
0.0368041,-0.0128065
-0.0547188,0.0202012
-0.0957428,-0.0053438
-0.111273,0.0716122
-0.0897207,0.0344959
-0.0240132,-0.0537139
0.006129,0.0147327
0.0180256,0.0172341
0.0429767,0.0441404
0.0804156,0.0118832
0.0866111,-0.0408236
0.0471444,-0.0416245
-0.0263456,-0.0399576
-0.131019,-0.00493462
-0.0997373,-0.00309222
0.0225146,-0.026304
0.045013,0.00825827
0.00538363,0.050046
-0.0103062,0.0214131
-0.00491969,-0.0295442
0.00104632,-0.0523705
0.0457041,-0.000375786
0.0370388,0.0349669
-0.0622722,0.0149613
-0.0767649,0.0176423
-0.0229441,-0.0094402
-0.0202181,-0.00632154
-0.0145298,0.0126884
0.0693123,0.00705644
0.103498,0.0385184
0.0581668,-0.0326604
0.0484521,-0.0471288
0.0427674,-0.0170651
0.00231187,0.056212
-0.0264199,0.0578381
0.0128242,-0.0424151
0.00852417,0.0190569
0.00483963,0.0144488
-0.0404882,-0.0232762
-0.071867,-0.0298728
-0.0345063,-0.150805
-0.0107647,-0.0467762
-0.0229983,0.064358
-0.0759911,0.115533
-0.0641371,0.0683763
0.00522352,0.0102482
0.0464891,-0.0121208
0.0392402,-0.054052
0.0158444,-0.0623045
0.00679574,-0.046173
0.00125986,0.035869
-0.0136819,0.0157021
-0.0249967,0.078636
0.00617939,0.0437085
0.0049251,-0.0517032
-0.0369686,-0.0237776
-0.0496833,0.0159187
-0.0211468,-0.07555
0.0368566,-0.0820442
0.103751,0.0286972
0.159477,0.0726919
0.19257,0.0779098
0.101924,0.0786179
-0.0338809,-0.0353474
-0.13961,-0.0420916
-0.18307,-0.0524902
-0.194053,-0.0335122
-0.0778625,0.0111752
0.0892168,-0.0200593
0.0900891,-0.00978423
-0.072148,0.137116
-0.0732249,0.0921822
0.0450082,-0.0310281
0.0327129,0.0380984
0.0170729,0.0459203
0.0102302,-0.0291378
-0.157283,0.0910761
-0.11594,-0.149799
-0.0270519,-0.217094
0.0182596,-0.0472983
0.25066,0.0187103
0.253343,0.0626725
0.108161,0.0440631
0.0137993,0.0426246
-0.0245042,0.0352109
-0.107381,-0.0248009
-0.101508,-0.0632411
-0.0333079,-0.0361344
0.145841,0.0221534
0.149852,-0.0126091
-0.1232,-0.0427474
-0.189645,-0.0469932
-0.172511,-0.0296001
-0.0786653,-0.019787
0.0914655,-0.00916608
0.124845,0.0439294
0.163501,0.105016
0.223348,0.09369
0.223924,0.0622141
0.163618,-0.0187064
-0.105121,-0.0524657
-0.380179,-0.0168117
-0.324203,-0.000911944
-0.262016,-0.0583053
-0.194181,-0.0375039
-0.105485,0.00351852
-0.00874792,0.00948176
0.0357596,0.0168906
0.156772,0.0439098
0.192853,0.0739605
0.178112,-0.0589095
0.0522993,-0.0802626
-0.0712812,-0.0427254
-0.0434632,-0.0600525
0.113098,-0.0224069
0.212513,0.0628633
0.20998,0.11203
0.269658,0.103674
0.246114,0.109136
-0.239817,-0.0674195
-0.471206,-0.0326773
-0.214935,-0.066725
0.0261044,-0.0560701
0.0687428,-0.0448217
-0.0265243,-0.00841564
-0.161985,0.0259143
-0.0699676,0.00966335
0.0744564,0.00786263
0.0719008,0.0297979
0.0549834,-0.002755
0.0234497,0.0192196
0.0285423,-0.0513606
-0.0689406,-0.0149361
-0.0968263,0.044206
-0.023597,-0.0041128
0.0371991,0.00174349
0.0235958,-0.000291649
0.0518749,-0.00373869
0.0276217,-0.0187361
0.0495619,-0.0189265
0.0977927,0.050743
0.0997715,0.0876605
0.01674,-0.00224718
-0.174194,-0.0294111
-0.197494,0.00840386
-0.0422733,-0.0122925
0.0236051,-0.011766
-0.00434505,-0.0056688
0.07197,0.0309075
0.130054,-0.0218574
-0.0411138,-0.105747
-0.126053,0.0192837
-0.087503,0.0652127
-0.0504174,0.110349
-0.0681149,0.0650455
-0.140792,-0.0310201
-0.0717052,0.0348982
0.108647,0.0408328
0.35369,0.0415024
0.495793,0.00447869
0.305179,-0.116945
-0.162882,-0.0322642
-0.422298,-0.0202009
-0.423337,-0.042206
-0.292989,-0.0961061
0.00707406,-0.0544488
0.112081,-0.00127457
0.0773092,0.014906
0.113029,0.00831321
0.186197,-0.0285187
0.175324,0.00953852
-0.0130027,0.0747537
-0.118695,-0.0118298
-0.0511501,0.00429004
0.0277157,-0.0123759
0.044259,-0.105528
-0.00132475,-0.0195504
-0.0334344,0.0188071
-0.038707,-0.00272187
-0.0123633,0.0289352
-0.0340071,0.00586912
0.015161,-0.00759198
0.100688,0.0394323
0.0687647,0.000825276
0.111459,0.0537638
0.126135,0.0122301
0.0517607,-0.0364628
-0.0413471,-0.00583025
-0.146886,0.00640082
-0.122881,0.0469709
-0.0244736,0.0624974
0.080547,0.0180021
0.0950925,0.016283
0.0325691,0.0273366
-0.100846,0.0070055
-0.162042,-0.0355549
-0.120062,-0.033457
-0.0879686,-0.0524125
-0.117099,0.00547983
-0.0682637,0.0571092
0.0858982,0.0509099
0.164348,0.00110324
0.157478,-0.0243837
0.080988,0.0238809
-0.0566374,0.0461301
0.0444877,-0.0338905
0.14116,-0.0790084
-0.0148595,-0.0630805
-0.0407116,-0.044516
-0.0281915,-0.00494754
-0.0915771,0.00822948
0.0315399,0.0255884
0.145358,-0.0103773
-0.0307932,0.00626651
-0.197201,-0.0372743
-0.2002,-0.0864776
-0.0735983,0.0123998
0.0642336,0.0297531
0.139065,0.0324116
0.129374,-0.0260999
0.00725921,-0.0493771
-0.057847,0.0119039
-0.0813686,0.0517045
-0.0563507,0.0327394
0.0271107,0.0566372
0.0359824,0.104769
-0.104092,0.000524877
-0.156805,-0.0309707
-0.068984,-0.0153805
0.0337038,-0.0468132
0.126968,-0.0139616
0.11187,-0.0415386
0.0284207,-0.0321612
0.0228714,-0.00533051
0.039544,0.0556345
0.0544533,0.0797056
0.0679508,0.0172871
0.106847,0.0147161
0.109878,-0.0548402
0.0398187,-0.104272
-0.0343041,0.00348666
-0.087518,-0.0320715
-0.108617,-0.0132182
-0.0790453,0.00954736
0.014494,-0.00209361
0.0422657,-0.0198551
0.0312672,-0.0161471
0.0368569,-0.0163568
-0.0284486,-0.00406425
-0.107284,0.0457493
-0.0306049,0.0722691
0.0838591,0.054979
0.111001,0.02463
0.0985674,0.0283633
0.0328665,-0.0447879
-0.0504748,-0.0220218
-0.0959411,0.0275894
-0.0883821,-0.0251458
-0.0872708,-0.0164257
-0.0395849,0.00494551
-0.00880991,0.00216942
0.0660415,0.00942077
0.0178413,-0.0432653
-0.144947,-0.0538401
-0.139077,-0.0208841
0.0120947,0.0134847
0.059121,0.0240973
0.0055057,0.0361554
0.0944398,0.00761162
0.163808,0.0333703
0.0902744,0.0794104
-0.0752128,0.0151075
-0.157855,-0.0512989
-0.165891,-0.0535519
-0.120934,0.0176212
-0.0409664,0.00984514
0.0622618,-0.0279566
0.158241,-0.0268058
0.204248,0.00730292
0.212323,-0.0478758
0.122607,0.0472564
-0.0246814,0.0508147
-0.140448,-0.0228676
-0.156174,-0.0111755
-0.0330529,-0.0149592
0.026376,0.00787974
-0.0072441,0.0111993
-0.0636483,0.0362425
-0.0769683,0.082404
-0.0528879,0.0157677
0.0572309,-0.0725948
0.126101,-0.0563882
0.086874,0.0225185
0.00406789,0.0505906
-0.068869,0.0963514
-0.0394019,0.00273306
0.0171046,-0.125389
-0.000232545,-0.0826791
-0.0248056,-0.0712325
0.0342735,-0.0415466
0.108174,-0.00263726
0.0550346,0.0232287
-0.0562991,0.0059063
-0.106212,0.0181848
-0.0736006,0.0211386
0.00154028,-0.00419295
0.0486865,-0.0195521
0.0373772,0.0154877
0.0217986,0.0394091
0.0223152,0.0345325
0.0104347,-0.0238931
-0.01749,-0.0151599
-0.0455977,0.00553861
-0.079809,-0.0124242
-0.0820862,-0.00448736
-0.0237474,0.000503572
0.0326249,0.0171018
0.0420565,0.0295061
0.0234383,0.025734
-0.000716421,0.0456761
0.0384321,0.0286813
0.063894,0.0226809
0.0502098,0.0040558
-0.03798,-0.00400639
-0.196256,0.012455
-0.211257,-0.0142987
-0.038871,-0.0132136
0.14222,-0.0186138
0.151813,-0.0222015
0.0651379,-0.0112965
0.0480699,-0.0194136
0.0465749,-0.0276892
0.0525257,0.00271066
0.0280775,0.032074
0.00519395,0.0244506
0.0251958,0.0343099
0.00135937,0.0751985
-0.0364402,-0.023446
-0.0631385,-0.0706362
-0.0573994,-0.0617103
-0.0247385,-0.0301307
0.0001275,-0.0241468
0.00868808,-0.0373704
0.0127119,0.00322082
0.0209602,0.0720182
0.0325586,0.00325575
0.0787298,-0.0175205
0.103704,0.0117304
-0.00840346,0.00561724
-0.181855,-0.0121667
-0.233671,0.048416
-0.167905,-0.00230247
-0.00548615,-0.0239153
0.158644,0.0166087
0.157787,0.0278592
0.123197,0.0361754
0.121453,-0.0325743
0.0475049,-0.0386392
-0.0447029,-0.0175071
-0.0609019,-0.00474663
-0.0491755,-0.00950585
-0.0814278,-0.0124365
-0.0795106,-0.0149622
-0.0908157,-0.00172472
-0.110808,0.0439335
-0.100541,0.019237
-0.0338955,-0.0470418
0.024341,-0.0114389
0.0330948,0.00858204
0.0470485,0.0295263
0.152129,0.0279062
0.157341,-0.0265065
0.098015,-0.0159206
0.003302,0.001534
-0.0529427,-0.0151357
-0.0451734,-0.00966398
0.00761011,0.00588023
0.0301084,0.0108441
0.0104979,-0.000997475
-0.0504216,0.000441204
-0.0724857,0.00800025
-0.0955931,0.0116121
-0.0317932,0.0450619
0.119547,0.0414033
0.10637,-0.0179045
0.060227,-0.0598035
-0.0136332,-0.00861794
-0.0816043,0.0167675
-0.00515538,0.000429311
0.0413642,0.011663
0.0180307,0.010584
0.00257322,0.00142045
0.0177077,0.00520675
0.0066702,0.0235662
-0.0201307,0.0240822
-0.0384666,-0.0249709
-0.0851455,-0.036088
-0.110627,0.0402001
-0.036375,0.030177
-0.0221099,-0.018373
-0.0157012,-0.00641282
0.059869,-0.0891747
0.0685117,-0.0336111
0.129183,0.0153585
0.141645,0.00755464
0.103199,0.0259516
0.0521569,0.123156
-0.0649656,-0.0665513
-0.100544,-0.113516
-0.073607,0.00165214
-0.0166778,-0.0224894
-0.00157407,-0.0156382
-0.015125,0.00284738
-0.0119541,0.0261721
-0.000378035,0.0449589
-0.00487524,-0.0137487
-0.0310588,-0.030443
-0.0329837,0.0197625
-0.0236978,-0.0113509
-0.0310357,0.00903725
-0.0349343,0.024296
-0.0167943,0.0285969
0.0159183,0.0395455
0.053447,0.0499262
0.0834066,0.0168026
0.08046,-0.00797009
0.0385086,0.0042567
0.0231394,-0.0166952
-0.0256067,-0.0414217
-0.07403,-0.0407589
-0.0538724,-0.0362542
-0.0294408,-0.0116363
-0.0712916,-0.0259717
-0.0432828,-0.0250754
0.062436,0.0117026
0.0965466,-0.00028607
0.0474661,0.00206445
-0.0218294,-0.0177928
0.0151851,0.0204798
0.0735233,0.0332922
0.0196395,0.0114138
-0.0400564,0.0306856
-0.14007,0.0517154
-0.219342,0.0573078
-0.116579,-0.00704076
0.0332583,-0.0819598
0.127956,-0.0653157
0.148772,-0.0235407
0.0765506,-0.00118787
0.00625998,0.00956075
-0.0044137,0.0238467
0.0137224,0.0507292
0.00549605,0.00550402
0.00935513,-0.0411145
-0.033941,-0.00211956
-0.124022,-0.000958446
-0.092277,0.0149596
0.0360984,0.0180969
0.0421846,0.0202279
0.0258604,0.0164987
0.0775289,0.00313448
0.125003,0.013556
0.0517147,-0.0305098
-0.0276299,-0.0399315
-0.019722,-0.0197721
-0.036046,-0.0127726
-0.0795722,0.00933344
-0.0626035,0.00563946
-0.012799,0.000739492
-0.00466166,0.0116317
0.012489,-0.00683919
0.0618151,-0.00939243
0.111402,0.000204225
0.103535,0.0124404
0.0453159,0.00809655
0.0058208,0.00377859
-0.045113,-0.00063646
-0.0885266,-0.0281904
-0.0845578,-0.00290704
-0.0701505,0.058019
-0.050781,-0.00741334
-0.0467432,0.00154454
-0.0321116,0.0226386
-0.000918544,0.053699
0.0431082,0.0577117
0.0625613,-0.0795966
0.086533,-0.0415045
0.0657575,-0.0441128
0.000127384,-0.00452802
-0.0469742,0.00348522
-0.0423319,-0.00460483
-0.0581264,0.0382132
-0.0997642,0.0412206
-0.0790135,0.0140686
0.0338832,0.00863583
0.105563,-0.0224977
0.0464392,-0.0351928
0.0361172,-0.0245952
0.0973636,-0.0277889
0.0801824,-0.0269264
-0.0566878,0.00445551
-0.109047,0.0330225
-0.033782,-0.00938537
-0.0498663,-0.00373217
-0.0626773,-0.000596463
0.0155621,-0.0130194
0.0371967,-0.00736817
-0.0421412,0.0346772
-0.0540263,0.0574883
0.0413251,-0.0170119
0.0641582,-0.00424901
0.0726887,0.0014555
0.149585,-0.0138347
0.130117,0.00775065
0.0492917,0.0402705
-0.00638326,-0.0343583
-0.0219307,-0.0815829
-0.010234,0.0689447
0.0254038,0.0960523
-0.0668001,-0.0599691
-0.121764,-0.0786672
-0.107777,-0.0118377
-0.117024,0.0222115
-0.0942482,0.030559
0.00140207,0.0879602
0.0698962,0.0125545
0.0195285,0.0116898
0.0451263,-0.0567365
0.0146473,-0.0779968
-0.0514118,-0.0243407
-0.137547,-0.0154357
-0.161387,0.0093506
-0.00267122,0.0221036
0.0908037,0.0548377
0.0542235,0.000735878
0.00644407,0.0129972
0.044325,0.0322713
0.110904,0.00821895
0.0644476,-0.00134464
0.0185884,0.00072046
0.0155907,-0.0350211
-0.0360782,-0.0369429
-0.03581,0.0116334
0.098691,-0.0166668
0.197222,-0.0273593
0.123055,-0.00738736
-0.0320323,0.00663285
-0.0985351,-0.0386294
-0.0724436,-0.0335297
-0.029623,-0.00695971
-0.0442447,-0.00160248
-0.0473049,0.0163747
-0.0332185,0.00320347
0.00290671,-0.00955649
0.0119159,-0.0102647
-0.0196461,0.0217921
0.00734675,0.0530991
0.0409386,0.0235496
0.0392992,0.0382514
0.0127288,-0.0160327
-0.0306327,-0.00592955
-0.0655721,-0.00773043
-0.0858463,0.0381495
-0.0624014,-0.0243486
0.0669771,-0.0195334
0.110919,0.0249931
0.0536783,-0.00334504
0.0586506,0.00122436
0.103135,-2.97e-05
0.119861,0.00849841
0.00307473,-0.0179654
-0.123757,-0.0934146
-0.141653,0.00761935
-0.131402,0.0742871
-0.0556275,0.00905265
0.011524,0.0144525
0.0175419,-0.0225908
-0.00662488,-0.052822
-0.0961135,-0.0486442
-0.155343,0.0171178
-0.0752044,0.0780192
0.00657767,0.020114
0.0198449,0.0300551
0.0254029,0.0124916
0.0245377,-0.00467218
0.075711,-0.016297
0.0757802,0.0229726
0.041632,0.0518627
0.060387,0.0795429
0.0907394,-0.0614144
0.0732614,-0.134874
0.0486874,-0.0413656
0.0836301,0.0192282
0.0616308,0.0231044
-0.0239863,0.0131257
-0.0912862,0.0140892
-0.0663509,-0.0241665
-0.0011,-0.0233225
-0.000737778,-0.00633876
-0.0352735,-0.0458412
-0.107351,0.0246038
-0.100232,0.0259969
0.0287362,-0.00583846
0.0548375,-0.00772341
0.0295089,0.0123797
0.0199838,-0.0050106
0.0195108,-0.0125083
-0.0191321,-0.0059909
-0.0234207,0.0166374
-0.0451765,0.0506073
-0.0133617,0.0470874
0.0258262,0.0243624
0.0171054,-0.00811023
0.0330969,0.00686322
0.0351121,-0.0426534
-0.0293598,-0.00901656
-0.0362866,-0.014802
0.0101895,0.00495733
-0.0187284,0.0139734
0.00661566,0.000569767
0.0908152,-0.0537422
0.146437,-0.0284784
0.113648,0.0489232
0.00258529,0.0346353
-0.0737709,-0.0189085
-0.0346388,-0.0356928
-0.0723243,-0.0142689
-0.0805354,0.000267575
-0.0498788,0.0160359
-0.0520375,0.0253189
-0.0419021,-0.0213388
-0.00257903,0.000183352
-0.022791,0.0231138
-0.0377165,-0.00195407
-0.0238764,-0.0223602
-0.0161916,-0.0178022
0.0202935,-0.015703
0.116094,0.0228343
0.196803,0.0922831
0.187494,0.0487974
0.0998686,-0.0265545
-0.181899,-0.0193743
-0.300293,-0.0400109
-0.178486,-0.0444901
-0.0725042,0.0174739
0.0369956,0.0179684
0.0694305,-0.0261782
0.0308661,-0.0156472
0.0178098,0.0359157
0.00933561,0.0375569
-0.0423165,-0.055292
-0.0371172,-0.0138858
0.0184766,0.0130122
0.0606072,-0.0271965
0.0456305,-0.00611249
0.00874202,-0.01786
0.00779523,-0.0366933
0.026347,-0.0124788
0.0503845,0.0237474
0.0643371,0.0168823
0.0374926,0.0347671
0.0214948,-0.0120053
0.0172694,-0.0217283
0.0225807,-0.00269171
0.0242578,0.00599143
0.00820708,-0.00489293
-0.017405,-0.013421
-0.00765217,-0.000150739
0.00247523,0.0258518
-0.0479619,0.0382163
-0.138732,0.00517828
-0.163365,0.0197502
-0.0936124,0.0265221
0.000849948,-0.0118041
0.0668664,0.00856385
0.0977907,-0.0162995
0.0705972,-0.0210041
0.0446845,-0.0128129
-0.0426847,0.0477957
0.0137126,0.0580481
0.179897,0.0887135
0.249463,0.0735155
0.236449,-0.0454134
0.0447707,-0.0894953
-0.118491,-0.105746
-0.277106,-0.035345
-0.323776,-0.0966406
-0.235294,-0.015641
-0.15334,0.0442322
-0.0883123,0.0129093
-0.0348482,0.00194411
0.0427681,0.0126037
0.127327,0.0214798
0.146038,0.0299707
0.0959135,0.0181589
0.0392001,0.00347554
0.0256317,-0.00566997
0.0206229,-0.0106138
0.0237106,-0.00472638
-0.0138537,0.00152024
-0.0219716,0.00434519
0.0288377,0.0152455
0.0503541,0.0178681
0.036248,-0.0102971
0.025391,-0.0355006
0.0228472,-0.0226952
0.0171223,-0.0129087
0.0130294,-0.0126469
0.0149346,-0.00542049
0.00781016,0.0115446
-0.00979498,0.0191668
-0.0261407,0.024537
-0.030218,0.0735587
-0.0254365,0.0380065
-0.0218319,-0.0633866
-0.0245491,-0.0467003
-0.0258818,-0.0112059
-0.0236658,0.00228656
-0.0139935,0.00487831
0.00215565,-0.00316791
0.0161976,-0.00633654
0.0207007,-0.00741895
0.0159225,-0.00877851
0.015536,-0.021542
0.00779899,0.0075997
0.00299166,0.0439928
0.00183466,0.0188567
0.00279754,-0.0111377
-0.00679678,-0.00838128
-0.0125228,0.0109232
-0.00571313,0.00692754
-0.00230483,0.00466585
-0.00634089,0.041022
-0.0151184,0.0178039
-0.015929,0.0219694
-0.017831,0.000905901
-0.0289581,-0.00157074
-0.00990596,0.0128915
0.103259,0.032251
0.217363,0.0508953
0.135987,-0.000913919
-0.0606103,-0.0559127
-0.2339,-0.0372579
-0.352761,-0.030179
-0.143608,-0.0365213
0.0595871,0.00174291
0.0785953,-0.0135272
0.0297072,-0.0390618
-0.0206558,-0.0190666
0.0279849,-0.00680801
0.0768757,-0.00487564
0.0399676,-0.00374211
0.0275817,0.00619153
0.0874668,-0.0186433
0.120629,-0.0251367
0.00292935,-0.0286307
-0.102796,-0.0241057
-0.0921976,-0.0130128
-0.0158711,0.0120442
0.0265243,0.0201325
0.0486015,0.0160275
0.0688304,0.0341574
0.049293,0.0597235
0.012419,0.063105
0.00253253,-0.00383731
-0.0133453,-0.0345027
-0.0284941,0.030784
-0.0410627,-0.0176392
-0.0403625,-0.0111717
0.00960666,-0.0264811
0.043613,0.0670349
0.038726,0.0652457
0.0436701,-0.0444322
0.0264744,-0.0284699
0.0695918,0.0113517
0.0856113,0.0448805
-0.0545395,-0.00358635
-0.160814,7.78e-05
-0.188811,-0.0286332
-0.194659,-0.111965
-0.0777754,-0.0559927
0.0639989,0.00523065
0.0916428,0.0202674
0.102493,-0.00675111
0.0388149,0.00611582
-0.0337769,0.0405346
0.0152435,0.0384245
0.0396527,0.0350904
0.00854859,-0.0180873
0.00111521,-0.00218543
0.0210405,0.00501712
0.0418506,-0.0112002
0.0600081,-0.00225225
0.0295638,0.0144601
0.0123549,0.00134312
0.0221491,-0.0268303
0.0212421,-0.0110031
-0.0104432,0.00575104
-0.0332757,0.00581453
-0.0443707,0.0203128
-0.121828,0.0068884
-0.147614,0.0205933
-0.020262,0.0356193
0.120281,-0.0170373
0.0539322,-0.0528726
-0.02696,-0.0231635
-0.00586309,0.0273329
0.00981518,-0.00801768
0.0339285,-0.00283532
0.178001,0.0503268
0.152797,-0.0199838
-0.00152371,-0.0485562
-0.139746,-0.0260575
-0.126651,-0.0169087
-0.0479236,0.0293924
-0.0647395,0.0433132
-0.0593901,0.0112519
-0.0356706,-0.000777805
-0.00185453,-0.00466433
0.0279637,0.0307561
0.0403942,0.0375052
0.023107,-0.0587039
-0.0220807,-0.0371627
-0.0598665,-0.0269681
-0.0806648,-0.0143542
-0.0315142,-0.000948993
0.0668553,0.00153629
0.0757783,-0.000189805
0.0808056,0.0125951
0.0673858,0.0208034
0.0472218,-0.0126947
0.0290884,-0.0201147
0.00841361,0.00562309
-0.00311823,0.0120395
-0.000324501,0.0188342
-0.000329513,0.0130301
-0.0125673,-0.00232042
-0.0328382,7.23e-05
-0.0309807,-0.00225428
-0.0072485,-0.00735774
0.00875833,-0.00628913
0.00244097,-0.00223632
-0.014518,-0.000882996
-0.0353754,0.00337189
-0.0338536,-0.000889415
0.0109511,0.00434716
0.0580358,-0.00225431
0.0485364,0.000696251
-0.00908205,0.0158912
-0.0495303,0.0543282
-0.00998668,0.0744116
0.0743134,0.0157571
0.102211,0.0108434
0.0914638,-0.0090487
0.040406,-0.0316401
0.0278037,-0.0391108
0.0466807,-0.033004
0.0247981,-0.0472629
-0.0567802,-0.0247746
-0.203161,-0.00367758
-0.238204,-0.0141333
-0.142889,0.0123209
-0.08666,0.0137234
-0.0514133,-0.0233386
-0.0280172,-0.0229668
-0.000847986,-0.0103364
0.0610788,-0.00822867
0.132114,-0.045407
0.130229,0.0286239
0.0624572,0.0818399
0.0540565,0.03294
0.0355905,-0.00155218
-0.00244384,-0.0140743
-0.0311234,-0.000663772
-0.0477284,-0.0224312
-0.0596109,-0.00873084
-0.0339007,0.0195098
0.00455674,0.0105955
0.0105096,-0.00475541
-0.0213835,0.0324498
-0.0989604,0.056051
-0.0273014,-0.01357
0.0874226,-0.046904
0.0939858,-0.0302548
0.0649631,-0.00847641
0.0308545,0.000393102
-0.0292231,0.0403596
-0.037326,-0.0236808
0.0196387,-0.0298611
0.0478293,0.0240246
-0.0206005,0.0422125
-0.0770432,0.0151537
-0.0509163,-0.0207352
0.00303796,0.022734
0.0616081,0.0013084
0.086269,-0.0231134
0.0517053,-0.022531
0.0573294,-0.000576479
0.0191274,0.00491081
-0.00648698,-0.0047107
0.00342975,-0.025533
-0.0207605,-0.0195084
-0.0512367,0.012306
-0.0591101,0.00830755
-0.0169641,0.00318719
0.0584206,-0.0120408
0.0730425,-0.019537
0.0191829,0.00159541
-0.0312775,0.00533658
-0.0664907,0.0121213
-0.130199,0.0242534
-0.0890941,0.0148989
-0.0110274,0.0292535
0.114442,0.0272202
0.269731,-0.0739228
0.292951,-0.014028
0.140003,0.0480445
-0.178109,0.0263201
-0.311363,-0.0232964
-0.24945,-0.0166049
-0.146837,-0.0181392
-0.0805273,0.00380414
-0.04675,-0.00227354
-0.00746627,-0.0112419
0.0250546,0.00712509
0.0425067,-0.0261323
0.0231399,-0.0147842
-0.0206604,0.0666987
0.0392986,0.00866614
0.132125,-0.0253442
0.120627,0.00380999
0.0927592,0.00264609
0.0489946,-0.000725388
-0.018387,0.0242479
-0.0483909,0.0491249
-0.0754359,0.0198995
-0.00975144,-0.040675
0.0427382,0.00953013
-0.0392649,0.0775126
-0.0570918,-0.0542841
0.00322721,-0.108469
0.0319494,-0.0436929
0.0386978,-0.0141806
0.0542134,0.0493603
0.0876186,0.0263385
0.0524612,-0.00280223
0.0149881,-0.0282808
0.00262702,0.00122352
-0.0528314,-0.0157268
-0.099185,-0.00713693
-0.090829,0.0050389
-0.0917299,0.0105462
-0.0826936,0.0186036
-0.0350669,0.013126
0.0139736,0.0114827
0.0438302,-0.00442212
0.0576887,-0.0151446
0.0289431,-0.0181378
-0.003417,-0.0181117
0.0148081,-0.00501901
0.0232934,-0.00489496
0.0304961,-0.00179841
0.0402783,0.011257
0.0309617,0.00774226
0.0085326,-0.00761534
-0.0333045,-0.00555844
-0.0385994,-0.0167805
-0.0115853,-0.0150366
0.00806587,-0.0212347
-0.0124055,0.0507581
-0.094944,0.0639221
-0.0511094,0.032053
0.0991679,0.0196175
0.160121,-0.0261521
0.0756622,-0.0117513
-0.0562563,-0.0160082
-0.0731261,-0.0164468
-0.0771902,0.0140058
-0.0597279,0.00443922
0.00338197,0.0139723
0.0565925,0.0137835
0.0477215,0.0121883
0.0113935,-0.0180549
0.0173039,-0.000750556
0.074835,0.0386399
0.0946187,0.0581996
0.0521741,0.0163474
-0.0197567,-0.101803
-0.0330368,-0.0553816
0.0346555,0.0346454
0.0699966,0.0452256
-0.0037903,0.0283431
-0.11315,-0.0462965
-0.114827,-0.0307667
-0.019688,-0.00191523
-0.00221402,-0.00218087
-0.0488061,-0.0201095
-0.0762109,-0.0386205
-0.0899378,-0.0351845
-0.0720893,-0.00731261
-0.0163117,-0.000339888
0.0260966,0.0012054
0.027095,0.0161997
0.0288409,0.0314675
-0.00528618,0.0297099
-0.112708,-0.0019495
-0.149446,0.00759983
-0.0305083,0.019938
0.146982,0.0215975
0.161937,0.00180399
0.170954,-0.0184615
0.131187,0.0185982
0.0151679,0.0213901
-0.0481376,-0.0330499
-0.0413799,-0.0335847
-0.0144804,-0.0147135
-0.0477719,-0.015122
-0.0694977,-0.0328506
-0.0768803,0.0209097
-0.046747,0.102456
0.0583287,0.0700452
0.173266,-0.01524
0.121866,-0.035218
0.0513434,-0.024392
0.0738492,-0.0183061
-0.00828949,-0.0208873
-0.0895721,0.0128494
-0.0320269,0.0367091
0.0460934,0.0268816
0.114145,-0.0126938
0.160179,-0.0332226
0.00371669,-0.0297048
-0.244295,-0.0286767
-0.260971,-0.0276822
-0.120987,-0.0045143
-0.011744,0.00620752
-0.00194564,-0.0118139
-0.0249746,-0.0122981
-0.00886233,-0.00243279
-0.0132855,-0.025612
-0.0145695,-0.0188189
0.00513548,0.010085
-0.0151247,0.0401956
-0.0154438,0.0560397
0.057926,0.0803799
0.126855,-0.0190765
0.096184,-0.0486416
-0.0366517,-0.0282555
-0.080202,-0.0159567
-0.0292651,0.00935457
0.0115251,-0.0023474
0.040215,0.0015524
0.012635,0.00681652
0.0598188,0.00461569
0.0921054,0.00476725
0.0510175,-0.00845795
0.0636821,-0.00016654
0.06456,0.0125063
-0.035946,0.0359693
-0.0928332,-0.0240473
-0.14284,-0.0111789
-0.134806,0.0178667
-0.0442194,0.0532251
0.0361297,0.00465916
0.0184736,-0.0328568
0.00906172,-0.0408447
6.49e-05,-0.0349068
-0.0379316,-0.0130238
-0.0436464,0.0485601
0.00543545,0.0506266
0.0492098,-0.00564257
0.0937431,-0.0307906
0.094123,-0.0263045
0.0859874,-0.0174757
0.0547737,0.00523704
-0.00199142,0.0162625
-0.0412919,0.0219004
-0.0549793,0.0399347
-0.0814432,0.0475093
-0.0589807,-0.0161567
-0.0349147,-0.0252133
-0.0279101,-0.010767
-0.0475642,-0.00775443
-0.0385758,-0.007094
0.0330612,-0.00913241
0.0874854,-0.0144945
0.0476756,-0.0258768
0.000226903,-0.00868695
0.0294641,0.00430976
0.0467918,-0.0185965
0.0250898,-0.0153898
0.00862965,0.0131254
-0.013259,0.0330858
0.0103775,-0.0102361
0.00636628,0.0462371
-0.0086161,-0.000932158
-0.0200955,-0.0374063
-0.0389792,0.0146422
-0.0279813,0.0467795
-0.0328402,0.040201
-0.0289842,0.0354239
0.0324407,-0.0570663
0.00265611,-0.0617357
-0.0456427,-0.0121996
0.00235645,0.0264626
0.0321367,-0.00555026
0.01943,-0.0442365
0.0299859,-0.0346477
0.0695527,0.00214001
0.0807996,0.0181
0.0502294,0.0190788
-0.0106559,-0.00569871
-0.11229,0.00895138
-0.136865,0.0161469
-0.0328528,0.0118209
0.0270178,0.00455331
-0.021283,-0.0154244
-0.0478992,0.0262338
-0.00420266,0.0417745
0.0478965,0.0216967
0.0378671,0.0116796
0.0166698,-0.0685715
-0.0618401,-0.0558293
-0.10977,-0.00748013
-0.0627901,0.00495438
-0.000368489,0.00918635
0.0593959,0.0234205
0.155973,0.00968685
0.162673,0.011857
0.0355309,0.00349744
-0.00219807,-0.0538421
0.0110926,-0.0399118
-0.00176396,0.00771953
-0.0109888,0.0491631
-0.0537205,0.0360204
-0.0802095,0.0475601
-0.0704691,0.0287724
-0.0485518,-0.0596163
-0.0482322,-0.0425635
-0.0099242,-0.0256623
0.0211108,-0.0243087
0.0384338,-0.0143712
0.0446098,0.00747505
0.0183245,0.0161909
-0.0274537,0.0186707
-0.00893012,0.0289589
0.050441,0.0081319
0.0647951,-0.0255253
0.0342178,-0.0168887
-0.0059176,-0.0025138
-0.0284158,-0.00322431
-0.00860696,0.00928042
0.0270687,0.00443865
0.062538,0.00105114
0.13736,0.00760422
0.225657,-0.00479172
0.103193,0.0168418
-0.164817,0.0278881
-0.284888,-0.00374018
-0.199609,0.0633792
-0.0923138,0.127481
-0.0171709,-0.0946116
0.0332894,-0.0940954
0.00118077,0.0344638
-0.0502646,0.00957196
-0.0548203,-0.0222491
-0.0640215,-0.0211867
-0.0531682,0.00509548
0.0241269,-1.08e-05
0.0571559,-0.0178521
0.0317493,-0.00543111
0.0350862,0.00698576
0.0877466,0.00397365
0.184124,-0.0552107
0.185748,-0.0376841
0.0207892,0.0305131
-0.123721,0.00528917
-0.136937,-0.00266545
-0.0459073,-0.00708455
0.019833,0.0129038
0.0388709,0.000930262
0.0410189,-0.00893342
0.0431931,-0.00759921
0.0317823,4.64e-05
-0.0257762,0.0165296
-0.0453147,0.0240711
-0.0295737,0.0192891
-0.0259896,0.00614306
-0.0349263,0.0301267
-0.0150123,-0.00426528
-0.00866581,-0.0357561
0.00339154,-0.0310561
0.0079659,-0.0128263
0.00137069,0.00210365
-0.00275549,0.0074483
-0.017341,0.0105286
-0.00943283,0.0468068
0.020028,-0.00731215
0.00042886,-0.0469716
0.014266,-0.000181852
-0.00916104,0.0280802
-0.0369365,0.0342922
0.0366855,0.0257962
0.0942306,-0.00955198
0.0298178,-0.0273443
0.0297923,0.05034
0.0453183,-0.0209698
-0.0630534,-0.0126656
-0.114304,-0.0104131
-0.0950941,-0.0481667
0.0180934,-0.00293614
0.112103,0.024072
0.0999658,0.0439893
0.080302,0.0588133
0.0203818,-0.01807
-0.049502,-0.0707571
-0.100964,-0.0356274
-0.0759651,0.0376268
-0.0385892,0.0359046
-0.0371512,-0.0323057
-0.0623025,-0.0261149
-0.0515496,-0.0273296
-0.027297,-0.0191615
-0.0100057,-0.018288
0.0143932,-0.0015275
0.043276,0.0174406
0.0475635,0.0219815
0.050625,0.00515479
0.039828,-0.00630868
0.0305757,-0.00934318
0.0368002,-0.00578531
0.0491287,-0.000762079
0.0528793,0.00335776
0.0293809,-0.000355124
-0.00421608,0.00521068
-0.0125682,0.0107621
-0.00594126,0.00407301
-0.0081441,-0.000825281
-0.0206441,-0.00188108
-0.0380197,-0.0109347
-0.0532387,-0.00739743
-0.0404265,0.000241196
-0.00410125,0.00881246
0.0217267,0.0103207
-0.0109505,0.0135878
-0.0638044,0.0230712
-0.0729502,0.0235481
-0.004155,0.0273874
0.0366598,0.00216924
0.0625158,-0.0663808
0.0664398,-0.0146047
0.0195151,0.0297093
0.00554256,0.0108903
0.0318805,0.0518221
0.0916239,0.0958814
0.136522,0.0279333
0.118115,-0.08117
-0.176401,-0.0788928
-0.314367,0.0213058
-0.147818,0.0392849
0.0154121,0.0171844
-0.0282869,0.0147804
-0.0911143,-0.0674158
0.0153147,-0.0566792
0.18991,0.0232138
0.148469,-0.0368283
0.0419782,-0.0650621
-0.0201395,0.0200871
-0.0438269,0.0279786
-0.0330275,-0.0212685
-0.0124837,-0.019913
-0.0149893,-0.00146509
-0.0188725,-0.00771928
-0.00285872,-0.0173435
0.019658,0.00471891
0.030714,0.0217842
0.0323856,0.0242563
0.0216357,0.0173102
0.0127435,0.0132015
0.0224342,0.00325444
0.0348967,-0.0030878
0.0288448,-0.00682968
0.00488951,-0.00399095
-0.0187294,0.00229301
-0.0263569,0.0162163
-0.0188435,0.0102927
-0.00849886,-0.00721583
-0.00780121,-0.021678
-0.0208702,-0.0164569
-0.0248402,-0.0183802
-0.0157752,-0.0217151
-0.00756474,-0.0164371
-0.0013266,0.000714022
-0.0052573,0.0174234
-0.00634154,0.0276462
-0.00449083,0.0430741
0.00235192,0.0446742
0.00550481,0.00940175
-0.00473451,0.0187416
-0.0143734,-0.0329633
-0.0134279,-0.0339574
-0.0118837,0.0454129
-0.00920044,0.0564041
-0.0204965,0.0666142
0.0436053,-0.0719178
0.0636751,-0.054708
0.092004,0.0372465
0.118618,0.00301237
0.0573362,-0.0213957
0.0179263,-0.0306297
-0.0289293,-0.0137503
-0.0813697,0.00260976
-0.0285642,-0.0107984
-0.0589383,-0.0057302
-0.0836885,0.0138997
-0.0513144,-0.0364075
-0.0376786,0.0318323
-0.0499565,0.0335009
-0.0624353,-0.0315502
-0.0281039,0.00637807
-0.0143205,-0.0521183
-0.0235677,-0.0184551
0.0142413,-0.00920576
0.0455908,-0.0166813
0.0332938,-0.0262165
0.0480769,-0.00464488
0.0432818,0.0162238
0.0241862,0.0146849
-0.00528001,0.00711274
0.0387869,0.00326234
0.0594542,-0.00180684
0.041492,0.000888048
0.0117892,0.0112354
-0.0137645,0.00898647
-0.0303098,0.0097702
-0.0227445,0.0215339
0.00252798,0.028961
-0.00954001,0.0288268
-0.0017059,0.0373156
0.0288265,0.0177704
0.0605074,-0.0302882
0.0639183,-0.0246519
0.017943,0.00603873
-0.0546349,-0.0269334
-0.070687,-0.0219113
-0.0515565,0.0231346
-0.00827453,0.00580603
-0.00722839,-0.0150923
-0.0156409,-0.0062743
-0.012485,0.00646331
0.0258757,0.0028226
0.0582409,0.0453766
0.0444297,0.0308861
0.0385903,-0.0383555
-0.0190815,0.00431955
-0.0960595,0.00514747
-0.125303,-0.0399711
-0.0187316,-0.0517366
0.0924745,-0.0347771
0.0668052,0.00647272
0.00477603,0.021159
0.0204725,0.0254622
-0.0571181,0.0145435
-0.0955857,-0.00611931
-0.000439799,-0.000374729
0.0236434,0.0155088
0.00771072,-0.0187103
-0.00198544,-0.0302873
-0.0139976,-0.00132732
-0.000895424,0.0199929
-0.00328168,0.0196751
-0.0215654,-0.0189849
-0.0177045,-0.0270271
-0.00736018,-0.00675866
0.0157117,0.00989356
0.017559,0.00493171
0.00695087,0.00802177
0.0257924,-0.00642952
0.0509698,-0.00808894
0.0292399,-0.0168982
-0.00446003,0.0368992
-0.00558232,0.0315703
-0.0245719,-0.000373143
-0.00333814,-0.00777126
0.0688347,-0.000278797
0.058693,0.00102442
-0.0178704,0.0271577
-0.0130964,0.023344
0.0163524,0.00477134
-0.0296907,-0.00188924
-0.0853309,-0.0137656
-0.0326694,-0.00513822
-0.00733047,-0.00122143
0.0192362,0.00286015
0.0297919,-0.000788931
0.0235926,-0.0161797
0.00704049,-0.0220869
0.0244155,-0.0139085
0.0379037,-0.0101495
0.0164961,0.00883186
0.0081834,-0.00949586
-0.0138603,-0.0113651
-0.0242402,0.00621162
-0.0312715,-0.00532649
-0.0530776,0.00035195
-0.0777458,0.0152177
-0.0322265,0.00237514
0.0274559,-0.0165506
0.0339665,-0.0130785
0.0494107,0.00210969
-0.00323367,0.00975367
-0.0255207,0.00592389
-0.00917922,0.0122549
0.0134724,0.0226976
0.0568894,0.0190747
0.119881,-0.000755213
0.145027,-0.00441414
0.0537035,0.0190668
-0.0747713,0.0341103
-0.168053,-0.0173384
-0.138222,-0.0103738
-0.0106873,0.0376351
0.02955,-0.00652792
-0.033807,-0.0513642
-0.0659405,-0.0336199
-0.0270849,-0.0126125
0.00476913,0.0018274
0.020815,0.00301879
0.0308408,0.0102918
0.0407931,0.0195041
0.0154192,0.00155901
-0.023642,-0.0124651
-0.00364323,0.00313333
0.0278795,0.0193859
0.00515091,0.000915001
-0.0167352,0.0127441
-0.0125699,-0.038868
0.0134824,-0.0304361
0.0353649,-0.00206946
0.0146315,0.00301125
-0.0119021,-0.011569
-0.00828412,-0.0137599
0.00113938,0.0129048
0.0128767,0.0291682
0.0335478,0.0359074
0.0303604,0.00513997
0.0276653,-0.0448814
0.0415378,-0.0614081
0.016887,0.0125408
-0.0395521,0.0276359
-0.0357915,-0.000652426
0.0236553,0.00980771
0.0137285,0.0279603
-0.0452087,0.0246841
-0.0560113,0.00441616
-0.0347867,-0.00806984
-0.00700415,-0.00903195
0.0175458,-0.0116941
0.00642802,-0.00252562
-0.0320037,0.00363001
-0.0452173,-0.0074432
-0.019844,0.000169546
0.0211757,-0.00928207
0.024527,-0.00774827
0.00990893,0.0140626
-0.00550382,0.0170471
0.0139731,0.02232
-0.00818154,0.00773046
-0.0056146,-0.0234962
0.0444144,0.000317844
0.0545878,0.00890919
0.0315016,0.00293041
0.0347772,-0.00267924
0.0270264,-0.0136434
-0.0556289,-0.0109023
-0.0875574,-0.00513665
-0.0450236,0.00847858
0.00124477,0.012106
0.0223103,0.00012401
0.00218961,0.0177503
-0.00261902,-0.0354897
-0.000535022,-0.0197894
-0.000311486,0.00362622
-0.0301044,0.0466716
-0.0451816,0.00982771
0.00740438,-0.0341361
0.0486905,0.0229154
0.0481635,-0.0078471
0.0278152,-0.0264575
0.0230109,0.0111941
-0.00178572,-0.00352084
0.00300077,-0.0140512
0.0360091,-0.00825504
0.00783111,-0.00654658
-0.0292164,-0.00454012
-0.0213243,-0.00568703
-0.0148748,-0.00429789
0.0217596,-0.00853969
0.0484344,-0.00934775
0.0307719,0.014307
0.00881768,0.0321335
0.0323125,0.0225996
0.0203612,0.0250886
-0.0664209,0.0275971
-0.158212,0.012897
-0.201064,0.0240033
-0.136619,0.0197473
-0.0325785,-0.0417201
0.0380815,-0.045496
0.113116,-0.0214297
0.150792,-0.0172584
0.129209,-0.0142568
0.101561,0.0114702
0.0663699,-0.0312858
-0.0241475,-0.0202253
-0.0291686,-0.00244057
0.00572444,0.00569534
0.014313,0.00911112
-0.0143194,0.020275
-0.0461497,0.0145661
-0.0616324,-0.00490411
-0.0704588,0.0118223
-0.0711037,-0.00209428
-0.0680731,0.00907919
0.0376047,0.0032879
0.153971,0.0154433
0.118354,0.0170448
0.0554514,0.0121884
-0.0164466,0.0056272
-0.0912253,-0.0271579
-0.0830124,-0.0532706
-0.0333179,-0.00418307
-0.00614102,-0.00590891
0.0180331,-0.0245358
0.0301677,0.00778725
0.00954732,0.00135536
-0.0294927,-0.00917674
-0.0602484,-0.00194335
-0.0429731,0.00693731
0.00467315,0.00379878
0.0220659,0.0133057
0.0232914,0.0377618
0.0507921,0.047132
0.0536316,0.0287475
-0.0212086,0.0142964
-0.0388216,0.0138893
-0.0357303,-0.0187276
-0.0373754,-0.0222464
-0.0119806,-0.0244291
0.0031889,-0.0483041
-0.000731351,-0.0223876
0.0184792,0.00193108
0.0383776,0.00981234
0.0160552,0.0143207
0.00330051,0.0104175
0.00107205,-0.0049533
-0.010478,-0.0191403
0.0455049,-0.0118048
0.0652682,0.00696348
0.014537,0.0239351
-0.0374115,0.00255035
-0.0229718,0.0350419
0.00115855,0.0324755
-0.0461741,-0.00179221
-0.0586745,-0.0110221
0.00715021,-0.0189814
0.0413431,-0.001888
0.0292678,0.00958384
-0.0358327,-0.00683019
-0.0160904,-0.00906274
0.072521,-0.00443164
0.0731494,-0.0176983
0.00787176,-0.014652
-0.0090147,-0.0046081
0.00189814,0.00469508
0.0255318,0.000878399
-0.0112799,0.0230434
-0.0639933,0.01785
-0.0277918,-0.00563257
-0.0175283,-0.0227279
-0.0714603,-0.0225913
-0.0730527,-0.00653033
-0.0107621,0.0165443
0.0163027,-0.0111604
0.0372605,-0.00866154
0.0556475,0.00491224
0.056034,-0.016063
0.0351664,0.0106196
0.00360114,0.00904816
-0.00619601,-0.0115273
0.00927694,0.00293738
-0.0205083,0.0234627
-0.0781734,0.0326887
-0.0594353,0.00965327
0.0227156,0.000621176
0.0635427,0.00907927
0.0335827,-0.0316399
-0.0208156,-0.0310856
-0.0244539,0.0256297
0.00141117,-0.00532075
0.0552203,-0.0330436
0.0321777,-0.0092869
-0.0156952,0.0294883
0.00166365,0.0174444
-0.00356458,-0.00158487
-0.0380408,-0.00533785
-0.0253296,0.00837917
0.00141646,0.0110748
0.0318783,0.0140888
0.0480639,-0.0119628
0.0113674,-0.0154501
-0.0332022,0.0063953
-0.00563378,0.00547673
0.0426436,-0.00959991
0.0391566,0.00778095
0.0188648,0.00519529
-0.0248534,-0.0227559
-0.0292738,-0.020549
0.0172991,-0.00530049
0.020314,0.00370756
-0.00867078,-0.0105474
-0.0365226,-0.0261712
-0.0715361,0.0102737
-0.0845233,-0.00606857
-0.0545345,-0.0211912
-0.0126104,0.0184231
-0.0275836,0.0153695
-0.0266669,0.0122238
-0.0227264,0.0243965
0.0173576,0.0199617
0.0602607,0.0221547
0.0615505,0.0346041
0.0650079,-0.00704736
0.0431394,-0.0277935
0.0411714,-0.00776865
0.0503062,0.0268081
-0.00744571,0.0334827
-0.0843089,0.0349661
-0.0713155,-0.0464349
-0.00910356,-0.0743471
0.0165938,0.00403837
0.0067986,0.0014664
0.0131288,-0.0143083
0.0344937,-0.0031095
0.046885,0.00509862
0.0259824,0.0378897
-0.0269999,-0.0014011
-0.0190194,-0.0479248
0.00251159,-0.028163
-0.003108,-0.00347078
-0.0352151,0.00842478
-0.0603765,0.0152395
-0.0517473,0.00559951
-0.0206683,-0.0129165
0.0601834,-0.00587048
0.0466815,0.00212377
-0.0150292,-0.00305368
-0.0376716,-0.00955136
-0.030535,0.00691302
0.0395409,0.00373303
0.0766159,-0.00327322
0.0840424,0.0100655
0.0868771,0.00789389
0.0714897,0.00783701
0.000909764,-0.000746906
-0.0809699,-0.0217199
-0.092098,-0.000478303
-0.064522,0.028929
-0.0855302,0.0251618
-0.0779225,0.0015074
-0.0167651,-0.0091821
-0.016569,-0.00389704
-0.016296,-0.0194021
0.019914,-0.0150312
0.0472678,0.0439055
0.0567854,0.0210466
0.0687586,-0.00926262
0.053139,-0.00360457
0.0160478,-0.00779691
-0.0113175,-0.0137125
-0.036698,-0.0136534
-0.0363451,0.00865856
-0.0100682,0.0354904
0.0251144,-0.0198691
0.0390091,-0.0166802
0.0243373,-0.0115935
-0.0551185,0.0628268
-0.0132993,0.0125801
0.0416221,-0.011421
0.00838408,0.0288083
0.0230018,-0.0230187
-0.00422163,-0.0299501
-0.0318953,0.00446294
0.0104588,0.0111904
0.0531026,0.0127732
0.0629769,0.00161904
0.0489467,-0.00208607
0.0212871,0.00878436
-0.00464003,-0.03119
-0.0638176,-0.0557766
-0.0985987,-0.0162456
-0.0819298,-0.0137951
-0.0496025,0.00170806
-0.00763169,-0.00164033
-0.00481693,-0.0134054
-0.0225031,0.0226669
-0.0300714,0.00911027
-0.00245566,-0.0247714
0.0181691,-0.00127064
0.00779875,0.00998346
0.00534868,0.0117054
0.0369812,0.021459
0.0174209,0.0203973
-0.0142755,0.014305
-0.0180693,-0.0117007
-0.014767,-0.0054571
0.010043,0.00742868
0.0287772,0.0215521
0.0502054,0.0281007
0.0882061,-0.0162364
0.0500724,-0.0245617
-0.0137817,-0.0181017
-0.0804902,-0.0174481
-0.0853454,-0.00554844
-0.0165162,0.00293564
0.00972361,0.0209414
0.018657,-0.00643975
0.0237426,-0.0129823
0.00588301,0.00408257
-0.00396534,0.0226996
-0.0183656,0.0319248
-0.016729,-0.0112199
-0.00806212,-0.00915186
0.00121991,0.0212042
0.044179,0.000681393
0.0647767,0.000355871
0.0392798,0.019289
0.0198018,0.0137789
0.0507183,-0.0212189
0.0520014,-0.0240866
-0.0295702,0.0128425
-0.0824731,0.00777349
-0.0468526,-0.0541113
-0.03112,-0.0278688
-0.0254819,0.0138635
-0.0315013,0.0175772
-0.0338523,-0.00274545
-0.0161479,-0.0184068
0.0128967,0.000131901
0.0752085,0.0007737
0.0857482,0.00138247
0.0356066,0.0210017
-0.0108431,0.00577227
-0.0182268,-0.0120332
-0.0109889,-0.0111733
0.00127993,-0.00598108
-0.00736367,0.002006
-0.037903,0.0179087
-0.0589465,0.0352096
-0.0575886,0.0218834
-0.05728,0.0140272
-0.030654,-0.0122105
0.0395429,-0.0423422
0.0445541,-0.022129
-0.011304,-0.0227615
-0.0621917,-0.00573658
-0.0266056,-0.000530315
0.0509259,0.000996887
0.059603,0.00499626
0.0363494,0.00285022
0.038206,-0.00476413
0.0473555,-0.00915216
0.0447513,-0.00886988
0.0281661,-0.00471263
-0.00976749,-0.002182
-0.0208919,0.0126929
0.0210702,0.0210942
0.0408662,0.0160813
-0.00327523,0.0290954
-0.0482905,0.0247117
-0.0150027,0.0229368
0.0343087,0.0131574
-0.0109278,-0.0413795
-0.0671152,-0.00651152
-0.0748792,0.0393172
-0.0497685,0.0120846
-0.00859463,-0.0149683
0.00140247,-0.0250547
-0.00741532,-0.0195749
-0.0208312,-0.0179122
-0.0151541,-0.0108751
-0.0200646,0.0217752
0.00322349,0.0151128
0.0337928,0.00357615
0.0220208,-0.00811965
0.00720024,-0.0154133
0.0128347,-0.0487338
0.015463,-0.0241248
0.0188854,0.0130828
0.0365564,0.00744075
0.0535508,-0.00470906
0.0281952,0.0162429
0.0163619,0.0219839
0.0149387,0.000920306
0.0193448,0.00451996
0.0157975,0.00558243
-0.0129068,-0.0144589
-0.0503016,-0.0241438
-0.0711592,0.0147116
-0.0732399,0.0345648
-0.0459124,0.0218122
0.021435,0.0585885
0.056169,0.0133937
0.0205044,-0.0651213
-0.0444653,-0.048546
-0.0725273,-0.00375181
-0.00827375,0.00523841
0.0813804,-0.00226357
0.0870296,0.00532233
-0.0101841,0.00827452
-0.0896361,-0.00130706
-0.00879937,-0.00850493
0.0347995,-0.0114036
0.0146517,-0.0141825
0.0134691,-0.0127145
0.0389077,-0.00336779
0.030134,-0.00219833
-0.0267727,-0.00732145
-0.0359859,-0.00199967
-0.0150417,0.0156991
-0.00190362,0.0207061
-0.000279273,0.014039
0.0244888,-0.00106569
0.00892166,0.0108029
-0.0224182,0.00922683
0.00178979,-0.00472272
0.0536632,0.0195174
0.0434757,0.00487378
-0.00416578,0.0010304
-0.0348111,0.0108967
-0.0271702,0.00850733
-0.00791066,-0.0222222
0.00423733,-0.0390739
0.0331177,-0.00853219
0.0508048,0.011127
0.0452891,-0.00660767
0.0164324,-0.0165163
-0.0344838,-0.0118855
-0.068055,-0.0160765
-0.0670797,-0.0139929
-0.0608965,-0.00881919
-0.0290144,0.0159775
0.0160537,0.0339605
0.0435079,0.0454312
0.0430428,0.0175595
0.0360884,-0.0299923
0.0262209,-0.00698386
0.0283576,0.012558
0.0122861,0.00524944
-0.0231048,0.0184671
-0.0449098,0.0516892
-0.072551,0.00608817
-0.0661225,-0.0340053
-0.0154074,-0.0100632
0.0209481,-0.0203666
0.0118044,-0.0182267
0.0102978,-0.00976472
0.00333414,-0.00687983
-0.0314132,0.0103318
-0.0237049,0.00561053
0.0100574,-0.000384342
0.053371,0.00812059
0.0774888,-0.00573082
0.0217581,-0.0289002
-0.0536152,-0.02089
-0.0691102,-0.00252647
-0.03913,0.00933889
-0.0115655,0.0198041
0.0112744,0.0165326
0.0211452,0.00800868
0.0371102,0.0181014
0.0343847,0.0184677
0.0239272,0.0157008
0.00879851,-0.0225138
-0.0288404,-0.0311419
-0.0281761,0.0123969
0.0034209,0.0271569
0.0291359,-0.00435117
0.0579904,-0.00711488
0.0792999,-0.00827523
0.0296957,-0.0330289
-0.00160845,-0.0377311
-0.0242004,-0.00961045
-0.0311563,0.014454
-0.0313117,0.0129704
-0.0146302,0.0118892
0.00289294,0.00788744
0.000419305,0.00462659
-0.0101569,-0.00490881
-0.00982841,0.0317295
-0.00819346,-0.00305302
-0.00819493,-0.0179014
-0.00638801,0.0153775
-0.0266365,0.00791319
-0.01362,-0.0110102
0.0151476,-0.00418719
0.00234239,0.00835557
0.000168392,-0.0104332
0.00319818,-0.0239626
-0.000756887,-0.013571
-0.00433937,-0.0178904
-0.00289832,-0.0183933
0.00240515,0.00414964
0.0232026,0.0117053
0.0384089,0.00132328
0.0402088,0.00398754
0.0279042,0.00974657
0.0196787,0.00153333
0.00187509,0.0188099
-0.0515748,0.00781378
-0.0600018,-0.00554807
-0.0398771,-0.0038402
-0.022903,0.00258388
-0.0128379,0.00739407
-0.00527957,-0.00441405
-0.01908,-0.00047615
-0.0222342,0.01018
-0.00682368,0.0119708
-0.0023434,0.0145222
0.00807552,0.018385
0.0331608,0.00663623
0.0637494,0.000104814
0.0958983,0.000773903
0.0433574,-0.00941253
-0.031482,-0.0151178
-0.0367354,-0.00800531
-0.0100969,-0.00190812
-0.025749,-0.0011563
-0.0452631,-0.00155861
-0.0210753,-0.0234424
0.014377,-0.00308751
0.00620253,0.00376694
-0.0223899,0.00627807
-0.0244974,0.0100148
-0.0217946,-0.00436602
-0.018056,-0.00433037
-0.0102174,-0.0123613
-0.0222765,0.00643375
-0.0337093,0.0123658
-0.0245659,0.000926637
6.75e-05,-0.00518997
0.0257962,0.0126427
0.0431245,-0.00534105
0.0381367,-0.00992526
0.0331601,-0.00807564
0.0394323,0.000509918
0.0663036,0.0498711
0.091639,0.00806103
0.0869268,-0.0662723
0.0462506,-0.0230937
-0.0244353,0.00153772
-0.0174613,0.00848282
0.0304348,-0.00184687
0.0216526,-0.0350319
-0.0577056,0.000833291
-0.162871,0.0102348
-0.163079,0.0102162
-0.0848462,0.00573978
-0.0015085,0.0116682
0.0684895,0.0276769
0.0896872,0.02004
0.03951,-0.0355883
-8.12e-05,-0.000600091
0.0171712,0.0117073
0.0406284,0.0149913
0.0218243,-0.00324369
-0.0229934,0.0554622
-0.0697239,0.0785443
-0.0630336,-0.081801
0.00937721,-0.126893
0.0367346,-0.00154884
0.075626,0.0274202
0.106828,-0.0379892
-0.0195126,0.00650566
-0.112216,0.0742083
-0.0848884,0.0777273
-0.036213,0.00376093
0.0166846,-0.0625608
0.0700424,-0.034968
0.0754529,0.0557031
0.0303111,-0.0121872
-0.00375761,-0.0676544
0.00449052,-0.0291492
0.00990252,0.0219346
-0.0726357,0.0128803
-0.175268,-0.00654264
-0.187878,0.00661402
-0.110886,0.0615809
0.0194491,0.0823691
0.14852,0.0458894
0.128776,-0.0230887
0.0217822,-0.0658571
-0.0578684,-0.0532895
-0.0646031,0.0206819
0.0139957,0.00991068
0.0873234,-0.0703952
0.12163,-0.0352204
0.109785,-0.0195362
0.0837073,-0.00761615
0.0185581,0.0193967
-0.0210309,0.0294935
-0.052574,0.0257049
-0.0376331,0.0113496
0.0175689,-0.0206388
0.0325115,-0.0548799
-0.0133125,-0.00531446
-0.0283536,0.0620799
-0.0299415,0.00806255
-0.0459872,-0.013878
-0.0371362,0.0233494
-0.00891399,-0.0176939
-0.0145421,-0.0390967
-0.0218467,0.0345808
-0.0126379,0.0254791
-0.00971656,-0.00411538
-0.0151719,-0.0125372
-0.0120994,-0.00986757
-0.00421276,-0.0121641
0.00750481,0.00613672
0.0195327,0.0193176
0.0214844,-0.0238759
0.026382,-0.0058539
0.0339257,0.058732
0.0504462,0.00268227
0.0529981,0.00721749
0.0419101,0.0186624
0.00541423,0.0108065
-0.0313412,0.00155367
-0.0355302,-0.00790476
-0.0157658,-0.0124805
0.0341318,-0.017383
0.0557855,-0.0205877
0.0263195,-0.00338113
0.020201,0.00371077
0.00593418,-0.00227945
-0.0295835,0.00974626
-0.0660579,0.000277245
-0.060349,-0.0307412
-0.0378807,-0.0273387
-0.00757676,-0.00486502
-0.00186171,0.00446742
-0.030596,0.0180478
-0.0559731,0.0262011
-0.0584335,0.0177268
-0.0495246,0.00365895
-0.0426646,0.00213478
-0.0273932,0.00651177
0.00673657,0.00634819
0.0247981,0.0020331
0.0356676,0.0093385
0.0467084,0.0115205
0.0550918,0.00541354
0.0549545,-0.00325235
0.0686749,-0.0123751
0.0703041,-0.0204985
0.0517197,-0.019349
0.0550061,-0.00317368
0.0988724,0.00545103
0.123457,-0.00378086
-0.0468756,-0.0218185
-0.125191,-0.025287
-0.15174,-0.0214881
-0.128203,-0.00880797
-0.0740258,0.0137759
-0.0147147,0.0241512
0.0174567,0.0324448
0.0337298,0.0257139
0.0099733,0.00751987
-0.018724,-0.00728056
-0.0229858,-0.00911222
-0.0422165,-0.00500646
-0.0438519,-0.0191971
0.0113794,-0.0199379
0.0890808,-0.0114319
0.0998086,0.0101353
0.0676322,0.0195786
0.0100652,0.00688792
-0.0510558,0.00187449
-0.10193,0.01161
-0.115554,0.0196336
-0.0921113,0.0190495
-0.0279197,0.0239954
0.0687706,0.0196652
0.106139,0.0133358
0.125358,0.0108604
0.124796,0.0027589
0.0757262,-0.0136295
-0.0373166,-0.0194886
-0.103944,-0.0220409
-0.0891882,-0.0222803
-0.0831363,-0.0103517
-0.0390748,-0.0121733
0.0203438,-0.0102112
0.0467906,-0.0114783
0.0136983,-0.0187613
-0.0676677,-0.0381806
-0.117832,-0.0243834
-0.033686,-0.00449099
0.0768232,0.00756356
0.0985008,0.00579079
0.105078,-0.00572651
0.0804614,-0.00904963
0.0366697,0.000601473
-0.000850858,0.00427727
-0.0575593,0.000786445
-0.0980756,-0.0044076
-0.102131,0.00340622
-0.0147959,0.0247001
0.0480408,0.041342
0.079755,0.0303511
0.0967608,0.0102235
0.334736,0.0117788
0.637036,0.0241543
0.697298,0.0291796
0.423889,0.0174734
-0.118576,0.00525107
-0.706132,-0.00616947
-0.963709,-0.0211815
-0.796716,-0.0140866
