Comp Ch 3,Comp Ch 4
-0.0072963,0.0203386
-0.00685685,0.018154
-0.00222712,0.0210661
-0.00179216,0.0158619
-0.00387023,0.0145922
-0.00388724,-0.0159063
0.00132418,-0.024995
0.0102698,-0.0321721
0.0156314,-0.0408537
0.0110601,-0.0228941
0.00614078,-0.00400263
0.00177021,0.0272033
0.00646024,0.0257726
0.0118566,0.000687044
0.00734618,0.00873694
-0.00985022,0.0300648
-0.0223716,0.00521814
-0.0280385,-0.00708051
-0.0271466,-0.00892303
-0.0220514,-0.00718679
-0.0248491,-0.0141024
-0.0244056,0.0166469
-0.0180095,0.00629005
-0.0100144,-0.00342449
0.0058788,0.0286632
0.0167963,0.0175551
0.0196097,-0.0014101
0.016978,-0.0273233
0.0145654,-0.0205343
0.015488,0.00318685
0.0178589,-0.00598852
0.0114759,0.00486548
0.00242257,0.0109032
-0.00327764,0.00528123
-0.00919297,-0.00233461
-0.0192374,0.00948533
-0.015086,0.0502455
-0.0148947,0.0426832
-0.00759634,-0.0263139
0.00275292,-0.0568054
0.0119818,-0.0414742
0.022328,-0.0193262
0.0196548,-0.00405848
0.00645854,-0.0142782
0.000127164,-0.00950752
0.00733805,0.0353106
0.0177187,0.00056395
0.0136013,-0.0238535
0.00135134,0.0137407
-0.0052806,0.0171996
-0.0065906,0.0321828
0.0021628,-0.0148262
0.00688674,-0.00941591
-0.00390035,-0.0126739
-0.0281956,-0.000645105
-0.032044,0.00410925
-0.0149633,-0.0233961
-0.000860089,-0.0202191
0.0110957,0.00690521
0.0185131,0.0128637
0.0216155,0.0152285
0.00932142,-0.0179685
-0.000722898,0.0145942
-0.000834838,0.0178744
0.0027898,0.0112914
0.00224208,0.0205977
-0.00460563,0.0128132
-0.0117448,-0.0070222
-0.0155054,-0.00911583
-0.0187825,-0.00819546
-0.01909,-0.00739808
-0.0174212,-0.00656098
-0.0106293,-0.0123338
-0.00336658,-0.0215895
0.00488735,-0.0235584
0.016104,-0.0162674
0.0119601,0.00366073
0.00758984,0.0271049
0.014867,0.045906
0.0343483,0.0392824
0.042444,0.00707082
0.0466733,-0.0126505
0.0453718,-0.0125026
0.0304138,-0.0259106
0.00483487,-0.032512
-0.0197706,0.0276293
-0.0242919,0.0519051
-0.0340688,0.0630864
-0.0352934,0.0837569
-0.0526143,0.0496438
-0.0725315,-0.011707
-0.0607997,-0.0446003
-0.0336122,-0.0599236
-0.0136812,-0.0500022
-0.0114582,-0.0169274
0.00211555,-0.027974
0.0065683,-0.0669875
0.0120729,-0.113956
0.0286839,-0.105742
0.035627,-0.0880064
0.0184007,-0.0509623
0.0164659,-0.0363608
0.0183961,-0.00841441
0.0193782,0.0943997
0.0172921,0.193819
0.0156581,0.187014
0.023543,0.146181
0.035335,0.09563
0.0421799,-0.0481518
0.0496346,-0.146351
0.0452264,-0.0911467
0.00351031,0.00252156
-0.0477115,0.0269362
-0.0328831,-0.017687
-0.0465436,-0.0165418
-0.0663235,-0.0100925
-0.049908,0.0533492
-0.0108274,0.0267124
0.0148975,0.0238154
0.0224199,0.0119396
0.0156132,-0.00791165
0.0061855,0.00284072
0.00383361,-0.010552
0.00588602,-0.038654
0.00489099,-0.0307391
-0.00510331,-0.00259408
-0.0220702,0.0194514
-0.0399117,0.0630193
-0.0652253,-0.0090542
-0.0827521,-0.0398954
-0.0851018,-0.0166236
-0.067924,0.0406573
-0.0157524,0.0790388
0.054729,-0.00238377
0.0938528,-0.092821
0.115494,-0.0867461
0.0528425,-0.0549539
0.0204333,-0.0275731
-0.00330402,-0.00700496
-0.00136794,0.00686565
-0.00110129,0.0226736
0.0426598,-0.00592852
0.0736497,-0.0329218
0.0366126,-0.02038
0.00857329,3.21e-05
-0.00947685,0.0345705
-0.0114369,0.0604992
0.000554745,0.0448333
-0.00853758,0.0328021
-0.0159538,0.0196613
-0.0164926,0.000822012
-0.019781,-0.00484047
-0.0283502,0.0227272
-0.023876,0.0167446
-0.00718023,0.00010225
0.00484345,-0.0236373
0.00583474,-0.0317735
0.00183076,-0.0238159
0.00733712,-0.0149278
0.00248765,-0.0478293
-0.00366035,-0.0325027
0.00582947,0.0176156
0.023756,0.023465
0.0186573,0.0186239
0.000351994,0.0237002
-0.0164548,0.0133356
-0.0195122,0.0078539
-0.0143216,-0.00268247
-0.00984938,0.0121885
-0.00328837,0.0326055
-0.0120436,0.0226544
-0.000686607,0.00911712
0.00761969,-0.00579288
-0.0191265,-0.0154262
-0.0245005,0.0104767
-0.0137861,0.0305214
-0.000820281,-0.025551
0.0119533,-0.0679806
0.0151149,-0.0231241
0.0208656,0.0285985
0.016213,0.0396862
0.00497373,0.0147604
-0.00956523,0.00227702
-0.0335168,0.00585911
-0.0683627,0.0283664
-0.0726359,0.0262991
-0.0451792,0.00308883
-0.00868175,-0.0438824
0.0316595,-0.0383353
0.0494113,-0.0417829
0.0370186,-0.0387939
0.0133664,-0.00965022
0.0090008,-0.00903159
0.0104935,-0.0178082
0.0156335,0.00583474
0.0370607,0.00189574
0.0614197,0.0503618
0.0815425,0.0593251
0.0797443,0.0349646
0.0269107,0.00702487
0.00538006,-0.00726331
-0.0238156,0.0095525
-0.0523155,0.0135771
-0.0433157,-0.0265744
-0.0171044,-0.0193072
-0.0118357,-0.00747381
-0.027313,-0.0403536
-0.0490256,-0.0256041
-0.0694928,-0.0198035
-0.0686967,-0.0363024
-0.0536265,-0.00121739
-0.0101871,0.0324818
0.0308222,0.0147132
0.0385683,0.0190482
0.0533056,0.0234006
0.0447048,0.0114123
0.0245038,-0.0247022
0.017341,-0.0184393
0.0161636,-0.00332888
0.0159868,-0.00283784
-0.00530058,-0.00345986
-0.0217933,0.00243286
-0.0340628,0.0086043
-0.0590826,0.0203961
-0.0640759,0.00884679
-0.0326784,-0.0260819
0.0026079,-0.000934331
0.0504625,-0.0505955
0.0790214,-0.0400571
0.070947,0.0303174
0.043559,0.0497442
0.0133172,0.0316959
-0.00335387,0.0106736
-0.00690644,0.00372202
-0.00598258,0.00510429
-0.000146626,-0.0258134
0.000615659,-0.0328307
-0.00732692,-0.0324229
-0.00378266,-0.0200223
-0.00269516,0.0120645
-0.000618624,0.0149454
0.00450048,0.00834523
-0.00463185,0.00885301
-0.0118346,5.31e-05
-0.0106615,-0.0131806
0.00175915,-0.000944522
0.00523851,0.0437151
-0.0127031,0.0501382
-0.0268614,0.0236283
-0.0230037,0.0330289
-0.0134378,-0.0492416
-0.012243,-0.120424
-0.0135033,-0.0690379
-0.00862654,-0.0520728
-0.00290207,-0.000114958
0.0109316,0.0612154
0.0172597,0.0961616
0.00671135,0.0889273
0.00214075,0.0592107
-0.00482916,0.0459395
-0.00229099,0.00955853
0.00292435,-0.0550972
0.0185412,-0.072829
0.0246666,-0.00797356
0.022284,0.000505148
0.00936512,-0.00982968
-0.00803473,0.0128973
-0.00752047,0.0275452
-0.00261754,0.0107321
-0.00969844,-0.0262825
-0.00989663,-0.0593567
-0.0128803,0.0219575
0.00596084,0.056332
0.011219,-0.0282308
0.00967282,-0.0283068
-0.0016876,-0.0217312
-0.0135494,-0.036776
-0.0122768,-0.0455048
-0.00879974,-0.0155964
0.00511017,0.00899528
0.0122173,0.0120507
0.004033,0.0279307
-0.0163903,0.0463419
-0.0321751,0.0522699
-0.0238369,-0.0163655
-0.0114213,-0.0068717
0.0227854,0.0123024
0.0579654,-0.00678944
0.0482823,0.00522304
-0.00016284,0.00134455
0.0111464,-0.0180783
0.00833872,-0.0169976
-0.00631758,0.00269244
-0.0293934,-0.00720158
-0.043754,-0.00629858
-0.027967,-0.00930625
-0.00763721,-0.00911268
0.0163545,0.0231893
0.00960894,0.00875742
-0.0358306,0.0141822
-0.0370767,0.00400937
-0.0128748,-0.00568236
0.00712846,0.00787633
0.0357758,0.00272065
0.0385513,-0.0247126
0.0157414,0.0343051
-0.00161269,0.0530219
0.00365117,0.00111788
0.0105991,-0.0162471
-0.00242855,-0.0271935
-0.00500548,-0.0269946
0.0263846,-0.00661479
0.00143673,0.089374
-0.00269351,-0.0202902
-0.00656924,-0.0829609
-0.00170185,-0.0203916
0.017843,-0.00992178
0.00135478,-0.00233592
-0.0125838,0.0113954
-0.0124402,0.0316384
-0.00980719,0.0060846
-0.0039252,0.0031252
0.0112068,-0.00892996
0.0169853,-0.0100957
-0.000332961,0.0133823
-0.00578421,-0.00611802
0.000722004,-0.0302352
0.00470023,-0.0216746
0.0100699,-0.0113295
0.0157985,0.0183903
0.0169016,0.0419994
0.0153729,0.0288131
0.0103875,-0.0184076
-0.00318031,-0.0196993
-0.0411,0.00130868
-0.0523513,0.0109691
-0.013913,0.0324326
-0.0177765,0.0228562
-0.0267056,-0.00259868
0.00893662,-6.76e-05
0.0252934,-0.00775091
0.00707199,-0.0190335
-0.0112195,-0.0136021
-0.0145422,-0.0123415
-0.00323546,-0.0199118
0.0173207,-0.0236796
0.020025,0.00756102
0.0110738,0.0129267
0.00126289,0.00603743
-0.00609683,0.0139398
-0.0039545,0.0195621
-0.00464863,0.00785341
-0.00232532,-0.0137566
0.00322097,-0.00831965
0.0112364,-0.00722344
0.0224782,-0.000994975
0.0239893,-0.00489045
0.0111764,-0.0137162
-0.000821836,-0.00966885
-0.00530857,-0.00929836
-0.00931349,-0.0170453
-0.0115392,-0.0184086
-0.0111451,0.00571089
0.00098098,0.0234255
0.0030617,0.0294102
-0.0113017,0.0394835
-0.00831638,0.0431737
-0.00877697,-0.0221863
-0.00139299,-0.0630016
0.00808305,-0.0113249
-0.0102946,0.0437269
-0.028541,0.060368
-0.0107085,0.0703472
0.0198793,0.00334512
0.0187457,-0.101076
0.00690812,-0.0879186
-0.00967726,-0.0239253
-0.0280632,-0.00993224
-0.0279658,0.00446612
0.000997595,0.0548536
0.0340809,0.0373532
0.0544784,-0.0205559
0.0447763,-0.0499665
0.00756901,-0.0211221
-0.0397823,0.0136047
-0.0490228,0.0633392
-0.0547743,0.0517172
-0.0187386,-0.0247579
0.061947,-0.0284404
0.0498469,0.0116977
-0.0184946,0.0307603
-0.0151392,-0.00176649
0.00354613,-0.0466922
0.00597199,-0.0250747
0.00242724,0.0196364
-0.00806129,0.042461
0.0291343,0.0222887
0.0332157,0.0366013
0.00923373,0.0448158
0.0220657,-0.0211748
0.0157197,-0.0413401
-0.0193019,-0.0297129
-0.0315251,-0.0314844
-0.027088,-0.018534
-0.0285407,0.0363893
-0.0283051,0.00830519
-0.00618785,-0.0550953
0.0127673,-0.0403291
0.00887029,-0.0241562
0.00562733,-0.00789819
0.00813961,0.00429509
0.00630124,0.0320833
0.00496683,0.0388341
-0.00100016,0.0138644
0.00607549,0.0125406
0.0129812,0.0272143
0.00224147,0.00617546
-0.0100838,0.0110125
-0.010389,-0.0127946
-0.00471178,-0.0192333
-0.00304665,-0.010479
-0.00343698,-0.0303543
-0.00730829,-0.0164782
-0.00138734,-0.0153379
-0.00152979,-0.0021664
-0.00907195,0.00481111
-0.016991,6.41e-05
-0.0157796,0.0287047
0.000610974,0.043531
0.0201957,0.00828708
0.0246318,-0.0237163
0.0120885,0.00697215
0.0102029,0.022104
0.0163801,0.017257
0.000999995,-0.0183612
-0.00346432,-0.0403574
-0.00428542,-0.0112023
-0.0061861,0.00800572
0.00411881,-0.00443153
0.0170675,-0.0175714
0.0134478,-0.011882
0.00151817,-0.00102971
-0.00820836,0.00590348
-0.0175623,0.0121637
-0.0168591,0.0241433
-0.00237026,0.0242118
0.00608158,0.0150309
-0.00363093,0.0128932
-0.009628,-0.00034164
-0.0081348,-0.0140396
-0.000305448,-0.024003
0.00114669,-0.0281524
0.0108928,-0.0228361
0.0136531,0.000602061
0.0116403,0.0200638
0.000333929,0.00064944
-0.0127184,-0.0308682
-0.0200698,0.00622946
-0.000496919,0.0436512
0.0113587,0.0127744
0.00400064,-0.019732
-0.00270337,0.00196216
-0.00890829,0.0204688
-0.0217108,0.0401627
-0.016656,0.00491706
-0.002255,-0.000956053
0.0045043,-0.00314883
-0.00430464,-0.026012
-0.00712602,-0.0513269
0.00923534,-0.0306935
0.019503,-0.00523989
0.0170305,0.012042
0.0140393,0.0194247
-0.00149008,0.0138779
-0.0121795,0.00083337
-8.73e-05,-0.00956688
0.000960183,-0.00883647
-0.00375037,-0.0032796
-0.00625506,0.0161994
-0.00343054,0.0355234
0.011534,0.0278682
0.0266002,0.00787156
0.0295371,-0.0206264
0.00937948,-0.0395279
-0.00930062,-0.032587
-0.0100913,-0.0147631
-0.0230985,-0.00634116
-0.0149264,0.000366369
0.00380874,0.00496033
0.00960733,0.00163849
0.00439871,0.00195371
-0.00378398,0.0182745
-0.00571305,0.0281334
0.00340707,0.0153223
-0.000325145,0.00589448
-0.00528527,0.0108694
0.00452072,-0.00741844
0.0081975,-0.00797154
0.0013261,0.00952194
-0.00704001,0.0155454
-0.0122024,0.00694347
-0.00799141,-0.0194643
-0.00260664,-0.0136194
-0.0038244,-0.036157
-0.00594944,0.0109066
-0.0025298,0.0416462
-0.00703547,0.0365182
-0.0102141,-0.00254939
0.00599623,-0.0266451
0.00515323,-0.0152348
-0.0101448,-0.0205123
-0.00226976,-0.00581185
0.0167117,0.00832453
0.0148116,0.00886571
-0.00347882,0.00155194
-0.00504488,-0.0100247
-0.00471609,-0.0217486
-0.0016352,-0.022968
0.006604,-0.00948602
0.0046225,0.00241895
-0.00586965,0.00570323
-0.0173494,0.0332962
0.000500696,0.0643972
0.0329305,-0.0116561
0.0258578,-0.0146587
0.0138157,0.00937721
0.0211188,-0.0111743
0.0401512,-0.00836637
0.0250133,-0.00369381
-0.024352,-0.0244856
-0.0550569,-0.023192
-0.0334796,-0.0133218
0.0130594,-0.0131721
0.0188718,-0.00713673
-0.0135932,0.00890044
-0.0340681,0.0454823
-0.0274908,0.0269747
0.0155368,-0.0124091
0.046223,-0.021281
-0.0151806,-0.0267582
-0.0432864,-0.0310214
-0.00777559,-0.00997145
0.0110668,0.0158111
-0.00707458,0.0235329
-0.0177397,0.0344139
-0.00659201,0.0623143
0.00762266,0.00238848
0.00738291,0.032873
0.0048295,0.0211018
0.000500185,-0.0523491
0.00134636,-0.0355923
0.00574042,0.00447506
0.00827293,-0.0571377
0.00633166,-0.0360151
-0.00296093,0.0104123
0.000543858,0.0314996
0.0153613,0.00833069
0.031869,-0.0101581
0.020827,-0.00537455
0.00620721,-0.00872341
0.00423083,-0.0171553
-0.000366699,-0.0128378
-0.00337332,0.00918794
-0.0132893,0.0162876
-0.0221244,0.0138056
-0.0251187,0.0107283
-0.0203584,0.016728
-0.0154651,0.0254871
-0.00826442,-0.00670779
0.0194175,-0.0192047
0.0407115,-0.00039758
0.0213292,0.00894991
-0.00592061,0.0131701
-0.0076028,0.00738958
-0.0170644,0.003156
-0.0337308,-0.0047813
-0.0262046,-0.0101526
-0.0128855,-0.0119977
-0.00569426,0.00637533
0.00519656,0.0288576
0.0209108,-0.0051798
0.0316971,-0.0327015
0.0287064,-0.0053644
0.0142617,0.00927277
0.00401858,0.0238644
0.00207093,0.0207252
0.000249014,-0.0349364
-0.000995103,-0.0222438
0.00200439,0.00872478
0.00647494,-0.00114755
0.00514468,-0.0141089
-0.000670354,0.00714327
-0.00649727,0.0032423
-0.00853821,-0.00624754
-0.00075618,-0.0062575
0.00527544,-0.00224969
-0.00208276,0.011145
-0.00325598,0.0191869
-0.00211097,0.036749
-0.00122131,0.0711052
-0.00123464,-0.00877136
-0.00258598,-0.0683864
-0.0243714,-0.0612415
-0.0566566,-0.023129
-0.0294417,-0.00771248
0.0130188,0.0017356
0.0176903,0.0108501
0.0180478,0.0176834
0.0158514,0.0163206
0.0183845,-0.000704623
0.0108845,0.0156538
0.0018046,0.0431399
0.025452,0.0162753
0.0364959,-0.0411941
0.00893366,-0.0321009
-0.0102573,-0.0165558
0.001329,-0.0109901
-0.0224185,-0.000262153
-0.0341522,0.0094944
-0.00680645,0.0172018
0.0183527,0.0103911
0.0246826,0.00791346
0.0104931,0.00239026
-0.00011215,-0.00671841
-0.00892388,-0.00511272
-0.0108038,-0.00555204
-0.0141546,-0.0115673
-0.0299886,-0.0190638
-0.0491982,-0.00681857
-0.0463776,0.0182945
-0.0322216,0.0244133
-0.00422092,-0.000802475
0.00445902,-0.00709957
-0.0174697,0.00880793
-0.0209646,0.0238812
-0.0035077,0.0578031
0.0254874,0.0372081
0.0301029,-0.0236179
0.0248168,-0.0473709
0.0205039,-0.0154645
0.0209632,-0.0131389
0.0160126,0.00457786
-0.00198945,0.0193097
-0.00546973,0.0044767
0.00985398,-0.0605731
0.0279483,-0.0547069
0.0377635,-0.0171334
0.0198203,-0.0170699
-0.00111815,0.0497758
-0.00625426,0.0251829
-0.00565353,0.00476001
0.00358984,0.0156879
0.0374685,0.0121622
0.0483429,0.00742899
0.00810912,0.00657382
-0.00913463,0.00641239
-0.028474,0.0157983
-0.0323921,0.00449364
-0.000109077,-0.0145632
-0.00727843,-0.00907152
-0.0252805,-0.0100478
0.0247481,-0.0187382
0.0313059,-0.00280518
0.0304321,0.00336105
0.00759546,-0.0107542
-0.0316503,-0.0121632
-0.0590974,0.00558466
-0.0345352,-0.0116093
-0.0107536,0.0056046
-0.00293269,0.0467806
0.00456267,-0.00156554
0.00209407,-0.0160327
-0.00426058,-0.00987008
-0.00292212,-0.0204358
-0.00741692,-0.00373292
-0.0144507,-0.000123739
-0.0197078,-0.0112561
-0.022437,-0.0123639
-0.024222,-0.0114039
-0.0192131,0.0105845
-0.00851988,0.0203301
0.0105162,0.0390855
0.0284151,0.000636362
0.0247934,0.00296109
0.0245705,-0.00406786
0.0239272,-0.030219
0.0194552,0.00498664
0.0215198,0.0239175
0.0343752,0.0294741
0.0379298,0.0244356
0.0224263,-0.0384
-0.0102636,-0.0375762
-0.0365667,-0.00834507
-0.0562032,0.0126381
-0.0578038,0.0153419
-0.00241003,0.0118077
0.0381337,0.0262317
0.0266165,0.0386626
0.0100023,-0.0294989
-0.000853155,-0.0294353
-0.0170357,-0.0253053
-0.0302483,-0.0164689
-0.0144364,0.00981496
-0.000178562,0.0112643
0.00198468,-0.000524743
0.000459617,0.0194605
0.0281287,0.00537009
0.0450301,-0.00841874
0.0147185,-0.0039214
-0.0125341,-0.00582585
-0.0264139,-0.0251186
-0.0140271,-0.0506676
0.000921876,-0.0287866
0.00494313,0.0202473
0.00165187,0.0281948
0.00795996,0.0267467
0.0140719,0.0213215
0.00743666,0.00640069
-0.00552,0.0182245
-0.00557109,0.00521156
-0.0101188,-0.0299976
-0.0134321,-0.000508237
-0.00783341,0.0208755
-0.00663739,0.0332
-0.0137214,-0.0114103
-0.0216736,-0.0276236
-0.0244274,-0.0220389
-0.0183372,-0.0276099
-0.00713329,-0.0236037
0.00616011,0.00302103
0.0220958,0.0170305
0.0197327,0.0129333
-0.00434135,0.0407166
0.00085354,0.0203573
0.0155719,-0.000965029
0.0144326,-0.00196182
0.016427,0.0250989
0.00860127,0.0254495
0.00986621,0.0363377
0.0248697,-0.0354238
0.0193339,-0.0621235
-0.00742325,-0.0320288
-0.0251398,-0.0113826
-0.0163866,-0.0139869
-0.0163296,-0.0156264
-0.0334456,0.0140866
-0.0258021,0.0462563
-0.0306702,0.0408593
-0.0317631,0.0131254
-0.0166288,-0.00331966
0.0357316,-0.0196547
0.0657359,-0.0263043
0.0385266,0.00334542
0.0246346,0.015641
0.0450313,0.0056805
0.00697462,0.00605324
-0.0382269,0.00369644
-0.0228542,0.00761222
-0.00644611,-0.00248381
0.00134287,-0.0359297
0.00811913,-0.0332621
0.0139325,0.00664236
0.00833342,0.0199245
0.00322931,-0.00499844
0.00168833,-0.0113446
0.0212733,-0.0138466
0.0166658,-0.0079552
-0.0439681,-0.0127135
-0.0497695,-0.0175361
-0.00824954,0.0032117
0.0165287,-0.00832364
0.0197965,0.00350614
0.00523241,0.0139782
-2.35e-06,0.00121492
1.34e-05,-0.00247521
0.00182165,0.00321356
0.00535898,-0.000265895
0.00881289,0.00696634
0.00696779,0.0260067
0.010548,0.0233177
0.0076366,0.00732333
-0.00136105,0.0145244
-0.0080743,0.0364268
-0.010358,-0.0425094
-0.0145703,-0.0179269
-0.0153933,0.0365266
-0.00836543,-0.0123424
-0.00814314,-0.0292923
0.00330882,-0.00804306
0.000689881,0.00701307
-0.0160603,0.0063608
-0.0240295,-0.0071831
-0.0179255,0.0267672
-0.00685124,0.0336507
0.0122827,0.0148953
0.0149663,-0.0239381
0.00340598,-0.0339444
-0.0116795,-0.00758451
-0.00942871,-0.0230355
0.00167372,-0.0195907
0.00917069,-0.00242019
0.00362992,-0.00487065
-0.00284875,-0.00640677
0.0138301,-0.0117912
0.0065152,0.000368743
-0.0202402,0.0395017
-0.00188685,0.0477597
0.0411002,-0.00718114
0.0291061,-0.0295126
-0.0209815,0.00935184
-0.0317084,0.00924582
-0.00432802,-0.0160171
0.0411555,-0.00518824
0.0429631,0.0278203
0.0179049,0.0130603
-0.0063911,0.0552703
-0.0154813,-0.0123554
-0.0129633,-0.0598406
-0.0135312,-0.0159835
-0.020396,0.00244693
-0.0308224,0.01727
-0.0206183,0.0158673
-0.0264963,-0.0233841
-0.0330817,-0.0473426
-0.0398705,-0.0301016
-0.0081195,-0.0190278
0.0727654,-0.0158375
0.107914,-0.0221236
0.0706724,0.00529178
0.0299997,0.0591073
0.00988054,0.0503961
-0.00720419,0.0186437
-0.0354099,0.0288942
-0.0839826,0.0392014
-0.0887572,-0.0412106
-0.0440576,-0.106628
0.0281218,-0.0544879
0.0762322,-0.00244281
0.0534996,0.0570629
0.0242616,0.0848262
0.024214,0.0708177
0.0172414,0.0362488
-0.000704429,-0.00700783
-0.0134692,-0.0318355
-0.0192769,-0.0308975
-0.0209093,0.0119712
0.00363797,0.0777493
0.0207605,0.0867007
-0.00365991,-0.0703522
-0.0313972,-0.111899
-0.0331978,-0.0385058
-0.00832714,-0.00509437
0.0185882,0.0110795
0.0254215,-0.00856587
0.0171995,-0.00974704
0.0102159,0.0281082
-0.00551261,0.0317284
-0.0197744,0.0167875
-0.0338738,-0.00990399
-0.0628599,-0.0794251
-0.0965229,-0.125333
-0.0910537,-0.101549
-0.0278868,-0.0578204
0.0455121,-0.00332959
0.0848816,0.0531458
0.0897309,0.0625159
0.0545939,0.0871793
0.0183369,0.104762
0.000587799,0.060968
-0.0146166,0.0223314
-0.0101231,-0.024172
0.00371899,-0.0328352
0.0218605,-0.0195095
0.0237762,-0.000540002
0.00449676,-0.00150541
-0.0096407,0.00475714
-0.0118393,0.0338864
0.00180622,0.0524378
0.0184324,0.0423888
0.0227467,0.0124661
0.00659228,-0.0149635
-0.00913253,-0.0281535
-0.00498221,-0.0313717
0.00310085,-0.0316587
0.00297766,-0.0297559
0.00567381,-0.0182128
0.00316615,-0.00597622
-0.000984831,0.000899367
0.00124943,0.0443106
-0.00175374,0.0416541
-0.0159232,-0.0896634
-0.0263293,-0.0624747
-0.0168817,0.0603704
-0.000184319,0.0299392
-0.000795836,-0.00947889
-0.0111256,0.00522337
-0.0109309,0.0221006
-0.0224926,0.0172786
-0.0298281,-0.0282591
-0.0147634,-0.0262197
0.00163305,-0.0335999
0.00206729,-0.0317519
-0.00685167,-0.00382626
-0.00344661,0.0235965
0.00773114,0.0308116
0.0202176,0.0277599
0.0221219,0.0253342
0.00413614,0.0132448
-0.010306,0.028183
-0.00379315,0.000181921
0.00429805,-0.0464847
-0.0069794,-0.0351836
-0.0282376,-0.0122774
-0.0201004,-0.00853655
0.00436841,-0.0173487
0.0139775,-0.000393687
0.00863925,0.0185938
-0.00168614,0.00822151
-0.00062755,-0.0109977
0.0173297,-0.00156142
0.0352677,0.00196659
0.0290958,0.0154485
0.0262317,0.0334
0.0250113,0.0284075
0.00993527,0.00783517
-0.00737459,0.00453331
-0.00592439,-0.00901555
0.00707114,-0.0290702
-0.00450615,-0.0287842
-0.00786352,-0.0227326
-0.00111799,-0.00119822
0.00598401,-0.0229251
0.015249,-0.0465792
0.00548164,-0.028319
-0.0272623,-0.00308981
-0.0472596,0.00896267
-0.0216284,0.0253603
-0.0133714,0.0451542
-0.0282533,0.0592875
-0.0155746,0.0515914
0.00149315,-0.015111
0.0247277,-0.0433085
0.00999528,-0.0168563
-0.0110248,-0.0358593
-0.012615,-0.0158907
0.00541718,0.0226209
0.0213602,0.0270925
0.00831962,0.0574306
0.0150974,0.0305846
0.00328512,-0.00848068
-0.00436302,-0.0162603
-0.00448614,-0.00907626
0.000409671,-0.00912589
0.0184517,-0.00447291
0.0207454,0.0086824
0.0288937,0.00988263
0.0324222,0.0202988
0.0144783,-0.0242329
-0.0150205,-0.00842742
-0.0311688,0.0161873
0.00575451,0.00249755
0.0247442,0.012405
0.0167639,0.0303623
-0.0168057,0.0235537
-0.0529479,0.014479
-0.106024,-0.00926575
-0.068323,-0.00324904
0.000627006,-0.0336649
0.00143345,-0.053608
0.0302914,-0.0813657
0.0510185,-0.0748338
0.0380887,-0.0175244
0.00859215,0.0565048
-0.0249081,0.0564592
-0.0559296,0.0760831
-0.00163125,-0.020656
0.0869191,-0.0601247
0.092998,0.0173573
0.0688491,0.0690025
0.0695588,0.0212272
0.0157325,-0.0728294
-0.0342926,-0.0334611
-0.0588838,-0.00911411
-0.0662766,-0.0156151
-0.0514693,-0.0227732
-0.0384678,-0.00369895
-0.0430516,0.0324568
-0.0326107,0.0478615
-0.0512961,0.0693638
-0.0587605,-0.0941729
-0.013467,-0.112043
0.0122179,0.0687228
0.0144154,0.0436223
-0.0143274,-0.0444654
0.0324173,0.00054411
0.140228,0.0370507
0.150477,0.0351807
0.175685,0.0177442
0.218228,0.0159546
0.183493,-0.0103217
0.0127494,-0.0202868
-0.214891,0.00142779
-0.328004,0.0159678
-0.258726,-0.0655912
-0.177671,-0.0616021
-0.103936,0.0202301
0.0417405,0.0331871
0.15452,-0.0268752
0.0860871,0.00150416
-0.0141837,0.003395
-0.0447316,0.0249214
-0.0335955,0.0156915
-0.00862552,0.0148477
0.0464102,0.0149036
0.0563787,0.016784
-0.0027581,0.00696034
-0.0464093,-0.00955523
-0.0417763,0.00240474
-0.0726864,0.00603823
-0.0404452,0.0210826
0.0634171,0.0292745
0.115933,-0.0311842
0.060256,-0.039286
-0.00745303,-0.0437525
0.129511,-0.0739035
0.252054,-0.0393152
0.118922,0.020926
-0.156553,0.105934
-0.317278,0.151052
-0.339187,0.212797
-0.205385,0.115673
-0.113431,0.0147279
-0.0683604,-0.180824
0.174187,-0.128122
0.349177,-0.0810862
0.417027,-0.0543916
0.377424,-0.0640897
-0.071372,-0.0397938
-0.242776,0.0549036
0.137407,-0.0823145
0.293762,-0.0673712
0.145539,0.00105783
-0.112668,0.0567311
-0.26734,0.030431
-0.2609,-0.052871
-0.312732,0.0384637
-0.34997,0.109934
-0.261403,0.0208347
-0.0278541,-0.016244
0.0834191,-0.0206843
0.101031,-0.0436132
0.183099,0.0289173
0.317331,0.0741482
0.391062,0.0809701
0.288041,0.0652017
0.0176287,0.0560722
-0.220715,0.0610985
-0.214737,0.0258899
-0.134682,-0.0324146
-0.155727,-0.0805692
-0.0485507,-0.134394
0.212447,-0.0847458
0.188148,0.0521938
-0.00866435,-0.024639
0.0691831,-0.0881889
0.0969299,0.0443411
0.0293465,-0.00145011
-0.0273446,-0.0134134
-0.21332,-0.00780279
-0.219989,0.0151651
0.0254731,-0.00922545
0.0946578,-0.0107298
0.0337701,-0.0730361
-0.00408485,-0.0325135
-0.0270132,0.0259154
-0.0546881,-0.00117893
-0.0544049,-0.00378797
-0.0978124,0.0212538
-0.113161,-0.0153118
-0.0916084,-0.0721629
-0.110714,0.0202283
-0.0676884,0.0279961
0.00238358,-0.00341872
-0.0216866,-0.00996137
-0.0703883,-0.0278829
-0.0318624,-0.0259613
-0.0741786,0.0264985
-0.0459123,0.0499816
-0.00347797,0.0567427
0.0121412,0.00330231
0.303158,-0.00800923
0.776039,0.0617347
0.904757,0.125251
0.630714,0.0500882
0.102589,-0.0275909
-0.411188,-0.129519
-0.830886,-0.111328
-0.782448,-0.0422997
-0.303596,0.0763404
0.0784568,-0.053213
0.183942,-0.110149
0.241953,-0.06545
0.141952,0.0318189
-0.0725447,0.0834598
-0.186561,0.0357229
-0.120111,0.0684719
0.0517609,0.0167486
0.172216,-0.00423698
-0.00400882,0.0333237
-0.268247,0.0250391
-0.296392,-0.0196877
-0.069474,0.033854
0.0876564,0.077668
0.116696,0.0335743
0.0689123,-0.0493417
0.0156153,-0.0236138
0.0548609,0.000653779
0.0397323,0.0115482
-0.0499552,-0.000712079
-0.134589,0.00266315
-0.121373,0.0310008
-0.0489408,0.0600306
-0.0113882,0.0640245
0.0102251,-3.9e-05
0.078568,-0.0143196
0.0349919,-0.0505836
-0.050386,-0.0506079
0.0244194,-0.0319237
0.0841435,0.000316568
0.119448,-0.0236626
0.168749,-0.0721448
0.112903,0.000757564
0.105478,0.0799579
0.181816,0.0850679
0.174719,-0.0238787
0.0719341,-0.0238317
-0.0335657,0.0388188
-0.0229742,0.0543184
0.012679,0.0699295
0.141503,0.0290393
0.167297,-0.023199
-0.22825,-0.0578404
-0.456097,-0.0573775
-0.338534,-0.0435
-0.137828,-0.0484923
-0.0329017,0.0101543
-0.0203897,-0.0196853
0.00198596,-0.0297337
0.0380935,0.010886
0.0264337,0.0292489
0.0259955,0.0189899
0.0373164,0.0399723
0.00119249,-0.0468407
-0.0426752,-0.0696131
-0.0521706,-0.00432509
-0.0894154,-0.0039395
-0.0921861,0.0375742
0.00274495,0.0619214
0.137046,-0.00619849
0.163312,-0.0281178
0.115742,0.0165505
0.133552,0.0686255
0.167815,0.0752023
0.155977,0.0167364
0.0409873,-0.0615112
-0.154585,-0.00726434
-0.278332,-0.0324
-0.254219,-0.123092
-0.0851075,-0.0989854
0.0530389,-0.0471671
0.0613252,0.0223272
0.0698317,0.0338404
0.0548524,-0.0237937
-0.0133403,-0.0153298
-0.00337168,0.00965306
0.0336145,0.0346565
0.0385365,0.0108459
0.0968983,-0.0691151
0.0649629,0.0355232
0.0133467,0.106922
-0.023114,0.0410809
0.0496147,0.0203472
0.106672,0.00286079
0.000596346,-0.0394371
-0.106992,-0.00126372
-0.179845,-0.0129207
-0.163534,-0.0200753
-0.103538,-0.000402855
0.0706246,-0.0218886
0.1868,-0.0343575
0.0855348,-0.0185395
0.053847,-0.00990897
0.00518009,0.00124326
-0.0397608,0.031508
-0.05691,0.076154
-0.116304,0.0409878
-0.0615457,-0.00587542
0.118802,0.0208096
0.185995,0.0133568
0.0944921,-0.100441
-0.0124301,-0.0932449
-0.110053,-0.0370374
-0.0989149,0.000641181
-0.0369997,0.0128056
-0.0197194,0.0643378
0.0512373,0.136275
0.269169,0.11081
0.364352,0.0137584
0.134884,-0.014468
-0.174562,-0.0554312
-0.331924,-0.0139913
-0.395494,-0.0176824
-0.246326,-0.0486931
-0.0519283,-0.00327358
0.0558277,0.0039373
0.0791716,-0.0829425
0.0480864,-0.0588566
-0.00081982,-0.0209697
-0.0306153,-0.0262076
-0.0203616,-0.0373593
-0.0050133,0.000185912
-0.00462579,0.0378082
-0.0162119,0.0642216
-0.0249676,0.0395211
-0.0334422,0.0544269
-0.0332254,0.061463
-0.0219057,0.0859553
0.0229696,-0.0173147
0.0154498,-0.0886924
0.0441543,-0.0437046
0.144743,-0.0288792
0.166904,-0.0340298
0.156446,-0.0210976
0.0993482,-0.0037703
0.0732997,-0.0155394
0.0318421,-0.00909597
-0.025708,0.00521577
-0.0664347,-0.011686
-0.0873228,0.0148825
-0.0971993,0.0205849
-0.126706,-0.00333959
-0.155115,-0.00976444
-0.10355,0.0286839
0.00936117,0.0686793
0.0866477,0.0477686
0.117165,0.0249055
0.0750737,0.0143864
0.0267402,-0.0123538
0.0269035,-0.0555155
0.0891674,-0.0226257
0.0318045,-0.00749029
-0.0592888,-0.0324708
-0.0773989,-0.0039851
-0.0473677,0.00103726
0.0222248,0.0176786
0.0803082,0.0371756
0.0484127,0.0445121
0.0743463,0.0150399
0.129669,-0.014505
0.103641,0.0987284
0.0637515,0.124192
-0.030148,-0.0405689
-0.0888854,-0.131208
-0.0883705,-0.140188
-0.0840701,-0.0320491
-0.0438652,-0.00936538
0.00115296,-0.0218477
-0.00271563,-0.013124
-0.0802192,0.0066243
-0.172599,0.0354734
-0.165397,-0.0224399
-0.116658,-0.0416677
-0.00366186,0.0750614
0.0938479,0.119901
0.117588,0.132844
0.00648215,0.0509011
-0.0856067,-0.0522858
-0.0664321,-0.0761297
-0.088659,-0.0378757
0.0309005,-0.000596834
0.148944,0.0238273
0.117696,-0.0397421
0.0980079,-0.0543038
0.105591,-0.0298866
0.0325603,-0.0249269
-0.0207879,-0.0261611
-0.0343856,0.00537624
-0.0756101,-0.0109774
-0.0763041,0.0040048
-0.0197956,0.00606581
0.0120414,-0.0363974
0.0179877,-0.00949241
0.0586789,0.00127317
0.0954281,-0.0210408
0.0870611,0.00812328
-0.0381537,0.0464129
-0.186517,0.0512908
-0.146313,0.0115506
0.0738523,-0.022821
0.154221,-0.0289289
0.152345,0.0138598
0.0970872,0.0125473
0.0270123,-0.00846229
-0.0417775,-0.0125421
-0.143671,0.0290084
-0.135398,0.0358629
-0.124144,0.106285
-0.0940264,0.0288053
-0.0397633,-0.164846
-0.0196064,-0.0756031
0.030553,-0.00126226
0.108119,-0.00562517
0.113166,0.0191184
0.0719433,0.0335024
0.0632199,-0.00292838
0.0486802,0.00364887
0.0020162,0.0316303
-0.00940691,0.00971932
-0.0116152,0.00217955
-0.0353724,0.00952039
-0.0438857,0.0238206
-0.0131691,0.0455468
0.0345678,0.044375
0.114243,0.0245565
0.061191,0.0296445
-0.00331221,-0.0116199
-0.136175,-0.0198947
-0.211257,-0.0311266
0.0119306,-0.091139
0.146232,-0.0324545
0.0504966,0.0260491
-0.0343243,-0.00168881
-0.0765299,0.021223
-0.115967,0.0118222
-0.0295335,-0.0161649
0.0730936,-0.0014743
0.0416786,0.00415004
-0.0234659,0.0130462
-0.0329364,0.0188761
0.0285022,0.0181338
0.0473354,-0.0163262
-0.0195202,-0.0252625
-0.0444869,-0.00716422
0.000485256,-0.0191737
0.0227022,-0.0271902
-0.000951599,0.00444352
-0.0166354,0.0767182
0.01358,0.0265429
0.105105,-0.0176767
0.1502,0.0314309
0.0515359,0.0225186
-0.0137896,-0.0353276
-0.0509798,-0.023062
-0.115217,-0.0381288
-0.125023,-0.0188715
-0.110371,0.00344482
-0.105179,0.0176078
-0.0541189,-0.0346828
0.0284464,-0.00725379
0.0654955,-0.000269251
0.0833942,0.0316682
0.0677986,0.00560452
0.0295127,-0.00632484
0.0036846,0.0278288
0.00450565,0.0534747
0.0281226,0.00946201
0.0107294,0.0143963
-0.014676,0.0187393
-0.0250783,0.00979208
-0.0148836,-0.0221347
0.014835,-0.0601332
0.0281673,-0.0363647
-0.0232738,-0.0247562
-0.0534698,-0.0299418
0.0214183,-0.0241846
0.0500738,-0.0433499
-0.00154751,-0.0262081
-0.0225913,0.0356284
-0.0209871,-0.0745662
0.0144473,-0.0560068
0.0506578,-0.0124421
0.060219,0.0248769
0.084562,0.0630112
0.0560571,0.0846389
0.0144348,-0.000798106
-0.00073222,-0.0533661
-0.0178369,-0.0293596
-0.051118,-0.0339572
-0.0553268,-0.0106891
-0.0502794,0.0217224
-0.0373999,0.0293864
-0.0354357,0.0517015
-0.000956095,0.0124984
0.0435218,0.0207788
0.0593709,0.0582355
0.0475132,0.0292674
0.011468,0.00803171
-0.0406166,0.0284491
-0.0486927,-0.0139819
-0.0501684,-0.0138839
-0.00846309,-0.0367131
0.0171776,0.00228688
0.0219161,0.0487805
0.0618148,0.0665419
0.0139527,0.00943902
-0.038699,-0.0241854
-0.0291816,-0.0342098
0.0297638,-0.03003
0.0757103,-0.0192423
0.0194939,-0.0550959
-0.0415634,-0.0322168
-0.0247036,-0.0195261
-0.0320098,-0.0211052
-0.0952836,-0.00157072
-0.112672,0.0111757
0.0246861,0.0133663
0.0539479,0.0304844
-0.0472653,0.0478338
-0.0942371,0.0360342
-0.0347322,0.0611369
0.029971,0.0802341
0.0884779,0.0366174
0.132653,-0.00390885
0.0759585,-0.0401586
-0.00689972,-0.0539571
-0.0366035,-0.0560654
-0.0627592,-0.0421532
-0.0519586,-0.0385595
-0.0239303,-0.0350871
-0.000893038,-0.0180862
0.0301052,-0.0152102
0.0466461,-0.0109014
0.0428054,0.0441308
0.00868561,0.0265814
-0.0271478,-0.0302346
-0.033105,-0.0563171
-0.0202773,-0.00892148
0.0289122,0.0219588
0.0677638,-0.0103818
0.036459,0.0102531
0.00375461,0.0619699
0.0153989,0.0804305
0.0290244,-0.0139685
-0.0397719,-0.0612531
-0.0550421,-0.0712579
-0.0458401,-0.0387709
-0.0254761,0.0191029
-0.0110921,0.0476558
0.0715289,-0.00417206
0.137466,-0.0358504
0.112955,-0.0277747
0.0257691,0.0385287
-0.0186265,0.0487427
-0.0219074,-0.0138373
-0.0790436,0.0062784
-0.0865092,0.0187031
-0.0559699,0.0442192
-0.065561,0.0435869
-0.0431114,-0.0143723
0.00569944,-0.0127611
-0.0227665,0.018001
-0.082122,-0.0347
-0.05864,-0.0273432
0.0312939,-0.00161513
0.114527,-0.00243314
0.134713,0.0315503
0.0560223,0.0199437
0.0301548,-0.0094253
0.0204456,0.0528012
0.0324032,0.0621946
0.0720385,-0.00182418
0.0734169,-0.0375513
-0.00632793,-0.0495096
-0.116814,-0.0600159
-0.126892,-0.041778
-0.0800522,-0.00657461
-0.0447092,0.0212283
-0.00393605,0.0186559
0.0327451,0.0195641
-0.0101339,0.0207507
-0.0327236,0.00859285
-0.0437295,-0.00219769
-0.0622383,0.0171323
-0.0504221,0.0164506
0.0123865,-0.024778
0.0443889,-0.0172537
0.038388,-0.0199099
0.00531211,0.0148543
0.0255441,0.0456636
0.0283572,0.0241255
-0.0556466,-0.0122897
-0.0978076,-0.0246812
-0.0605308,0.0152445
0.0260914,0.0381761
0.0841737,-0.00615571
0.129812,-0.0382425
0.102321,-0.0475185
0.000267572,0.00630165
-0.0210162,0.0428502
0.0161091,0.0439801
0.0649774,-0.00119612
0.00354139,-0.0276338
-0.0281561,-0.00584697
-0.091172,-0.0234725
-0.208862,-0.0349116
-0.094696,-0.0125614
0.0556179,-0.0488297
0.0871234,-0.00392104
0.0971248,0.017375
0.0868079,0.044169
0.0526492,0.0510179
0.0212569,-0.00752951
-0.00428839,-0.00388461
0.0302247,0.0170586
0.0873578,-0.00914751
0.00175343,-0.0168822
-0.0635531,-0.00312299
-0.0149239,0.0211177
0.0782253,-0.0263951
0.0305791,-0.0422437
0.01087,-0.0299491
-0.0103837,0.00343199
-0.105688,0.0253916
-0.124896,-0.0134073
-0.0782214,-0.00892815
-0.0905292,0.0128067
-0.0578317,0.0217937
-0.0318244,0.00157392
-0.0139114,-0.0324362
0.0272021,0.00290779
0.0458082,0.0487612
0.0869767,-0.0332371
0.130608,-0.0209729
0.0994743,-0.000464237
0.0301089,0.0110459
-0.00805423,0.00663493
-0.0553663,-0.0145219
-0.130368,-0.00957369
-0.09542,-0.00277324
0.0329694,0.0382683
0.0771647,0.0272431
-0.00669692,0.0529727
-0.0389481,0.014341
0.0540638,0.0252912
0.0852571,0.0263204
0.0347599,-0.00425098
-0.0123226,-0.00932741
0.00452464,-0.0270689
-0.024207,6.54e-05
-0.146299,0.00133668
-0.0907495,-0.00310563
-0.0377743,-0.0162901
-0.0250028,-0.0633425
0.0358416,-0.0389506
0.0525627,-0.0122791
0.0641482,-0.0104458
0.0274872,-0.0180071
-0.0273868,-0.0118508
-0.0313073,0.00380453
0.0172385,0.00447884
0.0425196,-0.00135349
0.0385129,0.0157976
0.0311441,-0.00102696
0.0234627,0.0330961
0.0232332,0.036398
0.0232935,-0.0435623
0.00120539,-0.0501584
-0.0189853,-0.0179156
-0.022883,-0.00587633
0.00679153,-0.0184647
0.030057,-0.0284913
0.0145165,-0.00909479
-0.0281047,0.0326571
-0.0793838,0.0657991
-0.082898,0.0997157
-0.0574309,0.0979307
-0.0713603,-0.0224023
-0.067467,-0.0472247
-0.00787255,0.0317449
0.14187,0.044949
0.281049,0.0425384
0.216468,0.0116572
0.0393772,-0.0835383
-0.108607,-0.0881613
-0.134352,-0.0629944
-0.142141,-0.0294249
-0.151056,-0.00160246
-0.059829,0.0343723
0.0768193,0.0560641
0.131361,0.0204535
0.0895537,-0.0298685
0.0688467,0.0214876
0.0356196,-0.0501808
-0.0280652,-0.0312745
-0.0790138,-0.0107082
-0.0791497,0.0181348
-0.0616,0.0320001
-0.0286219,0.00215841
-0.0208849,0.00194865
-0.0215668,0.0193636
-0.0278757,0.0134771
-0.0297702,0.000702223
-0.00682052,-0.00613485
0.0275914,-0.0128543
0.0555785,-0.00255242
0.0620207,0.0048481
0.0464756,-0.00327507
0.0271686,-0.01435
0.0237006,-0.015746
0.0284858,-0.0146291
0.0284717,-0.00874451
0.0137938,0.00219967
0.000207642,0.0150778
-0.00800068,0.0104766
-0.0112443,0.00306754
-0.0126106,0.00195377
-0.017604,0.000100119
-0.0272576,-0.00962484
-0.0262995,-0.0142868
-0.0121745,-0.015625
0.00679743,-0.0164703
0.0191859,-0.00896617
0.0207622,-0.00875147
0.00877847,-0.0197011
-0.0135603,-0.0207919
-0.0495801,-0.00523059
-0.063475,0.0248044
-0.0641207,0.097583
-0.0886837,0.120678
0.0100533,0.118411
0.100602,0.0386757
0.166825,-0.0808225
0.285214,-0.0710411
0.0463692,-0.032361
-0.441372,0.0041059
-0.438061,0.0448641
0.00243509,0.0506115
0.170258,0.0200577
0.152956,-0.0100578
0.210513,-0.0548035
0.206884,-0.0106639
0.0745626,0.062256
-0.133329,-0.0696834
-0.180666,-0.134853
-0.138968,-0.0555678
-0.0992979,-0.0706301
-0.0546656,-0.0549182
0.00306323,0.0018685
0.00420219,0.0590522
0.0167586,0.0448402
0.0455882,0.0205112
0.042768,0.00697904
0.0232731,0.00451175
0.012148,0.00541901
0.021006,0.0162619
0.0401003,0.0187382
0.0466313,-0.00110255
0.0409497,-0.0128021
0.0278485,-0.0109714
0.0216159,-0.00435409
0.0220254,0.00107279
0.0238578,0.00692122
0.025555,0.0170427
0.0137547,0.0191777
-0.00672397,0.0159659
-0.0225778,0.0191472
-0.0240818,0.0144007
-0.0189755,0.00189946
-0.0190453,-0.0100897
-0.0241211,-0.00766608
-0.025727,-0.00429541
-0.0102594,-0.00264375
0.00977249,0.00548046
0.0156058,-0.00764994
0.0140848,-0.0235555
0.015381,-0.0263133
-0.0036932,-0.0130169
-0.0368639,0.00489799
-0.0479109,-0.0115133
-0.0140586,0.0105344
0.000576747,0.0355022
-0.00888099,0.0479674
0.00491106,0.0137848
0.0165603,-0.0189339
0.0083624,0.0120397
0.00754044,0.0207991
0.00309144,0.0521449
-0.00302723,0.00433871
0.00136552,-0.0594325
-0.0125613,-0.0412462
-0.00822703,-0.0470746
0.0232711,-0.053775
-0.00845982,-0.0363307
-0.0467082,0.0220057
-0.065927,0.0732666
-0.0350974,0.0799927
0.105387,0.0497492
0.201363,0.0195355
0.168988,0.00071001
0.00602045,-0.00791782
-0.105024,-0.0441434
-0.163624,-0.00868197
-0.193946,0.00290475
-0.147581,-0.000250099
-0.00807531,0.00180496
0.105452,-0.03686
0.0973119,-0.0304742
0.00582747,-0.0387918
-0.031257,-0.0376308
-0.000478172,-0.0183268
0.0254698,-0.0116905
0.0351823,-0.0160629
-0.00450941,-0.00253647
-0.0565868,0.0149832
-0.0345786,-0.00447304
0.0360204,-0.00350338
0.0324832,0.0129037
0.0316271,0.0328726
0.0322659,0.00665781
0.0185593,-0.00974059
0.000427632,0.00576834
0.00695368,0.0325845
0.0434483,0.0231964
0.0684523,-0.0135735
0.0343505,-0.0354323
0.00272795,-0.0247363
0.00823061,-0.013763
0.0122497,-0.015615
0.0603196,-0.0126827
0.0789779,0.0398479
-0.0190379,0.0976272
-0.0923706,0.0829441
-0.0986271,0.0141061
-0.0353631,-0.0484346
0.00502057,-0.0800717
0.00149009,-0.0331413
-0.0390891,-0.0010723
0.0116358,0.00980467
0.131545,0.0286847
0.0889417,0.0295502
-0.0154249,0.0106098
-0.0865809,-0.0305343
-0.154223,-1.62e-05
-0.168787,0.0679458
-0.100645,-0.000115224
-0.0200432,-0.0353407
0.0630864,-0.0131456
0.0371315,0.0107773
-0.0814202,0.040932
-0.0411536,0.0222265
0.0502708,-0.0379835
0.050626,-0.0518317
0.0132204,-0.0115596
-0.0115358,0.0037433
0.0350261,0.00930899
0.043852,0.033808
0.0149017,0.018252
0.0264674,-0.00441835
0.0487078,-0.00780866
0.0360801,-0.00352441
0.011525,-0.032626
0.00626015,-0.0234865
0.00513295,0.00159019
0.0220989,-0.00835443
0.0425537,-0.01557
0.0345788,-0.00723229
0.0122796,0.00095225
-0.00744932,0.000358238
-0.0183378,-0.0108554
-0.0198721,-0.0145535
-0.0267779,-0.0101929
-0.0238904,0.0205793
0.00363876,0.0381359
0.0127836,0.00983044
0.0103841,-0.0129049
-0.00168089,-0.0192646
-0.025956,-0.0187545
-0.0737934,0.0306794
-0.0869863,0.030911
-0.0547648,-0.0024897
-0.0892848,0.0434993
-0.0268682,0.0728637
0.122094,0.112749
0.201706,0.0530415
0.164293,-0.0324289
0.0952335,-0.0260331
0.0128779,-0.0559763
-0.158258,-0.12536
-0.238677,-0.0777983
-0.0585773,-0.00157707
0.0718777,0.0180884
0.00624286,0.0455881
-0.0488081,-0.0144179
-0.0447269,-0.0248951
-0.0224395,-0.0212108
0.0415222,-0.00102402
0.056012,-0.0197071
-0.00811864,-0.0225887
-0.0379729,-0.0372255
0.0121329,-0.0270025
0.0692175,0.0205908
0.0273567,0.0162752
-0.0176731,0.0156952
0.0104308,0.0236698
0.0183168,0.0376827
-0.000806956,0.0417253
0.00397204,0.0155545
0.0219609,-0.00535714
0.0295119,-0.00429838
0.0297156,-0.000106666
0.0206969,-0.00316983
0.00867888,-0.00531363
0.00833635,-0.00217653
0.01568,-0.00958069
0.0191938,-0.0487211
0.010796,-0.0498948
-0.0162342,-0.000768
-0.0354312,0.0185345
-0.0361415,0.0113161
-0.0164219,0.00412307
0.00214719,0.0050603
0.00595468,0.00830811
-0.00411537,0.0248163
-0.00587127,0.0315934
0.00399009,0.0143564
0.0149594,0.0332608
0.0036257,0.0210231
-0.0401806,-0.0456953
-0.0225831,-0.0626151
0.00152079,-0.00776053
-0.0241921,0.00348464
-0.0290561,0.0341961
0.0254518,0.0131149
0.0485144,0.0062577
0.0249194,0.026843
-0.0496108,0.0622684
-0.0729115,0.00228259
-0.039535,-0.0130925
-0.0185136,0.0268527
-0.00332504,0.0276946
0.0287213,0.0576338
0.00908797,-0.0268963
-0.0323867,-0.0170846
-0.0676154,-0.0374525
-0.107416,-0.0475765
-0.103696,-0.0228582
-0.045256,-0.00947344
0.049017,-0.0092368
0.119772,-0.00885619
0.0405853,0.0207629
0.03427,0.0254316
0.229906,-0.0208961
0.294921,-0.0206451
0.168506,-0.0727492
-0.0704597,-0.0891252
-0.145275,-0.0159456
-0.0864814,0.0203252
-0.0163936,0.0117282
-0.0259909,0.00652948
-0.0665856,0.0103096
-0.0251153,0.0272579
0.00301037,0.0197085
0.00981719,0.00731777
0.00654621,-0.00359742
-0.00339718,0.0162115
-0.0189795,0.0117103
-0.0337628,-0.00330827
-0.0371854,0.00251801
-0.0201815,0.0116523
-0.00626022,-0.000250862
0.035916,-0.0242362
0.0623215,-0.0111143
0.0382782,-0.00112511
0.0222874,-0.0160181
0.00874497,-0.022724
0.00554601,-0.0155146
-0.00119394,0.0326962
-0.0279224,0.0143492
-0.0454782,-0.00734514
-0.0337336,0.00226176
-0.0179202,0.00806527
-0.0273955,0.0321328
-0.0643096,0.0033482
-0.111876,0.000688515
-0.079884,0.0345107
-0.0164499,0.0297311
0.0954032,0.0154299
0.145892,0.00736392
0.132617,0.0591011
0.0940516,0.048747
0.00382172,-0.0576043
-0.087106,-0.0767294
-0.0279907,0.00304004
0.0580713,-0.00591549
-0.00127396,-0.0348843
-0.064602,-0.00887417
-0.0842343,-0.00741682
-0.0399506,-0.0169429
-0.0471516,-0.0161996
-0.0552067,0.012419
-0.0163103,0.0357697
0.0186216,0.034338
0.0411976,-0.0195639
0.0413692,-0.0166765
0.0518165,-0.0123111
0.0577898,0.0161446
-0.00136297,0.0378318
-0.0582912,0.0173965
-0.00217138,0.00696433
0.0284854,0.029184
0.0145253,0.01139
-0.00540342,-0.0214143
-0.024544,-0.0259813
-0.0466994,-0.0417411
-0.025192,-0.0160789
0.000301973,-0.0066063
0.012012,-0.0255176
-0.0193035,-0.0210101
-0.0496756,-0.00251706
-0.00397716,-0.00808685
0.0387012,-0.00506282
0.0398912,0.0116494
0.082665,0.0318801
0.135186,0.0206457
0.129202,-0.00551633
0.0422505,-0.0171675
-0.0583099,-0.0304486
-0.0870308,-0.0234047
-0.0649261,-0.0263926
-0.0243414,-0.0277197
0.00757538,0.00371813
-0.00877041,0.0115087
-0.014772,0.0102053
0.0173294,0.0493498
0.0367859,0.0969639
0.0292052,0.00512669
0.0291002,-0.0260682
-0.0190335,0.0352898
-0.107976,-0.00691366
-0.111351,-0.0230511
-0.056613,-0.00809312
-0.0397704,0.00827214
-0.0231815,0.0231197
0.0279436,0.00531721
0.0625296,0.0103714
0.0388707,-0.00703602
0.0326004,-0.00624281
0.0355336,-0.0321469
0.0220942,-0.0243228
0.00874023,-0.0329884
0.00337495,-0.022561
-0.0432002,0.0033708
-0.0917515,-0.00337062
-0.0569935,0.0120958
-0.000421102,0.0147833
0.0425552,0.000977206
0.0196239,0.021664
0.00271953,0.0238559
0.00883996,0.0400257
-0.0139773,0.0897045
-0.016601,0.0470963
0.0163614,0.0255225
0.0939364,-0.0352889
0.212819,-0.0774959
0.116859,-0.0318356
-0.110361,-0.0190732
-0.153878,-0.0221362
-0.0991218,-0.010768
-0.0210604,0.000346712
0.00969021,-0.0314674
0.0495878,-0.0282916
0.0386753,-0.0104402
-0.02804,-0.000965735
-0.0807013,0.00697227
-0.0766361,0.00479772
0.00169736,-0.0156377
0.0616443,-0.0196754
0.063167,-0.0271835
0.0207107,0.00178049
0.0123776,0.0430477
0.0431724,0.038213
0.0458711,0.0406168
0.0216511,-0.0182917
-0.0231028,-0.019326
-0.0700291,-0.0209079
-0.0409322,-0.00274941
-0.0312817,-0.00460788
-0.0208772,0.0101161
0.00741304,0.031619
0.0161376,0.0362506
0.00346475,0.00379192
0.00728582,-0.0216383
0.0336777,-0.0117333
0.0397312,-0.0154674
0.00612081,-0.0220032
-0.0182977,-0.00917154
0.022697,-0.0389848
0.0388685,-0.0246061
0.0171853,0.00898359
0.0152823,-0.00428524
0.0219602,-0.0143272
-0.0169141,-0.00510563
-0.0842657,0.0282485
-0.108695,0.0498695
-0.111333,0.0722423
-0.150856,0.0380588
-0.158107,0.0656933
-0.00107845,0.0948013
0.306628,0.0181357
0.355098,-0.00831585
0.129592,-0.036944
0.0318148,-0.0436047
-0.188449,-0.02664
-0.289033,-0.023134
-0.130436,0.0267825
0.0177601,0.0190243
0.133208,-0.041193
0.325622,-0.0493283
0.291993,-0.0408911
0.00282977,-0.0384582
-0.200678,-0.0491639
-0.238269,-0.0295734
-0.182258,-0.0164912
-0.104959,-0.0100374
-0.0558777,0.0450259
-0.0063245,-0.00808439
0.0405022,-0.0205355
0.0430385,-0.00386973
0.0123012,-0.0018853
0.0389271,0.00512356
0.0629682,0.0152266
0.0328098,0.00626747
0.00215273,0.0375637
-0.00221385,0.0396729
-0.00969565,-0.0113621
-0.0248731,0.00496743
-0.00475259,-0.0093887
0.0488149,-0.011303
0.0758423,0.0158354
0.056899,0.020548
0.0268618,-0.0255312
0.00509911,-0.0198656
0.00798054,-0.02375
0.0179918,0.0101831
0.0189477,-0.00483459
0.00288618,-0.00893139
-0.0160716,0.00236834
-0.0282174,0.0509937
-0.0327865,0.0329038
-0.0326888,0.0075222
-0.0346011,-0.0228803
-0.0492909,-0.0138165
-0.0659068,0.0385773
-0.0374649,0.0659535
0.0202621,0.0399054
0.0445366,0.0693779
0.0137792,0.0277398
0.00402548,-0.0344829
0.0868994,-0.0321127
0.0856878,-0.042868
-0.0374606,-0.0335876
-0.108821,-0.0658463
-0.110503,-0.060694
-0.0305576,-0.00924415
0.0123133,0.00327938
0.0293263,-0.00848298
0.0533081,-0.0338855
0.0404701,-0.00757621
0.0265504,0.0294187
0.0472185,-0.00501509
0.0840171,0.0124553
0.0682421,0.0335748
-0.0145247,0.0345215
-0.0749952,0.00882795
-0.121361,-0.0144429
-0.107523,0.0096624
0.00239089,0.0251922
-0.0667923,-0.0194782
-0.0689939,-0.0382817
0.0350765,-0.0122603
0.0680462,0.0220605
0.0397814,-0.0117823
0.01568,0.000785583
0.000541351,0.0708672
0.0298244,-0.0255426
0.0647988,-0.0630868
0.0179611,-0.0449232
-0.0469122,0.00481326
-0.0100655,0.0419773
0.117673,0.0355385
0.142097,-0.00784094
0.0813305,-0.0149118
0.039306,0.00458692
-0.0268751,0.0122748
-0.0288881,0.0141671
0.041618,-0.0199625
-0.0278347,-0.0271051
-0.194623,0.0267555
-0.19485,-0.000671109
-0.0940861,0.00687442
-0.0362684,0.0472552
-0.0306418,0.0183421
-0.0258127,0.00187648
-0.0245275,0.0142237
0.00985546,0.0200318
0.0113104,-0.020491
-0.0467398,-0.000868242
-0.0332048,-0.0118616
0.0680385,-0.0105247
0.17013,0.011052
0.125073,0.0013337
0.0662267,-0.0309457
-0.0128705,-0.0202206
-0.0455979,0.00476481
-0.0287571,0.0089266
0.0101442,0.00122466
0.0376824,-0.0138807
0.0561353,-0.0130574
0.04547,-0.0154715
0.0335931,-0.0190414
0.0148262,-0.0233813
-0.00629756,-0.0172104
-0.0314825,0.00046021
-0.0574707,0.00766036
-0.0576883,0.0181872
-0.0461335,0.0144238
-0.0337057,0.00683325
-0.0200053,0.0246857
0.0160639,0.0505796
0.0247679,0.0458435
0.0319962,0.0182745
0.0232246,-0.0182255
0.00537669,-0.0202783
0.0137254,-0.0360444
-0.0165272,-0.0319401
-0.0875123,-0.00420753
-0.0866383,-0.0272341
-0.0640511,-0.0120172
-0.00673733,-0.00124275
0.0322073,-0.00864742
0.0117289,-0.0112598
0.0130623,0.0079306
0.062194,-0.00955517
0.06609,-0.0300786
0.102846,0.0309667
0.164197,0.0599837
0.0960981,0.0497463
-0.071739,0.0275259
-0.142245,0.0090773
-0.0856825,-0.00623357
-0.00984872,-0.0229728
-0.0217251,-0.0231937
-0.0253158,-0.0386634
0.0407003,-0.0531614
0.0458595,-0.0306607
0.00910262,0.00810167
-0.014078,0.0213984
-0.0116979,0.0201204
0.00441222,0.0155827
0.0132791,-0.00182617
0.00878,0.00937073
-0.0115495,0.0366649
-0.0029486,0.00690022
-0.0308503,-0.0318387
-0.0594878,0.00694168
-0.0332878,-0.00372069
-0.0210791,-0.0188757
-0.000958891,-0.00763721
-0.00617562,0.00179925
-0.0248666,0.0153786
-0.00217574,0.02849
-0.0117358,0.0481952
-0.0283132,0.0404511
0.0509981,-0.00623058
0.11742,-0.0127883
0.0872743,-0.0268778
0.00406902,-0.0377919
-0.0310153,-0.0464029
-0.0536664,-0.0342485
-0.0350935,-0.0041804
0.0101224,0.0228497
0.00761616,0.0278808
-0.0149178,0.00663091
0.00883105,-0.00663274
0.00276775,0.00159999
-0.060079,0.0181567
-0.0454937,0.00960094
-0.0043606,-0.00308988
0.0127997,-0.0181456
0.0209416,-0.00754105
0.0298363,0.0194515
0.0526148,0.0101398
0.0766574,-0.0137501
0.0424584,-0.0179097
-0.00458727,-0.00393261
0.0259935,0.00251719
0.002709,0.0104222
-0.109855,0.01285
-0.132767,0.00434787
-0.0347879,-0.0102803
-0.000451236,-0.0048188
-0.0203003,0.0058004
-0.00535937,-0.00480745
-0.0191366,-0.0277697
-0.0054178,-0.0217494
0.0474179,-0.00655797
0.0263436,0.0039559
-0.0208872,0.0101924
-0.0294619,-0.00540542
0.0206462,-0.0221955
0.0925369,0.0480651
0.145728,0.0660872
0.215264,0.0483853
0.16199,0.0280175
-0.017134,-0.00934984
-0.14187,-0.0421739
-0.192306,-0.0406516
-0.192708,-0.0231445
-0.0677174,-0.0046712
0.0807637,-0.00409008
0.0794658,-0.0165412
0.0423613,-0.0220337
-0.00265274,-0.0113877
-0.0547681,0.0186924
-0.0609922,0.0200036
-0.0320143,0.000652389
-0.0376682,0.0172754
-0.0233142,0.0326377
0.040056,0.0108993
0.0464384,0.00226863
0.0201061,-0.00926355
0.000968395,-0.0139064
-0.00717621,-0.00906077
-0.0345901,-0.0125421
-0.00304607,-0.0219334
0.0519753,-0.000260015
0.0694648,0.0281609
0.0724156,0.0219074
0.0209169,0.0184506
-0.00577172,-0.00599532
0.0138045,-0.00636734
-0.0229259,-0.00170133
-0.0938374,-0.0153467
-0.0863885,0.00266486
-0.0297877,-0.00332188
-0.0306136,0.00146186
-0.0449261,0.000629397
-0.0338081,0.0540301
0.0178035,0.0930883
0.019237,-0.0676788
-0.00998134,-0.0824239
0.025438,-0.0479532
0.108683,-0.00532773
0.108265,-0.00245049
0.0364604,-0.00779281
-0.0300478,-0.000598547
-0.0856309,-0.00213096
-0.0405068,-0.0103121
0.0155289,-0.0278284
0.060058,-0.0390902
0.0318781,-0.00755595
-0.0275749,0.0270858
-0.0350322,0.0298381
-0.0242531,0.0345462
0.024236,0.0186009
0.0609488,0.00140785
0.0451574,0.0150056
0.0145458,0.0392935
-0.0238144,0.0292364
-0.0427578,-0.00852822
-0.0197175,-0.0437873
0.00529484,-0.0383507
0.0159099,0.0104188
0.00779072,0.0303118
-0.0161466,-0.0228881
-0.0238393,-0.0277925
0.00753222,-0.0324048
0.0310084,0.0318317
0.0328847,0.0178431
0.0379671,-0.0725396
-0.0318646,-0.017955
-0.103131,0.0518863
-0.060615,0.0659688
-0.0107404,0.0329343
0.0363728,0.096569
0.0372707,0.113683
-0.00467476,0.0361012
0.0292626,0.00935084
0.0282784,-0.019397
-0.062667,-0.0565822
0.0308651,-0.130455
0.0170614,-0.0688599
-0.0786876,-0.0414927
-0.0570519,-0.0527862
-0.0416076,-0.0321986
-0.0540696,0.00197821
-0.0719351,0.011505
-0.0616556,0.00953707
0.00190708,0.0129337
0.0734708,0.00320023
0.15279,-0.0258351
0.130607,-0.0225658
0.0349219,0.0024485
-0.007501,0.0128227
0.00144136,0.00646867
0.00634187,0.011878
-0.00346201,0.0113861
-0.0158994,0.0104385
-0.0097461,0.0140952
0.00881419,0.0141569
0.0213952,0.00625297
0.0151621,0.00322801
0.00499032,0.0148761
0.00560513,0.0205416
0.0131687,0.00461099
0.0198186,0.00242952
0.00953377,-0.0010263
-0.0142078,0.000867015
-0.0282879,-0.0154398
-0.030655,-0.022473
-0.0251163,-0.0268826
-0.0179839,0.00613098
-0.0205355,0.0465423
-0.0272403,0.0209441
-0.0166143,-0.0214437
-0.0115809,-0.00197973
-0.00408511,0.012856
0.0161169,-0.00718173
0.0170889,0.0178846
0.0055522,0.0312139
-0.00775839,-0.0181091
0.0281844,-0.0274941
0.103983,0.0769794
0.162089,0.0680351
0.149895,0.0412095
0.0288557,0.024004
-0.0215607,-0.0764123
-0.111519,-0.0531367
-0.308014,-0.0154141
-0.370827,-0.0431866
-0.240593,-0.0306501
0.0204986,-0.0179288
0.18802,-0.0151222
0.183057,-0.00509528
0.113769,-0.0231953
0.0982694,-0.0133676
0.0657647,0.013029
-0.00541381,0.0366608
-0.0388134,0.020567
-0.0209097,0.00784009
-0.0172264,-0.00686837
-0.0239654,-0.0260667
-0.0496509,-0.0202877
-0.0153273,-0.00944953
0.0427626,-0.00223603
0.0536001,-0.00784106
0.038616,-0.00308937
0.000116998,0.0172451
-0.0214775,0.0103272
-0.0136918,0.00106365
-0.0212521,-0.00540113
-0.0483749,0.0139798
-0.0554796,0.027795
-0.00358043,-0.00231475
0.0358928,0.00473517
0.0303097,0.0370554
0.0581444,-0.00187237
0.0773684,-0.0504902
0.0445624,0.00240851
0.012543,0.081144
0.00735551,-0.0252404
-0.00740324,-0.0567507
0.0104937,0.0307592
-0.00917257,0.00918497
-0.0424291,-0.0325025
-0.0383377,0.00751577
-0.0164055,-0.00276178
0.0214526,-0.0187628
0.0190754,-0.0135869
-0.0154434,-0.0145713
-0.0428876,0.0179381
-0.0561013,0.0458964
-0.00906873,0.00032635
0.0244911,-0.0273027
0.0026687,-0.0197424
-0.0209476,0.00674529
-0.0406551,0.0210497
-0.0134393,0.00558444
0.0585571,-0.000351092
0.0463518,0.0136747
0.0165701,0.00594311
0.0118415,0.00331506
0.0240675,0.00349516
0.0188581,-0.00198795
-0.00356611,-8.04e-05
-0.0243146,0.00613008
-0.0265926,-0.0116787
0.0340174,-0.0102082
0.0360804,-0.00659204
-0.000699049,-0.0138459
-0.0378112,-0.0227397
-0.0486518,-0.0242289
-0.0480487,0.0101796
-0.0260636,0.0215427
-0.00347138,0.0110036
0.00430504,0.0244488
-0.000270094,0.0168931
-0.0162017,0.00583292
-0.013311,0.00565959
0.00336121,-0.0225708
-0.00591644,-0.0143675
-0.0156209,-0.00221966
-0.00985976,-0.00301169
0.00110586,0.0107756
0.0618649,0.0153397
0.147033,0.00211248
0.193513,-0.018618
0.193845,0.0148351
0.173732,0.00810251
0.095081,-0.0318429
-0.0799145,-0.0415475
-0.307705,-0.0196022
-0.321759,0.021245
-0.186202,0.0552403
-0.104219,0.027009
-0.0579328,0.0134274
0.00116686,-0.0042706
0.0475316,-0.0175226
0.0760648,-0.0307978
0.0241462,-0.0341989
-0.0156334,-0.0247517
-0.0113315,-0.00754566
-0.0216394,0.0189209
-0.0263889,0.0167909
0.0146242,0.00951776
0.0534019,0.00326481
0.0494142,-0.0419921
0.014939,-0.0113541
-0.00581059,0.0212041
-0.0154347,0.00785995
0.00422509,0.030336
0.0799987,0.0246036
0.144112,0.029728
0.207329,0.0578509
0.248712,0.0352164
0.0927867,-0.00159431
-0.104619,-0.0487003
-0.184221,-0.0441878
-0.243447,-0.0223676
-0.226229,-0.0129202
-0.121039,-0.0301689
-0.0198314,-0.0210012
0.0270482,0.00468471
0.0467518,0.0242
0.0632301,0.0226313
0.00334055,0.0280669
-0.0450367,0.0108255
-0.00970667,0.00753429
0.039616,0.00365878
0.0434653,0.0169235
0.027343,0.0394763
0.0441755,-0.00656807
0.0333878,-0.0785144
0.0145334,-0.0496397
0.0110815,-0.0195105
0.0108946,0.00371119
-0.00179761,-0.00902669
-0.027418,-0.0383421
-0.0489737,-0.0207462
-0.0330283,0.0111976
0.0215904,0.0256183
0.0344369,0.00806755
0.0286428,-0.021622
0.0292484,0.0257988
0.00768774,0.00419543
-0.00650264,-0.00609701
-0.0378244,0.0632155
-0.0141493,0.00933144
0.0701126,-0.026156
0.136973,0.0206349
0.160242,0.0449716
0.0723711,-0.0146604
-0.0922126,0.0042186
-0.19952,0.0232743
-0.228239,-0.0479551
-0.122533,-0.0262354
0.012289,0.00871862
0.0762549,0.00366861
0.0977539,-0.00616783
0.0315892,-0.0250013
-0.015343,0.0311751
-0.0130249,0.0483294
0.00511956,0.00797955
0.040113,-0.0193399
0.0582491,-0.019215
0.0747404,0.00223341
0.0362537,0.00660446
-0.117608,-0.011469
-0.14456,-0.0297924
-0.089555,-0.0224401
-0.0531278,-0.00864225
0.0181537,-0.0124445
0.0598583,-0.0304669
0.0929486,-0.00852084
0.0754717,0.0388127
0.0151774,0.0340887
-0.0216794,0.0230353
-0.0218787,0.0105936
-0.0165732,0.0140728
0.0376856,0.0212569
0.0834168,-0.0208049
0.0152908,-0.0267084
-0.0792042,-0.0100449
-0.107367,0.00203176
-0.102664,0.00825228
-0.03017,-0.000610187
0.0190636,-0.0105971
0.0260336,-0.00393939
0.0548404,-0.00256829
0.0682241,0.00361857
0.0324449,0.0239612
0.00881704,0.0276409
-0.0247086,0.0275528
-0.0591622,-0.00213489
-0.0136983,-0.0135532
-0.0271195,-0.00473256
-0.0267697,0.00476731
0.0175667,0.00151033
0.0423197,-0.00913632
0.0346835,-0.0133281
-0.0165865,-0.0117185
-0.0275317,-0.0156396
-0.00186825,-0.0202948
0.038584,-0.0192473
0.0463861,-0.00586425
0.00112518,0.013742
-0.00561686,0.000480698
0.0162459,0.00436544
0.0529028,0.0078033
0.0857867,-0.00519616
0.00186559,0.00660692
-0.056082,0.0105282
-0.0257713,0.00642495
-0.0072109,-0.00767506
0.00318552,-0.0118593
-0.00560176,-0.00833505
-0.0143879,0.0103874
-0.000178106,0.0154719
0.0242056,-0.0030332
0.0149132,0.0071517
-0.00158198,-0.0101133
-0.0178124,-0.0223043
-0.0256198,-0.00526229
-0.00860776,0.00657657
0.0384226,0.0104391
0.0260013,0.0299966
-0.0383479,0.023862
-0.0405832,0.000130754
-0.114929,-0.0105177
0.011027,-0.00743377
0.132643,-0.0184417
0.0783144,-0.0157136
-0.0402475,-0.0308355
-0.143223,-0.0399659
-0.157113,0.0132804
-0.0243802,0.0490586
0.0526337,0.0258651
0.0131776,0.00852005
0.0127703,0.00662253
0.0758814,0.00299189
0.0620557,-0.00378858
0.0634904,-7.59e-05
0.0566049,0.00428011
0.00911337,0.0165081
-0.0295852,0.000532999
-0.0989875,-0.0172562
-0.125293,-0.0130052
-0.0633687,-0.0103874
0.0107857,0.00829416
-0.0101185,0.0453665
-0.026255,0.0321058
-0.0121614,-0.0108885
-0.0601186,-0.0236847
-0.133914,-0.0127711
-0.108667,0.00538377
0.082302,0.00297011
0.193633,-0.0118704
0.171693,-0.011549
0.150028,-0.000552774
0.0935608,0.0129286
0.113939,-0.00552443
0.0885734,-0.02056
0.0510621,-0.0111898
0.0271283,-0.0197071
0.00649772,-0.0316427
-0.0219832,-0.0243397
-0.0570739,-0.000295118
-0.0523358,0.00291774
-0.0701786,-0.00179125
-0.0621038,0.00933373
-0.0139025,0.0175395
0.0449731,0.0139776
0.0427477,-0.00373074
-0.0146287,-0.0147205
-0.0287405,-0.0099742
-0.0270001,0.00258386
-0.0145418,0.0107769
-0.0433806,-0.00564501
-0.0899686,0.00134431
-0.0825151,0.0200533
-0.0651519,0.0178897
-0.0381081,0.015086
0.0267814,0.0103941
0.0830866,0.0376186
0.20832,0.0643809
0.184032,-0.0164715
-0.0328467,-0.0138674
-0.120373,-0.0173248
-0.140518,-0.0471336
-0.146248,-0.0299307
-0.0739411,0.0108099
0.00783013,0.0412697
0.138131,0.0123255
0.131333,-0.0179344
-0.0471195,0.0164059
-0.130821,0.0140227
-0.128524,-0.00852637
-0.101777,-0.0287857
-0.0497163,-0.0339732
0.0422504,-0.0145234
0.102523,-0.00254151
0.0142861,0.0302211
-0.0642036,0.0185004
-0.0416575,0.0480874
0.00884656,0.0144949
0.0590529,-0.0277635
0.11207,-0.00905384
0.0475204,-0.0310818
-0.0236491,-0.0331684
-0.0307084,0.0363934
-0.0232739,-0.0261651
-0.0470612,-0.0199427
-0.00186548,-0.0155081
0.0577936,-0.0185307
0.0594237,-0.00825024
0.0606557,0.0197228
0.0590781,0.0415958
0.0543521,0.0220355
0.0827821,-0.00569096
0.0781459,-0.0115874
0.0479888,0.0619063
0.0352379,0.121261
-0.0751447,-0.00052083
-0.157162,-0.0789731
-0.038335,-0.0850166
0.0994743,-0.0477953
0.10036,-0.0214691
0.0330565,-0.00938376
-0.0150373,-0.00345093
-0.091013,-0.00341122
-0.20243,-0.0108312
-0.172364,-0.0101823
-0.0646681,-0.00420518
0.0106621,0.00499701
0.077995,0.0118593
0.083115,0.0142039
0.0765723,-0.00651337
0.0362027,0.00951446
-0.0450445,0.0342256
-0.0597734,0.00854425
-0.00817953,-0.000184731
0.00553189,0.0163339
-0.0417085,0.0394258
-0.0187724,0.0333685
0.0352594,0.0170382
0.0525306,0.0269682
0.0467977,0.0098156
0.0144068,-0.036906
-0.0488187,-0.0585155
-0.0613519,-0.035869
0.0248293,-0.015259
0.0435567,-0.0118213
-0.00643877,-0.00922981
-0.0392197,0.0273656
-0.0470257,-0.00766104
0.0135048,0.0119376
0.0690135,-0.00705136
0.0331036,0.000945852
0.062804,-0.0357687
0.0672517,0.0137074
0.0279703,0.0117772
0.0290436,0.0210659
0.0412172,-0.0196418
-0.0101007,-0.0147469
-0.0581631,0.0145223
-0.0549989,0.0077462
-0.0084495,0.0140638
0.0467237,0.0306028
0.0768276,0.0251321
0.104304,-0.000711455
0.0276391,-5.63e-05
-0.0998389,-0.0372634
-0.148403,-0.0203462
-0.121042,-0.00751545
-0.0481819,-0.0148836
-0.00992465,0.0224724
0.00822505,0.0359866
-0.00990614,0.0105406
-0.0422249,-0.024699
-0.101245,-0.0179625
-0.0998633,-0.0233938
-0.0370813,0.00402407
0.000366382,0.0103297
0.00682448,0.0165688
-0.0101303,0.104164
0.00864481,0.0456424
0.0941496,-0.0263411
0.209255,-0.0507554
0.226762,-0.0444051
0.151696,-0.0154832
0.0600139,-0.0177032
-0.0415336,-0.0132537
-0.162737,-0.00394885
-0.125852,-0.0192772
-0.038644,-0.0101258
0.00936357,0.0196521
0.0752247,0.00623208
0.10149,0.0139792
0.0640835,0.0245185
0.0365356,-0.0157765
-0.0594268,-0.0133351
-0.160055,-0.00454687
-0.168363,0.00239008
-0.0919602,-0.00376118
-0.0307991,-0.00954494
-0.0149458,-0.000445726
-0.0129663,0.0251633
-0.00174529,-0.00821131
0.00621434,-0.0151487
0.0184267,0.00736444
0.0357995,0.00281437
0.0619957,-0.0109307
0.0574705,-0.000789488
-0.0100525,-0.00256496
0.0209295,-0.00758485
0.0707295,0.00520276
0.0519198,0.0277746
0.0456588,0.0298144
0.0376314,-0.0117227
-0.0194039,-0.0224314
-0.0649427,-0.00798712
-0.0564747,0.00056638
-0.0584807,0.011253
-0.0610845,0.00789296
-0.0412842,0.000772846
-0.0371131,0.014872
-0.038164,0.0210062
-0.0154745,0.00372278
0.0252123,0.00672943
0.0606567,-0.00505289
0.0783409,-0.00618378
0.0681973,-0.0134387
0.0423132,-0.00406937
0.0626276,0.0176545
0.0770039,0.0188782
0.043491,0.00277027
0.0325524,-0.03311
-0.0115878,-0.0187768
-0.0612228,-0.00539764
-0.0186925,0.00183191
0.00114232,0.00692779
-0.00732218,0.00499582
0.00677653,0.0034055
-0.0163812,0.00836055
-0.0733805,-0.0157658
-0.0953817,-0.0265294
-0.0798934,-0.0231464
-0.0466418,0.00516631
-0.0315878,0.0104921
0.00261009,0.00250268
0.0270942,0.000696603
0.0201701,-0.00955657
-0.00526271,-0.00211901
-0.00284616,0.0079166
0.0372125,0.00210361
0.0635158,-0.00658197
0.0851497,-0.00500505
0.0422187,0.0161756
-0.077003,0.0413532
-0.051636,0.027793
0.0369214,-0.00506335
0.0530753,0.0184128
0.0385229,0.0300693
0.0131167,-0.0567791
-0.0405286,-0.0515972
-0.0659707,0.0157807
-0.0410066,0.0161077
-0.0230606,-0.00709279
-0.0261709,-0.0141895
-0.0122813,-0.00382808
0.0132867,-0.00206791
0.0116463,-0.0162708
-0.0194048,0.0044325
-0.0146071,0.0264047
0.0310307,0.00794834
0.047328,0.012792
0.0438273,-0.00361497
0.0355347,-0.0215737
0.0288344,-0.0153307
0.0168167,-0.0115406
0.00681928,-0.0119437
0.0176643,-0.0130133
0.00868028,-0.010019
-0.0122689,0.0160326
-0.0288523,0.0149613
-0.0263932,-0.0149461
-0.00370388,-0.0108558
0.00917304,-0.011302
-0.00134653,-0.015982
-0.00906176,-0.00845546
-0.0148983,-0.000915048
-0.01237,0.0111238
-0.00144775,0.0156889
0.00171882,0.00339071
-0.00159032,-0.00199996
-0.00305754,0.00544392
-0.0127169,0.0209256
-0.0283946,0.0247468
-0.0426946,0.00517784
-0.0293868,0.0156829
0.0414384,0.0269987
0.0902017,0.0177205
0.0292071,0.015947
-0.0603979,-0.00215969
-0.0848676,-0.0174582
-0.0510966,-0.000111647
-0.000493201,0.00924302
0.00801682,0.0110814
0.000966055,0.0258187
0.0487043,0.00819419
0.0968371,-0.0132867
0.0623198,-0.0221177
0.0446412,-0.028518
-0.00570339,-0.00680721
-0.064223,-0.00296884
-0.0504882,-0.0200351
-0.00814825,-0.024295
0.00592794,-0.0148495
-0.0255117,0.0028542
-0.0545541,-0.00208464
-0.0172969,-0.0190935
-0.0216143,-0.00726736
-0.0595004,0.00301268
-0.0834874,0.0134491
-0.0755083,0.0332199
-0.0290538,0.0386962
-0.0394893,0.0351237
-0.0261027,0.0127243
0.0735439,-0.00159116
0.11746,0.00093087
0.125112,-0.0152948
0.114251,-0.0337515
0.109512,-0.0230601
0.0743181,0.0037916
-0.0118661,-0.00502139
-0.0802399,-0.00536817
-0.107898,-0.00139566
-0.0975548,0.00270434
-0.0561526,-0.00144577
-0.01918,0.0200597
0.0371141,0.020372
0.128386,0.00400042
0.182345,0.00251702
0.132456,-0.00874013
0.034992,-0.0370068
-0.0525305,-0.0482112
-0.0527123,-0.0300604
0.0134189,-0.00837835
0.0280554,-0.0123857
0.00267162,0.0219646
-0.00720284,0.00403429
-0.0340038,-0.0192487
-0.00909901,0.000701289
0.0296421,-0.000513052
-0.0139431,-0.010226
-0.0694916,-0.000676524
-0.0720002,0.0139726
-0.0274795,0.0164874
-0.00545543,0.0221712
0.0779022,0.0349194
0.153837,0.0401604
0.0397322,0.0117048
-0.0915906,0.01029
-0.147517,-0.00885014
-0.153086,-0.019945
-0.107252,-0.00651356
-0.0437664,0.0121818
-0.0036596,0.00742898
0.0303351,0.000361547
0.0274103,0.00373356
0.0124961,-0.0103816
0.0125085,0.00836929
0.0143976,-0.0339316
0.0116895,-0.0433293
0.00557707,-0.00324574
-0.00397116,0.00720616
-0.0183842,0.0130803
-0.0328894,-0.000621658
-0.0359279,0.0087576
-0.0150159,0.0148029
0.00319517,0.00335136
0.0109205,-0.0110005
0.0112289,0.00605135
0.00871416,0.0197897
0.0162318,0.017021
0.0242886,0.0127994
0.0346534,0.000350447
0.0327639,-0.0101804
0.0214983,-0.0126168
0.0117565,-0.00782497
0.0102933,-0.00574312
0.00926192,-0.000398256
0.00740551,0.00567962
0.00289828,-0.0009319
0.00713582,-0.00870949
0.0191353,-0.0068125
0.035056,-0.00441832
0.0393703,-0.00262329
0.0223867,-0.00628038
-0.0210343,-0.000544677
-0.0600466,0.00445936
-0.058281,0.00159312
-0.0214683,0.00523714
-0.0204814,0.00376633
-0.0483686,-0.00411185
-0.0404474,-0.00863383
-0.0142798,-1.59e-05
0.0132096,0.00701276
0.0370469,0.0145952
0.0742076,0.0198818
0.11286,0.0146575
0.115296,0.00842894
0.0664136,0.00249995
-0.0187102,-0.00612621
-0.0801963,-0.0151639
-0.101353,-0.0106259
-0.109975,0.00186977
-0.0549481,0.00237181
0.00331865,-0.00365637
0.0385747,-0.00774735
0.04011,-0.015211
-0.000359452,-0.0160588
0.00105673,-0.00827636
0.00476227,0.00208828
-0.000955947,0.0039558
-0.00189619,0.0142438
-0.018941,0.0169566
-0.0209786,-0.00834007
-0.0233463,-0.0107465
-0.0167377,-0.00470769
-0.00942886,-0.00701742
-0.0189896,-0.00859432
-0.0222535,-0.00167513
-0.00598544,0.00712264
0.0150882,0.00378106
0.082212,0.000577682
0.199421,0.00389757
0.257089,0.00406412
0.216985,-0.00109858
0.106906,-0.00357208
-0.0408053,-0.00674753
-0.187047,-0.00503591
-0.243332,0.00154767
-0.206264,0.00172609
-0.139362,-0.00592403
-0.0837376,-0.00272751
-0.0167723,0.00123381
0.0164301,0.00165512
0.0137081,0.00081645
0.0040865,0.0118349
0.0122026,0.0180049
0.0101339,0.0105917
-0.00844275,0.00446835
-0.0084595,-0.00443792
0.00858422,-0.012862
0.00877479,-0.0159232
0.00492815,-0.00840053
0.0032013,-0.000110838
0.0122536,0.00513016
0.014135,0.0114176
0.013692,0.0111765
0.0195809,0.0089451
0.0132686,0.00289585
0.00736733,-0.00551447
0.00201878,-0.0120775
0.000795877,-0.00775456
0.00730508,0.0114275
0.0179512,0.0131465
0.0272094,0.0026945
0.026075,-0.00132607
