Comp Ch 3,Comp Ch 4
0.00216384,-0.0171427
0.0286989,-0.0228394
0.0485382,-0.0219788
0.0511243,0.0328614
0.0508256,0.00819935
0.0498125,-0.0352285
0.040893,-0.0263309
0.0105091,-0.0275697
-0.0154638,0.00523632
-0.0684721,0.0258474
-0.0826321,0.0202418
-0.0366131,0.00585692
0.0103108,0.0169176
0.0190907,0.0124321
0.0229968,-0.0116341
0.0170659,-0.0209319
0.00994956,0.000782751
-0.000257559,0.0197818
-0.00462495,0.00569321
-0.00851954,0.00293781
-0.0142908,0.0174666
-0.0228679,0.0122242
-0.0165487,-0.00738104
-0.000369492,-0.0136004
0.00317905,-0.00274806
-0.00535739,-0.00526765
-0.00559508,-0.0114421
-0.00728547,0.00710023
-0.0165717,0.0110004
-0.0129745,0.0109724
0.00486846,-0.00293674
0.0193144,-0.0333769
0.01718,-0.0419046
0.0123314,-0.00484358
0.0191084,0.0189132
0.0218444,0.0271126
0.0140355,0.0378737
0.00242927,0.0264269
-0.00781964,-0.00199419
-0.016021,-0.0163128
-0.0264103,-0.00859645
-0.0312296,-0.0171073
-0.0163011,-0.0274174
-0.0110845,-0.0341111
-0.0137337,-0.0302996
-0.00291054,-0.00447778
0.00469512,0.0135743
0.00547946,0.00882784
0.0124759,0.0111139
0.0191792,-0.00520017
0.0132506,0.00154297
0.00766039,0.0490269
0.0046975,0.0653412
-0.00241954,-0.0126559
-0.009183,-0.0318438
-0.00947521,0.00472568
-0.00657673,-0.0085965
-0.00780764,0.0552798
-1.59e-05,0.135624
0.00148968,0.137138
-0.00902267,0.0780214
-0.018716,-0.0154494
-0.0130541,-0.0871946
0.00992208,-0.0836527
0.0242945,-0.110824
0.0189262,-0.104021
-0.0161028,-0.0757589
-0.0350453,-0.057336
-0.0165805,-0.0302493
0.0121344,-0.0136129
0.0251981,0.00458302
0.0433761,0.051286
0.0716218,0.0376904
0.0588999,-0.0251768
0.0319728,-0.0257528
0.0206187,-0.00857619
0.0123781,0.00522199
0.00592133,0.0229418
-0.00636829,0.0245964
-0.00758252,-0.0125185
-0.00100577,-0.00396066
-0.00641839,0.0119692
-0.0399784,0.0127828
-0.0625634,0.0429536
-0.0570668,0.0546205
-0.0465701,0.0476702
-0.0179153,0.0469332
-0.0592771,0.0186097
-0.238343,-0.032022
-0.369838,-0.0564091
-0.328286,-0.0615696
-0.122478,-0.0924333
0.148809,-0.0571724
0.345399,0.0449388
0.376463,0.0466636
0.292642,0.0305595
0.217735,0.0241833
0.149268,-0.00143992
0.0392101,-0.0042129
-0.0174776,-0.00260012
-0.0162468,0.0228381
0.0152128,0.0517132
0.0216783,0.077809
-0.0267093,0.0741067
-0.0433577,0.0254255
-0.023804,-0.109236
-0.0261997,-0.11991
-0.038328,-0.0236374
-0.0258831,0.00262052
-0.039033,-0.0238429
-0.0860465,-0.00028139
-0.106349,0.0162667
-0.0571041,0.00851714
-0.000709923,0.00399871
0.018313,-0.000566747
0.0082227,-0.0192662
-0.0101804,-0.0111006
-0.0860009,0.00637914
-0.149869,0.0131761
-0.0358866,0.0163734
0.114384,0.0272317
0.185725,0.0177884
0.15099,-0.0152337
0.0475153,-0.0392273
-0.0164135,-0.0364089
-0.0493969,-0.051245
-0.0493533,0.0190426
-0.0249171,0.0658136
-0.0171699,0.0482852
9.76e-05,0.0205898
-0.00590284,-0.000468531
-0.0257324,-0.0141058
-0.0287408,-0.0416589
-0.00185386,0.00632448
0.026504,0.0386351
0.0313794,0.00657739
0.0186809,0.00655121
0.0100049,0.0383821
0.00778325,0.0189347
0.00236183,-0.0192336
-0.0145797,-0.0365645
-0.0328415,-0.0415591
-0.0424958,-0.0296563
-0.045699,-0.00574075
-0.0298113,0.00949565
-0.0158886,0.00808368
-0.0217588,0.00083959
-0.0321467,-0.0155316
-0.0153352,-0.0110051
0.0165405,-0.000606352
0.0418446,0.0166146
0.0531807,0.0235738
0.0505018,0.0194714
0.0394636,0.0245308
0.0301211,0.0288345
0.0275744,0.00973614
0.0217299,-0.0194427
0.00560824,-0.0268011
-0.0180422,-0.0232558
-0.036916,-0.0116956
-0.0409244,0.00517058
-0.030405,0.0111812
-0.0206694,0.00625873
-0.0179997,0.00810141
-0.0147213,-0.018664
0.00168697,-0.00982272
0.0215563,0.00792089
0.0356058,0.00850483
0.0337033,-0.00671328
0.0303245,0.0204225
0.027792,0.0389795
0.0188167,0.025543
0.0137928,-0.0130133
0.00133573,-0.0246515
-0.0176098,-0.0287691
-0.0254952,-0.0609017
-0.0460788,-0.0580067
-0.0430543,-0.00434828
-0.0156386,0.033595
0.00382245,0.0227112
0.00407984,0.0103854
-0.021028,-0.037694
-0.00531151,-0.0257764
0.0310668,-0.00996341
0.040853,0.0191829
0.026428,0.0133306
0.00794541,0.0301346
-0.00624795,0.0565921
-0.0273139,0.0269343
-0.0229572,-0.00614976
0.00602385,-0.0185178
0.0354601,-0.0175223
0.00405568,-0.0174284
-0.0301175,-0.0126938
-0.0374651,-4.9e-05
-0.0158373,0.012352
-0.0129808,0.00742069
-0.0787387,-0.0131031
-0.0965867,-0.0229848
-0.0269972,-0.0131742
0.0689208,0.000377323
0.133784,0.0289694
0.139203,0.0310322
0.123213,0.014125
0.0850677,0.0220073
0.0100651,0.00863416
-0.0358405,-0.0281362
-0.0223211,-0.0331423
-0.0263788,-0.0219945
-0.0328683,-0.00810581
-0.0296806,0.00520347
-0.0243057,0.0119912
-0.0441627,0.00313935
-0.101151,-0.0213333
-0.140531,-0.0130809
-0.122257,-0.00271267
-0.0713711,0.00146719
-0.00244099,0.0232802
0.0279631,0.0115911
0.0409474,0.0147376
0.0774532,0.0379872
0.0839884,0.0309285
0.0699676,0.000384028
0.0421309,-0.0410666
0.0198637,-0.0280108
0.00202771,0.00685905
0.00686123,0.00563856
0.00961837,0.00118741
0.0288206,0.0139775
0.0261497,0.00527166
0.0168081,0.00360767
0.0318981,-0.00956132
0.0249808,-0.026601
0.00727302,-0.0036054
-0.00115877,0.0230557
-0.00417985,0.00403657
-0.00884736,0.00847568
-0.0116379,0.0392973
-0.0112421,0.0172735
-0.026188,-0.0222608
-0.0638321,-0.0443858
-0.062532,-0.0501686
-0.05225,-0.0477035
-0.0258502,-0.0257225
0.0181401,-0.00313134
0.0304352,0.0383046
0.0198726,0.0311062
-0.000664185,0.0227819
-0.0595001,-0.00600121
-0.0848719,-0.017361
-0.030343,0.00582622
0.0408661,0.0187174
0.0882128,0.0171196
0.107864,0.0208749
0.0696434,0.0152401
0.0160548,-0.0269671
-0.0136418,-0.0228764
0.018014,0.0424744
0.0472841,0.0156725
0.0284239,-0.0203717
0.0102906,-0.0120276
-0.00271386,0.00504275
-0.0283693,0.00364093
-0.0567029,0.02081
-0.0595347,0.00617523
-0.0455037,-0.0212967
-0.0344358,-0.0156964
-0.0427668,0.0005634
-0.0296194,-0.0052612
0.00926424,-0.00127464
0.0299819,0.0208153
0.0316813,0.0236986
0.0405865,0.000985007
0.0311503,-0.0233602
0.00496767,-0.022362
-0.0168893,-0.0188294
-0.024189,-0.00182541
-0.0153017,0.0157116
-0.00371198,0.0152943
-0.00446893,9.87e-05
-0.0172301,-0.00581363
-0.00690264,-0.00308159
0.00882677,-0.0669405
0.0137455,-0.0055998
0.00945764,0.0373607
-0.00164987,0.013839
-0.00603071,0.0210054
-0.0052648,0.0337291
-0.00592195,0.0254983
-0.00110938,0.000101293
0.00497815,-0.021874
0.00623756,-0.0202222
0.00758859,-0.016055
0.00881496,-6.43e-05
0.00549128,0.00798291
-0.000243269,-0.00443557
0.0038004,-0.00561575
0.0133074,-0.00692758
0.0180062,-0.0218058
0.0163835,-0.0141359
0.000824844,0.016894
-0.0149977,0.0257642
-0.0145423,0.0113839
-0.021383,-0.0200845
-0.0611195,-0.00359919
-0.0684792,-0.00052594
-0.0383279,-0.0208762
-0.011015,-0.00810394
0.00620727,0.0114455
0.0330951,0.0264518
0.0739381,0.0292743
0.0860128,0.00619502
0.0453562,-0.0290094
0.0205292,-0.0125576
0.0139433,-0.00575588
0.00210655,-0.0283989
-0.00908232,-0.0199982
-0.0566834,-0.0182778
-0.0955393,-0.00045205
-0.0681451,0.0206092
-0.0222049,0.0270797
0.0171641,0.0215371
0.0664423,0.00612833
0.0887779,-0.00944088
0.0596487,-0.0165829
0.0208622,-0.0161474
0.00497338,0.0225185
-0.000658968,0.0284655
0.00864914,0.0295211
0.010788,0.0186352
-0.00514883,0.00722765
-0.0185898,-0.0182933
-0.0191214,-0.0348024
-0.0281636,-0.0128911
-0.0544963,0.00298157
-0.0429679,-0.00901122
-0.0401425,0.00156581
-0.0387186,0.0208833
-0.0250192,-0.00847938
-0.0125163,-0.0482577
0.0416828,-0.00609559
0.0887389,0.0167227
0.0707751,0.00717343
0.0534445,0.0149985
0.0367144,0.0232715
0.00709766,-0.00457027
-0.00755885,0.011466
-0.0405542,0.015421
-0.0499172,-0.0186761
-0.0205448,-0.0239664
-0.00106385,0.000794943
0.0215758,-0.000833575
0.0230829,0.00243366
-0.0292117,9.13e-05
-0.0509713,0.0225462
-0.0485683,0.0196725
0.00017386,0.00169482
0.01983,-0.0110223
-0.00692338,-0.0114099
-0.0615067,-0.00182871
-0.0803732,0.00449421
-0.0376251,-3.85e-05
0.0512124,-0.00677178
0.109188,0.00819994
0.11888,0.00979056
0.0679592,-0.0181842
-0.0152388,-0.0202228
-0.0528331,-0.00573893
-0.0391599,-0.00133297
0.000582222,-0.00112265
0.0194125,0.0118782
0.0174928,0.0184506
0.0129881,-0.0048125
-0.00818676,-0.0188093
-0.0278707,-0.00516959
-0.0211226,-0.010569
0.00428474,0.00117221
0.00752266,0.022523
0.00650658,0.0150046
0.0050049,0.0018618
0.00375497,0.0222077
0.00726969,-0.00532942
0.0143503,-0.0352686
0.00928914,-0.0140486
-0.00730786,0.000976708
-0.0207128,-0.00109312
-0.0173053,0.0130627
-0.00945929,0.0200105
0.000966781,0.0145352
0.00883065,-0.0127478
-0.00739261,-0.0310708
-0.0360648,-0.0400325
-0.0652501,-0.0244487
-0.0445362,0.0138867
-0.0164515,0.0334636
0.0114441,0.0364906
0.0291572,0.0157481
0.0414908,-0.000535694
0.0593198,-0.0212813
0.0543988,-0.0211838
0.029779,0.00314589
0.00736079,0.0181339
-0.0113819,-0.000665609
-0.020691,0.00128281
-0.0137902,0.0293636
-0.00886432,0.0236556
-0.0139085,9.41e-05
-0.0250896,-0.0190796
-0.0253276,-0.0187481
-0.0121093,-0.00983632
0.00102772,0.00171183
0.00279315,0.0044097
-0.00344475,0.00846558
-0.00554177,0.00641835
0.00157406,-0.0140669
0.00779621,-0.0317982
0.0143908,-0.0249309
0.0111054,-0.00239036
0.0102356,0.00388728
0.00811345,0.00487726
0.0149414,0.0231846
0.0181569,0.0291879
0.0119652,0.00815594
0.00822777,-0.0171213
-0.000573715,-0.0127698
-0.00456164,-0.00605093
-0.0133761,-0.00765646
-0.0166529,0.014717
-0.0285858,0.0171246
-0.0280624,0.0110691
-0.00856484,0.00910061
0.0144764,-0.0101313
-0.00282069,-0.0365124
0.000111631,-0.0248949
0.0245859,-0.0114416
0.0320022,0.0113276
0.0146795,0.0244543
-0.0050386,0.0323557
-0.0499261,0.0102832
-0.135513,-0.0142501
-0.140108,-0.0152055
-0.0302356,0.00151349
0.0836817,0.0037121
0.116892,0.0111359
0.117883,0.0190773
0.0966011,0.0209899
0.0776909,0.0121716
0.0331289,-0.0268182
-0.0197433,-0.0322771
-0.0494822,-0.0405629
-0.0318368,-0.029857
-0.00399035,0.00267939
0.0101273,0.0291263
-0.000150086,0.0258385
-0.0298626,0.0376281
-0.0385647,0.021806
-0.0369863,0.00426193
-0.0252224,-0.0312831
-0.00606647,-0.0434482
0.0395226,-0.0180933
0.0576931,0.0145706
0.0297285,0.0118788
-0.00514817,0.013472
-0.0189927,0.0162525
-0.0225242,-0.0119973
-0.0116696,-0.0295529
0.00380893,-0.0281195
0.00634991,-0.0119656
0.00888038,0.0143108
0.00444471,0.0310992
-0.00801251,0.0274988
-0.0055622,0.0238493
-0.00607423,0.0103669
-0.0106363,-0.00123798
-0.0177145,0.00289633
-0.023901,0.0103741
-0.0225252,0.0121713
-0.0139811,-0.0137466
-0.0110178,-0.0190805
-0.0198718,-0.0145797
-0.0196095,-0.00859093
-0.00401404,-0.00414404
0.00781845,-0.0120232
0.017105,0.00828446
0.0191418,0.0215014
0.017432,-0.0329445
0.00897153,-0.046592
0.00377544,-0.004072
0.0169856,0.00878879
0.0273768,-0.0098045
0.0157612,0.00127696
-0.00341599,0.00936446
-0.0142248,0.00108859
-0.0200054,0.0110301
-0.0200487,0.0194746
-0.0174948,0.0092759
-0.0153114,0.00485657
-0.00820801,0.0122195
0.00786925,-0.0168052
0.017962,-0.0389471
0.0270276,-0.007976
0.0213311,0.00142386
0.0125824,0.00296697
0.010985,0.0154271
0.0110964,0.0431377
0.00987972,0.0544977
0.00428659,-0.0111532
-0.00809678,-0.0373662
-0.0224966,-0.0198697
-0.0296901,0.000160443
-0.0477687,0.0103572
-0.0491848,0.0221789
-0.029411,0.0197982
-0.000124707,0.00650492
0.0270386,-0.00931348
0.0439556,-0.0314956
0.0478846,-0.0291387
0.0376275,-0.00670086
0.00847509,0.0021589
0.00896003,0.00365699
0.043359,0.0193762
0.0305547,0.0177731
0.0148709,-0.00539917
0.00483393,-0.025398
-0.0120674,-0.0329836
-0.030143,-0.0130079
-0.0385478,0.00982249
-0.0298084,0.026969
-0.0131887,0.0358531
-0.0105625,0.0456641
-0.0147528,0.0210112
-0.0123552,-0.0114956
-0.0191574,-0.00263698
-0.0119509,0.00436857
0.00915127,-0.0124496
0.0247017,-0.00513193
0.0216235,-0.0138956
0.0034872,-0.0351869
-0.0173353,-0.044343
-0.0243421,-0.0441582
-0.0107445,-0.0238764
-0.007958,-0.0157519
-0.015586,0.000548433
-0.019249,0.0157865
-0.00401309,0.0387172
0.0232706,0.0360783
0.0475924,0.0335946
0.052325,0.00541573
0.0351995,0.0160398
0.0196296,0.0259606
0.0128192,0.0170381
0.00360091,0.0109966
-0.00551087,0.00734277
-0.00884641,-0.00763605
-0.00515135,-0.0275532
-0.00436651,-0.0443353
-0.0145619,-0.0386899
-0.027408,-0.0306448
-0.0431033,-0.045451
-0.0604137,-0.0267415
-0.043595,0.00704298
0.00160071,0.0575512
0.0219794,0.0829895
0.0218747,0.0388224
0.0236168,0.00281481
0.0320351,-0.00437927
0.0380647,-0.00246198
0.0348387,-0.0102459
0.00825943,-0.0220486
-0.013552,0.00384298
-0.013032,0.00552823
-0.00609632,-0.0355308
-0.00183947,-0.0480537
0.000838235,-0.00747653
-0.000595554,0.00175001
-0.0129407,0.00265538
-0.0198814,0.020356
-0.0205301,0.0415469
-0.0187041,0.0273699
-0.00675422,0.0215874
0.0119688,0.0113051
0.0332582,-0.0109853
0.0438189,-0.0185029
0.0522762,-0.0125654
0.0472014,-0.0139896
0.031214,-0.00955181
0.00719425,0.000974382
-0.0170038,-0.00518209
-0.0266652,-0.0309849
-0.0313624,-0.0245832
-0.0428616,-0.00188461
-0.0465157,0.0647409
-0.0366425,0.0890897
-0.0325449,0.0441937
-0.02804,0.0384567
-0.0149402,-0.0269667
-0.0389229,-0.0784111
-0.062119,-0.027975
-0.0695625,-0.0371838
-0.0371677,-0.0228306
0.0439081,0.00383381
0.0746591,0.00658098
0.0529011,0.00035711
0.0429971,-0.00989637
0.0351296,-0.0316777
-0.0370416,-0.0503701
-0.0718165,-0.0172217
-0.0388869,0.000383373
0.0160524,0.00127297
0.0666613,0.0235207
0.108215,0.0327734
0.107256,0.0366188
0.0621244,0.0370934
0.00641455,0.0116459
-0.00433046,-0.0173546
0.00039418,0.0063788
-0.0203261,0.0247091
-0.0776238,0.0087665
-0.0843192,-0.00529497
-0.0480828,-0.00245574
-0.01413,0.00315547
0.0176115,-0.0162812
0.0463849,-0.0465036
0.0432167,-0.0418037
0.0330362,-0.0189175
0.0368778,0.0162575
0.0298356,0.0319383
-2.62e-05,0.0315268
-0.00127481,0.0285185
0.00443406,0.0240011
-0.00437133,0.00559019
-0.0214425,-0.0148484
-0.0306749,-0.0132695
-0.0225665,-0.003674
-0.0113442,-0.00587216
-0.00351295,-0.00582144
-0.00108348,-0.0049835
0.00480583,-0.0110701
0.0089931,-0.0185424
0.00909285,-0.0208642
0.0038526,-0.00367518
-0.00514551,0.000407151
-0.0148143,0.0110788
-0.0149797,0.0317882
-0.0174413,0.0204718
-0.0175733,0.034481
-0.0176859,0.0257585
-0.0193163,-0.00488086
-0.010811,-0.0204849
-0.00649627,-0.0232339
-0.000341354,-0.00176285
0.0040289,-0.00779396
0.0119537,-0.0233358
0.0218662,-0.00957879
0.0210084,-0.00751841
0.0170139,-0.0182742
0.0136404,-0.0106019
0.00811393,0.00702276
-0.00431459,0.0113548
-0.00951033,0.0169285
-0.0129884,0.0257437
-0.0187365,0.0247367
-0.0143818,0.0183244
-0.011694,0.018748
-0.0116253,-0.00439151
-0.00835068,-0.0269207
-0.0029476,-0.0176315
-0.000739843,-0.0118356
0.000421655,-0.0081959
0.00178236,0.000813789
0.00423566,0.00235269
0.00684968,0.0232567
0.0141241,0.0129019
0.0181193,-0.0305657
0.0219296,-0.03344
0.0300761,-0.00412701
0.0356441,0.0268557
0.0224936,0.0309482
0.00025849,0.0229693
-0.0259632,0.0118623
-0.0388288,-0.00643334
-0.0410559,-0.0284461
-0.0256808,-0.0484562
-0.00704391,-0.0355185
0.0135892,-0.00761914
0.0289181,0.024901
0.0245755,0.0222553
0.0154993,0.00911166
0.00241813,0.0124701
-0.0162371,-0.00128702
-0.0317761,0.0094278
-0.0324822,0.0174725
-0.0177081,0.00499833
-0.00844533,0.0180594
-0.011352,0.0125034
-0.00919912,-0.012528
0.0221974,-0.0133629
0.0766262,-0.023539
0.0891324,-0.0305815
0.0630624,-0.0201797
0.027128,-0.0158695
-0.01235,-0.0137652
-0.0697969,-0.0100744
-0.102207,-0.00709137
-0.09025,-0.0102845
-0.0444802,-0.0129444
0.00893549,-0.0023417
0.0194083,0.0079017
0.0126753,0.0130287
0.0099938,0.0206156
0.00730906,0.0240415
0.00924217,0.0307244
0.00464362,0.0320086
-0.00319079,-0.00183898
-0.000231156,-0.0304031
0.00854163,-0.0206031
0.0143018,0.0037411
0.0178221,0.00839008
0.0296252,-6.99e-05
0.0334167,-0.00197066
0.0241667,-0.00178804
0.0194598,0.00888965
0.0246865,-0.00284419
0.0149973,-0.0202816
-0.00303048,-9.26e-05
-0.0103259,0.00477283
-0.0207701,-0.00259396
-0.0378432,0.00956101
-0.0560855,0.0204216
-0.0578822,0.0352018
-0.0628578,0.0236263
-0.0510687,-0.00276487
-0.0294243,-0.025552
0.0154859,-0.03646
0.0329311,-0.0199
0.0264966,0.024343
0.0313359,0.009726
0.0408133,-0.00508401
0.0460578,-0.0229736
0.053572,-0.00748228
0.0527477,0.0031705
0.0309881,0.0228693
0.0077738,0.0423299
-0.00694744,0.0479273
-0.0174189,-0.0027271
-0.0136936,-0.0518092
-0.000163368,0.00812524
-0.000122774,0.00553645
-0.0082872,-0.0208179
-0.0163569,-0.0159444
-0.0181923,0.00286479
-0.00967217,-0.00496212
-0.0122435,-0.0113738
-0.0163912,-0.00186489
-0.0134014,0.000258684
-0.00152731,-0.0101715
0.0146742,-0.00697647
0.00757507,-0.00296969
-0.00331143,-0.00337651
-0.0167369,0.0072323
-0.0224803,0.017718
-0.0277641,0.0158489
-0.0175091,0.0149765
0.00314977,0.0060108
0.0147538,-0.000783351
0.0225363,0.0290181
0.021666,0.0331809
0.006166,0.0121953
0.000834846,-0.0298121
0.00121303,-0.0497603
0.00335861,-0.0275438
0.00467473,-0.012478
0.00966695,-0.0141168
0.00898518,-0.00893816
0.00719716,-0.00613361
0.0049942,-0.000476577
-0.00449123,0.00815955
-0.0128568,0.0159569
-0.0173488,0.0148413
-0.00776858,0.0103068
9.48e-05,-0.00339531
0.00137214,-0.0225349
-5.33e-05,-0.0194245
-0.00340019,-0.00545987
-0.0125374,0.0028034
-0.0107491,0.0100822
-0.00731599,0.0190579
-0.00295405,0.00208623
-0.000114588,-0.00920828
0.00332894,0.021035
0.000397522,0.0291763
0.000148387,-0.0207291
-0.0026517,-0.0317401
-0.0014721,-0.00431389
-0.000753971,0.0102998
0.00352647,0.00655033
0.0029254,0.0124899
0.00201834,-0.00660112
0.00278182,-0.0150424
0.00061856,-0.00198923
-0.00342548,0.0183929
-0.00100535,0.0204422
0.00328821,0.00119414
0.00244153,-0.00306953
0.00247761,-0.00966386
0.0121824,-0.0213681
0.0169823,-0.0189528
0.012722,0.00349519
0.00626267,0.00777494
-4.01e-05,0.0129573
-0.00137476,0.0119568
-0.00669455,0.00959892
-0.00456381,0.00721703
-0.00803822,0.000767715
-0.0161418,-0.00775909
-0.018919,-0.0225657
-0.00997648,-0.00723354
0.00943506,0.0178058
0.0102052,0.00948113
0.0068371,0.0119057
0.0103262,0.020723
-0.0154751,0.00806418
-0.0357877,-0.00717728
-0.0279842,-0.0174515
-0.00811355,-0.0123842
0.0316762,-0.011183
0.0462577,-0.000120834
0.0398002,-0.0123111
0.0224357,-0.0127259
-0.0100748,0.00197518
-0.01035,0.000491935
0.00627975,-0.00689589
0.0137049,0.00629856
-0.00875875,0.00860391
-0.0202597,0.00577223
-0.0135841,0.0122836
-0.00477582,0.020152
-0.00480026,0.0152827
0.00968401,-0.00618809
0.0145672,-0.0252646
0.00785322,-0.0196434
0.00366786,-0.0116611
0.00926058,-0.00272075
0.0146132,0.0172324
0.0160552,0.032318
0.00409465,0.0249748
-0.00753322,0.00776963
-0.0122924,-0.0427335
-0.0143414,-0.0654936
-0.0207891,-0.010133
-0.0183352,0.0172491
-0.0119138,0.00940312
-0.0089445,0.00932521
-0.0122526,0.0148282
-0.00644149,0.00814736
0.0116019,0.0081465
-0.0254509,0.009869
-0.0821304,0.00406639
-0.0751873,-0.00635641
-0.0190501,-0.000221583
0.0393427,-0.00154985
0.0756201,0.00756675
0.0882846,0.00491902
0.069806,0.00209549
0.0348506,-0.0116037
0.00755872,-0.0152281
-0.00913402,-0.00245791
-0.0142318,0.00481874
-0.0116929,0.00323942
-0.009044,0.00736523
-0.00826388,0.0172763
-0.00993733,0.00387203
-0.00671714,-0.0233951
0.00523211,-0.0247379
0.0120353,-0.0126654
0.00648022,-0.0106437
-0.00200951,-0.00332775
-0.00924064,0.00333696
-0.0139301,-0.00334666
-0.0156693,-0.000793957
-0.0159241,-0.00381191
-0.0107579,-0.0117677
-0.0110882,-0.0195956
-0.00264347,0.0101996
0.00816994,0.0251132
0.00919932,0.0230088
-0.00214557,0.0486193
-0.00518759,0.0559903
0.00123289,0.00023902
0.0051402,-0.0517722
0.0062702,-0.021269
0.0124318,-0.0164838
0.0175805,-0.0223341
0.00613889,0.00419021
-0.00794597,0.0144682
-0.00819458,0.00967253
-0.0145411,0.00952971
-0.0178121,-0.00684532
-0.0148901,-0.0213689
-0.0152755,-0.0118899
-0.0108122,0.00332361
0.00268246,0.00481368
0.00712022,0.00830108
0.00374755,0.0171393
0.00631242,0.0145244
0.00709754,-0.0142705
0.00085735,-0.0305578
0.0186236,-0.0169902
0.056212,-0.00407882
0.0555206,0.00259847
0.0331396,0.0102045
0.0172128,0.0211667
-0.00596833,0.0168178
-0.0290121,0.00178204
-0.0316538,-0.0157259
-0.0283541,-0.0194169
-0.0243328,-0.000358614
-0.0141289,0.0146312
-0.0140465,0.011825
-0.0221862,0.0182821
-0.0256035,0.0245145
-0.0118792,0.0121513
-0.00636213,-0.0172704
-0.00377352,-0.0194506
0.0012646,-0.00100277
-0.00437872,0.00265629
-0.00976411,0.00544667
0.00374002,0.00837343
0.0199834,-0.00117989
0.0370502,0.000233212
0.0456915,-0.000738623
0.0380678,-0.021007
0.0188523,-0.0307876
-7.25e-05,-0.0141541
-0.00553899,0.0106169
-0.0149049,0.0422339
-0.0133411,0.0241785
-0.0114357,0.0090162
-0.0122776,-0.00723945
-0.0126287,-0.0302287
-0.0128184,-0.0163343
-0.0156531,0.00721162
-0.0128466,-0.00699886
-0.0115711,-0.00498108
-0.0128589,0.0169405
-0.01888,0.0155734
-0.0114836,0.00332063
-0.0126217,-0.0246847
0.000348375,-0.037442
0.0244023,-0.0287659
0.0264097,0.0262976
0.022482,0.0608512
0.0319035,0.0416908
0.0310379,0.0188336
0.010501,-0.0127734
-0.0108984,-0.0393118
0.00391801,-0.0219867
0.0177525,-0.0228208
-0.00209289,0.00780692
-0.0288936,0.0193096
-0.0245898,-0.0052191
-0.00998844,-0.00802189
-0.0147975,0.00173649
-0.0131636,-0.00160295
-0.00444399,-0.0131109
-0.00800867,-0.0127122
-0.00465554,0.00363569
0.00735764,0.0073493
0.0124625,-0.00630705
0.0128432,-0.001121
0.0146679,0.0129361
0.0154501,0.000241172
0.0312671,-0.0105621
0.0460517,-0.00906966
0.0477054,-0.0116424
0.0332651,-0.0117772
0.00319537,0.00231926
-0.0150955,0.0120391
-0.0224184,0.00484085
-0.0279868,0.00276154
-0.0320597,-0.00369647
-0.0244341,-0.0203904
-0.0136221,-0.0196603
-0.0134047,-0.00849896
-0.00892946,0.0019224
0.000945296,0.0113088
0.0164165,0.0298856
0.00937798,0.0140146
-0.0160514,-0.0102858
-0.00594159,-0.0302902
0.00161691,-0.0227577
0.00516673,-0.00793379
0.00191441,0.0193492
-0.018771,0.0163777
-0.0412325,0.0173738
-0.0405214,0.0436057
-0.0360855,0.0346377
-0.026102,0.00953318
0.0097866,-0.0193618
0.0311979,-0.0213191
0.0128248,0.0353363
0.00842488,0.0325512
0.0120143,0.00138112
0.00307683,0.0220936
-0.00621451,0.0290909
-0.00513534,-0.0163415
0.000887441,-0.0496969
0.0169059,-0.00624229
0.0160917,-0.00142389
0.00987851,0.00382697
0.00155643,0.00692684
0.000485767,0.00122903
0.00956967,-0.00679645
0.0167071,-0.00373387
0.000246796,-0.013965
-0.00300387,0.00516423
-0.00344711,0.0489152
0.0007288,0.0296373
0.0161016,-0.0216959
0.0249283,-0.0350779
0.00622691,-0.017414
-0.00716154,-0.00918805
-0.00773046,-0.0224138
-0.0125869,-0.0269384
-0.0247222,-0.026198
-0.0186463,-0.0222302
0.00142768,0.00253491
0.0154828,0.014972
0.0199868,0.00440705
0.0112422,0.00905326
0.00586958,0.00485624
0.0283889,-0.0186124
0.0394024,-0.0159926
0.0207859,0.0106265
-0.0212728,0.00614252
-0.0757256,0.00203943
-0.10657,0.0298808
-0.0946535,0.0238949
-0.0361093,0.0087249
0.0230293,-0.0204514
0.0704557,-0.0350379
0.103557,-0.0250483
0.122625,-0.00413753
0.0925457,0.0200114
0.0266536,0.0248945
-0.0252104,0.00908459
-0.0528224,0.00821056
-0.045469,0.00062772
-0.0281997,-0.0192859
-0.0378541,-0.00200908
-0.0283012,0.0174827
0.0182838,-0.0177041
0.0230877,-0.0284056
0.00179126,0.00893048
0.00159564,0.0120259
0.00814704,-0.0108818
0.00144363,-0.0206742
0.0115994,0.0220349
0.0116149,0.0176313
-0.0255529,0.00179962
-0.0460231,0.0142037
-0.0671055,0.0200413
-0.0702438,-0.00634591
-0.0525798,-0.0266276
-0.0193465,-0.0181582
-0.0236936,-0.00983778
-0.0616382,0.00295038
-0.0739152,0.0138163
-0.0104512,0.0295268
0.0809287,0.0286821
0.145014,0.0268557
0.117888,-0.00341604
0.0476161,-0.0356302
0.0484371,-0.0383433
0.0407118,-0.0703798
0.0355669,-0.0487371
0.0327804,0.0503482
0.0106911,0.0509592
-0.00322611,0.0136702
-0.0204358,0.00720524
-0.0181809,-0.00108933
0.00610522,-0.00720311
0.0053482,-0.0114012
0.00245831,-0.00991587
-0.00286461,0.0381357
-0.00670835,0.0463415
-0.0224805,0.0210343
-0.0333717,0.0112878
-0.0236352,-0.00335265
-0.0208576,-0.037679
-0.0234848,-0.0158909
-0.0182855,0.0070085
-0.0201607,0.00564493
-0.0173041,0.00991514
-0.00700963,0.00846779
0.0197773,0.00594252
0.0401331,0.0142768
0.0344625,0.00162256
0.0185825,-0.0263967
-0.00640846,-0.0316578
-0.0224193,-0.00380587
-0.0184697,0.0233021
-0.0237247,0.000969467
-0.0230008,0.0214108
-0.0210379,0.0100545
0.00491425,-0.0235369
0.0512053,-0.00468203
0.0237287,-0.0134688
-0.0300422,-0.0514471
-0.0502394,-0.0523331
-0.0403873,-0.0284839
0.0230778,0.0306392
0.028128,0.0625646
-0.0481379,0.00958779
-0.0756033,-0.0168377
-0.0422922,-0.00098761
-0.0531275,-0.00258183
-0.0589453,-0.017799
-0.0129875,-0.00252982
0.00948768,0.009754
0.0301485,0.0436137
0.0609634,0.0805163
0.0781377,-0.0162354
0.1112,-0.0598155
0.0813659,-0.0240016
0.00473109,0.00150696
-0.0271171,0.00831189
-0.0216162,0.0356006
0.0013507,-0.0169967
0.0291724,-0.0412308
0.0530096,0.00476277
0.084153,0.00135729
0.117109,0.0126801
0.084568,0.0208145
0.0599714,0.00848209
-0.00471046,0.0244638
-0.0631422,0.0509266
-0.117998,0.0394534
-0.185505,-0.0226252
-0.166438,-0.0532524
-0.095406,-0.0381722
-0.0240159,-0.00640109
0.0464828,0.0176122
-0.0243597,0.00312293
-0.125279,-0.0127484
-0.0703112,0.0134312
-0.00218415,-0.000852882
-0.00220995,-0.0258955
0.0577302,-0.0594569
0.0970026,-0.0388554
0.124787,-0.0139285
0.13979,0.0160086
0.0997487,0.0225475
-0.00556473,-0.0249952
-0.0347777,-0.0199353
0.038396,0.00734111
0.100485,-0.000595193
0.0817708,0.0275054
0.0294031,0.00913063
0.0104254,0.0103789
0.0328424,0.0459955
0.0763294,0.079895
0.122698,0.0206348
0.0991094,-0.0310909
0.0146759,-0.0133284
-0.0601156,-0.0219337
-0.148028,0.00389988
-0.250836,0.0318486
-0.298432,0.00410307
-0.258136,-0.0161823
-0.151483,-0.00233334
0.00204877,-0.0043122
0.074179,-0.0144064
0.0422833,0.01897
0.0646128,-0.00477443
0.145502,-0.0270319
0.129673,-0.00311106
-0.00483404,-0.0134648
-0.123932,-0.0313127
-0.108333,-0.0160495
-0.0411335,-0.0325262
-0.00978864,-0.0175948
0.0375297,-0.0102376
0.0817389,0.0123327
0.0664538,0.0204234
0.0469916,0.0502657
-0.014418,0.0677449
-0.0802448,-0.00722094
-0.0507859,-0.0292803
0.0199452,-0.0522416
0.0373174,-0.011944
0.110661,0.0666265
0.164775,0.0385085
0.0621085,0.0162445
-0.127118,0.0252813
-0.209489,0.0136261
-0.212069,-0.00177793
-0.119962,0.0037782
0.0477053,-0.0355862
0.173936,-0.0387671
0.153287,-0.0197826
0.101317,-0.0231019
0.0948012,-0.0268755
0.125845,-0.00808578
0.145207,-0.0107364
0.1177,-0.0161327
0.0833019,0.0291418
0.0581325,0.0273676
-0.0506589,0.0280055
-0.181991,0.0447365
-0.216536,0.0247766
-0.169752,0.00129476
-0.107814,-0.0381125
-0.130286,-0.0310733
-0.0874298,-0.0449916
-0.00566305,-0.0566495
0.119066,-0.036917
0.185804,-0.00142526
0.162709,0.054024
0.10275,0.0567904
0.0318291,0.0316874
0.0529909,-0.0040478
0.0618058,-0.0167495
-0.113908,-0.0426397
-0.316263,-0.0522827
-0.247433,-0.00691327
-0.0868573,0.065207
0.0795742,0.0825764
0.184231,0.0395468
0.188811,0.0541814
0.121564,0.0536409
0.0763826,-0.0328593
0.0444059,-0.0683148
0.00617395,-0.0329404
-0.0221413,-0.0335853
-0.0399571,-0.0185013
-0.0312379,-0.00573526
-0.0315964,0.00789066
-0.0476709,0.0337142
-0.0933834,0.0134771
-0.23467,-0.0136519
-0.27637,-0.0044045
-0.148172,0.000850598
0.0517052,-0.00110204
0.18624,0.0145039
0.251222,0.000713114
0.188499,-0.0068276
0.0966071,-0.00872329
-0.0151613,-0.0292539
-0.117987,-0.0193598
-0.127733,-0.0101883
-0.0823728,-0.0077675
-0.0218479,-0.0124719
0.0336682,0.00133403
0.0606489,0.00701018
0.0927576,0.00303091
0.115726,0.00369762
0.107977,0.0112746
0.0868323,0.00659278
0.036463,0.0118675
-0.0169752,0.0220307
-0.0403584,0.0185443
-0.0355928,0.0036525
-0.0315294,-0.00341156
-0.031937,-0.0204208
-0.0457221,-0.0338748
-0.0566744,-0.0272766
-0.0374903,-0.0126706
-0.0146287,-0.00843245
-0.0273181,-0.0013419
-0.0481063,0.0125049
-0.0337248,0.0110273
0.00479845,-0.00292339
0.0342528,-0.0397557
0.067773,0.00434969
0.0439743,0.0333507
0.0195472,0.0299113
0.0482253,0.00929338
0.0601586,0.0201255
0.0413008,0.0167102
0.0277642,-0.00697091
0.00130689,-0.0281584
-0.0358305,-0.0361214
-0.0820165,-0.0164764
-0.138077,-0.00218677
-0.138312,0.0114801
-0.133523,0.0627573
-0.0978017,0.074972
-0.0239469,0.0314087
-0.00935442,-0.00979629
0.015647,-0.0141261
0.0643056,-0.020817
0.0664866,-0.00505153
0.0358293,-0.00594382
0.0560189,-0.0272451
0.0755828,-0.0340825
0.0661138,0.0293514
0.0449132,0.0168896
0.0303337,-0.0167764
0.0177387,-0.0322623
0.0252155,-0.0132749
-0.00110495,-0.0166518
-0.0351355,-0.0260906
-0.0369844,-0.0236758
-0.0380718,0.00339684
-0.0289467,0.0212265
-0.0142015,0.001354
-0.00235104,-0.00317275
0.00617992,0.00692069
0.00156786,0.0172433
-8.65e-05,0.0370378
0.013983,0.0421596
0.00652543,0.0178815
0.0186932,0.00071757
0.0415001,-0.0180122
0.00173966,-0.0496848
-0.0203125,-0.00994065
-0.0222177,0.0195628
-0.0116091,-0.000268819
0.0134806,-0.00430137
0.0129106,0.0115737
-0.00583612,0.0145138
-0.00264069,-0.00365652
0.00844487,-0.0096986
0.0124598,0.0104501
0.0133657,0.0194991
0.0230445,0.0164605
0.0146171,0.0219556
-0.00698046,0.0206453
-0.0117818,0.00530547
-0.0110413,-0.0161919
-0.0019288,-0.0253206
0.00624377,-0.0366383
-0.0161004,-0.0239297
-0.0112356,-0.0219963
0.0101299,-0.0289183
0.00994617,-0.0167948
0.000823887,0.00456383
-0.000109382,-0.0017979
0.000875905,-0.0118079
0.019515,-0.00404167
0.0416916,0.00540733
0.0351256,0.0113839
0.00954383,0.0254978
-0.0228383,0.0291733
-0.043124,0.0119882
-0.026466,0.0105314
-0.0211045,-0.000160458
-0.0731621,-0.032455
-0.102397,-0.0234941
-0.092733,-0.00374378
-0.0442419,0.0115613
0.0366893,-0.00205133
0.0814253,-0.0202092
0.0861329,0.0222226
0.0643667,0.0358761
0.0329912,0.00670685
0.0197112,0.017912
0.0262835,0.0439246
0.0138795,0.0359236
-0.00623941,0.00425836
-0.00258003,0.0198086
0.0104925,0.022238
0.0302314,0.0210811
0.0490402,0.00446879
0.0417193,-0.00811368
9.35e-05,-0.0376579
-0.0575207,-0.0809892
-0.0806169,-0.075959
-0.0858764,-0.0706044
-0.0601265,-0.063227
-0.0100643,-0.00931464
0.0277024,0.0161501
0.0454691,0.0022846
0.0374646,-0.00269253
0.0104343,-0.00252634
-0.00617983,0.0105261
0.00457239,0.0240482
0.000613236,0.0197469
-0.00229166,0.0240133
-0.00299659,0.014163
-0.0285496,-0.0138846
-0.0526036,-0.00694222
-0.0438806,0.00404751
0.0133606,-0.0121062
0.0248188,-0.0298342
-0.0119891,-0.0121203
-0.0309339,0.00494396
-0.0240349,-0.0110571
0.0123332,-0.00622444
0.0255851,0.0669709
0.0345561,0.0591575
0.0639933,0.024496
0.0444343,0.0218788
0.00617203,0.0251722
0.0196659,0.0179342
0.021147,0.00138512
0.00951948,0.00505627
0.00806897,0.0292552
0.000749496,0.0435384
-0.00514264,0.0422591
-0.0341527,0.00845794
-0.0849466,-0.0135621
-0.131745,-0.0138618
-0.126017,-0.00346136
-0.0366633,-0.00924857
0.070283,-0.0293569
0.119727,-0.00592739
0.113382,-0.00321608
0.0547474,-0.0320784
0.0158446,-0.0212166
-0.0223707,0.00870692
-0.0589051,-0.0104173
9.5e-05,-0.0198364
0.0515375,-0.0416593
0.0344903,-0.0477322
0.0164885,-0.036877
0.0207978,-0.0206792
0.02268,-0.025584
0.0242071,-0.0241643
0.00656316,0.00207542
-0.0161809,0.0134978
-0.0395352,0.0114452
-0.0367116,0.0251328
-0.0194211,0.0401496
0.0007515,0.0446954
0.00882351,0.0501078
0.00378478,0.0473558
-0.0100711,0.0342197
-0.0142779,0.0112568
-0.0034908,-0.0050464
0.0101904,-0.018039
-0.00736783,-0.0384152
-0.0319358,-0.0265756
-0.0414255,-0.00573959
-0.0273174,0.0113882
-0.0248068,0.0231547
-0.00358493,0.00388891
0.0313344,0.0016071
0.0254212,-0.00840313
0.0153402,-0.021232
0.00454343,-0.0216687
-0.0061133,-0.0327467
-0.00979502,-0.0172522
-0.0092639,-0.00258917
0.00670376,0.00556034
0.0251621,0.000341341
0.0291251,-0.0158738
0.0219794,-0.0395018
-0.0138098,-0.0410424
-0.021203,-0.0286988
0.0199888,-0.0387234
0.0571555,-0.00394681
0.0610884,0.048304
0.0199147,0.0492284
-0.0308527,0.0322601
-0.0659332,0.00762107
-0.0867834,-0.00478025
-0.0839388,-0.00678144
-0.048895,-0.00173284
-0.0155704,0.016953
-0.00476991,0.0117601
0.00733165,0.00881565
0.0243199,0.000761966
0.0558174,-0.0178964
0.0747993,-0.0393548
0.0410196,-0.0036736
-0.00588533,0.0186973
0.0104337,0.00956907
0.0226166,0.0121066
-0.00702834,0.0166509
-0.0319024,0.018383
-0.00956394,0.00595055
-0.00573779,0.000415542
-0.0122835,0.0127761
-0.0211859,0.0124116
-0.0140552,0.0156391
0.00124297,-0.018298
0.00571635,-0.00424388
0.00738495,0.0122663
0.00194492,0.00019058
0.0054502,-0.00720354
0.00540341,-0.0119658
0.0147693,-0.0191484
0.0182552,-0.0294604
0.0212451,0.000516595
0.0164808,0.0176368
-0.00133113,0.0338694
-0.00448604,0.0339765
-0.07055,-0.00760249
-0.173985,-0.0106076
-0.20065,0.00261981
-0.132436,0.00165541
-0.000704807,-0.00604765
0.114426,-0.0202007
0.152912,-0.0272041
0.140425,-0.0340115
0.114511,-0.0115849
0.112364,0.00944556
0.104681,0.0266679
0.0682441,0.0484222
0.0268405,0.0450296
-0.0267388,-0.0010665
-0.0352738,0.00119079
-0.00545647,0.0289492
-0.00863794,0.0187706
-0.0408468,0.000425685
-0.0288102,-0.0047112
-0.0316759,-0.0238765
-0.0407113,-0.0388444
0.0117911,-0.00916574
0.012517,-0.00325912
-0.0158569,-0.00488947
-0.0205994,0.00131258
-0.0218921,-0.01128
-0.0159941,-0.0220806
-0.00460353,-0.019896
0.00205233,-0.00707738
0.0110329,-0.00150125
0.0121372,0.0198724
0.00556234,0.0228889
-0.0106476,0.00479969
-0.0157588,-0.00806293
-0.00554374,-0.0217763
0.0243695,-0.00511945
0.0162174,0.00569853
0.0037112,0.0133395
-0.0104207,0.0210887
-0.0406848,0.0156153
-0.0663516,0.0216702
-0.0621135,0.014242
-0.0518329,-0.00561793
-0.0513187,-0.0306845
-0.0481165,-0.00442389
0.0148102,0.00721133
0.0603786,-0.00994556
0.048395,-0.00356132
0.050042,-0.014153
0.0616989,-0.0292113
0.0391396,-0.0387739
0.0502975,-0.00622465
0.0499418,0.0297585
0.0285845,0.00862275
0.00770659,0.000295768
-0.0374463,0.00456634
-0.0641189,0.0168658
-0.0504167,0.0331079
-0.0401776,0.0114509
-0.0291451,0.00340551
-0.00951273,0.00214969
0.00744693,-0.00825758
0.0208932,-0.0107137
0.0297069,-0.0137113
0.0198347,-0.0117784
0.0135316,-0.0137688
0.00611757,-0.0182232
0.00274574,-0.0170356
0.00202883,-0.0146508
-0.00185761,-0.00672317
-0.00895083,0.00783381
-0.00951165,0.0182662
-0.00739967,0.0186956
-0.00947713,0.00926305
-0.0129025,-0.00403425
0.00427515,0.0209642
0.0170268,0.0363377
0.013074,0.0399053
0.0137162,0.00721061
0.0127845,-0.0290644
0.00133544,-0.00611446
-0.0203166,-0.0300377
-0.0309709,-0.0358067
-0.0343199,0.00920562
-0.0514475,0.00514577
-0.0386998,-0.0253057
0.00102647,-0.0229497
0.0107623,-0.0283032
0.0284583,-0.0155914
0.0413689,0.0353903
0.0180132,0.0369331
-0.0263365,0.0129827
-0.00547526,0.0237101
0.0124099,0.00830154
0.0163607,-0.0101907
0.0348957,-0.00799379
0.0421389,-0.00619361
0.0387869,-0.00549748
0.0205753,-0.00998111
0.00898251,-0.0182249
-0.00150368,-0.0176625
-0.0373269,-0.0117524
-0.0834713,-0.0114388
-0.068474,-0.00263013
-0.0156187,0.0297042
0.0238239,0.035843
0.0412182,0.0351863
0.0309294,0.0308442
0.0174269,-0.00675749
0.0140916,-0.0128689
0.00210557,-6.23e-05
-0.0171268,-0.00219794
-0.0248882,-0.0304221
-0.0277675,-0.0207327
-0.0225697,0.0067612
-0.00399139,0.00516609
0.0259977,-0.00348437
0.0649256,0.00148982
0.0890974,-0.0106086
0.0672417,-0.00483253
-0.00523396,0.0159035
-0.0805263,0.0173544
-0.0740036,0.00041731
-0.0440971,0.00237633
-0.00769953,-0.0064788
0.0449825,-0.0182627
0.0444706,-0.00933739
0.0221488,0.0186676
0.0133098,0.0143839
0.0107954,0.0105598
-0.00392211,0.0237613
-0.0318028,0.000232896
-0.0330686,-0.0230121
-0.0242619,-0.0147475
-0.0183478,-0.0170736
-0.0121073,0.0168065
-0.0267631,0.040918
-0.0376727,0.0237001
-0.0452087,0.0146257
-0.00789734,0.00825332
0.0264174,0.000591476
0.0219752,-0.0189808
0.0185341,-0.0320565
0.019016,-0.025397
0.00858147,-0.0228371
-0.0108957,-0.0251798
-0.022756,-0.0211487
-0.0153822,-0.0101983
0.0117691,-0.0104566
0.0416295,-0.0161386
0.0536951,-0.00863497
0.0509276,0.00669483
0.0423765,0.0140576
0.0140661,0.0328845
-0.0238808,0.0355376
-0.0324095,0.0272078
-0.0197773,0.0193679
-0.026015,0.0150043
-0.0201656,0.00565276
0.00168274,-0.00556884
0.00151262,-0.00748968
-0.00357477,0.00157528
-0.000359722,0.00106631
0.00695705,0.00175588
0.0123059,0.00617952
0.0147851,-0.00126879
0.0136046,-0.0125815
0.0124044,-0.00929592
0.00999738,-0.00605272
0.00523963,-0.0107939
-0.00232404,-0.00550313
-0.0170669,0.00400911
-0.0220615,-0.031504
-0.0123547,-0.0431301
0.00247109,-0.0199037
0.0189444,0.0271366
0.00611972,0.042758
-0.0199796,0.0211277
-0.0270181,0.0214485
-0.00438211,0.0182839
-0.00621831,-0.0151014
-0.0830453,-0.0149181
-0.0971218,-0.0104623
-0.062502,-0.0258753
-0.00863354,-0.0189396
0.0359627,0.00746865
0.0294651,0.00103791
0.0602019,0.0160159
0.071181,0.0163966
0.0502166,-0.00650235
0.0770023,-0.0133099
0.0591799,-0.0134762
-0.0246492,-0.00120948
-0.0838253,0.00146071
-0.0521655,-0.00780561
-0.000861488,0.00662109
0.0247267,0.00129051
0.0278509,-0.0297404
0.0330941,-0.00774096
0.0391963,0.0236101
0.015348,0.0175959
0.00111827,0.00645439
0.010742,-0.000411847
0.00106757,0.00514371
-0.0100661,0.0110327
-0.024787,0.0179959
-0.0424231,0.00966425
-0.0385555,0.00047468
-0.0240874,-0.0110825
-0.00601803,-0.0175599
0.001648,-0.0133375
0.00421117,-0.0120521
0.00461636,-0.00948728
0.0058942,-0.00252943
0.0133787,0.00382731
0.0238147,0.00422149
0.02079,-0.00674014
0.0064555,-0.00458059
0.000554165,0.0139821
-0.00219905,0.0174942
-0.00457166,0.0179107
-0.00744007,0.0155087
-0.00925369,0.00885248
-0.0123812,0.00740537
-0.0100516,0.00248677
0.00971524,0.00777969
0.0292994,-0.00968356
0.0209001,-0.0293461
-0.00544727,-0.0289556
-0.00349929,-0.00825224
-0.0253477,-0.00152451
-0.053298,0.000303117
-0.0778264,-0.00375185
-0.12975,-0.00315563
-0.10827,0.0187027
-0.0609623,0.0205206
0.0152505,0.012077
0.111213,0.0201865
0.125647,-0.0237965
0.0884988,-0.0150754
0.0475742,0.0127038
0.0189645,0.0031132
0.0107883,-0.0139994
0.0110902,-0.0139992
-0.00281406,0.00841442
0.0158805,0.0150615
0.062137,0.00652086
0.0668617,0.00557177
0.0417546,0.000919519
0.0138905,-0.004078
-0.00291994,-0.00372181
-0.033298,0.00118585
-0.0350289,-0.00098876
-0.0156457,0.00178405
-0.0223532,0.0103431
-0.0258329,0.0116269
-0.0250052,0.00431177
-0.0375821,-0.00801024
-0.0316809,-0.016369
-0.0120341,-0.0140596
-0.0116082,-0.00317259
-0.0236565,0.00319928
-0.00988384,-0.000408292
0.00249428,-8.66e-05
0.0130312,0.00899573
0.0261628,0.00925818
0.0322225,0.00351314
0.0248117,0.00572291
0.0153884,0.00672935
-0.0013767,0.00117007
-0.0153453,0.00144291
-0.0325908,0.000292637
-0.0404498,0.0133727
-0.030478,-0.0174368
-0.00970554,-0.0400172
0.0099437,-0.0435318
0.00139994,-0.030469
-0.00307574,0.0190433
0.0285043,0.0463715
0.0250908,0.0192773
0.00856091,0.022433
0.00479008,0.00290498
-0.0279493,-0.0329171
-0.0734522,-0.0399569
-0.0793128,-0.0510467
-0.0226167,-0.0171796
0.00750233,-0.00977054
0.0187213,0.0112789
0.0511252,0.0458364
0.0602678,0.031967
0.0654552,0.0247218
0.0704297,0.0112408
0.0599639,-0.00644174
0.0339702,-0.00370862
0.00504898,0.00208979
-0.0353668,-0.00285979
-0.0530411,-0.00271104
-0.0313902,0.00439736
-0.00410944,0.00856402
0.0142754,0.00496871
0.0329367,-0.00333336
0.0279693,-0.000614886
0.00452706,0.000321791
-0.0180403,0.00474202
-0.0214299,0.012735
-0.0213354,0.00372207
-0.0232846,-0.00304507
-0.0269246,-0.00151549
-0.0268048,-0.00705448
-0.024504,-0.0105903
-0.0165867,-0.00228057
-0.00458405,0.00397412
-0.00346046,0.00760982
-0.000674526,0.00901103
0.00999024,0.00744917
0.0240117,0.000283671
0.0354729,-0.0113444
0.0362347,-0.0109052
0.0241308,-0.00529656
0.0119737,-0.00222661
0.00159514,0.00400777
-0.00364142,0.00848672
-0.0110103,0.00559023
-0.0211841,0.00248041
-0.0315748,-0.00850821
-0.0344017,-0.00535459
-0.0309081,0.00491394
-0.0276185,-0.00965212
-0.0125418,-0.0227297
0.0109522,-0.0288129
0.0346434,0.00175134
-0.00186014,0.00635026
-0.00927192,0.0187896
0.00528388,0.0416527
-0.0203902,0.0375147
-0.0692219,-0.0189131
-0.0683946,-0.0408927
-0.0387817,-0.0176885
0.0172712,-0.0197855
0.0730565,-0.00562582
0.107389,0.0124688
0.0935974,0.00491981
0.00690908,0.00326752
-0.0622918,-0.0138504
-0.0480105,-0.0131759
-0.0298203,0.0199746
-0.00972191,0.0227874
0.0138342,0.0152566
0.0533301,0.00505055
0.0754215,-0.0172973
0.0736919,-0.0145084
0.0585642,0.00533322
0.0286531,0.00364575
0.0104027,0.00844799
-0.00339363,0.0119316
-0.0301742,-0.000343046
-0.0379998,0.0032384
-0.045447,-0.00189593
-0.0332887,-0.0158387
-0.0184143,-0.017358
-0.0221383,0.0026776
-0.0104295,0.0112053
0.00055077,0.0085499
-0.00431444,0.00587561
0.000124043,0.0105335
0.0115477,0.00337304
0.0159752,-0.0113358
0.00672227,-0.0189692
-7.52e-05,-0.016058
0.00396081,-0.0129795
-0.00337568,-0.00144827
-0.0128893,0.00345257
-0.00983784,0.000303416
-0.0125756,0.00514912
-0.00839622,0.0055661
0.0112157,-0.00680262
0.0183304,-0.00467445
0.00906762,0.0102549
0.0051142,0.0146699
0.00851894,0.0171629
-0.0234992,0.018837
-0.0564158,0.00954104
-0.0221664,-0.00778931
0.0172505,-0.0225558
0.0294139,-0.0118741
0.0237026,-0.00141669
-0.00108073,-0.00642762
-0.025739,0.00735072
-0.0460988,0.0190205
-0.0766072,0.00536974
-0.0740909,0.00427606
-0.0378986,0.00332027
0.00384408,-0.00666957
0.0370278,-0.00526177
0.069208,0.0152606
0.0732393,0.0184995
0.043173,0.0130634
0.0161745,0.0165293
0.0152663,0.0118737
0.0223528,-0.00622746
0.0168838,-0.0190608
0.0143046,-0.018667
0.0128786,-0.0198567
0.00992355,-0.0167246
0.00641641,-0.000712119
-0.00967802,0.00544862
-0.0264251,0.00430986
-0.0246166,0.00409004
-0.0108976,-0.00505211
0.00571865,-0.0107087
0.00635298,0.00151394
0.00148369,0.0110592
-0.000159079,0.00793861
0.000144552,0.00296541
0.00145747,0.0140712
-0.00890779,-0.0210302
-0.0113703,-0.0355027
0.000204431,-0.012065
-0.0139095,-0.00412389
-0.0167018,-0.000658111
-0.0158629,-0.00864271
-0.0573142,-0.021038
-0.0547892,-2.25e-05
-0.0245437,0.0349945
0.00634854,0.0295524
0.0326883,-0.0101888
0.0122251,-0.0513752
0.0211783,-0.0168895
0.0567528,-0.0199163
0.0534376,-0.0124069
0.0302701,0.0477873
0.0297961,0.0472465
0.0289436,0.0183057
-0.0197886,0.00333259
-0.0416987,-0.000493732
-0.0188574,-0.0114967
-0.00339994,-0.00733747
0.0116207,0.00546772
0.0351601,0.00258311
0.0220228,0.000742394
-0.0249011,0.00873664
-0.0490353,0.000940767
-0.0574247,-0.00672912
-0.0514872,0.00408674
-0.0293381,0.0184484
0.00126709,0.0128342
0.0266489,0.00856917
0.0348224,0.0118558
0.0289835,0.0136374
0.0399653,-0.0034899
0.0654738,-0.0210801
0.0730271,-0.0197054
0.0464058,-0.015235
-0.00727602,-0.00432591
-0.0286126,0.00795444
-0.0216622,-0.00263647
-0.0241295,-0.00788327
-0.0244708,-0.000367233
-0.0117436,-0.0167812
-0.0123668,-0.0259291
-0.0188733,0.00255667
-0.0374373,0.00177184
-0.0490764,-0.000322991
-0.130715,0.0192253
-0.237004,0.0357769
-0.226065,0.00866931
-0.0982057,-0.0178568
0.066309,-0.013467
0.184998,-0.00435557
0.237309,-0.0107285
0.210792,0.00137768
0.148428,0.0136055
0.0895538,-0.00416505
0.0388407,-0.0411769
0.0176944,-0.0323785
0.00561171,-0.00141578
-0.0174491,0.0354952
-0.0122813,0.0393804
-0.00847845,0.0460566
-0.0450684,0.0118613
-0.0882251,-0.0198185
-0.090644,0.00810654
-0.0551097,0.0102513
-0.0106121,-0.0150078
0.031267,-0.021983
0.0333285,-0.0170574
0.0348471,-0.0116853
0.029611,-0.00500171
-2.87e-05,0.00224519
-0.0280864,0.00800876
-0.0353116,0.0138938
-0.0116842,0.00332022
0.0146179,-0.010631
0.0229173,-0.00141607
0.0149428,0.0126512
0.00644993,0.0139088
0.00300697,0.0166009
0.00793229,0.0186013
0.0143451,0.0100947
0.016587,-0.00568337
0.00655292,-0.0180134
-0.00904205,-0.0181255
-0.0211354,-0.0169717
-0.0267501,-0.00841531
-0.0410567,-0.000574604
-0.053306,0.00298431
-0.0484271,0.00673001
-0.0249631,0.0139393
0.0100451,-0.00170537
0.0394008,-0.0298325
0.0354787,-0.0163484
0.0267254,-0.000410211
0.0191545,0.00698294
0.00213633,0.0222092
-0.00746381,0.0027432
0.0133998,0.000655035
0.0343146,-0.00164178
2.96e-05,-0.0285785
-0.0224973,-0.0314428
-0.00256456,-0.0280172
-0.0060197,-0.0214355
-0.0366322,0.00678876
-0.0580266,0.0179889
-0.026528,0.0205808
0.0120245,0.0174515
0.0532393,0.000748039
0.0637612,-0.0237233
-0.00377228,-0.0183666
-0.0541532,0.0217344
-0.0288654,0.00823946
0.00166836,0.0351123
0.016312,0.044293
0.0401861,0.0291274
0.0486641,0.00576256
0.0196237,-0.00870388
-0.0304268,-0.00548821
-0.0436635,0.00583213
-0.0329061,0.00275983
-0.0365679,-0.000552084
-0.0476796,0.0103778
-0.0343073,0.0160134
-0.00048027,-0.00134034
0.0416664,-0.0163003
0.0605539,-0.0105644
0.047457,0.00205167
0.0216537,-0.00049041
0.0183209,-0.00310526
0.00133746,0.00506528
-0.00704655,0.00597979
-0.00150793,-0.0220082
0.00345116,-0.0469504
0.00229017,-0.0392112
-0.00491543,0.00326758
-0.00467862,0.00933319
8.35e-06,0.00828713
-0.00591058,0.0159279
-0.0195129,0.0124776
-0.0204689,0.00521032
-0.00912465,-0.00781115
0.00660006,-0.0145602
0.0114694,-0.00352285
-0.00157917,0.00493934
-0.0160328,-0.00152928
-0.0174939,0.00463413
-0.00399223,0.0142332
0.022134,0.0124939
0.0292707,-0.0029355
0.0244078,-0.00769337
0.0225518,0.00103241
0.00226246,-0.000381026
0.00079098,-0.00823725
0.0122682,0.00737848
0.0118002,0.0153624
-0.0117772,0.00542014
-0.0285242,-0.00496603
-0.0189606,-0.0138599
0.00590885,-0.00767439
0.0168837,0.00169647
0.020557,-0.00488616
0.0137013,-0.0168659
-0.0129189,-0.0217837
-0.0259756,0.0103207
-0.00901299,0.0160358
0.00804639,-0.0177405
0.00390555,-0.0128787
0.000848517,0.00415643
-0.00170872,0.00563921
-0.0162366,0.00880258
-0.0296173,0.0139533
-0.0232309,0.00505596
-0.0150936,0.00738656
0.000367056,-0.00555613
-0.024794,-0.0181532
-0.0550332,-0.00925336
-0.0323763,0.00568619
0.00824625,0.00272575
0.041076,0.0175016
0.059759,0.0240633
0.0790392,0.00795117
0.0792835,-0.000873772
0.0730854,-0.0085822
0.0490332,-0.00786712
0.0234949,-0.00939598
-0.0354109,0.00123753
-0.0990759,0.0094953
-0.135866,0.00670537
-0.13757,-0.0054569
-0.110144,-0.0120781
-0.0653557,-0.0237519
-0.00341746,-0.0318873
0.0623589,0.0187711
0.112324,0.013042
0.124546,-0.00768257
0.0754756,-0.00584513
0.0190858,0.00271698
0.00487729,0.0116829
-0.0100473,-0.00982079
0.00622359,-0.0227152
0.026051,0.0204213
0.0260197,0.0263812
0.0107088,0.020025
0.0129877,0.0104264
0.00388882,0.00746019
-0.0185106,0.00782763
-0.0526994,0.00394707
-0.0545576,-0.00626559
-0.0321106,-0.0104624
-0.0118036,-0.0067398
0.00534082,6.5e-05
0.027415,0.0075042
0.0333733,0.0161715
0.00285513,0.0198938
-0.0145483,0.000371164
-0.0161224,-0.0208179
-0.00742374,-0.0132674
0.00855887,-0.00553703
-0.00172822,-0.0129872
-0.021018,-0.0139203
-0.000558961,-0.00408525
0.0144325,-0.00920726
0.00961268,-0.00383031
-0.00155514,-0.00265999
0.033839,0.00741445
0.0550123,0.0138975
0.0301844,0.0151372
-0.00500779,0.0126775
-0.0270791,0.00219861
-0.0283259,0.00375973
-0.0475292,0.00431715
-0.0835643,0.000827495
-0.0844505,-0.0115471
-0.0630424,-0.0102648
-0.00372155,-0.00696888
0.0391134,-0.00564161
0.0587596,-0.00275106
0.0470288,0.00246787
0.0273735,0.00534809
0.0168392,0.00156221
0.0248724,-0.0184297
0.0176501,-0.0352314
0.0330456,-0.011471
0.0551867,0.00481343
0.0305525,0.0122142
-0.00624938,0.0363926
-0.0242234,0.0305535
-0.0225856,0.0128074
-0.0333486,-0.010402
-0.0306162,-0.0174503
-0.016318,-0.00973179
0.0122479,-0.0099312
0.0277126,-0.00183665
0.0202154,0.00664976
0.0207573,0.00468204
0.00109671,0.00935971
-0.0628485,0.0206023
-0.0651968,0.00727834
-0.00502978,-0.0127358
0.00687764,-0.0173537
-0.00559578,-0.00890714
-0.00388764,0.00404152
-0.00878839,0.00425899
-0.025764,0.00549305
-0.055165,-0.0120746
-0.0484059,-0.0170398
-0.0058867,0.00436299
0.0155216,-0.00280962
0.0297438,-0.00754509
0.044773,0.00595
0.0489364,0.0314411
0.04311,0.0243179
0.0392007,-0.00203258
0.0581354,-0.0377644
0.035777,-0.0348127
-0.00256593,-0.0150062
-0.0279364,-0.000266945
-0.0346572,0.000883378
-0.0117813,0.00707807
-0.00737296,-0.00678187
-0.00819441,0.0296259
-0.00554453,0.0270696
0.00820735,0.00136169
0.0208138,-0.00440032
0.027474,-0.00978577
0.0109159,0.00214805
0.0046689,0.013953
0.00427802,0.0108429
-0.0213173,0.00544474
-0.0413516,0.0102074
-0.0417888,-0.00265033
-0.00537668,-0.0225299
0.0141467,-0.0202501
0.0110246,-0.00704873
0.0134378,0.00610194
0.0159171,0.00723858
0.0105991,0.0107726
0.00818557,0.0382724
0.00644852,0.0152247
-0.020617,-0.0188195
-0.0668956,-0.00798994
-0.0911516,-0.004654
-0.0991203,-0.0155878
-0.0485522,0.0015709
0.0124442,0.0191315
0.0587925,-0.00871373
0.1008,-0.012292
0.0386675,-0.0104533
-0.022564,-0.0104146
-0.00361145,-0.00157939
0.0260839,-0.0146269
0.0320059,-0.0134267
0.0101671,-0.00519501
-0.0159702,0.00853596
-0.00939607,0.0198358
0.0110692,0.0121839
0.0640997,0.00133594
0.0918242,-0.00174523
0.0544054,-0.00353649
0.00402762,9.47e-05
-0.0606322,0.0123333
-0.107021,0.0150637
-0.0895073,0.0130656
-0.0335106,-0.00860082
0.0320476,-0.0221603
0.0659707,-0.0122122
0.0563991,-0.00117921
0.0263865,-0.00116628
0.00239375,0.0107244
0.00158051,0.0216089
0.0163288,0.016435
0.0279714,0.00163149
0.0132055,-0.010929
-0.0126714,-0.00690284
-0.0412795,-0.0173904
-0.0354105,-0.0132996
0.00128317,-0.00216951
0.0170976,-0.00820303
-0.00780064,-0.00859982
-0.00935747,0.00696887
9.12e-05,-0.00631121
-0.0223543,-0.0141542
-0.0676701,-0.00236481
-0.0886136,-0.00997001
-0.102937,0.00754187
-0.0800981,0.0156056
-0.0290826,0.0159406
0.0470016,0.0147957
0.117564,-0.00133783
0.112873,-0.00881717
0.0824455,0.00611125
0.0532719,0.0102922
0.0254904,0.00716832
0.0218927,0.0129716
0.00437673,0.00269754
-0.035083,-0.0024359
-0.0225477,0.00477239
0.0054872,-0.0101744
-0.00588913,-0.0176589
-0.0212868,-0.0126989
-0.0361418,-0.00786821
-0.0390926,0.00820266
-0.027811,0.0122147
-0.0202612,0.00735507
0.00159361,-0.00405438
0.0248006,-0.0165789
0.0183781,-0.0122542
0.0140248,-0.00542335
0.0145792,0.0018228
0.00944573,0.00809962
0.0031279,0.0133112
0.00459341,0.0136177
0.0134973,0.0087393
0.020883,-0.00322188
0.0205475,-0.0101923
0.0032877,-0.00434538
-0.0204119,0.0104494
-0.0208178,0.00808041
-0.0128072,-0.000119848
-0.000208575,0.00852971
-0.00558729,0.01949
-0.0207138,-0.00104671
-0.0179816,-0.00323539
-0.0152919,-0.0186148
-0.0108119,-0.0607627
0.00293869,-0.00326125
0.00543288,0.0214767
-0.0140697,0.0181896
-0.0284037,0.0151488
-0.0162084,0.0113371
0.0255744,0.00150557
0.0542103,-0.0103068
0.0476444,-0.00879514
0.0341564,-0.00819023
0.00221819,-0.0121433
-0.0219991,-0.0155213
-0.0273602,0.00200496
-0.0263128,0.00509562
-0.0396002,-0.00903541
-0.0427016,-0.0015945
-0.0180335,0.0110935
0.0348186,0.00555288
0.063743,0.00817409
0.0598849,0.0133708
0.0247892,0.00762602
-0.0404006,0.00370504
-0.0411435,0.00437205
-0.0022313,-0.0130019
0.0111134,-0.0266548
0.0139129,-0.023122
0.0128272,-0.00752001
0.0113774,0.00145872
-0.00690259,0.00429358
-0.0124395,0.00974729
-0.0076748,0.00350274
0.00211448,-0.00810659
0.007737,-0.00482485
0.00693631,-0.0069494
0.00581572,0.00911055
0.00229961,0.0271799
-0.00187854,0.0159551
0.00265193,0.00831252
0.0102643,0.0190693
0.00973633,0.00403344
0.0141137,-0.011827
0.011847,-0.0140192
-0.00312726,-0.00313747
-0.00699873,0.0106681
-0.00581201,0.0109587
-0.0134886,0.0187365
-0.0282649,0.020914
-0.0414145,-0.0272827
-0.0475268,-0.0376248
-0.0785508,-0.0225372
-0.0652996,0.00135676
-0.0205343,0.00509179
0.0324631,-0.000711633
0.0624618,0.0144264
0.0542493,0.00578622
0.00116666,0.00828287
-0.00860405,0.00401706
0.0107872,-0.0135277
0.000681536,0.00927484
-0.0122666,-0.00590626
-0.0185297,-0.0415619
-0.00191858,-0.0176931
0.0322663,0.0243801
0.0690043,0.0105815
0.0828595,0.00386313
0.0682775,0.00350255
0.0458409,0.00993948
0.0144131,0.000717644
-0.0337885,0.00590981
-0.06185,0.0151501
-0.0449066,0.0119404
-0.0131686,0.00638382
0.00274027,-6.44e-05
0.0146456,-0.0148544
0.0247901,-0.0226515
0.00316846,-0.0119997
-0.0179214,0.00301204
-0.0116008,0.00146042
-0.00578911,0.000603294
-0.00929756,0.00578214
-0.00845163,0.00591761
-0.00387877,-0.00126866
-0.00386763,0.000908492
-0.0121159,0.00684642
-0.0140765,0.00382075
-0.0201216,0.00635643
-0.0180897,0.0107833
0.00392014,0.0109591
0.0215729,0.0144342
0.0109453,-0.000490292
0.0128575,-0.0274426
-0.0168537,-0.0390984
-0.063149,-0.0233022
-0.0526158,-0.0251385
-0.0469064,-0.0154447
-0.0650713,0.0128513
-0.0400655,0.0110532
5.84e-05,0.0143792
0.0580254,0.0176916
0.0898363,0.0254264
0.100432,0.0216553
0.0759635,0.00010308
0.0247703,0.00368868
-0.0178691,0.0205113
-0.0511385,-0.00166189
-0.0548068,-0.0363695
-0.0122994,-0.0469803
0.0327592,-0.0246511
0.0443811,0.00309579
0.0405993,0.00439239
0.0198542,0.00144577
0.0146385,0.00292635
0.00706609,0.00355734
-0.00213848,9.79e-05
0.0177568,-0.00135744
0.02391,-0.00498538
-0.0230683,0.0089502
-0.063366,0.0204203
-0.0470749,0.0194079
-0.035336,0.0174517
-0.0259837,0.0152034
-0.00196382,0.00515324
0.0135613,-0.00757803
0.0185127,-0.0158275
0.0231589,-0.019034
0.0286502,-0.0122372
0.0217221,-0.00199242
-0.00321808,0.00541548
-0.018219,0.00905584
-0.0177722,0.00863541
-0.0399678,0.00244246
-0.0401323,-0.0102058
-0.0164199,-0.00455618
-0.00943105,0.00565773
-0.00340673,-0.00120714
0.0091608,0.010825
0.0193279,0.0292174
0.0215136,0.0333262
0.00941587,0.00856831
-0.00220541,-0.0386767
-0.0110567,-0.0314871
-0.00322472,-0.0100036
0.00927485,-0.0158385
0.0251276,-0.0153866
0.0476695,0.00265431
0.0459732,0.00812377
0.0149176,-0.00309416
-0.00182138,-0.0198283
-0.0112676,-0.0122893
-0.0265183,0.00133987
-0.0149354,0.00772177
-0.00875662,0.0143915
-0.0255291,0.0151235
-0.0236609,0.0181974
-0.0146005,0.00259947
-0.00123331,-0.00463787
-0.00124478,-0.025203
-0.00650436,-0.034908
0.00827001,-0.0159192
0.0072933,0.00114172
0.00566713,0.00460927
0.017502,0.0175163
0.0272149,0.0247645
0.0160633,0.0209347
0.00239737,0.00952872
0.000900236,-0.0148246
0.00124251,-0.00192581
-0.00158601,0.0116791
-0.0118147,0.0105578
-0.0240277,0.00449202
-0.0275656,0.00670046
-0.0149467,0.00849582
0.00414701,0.0140904
0.016016,0.00180306
0.0269781,-0.011076
0.0194585,-0.00269912
0.0125378,0.00858517
0.00526735,0.00581688
0.00433317,0.00384742
-9.11e-05,0.00334171
-0.0162936,-0.00450199
-0.0443962,-0.0170182
-0.0514052,-0.0188877
-0.0430608,-0.0204496
-0.0379057,-0.0258018
-0.00614415,-0.0218239
0.0225848,0.00108147
0.0422474,0.0141942
0.0557847,0.00987436
0.0635768,-0.000441294
0.0554812,-0.00152853
0.0280219,0.00913128
-0.00823881,0.007398
-0.027707,-0.00042113
-0.0238434,0.0193786
-0.0184219,0.0363492
-0.00906452,0.0104246
0.0183069,-0.00803616
0.0216047,-0.0050687
-0.0155701,-0.00292749
-0.0267802,-0.0161477
-0.0190404,-0.0133147
-0.0199333,0.00858209
-0.00963058,0.0107778
0.00491029,-0.0108772
0.0193229,-0.0150714
0.0112423,-0.000824947
-0.00649727,-0.0107087
-0.0128159,-0.0115645
-0.00394252,-0.000394366
-0.0097552,-0.00229845
-0.0239531,-0.00171085
-0.0230105,0.010334
-0.0129729,0.0172293
0.0151041,0.00119583
0.0404333,-0.00788307
0.0380474,0.00137748
-0.00131706,0.00735058
-0.0319701,0.013431
-0.0264782,0.011886
-0.000697315,0.00480097
0.0240119,-0.000189284
0.0249536,0.000574689
0.00920867,-0.0110456
-0.000753601,-0.0223714
-0.032628,-0.021962
-0.0323241,-0.00543193
-0.0240789,0.0116331
-0.0449411,0.0174026
-0.0702891,0.0167664
-0.0496642,0.0111391
-0.0194271,-0.00277305
0.0329084,-0.0105627
0.0882703,-0.0106678
0.114579,-0.00439748
0.095248,-0.00660774
0.0465204,-0.0271799
-0.00759108,-0.0234776
-0.0168703,0.0192242
0.00681964,0.016562
0.013706,-0.036565
0.0117116,-0.0208199
0.0131242,0.00725388
0.0144153,0.0265082
0.0165283,0.036412
0.00379393,0.0208645
-0.0632915,0.00595864
-0.0832796,-0.00346473
-0.050642,-0.0111795
-0.0168403,-0.00530878
-0.00239407,-0.00350571
0.00897275,-0.00497203
0.0202357,-0.00179415
0.0135633,-0.00249015
3.56e-05,-0.00112038
0.00992228,0.00619559
0.0115891,0.00145394
0.00404848,0.0158713
-0.0168809,0.0343527
-0.0600521,0.0371127
-0.0515362,0.0134315
-0.0117439,-0.0108608
0.0271872,-0.0260828
0.0455918,-0.0447843
0.0668184,-0.0343628
0.060545,-0.00577599
0.01521,-0.0135828
-0.0163065,-0.0177498
-0.0249378,-0.0106372
-0.0229846,0.00978517
-0.00698358,0.0262884
0.011498,0.0348834
0.0117616,0.0249475
-0.00738618,0.0104472
-0.0459052,0.00882956
-0.0547573,0.0121263
-0.0240858,0.0076794
0.0054206,0.00902472
0.026219,0.00390495
0.0258703,-0.0125999
0.00851948,-0.030945
0.0166889,-0.029839
0.0117263,-0.0236326
-0.0101236,-0.0195969
-0.00887427,-0.000517328
-0.0142608,0.00796394
-0.0232398,0.00637039
-0.0153694,0.00615281
-0.00367421,0.0203177
-0.00462115,0.00551678
-0.00223904,-0.00831449
0.00881286,0.00719852
0.0134994,0.0158393
0.00908247,-0.00534222
0.00577494,-0.00672679
0.010771,-0.00879998
0.0229936,-0.0201439
0.0327527,-0.0165709
0.0288292,-0.0105515
0.0137645,-0.0106053
-0.00993243,-0.0172571
-0.0245167,0.00353969
-0.0143239,0.0278955
-0.00952419,0.0410106
-0.00883613,0.043891
-0.00990426,0.00988063
-0.00579245,-0.0059845
-0.00562325,-0.00401186
-0.0167993,0.0055388
-0.0186938,0.00643334
-0.00846015,0.00768624
0.00173096,-0.0122619
0.0111618,-0.0294774
0.0206323,-0.0257594
0.0297757,-0.0325102
0.0137416,-0.0313712
0.00321936,-0.014912
0.0134739,0.00599208
0.00219792,0.0209723
-0.00825216,0.0270857
-0.0123997,0.0166443
-0.0169203,0.0154323
-0.0356322,0.00912032
-0.0254049,-0.0046627
-0.00133311,-0.000646058
0.0317163,0.00544239
0.0425544,0.00537529
0.0310046,0.0105364
0.014406,0.014544
-0.00357126,-0.00508794
-0.0114525,-0.0265114
-0.0227059,-0.0155796
-0.0435178,-0.00430214
-0.0527891,-0.00409131
-0.0499114,-0.000617475
-0.028521,0.0125017
-0.00542601,0.00972771
0.0185982,0.00414293
0.036162,0.00846442
0.0331691,0.00117453
0.0312869,0.00964093
0.0312628,0.00363103
0.0335604,-0.000464112
0.0246779,0.00537878
0.0151514,0.00928899
-0.00411797,0.00699423
-0.0115456,-0.00369239
-0.00121989,-0.0187478
-0.00880666,-0.0190906
-0.0183743,-0.0151835
-0.0137545,-0.0138044
-0.0174478,-0.0270183
-0.013669,-0.0177415
0.00748768,0.00194646
0.000393974,0.000116955
-0.0034522,0.0102506
0.00664826,0.00661545
0.00765117,0.00436834
0.012943,0.0118607
0.0160825,0.00615401
0.0123907,-0.000107014
0.00467303,0.00537409
-0.00141824,0.0125007
-0.0031848,0.00123139
0.00777876,-0.0103318
0.0116888,0.00888069
0.00911386,0.0145601
0.0132664,0.0139646
0.0139798,0.0296992
-0.0221476,0.0247378
-0.0539341,-0.0188934
-0.0459072,-0.0364761
-0.0140238,-0.0113732
0.00136922,-0.0110429
-0.0003251,-0.026425
-0.00714084,0.00501924
-0.0311242,0.0189667
-0.0346321,0.00467084
-0.0164285,0.00456299
0.0100542,-0.00265876
0.033874,-0.0214533
0.044782,-0.0153502
0.0377724,-0.00172643
0.0164079,0.00945783
0.00182134,0.0111576
-0.000874851,0.00482606
0.00345952,0.0094525
0.0153753,0.0118477
0.0109233,0.00560401
0.00440786,-0.00799523
-0.000838511,-0.0124249
0.00136944,0.00228435
-0.0051085,0.00667008
-0.0204231,-0.0064583
-0.0343933,0.000897454
-0.024258,-0.007581
0.00782008,-0.0210451
0.0375931,-0.00519946
0.0375498,-0.00789515
0.0247838,-0.00547734
0.00326134,-0.00975831
-0.0194076,0.00405316
-0.0268508,0.0190997
-0.0157032,0.00132216
0.00338793,0.000948058
0.0213519,0.00341651
0.0197033,-0.000814233
-0.0175023,-0.00163524
-0.0213108,0.0125038
-0.00652071,0.0179833
-0.0280893,0.0148602
-0.0324991,0.0140103
-0.0186375,0.0136056
0.0114783,0.00449354
0.0416196,-0.010501
0.0285216,-0.00918698
0.00395245,-0.0112267
-0.00448969,-0.00621205
-0.0569508,-0.00705194
-0.118506,-0.00969959
-0.0928081,0.003437
-0.023629,0.0137497
0.0355695,-0.0230853
0.082538,-0.0208216
0.111784,0.0221777
0.100459,0.0223373
0.0500851,0.000807584
0.00199268,-0.00263368
-0.0250055,0.0213556
-0.0469591,0.0207905
-0.0345774,-0.00393604
0.000723982,-0.0164392
0.0130655,-0.00885337
0.0221733,-0.00720669
0.0376908,-0.0104975
0.0279193,-0.0022881
0.00325925,-0.00181032
0.00171321,-0.00361788
0.00264366,-0.00762967
-0.0109473,-0.0138822
-0.0345374,-0.0136623
-0.0434569,-0.00582332
-0.0281934,0.00657799
-0.0122475,0.00889182
-0.00726508,0.00816649
-0.00612291,0.0107455
0.00502429,0.00286614
0.0199713,-0.0135854
0.0279427,-0.00165652
0.018518,0.013322
-0.00390843,0.00586988
-0.0141706,0.0125194
-0.0158676,0.0212843
-0.0178439,0.0212338
-0.00185196,0.0122518
0.00381512,-0.00254065
-0.0156044,-0.0254333
-0.0244539,-0.0292067
-0.0354064,-0.0021814
-0.0454117,0.00283374
-0.0364874,-0.00554676
-0.00330984,-0.01018
0.0228177,0.00173894
0.0410149,-0.013104
0.039263,-0.0373582
0.0363102,-0.0230418
0.0406723,0.00498717
0.0324402,-0.00737903
0.010027,0.00629583
-0.00189677,0.016221
0.00254683,0.0186615
0.00587278,0.0111111
0.0159469,0.00925381
0.0183681,0.00450372
-0.0114119,0.00768796
-0.0222146,0.00923528
-0.0123865,0.00755434
-0.00683018,0.00858963
-0.0162595,0.0123687
-0.0397175,0.00499488
-0.0358128,-0.00902219
-0.00352436,-0.0183446
0.00711359,-0.0122147
0.00933938,-0.0103056
0.0168474,-0.00172767
0.016632,0.00580101
0.00349292,0.00292591
-0.000976746,-0.000262121
0.00341776,0.00375885
0.021266,-0.00290644
0.0260723,-0.007702
0.0139913,-0.00931622
0.00410365,0.00184303
-0.00470962,0.0129333
-0.0156742,0.0177916
-0.0227394,0.0198643
-0.0106759,0.00853978
0.00344069,-0.0175744
0.00572028,-0.0170649
-0.00708528,-0.0219963
-0.0105603,-0.0179256
-0.00128868,0.0134808
0.0073785,0.01869
-0.00117681,0.0128478
-0.0188594,0.012263
-0.0235737,-0.0107587
-0.0149,-0.0252163
-0.00511735,-0.0063839
0.00387335,0.0039735
0.00942701,0.00713877
0.011293,0.0153411
0.010688,0.017419
0.00488845,0.00886583
0.0150929,-0.00434997
0.0190261,-0.00952478
0.00180673,-0.0101792
-0.0039881,-0.0103007
-0.00710185,-0.0017752
-0.00826815,0.00830581
-0.00497738,0.0119997
-0.000180764,0.00521673
-0.00802883,-0.00261681
-0.00902443,-0.0125699
0.00891915,-0.0156193
0.0187684,-0.0251338
0.0172812,-0.015225
0.00787474,0.023001
-0.00336893,0.024904
-0.00195076,0.0226103
0.00481846,0.0114612
0.00587054,-0.01904
0.00327991,-0.0303556
0.00020062,0.0032937
-0.00839733,0.0123707
-0.0102665,0.00874633
-0.00959488,0.0146666
-0.0106967,0.0151837
-0.00494973,0.0045133
-0.00280252,0.000174326
-0.0234258,-0.0359643
-0.0223529,-0.0263225
6.19e-05,-0.00196613
0.0185639,0.00564122
0.0213766,0.0136402
0.00962063,0.0173729
-0.009462,0.0100833
-0.0114355,-0.00252144
0.000228775,-0.0126043
0.0110151,-0.0140633
0.0192141,-0.0105787
0.0258037,-0.00266521
-0.0115299,0.0124094
-0.053931,0.0181882
-0.0523407,0.00654126
-0.0223808,-0.00267487
0.012588,-0.00707212
0.0351558,-0.0129967
0.0307312,-0.00762581
0.0151702,0.000526704
0.0107483,0.00550957
0.0173135,0.00291256
0.0191408,0.00497933
0.0198846,0.0117008
0.0151678,0.00118689
0.00332496,-0.0152085
-0.0158569,-0.0135184
-0.0225105,-0.00996733
-0.0101545,-0.000994721
-0.00380076,0.0101977
-0.00100036,0.0132042
0.00222684,0.00291476
-0.0020211,0.000190528
-0.00889499,-0.00806027
-0.00745795,-0.0167199
-0.00491061,0.00338932
-0.00490621,0.0100433
-0.00467395,-0.005389
-0.00582747,0.00311977
-0.00671459,0.0230077
-0.00283524,0.0176139
-0.00554816,-0.00575171
-0.00825084,-0.0231884
-0.00497418,-0.0139934
-0.00866746,-0.00921719
-0.00755767,0.00247368
0.0100807,0.0115333
0.0176145,0.00146591
0.0140839,0.00440571
0.0156902,0.00396618
0.0294831,-0.00591224
0.0315661,-0.00917811
0.0117228,-0.00608256
-0.00357227,-0.0039989
-0.00748365,0.000962324
-0.0121154,0.00885741
-0.0102668,0.0219645
-0.00534667,0.00855955
-0.000170747,-0.011792
0.00154576,-0.00841805
-0.00681806,-0.000246392
-0.012033,0.000725645
-0.00949855,0.00743265
-0.0101091,0.0156972
-0.0148099,0.0133873
-0.013628,0.00744266
-0.00713772,0.000620885
0.0017138,-0.00914348
0.00520924,-0.0114474
1.79e-06,-0.0289092
-0.00181827,-0.0106836
-0.00607912,-0.000731082
-0.00848955,0.000828129
-0.00245837,0.0206367
0.00155031,0.00544743
0.00522839,-0.0383845
0.0166585,-0.016122
0.0168621,0.00723658
0.00581495,-0.00491135
0.00385495,0.00486801
0.00225641,0.00913999
-0.00286519,-0.00128532
-0.00509063,0.0129915
-0.00444158,0.0106327
0.00341196,0.00336577
0.00259766,0.00356578
0.00543449,0.0032721
0.0250936,0.0029392
0.0324391,0.00655386
0.015756,0.0083397
-0.00362289,0.00677447
-0.00769954,-0.00116636
-0.0116207,-0.00905607
-0.0210057,-0.00634698
-0.0206244,-0.00629522
-0.00730308,-0.00123086
-0.000948658,0.00928978
0.00452049,0.015327
0.00262697,0.0077013
-0.00345202,8.67e-05
-0.00265596,-0.0113443
0.00101419,-0.0187376
-0.0020612,-0.00731754
-0.00853194,0.000412619
-0.0137542,-0.00339288
-0.0163393,-0.00189418
-0.00233205,0.00237284
0.0265783,-0.000426213
0.0447093,-0.00806292
0.0457063,-0.0138508
0.0361313,-0.000574799
0.0153081,0.000670189
-0.0102627,0.0101182
-0.0346591,0.0176751
-0.0473785,0.00916301
-0.0514325,0.00473268
-0.0531397,-0.0039182
-0.0457157,-0.0195533
-0.0313829,-0.0193725
-0.0193935,-0.000530726
-0.0217684,0.0101766
-0.025695,0.00655997
-0.0339108,0.0112677
-0.0457384,0.0160951
-0.032251,0.00397702
-0.00927342,-0.0103386
0.036912,-0.00810377
0.0956601,-0.00421604
0.158169,-0.00343308
0.169386,0.00550567
0.140141,0.0135776
0.14498,0.0117655
0.151912,0.00943176
0.115909,0.00326862
0.110718,-0.00840467
0.147398,-0.00656978
0.122656,0.00184391
-0.0297993,-0.00332719
-0.203931,-0.00469061
-0.278395,0.000927773
-0.308136,-0.0212732
-0.310465,-0.0346881
-0.255988,-0.0106436
-0.176099,0.00710211
-0.113789,0.00546004
-0.057501,0.00985818
-0.00825975,0.0203243
0.00470992,0.017678
0.00277638,0.0102737
0.00919487,0.00404137
0.0381281,-0.0109038
0.0984167,-0.016989
0.114598,-0.00537842
0.0660634,0.00616833
0.0401549,0.0065873
0.0593378,0.00599776
0.0634154,0.0107474
0.0682808,0.00225093
0.0751721,-0.0157613
0.0714786,-0.0220981
0.0695861,-0.0128646
0.0753414,-0.00333228
0.0466205,0.0082098
0.0298075,0.0141408
0.044165,0.00672019
0.0448518,0.00150876
0.0133431,-0.000979013
0.0590156,-0.00709944
0.0966902,-0.00186316
0.0120798,0.00718744
