Comp Ch 3,Comp Ch 4
-0.00922331,-0.00828023
0.00939582,-0.0112191
0.0389976,-0.000539488
0.0779573,0.0102061
0.164919,0.0140358
0.265432,0.00283401
0.229087,-0.00937852
0.1062,-0.0174648
-0.0567551,-0.0191617
-0.176666,-0.00866178
-0.199174,-0.00651886
-0.134691,-0.00062923
-0.0648926,0.00551048
-0.0223327,0.0127563
-0.00344283,0.0201982
-0.002357,0.0109809
-0.0261479,-0.00080578
-0.0389683,-0.00937256
-0.0192359,-0.00372789
-0.00971362,0.00892598
-0.0118448,0.0156282
-0.0090471,0.0120715
-0.00694081,0.00336446
0.000437983,-0.00748996
0.0349641,-0.0235779
0.0624633,-0.019052
0.0533182,-0.0181123
0.0269186,-0.0209114
0.00147745,0.00536178
-0.00523116,0.0204479
0.0046343,0.0148246
0.00904518,0.0130014
-0.00152099,0.0065523
-0.00978321,-0.0104153
-0.00635978,-0.016672
-0.00204921,-0.00720358
-0.00316711,0.00544016
-0.0116697,-0.00602349
-0.00634493,-0.00805567
0.03546,0.0066757
0.0651635,-0.0142601
0.0633771,-0.0141113
0.0317152,-0.000913501
-0.0106587,-0.00217717
-0.0397252,-0.000271111
-0.0442105,0.02592
-0.0270725,0.0340526
-0.0194884,0.00408542
-0.0337945,-0.0130532
-0.0240917,-0.00985723
0.00561499,-0.012439
0.0123107,-0.00821031
0.00604576,0.00953007
0.00576312,0.00437245
0.00558365,0.00352565
-0.00638048,0.0168445
-0.0159127,0.0206309
-0.0143141,0.0126383
-0.00432576,0.0198053
0.00486794,0.020628
0.00628277,0.00828573
0.00410888,-0.00772827
0.00238354,-0.0240865
0.00289265,-0.0299467
0.0135368,-0.00432331
0.0210083,-0.0011283
0.0189064,-0.0174928
0.00804128,-0.0304037
-0.00225963,0.000924786
0.00116129,0.0329345
-0.000774523,0.0313305
-0.00935101,0.0281757
-0.0139263,0.0316413
-0.0152006,0.00487049
-0.00887314,-0.0398083
-0.0024035,-0.0470089
-0.000996156,-0.00184813
0.00311712,-0.0282048
0.00995899,-0.030514
0.0117825,0.00368144
0.0144929,0.0108314
0.0132999,0.00338965
0.0132635,0.00107206
0.0138385,-0.00588837
0.00400819,-0.0127589
-0.00753997,0.0141595
-0.00579644,0.0165226
-0.00368377,0.0131258
-0.0101616,0.0261988
-0.0136685,0.0199667
-0.00988156,-0.00433337
-0.00091908,-0.0131398
0.00573754,-0.0338641
0.00638532,-0.0272054
0.00961167,-0.00975099
0.0105179,-0.00372364
0.0113638,0.0141003
0.0135458,0.0291835
-0.00244708,0.0266481
-0.0337031,0.0248984
-0.0406875,0.0273677
-0.036728,0.0193478
-0.022061,0.00216615
-0.0039966,-0.0258108
0.00119811,-0.0301994
-0.00560624,-0.015161
-0.0375207,-0.00863587
-0.0697929,-0.00632407
-0.100665,-0.0066092
-0.0794308,-0.0127607
0.00343041,-0.0152876
0.0561788,-0.00957312
0.0624434,0.00796793
0.0791212,0.00937286
0.0815543,-0.00732824
0.0626397,-0.00939908
0.0627041,-0.0235381
0.0686122,-0.0145778
0.0577771,0.00263424
0.0353354,0.0104908
0.0137341,0.0051868
-0.00303788,0.0116075
-0.0138966,0.022989
-0.00868063,0.00944981
-0.000364989,-0.014406
0.0050092,-0.00979276
-0.00357488,-0.00161219
-0.0123692,-0.00325501
-0.0305888,0.0244459
-0.0629431,0.0506408
-0.0895501,0.0320073
-0.0897909,0.0144279
-0.0690615,0.00986656
-0.0124875,-0.0228311
0.0555913,-0.0326979
0.0621486,-0.0104874
0.0231838,-0.0130938
-0.0215571,-0.00586904
-0.0422431,0.000227029
-0.0580296,-0.000419759
-0.0579881,-0.00912486
-0.0590491,-0.0197845
-0.0604702,-0.00592396
-0.0236999,0.00569787
0.0704571,0.00457339
0.154969,0.0216186
0.156219,0.0333985
0.113556,-0.000845072
0.0726619,-0.0125846
0.0120605,-0.0257692
-0.0254787,-0.00903554
-0.0543504,-0.00723364
-0.0711423,0.0310387
-0.0687452,0.0775087
-0.0196107,0.0516704
0.0285847,0.00221593
0.0208799,-0.0385579
0.00489051,-0.0805944
0.0146975,-0.0840648
0.0292205,-0.0248447
0.0409198,0.00252956
0.0196248,0.0141879
-0.0109747,0.0173981
-0.0189803,0.0141505
-0.0152118,0.00851302
-0.0194859,0.00573747
-0.0300096,-0.00930305
-0.0295887,-0.00778509
-0.00666375,0.00350966
0.0166748,0.000318611
0.0159486,0.0161066
-0.032529,0.02474
-0.0687089,0.00123986
-0.0404624,-0.0170256
-0.000997827,0.00233276
0.0196146,0.0145821
0.0148817,-0.000273045
-0.0511211,-0.00881153
-0.0986668,0.00155886
-0.0920543,0.00966985
-0.0377915,0.00312201
0.0124016,0.00405365
0.0635332,-0.00091633
0.106365,-0.00619096
0.108308,-0.0187765
0.0639575,-0.0313106
0.0440122,-0.0187866
0.0482193,0.0356218
0.0345066,0.057884
0.0241557,0.00556518
0.0440081,0.00135391
0.0449816,0.00207213
0.00851738,-0.00444285
-0.020641,-0.0411101
-0.0331434,-0.0345368
-0.0590765,0.0442966
-0.0931951,0.0432971
-0.0569444,0.00797999
-0.0212347,0.00111996
-0.0341712,-0.0114226
-0.0478439,-0.0264812
-0.0349738,-0.0121308
-0.0135431,-0.00150357
0.00392783,0.00324993
0.0147124,0.000739505
0.0197389,0.0144227
0.0150769,0.0160263
0.0113128,-0.0125037
0.0160522,-0.0303363
0.0158064,-0.0233891
0.0132987,-0.00877249
0.0150012,0.00461762
0.00477986,0.00933564
0.000717939,0.0109229
0.00676171,0.00658148
0.00712361,0.0114975
0.00408955,-0.0161838
0.00403702,-0.00810037
0.00442385,0.00830448
0.0114541,0.0149086
0.0106452,-0.00124226
-0.00119537,0.0141693
-0.0105978,0.0172529
-0.00861571,0.00346323
0.00533266,-0.0226903
0.0126408,-0.0294869
0.00736244,-0.0015893
0.00382094,-0.00285337
-0.00278079,-0.00959943
-0.0148542,-0.00291657
-0.0455729,0.00617425
-0.0575108,0.00556365
-0.0444997,0.00452428
-0.0173393,-0.00540239
0.0133734,-0.00725375
0.0367036,0.00498381
0.050079,0.00894727
0.0456276,0.00822997
0.0236223,0.0176262
0.00524621,0.0228517
-0.00216693,0.00572092
-0.000764081,-0.0155145
0.00364647,-0.0135292
0.000883101,-0.00797751
-0.0067885,-0.00374773
-0.012608,0.00781445
-0.0101158,0.0111832
-0.00367932,0.00469086
0.00275756,0.00476995
0.00409775,-0.00510766
9.51e-05,-0.018793
-0.00198771,-0.0167057
0.00147144,-0.00833876
0.00749099,0.00154322
0.0140306,0.0247581
0.00683913,0.0237412
-0.00570572,0.00376346
-0.0141583,-0.0222436
-0.00472328,-0.0242603
0.0152596,-0.00495293
0.0125355,-0.00831909
-0.00523352,-0.0182638
-0.0191059,-0.0211548
-0.0103402,-0.0143528
0.00761491,0.0228719
0.0103219,0.0243952
0.00335032,-0.0047542
5.22e-05,-0.0190457
0.00593744,0.00330589
0.00881826,0.0176907
0.00741146,0.014869
0.0033212,0.0148915
-0.000446066,0.0274626
-0.00296876,0.00583069
-0.00232923,-0.0127459
-0.00899644,-0.00729298
-0.0214261,-0.0171452
-0.0219681,-0.0169752
-0.0139336,0.00136779
-0.00860962,0.00820601
-0.00973985,-0.01621
0.000515467,0.0231453
0.0174808,0.0225272
-0.0176562,-0.00838771
-0.0574195,-0.0127426
-0.0335663,0.00963079
0.00961938,0.0212359
0.0286709,0.0105963
0.0313139,0.0151808
0.00644901,0.0173385
0.00637637,-0.00780157
0.0296169,-0.0169145
0.0496599,-0.00997155
0.0534087,-0.0137652
0.00308341,-0.0268436
-0.105795,-0.0112829
-0.138741,0.00749368
-0.0810938,-0.000899659
-0.00219714,-0.00261397
0.0308194,-0.00432154
0.0506639,-0.0142608
0.0590851,-0.00861811
0.0171185,0.0114385
-0.00390327,0.0160691
0.025206,0.0136035
0.0693665,0.0247413
0.0670747,0.0302754
0.0376448,0.00751489
0.024454,-0.0217569
0.000328838,-0.0173921
-0.00997138,-0.00744026
-0.0054814,0.00471095
0.00463514,0.015945
-0.0056654,0.0178005
-0.0222358,0.00500429
-0.0278202,-0.00589837
-0.0198236,-0.0191597
-0.00749976,-0.00904904
-0.0043517,0.00503862
-0.0129415,0.00413944
-0.016007,0.0010628
0.00644428,0.0134518
0.0178171,-0.0174043
0.0293359,-0.0155105
0.0253429,-0.0086469
0.00669823,-0.0140748
-0.00489204,-0.0121799
-0.0116034,-0.0188168
-0.00704861,-0.00162267
-0.00767814,0.0128341
-0.0270114,0.011968
-0.0324747,0.0019286
-0.0194271,-0.00467128
-0.014823,-0.0174308
-0.0203837,-0.0198099
-0.0204095,-0.00494816
0.00142837,0.00813987
0.00773346,0.0105124
-0.0100517,0.0223198
-0.0140582,0.032014
0.00175739,0.0187717
0.00998833,-0.0107738
0.00517619,-0.0183294
-0.000221111,-0.011312
-0.000896489,-0.0109198
-0.001727,-0.0262417
0.00248326,-0.0354424
0.0146027,0.0149423
0.0227753,-0.00485811
0.0241278,0.0134717
0.0161788,0.0183609
0.00461777,0.00253137
-0.00453082,0.00973697
-0.0118719,0.00786171
-0.015961,0.0127029
-0.0154234,0.0183096
-0.00758973,0.0205333
0.000474213,0.0138657
0.00424677,-0.0105715
0.00669231,-0.0107337
0.00666813,-0.00386536
0.00127132,0.00476709
-0.000242272,0.0182605
-0.0019724,0.0312145
-0.00026139,-0.000721914
0.0162114,-0.0157791
0.0167998,-0.0251307
0.00222362,-0.0460589
0.00692817,-0.0240378
0.0139676,0.0128766
0.00113129,-0.00206268
-0.0167578,-0.00155207
-0.0120338,0.0234854
-0.000295536,0.0260921
-0.000177428,-0.00556302
0.000754863,-0.0259332
0.00286543,-0.0179871
0.0103077,0.001025
0.0078266,-0.000375513
0.00829844,0.00106526
0.0104636,0.0201965
0.0011095,0.0054974
-0.0154445,-0.00162007
-0.0162505,-0.0125981
-0.00331824,-0.0156047
0.00405397,0.00899397
-0.00960617,0.0201626
-0.0253435,0.0106695
-0.0240677,0.0153446
-0.0147119,0.023165
-0.00651574,0.00735019
-0.00225936,-0.0119381
-0.0040231,-0.0306399
0.0101129,-0.0346051
0.026253,-0.0338094
0.0355248,0.0107823
0.032126,0.0290075
0.0240402,0.0144866
0.0112625,0.010268
0.0101024,0.00580842
0.0232521,-0.0113472
0.0158094,-0.0186795
-0.00496989,-0.00736577
-0.0208517,0.00771099
-0.0278023,0.010277
-0.0353325,0.0178909
-0.0377719,0.0189811
-0.0137874,0.00231755
0.00418708,-0.0189672
0.00513187,-0.0198942
0.00269577,-0.00936879
0.00160528,0.000257313
-0.00762237,0.0164684
-0.0298456,0.0200217
-0.014298,0.0081523
-0.00853987,0.00239738
0.00590741,-0.0123028
0.0274123,-0.0375251
0.0438152,-0.0151475
0.0335122,0.00436445
0.0169998,0.00134805
-0.00181705,0.0249152
-0.0115609,0.0387609
-0.0170004,0.0333812
-0.0210916,-0.0131809
-0.0108996,-0.0358887
-0.00204205,-0.0303579
-0.00357027,-0.0534282
0.0255105,-0.0184086
0.0531966,0.0268611
0.0114141,0.0316501
-0.038019,0.0443068
-0.0492342,0.0358794
-0.0442445,-0.0263759
-0.0209903,-0.0334956
-0.0184645,-0.00941785
-0.0281554,0.00452523
-0.0327664,0.00782458
-0.0191396,0.0214966
0.000257558,0.0289008
0.00068759,0.0106064
0.0037789,-0.0175988
0.00948852,-0.0217112
0.00444155,-0.0143344
0.00163195,-0.0126843
0.0207727,-0.0163111
0.060943,0.00644321
0.0835723,0.0121297
0.101435,-0.00539516
0.0878327,-0.0196139
0.0543961,-0.0231026
0.0188853,-0.00429788
-0.0120072,0.0152045
-0.0354399,0.0171503
-0.0463711,0.0172693
-0.0517193,0.0261101
-0.0520486,0.0268913
-0.0615136,0.00236142
-0.074256,-0.0278572
-0.050559,-0.0247561
-0.0244794,-0.0122331
-0.0136719,-0.00662087
-0.00388693,0.00406835
0.00722123,0.0204898
0.0251309,0.00302883
0.0745933,0.00473985
0.122977,-0.00298263
0.1087,-0.022427
0.0530935,-0.0199815
-0.0146997,-0.000359213
-0.0569612,-0.00613909
-0.0688211,0.034976
-0.0687663,0.0411064
-0.0712797,0.00729248
-0.0546737,-0.0176501
-0.0283581,-0.00858191
-0.00614087,-0.0180792
0.00440189,-0.0305057
0.00448212,0.00537408
0.00773172,0.0173166
0.0137517,0.0141792
0.00896426,0.00507228
0.00812331,-0.00259707
0.0224304,-0.0235911
0.0320324,-0.00437887
0.0179424,0.00794688
-0.00023687,0.00651231
-0.0135365,-0.00229912
-0.025873,0.00410816
-0.0234165,0.0499114
-0.00375212,0.0602126
0.00987604,0.00760326
0.0129121,-0.0159943
0.0147258,-0.0433075
0.00207513,-0.0649064
-0.0336008,-0.0567457
-0.0293384,-0.0405837
0.0318762,0.0134896
0.0606785,0.0336208
0.0354729,0.0276778
0.00344045,-0.00581793
-0.0196784,-0.0163012
-0.0169877,-0.00296954
-0.00407683,0.00458326
0.00230598,0.00803628
0.0317663,0.0248237
0.0581373,0.0311645
0.0651933,0.00672733
0.0656574,-0.0113699
0.020453,0.0157453
-0.025884,0.019182
-0.042212,0.022782
-0.0305694,0.0181773
-0.0172994,-0.0169084
-0.00807072,-0.0272403
0.000585584,-0.0145684
-0.00994837,-0.0118545
-0.0285232,-0.0222216
-0.0336911,-0.0170594
-0.0440524,-0.000737537
-0.062142,0.00195123
-0.0480911,0.00963406
-0.0282971,0.0158321
-0.0197839,0.0112643
-0.0171569,-0.01356
-0.00645212,-0.0289681
0.00599217,-0.0142199
0.0202297,-0.0042179
0.0349434,0.0123135
0.0383008,-0.000782022
0.032275,0.00173102
0.00935072,0.0280751
-0.0173718,0.0219651
-0.0243645,-0.0030328
-0.0154966,-0.0200707
0.0148895,-0.00959246
0.0710506,0.000815208
0.124538,0.00513795
0.0964484,0.0245488
0.0269314,0.0535484
-0.0219344,0.0120316
-0.0562848,-0.0576969
-0.0460407,-0.0267924
-0.0330564,0.00522011
-0.0364898,0.00967541
-0.0370173,0.0165575
-0.0239439,0.0179653
-0.012052,0.013314
-0.0127473,0.00208581
-0.0250576,-0.023267
-0.0359736,-0.0462672
-0.030539,-0.0451465
-0.0105326,-0.0249971
0.00383889,0.00818035
0.0052557,0.0286301
0.0236559,0.0325599
0.0514842,0.0202218
0.0425659,0.00940066
0.00705832,-0.0218203
-0.00862157,-0.00828036
-0.00912735,0.0087201
-0.00588777,0.0111552
0.0136919,0.0209768
0.0341533,0.0258582
0.0443243,0.0154927
0.0284185,0.00788859
0.00112185,-0.0158694
-0.0150089,-0.0214604
-0.0320963,-0.0190249
-0.0388912,-0.00315758
-0.0347931,0.00215449
-0.0244079,-0.00189689
-0.00434598,0.00900952
0.0377476,0.0147302
0.0777219,-0.0106672
0.0779297,-0.0247676
0.0502804,-0.0166094
0.0255328,-0.00954918
0.00965794,0.00408772
0.00741393,0.0186435
-0.00574669,0.0155903
-0.0290899,-0.00118147
-0.0710515,-0.0186573
-0.093259,-0.0438689
-0.0740921,-0.0536868
-0.0672408,-0.0179891
-0.0141134,0.0342793
0.102566,0.0115916
0.159966,0.0137187
0.130069,0.0374965
0.0749558,0.0646007
-0.0221071,0.0340436
-0.101796,-0.00519038
-0.124779,-0.0233839
-0.117786,-0.0036694
-0.117528,0.00814589
-0.133471,0.00874955
-0.131052,0.00628316
-0.0865303,0.0038714
-0.0098782,0.00453477
0.0633156,-0.0230171
0.0999406,-0.0633175
0.112828,-0.0316322
0.086853,-0.0302435
0.0305417,-0.0293431
-0.0116185,-0.00217789
-0.0150879,0.00608332
0.00655868,0.0219372
0.0282764,-0.00394497
0.048297,0.00995076
0.054312,0.0328612
0.0461196,0.0339921
0.0484068,0.0261402
0.0759392,0.00800387
0.0654621,-0.0104754
0.0338745,-0.00445571
0.00502075,-0.00337882
-0.0305744,-0.0183341
-0.0565349,-0.0182394
-0.0828289,-0.00706057
-0.0935228,-0.00725374
-0.0887652,0.00265621
-0.0342743,0.0113952
0.0451699,0.0108681
0.0770354,-0.00207839
0.0793597,-0.00516959
0.0393152,0.00210694
0.0479167,0.0128666
0.0545016,0.0180955
0.0278893,0.0272218
-0.0043276,0.0275827
-0.0358128,0.0167997
-0.0603411,0.00478985
-0.0681403,-0.0269167
-0.078231,-0.033297
-0.0842193,-0.0211914
-0.0607834,-0.0190861
-0.0254355,0.000248336
-0.0123655,0.000911305
-0.0118433,0.0104667
-0.0026703,0.00522814
0.00774595,-0.0171452
0.0177913,-0.0222438
0.0249729,-0.00254783
0.0289464,-0.00306321
0.0254672,0.0277889
0.0257611,0.038656
0.0288305,0.000814935
0.0204305,-0.0094486
0.00234338,-0.00216916
-0.00184246,0.00915517
-0.00234963,-0.00406595
-0.00917495,0.00718255
-0.0143085,0.0105323
-0.0130721,-0.0152493
-0.0033492,-0.0352087
-0.000179849,-0.00413448
0.0201353,0.000554424
0.0600235,-0.047045
0.0773262,0.000752909
0.0560367,0.0438602
0.0264225,0.0190735
0.00740336,0.0161857
-0.0158838,0.0199907
-0.0423781,0.0109378
-0.0564383,0.00210566
-0.0398922,-0.00795082
-0.0233399,-0.0286214
-0.0124908,-0.0309748
-0.0137656,-0.0169918
-0.0102197,0.00143911
-0.0160643,-0.00533324
-0.0419634,-0.0313298
-0.0461569,-0.0249726
-0.0230538,0.00955918
-0.0075649,0.0288945
-0.00388111,0.0199215
0.0115457,0.0155452
0.0219885,0.0154177
0.0378602,0.0192175
0.0639208,0.019228
0.077277,0.0224667
0.0611532,0.0210257
0.0349575,-0.00589969
0.0564177,-0.0228826
0.0995033,-0.0243367
0.0877686,-0.0147766
0.0306153,-0.00255438
-0.0787187,-0.0346019
-0.138273,0.00062546
-0.133535,0.0112208
-0.115396,-0.0200394
-0.085913,-0.037923
-0.0568769,-0.0184927
-0.00992825,-0.0129587
0.0153718,0.00235659
0.0159418,0.0369934
-0.00289095,0.0853425
-0.0145862,0.12033
-0.0155383,0.126116
-0.000431761,0.0713826
0.0320498,-0.091373
0.0517302,-0.136046
0.0478607,-0.104038
0.0363599,-0.0502898
0.0274372,-0.013047
0.0117124,0.0126488
-0.014425,0.0182314
-0.0255501,-0.000976454
-0.0053127,-0.00454912
0.00813577,-0.00590471
0.010079,-0.012003
-0.0399342,-0.0189496
-0.0589712,-0.0163232
0.00170586,-0.0195288
0.0917213,0.0184329
0.108124,0.0274798
0.0912686,-0.000656896
0.0269265,0.00301941
-0.0848665,0.0165179
-0.118423,0.0148208
-0.0702571,0.0274647
-0.0185434,0.025573
0.0173337,0.018379
0.0281008,0.00547784
0.0387474,-0.0228268
0.0316439,-0.032263
0.0124084,0.00969957
0.0047797,0.0094011
0.00282407,0.018086
-0.0125354,0.00332381
-0.0338271,-0.0180692
-0.0302952,0.0123795
-0.0103194,0.0112146
0.00553596,-0.0474848
0.00808741,-0.0413711
0.00392248,-0.00238438
0.00419007,0.00667499
0.00692591,0.00973165
0.000784348,0.0227109
-0.011445,0.0213593
-0.0137552,0.00493465
-0.0148184,-0.0145202
-0.00452515,-0.0160018
0.0224351,0.000938032
0.0400652,0.0171975
0.052678,0.0179629
0.0411602,0.000769674
0.0293365,-0.00051803
0.0469115,-0.0106371
0.062457,-0.0246759
0.0285288,-0.0247098
-0.0199013,-0.0038323
-0.0549127,0.00491165
-0.0735919,8.17e-05
-0.0534562,0.0108629
-0.0235024,0.0281538
-0.00651558,0.0215087
-0.0065834,0.00353953
-0.00219886,-0.00633388
-0.0179479,-0.0116446
-0.0505348,-0.0161781
-0.0669701,-0.00759492
-0.0467466,-0.000725703
-0.0195703,0.00289735
-0.00767816,-0.00610596
-0.0107214,-0.00882368
0.000195732,-0.00269109
0.015902,0.00612531
0.0195763,0.0170793
0.0156452,0.00663833
0.0132737,0.00360976
0.0205694,0.0112314
0.0285771,-0.00238044
0.0310041,-0.00591507
0.032146,0.00531124
0.0268308,0.00641437
0.0162537,-0.00146087
0.00528533,0.00107316
-0.00249246,0.01402
-0.0047441,0.014714
-0.00648372,0.00056174
-0.00969012,-0.01231
-0.00685815,-0.019571
0.00308201,-0.0222614
0.0107542,-0.0123364
0.00558027,0.0154919
-8.02e-05,0.0116177
-0.00113663,-0.0244555
0.00524552,-0.00634505
0.0108983,0.0341383
0.011553,0.029237
0.0115203,-0.00141425
0.00891302,-0.0170062
0.00108861,0.00464004
-0.0130045,0.00182448
-0.0252611,-0.00119155
-0.0217394,-0.0183612
0.00276261,0.0129998
-0.00348703,0.00141873
-0.0195515,-0.0335382
0.0029397,-0.0251546
0.0249848,0.0180147
0.0173829,0.0233119
0.00197108,-0.00709846
-0.0145437,-0.00273324
-0.0253972,0.0280446
-0.0121839,0.026102
0.00201916,-0.01928
-0.0119321,-0.0347436
-0.0246446,-0.0423396
-0.00960875,-0.0122456
-0.00273861,0.0125414
0.00425294,0.0219871
0.0182605,0.00729647
0.0312718,-0.00627754
0.0292762,-0.0148174
0.020004,-0.028222
0.0147611,-0.0293137
0.00359628,-0.00989305
-0.0378978,0.0539478
-0.108411,0.0569167
-0.0850944,0.0441328
-0.0117533,0.0183751
0.0482988,-0.0174243
0.0788453,-0.0284417
0.0877404,-0.0124431
0.0737193,-0.00769009
0.0325258,-0.00280697
-0.00359453,0.0150802
-0.0170427,0.0183875
-0.0231237,-0.00131492
-0.031828,-0.00108363
-0.03126,-0.0147655
-0.019976,-0.0337174
-0.0263887,-0.016998
-0.0370516,-0.0081061
-0.0244846,-0.0117137
-0.000545831,-0.0125867
0.00982164,-0.0168407
0.0194796,0.0291043
0.0658805,0.0575124
0.0900872,-0.00340779
0.0375688,-0.00534291
-1.35e-06,-0.00329505
-0.0114741,0.0136259
-0.0166918,0.0215738
-0.0136385,0.0250156
-0.0175534,0.0317556
-0.0360716,0.000549954
-0.0372968,-0.0256262
-0.0410136,-0.0115364
-0.0424015,-0.000510719
-0.0265403,-0.00560955
-0.0139246,-0.0168583
0.000294475,-0.0166408
0.00872729,-0.0228134
0.00658563,-0.0327851
0.00653459,-0.0316584
0.00224465,-0.0062031
-0.00106526,0.00624418
-0.00384162,0.0222472
-0.00575461,0.0336686
-0.00810351,0.0340533
-0.00465005,0.0298065
0.0123215,0.0243978
0.0297305,0.00273297
0.0306976,-0.0275821
0.0234462,-0.0205583
0.00322363,-0.0464299
0.0144452,-0.00969789
0.0314794,-0.00699262
0.0203818,0.0257064
0.000627904,0.0170598
-0.0134025,-0.0120062
-0.0161612,-0.0144804
-0.0137523,-0.0148745
-0.0109793,-0.0114202
-0.00923553,0.00530158
-0.0117578,0.0195463
-0.00658969,0.0237491
-0.0046932,0.02354
0.00731026,0.0156795
0.0133671,-0.00843124
0.00616408,0.00770744
0.00444323,0.0383121
0.0102576,0.0671678
0.0107307,0.0783041
-0.00417967,-0.0222041
-0.00598915,-0.121318
0.0236411,-0.0792887
0.0394479,-0.0440088
0.016904,-0.0320355
0.00609708,-0.013934
0.0118251,0.00508039
0.00475294,0.0257015
-0.0129353,0.0418963
-0.0200165,0.0365842
-0.0284826,0.0309464
-0.0551814,0.016926
-0.0702771,-0.0155617
-0.0504125,-0.0412196
-0.0190494,-0.0549707
0.0179786,0.000447006
0.027966,0.00606117
0.0337348,-0.0070588
0.0473711,-0.00106989
0.048819,-0.00710887
0.0400735,-0.0118016
0.0225132,-0.00405002
-4.74e-05,0.00676698
-0.0194293,0.0248482
-0.0807242,0.0517772
-0.112707,0.0469204
-0.0481641,0.0519119
0.0404752,0.0185607
0.0922332,-0.0436015
0.0645382,-0.0834452
-0.002856,-0.0264975
-0.0525209,0.017683
-0.0848447,0.00605157
-0.0533317,0.00634365
0.00632105,0.00881983
0.0835103,-0.00883794
0.112645,-0.0320774
0.0864652,-0.0124742
0.0252814,-0.0168699
-0.024976,-0.00822115
-0.0342883,0.0297564
-0.0249676,0.0467351
-0.0208284,0.0216559
-0.0145014,0.00864395
-0.0136603,-0.00117484
0.000559938,-0.000195183
0.0110577,-0.00116942
0.00772972,0.00535954
0.00511522,-0.00814349
0.00586586,-0.0147166
0.00702628,0.0111731
0.0145035,0.0156807
0.00867101,-0.0220634
-0.00205166,-0.0383937
-0.0242379,-0.0299435
-0.0374069,-0.0254
-0.042548,-0.0141843
-0.0501594,0.0166576
-0.0478574,0.0345683
-0.0359057,0.0261944
-0.00157933,0.0113816
0.0294662,-0.00305904
-0.010784,-0.00149307
-0.0274356,-0.000564056
0.00980067,0.00482089
0.0577341,-0.0191103
0.0759561,0.00244527
0.0555844,0.0155332
0.0452562,0.0229039
0.0152891,0.00740638
-0.0176991,-0.0282476
-0.0197338,-0.0259289
-0.0121291,-0.00796497
-0.00470845,0.015393
-0.00217018,0.033025
0.0202505,0.0136702
0.010136,0.0185299
-0.00243317,0.00888169
-0.0140479,-0.0236026
-0.00470518,-0.0121288
0.00825793,-0.0253425
0.00323576,0.00555784
0.004894,-0.00753013
-0.00399655,-0.00263328
-0.00927103,0.0273913
-0.0137617,0.0208754
0.00230425,-0.0353036
0.0145292,-0.0365232
0.00215182,-0.0260824
-0.00132293,-0.0124016
0.0062657,0.0188555
-0.0104998,0.0230842
-0.0199156,0.0143817
-0.0277676,0.0128804
-0.0104595,-0.000702054
0.00756649,-0.00284195
0.0144683,0.00768321
0.0107476,-0.000460614
0.0107873,-0.0135867
0.0317615,-0.0118839
0.0116321,0.00275329
-0.0740816,-0.00884649
-0.0815073,-0.0212886
-0.0263444,-0.0135901
0.00661539,0.00125004
0.00646224,0.00702906
0.0228611,0.01316
0.0329274,0.0377512
-0.0148481,0.0313877
-0.0798856,0.0270111
-0.0491568,0.0384072
0.00799492,0.0220576
0.0225475,-0.0129697
-0.00552897,-0.0681875
-0.00947564,-0.05761
-0.0787188,-0.0289283
-0.118903,-0.0287425
-0.0682283,0.0391302
0.0402651,0.040587
0.122404,-0.00870988
0.155551,-0.016136
0.136167,0.0324375
0.0358934,0.0462285
-0.113361,-0.0251772
-0.0743371,-0.00561034
0.116725,0.00548797
0.251527,0.0199542
0.26283,0.0206138
0.194229,-0.00815759
0.0648219,-0.01028
-0.072576,-0.0433766
-0.160141,0.0176035
-0.193088,0.00445953
-0.203534,-0.0017618
-0.160437,0.0068515
-0.0555914,0.00695064
0.040472,0.00125949
0.0194064,-0.016948
0.00200418,-0.0076523
0.0474442,-0.0348367
-0.0344978,-0.0365664
-0.218527,0.0272163
-0.201413,0.0181562
-0.0925123,0.0121828
0.0422087,-0.00968789
0.143661,-0.0153255
0.159426,-0.0191106
0.136096,-0.00986559
0.103546,0.0187737
0.070659,0.00202746
0.00206644,0.00684823
-0.0507627,0.00623435
-0.0229472,0.0109844
0.0431739,0.00191617
0.0456387,-0.0017796
0.032842,-0.00946018
-0.0455252,-0.0283792
-0.0945379,-0.0285594
-0.0710005,-0.0417917
-0.0420951,0.0284178
-0.0121583,0.118307
-0.0593508,0.0319202
-0.137103,-0.060227
-0.202301,-0.0385011
-0.0427611,-0.0398703
0.164871,-0.0553572
0.238209,-0.00316523
0.247862,0.0692813
0.233798,0.0664246
0.0815855,0.00886636
-0.0193946,0.0127992
-0.0629105,0.00224134
-0.0646518,-0.00810658
-0.081156,0.0112955
-0.043485,0.0583462
0.0141018,0.0176423
-0.0101662,-0.0288503
-0.0655568,-0.00184034
-0.0966759,-0.0144338
-0.0704308,0.00261908
-0.0136706,0.052936
0.00786714,0.0139063
0.031939,-0.0467895
0.0331656,-0.0601241
0.0138261,-0.0180513
0.00386378,-0.00972619
-0.0204625,-0.0288161
-0.0338395,-0.0524269
-0.0165744,-0.00315255
0.00949255,-0.0664179
0.0190776,-0.0129903
0.0131663,0.0701574
0.0215659,0.048436
0.0384537,0.0202642
0.0402876,0.00623824
0.0201601,0.000163497
-0.0335719,0.00197264
-0.0926602,0.0341513
-0.0982545,0.0224923
-0.0210931,-0.0132455
0.091033,-0.00978857
0.111493,0.0295093
0.0677624,0.0114502
0.037648,-0.0257752
-0.0632303,-0.0495623
-0.143914,-0.0307904
-0.116694,-0.00234666
-0.0422408,-0.0307596
-0.000107006,-0.0111111
-0.0208799,0.0408988
-0.0165827,0.0447035
0.0272135,0.0422235
0.0451643,0.0224432
0.0499987,-0.0193649
0.0372338,-0.0119383
-0.0549889,-0.0239822
-0.222961,-0.0279306
-0.252566,-0.0180416
-0.160201,0.0518736
0.0520295,0.0514222
0.230797,0.011479
0.34879,0.00362438
0.35678,0.00766817
0.228386,0.00515206
0.101418,-0.00754392
-0.00271517,-0.00766307
-0.0609284,-0.0186143
-0.0629246,-0.0514637
-0.0243686,-0.0526604
-0.0733492,-0.0306115
-0.0946434,0.0320294
-0.0866501,0.0297689
-0.0922716,-0.0159202
-0.0530175,-0.00205214
-0.0455402,0.0231284
-0.098538,0.00981597
-0.06977,-0.00935234
-0.0078629,-0.0176178
0.0416008,0.00155582
0.104506,0.0150131
0.13284,-0.0207749
0.128591,0.00464768
0.0899237,-0.00660571
0.0140718,0.0244035
-0.0102816,0.00512292
0.00633965,-0.00210655
0.0158675,-0.00649781
-0.0116256,0.0278345
-0.0325249,0.0449055
-0.0268286,0.0146928
0.0135843,0.014913
0.0195921,0.0149502
-0.0302606,-0.0215226
-0.0376804,-0.0338471
-0.0651265,-0.0184506
-0.111593,-0.0451798
-0.143588,-0.0596234
-0.130319,-0.030507
-0.134987,-0.0321346
-0.218543,-0.0190483
-0.207323,0.0458299
-0.211049,0.0245328
-0.10176,0.0460617
0.175984,0.0397355
0.450304,0.0211124
0.505749,0.0303656
0.307842,0.0388854
-0.0111163,0.0523908
-0.20887,0.0533241
-0.197349,-0.0153145
-0.0806744,-0.0314152
0.0300132,-0.0120362
0.133139,0.00340888
0.217876,0.0278815
0.146233,0.0155865
0.0454098,-0.0122054
0.000585107,-0.0349019
-0.000290822,-0.0594931
0.00262432,-0.045416
-0.00528056,-0.016702
-0.0269684,-0.0273704
-0.0543086,-0.018458
-0.09766,-0.0295129
-0.143158,-0.000302883
-0.14789,0.00743321
-0.088501,-0.0120559
-0.0188481,-0.0497976
0.0145503,-0.0133889
0.0320705,0.0117168
0.0440116,0.00893548
0.0449283,0.0050961
-0.0748077,0.0047059
-0.237134,0.0223361
-0.160056,0.0195179
0.0278712,0.00409483
0.212491,-0.0126942
0.271402,-0.0168484
0.176485,0.00964123
0.0843011,0.00291944
0.0135079,-0.00136558
-0.0255645,0.0191588
-0.0373268,0.0277009
-0.0379668,-0.00616292
-0.0536554,-0.0124219
-0.0655738,-0.0109729
-0.034214,0.0115969
-0.00934128,0.0533434
-0.0098188,0.0433109
0.00256781,0.0378455
0.0298477,0.0206294
0.0322818,0.00499603
0.0276136,-0.0220403
0.020792,-0.050152
0.00446968,-0.0596978
-0.0207803,-0.0472025
-0.056891,-0.0248485
-0.0704661,0.0079898
-0.048416,0.0158437
-0.00762467,0.00535888
0.024192,-0.00181497
0.042445,0.0125379
0.0533422,0.0322691
0.0609255,0.0353697
0.0546931,0.0465548
0.0362681,0.0368851
0.00611535,0.00592292
-0.0139349,0.00707533
-0.0211821,0.00670543
-0.00871306,0.00292137
0.00753166,-0.0290613
-0.0289822,-0.0165208
-0.0365532,0.00289138
-0.0384255,-0.0338219
-0.0561929,-0.0190184
-0.0851212,0.0165292
-0.116822,0.0117072
-0.136208,-0.0207049
-0.096424,-0.0691478
-0.032719,-0.0820024
0.0515272,-0.0241961
0.141316,0.0641705
0.142611,0.0646509
0.0806389,0.0227363
0.0430669,0.0271213
-0.0517687,-0.00456347
-0.116236,-0.00488409
0.00471462,-0.00529783
0.113374,-0.0101324
0.0631484,-0.0316502
0.00414962,-0.0359371
-0.0322919,-0.0245733
-0.0275893,-0.0281791
0.0704779,0.00283745
0.146542,0.0265271
0.0707568,0.00423861
0.0114986,-0.0125864
0.00937558,-0.00420112
0.0122317,0.0167559
0.0127068,0.0332172
-0.00278733,0.0386439
-0.0287023,0.0286584
-0.0411844,0.0365483
-0.0583847,0.00781515
-0.0798252,0.027944
-0.0559128,0.0263692
-0.0126476,-0.00761347
0.031894,-0.0188988
0.0464006,-0.0137055
0.00269903,-0.0133478
-0.0527662,-0.0292584
-0.0492232,-0.0229431
-0.0213162,0.00458313
-0.0223862,-0.000336268
-0.0282613,-0.0104417
-0.0262074,-0.000305783
-0.000447156,0.00959886
0.0312578,0.0221138
0.0225687,0.0277724
0.0396988,0.00116683
0.0497374,-0.0545987
0.00979611,-0.0548642
-0.0380704,-0.0192824
-0.0254039,-0.00744941
0.0238436,-0.00416527
0.0429048,0.0179439
0.0284313,0.0313189
-7.89e-05,0.0118303
-0.0620915,-0.0161815
-0.058789,-0.00818142
-0.0025813,-0.00702422
0.0405152,0.00907246
0.0459616,0.018778
0.0195837,0.00902209
0.00678086,0.00813215
0.0246968,-0.00348964
0.0400072,-0.0201298
0.0222962,-0.0268754
-0.0153958,-0.00468765
-0.030962,0.00468433
-0.0192597,-0.0187355
-0.0343456,-0.0348823
-0.0802483,-0.0428946
-0.06111,0.0080576
-0.0147035,0.0653779
-0.00712037,0.0543658
0.011349,0.0217774
0.0182757,-0.000255844
0.0103925,0.00973584
0.0152445,0.0319312
0.0192145,0.0350926
0.00160581,-0.00936472
0.000495391,-0.0572553
0.0138513,-0.0507968
0.02309,-0.0205085
0.00718009,-0.019943
-0.0118233,-0.0336156
-0.0551988,-0.00323022
-0.0707953,0.0214586
-0.0541552,0.0443776
-0.00714485,0.0209204
0.00548794,0.0160431
0.0118638,0.0135324
0.0437619,0.0101342
0.115743,0.0266954
0.170657,0.0174712
0.181746,0.00195142
0.0797022,0.008269
0.0307806,0.014914
0.0404087,-0.0177971
0.0232901,-0.0377264
-0.00818381,-0.0284975
-0.0422438,-0.0331758
-0.094782,-0.0252975
-0.223135,-0.000891126
-0.301712,0.00628187
-0.35703,0.0492439
-0.237626,0.00741453
-0.0515527,0.0173343
0.0824096,0.0303233
0.206852,0.0196844
0.182268,0.0108062
0.161272,0.0235384
0.229985,0.00488644
0.221822,-0.00477992
0.111707,-0.0158343
0.00101679,-0.0314441
-0.011886,-0.0429786
0.000993319,-0.0260171
-0.0229384,-0.00558809
-0.082122,-0.00873828
-0.0820918,0.000645463
-0.0524063,-0.00241398
-0.00335091,-0.0198719
0.0118677,0.00319415
-0.0145206,0.00459719
-0.0248695,0.00174056
-0.0197763,0.00182506
-0.00844111,0.0120162
-0.0264191,0.0173592
-0.0715815,0.0104106
-0.0614769,0.00522948
-0.00248413,0.00213221
0.0304205,-0.00235153
-0.00499835,-0.00868394
-0.0121488,-0.00245587
0.0144925,0.00976516
0.0509577,0.0111954
0.073134,0.000768466
0.0737256,-0.0129179
0.0595584,-0.012966
0.0312345,0.00233533
-0.0089804,0.0039724
-0.0299546,0.00600772
-0.0461954,0.00552981
-0.0621082,0.00284431
-0.0774166,-0.00533231
-0.0942329,0.0039928
-0.101517,0.0254654
-0.0949802,-0.00765913
-0.0399906,-0.0289311
0.0606595,-0.0160468
0.103661,-0.023033
0.0921454,-0.0148902
0.077454,-0.018461
0.0661657,0.026091
0.0281448,0.0418732
-0.0134852,0.00722277
-0.044369,-0.0201749
-0.0529932,-0.0383858
-0.0234638,-0.0486472
0.0107256,-0.0250467
0.0171395,0.0256415
-0.00755005,0.0158471
-0.0646328,0.00566559
-0.0768391,-0.00177177
-0.0226024,0.00997172
-0.00792859,-0.00119537
-0.0314683,0.00386095
-0.0433043,0.024166
-0.0045827,0.0251665
0.0599818,0.0257417
0.109111,0.0320647
0.11603,0.013535
0.0739423,-0.0271494
0.0387695,-0.0355226
0.0742928,0.0221497
0.0572016,0.057865
-0.0344246,0.0179684
-0.0672024,0.00986149
-0.0543247,0.00582131
-0.0230776,0.000296077
0.00431835,-0.00944709
-0.0123492,-0.0376195
-0.0663076,-0.0464609
-0.0856511,-0.0139773
-0.0187797,-0.00631117
0.0617038,-0.00515321
0.0901372,0.00118974
0.073078,-0.00373462
0.0294632,-0.0286906
-0.00918501,0.00457064
-0.135173,0.00336404
-0.216751,0.00050988
-0.127559,0.00765844
0.0237983,0.0117805
0.10706,0.020583
0.0918043,0.00370309
0.0287319,-0.0158788
0.00398935,-0.0354944
0.00346232,-0.0345121
0.0318772,-0.0144853
0.056116,0.0124803
0.0733346,0.00404132
0.0559165,0.0269885
-0.00180421,0.0418331
-0.020932,0.0252087
-0.016502,0.0126025
-0.00658503,-0.00402144
-0.0111074,-0.00140763
0.00387557,0.0234357
0.0065569,0.0103457
0.018799,-0.000653393
0.0263462,-0.0243213
0.0158008,-0.0156871
0.00124782,0.00320185
-0.038674,-0.0359439
-0.0410956,-0.0557242
-0.0332432,0.00483275
-0.034231,0.0381424
0.00306152,0.0312001
0.0504402,0.0179559
0.033049,0.0148678
0.0161722,0.00690051
0.0177719,-0.00453091
-0.0272245,-0.010424
-0.0661348,-0.00868825
-0.0529593,0.00147882
-0.0382659,0.000629153
-0.0381162,-0.010569
-0.0224884,-0.0190092
0.00763957,7.53e-06
0.0262895,0.000475277
0.0351397,-0.025414
0.0520303,-0.00810215
0.0306765,0.0126349
-0.00948244,0.00533357
-0.0177543,0.00373729
0.00981626,0.0261269
0.0175763,0.0258704
0.0128416,0.00743044
0.0122048,-0.0142156
0.0124338,-0.0108905
-0.00293662,-0.0097759
-0.00897842,-0.0056526
-0.0200513,-0.0297626
-0.0480619,0.00672785
-0.0520978,0.0184095
-0.0247194,0.00657254
0.00966687,0.00348615
0.0318154,-0.0129366
0.0302609,-0.0231235
0.0192873,-0.00469647
0.0196406,0.0207965
0.0188283,0.0200174
-0.0110301,0.0217141
-0.100335,0.00250205
-0.166983,-0.0149905
-0.126083,-0.00366888
-0.0316547,0.00200484
0.0182115,0.0181445
0.0510802,0.0171444
0.103729,0.00642408
0.13405,-0.000494263
0.0925017,-0.0388598
0.0403407,-0.0511824
0.0148136,-0.0634588
0.0269962,0.0132277
0.0332162,0.0392008
0.00915373,0.0111494
-0.0259006,0.0162044
-0.0632366,0.032201
-0.0677123,0.024818
-0.0106391,0.0055475
0.0674524,-0.0111464
0.0700159,-0.015565
-0.0248291,-0.00810941
-0.0926892,-0.011582
-0.073027,-0.0107661
0.00116674,0.000447071
0.049853,0.00132433
0.0698799,-0.000184674
0.0633362,-8.62e-05
0.0310919,-0.00729934
0.00688937,-0.0159592
-0.00586153,-0.0212886
0.0173017,0.0149707
0.0175376,0.00973231
0.00200459,0.0170099
-0.00294233,0.0448729
-0.00865506,0.0295647
-0.00709203,-0.00669019
-0.00299152,-0.0162206
0.0012535,-0.035246
-0.0463427,-0.0236036
-0.15603,-0.0113669
-0.156758,-0.0102981
-0.0692121,0.0134178
0.0185485,0.0128501
0.0806536,0.0014669
0.117016,-0.00563368
0.09619,0.00366369
0.0391089,0.0184635
0.00682733,0.0149684
0.00514879,0.0206446
-0.0138623,0.0118033
-0.0199446,0.00730343
-0.0481222,-0.00563163
-0.0313072,-0.0215535
-0.00694746,-0.020342
-0.0165031,0.000751042
-0.00608476,-0.0255996
0.0679328,-0.0539344
0.0736448,-0.0547631
-0.0173478,0.0161396
-0.0313859,0.0623757
-0.0174612,0.0265285
-0.0567453,0.0139379
-0.0779091,0.014643
-0.0482516,-0.00209939
0.0101519,0.00437758
0.0491666,0.0105774
0.056827,0.00279697
0.0600259,0.00282317
0.041856,-0.00243027
-0.0229392,-0.00620417
-0.0253492,-0.01879
0.0239515,-0.0231794
0.0722313,-0.00515305
0.0655758,0.00105207
0.0175196,0.00127202
-0.0111266,0.00652024
-0.0303794,0.00281622
-0.0320538,-0.0106001
-0.030475,-0.00528808
-0.0339856,0.0073663
-0.0464749,-0.00424248
-0.11369,0.0247763
-0.174612,0.0510247
-0.140895,0.0353478
-0.0280784,0.00644632
0.122729,-0.00994217
0.216163,-0.0163281
0.192937,-0.0344028
0.102836,0.00276012
0.0213803,0.0117386
-0.0298943,-0.0149777
-0.0348618,-0.0208321
-0.020663,-0.00758456
-0.00610143,0.00553241
-0.00209278,-0.00375124
-0.0107233,-0.0113561
-0.00353603,0.0129414
0.0189791,0.0132109
0.0117162,0.0024438
-0.0333273,0.011784
-0.0309359,-0.000564222
-0.0356765,-0.00889996
-0.0204139,0.0154035
0.0406055,0.00163405
0.025306,-0.0329483
-0.0138463,-0.0291186
-0.0386885,-0.0376709
-0.0426964,0.000346824
-0.0172379,0.0166955
0.00452778,-0.00412818
0.00267332,-0.0132656
0.00111305,-0.00314146
-0.0503444,0.0149511
-0.0700685,0.0121043
-0.0424802,0.00125809
-0.0269942,0.0115357
0.0228887,0.0234031
0.0757566,0.0150126
0.0813768,0.00828688
0.0829058,-0.0122687
0.0650745,-0.00850242
0.0348364,-0.00124796
0.0148655,-0.00266917
-0.0140441,0.00535641
-0.038066,0.00766931
-0.0554023,0.00868364
-0.024302,0.0239818
0.0223542,0.00718612
0.0543842,-0.0208475
0.0311894,-0.017315
-0.0140741,-0.0455075
-0.0147647,-0.0368234
-0.0143173,0.0286304
-0.0966793,0.0205831
-0.154858,-0.00929093
-0.0847871,-0.0256456
0.0269272,-0.001765
0.0996556,0.0192697
0.0867496,0.0186364
0.0686924,0.0100684
0.0234777,0.018592
-0.0147567,0.00491668
-0.0339539,0.002745
-0.031903,-0.00111817
-0.015331,-0.00756106
0.012544,0.0197264
0.0232029,0.0296527
0.0151602,0.015847
0.0210681,0.0030067
0.0339013,0.00307912
0.0358555,-0.00210084
0.0266111,-0.0261464
0.0203342,-0.0383103
-0.00343863,-0.0366965
-0.0263637,-0.0231392
-0.0281779,-0.00957485
-0.0258462,0.00726698
-0.0517331,0.013974
-0.064922,0.00689516
-0.0366213,0.00663253
0.0175698,0.00597599
0.0438663,-0.00468557
0.0468887,0.00393531
0.0606339,0.0168326
0.0476291,0.0193416
0.019292,0.0204285
0.000168279,0.0231437
0.000252093,0.00915085
-0.0010418,-0.0115208
-0.0165903,-0.017182
-0.0623081,-0.0173683
-0.0760655,-0.026622
-0.0659246,-0.0319017
-0.0554588,-0.0254732
-0.101705,-0.023285
-0.17419,0.00561157
-0.129552,0.0316056
0.00228141,0.00765925
0.113775,0.00426028
0.150543,0.0312032
0.156827,0.0238401
0.14398,0.00803514
0.142154,0.00811356
0.0931705,0.00761408
0.0346019,0.00476757
0.004736,-0.00830075
-0.0128508,-0.0103222
-0.0262017,-0.00351792
-0.0345676,-0.00452916
-0.0410465,0.00125054
-0.0651359,-0.0118947
-0.0632008,-1.72e-05
-0.0354686,0.0176744
-0.00212997,-0.0102253
0.0167,-0.0225499
0.0108947,-0.0140856
-0.0121004,-0.00819986
-0.0365968,-0.0253579
-0.0331166,-0.0272583
-0.0135518,0.0278092
-0.00117384,0.0453807
0.0248316,0.0132232
0.0451291,-0.00529665
0.0430121,0.0101682
0.0332918,0.0117885
0.00280365,0.0139262
-0.0296034,0.0188442
-0.0234546,0.0251624
-0.00457702,0.00416232
-0.0200922,-0.0189185
-0.0326705,-0.0216498
-0.0681509,-0.0340178
-0.114051,-0.0315385
-0.0720896,-0.0184388
0.0160204,0.0143409
0.0663266,0.00771894
0.0677207,0.00172945
0.0727376,-0.00171909
0.062313,-0.0204043
0.0260626,-0.0149737
-0.0053506,0.0177639
-0.0236272,0.00161085
-0.0696024,-0.00727501
-0.0802656,0.00705998
-0.0362921,0.0157447
0.0360522,0.00514772
0.0963364,0.000446127
0.101788,-0.00577369
0.0570949,-0.0142179
0.0416446,0.00483639
0.0288274,0.0131095
0.0108512,-0.00592689
-0.0143403,0.00221476
-0.0146679,0.0144607
-0.0387743,0.00611979
-0.094269,0.0196877
-0.120311,0.00328895
-0.0884256,-0.00489081
-0.0383666,-0.00268377
-0.0392386,0.00125685
-0.0397335,0.0010996
0.0263089,-0.0170707
0.0763875,0.00459831
0.0799707,-0.000430681
0.0540804,-0.0334354
0.0208402,-0.0302098
0.0130463,0.00139234
0.00543304,0.0103244
0.0213915,0.0159925
0.0630631,0.0241619
0.0862164,0.030488
0.049824,0.00269324
0.0141558,-0.0181206
-0.0071779,-0.0128432
-0.0255656,-0.011741
-0.0259451,-0.00930612
-0.0191847,0.00607805
-0.01316,0.00487864
-0.0133781,0.0093113
-0.0224313,0.00471558
-0.0206262,-0.00693073
-0.0148851,-0.0161094
-0.0156578,-0.00176696
-0.0147916,0.00761144
-0.00952791,0.00542017
-0.0157571,0.00359168
-0.0144223,0.0117663
-0.010239,0.0109366
-0.00531914,-0.00506714
-0.00827144,-0.0113921
0.00404422,-0.00816399
-0.00281284,0.00850502
-0.0121476,0.0100067
-0.0130908,0.0236878
-0.0056099,0.0254451
-0.0033542,0.00184693
-0.0203968,-0.0156642
-0.0444884,-0.0242057
-0.0335298,0.00524495
-0.0103571,0.00846938
0.0189779,-2.97e-05
0.0425819,-0.00942075
0.045775,-0.0311493
0.0452291,-0.0493227
0.0323905,-0.0238107
0.0185119,0.00248456
0.0098173,0.00124569
0.0152169,-0.038831
0.0157256,8.98e-05
-0.0237752,0.0707844
-0.0429896,0.0400578
-0.0187682,0.0235616
0.00148728,0.0297581
0.0206317,0.00522456
0.0330234,-0.00766214
0.0234419,0.00654829
-0.0101637,-0.00247267
-0.0331685,-0.00840886
-0.0284386,-0.00265104
-0.0148997,-0.0139291
0.00929236,-0.0289843
0.0308692,-0.0347501
0.0197363,-0.036893
0.00122162,-0.0537072
0.00557211,-0.052685
0.0273315,0.0169234
0.0227174,0.0921791
-0.0139264,0.0706081
-0.0391038,0.0417642
-0.0159232,-0.00333277
0.0152546,-0.0105214
0.0374454,-0.00576311
0.0281761,0.000900691
-0.0240618,0.00802195
-0.0928592,0.00518507
-0.138274,0.00688421
-0.100527,-0.0075819
-0.0289229,-0.018781
0.0383587,-0.0187327
0.0580599,-0.0185218
0.0600725,-0.00123626
0.0727905,0.0121994
0.0791781,0.0161696
0.0699405,0.0305868
0.0335336,0.0304529
-0.028198,0.00745868
-0.0511754,-0.0146706
-0.0424126,-0.0258318
-0.0309749,-0.00703704
0.014766,0.0206154
0.0423457,-0.01426
0.0349345,-0.024201
0.0209949,-0.0123338
-0.000611915,-0.0381156
-0.0837961,-0.0339541
-0.177688,-0.00992009
-0.168938,0.0105238
-0.0259287,0.0284109
0.0532251,0.0128208
0.0464887,0.0110844
0.0542125,0.00407337
0.0975171,-0.00521025
0.112289,0.00278744
0.0970841,0.00186861
0.084488,0.00737746
0.0620628,0.0100485
0.0325432,-0.00159971
0.011325,0.00608936
-0.0100298,0.0124279
-0.0208951,0.00484872
-0.0183002,-0.0118423
0.00397215,-0.0109877
0.0132486,-0.0039247
-0.00426778,-0.00390449
-0.0241957,-0.0122238
-0.0403651,0.018379
-0.0446836,0.0392007
-0.0478708,0.0135044
-0.0540603,0.00165784
-0.0685424,0.00279512
-0.0800391,0.00159877
-0.0966981,-0.0117053
-0.0752928,-0.0143293
-0.0099863,-0.0103205
0.0379262,-0.0296332
0.0700772,0.00142266
0.0746349,0.0178964
0.0711209,0.00375738
0.0276028,-0.0100985
0.0110152,-0.0147197
0.0200946,-0.0346672
0.0115717,-0.0221416
-0.00270217,0.0203314
-0.0136898,0.00341318
-0.00670329,0.00983497
-0.0208515,0.0188103
-0.0507948,0.00799262
-0.0323651,0.00125799
0.00653365,0.0126092
-0.0144532,0.00398666
-0.0455812,-0.010709
-0.0122834,0.00630812
0.0334106,0.00896076
0.0603571,-0.00423115
0.078871,-0.0188569
0.0733673,-0.00868373
0.0260084,-0.00167019
-0.0142813,0.00470844
-0.00964395,0.00106431
0.0200014,0.0133784
0.0136711,0.0178632
-0.00711048,0.0110726
-0.0194843,-0.000980323
-0.0342283,-0.0230251
-0.0421793,-0.0184068
-0.0484788,0.0120216
-0.0219783,0.0199819
0.0246698,0.000510615
0.0456919,-0.0263184
0.0291139,-0.00777861
0.010998,0.015736
0.00790463,-0.00168454
0.00685741,0.000787816
-0.0287974,0.0193323
-0.0601032,0.0084617
-0.0628079,-0.0113652
-0.0300853,-0.00668828
0.0165585,-0.0103936
0.0417234,-0.00307574
0.0276555,0.00697381
-0.013773,-0.0289112
-0.0446958,-0.0262615
0.00662899,-0.00246256
0.0367008,-0.0318868
0.0412927,-0.00349277
0.0545952,0.0229819
0.0321483,0.00123622
0.0257825,-0.0189833
0.0387331,-0.0256033
0.0371597,-0.000906555
-0.0402666,-0.000486151
-0.105885,0.0196237
-0.106085,0.0778816
-0.114896,0.0487001
-0.102024,0.0251215
-0.0540447,-0.00893102
0.045781,-0.0518714
0.107234,-0.0154538
0.115191,0.0137621
0.0908847,0.015809
0.0333019,0.0321666
-0.00292992,0.0383631
-0.0130328,0.0193338
-0.00682512,-0.00701128
0.00952873,-0.0367015
0.0166345,-0.0191028
-0.00109651,0.0128868
-0.00844236,0.0100349
0.00430586,0.00387847
0.00661753,0.0012281
0.00813692,0.0070809
0.000529264,0.0099042
-0.00756076,0.00163438
-0.00958598,-0.00904471
-0.0186693,-0.0193053
-0.0266169,-0.0121529
-0.0148936,-0.00261733
-0.0114496,-0.00363837
-0.0217932,0.00715614
-0.0261445,0.00240113
-0.00547479,-0.0126715
0.0250573,-0.0370288
0.0219013,-0.0228183
0.0249574,0.000428049
0.0292567,-0.00933727
0.0243499,-0.0223628
0.0159914,-0.00825505
0.0112234,0.0134057
-0.00938498,0.00241117
-0.00234741,-0.0338204
0.00050254,-0.0199583
-0.0175329,0.0205039
-0.0210423,0.0244806
-0.00789343,0.0146019
-0.000145137,0.0181687
-1.57e-05,0.0224977
-0.0181293,0.0134421
-0.0934526,-0.00217067
-0.134549,-0.00877068
-0.0869797,-0.00731116
-0.0277663,0.00391816
0.0368433,0.00782407
0.11831,-0.00281331
0.164058,0.0033214
0.119149,0.0115012
0.0312282,0.00867074
-0.0750262,-0.015521
-0.12319,-0.0195727
-0.0931771,-0.0133258
-0.0223891,-0.00974816
0.0424487,-0.00800976
0.0637425,0.00204984
0.0723646,0.0157974
0.0552343,0.000420949
0.0482242,0.00766562
0.0435839,-0.00120829
0.0284962,-0.00523562
0.016649,0.00128685
0.00596642,0.00906423
-0.0283743,0.010464
-0.0522764,0.00336144
-0.0420616,0.00643148
-0.0294121,0.00104648
-0.0153197,-0.0130125
0.0124277,-0.0170627
0.0257299,-0.00227934
0.00904899,-0.00417158
-0.000249175,0.00349403
-0.0301142,0.0187665
-0.0753958,-0.00449678
-0.0722877,-0.0245569
-0.0297038,-0.00577369
0.0105561,0.00406728
0.0467086,0.00808456
0.0574996,0.00215474
0.0507563,-0.000622527
0.0299442,0.000190321
0.0252872,0.00286986
0.0303703,0.00170251
-0.00348165,-0.0140183
-0.0408696,-0.00571159
-0.0415182,-0.000503772
-0.0305503,0.00194202
-0.0884864,0.0130117
-0.140525,0.0172349
-0.127747,0.00254825
-0.0712278,0.0226438
0.0186689,-0.00136186
0.109193,-0.0526399
0.176991,-0.00826849
0.191003,0.0158895
0.129075,-0.00233054
0.0554977,0.0073331
0.0132704,0.02887
-0.0212649,0.0436936
-0.0844006,0.00380009
-0.107854,-0.0329953
-0.0623238,-0.0296181
-0.0593065,-0.0133702
-0.0385846,0.025292
0.0438614,0.0318524
0.0978844,0.0242619
0.0846248,0.0225002
0.0274268,0.0177344
-0.0202138,-0.0150821
-0.0458477,-0.0295645
-0.0518857,-0.00624888
-0.0460249,-0.0194738
-0.0242382,-0.0120927
-0.0341635,0.00994282
-0.0384311,-0.00740346
-0.019149,-0.012274
0.0316247,-0.00806061
0.113089,-0.00406117
0.101462,-0.00862015
0.0202214,-0.00825841
0.00557161,-0.000680797
-0.0160088,-0.000183481
-0.0587625,-0.00792943
-0.0696396,0.00693543
-0.036612,-0.0153616
-0.00023245,-0.0153367
0.0117463,0.0116206
-0.00433158,0.00251141
0.00402005,0.00393467
0.000875934,0.0225262
-0.0103796,0.0204809
-0.0178194,0.00663551
-0.0133974,0.00721561
-0.00741796,0.00362891
-0.00117757,-0.00474588
0.0357966,-0.00229786
0.0459981,0.00151914
0.0291292,0.00383453
0.0142875,0.00817135
-0.00646218,0.0165319
-0.0288625,0.0190242
-0.0289179,-0.00347602
-0.00868629,-0.0236291
0.000976124,-0.00752361
0.00687417,-0.00506076
0.00326306,-0.0209694
-0.00436048,-0.0159418
-0.0037369,0.0043709
0.00510332,0.00911944
0.00942644,0.00387109
0.00911492,-0.00493584
0.00342575,-0.0138
0.00625106,0.00247002
0.0159118,0.0126042
0.023413,0.00589055
0.0227532,0.0103636
-0.00993542,0.0144488
-0.0268172,0.00771166
-0.0361177,-0.0164224
-0.0369696,-0.0263887
-0.00554061,-0.0304724
0.0335319,-0.00970007
0.0352679,0.0194808
0.0100323,0.0154191
-0.0105402,0.00310566
-0.00438689,-0.000677742
0.00592273,-0.0102492
0.0283324,-0.0184289
0.042527,-0.010721
0.0338314,0.00514477
-0.0163425,-0.0101534
-0.087959,0.00169503
-0.109129,0.0266651
-0.079678,-0.00512398
-0.0507372,0.0140193
-0.0536445,0.0146457
-0.0449988,0.0176117
-0.0312186,-0.0108215
-0.00698143,-0.0660338
0.000361579,-0.0286117
0.0168288,0.0366616
0.0895883,0.0332433
0.118622,0.0206825
0.0828412,0.019143
0.0525795,-0.00110301
0.0678849,-0.0313034
0.0665962,-0.0260823
0.0225433,-0.0120406
0.0105736,-0.0149132
0.0257185,0.0212786
0.0173954,0.0352616
0.0111423,0.00829122
0.00592447,-0.00710096
-0.00201816,-0.00186796
-0.0060955,0.00122829
-0.0220278,0.00690376
-0.0375544,0.0106879
-0.0448933,0.00496209
-0.0442713,-0.00759081
-0.0307175,-0.00670159
-0.012925,-0.00183437
-0.00222973,-0.0166905
-0.0097964,-0.0203117
-0.0124489,-0.00966085
-0.00728302,-0.000230764
0.00475514,0.00848137
0.00851709,0.0164176
0.00917299,0.00761164
-0.0119726,-0.0173883
-0.0317341,-0.0143137
-0.0173369,0.0165483
0.00278558,0.0202188
0.0094095,0.0139279
-0.00123666,0.0169034
-0.0334458,0.0137856
-0.0573733,0.00914474
-0.0749654,0.0043364
-0.0480222,-0.00307436
0.0199844,0.000774097
0.0817761,0.00555839
0.0921019,-0.0253554
0.0563003,-0.0189149
0.0291659,0.0123555
0.00643382,0.0108524
-0.0468423,-0.0050291
-0.0522946,-0.0238637
-0.035565,-0.0141215
-0.00313138,0.00766113
0.0232319,0.01212
0.0293109,0.00539237
0.0311967,-0.00179481
0.016935,0.00610668
0.0139724,0.0102755
0.0117115,-0.0227686
0.00025099,-0.0435264
-0.0172597,-0.00687351
-0.0355704,0.00559307
-0.0431991,0.0195353
-0.0191923,0.0186708
0.0153019,0.0148087
0.0284623,0.0151043
0.056538,-0.0165627
0.063968,-0.0306221
0.0380137,-0.0125569
0.0142744,-0.00219833
-0.0150344,0.0141846
-0.0261299,0.00158493
-0.00633416,0.0238764
0.00856074,-0.00444947
-0.0148583,-0.0153065
-0.0322686,0.00387556
-0.0250819,-0.00998117
-0.00809344,-0.00745148
-0.0425732,-0.00648716
-0.107538,-0.00818988
-0.105663,0.0015031
-0.0630989,-0.0127663
-0.00847357,-0.0295379
0.0493775,-0.022182
0.0741814,0.0048281
0.0801207,0.0493058
0.0534629,0.0337605
0.0244537,0.0276109
0.0190853,0.0176741
0.0432602,0.0103304
0.0524929,0.0248996
0.0180125,0.00192823
0.0180003,-0.0170069
0.0189495,-0.0160774
-0.00239492,-0.00594957
-0.015847,0.00783056
-0.0146194,0.00689564
-0.00435937,0.0110871
-0.000265073,0.0158513
0.00560155,-0.0181313
-0.00780736,-0.0239123
-0.0290202,0.00400965
-0.026798,-0.0125101
-0.01593,-0.0187683
-0.00541919,0.00493512
0.00417384,0.0285828
0.00194157,-0.0121239
-0.0245141,-0.0218956
-0.0427073,-0.018527
-0.0520487,-0.0153417
-0.0632223,-0.00462453
-0.0302051,-0.00187863
0.0207665,0.00641407
0.0538795,0.00770012
0.0570589,-0.00511368
0.0662918,0.0158815
0.024947,0.00698599
-0.0506081,-0.00908601
-0.0493957,-0.00329673
-0.0216416,0.00337867
-0.0170772,0.0100451
-0.0103019,0.0180643
0.0114171,0.0213327
0.00428519,-0.00793009
0.0217614,-0.03098
0.0445546,-0.0548693
0.0202903,-0.0472396
0.0126912,0.00392382
0.0271725,0.0125492
0.0410824,0.0146964
0.0278086,0.0180516
0.00113337,0.0410999
-0.00828785,0.0366114
0.001542,0.00633987
0.0124369,0.000711918
0.0270093,0.00346959
0.018603,0.00523552
-0.0223617,0.0128666
-0.0898014,0.0123278
-0.112704,-0.00773743
-0.0888668,0.0033608
-0.0713174,0.000901646
-0.0384543,-0.0126233
0.0404806,-0.0156912
0.0936238,-0.0125382
0.0871927,-0.00986991
0.0566214,-0.0106074
0.00859479,0.00364922
-0.0259471,0.00756706
-0.0120875,-0.012302
-0.00331003,-0.0255103
-0.00603822,-0.0140305
0.00255391,0.000101309
0.0293219,-0.00663208
0.0465014,-0.0136635
0.043641,0.02299
0.0424881,0.026482
0.00918261,0.0128612
-0.029641,0.00271503
-0.0628599,0.00874117
-0.0596139,0.00235088
-0.0411761,0.00170516
-0.0212667,0.00812888
0.00118496,0.0109845
0.0449189,0.020616
0.0366679,0.00539719
-0.0140365,-0.033005
-0.0318347,-0.0266313
-0.0504198,-0.00492158
-0.08535,-0.0115948
-0.0657193,-0.0135515
-0.0146087,0.00217767
0.0528748,0.011591
0.106366,-0.0153183
0.118968,0.00444411
0.073148,0.00633136
0.0302825,-0.0162261
0.00482702,-0.00661484
-0.0030364,-0.00491072
0.00284784,-0.00197627
0.010428,0.0325038
-0.0120608,0.0276437
-0.0311684,0.00631845
-0.0218417,-0.00366752
-0.0124918,-0.00372889
-0.00251434,0.00578421
-0.00677576,0.00338811
-0.00977412,0.00111354
-0.0174282,-0.00289902
-0.0752229,-0.00448326
-0.0969147,0.00616451
-0.0461273,0.0038503
0.0380203,-0.0152563
0.0855222,-0.0224062
0.0789116,0.0024361
0.0114475,0.00886403
-0.0186301,0.014828
-0.0275926,0.0301059
-0.0244337,0.00328378
0.0129022,-0.019158
0.0340665,-0.0068227
0.0252808,0.00491496
0.0142658,-6.13e-05
0.00557913,0.000596148
-0.0057867,0.000682474
-0.0210516,-0.00841404
-0.0320138,0.00958204
-0.0518213,-0.0160622
-0.0502751,-0.0184379
-0.0159383,-0.0221951
0.026915,-0.0142885
0.0481915,0.0217519
0.0479944,0.0248793
0.0336678,0.00655662
0.00295114,0.00230803
-0.0141605,0.00263225
-0.0178557,-0.0174236
-0.034161,-0.033512
-0.026388,-0.00945528
-0.0111727,-0.00117975
-0.00819379,0.00465889
0.00630898,0.0168743
0.0132791,0.0157291
0.0157185,0.00645983
0.0283483,-0.000408964
0.0358561,-0.0052384
0.037846,-0.00274066
0.0276387,-0.00854931
0.0274602,-0.00923014
0.0133312,0.00853938
-0.00308539,0.0385637
-0.00785076,0.0278486
-0.0469931,0.00955546
-0.0985206,-0.00271542
-0.0986609,-0.00112402
-0.0934338,-0.00903784
-0.082279,-0.02183
0.00445185,-0.00976441
0.11923,-0.00106563
0.172337,-0.0252205
0.130276,0.00751604
0.063197,0.0144854
0.0101068,-0.010707
-0.0322246,-0.0119511
-0.0515142,-0.0140509
-0.0697398,-0.00515535
-0.0824094,-0.00375673
-0.124859,0.04264
-0.133103,0.0170665
-0.0733536,-0.00447377
0.0420864,-0.00453298
0.130795,-0.0163712
0.174232,-0.00114037
0.152043,0.00524642
0.00871787,0.00560736
-0.0972728,0.00359897
-0.078754,0.0037776
0.000960561,0.00522484
0.0586345,0.00251621
0.0667008,-0.0128103
0.0597095,-0.0114988
0.0308698,0.00724569
-0.00962167,0.0069271
-0.0177418,0.00674361
0.000691787,0.0211041
-0.00713471,0.0106485
-0.0227906,-0.00551273
-0.010665,-0.0150374
0.00074801,-0.0185112
-0.00389775,-0.0126269
-0.0318497,-0.000429577
-0.0472118,0.00679855
-0.0488198,0.0074626
-0.0381444,0.000102364
-0.0433346,-0.0153978
-0.0521485,-0.0144689
-0.0528466,0.00548678
-0.0237264,0.0127448
0.00902358,-0.00398938
0.0388249,0.000861512
0.0722445,0.0150202
0.0691272,0.0192629
0.054497,0.0218515
0.0427512,-0.00219772
0.0257999,-0.020412
0.0134134,-0.00993763
0.00657465,-0.00285646
-0.00316158,-0.00741735
-0.00922079,-0.00280728
-0.00607594,0.0106622
-0.0139937,0.00199795
-0.0162903,-0.0077483
-0.00647531,-0.0219897
0.000281102,-0.0221975
-0.000869997,-0.00882615
0.00406291,0.00195736
0.00110182,0.00525961
-0.0145941,0.0258676
-0.0389756,0.023905
-0.0596453,-0.0166443
-0.0332179,-0.00343541
-0.0123512,-0.00789406
-0.0254759,-0.0263677
-0.013512,-0.00712616
0.0048804,-0.00185825
0.0284202,0.00415228
0.0599698,0.0125467
0.0367992,0.0146021
-0.0156211,0.000235159
-0.0392849,0.00664995
-0.0412101,-0.00394115
-0.0244422,-0.00233646
-0.0132833,0.011687
0.00205959,0.0165341
0.036927,0.0188773
0.0567465,0.0193758
0.0602446,0.00466315
0.0520166,-0.0184631
0.0351187,-0.0169236
0.026779,-0.0176888
0.00194334,-0.0143669
-0.0166513,-0.00300156
-0.0147941,0.00620086
-0.00277947,0.00695264
-0.00254806,-0.00119258
-0.00202647,-0.0110299
0.00723788,-0.0020352
0.00299825,0.00832886
-0.00485928,0.01158
0.00394693,0.0199266
0.00892017,0.0141881
0.00328105,0.00737488
-0.0213031,-0.00155806
-0.0636907,-0.0172243
-0.099886,-0.0391942
-0.0725552,-0.035212
-0.0110852,0.013429
0.0290721,0.0244954
0.037252,0.0219884
0.0240708,0.0157378
0.0207495,-0.00457781
0.0248838,-0.00758509
-0.00565287,-0.0160639
-0.0709442,-0.026052
-0.106423,-0.00068282
-0.0986544,0.00565846
-0.0964681,0.0110837
-0.0192844,0.0158212
0.113449,0.0225859
0.198215,0.0246085
0.200937,-0.0151868
0.148711,-0.0170189
0.0456114,-0.00881919
-0.0336518,0.00302447
-0.030559,0.00399403
-0.0231101,0.00523815
-0.0230832,0.0194116
-0.0210807,0.0182663
-0.0381241,-0.0085689
-0.0631421,-0.027675
-0.0834666,-0.0273124
-0.0553681,-0.00164292
0.011441,0.0127754
0.0434416,-0.00383717
0.0360374,-0.00633341
0.00428764,0.00148259
-0.00994272,2.3e-05
-0.0192058,-0.0145615
0.0012958,-0.00623426
0.0146614,-0.0184014
0.022033,-0.0114892
0.0279095,0.0184513
0.0194645,0.0250157
0.00317119,0.0126742
0.00343212,0.00741764
0.0140376,-0.00269703
0.0219034,-0.0128741
0.0145112,-0.00743375
0.000446421,0.000197196
-0.00656302,0.00475248
-0.00755878,0.00996525
-0.0140545,0.0154186
-0.0294036,0.0132631
-0.0394083,-0.00316076
-0.0386223,-0.0175871
-0.0419748,-0.0109161
-0.0334295,-0.00440285
-0.0276193,0.00624647
-0.000632633,0.0136646
0.0330398,0.0123709
0.0337262,0.00132218
0.0111219,-0.00478578
-0.0726242,-0.0231902
-0.107648,-0.0273398
-0.0739591,-0.0125834
-0.00772393,-0.02241
0.0721895,-0.00569545
0.126018,0.0222569
0.121361,0.0369748
0.0675994,0.0223122
0.0277482,0.00414843
0.00304536,-0.00103627
-0.0322094,-0.00674882
-0.0341511,-0.0148819
-0.0121798,-0.0164744
0.00884735,0.00869322
0.0165799,0.0132426
0.00498428,0.00653156
0.00230482,0.00509414
0.0115834,0.000436931
0.00989975,-0.00345796
-0.0239487,-0.00717756
-0.0251041,-0.00311152
-0.0011626,0.00217224
0.0174019,0.00935816
0.00575737,0.00818251
-0.0614482,-0.0161476
-0.0962988,-0.0129321
-0.0312105,-0.00477176
0.0295836,-0.00508871
0.0248608,0.0139253
0.00479239,0.00978138
0.00591858,0.00915579
-0.0158812,0.00417604
-0.0591415,0.010095
-0.0271739,-0.00784294
0.0443753,-0.0230732
0.0713596,-0.0122843
0.0833585,0.0187672
0.064427,-0.001829
0.0186206,-0.0239546
-0.018252,0.00269432
-0.0548989,0.00633156
-0.07648,-0.0192803
-0.0514389,-0.00454018
-0.039357,0.0137838
-0.0193264,0.00119201
0.0013056,-0.00792357
-0.0153668,0.0189927
-0.0173396,0.0232142
0.0177774,0.0120193
0.0543104,0.00694939
0.0883085,-0.0018991
0.104613,-0.00550577
0.0443566,-0.00341795
-0.00318168,-0.000546601
0.00181255,0.00306824
0.0111992,0.0068105
-0.00482618,0.0191286
-0.0358194,0.0096945
-0.0263422,-0.00518225
-0.00490706,-0.0298389
0.00866939,-0.00828385
0.00532905,0.00188139
-0.00826681,-0.00755073
-0.0130629,-0.0044337
-0.0151213,-0.000942962
-0.023533,0.00487224
-0.0144768,-0.00238936
0.00707906,-0.0217875
0.0138231,-0.0166701
0.00489896,-0.00171189
-0.00444672,0.0117545
-0.0172833,0.0100493
-0.0155423,0.0147455
-0.00276049,0.0177976
-0.0149854,0.00397713
-0.0956575,-0.0110315
-0.120116,-0.00502372
-0.0604433,0.00177084
0.0260524,0.0012919
0.0847582,-0.003488
0.115456,-0.00295866
0.105434,-0.0091962
0.039089,-0.0143756
-0.0209081,-0.0237758
-0.0134249,-0.0184972
-0.0160709,0.000278082
-0.00497901,0.0222694
0.0179645,0.00591281
0.0323114,0.0115188
-0.00265332,0.0353414
-0.0347622,0.00833889
-0.0276416,-0.0205033
-0.0295777,-0.00242065
-0.0387527,0.000704414
-0.0308877,-0.012686
0.018109,-0.0106208
0.0577491,0.00432721
0.0480799,0.00818278
0.0325257,0.000797576
0.0127251,-0.0081512
-0.000595372,-0.0081797
-0.0182807,-0.00358883
-0.0293333,0.00172994
-0.0191627,0.00835016
-0.0192628,0.00120218
-0.061136,0.0117011
-0.101674,0.034335
-0.0700471,0.00589742
-0.00824239,-0.00337223
0.0597308,0.000616872
0.0929533,-0.00270362
0.0786637,-0.00917799
0.0501035,-0.00876444
0.0159237,-0.00303229
0.00375724,-0.00310052
-0.015118,-0.0141745
-0.0207362,-0.00236414
-0.0027508,-0.00160618
0.0156859,-0.00573024
0.0216623,0.0108334
0.0121432,0.0141514
0.00489624,0.00807412
-0.0172866,0.0169021
-0.0351325,0.0182739
-0.0222336,0.00426344
0.00862553,-0.0126978
0.0303524,-0.0101671
0.032113,-0.0179708
0.0192322,-0.0202592
-0.0038206,-0.0138327
-0.030125,-0.0165736
-0.0211112,0.00504684
-0.00804749,0.039856
-0.0104701,0.00864691
-0.00626193,-0.00445145
0.00327546,0.00151904
0.0171039,-0.00616359
0.0190251,-0.0181789
-0.0109048,-0.00414554
-0.0466092,0.0246806
-0.0608347,0.0247873
-0.0563033,-0.000143969
-0.0140695,-0.0195063
0.0137541,-0.0104219
0.0191601,-0.00477787
0.0268056,-0.000293443
-0.0104777,0.00491232
-0.0276193,-0.00537375
0.0046019,0.00810771
0.0376288,0.0170198
0.0545204,-0.0141152
0.0528492,-0.054159
0.0502542,-0.00451321
0.0286012,0.029784
0.00262533,0.0175881
-0.0355775,0.0128792
-0.0888787,0.0114609
-0.0654775,0.00219577
-0.000948818,-0.00515851
0.0332329,-0.0232335
0.038887,-0.00658285
0.0509276,0.00758069
0.0413594,-0.00609364
0.00354586,-0.00844367
-0.0430439,0.0124877
-0.0622253,0.00857112
-0.0358212,-0.00863497
0.0076088,-0.00742811
0.014755,0.00749491
0.0109732,0.0205761
0.0132354,0.00434615
0.019485,-0.00367644
0.012916,0.00321316
0.0220618,0.0028566
0.0462019,-0.00639579
0.0495884,-0.00629806
0.0155016,6.71e-05
-0.0121168,0.00285285
-0.0222607,-0.00165417
-0.0583243,-0.00519972
-0.0764097,-0.00104645
-0.0734068,-0.000356873
-0.0424173,0.00307322
-0.00190175,-0.00239807
0.0312926,-0.00211826
0.0371729,-0.00731552
0.0174386,-0.00637065
0.0122912,-0.00452828
0.0142554,0.000210432
0.0259786,0.00757864
0.0187256,0.0165434
-0.00180352,0.00226293
-0.0181251,-0.0168349
-0.0227476,-0.0147474
-0.00861561,-0.00515121
0.00871988,-0.00207411
0.0178882,0.00659482
0.0190694,0.0211718
0.0111191,0.00671043
-0.0440735,-0.00200407
-0.104453,-0.013777
-0.082351,-0.0090665
-0.0348325,0.000641155
0.00826957,0.0153791
0.0496893,0.00570449
0.07521,-0.000405073
0.0628752,0.00999863
0.0477655,0.00754931
0.0637559,-0.00254045
0.0556605,-0.0125988
0.0211626,-0.0154935
0.00417238,0.00142759
-0.0042584,0.00513726
-0.0147157,0.00860562
-0.0112128,0.0130206
-0.00413342,0.0305743
-0.0166776,-0.00725281
-0.0124297,-0.0104408
-0.0258405,0.0205395
-0.0570621,0.019362
-0.104795,-0.00249675
-0.104659,-0.0159504
-0.0770031,-0.0184404
-0.0081227,-0.02974
0.0619351,-0.0425841
0.0962445,-0.024845
0.0914617,-0.0123815
0.0724883,-0.0117123
0.0502549,0.00164992
0.0116428,0.0197537
-0.00833275,0.031486
-0.0283955,0.0305243
-0.0545851,0.0176209
-0.0453639,-0.00295846
-0.016234,0.00256703
0.0114178,0.0187583
0.0279988,-0.00509903
0.0472248,-0.0134703
0.0393954,0.00298897
-0.00240965,0.00145263
-0.027461,-0.0110693
-0.0276806,-0.0259694
-0.0145177,-0.0165148
0.00676064,-0.00799948
0.0139586,-0.00417162
-0.000597791,-0.0192337
-0.0104673,0.00321255
0.00190077,0.0627126
-0.00848308,0.0281322
-0.0110641,0.0160931
0.0048133,0.00594421
0.00174874,-0.000441223
-0.00724445,0.0036273
-0.00569543,0.00628101
0.0128606,-0.00647304
0.033311,-0.0124623
0.0376557,-0.00490081
0.023331,-0.0287103
-0.000990081,-0.0394884
-0.0243126,-0.0195442
-0.0331919,-0.00293892
-0.022379,0.00910424
-0.0201155,0.0152071
-0.033085,0.0164676
-0.0425053,0.0170311
-0.0438543,0.0244511
-0.029691,0.00616392
-0.00173971,-0.0191093
0.0341244,0.0126572
0.0560315,0.00307534
0.0389596,-0.0159026
0.0292858,-0.0148667
0.0209897,0.00682457
0.00559525,-0.000777399
0.0141141,-0.0151675
0.0248256,-0.0233502
-0.00474265,-0.0054546
-0.0378616,-7.92e-05
-0.0384505,0.00605318
-0.0234246,0.019244
-0.0291144,0.0212303
-0.0439534,0.0184454
0.000528061,0.0163731
0.0526283,-0.000364859
0.0784017,-0.0107294
0.0841894,0.00783527
0.0471677,0.0127069
-0.003742,-0.000996319
-0.0352607,-0.000164248
-0.0656664,-0.019842
-0.112567,-0.0449273
-0.103429,-0.0221609
-0.0354295,-0.00323501
0.0253077,-0.0114689
0.0422646,0.00423443
0.0436097,0.0153359
0.0500317,0.0137437
0.046126,0.0195511
0.0282414,0.0118484
0.0345976,0.00211657
0.0418212,-0.000203077
0.0304288,-0.000188962
0.0230099,1.86e-05
-0.00399422,-0.00801725
-0.0365504,-0.00635969
-0.0614428,0.0166806
-0.0622267,0.0129769
-0.0304866,-0.0224573
0.0138214,-0.0287814
0.0200489,-0.0189044
-0.0257738,-0.0050932
-0.0233683,0.00183117
0.0011252,0.0182249
-0.0015482,0.0294796
-0.0033545,0.014291
0.0108205,0.00646258
0.0192879,-0.0150435
0.00637888,-0.00950102
-0.0107224,0.00823045
-0.0195765,-0.00888073
-0.00853288,-0.0137621
0.0188868,0.011038
0.0279496,0.0182596
0.0277171,1.03e-05
0.0351708,-0.0142323
0.0332979,-0.0155471
0.0254879,-0.00183999
0.0161736,0.00932002
-0.0113408,0.0204098
-0.0704782,0.0170477
-0.0937873,0.0120852
-0.083323,0.011736
-0.0471425,-0.00831749
0.0180222,-0.0183668
0.0602028,-0.0124273
0.0610396,-0.000381949
0.048411,-0.00125924
0.0333254,-0.00350062
0.00943598,-0.00204413
-0.00468589,0.00278198
-0.000189375,-0.00507752
0.00655816,-0.0152906
0.00887552,-0.0117398
0.011036,-0.0228981
0.00167165,-0.0204734
-0.00856542,0.0165465
-0.0163532,0.0287009
-0.0222592,0.0186788
-0.0262802,0.0154259
-0.0246285,0.00814328
-0.0122277,-0.0072672
-0.00896568,-0.0129188
-0.0119182,-0.00496957
-0.0159157,0.000527826
-0.00911544,0.00823893
0.0040211,0.000946128
0.0138938,-0.0119605
0.0226728,-0.0202462
0.0224482,-0.0113461
0.0143854,0.0116069
0.00557968,-0.0101702
-0.00463383,-0.015208
-0.00461789,0.0275527
-6.57e-05,0.0263347
0.00522956,0.0118191
0.00256007,-0.00270348
-0.00189065,-0.00299592
-0.000290364,-0.0120782
-0.00471234,-0.00915153
-0.0143533,-0.00339392
-0.0305553,0.0135105
-0.0387979,0.0214959
-0.0497206,0.0125386
-0.0347428,-0.00920961
0.019182,-0.0260589
0.0453544,-0.0117806
0.0333135,0.00352887
0.051587,0.01512
0.0627316,0.0018871
0.0458946,0.010563
0.0104922,0.0106064
-0.00569215,0.00698735
-0.00294206,-0.0023603
0.00533689,-0.0146118
0.0115803,-0.0175546
0.00917315,-0.007817
0.000543013,0.00104931
-0.00466951,0.00511782
-0.00473889,0.00328716
-0.0123363,-0.00671492
-0.0539645,-0.00113874
-0.0873116,-0.00959284
-0.0563866,-0.00760824
-0.0113614,-0.000659576
-0.00548934,0.00377395
-0.00597522,0.0106297
-0.0263255,0.0150689
-0.0482139,0.0114595
-0.0234209,0.00743775
-0.0101136,-0.0188756
0.00564254,-0.0218993
0.049662,-0.00137822
0.0795766,0.00686221
0.0831233,0.000292728
0.0609723,0.00627657
0.04267,0.0146173
0.0249062,0.0123948
0.029295,-0.00055109
0.0378624,-0.00516794
0.0260954,-0.000375577
0.00393943,-0.000204678
-0.0129839,0.00755583
-0.0230867,0.0177019
-0.0236361,0.0173206
-0.020973,0.00268043
-0.0236291,-0.0096965
-0.0305949,-0.0297537
-0.0219037,-0.0342249
-0.0126884,-0.00364428
-0.0162514,0.00480078
-0.0151009,0.00164926
-0.0117287,-0.00158359
-0.0142401,0.00492595
-0.011867,0.019316
0.00123485,-0.0019486
0.00234728,-0.0193325
-0.00888046,-0.0144158
-0.0147295,-0.00160201
-0.0158127,0.00382902
-0.00379354,-0.00177009
0.00257234,0.0228198
0.00271073,0.0344584
0.00830379,0.00296137
0.0116434,-0.019019
0.00364888,-0.0245613
0.00106252,-0.0143592
-0.000123765,-0.00652908
0.00250738,-0.00416226
0.00615367,0.00614346
0.00241536,0.00757764
0.00745846,0.0100885
0.0160168,0.000329707
0.0117683,-0.00156575
0.00639483,0.00279859
0.00114301,-5.74e-05
-0.00366725,0.000362658
-0.00645027,0.00121673
-0.00828935,-0.00284714
-0.00989001,-5.64e-05
-0.00126547,0.000827525
0.00388625,-0.00847769
0.00199008,-0.00830408
-0.000424462,0.00135556
-0.00190786,0.00310291
-0.00386429,0.00654613
-0.00385805,0.0115296
0.00299583,-0.00756509
0.0133692,0.00224336
0.0154998,0.000440056
0.010329,-0.00151714
0.00555148,-0.000848725
-0.00175324,-0.00317906
-0.00313337,0.00432486
-0.00352729,0.0154346
-0.00797637,-0.00906398
-0.0059323,-0.0121312
0.0144415,-0.00651141
0.0128858,-0.00408883
-0.0036219,0.0193554
-0.00642631,0.0175697
-0.00941832,0.00891923
-0.0179847,0.006373
-0.0299197,-0.00939849
-0.00868683,-0.00956179
0.0208499,-0.000699296
0.0145253,-0.00233454
0.0137839,0.00311412
0.00796609,0.0045192
-0.0117436,-0.00826816
-0.0221353,-0.0230776
-0.0178158,0.00442252
-0.00809933,0.0283431
0.000318905,0.00998589
0.00327839,0.00189323
0.00439959,-0.00625988
0.00297351,-0.00302312
0.00610172,-0.00223527
0.00694751,-0.0022903
0.00943371,0.00829587
0.00454074,0.0157674
-0.000365241,0.00423385
0.00553449,-0.0153515
0.00525308,-0.0144429
0.0054134,-0.00362351
0.00464441,-0.00157978
0.00143203,-0.000297546
-0.00540344,0.00421819
-0.00739511,-0.00127465
-0.0020723,-0.0013905
0.000386118,-0.00608936
-0.000226544,-0.0182144
-0.0102406,-0.0226156
-0.0109864,-0.0099572
-0.00168907,-0.00849146
-0.00153955,-0.00110083
0.00241933,0.0318011
0.00503976,0.0166242
0.00923026,-0.00513733
0.0153464,-0.00536374
0.0154689,0.000784319
0.0103562,0.00663616
-0.00456019,0.0124498
-0.015661,0.00434872
-0.0103575,0.00610528
-0.00282087,0.0143838
-0.00349864,0.0130134
-0.00252161,-0.00424515
-0.00327667,-0.0320657
-0.00291019,-0.0171396
-0.00449446,0.00296799
-0.00895065,0.00267503
-0.0137237,0.00171888
-0.0134329,0.0121397
-0.0037764,0.0151762
0.0246246,-0.00440068
0.0391134,-0.00870597
0.0324321,-0.00680837
0.017704,-0.00335631
-0.00246195,-0.00260427
-0.0179337,0.0061587
-0.0317833,-0.00134586
-0.0317247,0.00104589
-0.0183776,-0.000581615
-0.00682269,-0.00912071
