Comp Ch 3,Comp Ch 4
0.00313439,-0.0113753
-0.0117382,-0.0183372
-0.0238311,-0.0111388
-0.0206136,-0.0193559
-0.0145134,-0.0117303
-0.0155918,-0.00101737
-0.00452498,1.33e-05
0.0130521,-0.00428166
0.0187999,-0.000101473
0.0154243,-0.00464681
0.0231455,-0.0153465
0.0405616,-0.0145948
0.0356684,-0.000661599
0.0187605,0.0043596
0.0173356,0.0161277
0.0539405,0.0293359
0.0962083,0.0134843
0.113737,-0.0207094
0.0615371,-0.0289905
-0.00852166,0.00929627
-0.0570989,0.0187722
-0.110734,0.0130068
-0.139093,0.0244977
-0.126472,0.0291823
-0.0714823,0.0243553
-0.0154588,0.00325802
0.0206207,-0.0106322
0.0312923,-0.0118205
0.0304255,0.00659587
0.0228693,0.0166519
0.000439868,0.0143438
-0.0225601,0.01855
-0.0337015,0.0201517
-0.0337427,-0.00185147
-0.0226992,-0.0308826
-0.00239275,-0.0217293
0.0280404,-0.013003
0.0544622,-0.0137454
0.0727457,-0.00676006
0.076543,-0.000184267
0.0681999,0.00123164
0.0515858,0.0140568
0.0258693,0.00797595
-0.00762595,-0.00660513
-0.0332021,-0.0113543
-0.0385333,-0.0120777
-0.0316125,-0.00842867
-0.0376328,-0.00738398
-0.0377886,0.0141124
-0.0284363,0.0202658
-0.0158587,0.00447215
-4.57e-05,-0.0100946
0.0111421,-0.00855493
0.0136506,-0.00283669
0.0143285,-0.00326709
0.0109302,0.00154839
0.00831894,-0.00227445
0.019276,-0.0127647
0.0229789,-0.00628026
0.015801,-0.0137723
0.00648186,-0.0261945
-0.00234288,-0.0136406
-0.011381,0.00419254
-0.0146826,0.00321902
-0.0176325,0.00873323
-0.0240412,0.0171446
-0.0173166,0.00955315
-0.00342246,-0.00962501
0.00760429,-0.0184375
0.00682699,-0.00259639
-0.000633051,-0.00428161
-0.00619471,0.00118115
0.00335929,0.0176959
0.0331578,0.00970678
0.0324114,-0.00890261
0.0172442,0.00242188
0.00225426,-0.0128467
-0.0202524,-0.021594
-0.0374293,-0.00515125
-0.0418219,0.00718418
-0.0362452,0.0100041
-0.0323241,0.0180957
-0.0255939,0.0194865
-0.0078017,0.00828574
0.0316463,-0.00898745
0.0527266,-0.0193516
0.080158,-0.0159813
0.100984,0.000185575
0.0653959,0.0109796
0.0185221,0.0139334
-0.0184295,0.014609
-0.0337132,0.0120793
-0.0132998,-0.000443236
-0.00158486,-0.0188732
0.0201167,-0.0121244
-0.00537726,0.0044419
-0.0613159,0.0110833
-0.085819,0.0119054
-0.0935239,0.0169581
-0.0774302,0.0249141
-0.0646412,0.009319
-0.00561816,-0.0273706
0.0421481,-0.0231368
0.0557114,0.00110135
0.0537089,0.00607705
0.0310915,0.0122689
0.00905348,0.0119634
-0.00527752,0.00596761
-0.00937153,0.00175861
-0.00759908,-0.0107394
-0.00447918,-0.0206958
-0.00258472,-0.00930027
-0.0093463,0.00463138
-0.00493072,0.000528512
0.0101944,0.00512522
0.0106288,0.0195422
0.00180549,0.015824
-0.00187238,-0.000109718
0.000641707,-0.00798004
-0.00522505,-0.000159212
-0.0088723,-0.0160355
-0.00598108,-0.023808
-0.00726232,-0.0144324
-0.0120926,0.00794873
-0.00140623,0.0255248
0.0178489,-0.0281048
0.0305049,-0.038271
0.0285163,-0.0130718
0.0176485,0.0054311
0.0122411,0.0146829
0.00608035,0.0182763
-0.00290017,0.0256918
-0.00953708,0.0227614
-0.00528661,0.0130344
0.0224198,-0.00800615
0.0307789,-0.00710513
0.020036,-0.0147001
0.00192971,-0.0143292
-0.0135904,-0.00516714
-0.0179416,0.0068371
-0.00831938,0.0141246
-0.00259453,0.0177949
-0.00401112,0.00524648
0.00282805,-0.0172868
0.00542067,-0.0222067
-0.00442899,-0.017328
-0.00384785,-0.00141285
-0.00464581,0.00953048
-0.0108551,0.0457575
-0.00937301,0.0761952
8.41e-05,0.0419007
0.00768441,-0.0309252
0.00632619,-0.052289
0.0077943,-0.0643275
0.00984971,-0.0441445
0.00898685,-0.0146501
0.0120002,0.000214438
0.0156833,0.000483698
0.00673233,0.00290318
-0.00106943,0.00285232
-0.0041391,0.0309586
-0.0408017,0.0505176
-0.116683,0.010268
-0.137276,-0.0251603
-0.10004,-0.0355149
-0.0148416,-0.01285
0.0420972,0.0118614
0.086446,-0.00377398
0.104366,-0.0144411
0.092654,0.00305418
0.0785348,0.000849448
0.0624597,-0.00217847
0.0113605,0.00406822
-0.0186243,-0.0114625
-0.0155887,0.0215172
-0.00852493,0.0199423
-0.0022802,-0.0209609
0.00695648,-0.0169197
0.0399048,0.00397409
0.0482014,0.0187872
-0.0455979,0.0241816
-0.142596,0.0111701
-0.206449,0.000311742
-0.199435,0.0183767
-0.125324,0.00276261
-0.0553247,-0.0108655
0.0286163,-0.00387474
0.0643087,0.0049731
0.0986875,0.00691227
0.162935,-0.00579395
0.168007,-0.0104846
0.103293,-0.0129775
0.0574847,-0.00892796
0.0327202,-0.0136768
0.0289529,-0.0144903
0.0604742,0.00612696
0.104179,0.0170865
0.107853,0.0235079
0.0605155,0.0273528
0.00516243,0.0237019
-0.0304709,-8.46e-05
-0.0553015,-0.0205331
-0.0639735,-0.0145539
-0.0603414,-0.0124853
-0.0523716,-0.00980103
-0.0658952,-0.00220665
-0.119927,0.0109464
-0.123597,0.00830158
-0.0882629,0.00393962
-0.0265745,-0.00914184
-0.00274947,-0.0359962
-0.0179975,-0.0263355
-0.0294429,0.00297247
-0.0446031,0.0145363
-0.0550569,0.0215499
-0.0319139,0.0128052
0.0309719,0.011306
0.123018,-0.00721905
0.157069,-0.0174219
0.0943725,-0.0148397
0.0161695,-0.0238914
-0.0221923,-0.0114501
-0.0143084,0.00962525
0.0136339,0.0103364
0.0307114,0.0114353
0.0309365,0.0140781
0.00597942,-0.00472779
-0.0618632,-0.013187
-0.0890082,0.00494983
-0.0464465,0.0181781
0.00872627,0.0184159
0.0501265,0.0229947
0.0756271,0.0241677
0.0646151,0.0100837
0.0308311,-0.00933307
-0.00242169,-0.0179001
-0.0185037,-0.01726
-0.0307568,-0.0186406
-0.0395186,-0.0106078
-0.0477893,-0.00047571
-0.0449977,0.00705867
-0.0220069,0.021488
-0.00703796,6.55e-05
0.01476,-0.0386131
0.0269818,-0.0164058
0.0236385,0.0116544
0.0206532,0.0124497
0.0192552,0.015402
0.0108312,-0.00218642
0.00652617,0.00694469
0.00434375,0.0041511
-0.00658648,-0.0227834
-0.0184134,-0.0165942
-0.0112846,-0.0107657
-0.00579354,0.00458409
-0.00465806,0.0163461
0.000340438,0.0151697
0.0138899,0.00761699
0.0273532,0.00765239
0.0398864,-0.00591333
0.0508623,-0.0212437
0.048359,-0.00649653
0.0461532,0.00699151
0.0458002,0.000866164
0.0208047,0.0204705
-0.00610031,0.0183345
-0.0197863,0.00251449
-0.0352402,-0.0177148
-0.0769843,-0.034039
-0.17001,-0.0187867
-0.299151,-0.0286621
-0.488283,-0.0185201
-0.457584,-0.006359
-0.126269,0.0188332
0.161338,0.00415568
0.18284,-0.00336177
0.133048,-0.0102722
0.152981,-0.0159533
0.196899,-0.00325223
0.284015,0.0187099
0.311731,0.0345614
0.300604,0.0219914
0.238014,0.0425066
0.13479,0.0492408
0.0798998,0.00291165
0.039106,-0.0302226
-0.0564877,-0.0158338
-0.267927,0.00796601
-0.332504,0.0189157
-0.209658,0.0191567
-0.016813,0.00103547
0.173017,0.0102733
0.186327,0.00443618
0.164585,-0.01481
0.121925,-0.0199855
-0.00284119,-0.00407615
-0.121663,0.00668781
-0.144565,0.000461121
-0.233757,0.00509552
-0.448739,-0.0140854
-0.434834,-0.0211622
-0.21688,-0.0443966
-0.0373632,-0.0540901
0.187815,-0.0235639
0.441397,-0.0190373
0.466085,0.0121039
0.310438,0.041923
0.141906,0.0336522
-0.00608489,0.0243553
-0.0527532,0.0160529
-0.0476051,-0.0279821
-0.0545375,-0.0104752
-0.0702871,-0.00907517
-0.0631407,0.0414885
-0.03695,0.0540693
-0.012704,0.0326282
0.00666953,0.0129061
0.00304938,-0.0156963
-0.0196207,-0.0446619
-0.0364985,-0.0460661
-0.0261115,-0.0115448
-0.00608529,-0.00561051
-0.0104242,0.00145056
-0.0413758,0.00220245
-0.0657334,-0.00854712
-0.0626703,-0.00924028
-0.0243157,-0.0101584
0.00654744,-0.0223053
0.00189589,-0.0017622
-0.0165615,0.0315671
-0.0274196,0.0251533
-0.0148664,0.0279885
0.016171,0.0333443
0.0414825,0.0109914
0.0364181,-0.0221266
0.0180739,-0.0306472
0.0111602,-0.0219102
0.0171949,-0.0189196
0.021466,-0.00631532
0.00251371,0.00629797
-0.0282086,0.0147461
-0.0402392,0.00723963
-0.0296139,-0.00637251
-0.00665337,-0.0162603
0.00268114,-0.0190884
-0.000369987,0.000743367
-0.00757724,0.0164825
0.000894064,0.0207099
0.0255726,0.0280587
0.0453177,0.0292041
0.0455224,0.00508474
0.0267881,-0.0234511
0.0113405,-0.022049
0.00916947,-0.0148042
0.0145755,-0.0132513
0.012708,0.000584793
-0.00924071,0.0181952
-0.0357481,0.0145751
-0.0438262,0.0199245
-0.0295245,-0.00871748
-0.00540453,-0.0329399
0.00674172,-0.0100346
-0.001122,0.0138961
-0.010657,0.0142583
-0.00708964,0.0149518
0.0144593,0.0329641
0.030262,0.012938
0.0292677,-0.0152815
0.0194157,-0.0348597
0.0072484,-0.02984
0.00232639,-0.0223512
0.00645585,-0.0191195
0.00238203,-0.00594276
-0.0323296,-3.18e-05
-0.0396258,0.00243181
-0.0332155,-0.00461505
-0.00909,-0.00421421
0.00730513,-0.000627731
-0.000966383,0.0110581
-0.0140765,0.0236567
-0.0118325,0.0250625
0.000495564,0.0254958
0.0455738,0.0257099
0.0832454,0.00906536
0.0588746,-0.00350418
0.0240006,-0.0126459
0.00390934,-0.00196725
-0.00399675,-0.0137497
-0.0107955,0.00346805
-0.0477959,0.00839187
-0.0928434,0.00158026
-0.0950266,-0.0045841
-0.0526737,-0.0106135
0.00966128,-0.0319926
0.0679732,-0.0140492
0.0727865,0.0106328
0.0586652,0.0295438
0.0374307,-0.000626364
0.0171475,0.0311038
0.0116333,0.0288943
-0.00426931,-0.00718827
-0.0204895,-0.0257885
-0.0392796,-0.0295676
-0.047805,-0.0277483
-0.0323144,-0.0201629
-0.0225873,-0.000738339
0.0147243,0.0119187
0.0456829,0.00828388
0.0432939,0.0100027
0.0184917,-0.00248048
-0.0180987,-0.0244038
-0.0850286,-0.019792
-0.097493,0.00116113
-0.0339526,0.010041
0.0419286,0.0263159
0.0826462,0.0329849
0.105514,0.0242765
0.106633,0.00329909
0.0489637,-0.0203361
0.0136303,-0.0219791
-0.011735,-0.0154339
-0.0831319,-0.00180461
-0.08962,0.00854683
-0.0514104,0.0153608
-0.0626525,0.00475273
-0.0441403,0.0115668
-0.0338754,-0.0118923
-0.0511572,-0.0335654
-0.0837128,-0.00858674
-0.00928484,0.0112018
0.089565,0.00244955
0.128625,0.0075037
0.141085,0.0331676
0.111107,0.0185112
0.0136862,-0.0187066
-0.0941118,-0.0353823
-0.109112,-0.0225516
-0.0767354,-0.00148832
-0.0250862,-0.00300132
0.0769557,0.020326
0.0455402,0.0231978
-0.0868799,0.0178499
-0.0747867,0.0082624
0.00742172,-0.0114263
0.0786375,-0.0218566
0.117322,-0.00419078
0.0921589,0.00292816
0.0189512,0.00604888
-0.0256298,0.0233668
-0.0288505,0.026026
-0.00442366,0.00449167
-0.00545174,-0.0222817
0.00368962,-0.0107409
0.0316048,-0.0107211
0.031823,-0.0175166
0.00621706,-0.0164902
-0.00519161,0.0136736
-0.013936,0.0200091
-0.0298794,0.01569
-0.0180693,-0.00302974
0.00657299,-0.0351364
-0.00537552,-0.0153568
-0.0364664,-0.0185303
-0.0420689,0.00564993
-0.0235992,0.0312986
-0.0141414,0.0311728
-0.0396384,0.0179224
-0.0829116,-0.00680977
-0.0842687,-0.0231165
-0.025527,-0.0122482
0.0292503,-0.007542
0.0395782,-0.00340563
0.0517168,0.0106748
0.0588262,0.0127779
0.0514846,0.00662061
0.0328822,-0.00929361
-0.022745,-0.0331791
-0.0553185,-0.0252021
-0.0445683,-0.00448845
-0.000638272,0.0195384
0.0164509,0.00412559
0.028579,0.0079183
0.0504317,0.0320395
0.0334926,0.0228138
0.0146954,-0.00603963
0.00957428,-0.019671
0.00529703,-0.0131867
0.00553888,-0.0115967
0.0178097,0.00270228
0.0346571,0.0118352
0.0242322,-0.00631459
0.00102535,0.0112718
-0.00946905,0.00807259
-0.0185198,-0.0222148
-0.0351892,-0.0194912
-0.0452056,-0.00604171
-0.0468614,0.00327059
-0.0437258,0.00837456
-0.0345366,0.0197621
-0.0168942,0.0282742
0.00062369,0.00303715
0.0138052,-0.0265144
0.0279589,-0.0187411
0.0319785,-0.0112785
0.0288167,-0.00195174
0.0238967,0.0104731
0.0249004,0.0276004
0.0207182,0.0159598
0.0118963,0.00512582
0.0045746,-0.00820249
-0.00422775,-0.0244561
-0.014088,-0.0194111
-0.0272871,-0.00105057
-0.0267466,0.007059
-0.0160077,0.0174079
0.00107237,0.0363562
0.0175346,0.0301273
-0.0120592,-0.00104661
-0.0571744,-0.0196137
-0.0641923,-0.0158638
-0.00927408,-0.0145028
0.0502586,-0.0164674
0.0650155,-0.00680416
0.0664884,-0.000330674
0.0397631,0.00137017
4.47e-05,0.0106894
-0.0396583,-0.00909992
-0.0587954,-0.032449
-0.0588411,-0.0234597
-0.0274123,0.012619
-0.00661496,0.025261
-0.0020271,0.0271944
-0.00692767,0.0292875
-0.00398332,0.0141266
0.0231918,-0.0190274
0.0526572,-0.0198443
0.0553477,-0.00482951
0.057716,-0.0196675
0.0569681,-0.0198009
0.043571,0.0298721
0.00428247,0.022385
-0.0631382,0.00820201
-0.0977211,0.00198294
-0.0813253,-0.0176466
-0.079046,-0.0244067
-0.0335236,0.000140689
0.0322725,0.0176144
0.0790993,0.0163968
0.100401,0.0164921
0.0883929,0.0290259
0.0426352,-0.0165943
0.00739843,-0.0250194
0.002911,-0.00227758
-0.00146049,-0.0101
-0.00738198,-0.0115561
-0.00356034,-0.00824034
-0.0160059,0.00323652
-0.052528,0.013808
-0.0632618,0.00520963
-0.0458918,-0.00536093
-0.0525771,-0.0207794
-0.0391678,-0.0151115
-0.0165342,0.000181142
0.0188413,0.00263485
0.0292405,0.0104546
0.0084947,0.0219018
-0.0492951,0.0281381
-0.0973377,0.00400515
-0.0781586,-0.0282905
-0.0364477,-0.0245657
0.0247497,-0.0173351
0.0728301,-0.0102938
0.0922869,0.00622882
0.101663,0.0164139
0.101706,0.00700874
0.101351,0.00807506
0.0716227,-0.00780847
0.0308185,-0.0258752
0.00724525,-0.00778546
-0.0122344,0.0182765
-0.0328809,0.0128413
-0.0444908,0.008952
-0.0529478,0.0250017
-0.0471288,0.0150533
-0.0288848,-0.00759273
-0.0196477,-0.0178787
-0.0141967,-0.0142774
-0.0137171,-0.00953819
-0.0144988,-0.00312936
0.00261437,0.0262816
0.0150125,0.0185004
0.00436389,0.00157621
-0.0145091,0.00281986
-0.0197186,-0.0228632
-0.00478914,-0.0402889
0.0214364,0.00462376
0.0287245,0.0185291
0.0120024,0.0085125
-0.00356644,0.0194004
-0.0131132,0.0293314
-0.0249645,0.0120137
-0.0213571,-0.0207338
-0.0109201,-0.024812
-0.00477907,-0.00729329
0.000395681,0.00286161
0.00893485,-0.00866489
0.00253982,-0.00324447
-0.019671,-0.00591947
-0.0144684,0.00354272
0.00944382,-0.00634645
0.0142918,-0.0167993
0.00580186,-0.0147375
-0.00586736,0.00524681
-0.00522532,0.00911336
0.00103549,0.0145483
0.00202512,0.0317892
-0.000822736,0.0325524
0.00265233,0.00623684
-0.00547683,-0.0256395
-0.0161252,-0.0171512
-0.00680022,-0.0155306
0.0136757,-0.0098105
0.0271517,0.0155468
0.0287847,0.0118054
0.0183976,0.0119739
0.00135099,0.00950372
-0.0123961,-0.0207139
-0.0112923,-0.0332106
0.00148366,0.0391332
0.00398671,0.0267593
0.0103793,0.0146346
0.00483785,-0.00134592
-0.00171905,-0.0302599
0.00297339,-0.0698549
0.0103229,-0.063795
0.0286547,-0.0248336
0.030168,-0.0107209
0.0168875,0.00799543
0.00289575,0.0335405
-0.00469142,0.0518726
-0.00446712,0.0564702
-0.0116211,0.0523011
-0.0404672,0.0250132
-0.0442832,0.00759211
-0.025688,0.0105987
-0.00137524,0.0142529
0.0129882,0.00517518
0.0101485,-0.0253307
-0.031965,-0.04002
-0.156526,-0.0726892
-0.207113,-0.103421
-0.117961,-0.0419963
0.0305699,-0.00677705
0.150851,-0.00331804
0.181542,0.0153386
0.173564,0.0397916
0.106583,0.0446074
0.0326749,0.0389716
0.00532419,0.0314548
-0.00374768,0.0131653
-0.00308772,0.0069071
0.00223599,0.0155618
-0.0105695,0.0184409
-0.031524,0.0120758
-0.0290345,0.00274353
0.00211761,0.00531897
0.0301032,-0.0314052
0.0261329,-0.0577432
-0.00074147,-0.0231488
0.00476259,-0.02032
-0.00474218,-0.013926
-0.023154,0.0181117
-0.0202337,0.0353189
-0.0155624,0.0242282
-0.0257904,0.0170671
-0.032798,0.0135501
-0.0221879,-0.009044
-0.00689416,0.00820052
-0.00128742,0.0296742
-0.00708765,0.0073591
-0.0597008,-0.00410767
-0.111304,0.00277301
-0.0729479,-0.00632241
-0.0132419,-0.0309718
0.0508381,-0.0421589
0.0940798,-0.0302309
0.103103,-0.021454
0.0389431,-0.00415097
-0.024619,0.0152661
-0.0454926,0.0292693
-0.0270937,0.0319808
-0.0040436,0.0244579
0.00238861,-0.00228407
0.0291736,-0.0112079
0.0470896,-0.00219641
0.0380077,0.00256777
0.0209432,-0.00155615
0.0138292,-0.000645941
0.0118093,0.00791101
0.0140308,-0.00723193
0.0119353,-0.0351355
0.00466215,-0.041325
-0.00874028,-0.0263625
-0.0147652,-0.0013693
-0.0211494,0.0179339
-0.0256094,0.0325885
-0.0266195,0.0315112
-0.0244171,0.0255923
-0.0193635,0.0122201
-0.0094993,-0.0100754
-0.00177849,-0.0139525
0.00184986,0.00296318
0.00673185,0.00825158
0.0087932,-3.98e-05
0.0077922,0.00367232
0.0164046,0.00111575
0.011824,-0.0193402
0.0134051,-0.0398351
0.00614309,-0.0379019
-0.00570967,-0.0110087
-0.00858112,0.0100453
-0.0139806,0.00965197
-0.0166077,0.00712581
-0.00915844,0.0247308
-0.00222174,0.0436928
0.00382658,0.00977166
-0.00499736,0.00460377
-0.0360487,0.00222268
-0.0565726,0.00589117
-0.0464598,-0.00799823
-0.0163705,-0.0119769
0.0295528,0.00472533
0.0501019,0.00696173
0.0356659,-0.02268
-0.00264993,-0.037275
-0.0164677,-0.0241967
-0.0137371,-0.0122478
0.00474278,0.00861555
0.0363392,0.0197017
0.0546185,0.0338711
0.0306541,0.0257209
0.00278952,0.0108243
0.0159053,-0.0107446
0.0203188,-0.0238703
0.0130319,-0.0129223
0.0124678,-0.00187005
0.00789018,-0.00640893
0.00534755,-0.00551209
0.00395415,0.00846448
0.00430935,0.00325644
0.00584778,-0.0171682
0.00053902,-0.0143607
-0.0122059,-0.00420919
-0.0239953,0.00597579
-0.0291247,0.0207108
-0.0285834,0.0323064
-0.0264307,0.0243444
-0.0220654,0.0199428
-0.0213328,0.00793167
-0.0164306,-0.0215124
-0.0054566,-0.032416
0.0132373,-0.0142919
0.0284772,-0.00719549
0.0235633,-0.00623386
0.0147277,-0.0153131
-0.00213926,0.0113178
-0.0211899,0.00700416
-0.0225714,-0.018533
-0.00583101,-0.015664
0.0150681,0.0018723
0.0210515,0.00360961
0.0131509,0.0157818
-0.0081594,0.0329324
-0.0391325,0.031716
-0.0488747,0.0105627
-0.0350691,-0.00678795
0.00134873,-0.015835
0.0276759,-0.0136967
0.0234726,-0.00598396
0.01822,-0.00749693
0.00937695,-0.00333908
0.00182276,0.00385998
0.0324136,0.00574671
0.0658956,0.000181055
0.0633483,-0.0138579
0.0478791,-0.00550626
0.0315323,0.00537021
-0.0124476,0.0175092
-0.0523212,0.0173833
-0.0743335,0.0215469
-0.0631205,0.0286103
-0.0569662,-0.00147132
-0.0455822,-0.0171312
-0.0107569,-0.0268815
0.00984842,-0.0253228
0.00785259,-0.0310719
0.0183798,-0.00784481
0.019666,0.0113727
0.00825459,0.0118944
0.00794633,0.00804451
0.0122095,-0.00877377
0.00880332,-0.0129332
-0.002033,-0.00151889
-0.00777474,-0.000463216
-0.00518206,0.0167808
0.00315987,0.0284273
0.00445183,0.0254847
0.0040194,0.014524
-0.00394881,-0.00294805
-0.0255429,-0.0264107
-0.0256,-0.0284409
0.00201594,-0.0119921
0.0251836,-0.00223489
0.040863,-0.00146829
0.0391328,0.00421354
0.03537,0.017942
0.0417098,-0.00197169
0.0260173,-0.0224945
0.00516796,-0.00819924
-0.0126121,-0.0067436
-0.03077,0.00309472
-0.0639614,0.0250706
-0.141537,0.0313581
-0.158654,0.0274581
-0.0890256,0.00842173
0.0048599,-0.013588
0.102526,-0.0310206
0.141229,-0.0330192
0.124291,-0.0250805
0.0644182,-0.0202309
0.0144317,-0.00238017
-0.00475711,0.00725762
-0.00383102,0.0139124
0.00887023,0.00973963
0.0197825,-0.0118368
0.000420029,0.00433026
-0.0114186,0.0116652
-0.00777745,0.0171331
0.00122637,0.0316756
0.00250827,0.0327635
-0.00169253,0.0184366
-0.00778777,0.0065653
-0.0144181,-0.0184364
-0.0167095,-0.031674
-0.0155522,-0.0243519
-0.0162121,-0.0149435
-0.0161015,-0.01622
-0.0147562,-0.00713139
-0.0101699,0.0117945
-0.00225397,0.0135106
0.00870828,-0.00916083
0.0158831,-0.0109594
0.014344,0.00329489
0.00349269,0.005502
-0.00610462,0.0122877
-0.00864669,0.0136388
-0.0144127,0.0210363
-0.00654201,0.00924113
0.00200773,0.00412951
-0.0030755,-0.012368
-0.00702779,-0.0365282
-0.00384736,-0.0227051
-0.0039762,0.0112234
-0.0116115,0.00724859
-0.0197104,0.0107249
-0.0226053,0.0154501
-0.0165755,-0.00469194
0.0017338,-0.0245362
0.0143502,-0.00778697
0.0153854,0.00245312
0.00973637,0.00278575
0.00569384,0.013853
0.0101354,0.0310335
0.0136707,0.0201638
0.0116088,0.00386925
0.00864635,-0.0106125
0.00999567,-0.0217515
0.0081939,-0.0164325
0.00699871,-0.00261699
0.00342538,-0.00329393
-0.000626256,-0.00218558
-0.00321584,0.00866662
-0.00354663,0.0142082
0.00278771,-0.000734144
0.00601681,-0.0151746
-0.00436635,-0.00219461
-0.0163442,0.0109569
-0.0216309,0.0106796
-0.0211566,0.0190459
-0.0211078,0.0246705
-0.0148164,-0.00610142
0.00985455,-0.00679279
0.0207811,-0.0205951
0.0287158,-0.0448008
0.0206404,-0.0296257
0.00737833,0.000263851
-0.00202236,-3.11e-05
-0.00896994,-0.0026204
-0.00534361,0.00647153
-0.00146232,0.00152591
-0.000137335,-0.0113791
0.00094393,-0.0119924
0.00442182,0.000500426
0.00347113,0.0126191
-0.000222765,0.0185064
0.000533952,0.0297171
0.00184686,0.0343569
-0.00180074,0.014411
-0.00313487,-0.0204094
0.00259008,-0.0338485
0.00721377,-0.00164868
0.00381029,0.00521758
-0.000315937,0.00120711
-0.00306576,0.00193201
-0.00663232,0.0109897
-0.00966793,0.0140973
-0.00508135,0.00522029
0.00896226,-0.00723117
0.019689,-0.00254275
0.00722763,0.000495474
-0.0114411,0.00583965
-0.013775,4.32e-05
0.00188276,0.0175722
0.0219094,0.00573412
0.0201779,-0.00885654
0.0194441,-0.0144286
0.00839754,-0.0193035
-0.0291892,-0.0206506
-0.0515576,-0.0168572
-0.043313,-0.0122056
-0.0337844,-0.00512306
-0.037607,0.00449057
-0.0183214,0.00878934
-0.00263675,-0.00437319
-0.054501,-0.011801
-0.0623809,-0.00042339
-0.00936664,0.00497239
0.0547382,0.0123797
0.0747808,0.0234055
0.0798553,0.0234832
0.0916649,0.0142928
0.0644868,0.00878667
0.0411716,-0.00980044
0.024106,-0.0231411
-0.00173969,-0.0131689
-0.00842099,-0.0018036
-0.0071423,-0.000475758
-0.0115663,0.00437407
-0.0165145,0.0141125
-0.0153761,0.00794246
-0.0067118,-0.0131147
0.000957896,-0.0134444
-0.00363882,0.000368987
-0.00961574,6.04e-05
-0.0105513,0.00361743
-0.0114402,0.0157089
-0.0125834,0.0136663
-0.00965331,0.0088562
-0.00742582,0.00205614
-0.00770524,-0.0169138
-0.0123253,-0.0201845
-0.0128544,-0.00484746
-0.00927189,-5.26e-05
-0.00986597,0.000865157
-0.0114393,0.00663393
-0.00918281,0.015178
-0.00650958,0.00490139
-0.00397632,-0.0144927
-0.000139796,-0.0114041
0.00634107,-0.00270037
0.00821866,0.00328872
0.00239606,0.0107817
-0.00143813,0.0174114
0.00163965,0.0112957
0.0045262,0.00694445
0.000212692,-0.0131684
-0.00306201,-0.0334391
0.000298844,-0.0246398
0.00556789,-0.00570461
0.00564031,-0.00606521
0.00396341,-0.00201568
3.97e-05,0.00539645
-0.00254042,0.0136291
0.00865416,0.0101869
0.0160383,-0.00142104
0.0147335,-0.00301105
0.00831762,-0.00226946
-0.00134766,0.00684467
-0.00693347,0.0155591
-0.0061109,0.0134786
-0.00461799,0.00986875
-0.00321521,0.00899361
-0.00279376,-0.0128916
0.0022611,-0.0225289
0.00298732,-0.0180136
0.00780286,-0.00709563
0.0109305,0.00668826
0.0112997,0.0131423
-0.00140229,0.0180413
-0.0157706,0.00365482
-0.0226502,-0.0189919
-0.0160331,-0.0142101
0.00624749,0.00443635
0.0226446,0.00753729
0.0168704,0.017985
0.00673523,0.0252109
-0.00781181,0.0234289
-0.0210045,0.000647354
-0.0246188,-0.00634272
-0.0248178,-0.0061845
-0.0288665,-0.0143919
-0.0491835,-0.00108314
-0.0516212,-0.000342456
-0.0396457,0.000914263
-0.00743105,0.0119341
0.0370615,0.0102446
0.0578115,-0.0119083
0.0676436,-0.0154338
0.0419731,-0.0085513
0.00902495,-0.0177581
0.00144143,-0.00111927
0.00748626,0.0178014
0.0183957,0.00746453
0.0211132,0.00214695
0.00889351,0.000828974
-0.00090003,-0.0145983
0.00642291,-0.0258505
0.0185791,-0.0276851
0.014282,-0.00670725
0.00661012,0.0160765
-0.00175947,0.0157625
-0.0122672,0.0229846
-0.0141554,0.0100632
-0.00441204,-0.00580124
0.00439886,-0.0105052
0.00203718,0.0044197
-0.00888198,0.00450443
-0.0157817,-0.00371453
-0.0223,-0.00255361
-0.0262661,-0.00864886
0.00191388,-0.00128321
0.0188845,0.0152633
0.0137931,-0.00904817
0.00795928,-0.0195932
0.00604842,-0.0139718
-0.00509552,-0.0157564
-0.0113495,-0.00443224
-0.00137826,-0.00893765
-0.00519102,0.00237807
-0.0499384,0.0165307
-0.0958992,-0.000998851
-0.0672441,-0.00618119
-0.00966238,0.00589604
0.0381223,0.0136933
0.0786084,0.0109154
0.0935156,0.0261686
0.0801375,0.0287942
0.0504249,0.00524503
0.0183248,-0.00215432
-0.0231791,-0.0133972
-0.0728688,-0.0142966
-0.117975,-0.0250395
-0.117628,-0.00739309
-0.0681852,0.0140081
-0.0111868,0.0140277
0.0524156,-0.00239545
0.107226,0.00507162
0.109221,-0.0169207
0.0875371,-0.015065
0.0364634,-0.0227979
0.0042562,-0.0101738
-0.012238,0.0230327
-0.0177745,0.0368284
-0.0184211,0.0226661
-0.0267671,0.0174674
-0.0444616,0.00740566
-0.0332877,-0.0159088
0.0284728,-0.0268405
0.0597638,-0.03052
0.0288653,-0.017379
-0.0148747,-0.00469668
-0.0265353,0.0117767
-0.0607732,0.00864991
-0.0532602,0.00557217
-0.0100621,0.00313238
0.025365,-0.00718896
0.0365314,-0.00994336
-0.0193762,0.00377832
-0.0586086,0.0168734
-0.071204,0.0242394
-0.0519131,0.0162346
-0.00192619,0.00539801
0.065048,0.00717313
0.105889,-0.0141181
0.095657,-0.0239951
0.0611726,0.00238318
-0.0108341,-0.0215677
-0.0599736,0.00689335
-0.0454369,0.0446376
0.0305709,0.0220872
0.0747986,0.00549151
0.0485755,-0.0557195
0.0262942,-0.0322355
0.0261583,0.0394596
-0.00742951,0.0178094
-0.0536074,0.00823918
-0.115723,0.00837563
-0.14701,-0.0128738
-0.141783,-0.0149047
-0.0593357,-0.0385283
0.0618326,-0.014102
0.135771,0.0104768
0.157092,0.017624
0.0591909,0.0330882
-0.0549163,0.039046
-0.0921811,-0.00426123
-0.128039,-0.065503
-0.164067,-0.0679367
-0.0832953,0.0454453
-0.0244856,0.0485772
0.020298,-0.0305857
0.0158781,-0.0307953
0.0427677,0.0391462
0.138237,0.0312693
0.19299,-0.00906335
0.150693,-0.008054
0.0989346,-0.00834277
0.0777538,-0.00663727
0.0416567,-0.0106067
0.0146083,-0.0109305
0.0108912,-0.00332243
-0.0184464,0.00440064
-0.0401983,0.00771023
-0.0794196,-0.00630013
-0.0738306,-0.0241176
-0.023955,-0.00942266
0.00371942,0.0151166
0.00222855,0.0115209
0.00663843,0.0184338
-0.00586697,0.0355419
-0.0379896,0.0333212
-0.0347155,0.00947583
0.00663116,-0.0211143
0.0074071,-0.0274492
-0.0231258,-0.00992131
-0.0278484,0.00719366
0.00104188,-0.00836
-0.0174254,-0.0493361
-0.0498939,-0.0428416
-0.0375925,-0.0194799
-0.0488958,0.0138329
-0.0307452,0.0146526
0.0111633,0.00528418
0.028173,0.010748
-0.0164171,0.0258952
-0.0152379,0.0268727
-0.0718636,-0.00936421
-0.0579075,0.0214244
0.0190883,0.0253457
0.092069,-3.4e-05
0.154455,-0.0176874
0.137936,-0.0302984
-0.0319852,-5.41e-05
-0.168589,-0.0115673
-0.107516,0.0186983
0.0598255,0.0185731
0.214662,0.028768
0.259187,0.0141709
0.111659,-0.00935333
-0.0983183,-0.0120417
-0.200865,-0.0192154
-0.2923,-0.0378269
-0.402563,0.0016101
-0.299302,0.0651116
-0.102318,0.00941375
0.103054,-0.00231138
0.307219,0.0108678
0.437004,-0.00357746
0.338707,-0.0167139
0.19104,-0.0124904
0.0961501,-0.00100253
0.0238218,0.0234201
0.00969139,0.026454
-0.0223186,0.0022827
-0.0523454,-0.0174217
-0.0964974,-0.0177832
-0.228466,-0.016516
-0.261705,-0.0215631
-0.221901,-0.0253491
-0.17577,-0.0617853
-0.153015,-0.0641268
-0.0499128,0.0309695
0.15547,-0.00849544
0.281348,0.0382034
0.202465,0.0379687
0.098813,0.0189725
0.0871085,-0.0032117
0.0504368,0.00353683
0.0228713,0.0144602
0.0101796,0.0576402
0.0427583,0.0420472
0.0525883,-0.0110483
-0.02359,-0.0218585
-0.0828617,-0.0483929
-0.196204,-0.0208953
-0.194697,0.0149693
-0.0664103,0.00257438
0.0930616,0.0134248
0.156842,0.0120844
0.15886,-0.0084757
0.0986533,-0.025731
-0.00246746,-0.0494779
-0.024125,0.0263629
-0.0323466,0.0264047
-0.0568257,-0.0347849
-0.0727254,-0.0280188
-0.051775,-0.0257493
-0.00662556,-0.021572
0.0223115,0.0366045
0.0288231,0.0108376
0.0682917,0.00157943
0.0758458,0.0195243
0.0425817,0.00974772
0.0241203,-0.0024664
-0.00565594,-0.00869424
-0.0492104,0.0255721
-0.125378,0.006872
-0.170608,-0.00279451
-0.143699,-0.00188151
-0.082588,0.00295553
-0.0270343,-0.00762051
0.0505509,0.0272836
0.125964,0.074959
0.0940559,0.0383322
0.0622,0.00197482
0.0861838,-0.00684875
0.113096,-0.0157818
0.0707795,-0.0105585
-0.035394,0.00399987
-0.220226,-9.85e-05
-0.340725,-0.00224696
-0.193838,0.00205395
0.0115272,-0.0217957
0.173556,-0.0586511
0.212143,-0.0183389
0.126767,-0.000263855
-7.74e-05,-0.0142504
-0.0427283,-0.0526119
-0.0333974,-0.0347745
-0.108998,0.026219
-0.169319,-0.019325
-0.0469262,-0.0250056
0.128917,0.0260986
0.174161,0.0246706
0.194286,0.0378333
0.16903,0.0389747
0.0656852,0.021852
0.0321483,-0.00211839
0.0234228,9.48e-05
-0.14193,-0.00709719
-0.205215,-0.0227453
-0.0628586,-0.00441079
0.0477066,0.0329013
0.0603039,0.0160344
-0.0479372,0.0241371
-0.232314,0.0269241
-0.152126,-0.0212438
0.0124382,-0.0473748
0.104398,-0.051875
0.130271,-0.0247867
0.123278,0.0216151
0.0389888,0.038224
-0.0284542,0.0209471
-0.0289215,0.00680619
0.0100663,-0.00136917
0.0346725,-0.0190269
0.04401,-0.0237353
0.0431045,-0.0357275
0.0158122,-0.0140807
-0.0308797,0.0316379
-0.154509,0.00901279
-0.412621,-0.0118039
-0.424114,-0.0212373
-0.0621997,0.0233841
0.304743,0.0198541
0.433079,0.0214692
0.295072,0.0158088
0.144012,0.0415163
0.0902855,0.0460923
0.101717,0.0372022
0.0905372,0.000624399
-0.0265216,-0.0161495
-0.15141,-0.0210929
-0.169853,-0.0420647
-0.127021,-0.048638
-0.0728478,-0.0366437
-0.0162063,-0.0231269
0.0238757,-0.0174399
-0.00892633,-0.00550066
-0.116449,0.00685091
-0.150544,0.00564683
-0.0864965,0.00186048
0.0522311,0.0117734
0.197461,0.0217284
0.232524,0.0175698
0.138257,0.0182942
0.0471514,0.000911677
-0.00248185,-0.0114135
-0.0261783,0.0108679
-0.0279872,-0.00384419
-0.0206128,-0.0280682
-0.0179565,-0.0248089
-0.0246087,-0.0198889
-0.0407358,-0.0224784
-0.0371255,-0.00991474
-0.0125347,0.0294359
0.00297373,0.00214517
0.012853,-0.0101831
-0.0336194,0.00590584
-0.114009,0.0203393
-0.108337,0.0140062
-0.041142,0.0245699
0.0662021,0.0433375
0.178729,0.0113868
0.149539,-0.00822173
0.0038524,0.0111825
-0.110287,0.0232993
-0.150917,-0.000459279
-0.112999,-0.029258
-0.0449173,0.0142642
0.0128052,-0.0155071
-0.0233829,-0.038973
-0.0839831,0.0108864
-0.00711966,0.0128728
0.0669095,-0.00977633
0.113984,-0.014011
0.124399,-0.0348318
0.100518,-0.0464745
0.061372,-0.00189154
-0.0261447,0.0440872
-0.0754289,0.0316645
-0.0494037,0.0154458
-0.0167234,-0.0104921
-0.0309361,-0.0371416
-0.0534674,-0.00291458
-0.0396452,-0.00182725
-0.0218305,-0.00545204
-0.0422544,0.00919451
0.0416895,0.00906116
0.129928,0.00814722
0.111629,0.00148457
0.093544,-0.0165613
0.0620214,0.0189603
0.00210566,0.02409
-0.0508716,0.0180449
-0.0684818,0.0125705
-0.0380452,0.0150389
-0.03465,0.0165448
-0.0467315,-0.00971912
-0.000671101,-0.0424997
0.0395822,-0.0408767
0.0290736,-0.0282514
-0.0121525,0.003222
-0.082365,0.0098917
-0.104944,0.013161
-0.0439804,0.0258513
0.0380435,0.020733
0.0530798,-0.00843072
0.0372214,-0.00891235
0.0411669,-0.0153076
0.0173318,-0.00605628
0.0275655,0.00737241
0.0579521,0.0359376
0.0513349,0.0395407
0.00433025,0.0158193
-0.0535573,-0.00957929
-0.0644046,-0.0191432
-0.0756212,-0.0177406
-0.151295,-0.0194833
-0.138982,-0.0258911
-0.0241311,-0.0156656
0.0912096,0.0025603
0.168821,0.00693151
0.155925,-0.0052152
0.0682642,-0.008568
-0.0148976,0.00449055
-0.0315922,-0.00623763
-0.00936621,0.00132382
0.0103099,0.00438905
0.00978763,0.00968651
0.00381404,0.0173094
0.00400309,0.0101141
0.00264979,-0.0391738
0.003097,-0.0726459
-0.00544486,-0.0257499
-0.0483971,0.00664206
-0.104124,0.00168549
-0.0608063,-0.000511754
0.0284419,0.0262855
0.0896679,0.0495408
0.0644703,0.029434
0.025759,0.0108375
0.0140538,0.0137695
0.0169448,0.0223148
0.00281223,0.0264451
-0.091481,0.0290891
-0.143249,0.0264945
-0.11316,0.0167094
-0.0282636,-0.00792304
0.0567616,-0.0818558
0.0907633,-0.0223266
0.0820467,0.0253707
0.0327325,-0.00906204
-0.00187862,-0.0237287
-0.012492,-0.0142782
-0.019791,-0.011075
0.00483902,-0.0202572
0.0221691,-0.0243303
-0.00229007,-0.0321388
-0.0187948,-0.0219438
0.00584737,0.0223191
0.0325413,0.0324119
0.0117664,-0.00656009
-0.0141533,-0.0173238
-0.0182341,0.00447178
0.00317196,0.00395897
0.00983292,-0.0245698
0.0264487,-0.0370997
0.0316778,-0.0271476
0.0210884,-0.000306759
-0.028358,0.0159596
-0.102921,0.0102794
-0.0938548,0.00977843
-0.0385179,0.0285728
0.00984316,0.000424881
0.0200601,0.0255714
0.00621028,0.0157806
-0.00929351,0.0319518
-0.0340722,0.0429009
4.77e-05,0.0360211
0.108692,0.0403327
0.145655,0.0195814
0.084892,-0.00973431
0.0633808,-0.0246243
0.0872418,-0.0125123
0.0420404,-0.00694133
-0.0508705,-0.0199699
-0.0953329,-0.0239091
-0.0843128,0.0135063
-0.117771,0.0183847
-0.241082,0.0211038
-0.205753,-0.00826677
-0.0920116,-0.0106745
0.0624047,-0.0134336
0.223227,0.0159272
0.234758,0.0482549
0.129269,0.0639324
0.0609707,0.0454513
0.0507365,0.0357316
0.0288321,0.012624
-0.0153963,-0.0186763
-0.0463367,-0.0370443
-0.0211119,-0.031584
-0.0158026,-0.00567133
-0.0681867,0.00843918
-0.081686,-0.00663586
-0.0496248,-0.0413903
-0.0276483,-0.0824529
0.0280235,-0.0697416
0.0646457,-0.0624123
0.0377347,-0.0549038
-0.0792656,0.00231834
-0.130317,0.00386031
-0.0673583,0.007826
0.022955,0.00483753
0.0972053,0.000191753
0.109537,-0.0111672
0.0513834,-0.0107183
0.0106281,-0.00164188
0.0104019,0.00600362
0.0150234,0.0206503
0.0124681,0.0351894
-0.018585,0.0237156
-0.0502526,0.0186792
-0.0255505,0.0116712
-0.00596798,0.0122474
-0.00121291,0.0061487
-0.0107874,-0.0303169
-0.0112422,-0.0424016
-0.00645061,-0.0244917
-0.003341,0.0113934
-0.0100609,0.0151927
-0.0264749,-0.00229146
-0.0452224,-0.00132978
-0.0934276,0.0021523
-0.0869265,-0.000366635
-0.0181921,0.0115032
0.0749264,0.0366924
0.175972,0.0442995
0.19244,0.036399
0.0869811,0.0107842
-0.0212926,-0.0029412
-0.0300127,-0.0051606
-0.0372917,-0.00888444
-0.0413421,-0.0166052
-0.0640672,-0.0280749
-0.0936383,-0.00148342
-0.0607305,0.00384159
-0.0164244,-0.0209799
0.0461068,-0.0281223
0.0580223,-0.011705
0.0326711,0.00531446
0.0208729,-0.00902481
0.00230126,-0.00817751
-0.0018243,0.00202199
-0.00121949,0.0132273
0.0163415,0.0152934
0.0419769,0.00884526
-0.00290112,0.0288196
-0.0640445,0.0396789
-0.0991029,0.0166605
-0.0914437,0.00335926
-0.0805774,-0.000545982
-0.0222051,-0.00490574
0.0446737,0.00725251
0.0578021,-0.00699778
0.0748455,-0.0222051
0.0512057,-0.0289077
-0.0356208,-0.0384836
0.00958408,-0.01238
0.0761099,0.0458364
0.0618174,0.0643862
-0.00488311,0.0304986
-0.0319502,-0.00649988
-0.0107988,-0.0057571
0.0125886,-0.0144423
0.053283,-0.0168374
0.0672343,-0.0206801
0.0484388,-0.00393321
0.00441665,0.0076667
-0.0925179,-0.0265667
-0.184079,-0.0272715
-0.16565,-0.0133928
-0.0679108,-0.00934179
0.0405665,-0.00723367
0.146876,0.00217471
0.187914,0.0129256
0.147437,0.0233815
0.0526032,0.030215
-0.00535144,0.0339796
-0.0165948,0.0130042
-0.0198267,-0.0143424
-0.0329631,-0.00976247
-0.0345489,0.0130838
-0.0362428,0.0105393
-0.0203849,-0.0160721
-0.0052071,-0.0188572
-0.0411097,-0.00787407
-0.0408404,-0.00492638
-0.00528047,-0.00382043
0.0249292,-0.0181542
0.0482929,-0.0173987
0.0285666,0.00935151
-0.0124398,0.0376927
-0.0388867,0.021441
-0.058029,0.00954167
-0.107016,-0.000813528
-0.127752,-0.0174735
-0.150319,-0.0254714
-0.0553968,-0.0221968
0.0700804,-0.0203593
0.140301,-0.0148257
0.174171,-0.00669492
0.130671,-0.0113476
0.0589576,0.0365796
0.00225431,0.0483952
-0.0356082,0.0156001
-0.0553961,-0.0149785
-0.115011,-0.0213019
-0.106699,-0.00262003
-0.0417683,-0.0011153
0.0214624,0.0130493
0.0680924,0.014185
0.0957368,-0.0109165
0.0994557,-0.025786
0.0911992,-0.0163773
0.0571799,-0.024689
-0.00254589,-0.0231441
-0.0153825,0.0219679
-0.00538299,0.0137187
-0.0382785,0.00476166
-0.0653043,-0.000542366
-0.0455976,-0.00930628
-0.0317666,-0.0147375
-0.00770779,-0.00868936
0.016246,0.0016765
0.0106651,0.00246208
-0.0173354,0.00053166
-0.0360023,0.0039705
-0.0410877,0.0191819
-0.0323506,-0.00283729
-0.0128004,-0.00794179
-0.0139563,-0.00337614
-0.00339891,0.00468285
0.010549,0.012759
-0.000923773,0.0235398
0.00507518,0.0236383
0.0445171,0.0189894
0.0588907,0.00328357
0.0238996,-0.003561
0.00431151,-0.00408184
-0.00997655,0.00596401
-0.0398169,0.0191779
-0.00449636,0.0136696
0.0332136,0.00788095
0.0104215,0.0151597
0.0203645,-0.00547271
0.0387905,0.0130759
0.0351962,-0.00472339
0.0141997,0.000314374
-0.00794728,-0.0269426
-0.0783673,-0.00138474
-0.115916,0.0240022
-0.0329461,-0.0124461
0.0288821,-0.014095
0.0198867,-0.0119374
-0.0269066,-0.0213128
-0.0498697,-0.0262593
-0.0429063,-0.0235526
9.91e-05,-0.0267108
0.0487404,0.00467752
0.0629393,0.00912422
0.00333452,0.0234194
-0.0123159,0.0152309
0.0377664,-0.00419913
0.0784501,-0.0224842
0.0322408,-0.00340833
0.0223249,0.00836942
0.0175013,0.0216038
0.00735691,0.0232736
-0.00396135,0.0198068
-0.0149833,0.0106468
-0.0176595,-0.00603126
-0.0113694,-0.0133257
0.00342942,0.00784414
0.00866603,0.00790691
0.00130428,-0.0160205
-0.00882787,-0.0209344
-0.0151443,-0.0205743
-0.00452642,-0.0275472
0.0223605,-0.00860687
0.0229591,-0.00610959
-0.00125868,-0.0136402
-0.0236858,-0.00481447
-0.0165281,0.0119858
0.000433555,0.03016
-0.0243033,0.0361385
-0.065991,0.0310447
-0.0798609,0.0126161
-0.0368165,-0.00190926
0.00586168,0.00137681
0.0428441,-0.00566263
0.0695366,-0.0178713
0.0535288,-0.0101149
0.00903394,-0.00272488
-0.0188188,-0.0114086
-0.00236608,-0.0230335
-0.00166735,-0.0279732
-0.0139951,-0.0288669
0.00386128,0.0202547
-0.0072205,0.00505517
-0.00507249,0.00692065
0.0189592,0.0299695
0.0248361,0.021528
7.46e-05,0.00420039
-0.0174449,-0.0106116
-0.0159325,-0.0115385
0.00286992,-0.00096936
0.0195787,0.00545611
0.0195646,0.00482398
0.00171974,0.00451467
-0.0136094,0.00423372
-0.0298862,-0.0125449
-0.0268853,-0.0267241
-0.00965529,-0.019528
0.00962692,-0.00830921
0.0214032,-0.00198279
0.024975,0.0112551
0.0344675,0.020618
0.0343882,0.0214715
-0.0204937,0.0216493
-0.119736,0.0165124
-0.131829,0.00269354
-0.0655046,9.25e-05
0.0224873,0.00346864
0.102564,0.0046063
0.129432,-0.00440589
0.0825547,-0.0052479
0.0459436,-0.00699527
0.0323948,-0.017798
0.0303594,-0.0327866
0.0356166,-0.0242271
0.031361,-0.00232832
0.00380058,0.0240948
-0.0417956,0.030596
-0.0496678,0.0283523
-0.0733292,0.0102815
-0.131374,-0.013361
-0.145853,-0.0160468
-0.12286,-0.0131131
-0.0544349,-0.00723623
-0.0237946,0.0157146
-0.103341,0.0307888
-0.0893833,0.0158132
0.026103,-0.0438677
0.178789,-0.0581041
0.291101,-0.00610412
0.263683,0.0368818
0.112433,0.0230655
-0.0115494,-0.0123184
-0.0813087,0.00527896
-0.0969061,0.0304809
-0.0651443,0.00811431
-0.00635794,-0.00638568
0.0481582,0.00521637
0.0599895,-0.00565816
0.0609555,-0.0198922
0.0290009,-0.0237098
0.000374336,-0.00548419
-0.00201316,0.0102794
-0.00798671,0.00786086
-0.0431099,0.0115832
-0.0638152,0.00201017
-0.0622319,-0.0174459
-0.0508971,-0.0271502
-0.0319272,-0.00934017
-0.0131213,0.00615116
0.00967752,0.013461
0.0255076,0.0202215
0.0278173,0.0152933
0.017939,0.00944667
0.00804601,0.00545309
0.00148327,0.000186122
-0.00422754,-0.00386941
-0.00599834,-0.0077581
-0.00929369,-0.00549806
-0.0144274,0.0015658
-0.0324734,0.00679282
-0.0304693,0.00520403
-0.0243891,-0.00624858
-0.0622796,-0.0215732
-0.0721333,-0.016266
-0.0370631,-0.0064177
0.005497,0.00321507
0.0363176,0.015925
0.0691843,0.0148332
0.0885738,0.00212797
0.072569,0.00385221
0.0695273,0.00631477
0.0536434,-0.0106889
0.0137859,-0.00532041
-0.0177878,0.0106203
-0.0459214,0.0124935
-0.0684095,0.0103463
-0.0406841,-0.00187982
0.00413839,-0.00727032
0.0165158,-0.0184483
0.00940742,-0.0250836
-0.0166343,-0.0359939
-0.0341803,-0.0489363
-0.0348715,-0.0213756
-0.0163774,0.00593882
0.000948327,0.0416944
-0.000183678,0.0434921
0.000936356,0.036784
0.00284776,0.00744914
-0.00115692,-0.00803254
0.0126515,-0.00405074
0.0353995,-0.0088755
0.0401017,-0.00100988
0.0112319,0.0122113
-0.0250279,0.0194551
-0.0188555,0.0197696
0.0172468,0.00260846
0.0164876,-0.00574845
0.00715889,-0.0154953
0.0187235,-0.00195123
0.0009696,-0.00365669
-0.0103578,-0.018636
0.00847844,0.00876405
0.017858,0.0259264
0.00217751,-0.00871412
0.00631845,-0.0251452
0.0151609,-0.0194043
0.0177308,-0.00130631
0.0116748,0.00499639
-0.00899908,0.00585286
-0.053379,0.0091516
-0.103385,0.0163906
-0.0971439,-0.00249424
-0.068323,-0.0135286
-0.0346607,-0.00617828
0.0402487,-0.00502999
0.0779642,0.00409316
0.0571797,0.0108221
0.0289975,0.0108058
0.052634,0.00760144
0.048485,0.0132796
0.00298103,-0.00917309
-0.00787975,-0.0498141
-0.0124694,-0.0395384
-0.0174008,0.012741
-0.00264436,0.0279809
0.034184,0.0164415
0.051899,0.0145534
0.0333395,0.0169513
-0.0254739,0.000255115
-0.073121,-0.0194609
-0.065811,-0.013076
-0.0387352,-0.00415682
-0.0269692,0.00510023
-0.001431,0.0117198
0.0315441,0.0113965
0.0415188,0.00609014
0.0454312,0.0107061
0.0491655,0.000677132
0.0548403,-0.00810037
0.0291298,0.000287709
-0.00550155,0.0010761
0.00414962,-0.00660524
-0.00327334,-0.0080075
-0.0597657,-0.0155908
-0.105953,-0.0358347
-0.113399,-0.0342285
-0.115965,-0.00604584
-0.0858296,0.0237673
-0.013158,0.0119122
0.0761486,0.00464229
0.134206,0.0195165
0.0733774,0.0164767
0.0478847,0.00274588
0.0378332,-0.0079457
0.0170086,-0.00471412
0.0258054,0.00839763
-0.00544515,0.000228707
0.0141143,-0.0029354
0.0465319,0.00376399
0.0288349,0.0121989
-0.0134214,0.0241965
-0.0139015,0.0106395
0.0223004,-0.0114137
0.0263443,-0.0256652
0.0097942,-0.0418869
-0.0229015,-0.0247487
-0.0246842,0.028705
-0.0467669,0.0118236
-0.0681781,0.00358221
-0.0713039,0.0138752
-0.0672573,0.00421066
-0.0341533,-0.00495778
0.00285155,0.00108152
0.0195866,0.00698551
0.0305315,0.00351115
0.0498289,-0.00938417
0.0458686,-0.0165308
0.0308301,0.0110317
0.0331112,-0.00730244
0.0341217,-0.00454916
0.00567059,-0.00705721
-0.011656,-0.0158811
-0.00979687,0.00875766
-0.01394,0.0178153
-0.0144988,0.014761
-0.00931814,0.00612899
-0.00811221,0.00515681
-0.00745611,-0.00245481
-0.00510285,-0.00723649
-0.00591507,-0.005544
-0.00576108,-0.00140086
0.0047297,0.00253089
0.00867822,0.0100736
0.00603128,0.0170402
0.00418251,0.0174858
0.00957879,-0.0106971
0.0153429,-0.0129394
0.0157179,0.00526313
0.00884694,0.0117268
-0.0216856,0.000900894
-0.0470354,-0.00986209
-0.0307631,0.000486943
-0.0179937,-0.0321462
-0.0814038,-0.0248184
-0.148097,0.0147604
-0.116612,-0.00359167
-0.00461303,-0.0230437
0.0897012,-0.0240998
0.154596,0.0198046
0.167697,0.0496915
0.0903007,0.0515447
0.0173861,0.0297212
0.000927522,0.00313462
-0.0012899,-0.0303561
-0.0404788,-0.0326767
-0.0633983,-0.0200215
-0.0783071,-0.0118602
-0.0275968,-0.00439017
0.0176143,-0.00103322
0.0242151,0.0140811
-0.00248634,-0.00997152
-0.0254594,-0.00744041
-0.0306316,-0.00691024
-0.0660884,0.000671445
-0.0305073,0.016002
0.0657257,0.0160263
0.118272,0.00693965
0.0836565,0.00159209
0.0287442,-0.00465377
0.00920775,-0.0119182
0.0093979,-0.00831705
0.0105193,-0.00321111
0.0110577,-0.00227582
0.00631642,0.00486506
-0.00481406,0.0116695
-0.0132002,0.00801358
-0.00852416,-0.0018908
0.00070059,-0.0159749
0.0113411,-0.0161374
0.0132903,-0.00231351
-0.0106687,0.00264728
-0.0346839,-0.00653998
-0.0642113,0.00665277
-0.100637,0.0228155
-0.108128,0.0236944
-0.0614409,0.00287969
-0.0250994,-0.00866019
0.015472,-0.0120264
0.0480013,-0.0191218
0.0344666,-0.0107586
0.0461053,0.00682862
0.0617321,0.0190555
0.0553572,0.0132924
0.0449465,-0.0128207
0.036377,-0.0144714
0.0232458,-0.00744137
0.000330046,0.002334
-0.0141587,0.0078272
-0.0183233,-0.00303782
-0.00832415,-0.0034071
-0.00273519,0.0135417
-0.00503722,0.00362193
0.00610281,-0.0150404
0.0052181,-0.00873562
0.00486147,0.00822885
0.00627165,0.0040212
-0.0115925,-0.00303866
-0.0789319,0.00732725
-0.111848,0.0116175
-0.0595289,0.00879887
0.0170535,0.00607449
0.0616462,-0.00449417
0.0579649,-0.0246
0.0299937,-0.0148122
-0.000385492,-0.00444178
-0.0126681,-0.00345058
-0.0132028,-0.00356611
0.00558301,0.00313491
0.0229898,-0.0155313
0.0263987,-0.0294406
0.0174168,-0.0121256
0.00618722,-0.00655047
0.00161388,-0.00102428
0.00241865,0.0158517
0.00271688,0.0268688
-0.00121265,0.0233294
0.00052027,0.0195215
-0.00576468,0.00556272
-0.00056477,-0.00595842
0.00434683,0.0068937
-0.00668465,0.0144625
-0.0233194,0.0144013
-0.0248514,0.0124022
-0.0125372,0.0118448
-0.010889,0.00651263
-0.00341305,-0.00933512
0.0187949,-0.0150722
0.0211174,-0.00582129
0.016527,-0.00153691
0.00762912,0.00288994
-0.0134652,0.00575409
-0.0134615,0.000463842
-0.0356434,-0.00247926
-0.101292,-0.0199557
-0.0777891,-0.0272087
0.0163128,0.0019239
0.0678756,0.0199902
0.0698455,-0.0052328
0.0687517,-0.00871286
0.0316167,-0.000525716
0.00227851,0.00821493
-0.00335348,0.0141947
-0.05383,-0.000555856
-0.0913654,0.0095559
-0.0429118,0.0135823
0.0211938,0.00508807
0.0549586,-0.0217299
0.0608999,-0.034851
0.0346888,-0.0213209
0.00688367,0.00357506
0.000838564,-0.00133303
-0.0111823,-0.00439644
-0.0199988,0.00681729
0.00730485,0.0052865
0.0284644,-0.000925896
0.00800366,0.00264154
-0.00528033,0.0102777
0.00726229,0.00378281
0.0403836,0.00241625
0.0408468,0.00158186
0.0283984,0.00204684
0.0228252,-0.0141697
0.0183857,-0.00369981
-0.0347897,0.00879335
-0.0717254,0.0218086
-0.0436186,0.0211381
-0.0371352,0.0144398
-0.0578614,-0.0177649
-0.0539357,-0.0274755
-0.0132773,-0.00467883
0.0333095,0.00431944
0.0284958,0.0173536
-0.00373198,0.0221438
0.00176398,0.019942
0.0244101,0.00389333
0.0209947,-0.0269177
0.0258907,-0.0232165
0.0274529,-0.00871644
0.0263801,-0.00784965
0.024727,-0.00921374
0.0181469,-0.00498367
0.00506078,-0.00363304
-0.0070019,-0.0031859
-0.00314905,0.00337959
0.0027981,0.00488714
-0.0441582,-0.0011147
-0.108711,0.00457903
-0.107638,0.00482911
-0.0383348,0.00607505
0.0371965,0.013532
0.051052,0.0127773
0.021179,0.00371415
-0.0166632,-0.0167291
-0.00264164,-0.00771399
0.0285904,-0.00592752
0.0454195,-0.0126806
-0.0099733,-0.012239
-0.0361694,-0.00782627
0.00667008,-0.00539045
0.0424866,-0.00244481
0.056897,-0.00411577
0.0623747,-0.00937829
0.0527093,-0.00151139
0.00539152,0.00830813
0.000567581,0.00766032
0.00143265,0.0219084
-0.0344674,0.0252091
-0.0433265,0.0238111
-0.032859,0.0181539
-0.00749036,0.00696045
0.00386422,0.00578702
-0.0120824,-0.0115741
-0.023693,-0.015337
-0.0149437,0.00344288
-0.00396921,0.00929301
-0.0368506,-0.0107312
-0.0695205,-0.0107455
-0.0740896,-0.023952
-0.0371853,-0.0110996
0.025785,-0.00175474
0.0423816,0.0012914
0.0385102,0.00540194
0.0520689,0.0116382
0.0525687,0.00612957
0.0508921,-0.00200142
0.0387254,-0.0169939
0.0127117,-0.0108396
0.00133922,0.0133994
-0.0391419,0.00187086
-0.0792897,-0.00738654
-0.0725655,0.00976412
0.000436894,0.0115158
0.0753905,0.00937137
0.102825,0.0135749
0.0784236,-0.0166619
0.0310402,-0.0173312
-0.00463543,0.00668283
-0.021222,0.00612758
-0.0352023,-0.0212338
-0.0291576,0.00802043
-0.0357045,0.01055
-0.0361531,-0.018906
-0.013169,-0.0306181
-0.0168377,-0.026423
-0.0564533,0.00307396
-0.0501728,0.0120604
0.000992301,0.0155052
0.0530133,0.0232007
0.0688358,0.015553
0.0743086,0.0154465
0.0613012,0.0111219
-0.0150002,-0.00987835
-0.0797056,-0.0173592
-0.132326,-0.00867113
-0.111082,-0.0355014
-0.0189629,-0.00870347
0.0890138,0.0258294
0.119665,0.00956895
0.0555399,0.000615349
-0.00691673,-0.000990743
-0.0431118,0.00118811
-0.0773436,-0.00452576
-0.0734548,-0.0128106
-0.0318441,-0.0101228
0.0152325,0.00737335
0.0767004,0.0142901
0.101309,0.0223629
0.0716492,0.00406449
0.000976541,-0.00489058
-0.03579,-0.0043035
-0.0368533,-0.00904148
-0.0162471,-0.0224987
0.00788502,-0.00586671
0.00586857,0.0186554
-0.0243661,0.0173823
-0.0338826,0.00461547
-0.0142016,-0.00807448
0.0124464,-0.00274518
0.0440552,-0.000941157
0.0791508,0.0051117
0.0765378,0.0125146
0.034581,0.0129988
-0.00148668,0.00500899
-0.0219112,0.00113001
-0.0159557,0.00167766
-0.00921065,-0.0155413
-0.0180821,-0.0183027
-0.035113,0.00371436
-0.0467339,-0.00701366
-0.0360389,0.0218646
-0.0176995,0.0305402
-0.0370943,0.00688031
-0.0786915,-0.010764
-0.0456943,-0.00556059
0.0265924,-0.00399247
0.0483604,-0.00431919
0.0137386,0.00524519
0.00324336,0.0115459
0.0104417,0.00754316
0.0214877,-0.00692544
0.0437113,-0.0162669
0.0504067,-0.019117
0.0367385,-0.0230743
0.0177479,-0.0253207
-0.0011834,0.000702255
-0.0178346,0.0142147
-0.00635789,0.0253832
0.0039776,0.0182107
0.00617713,0.00220106
0.0154363,-0.0113015
0.00303394,-0.0124529
-0.0125974,-0.00659837
-0.0210952,-0.00270384
-0.0232788,0.00442144
-0.00678396,0.0103728
0.00659589,0.00810441
-0.0106528,0.00858844
-0.0312431,0.00444011
-0.0587746,-0.00708096
-0.0647033,-0.0107404
-0.0464215,-0.0215772
-0.0423479,-0.026689
-0.0451069,0.0164144
-0.00768038,0.0296665
0.060588,0.00483121
0.0658736,-0.022015
0.0503688,-0.0230111
0.066933,-0.0031975
0.0752414,0.000917646
0.0499937,0.00280356
-0.00112404,0.0150557
-0.0341638,0.0171799
-0.0317371,0.0113908
-0.0218807,0.00239354
-0.0176915,-0.0109051
0.00863153,-0.0235501
0.0141719,-0.0105521
0.0132641,0.0038435
0.0219383,0.00410463
-0.0033225,0.00352678
-0.0174828,0.00723227
0.021983,0.0081233
0.0460646,0.0105468
0.00178962,0.0161027
-0.0329355,0.00475793
-0.00923932,0.000543683
-0.00206688,-0.00381793
0.0118842,0.00881414
0.0199289,0.0144899
-0.00878833,0.0100829
-0.0257366,0.0064473
-0.00503664,-0.011215
0.00706144,-0.0228084
0.00361486,-0.0157595
-0.0138291,-0.0251081
-0.0100564,-0.0141945
-0.00267333,0.00578268
0.00382091,0.00628284
0.00789782,-0.0105393
0.0143572,-0.00321587
0.00649036,0.0274802
-0.0244774,0.0101695
-0.0392872,-0.00637083
-0.00213023,-0.00118436
0.014141,-0.00203999
0.00916319,0.00387945
-0.0278386,0.0103015
-0.115969,0.000537565
-0.121614,-0.00338594
-0.0691741,0.00384025
-0.00662655,0.00568645
0.0280609,0.004637
0.0603635,-0.00653475
0.0570572,-0.0120354
0.07431,-0.00845041
0.0864523,-0.00844598
0.0447864,-0.0127263
0.0300914,-0.0110976
0.0290468,0.000432791
0.0188337,0.000514054
0.0189115,0.00683023
0.0167971,0.0145717
0.00264616,0.0113015
-0.000575105,0.00847947
0.00790893,-0.0076996
0.0137216,-0.0178228
0.00616906,-0.00396404
-0.00388351,0.0138019
-0.0151095,0.00652224
-0.0297972,0.00253431
-0.0540564,0.0114505
-0.0610543,0.00932785
-0.10538,-0.00670764
-0.131433,-0.0129596
-0.100814,0.00127832
0.00206526,0.0029604
0.0764144,0.00636327
0.102202,0.0104408
0.078178,-0.000556498
0.0353734,-0.0259324
0.0292842,-0.0176055
0.0465852,-0.0117379
0.0584314,-0.00845542
0.0467631,-0.00466189
-0.00638486,-0.0112197
-0.0151652,0.029771
-0.00979672,0.0413003
-0.0203818,0.0389848
-0.0472477,0.0248198
-0.0535251,-0.0118959
-0.0636409,-0.0412049
-0.0698485,-0.0287194
-0.00122497,-0.0159691
0.0622313,0.00139944
0.0255753,0.0149656
-0.0172664,0.0120819
-0.00936029,0.00361079
0.00346291,-0.0106946
0.0352961,-0.024423
0.0468549,-0.0164248
0.0405301,0.00854688
0.0268596,0.0210059
0.00659418,0.0060877
-0.00843293,0.0119748
0.00344118,0.0169994
0.0337962,-0.003213
0.0423891,-0.024198
-0.00478159,-0.0103402
-0.0495611,-0.000864853
-0.0239592,0.0117122
-0.0147323,0.0193927
-0.0215831,0.0205992
-0.00208332,0.00701887
0.00163968,-0.00135759
-0.0153208,-0.0151616
-0.0469975,-0.0150671
-0.0598297,-0.002187
-0.0268223,0.003939
0.00212447,-0.000536288
0.00538612,-0.00516416
0.0195165,0.0197118
0.0250264,-0.00163694
0.00253142,-0.024641
-0.0337385,-0.000652503
-0.0332943,-0.00361931
-0.0141561,-0.0131907
-0.0120685,0.00214076
0.0145846,0.0158415
0.0532437,0.0110824
0.0909838,0.00322552
0.0857207,-0.0075701
0.0506601,-0.0115533
0.0161125,0.0021481
-0.0037142,0.00977478
-0.0131849,-0.000795527
-0.0107865,0.00101274
-0.00165563,0.00964701
0.00557313,0.00288205
0.00734985,-0.00547528
0.00428088,-0.0199357
-0.0230866,-0.0334686
-0.0829376,-0.0242637
-0.178874,0.0112509
-0.171501,0.0126986
-0.0987493,0.00632339
0.00250541,0.00929131
0.0825159,0.0136114
0.0992909,0.00279935
0.0981918,-0.0168504
0.0587683,-0.0201188
0.0336463,-0.00491312
0.0438013,0.0129846
0.0361477,0.0378002
0.0123082,0.0299719
0.00396596,0.0185041
0.022636,0.00217042
0.0319885,-0.0268345
-0.00464179,-0.0228596
-0.0104709,-0.00440923
0.0209213,0.00338424
0.0370126,0.0119194
0.0163151,0.0142311
-0.0155096,0.00478008
-0.0274013,0.00269805
-0.0305159,-0.0201108
-0.0311819,-0.0244618
-0.0310449,-0.00604108
-0.0195934,0.00509489
-0.0129369,0.00679895
-0.0189773,-0.00215529
-0.0193895,-0.0020019
-0.00736853,0.00388245
0.0113811,-0.000650525
0.0204891,-0.0170465
0.0240549,-0.0086245
0.0255547,-1.14e-05
0.0266228,-0.00130552
0.0180147,-0.0049124
0.00471172,-0.0143502
0.00965179,-0.0112803
0.00127908,-0.00857799
-0.0266087,-0.00641023
-0.0565628,0.00805407
-0.124789,0.0161483
-0.199238,0.0177688
-0.143252,0.0177025
0.01508,0.0143652
0.12769,0.0143679
0.137886,0.0180677
0.096516,0.00426599
0.0653304,0.00341495
0.0462321,0.00922518
0.0336874,0.0112041
0.0181791,0.00962712
0.0141691,-0.000634349
0.0250085,-0.0228636
0.00666221,-0.0118811
-0.00447552,-0.00568223
-0.0126166,-0.0151447
-0.0305239,-0.00694634
-0.0466394,0.000267935
-0.0167484,0.00293865
-0.017145,0.0196031
-0.019059,-0.00522939
-0.0295265,-0.0203494
-0.0206275,-0.00616423
-0.00413668,-0.0261574
-0.00106937,-0.0104904
0.0054567,0.00792251
0.00685127,0.00621342
0.0189995,0.0147645
0.0392153,0.0212769
0.0232201,0.0134958
0.0112256,0.00591499
0.00996087,-0.00905984
0.00242266,-0.0248821
-0.00461429,-0.0208691
0.00263633,0.00659687
-0.00250294,0.00799018
-0.0604537,0.0138529
-0.0979076,0.0240476
-0.0733943,0.00706768
-0.0143062,-0.0104138
0.0335451,-0.0175946
0.0468817,-0.0184913
0.0618284,-0.00914692
0.0269275,0.0049488
-0.0207455,0.0168754
-0.0236745,0.0141129
0.0139953,-0.00604824
0.0263895,-0.0155036
0.0309997,-0.0222448
0.0318567,-0.0228143
0.021151,-5.54e-05
0.0125182,0.0234085
-0.00543735,0.0165442
-0.0123282,0.00448109
0.00252298,0.00456191
0.0124804,0.0114888
0.0240224,-0.00498619
0.0257025,-0.0240478
0.00595875,0.000830761
0.000471897,0.0111575
0.0107534,0.0130195
0.00339212,0.00694336
-0.00481058,0.014984
-0.0121827,0.0126671
-0.045935,-0.00100616
-0.109927,-0.0100499
-0.115302,-0.0130642
-0.0602554,0.00553119
-0.0077698,0.00159743
0.0262742,0.00397319
0.0812407,0.0181753
0.101895,0.00472005
0.0641062,-0.0370666
0.03912,-0.0316559
0.023698,0.0055294
0.00633898,0.00590992
-0.0119452,-0.00632077
-0.024045,0.00140526
-0.0192396,0.0191576
-0.0197038,0.00800205
-0.00636276,-0.0102397
-0.00220007,0.00117402
-0.0343654,-0.0123694
-0.0441861,-0.00763083
-0.0322996,-0.012185
-0.0141314,0.00146804
0.00130136,0.0260086
-0.0179682,0.0260422
-0.0584004,0.00359422
-0.0569384,-0.0150303
-0.037028,-0.0150041
0.00748448,0.00347016
0.0507686,-0.000448326
0.0436726,-0.0172289
0.0585913,0.00630064
0.0793222,0.0016122
0.0657472,-0.0157869
0.0189452,-0.0181832
-0.020762,-0.0314079
-0.00753001,-0.00995934
0.0165973,0.0243364
0.0280382,0.0195036
0.0316897,0.00869585
0.0297848,0.00911794
0.00810521,0.0214498
-0.0219586,0.0206211
-0.030831,0.00643575
-0.0248932,0.00374294
-0.0136245,-0.012834
-0.00867188,-0.0145869
-0.0122242,-0.00949499
-0.00750592,-9.28e-05
-0.00450251,-0.00144066
-0.00119217,0.0047611
0.0015489,0.0113805
0.0121893,-0.00115205
0.0197395,-0.00518698
0.0103983,-0.00322182
-0.0119378,-0.00032933
-0.0350155,0.00851334
-0.0206376,0.0107915
0.00861924,0.00435618
0.00272197,-0.00530613
-0.0382452,-0.00948319
-0.103943,-0.019195
-0.127944,-0.0201421
-0.0464898,0.00747312
0.0533225,0.0199649
0.0903395,0.017833
0.0899425,0.00553819
0.0547475,0.00973102
0.0356355,0.00423961
0.0328148,-0.000439445
0.0392668,0.00982813
0.0327286,0.00565623
0.00627382,-0.0176017
-0.0220504,-0.0247105
-0.0296764,-0.00151146
-0.0275681,0.00199117
-0.0166578,-0.0139485
-0.00920026,-0.0374633
0.0223594,-0.00317352
0.0303521,-2.11e-05
-0.0176859,0.00154091
-0.0696616,0.00731324
-0.0466022,0.0197235
0.000211174,0.0333982
0.0138814,0.00981909
-0.00387511,-0.0148205
-0.0113409,-0.0223218
-0.00200745,-0.00562261
0.00991807,0.00547118
0.0268907,0.00922846
0.0169779,0.0102667
0.0149635,0.00660998
0.00834074,0.00252132
-0.00610627,-0.00524134
-0.0473409,-0.00651545
-0.0481757,-0.00454346
-0.0125036,0.00322571
0.0150126,-0.00399839
0.0186171,0.0225717
-0.0118912,0.0194594
-0.0123936,-0.0018573
-0.0118237,-0.0209418
0.00438934,-0.0239001
0.0186374,-0.0150632
0.0220857,-0.00485135
0.0570387,0.00432289
0.0757463,0.0110081
0.0382889,0.0159289
0.0207976,0.0105378
0.018105,-0.00322155
0.00851535,-0.00788306
-0.00953891,-0.00726085
-0.0267176,-0.0122296
-0.0399587,-0.0163169
-0.0478943,-0.0147795
-0.0253516,0.00737843
-0.0072465,0.0142224
-0.000430344,0.00757073
0.0266064,0.0065928
0.0208582,-0.0181479
0.0084586,-0.0166717
-0.0602362,0.00783768
-0.149725,0.0203112
-0.144434,0.0170718
-0.0446011,0.0193166
0.0785567,0.0185896
0.131041,-0.00939685
0.13037,-0.0168775
0.11258,-0.00935917
0.0452778,-0.0122435
-0.019743,0.0133243
-0.0546666,0.0241402
-0.0362978,-0.00657715
-0.0216514,-0.0126853
-0.037316,-0.0130556
-0.0250941,-0.0129955
0.00265564,-0.00817358
0.00967057,0.00272532
-0.0297861,0.00408035
-0.0301974,0.011934
0.000288431,0.000526861
-0.000940473,0.0175243
-0.030418,0.00999506
-0.0297486,-0.0209246
-0.0103269,-0.00633077
-0.00410134,0.00426033
0.0349062,0.0055817
0.076784,0.0103814
0.0711102,0.0174596
0.0399274,0.00611755
0.0263804,0.00416966
0.0251813,0.000717992
0.0335257,-0.00786006
0.0313211,-0.0175852
0.00369901,-0.00714163
-0.0278105,0.00229473
-0.0398436,0.00385224
-0.0753713,0.017128
-0.0893805,0.0140437
-0.051046,-0.00761339
0.00561516,-0.0124849
0.0235551,-0.0177345
-0.00434054,-0.0264713
-0.0242775,-0.00973532
-0.0216075,0.0190737
-0.0126869,0.00187228
0.0132359,0.00422752
0.0449381,0.00777579
0.0534908,-0.00946342
0.0413958,-0.0200679
0.0234997,-0.020957
0.013059,-0.00530643
0.0291038,0.00469405
0.022515,0.00201503
0.00248018,0.0156346
0.00129,0.0194627
-0.00440259,0.0115403
-0.0195269,0.00272738
-0.0357961,5.26e-05
-0.0279936,-0.00720338
-0.0159362,-0.000298063
-0.0285846,0.00728177
-0.0466861,-0.00131682
-0.0432572,-0.0176676
-0.00794078,-0.002828
0.0156922,0.00168824
-0.00351375,0.00484996
-0.0112153,0.0190391
0.0217368,0.0326597
0.0601536,0.0029018
0.0366992,-0.0265508
0.0103392,-0.0129912
-0.0116612,-0.000737283
-0.0186862,-0.0131035
-0.00648665,-0.00531748
0.0122238,-0.0188338
0.00307208,-0.00840233
-0.000687199,0.0158698
0.00676189,0.0174362
-0.0184603,0.0071756
-0.022122,0.00588152
-0.00297051,-0.00176671
0.0101246,-0.00687485
0.0180509,0.000305015
0.00883562,0.00792007
0.01506,0.00687669
0.0278799,-0.000521875
0.0276865,-0.0039722
0.028526,0.00658811
0.0242994,0.00709931
0.0114676,-0.0105047
-0.0132492,-0.0109014
-0.0271071,-0.00818478
-0.00150724,-0.00328507
0.0081527,0.012335
-0.095949,0.0105442
-0.189337,0.000985606
-0.165879,-0.017501
-0.118749,-0.019626
0.0175128,-0.00686657
0.150503,0.0041851
0.177199,0.0161505
0.136906,0.0136323
0.0667767,0.0139069
0.0298039,-0.00193997
0.00246774,-0.0407257
-0.00270466,-0.0347267
0.00732183,-0.00631856
0.0194196,0.0160872
0.0163489,0.00909241
0.00512775,0.00591124
-0.0124349,0.00535571
-0.0338923,0.00875123
-0.0205262,0.0253023
-0.000656753,0.00828846
-0.0120385,-0.00954624
-0.0220514,0.000954837
-0.0059944,0.0299103
0.015554,0.0152716
0.0120473,0.000399453
-0.0108181,0.000247938
-0.0186221,-0.0148585
-0.00384386,-0.0295957
0.00364226,-0.0314221
0.0144192,-0.0332528
0.0120838,-0.00624993
-0.0321761,0.0102257
-0.051969,0.0206014
-0.0586021,0.028327
-0.0476363,0.0309949
-0.0189557,0.0143055
-0.043271,-0.00945212
-0.0490747,-0.0146118
0.0060588,-0.0111041
0.0384125,0.00859334
0.0377606,0.0240699
0.0403054,0.0191954
0.0483729,-0.00628528
0.0322173,-0.0138052
0.0392184,-0.0257123
0.0293664,-0.0301264
-0.00159759,-0.0181837
-0.00943672,-0.0149545
0.0260055,-0.00441731
0.0273234,0.0309442
0.00202021,0.0356556
-0.00399636,0.0227193
-0.00130486,0.00611408
-0.00461243,-0.0103328
-0.0118346,-0.00212916
-0.0165279,0.00904648
-0.00906204,-0.00385154
0.003444,-0.014548
0.0148803,0.00189871
-0.0041718,0.0104
-0.0148352,-0.0116082
-0.00970478,-0.0250449
-0.0200871,-0.0260099
-0.0185222,-0.0205917
-0.00776127,-0.00197052
0.00490543,0.0100398
0.0198015,0.0129195
0.0141722,0.00776848
-0.0196449,0.0185497
-0.0314413,0.029268
-0.00769126,0.0114677
-0.0271977,-0.00722513
-0.0663914,-0.0043238
-0.0568209,0.0104524
-0.0158795,0.00925542
0.0356174,0.000874388
0.0631345,-0.00990828
0.0429052,-0.0235583
0.0402812,-0.019473
0.0435476,-0.00752456
0.0378821,-0.00148555
0.0288307,0.00457339
0.00332119,0.00906647
0.00308169,0.00735576
0.0189348,0.014214
0.0115645,0.00796628
-0.0195946,-0.00230956
-0.0373848,-0.00194734
-0.0317637,0.00997692
-0.0240346,0.00935299
-0.0108012,0.00178093
-0.00296821,-0.00172552
-0.00590588,-0.0108596
-0.0233587,-0.0192008
-0.060485,-0.0259087
-0.0617478,-0.0121013
-0.0340095,-0.00960238
-0.00616864,-0.000702935
0.0214731,0.0104076
0.0538518,0.0132759
0.0751,0.00947444
0.064967,0.00642612
0.0581353,0.00558448
0.045977,0.00373569
0.0161454,0.00757861
-0.00555061,0.0113714
0.00794302,-0.00231747
0.0020901,-0.0217569
-0.0211691,0.0022567
-0.0335529,0.00804516
-0.0223653,-0.016025
-0.0140928,-0.0120136
-0.0236285,0.0169847
-0.0416659,-0.00911865
-0.0337067,-0.0227292
-0.0181544,0.0085022
0.0104176,0.0117219
-0.00889157,0.00396112
-0.0754781,-0.00138024
-0.0686842,-0.00692327
-0.015563,-0.0155871
0.0324983,-0.00434898
0.0614154,0.00704433
0.0812894,0.00686889
0.0725111,0.0154877
0.0319714,0.0136649
-0.00535688,-0.00404258
-0.00669534,-0.0130622
0.012949,-0.0127021
0.017399,-0.00659235
0.00707574,0.000864854
-0.0225691,0.0037533
-0.0275964,0.00684452
-0.0232468,0.0115163
-0.010195,0.0129375
0.0106364,0.0102829
0.0346646,-0.00513633
0.0284389,-0.0234272
-0.000126477,0.00191065
-0.019474,0.0133372
-0.0409948,0.0140176
-0.0681176,0.0120861
-0.0658683,0.000661085
0.0128252,-0.00526465
0.0686103,-0.0114442
0.0203515,-0.00736728
0.0112931,-0.0127964
0.0229915,-0.0214009
0.00804111,-0.00228355
-0.000361805,0.00279077
0.0123212,0.00686839
0.0176447,0.0208869
0.00603375,0.0180563
0.00233522,-0.00989786
0.00220731,-0.010507
-0.0224628,0.0028578
-0.0600612,0.000176735
-0.0780562,-0.0020937
-0.0763182,0.00145352
-0.041244,0.0113593
0.037453,0.00209559
0.0987713,-0.0227549
0.103709,-0.0151586
0.0410804,-0.00201791
-0.0336389,0.0138622
-0.0774592,0.0199777
-0.0798563,0.0136162
-0.0295252,0.0134442
0.0489477,0.00582743
0.104617,-0.0156275
0.0954962,-0.0189483
0.0269262,-0.00913385
-0.00678811,0.00706708
-0.00964362,0.00965992
-0.0158262,-0.00692378
-0.00552195,-0.00565461
-0.000998887,0.000292802
-0.00413321,-0.0102254
-0.0326731,-0.0293745
-0.08146,-0.00643249
-0.0745188,-0.00336875
-0.023614,-0.0214475
0.0327766,0.00330063
0.077949,0.0451548
0.0761242,0.0263077
0.048049,0.00793764
0.0097246,-0.0116721
-0.0335341,-0.025125
-0.0410154,0.00358459
-0.0221265,0.0167381
0.010773,0.0130394
0.0119579,0.0159896
-0.0341475,0.0147474
-0.0567916,-0.00201907
-0.0447233,-0.0216913
-0.0219336,-0.0270858
0.00891934,-0.00432588
0.0359334,0.00222697
0.0409601,0.00194064
0.0279752,0.00206144
0.0193061,0.00654607
0.0326589,0.015824
0.021152,0.00173305
0.00395713,-0.00229556
-0.0105918,0.00808423
-0.0257263,-0.00126329
-0.0264999,-0.00478554
-0.0146425,-0.00864159
-0.00617517,0.0101923
0.00125113,0.0176056
0.0120412,-0.0117494
0.0175245,-0.0237522
0.0103803,-0.00546704
0.00515438,0.00253405
0.00606424,0.00620398
0.000244933,0.00492794
-0.0154716,-0.0113581
-0.0280467,-0.00355234
-0.0149391,0.00837856
-0.0251313,-0.0111961
-0.10249,-0.0143067
-0.0736585,-0.00189852
0.0113906,-0.00218668
0.0224103,-0.0239545
0.0675991,0.00744543
0.0953677,0.022124
0.0598723,0.00722333
0.0249468,-0.00651475
0.0152502,-0.00715903
0.010198,-0.00370536
0.023343,0.00402176
0.0166226,0.012081
-0.00833863,0.00367595
-0.0333232,-0.00916987
-0.0394336,0.0131809
-0.0335301,0.0217418
-0.0144892,-0.00259503
0.0161739,-0.0103308
0.00302992,0.00393791
-0.011243,0.00609014
-0.0290574,0.00507812
-0.106699,0.00814307
-0.135238,0.00979024
-0.0799565,0.0106794
0.0425138,0.0183825
0.130033,-0.00568848
0.14268,-0.027096
0.105717,-0.0284864
0.0413835,-0.00726354
0.00149595,0.0077428
-0.00588312,0.00582188
-0.0108227,0.003356
-0.0148569,-0.0195977
0.00113906,-0.024473
0.0148044,0.000614632
0.0072005,0.00868583
-0.00350861,-0.00251627
-0.00792249,0.00196151
-0.00424566,0.00907618
-0.00394564,0.0219231
-0.0137191,0.0107301
-0.0268384,-0.0117742
-0.0385924,-0.0213164
-0.0390054,-0.024471
-0.0223335,-0.0105901
0.00153883,0.00719903
0.00675111,0.0251037
-0.000743169,0.0172713
-0.00275369,0.0205562
-0.00796414,0.0052067
0.0116902,-0.0114865
0.025887,-0.00512775
0.0152183,0.000311377
0.000452203,-0.00429119
-0.000591754,0.00130578
0.00710164,0.0143606
0.0082323,0.00754541
-0.0195797,-0.0107386
-0.0187767,-0.0107474
0.010639,-0.000660518
0.0331997,0.00492164
-0.0055401,0.00971091
-0.0500201,0.00696423
-0.0630273,0.00425616
-0.0746906,-0.00437355
-0.0384885,-0.0233631
0.0224076,-0.0231001
0.0682894,-0.0157357
0.062044,0.00472208
0.065727,0.00543586
0.0391192,-0.00313172
-0.00500307,0.0133619
-0.0219227,0.0190204
-0.0127782,-0.00127069
0.0108174,-0.0154304
0.0267771,-0.00758842
0.0151835,0.00224953
0.0055154,0.00636659
-0.00470178,0.0098168
-0.0176041,0.0166102
-0.0154004,0.0132951
-0.00713372,0.00446564
0.00947518,-0.0118435
-0.0140482,-0.0237861
-0.0504823,-0.0314547
-0.0295698,-0.0153223
0.0217525,0.00680921
0.0335122,0.0114517
0.0220833,0.0206176
0.0326781,0.0184758
0.024333,0.0110806
-0.00302402,0.00167389
-0.0481306,-0.0030991
-0.0858772,0.00897605
-0.06825,0.00414492
-0.0269561,-0.00668389
0.0272907,0.00973994
0.0515662,0.00886997
0.0505252,0.00711735
0.0606573,-0.00766885
0.0459037,-0.0156168
0.0206122,-0.0100198
0.00348295,-0.00316222
-0.00552986,-0.0194926
-0.00722786,-0.010395
-0.00738988,0.00574451
-0.00295065,0.00329736
-0.016461,-0.00477521
-0.0628167,-0.0147823
-0.0727606,-0.00785805
-0.0312662,0.00744047
0.00516931,0.00373223
0.0378257,0.00671663
0.0618272,0.0133379
0.0418621,0.00880421
0.0143083,0.000793467
0.0114992,-0.0106092
0.00342921,-0.00877512
-0.0681013,-0.00975335
-0.118619,-0.0219488
-0.0753718,0.0125219
0.0158871,0.010445
0.0739252,-0.00598786
0.0813164,-0.00711261
0.0696376,-0.00356556
0.0398521,0.00449236
0.0144794,0.00091394
0.00197835,0.0019535
-0.00482129,0.0115967
-0.00882911,0.0209926
-0.0294083,0.0191464
-0.0452563,0.0131834
-0.0243098,0.00392888
0.00740415,-0.0070057
0.0195409,-0.00933332
0.0127863,-0.00593216
0.000772932,-0.00551715
0.00354879,-0.0042164
0.000428658,0.00596866
-0.0124612,0.00474355
-0.0281487,-0.0122916
