Comp Ch 3,Comp Ch 4
0.0289777,-0.0100935
0.0281421,-0.004729
0.0517553,0.00517116
0.10808,-0.00641636
0.105149,-0.028547
0.0562721,-0.0310788
-0.000425507,-0.00922489
-0.0435732,0.00303661
-0.0529478,0.00869622
-0.0609458,0.0178685
-0.084717,0.0204602
-0.0677572,0.0194069
-0.0354495,0.0167828
-0.0201068,-0.000901403
-0.0222682,-0.00744432
-0.0249151,0.00317092
0.0116466,0.0040136
0.0548056,-0.00372879
0.0411655,-0.00709332
0.0122615,-0.0104755
-0.0156999,-0.0216277
-0.0344993,-0.0276162
-0.00643063,-0.0182771
0.0335998,-0.0083291
0.0318715,-0.0105705
0.0116875,-0.0158591
-0.00694323,-0.000672612
-0.0128567,0.0226946
0.00540309,0.0287672
0.0224784,0.0148582
0.019056,-0.00166853
0.00754687,-0.00373768
-0.0153529,0.00508206
-0.03524,0.00778817
-0.0447575,0.00806207
-0.0440546,0.00565538
-0.0261261,0.00421224
0.0132381,-0.0139563
0.0361435,-0.0176509
0.0338125,0.000859302
0.0314925,-0.0198316
0.0232225,-0.00942882
0.0109728,0.0103987
-5.81e-05,0.0176552
-0.00339356,0.0127797
-0.0191247,0.0131824
-0.0410864,-0.000840256
-0.0370242,-0.0135167
-0.0108871,-0.00958084
0.0363924,-0.00374585
0.0491339,-0.00709436
0.0495317,0.013856
0.0514977,0.0225076
0.0151962,0.00503659
-0.0196743,-0.0054376
-0.0364038,-0.0171542
-0.0528226,-0.013058
-0.0433659,-0.00359264
-0.012932,0.00219165
0.0221578,0.0107005
0.0365707,0.013797
0.0138608,0.0138316
-0.014601,0.010564
-0.0323132,-0.00474863
-0.0386272,-0.0103098
-0.0382045,0.00281743
0.00219929,0.00426475
0.0636936,-0.00333934
0.105472,0.00466128
0.0951085,0.00726616
0.0268328,-0.00723763
-0.0343712,-0.0117461
-0.0715069,-0.00799917
-0.102514,-0.0126894
-0.0817727,-0.0160667
0.0113767,-0.00778743
0.0743478,0.00351876
0.0876618,0.00786135
0.0512582,0.0138121
0.0351226,0.0132806
0.0190594,-0.00758358
-0.0375162,-0.0103947
-0.0882849,0.0135752
-0.101357,-0.00880362
-0.0644672,0.00510666
-0.0379523,0.0218472
-0.0301802,0.0163734
-0.0134108,-0.00288296
0.0118502,-0.0295963
0.0183775,-0.0270919
0.018493,-0.0194734
0.0141615,-0.013458
0.00634844,-0.00606057
0.000930025,0.0158765
0.00276934,0.0111641
0.00613799,0.00768476
0.0271585,0.0155285
0.0582849,0.017485
0.0709157,-0.000918883
0.0688191,0.00461165
0.0525529,0.00735406
0.00397493,0.00494865
-0.0383744,0.00752215
-0.0518623,0.00228473
-0.0488604,-0.0147333
-0.033357,-0.0253498
-0.0227952,-0.0244926
-0.00820099,-0.0123668
0.00435168,0.00885388
0.00334019,0.00276466
-0.00380381,0.00879917
-0.00633912,0.00189533
-0.00591218,0.0110383
0.0113048,0.00384702
0.0433122,-0.00841934
0.0570988,0.000944009
0.0403671,0.0110548
0.0156302,0.0146881
-0.0135328,0.0165666
-0.0273464,0.0150473
-0.0218481,0.00271111
-0.0232248,-0.0247635
-0.0291375,-0.0231109
-0.0192906,-0.0118435
0.000271135,0.00421521
0.00188249,0.0224985
0.00248088,0.0305044
0.00351805,-0.0026104
-0.00138486,-0.0117108
-0.0105141,-0.0226836
-0.0222522,-0.0479735
-0.0209339,-0.0270551
0.00668831,0.0151758
0.0317422,0.0316272
0.040312,0.0220575
0.0247821,0.0241891
0.00135177,0.0180356
-0.00323038,-0.00379573
0.00113718,0.00211262
-0.00262853,0.0200634
-8.34e-05,-0.00821217
0.00449555,-0.0393449
-0.0115083,0.00793559
-0.0525098,0.0267053
-0.0639181,0.0131239
-0.0413514,-0.0036363
-0.015012,-0.028867
0.00603375,-0.0479081
0.00871288,-0.0178037
0.00436552,0.0132851
0.00416419,0.0196652
-0.00153843,0.0147657
-0.0015589,0.0136182
0.00534673,0.016387
0.0183317,-0.0111979
0.0451138,-0.0255853
0.047108,-0.0192867
0.0370223,-0.0184563
0.0366433,-0.000398889
0.0377834,0.00725246
0.0782382,0.00392737
0.0965305,0.00264101
0.0484835,7.01e-05
-0.019294,-0.00814308
-0.0579855,-0.0243262
-0.0612468,0.00501598
-0.0770437,0.0148932
-0.0958508,0.0139778
-0.0761622,0.0190926
-0.0474102,0.030056
-0.0192249,0.0301187
0.00273369,-0.0142955
0.0194109,-0.0177125
0.0283234,-0.0223401
0.0304352,-0.044416
0.0209744,-0.0268269
0.0120964,0.0189744
0.00465084,0.0395137
-0.00253793,0.0315043
-0.00166209,0.0113236
0.000241619,-0.00253005
-0.0174819,-0.011585
-0.0183282,-0.0386109
0.0059615,0.0187076
-0.0196616,0.0602857
-0.0888609,0.0182586
-0.107509,-0.0188412
-0.0665334,-0.0282929
-0.0107033,-0.0358189
0.0287305,-0.0336087
0.0811593,-0.018652
0.0803931,0.00142054
0.0193285,0.0159937
0.00993557,0.0171064
0.0351821,0.007997
0.0397261,-0.0102486
0.0352766,-0.0238697
0.0436209,-0.0221137
0.0576195,0.0054047
0.0698067,0.033938
0.0365598,0.0331411
0.00647653,0.0192858
0.011105,0.0284132
0.0149295,0.0379465
0.0181075,-0.00903006
0.0139164,-0.0267003
-0.0176925,-0.0161747
-0.0485966,-0.0237167
-0.0676274,-0.0304081
-0.104732,-0.02778
-0.191707,-0.00969568
-0.165236,0.0088083
-0.0512337,0.00467801
0.0768541,-0.00404545
0.131146,0.00241818
0.121405,0.0119319
0.0730869,0.0135005
0.0224003,0.00722498
0.00453953,-0.00399039
-0.00577722,0.00173852
0.00696058,0.0294455
0.0307038,0.0126011
0.0270298,-0.0304106
0.0168248,-0.0171856
0.00732747,-0.00603055
-0.00102961,-0.0269189
-0.0118747,-0.00751944
-0.0280922,0.00874615
-0.0408101,0.0139843
-0.0371111,0.0167929
-0.0290079,-0.00154087
-0.0147711,0.000581098
-0.0029611,0.0056083
-0.00652032,0.0108674
-0.00296633,0.0160077
0.00271668,0.025673
0.00509671,0.025967
0.0124067,0.00111413
0.0130157,-0.0328829
0.00802759,-0.031113
0.0117624,-0.0196736
0.00520767,-0.0230697
-0.0112682,-0.0151839
-0.0202828,-0.00848221
-0.0158945,0.0108464
-0.00828232,0.0380169
0.00270415,0.0306678
0.00655315,0.0425974
-0.00187689,0.0257673
-0.00660161,0.00244342
-0.00866777,-0.0224093
-0.00950931,-0.0253929
-0.0115527,0.0115582
-0.0277301,0.0238422
-0.0269301,-0.00633852
0.00623833,-0.0156067
0.0321372,-0.0201003
0.0405136,-0.0361162
0.0342212,-0.0119151
0.0248236,0.00604036
0.00403599,0.0114557
-0.00818846,0.00618861
-0.013923,-0.000167762
-0.00874507,-0.00232451
-0.00201648,-0.00957934
0.00433654,-0.00930988
0.0151679,-0.00179602
0.0197016,-0.000321241
0.0235375,0.00382197
0.0250584,0.0120218
0.0277361,0.0249899
0.0248872,0.0106602
0.00823164,0.00554979
-0.0338788,0.00869108
-0.0614898,-0.0397724
-0.0931149,-0.0284428
-0.121332,0.00121832
-0.122774,-0.000470828
-0.133672,-0.014986
-0.0870538,0.0044394
0.0191385,0.0213062
0.123335,0.0041896
0.148165,0.00428677
0.153622,0.00983815
0.150776,-0.00943322
0.0984921,-0.0125642
0.0280659,-0.00925491
-0.00171852,-0.0326423
0.00403232,-0.026672
-0.00159993,-0.0110752
-0.00171075,-0.000448437
-0.00318577,0.0136166
-0.00246818,0.01404
0.001101,0.0222286
0.00148407,0.0245226
-0.0059253,0.0274607
-0.0181443,0.0653929
-0.030288,0.0997406
-0.0344445,0.0366383
-0.0445189,-0.0623502
-0.064792,-0.0828303
-0.0697746,-0.0512955
-0.0591449,-0.00891465
-0.00588265,0.00341963
0.0323146,-0.0127901
0.0497646,-0.0281276
0.0568042,-0.0125075
0.0514997,0.0148946
-0.0461868,-0.0152343
-0.14377,-0.0147237
-0.173233,0.00246111
-0.0830329,0.0176704
0.058041,0.0116448
0.0813211,-0.0386296
-0.0680256,-0.0407922
-0.0571847,0.0457577
0.0910106,0.0211332
0.206538,0.0227534
0.215928,0.0251204
0.131346,0.025475
0.0529505,0.0157937
-0.000426624,-0.00683946
-0.0339657,-0.0119394
-0.0803716,-0.00289015
-0.16573,-0.00702853
-0.138827,-0.017726
-0.0422083,-0.0023601
0.0234266,0.0199038
0.0566531,0.0185309
0.0555329,-0.00572117
0.0981212,-0.0134363
0.0720022,-0.00604807
0.0313682,0.00178646
-0.0011885,0.00151645
-0.0421134,-0.00922795
-0.0609515,0.000390694
-0.0392848,0.0226076
-0.0201767,0.011494
-0.016616,-0.0366646
-0.00548181,-0.0120998
-0.00307398,-0.00928155
0.00736708,0.00112903
0.0296564,0.0217781
0.0295062,0.0181632
-2.4e-05,0.00679434
-0.0278421,-0.00550052
-0.0305876,-0.0305834
-0.0190102,-0.0499799
-0.0143655,-0.00754505
-0.0324571,0.013193
-0.0452693,0.0105404
-0.0310981,0.0100246
-0.00173032,0.017149
0.0159427,0.0302036
0.01987,0.000991753
0.0177497,-0.0222506
0.0162861,-0.00979175
0.0196137,-0.00184021
0.0260301,-0.00240071
0.0287979,0.00357563
0.0103163,0.00112951
-0.0119669,0.00601996
-0.0139431,0.0105291
-0.0132714,-0.0150137
-0.0108789,-0.0435633
-0.0107706,-0.0270109
-0.0190375,0.0161407
-0.029534,0.0154174
-0.0286912,0.0209701
-0.0118924,0.0328914
0.00810223,0.0205473
0.0147471,-0.00721601
0.0148544,-0.019139
0.0173237,-0.0111216
0.025509,-0.00965145
0.0385781,-0.000932983
0.0381677,0.0128387
0.0236039,0.0164783
0.00144929,0.0165902
-0.0144308,0.0156284
-0.0161662,-0.0210461
-0.0141098,-0.0283557
-0.0208434,0.00130703
-0.0271678,0.0114813
-0.0183779,0.00766769
-0.00154494,0.0111143
-0.000662877,0.00591713
0.00970984,-0.00858991
0.0157816,-0.00679593
0.0128872,-0.00274994
0.014994,-0.00436364
0.0122518,-0.00182768
0.0010996,-0.0130711
-0.006895,-0.0215872
-0.0124601,0.00826416
-0.0198123,0.00931105
-0.00415689,-0.012345
0.0282854,-0.00228413
0.0255634,0.000990604
0.00551788,0.0121183
-0.0128282,0.0141235
-0.0264213,0.00723042
-0.0288269,0.00609976
-0.0161205,0.0158537
-0.00494295,0.0168391
-0.0132205,-0.0151271
-0.0102432,-0.0137258
0.0316259,-0.0135806
0.0598844,0.00183895
0.0392142,0.0078989
0.0146478,-0.00403312
0.014151,0.00666402
0.00244537,0.00626215
-0.00900553,0.00323638
-0.00630405,-0.0163193
-0.0100439,-0.00775165
-0.0240214,0.00763697
-0.0488047,0.000899687
-0.0640529,-0.0018482
-0.0280688,0.027729
0.00571474,0.0191024
0.0360518,-0.012555
0.0448795,-0.013452
0.0217485,-0.0090795
0.00993227,-0.00922034
0.0156896,-0.00856279
0.0147837,-0.00909021
0.0096839,-0.0176657
0.0286445,0.00978807
0.0194983,0.0136973
0.0113461,-0.0313942
-0.0035496,-0.0257741
-0.0208787,0.00625409
-0.0124134,0.0288748
-0.00460988,0.00910383
-0.0508736,0.00760689
-0.175415,0.0298072
-0.160314,0.0168248
-0.0724122,-0.0133177
0.0365865,-0.0119073
0.136479,-0.000144883
0.188926,-0.00453205
0.173987,0.00188743
0.0727502,0.00512204
-0.0375805,0.00501673
-0.0669324,-0.000498458
-0.0464045,-0.0245309
-0.01513,-0.01206
-0.00920172,-0.0175977
-0.024476,-0.00336003
-0.0571876,0.0131247
-0.0650675,0.026352
-0.0170696,0.0308203
0.044842,0.0258811
0.0868557,0.00386858
0.0681196,-0.032954
0.0403411,-0.0324453
0.0321985,-0.0273133
0.0203407,-0.0197636
0.00509542,-0.00672385
-0.0398696,0.00154503
-0.127818,0.00489318
-0.124451,0.0130352
-0.0672063,-0.00159285
0.0129328,-0.0126831
0.0577781,0.00284543
0.040332,0.022215
0.018432,0.0279072
0.00820129,0.0367592
0.0170303,0.0374587
0.0230283,0.0159704
0.0281439,-0.0158554
0.0176995,-0.0438342
0.000315335,-0.0226809
0.00624102,-0.0109182
0.0043536,-0.0100928
-0.0153009,-0.0120772
-0.0193432,-0.0045065
-0.00724728,7.63e-05
-0.00273027,0.00347991
0.000966767,-0.018236
-0.00558844,-0.0302723
-0.00686219,0.00507299
0.00140926,0.0396518
-0.00328061,0.0279595
-0.0123555,0.0293151
-0.0166358,0.0290713
-0.0129755,0.000344592
-0.00255878,-0.0306939
0.00216549,-0.0294415
0.0044971,-0.025176
0.00384878,-0.0266397
-0.00209173,-0.0140383
0.00172671,-0.00828656
0.00786493,-0.00839733
0.00920918,0.0164271
0.0218198,0.020156
0.0456993,-0.00576987
0.0399542,0.00650793
0.00935583,0.0305267
-0.0129763,0.0348115
-0.0324743,0.0330229
-0.0513966,0.0319707
-0.0428803,0.0128676
-0.00369669,-0.00329125
0.0057426,-0.019403
0.00518921,-0.0237093
0.00737133,-0.0279271
0.00840737,-0.0230161
0.00541172,-0.0130171
0.000633466,-0.00658952
-0.00448082,0.000127383
-0.000801021,0.0102357
0.000347997,-0.00652978
-0.00295222,-0.0176023
-0.00989982,0.00440772
0.00020348,0.017238
0.00323784,-0.0130986
0.00291459,0.0355047
-0.00295507,0.0527753
-0.00413642,0.00332793
-0.00158208,-0.013599
-0.0082515,-0.025117
-0.00110963,-0.0204693
0.00860137,-0.0224273
0.00125593,-0.00837724
0.00119383,0.00891709
0.0154662,0.00903528
0.0303769,0.00559856
0.00688501,0.00364798
0.00498911,-0.0162275
0.0288052,-0.0260936
0.0223783,-0.00101076
0.00953255,0.015822
0.00415178,0.0214601
-0.0192759,0.0310815
-0.0619249,0.0384947
-0.0620017,0.00970381
-0.0399732,-0.0412566
-0.01095,-0.051614
0.0216359,-0.0271917
0.0310859,-0.0206491
0.041435,-0.00335672
0.040179,0.0112219
0.0229007,0.0113948
0.00282623,0.0130746
-0.01555,0.00606948
-0.0237387,-0.00716941
0.00759722,0.000629616
0.0325534,0.0201275
0.0105609,0.0303038
-0.0238019,0.0362295
-0.030525,0.020355
-0.0244761,0.0119805
-0.010567,-0.00891161
0.00481351,-0.0407485
0.0166465,-0.0276151
0.00363849,-0.024848
-0.0351518,-0.0222599
-0.0308356,-0.00289772
-0.0137714,0.0123945
0.00634802,0.0111647
0.0175326,0.0154244
0.0219031,-0.00360498
0.0143932,-0.0208346
0.00823391,-0.00173827
0.00728463,0.0209847
0.0136726,0.0203316
0.016705,0.0139336
0.0112379,0.0178682
0.00582802,0.0106531
0.0134322,0.0170201
0.0126023,-0.026036
-0.00203136,-0.0267471
-0.00852047,-0.0143895
0.00213349,-0.0166551
0.0215943,0.0170462
0.0242093,0.0175452
0.0190811,-0.0107422
0.0230104,0.00148433
-0.021938,-0.00649448
-0.0685586,-0.0386865
-0.0648793,-0.0143371
-0.0507908,0.0157341
-0.0293091,0.0185769
0.000343989,0.0242061
0.00323768,0.0142337
-0.00116558,-0.00516989
-0.0142569,-0.00728987
-0.0118446,-0.0252728
-0.0177774,-0.0289836
0.00199907,-0.00627467
0.0165109,0.00648027
0.00926933,0.0199978
0.0255929,0.0158704
0.027258,0.0092736
0.0126884,-0.00880643
-0.00530736,-0.0326393
0.0043499,-0.0130791
0.0118327,0.0109482
0.0172748,0.0156415
0.0284433,0.0191786
0.021869,0.0328302
0.0100923,0.0285156
0.00760219,0.00716299
0.0020305,-0.0193615
-0.00490217,-0.0299393
-0.0164517,-0.0170938
-0.0184575,-0.0164703
-0.0112314,-0.00252898
-0.0142209,0.0166715
-0.0214307,0.00263714
-0.0140245,0.000252693
-0.00760688,-0.00941356
0.000540349,-0.0316682
0.0141094,-0.0113893
0.0156476,0.00290189
0.0201373,0.00615668
0.0113297,0.0112005
-0.00729118,0.0365978
-0.00737762,0.031254
-0.0107705,-0.00830217
-0.00518008,-0.0250048
-0.00419062,-0.0125931
-0.00861072,0.00422626
-0.00676859,0.0224049
0.00636256,0.0266278
0.0380147,0.0217089
0.0508805,0.0078125
0.0421301,-0.00403077
0.0246289,-0.0314094
-0.00884083,-0.0458309
-0.0448411,-0.0262111
-0.0460207,0.000236161
-0.0304671,0.0105259
-0.049246,0.0163245
-0.0545206,0.0196559
-0.0299528,0.0110006
0.0233854,-0.0248881
0.0556834,-0.014398
0.0528894,0.00344392
0.0410124,0.0105512
0.00627318,0.0141957
-0.0306099,0.00947557
-0.0507502,0.00658616
-0.0400385,-0.0205802
-0.0172215,-0.0240939
-0.00968477,-0.0178443
1.8e-05,-0.0301474
0.0202127,-0.0088009
0.0242229,-0.0014503
0.0190504,0.0172513
0.0185422,0.0227783
0.0150996,0.0175198
0.0110159,0.0124241
0.0283044,-0.00425793
0.031544,-0.00407329
0.01784,-0.00803971
0.00267864,0.00198364
-0.00071665,0.0194722
-0.00705513,0.0355005
-0.0182292,0.0162057
-0.0145276,0.0028885
0.000680969,-0.0184973
0.00572161,-0.0540232
-0.00222527,-0.0420247
-0.0270961,-0.020576
-0.0499569,-0.00348943
-0.0244237,0.0237693
-0.0142731,0.015797
-0.0246495,-0.00101525
-0.0130049,0.0240131
0.000659199,0.0322442
-0.00149341,0.0280814
0.00589374,-0.0159331
0.0328583,-0.00291183
0.0282087,0.0137592
0.00274266,0.020803
-0.00879486,0.00710767
-0.0065572,0.000669698
0.00575624,-0.0170958
0.024447,-0.0314009
0.0271533,-0.0144784
0.0141186,-0.00140863
0.0112413,-0.00148284
0.00975603,0.00705547
0.00563261,0.00953967
-0.00565073,-0.00803298
-0.011709,-0.0397925
-0.00990699,-0.00574446
-0.00865704,-0.00526256
-0.00185325,-0.00498088
0.0132569,0.0325582
0.0341658,0.0347969
0.0441667,0.0246342
0.0490828,0.0247419
0.0166256,0.00887706
-0.0225597,-0.0378847
-0.0499234,-0.0388622
-0.0522591,-0.0139204
-0.0453041,-0.00899722
-0.011414,-0.00520814
0.0122186,0.0112488
-0.0156677,0.0132341
-0.0355613,0.00334066
-0.0235711,-0.00526943
-0.0113278,-0.00726248
-0.00405742,-0.00116329
0.00373072,0.0123783
0.00336201,0.0253528
-0.00605896,0.0277253
-0.0125841,0.0134688
-0.0118609,0.00342516
-0.00391002,-0.013832
0.0194434,-0.0323759
0.0781573,-0.0274494
0.105673,-0.013643
0.0786504,-0.00819082
0.0387505,-6.17e-05
8.21e-05,0.0188903
-0.0268452,0.0295576
-0.0134284,0.00471099
-0.00267253,-0.0213822
-0.0222868,-0.0179013
-0.0419782,-0.0111808
-0.0449526,0.0105539
-0.0493109,0.013017
-0.0769715,0.0307475
-0.0892159,0.0153859
-0.0557303,0.00647569
-0.00324038,-0.0127673
0.045979,-0.0299391
0.0577779,-0.0189729
0.0359046,-0.00945852
-0.0408977,-0.00729435
-0.0757506,0.00497374
-0.0362934,0.023086
0.0213009,0.0158624
0.0667588,-0.0128628
0.0920941,-0.01795
0.0885495,-0.0033404
0.0486853,-0.00439321
0.00837645,-0.00462345
-0.00678539,0.0234073
-0.0153892,0.017637
-0.0219608,-0.0104247
-0.00627269,0.000562561
0.00802784,-0.021486
0.0096679,-0.0163474
-0.00015769,-0.0328582
-0.0136059,-0.0228479
-0.0120941,0.00226454
-0.00557396,0.0337699
-0.00561691,0.0392373
-0.00422482,0.0127223
-0.00756836,-0.015249
-0.0140566,-0.00946585
-0.0116817,0.00270883
-0.00563131,0.00731321
-0.0108485,0.012763
-0.0163001,0.0121591
-0.0119441,0.000266254
0.00927522,0.0026856
0.0446315,0.0113698
0.0546646,-0.00410208
0.0534567,0.00128075
0.0399137,0.0244325
0.0285243,-0.00528674
0.0223798,-0.0179717
0.00202433,0.0146148
-0.0275496,0.0185289
-0.0410154,-0.00905472
-0.0464958,-0.0192426
-0.041491,-0.00720397
-0.0277226,-0.00546326
-0.018346,0.00110621
-0.0175488,0.00975113
-0.0305875,0.0150841
-0.0376995,0.00425807
-0.0490064,-0.00677196
-0.0373096,-0.0329118
-0.00579388,-0.0421182
0.0282468,-0.0189824
0.0707495,-0.00940155
0.135052,-0.00810644
0.14037,0.00113265
0.0615719,0.0211541
-0.0203119,0.0199796
-0.0769356,0.00803181
-0.0977929,0.0168754
-0.0772196,0.0253475
-0.0421326,0.0241942
-0.0154855,0.0199436
-0.00942526,-0.00303528
-0.00118673,-0.0168309
-0.000420228,-0.00499117
-0.00632481,-0.00961149
0.0103024,-0.0257753
0.0379737,-0.0169339
0.0443143,0.0255472
0.0529795,0.00819728
0.047182,-0.0231336
0.0249251,-0.0188241
0.00170793,-0.00190724
-0.0150763,0.0180628
-0.0364231,-0.00970371
-0.0530631,-0.0122162
-0.0425145,-0.00470838
-0.0568313,0.00702835
-0.0881866,0.0207486
-0.133629,0.018986
-0.110831,0.00085409
-0.0288103,0.00690612
0.0614481,-0.00225948
0.118176,-0.0350045
0.111322,-0.0265424
0.0904259,0.00567605
0.0564749,0.0265568
0.0112326,0.00521274
0.0352667,-0.0039263
0.0449035,-0.00150533
0.0329461,-0.0131377
0.0384228,-0.0172509
0.0501592,0.00357038
0.0415878,0.0109009
0.0133719,0.0157578
-0.00820843,0.0219198
-0.0199515,0.0219589
-0.0219364,0.0170698
-0.031931,0.000455472
-0.0426514,-0.0205628
-0.0179945,-0.0245535
0.000697089,-0.0185354
-0.0209916,-0.000346945
-0.0415597,0.0293891
-0.0583523,0.0367368
-0.0706056,0.0259517
-0.0475515,-0.0050808
-0.00779451,-0.0365603
0.011286,-0.0471837
0.0119531,-0.00915016
0.0246698,0.00172796
0.031423,1.69e-05
0.02969,0.0385976
0.0122483,0.0296086
0.00250407,0.00202545
-0.00260556,-0.0249272
-0.00604474,-0.0124918
-0.0101257,-0.0177958
-0.0151888,-0.0136444
-0.0165152,0.0112861
-0.0185177,0.00415413
-0.0174005,-0.016075
-0.0102451,-0.0143178
0.004249,-0.00693056
0.0194,-0.0151336
0.0299975,-0.0133502
0.0350525,0.0100507
0.0407539,0.0115013
0.0392095,0.0278433
0.0251217,0.0288105
0.00858978,0.0100476
-0.00516833,-0.000797189
-0.0145881,0.003162
-0.0115987,-0.00878935
-0.0059983,0.000862333
-0.0167592,0.00442991
-0.0351359,-0.0233159
-0.0390953,-0.03829
-0.0307932,0.00221345
-0.021402,0.0209464
-0.0134711,0.00458671
0.0174412,-0.00659546
0.0369015,0.0112601
0.0375174,0.00894859
0.0456963,-0.00494715
0.0283757,-0.00292533
-0.000691529,-0.0217423
-0.0174394,0.0127801
-0.028713,0.0256789
-0.0305603,-0.00867451
-0.0177097,-0.0208661
0.0152135,-0.0176435
0.064015,-0.0044718
0.0609044,0.00366108
0.0212508,0.0292702
-0.0111439,0.0441193
-0.0345902,0.00514417
-0.04842,-0.0153637
-0.0589048,-0.0192251
-0.0665026,-0.00339611
-0.0448015,-0.00161515
-0.0148752,0.00318261
0.0113564,0.0157877
0.0182715,0.0203461
0.0146584,0.0107518
0.017997,0.000994768
0.0302755,-0.0186438
0.0162061,-0.0272305
0.0100668,-0.0200865
0.021392,-0.0130946
0.00306405,0.00276226
0.0122976,0.0211986
0.0114267,0.00925556
-0.000198297,0.00301866
-0.000599539,-0.00736877
-0.00806819,0.00215607
-0.00716003,0.0079063
-0.00689144,0.00271498
-0.00836621,0.00350937
-0.0026672,0.0146556
0.00555451,0.00634088
0.0055744,-0.0131569
0.00630042,-0.00662929
0.00289802,-0.0235808
-0.00135606,-0.0160633
-0.000673277,-0.00199555
0.00529117,0.00048474
0.00898586,-0.0026271
0.000521214,-0.00516286
-0.000806441,0.0242113
-0.00179959,0.00745744
-0.0388732,-0.0221583
-0.139199,0.00269267
-0.148961,0.0227413
-0.0722353,0.0192599
0.00767896,0.0260954
0.0851571,0.0163291
0.148627,0.000187276
0.138574,-0.00720765
0.0578083,-0.047365
-0.00440427,-0.0307471
-0.022521,-0.0119033
-0.0154814,-0.0197061
0.0240513,-0.01156
0.0465111,0.00572027
0.0260703,0.01814
0.0129847,0.0128384
0.0112759,-0.00347931
0.0097709,-0.0251668
0.0154219,-0.0031641
0.0165846,0.00347573
0.010857,0.0187587
-0.0040422,0.027467
-0.0254406,0.00812089
-0.0325303,0.020419
-0.0302556,0.0110025
-0.0300399,-0.013886
-0.0325055,-0.0217604
-0.0364622,-0.00761072
-0.0388978,0.00517236
-0.0250663,0.00972099
-0.00681594,0.0151323
0.00424712,0.0198745
0.0129397,0.0120022
0.0185105,-0.00640834
0.0206609,-0.0104162
0.0247381,-0.00167318
0.0232362,0.00804038
0.0167511,0.0153703
0.00502919,0.0131092
-0.00769633,0.00936542
-0.0172833,0.00331804
-0.0204624,0.00129571
-0.0233438,-0.0331642
-0.0236996,-0.0468545
-0.0294933,-0.0219799
-0.0176055,-0.00687417
-0.00597641,-0.014447
0.00206459,0.00452002
0.00759345,0.0103621
0.0131464,-0.00547975
0.0191413,-0.0394823
0.0201295,-0.017447
0.0273237,-0.00463741
0.0223571,0.00564173
0.0078043,0.0170938
-0.00285668,0.0363433
-0.00994037,0.042621
-0.0131505,0.0222588
-0.0143903,0.00441687
-0.0183082,-0.00329611
-0.0146208,0.00113541
-0.0134376,0.0027619
-0.0144931,-0.0115329
-0.00655458,-0.00838801
0.00441531,-0.0147374
0.0153666,-0.0341621
0.019583,-0.0337299
0.0235059,-0.0105638
0.0241581,0.00333692
0.0238537,0.0142735
0.0281616,0.0272641
0.0297566,0.0392723
0.0255443,0.0425492
0.0132274,0.0308984
-0.0027868,-0.00385675
-0.0132985,-0.0225202
-0.0301249,-0.0095321
-0.0460628,0.00251154
-0.0400187,0.00950605
-0.021627,-0.00979869
-0.00196141,-0.0130061
0.00608837,-0.030364
0.00764782,-0.0408654
-0.0260905,-0.0416562
-0.150043,-0.028216
-0.199774,-0.0159446
-0.0991242,0.0136688
0.026512,0.0487158
0.128014,0.0464657
0.182516,0.0378742
0.185464,0.03083
0.112972,0.00667279
0.0281404,-0.0114124
-0.00981513,-0.0136434
-0.0324757,-0.0288496
-0.0368107,-0.0122019
-0.0243807,0.0245095
0.0125952,0.0277811
0.0230645,0.00321823
0.011196,-0.016391
0.0110607,-0.0255943
0.0155064,-0.017244
0.00819434,-0.0195868
-0.00207909,0.00320813
-0.0134961,0.022249
-0.0235105,0.0256342
-0.0268175,0.0209543
-0.023058,-0.00324272
-0.0262436,-0.0222466
-0.0282459,-0.0165071
-0.0260582,-0.000672063
-0.0146576,0.0159275
0.00368853,0.00990286
0.0120249,0.000236147
0.0115143,-0.0251187
-0.00361765,-0.0296189
-0.00588122,-0.017243
0.0085921,-0.0137936
0.0294369,0.0045948
0.0322522,0.0149358
-0.0168868,0.0202456
-0.0626023,0.00962547
-0.0958167,0.0103409
-0.0950308,0.0230378
-0.0221217,-0.00379802
0.0172648,-0.0270578
0.0329313,0.0118293
0.0380988,0.0026511
0.0445665,0.00878139
0.0390112,0.0167041
0.0136041,-0.0039751
0.00347384,-0.0145003
0.0234363,-0.041294
0.0353789,-0.0362014
0.00998854,-0.00798681
-0.013624,0.00646958
0.000736999,0.0231054
0.0233449,0.0463961
0.033239,0.0451336
0.0364427,0.0190408
0.0311625,0.00267529
0.00483424,-0.0109229
-0.0200141,-0.017934
-0.0406083,0.00235156
-0.0370443,0.0112486
-0.00539351,-0.0124854
0.00268465,-0.0365449
0.0105825,-0.0199858
0.0112115,-0.0261443
0.013615,-0.0402957
0.0158936,0.0129369
0.00505707,0.00724436
-0.0327592,0.0154879
-0.127842,0.0308114
-0.139127,0.0130038
-0.0920413,0.0121442
-0.0225188,0.0176426
0.0442556,-0.0115042
0.0692796,-0.0254897
0.0665831,-0.0498963
0.064808,-0.0120548
0.0522335,0.00795081
0.0308846,0.0110479
0.0230864,0.0422337
0.0216586,0.0321404
0.0305538,-0.00975842
0.0459275,-0.0221623
0.0363484,-0.0127064
0.0212076,-0.00386197
0.0125545,0.0119225
-0.0119814,0.0173853
-0.0201573,0.0222717
0.00389671,0.019496
-0.000298004,0.00938576
-0.0359472,-0.0124412
-0.131884,-0.0160366
-0.155592,-0.00329284
-0.101828,0.0023927
-0.0179233,-0.00392139
0.0600793,0.0028732
0.11341,0.00590854
0.124108,-0.0106442
0.0396142,-0.0278248
-0.0449664,-0.0227984
-0.116598,0.00146946
-0.104964,-0.00290125
-0.0329952,-0.0267029
0.0422983,0.013838
0.0615432,0.04642
0.0619112,0.0327162
0.0564224,0.0252118
0.0703244,0.00506379
0.0456866,-0.0325274
-0.00650161,-0.0415921
-0.0175008,-0.0265946
-0.00222925,-0.0186207
0.00629305,0.00609155
0.012286,0.0139211
-0.0140199,0.0227873
-0.0819296,-0.00158575
-0.0729615,-0.0343664
-0.0162879,-0.0353449
0.0612909,0.00749957
0.116432,0.0357315
0.0871976,0.0525964
0.0300439,0.0491759
-0.0227136,0.0225032
-0.0639876,-0.0324714
-0.0466269,-0.0421575
-0.0262793,0.0129139
-0.0165575,0.00990721
-0.00790809,0.000587285
-0.0170844,0.00119617
-0.0317899,-0.0135165
-0.0276628,-0.0479296
0.0100418,-0.049018
0.0352758,-0.0177001
0.0334897,0.031132
0.0357541,0.0153565
0.0335968,0.0224789
0.0340614,0.0336899
0.0250099,0.0243772
-0.0169467,0.0156968
-0.0469313,0.00735321
-0.0479813,-0.0132259
-0.0440484,-0.0190321
-0.0210655,-0.0101438
-0.0120835,0.00849311
-0.0990544,0.00419056
-0.180354,-0.00691835
-0.148595,-0.0120967
-0.0423488,0.017991
0.0547476,-0.0220383
0.138446,-0.0527678
0.154076,0.00481136
0.15881,0.0296807
0.132232,0.0373403
0.032519,0.0217272
-0.0647222,-0.00830808
-0.0644626,-0.0387256
-0.109979,-0.00523926
-0.126336,-0.0023
-0.0111025,-0.00774776
0.0980958,-0.00514415
0.107719,-0.0117671
0.162566,0.0180959
0.167043,-0.00369512
0.129144,0.0114965
0.0462984,0.0171343
-0.00415969,-0.00188226
-0.082883,0.000306579
-0.0844408,-0.00575978
-0.117164,-0.0163811
-0.171654,-0.0050802
-0.268035,0.0150487
-0.284782,0.000588285
-0.240029,0.0225678
-0.114627,0.00482997
0.089719,-0.0276853
0.223673,-0.0129743
0.212194,0.0113188
0.20212,-0.00305058
0.104232,-0.0107243
0.0271965,-0.0183466
0.00221759,0.0165154
-0.00909171,0.0295478
0.0566518,-0.00311908
0.131213,-0.00704284
0.117437,-0.00277688
-0.00094571,-0.00315745
-0.0314441,0.00243478
-0.00899697,0.0197987
0.0800917,0.0172004
0.109213,0.0132663
0.076327,-0.0134451
0.0264662,-0.0451549
-0.0475051,-0.0312058
-0.153177,-0.00279289
-0.273839,0.0104149
-0.311637,0.0182723
-0.192607,0.0289226
-0.00181224,0.0153646
0.113795,0.0019541
0.130665,-0.0145575
0.157049,-0.0123594
0.159,-0.0319306
0.10013,0.0274799
0.049893,0.0320098
0.0192202,0.0139382
0.00305784,0.0187471
0.0121798,0.00414265
0.00698616,-0.0351267
-0.0338441,-0.0307276
-0.0815177,-0.00721508
-0.103749,-0.00336603
-0.0359044,-0.00437587
-0.00917974,0.0219462
-0.0966805,0.0240306
-0.157022,-0.0152609
-0.0595467,-0.0222228
-0.00358045,-0.0168028
-0.0691767,-0.0412299
-0.168675,-0.016762
-0.0809186,-0.010632
0.0352166,0.0198361
0.138054,0.0551451
0.17675,0.0258441
0.12434,-0.0166718
0.129901,0.020712
0.123163,0.0264208
0.0743469,-0.010892
-0.0222361,-0.0187431
-0.0363866,-0.0251658
-0.0407359,-0.042281
-0.0404308,0.0127779
0.0363624,0.0629783
0.0876959,0.0297629
0.0621328,0.012541
0.0238785,0.012007
-0.0397058,0.00293334
-0.130488,-0.00476155
-0.156387,-0.0197234
-0.106286,-0.0069226
-0.0694053,-0.0111641
-0.023119,-0.027006
0.0129636,-0.0222408
0.0577283,-0.0149048
0.0533879,-0.0111133
0.0541128,-0.00811626
0.0882687,0.0150098
0.0658582,0.0175206
0.0272995,0.0150638
-0.0650077,-0.0107985
-0.166539,-0.0362102
-0.141268,-0.020674
-0.0916197,-0.00665265
-0.0530386,0.0343302
-0.0231649,0.0226353
0.0296715,0.00485494
0.0821815,0.0098268
0.155753,0.0112587
0.186837,0.0130061
0.200422,-0.00325855
0.1313,0.00165476
0.0516994,0.00600204
-0.0180157,-0.00857388
-0.0459175,-0.00482133
-0.021313,0.0276455
-0.0110531,0.0102695
0.00270952,-0.00839404
0.0145697,6.51e-05
-0.00597715,0.0099981
-0.0194087,0.0121752
-0.00150048,0.0191357
0.0245841,0.0222019
-0.057735,0.00630777
-0.309166,-0.0183894
-0.52217,-0.0684575
-0.498577,-0.0886699
-0.157899,-0.0579298
0.238881,-0.00607412
0.452537,0.0505574
0.315727,0.0323903
0.131532,-0.0020402
0.09154,0.0200665
0.0797771,0.0264937
0.0821469,-0.00306052
0.070834,-0.00520511
0.074662,0.00243189
0.0677474,0.00196758
0.027046,0.019171
-0.0218206,0.0243939
-0.05103,-0.000702502
-0.0510627,-0.00127681
-0.023693,-0.0134448
0.00243599,-0.00318995
-0.0282541,-0.0186932
-0.0753372,-0.0180708
-0.0915199,0.0135522
-0.0734889,0.00443117
-0.0452836,0.00118902
-0.0437803,0.00803919
-0.0496234,-0.0414938
-0.021217,-0.0202016
0.0254294,0.000391696
0.0628417,0.0199582
0.0654581,0.0443378
0.0495838,0.00548769
0.0267642,-0.00770039
-0.0221931,0.0180216
-0.0797543,0.0261123
-0.0860971,0.0224824
-0.0254718,-0.00175265
0.0337086,-0.0293231
0.0331041,-0.0451126
0.0352066,-0.0482225
0.0160842,-0.0389314
-0.0764282,0.0157057
-0.11398,0.0189031
0.00835861,0.0289805
0.0950784,0.0227804
0.146819,0.0150095
0.157077,0.00646604
0.0595234,0.022313
-0.060624,0.0551197
-0.0991275,0.0219972
-0.116928,-0.0114176
-0.0487396,-0.0243106
-0.0246394,-0.0443994
-0.0873891,-0.0604242
-0.200238,-0.0195654
-0.443992,0.00016754
-0.475541,-0.0127356
-0.209808,-0.0143455
0.174574,-0.0045556
0.515397,0.0278484
0.565108,0.0234543
0.443742,0.0152248
0.272707,-0.0131176
0.0945513,-0.049266
0.0047706,-0.0243553
-0.00147273,-0.00172687
-0.00230898,0.0115238
0.0138528,0.0545022
0.0310556,0.0232327
0.0155385,-0.0105001
-0.0293798,-0.0214664
-0.0608769,-0.0200432
-0.0657472,-0.0177656
-0.0589731,0.018108
-0.0645516,0.0279119
-0.101603,0.0242024
-0.117259,-0.00291149
-0.083202,-0.0296583
-0.057526,-0.00738314
-0.0267346,0.0252447
-0.0236173,0.0221686
-0.0420006,0.0308366
-0.0243133,0.0348447
0.011034,0.0332403
0.0648942,0.0299775
0.0849491,0.00304436
0.0480453,-0.011518
-0.000523718,-0.00951799
-0.0289454,-0.00871418
-0.0562907,-0.0113476
-0.0660921,-0.0122069
-0.0479538,-0.0062535
-0.0173214,-0.000215829
0.0146834,-0.0108842
0.00657439,-0.0171855
-0.00562783,-0.0247801
-0.00209632,-0.00720778
0.0206347,0.00624936
0.0290294,0.00845147
0.0250616,0.0193981
0.0501178,0.0180885
0.0871851,0.0139413
0.0904098,0.0165196
0.0447046,-0.0105716
-0.0174474,-0.0541782
-0.0529706,-0.057822
-0.0437732,-0.0206483
-0.0238031,-0.00560721
-0.0583708,-0.0167741
-0.0890541,-0.0114664
-0.0786121,-0.00370911
-0.0481566,0.00577329
-0.0402784,0.0308344
-0.0279032,0.0134347
-0.0342936,-0.0369363
-0.00354078,-0.0238547
0.09784,0.00581109
0.164104,0.0234957
0.138753,-0.016942
0.0788698,-0.0116285
-0.0499242,-0.00577855
-0.271278,-0.0127466
-0.268107,0.0132525
-0.0648475,0.0403391
0.134965,0.0376897
0.209446,0.0262958
0.139933,-0.00378844
0.0989923,-0.0110006
0.0335353,0.00927523
-0.0874359,0.00976675
-0.129904,-0.0242609
-0.0968499,-0.00494123
-0.000308343,0.0282792
0.109104,0.0142976
0.169375,-0.024115
0.153589,0.000247311
0.0788936,0.023266
0.0180543,-0.0141954
-0.00317267,-0.0256485
-0.0198113,-0.0312001
-0.0350951,-0.00817682
-0.0559671,0.0225299
-0.0743239,0.000100463
-0.082218,-0.0143775
-0.0592753,0.0317308
-0.03918,0.0325341
-0.0442487,-0.0120955
-0.047047,-0.00783897
-0.0586403,0.0175166
-0.041059,0.0198685
-0.00639278,-0.00963892
0.012764,-0.0066151
0.0372724,-0.0137228
0.0599703,-0.0167266
0.0831206,-0.00823754
0.0861083,-0.00943793
0.0484089,-0.00470756
-0.00675401,0.0144707
-0.108556,0.0259202
-0.136993,0.0234662
-0.0559781,0.00934842
0.0331977,0.00644823
0.0804664,0.000897326
0.064131,0.00681031
0.0221861,0.00988756
-0.00882853,0.0154104
-0.00942922,-0.000389429
0.0296413,-0.00919337
0.0705035,0.00925483
0.0499785,0.00296264
-0.010698,-0.00700842
-0.0100844,-0.00632465
0.0051635,-0.00791591
-0.000629167,-0.00644527
-0.000241373,-0.000158994
-0.00687196,0.000344954
-0.025677,-0.00248551
-0.0299275,-0.00502458
-0.0105239,0.00366575
0.0160447,0.000960677
0.0188676,0.00422591
0.00934419,0.0162316
0.00236875,0.019412
-0.00791748,-0.0111509
-0.0227218,-0.0328713
-0.0346835,-0.0304699
-0.0416,-0.0379292
-0.0470237,-0.0408149
-0.0165821,-0.020638
0.0154796,-0.0213341
0.00505125,-0.0358067
0.0120332,-0.0093718
0.0305476,0.0163644
0.0348475,0.029036
0.0166438,0.0134184
-0.0363537,0.0159312
-0.100781,0.000441158
-0.090775,-0.0197664
-0.0455455,0.0313714
-0.0308521,0.031614
-0.0254308,0.0294423
0.0337799,0.0274882
0.0785824,0.00417528
0.0822881,0.00826622
0.0584343,0.0179282
0.0434069,-0.0129706
0.0494121,-0.0165531
0.0197522,0.0158882
-0.0264764,0.00512127
-0.0389492,-0.00415258
-0.0528623,-0.00727995
-0.0536065,-0.000601211
-0.00703893,-6.65e-05
0.0662571,-0.00225197
0.104796,0.00141764
0.084077,0.00439612
0.0501829,-0.00351438
0.0366233,-0.0061371
0.0237615,-0.0132283
0.00428071,-0.0202922
0.0017769,-0.0190777
0.00337079,-0.0106358
-0.0119942,-0.00473991
-0.0271527,0.000224785
-0.051212,0.00682602
-0.0782666,0.0382818
-0.109788,-0.00249135
-0.151298,-0.043518
-0.177264,-0.0080384
-0.178365,0.0090908
-0.0833815,-0.000565945
0.0412727,-0.00244946
0.0296992,-0.00769777
-0.00111914,-0.00905987
0.0780505,0.0111663
0.163976,0.0181033
0.221616,0.00844868
0.165998,0.0142738
0.0552381,0.0200164
0.0255375,0.0180869
0.00457122,0.0187595
-0.0234519,0.0106058
-0.00636365,-0.0044254
-0.0369662,-0.0197272
-0.0282701,-0.0171281
0.0161779,-0.00717747
0.0542418,-0.00157591
0.0593167,0.00709572
0.0164857,0.0134038
-0.00562254,-0.00157434
-0.000850706,-0.0245384
-0.0257708,-0.0224632
-0.0612849,-0.0332549
-0.069372,-0.0240559
-0.0494259,0.00665394
-0.0204497,0.02225
-0.0171294,0.0267293
-0.0110832,0.0152547
2.62e-05,0.0245787
-0.000301484,0.0103506
0.0168967,0.00414716
0.039338,0.0132558
0.0415109,0.0180033
0.037522,0.0126643
0.0197251,0.00419451
0.0105296,-0.00407604
0.00584878,-0.00853052
-0.022903,-0.00797002
-0.0613879,-0.0204215
-0.138678,-0.0325681
-0.167292,-0.0288163
-0.0995711,-7.51e-05
-0.0200999,0.0121194
0.0112859,0.0098451
0.0577643,0.0031864
0.0824574,0.0132396
0.0684655,0.00328983
0.0398723,-0.021117
0.0275425,-0.00668785
0.0571075,-0.0165324
0.0596329,-0.0462307
0.02834,-0.0681793
0.0553867,0.0224414
0.0810261,0.0674303
-0.0106933,0.0294658
-0.0972958,-0.000763634
-0.0932498,-0.00698351
-0.0400737,-0.00860651
0.0159744,0.0117027
0.0329842,0.00719845
0.0378098,0.0046109
0.0277105,0.019594
-0.0133676,0.0146271
-0.0298029,-0.00751515
-0.0351774,-0.0126874
-0.0290503,0.00341666
-0.00907827,0.0106856
0.00295262,0.000255731
0.0217784,-0.00133039
0.0250054,-0.00632277
0.00883783,-0.00515398
-0.00869044,-0.000415749
-0.00408483,-0.00683279
0.00420942,-0.0110393
-0.00926127,-0.00443663
-0.0114126,-0.00684321
0.000730893,-0.00108631
-0.00114397,0.0156926
-0.0021734,0.0158959
-0.0107583,0.00516244
-0.011957,-0.0137362
0.000134216,-0.0217996
0.0190075,-0.0244123
0.00989415,-0.0129269
-0.0104422,0.0400868
-0.0342034,0.0346605
-0.0368731,-0.000290996
-0.0137667,-0.0017849
-0.00672784,-0.00234136
0.00951301,-0.00703273
0.0129087,-0.00174672
0.00936939,0.00921656
0.0109245,0.00449007
0.0245464,-0.000900049
0.0309686,0.00771391
0.0166112,0.0120617
0.0151859,0.000809859
0.0272279,-0.00776059
0.0215745,-0.0036163
0.0133735,-0.0147946
0.0108371,-0.0135212
0.010949,-0.0107462
0.0137034,-0.00603482
0.0258071,0.00486531
0.028461,0.00224937
0.0239486,-0.00778687
0.0196968,-0.0112932
0.00955832,0.000420171
0.00912574,0.0169206
-0.0795103,0.0265429
-0.2104,0.0245036
-0.231072,-0.0035297
-0.144683,-0.00677315
-0.0162068,-0.0119087
0.0716669,-0.0054151
0.0518742,0.00916469
0.0194721,0.0087786
0.0116605,-0.00327702
-0.0523515,-0.0130933
-0.0876509,0.00441533
-0.0103138,0.0203808
0.0880134,0.0073296
0.156604,-0.0151694
0.173321,-0.0136819
0.141987,-0.0161448
0.0932144,0.00680996
0.0388375,0.0214878
0.0648645,0.0119893
0.0746859,0.010838
0.035786,0.00875745
-0.000692062,-0.00965611
-0.0175804,-0.0191149
-0.0221333,-0.0166064
-0.0456564,-0.00801884
-0.0529307,-0.00502653
-0.0462511,-0.0017699
-0.0651479,0.000805621
-0.0828993,0.00607951
-0.0881883,-0.0126517
-0.0770803,-0.0232685
-0.0759903,-0.0176576
-0.0951163,0.00124262
-0.0770257,0.0267133
0.0101843,0.0138342
0.060745,0.010068
0.0652713,0.0129765
0.0788191,-0.0091809
0.0832042,0.000274093
0.0584139,-0.00210977
0.0140562,-0.0171593
-0.0141423,-0.0102762
-0.0193038,-0.0123497
0.000927955,0.00861164
0.0295648,0.0176594
0.0290153,0.0235212
0.017254,0.0158936
0.00746933,0.00115856
-0.00804453,0.00755001
-0.00651632,0.00676868
-0.0064721,0.000180387
-0.01749,0.00145018
-0.0434495,-0.0118699
-0.0622097,0.00387875
-0.0642858,-0.00399679
-0.0440443,-0.0211533
-0.0162238,-0.00622787
0.0178493,-0.00691565
0.0433228,0.00514776
0.0266439,-0.00889793
0.0155599,-0.00326314
0.015163,0.00154156
0.0282244,-0.00434748
0.0188193,-0.00671806
-0.0111405,-0.0171468
-0.0255736,-0.0037833
0.00449108,0.00436462
0.0260011,-0.00303483
0.0189054,0.00326385
0.00365351,0.012632
0.00200968,0.0115576
0.00921446,-0.00713341
0.0113099,-0.0271123
0.00850148,-0.0185956
0.0073766,0.000959732
-0.00395857,0.00764287
-0.0233014,0.00468051
-0.0145659,0.0136667
-0.0067696,0.0375847
-0.00399997,-0.00030833
0.0166091,-0.0392557
0.0390936,-0.00560921
0.0122182,0.0266708
-0.0255767,0.0150574
-0.0342727,0.0108136
-0.0374616,0.0237301
-0.0591292,0.0245354
-0.0393963,0.00488809
-0.00453812,-0.0121586
-7.4e-05,-0.00696145
0.00871397,-0.0080393
-0.00899568,-0.0164843
-0.0616805,-0.0218555
-0.0691612,0.014487
-0.00232213,0.000869014
0.0656164,0.00395895
0.0871335,0.0163598
0.117149,-0.00315023
0.1091,-0.00767279
0.0166448,-0.00299301
-0.070342,-0.00558741
-0.0601442,0.00689769
-0.0176637,0.0142877
0.0222446,0.00206143
0.0660827,-0.0263125
0.0787419,-0.0217616
0.048275,-0.00915786
-0.00195679,-0.00871204
-0.08188,-0.0251853
-0.114259,0.00348854
-0.0537569,0.00910217
0.0200701,0.0212658
0.0644229,0.0106686
0.0762917,-0.00766756
0.0433487,-0.00950262
-0.000802772,-0.00133352
-0.015671,0.00307753
-0.0216205,0.00440662
-0.0330482,0.0188255
-0.0317829,0.0264976
-0.0216722,0.0193018
-0.00895131,0.000882239
0.00458864,-0.00655682
0.0296869,-0.010433
-0.0129639,-0.00795104
-0.136041,0.0012858
-0.13973,0.0014387
-0.0474519,-0.0011839
0.0273497,-0.00346698
0.0637785,-0.0169779
0.0780392,-0.0226401
0.0575258,-0.00312521
0.0456013,0.00657902
0.0475846,-0.000177866
0.0227522,0.00417434
0.00910266,0.0213849
0.0167068,0.0408306
0.0314798,0.020789
0.0119667,-0.0178363
-0.0210926,-0.0288098
-0.0241479,-0.0277257
-0.0109532,0.00483605
0.00129623,-0.00389902
-0.0163223,-0.00338163
-0.0421046,0.0226272
-0.0602204,-0.00122813
-0.0537368,-0.0289598
-0.0359926,-0.00922886
-0.0564543,0.0118739
-0.0494346,0.0101843
-0.0319813,-0.00188632
0.00770906,-0.00593763
0.0820946,0.00763306
0.0993602,0.0110626
0.0890215,-0.00238712
0.0746216,-0.0199098
0.052855,-0.0299888
0.0248458,-0.00378892
0.0104412,0.00894112
0.01629,0.033041
0.01005,0.0301898
-0.0112147,0.000874595
-0.0277005,0.00184458
-0.0345015,-0.00865822
-0.0432848,-0.0174406
-0.0439365,-0.00794759
-0.0348016,-0.000244001
-0.0374376,0.00558445
-0.0250353,0.0193065
-0.00355454,0.0275156
0.00935551,0.0121962
0.0169745,-0.00544475
0.0159092,-0.010103
0.00496205,-0.00932803
0.005257,-0.00649969
0.0113048,0.00146779
0.0145288,0.00620064
0.0141088,-0.00450648
0.00432452,-0.0182554
-0.00615664,-0.0183143
-0.000170806,-0.0253504
0.00733789,-0.0183754
0.0113195,0.00585588
-0.00761805,0.00753361
-0.0524234,0.00728064
-0.0556967,0.0216409
-0.0259576,0.0186251
0.00765029,-0.00230967
0.0290228,-0.00782227
0.028074,0.00403281
0.0146993,0.00961823
-0.00787778,0.00340636
-0.00439782,0.00416124
0.0120956,-0.00698884
0.00524204,-0.0114839
-0.0260966,-0.0128908
-0.0282715,-0.0199406
-0.0182632,-0.0123672
-0.0620759,0.000883956
-0.044743,0.0148688
0.00115953,-0.00537646
0.049893,-0.0111804
0.0787062,-0.00184064
0.0795632,0.0395978
0.074722,0.0155174
0.0508279,-0.0131119
0.009416,0.0040898
-0.00539466,0.00738498
0.00777969,-0.0187443
0.0128081,0.000814257
0.00250647,-0.0184834
-0.0197931,-0.0253192
-0.0522244,0.0143333
-0.0763966,0.0216727
-0.0698633,-0.00910049
-0.016906,0.0135549
0.0382182,0.0300877
0.0625655,0.00952199
0.0273369,0.010298
-0.0176388,0.0176558
-0.0344716,0.0106675
-0.0620249,-0.00830796
-0.0956182,-0.0138551
-0.0524248,-0.00635819
-0.0221946,-0.00574278
-0.00668535,0.000575168
0.0229548,0.00752825
0.0699666,-0.00484021
0.0966351,-0.0162637
0.0337663,-0.0147643
-0.0052749,-0.0255709
0.00678061,-0.0282502
0.0319737,-0.00991964
0.0454167,-0.00516075
0.0300062,0.0418417
0.0324038,0.0325572
0.0431356,0.0164346
0.0364132,0.00886802
-0.0220393,-0.0131425
-0.047769,-0.0191241
-0.0395096,0.0125314
-0.0501399,0.00247067
-0.0566328,-0.0157932
-0.0386404,-0.00510085
-0.0202964,0.0356178
-0.083016,0.0116908
-0.0937344,0.00985047
-0.0332663,-0.0147354
0.0342427,-0.0309073
0.098591,-0.0015089
0.10752,0.000703842
0.0551812,-0.00643561
0.00296419,-0.00080481
-0.0024902,0.00816867
0.0035152,-0.000673109
0.0113089,-0.0159476
0.0251977,-0.00573998
0.0284197,0.000792665
0.0218437,0.00780481
0.0199936,0.0149736
0.0222354,0.020291
0.0151118,0.00672389
-0.000553641,-0.00738715
-0.0124179,-0.0194567
-0.0187876,-0.020022
-0.025059,-0.0061655
-0.0216813,-0.00603258
-0.0287998,-0.0020149
-0.0261397,0.00737985
-0.0589193,0.0220085
-0.143878,0.0122972
-0.140752,-0.00847304
-0.0313209,-0.0174135
0.0193905,-0.00689583
-0.00457957,0.00985459
0.000180691,-0.00860287
0.0362517,-0.00914605
0.0847015,0.00681586
0.110272,0.010192
0.0971487,0.0112519
0.0862781,0.00651413
0.0564991,-0.005373
0.0169634,-0.0100441
0.0119516,-0.00299264
-0.0129367,0.000294698
-0.0275047,0.0121957
-0.0184747,0.0249976
-0.0115097,0.0141909
-0.0276239,-0.0124096
-0.0320889,-0.0287431
-0.00381983,-0.0164859
0.0158204,0.0183134
-0.00597861,0.00796498
-0.0134992,-0.0046369
-0.00561159,0.0125815
-0.00596976,0.00443301
0.00232314,-0.00372959
0.00861435,-0.0138419
0.0175311,-0.0160872
0.00452606,-0.00439202
-0.00194585,-0.00202641
0.0107765,0.00484244
-0.00518205,0.00641018
-0.0398719,-0.00110864
-0.0952251,-0.0166944
-0.0919035,-0.0295623
-0.0407584,-0.0163043
0.00702028,0.00896301
-0.0101287,0.010776
-0.00514679,0.00799996
0.051474,0.00963081
0.0326839,0.0184682
-0.0237096,0.0179262
0.0141205,-0.0068525
0.0907322,-0.0197993
0.121932,0.00792862
0.0372745,0.0131114
-0.0399777,-0.0172532
-0.0963411,0.0107271
-0.0864121,0.0337631
-0.0161657,0.0217957
0.0429742,0.00144791
0.065078,-0.0215415
0.0723807,-0.0122722
0.0501285,-0.0227664
0.00554464,-0.0117663
0.0163177,0.0157182
0.0279823,0.0413848
0.017667,0.0131769
0.00548109,-0.0131116
-0.00812786,-0.0181174
-0.050227,-0.0459026
-0.0721745,-0.020144
-0.104191,-0.0309707
-0.167866,0.00762688
-0.127725,0.0481163
-0.0468461,0.0252582
0.0694802,0.0106237
0.145539,-0.00273639
0.164977,-0.00130516
0.144892,-0.00129357
0.0861316,-7.56e-05
0.0314573,0.00954369
-0.00472741,0.0159451
-0.0184166,0.00771091
-0.0260814,-0.00366174
-0.0181051,-0.0124547
-0.017181,-0.0132377
-0.0823545,-0.00629943
-0.103264,0.00824243
-0.0602024,0.0145896
-0.00387368,0.0233188
0.0435033,0.00641679
0.0523144,-0.0108562
0.0202149,-0.00503738
-0.00709174,-0.00314653
-0.0348438,-0.0059147
-0.0458144,-0.0202334
-0.0100387,-0.00906505
0.0165894,0.0186077
0.0195719,0.0217509
0.0144714,-0.00320658
0.0144515,-0.0192052
0.0107376,-0.0178208
-0.00235579,-0.0252881
0.0178632,-0.0126817
0.0169687,0.00340619
0.00746805,0.00180849
-0.005644,0.00446569
-0.00574284,0.0118199
0.00343227,0.00486486
-0.000760825,-0.0132633
-0.010957,-0.0176113
-0.000383487,-0.00581391
0.0195175,0.00758792
0.00997971,0.0138018
-0.00934811,0.0186787
-0.0491764,0.0260234
-0.0590309,0.0325647
-0.0752754,0.00561061
-0.0543767,-0.00641106
-0.0229872,0.00393135
0.0189438,0.0084588
0.0312816,-0.0291435
0.0357094,-0.0657353
0.0483624,-0.00867205
0.0358004,0.0031232
0.00240112,-0.0404037
-0.0290804,-0.0200039
-0.0333331,-0.00381843
0.0111652,-0.0174161
0.07202,0.00758649
0.0779781,0.0275788
0.0412197,0.0301132
0.01785,0.0362009
0.0170184,0.0273711
0.0193731,0.0125558
0.01658,0.00410444
0.00732097,0.0020041
-0.0158023,0.00135194
-0.0186624,0.0067859
-0.0169426,0.00588711
-0.0695374,-0.014928
-0.128268,-0.027052
-0.167705,-0.0306883
-0.137337,-0.0231424
-0.0475098,-0.00643511
0.0604866,0.00037882
0.14806,0.0129788
0.144896,0.0310433
0.085187,0.00463252
0.0489966,0.0216817
0.020913,0.0307621
0.00935011,0.00186065
-0.00626106,0.00075544
-0.00141229,-0.00169916
0.0156836,-0.0081568
0.0212673,-0.00334477
0.0183688,0.00400228
0.0253933,-0.00484078
0.0406793,-0.0261371
0.0241405,-0.0284284
-0.00754895,-0.020691
-0.033593,-0.00839023
-0.0477872,0.00198529
-0.0911305,0.00184318
-0.121663,0.0197869
-0.106923,0.0268711
-0.0444539,0.0210445
0.0361335,0.00645735
0.0749079,-0.0127583
0.0844007,0.00547685
0.0808951,0.0125675
0.0214062,-0.00220287
-0.0402089,-0.000394641
-0.0453893,0.0025002
-0.0358223,-0.00493372
-0.0371371,-0.0484407
-0.00943317,-0.044402
0.0196452,0.00971833
0.0258204,0.0149497
-0.0127793,0.0231213
-0.0132988,0.0305705
0.020339,0.0203048
0.0358876,0.0151352
0.0293761,0.0138646
0.0272572,-0.00380285
0.0227223,-0.0147438
-0.00425159,-0.00281244
-0.023482,-0.0178702
-0.0220199,-0.0275231
-0.0133532,-0.0119611
0.00458437,0.000603509
0.0294633,0.00363836
0.0405643,-0.0124538
0.03385,-0.0087994
0.0255777,-0.00395958
-0.0171574,-0.0021921
-0.0533835,0.0138171
-0.0649983,0.0213163
-0.0449792,0.0211967
-0.0163967,0.0159966
0.0127049,-0.00569622
0.0195891,-0.0258055
0.00215818,-0.0180926
-0.0139099,0.00528259
-0.00622442,-0.0102666
0.00814451,-0.0243585
0.0165675,0.0307848
0.0180713,0.00867622
0.0320701,-0.0143224
0.0283098,-0.00404865
0.0263236,0.00582536
0.00949573,-0.00909022
-0.025909,-0.00975961
-0.0491219,0.00300451
-0.0190506,0.0138287
0.0136109,0.0155875
-0.0117426,0.0277756
-0.0189438,0.0201674
-0.00225724,-0.00135959
-0.0163995,-0.0187076
-0.0392512,-0.00340613
-0.0627566,0.0035556
-0.083153,-0.0124375
-0.0624133,-0.0195279
0.0136544,0.0148957
0.0540318,-0.000617935
0.0516462,-0.0117695
0.0705145,-0.026405
0.0920741,-0.00827693
0.0758324,0.00337074
0.0433977,0.00478544
0.0311818,0.0167165
0.0388674,0.0273416
0.0365549,0.0151551
0.0149165,-0.00675697
-0.0127884,0.0035915
-0.0304185,0.0160051
-0.0407378,-0.00461346
-0.0492553,-0.0101368
-0.0450586,-0.00751905
-0.0509083,-0.00696502
-0.0316502,-0.0212866
-0.0300163,-0.0271746
-0.134021,-0.00509623
-0.141042,-0.00563549
-0.0376953,0.00479696
0.0778489,0.0166598
0.154941,0.0248775
0.160707,0.0183026
0.0962574,0.0103044
0.030107,0.0010479
-0.0366739,-0.00956183
-0.102932,-0.00863941
-0.096979,-0.000467286
-0.0461999,-0.000695497
0.0125939,-0.00240513
0.0580647,0.00236186
0.0697241,0.00147835
0.036219,-0.00707501
0.0144883,-0.0110088
0.0286557,-0.000814631
0.0322322,-0.00305888
0.007627,0.0051392
-0.00862845,0.00982619
0.00210167,0.0131108
-0.000418748,0.0168238
-0.00839681,0.0185776
-0.00942257,-0.0053379
-0.00871629,-0.0227039
-0.0130628,-0.00996608
-0.0199442,-0.00100786
-0.0200655,-0.0124107
-0.0259173,-0.00741165
-0.0358266,0.0147084
-0.0482623,0.00804689
-0.0414447,-0.0107244
0.00704384,-0.0093939
0.0373682,-0.0022527
0.0414228,-0.0105069
0.0396394,-0.00421334
0.012498,0.0112641
-0.0208205,0.0143794
-0.0489388,0.018393
-0.035734,0.00078952
-0.0181581,-0.0180646
0.0113883,-0.00915908
0.0348949,-0.0030119
0.0566022,0.00315088
0.0661945,0.0178585
0.0652057,0.00499034
0.0376717,-0.000162532
-0.00407089,0.000201478
-0.0545351,-0.0120883
-0.127168,-0.0184388
-0.1446,-0.0122642
-0.102981,0.00801133
-0.00460124,0.0100187
0.0754672,0.0101909
0.102572,0.0066869
0.0724081,-0.00175128
0.0248515,-0.0280277
-0.00261687,-0.0363797
0.00146164,-0.00120798
0.00706519,0.032693
0.0152119,0.0194394
0.0119087,-0.00781173
0.0115127,0.00934188
0.0297153,0.0159757
0.044758,-0.0165467
0.0261484,-0.0251436
-0.0240942,-0.000458015
-0.0662964,0.0134198
-0.0593439,0.00451708
-0.0481986,0.00119241
-0.0275189,-0.0167674
0.0036046,0.00319352
0.029985,0.0197112
0.0389774,0.0020542
0.0322211,-0.00722222
0.00883216,-0.000729598
0.00863515,0.00937894
0.0195273,0.0166064
0.0190678,0.012134
-0.0187534,-0.00956858
-0.0754741,-0.00782069
-0.129318,-0.00608727
-0.140161,0.000875995
-0.0455385,0.0215632
-0.00889546,0.011861
0.0155392,0.0030125
0.0668413,0.00236575
0.109865,-0.00394748
0.122948,0.0104548
0.0915959,0.00999217
0.0273749,-0.00997929
0.0219196,-0.0094763
0.050033,-0.0180532
0.036873,-0.0255889
-0.00378117,-0.0158259
-0.0156307,-0.00227921
-0.00968708,0.0284855
-0.0424566,0.012736
-0.0486985,-0.00847571
-0.0435682,0.00783751
-0.0452119,0.00160175
-0.0829904,-0.0180814
-0.148636,-0.0169554
-0.132885,-0.0158199
-0.051219,-0.0265132
0.0582033,0.0187063
0.117549,0.00732667
0.127126,-0.026921
0.0793782,-0.00396181
0.0230456,0.0239551
0.013443,0.0157147
0.0212363,0.00949082
0.022305,-0.00204021
0.0291682,0.00150797
0.0484936,0.0111225
0.0537542,-0.00472609
0.0437639,0.00374841
0.0214682,0.00495246
-0.0106459,-0.00127095
-0.0251549,0.0158988
-0.0313404,0.0166596
-0.0439471,0.000912776
-0.0525458,-0.00302906
-0.0555096,-0.0181136
-0.0611703,-0.028393
-0.0462754,-0.0191892
-0.0190226,-0.00210674
0.00762776,0.00521906
0.02542,0.00521127
0.0277486,0.00519682
0.0143751,-0.0036663
-0.00750462,-0.0108561
-0.0089423,-0.00620088
-0.0135492,-0.0118212
-0.015028,-0.0117532
0.000688818,0.0217036
0.0129426,0.035739
0.0253269,0.0191792
0.000431515,0.0181975
-0.0162519,0.0121408
-0.00640197,-0.00828244
0.00155867,-0.0106815
-0.00558469,-0.00857107
-0.00660827,-0.00524514
0.00366788,0.00447072
0.0173917,0.0101692
0.0232773,0.0139779
0.0338035,0.00275724
0.0397824,-0.022144
0.0287357,-0.0178348
0.0166058,-0.00492321
0.00334849,-0.00208604
-0.0106217,0.00215055
-0.00287522,0.0111873
0.0152842,0.0131873
0.000210479,0.00820421
-0.0316342,-0.0031032
-0.0279672,-0.0089449
-0.0224204,-0.00442021
-0.0104711,0.00258719
0.00305272,0.00444813
-0.000556328,0.0121759
-0.0326521,0.019465
-0.0545707,0.00559612
-0.0200814,-0.0117557
-0.0601483,-0.0180747
-0.126912,-0.0174703
-0.145907,-0.0418206
-0.112997,-0.0456157
0.00915964,0.00461409
0.0663238,0.0300009
0.0779397,0.017923
0.101126,0.00261959
0.102911,-0.00127745
0.127541,0.00351375
0.111895,0.00319745
0.0487437,-0.0134462
0.0460487,-0.000471714
0.0472212,0.0120644
0.0442636,0.0191628
0.0469265,0.0168985
0.0440163,-0.000590915
0.0304624,-0.00277692
0.00688364,0.00976362
-0.010011,0.00758314
-0.0191106,0.00464482
-0.036282,0.00651929
-0.0592743,-0.00172781
-0.0682389,-0.00688007
-0.0666522,-0.0085856
-0.0550276,-0.0141515
-0.0383513,-0.0259304
-0.0382877,-0.0172568
-0.0554023,-0.0101057
-0.0590829,-0.0255865
-0.0524155,0.0306504
-0.0404505,0.0348379
-0.0421237,0.00859193
0.00409511,0.019076
0.066608,-0.00519398
0.0752002,-0.00909135
0.0435572,0.010653
0.0293109,0.0207701
0.00729669,0.0101769
-0.0171081,-0.00443539
-0.0264308,-0.00614296
0.000547095,-0.0153831
0.0321248,-0.0496705
0.0358899,-0.020195
0.023184,0.00454296
0.0311955,0.0010092
0.0187754,0.0034384
-0.0156991,0.0105341
-0.0108476,0.0108639
0.0208952,-0.0119757
0.039947,-0.0193878
0.0438457,0.00442588
0.0423347,0.00741947
0.00598073,0.0118068
-0.0576004,0.0114585
-0.101553,-0.00615359
-0.096446,-0.0121517
-0.0687183,0.000148559
-0.0404052,0.00851658
-0.00493701,0.00999884
0.0137395,0.0191375
0.0194181,0.0143289
0.0343914,0.00502756
0.0606043,-0.00505625
0.0548117,0.00371868
0.0388558,0.0164026
0.0497018,-0.0083321
0.0423882,-0.0161018
0.0373835,-0.00987108
0.016084,-0.00662116
-0.00901742,-0.00338599
-0.0242278,-0.0226385
-0.0502596,0.00167856
-0.0603836,0.0241249
-0.057175,0.0156936
-0.0755122,-0.0103848
-0.0769319,-0.0244713
-0.0576773,-0.00193392
-0.0236399,-0.00262608
-0.0187383,-0.00652335
0.0065019,0.0114431
0.0501661,0.0224227
0.0890131,0.0022958
0.120734,-0.00146311
0.113581,-0.00384711
0.0673035,-0.0024782
0.0458502,-2.98e-05
0.0449753,0.000602982
-0.00920039,0.00687132
-0.105433,0.0210631
-0.143154,0.0168184
-0.0870861,-0.0132749
-0.0319039,-0.0263631
0.00649245,-0.0283461
0.0251708,0.0165276
0.0376058,0.0209378
-0.0719708,0.01256
-0.165299,0.0100132
-0.112856,0.0102476
0.00945839,0.0107062
0.141523,-0.0183262
0.183055,-0.0207151
0.148021,-0.0178387
0.0867171,-0.018848
-0.0155761,-0.00716545
-0.11262,0.00631308
-0.111395,0.0103733
-0.0278929,0.00434242
0.0311051,-0.0152804
0.0740409,-0.0238391
0.0923669,0.00618494
0.0525223,0.0153025
0.00940165,-0.00150673
-0.00855793,-0.00147753
-0.0155369,0.00387409
-0.0152529,0.00368056
-0.00692875,-0.0032747
0.00230888,-0.00647495
0.004268,0.00714673
-0.0113642,0.00719356
-0.0236597,0.0065672
-0.0164466,0.0133835
-0.0153316,0.00701435
-0.0135827,0.000962294
-0.01235,1.75e-05
-0.00883534,-0.0142425
-0.0162102,-0.0154217
-0.0227912,-0.00187116
-0.019163,0.00300753
-0.00994997,-0.00304104
0.00179966,0.0029562
0.00793315,0.0166633
0.0148039,-0.00806541
-0.017247,-0.0189479
-0.0623727,-0.015753
-0.045401,-0.0144114
-0.0290611,0.00293698
-0.026655,0.0234164
0.00105793,0.01723
0.0394751,-0.000731432
0.0425183,0.00176494
0.0142361,0.0137658
0.0035236,-0.000202974
0.0175221,-0.00130438
0.00795468,0.00494591
0.00424202,0.00566263
0.0221855,0.0113926
0.0489869,0.0131222
0.0628473,0.00922376
0.044347,-0.00512896
0.0166431,-0.0141424
0.0101505,-0.00630477
0.004488,-0.00845149
-0.00643858,-0.00364625
-0.0191639,0.00491389
-0.0447186,0.0106249
-0.0375585,0.0029801
-0.0327497,-0.0151454
-0.0294203,-0.0164183
-0.0621889,-0.019302
-0.0915422,-0.00984531
-0.0168618,0.00620975
0.0071308,0.0197729
-0.0603207,0.0224375
-0.0475879,0.00896007
0.00965991,-0.00333794
0.078441,-0.0254616
0.152783,-0.0175051
0.13743,-0.0112204
0.0668417,-0.00460206
0.0278019,0.0222831
-0.0109025,0.0138127
-0.0361006,0.000815396
-0.0129965,0.00169417
0.00496796,-0.00267348
0.0168062,-0.0118899
-0.000474531,-0.00460057
-0.0329824,0.00386457
-0.0440306,0.00945832
-0.0270365,0.0132339
-0.00870286,0.0107464
0.030853,0.00686868
0.0352104,0.00317605
-0.037214,-0.0211652
-0.0815355,-0.0165576
-0.0458581,-0.00417952
-0.0137359,-0.0192725
0.00197007,-0.00687848
0.014412,0.0155608
0.0333462,0.0148669
0.0202501,-0.00820664
0.0178726,-0.00531897
0.0295661,-0.0159749
0.0373913,-0.0114128
0.0207004,-0.00888888
-0.0118224,0.0251751
-0.0357247,0.0283123
-0.0322114,0.0200764
-0.00800884,0.0160073
0.019142,-0.00395731
0.013953,-0.0132041
0.0119578,0.00302817
0.0071145,-0.00352046
-0.0208616,-0.000317587
-0.0593596,0.00723175
-0.11204,0.0137677
-0.111477,0.00242472
-0.0714868,-0.00574071
0.0203064,-0.00788609
0.065147,-0.0124456
0.0576666,-0.00133926
0.0528199,0.0102363
0.0844493,0.00517287
0.0882693,0.0062582
0.0472827,0.00884441
0.0166399,-0.00117455
-0.0189466,-0.0130225
-0.0474224,-0.0151643
-0.0447699,-0.0106562
-0.00889094,-0.00396164
0.0241077,0.00364914
0.038249,0.0149301
0.0373537,0.0105025
0.012602,-0.0105893
-0.0312002,-0.0319265
-0.0395912,-0.0178243
-0.0356181,-0.0106835
-0.0264729,-0.00824502
-0.00018311,0.000949812
0.021851,-0.00344596
0.0184085,0.00384255
-0.00303628,0.0174074
-0.0401196,0.0165555
-0.0361891,0.00108488
-0.00896185,-0.00993953
0.0168681,0.00400144
0.03134,0.00400902
0.0559794,-0.000599642
0.0656276,0.00594913
0.0312219,0.00442445
0.00340691,0.00280191
-0.0135203,-0.000199583
-0.0336569,-0.00951586
-0.0330098,-0.0111977
-0.0280899,-0.00358338
-0.0185837,0.00369983
-0.0161409,0.0099921
-0.0187258,0.0163323
-0.0151605,0.0142093
-0.0197569,-0.0023438
-0.0100401,-0.011694
0.0104472,-0.00165897
0.0089288,-7.79e-05
0.0011558,-0.0003405
0.00111333,0.00187498
0.0193193,0.0130743
0.0282156,0.0047968
0.0307966,0.00479235
0.0281246,-0.00477601
0.0165792,-0.0217472
0.00526491,-0.00130133
-0.0183719,0.0058227
-0.0776114,0.0282985
-0.11969,0.0180999
-0.0950954,0.00322948
-0.0348843,0.0023527
0.0384081,-0.00444948
0.115621,-0.0104264
0.128202,-0.00511861
0.0682908,-0.00410772
-0.0120218,-0.0141189
-0.0314056,-0.00898168
-0.00936009,0.00559653
0.00952857,-0.000364549
0.014296,-0.00665279
0.019127,-0.0245428
0.0170149,-0.0229908
0.00898398,0.00743198
0.000534801,0.00545899
0.00569751,0.0034275
0.017593,0.0185121
0.0160804,0.0227436
-0.0137255,0.0112056
-0.0251449,-0.00785032
-0.0270303,-0.0189379
-0.0293416,-0.0176858
-0.0177114,-0.0180804
-0.0283674,-0.000488907
-0.0571236,0.00724922
-0.0333286,-0.00129356
0.000592033,0.010926
0.0132197,0.0110401
-0.00632298,-0.000532792
-0.0312031,-0.00726349
-0.0230493,-0.00297453
0.00620062,0.00142949
0.0665029,0.00804492
0.0892075,0.0182819
0.0570815,0.0183751
0.0372127,0.00510833
0.0337382,-0.0170079
0.0263529,-0.0305097
0.0234132,-0.00417422
0.00945908,0.0133251
-0.0313086,0.0127599
-0.0997689,0.01191
-0.147375,0.0157916
-0.147275,-0.0172806
-0.0986202,-0.0231671
-0.00035667,0.000115298
0.0282736,0.00126579
0.0218607,0.0138006
0.0649125,0.00431605
0.0953392,-0.00704908
0.0479039,0.00816058
0.0148181,0.00522167
0.0718831,-0.0100913
0.0830036,-0.00383751
0.0336942,-0.0108372
0.00790423,-0.00901166
-0.00875022,-0.0070096
-0.0281846,0.00062304
-0.0195432,0.0160119
-0.00534161,0.0134371
-0.0159712,-0.00360956
-0.027713,-0.0226697
-0.0228405,-0.0228686
-0.0199835,-0.00378808
-0.0491169,0.00534844
-0.0608807,0.00575289
-0.0140763,0.0130528
0.0204597,0.0203577
0.0472894,0.0168216
0.0486659,-0.00649488
0.0423209,-0.010464
0.0404222,0.0102043
0.0345862,0.0112471
0.00695054,0.00939844
-0.00620632,0.00483352
0.00141888,0.00202735
-0.0105747,0.00728693
-0.0172762,-0.00461965
-0.0155725,-0.0235254
-0.0303881,-0.0197446
-0.0798494,0.000685234
-0.0810709,0.00718553
-0.0479395,0.00677014
0.00238591,0.00081104
0.027398,-0.00849452
0.0366743,-0.0216129
0.0344767,-0.0304364
0.0247621,-0.0141487
0.0204533,0.00651545
0.0133306,0.009652
0.0243579,0.0190925
0.0241631,0.00757963
0.0118426,0.0117036
0.0217486,0.0278305
0.0261958,0.0067852
0.0119609,-0.0179286
0.006432,-0.0139696
0.00531517,0.00580266
-0.00721583,-0.00084638
-0.0157918,0.0127806
-0.025138,0.026752
-0.0369426,0.0257093
-0.0254349,-0.0074897
-0.0090994,-0.0291453
-0.00522023,-0.0260818
-0.0202306,-0.0124944
-0.0490634,0.00521314
-0.0669639,0.00297253
-0.0539039,0.00569185
-0.0256333,0.00108162
0.0121474,-0.00668118
0.0598723,-0.0273678
0.100594,0.000532124
0.0941237,0.00836337
0.050617,0.00985571
0.0119273,0.00874893
-0.0263303,0.0102184
-0.0478508,0.00265779
-0.0197981,0.00524221
0.00354433,0.0143949
-0.00310669,-0.000246717
0.0086129,-0.00231721
0.00786506,-0.000288621
-0.0130956,0.00211997
-0.00983731,0.00247865
-0.0070816,-0.0016718
-0.0194471,0.00790651
-0.00832221,0.00196387
0.00402396,-0.0163954
-0.00367302,-0.0111027
-0.0240245,-0.00880437
-0.0555332,-0.0170638
-0.0365473,-0.0122912
0.0110849,0.00821279
0.0335509,0.0109812
0.0442394,-0.0053579
0.0573018,-0.0125802
0.0341028,-0.0118426
0.0150532,-0.011007
0.00557809,-0.00110679
-0.00222729,0.00762345
0.00514874,0.0157218
0.0312151,0.00568542
0.0115377,0.000117206
-0.0325782,-0.00458875
-0.0620905,-0.0100345
-0.0660866,-0.013345
-0.0141697,-0.00653222
0.0245031,0.000324479
0.0534943,0.0170099
0.0596511,0.0264689
0.0205241,0.0251291
0.000599732,0.00484921
-0.00646065,-0.00581248
-0.0199747,-0.00996318
-0.0310702,-0.0151725
-0.0391579,-0.00737794
-0.0385945,0.00967716
-0.0406184,0.00470896
-0.0355733,0.00300086
0.00851223,0.0103107
0.0589474,0.00333606
0.0776218,-0.00623117
0.0547271,-0.0157236
-0.0613357,-0.00256447
-0.151575,0.0137087
-0.101178,0.013106
-0.0268226,0.0133647
0.0324197,0.0142259
0.091672,-0.000784423
0.112965,-0.00472237
0.065869,0.00142358
0.00791077,-0.00630712
-0.0134975,-0.0105852
-0.0126281,-0.000249198
9.05e-05,-0.00138912
0.0206225,-0.00275423
0.0371589,0.00258488
0.0442187,-0.0103901
0.0161793,-0.0163578
-0.0276383,0.00148773
-0.0376518,0.0108511
-0.0526589,0.0112203
-0.0586501,0.00410219
-0.0358642,0.0123006
-0.00147192,0.0176031
0.0295324,-0.00297738
0.0300482,-0.0106168
0.0119508,-0.0074836
0.00148177,-0.00879075
-0.00220882,-0.00729752
0.0181995,0.00136146
0.0319324,0.00124069
0.017805,0.00120492
0.00269926,-0.00596386
-0.00393781,-0.0201056
-0.0135612,-0.0156977
-0.0108077,0.0138165
-0.0101945,0.0268762
-0.0243488,-0.00101285
-0.0500638,-0.0102291
-0.0673166,-0.0256472
-0.0307337,-0.00600057
-0.0014589,-0.00084755
0.0160755,-0.00632401
0.0363378,-0.0118832
0.0559264,-0.0293932
0.0504193,-0.00112183
0.0223136,0.0175403
0.0218422,0.00586879
0.0166326,0.00991098
0.0102167,-0.0124352
0.0117457,-0.0161328
0.0116921,0.00111279
0.00104438,0.00415336
-6.04e-05,0.00033429
0.00835747,0.0228353
-0.000551264,0.0391325
-0.0219022,0.0211159
-0.0284299,-0.00507193
-0.0357316,-0.0155536
-0.0401204,0.00529413
-0.0352293,0.016874
-0.0244882,0.00789896
-0.0297632,-0.0117059
-0.0186405,0.00655633
0.00869894,0.00860892
0.020308,0.0116572
0.0228112,-0.00195924
0.020502,-0.0096137
0.01482,-0.00189797
0.0235313,0.00591908
0.00768363,0.00350148
-0.00813562,0.0054574
0.00103759,0.00630063
0.0166377,-0.00259966
0.010621,-0.0129604
-0.00967799,-0.022267
-0.0116249,-0.0169139
-0.00248648,-0.00869677
0.00699754,-0.00261329
0.0187459,0.00886591
0.034779,0.00496
0.0226965,0.00288385
-0.0137085,-0.00636747
-0.0271221,-0.00999807
-0.0285448,4.62e-05
-0.0320698,0.000286337
-0.0249658,0.00262132
-0.0201945,0.00944313
-0.0164629,0.0236574
-0.0731419,0.0136058
-0.0810868,-0.0123643
-0.0297403,-0.0191819
0.00971685,-0.00327411
0.0672521,0.00039534
0.0930756,0.00587789
0.0757133,0.0109679
0.0478439,0.00530328
0.0230059,-0.00216183
0.027056,-0.00648292
0.0332684,-0.0148212
0.0416614,-0.0217963
0.0310737,-0.0274722
0.0210867,0.00767975
0.0111945,0.0129752
-0.00731371,0.0131552
-0.0222774,0.0201413
-0.0247197,0.00732824
-0.0239347,-0.0103516
-0.0368802,-0.0242994
-0.055936,-0.0403147
-0.113736,-0.0201821
-0.118714,0.0283075
-0.0617332,0.0356673
-0.00443263,0.0122297
0.0199126,0.0112968
0.0438783,0.0190831
0.063098,-0.0177415
0.0543233,-0.0171609
-0.00126715,-0.00106362
-0.0499161,-5.91e-05
-0.0278415,-0.00480592
0.0599162,0.017355
0.102876,0.0199652
0.0863772,0.0027398
0.0564454,-0.0217107
0.0242327,-0.0143084
-0.0158001,0.0118924
-0.0547145,0.00946692
-0.0662052,0.0174445
-0.035658,0.0180656
0.0194982,-0.00347764
0.0403233,-0.011671
0.0499786,-0.0130365
0.0238049,-0.0173838
-0.0760516,-0.00597801
-0.114945,0.00845856
-0.0792724,0.00363737
-0.0557681,0.00266433
-0.00838464,0.011296
0.0556718,0.0156931
0.0932939,0.00685754
0.074536,-0.007543
0.0471709,-0.0049243
0.0285933,-0.0138008
-0.00218524,-0.00525794
-0.0158994,0.00612557
-0.0062576,0.00454041
-0.0187299,0.00325732
-0.0546993,-0.0012167
-0.070477,-0.00539831
-0.0317882,-0.0154759
0.0493987,-0.0062361
0.0765676,-0.000387208
0.0589585,0.000817579
0.0200683,-0.00132291
-0.0352268,0.00635785
-0.0732223,0.00172079
-0.0553122,-0.00846822
-0.0153477,-0.005553
0.00486737,0.00720579
-0.0392382,-0.0144288
-0.0695586,-0.0100165
-0.0324944,0.0147989
0.00914462,0.00485259
0.05504,0.00618902
0.0700091,0.00836388
0.0623217,-0.000312691
0.0367991,0.00712509
0.0135079,0.0126737
0.00884582,-0.015651
0.0122621,-0.0055769
0.0168465,0.00237438
0.0376951,0.0133693
0.0279377,0.00782411
0.00127384,-0.00877903
-0.0187678,-0.00853309
-0.0233915,-0.00217067
-0.0123129,-0.00421624
-0.0139195,-0.00346233
-0.0315569,0.00115355
-0.0295238,-0.00257268
-0.0189755,0.00206615
-0.0125531,-0.00415548
-0.0114865,-0.0237189
0.00879136,0.00124271
0.0223184,0.00933015
0.0127038,0.0116319
-0.00561776,0.0136058
-0.0161242,0.0158793
-0.0166581,0.00865423
-0.00479542,-0.00662823
0.00185711,-0.0176913
-0.00153509,-0.015424
0.000392575,-0.00724436
0.00663787,-0.00380509
0.0101149,0.00956425
-0.00125732,0.00920127
-0.0100432,0.000628523
-0.00541672,-0.00310441
0.00543757,-0.0180425
0.0143528,-0.0217616
0.0180537,-0.0203904
0.0159109,0.00605698
0.00155857,0.0205069
-0.0168181,0.02863
-0.0260541,0.0233519
-0.0233604,0.00302312
-0.0258735,-0.00952941
-0.0323657,-0.00724807
-0.0410333,-0.00198478
-0.036688,0.00170768
-0.018374,0.00873795
0.0180339,0.0180564
0.0619115,0.0190566
0.0691538,0.00511846
0.061947,-0.0129946
0.0684558,-0.0214963
0.0486594,-0.0230171
0.0117914,-0.0119038
-0.00724974,-0.000161589
-0.0350937,0.00338588
-0.0671501,0.0108419
-0.0561985,0.0160595
-0.0220788,0.000380107
0.00867914,-0.0244998
0.0228932,-0.0162595
0.0193384,0.000294687
-0.00306344,0.00632079
-0.0449014,0.0106122
-0.0559293,0.0117905
-0.0378732,0.00332226
-0.0170407,0.00192818
0.0144881,-0.000579346
0.0608879,-0.0137712
0.0701159,-0.0112014
0.0635641,0.00321904
0.0455726,0.00114377
0.00607753,0.000692959
-0.0124379,0.0103278
-0.00297778,0.0101928
0.00726081,-0.00252384
0.0103827,-0.0105998
0.00655979,-0.00286321
-0.00419433,0.00232582
-0.0469918,0.00503197
-0.0748374,0.0092693
-0.062286,0.0152309
-0.0357044,0.00810381
-0.0310494,-0.000405204
-0.123417,-0.013625
-0.136614,-0.0229814
-0.0278882,-0.0151107
0.0810602,0.0106026
0.156826,0.0115248
0.176076,0.0157524
0.124927,0.0242752
0.0654134,0.0242197
0.0222431,-0.00431155
-0.0203257,-0.017543
-0.0269075,-0.0225288
-0.0247885,-0.0231451
-0.0113979,0.0076129
0.0012809,0.00322061
-0.00672894,0.00222131
-0.00903955,0.00348449
0.00588653,0.00259841
0.0119783,-0.0113891
0.00475062,-0.0141649
-0.013166,-0.00504388
-0.0306611,0.000368926
-0.0408044,0.00180162
-0.0319724,-0.0039203
-0.0188143,-0.0177212
-0.0170701,-0.0289946
-0.0152396,-0.0207805
-0.00367612,-0.00389409
0.00300973,0.00424895
0.00804693,0.015767
0.0113041,0.026115
0.00807185,0.0292385
0.00723661,0.0314064
0.0111442,0.0233214
0.0105506,0.00652739
0.00833537,0.00367492
-0.0111207,0.0108082
-0.0371441,0.0060421
