Comp Ch 3,Comp Ch 4
0.0183103,0.00659294
0.016075,0.0165544
0.0175546,0.0106475
0.0157215,-0.0164384
0.00768834,-0.0148215
-0.00580156,0.0111891
-0.0105378,0.0278425
-0.0374291,0.0177
-0.070234,0.00966465
-0.0783356,0.00296693
-0.0674564,0.0229379
-0.0263192,0.0562903
0.00269021,0.0204734
-0.0118633,-0.0346765
-0.0717283,-0.056222
-0.0924319,-0.0598514
-0.0687952,-0.0214739
0.0087484,0.0205377
0.0893243,0.0496666
0.153365,0.0433292
0.151096,0.00413691
0.0952698,-0.0217084
0.0306788,-0.043805
-0.00591663,-0.0706505
0.00632246,-0.00892393
0.0213971,-0.00230429
0.0190646,0.0205784
0.0150679,0.0385725
0.00743021,0.0140794
0.0026929,-0.0050469
0.000411736,-0.0048538
-0.00456419,0.00600375
-0.00987254,0.00895556
-0.0283679,0.00781243
-0.0604388,0.0121184
-0.0765399,0.0250045
-0.0564977,0.0019316
-0.015353,-0.0264831
0.0106323,-0.0208182
0.0055062,-0.0165766
-0.0239547,-0.0125202
-0.0433822,0.0068044
-0.0212878,0.0220578
0.0160515,0.013059
0.0367541,0.0030547
0.0496413,0.00128272
0.0404727,-0.0060395
0.0239613,-0.00349071
0.0136573,0.00234571
0.0118776,0.000794679
0.00921672,0.00816294
-0.000125965,0.0168015
-0.00950717,-0.00131371
-0.0132479,-0.023394
-0.0199893,-0.0166518
-0.0168883,0.0274585
-0.00651458,-0.000709255
-0.000185468,-0.0201797
-0.00207827,-0.00504283
-0.000842682,0.00102458
0.00164557,0.0105747
0.00213165,0.0078805
0.00526144,-0.00609259
0.0114354,-0.016397
0.0139711,0.00314068
0.00411323,0.00945054
-0.00377288,0.022294
-0.0112751,0.0228284
-0.0323074,-0.0141122
-0.0550619,-0.0301812
-0.0389976,-0.0180769
-0.0281003,-0.0153499
-0.0346075,0.00484186
-0.0377216,0.0253813
-0.0180399,0.0367117
0.0179597,0.0120708
0.0410772,-0.0425665
0.0583563,-0.0101272
0.0549268,0.0144995
0.045716,-0.00685919
0.0412287,0.000128367
0.040801,0.0225508
0.0408314,0.00233517
0.0216828,-0.0367622
-0.0203838,-0.0351011
-0.0541126,-0.031996
-0.0308885,-0.0023707
0.0125062,0.00960905
0.00811065,0.00915512
-0.0288251,0.0141026
-0.0570603,0.0198577
-0.0634826,0.0224635
-0.0481505,0.00794807
-0.00590162,0.0111475
0.0226441,0.000896721
0.0230818,-0.0150082
-0.00392696,0.0120346
-0.00214412,0.0496292
0.0319353,-0.026442
0.0778146,-0.0233619
0.112925,0.0031142
0.131075,0.0117765
0.0973814,0.010253
0.0202346,-0.0101629
-0.0952844,-0.0244361
-0.177399,-0.0132437
-0.211137,-0.00264759
-0.159296,0.00178405
-0.0594943,0.00376189
0.0230696,0.0119518
0.0845774,0.0142779
0.100452,-0.00814314
0.0364621,-0.00933995
0.0100163,-0.00634666
0.0827607,0.0160248
0.113545,0.0237526
0.0904253,0.0284971
0.0580362,0.0182076
0.0147271,0.000702546
-0.0178986,-0.0274753
-0.0819251,-0.0270614
-0.125864,-0.0320223
-0.110358,-0.0471199
-0.0756377,-0.0335795
-0.0680728,-0.0126228
-0.0371433,0.017916
0.0188035,0.0131214
0.0895466,0.0181648
0.100107,-0.00606584
0.0650105,-0.0016132
0.0241047,-0.012642
0.0117985,0.0465894
0.00156998,0.023145
-0.0140854,0.00573225
-0.0223405,0.0180696
-0.00361276,0.0309498
0.0229219,0.00631571
0.0433906,-0.0157211
0.0378729,-0.00403516
0.0298737,-0.0116383
0.0304224,-0.00937141
0.0156258,0.00982281
-0.0177665,0.0128676
-0.0431599,-0.00450359
-0.0556487,-0.0130168
-0.0345298,-0.00326693
-0.0150956,-0.0254717
-0.0147584,-0.0186587
-0.0320958,0.00589081
-0.032504,0.00917219
-0.0128539,0.0160612
-0.0110952,0.0266281
-0.0271605,0.0128944
-0.0447872,-0.0269835
-0.016445,-0.0239403
0.0149724,-0.0136222
0.0431444,-0.00144835
0.0586703,-0.0155617
0.0695321,0.0144466
0.0349943,0.00975947
-0.00828628,0.00689699
-0.00554845,0.0227607
-0.0128188,-0.00308698
-0.0254538,-0.0160042
-0.0323072,-0.00218486
-0.0312692,0.00739619
-0.022015,0.00221575
-0.00823481,0.00583401
0.00676317,0.0119577
0.0157877,-0.00427308
0.0115321,-0.0248927
0.00897685,-0.025755
0.00649899,-0.0275526
0.0118481,-0.0056086
0.0130329,0.0167666
0.00378772,0.019705
-0.0089071,0.0157386
-0.0181283,0.0126611
-0.0179169,0.00367645
-0.0105643,-0.0116417
-0.00599015,-0.0121521
-0.00788497,0.00143115
-0.00972125,0.0118126
-0.000165884,0.00974958
0.010442,0.0148663
0.0197996,0.0171461
0.0244069,0.000263343
0.0230978,-0.0214224
0.01131,-0.0212554
-0.00368791,-0.0236059
-0.00386557,-0.0240419
0.013007,-0.00289205
0.00819529,0.021776
-0.00696277,0.0186795
-0.0152055,0.0183771
-0.0152792,0.00449138
-0.0107824,-0.0117335
-0.00634367,-0.00898266
-0.0079068,0.00283879
-0.010466,-0.0036952
0.00189253,-0.00238084
0.0144639,0.0255291
0.00765878,0.0301546
0.000245052,0.0020581
0.00306104,-0.0180248
0.00368034,-0.0154594
0.00834126,-0.00811048
0.0185145,0.00330905
0.0148264,0.00551729
0.0073046,-0.00200948
0.00121141,0.0113604
-0.00319983,0.0170451
-0.00130484,0.0013726
-0.00166578,-0.0196271
0.000655977,-0.0237629
0.00681324,-0.00177201
0.0105782,-0.0027518
0.0146683,0.0171461
0.0144681,0.00505887
5.36e-05,-0.00729295
-0.0298938,-0.00581432
-0.0531145,-0.0147806
-0.0493567,-0.0116645
-0.0584713,-0.00759511
-0.0633572,0.0115824
-0.0233676,0.0149861
0.0395104,0.0274916
0.0795998,0.0106108
0.07461,-0.00973993
0.0773284,-0.00503971
0.0488504,-0.0156189
0.000418022,-0.0112604
-0.00616428,0.00236399
-0.0121238,0.00212806
-0.07915,0.00807006
-0.182805,0.0100437
-0.222512,-0.0108497
-0.110303,-0.0244684
0.0868194,0.00522363
0.220944,-0.00220288
0.227564,0.00989006
0.153853,0.01984
0.0822418,0.0167248
9.31e-05,0.0118565
-0.0564188,0.00851723
-0.0956763,-0.0117642
-0.101231,-0.0168915
-0.0747706,-0.00170621
-0.0295309,0.000398415
0.00386475,-0.003194
0.0100014,0.00586451
0.0329148,0.0104292
0.0444268,-0.00472165
0.023838,-0.0447392
-0.0113512,-0.0467805
-0.0102853,-0.0149697
0.00165388,-0.00494165
0.020957,0.0263579
0.0345078,0.0377036
0.0196629,0.0326826
0.00382133,0.0159139
-0.0142535,0.00610637
-0.0189678,-0.0126541
-0.00567902,-0.0271965
-0.00147698,-0.0150218
-0.00545804,0.0249707
-0.0062822,0.0322061
0.00712807,-0.000238152
0.0270067,0.0135291
0.0279551,0.0169043
0.0157347,-0.0219905
-0.0114136,-0.0307174
-0.0253498,-0.0286424
-0.0123733,0.00621975
-0.00922686,0.00644783
-0.0262604,6.16e-05
-0.0723018,-0.00447239
-0.0801534,-0.00125731
-0.0440193,-0.00620163
0.0100579,-0.0217837
0.0477263,-0.0188159
0.0448986,0.00161819
0.0205797,0.0147548
0.00194941,0.000797067
0.00595689,0.0120709
0.0179174,0.0217148
0.0223401,0.00755807
0.0158426,-0.00947026
0.00212475,-0.011514
-0.00809184,-0.0180675
-0.00746395,-0.0087423
-0.00840853,0.0164905
-0.0134859,-0.00269589
-0.0194698,0.00809091
-0.0225242,0.0183657
-0.0214708,-0.00281326
-0.0100536,-0.016056
0.000476105,-0.00273263
0.0055122,0.0191821
0.00586152,0.0153192
0.0102887,0.0179538
0.0144619,0.0342054
0.021003,0.0284703
0.0276294,-0.00817409
0.023657,-0.0244829
0.0142745,-0.00816739
0.000136791,-0.0178829
-0.00631836,-0.0149591
-0.00548998,0.00501293
-0.00700454,0.0117723
-0.0166158,0.00501693
-0.0259214,0.00122933
-0.0168786,-0.0151845
-0.00511654,-0.0389236
-0.0103084,-0.0202885
-0.00984483,0.00330009
0.00399229,0.0202016
0.00710396,0.0215488
0.00566617,0.0110888
0.00620935,0.00659468
0.0177898,-0.029317
0.0268812,-0.017547
0.0193451,0.00472158
0.0125685,0.0326834
0.00597441,0.0131042
-0.000441386,-0.0100459
-0.00818871,-0.00829041
-0.0200858,-0.00298331
-0.036201,-0.0215033
-0.0367585,-0.0437173
-0.00330444,-0.0460714
0.0152702,0.0525063
0.013344,0.0605192
0.00710196,0.0319701
0.0207312,0.0477044
0.0313467,0.0286675
0.0299954,-0.0265377
0.0264316,-0.0451388
0.0161297,-0.0323479
0.00923695,-0.0157471
0.0132104,-0.00626828
0.0106334,0.00479603
-0.0128156,0.0121462
-0.0212872,0.00492237
-0.0275455,-0.00175458
-0.0212695,-0.0163161
-0.0228989,-0.0231075
-0.0690182,-0.0118252
-0.0924867,0.019245
-0.0762306,-0.0102083
-0.0228587,-0.00555647
0.0631583,0.0209746
0.0866165,0.0257653
0.0645425,-0.00314525
0.0179207,-0.0145033
-0.0299375,-0.00949155
-0.0365356,-0.0139817
-0.000271422,-0.00845568
0.0449169,0.00278416
0.0609323,0.0227173
0.0384371,0.0117595
0.00685666,0.00717378
-0.045573,-0.00989123
-0.050306,-0.0191205
-0.0221942,-0.000744212
-0.00972121,0.0119361
0.00775252,0.011676
0.0312147,0.0148838
0.035872,0.0237636
0.0116212,0.00281028
-0.0164422,-0.00461427
-0.0277729,-0.00713355
-0.00982208,-0.00419387
-0.0452098,-0.0032649
-0.0710975,-0.00592675
-0.0248228,0.00579671
0.0500871,0.000688302
0.0934013,-0.00928622
0.0983361,-0.0103784
0.0700975,-0.0163902
2.26e-05,-0.00671125
-0.0822207,0.00671358
-0.0945554,-0.00262332
-0.0670184,0.000668345
-0.00734152,0.0235722
0.0385006,0.0273227
0.0533162,0.00351163
0.0470095,-0.0177255
0.0156336,-0.0117953
0.00197282,-0.00990349
0.0136466,-0.014335
0.0252276,0.000764592
0.0164119,0.0113819
-0.00972872,-0.00266077
-0.0296935,-0.0142695
-0.0387129,-0.040888
-0.0253143,-0.0452386
-0.00353794,-0.00104654
0.00810404,0.0119434
0.0029212,0.0390175
-0.00577384,0.0435265
-0.00934886,0.0425579
-0.00485618,0.025137
0.00268533,-0.00278899
0.0105302,-0.0219535
0.00456272,-0.0203553
-0.00789317,-0.0115469
-0.014326,-0.000813366
-0.0100196,0.0095363
-0.00473283,0.0101423
-0.00355045,0.00686456
-0.00449647,0.0066931
-0.00449915,-0.00932594
0.00340263,-0.0208532
0.00888764,-0.00529471
0.0106086,0.0112196
0.000575014,0.00686064
-0.00724379,0.0161101
-0.00903512,0.0257493
-0.009783,-0.000467441
-0.000490115,-0.0203936
0.00932127,-0.0258746
0.0026666,-0.0145409
-0.00674097,-0.00988137
-0.0104891,-0.00396352
-0.00797131,0.00933674
-0.00166288,-0.00578941
0.00481482,0.0155823
0.00211663,0.0126345
0.00159587,-0.0119981
0.00844185,-0.0119275
0.0126837,0.012126
0.0107977,0.0177612
0.00396813,0.0115589
-0.00415173,0.0140386
-0.00779574,0.0132556
-0.0073222,-0.0146477
-0.00293788,-0.0243427
0.00171641,-0.0170264
-0.00214327,-0.0159074
-0.00902788,-0.0161074
-0.0069175,0.00763195
0.00134562,0.0219067
0.00275092,0.00274596
-0.00106637,0.000211548
0.00129705,-0.0187203
0.0113992,-0.0160739
0.0155374,-0.00487648
0.00550212,0.00731489
0.00261841,-0.00269113
0.0118935,-0.0047357
0.0132588,0.0196762
-0.000860109,0.0256172
-0.00974342,0.00371998
0.00326636,-0.00929575
0.0267066,-0.0356833
0.0177793,-0.0205764
0.0094142,0.015413
0.000711555,0.0223263
-0.0045314,0.0203345
-0.008622,0.0131759
-0.0409181,0.00582201
-0.0692962,-0.00935465
-0.0580248,-0.0108096
-0.0189733,-0.0146258
0.0181472,0.00350526
0.0293537,0.00933922
0.0477675,0.0157741
0.0366548,0.000869598
0.0298469,-0.00524782
0.0350554,0.013368
0.025626,-0.0103544
0.0020662,-0.0199518
-0.0110713,-0.0159661
-0.0110893,0.00935622
-0.00990857,0.0258128
-0.00970473,0.00391752
-0.0202529,0.015568
-0.0235592,0.0192024
-0.0166273,-0.0231082
-0.00613549,-0.0294527
-0.00654722,0.00225511
-0.0267371,0.0111677
-0.0190911,0.00519173
0.00268404,0.015627
0.0117889,0.0277629
0.00823936,0.00602805
0.0311194,-0.0397698
0.037097,-0.0377792
0.00931738,-0.0316322
-0.00738606,0.00482289
-0.0206964,0.0165534
-0.0296972,0.0112038
-0.0118132,0.01048
0.00597322,0.0072239
0.0178436,-0.00794009
0.0200796,-0.0246071
0.017844,-0.0188327
0.0152367,-0.00107136
0.00684923,0.00708136
-0.00275588,0.0138839
-0.0104859,0.0223636
-0.0122988,0.016283
-0.0111285,-0.00620838
-0.0138824,-0.00333052
-0.0226167,0.0222242
-0.0173098,0.00940129
-0.0152999,0.0338404
-0.0123911,0.0305839
-0.00612251,0.00689039
0.000648197,-0.0318245
0.0152226,-0.0587126
0.03846,-0.0459198
0.0442677,-0.0304745
0.0259472,-0.0239278
0.0110958,-0.0194574
0.000473426,0.00504921
-0.00899952,0.0354153
-0.0114646,0.0276817
-0.0172929,0.000287842
-0.0147816,-0.0100432
-0.0153383,0.00424102
-0.0144641,-0.00146599
-0.00594809,-0.00584875
0.00521118,0.00769093
0.00883594,0.00749608
0.00978784,0.0218829
0.00335978,0.0232057
-0.00486979,0.0208664
-0.0173926,-0.012856
-0.00739443,-0.0165996
0.00771649,-0.000621722
0.00738756,-0.0101771
0.0012036,-0.0223399
0.000362976,0.0200816
0.00266624,0.0365455
0.0064704,0.0149736
0.00610864,0.00838023
0.00165285,0.0159026
-0.00586463,0.0277646
-0.00890465,0.00473414
-0.00468314,-0.031785
-0.00511427,-0.0218991
-0.00620569,-0.0190729
0.00216316,-0.0215008
0.0103554,-0.011589
0.0110822,-0.00190872
0.0112598,-0.0120967
0.0105608,-0.00420225
0.00201436,0.00373064
-0.00950188,-0.00337846
-0.00619657,0.007098
0.00187137,0.0151542
-0.000244647,-0.00817963
0.000301958,-0.0270334
0.00317431,-0.00810141
-0.00314041,0.00603185
-0.0065819,0.00184308
-0.00990608,0.00600503
-0.0133623,0.0205485
-0.0169088,0.0135137
0.00632226,0.010054
0.0240047,-0.00713615
0.00630392,-0.0119497
-0.0070633,0.0193673
-0.0151178,0.0307079
-0.0237327,0.0124445
-0.0275375,-0.0238653
-0.0223212,-0.0457166
-0.0161095,-0.00135403
-0.0142657,-0.00433293
-0.00545652,-0.0103751
0.0128393,-0.0134103
0.0257192,-0.00339527
0.0332115,0.0461316
0.0820971,0.0469985
0.125817,-0.0202808
0.0943211,-0.0122933
0.0492964,-0.00124012
0.0165654,-0.0123651
-0.0450359,-0.0264885
-0.0851454,-0.00908395
-0.0522058,0.00534687
-0.0114918,0.0183211
0.0286553,0.0223903
0.0726063,0.0385522
0.0951568,-0.0126861
0.0525301,-0.0508147
-0.0055546,-0.0274383
-0.0714273,-0.0024056
-0.127369,-0.00296982
-0.115231,0.0195635
-0.0772927,0.0189179
-0.05591,0.0328466
-0.0594356,0.0238957
-0.0639883,0.00584918
-0.0498277,-0.00936613
-0.0405832,0.00732735
-0.0323972,0.0389802
0.0171491,0.037466
0.0626769,0.0269223
0.0940588,-0.0088277
0.0319286,-0.0904107
-0.0448944,-0.149193
-0.0281298,-0.0759146
-0.0207788,-0.0157288
-0.0129263,-0.0017807
0.0334839,0.0445318
0.0381984,0.0466636
0.0195017,0.0602826
0.00307168,0.0734416
0.0140609,0.0163422
0.0240843,-0.0140743
0.0282814,-0.0281387
0.0270263,0.00731395
0.036636,-0.00195745
0.0300943,-0.0101375
0.00593087,-0.00742085
-0.0025192,-0.0113214
0.0031479,-0.0363696
0.00871105,-0.0506183
0.00821775,-0.0142415
0.00712949,-0.0155793
0.00762461,0.018938
0.0107117,0.0339375
0.0571484,0.0347213
0.0952947,0.0408458
0.0744099,0.0451986
0.0105668,0.0341361
-0.0560554,0.0226583
-0.0735352,0.0183989
-0.0668592,-0.00586215
-0.0903513,-0.0343423
-0.055259,-0.0246346
-0.00887336,-0.00471372
0.00131397,-0.0166037
0.0126258,-0.0291213
0.00518815,-0.0259776
-0.00242343,-0.0243632
-0.00180582,-0.0253087
-0.00283711,0.00712237
-0.00199182,0.0299672
-0.00200934,0.0345319
-0.00371295,0.0306758
-0.0014674,0.0118207
0.0172276,-0.0133146
0.0323528,-0.0190589
0.0235783,0.00363137
0.009665,0.0118282
0.000535361,0.00807601
0.0274119,0.00215848
0.0635569,0.000515515
0.0603352,0.00749024
0.0332085,0.00557511
0.00810185,-0.0351152
-0.0340181,-0.0695625
-0.0444841,-0.0271596
-0.0418487,0.00142727
-0.0641823,0.0267833
-0.0799391,0.0163282
-0.0567305,0.0222195
-0.0368883,0.00918909
-0.025971,-0.00451248
-0.011343,0.0126114
-0.00533329,0.0503148
-0.00137157,0.00944103
0.00466818,-0.0178271
0.0210737,-0.00643339
0.0445844,-0.00902009
0.0669438,-0.0354927
0.0712879,-0.04584
0.0572126,-0.0495461
0.0414839,-0.0569645
0.04908,0.00866393
0.0342141,0.0660953
-0.0193586,0.0473714
-0.0670077,0.0338315
-0.0736559,0.0249783
-0.065901,0.00274894
-0.0559267,-0.0186343
-0.0413447,-0.00938115
-0.0182979,0.00197847
-0.00101796,0.0113083
-0.00621524,0.00709404
-0.0139806,0.00122373
-0.00713898,0.00203566
-0.0125128,-0.0144689
-0.0167485,0.0294231
-0.0229458,0.0799979
-0.00936486,0.0576884
0.00595261,-0.0708729
0.01379,-0.0870388
0.0487782,-0.0131097
0.0712085,0.0118789
0.0957368,0.00107651
0.142279,-0.0197498
0.115811,-0.0199348
0.0523846,-0.00908868
-0.00776812,-0.000286906
-0.043517,0.00231298
-0.0529224,0.0133174
-0.0584821,0.0243768
-0.0336456,-0.00391761
0.011012,-0.0222715
0.0243475,-0.0201439
0.018391,-0.0159521
0.00876712,0.0149901
0.00180939,0.0182883
-0.0106127,0.0304437
-0.0277976,0.0287478
-0.0713481,0.0029818
-0.102822,-0.0321891
-0.0993273,-0.0317248
-0.107267,0.000240858
-0.0932663,0.0747122
-0.062364,0.0698415
-0.00810436,0.0258726
0.0150211,-0.00534248
0.0684918,-0.0938439
0.0990807,-0.0897211
0.0444443,-0.047471
-0.0187247,-0.0152947
-0.0470444,0.00141941
-0.0396083,0.0184948
0.00286698,0.0299965
0.0365849,0.0169103
0.0440286,0.0189465
0.0518418,0.013836
0.0735814,-0.0144023
0.111266,-0.0226659
0.186157,-0.00313471
0.229346,-0.000375489
0.161173,-0.00617996
0.0381461,-0.000692621
-0.0654919,0.0308546
-0.194649,0.017953
-0.25423,-0.0264368
-0.162488,-0.0194575
-0.0583448,0.00175251
0.000897894,0.00930966
0.0516126,0.0257451
0.0401455,0.0350261
-0.0315873,0.0113962
-0.0870605,-0.00752358
-0.0779352,0.00419069
-0.0396962,0.00557926
-0.021337,-0.0213267
-0.00537715,-0.0142823
0.0100067,-0.00382693
0.0244909,0.0239946
0.029845,0.0481545
0.0251616,-0.0116239
0.0141376,-0.0303357
0.0221118,-0.0262538
0.0305175,-0.0149516
0.0288881,-0.00926453
0.01885,0.00273011
0.00835536,0.0220534
0.00646039,0.0377184
0.0142845,0.0236726
0.0196508,0.0174305
0.0140662,0.00860152
0.00463689,-0.0380178
0.00948141,-0.0498154
0.0214717,0.00209076
0.0237025,-0.0129583
-0.00723466,-0.0107741
-0.0271568,0.0140977
-0.0241291,0.0212535
-0.0180537,-0.0110786
-0.017157,-0.0244844
-0.0135404,-0.00592727
-0.00414714,-0.00984222
0.000669296,0.00401757
-0.00709081,0.0157006
-0.0145424,0.0151933
-0.0114263,0.0272004
-0.00404741,0.00658449
0.00269937,-0.0405965
0.0150148,-0.0312924
0.0540611,-0.00698837
0.107359,-0.00305747
0.107289,-0.0104938
0.0562083,-0.00675348
-0.0132577,0.017509
-0.0646386,0.0202405
-0.0667089,0.00505647
-0.0591412,0.0287791
-0.0444039,0.0483741
-0.0205813,0.0444666
0.0230485,0.0238401
0.0428162,-0.0172982
0.0099775,-0.0471786
-0.0273999,-0.0178123
-0.0682634,-0.00441765
-0.0860305,-0.0431859
-0.0774735,-0.042547
-0.0551167,0.00345718
-0.0300627,0.0127978
-0.0120096,0.0162686
-0.000311208,0.0343227
0.00524714,0.0188787
0.0395753,-0.0179012
0.128395,-0.0407359
0.157674,-0.0252325
0.119286,-0.00166724
0.0581773,0.0114151
0.00465989,0.037325
-0.0273851,0.0376956
-0.0732051,0.00511062
-0.0825654,-0.00544628
-0.0668046,-0.0115201
-0.0505156,-0.0275085
-0.0245505,-0.0180447
0.0068178,-0.00387934
0.0167574,-0.00397184
0.0144753,-0.00469023
-0.00918086,-0.00490752
-0.0285887,-0.0046465
-0.0195466,-0.0034384
-0.00888135,-0.00967592
-0.00937472,-0.00266237
0.000312386,-0.00807839
0.0127686,0.0147146
0.0186059,0.046295
0.00873432,0.0362816
0.0123413,0.0192185
0.021028,0.00719842
0.0265407,-0.0105168
0.0198156,-0.0146896
0.000676263,-0.00222481
-0.00817577,-0.00171192
-0.0110101,-0.0106781
-0.000915639,0.00109056
0.0112915,0.00897455
0.00451738,0.00219399
-0.00235927,-0.0165669
-0.000157175,-0.0304061
0.00176871,-0.0178992
0.0106958,0.00347551
0.0102943,0.011709
0.00544686,0.0218548
0.00559038,0.0311432
0.00772855,0.018468
0.00761132,-0.00481954
0.0127293,-0.0177951
0.00969762,-0.0246355
0.00622602,-0.00756317
0.00866897,0.00464297
0.0108064,0.0066399
0.00407259,0.00689486
-0.021784,-0.00425156
-0.0593056,-0.0208947
-0.091547,-0.0469844
-0.0766051,-0.0356166
-0.0402923,-0.000442831
-0.00134214,0.0272939
0.0468139,0.0424592
0.067239,0.0278366
0.0480695,0.00598417
0.0276693,0.037262
0.0222783,0.0327175
0.0268187,-0.0138742
0.016383,-0.0068605
0.0112794,-0.022667
0.0204151,-0.0189666
0.00748872,-0.00723741
-0.0194171,-0.0141836
-0.0273474,-0.00422242
-0.0192467,0.000771252
-0.0155789,-0.0412276
-0.00506183,-0.0191973
0.00133291,0.00723836
0.000638357,0.0152363
-0.00184892,0.0304211
-0.0114337,0.0199347
-0.00582113,0.0112437
0.00016108,-0.00347676
0.00166918,-0.0246757
-0.00444077,-0.0181065
-0.00717963,-0.00058692
0.00620243,0.0259621
0.0108548,0.0353492
0.00234638,0.0214902
-0.00527406,0.000264738
-0.00126246,-0.0132053
-0.00581431,-0.0122197
-0.0278749,0.0151428
-0.0709256,0.0130936
-0.0668065,-0.0253231
-0.036093,-0.00557687
0.00163974,0.00471317
0.0371438,-0.0184977
0.0704824,-0.0222054
0.0778165,-0.00317293
0.0539399,0.00128685
0.0123407,0.0157567
-0.0181,0.0512527
-0.0266806,0.0525087
-0.0224042,-0.00742745
-0.0104261,-0.0287018
0.00352095,-0.0357945
0.0222586,-0.062158
0.0268887,-0.0185022
0.0109999,-0.00292767
-0.0079906,-0.0248332
-0.0148425,-0.00486215
-0.0073793,0.0257525
0.0012008,0.0241231
0.0100309,0.0245897
0.0306635,0.014355
0.0454484,-0.012936
0.0372007,-0.0236014
0.0130727,-0.0167088
-0.0143041,-0.008233
-0.0190188,-0.00691456
-0.00879467,0.00298271
-0.0187046,0.0116687
-0.0473362,0.0210711
-0.0407975,0.0147252
-0.0174253,0.0254578
-0.0136074,0.0101043
-0.0150352,-0.0264748
-0.0108743,-0.002023
-0.0127586,0.0153576
-0.0181215,0.019384
-0.00142338,0.00319293
0.0042582,-0.0276554
0.0044072,-0.0145725
0.000210872,-0.00374839
0.00395452,-0.00325522
0.0250253,0.00426598
0.0396424,0.00165027
0.000304369,-0.00731339
-0.0490711,-0.00378298
-0.0554092,-0.0233985
-0.0224072,-0.00772419
0.00979165,0.0148713
0.0191289,0.0118508
0.00390639,0.00132011
0.0135384,0.00726617
0.0262277,0.0294276
0.0335755,0.0173303
0.0504098,-0.000878628
0.0593023,-0.00962714
0.025563,-0.0265287
-0.0334686,-0.0205164
-0.0624018,0.0264738
-0.0385883,0.0258159
0.00152446,0.00859503
0.0430401,0.0136972
0.0631837,0.0244669
0.0225523,0.0163268
-0.020079,-0.0335171
-0.0269414,-0.0447814
0.00620689,-0.0131961
0.0100249,-0.0148217
0.0030964,-0.0183963
-0.00199337,-0.00402938
-0.00153338,0.0296376
-0.00193342,0.0212593
-0.00431147,-0.00531904
-0.00963577,-0.0247958
-0.0174677,-0.024273
-0.0131287,-0.00781125
0.0124662,0.0163371
0.0182854,0.0298328
-0.00451545,0.00905359
-0.0123447,-0.00677582
0.0152915,-0.013774
0.0202891,-0.0347671
0.000310293,-0.00570939
0.00510615,0.00836095
0.00714001,0.00379765
-0.00782574,0.0273101
-0.0175223,0.0320307
-0.0255337,0.0386919
-0.0441368,0.0346224
-0.0538594,-0.00283596
-0.0491517,-0.0371179
-0.033352,-0.0266049
-0.0101578,-0.0175488
0.0161797,-0.0132233
0.0132668,0.000230503
0.018912,-0.0131519
0.0246668,-0.0428865
0.0223793,-0.0531416
0.0343301,0.0232036
0.0365375,0.0359023
0.0263637,0.0241698
0.0168358,0.0330542
0.024264,0.0689834
0.000495353,0.0478911
-0.0319239,-0.00565733
-0.0366296,-0.0113575
-0.0222297,-0.015186
-0.019685,-0.0226886
-0.0246557,-0.00317789
0.0064503,-0.0193847
0.0282204,-0.023863
0.0137321,0.00266927
0.00851326,0.0138438
0.0205087,-0.0239844
0.0319913,-0.0115787
0.0119166,0.00103614
-0.00919073,-0.00381244
0.0234696,-0.00163661
0.0565488,0.00942019
0.0333641,0.0295119
-0.0369059,0.0182544
-0.0956803,-0.0259961
-0.111049,-0.0334264
-0.059587,-0.0114694
-0.00676394,-0.00657638
0.0452152,-0.00236405
0.0236639,-0.0102711
-0.0284654,-0.00668279
-0.0359277,0.0304956
-0.0420871,0.011217
-0.0512751,-0.00752967
-0.0513552,-0.0123362
-0.0311915,-0.0260059
0.0261617,-0.0153102
0.0799839,0.0498162
0.0899963,0.0587231
0.0951881,0.0383427
0.0896301,0.00438646
0.0667804,-0.000775604
0.027521,-0.0677312
0.0028935,-0.0904599
0.00784876,-0.0316566
0.0410538,0.00704232
0.0218971,0.00822799
0.00559972,0.0257208
0.00861755,0.0564436
0.025434,0.00784862
0.0349302,-0.0257902
0.0396603,0.0106073
0.0385934,0.0393966
-0.0218513,-0.0129638
-0.238553,-0.0152384
-0.407603,0.0183209
-0.327602,-0.0186493
-0.14879,-0.01114
0.0304143,0.0278337
0.171378,0.00234162
0.290107,-0.0192855
0.263046,-0.00265372
0.164961,0.0109633
0.0642197,0.0161532
0.00571814,0.0153599
0.0158506,0.0234643
0.0109434,-0.00273807
0.00577896,-0.0316144
-0.00387389,-0.0186374
-0.0148037,-0.0167075
-0.0169357,-0.00493834
-0.00259528,0.00606651
-0.00315371,-0.00857142
0.012594,-0.00196543
0.0379889,0.0502655
0.0115076,0.0513805
-0.0311115,-0.0351094
-0.0467164,-0.0554256
-0.05359,-0.00397842
-0.115841,0.0129215
-0.17388,0.00200128
-0.169114,0.0148574
-0.199795,0.0244305
-0.215449,-0.0215318
-0.105139,-0.0503546
0.0384672,-0.0447457
0.1639,-0.0119914
0.267689,0.00253935
0.242971,0.0362574
0.126883,0.0334579
0.0657133,-0.00540532
0.0768634,-0.0329639
0.0395735,0.000776364
-0.0216089,-0.000733899
-0.0470282,-0.0155543
-0.0477982,-0.00418314
-0.0386949,0.00586269
0.0105388,0.034636
0.0412979,0.0286068
0.0365805,0.013449
-0.0126789,0.030571
-0.0139697,0.0153425
0.0128749,0.0109626
0.00530629,0.0222632
0.0223106,-0.00597102
0.0417546,0.00353127
0.044109,0.0209835
0.0365837,0.000754171
0.00770816,-0.00755809
-0.0183155,-0.024251
-0.0211676,-0.0326773
-0.0614235,-0.0250953
-0.157457,-0.0174275
-0.186503,-0.0108133
-0.12279,0.00684775
-0.0332135,0.0298739
0.0474633,0.0266542
0.106949,-0.0113518
0.101877,-0.0365268
0.0575957,0.010176
0.040419,0.0280823
0.0332923,-0.00490842
0.0467825,-0.0164495
0.0316309,-0.0352234
-0.037253,-0.013368
-0.103193,-5.83e-05
-0.0892684,0.00413079
-0.0452474,-0.000754873
0.00896307,-0.00310685
0.0540595,-0.00309025
0.0288933,-0.0149468
-0.0220056,-0.0424398
-0.00891348,-0.00835747
-0.00766796,0.0379818
-0.00478415,0.0270693
0.0322658,0.0236637
0.0582466,0.0211333
0.0352447,0.0249367
0.0185416,0.0344226
0.0150606,0.022628
0.00634567,-0.00450935
-0.0134377,-0.0125091
-0.00755673,-0.00873205
0.00671518,-0.0311274
0.0100916,-0.0377136
-0.00750813,-0.0239188
-0.000302176,-0.0351961
0.00427902,-0.0122264
-0.0282552,0.00227409
-0.105234,0.00882035
-0.168797,0.0028307
-0.15878,-0.00134128
-0.126097,0.00289918
-0.0997966,0.0137376
0.00563952,0.00761234
0.124069,0.0208436
0.186369,0.0319538
0.214121,-0.00166042
0.186069,-0.00253464
0.0973861,-0.0230802
0.0381605,-0.0141889
0.0183372,-0.00589372
0.00202339,-0.00873034
-0.00481368,-0.0231017
0.00809109,0.0104192
0.0208715,0.022561
0.020836,0.014565
0.0174121,0.0161324
-0.00132143,0.00490307
-0.0178336,0.00158012
-0.0233655,-0.00150024
-0.0446915,0.00958844
-0.0641982,-0.00530417
-0.089218,-0.00346882
-0.126439,-0.00984848
-0.0940553,-0.0243351
-0.010109,-0.0280561
0.0539163,-0.0180538
0.0873889,-0.00782688
0.0619401,-0.0115882
0.00488609,-0.0117792
-0.0508352,0.000308149
-0.056656,0.0125271
-0.0240081,0.00756199
0.0229488,0.0681417
0.0468247,0.067201
0.0416833,0.00700478
0.0150806,0.0297049
-0.00990051,0.0411565
-0.0102876,0.0638402
-0.0322623,0.0474298
-0.0342615,-0.00296542
-0.0203648,-0.0180961
-0.0113888,-0.0829826
-0.00474736,-0.0941105
-0.0404579,-0.0601545
-0.0500815,-0.00503177
-0.0197583,-0.013068
0.0133579,0.0012239
0.0305972,-0.00465626
0.0653993,0.00424057
0.0963254,-0.00484118
0.0710824,-0.00625824
0.0224422,0.00363657
0.0161081,0.0100362
-0.0261111,0.00886946
-0.092927,0.00623063
-0.0429786,0.00577345
-0.00764363,0.00172884
0.0102344,-0.00811877
0.0369304,-0.00273903
0.0278462,0.00664523
-0.000878944,0.00752597
-0.0140769,0.00995567
-0.00597206,0.0133984
-0.010544,-0.0015344
-0.00695469,0.0115936
0.0108475,0.0153902
-0.030689,-0.0622328
-0.0614242,-0.0311732
-0.122448,0.0479195
-0.114293,0.0483996
-0.0200001,0.0211518
0.0862997,0.0314621
0.141859,0.0167106
0.127042,-0.00415124
0.0701288,-0.0133798
0.0263735,-0.0277129
-0.00142142,-0.0346309
-0.00175369,-0.0386695
0.0156355,-0.0380983
0.0252626,-0.0190211
0.0124295,-0.0031286
0.00635845,-0.00641854
-0.0054276,-0.0172711
-0.0133209,0.00461022
-0.00177256,0.00629254
-0.00359438,0.00434796
-0.0254105,0.0219014
-0.0402449,0.0170682
-0.0403673,0.00649787
-0.0274723,0.00510495
-0.0146782,0.00346296
-0.00360959,-0.00728687
-0.022285,-0.00150226
-0.032001,0.0258408
-0.0130218,0.00652126
0.000309511,-0.0192333
0.0148716,-0.015778
0.020689,-0.0124511
0.0198722,-0.00646036
0.00548295,-0.0211183
0.00724125,-0.012715
0.010514,0.0150376
0.00658171,0.0400193
0.00796905,0.0291967
0.000100747,0.00494637
-0.00358185,-0.00215477
-0.00306501,-0.00211343
-0.0223232,-0.00544186
-0.0217049,-0.00618702
-0.0357005,-0.0153596
-0.0580504,-0.0125317
-0.0143645,0.0136892
0.0323753,0.0437662
0.0373306,0.0238463
0.014028,-0.0193552
0.0171851,-0.0331699
0.0227405,0.000920686
0.00811309,0.0375653
0.0017898,-0.00962154
0.00238677,0.00632248
0.00239559,0.0295813
-0.0122281,-0.0145748
-0.0230984,-0.037153
-0.0301676,-0.00758173
-0.0602039,-0.0254787
-0.0697425,-0.0248542
-0.0294671,-0.00493312
0.0290934,-0.0145193
0.0535546,-0.00610904
0.0715177,0.00733394
0.0741385,-0.0129186
0.0500427,0.0248748
0.0330904,0.0555555
0.0608353,0.0410841
0.0536225,0.0158278
0.020188,0.0228638
0.00359513,0.0175952
-0.0102647,0.00311946
-0.031038,-0.0147875
-0.0593358,-0.0246691
-0.0543006,-0.0458596
-0.0319191,-0.0480165
-0.0102949,0.0145776
-0.00306603,0.0245174
-0.0192108,0.00542148
-0.036351,0.00171774
-0.0437092,0.0201174
-0.0100353,0.0198202
-0.0020082,-0.0296635
-0.0322955,-0.0269994
-0.0269569,-0.00466729
-0.021201,-5.42e-05
-0.0329676,0.0194767
-0.0121413,0.0223055
-0.002728,0.0100723
0.0110414,-0.000982814
0.0515386,-0.00283561
0.085698,-0.0132077
0.0839291,-0.015738
0.0551064,9.85e-05
0.0330137,0.00281665
0.0525684,0.00126399
0.0462173,-0.00199296
0.00648249,0.00390635
-0.00695123,0.0107546
0.00720724,0.00897956
-0.00088291,-0.00173396
-0.0184584,-0.00739393
-0.0225984,-0.00267354
-0.0222206,0.00237734
-0.0155296,0.0115974
-0.00962927,0.0192595
-0.0214008,0.0035885
-0.0352466,-0.00808884
-0.0436783,-0.0195323
-0.0322124,-0.0274232
-0.0166352,-0.0270852
-0.00678321,-0.014771
0.0139451,0.0122234
0.0187382,0.0166025
-0.00135919,0.0115244
-0.0111662,-0.00161905
-0.0139274,-0.0137277
-0.00390655,-0.00291854
-0.00360115,0.00152716
0.003796,0.00546613
0.0159598,-0.0118517
-0.00193391,-0.0304362
-0.00659668,-0.00593787
-0.00722876,-0.00670345
0.00168261,-0.00852476
0.0172998,0.00177201
0.0194417,0.00652756
0.019951,0.00836345
0.0293346,-0.00111694
0.0470889,0.0094101
0.0262443,0.0235028
-0.0375664,0.0243476
-0.0997117,-0.000979132
-0.153405,-0.00317342
-0.147502,0.00094479
-0.104261,0.000585179
-0.0316865,-0.0263878
0.0534755,-0.0215788
0.120702,-0.0243518
0.136908,0.0246021
0.11832,0.0356905
0.0997228,0.00747511
0.0535632,-0.00588076
0.0235763,0.00330405
0.0100425,0.0140932
0.00351912,0.0284916
-0.00841859,0.016016
-0.0348475,-0.00743182
-0.096617,0.012177
-0.0940963,0.010653
-0.0745845,-0.00934402
-0.0368158,-0.0247852
0.00822847,-0.0201559
0.0577287,-0.00421494
0.0961187,0.00741858
0.0768692,0.0272738
0.0352948,0.000937314
0.00277068,-0.028698
-0.0145429,-0.018143
-0.0188214,-0.00820094
-0.0121428,-0.0194962
-0.00561393,-0.00978117
-0.00817212,-0.00680651
-0.00227721,0.00207275
0.0131761,0.0134127
0.0348446,0.011952
0.0452162,0.00364264
0.0180874,0.00157802
-0.0300296,0.00529637
-0.0778613,0.0186603
-0.0893002,0.0318051
-0.0605803,0.0256414
-0.0259226,0.00612958
-0.0135345,-0.0112333
-0.00752175,-0.034797
0.00137629,-0.0203229
-0.0058653,-0.0124631
0.00935568,-0.00670202
0.0429203,-0.00464558
0.0514892,0.00890483
0.0261397,0.0187169
0.0146316,0.0189335
0.0322086,-0.00104902
0.0282778,-0.0131484
0.0477413,0.00256119
0.0758564,0.00610063
0.0493935,0.00192041
-0.00742745,-0.00410873
-0.0627,-0.0121496
-0.0858637,-0.0153966
-0.0375746,-0.0215179
0.0211138,-0.00182825
-0.000264115,-0.00457567
-0.0677383,-0.0151676
-0.0652958,-0.00226565
-0.0374529,-0.00618318
-0.0141519,-0.0131691
0.0297223,0.0261899
0.0739417,0.0430654
0.0626971,0.00745971
0.00331402,-0.0149878
-0.0165899,-0.0125206
-0.00916485,-0.0200994
0.0064428,0.0217454
0.020927,0.0324872
0.0261696,0.0205393
0.0278619,0.00816668
-0.00594747,0.00264923
-0.0255255,-0.00444132
-0.0349006,-0.0183171
-0.051072,-0.0234645
-0.0546989,-0.019127
-0.0391934,-0.00299913
2.13e-05,0.0141896
0.0298909,0.0205201
0.0490275,-0.00715093
0.0488969,-0.0196896
0.0359002,0.000704892
0.0211448,-0.00626411
0.00193521,0.00975227
-0.0063102,0.014727
-0.0208051,0.00777787
-0.0390577,-0.0106512
-0.0339274,0.000498698
-0.0233044,0.00202054
-0.0113425,0.000540678
-0.00629405,-0.0113303
-0.00539977,0.000281424
0.000814428,-0.00303398
-0.00750595,-0.0235342
-0.00622845,0.022563
0.0240309,0.0401252
0.0476595,0.00725279
0.0457012,-0.0241932
0.0323226,-0.0156239
0.0218995,0.00142215
0.00943118,0.00728436
0.00665254,0.0032722
-0.00457009,-0.00211204
-0.00848909,-0.00137816
-0.0190287,0.00316005
-0.0147377,0.00337418
-0.00310199,0.00337109
-0.0240126,0.0144511
-0.0488544,0.0108916
-0.033195,0.00518138
-0.0163342,-0.00897873
0.00333983,-0.00592687
0.0447588,0.0137231
0.0733811,0.000703876
0.0379899,-0.000382422
-0.0269037,-0.0038001
-0.0584106,-0.00831926
-0.0680012,-0.0108292
-0.0519338,-0.024995
-0.00542233,-0.0354419
0.0342953,-0.00602792
0.0536593,-0.000233278
0.0575113,0.00771247
0.045539,0.00267107
0.0129559,0.00849473
-0.0217402,0.0257422
-0.0434606,0.0308248
-0.0331132,0.0217072
-0.0406611,0.015879
-0.0408322,-0.00409621
-0.0458078,-0.0279613
-0.0289629,-0.0378832
0.0122071,-0.0423356
0.0467375,-0.0102374
0.0709807,0.0238841
0.0685017,0.0171907
-0.0023807,0.00638242
-0.0771039,0.0105228
-0.0790075,0.00549369
-4.74e-05,0.00131194
0.0873744,0.0061337
0.0788213,0.0113034
0.0618236,-0.00159405
0.0534108,0.00193214
0.030247,0.00786445
0.0224792,0.00355007
0.0157409,-0.0112375
-0.00404047,-0.0174022
-0.0121766,-0.0111987
-0.0133992,-0.0107362
-0.0354782,-0.0129816
-0.0554652,-0.00995036
-0.035398,-0.00582365
-0.0221709,0.0112276
-0.0142381,-0.00102185
0.00304947,-0.026425
0.0149264,0.00885958
0.00721658,0.019958
-0.0133733,0.022367
-0.029961,0.0229594
-0.0199043,0.0199589
-0.00906768,0.0142233
-0.0211325,-0.00368711
-0.00940069,-0.0174003
0.00740015,-0.0127056
0.00912594,-0.0194993
0.0130255,-0.0326175
0.0169113,-0.0260324
0.0250065,0.011311
0.0224797,0.00973075
0.016902,0.0162822
0.0165971,0.0357429
-0.00220416,0.0212719
-0.0225975,0.00123528
-0.0583668,0.0156874
-0.0830011,0.0169518
-0.0425848,0.014619
-0.00875514,0.00772724
-0.0480435,0.00154429
-0.0347342,-0.00359206
0.0341402,-0.023715
0.050153,-0.0442404
0.0292427,-0.0611051
0.0384477,-0.0237908
0.0484976,0.00525291
0.0485184,0.0114227
0.0452487,0.0119477
0.0252504,0.0119738
0.0042817,-0.0217224
-0.00504162,-0.0438112
-0.00819676,-0.0169459
-0.0412957,0.0269111
-0.0629186,0.0408464
-0.04022,0.0271677
-0.0267454,0.0164574
0.00595183,0.0121126
0.0437725,-0.00655974
0.058662,-0.0173404
0.0615791,-0.0134748
0.0206789,-0.0172635
-0.0301694,-0.0072232
-0.0222176,0.00929652
-0.00159836,0.0119159
-0.0127272,0.0232164
-0.0415974,0.0301665
-0.0234872,0.00980006
0.0122778,-0.0242842
0.0267251,-0.0176979
0.0321682,0.00527348
0.0322583,0.0139517
0.0106282,0.021041
-0.0127701,0.0167439
-0.0394179,0.00253213
-0.0316674,-0.0114656
-0.00617204,-0.0103747
-0.00309447,-0.0114878
0.0115894,-0.0105189
-0.00794775,-0.0167578
-0.0584113,-0.00398059
-0.0595675,-0.00417269
-0.0315357,-0.0114194
0.00360827,-0.00665336
0.0324569,-0.0125344
-0.0108266,-0.015153
-0.0229576,-0.00937769
0.00653441,0.00767251
0.0508519,0.00309009
0.10341,0.012519
0.124884,0.0442647
0.0993509,0.0264972
0.0246003,0.000866952
-0.0370401,0.000382383
-0.0485585,-0.00413715
-0.0767393,-0.0218448
-0.0962494,-0.0196147
-0.0631842,0.0286879
-0.0294367,0.0194034
-0.00658573,0.00571275
0.0145661,-0.00480324
0.0527526,-0.00969909
0.0614559,0.00360239
0.0264118,0.0194494
0.0231855,0.00281576
0.0170982,-0.00998959
-0.0151435,0.00139802
-0.0169516,0.00420007
0.0187329,-0.0107709
0.0200994,-0.0201489
0.00337251,-0.0114422
-0.00596946,-0.00384982
-0.0239075,-0.00775276
-0.0248479,-0.00863878
-0.0200123,0.01872
-0.0148952,0.0455128
-0.00501242,0.0326381
0.00315672,-0.00946661
-0.019225,-0.0286852
-0.0250015,-0.00659857
-0.010076,0.000964613
0.00870741,0.00485217
0.00955573,-0.000979882
0.0110481,-0.0217066
0.0187164,-0.0468393
0.0177391,-0.0262266
0.02401,-0.00323475
0.0149508,-0.00760705
-0.0214369,0.00196714
-0.0349563,0.0270789
-0.0167198,0.0306902
-0.00509343,0.0210749
0.000397535,0.0078346
-0.0335976,-0.0317922
-0.0593086,-0.0202994
-0.0770903,0.0116498
-0.0882476,0.0198317
-0.0628757,0.0191579
0.00107867,0.0174072
0.05558,0.0136672
0.0911422,-0.00714075
0.114183,-0.0341262
0.0998541,-0.0314323
0.0663479,-0.018018
0.0287826,-0.00908985
0.0102059,-0.0155269
0.02453,0.00604932
0.0251294,0.0317558
-0.0024204,0.0238594
-0.0343143,0.0199012
-0.053208,0.0135287
-0.0501345,0.00975115
-0.0201821,0.014351
0.0214572,-0.000225269
0.0307073,-0.00684481
0.00429618,-0.0115046
-0.00231452,-0.0145824
0.000877807,-0.0399695
-0.000842294,-0.0430898
-0.00235642,0.00185353
-0.00629008,0.00432959
-0.017242,0.0255219
-0.0238548,0.0224074
-0.0257478,0.0250174
-0.0387123,0.0170011
-0.0233076,0.00945224
-0.00215666,-0.00664835
0.00168578,-0.0212709
0.00168247,-0.00552128
0.0104867,0.00523166
0.0176801,0.000726312
0.00824042,0.00179371
0.0100051,0.00229415
0.0214481,-0.00582638
0.0255825,-0.0207323
0.0199923,-0.022883
0.00636575,-0.0135338
-0.0123891,-0.00492967
-0.0370896,-0.000732457
-0.0185367,0.0161654
0.0196146,0.00959078
0.0307694,-0.00227002
-0.0186394,-0.022448
-0.0819083,0.00072992
-0.0919442,0.0256016
-0.078533,0.0163984
-0.0484901,0.00371803
0.00624431,0.00476456
0.0300604,0.0146838
0.0503196,0.0108862
0.0553943,0.000675004
0.050247,-0.0154545
0.0553254,-0.0157176
0.0663702,-0.0115548
0.0628323,0.00613361
0.0486363,0.00953115
0.0151439,0.0073025
-0.0137649,-0.00516831
-0.00793804,0.00945964
0.0118621,0.0286777
0.0125315,-0.0144665
0.00483012,-0.0173585
-0.00964684,0.0139835
-0.0211278,0.00546934
-0.0222016,-0.00169421
-0.021692,0.00273051
-0.0188723,0.00376446
-0.00648043,-0.0151792
-0.0107709,-0.0277046
-0.0210148,-0.013037
-0.0189173,-0.00418801
0.00291525,0.00325078
0.0184488,0.0177086
0.0162136,0.0228088
0.012683,0.0227808
-0.00687176,0.0392098
-0.0323815,0.0222563
-0.0701457,-0.0289648
-0.0710896,-0.0593065
-0.0414453,-0.0400673
-0.0381355,-0.000703737
-0.0639382,-0.0151575
-0.028881,0.00699582
0.034198,0.0266684
0.0688994,-0.0028064
0.0721254,-0.00852502
0.0801013,0.0100689
0.0716953,-0.0147249
0.0430515,-0.00708229
0.00936581,0.0186728
-0.0157633,0.0213383
-0.00766078,0.012111
0.0118178,-0.0036192
0.0229505,0.00119236
0.0158414,0.0207555
-0.00347666,0.040205
-0.0119327,-0.0204224
-0.0106453,-0.0714543
-0.0102969,-0.0452947
-0.0103705,-0.00281197
-0.0124045,0.00769652
-0.0305654,-0.0108694
-0.063578,-0.0156491
-0.0424105,-0.0108974
-0.0107208,-0.00172319
0.00939854,0.0204246
0.0421708,0.0472119
0.0405757,0.0773115
-0.0075279,0.0831504
-0.0480037,0.0284911
-0.0254939,-0.0654996
0.00444453,-0.0772441
0.0295875,-0.0420389
0.051946,-0.0190933
0.0431538,0.0112845
0.00268306,0.00513486
-0.0230584,0.00273239
-0.0311499,-0.0151857
-0.0363064,-0.0122189
-0.0243487,0.018105
0.0150204,-0.0313276
0.0470457,-0.0132758
0.0431925,0.0244462
0.0190468,0.0279311
0.0113979,0.0376972
0.0222575,0.0554475
0.0057643,0.0564969
-0.0483016,0.0431231
-0.0358135,-0.00685622
0.00618688,-0.0568511
-0.00572719,-0.0697437
-0.0411749,-0.0565392
-0.0423058,-0.0363919
-0.00582386,0.00493067
0.00247438,-0.0161259
-0.021929,-0.0104981
-0.0282905,0.0113371
-0.0148204,-0.0153367
0.0411614,-0.00810082
0.0403022,0.00416965
-0.00463183,-0.0157524
-0.011438,0.0345727
-0.00903775,0.0246824
-0.0257757,-0.0224107
-0.018056,-0.00874162
-0.00278291,0.0191808
0.00660835,0.0228778
0.0279859,0.0162061
0.0330963,0.026572
0.0134258,0.0509524
0.0223141,0.0399594
0.0459308,0.0138516
0.0430804,-0.027864
0.0296004,-0.039753
0.006826,-0.0402747
-0.0147388,-0.0237569
-0.0071684,-0.000692513
0.00935289,0.0182593
0.00419459,0.0206295
0.000317365,0.0054
0.00587937,-0.00728915
0.0118535,-0.00625908
0.00893424,0.00486367
0.00163284,0.000888136
-0.00648572,0.00473711
-0.0275672,0.00351519
-0.0345052,-0.0017794
-0.0187015,0.0106313
-0.0118753,-0.00513356
-0.0169239,-0.0168997
-0.00773155,-0.01302
-0.00326109,0.00308358
-0.0462365,0.00775979
-0.0790637,0.00364309
-0.051338,-0.00439435
0.0132617,0.00625879
0.0665497,-0.00535961
0.0668353,-0.0307316
0.0488101,-0.0265065
0.0333491,-0.0335722
0.0052626,-0.0112798
-0.00525872,0.0310412
-0.00567375,0.0354891
-0.0154191,0.0348662
-0.0191085,0.0170412
-0.0136706,-0.00422541
-0.00851033,-0.0166897
-0.0155629,0.00139061
-0.0303042,0.0128235
-0.0405525,-0.0020184
-0.0314862,0.00649168
-0.000490366,-0.0220607
0.0239111,-0.0384457
0.0393588,-0.0227312
0.0303463,0.0241841
0.016049,0.0214349
0.00714867,0.0196264
0.0251189,0.00228569
0.0521608,0.00206831
-0.0060585,0.00508984
-0.0562753,-0.00594794
-0.0873431,-0.00802767
-0.0729731,0.00586142
-0.0248994,-0.0101129
0.0291105,-0.00936607
0.0647915,-0.00449099
0.0692709,0.000574964
0.0533772,-0.00387437
0.0431625,0.00786065
0.0120055,0.00795258
0.0241687,-0.00018192
0.0236649,-0.00309615
-0.00454654,0.000502134
-0.00518326,0.00586055
-0.00192457,0.0100424
0.0019773,0.0306182
0.00513461,0.0387553
0.00489807,0.0211659
0.0126638,-0.0168553
-0.00127722,-0.0442209
-0.0142106,-0.033464
-0.0229645,-0.0122496
-0.0306156,-0.00442335
-0.0120492,0.00981041
-0.00856954,0.00697545
-0.0452959,0.000328363
-0.104707,-0.00460942
-0.147199,-0.0139841
-0.124157,0.00204564
-0.0464085,0.0150721
0.0444461,0.0177642
0.111581,0.0103695
0.136562,0.0100519
0.110211,0.0117818
0.062224,0.0254679
-0.0096788,-0.0368616
-0.0585172,-0.0773831
-0.0348547,-0.0623424
-0.00706763,-0.0500846
0.00791915,0.0166585
0.00375161,0.00832406
-0.00819178,0.0409283
-0.00269924,0.0554982
0.0115114,0.0386604
0.0219469,0.0141601
0.0540454,0.0143036
0.048812,-0.00802532
0.0101078,-0.0280949
-0.0121569,-0.014011
-0.0164984,0.00457711
0.00505016,0.00358531
0.0167749,-0.0188278
0.00316483,-0.00969532
-0.00598407,0.00644086
-0.00655854,-0.00648769
-0.0108042,-0.0159366
-0.00425406,-0.0290695
0.0027291,-0.00868906
-0.00345243,0.0472444
-0.00765286,0.0202772
-0.00518471,-0.00665609
0.000378976,-0.0169852
0.010129,-0.00845937
0.0149354,0.0115062
-0.0053854,0.0161126
-0.025093,0.017487
-0.0344641,0.0161659
-0.0186081,0.00633072
0.0016919,-0.00475033
0.00805808,0.00210235
-0.00119101,0.0118114
-0.0134414,0.011649
-0.0102499,0.00725374
-0.00434054,-0.00301972
-0.0040311,0.00490315
-0.0242668,0.00293496
-0.0186952,-0.0134434
-0.0109255,-0.0262789
0.00537064,-0.0165189
0.0316882,-0.00399573
0.0137136,-0.0261556
0.00575533,-0.00587395
-0.00702344,0.0151183
-0.0233315,0.0124495
-0.00118927,-0.00324074
0.00762979,-0.0159055
0.00301215,-0.00564189
0.012462,0.00394094
0.0153867,0.00818028
0.0167953,0.0129535
0.0169481,0.014644
0.00934286,0.00602182
0.0118172,0.00200348
0.00824667,-0.0207151
0.00169792,-0.0143696
-0.0226608,0.00363239
-0.0221271,-0.0243602
0.00814495,-0.00521101
0.0318299,0.0369177
0.00380426,0.0264767
-0.0535287,-0.00131846
-0.0407005,-0.00886944
-0.0304308,-0.00300922
-0.0391259,0.00209
-0.0420405,-0.0010849
-0.0145848,-0.0124286
0.0259432,0.0049686
0.041453,0.0290425
0.0450192,0.0184041
0.0505685,0.010478
0.0253668,-0.00638652
-0.00468122,-0.0391128
-0.0134122,-0.0288761
0.0114424,0.0168492
0.03517,0.04143
0.0378284,0.0297182
0.0132149,-0.00185498
-0.00148422,-0.043098
0.0023338,-0.0336486
-0.0383368,-0.0176011
-0.0768509,-0.000903552
-0.0844598,0.0178263
-0.0682397,0.0133967
-0.00771357,0.00978502
0.0647849,0.00475144
0.123339,-0.00470678
0.126524,-0.0140637
0.0764378,-0.0229148
0.0341158,-0.0175745
-0.00796477,-0.00699282
-0.0534856,-0.00908771
-0.0647536,0.00340514
-0.035909,0.00884122
-0.0117706,0.0316747
-0.00801157,0.0106875
-0.0194514,0.00809977
-0.0136882,0.0282352
0.00766151,-0.0253223
0.0200957,-0.0144906
0.0130971,0.00607628
-0.0221546,0.0104978
-0.0552552,0.00584487
-0.0479963,-0.00424448
-0.0235813,-0.0169517
-0.0154927,-0.0148367
-0.0507609,0.00304281
-0.0569694,0.00571949
-0.0193443,-0.00142552
0.0304856,-0.00282444
0.0711156,0.0056984
0.0905619,0.00968378
0.0718644,-0.000483222
0.016623,-0.00660262
-0.0289074,0.0049998
-0.0168512,0.0266051
0.00156943,0.0186869
0.00685084,-0.00287644
0.00344723,-0.00570288
-0.00408525,-0.0108692
-0.0172089,-0.00616832
-2.69e-06,-0.0172726
0.0205057,-0.0170842
0.0108272,-0.00161672
0.00997697,0.00718665
0.00988082,0.0101511
-0.00553549,0.0248142
-0.0173863,0.010198
-0.0185075,-0.0181867
-0.0487154,-0.0188981
-0.0620063,-0.00859664
-0.0281322,0.0147829
0.00221517,0.0175744
0.0336662,0.00789102
0.0583495,-0.0117768
0.0621344,-0.00128929
0.0433095,0.0100511
0.0277099,-0.00535752
0.018628,-0.0142036
-0.00212521,-0.011061
-0.0365269,-0.00930133
-0.022325,-0.00821867
0.0126509,-0.00140663
0.000104145,0.00528275
-0.013318,0.00274114
-0.00165447,0.00210463
0.0151601,0.00109581
-0.00394456,0.00170751
-0.0303068,-0.00781652
-0.0243648,0.00561588
-0.0228748,0.0259712
-0.0207928,0.0255297
-0.0146296,0.0210085
-0.0528755,0.00369271
-0.0747665,-0.0349138
-0.0366347,-0.026066
0.0181224,-0.00420218
0.0579768,-0.0131012
0.0606751,-0.0204385
0.050377,-0.0405928
0.0391653,-0.0282986
0.0263284,0.0572047
0.0123101,0.0233037
0.0151084,0.0142276
0.0270972,0.0248712
0.0344734,0.0142196
0.0191916,0.00092186
-0.0083632,0.00292051
-0.0221598,0.00424528
-0.0275441,-0.00242301
-0.0285093,-0.00615601
-0.0336674,-0.0273003
-0.0671024,-0.0406745
-0.089854,-0.0204204
-0.0845954,-0.00178379
-0.0208425,0.00439089
0.0377648,0.0181316
0.0670979,0.0254894
0.0582591,0.0221484
0.0269665,0.00106615
0.0162033,-0.000744641
0.0278537,0.00127178
0.0387772,0.0123214
0.0235133,0.0317717
0.00829316,0.0374379
-0.0102653,0.00290685
-0.010054,-0.0409411
0.00647827,-0.040812
0.00925688,-0.025548
-0.00594431,-0.0195917
-0.0134198,-0.0217288
-0.000543991,0.00276315
0.0196661,0.0126262
0.0254979,0.0115678
-0.00992308,0.00837828
-0.0180621,0.00254448
-0.00724878,-0.00627115
-0.00520015,2.54e-05
-0.0338163,0.00318726
-0.103329,-0.00270473
-0.0827156,0.00747333
-0.0118759,0.0159824
0.0519632,0.0145218
0.0537428,0.0130022
0.0375313,0.00230373
0.0393508,-0.0148362
0.0121918,-0.0158401
-0.0169745,-0.00733247
-0.060654,-0.00249568
-0.0723001,0.00198623
-0.0308675,0.0651256
0.0188961,0.0441748
0.0428938,-0.0430353
0.0601472,-0.0426302
0.0647006,-0.0173363
0.0467982,-0.0175751
0.0209529,-0.0142367
0.00608806,0.0064711
-0.00691866,-0.000619405
0.00388443,-0.00305146
0.0289489,-0.00997995
0.0370269,0.0017612
0.00509495,0.016354
-0.044919,0.0153869
-0.058789,0.00806722
-0.0597781,0.00479213
-0.0472567,0.00949858
-0.0400726,0.0156339
-0.0150469,0.00319165
0.0298404,-0.0145242
0.0481635,-0.011869
0.0452498,-0.00984503
0.0352838,-0.0102498
0.0218483,-0.00107425
0.00620213,0.0192207
-0.0135269,0.00877619
-0.0318079,-0.00780658
-0.0309949,-0.00338588
-0.00866019,0.00872096
0.00959335,-0.0292263
0.00313952,-0.0307711
-0.0115616,-0.00872747
0.0032827,0.0215069
-0.00349205,0.0216625
-0.022165,0.0198206
-0.0151602,0.00604687
0.00656768,-0.00704868
0.00704965,0.00205338
-0.0043651,0.0114208
-0.00809375,0.0186051
-0.00421022,0.0115437
0.00786098,0.000274874
0.00731138,-0.0158778
0.00206659,-0.0183198
0.00627786,-0.0155738
0.0205545,-0.00847401
0.0210109,-0.00576989
0.014571,0.00342776
0.0051505,-0.0200921
-0.0131872,-0.0346123
-0.0195824,-0.0256769
-0.0268819,0.00334423
-0.0343874,0.033927
-0.0220288,0.0789112
-0.00851988,0.0306572
0.00807636,-0.0678347
0.00789996,-0.0380735
0.0251153,0.0116815
0.0192489,0.0235824
-0.00808755,0.0307783
-0.0194092,0.0474884
-0.0454376,0.0144277
-0.0301045,-0.0367709
0.00890739,-0.016166
0.0442398,0.0209026
0.0705311,0.0180551
0.053398,0.0101317
0.0243452,-0.00903115
-0.00120283,-0.0437437
0.00200371,-0.0271937
0.0022865,-0.0354326
-0.0019371,-0.0180994
-0.00169328,0.0210126
-0.0191709,0.0223912
-0.0214037,0.0124938
-0.0145184,0.00332062
-0.00604964,-0.00362429
0.0138712,0.00164862
0.0326324,0.0113548
0.0207581,0.0319795
-0.00365143,-0.023914
-0.0283764,-0.0590146
-0.0487384,-0.0189338
-0.0539847,-0.0192766
-0.0361124,0.00506534
-0.00918832,0.0306125
0.00155968,-0.0130691
0.0171269,0.0140882
0.0122904,0.0238298
0.00764733,0.0146841
-0.00063218,0.0101156
-0.00523553,0.00695946
0.0204328,0.0164903
0.0300033,-0.00245156
0.0452565,-0.0156627
0.0346968,0.0158269
0.0309983,0.0180769
0.0494707,0.0128465
-0.00911255,-0.0035395
-0.0451185,-0.0196862
-0.0204315,-0.0214355
-0.0213128,-0.00831102
-0.0437876,-0.00728531
-0.0533135,-0.000151149
-0.0585102,0.00385416
-0.0508599,-0.00211712
-0.0363683,0.00215709
0.0126379,0.00638709
0.0204105,0.00412556
0.0163702,0.00145992
0.0559168,0.00307354
0.073326,-0.00860676
0.0783651,-0.0177053
0.0530938,-0.0112853
0.020934,-0.0105129
-0.010726,0.00889674
-0.0789469,0.0233712
-0.0740172,0.0231724
-0.0120482,0.00684337
0.0350148,-0.0152957
0.0627029,-0.0173861
0.050436,-0.00124413
0.0353295,0.00638681
0.025495,0.00752335
-0.00350537,0.00649062
-0.0338081,-0.00781017
-0.0440443,-0.00534121
-0.0347408,-0.00373334
-0.0143581,-0.0139591
-0.00731491,-0.00421971
-0.00769599,0.00537369
-0.0319321,-0.000636572
-0.0906291,0.0046077
-0.117305,0.00768467
-0.084149,0.00804593
-0.00993798,-0.00442272
0.0516643,-0.014935
0.0729861,-0.00217029
0.0776035,0.00925907
0.0562237,0.00172138
0.0357768,0.022945
0.0161619,0.0123437
-0.00342069,-0.0158052
0.0186683,-0.00284831
0.0450025,0.00182668
0.031572,0.00587999
0.00412322,-0.0189802
-0.0104737,-0.00535948
-0.00419116,0.00790941
0.0112516,-0.00457728
0.0161808,0.00846226
0.00938692,0.0356509
-0.0011996,0.00328201
-0.00888653,-0.00266732
-0.0161538,-0.0149783
-0.0183933,-0.0505945
-0.0212115,-0.0224343
-0.0344792,-0.00648267
-0.0504334,-0.00691069
-0.0337918,-0.00287498
-0.00547059,0.0195208
0.0103189,0.00483739
0.0150912,-0.00164561
0.00812604,0.0109917
-0.00464765,0.00894132
0.0147628,0.0188946
0.0299814,0.0138468
0.00527892,0.000937737
-0.0166545,-0.0137171
-0.0183517,-0.0145078
-0.00362552,-0.00587479
0.0192488,0.0041635
0.0289321,0.00180319
0.00562645,0.00372041
-0.0358757,0.0111195
-0.0585812,0.00357463
-0.0445013,-0.011408
-0.0163794,-0.0109814
0.0276219,-0.00611865
0.0473715,-0.0108823
0.0331604,-0.0015538
0.0187659,0.00301272
0.00734136,0.00782735
0.018148,0.0181037
0.0311802,0.0159579
0.0356311,0.00197189
0.00555579,0.00344398
-0.0257667,0.0437919
-0.0272334,0.0331602
-0.0363124,0.00612518
0.00462196,-0.030952
0.0280274,-0.0349132
-0.0247694,0.00380462
-0.0654361,-0.00318408
-0.0438452,-0.0309068
-0.0023959,-0.0394114
0.01539,-0.0130314
0.0437351,0.0187354
0.0401894,0.013422
0.00677172,0.00753781
-0.0112344,0.0184741
-0.00398288,0.0122933
0.00943177,-0.0159893
0.034834,-0.0143488
0.0429473,-0.0106825
0.0156349,-0.00310842
-0.0546696,0.00373103
-0.0862992,0.0102501
-0.0745043,0.0113816
-0.0471096,0.00224236
0.0089424,-0.00168984
0.0424985,-0.0102908
0.0472931,-0.0136347
0.0511979,0.00641982
0.0536166,0.0118216
0.0279155,0.00356189
-0.000276328,0.0059317
-0.00650417,0.0098837
-0.00536379,0.00179703
0.00161233,-0.0144001
-0.00789015,-0.0119911
-0.0292907,-0.00778449
-0.0125728,-0.00573807
0.0108273,0.00407507
0.0196102,0.0133622
0.0252438,0.0103379
0.0350639,0.00547321
0.0426226,-0.00312056
0.0163003,-0.0116343
-0.0131873,-0.00620493
-0.0303487,0.00215537
-0.0441923,0.0081895
-0.035409,0.0109619
-0.018433,0.0172701
-0.025271,0.0309058
-0.017544,0.0195182
0.00746938,-0.0189517
0.00511522,-0.039084
-0.00897388,-0.0286737
-0.0340369,-0.00270983
-0.0804899,0.0248557
-0.110082,0.042271
-0.0823627,-0.0160212
0.000944094,-0.022137
0.0753801,-0.0101593
0.106009,-0.0339991
0.117807,-0.0292216
0.131933,-0.000752785
0.0886167,0.0209968
-0.00621318,0.02434
-0.0369579,0.0157771
-0.029693,0.00842487
-0.0248315,-0.00234402
-0.0113686,-0.0210798
-0.0178819,-0.0258048
-0.0391459,-0.0125686
-0.0489983,0.00199326
-0.0338526,0.0121394
0.00190257,0.0252472
0.0287455,0.00244159
0.0219448,-0.00454473
0.030143,-0.00116393
-0.00906804,-0.00581749
-0.0671231,-0.0101716
-0.0256165,8.39e-05
0.0190744,0.00660262
0.0160605,0.0157606
0.0121582,0.0163794
0.0055946,0.00611202
0.0180541,-0.0138219
0.0260139,-0.0131012
0.00690309,-0.00639522
-0.00380683,-0.00584556
-0.000686689,0.000686382
0.00566837,0.00591717
0.0044127,0.00962601
0.0103422,0.0190399
0.0209225,0.0109121
0.0242649,-0.00344955
0.0160278,-0.0069763
0.0065135,-0.00646518
-0.00984293,-0.000240727
-0.0235661,0.01107
-0.0242973,0.0131118
-0.0190531,0.0119604
-0.00738271,-0.00441688
-0.00183135,-0.0204011
-0.000556262,-0.0183092
0.00696839,-0.0112895
0.00753664,-0.00245528
0.00134707,0.00464736
-0.00883485,0.00757543
-0.0106316,0.00572771
-0.00771398,0.004435
0.000261099,-0.00513597
0.0132676,-0.0150871
0.00815232,-0.00748707
-0.0167455,0.00578152
-0.0245614,0.00698342
-0.0324137,0.00437435
-0.0344748,0.0142223
-0.024602,0.0140828
-0.0199599,-0.00177753
0.0104842,-0.0114032
0.036582,-0.00487042
0.0348614,-0.0051765
0.0501195,-0.00419503
0.047802,0.00261791
0.00834577,0.00510269
-0.0150487,0.00380723
-0.0118499,0.0110148
-0.00600823,0.00628584
-0.0185096,-0.020499
-0.0307186,-0.0128619
-0.0628733,0.00245143
-0.0729142,0.00206429
-0.0497268,-0.00591832
-0.0229537,0.0162979
0.00234829,0.0232498
0.0248209,-0.0121246
0.0821334,-0.058626
0.106834,-0.0301306
0.0737557,0.00648441
0.0414363,0.00759803
0.00867981,0.0155284
-0.000226657,0.0178211
-0.0222587,0.0149682
-0.0675007,-0.00146988
-0.0651551,-0.00974693
-0.0241416,-0.00491143
0.019862,-0.0105783
0.0332229,-0.00309778
0.0217139,0.02386
0.0169539,0.0326696
0.00923311,0.0168698
-0.00103441,-0.00948999
0.000451931,-0.0077591
0.00733445,0.000640523
0.0183159,-0.0138926
0.00494311,-0.0107136
-0.00849655,0.00308781
-0.00931523,0.00322908
-0.010576,0.000500492
-0.0154123,-0.00246262
-0.00968198,-0.0170333
0.008316,-0.0018202
0.00330624,0.0118622
-0.0118762,0.0168398
-0.00713126,0.00545178
0.00511162,-0.0113093
0.0105032,0.00674078
0.0148169,0.00809769
0.0182175,-0.0102452
-0.000345631,-0.00849461
-0.019858,0.000306038
-0.0417453,-0.00572202
-0.0428754,-0.00497934
-0.0209537,0.00128469
-0.00810504,0.000102363
0.0160236,0.00168042
0.0300025,0.00317726
0.0316809,-0.00729826
0.0220827,-0.0146928
0.0115867,-0.00346112
-0.000190208,0.0132388
-0.0167315,0.0263119
-0.0458063,0.0188481
-0.0551977,0.00431124
-0.0198454,-0.00436013
0.024801,-0.0182402
0.0309168,-0.0209544
0.0350591,0.0026797
0.0319095,0.00926359
0.00984602,0.00571745
-0.00576219,0.00264038
-0.0114094,0.00805227
-0.00718243,0.0121799
0.015497,0.0100689
0.0243124,-0.0084944
0.0279648,-0.0187965
0.0413309,-0.0146642
0.0280738,0.00724813
-0.00206886,0.00527708
0.00244157,0.00364157
-0.0204131,0.00606345
-0.0498457,-0.00247204
-0.0467751,-0.00161745
-0.0560026,-0.0465118
-0.041016,-0.0465354
-0.019161,1.09e-05
0.00157144,0.0276885
0.0241822,0.0304624
-0.0216912,0.00808297
-0.092687,0.00798868
-0.10326,-0.00146343
-0.0536081,-0.0252058
0.0213797,-0.0128592
0.0917248,0.010115
0.126886,0.014981
0.1192,0.0144066
0.0965643,0.0100468
0.0428781,0.00700105
-0.0169508,0.00406443
-0.0425238,0.00298964
-0.0452169,0.0120025
-0.0329487,0.00202638
-0.0364506,-0.0251745
-0.0351229,-0.023089
-0.00604262,0.0127212
0.0422896,0.0135383
0.0549541,0.00638698
0.0547169,-0.00529858
0.0176379,0.00908834
-0.022383,0.0114243
-0.0289188,0.00588607
-0.0187276,0.0034575
-0.00242144,-0.00294142
0.0120746,-0.0185075
0.0314869,-0.0321459
0.0279292,-0.030707
0.0119749,-0.0148066
0.00108888,-0.000531193
-0.00396974,0.0388943
-0.00327399,0.0653951
-0.014066,9.07e-05
-0.0387266,-0.0513883
-0.0458878,-0.0415756
-0.0226556,-0.0161955
0.00537276,0.0140428
-0.00632651,0.0234254
-0.027012,-0.00149031
-0.027339,-0.00356915
-0.000880768,0.0200117
0.00766331,0.0224648
-0.0219735,-0.00993172
-0.0386552,-0.0359181
-0.0141351,-0.0307087
0.0284509,-0.013114
0.0566313,-0.00378651
0.0435549,0.0107469
0.0128409,0.0239778
0.00301077,0.0340677
0.00308754,0.0344794
-0.0106182,0.0215367
-0.0178484,0.00136672
-0.00237717,-0.00551694
-0.0135278,0.00791074
-0.0411228,0.00971083
-0.0252409,0.00157707
-0.00736929,-0.00429047
0.000415186,-0.0267967
0.00272135,-0.04936
0.0134871,-0.0138269
0.0190641,-0.00597397
0.0209393,-0.0181733
0.0270391,-0.00468015
0.037166,0.0151666
0.0227567,0.0248531
0.00889852,0.0223331
-0.00462038,0.0239464
-0.0129698,0.00135465
-0.00532661,-0.0148844
0.00578846,-0.00645123
0.00714519,0.00216072
0.0027952,0.00835668
-0.0176571,0.0257042
-0.0363827,-0.0013315
-0.0323121,-0.0297728
-0.00622437,-0.026679
0.0141666,-0.00484197
0.00478177,0.0145141
0.00969534,-0.00414732
0.0244563,-0.00633425
0.0103823,-0.00794248
-0.0273967,0.00576855
-0.0530833,0.0222058
-0.0508614,0.0443633
-0.00771761,0.0176434
0.0338854,-0.0160162
0.0331621,-0.0129894
0.0302829,-0.00895843
0.0300256,-2.14e-05
0.0129899,0.000795229
0.00654757,-0.00878134
0.0149397,-0.0257963
0.0184968,-0.0223693
0.00880981,-0.0223135
-0.000849744,-0.0268693
0.00268592,-0.0153279
0.00800682,0.00487281
-0.000384225,0.016304
-0.00237514,0.0182301
-0.00648684,0.0184038
-0.00341031,-0.000238832
-0.00422085,-0.00861941
0.00177578,0.0096219
0.0277718,0.0641552
0.0243014,0.0722208
-0.0245171,0.0771609
-0.0542358,0.0498153
-0.0630425,-0.0152746
-0.051505,-0.0842342
-0.0307721,-0.116979
-0.0292331,-0.0612093
-0.0187249,-0.0205627
-0.0032968,-0.00660685
0.0153668,0.0137979
0.0404544,0.0280545
0.0402747,0.022767
0.0309535,0.0283089
0.0202842,0.0159762
-0.0314549,-0.0061895
-0.0652974,-0.0123543
-0.0321756,-0.0196733
0.0221508,-0.0330234
0.0219458,-0.0123381
-0.000418881,0.00642192
-0.00213405,0.00648844
0.0138537,0.00374794
0.0457009,-0.0154553
0.0794088,-0.0141284
0.0744504,0.0053948
0.0297334,0.00908413
-0.00493113,0.0352942
-0.0249352,0.0587184
-0.0624551,-0.0158823
-0.0384366,-0.0360998
0.003291,-0.0321793
-0.00701794,-0.00166356
-0.00167017,0.033129
0.00991889,0.0311483
0.0372543,0.0056019
0.0469887,-0.00904549
0.0242343,-0.00244314
-0.00743686,-0.00697043
-0.00858214,-0.0135422
-0.00906563,0.00865353
-0.0259102,-0.00610524
-0.0235094,-0.0123635
-0.00854651,-0.000231058
-0.00446113,0.00323521
-0.008937,0.004164
-0.000110093,0.0268675
0.00468916,0.0281672
0.000748286,-0.0170367
0.00507174,-0.0440519
-0.00385175,-0.0258439
-0.0168975,-0.00173923
-0.0180696,0.0224913
-0.0121057,0.0418353
-0.0010099,0.0308082
-0.00391164,-0.00263916
-0.0119569,-0.0137052
-0.0156207,-0.0121986
-0.00995429,-0.015268
-0.000460944,-0.0213156
0.00686774,-0.00773281
0.00703511,0.00704515
-0.0049678,-0.0168279
-0.0236374,-0.0360044
-0.00232961,-0.00805735
0.0255249,0.00326544
0.0318564,0.0166342
0.030643,0.024819
0.0196418,0.0181424
-0.00493191,0.0187316
-0.0187762,0.0339643
-0.024438,0.0336186
-0.0112051,0.0025581
-0.0115949,-0.0364803
-0.0116735,-0.0375987
-0.00154495,-0.00485652
0.00459489,-0.00611002
-0.00126035,0.00471742
-0.00755094,0.010577
-0.00412799,0.00790095
-0.0148164,0.000273811
-0.00194336,-0.0156364
0.0319851,-0.0091356
0.0294479,0.0468663
-0.00239677,0.0114145
-0.00944033,-0.024159
-0.000651293,-0.0309719
0.00653204,0.0167044
0.00670114,0.0265733
0.0110362,-0.0226367
0.0187946,-0.0352041
-0.0107599,-0.0245311
-0.0274965,-0.0122193
-0.00211783,-0.00931168
0.0215301,0.0238872
0.0279996,0.0272062
0.0211876,0.0158617
0.008772,0.0114439
-0.0109188,-0.00608236
-0.0126859,-0.0219962
-0.00925893,-0.0115251
-0.00656751,0.00209628
-0.00150892,0.00184276
0.00135364,0.00894615
-0.00786643,0.00972271
-0.0238661,-0.00983972
-0.0160902,-0.0197862
-0.00440135,-0.0044524
0.00762673,-0.000732015
0.0207946,0.0129472
0.0273961,0.0313909
0.0252625,0.0257475
0.0148611,-0.00448622
-0.000172615,-0.0117094
-0.034666,-0.0126417
-0.0661277,-0.0178749
-0.0583954,-0.00746355
-0.0345407,0.00216867
0.0174018,0.00735778
0.0459935,0.00994128
0.0222676,0.00230424
0.00198007,-0.00301937
0.0228623,0.00363092
0.0367514,0.00120332
0.0103573,0.0194666
-0.0184426,0.0279173
-0.02698,0.017632
-0.011066,0.0122591
0.00093003,-0.0239704
0.018299,-0.0253461
0.0187287,-0.0152871
0.00302069,-0.027584
0.0218629,-0.0227334
0.0188794,-0.014618
0.0102455,-0.012129
0.0169539,-0.00248195
0.0218788,0.0375264
0.00812093,0.0324198
-0.0213217,0.00850243
-0.0246872,-0.0101046
-0.0231307,-0.00537723
-0.0134712,-0.00482889
-0.00171465,-0.00382737
-0.00807639,0.00690401
-0.0681717,0.011905
-0.0915425,0.00764202
-0.036066,0.0112915
0.00453276,0.00402016
0.0282641,-0.0171707
0.0524281,-0.0190946
0.0277819,-0.00779942
-0.0251413,0.00120552
-0.0351888,0.00171476
-0.0212477,4.8e-05
0.0265972,-0.000783564
0.0704442,-0.0134923
0.0816945,-0.0131915
0.0650499,-0.00164202
0.0458597,-0.00212875
0.0242211,0.0296962
0.00324712,0.0485195
0.000310665,0.0243878
-0.0125672,-0.0180665
-0.0254314,-0.0134662
-0.0146696,0.00170491
-0.00256965,-0.0120176
-0.00893238,-0.0159351
-0.0262892,-0.0161025
-0.0327591,-0.0118716
-0.0323521,-0.00520894
-0.0202709,0.00522191
-0.0102329,0.00869657
-0.00189253,0.0013724
-0.00232271,-0.00463017
-0.00088438,0.00457164
0.00225125,-0.00339483
0.00497807,-0.00737289
0.00823981,0.00870122
0.0130407,0.0102807
0.00394486,7.17e-05
-0.00631794,-0.00949138
0.0111495,-0.0130114
0.0143914,-0.00867306
-0.00732953,0.00914819
-0.0262459,0.0716095
-0.0328221,0.0823185
-0.0344589,-0.0064662
-0.0210606,-0.0269822
0.00269638,-0.0466267
0.0226664,-0.0348039
0.0244777,-0.00490548
0.0123152,-0.0174975
0.00613677,-0.0328577
-0.00753226,-0.0190476
-0.00540244,0.00561252
0.00838766,0.0194471
0.0115045,0.0269039
0.0113293,0.0111341
0.0182906,-0.00672746
0.0145427,-0.0237853
0.0113454,-0.0108437
0.000768294,0.00282527
-0.0346845,0.00707652
-0.0483708,0.0167484
-0.035034,0.00771175
-0.00977747,-0.00135017
0.00409519,-0.0117847
0.00842625,-0.00420984
0.0195155,-0.0148872
0.0172633,-0.00692903
0.020642,0.0334552
0.0173699,0.0186663
-0.000611917,-0.000398228
-0.0134464,0.00602133
-0.00823896,0.00420157
0.00224066,-0.0108333
-0.00414042,-0.00155574
0.0101121,0.00609485
0.0238963,-0.00449921
0.0143144,0.0221313
8.73e-05,0.0466145
-0.00532541,0.0223698
-0.00420339,-0.0150164
-0.00381014,-0.0348739
5.72e-05,-0.0229219
0.00534801,-0.0232676
0.00768653,-0.0155334
0.00680215,0.0107568
7.04e-05,0.019631
-0.00689509,0.0130845
-0.00324576,0.00270016
0.0041975,-0.0179365
0.00692249,-0.0308052
-0.00102719,-0.0164266
-0.0125395,0.00190731
-0.0114398,0.0228147
-0.000289189,0.0103511
-0.000921688,-0.00680927
-0.0072418,-0.00240495
-0.00313253,-0.0114802
-0.0013578,-0.0124061
0.00343456,0.00505386
0.007352,0.00962181
0.00568,0.0142451
-0.0026494,0.0161168
-0.00912021,0.0104974
-0.0140079,0.0153789
-0.00675492,-0.00267112
0.00441663,-0.0188779
0.0152015,-0.0123357
0.016866,-0.00702132
0.0206426,-0.00728188
0.0115205,-0.00557118
-0.0195176,-0.00196888
-0.0271931,-0.00119152
-0.0137865,-0.0138092
-0.00954261,-0.00669704
-0.0131908,0.0106477
-0.00830552,0.0234797
0.0102889,0.0249299
0.00559981,0.00725604
-0.00837029,-0.0125806
0.00079874,-0.0105306
0.0135093,-0.0052361
0.0154058,-0.014966
0.0109608,-0.0272215
0.0120753,-0.01113
0.0132462,0.00936736
-0.000601922,0.00103199
-0.0120723,0.00146138
-0.00719234,0.0154742
-0.00603138,0.0230885
-0.00707344,0.0170431
-0.00489325,0.00254732
-0.00216835,-0.00531032
0.00365775,0.0123644
0.00331609,0.00444752
0.00604156,-0.000737357
0.0109218,0.00766554
0.00988812,-0.0104073
0.00994649,-0.000611991
0.00564984,-0.00705896
0.00850207,-0.0162125
0.010803,-0.0172059
-0.00230607,-0.00740067
-0.00466968,0.0229196
-0.00680596,0.0074487
-0.0359363,0.0126994
-0.0526462,0.0126576
-0.0518363,-0.0357819
-0.0184567,-0.0302109
0.013564,0.00766477
0.0365613,-0.0139545
0.0543076,-0.000557586
0.0345833,0.0144007
-0.0204374,0.0302426
-0.046285,0.0257785
-0.0338114,-0.00882363
0.00198332,0.0095674
0.0170913,-0.00241389
0.0310169,-0.0176938
0.0446184,0.0012418
0.0345314,-0.00103992
0.0135653,-0.00414324
-0.00902325,-0.00498678
-0.0103701,-0.0121629
-0.0125948,-0.016925
-0.00355953,-0.000964637
0.00255543,0.00316586
0.00554708,0.00155758
0.0155974,0.00860113
0.0196942,0.0168288
0.0148774,0.00473559
0.0105255,-0.0112652
0.0188547,-0.00974195
-0.00305819,0.000514133
-0.0784426,0.0133122
-0.104088,0.016015
-0.0792646,-0.0104156
-0.0479662,-0.00374446
-0.0238637,0.0107359
-0.0171891,0.00649162
0.0180373,-0.000701092
0.0472679,0.000153278
0.0250158,-0.001533
0.0212418,-0.0132614
0.0415646,-0.00534817
0.077141,0.0114834
0.0896717,0.0129026
0.0571137,0.0155566
0.0348789,0.00616997
0.0150986,-0.0133387
0.00677532,-0.0199043
0.0119809,-0.0123845
-0.00484335,-0.0057868
-0.0515806,-0.00512956
-0.0873476,0.00318764
-0.0937511,0.0122287
-0.0924772,-0.000895067
-0.0856563,-0.0124077
-0.0726726,-0.0178116
-0.00475872,-0.0135837
0.066015,0.012793
0.0891138,0.00688936
0.0932427,0.0173557
0.0754593,0.0173503
0.0466971,0.0157676
0.0205083,0.0179629
-0.00479917,-0.0290738
0.00200184,-0.0401447
0.0155526,-0.00108672
0.0114094,0.00713791
0.00425832,-0.00176094
-0.00540534,0.00229483
-0.00696856,0.0116564
-0.00854206,0.00807236
-0.00925528,-0.00502976
-0.0071815,-0.0141155
-0.0151566,-0.00264823
-0.0262493,0.0149182
-0.0379851,0.00704187
-0.0399299,-0.000620533
-0.0286435,0.00190848
-0.0185419,-0.0140877
-0.010642,-0.00446171
-0.00143725,-0.00109282
0.00434706,-0.00612879
0.0100235,0.00159413
0.0182578,0.00301719
0.0189749,0.00619266
0.0156962,0.0181576
0.0122803,0.0263229
0.0156114,0.0162734
0.0129028,0.0162229
0.00439644,0.000481172
0.000373949,-0.0490574
-0.0052678,-0.0138181
-0.0148544,0.00598821
-0.0194593,0.00774777
-0.0182497,0.00215055
-0.0259462,-0.00423718
-0.0173382,-0.00872871
-0.00569213,-0.0204987
0.000402238,-0.0208731
0.00614771,-0.00915337
0.017383,0.00419435
0.0261458,0.0105074
0.0207222,0.0283176
0.00913536,0.0496519
0.00337339,0.0311479
0.00480228,-0.0047589
0.00184431,-0.0210963
-0.00164067,-0.0408849
-0.00922641,-0.0256639
-0.0204452,0.00357543
-0.0210791,0.000196194
-0.0162035,0.00396723
-0.0103253,-0.00207129
-0.00494973,-0.0203145
0.00300733,-0.028943
0.0181764,-0.00410377
0.0236711,0.00463289
0.0193772,-0.00116
0.00959265,0.00774559
0.00306561,0.0121013
0.00334065,-0.00104592
0.0107851,-0.0200934
0.00989126,0.0116324
0.00297186,0.024968
-0.00536887,0.0243672
-0.0125085,0.0623025
-0.0205824,0.0276903
-0.015136,-0.0329461
-0.0109176,-0.0189999
-0.0164885,-0.0111569
-0.00530353,-0.0166315
0.00568246,-0.0169359
0.00854715,-0.00637155
0.0165378,0.00555001
0.0213464,0.0112023
0.0182871,0.0152966
0.0117808,0.00875148
0.0133553,-0.00504892
0.0143311,-0.00996979
0.00289019,-0.00281582
-0.0118137,-0.00632646
-0.0170333,-0.00322165
-0.0231147,0.00591844
-0.0239508,-0.000103293
-0.0173075,0.000162225
-0.0106522,0.00105448
-0.00361662,-0.0200301
0.00647577,-0.0289156
0.00999846,-0.0119743
0.00996878,-0.0166723
0.00970706,0.00504658
0.00595255,0.0298663
