Comp Ch 3,Comp Ch 4
-0.0309948,0.00158326
-0.0270518,0.0134327
-0.0128881,0.0138211
-0.0125905,0.0204239
-0.00862166,0.0186844
0.00875648,0.000842544
0.0157659,-0.0181789
0.0202165,-0.0148473
0.022401,-0.0118669
0.0180997,-0.00224713
0.00343681,0.0106812
-0.00711765,0.0160717
-0.0137844,0.0114296
-0.0188334,0.0103231
-0.019106,-0.00382466
-0.014545,-0.0149436
-0.0134563,-0.0024374
-0.0122451,0.0103011
-0.0050319,0.00576702
0.00177715,0.00608102
0.0226495,0.0117171
0.0574324,0.00526555
0.0729344,-0.0120889
0.0740499,-0.0203565
0.0659125,-0.0146509
0.0481507,-0.010895
0.0132152,0.00112854
-0.0126984,0.0123989
-0.0243529,0.0122182
-0.0280127,0.00616453
-0.0408695,0.00177757
-0.0335208,-0.0153795
-0.0529694,-0.0210848
-0.06904,-0.00359396
-0.0587711,0.00400322
-0.0485946,0.00717125
-0.0390339,0.0155085
-0.028292,0.0195632
-0.00608707,0.0029692
0.0173478,-0.0142519
0.0257383,-0.0140576
0.0248193,-0.0106664
0.0197993,-0.00948549
0.00858777,0.00268243
-0.000776355,0.0141018
-0.00181291,0.00749273
0.00410162,0.00123506
0.0105312,-0.00468538
0.0153484,-0.0231196
0.0125342,-0.0203115
0.0187766,0.000335433
0.0571996,0.00989988
0.0834875,0.0130421
0.0727808,0.019015
0.0489553,0.0235531
0.0170961,0.00228609
-0.0199649,-0.0228058
-0.0375556,-0.0107981
-0.0492768,-0.00733397
-0.0549027,-0.0311504
-0.0532629,-0.00797997
-0.0238665,0.0280176
-0.0096654,0.00897569
-0.0258192,0.0023957
-0.0256023,0.00152716
-0.00696084,-0.0116345
-0.00671905,-0.00374955
-0.00594811,0.0117425
0.000335881,0.0132798
-0.0012268,0.0201531
-0.00588042,0.0248585
-0.00522228,0.0206248
0.005969,-0.000253885
0.0190675,-0.0252873
0.021704,-0.0172096
0.0193226,-0.0044559
0.0154266,0.00298424
0.00903932,0.0105969
0.00387298,0.00931857
0.000850509,0.00520001
0.000788692,0.00298528
0.00422832,-0.0163076
0.00342972,-0.0248743
0.000613879,-0.0091443
-0.00301194,0.00365627
-0.00499563,0.00593285
-0.00999776,0.0154255
-0.0159193,0.0227797
-0.017191,0.00968
-0.0110153,-0.0151032
-0.0032909,-0.020803
0.00631404,-0.0178982
0.0323751,-0.0138632
0.0664035,-0.00259979
0.0926954,0.0120989
0.0661033,0.0109411
0.0178814,0.00969741
-0.0381476,0.00111719
-0.0627266,-0.0172076
-0.0558918,-0.0189678
-0.0540739,-0.00423509
-0.0389325,-0.00208552
-0.0165857,0.000942863
-0.0145509,0.0119571
-0.0142185,0.0208658
-0.00730834,0.00506698
-0.00449396,-0.0249312
-0.00553061,-0.0217198
-0.00376048,-0.0116962
-0.0041361,-0.000977228
-0.0090675,0.00805606
-0.00781377,0.0105128
-0.0020016,0.00514033
0.00392022,0.00933428
0.00781622,0.0127891
0.0138045,-0.00469449
0.020651,-0.00573527
0.0481154,0.00339243
0.0646402,0.00399222
0.0527394,0.0273723
0.029317,0.0678913
-0.00574744,0.0896129
-0.026345,0.0789792
-0.0251244,0.023584
-0.00973578,-0.0397118
-0.00401676,-0.118644
-0.0121244,-0.0925852
-0.021149,-0.0240505
-0.0201954,-0.05076
-0.0205121,-0.0295082
-0.0346581,-0.00408434
-0.0387472,-0.0127119
-0.015346,-0.0169439
0.00296829,-0.0107827
0.0129865,-0.0194857
0.0222735,-0.00841385
0.024728,0.0181706
0.0165958,0.0428897
0.0148687,0.0449889
0.0136754,0.0243901
0.00588887,0.0233146
-0.00816904,0.0391477
-0.0165356,0.0369894
-0.0167764,-0.00826335
-0.0139403,-0.0324974
-0.00207601,0.00223314
0.00360733,0.00805518
0.00386488,-0.00584763
0.0107019,0.00233377
0.0252278,-0.00775647
0.0351128,-0.0175556
0.0335677,0.00286864
0.0291185,0.023595
0.00692299,-0.00252047
-0.0332093,-0.00772798
-0.0258166,0.00386186
0.0013851,-0.0453036
0.0119168,-0.0450745
0.00842569,-0.021063
0.00123398,-0.0034621
-0.0348458,0.0126751
-0.0632136,0.0025071
-0.0504022,-0.000382106
-0.021985,0.00945344
0.0118059,-0.00204961
0.0368865,-0.0185419
0.0393434,-0.0226976
0.0212152,-0.0154892
-0.00352321,-0.00277626
-0.0223923,0.00753455
-0.0163,0.00495671
0.00840504,0.0138081
0.0219687,0.00548957
0.0288434,-0.00562859
0.0266005,0.0396452
0.0181756,0.0811785
0.00217742,0.0951657
-0.0436401,0.0977174
-0.0760991,0.0450911
-0.0504208,-0.0682323
-0.0266581,-0.128943
-0.0149393,-0.114081
-0.0241549,-0.0543956
-0.0286839,-0.000786435
0.0131562,0.0194439
0.0413288,0.00494395
0.0370544,0.00384309
0.0599889,0.0106211
0.104712,-0.00359658
0.123579,-0.0270114
0.106025,-0.0254938
0.0828236,-0.0109572
0.0299742,-0.00390189
-0.0360775,0.0241198
-0.0827798,0.0610524
-0.0895446,0.0274236
-0.0760028,0.0186012
-0.0838702,0.0386496
-0.0725011,0.032723
-0.0288671,0.065342
-0.000512893,0.0877123
0.00120924,0.0549076
-0.00131216,-0.0257071
0.000491835,-0.0608325
-0.00279793,-0.0493848
-0.00723918,-0.0703098
-0.00770575,-0.111693
-0.0105786,-0.118232
-0.00657036,-0.0694813
0.00460209,0.0495526
0.0117869,0.166235
0.00587775,0.215954
0.00516437,0.16323
0.00946689,0.00166541
0.024986,-0.209544
0.00961513,-0.241937
-0.0441377,-0.105966
-0.0648848,-0.0105524
-0.0258028,0.0154736
-0.00911176,0.0324121
0.000105866,0.0342374
0.0514084,0.0289182
0.0932633,-0.0113206
0.071144,-0.00100213
0.00819635,0.0491418
-0.0293771,0.0193781
-0.0204368,0.00852084
-0.0160555,-0.0257641
-0.00965487,-0.00389912
-0.00703581,0.061972
-0.012205,0.0782246
-8.64e-05,0.0645401
0.037303,0.0406217
0.0478915,0.00904165
0.0402381,-0.0550259
0.028415,-0.0891178
0.015778,-0.0924549
-0.00426728,-0.0516966
-0.0244075,-0.00884771
-0.0286316,-0.0254684
-0.0199405,-0.0343406
0.000948032,-0.00869035
0.0244214,-0.00368134
0.0143512,0.00431106
-0.0013961,0.0852529
0.000323417,0.126202
-0.00388954,0.0974835
-0.0102173,0.0398962
-0.0129467,-0.11104
-0.0569263,-0.201806
-0.0793545,-0.0665033
-0.0272186,-0.0356985
0.0115682,0.018508
0.00972105,0.166098
0.015488,0.131792
-0.000722752,0.0163346
-0.00673639,0.0075053
0.00451449,-0.000555802
-0.00204635,-0.0537543
-0.0054312,-0.0268948
0.0129358,-0.0424479
0.0136996,-0.0572493
0.0176643,-0.028661
0.0290545,0.0299578
0.0528557,0.0336188
0.05211,0.00388292
0.0360538,-0.00452311
0.0221818,-0.00054041
-0.00831745,0.00280141
-0.0324298,0.0156997
-0.0335553,0.0214056
-0.0190816,0.0248322
-0.0142125,-0.00112241
-0.0111719,-0.0261315
-0.00372949,-0.00950312
-0.0136858,0.000233652
-0.0728777,-0.00112698
-0.0840486,-0.0137156
-0.0432952,-0.006764
0.00281212,-0.00333014
0.0480133,0.0159582
0.0826718,0.00215509
0.0819124,-0.0216435
0.0363866,-0.0121148
-0.0262748,0.00892685
-0.0303115,0.020473
-0.0347992,0.0338709
-0.0475783,0.0243879
-0.028968,-0.00595148
0.0242536,-0.0135668
0.0636344,-0.0190314
0.069772,-0.0312518
0.0415061,-0.0130666
0.00913273,0.000211051
-0.015467,-0.016604
-0.0117459,-0.00486541
0.00761012,0.0101468
0.0358739,0.0327339
0.0420957,0.0236802
0.000674189,-0.00978713
-0.135896,-0.0251225
-0.178051,0.00632817
-0.112441,0.0426942
-0.0947865,0.0305961
-0.0577949,0.0369011
-0.00433884,-0.00564387
0.0771653,-0.0364746
0.195102,-0.00318707
0.211919,-0.00612021
0.109741,-0.0427797
0.0349978,-0.0019135
-0.0176634,0.02181
-0.013302,0.000801496
0.0412792,0.0249552
0.0871299,0.0117091
0.0749417,-0.0206532
0.056762,-0.0184865
-0.00867345,-0.0242506
-0.231611,-0.0333546
-0.494905,-0.0131765
-0.443632,-0.00641986
-0.214061,0.047066
0.00507427,0.00593372
0.110777,0.0139889
0.0837413,0.0294023
0.120113,0.00814
0.224527,-0.0117595
0.226346,-0.000751104
0.207228,-2.67e-05
0.171343,0.000194974
0.108778,-0.00126076
0.0506217,-0.0318454
0.0213166,-0.0208786
0.0359479,0.000449368
0.0207292,0.00761493
-0.056646,0.0224004
-0.0617517,0.0140303
-0.017693,0.0346859
0.0132582,-0.000717023
0.017768,-0.0183792
0.00288759,-0.00685001
-0.0301926,-0.0080201
-0.07719,-0.0204732
-0.106877,-0.0228101
-0.109986,-0.023999
-0.0972983,-0.00625863
-0.0514318,-0.0259522
0.0112189,0.00415397
0.0425454,0.0470974
0.0382107,0.0146593
0.0343771,-0.0113748
0.0336612,0.00180311
0.0301356,0.0373167
0.0150126,0.0319384
0.00353791,0.0236493
-0.0102273,-0.0109164
-0.030179,-0.0515876
-0.0331956,-0.0591913
-0.00252014,-0.00890326
-0.000886697,0.0229805
-0.0148136,0.0339439
-0.0415335,0.021238
-0.0520101,-0.00188374
0.0129623,0.00638146
0.0988468,0.0034477
0.110394,-0.031923
0.0741776,0.00253618
0.0277831,0.00173197
-0.0095865,0.00301985
-0.0444961,-0.0119254
-0.099232,-0.0254224
-0.120545,0.0116158
-0.0783166,-0.0561818
-0.0135049,-0.072098
-0.00274055,0.0683807
-0.023455,0.0989633
-0.0307193,0.0298901
-0.0304067,0.00952037
-0.0321398,0.0158936
-0.0258696,0.00635378
0.000921335,0.00655309
0.0373545,-0.0134725
0.0517947,-0.0314019
0.0533649,-0.00706659
0.04797,0.00197194
0.0551027,0.010426
0.0589553,0.0136908
0.0512131,0.0115935
0.0265436,-0.0174067
-0.000774741,-0.0174569
-0.0142096,-0.0238043
-0.0239096,-0.0109179
-0.0268486,-0.0203231
-0.0274714,-0.0174424
-0.0380321,-0.0176987
-0.0472931,-0.00364542
-0.0373141,0.0200416
-0.017297,0.00204708
0.00837146,-0.0368718
0.0335499,-0.0151799
0.0537306,0.02399
0.0689671,0.0269974
0.0689641,0.0127993
0.0524417,0.0201439
0.0412226,0.0243987
0.0218752,0.0142688
-0.00492636,-0.0128775
-0.0321779,-0.0387881
-0.0623916,-0.0496026
-0.0598416,-0.0189433
-0.0450055,-0.00963497
-0.042553,-0.0275519
-0.0244488,0.0225753
-0.00136356,0.0354257
0.0122144,-0.00646722
0.0270812,0.0221408
0.0345612,0.0246624
0.0284255,0.0204029
0.0200113,0.0118383
0.0237876,0.0138423
0.015262,0.0107618
-0.0158539,0.0238939
-0.0414819,-0.0171005
-0.0356816,-0.0412557
-0.0134766,-0.030536
-0.0305157,0.00674217
-0.0742397,0.0229202
-0.0963169,0.0225515
-0.0638476,0.026394
0.0131477,0.0309835
0.0551103,-0.015464
0.0928368,-0.0221045
0.101924,-0.0330769
0.0696397,-0.0379007
0.0103589,0.00685942
0.00675019,0.0206009
0.0180894,0.00769785
0.0139728,0.0148304
0.0452097,0.0416563
0.0283524,0.0239269
0.0104879,-0.0174698
0.019999,-0.0166335
0.0116551,-0.01543
-0.00305612,-0.0055612
-0.0295202,0.00732782
-0.0514317,-0.00584562
-0.0606268,-0.0182582
-0.0861977,-0.0145372
-0.0672182,-0.0504324
-0.0198503,-0.0628087
0.0172716,0.0382111
0.0087961,0.0391971
-0.0584776,0.01948
-0.128701,0.0227963
-0.0999063,0.0300983
0.00321464,0.0164685
0.099873,-0.0103528
0.17287,-0.015338
0.153,-0.0219784
0.0793074,-0.0269877
0.0271562,0.0127182
-0.00594902,0.00920883
-0.022144,0.00363427
-0.0184874,0.00991872
-0.005003,0.000585752
-0.0026457,-0.0127989
-0.0105473,-0.0149372
-0.0186942,-0.00689322
-0.0067349,-0.00371832
-0.00343865,0.0296752
-0.0592263,0.0241641
-0.075954,0.0188654
-0.0351252,0.0346013
0.0387422,-0.0370455
0.0653358,-0.0183653
0.0635512,-0.0251465
0.0234219,-0.032217
0.00356473,0.00414036
-0.000486489,0.00125647
-0.0365095,-0.0242142
-0.0971303,0.0379229
-0.0859861,-0.000840242
-0.0588033,-0.0202296
-0.0499425,0.0047637
-0.044417,0.0127926
-0.0237318,0.0304978
0.0364324,0.0242264
0.0797449,0.0184077
0.0872277,0.00321002
0.0748317,-0.0102816
0.0478218,-0.0223279
0.0247944,-0.019486
0.00218724,-0.0071723
-0.00498331,-0.00802852
-0.0116029,0.00360273
-0.01327,0.0234833
0.00468385,0.00896676
0.00840944,0.000910554
0.0131868,-0.0192989
0.0104994,-0.0336174
-0.00274487,0.00301554
-0.000914042,0.0014832
0.0201992,-0.00178801
0.0249297,0.0297544
0.0180764,0.0293098
0.00941736,0.0108021
-0.00946328,-0.0204096
-0.0229016,-0.0100226
-0.0303844,-0.0113044
-0.0401467,-0.0273263
-0.052162,-0.0270617
-0.0454552,-0.000125351
-0.0290492,0.0225564
-0.0196769,0.0166201
0.013031,0.000940219
0.0358118,-0.0133988
0.0218837,-0.0128576
0.00668855,0.0036765
0.0021726,-0.00486432
0.00529157,0.00855238
0.0133861,-0.000705904
0.0145677,-0.00579674
0.0197219,0.021166
0.00860825,-0.00570879
-0.0100292,-0.0234301
-0.0150846,-0.0184652
-0.0118243,0.0208894
-0.00758958,0.024357
-0.011393,0.0249143
-0.0224916,0.0109904
-0.0215578,0.0163355
-0.013579,0.00326383
-0.0124524,-0.0612581
0.00289944,-0.0615755
0.02697,0.00514995
0.0467908,0.0464604
0.0597435,0.0422185
0.0444329,0.0469848
0.0206466,0.0241418
0.00178753,-0.0128376
-0.0207728,-0.0298882
-0.0500519,-0.0216795
-0.0485382,-0.0177745
-0.0301447,-0.00346855
-0.00538157,0.0171207
0.00987916,0.0156135
0.00726898,-0.00190094
0.00962728,-0.00433416
0.0156369,-0.0156745
0.00449566,-0.0275794
-0.0114437,-0.0171972
0.0084573,0.0086831
0.0324796,0.00667946
0.0212809,0.0188757
-0.00679273,0.0294681
-0.0787425,0.00415083
-0.114825,-0.00975255
-0.0849864,-0.0151296
-0.0143187,-0.0131146
0.0746609,-0.0123029
0.0971611,-0.00258367
0.0735581,0.0337031
0.0146766,0.0185886
-8.15e-05,0.00312894
-0.00481168,-0.0313738
-0.00345872,-0.0425733
0.012624,0.00693815
0.0105367,0.0125721
0.00747504,0.0143611
0.0085825,0.0157785
7.35e-05,0.00970836
8.4e-05,0.00525437
0.0272809,-0.00175521
0.0346159,-0.0532541
0.0200907,-0.0188104
0.00322411,0.00198482
-0.00821381,0.00684472
-0.0253232,0.0148915
-0.0339407,0.0086265
-0.0371861,0.00942998
-0.0433651,0.0160425
-0.0326351,-0.00458807
0.00458197,0.0185785
0.0331687,0.0333469
0.0296235,0.0041475
0.0257165,-0.00302154
0.0210456,-0.00993677
0.0133455,-0.0200427
0.0151502,-0.026281
0.0112311,-0.0422492
-0.00178285,-0.0283642
-0.0141947,-0.0186265
-0.0238127,-0.00267047
-0.0211387,0.0292839
-0.0167686,0.0329754
-0.0135799,0.022041
-0.0100113,0.0360885
-0.00819155,0.0126522
-0.0449764,-0.0188611
-0.11581,-0.0152234
-0.091366,-0.00791071
-0.00590113,-0.0166224
0.0599312,0.0237062
0.0932421,0.014635
0.107359,-0.00310174
0.0927978,-0.0244971
0.0355041,-0.0432201
-0.00594456,-0.0189266
-0.0299381,-0.00234577
-0.0329897,0.00441893
-0.0305324,0.0162481
-0.0501965,0.000489233
-0.0485896,-0.00115297
-0.00316933,0.0339854
0.0199835,0.0280702
0.0414631,0.0119488
0.0354377,0.0207341
0.00317239,0.0249578
-0.00237352,0.00854921
-0.0192599,-0.00741341
-0.0295666,-0.0050342
-0.0191332,-0.0187435
-0.00371364,-0.0367537
0.0117075,-0.027297
0.0190146,-0.0193317
0.0172433,-0.0103416
0.00925023,0.00425495
-0.00663849,0.0341763
-0.00744948,0.0263785
-0.00587996,0.00694066
0.00663227,0.0106516
0.0215012,-0.015923
0.0273602,-0.00133036
0.017365,0.0298059
0.00722591,0.00955105
0.0117844,-0.0120125
0.00766356,0.00308388
0.000101633,-0.0182842
-0.00475984,-0.0313736
-0.0120409,-0.032105
-0.0203578,-0.0229658
-0.0195995,-0.0092986
-0.000126587,0.0198351
-0.00857391,0.0311915
-0.00876566,0.0317271
-0.0108553,0.022363
-0.00818949,0.0126732
-0.0115958,-0.0176848
-0.00898911,-0.0237291
0.00430216,-0.0561966
-0.00467405,0.00643688
-0.0317283,0.0152239
-0.0397143,-0.013354
-0.00410001,0.0104598
0.0302744,0.006752
0.0371648,-0.0320749
0.0374595,-0.0028806
0.0129714,-0.000457911
-0.00145175,0.00875646
-0.0200082,0.00800006
-0.0329811,0.0114102
-0.0101464,0.0210059
0.00898375,0.0281843
0.00406888,0.030537
0.0128888,-0.00435611
0.0217048,-0.0131924
0.0253151,0.0319038
0.014756,0.0162853
0.00188538,-0.00117327
0.0120111,-0.00358851
0.0152428,-0.0026276
0.0141856,-0.0134115
0.00772546,-0.0403073
-0.013639,-0.0393348
-0.0202937,-0.0166325
-0.0250632,0.00502495
-0.0417305,0.0120076
-0.0560379,-0.00133374
-0.0539527,-0.00214275
-0.0337311,-0.0377499
-0.00572386,-0.00716856
0.0349858,0.0241911
0.0376666,0.0168085
0.041227,0.0199186
0.0461577,0.0242247
0.045215,0.000226984
0.0239354,0.010074
0.00260974,0.00860468
-0.00856177,-0.0454602
-0.0231607,-0.033066
-0.0160845,-0.0162612
0.011977,0.00874322
-0.000470054,0.00487499
0.00214614,0.0234575
0.00669397,0.0364891
0.00615601,0.0260612
-0.00302944,0.0152947
-0.00721482,-0.00914998
-0.015618,-0.033942
-0.0062105,-0.00826695
0.00615795,0.00868446
-0.0035761,-0.0131774
0.0015379,0.00573258
0.0021349,0.0146496
0.00368181,0.0185628
0.0171093,-0.0150234
-0.00730942,-0.0278039
-0.0364353,-0.0194264
-0.0399704,-0.0229114
-0.0152266,-0.0082323
0.0105324,0.014071
0.021564,0.0228196
0.0129295,0.018667
0.0140012,-0.025084
0.0187045,-0.00909267
-0.0452918,-0.00806083
-0.0744651,0.0170589
-0.0331682,0.01343
0.0142943,0.00492716
0.0406863,0.0187522
0.0543571,0.0132232
0.0662473,-0.0121158
0.0491875,-0.0267713
0.0160198,-0.0164946
-0.00313483,-0.00366222
-0.00725857,-0.010522
-0.00867161,0.0122323
-0.00653671,0.0346849
-0.0172248,0.0240401
-0.0376831,0.0252314
-0.0523757,-0.00413335
-0.0640803,-0.0299431
-0.0386743,-0.0193876
-0.00765004,-0.00672354
0.032069,-0.0319764
0.0504774,0.0126506
0.0519265,0.0336919
0.0347364,0.0118709
0.0119534,-0.0142172
0.00145717,-0.0349391
-0.0147933,-0.0511115
-0.030003,-0.0145645
-0.0128408,0.00927806
0.00586561,0.0156033
0.00635088,0.0329021
0.00714015,0.0254382
0.00611936,0.0389497
0.00439109,0.00764774
0.017627,-0.0374209
0.0189497,-0.028749
0.00957866,0.00326119
0.000168111,0.00973922
-0.0137452,0.0061598
-0.0159765,0.0161068
-0.0167445,0.0420282
-0.016358,0.0337174
-0.000736628,-0.0196562
-0.00350272,0.0105191
-0.052614,-0.00163585
-0.0663707,-0.0106054
0.00650895,-0.0522611
0.0326892,-0.0295436
0.0311176,-0.0368259
0.0324656,0.0157459
0.0319287,0.0357086
0.0278651,0.065669
0.0166795,0.113505
0.0115128,0.0699339
0.00850617,-0.0338915
-0.0158451,-0.0689819
-0.0253543,-0.07693
-0.026884,-0.0719589
-0.0311717,-0.0624858
-0.0183963,-0.0551823
-0.001069,0.000964395
0.00623276,0.0155802
8.18e-05,0.00732803
-0.0106528,0.0123099
-0.0108686,0.00505259
0.0043006,0.00520942
0.00142598,-0.0074067
-0.0169779,-0.0241778
-0.0122768,-0.0239246
0.00750516,-0.00643416
0.00829206,0.025866
0.0146203,0.0224633
0.0364819,0.00945794
0.036375,0.0157266
0.0228768,0.0342174
0.00020213,0.0401757
-0.00723314,0.0274938
0.00411881,0.0670789
0.0131762,0.082734
0.00189548,0.0508271
-0.00344592,0.0399001
-0.001386,-0.013674
-0.00448735,-0.0521283
0.00204003,-0.100086
0.00645889,-0.130705
0.0111863,-0.0795839
0.00908571,-0.000633095
-0.00318781,0.00825466
-0.0151844,-0.00184543
-0.00393044,0.0256109
0.00574431,-0.00425748
0.0144949,0.00441279
0.0231329,-0.0116896
0.0158106,-0.00743901
-0.0169364,0.00119244
-0.107928,0.00862498
-0.166497,0.00848179
-0.135525,0.0133968
-0.0829288,0.0342835
-0.0155645,0.00764469
0.051617,-0.00279537
0.0744847,0.0340473
0.105167,0.0301332
0.104662,0.0433164
0.0690558,-0.00754952
0.0317126,-0.0548463
0.0498462,-0.0260265
0.0466135,0.0177795
0.0221235,-0.00194652
-0.00104578,-0.0145983
-0.0181261,-0.02901
-0.0233912,-0.0215064
-0.00591112,0.0201133
-0.000423145,0.00428825
-0.00120818,0.00987132
-0.00693821,0.0106298
0.0100889,0.0149914
0.00432092,-0.00607819
-0.00885488,-0.00753545
-0.0146255,-0.00256697
-0.0147479,-0.000957682
-0.0199584,0.0313649
-0.0253814,0.0295525
-0.0211605,0.0330691
-0.0188005,-0.0164597
-0.0139951,-0.032738
0.00158045,-0.0129237
-0.0022454,-0.00623148
-0.0011918,-0.00721145
0.00906342,0.00332999
0.0137393,0.0162062
0.0136641,0.00915601
0.0127914,0.00776605
0.0101035,-0.00722625
0.00866682,-0.0259369
0.0032817,-0.0192661
-0.0044622,0.0014335
-0.0129249,0.00413496
-0.0213053,-1.45e-05
-0.0163527,0.0143261
-0.0177741,0.00533591
-0.025161,-0.0492467
-0.0400089,-0.0949459
-0.00642007,-0.0331599
0.0336969,0.0593328
0.0234924,0.0881387
0.0225823,0.0252908
0.0290722,0.0267064
0.0182489,0.0164875
0.00736351,0.0056978
0.00336892,-0.0238614
0.00626062,-0.0375603
0.00600903,0.0321488
-0.0116009,0.0448577
-0.0144522,0.0321965
-0.0171559,0.022763
-0.0271015,0.0102989
-0.0260662,-0.0334103
0.00313174,-0.0896083
0.019727,-0.0434607
0.00731579,-0.0374824
0.00349961,-0.0287002
0.0161013,0.0327823
0.0112881,0.0530582
0.0107983,0.0272673
0.00633122,-0.00649458
0.00657862,-0.0246179
0.0127083,-0.0324251
0.00791277,-0.0176227
-0.00548424,-0.00265165
-0.0212706,0.00131831
-0.0389119,0.0170487
-0.0561235,0.00659349
-0.0319485,0.00646065
0.0078352,-0.0222472
0.0247861,-0.0153167
0.0162389,0.00496655
0.00774855,0.0178555
-0.0120487,-0.00856471
-0.026566,0.00836165
-0.0178304,0.00681953
0.0115724,0.0166547
0.0426734,0.00803176
0.0500808,-0.0177153
0.0550125,0.00213389
0.0410906,-0.00750657
0.0171968,0.0177494
-0.019035,0.00916013
-0.0398077,-0.00544949
-0.0258125,0.0122815
-0.00587551,0.0423171
0.0106462,0.0294242
0.00657659,0.0180916
-0.00608132,-0.0205501
-0.00818744,-0.0431662
0.00935241,-0.0314365
0.0177626,-0.00832268
0.015889,0.0152566
0.00844809,0.0179144
0.00151386,-0.00850796
-0.005266,-0.0354434
-0.030943,-0.0627563
-0.0226197,-0.0214176
-0.00335623,-0.0197083
0.00301299,0.0465277
0.000921792,0.0535773
-0.00974476,0.0362673
-0.012643,0.0261799
-0.00155371,-0.00849632
0.00369696,-0.0129
-0.00406617,-0.0134258
-0.0139226,-0.0227882
-0.00204897,-0.0315062
0.0146357,0.0260709
0.00262904,0.0762131
-0.0658159,0.0373206
-0.0920131,0.00429077
-0.0504976,-0.062114
-0.00314977,-0.0711614
0.0298126,-0.00119535
0.0678823,-0.00890385
0.0841746,0.0163985
0.0593894,0.0472151
0.0188998,0.0595783
-0.00349196,-0.00187567
-0.00398234,-0.0415773
-0.0035567,-0.0292469
-0.0047493,-0.0224557
0.00229182,-0.00266388
0.0151841,0.0193035
0.00987075,-0.0084891
0.010693,0.0166815
-0.0022461,0.00988334
0.00374339,-0.00493934
0.0409659,-0.016923
0.0365779,-0.0196288
0.00548939,0.0100019
-0.0166518,0.021027
-0.0363202,-0.00134751
-0.0747233,-0.0102554
-0.100731,0.000141559
-0.103521,-0.0177135
-0.110181,0.00963729
-0.0311819,0.0886349
0.0555361,0.0941993
0.0764029,0.0684872
0.0690887,0.0195778
0.0744369,-0.0420614
0.0836452,-0.0807397
0.0593549,-0.102066
0.00791967,-0.108074
-0.0128877,-0.0417764
-0.00723893,0.0102333
0.000540965,0.024828
0.00103748,0.0145131
-0.00292263,0.0085375
-0.00450453,0.0108175
0.00480832,-0.00883094
0.0135573,0.00206042
-0.00566182,-0.0148856
-0.0170727,0.00687598
-0.0139302,0.00837849
-0.0169369,0.011846
-0.0211901,-0.0024126
-0.0171372,0.016841
-0.00741574,0.062161
-0.0200415,0.00266683
-0.0231412,-0.0176496
-0.00902928,-0.0183512
0.00485825,0.023371
0.00632492,0.0327304
0.000142336,0.0039432
-0.00246701,-0.0197681
0.00672452,-0.00829801
0.020279,-0.00579475
0.0172049,-0.0375805
0.020796,0.00218505
0.0277096,0.0153096
0.0127126,-0.00611624
0.000711715,-0.00326366
-0.0251229,-0.00797327
-0.025344,0.0100946
-0.00343154,0.00784568
-0.00700707,-0.00750185
-0.0187919,0.0141388
-0.0181458,0.00309029
0.00924989,-0.00106978
0.0271246,-0.0123797
0.0105709,0.00680587
-0.00162132,0.0243969
-0.0175922,0.0235259
-0.0539777,-0.0218365
-0.0918678,-0.0463134
-0.107019,-0.0153295
-0.0392065,-0.0135369
0.0639934,0.00114417
0.0995111,0.0177261
0.0842461,0.0180378
0.0938873,0.00956133
0.0927505,0.0151041
0.0497917,0.00179222
0.00832993,-0.0323353
0.00932373,-0.0276961
0.0239585,-0.0330672
-0.00283241,0.036222
-0.0693765,0.0464633
-0.156545,-0.0119935
-0.165382,-0.0160586
-0.0778742,-0.0421245
-0.0496841,0.0166515
-0.00284961,0.0260055
0.114265,0.0099551
0.148772,0.0312785
0.105938,0.0357145
0.0272631,0.0256057
0.00785564,0.0096207
0.00289336,-0.0148554
-0.0139076,-0.0367306
-0.0555812,-0.0294498
-0.0461309,0.00155761
-0.0288584,-0.00314753
-0.00250917,0.00371545
0.0444467,0.0228131
0.0633987,0.0293198
0.0452986,0.00202327
0.0340256,-0.0441822
0.00373965,-0.0234593
-0.00966716,-0.0475199
-0.0181705,-0.0483697
-0.020038,0.0476128
-0.0212246,0.0195058
0.000808036,-0.0107211
0.0204583,-0.00029093
0.024853,0.00787692
-0.00251881,3.97e-05
0.00350249,0.0049925
-0.00247893,0.0225318
0.00513853,-0.000893172
0.0168425,-0.0337879
-0.0267875,0.00164633
-0.0730601,0.060188
-0.0933236,0.00893444
-0.00600892,-0.0266183
0.0498367,0.0100959
0.0161207,0.0182415
-0.0354818,-0.00253815
-0.137139,0.0105042
-0.334088,0.0283343
-0.342035,-0.0325046
-0.194467,-0.0193304
-0.0120698,0.00681572
0.0790148,-0.0159414
0.141408,-0.0257547
0.198456,-0.0296796
0.231838,0.0157368
0.272491,0.027403
0.224101,0.0141649
0.131495,-0.00172662
0.0732114,-0.0171213
0.0715376,-0.0140812
0.140664,-0.00761471
0.150155,0.0203394
0.0940066,0.0127243
0.0492687,0.0150476
0.0156454,0.00419984
-0.00148391,0.0124126
-0.0436894,0.000163517
-0.0917729,-0.0197376
-0.259813,-0.00520712
-0.425561,-0.0189532
-0.355284,-0.0292781
-0.151069,-0.0344751
0.00479852,0.045081
0.0604447,0.0455563
0.00281537,0.00549457
0.0177203,-0.0254228
0.0754895,-0.019552
0.0491254,0.00492949
0.00736369,0.00370218
0.0669493,0.00715463
0.185731,0.00454749
0.176205,0.0583008
0.0274893,0.0305152
-0.0966047,-0.0406931
-0.0848464,-0.0554806
0.0383075,-0.0280658
0.167993,0.0216672
0.194633,0.0223994
0.144083,-0.00759038
0.0541461,-0.00541799
-0.0683484,0.000807322
-0.171799,-0.0437087
-0.298164,-0.0607648
-0.37255,0.0231093
-0.493396,-0.0172623
-0.287781,0.0190998
0.0489093,0.0357888
0.360168,0.0140077
0.521496,0.0132344
0.394388,0.036549
0.133193,0.0452398
-0.124824,0.0116747
-0.334121,0.0199826
-0.327914,0.0724147
-0.119588,0.0523265
0.18245,-0.0153177
0.351926,-0.0559411
0.278665,-0.0692281
0.173558,-0.0518821
0.0936296,-0.063553
-0.0152602,-0.11
-0.0186987,-0.0754276
-0.0252728,-0.00286008
-0.0579896,0.0767704
-0.046207,0.0584649
-0.0559515,0.0349608
-0.0538151,0.0158946
-0.085227,0.00142274
-0.127967,-0.0152757
-0.110758,-0.0333409
-0.0972886,-0.00274907
0.0233319,0.0190021
0.104256,0.0340849
0.0952739,0.0517405
0.0539736,0.0308749
0.0268473,0.00151321
-0.0196996,0.0134467
-0.0999024,0.0536798
-0.0803689,0.046764
-0.0639589,-0.0339233
-0.0112447,-0.028473
0.0555404,-0.0169742
0.0640527,-0.0290915
0.00421517,-0.0384302
-0.11603,-0.0728486
-0.146778,-0.0770902
-0.0841895,-0.0354544
0.0147757,0.0666692
0.0820974,0.0314223
0.0570108,0.0535743
-0.132235,0.0641676
-0.178041,0.0312499
-0.11271,0.0147543
0.112442,-0.0108789
0.365517,-0.00483445
0.388071,0.0163538
0.252591,0.024674
-0.0203898,-0.00327552
-0.244643,-0.0402286
-0.174528,-0.058976
0.0321676,-0.020877
0.271126,0.0144985
0.244331,-0.00378377
-0.116361,-0.00709503
-0.2202,0.010886
-0.132259,0.00774499
0.0149454,0.0296414
0.134664,0.0345713
0.165117,-0.0022489
0.0816423,-0.0200455
-0.208221,-0.0104705
-0.515869,-0.03812
-0.603932,-0.0049371
-0.530787,0.00221947
-0.194356,0.0249978
0.122596,0.0151701
0.263784,-0.0222083
0.311,-0.0926564
0.314714,-0.101215
0.0334564,0.041292
-0.0757154,0.0241295
0.0375268,-0.0327349
0.260543,0.0020519
0.443566,-0.0338142
0.410955,0.0122429
0.224889,0.0470809
0.0773726,0.0389473
0.0173492,0.00889609
-0.00120866,0.0260087
-0.0150394,0.0600611
-0.0517942,0.0399704
-0.169289,0.0273434
-0.348261,-0.00817358
-0.248991,0.00366284
-0.0258813,7.2e-05
0.108975,-0.0280969
0.0572691,-0.0312591
-0.0385828,-0.0362526
-0.0926828,-0.0178637
-0.0813451,0.00212078
-0.024688,-0.0091694
0.0517563,-0.0141785
0.0781439,0.00198027
0.058673,0.00575858
-0.00970947,0.0240868
-0.0655939,0.021215
-0.0579887,0.0252702
-0.0160006,0.0393803
-0.150025,0.0269914
-0.207064,-0.00572866
-0.10643,-0.0304233
0.0145999,-0.0529798
0.159146,0.0124617
0.190401,0.0209684
0.0861792,-0.000976086
0.00490661,-0.0150834
-0.0526177,-0.00997908
-0.0647825,0.0156475
-0.0164858,0.011149
0.0472847,-0.0340903
0.0482122,0.0057903
0.0191439,0.0242201
0.0243277,0.0288078
0.0561481,0.0265473
0.0825016,0.00673655
0.100576,0.0110418
0.0711466,-0.0296774
-0.00705197,-0.065308
-0.116399,-0.0653341
-0.199618,-0.0566728
-0.150467,-0.0441596
-0.0711082,-0.0095165
0.00890946,0.0191639
0.0288552,-0.0139639
-0.0598039,0.0413946
-0.184129,0.0477773
-0.190154,0.0291636
-0.0904419,0.039657
-0.0218957,0.0221805
-0.00130079,-0.0101622
0.116464,0.00660756
0.274407,0.0236583
0.407229,0.0661929
0.31992,0.0223329
0.127723,-0.0184683
0.00111937,-0.0568556
-0.191236,-0.074679
-0.318243,-0.0398224
-0.297136,-0.0245685
-0.159189,0.00986191
-0.0205138,0.0459743
-0.0618858,-0.000238013
-0.0284891,-0.0388166
0.0421307,-0.0335861
0.0489476,-0.00756642
0.209125,0.00406498
0.437197,0.0167271
0.341524,0.0153705
0.219526,0.0100582
0.0902051,0.019227
-0.0595479,0.0132742
-0.0861319,0.00215073
-0.0339083,0.0109613
-0.0167261,0.00947434
-0.054827,-0.00356995
-0.146535,-0.0034522
-0.204904,0.00138181
-0.175898,-0.00748271
-0.188374,0.0146991
-0.161311,0.0269011
-0.0750119,0.0132269
0.062754,0.0260173
0.1601,0.0409722
0.138143,-0.00610617
0.0499428,0.00407924
0.00798524,0.00928582
-0.0230081,0.00154098
-0.0449711,-0.00410253
-0.0257639,-0.0491967
0.00639389,-0.0332688
0.0454848,0.00310416
0.0534091,-0.0149107
0.0328574,-0.0220656
0.0085883,0.0161638
0.0192486,-0.0140844
0.0369454,-0.0471022
0.0181581,-0.0661684
-0.0017879,0.031442
-0.0721125,0.0919953
-0.142953,0.039356
-0.192982,0.000971425
-0.186696,-0.051071
-0.129262,-0.031918
-0.0402018,0.0178113
0.0551637,0.0236758
0.125737,0.00724706
0.183946,-0.000937843
0.153672,0.00748315
0.0401883,0.00289644
-0.00379128,0.00421359
0.0411562,0.0127111
0.0522215,-0.0217652
0.0731419,-0.0291587
0.0880534,0.0462681
0.0156877,0.0241762
-0.0355047,0.0189628
-0.00393023,0.0342796
0.0512567,0.0295575
0.0476823,0.0143153
0.00861424,-0.00505255
-0.157425,-0.0318836
-0.259149,-0.0432896
-0.126994,-0.0132271
0.0345902,-0.0106393
0.105701,-0.0284345
0.0743138,-0.0362436
0.0477181,-0.0213123
-0.00689032,0.00181692
-0.0647648,0.000881391
-0.153698,-0.00867252
-0.170216,-0.02257
-0.0935114,-0.0249949
0.0598242,-0.0170251
0.0951439,0.0512839
0.113665,0.0372316
0.129376,-0.0818875
0.0798786,-0.016571
0.0581462,0.0573219
0.136179,0.0452276
0.138074,-0.00698735
0.0988764,-0.0131303
0.0427883,-0.00977077
-0.0371834,-0.0228498
-0.0927121,-0.0439704
-0.129736,-0.0516763
-0.272979,-0.092316
-0.368536,0.011881
-0.315292,0.0632589
-0.111126,0.0572603
0.156313,0.0485379
0.361265,0.0487228
0.338066,0.0302464
0.214832,0.00392188
0.0678154,-0.00775741
0.00274826,-0.0179776
-0.0196882,-0.0207721
-0.030345,-0.00846007
-0.0451435,0.00286303
-0.0655392,-0.00624379
-0.0669258,0.0214194
-0.0745898,0.0410301
-0.0206254,0.0363625
0.0788502,0.0307984
0.119213,0.0249519
0.0906625,0.00669906
0.0304498,5.29e-07
-0.0226735,0.00530171
-0.0353327,0.00723113
-0.0567486,0.000161704
-0.0862497,0.0135945
-0.0813147,-0.00126032
-0.0742443,-0.0403589
-0.0485369,-0.0482921
0.00197327,-0.0288592
0.0333095,-0.0295449
0.0194394,-0.0300687
-0.0171906,-0.00648537
-0.0675859,0.0141254
-0.0572961,0.00897035
0.013889,0.00710955
0.0502413,0.0136985
0.0334719,0.0103265
0.0181857,0.0147537
0.0378476,0.0346448
0.0274534,0.0224162
0.0011807,0.0113194
-0.0248051,0.00969725
-0.0542665,-0.0352176
-0.0579179,-0.0821576
-0.00928027,-0.00839863
0.0208829,0.0430341
0.00741467,-0.0156282
0.000526747,-0.0328114
-0.00141878,0.0156464
0.00645565,-0.0184532
0.0287419,-0.0210173
0.0797285,-0.0144251
0.0600907,0.00513574
0.0324634,0.0167956
0.0374419,0.0164337
0.0397392,0.0281275
0.019866,0.0256103
0.00828567,0.00144623
0.000176174,-0.0324
-0.0144145,-0.0185288
-0.0240715,0.00804763
-0.00615612,0.00361703
0.0192944,-0.0178091
-0.0184856,-0.00259964
-0.0866736,5.18e-05
-0.110842,-0.0106604
-0.0836186,0.00233681
-0.0632777,0.0188558
-0.0766271,0.0361672
-0.0138756,0.0284152
0.0955194,0.0153559
0.189119,0.0115561
0.172169,0.0136027
0.144895,0.0193894
0.0692847,0.0153816
-0.0527061,0.00670061
-0.164312,0.000737096
-0.230198,-0.0171497
-0.283239,-0.0225098
-0.284944,-0.0154624
-0.184928,-0.0127688
-0.00685443,-0.0199171
0.14237,-0.0260492
0.230669,-0.0264175
0.267916,-0.00868913
0.114897,-0.0121988
0.035382,-0.0290591
0.0489884,-0.0410101
0.0784485,-0.00853147
0.0903306,0.0307543
-0.0133174,0.0283767
-0.0722897,0.0111582
-0.0720628,-0.0152779
-0.0161786,-0.0390704
0.0402542,-0.0508868
0.0556769,-0.0125961
0.0966279,0.0479873
0.134419,0.0564774
0.0598501,0.0481394
-0.0150977,0.0354789
-0.0446495,0.00903948
-0.0409002,-0.00740376
-0.0244386,-0.000992499
-0.00104554,-0.00156682
-0.0293766,-0.00171729
-0.0535237,-0.00235596
-0.044111,-0.0152958
-0.0485752,0.00272297
-0.0689882,0.0147394
-0.0480872,0.0131271
-0.0178282,-0.00105944
0.0123046,0.000630044
0.0541047,-0.00498063
0.0546178,-0.011684
-0.000544243,0.00559648
-0.0691284,0.0117254
-0.07104,0.010326
-0.0231712,-0.00785682
0.0333156,-0.0277774
0.05475,-0.000719936
0.00682097,-0.0051129
-0.0308811,-0.00699654
-0.0363337,0.00724224
-0.0402504,-0.0139422
-0.024037,-0.0151355
0.00468373,0.0118127
0.0151868,-0.0241038
0.0193897,-0.0211018
0.0229773,0.00594353
0.00541662,0.0206541
0.0168088,0.013937
0.0484389,0.0164134
0.0658143,0.048683
0.0598772,0.0202641
0.0294973,-0.0219612
-0.0232294,-0.00805531
-0.0546767,-0.0114034
-0.0761516,-0.00566143
-0.0538136,0.0100149
-0.0118338,0.00100379
-0.00837065,-0.01567
0.00174308,-0.00302632
0.0119762,0.00204433
-0.0280232,-0.00418662
-0.0414608,-0.0108777
-0.111944,-0.00962178
-0.104235,-0.0216579
0.0107654,0.0237282
0.1199,-0.00321985
0.207654,-0.0405372
0.178451,-0.0440842
0.0933957,0.0158971
0.0265179,0.0330098
-0.0114683,-0.000858651
-0.0477509,0.00782539
-0.0777656,0.0163887
-0.0879662,0.00582396
-0.108999,-0.0239014
-0.0817535,-0.00432853
-0.0652529,0.026773
-0.00548499,0.0274417
0.0892272,0.0203928
0.128357,0.00967649
0.0725315,-0.0166458
-0.0263754,-0.0172311
-0.133461,-0.00856652
-0.168337,-0.00759182
-0.245907,-0.00898738
-0.249137,-0.00107012
0.0417488,0.0282223
0.272082,0.0178288
0.317432,0.00381706
0.223908,0.00377905
0.109793,-0.0190694
0.0240975,-0.0115899
-0.054226,-0.00124868
-0.123517,0.00556606
-0.133812,0.0214523
-0.0633648,0.00733743
0.0628582,-0.00974711
0.14248,0.00210696
0.130768,-0.00334566
0.0811326,-0.0330916
0.0308831,-0.0242503
0.0272536,0.00846833
0.00931132,0.0125198
-0.0658865,-0.000799183
-0.127709,0.00803693
-0.123939,0.00823997
-0.0852449,0.0205316
-0.0687223,0.0203051
-0.0628709,-0.00482706
-0.0361362,-0.00967079
-0.00375301,-0.00435092
-0.0125135,0.00195621
0.0328523,0.00244592
0.0823867,0.0100338
0.0478365,0.000705763
0.0361652,-0.00106344
0.0476829,-0.00939369
0.0649996,-0.0170191
0.0614415,-0.0120641
0.00908417,-0.0128816
-0.0294714,-0.0153997
-0.0785572,-0.0189003
-0.10437,0.00532554
-0.0686278,0.0012962
-0.0292419,0.0153512
0.0128995,0.0233675
0.0347433,0.00794567
0.0258481,0.00998347
0.043914,0.00964712
0.0637118,-0.00217041
0.0431329,0.0035367
0.0241426,0.00034617
-0.00310367,-0.0278899
-0.0247908,-0.0075336
-0.0171811,0.00514559
0.0143265,-0.0106108
-0.01119,-0.0188669
-0.113695,0.0112528
-0.167073,0.0265201
-0.0859133,0.0203663
0.0184953,0.00365533
0.0734503,-0.00785769
0.116731,-0.0131428
0.125042,-0.013712
0.0855076,-0.00661367
0.0388966,-0.0291675
-0.0138053,-0.0371824
-0.0357355,-0.00840797
-0.0977813,0.0325318
-0.100439,0.0337087
-0.0240479,0.00947642
0.0435721,0.00365865
0.0990028,-0.0172581
0.0680416,-0.0633432
-0.00781721,0.0146323
-0.0601638,0.0491741
-0.122343,0.0281471
-0.238789,0.0231485
-0.254848,0.010856
-0.0778659,-0.0103525
0.143502,-0.026537
0.249148,0.0146317
0.244867,0.0369851
0.209307,0.0126345
0.132313,-0.023536
0.0795129,-0.0174057
0.0668063,-0.00198742
0.0234292,0.0110449
-0.0241518,0.0124463
-0.0509586,-0.00730916
-0.18175,-0.00665339
-0.412591,0.00815092
-0.34751,0.0167397
-0.12977,0.00758138
0.0726054,-0.00299907
0.203713,-0.00637779
0.191548,-0.0278248
0.0749254,-0.0110689
0.0728606,-0.00117284
0.145949,-0.0310104
0.135374,0.00470528
0.0539145,0.0168303
-0.0235036,0.00513282
-0.0517745,-0.016958
-0.0334985,-0.0251095
-0.0103545,-0.0305479
-0.00366424,-0.00363123
0.000573149,0.0271209
0.00237953,0.0298727
-0.00601855,0.0236432
-0.0170863,0.0191603
0.00480906,0.00676032
0.00749228,-0.015651
0.0123246,-0.0185978
-0.0125569,0.00536621
-0.0458835,0.0131221
-0.0554666,-0.00529425
-0.0616155,-0.0146836
-0.0554772,-0.00493245
-0.0301628,-0.0169004
0.000509993,-0.0361974
0.0233104,-0.00745843
0.0397766,-0.00277799
0.0452203,-0.000991131
0.01794,-0.000117543
-0.023518,0.00625969
-0.0178271,0.023851
-0.013887,-0.0165714
-0.054499,-0.0242473
-0.0573678,-0.00444607
0.013239,0.0132555
0.0217492,0.0233344
-0.0239423,0.0209455
-0.0480902,0.0221924
-0.0263401,0.0244252
-0.00848101,0.0225528
0.0312106,0.00890183
0.0859428,-0.00470563
0.0832988,-0.00258375
0.0578401,-0.00302967
0.033935,-0.0180131
0.0148266,-0.014861
0.0114044,-0.00806264
-0.0210937,0.0094834
-0.0994416,0.0114069
-0.108114,-0.0245571
-0.0555711,-0.0400213
-0.0477496,-0.0334648
-0.0534621,0.0251935
0.0027902,0.0115136
0.0696342,-0.0271779
0.0861669,0.0305506
0.0729257,0.0425874
0.0676327,0.0279849
0.0489862,0.0203476
0.0177482,0.00418292
0.0118274,-0.0293605
0.0346489,-0.018574
0.0161226,-0.00865688
0.00135401,-0.0028429
-0.00613558,0.0101555
0.0212302,0.0103712
0.0360901,0.000637629
-0.0109784,0.00586162
-0.116986,-0.00369595
-0.195262,-0.0238563
-0.197008,-0.0226022
-0.111607,0.00607966
0.00558549,0.0108277
0.000187064,0.00159202
-0.078894,0.000779996
0.0103378,0.00487868
0.118102,-0.00792085
0.185825,-0.0044797
0.215625,0.00755564
0.183821,0.0210222
0.121522,0.00874386
0.0719094,-0.0274386
0.0385993,-0.000216094
-0.00257685,-0.00116895
-0.0249084,0.0116817
-0.030231,0.00958462
-0.0712736,-0.00261633
-0.195875,0.00249499
-0.257874,0.000289018
-0.22683,-0.0270971
-0.133613,-0.0413224
0.0377637,-0.0269818
0.161379,-0.0160984
0.191592,0.00882566
0.1481,0.0277327
0.0658931,0.0323897
0.0348547,0.0242686
0.0445835,0.0153636
0.0409355,0.0257787
0.017436,0.00740609
-0.0339279,-0.0178792
-0.0893854,-0.0121276
-0.105616,0.00204144
-0.0802546,0.00562423
-0.0170106,0.00160531
0.0571727,0.00456301
0.0701062,0.00277025
0.0315588,-0.0172821
-0.0419173,-0.0254592
-0.0592939,-0.00795801
-9.87e-05,-0.0130776
0.0464846,-0.018003
0.0621843,0.0229761
-0.00743824,0.028703
-0.118416,0.0140972
-0.322579,-0.00509795
-0.394015,-0.0218578
-0.129461,-0.0214288
0.179515,0.00923957
0.371654,0.0239489
0.318202,0.0100459
0.195798,0.0148348
0.105895,0.0125166
0.0346002,-0.0345709
-0.00293978,-0.0402091
-0.0265709,0.00609731
-0.0306694,0.00291637
-0.0208632,-0.00512672
-0.011858,0.0120595
-0.00366067,0.0137623
0.0022644,0.00592953
0.00122718,-0.00829345
0.00237834,-0.0207153
-0.00708646,-0.0271212
-0.02841,-0.0132892
-0.0316496,0.0217699
-0.0380048,0.0153746
-0.0498868,0.0111036
-0.117738,0.0286299
-0.13381,0.0160309
-0.0928956,-0.00643387
-0.0465505,0.00347259
0.0292547,0.00256144
0.108147,-0.0111142
-0.00756919,-0.00942655
-0.0818431,0.00330622
-0.00487575,0.0126411
0.112281,0.00396847
0.14324,0.00500196
0.0835082,-0.000409296
0.0391385,-0.0040298
0.0320588,0.00415113
0.0249232,0.00757973
-0.00225618,0.00948451
-0.0549904,0.0172427
-0.063344,0.0108565
-0.00168266,-0.0263545
0.0428014,-0.0550422
0.0321535,-0.00659403
0.00254265,-0.00119638
-0.0186025,-0.0385844
-0.0880863,-0.0310218
-0.175123,-0.000607966
-0.231485,0.0155387
-0.177699,0.0403944
-0.0182669,0.0150277
0.140273,-0.0156881
0.261685,-0.0223763
0.245414,-0.010461
0.0813344,-0.0021936
-0.0432449,0.0108791
-0.0812739,0.00244327
-0.103635,0.0172818
-0.12137,0.024418
-0.0851912,0.00346919
0.0464231,0.0161627
0.118795,0.0129698
0.105254,-0.00306198
0.099963,0.00534334
0.0734535,0.0106139
-0.00146761,-0.0191625
-0.0250856,-0.00979692
-0.00942675,3.5e-05
-0.00980924,-0.0150548
-0.03145,-0.011189
-0.0335306,-0.00957335
-0.0113058,0.00303887
-0.0444095,0.00740959
-0.0460951,0.0112305
0.0104759,0.0209163
0.0569675,0.015967
0.055105,-0.00388856
0.081321,-0.0126955
0.0769507,-0.0223907
0.0209518,-0.0334336
0.00228043,-0.0295925
-0.00782707,0.0105164
-0.0636094,0.0419449
-0.0850158,0.0232782
-0.0633142,0.00186896
-0.0316608,-0.0106353
-0.0201189,0.00165675
-0.0988828,0.0147085
-0.096403,-0.00401145
-0.0243623,0.0108614
0.0515907,0.026204
0.105073,0.0108194
0.136194,-0.0122855
0.106933,-0.0256522
0.0255406,-0.0225956
-0.0530875,-0.0106551
-0.0420165,0.000977999
-0.018737,0.00509746
-0.0407012,-0.0118089
-0.0420659,0.0219012
-0.0507055,0.0179776
-0.0472303,-0.0199311
0.00756354,0.00228625
0.0299989,0.011954
0.0345505,-0.022939
0.053173,-0.0303405
-0.000857008,-0.0225506
-0.0308698,0.0202065
-0.00359088,0.0510674
0.0111455,0.019622
0.0408743,0.000897735
0.0191689,-0.00438852
-0.0383263,-0.010042
-0.0662623,-0.0122559
-0.064187,-0.0197468
-0.0361775,-0.00700245
0.0211048,0.0124751
0.0610382,-0.0129994
0.0884344,-0.00933281
0.095544,0.0125122
0.0560351,0.0165749
0.0343137,0.0185911
0.0241079,0.0208378
0.00846274,0.0257241
-0.024539,0.018812
-0.0439977,-0.0166547
-0.0592044,-0.0383125
-0.0842835,-0.0229636
-0.0776423,-0.0259674
-0.0359099,-0.0217056
0.0105215,0.0135814
0.000280198,0.0120056
-0.0413215,-0.00196509
-0.0477665,0.00700967
-0.0816844,0.00582485
-0.10903,-0.010021
-0.0578692,-0.0180638
-0.00871327,0.00664202
0.0966424,0.0304226
0.179276,0.0351834
0.161937,0.0114912
0.135532,0.00128143
0.08597,-0.0122549
0.0366205,-0.0248058
-0.000689557,-0.00769638
-0.0268683,0.000952529
-0.00299541,-0.013352
0.0180747,-0.00192295
0.0214939,0.00486988
0.0250366,-0.00143704
-0.0181411,-0.00374329
-0.190619,-0.0206374
-0.322852,-0.0229116
-0.176118,-0.00745398
0.0464347,0.0313674
0.119513,0.0261294
0.107827,0.020029
0.0651174,-0.0104777
0.0167621,-0.0211575
-0.0258107,0.0159708
0.00454939,0.0135751
0.0372758,-0.0118835
0.0270974,-0.00216526
-0.0465414,0.00906699
-0.109716,-0.0167426
-0.0738743,-0.00823176
-0.0273812,0.0190852
0.0795476,0.00757747
0.181812,-0.0143975
0.189808,-0.00494889
0.121599,0.00620188
0.0589559,0.0048088
0.0100486,0.00193697
-0.0236672,0.0225241
-0.0474856,0.0252676
-0.0851242,-0.0163749
-0.121471,-0.0312111
-0.128723,-0.0141489
-0.075755,-0.0180279
-0.0577751,-0.0305135
-0.0544876,-0.0115653
0.0354771,0.0507736
0.0172811,0.00504986
0.00126393,-0.00320465
0.0177939,0.012577
0.0665356,-0.0057369
0.102769,-0.00386112
0.0817058,0.0033885
0.0214149,0.00996585
0.0185129,0.0177184
0.0113728,0.0290141
-0.0387493,0.0194028
-0.0886939,-0.0101278
-0.0945857,-0.0249816
-0.0638073,-0.0121588
-0.0411701,-0.0056833
-0.000139124,-0.000801347
0.0366252,-0.000276726
0.0581924,-0.0103153
0.0668141,-0.0069045
0.0595717,0.00215965
0.0527519,-0.00735893
0.0474649,-0.00829489
0.0121737,0.000677748
-0.0266216,0.013253
-0.033624,0.0159596
-0.0269969,0.0294954
-0.0378002,0.0346707
-0.0468686,0.00662145
-0.0491953,-0.0192217
-0.026443,-0.0182599
-0.00753526,-0.0106518
-0.0112835,-0.0159926
-0.00932707,-0.0186993
0.00922009,-0.0169342
0.0343286,-0.012601
0.0640275,-0.00367543
0.0797258,-0.0130246
0.0630725,-0.0228041
0.0161679,-0.00771658
-0.0247141,-0.00114612
-0.091701,-0.0194263
-0.126161,0.00363205
-0.0743513,0.0248419
-0.00766765,0.0160233
0.0179774,0.0361693
0.00330578,0.0332342
0.0206135,0.00192637
0.0599507,-0.0139915
0.0874211,0.00273753
0.0710876,0.0106793
-0.0132498,0.0116069
-0.131386,-0.00872291
-0.132271,-0.00716281
-0.0503826,0.00282823
0.0352328,-0.00677335
0.0914784,-0.00855056
0.125807,-0.0121384
0.111311,0.00596232
0.0652317,0.0177512
0.00890314,0.022914
-0.0283305,0.0182842
-0.0121108,0.000481148
0.0117194,-0.0180696
0.00188276,-0.0129606
-0.0373488,-0.0106204
-0.0545213,-0.0083826
-0.0392746,-0.00817513
0.0190938,-0.0385317
0.075582,-0.00287476
0.0550215,0.0176017
-0.0113314,0.000882373
-0.0550032,0.00469934
-0.102624,0.0118038
-0.0948473,0.009839
-0.0814519,0.00659936
-0.0556794,0.0210507
-0.0577142,0.0145764
-0.0397642,-0.00257413
0.00426781,-0.0323533
0.0422128,-0.0318932
0.077579,0.00526285
0.0348661,0.00278817
-0.0538498,0.0317435
-0.0533459,0.0313935
0.00126371,-0.00265005
0.0761745,-0.0351466
0.13269,0.00205534
0.168116,-0.000307696
0.126135,-0.0115694
0.0350185,-0.00553051
-0.00526944,0.0184502
-0.0139727,0.0308533
-0.0288179,0.0145542
-0.0417706,0.00741684
-0.0305597,-0.00527655
-0.0109243,-0.0242729
-0.00297574,-0.0271205
-0.00165502,-0.0241551
-0.0108785,-0.0212642
-0.0326982,-0.0126227
-0.0305806,0.00587723
-0.0208964,-0.0064192
-0.000906081,0.0160578
-0.00963921,0.00980047
-0.0548667,-0.00785488
-0.106798,-0.00470037
-0.109063,0.00768315
-0.0557781,-0.000727775
0.0236046,0.0180769
0.0847321,0.0243904
0.0696404,0.0230329
0.0617466,0.00272266
0.0499618,-0.0211934
0.0114246,-0.0175476
-0.00236075,-0.0153968
0.0100982,0.000277572
0.0186427,0.00280506
0.0166432,0.00990623
0.00510098,0.00747161
-0.0042349,0.00850465
0.00653081,-0.0182656
0.0297669,-0.0262938
-0.00197092,-0.00550213
-0.025729,0.00955605
-0.0275375,0.0141477
-0.0252632,0.0179117
-0.026756,0.0250009
-0.0083236,0.0174671
0.0251637,-0.00769103
0.030997,-0.0128657
0.00275887,-0.000522835
-0.0239755,-0.00590946
-0.00662987,0.000355015
0.0126272,0.00588999
0.0327895,-0.00339021
0.0592589,-0.00195755
0.0626641,-0.00534583
-0.0056907,-0.0375795
-0.118439,-0.0259492
-0.294156,-0.00664072
-0.345797,0.0105169
-0.22435,0.00434831
0.0178056,0.0117924
0.233091,0.015423
0.290031,0.00850071
0.23783,0.00413748
0.169982,-0.0114623
0.0903074,-0.00799973
0.00926592,0.00755929
-0.00945899,0.0228428
0.0218567,0.0300683
0.0293593,0.0165468
0.0148637,0.013392
-0.0333017,0.00956874
-0.0925035,-0.0116342
-0.095299,-0.0200743
-0.0227458,-0.01485
0.0195888,-0.00203792
0.0260168,0.0072762
0.0169815,-0.013199
-0.00557699,-0.0342885
-0.0206164,-0.00363033
-0.0503033,-0.00958926
-0.03667,-0.0316553
0.0426438,-0.0208344
0.104137,0.0301239
0.0364124,0.0284798
-0.0863864,0.0232443
-0.229,0.00516991
-0.189689,0.00271947
-0.0911406,-0.00457227
-0.0338073,-0.0139683
0.0428172,-0.00744144
0.125591,5.78e-06
0.0766747,-0.000501482
-0.0948487,-0.00286949
-0.121672,0.00511616
0.0279784,0.0252919
0.161825,0.0199653
0.230487,-0.0128189
0.169499,-0.0175974
0.0574765,-0.00865887
-0.00207483,-0.00590968
0.0103498,0.00410443
0.0200946,-0.00109233
0.030311,0.0244567
0.0237732,0.0146796
0.00956372,-0.0168578
0.000764876,-0.0373384
-0.0242759,-0.0163931
-0.0652259,-0.012009
-0.0749591,-0.0378727
-0.0748993,0.0259552
-0.0911379,0.0273733
-0.0631185,0.0213977
-0.00678163,0.024917
-0.00864156,0.0074321
-0.0315686,0.00697457
-0.0038417,0.0181984
-0.0113353,0.00593703
-0.00543628,0.00822974
0.0594442,0.00109548
0.125589,-0.0123688
0.0939353,-0.0197222
0.0613312,-0.0116066
0.0429847,-0.00795269
0.0112987,0.00648368
-0.000766102,-0.00262566
-0.0219308,-0.0514825
-0.0680399,-0.000997751
-0.110151,-0.0220118
-0.14569,-0.0109435
-0.153345,0.012315
-0.144932,0.00118807
-0.0633315,0.010264
0.0413583,0.0216905
0.100905,0.0187506
0.0959668,0.0172186
0.0675439,0.0141187
0.0486229,0.00800871
0.0641299,-0.00993681
0.0612823,-0.0174014
0.0243101,-0.0292694
0.0202281,-0.0198918
0.034434,0.021559
0.00790304,0.0120217
-0.0049089,0.00578968
0.011075,0.0195775
0.0109247,0.00652484
-0.0500143,0.00256279
-0.0695976,-0.00311184
-0.0160622,-0.000170187
-0.0137636,0.0104513
-0.00603866,0.0165535
0.00807487,0.00620615
0.0159331,-0.00470411
0.0275537,-0.00666279
0.0104739,-0.0377034
0.00599132,-0.0247357
0.0156276,0.00750079
-0.000721641,0.00359291
-0.030509,0.0026402
-0.031642,0.00483652
-0.0106744,0.00970999
-8.33e-05,-0.0040639
-0.0234095,-0.0272053
-0.0180817,-0.0323685
-0.00376967,0.00267527
0.00109236,0.037881
0.0103342,0.0303024
0.0307286,0.0247828
0.035207,0.0213152
0.0161698,0.0170736
0.00384499,0.00162977
0.00179219,-0.0227276
-0.00878771,-0.0234688
-0.0552322,-0.0196446
-0.0488065,-0.0523542
-0.0150155,-0.0199673
0.0233485,0.00773891
0.0450957,0.0303195
0.0192221,0.016589
0.00729458,-0.00410359
0.0155935,0.000485141
0.011985,-0.00447244
0.00419826,-0.00328292
-0.0193928,0.00353741
-0.0511658,0.000402575
-0.037916,-0.00281604
0.00107922,-0.00104139
0.0020066,-4.64e-05
-0.0218965,-0.0039544
-0.0970132,0.000863108
-0.126833,0.0108591
-0.0689902,0.00337415
0.000775786,0.0107649
0.129384,0.00382556
0.212687,-0.00174955
0.191619,0.00360097
0.120171,-0.00503622
0.0318627,0.00372001
-0.0364075,0.0025669
-0.0618917,0.00325622
-0.0412415,0.000248975
-0.0465116,-0.00139735
-0.0846393,-0.00415675
-0.120386,0.00730787
-0.044571,-0.00271955
0.0579611,-0.0148996
0.144873,-0.00363359
0.155022,-0.00634991
0.0627321,-0.000952547
-0.0711787,0.015492
-0.103166,0.0181604
-0.0738513,0.00264297
-0.0527076,0.00188754
-0.0447115,-0.00754081
-0.0806947,-0.0454289
-0.120957,-0.0331726
-0.0600372,0.0250581
0.0557805,0.0351915
0.101049,0.0282069
0.108207,0.0237644
0.0951756,0.00327014
0.0715742,-0.0162091
0.0467277,-0.0158327
0.0387549,-0.00541298
0.0355109,0.000981456
0.027442,0.00765555
-0.00635736,0.0093306
-0.0667953,-0.0254547
-0.0609363,0.00242671
-0.0486814,-0.0219962
-0.046779,-0.00924645
-0.0301277,-0.0035371
0.00883025,-1.43e-05
-0.0150471,-0.00211618
-0.0411139,-0.0140488
-0.0448664,0.010252
-0.0684605,0.0120343
-0.0554407,-0.00646609
-0.0130576,-0.00198641
0.055375,0.0111217
0.0753787,0.00319723
0.0662566,-0.000988608
0.0336511,0.0021136
0.00719209,0.00912272
-0.00429291,0.0148282
-0.024029,0.00782543
-0.0104119,-0.0359713
0.030592,-0.0119141
0.0262196,0.0192454
0.00379139,0.0116746
0.00248779,0.0107433
0.00652275,0.0138106
0.0142397,0.00875375
0.0209005,-0.0150018
0.0250098,-0.0294543
0.0119006,-0.0349827
-0.0171159,-0.0208475
-0.0337481,-0.0096798
-0.0212392,0.00720327
-0.0169415,0.0239363
-0.013968,0.00997555
-0.047457,0.00274549
-0.0705617,0.0246562
-0.0255904,0.0134809
0.0347241,-0.0083275
0.0624158,-0.00262282
0.0265002,0.00296421
-0.0156122,0.00935354
-0.00586645,0.00338051
0.0252746,-0.0036857
0.0674866,-0.00178843
0.089053,-0.00593327
0.0593551,-0.00187911
0.00839408,-0.00338648
-0.0464169,0.00540234
-0.127238,0.0153034
-0.18726,-0.00215723
-0.239337,-0.0468879
-0.148827,0.00362945
-0.0133315,0.0335666
0.0493379,-0.00539748
0.102773,-0.00957652
0.15657,0.00354801
0.130846,0.0177182
0.0572431,0.00547552
0.0489965,-0.0147423
0.071389,-0.00535798
0.0606111,-0.005721
0.0476076,-0.0128818
0.0379153,0.000775962
0.0205518,-0.00418494
0.00204142,0.0158726
-0.0180105,0.0224592
-0.0214603,0.0181051
-0.00546683,0.00880248
-0.0479812,-0.00561646
-0.0762361,-0.0123111
-0.0424778,-0.00350437
-0.0263212,0.00249382
-0.0191896,-0.000484341
-0.0292353,0.00068235
-0.015894,-0.00664327
0.0188483,-0.01397
0.0349717,0.00977704
0.0161204,-0.00134668
0.00343723,-0.0174537
0.0127692,-0.0139336
0.0264193,-0.00340901
0.0264497,-0.000138329
0.0157346,0.00725286
0.00708009,0.0129165
0.00859221,0.00624358
0.0115116,-0.0108383
-0.00332571,-0.011071
-0.0384541,-0.00459897
-0.0842471,0.00253618
-0.118963,0.00349701
-0.102284,0.0172297
-0.0527674,0.0172034
-0.000575956,0.00743771
0.0665105,0.00453661
0.100104,-0.0116234
0.0819424,-0.0226588
0.0493549,-0.00854384
0.0216008,-0.000496933
-0.0021682,1.25e-05
-0.00529896,-0.00204019
-0.00783518,0.0110258
-0.0187373,0.00737519
-0.0107281,-0.0288912
0.0260803,-0.00481493
0.0604297,0.0101838
0.0367073,-0.00357636
-0.000118578,0.00360352
-0.00492797,0.0186575
-0.0258033,0.00898512
-0.0453122,-0.0101873
-0.0467404,-0.0209223
-0.0222787,0.0159254
-0.0363433,0.0176573
-0.0374977,0.0115257
-0.0528394,0.00140717
-0.0653045,-0.00314768
-0.0159743,-0.0130618
-0.00263365,-0.0265116
0.0506882,-0.0319803
0.147229,0.0217803
0.173298,0.0337048
0.0978006,0.0128258
-0.0228299,0.0132168
-0.0794195,0.017651
-0.0677721,0.00724563
-0.0403677,-0.00569257
-0.0379496,-0.00987164
-0.0567318,-0.0245437
-0.105091,-0.0222922
-0.0580163,0.00271223
-0.00198111,0.0264983
0.0561698,0.00888117
0.10753,-0.00316866
0.143064,0.00599407
0.13171,-0.0197063
0.0759609,-0.0179504
0.0143287,-0.00161602
-0.0305034,-0.0148308
-0.0323981,0.00395157
-0.0126426,0.0187282
-0.0986822,0.010122
-0.171491,-0.00592553
-0.127448,-0.00916057
-0.0779047,-0.00716481
-0.040697,-0.0172506
0.0920719,-0.0146616
0.193088,0.000706736
0.0759445,-0.0113928
-0.0803988,0.0219172
-0.113007,0.0573172
-0.0715048,0.0320444
0.00549178,-0.011084
0.0842111,-0.034341
0.107933,-0.0423708
0.0880031,-0.0101209
0.0579089,0.00869527
0.00895684,0.019276
-0.0675862,0.0149963
-0.113432,-0.0263734
-0.134806,-0.00964356
-0.0867728,-0.0179355
0.022346,-0.013594
0.12586,0.0339991
0.174078,0.022793
0.129913,0.00623015
0.0588909,-0.00405705
0.0280548,0.0157632
-0.0085658,0.0355411
-0.0308936,0.00655694
-0.0226199,-0.0108381
-0.00438985,0.00105319
-0.00376771,-0.0015576
-0.0336012,0.00124392
-0.0328318,-0.000717982
-0.0182981,-0.00336635
-0.0323995,-0.0133728
-0.0606341,-0.0176282
-0.0386479,-0.0298118
-0.0484098,-0.0374803
-0.0383484,-0.0108715
0.000268877,0.00819862
-0.00720415,0.00742649
-0.0649294,0.00670554
-0.078464,0.0156973
-0.0538208,0.00754103
-0.0208277,0.00618854
0.0239478,0.0017521
0.0779125,0.00358198
0.113958,0.0112548
0.0948477,0.0137584
0.0526925,0.0109053
0.0387188,0.00641438
0.0304158,0.00321034
0.0125111,0.0166087
0.00376464,-0.000735221
0.015948,-0.00693656
0.00311488,-0.00797318
-0.0187823,-0.00976469
-0.0202995,-0.0068135
-0.0221678,-0.000277165
-0.0235619,-0.00834062
-0.0230452,-0.0213527
-0.0250912,-0.0173878
-0.0261737,-0.00587738
-0.0308984,0.00469819
-0.0486378,0.00902619
-0.0448598,0.0225583
-0.0372369,0.0206533
-0.0420872,0.0107536
-0.0347423,0.00637708
-0.00103253,-0.0183394
0.0289623,-0.0181783
0.051733,0.0119742
0.0830893,-0.00970051
0.0948841,0.000846246
0.0632345,0.0112123
0.0201464,0.00472159
-0.0118423,-0.00741669
-0.035661,-0.0251812
-0.0371477,-0.0106639
-0.023945,-0.0114217
-0.0130857,0.0183171
0.00313126,0.0178136
0.0233377,0.0204263
0.0263516,0.0201154
0.0112619,-0.000500971
0.0124358,0.0112732
0.0216248,0.00376033
0.00843295,0.00590172
-0.0098215,0.00825758
-0.00791029,-0.00494401
0.00159839,-0.010033
0.00365555,-0.0157069
-0.00264615,-0.0318203
-0.0338608,-0.0439536
-0.031337,-0.0351099
-0.0103016,-0.00925024
-0.0165618,-0.0100412
-0.0150046,-0.0140434
0.00875124,-0.00842543
0.0366298,0.014556
0.0442902,0.0138203
0.0148929,0.0127733
-0.0284922,-0.0121976
-0.0840735,0.00632296
-0.0871983,0.0494846
-0.0673058,0.0340563
-0.000565949,0.00735044
0.0834815,-0.0154363
0.108377,0.00180285
0.0347382,-0.000531096
-0.0361277,-0.0120769
-0.0652845,-0.014725
-0.0279087,-0.00572354
0.0353117,0.0132475
0.0419623,0.0350248
0.0150842,0.00129316
0.045624,0.00438828
0.0524956,0.0162659
0.0397079,0.0159168
-0.0103866,-0.00138941
-0.0994679,-0.0280498
-0.118929,-0.0167305
-0.0789555,0.00851117
-0.0189399,0.0108357
0.0181364,-0.0125793
0.0615023,-0.0125125
0.129555,-0.0133485
0.125492,-0.0103385
0.00654222,-0.00199064
-0.0652228,-0.0128861
-0.0878585,-0.014897
-0.0881753,0.00280092
-0.0562506,0.0201759
-0.0354171,0.0154222
0.0239966,0.0196946
0.0795883,0.00431955
0.125788,-0.0133973
0.136489,0.0185376
0.0925531,0.0214536
0.047345,0.0186908
-0.000620033,0.0111142
-0.0619687,0.00491288
-0.0772065,0.00645415
-0.0339443,-0.0169905
-0.0107668,-0.0322334
0.000608453,-0.0109912
-0.0183381,-0.00177583
-0.0282407,0.00594729
-0.0201647,0.0172025
-0.0186663,0.00210439
-0.025692,-0.000766286
-0.0187192,-0.00452553
0.000418776,-0.0178721
0.0156457,-0.0111617
0.00767481,0.0036244
-0.0216995,-0.00142238
-0.0352482,0.00114168
-0.0119678,0.0105441
0.0113348,-0.00446799
-0.00683091,-0.030551
-0.0163848,-0.0185359
-0.0149866,-0.00726362
0.000246911,-0.00265574
0.0229107,0.00272803
0.0379241,0.0170608
0.0128631,0.0230038
-0.0272034,0.0110707
-0.0256739,0.0050557
-0.0110478,0.00160016
0.00764986,-0.00627676
0.0115839,-0.00670052
-0.00556999,-0.0038834
-0.0012634,0.0100025
0.0124913,0.0217572
0.00228016,0.0127497
-0.00253126,-0.00438843
-0.00310217,-0.0131838
-0.0131688,-0.0200176
-0.0319361,-0.0112055
-0.0212196,-0.00964929
0.0384149,-0.00543175
0.0768853,-0.00105679
0.0382793,-7.66e-05
-0.0247833,0.00997931
-0.0467607,0.0076352
-0.0362836,-0.0225031
-0.0127431,-0.0471644
0.0179598,-0.00711624
0.048436,0.00942574
0.0704702,-0.00598295
0.0164496,0.0243204
-0.0255099,0.0391907
-0.0300035,0.0127626
-0.00642039,-0.0157626
0.0327066,0.00488938
0.0251017,0.0175999
-0.0392098,0.00709086
-0.111061,0.0141426
-0.107635,0.0184307
-0.0549346,0.00539794
0.0452828,-0.000381317
0.132997,-0.00663323
0.125417,-0.005613
0.102741,-0.0111914
0.0734696,-0.010143
0.02487,-0.00171051
-0.0206296,-0.00267797
-0.0704922,8.75e-05
-0.111236,-0.000587662
-0.158126,-0.00585839
-0.128331,-0.0219408
-0.0451753,-0.0224016
0.00624621,-0.000777208
0.0273975,0.0089955
0.0687642,0.0177181
0.0546754,0.0172937
0.0379942,-0.00442599
0.0832021,0.000881083
0.086127,0.017341
0.0731145,0.0143326
0.0603461,0.00130415
0.0398845,-0.0245181
0.00416305,-0.0242088
-0.0326003,-0.00479636
-0.092836,-0.00642539
-0.207867,-0.00480188
-0.22492,-0.00877226
-0.126407,-0.0130267
0.0197217,-0.00333854
0.112725,0.00792858
0.150882,0.0128578
0.167269,0.00787865
0.115233,0.00749507
0.0227779,0.000892468
-0.0311555,0.00110674
-0.0193596,-0.0201125
0.00434758,0.0108314
0.0235629,0.0205111
0.00918258,0.0145781
-0.015193,0.0146805
-0.0249416,0.01255
-0.0157061,-0.00171156
-0.0155297,-0.000917115
0.00705933,0.00884603
0.00661844,-0.00465606
-0.0301276,-0.0260943
-0.0578802,-0.0252489
-0.092308,0.023688
-0.0946733,0.0148269
-0.0455571,-0.00593313
-0.00668741,0.00186129
0.0318209,-0.000959941
0.0634929,0.0008685
0.052426,-0.00915081
0.0287905,-0.0128457
0.0385864,-0.0160566
0.0472799,-0.0149892
0.0300824,0.00125085
-0.0114221,0.0143922
-0.0242043,0.0135396
-0.0434,0.00351265
-0.0563655,-0.00890029
-0.0105879,0.000961945
0.0423972,-0.00304716
0.0653915,-0.00218208
0.0432048,0.000280593
0.0188416,0.00129019
-0.0180833,0.0187399
-0.0388617,0.0177345
-0.0263014,-0.00424327
-0.0113144,-0.0178693
0.00433209,0.00763886
0.0103314,0.00204377
-0.00626817,-0.0394368
-0.00322884,-0.0112924
0.0246701,0.0276468
0.016152,0.0105135
-0.0283283,0.00411533
-0.0363981,-0.00056805
0.000311473,0.000632628
0.0190529,-0.00241033
0.00778019,-0.00233472
-0.00229757,-0.00275312
-0.0152264,-0.000511455
-0.0428131,0.0149798
-0.0608388,0.0221409
-0.0940036,-0.00786606
-0.0477398,-0.0156746
0.0400423,-0.00368995
0.0888374,-0.00164685
0.118265,-0.00291071
0.10583,0.00308389
0.057822,0.0254295
0.0304535,-0.0112445
0.0316568,-0.00697054
0.0129314,0.0106382
-0.000373263,-0.00876559
-0.00203919,-0.0270913
-0.0352531,-0.0128667
-0.0916487,0.0185035
-0.131646,-0.00668135
-0.174042,-0.0101161
-0.172565,-0.0143667
-0.115853,-0.0141867
-0.07549,-0.000145074
0.0245748,0.0125401
0.115374,0.0166396
0.15449,0.0119202
0.185703,0.0160306
0.158407,0.00139268
0.067074,-0.0176601
-0.00223356,-0.0245467
-0.0356213,-0.0142567
0.00537433,0.00208054
0.0337817,0.0177666
0.0240652,0.0328324
0.0353022,0.0241052
0.0423672,0.0194
0.00848715,0.0128475
0.00946155,-0.00989422
-0.00662045,-0.0173912
-0.0289304,-0.00634537
-0.033277,0.000304272
-0.0394315,-0.0010765
-0.0893626,0.0222314
-0.114244,0.00884144
-0.131745,-0.0269028
-0.0846537,-0.0277189
-0.0190735,-0.0250764
-0.0109674,-0.0193462
-0.0113077,-0.0078836
0.0242083,-0.000736358
0.0514011,0.0102542
0.0648139,0.0154307
0.0630142,0.0172454
0.0824341,0.00773216
0.111894,0.00481152
0.0921718,0.0122784
0.0513275,-0.0160211
0.00394993,-0.0104031
-0.0223847,0.0203594
-0.0356241,0.0276344
-0.0245324,0.0157418
0.00252818,-0.0107492
0.0026136,-0.0143537
-0.0101822,-0.00397464
-0.00243906,-0.0103748
0.000747064,-0.0141819
-0.00690783,-0.00832789
-0.0169676,-0.00257448
-0.0297274,-0.00226669
-0.0324671,0.00328958
-0.0218015,-0.00755387
-0.0151423,-0.0308827
-0.0111123,-0.00865202
-0.0264981,0.0237324
-0.0583623,0.0245891
-0.0684204,0.0112034
-0.0354874,0.0160903
0.00988449,0.00996415
0.0330484,-0.021471
0.0327981,-0.0395457
0.0381092,0.0173725
0.044263,0.0111828
0.0269692,-0.021306
0.0158323,0.0033387
0.000963133,0.00530362
-0.0156419,0.0138095
-0.0279707,0.0091445
-0.0395794,0.0363974
-0.027825,0.00329483
-0.0516702,-0.0259663
-0.0498223,0.0127037
0.0116345,0.0248071
0.0787074,0.0164486
0.0801191,-0.00239384
-0.0249787,-0.0141048
-0.110661,-0.0297897
-0.0785791,-0.0351337
-0.00686793,-0.0279873
0.0701145,-0.0247723
0.118379,0.0231492
0.114174,0.0309909
0.05596,0.0146387
0.011253,0.00307351
-0.0107932,-0.00222893
-0.0189159,-0.0159273
-0.0102209,-0.0080232
0.00754975,0.00676784
0.00744204,0.00990724
-0.0183748,0.00898572
-0.0205702,0.00866902
-0.01099,0.00406779
0.00433939,-0.0115925
0.00710493,-0.03583
-0.00862228,-0.00271905
-0.0312525,-0.0078433
-0.0472865,-0.00998541
-0.0749419,-0.00250925
-0.0783207,0.0128194
-0.0305811,0.0197052
0.018627,0.00151272
0.0416523,-0.0249491
0.0572227,-0.027183
0.0560211,0.0211838
0.0425971,0.0445828
0.020801,0.0275621
0.00556144,0.00988928
0.00830723,0.0065461
0.0269401,0.000518627
0.0375986,-0.0233488
0.0365277,-0.0314825
0.0017791,0.000830767
-0.0110218,0.00746179
0.00508585,0.00492368
0.00340778,0.0117909
-0.00454023,0.00878587
-0.0170673,0.00235695
-0.0314591,-0.0108028
-0.0105225,-0.0315403
0.00657289,-0.0214763
-0.00137605,0.00804833
-0.0342445,0.00179155
-0.050822,0.00523787
-0.0764628,0.0129449
-0.0902735,-7.33e-06
-0.0502302,-0.0133501
0.0150859,0.00133935
0.0589024,0.000946686
0.0541799,-0.00241262
0.0279275,0.00884549
0.0198977,0.00616103
-0.0403908,0.00102808
-0.125655,0.0082796
-0.116069,-0.00398349
-0.0242987,-0.0138937
0.0685695,0.0114577
0.0763866,0.011517
0.112415,0.019498
0.123153,0.00235559
0.0917748,0.00351512
0.0494897,0.0140161
0.00502258,0.0246174
0.00416175,-0.01173
0.0253972,-0.0182794
0.00916356,0.000704437
-0.0186585,-0.00311273
-0.00352077,-0.00266131
0.00633342,0.00116563
-0.00918845,-0.00222883
-0.0487729,-0.0110502
-0.0798571,-0.0154094
-0.0929229,-0.0230413
-0.0806791,-0.03172
-0.0195614,-0.00776328
0.0508804,0.00462639
0.0540763,0.00278668
-0.0174094,0.00779069
-0.105589,0.0272806
-0.130872,0.0133701
-0.0490051,-0.0106942
0.0473734,-0.0110394
0.09502,-0.00898239
0.125375,-0.00945379
0.115525,-0.0082779
0.0652691,0.0182123
0.0156534,0.0136974
-0.00768218,0.00159435
-0.0216946,0.000919194
-0.0215992,-0.0108862
-0.00725135,-0.0132872
-0.00388023,-0.00900516
-0.00743494,0.027145
-0.0134453,0.0258003
-0.0156826,0.0237527
-0.017261,0.0255719
-0.00678758,0.014215
0.00127132,-0.00479468
0.000221987,-0.0111489
0.00496227,-0.0127676
0.0131695,-0.00213838
-0.00669801,0.000515433
-0.0404381,0.0141069
-0.0527184,0.0103279
-0.0414613,-0.0138161
-0.0254692,-0.0388275
-0.00207228,-0.031047
0.0156299,0.00818097
-0.0214277,0.00204735
-0.0185151,-0.0166849
0.0312933,-0.00472585
0.0691875,0.0104751
0.0732748,-0.000620015
0.0537573,0.000120094
0.0177671,-0.00151101
-0.00571429,0.00109497
-0.00854395,-0.000218555
-0.00647431,0.00545969
-0.00597497,0.0139432
0.00345461,0.0210223
-0.00664133,0.00985273
-0.0410591,0.0024193
-0.0478076,-0.0148106
-0.0255706,-0.02913
0.0125452,-0.0134799
0.03083,-0.00286123
0.0140114,-0.0107166
-0.00309583,-0.00434827
-0.00145101,0.0144546
0.00491638,0.0129419
0.00915876,-0.00186163
0.00530893,-0.00736429
-0.00322202,0.000663159
0.00636374,0.0140091
0.00737106,0.00883398
0.00181953,0.0126949
-0.0128912,0.00268857
-0.02621,-0.00090445
-0.0543372,0.0121242
-0.0598636,-0.0116153
-0.0325315,-0.013226
-0.0187441,-0.00388243
0.00167082,-0.00358991
0.0483472,0.00830335
0.061009,0.0105766
0.0467427,0.00790896
0.0324865,0.00228082
0.0110846,-0.0144139
-0.00173677,-0.00522402
0.00455614,-0.0133198
-0.000225117,-0.00852625
-0.00428137,0.00784227
0.00639894,-0.00023289
0.00999311,0.0141765
0.0037991,0.0136171
-0.00186309,0.00295156
0.00422353,-0.00976409
0.0103197,-0.00820894
0.00803618,0.00373168
-0.000959558,0.00949702
-0.00941639,0.0100573
-0.0163388,0.0165906
-0.0137724,0.0194974
-0.00630301,0.00433828
-0.00361518,-0.00581569
-0.00612439,-0.00185047
9.02e-05,-0.0138897
0.00416376,-0.0229763
-0.00204383,-0.0228589
-0.0163053,-0.0334611
-0.0351014,-0.0452364
-0.0646745,-0.032533
-0.0489091,0.00710614
0.0191494,0.0157817
0.0632027,0.0179042
0.0643871,0.0247773
0.0460886,0.0247524
0.0220128,0.0212172
-0.00409321,0.0218789
-0.0276954,0.0124014
-0.0270618,-0.00429186
-0.0202602,-0.0128252
-0.016966,-0.00732063
-0.0108121,-0.00627852
-0.0086958,-0.00136921
-0.00554025,0.00528612
-0.00353637,0.00117305
-0.0110836,-0.00379769
-0.0137692,-0.00562643
-0.00920254,-0.0169937
-0.00438813,-0.0189001
-0.00234167,-0.00474745
0.0390518,-0.0013481
0.111793,0.00184705
0.121297,0.0098054
0.0828142,0.0265505
0.0297932,0.0231806
-0.0174671,0.00678707
-0.0662,0.00467721
-0.0908152,0.00308928
-0.0829917,-0.0003506
-0.0579548,0.00323193
-0.0285049,0.00225774
-0.0190326,-0.00358339
0.0128854,0.00498238
0.0297362,-0.00934624
0.02431,-0.00998697
0.0140723,-0.000381822
-0.00960941,0.00221162
-0.0290013,0.0057789
-0.0373287,0.00972962
-0.0121425,0.00803551
0.0194812,0.00297458
0.0242334,-0.00973915
0.0242379,-0.0184485
0.0125938,-0.0100097
-0.0144287,-0.00228657
-0.029334,0.00286395
-0.0295935,0.0118558
-0.0329502,0.0124266
-0.0258572,0.00387889
-0.0068915,-0.0138053
0.0335966,-0.00838312
0.0440012,-0.0169747
0.0327466,-0.0105168
0.0301567,0.00083667
0.0468386,0.00260531
0.0765586,0.0144026
0.109689,0.0176981
0.0922054,0.009087
0.0301029,-0.0106822
-0.0322243,-0.0325659
-0.0917617,-0.0271707
-0.105508,-0.0290625
-0.0806034,-0.0037441
-0.0682688,0.0193987
-0.0513125,0.00943859
-0.0312895,-0.00826273
-0.0287241,-0.010208
-0.0157455,-0.00790849
0.00863569,0.00485923
0.00310908,0.00588536
-0.0117254,0.0127451
-0.0199382,0.0159361
-0.0195285,0.0182136
-0.0102444,0.0200815
0.0127364,0.0100942
0.019811,-0.00382229
0.00870834,-0.000963454
-0.00567785,0.00314807
-0.0134896,-0.0021521
-0.0168334,-0.00158069
0.0138389,0.00482059
0.0640502,0.00529516
0.0678521,0.00842036
0.0505001,0.00692954
0.0474202,-0.0119161
0.044883,-0.0222467
0.0408228,-0.00844699
0.00420231,0.00752623
-0.00873568,0.00825424
0.061449,0.013333
0.124346,0.0128877
0.119883,-0.00412351
0.0685876,-0.015755
-0.00663543,-0.0103939
-0.0448066,-0.00298376
0.0093904,0.00904222
0.0257541,0.0192658
-0.0459867,0.00187236
-0.0777691,-0.0266762
-0.106065,-0.0710907
-0.150704,-0.0760774
-0.149411,0.0354447
-0.162066,0.0675982
