Comp Ch 3,Comp Ch 4
0.188916,0.0191824
0.142502,0.0104994
0.0383343,-0.00420729
-0.0683236,-0.0254345
-0.0914991,-0.023563
-0.00653038,-0.00785335
0.0677003,0.00683401
0.0801148,-0.00550904
0.0703225,-0.00648573
0.0633774,-0.0251157
0.0370564,0.0060897
0.0174688,0.0419104
-0.0135238,0.041515
-0.0341022,0.0228999
-0.039364,0.0112526
-0.0501901,0.0137189
-0.0476463,0.0214769
-0.0411835,0.017534
-0.0498634,0.00882721
-0.0570415,-0.0121223
-0.0405114,0.00756218
-0.0206414,-0.00955519
-0.0157041,-0.0391593
-0.0163995,-0.0338587
-0.0209792,-0.0287807
-0.0182748,-0.00399624
-0.0133537,0.00743531
-0.0220478,-0.0111752
-0.0278283,-0.0264265
-0.00674963,-0.00291143
0.00943073,-0.0159534
0.0174773,0.018337
0.017103,0.0355304
0.00999927,0.0210521
0.00907965,0.00502903
0.00426317,0.00500705
0.000234891,0.0127876
-0.00247004,-0.00157454
-0.00710565,-0.029007
-0.0195561,-0.0428496
-0.0206342,-0.0197686
-0.00674061,-0.00597493
-0.00590421,0.0163017
-0.00149952,0.024587
0.00783128,0.00424368
0.0163132,0.0239325
0.0165801,0.0255691
0.0180562,-0.00424881
0.0183982,-0.0103564
0.0117226,0.00789852
0.00709201,0.00325966
0.0054024,0.00113599
0.0102815,0.016605
-0.000199871,-0.00700255
-0.00671047,-0.0434865
-0.00144107,-0.0263174
-0.0182172,-0.0199827
-0.0610067,-0.0257735
-0.07992,0.0022795
-0.0588522,0.0198933
-0.00594095,0.0209471
0.0491351,0.0227077
0.0799131,0.0147965
0.0788831,-0.00475338
0.0568235,-0.0168778
0.0289758,0.00241644
0.0171871,0.0233211
0.0139767,0.00256199
0.0174901,0.0121242
0.0115152,0.0292108
0.00105808,0.0204126
-0.00694109,-0.00195725
-0.00181477,-0.0149906
-0.00427051,-0.0189813
-0.0158402,-0.0188459
-0.0132869,0.000847368
-0.00801009,0.0185579
-0.01338,0.0149873
-0.0188414,0.00235528
-0.0176258,-0.000175692
-0.0117669,-0.0174187
-0.00593348,-0.0308844
-0.00484707,-0.0107106
-0.00571314,0.0135181
-0.017081,5.39e-05
-0.026243,0.00305517
-0.025785,0.0108291
-0.0221284,-0.0188695
0.00668177,-0.0458614
0.0465205,-0.0252159
0.061091,0.00303982
0.0556705,-0.00864572
0.0421048,0.00816896
0.00941611,0.0130054
-0.0138329,0.0167565
-0.0195843,0.0184943
-0.0148452,0.0147693
-0.00626903,0.00292285
0.0117249,-0.000628805
0.00849304,0.0177496
-0.030494,0.00279214
-0.0568918,-0.0307634
-0.039004,0.00376029
-0.0276267,-0.00584549
-0.0258198,0.0122734
-0.0581658,0.00105596
-0.0602698,-0.0098137
-0.0707933,0.00958743
-0.0331686,0.000855123
0.0228797,-0.00520118
0.0439969,0.0236166
0.0772315,-0.00355346
0.0525195,-0.00576812
0.00812267,-0.0046176
-0.0113288,-0.0232683
0.0129717,-0.00913581
0.0385505,0.0152112
0.0612819,0.0160765
0.0886031,0.0178091
0.06116,0.025397
-0.00158806,0.0205999
-0.00541238,-0.007918
0.00210916,-0.0304867
-0.00416761,-0.0201117
-0.0158094,-0.0151763
-0.0191199,-0.0165247
-0.0304238,0.00119033
-0.0269198,0.00694334
-0.00843349,0.00525681
0.0253999,0.0115167
0.0372604,-0.00177535
0.0206753,-0.0190745
-0.000633605,-0.000691226
-0.0374456,0.00945194
-0.0691881,0.0060541
-0.0564554,0.0113792
-0.0169308,0.0143728
0.0364875,0.00571083
0.0642486,0.00367964
0.046286,-0.0189571
0.0289942,-0.0163683
0.0251604,0.00244101
0.015947,0.0155396
0.00201025,0.0145829
-0.0126304,0.00128033
-0.0239584,0.0144638
-0.0414951,-0.00112195
-0.0401716,-0.0266182
-0.0318767,-0.0266129
-0.027925,-0.00133003
-0.00824881,0.00933722
-0.00203712,0.00537636
-0.00477472,0.015821
-0.00819967,0.026225
-0.00655324,0.00365629
-0.00444669,-0.0273979
-0.0101302,-0.0424012
-0.0106441,-0.0315928
0.00117974,-0.0036936
0.0102867,0.00993684
-0.00112373,0.00611843
-0.00772094,0.00977899
-0.00800209,-0.0214661
-0.0145407,0.0116328
-0.00829755,-0.00250934
0.00901159,-0.0209205
0.0254577,0.00941592
0.0345339,0.0228124
0.0204975,0.0030586
0.00982172,0.0280092
0.0090464,0.0345267
0.0055897,0.00747727
0.0121001,-0.0172119
0.013287,-0.0112405
0.00471554,-0.00851773
-0.00407735,0.0122447
-0.0122821,0.0188074
-0.018868,-0.00212732
-0.0306446,-0.021945
-0.0288902,-0.0142776
-0.0273072,-0.0323712
0.00940462,-0.0125457
0.00938678,0.00761772
-0.0171509,0.0124376
-0.0333965,0.00931521
-0.0211366,0.0101078
0.00925461,0.0161862
0.0482309,0.0100751
0.0509463,-0.00652467
0.028508,-0.00779795
0.014742,0.00067402
-0.00278124,-0.0086334
-0.00735139,-0.00266387
0.00840451,0.0205337
0.0161327,0.0071766
0.0174311,0.00828665
0.0204098,-0.00190695
0.027256,-0.0220043
0.0304759,-0.0219652
0.0242285,-0.00304024
0.0101561,0.00547733
0.015228,0.0258889
0.0199793,0.0303089
0.00612051,0.0149681
-0.022466,-0.00482775
-0.0660413,-0.0238938
-0.102208,-0.0197918
-0.135972,-0.0108716
-0.137545,-0.0149944
-0.0920192,-0.0151248
-0.016207,0.000648392
0.0412992,0.0041383
0.084848,0.00193069
0.0922028,-0.0190893
0.0821955,-0.0151396
0.0627399,-0.00163659
0.0549252,0.0121066
0.019754,0.0180052
-0.0573948,0.0201953
-0.0566356,0.0228982
-0.00904248,0.0190805
0.0412068,-0.0042188
0.0739688,-0.0234628
0.081775,-0.0139855
0.0584651,-0.00993375
0.00643987,-0.000518311
-0.0207921,0.0154842
-0.000824652,0.016159
-0.0144736,0.00894052
-0.02219,0.0168886
-0.0279095,-0.0212911
-0.0383474,-0.0438083
-0.0428558,-0.0101475
-0.0227713,0.00726214
-0.00126864,0.0191679
0.00940923,0.0168612
0.00475278,0.0345117
-0.0272079,0.0259121
-0.0498738,-0.00624067
-0.0506218,-0.0205909
-0.0270852,-0.0130853
-0.00153034,-0.00115529
0.0444696,0.00835076
0.0880753,0.016432
0.0732971,0.0176465
0.0361625,0.0102767
0.0150314,-0.00709143
-0.00766364,-0.0332026
-0.0376291,-0.0243306
-0.0455826,0.0142737
-0.046372,0.0153672
-0.0413528,0.00968952
-0.0244659,0.00900125
-0.0150482,0.004467
-0.0103866,-0.00433826
0.00606059,-0.00997579
0.0292287,-0.0201253
0.0207817,-0.0169664
0.00969665,-0.0189206
-0.00301292,-0.0121001
0.00415501,0.0128552
0.00311493,0.00245785
-0.0179488,-0.000341595
-0.0108707,-0.0109578
-0.00504115,-0.0292919
-0.0102925,-0.00711264
-0.0066539,0.000663971
0.0144795,-0.00507656
0.0446803,0.0128281
0.0406258,0.0320358
0.01269,0.0178279
0.000756267,-0.0755612
0.00785165,-0.0511119
0.0106217,-0.0224169
0.0142474,-0.00570135
0.00422884,0.0133823
-0.0176768,0.0292382
-0.0239427,0.0550533
-0.018362,0.0586714
-0.00325665,0.0299878
0.00731364,0.0107035
-0.000433263,0.0197519
-0.0107359,0.0254571
-0.0132523,0.010648
-0.00948449,0.00777231
-0.00126356,0.00249204
-0.000691335,-0.0252084
-0.0189708,-0.0629135
-0.0279399,-0.0676615
-0.0142454,-0.0526433
-0.00435801,-0.0183782
-0.0223597,0.0177423
-0.0444294,0.0279278
-0.0221697,0.0295813
0.0200037,0.0217153
0.0476352,0.0276377
0.0658477,0.0147778
0.0625715,0.00467614
0.0245505,0.0141106
0.00120329,0.0169812
-0.0013419,0.00819381
0.000923812,0.0035729
0.00120872,0.0029165
0.00580726,-0.0471188
0.0151952,-0.056664
0.0218895,-0.0373079
0.0169708,-0.0301294
0.00288031,-0.0227951
-0.00343564,-0.00149915
-0.00189149,0.0225686
-0.0057536,0.0350767
-0.0173445,0.0385738
-0.0323981,0.0283437
-0.0238981,0.00446383
-0.00427175,0.00633285
-0.00101774,0.028534
-0.0135811,0.0243586
-0.017678,0.0171208
-0.00423769,0.0147806
0.0164327,-0.00470353
0.0217995,-0.0339888
0.014715,-0.0499583
-0.0156146,-0.0342054
-0.0453463,-0.0342925
-0.0575799,-0.03861
-0.0595294,-0.0243525
-0.0141377,0.0211874
0.0468202,0.0434011
0.0554161,0.0468262
0.0397687,0.0195881
0.0405707,-0.00375799
0.0393485,0.00863521
0.0305461,0.0233165
-0.0261532,0.00569707
-0.113851,0.00361047
-0.112456,0.0087914
-0.0292797,0.00998512
0.0543528,-0.0261822
0.0918746,-0.0470848
0.115015,-0.0285443
0.0848306,-0.0182004
-0.0257479,-0.00299566
-0.108749,-0.00282455
-0.100385,-9.78e-05
-0.0518814,0.0315961
0.0120238,0.0190464
0.0686072,0.00766612
0.076035,0.01037
0.0237479,0.0225132
-0.0127807,0.0274561
-0.0161054,0.0229483
-0.0198965,0.0151859
-0.0077715,-0.00384844
0.0192671,-0.0284878
0.0404258,-0.0530229
0.016858,-0.0573118
-0.00475739,-0.0577299
0.0116791,-0.0385237
0.0245963,0.0216722
0.000657827,0.0444712
-0.0172131,0.0448649
-0.0154227,0.0400744
-0.0150588,0.0181637
-0.017949,-0.00830917
-0.0201634,-0.00848081
-0.0230713,0.00902602
-0.0194373,0.0147122
-0.00879117,0.00274889
-0.00595024,0.000886808
0.0152711,0.00457018
0.0178431,-0.0279291
0.0104615,-0.0397714
0.0135102,-0.0216198
0.0114636,-0.0171281
-0.0155526,-0.0145713
-0.0439676,0.00352761
-0.0433909,0.0164386
-0.0312412,0.0223036
-0.0388647,0.0250868
-0.0418077,-0.000458338
-0.0128511,-0.0144141
0.0232328,0.00517717
0.0357671,0.0161715
0.0399545,0.0226707
0.0293819,0.0145183
0.0222314,0.0093565
0.0308409,0.0157492
0.0151298,-0.0171007
0.0172956,-0.0347992
0.0319732,-0.0252623
0.0242885,-0.0210641
0.0155285,-0.00959721
0.00409415,0.00752714
-0.0101028,0.0194735
-0.0117924,0.0223396
-0.0138778,0.0128176
-0.010063,-0.0182055
-0.000387293,-0.0159943
-0.00948733,0.00861744
-0.0202546,0.0191079
-0.0207663,0.0284942
-0.00883034,0.0272189
-0.0113674,0.0218635
-0.0249638,-0.0153066
-0.00483818,-0.0396286
0.0182907,-0.0271732
0.0144152,-0.0223913
0.0107305,-0.0118081
0.00660766,0.00311718
0.0133843,0.0125639
0.00141545,0.0155664
-0.00834639,0.0172102
-0.00297729,0.00271043
-0.00591967,-0.0245152
-0.0108324,-0.0187226
-0.00257722,-0.005892
0.000784915,0.0164826
-0.00634243,0.0294592
-0.0088702,0.0295954
0.000547498,0.0113044
0.0225778,-0.018827
0.0517376,-0.0407293
0.0579001,-0.025747
0.0420936,-0.0179652
0.0136072,-0.00510084
-0.0226984,0.0123633
-0.0430097,0.019599
-0.0354865,0.0173912
-0.00671959,0.0178171
0.0141524,-0.00162931
-0.0151705,-0.0246788
-0.0522719,-0.0209051
-0.056978,0.0140061
-0.0349192,0.0099402
-0.0200509,0.0135317
-0.00491918,0.0365066
0.00107647,0.0169963
-0.00872618,-0.0192069
-0.00423333,-0.030804
0.013434,-0.02105
0.0312502,-0.0199717
0.0306797,0.000230242
0.012771,0.0198163
0.0133379,0.0230254
0.016943,0.0174752
0.0117607,0.00462554
0.0061895,-0.0204541
0.00146309,-0.0276306
0.00847729,-0.00587615
0.00302982,0.00208643
-0.00218843,0.00157603
0.00701598,-0.00074791
0.0111674,0.00451882
0.0131234,-0.00241834
0.00849254,-0.0176832
-0.00253616,-0.0161304
-0.00528959,-0.00880711
0.00140053,-0.00241872
0.00167192,0.0139653
-0.00630857,0.0296558
-0.0046929,0.0208195
-0.00490477,0.0169689
-0.0109392,0.00553948
-0.00616762,-0.010947
0.00509953,-0.0103651
0.0127603,0.00401138
0.00119334,0.00964744
-0.0153067,0.0100981
-0.0193407,0.0134714
-0.0043379,0.0150411
0.00402186,-0.0161584
-0.00940098,-0.0350734
-0.0252913,-0.0376703
-0.051736,-0.0360981
-0.0522341,0.00290048
-0.0385343,0.0235439
-0.0427608,0.0279577
-0.0154549,0.0234149
0.0351209,0.0193224
0.0765299,-0.00499806
0.0864944,-0.0275213
0.0655775,-0.012277
0.0578334,0.00495953
0.0609763,-0.0154177
0.0433547,-0.00786336
0.0363275,0.0219312
0.0433848,0.0207293
0.00516098,-0.0194826
-0.0531388,-0.0246342
-0.0516553,-0.00556001
-0.0493516,-0.002258
-0.0500936,0.013073
-0.026793,0.0237902
-0.00390797,0.0305249
-0.0034625,0.0355656
-0.0146144,0.00588036
-0.0214916,-0.0260229
-0.01813,-0.0277279
-0.0205481,-0.00537579
-0.0302047,0.000562178
-0.0470054,-0.00510767
-0.0457591,-0.0063423
-0.0227675,0.0171043
0.00218137,0.0122801
0.00724112,-0.0301516
0.0164891,-0.0303004
0.0350175,0.00140911
0.033221,0.00509689
0.0248648,0.0057455
0.0161712,0.0147827
-0.000227926,0.00854181
-0.0125862,0.00146676
0.00438213,-0.00787671
0.0376598,-0.0203842
0.0383178,-0.0197585
0.0217496,0.000124136
0.000172666,0.0105055
-0.0222143,0.00821677
-0.0365729,0.0167288
-0.0319091,0.0173997
-0.0209625,0.00105604
-0.0119795,-0.0137835
-0.00728488,-0.010315
-0.00548759,-0.00953896
0.00275205,0.0110127
0.0375128,0.0242817
0.0767063,0.0168401
0.0837118,0.0122905
0.0782356,0.0104337
0.0642493,-0.0147655
0.030295,-0.0260379
0.00944737,-0.0147717
-0.0132945,-0.00316915
-0.0359835,0.00372201
-0.0301298,0.00974786
0.0106755,0.0159329
0.0208313,0.00795719
0.00932811,-0.0127297
-0.0281079,-0.0180392
-0.0767225,-0.0034803
-0.0797193,0.000803432
-0.092741,0.00544126
-0.0925255,0.0160587
-0.0735888,0.0181733
-0.0504409,0.00707884
-0.027583,-0.00668905
-0.0128233,-0.033439
-0.00151616,-0.0321902
0.00242465,-0.00841108
0.00858887,0.00167031
0.0154519,-0.0046166
0.023057,0.00348612
0.0281212,0.0185989
0.0297183,0.00717196
0.0319996,-0.00911888
0.0307864,-0.00541109
0.0357921,0.00545216
0.0427572,0.0112708
0.0585884,0.0144066
0.084736,0.0257012
0.0772211,0.0176483
0.0323659,0.00686756
-0.0187558,-0.0110827
-0.0393597,-0.0262263
-0.0334429,-0.0256189
-0.0172036,-0.00880866
-0.0246136,-0.0056555
-0.0247336,-0.00174469
-0.00533858,0.0091913
-0.00704726,0.0146349
-0.0242267,-0.000873628
-0.0244326,-0.020204
-0.0028242,-0.00557842
0.00935614,0.0067528
-0.00936944,0.0148517
-0.0396155,0.0152746
-0.0308837,0.013968
-0.0112798,0.0113169
0.00636827,0.00928363
0.0131978,-0.0158474
0.0172731,-0.030814
0.0147178,-0.0267486
0.0159149,-0.00627452
0.0119799,-0.00123494
0.0226563,0.000155025
0.0344818,-0.00692066
0.0289579,-0.0285053
0.0313413,0.00257751
0.0178219,0.0120508
-0.0232439,0.0160793
-0.0340279,0.0240594
0.0243411,0.0284149
0.0577683,0.0263967
0.0278008,0.0218132
-0.0282089,0.0133818
-0.0709511,-0.0103436
-0.0689247,-0.0222255
-0.070606,-0.0302456
-0.0731251,-0.0280443
-0.0506683,-0.0213926
-0.012754,-0.000828003
0.0319837,0.0121773
0.0486503,0.0250699
0.0334453,0.0213499
0.0179523,-0.00163376
0.0380135,-0.00122325
0.0527501,0.00660444
0.0548181,-0.00804357
0.0258588,0.00131151
-0.0134753,0.0217214
-0.0453209,0.0244628
-0.0610041,0.0151011
-0.0674106,-0.0310709
-0.0597349,-0.0625266
-0.0193221,-0.0071161
0.00987419,-0.0293476
0.0515538,-0.0184815
0.0679036,-0.00245253
0.0367163,-0.00540701
0.00426467,-0.000793304
-0.0266614,-0.00447144
-0.0389829,0.00481067
-0.0235907,0.0291703
-0.0270582,0.02149
-0.00581732,0.0125332
0.0525128,0.0146026
0.0847658,0.019239
0.0751729,0.0211029
0.0698889,0.0159955
0.073485,0.0182366
0.0173196,0.0432174
-0.0194062,0.0347135
-0.0414655,-0.0390978
-0.066195,-0.0713675
-0.0637679,-0.0703018
-0.061233,-0.0130341
-0.0211811,-0.000617154
0.017236,-0.0194994
0.0332273,-0.00910808
0.0184323,0.0245357
-0.0202036,0.00999446
-0.0296319,0.036807
-0.0393995,0.0506171
-0.041264,0.0420611
-0.0333387,0.0332061
-0.03233,-0.0100299
-0.0210672,-0.0478186
-0.00362442,-0.0496626
0.00197453,-0.0412206
0.00219086,-0.0235398
0.000505789,-0.0183795
0.00360701,0.000116332
0.00572257,0.0101568
0.0020219,0.0160113
0.007676,0.0228132
0.0144206,0.0158168
0.0277514,-0.00329751
0.0276687,-0.00360459
0.0149417,0.00194017
0.0171315,0.00985192
0.0490703,0.0318074
0.089745,0.0177944
0.164053,-0.00728367
0.193571,-0.0286959
0.136143,-0.0329595
0.030195,-0.00900406
-0.102522,-0.00160536
-0.207543,-0.00193729
-0.235739,0.00617226
-0.204474,0.0133633
-0.138642,-0.0286099
-0.0550573,-0.0256177
0.0173589,0.0110343
0.129355,0.013848
0.198112,0.00424624
0.142279,0.00579067
0.0436575,0.0260385
-0.0432449,0.0266597
-0.115954,0.00997872
-0.144888,-0.0140478
-0.118957,-0.0302847
-0.0804255,-0.0164226
-0.0494204,0.00749698
-0.0349943,0.00173473
0.013279,0.00989831
0.111268,0.0223148
0.163249,0.0174707
0.16676,-0.00284546
0.143391,-0.00543331
0.0834523,0.00537179
0.000746002,0.000195164
-0.0499041,0.0133064
-0.0566059,0.0183837
-0.0569397,-0.0188239
-0.0697866,-0.0217807
-0.0675292,-0.00253306
-0.0864507,-0.0340247
-0.0951029,-0.034214
-0.0355584,0.0015008
0.00729351,-0.0136148
0.0520185,0.00397596
0.0553783,0.0181473
-0.0165252,-0.00486257
-0.0578428,-0.0411737
-0.0459346,0.0122338
0.0521165,0.0209444
0.149374,0.0146055
0.197717,0.00583707
0.142713,0.0217669
0.0200906,0.0104335
-0.0380762,0.0262311
-0.0482265,0.0303261
-0.0814749,0.00192476
-0.0695395,-0.0148583
-0.0573729,-0.0127945
-0.0628699,-0.00333124
-0.051768,-0.015026
-0.0169809,-0.0097863
-0.00144403,0.0169498
0.00600595,0.0251694
0.00956281,-0.0132622
-0.00641955,-0.037699
-0.00725311,-0.00181728
-0.00793705,0.00421784
-0.0167176,0.00561502
-0.017577,0.00968809
-0.00836088,0.0100451
0.0147159,0.00791208
0.0324734,0.0128794
0.0322131,-0.00900423
0.027212,-0.0325219
0.0390639,-0.0113533
0.0457708,-0.014018
0.0298285,-0.0175585
0.0190041,-0.00812302
0.00523338,0.0106071
-0.0179689,0.0218279
-0.0307386,0.0129038
-0.0379865,0.00929549
-0.0529582,0.0025173
-0.0662969,-0.0170105
-0.0654464,-0.00608968
-0.0292881,0.020284
0.0124185,0.0240206
0.0185882,-0.0167204
0.0382049,-0.0185091
0.0743348,0.00800156
0.0602539,0.000140383
0.0228185,-0.0218546
0.0110867,-0.0150049
0.00578404,-0.0267575
-0.00517615,0.00702058
-0.0128645,0.0206314
-0.00511234,0.0365257
0.0220145,0.017118
0.0260568,0.00368006
0.00374498,0.0095566
-0.00879836,0.00283664
-0.03286,-0.00285107
-0.00856669,0.00143568
0.0200494,-0.00246461
0.0236898,-0.019247
0.0127318,-0.0267965
-0.00294764,-0.0364593
-0.00265241,-0.0172414
0.0154213,0.0196249
0.00456262,0.0325588
-0.0305899,0.00962812
-0.0393663,0.012039
-0.0339785,0.0250024
-0.0333685,0.00465709
-0.0175996,-0.0140186
-0.00845581,-6.75e-05
-0.0143878,0.00177427
-0.0150355,-0.00469949
-0.00455592,0.00520867
0.00850198,-0.0190954
0.0286465,0.00883003
0.0598289,0.0264967
0.0643422,-0.000302479
0.0805094,-0.0239727
0.0504926,-0.0244436
-0.0140622,-0.0328514
-0.062155,-0.0199877
-0.10579,0.0256478
-0.114053,0.0172518
-0.0700809,0.00711974
-0.00662489,0.00773035
0.0310045,0.0153068
0.0796797,0.00453001
0.104796,-0.0105905
0.062415,0.00143902
0.0112747,0.0105391
-0.0356785,-0.0126013
-0.0591743,-0.00573282
-0.0518763,0.0076001
-0.0447646,-0.0112917
-0.0418662,-0.0397641
-0.0314584,0.0050274
-0.0122967,0.0162469
0.00587586,-0.00104342
0.0228425,0.002671
0.0258138,0.007028
0.0366724,0.0153844
0.0385737,-0.0103944
0.0210714,-0.00516147
0.00563425,0.00271802
-0.00684954,0.0114582
-0.0123434,0.0177459
-0.0203509,0.00936836
-0.021058,0.00274641
-0.0132216,-0.0286398
0.00317155,-0.0225772
0.0280406,-0.00140833
0.0430783,0.00284293
0.0375932,0.0225043
0.0376856,0.00999954
0.0363878,0.00801041
0.0276072,0.0188393
0.0118171,0.0195053
0.00409701,0.00213418
9.8e-05,-0.0235527
-0.0129028,-0.0310727
-0.0177804,-0.0200496
-0.017387,-0.00583641
-0.0249805,-0.0218629
-0.0592984,0.00986748
-0.0834053,0.0368953
-0.070056,0.0235748
-0.0447006,0.0019529
-0.00717576,-0.0154311
0.0439255,-0.00853836
0.0786753,0.00111204
0.0726865,-0.0160584
0.0671804,-0.0160066
0.0459963,0.00686471
0.0062386,0.0119387
-0.0446997,-0.00739452
-0.0842516,-0.023652
-0.0712601,-0.0081567
-0.0397036,-0.0115196
0.00840991,0.0146724
0.0347964,0.0317873
0.0532105,0.0134217
0.0392289,0.00365737
-0.0130281,0.00966443
-0.0606588,-0.0147949
-0.054785,-0.0245571
0.0144868,-0.0249861
0.00887632,-0.0173566
-0.017965,0.0289679
0.0180811,0.0148758
0.0209474,0.0114536
0.0296048,0.0187971
0.0700445,-0.00195846
0.0901903,-0.00799175
0.0658847,-0.00374344
0.013633,0.00754832
-0.0444769,0.00685924
-0.080137,0.017874
-0.0783551,0.0350178
-0.0748213,0.020148
-0.0447107,0.00234305
0.025955,-0.0148424
0.0338769,-0.0309634
0.0261406,-0.026371
0.041762,-0.031186
0.0570002,-0.0168648
0.0435467,0.013917
0.0185032,0.0115095
0.00366286,0.00451058
-0.00717297,-0.0118112
-0.0209631,-0.00118989
-0.0337902,0.00814205
-0.0349983,0.00669666
-0.0470456,0.0103653
-0.071639,-0.0140135
-0.0505691,-0.0137008
0.0164373,-0.00558221
0.0256134,-0.0319252
0.036734,0.0200642
0.050417,0.0496739
0.0290892,0.00358254
0.00220619,-0.0106643
-0.0129005,-0.0107736
0.00489144,0.0398883
0.0138926,0.0338969
0.0323054,-0.00137083
0.0421487,-0.0257477
-0.00585609,-0.0267909
-0.0704951,-0.0383493
-0.0862458,0.000534124
-0.0668946,0.00423865
-0.0921687,0.0173403
-0.0660391,0.0280995
0.0101109,0.000280287
0.0775911,-0.0315311
0.13158,-0.0175026
0.126146,-0.0120047
0.0693673,-0.0198633
-0.0158164,0.000169392
-0.0687419,0.0112766
-0.0515411,0.00331949
-0.00932568,0.00684085
0.0348398,0.0063086
0.0198836,-0.00129487
-0.0591517,0.000536062
-0.127686,0.0124002
-0.100991,0.00142165
0.000192714,0.0240132
0.0946191,0.0144829
0.128134,0.00834245
0.127439,0.0107018
0.0783879,-0.0117979
0.0353123,-0.0311623
0.0176221,-0.0151322
0.0111715,0.00104385
0.00155727,0.000255553
-0.00424506,0.010486
0.00508474,0.0204736
-0.0527843,0.00141025
-0.121438,-0.0156017
-0.101244,-0.00124598
-0.0593003,0.0199616
-0.0691567,0.041353
-0.0280854,0.0418526
0.013034,-0.0171967
0.00415362,-0.0215236
-0.0510466,0.0025824
-0.0863251,-0.0129401
-0.102978,-0.0457597
-0.0413844,-0.0423279
-0.00966032,-0.00844136
0.0505738,0.0042501
0.121422,-0.00225591
0.0791614,-0.0191504
0.0755548,-0.00906174
0.15279,0.0207896
0.181289,0.000165077
0.12741,-0.0097088
0.0322846,-0.0321621
0.0148843,-0.00326173
-0.00612579,0.0467164
-0.0125962,0.0293991
-0.00263809,0.0201104
-0.0212019,0.0386213
-0.0467504,-0.002085
-0.0897281,-0.025301
-0.137048,-0.0237765
-0.107355,0.0301544
-0.0338664,0.0224075
0.0122919,0.00672769
0.0295714,0.0119335
-0.0239482,-0.00575168
-0.129461,-0.0406818
-0.159626,-0.0381652
-0.0858526,-0.011604
0.0535454,0.00837098
0.126282,0.0320783
0.100961,-0.0154892
0.0741703,-0.00109548
0.0790833,0.0702443
0.053803,0.0307651
-0.00902029,-0.0291546
-0.0220448,-0.0521908
0.0193299,-0.028339
0.0281485,-0.0145993
0.0135162,-0.00411759
0.0167022,-0.00966744
0.0224329,0.0116938
0.0108416,0.00130254
-0.00857048,-0.00619538
-0.0115217,0.00517627
0.00879775,-0.00196297
0.0239915,-0.00688917
0.0221891,-0.00245981
0.0097451,0.00868356
-0.00186736,0.0150567
-0.0149305,0.0230853
-0.0707823,0.00748148
-0.0718566,-0.0108394
-0.0251529,-0.0217764
-0.00349555,-0.00867313
-0.0243467,0.00816984
-0.0258869,0.00233026
0.0198472,0.0249381
0.0281939,0.00850466
0.0251855,-0.0277206
0.013699,-0.0225795
-0.0114328,0.00339624
-0.0794441,-0.0208313
-0.145159,0.0412653
-0.130968,0.0350964
-0.0408868,0.0216191
0.0625538,0.00399965
0.140152,-0.0222419
0.134785,-0.0211102
0.109546,-0.0128845
0.0833417,0.0490198
-0.00682618,0.0112749
-0.0344994,-0.0281367
0.00478645,-0.0137448
0.0451592,-0.00573794
0.087267,-0.0249582
0.0730493,-0.00169578
-0.00934979,0.00903328
-0.278309,-0.00611791
-0.405012,-0.0128865
-0.299615,-0.022267
-0.193568,0.01205
-0.015835,0.0530778
0.176187,0.0422733
0.32451,-0.00733077
0.361772,-0.056864
0.294582,0.00791685
0.000576508,-0.00321588
-0.252708,-0.000682806
-0.148517,0.0259683
0.0194461,0.0121204
0.176594,0.0439437
0.200331,0.0202132
0.167093,-0.0210955
0.0707391,-0.0320838
-0.0490824,-0.007857
-0.0877302,-0.0160266
-0.15083,0.00698172
-0.299904,0.0354817
-0.332372,0.0245808
-0.112567,-0.00483933
0.121574,-0.0358281
0.245893,-0.0680007
0.186783,-0.0552065
-0.0330987,-0.0131572
-0.143154,-0.0198345
-0.10846,-0.0136468
0.00259195,0.0103676
0.125223,0.0193516
0.216415,0.0346387
0.225019,0.0236935
0.117236,0.0276988
0.0170418,0.0146673
-0.0548847,0.013881
-0.0926967,0.0143858
-0.0483242,0.00279321
0.0428403,0.00443899
0.0838284,0.0278338
0.00600383,-0.0161381
-0.0740974,-0.0223431
-0.0914715,0.00311
-0.0787245,-0.0143468
-0.0775037,-0.0291066
-0.0803122,-0.00207524
-0.09447,0.0117674
-0.103506,-0.00356487
-0.082921,-0.00975904
-0.0170791,-0.00250625
0.0313247,0.00885713
0.0501969,0.019695
0.0482713,0.00855358
0.067591,-0.0117624
0.0675543,-0.0044398
0.0538142,0.0245863
0.0295614,0.0121313
-0.0127673,-0.0119279
-0.0651464,-0.0258254
-0.0735323,-0.00466105
-0.0622247,-0.00224961
-0.0445614,-0.00495032
-0.00954948,0.00255657
0.0222693,0.0158687
0.0250249,0.00920266
0.048777,-0.00153005
0.0693771,0.00371984
0.0588363,-0.00478266
0.0414293,-0.0180039
0.0271102,-0.0261296
0.0219716,-0.0153985
0.0439498,-0.00889843
0.0387467,0.0108008
-0.00048592,0.0258221
-0.0141377,-0.00290681
-0.0114688,-0.01818
-0.0191566,-0.0128066
-0.021231,-0.000838592
-0.0389816,0.00352093
-0.0503995,0.015548
-0.0399534,0.011991
-0.0489663,-7.05e-05
-0.0825035,-0.00262171
-0.0584499,0.00560668
-0.0102482,0.0014741
0.0929753,0.0128113
0.184437,0.0347095
0.133261,0.0235803
0.036991,-0.00644968
-0.0302735,-0.018704
-0.0588361,-0.0197146
-0.0594696,-0.0368088
-0.0459293,-0.0429986
-0.0100592,-0.00369187
-0.0109945,0.0103415
-0.0661448,0.0610729
-0.0827598,0.0301328
-0.0512923,-0.0191725
-0.00398541,-0.011442
0.051801,0.00879383
0.0617181,0.0144226
0.0444508,0.0253135
-0.00223279,0.0316098
-0.0180399,0.0267261
-0.0106821,0.0232551
0.0226178,-0.0135759
0.0851972,-0.0229969
0.0893465,-0.0249734
0.0688402,-0.0297797
0.0363201,-0.0319523
0.0303786,-0.0145494
0.00312912,-0.00738093
-0.0180602,0.00850361
-0.0199035,0.0112741
-0.0264887,-0.00807877
-0.0245723,-0.0131494
-0.00181289,-0.0108099
-0.136059,0.00398723
-0.295587,0.0220605
-0.175429,0.0302536
0.0545631,0.0192246
0.202446,-0.00681184
0.190266,-0.00365309
0.073773,-0.0112929
-0.0277095,-0.0229621
-0.0382243,-0.0191857
-0.0209553,-0.00942534
-0.0119829,-0.0181463
-0.00568098,-0.0243558
-0.00220957,0.00608228
-0.015072,-0.0127844
0.0156527,0.012861
0.0598524,0.018334
0.057337,-0.0039132
-0.00728435,0.00313415
-0.0272427,-0.0032578
-0.0216937,0.00104978
-0.0366659,0.0111376
-0.0271872,0.000395876
-0.030292,-0.00738882
-0.0361677,-0.0116119
-0.00442546,0.00258492
-0.0104515,0.00970624
-0.0487583,0.00663172
-0.0479251,0.000684655
-0.0188599,0.00112771
0.0287903,0.00360613
0.0613283,0.00586871
0.0353894,-0.00721271
0.0415835,-0.00316709
0.0661506,0.0274483
0.0461755,0.000173003
0.0301317,0.0178951
0.00347697,0.0563579
0.00383352,0.0464851
0.000547914,-0.00269734
-0.0194868,-0.0331966
-0.0183092,-0.0272354
-0.0213142,-0.0140115
-0.0204441,-0.00583336
-0.0162199,0.0220796
-0.0328174,0.0136305
-0.0447253,0.0107114
-0.0415572,-0.00574849
-0.00390756,-0.0229952
0.0450976,-0.0420094
0.075872,-0.0292199
0.0663008,0.0193572
0.0346599,-0.00396643
0.0320156,-0.00699329
0.00891612,0.00406113
-0.0347799,-0.00696008
-0.0428767,0.00519455
-0.0264508,0.000207163
-0.0081688,-0.0060897
0.00922064,-0.0158238
0.0295422,-0.0112612
0.00549014,0.0239518
-0.0174278,0.0256115
-0.023023,0.0222435
-0.0189686,0.0220195
0.00345531,0.00395533
0.0058239,-0.00658297
-0.0347378,-0.0279868
-0.00368556,-0.0234879
-0.00495394,-0.0177077
-0.126687,-0.000920796
-0.221342,0.00125073
-0.152514,-0.00572164
0.0137995,0.0145666
0.125601,0.0100997
0.178104,-0.0038497
0.183283,0.00465574
0.121846,0.0146825
0.0290627,0.0207076
-0.0048916,0.0128781
0.0181868,-0.00208395
0.0340596,-0.014622
0.0188844,0.0297095
0.00729763,-0.00313787
0.0257861,-0.0447516
0.0404251,-0.0490836
0.0297989,0.0128924
-0.0796828,0.0434369
-0.13093,0.0091104
-0.0968811,-0.0187393
-0.0394695,-0.0142595
-0.00119558,-0.015545
0.0188151,-0.00960591
0.0514633,0.000990362
0.0236629,0.00152067
0.00648234,-0.00850263
-0.0389405,-0.0107084
-0.0369521,-0.00330184
0.0218478,0.00825393
0.042045,-0.0126195
0.00250639,-0.0190311
-0.0922946,-0.0222749
-0.100241,-0.0011494
-0.108971,0.0204062
-0.0411221,0.0240705
0.0509477,0.0194477
0.0759966,0.0177217
0.0496177,0.0192877
0.0595632,0.0101209
0.0484386,-0.0141549
0.0215502,-0.0117911
0.0174554,0.00069823
0.0153969,0.0137148
-0.0084274,0.0270386
-0.0100283,0.028946
0.00861025,0.0137501
0.0320653,0.00114803
0.041461,-0.0161784
0.0363875,-0.00573621
0.0183855,0.00895065
-0.011053,0.00646042
-0.0228249,-0.00838705
-0.0201761,-0.0157132
-0.0291492,-0.0151443
-0.0362901,-0.0327638
-0.0279225,-0.0253955
-0.0360925,-0.0299967
-0.0482799,0.0285228
-0.0393405,0.0470297
-0.0289729,0.0112999
-0.0150484,0.00905442
-0.00518559,0.00733459
0.0342969,-0.0154372
0.067303,-0.026505
0.0544675,-0.013135
0.0324447,-0.00448854
0.029855,-0.00050075
0.0348101,0.00277186
0.0315869,0.0176204
0.0143096,0.0248874
0.00513758,0.00969295
-0.0196172,-0.00797778
-0.0294782,0.013377
-0.0308675,0.0123448
-0.0288627,-0.000174569
-0.0252002,-0.00656805
-0.0201812,0.00363876
-0.0223638,-0.022867
-0.0169203,-0.0314312
0.0143479,-0.0278339
0.0443621,-0.0396377
0.0429921,6.71e-05
-0.0172433,0.0170572
-0.056539,0.0153134
-0.0537447,0.0125948
-0.0109817,0.0100565
0.0319607,0.00321726
0.0663567,0.0044285
0.0628195,0.015688
0.0475012,0.0251555
-0.0232908,0.0108099
-0.109847,-0.0117264
-0.119119,-0.00803836
-0.104458,-0.0213899
-0.0378903,-0.00900814
0.0887074,-0.0110238
0.149519,-0.00577028
0.0683684,0.00758633
-0.0737413,0.00621965
-0.0412656,-0.00512062
0.010167,-0.00620858
0.0524327,-0.00846214
0.0611248,-0.0360467
0.0457381,0.0142899
0.0356978,-0.00492734
0.0141669,0.0210103
-0.0401772,0.0312076
-0.0450889,-0.0124121
-0.0162638,-0.00336677
-0.0183976,0.00995156
-0.0512755,-0.0018055
-0.0750521,-0.0293105
-0.0759743,-0.0228257
-0.0534529,-0.00398286
0.0124988,-0.0135145
0.0945903,-0.00982899
0.125471,0.0271838
0.0962028,0.0432756
0.05295,0.0453677
0.0320786,0.0415037
0.0142364,0.014973
-0.0104435,0.00175144
-0.0412837,0.004406
-0.05778,-8.61e-05
-0.0453721,-0.0100053
-0.0323212,-0.0160499
-0.0153982,-0.0150427
-0.00069395,-0.0218651
0.0161453,-0.0316995
0.0171744,-0.0234697
0.0144901,-0.0121705
0.024347,0.00416161
0.0237319,0.0156773
0.0153244,0.0265599
-0.0115348,0.0201568
-0.033274,0.0187969
-0.0452774,0.0144066
-0.0524022,-0.0028162
-0.0616347,-0.00644469
-0.0542554,0.00154876
-0.0189195,-0.00651698
-0.00158004,-0.0138914
0.000880238,-0.00325471
0.0171852,-0.016915
0.0284087,-0.0246446
0.0325776,-0.00113342
0.0417768,0.00168889
0.0612867,0.00152615
0.0603618,0.00374043
0.0355091,0.00250409
0.0124292,-0.00780233
0.00143589,0.00609653
-0.0182312,0.0206402
-0.0177323,0.00752172
-0.00278641,-0.00557334
-0.00542612,-0.00433918
-0.0221172,0.00538348
-0.0243202,-0.00103334
-0.00768813,-0.00673655
-0.00115315,-0.00166465
-0.00322977,-0.00420708
-6.24e-05,-0.0162687
0.00609798,-0.0148306
0.00800623,-0.0129069
0.0114099,-0.0467451
0.0344032,0.00749293
0.0389568,0.0468247
0.017448,0.0295694
0.0057687,0.0178655
-0.00431664,0.0161068
-0.0053364,0.000928243
-0.0042704,0.00224315
-0.0133812,-0.00101155
0.002783,-0.000483814
0.0260776,0.0104795
-0.00365002,0.0101656
-0.0613658,0.00964671
-0.119979,-6.54e-05
-0.175446,-0.0517438
-0.127669,-0.0312157
-0.0611551,0.014738
-0.0709686,-0.0155486
-0.0286198,-0.0126947
0.0660661,-0.0248568
0.130223,-0.0457763
0.151685,0.0132112
0.174176,0.0413595
0.159902,0.0274629
0.0836216,0.0252196
0.0333261,0.0247434
-0.00544943,-0.00100495
-0.139696,-0.0171773
-0.175605,-0.00349855
-0.0999919,-0.00248384
-0.0315516,-0.00723074
0.0513714,-0.0127988
0.0914526,-0.000872444
0.0533027,0.000876039
0.0364612,-0.00180373
0.0420131,0.0125006
-0.000201774,0.0231271
-0.0335801,0.0150041
-0.0126492,0.00896818
0.00338249,-0.00121151
0.0363033,-0.0105525
0.0352925,-0.0121226
-0.00673816,-0.0041816
-0.013178,0.00428922
0.00100525,-0.00502129
-0.0021727,-0.00950278
0.000918854,-0.009164
0.0063872,-0.00554214
-0.00341884,0.00673256
0.00294694,0.00624971
0.0100491,0.0068604
0.000979309,0.0125638
-0.0200604,0.016337
-0.0558244,0.0107523
-0.0811316,0.00365954
-0.0661215,0.00236108
-0.0318256,-0.00368676
-0.0104975,-0.0178965
-0.00135848,-0.0180181
0.0100601,-0.0125048
0.0125437,-0.0128985
0.0164165,-0.00493705
0.0372042,0.00474199
0.047044,0.00102936
0.0409364,-0.00639154
0.0212215,-0.00190318
0.016825,0.000417471
0.0214059,0.0101904
0.0190377,0.0296378
-0.00246279,0.0296898
-0.0287571,-0.00924869
-0.0482945,-0.0149306
-0.0402669,-0.0108763
-0.0359169,-0.0120418
-0.0398015,-0.028292
-0.0452817,-0.0215248
-0.0514266,0.00631381
-0.0697355,0.0173296
-0.0647575,0.0149475
-0.0376574,0.0129066
0.0484878,-0.000573108
0.107344,-0.0155566
0.13536,-0.00143821
0.132273,-0.00285353
0.057468,-0.00870506
-0.00280027,0.000494703
-0.0405401,0.000305997
-0.0500625,0.0114248
-0.018465,0.0238778
0.00971682,-0.00862238
0.0256878,-0.0281461
-0.00764157,-0.0318956
-0.00866943,-0.0238437
0.0108135,0.0214327
0.0140652,0.0297171
0.0215767,0.0178975
0.020884,0.0151711
0.0162962,0.00480416
0.0114224,-0.00133064
0.00875342,0.00261372
0.00643425,0.00308608
-0.00203873,0.00686095
-0.00777313,0.0196644
-0.0190796,0.021549
-0.0426753,0.0107868
-0.0512872,0.0028855
-0.0304945,-0.0137706
-0.0282569,-0.0226053
-0.0308177,-0.020213
-0.0127238,-0.0139578
-0.0223889,-0.00756474
-0.0243844,0.000435852
-0.0212653,0.00352928
-0.0124706,-0.0208287
0.016137,-0.0102981
0.0327744,-0.00444981
0.0535606,-0.0130602
0.0570331,0.00437647
0.0432453,0.0269716
0.0233885,0.0250528
0.0110736,0.0163957
0.0218844,0.0177134
0.0260893,0.00684476
0.000943125,-0.000358679
-0.0170067,0.00101628
-0.00735768,0.0163901
-0.0272599,0.0139477
-0.0282689,-0.00455646
0.0112368,-0.00796851
0.00998383,-0.00952015
-0.00113929,-0.0270633
-0.00155531,-0.0382184
-0.0130268,-0.0331246
-0.0688108,-0.0257816
-0.0872574,0.00797882
-0.0795733,0.0208254
-0.0362737,0.00197042
0.012908,-0.0101975
0.0567668,-0.00169512
0.0767899,0.00558694
0.0710021,-0.0068111
0.0391118,0.000358692
0.00505815,0.00996704
-0.00651134,0.00436881
0.0177152,-0.00126715
0.0305356,0.0121961
0.0308152,0.0253039
0.0154264,0.0104086
0.0180343,-0.00676784
0.0105046,-0.032192
-0.0386349,-0.00426333
-0.0682296,0.0151255
-0.0674637,0.0152343
-0.0430397,0.0200053
-0.0229733,0.0132349
-0.00450284,-0.00291801
0.017929,-0.0416391
0.02134,-0.00868867
-0.0148694,0.00448378
-0.0397603,0.0110637
-0.0590058,0.0228602
-0.0454012,0.00782307
0.0125406,0.00553583
0.0734548,0.0105087
0.108006,-0.0100879
0.100313,-0.0173823
0.0630882,-0.011366
0.0209927,-0.00691676
-0.0362405,0.00157919
-0.0486272,0.00662907
-0.0380597,0.00878725
-0.0191204,0.0200142
-0.0114699,0.00550086
-0.00409825,-0.00783411
0.000381191,-0.0123224
0.00248825,0.00422015
0.00174844,0.00304758
0.0113065,-0.00523238
0.0174514,-0.0207985
0.00136839,-0.00346222
-0.0164075,-0.0125372
-0.00418101,-0.00878785
0.00441224,-0.0144342
0.00524194,-0.00553797
0.00272405,0.0115396
0.00540815,0.0141982
-0.00161625,0.00467291
-0.0139119,0.00619862
-0.0415256,0.00920128
-0.0375583,0.00209043
-0.0071805,-0.00576773
0.0082358,-0.00224383
0.0164537,0.00791245
0.0274034,0.0115736
0.0421188,0.0138166
0.0406893,0.0184403
0.0241163,0.0148019
0.0166583,0.00057818
0.00919875,-0.00796071
0.00103913,-0.00238239
-0.00628765,-0.00184487
-0.0308881,-0.0029092
-0.0633028,-0.00675544
-0.0853701,-0.0130262
-0.0844198,-0.0105206
-0.0461755,0.00211036
0.00431789,-0.0176627
0.0191243,-0.00861437
0.0591469,0.0106395
0.0716195,0.000113673
0.034537,-0.0024918
-0.00436793,-0.003474
-0.026346,-0.0111709
-0.0360773,0.000669784
-0.0118888,0.000657326
-0.0201515,-0.000853866
-0.0238619,0.00871835
0.0236394,0.00385367
0.0493211,0.00466559
0.0466973,-0.00951556
0.0339279,-0.0185714
0.0173754,-0.00990446
0.0349943,-0.00680333
0.0724496,-0.0242885
0.0553521,0.0112871
-0.0353691,0.0232343
-0.0735933,0.0149786
-0.0434106,0.018735
-0.0214154,0.0199609
0.000358944,0.00782508
0.00436855,-0.00744813
0.0138731,-0.0150644
0.0163573,-0.00476916
-0.00677633,-0.00766805
-0.0116386,-0.00554816
-0.00866017,0.000717863
-0.0115042,0.00438187
-0.0134089,0.00608866
-0.00818876,0.00677733
-0.00359905,-0.00142717
0.00334121,-0.0116015
0.00281871,-0.00686574
0.00343005,0.00161425
-0.00239921,0.000309741
-0.00567748,0.00333632
-0.00745957,0.0108111
-0.0346415,0.0127982
-0.0676161,0.000425539
-0.045585,-0.0150536
-0.00981838,-0.00147434
0.0225248,0.00379558
0.0493983,0.00107776
0.0638113,0.0076873
0.0670463,0.0115765
0.0375002,0.000696672
0.0127187,-0.00358149
-0.028826,0.00485758
-0.0770225,-0.0102251
-0.114801,-0.0130615
-0.136178,-0.0133706
-0.112458,-0.00693995
-0.0614879,-0.0300059
0.0563216,0.0191312
0.133958,0.0286206
0.179289,-0.00316771
0.149986,-0.00666286
0.057897,-0.00108503
0.00752031,-0.00153258
-0.0504107,0.00194089
-0.0613776,0.00619275
-0.0236914,0.0110079
-0.0105886,0.00930207
0.0113239,0.000324426
0.0335294,-0.0190748
0.0560102,-0.0148806
0.0579666,0.00185663
0.0287725,0.00786052
-0.0021429,0.00741614
-0.0131402,0.00548185
-0.0236879,0.00703396
-0.0219968,-8.86e-05
-0.00556796,-0.0160044
-0.00507787,-0.0102603
-0.0167508,-0.00117189
-0.0207014,-0.00112049
-0.0213042,0.00303357
-0.0193046,0.00873589
-0.00913031,0.00560738
-0.000886987,0.00479425
-0.00134735,-0.00338004
-0.000501106,-0.00963117
-0.00430065,-0.00392215
-0.00993189,0.00903532
-0.0154694,0.011467
-0.0245034,0.00958575
-0.0244605,0.0106324
-0.0347211,0.0114053
-0.0274063,0.00504571
0.00628712,-0.0111654
0.0438801,-0.00378899
0.02239,-0.00635183
-0.0148978,-0.0175233
0.000785451,-0.019874
0.0250739,0.0220389
0.0239599,0.0233544
0.0129996,-0.00230306
-0.00521427,-0.0266301
-0.00380656,-0.0309486
0.00184542,-0.00697646
0.00420971,0.0110348
0.0043105,0.0147773
0.00633545,0.0100046
0.010491,0.0128967
0.00555128,0.00883301
-0.00202361,-0.00950801
-0.00808232,-0.0179245
-0.0130493,-0.00782988
-0.0182569,-0.00788572
-0.0141791,-0.0146684
-0.0157537,0.000293527
-0.0238141,0.00424468
0.00317033,0.0234953
0.0253347,0.0145915
0.0206114,-0.00212241
0.0211077,-0.00876176
0.01537,-0.00223526
0.00399823,-0.000443251
0.00132885,0.00114871
-0.0107921,0.0119722
-0.017591,0.0168781
-0.01293,0.00324586
-0.00429132,-0.0146682
0.00391117,-0.0140172
0.0112112,-0.00971905
0.015159,-0.0034192
0.0138704,0.00716755
0.00241242,0.0115484
0.00108768,0.00458342
0.00406508,0.00217249
0.0102936,-0.00493049
0.0178414,-0.0119786
0.0214578,-0.0123543
0.025443,-0.00210517
0.0286548,-0.000221797
0.0228486,0.00406943
0.0102674,0.0144959
-0.00849261,0.0174043
-0.0515003,0.00912699
-0.103813,0.0192292
-0.161603,0.0297596
-0.171981,0.0154018
-0.151922,-0.010294
-0.0537057,-0.00769833
0.031428,-0.0314674
0.0838304,-0.00504566
0.11594,0.00986477
0.0932088,-0.0161461
0.0585282,-0.0320871
0.0692683,-0.052852
0.0855041,-0.0516939
0.0798472,-0.00920482
0.0590248,0.0450576
0.0183894,0.0157281
-0.0249228,-0.00286192
-0.0542783,0.000805625
-0.00841837,0.00509675
0.0460779,-0.011825
0.0477385,-0.00191995
0.0435137,0.0218267
0.0115505,0.0221701
-0.0143816,0.0184058
-0.0304865,0.0175397
-0.0270739,0.0102117
-0.0238531,-0.00998174
-0.0269838,-0.00912851
-0.0286282,0.00882409
-0.0284479,0.00847582
-0.0167518,0.000881139
-0.00660372,0.0044298
-0.00211166,0.00677275
0.00443293,-0.00148978
0.00589602,-0.0129946
0.00407388,-0.0139379
0.00814979,-0.0126404
0.00961569,-0.005465
0.00208134,0.00800867
-0.0115739,0.013043
-0.0229786,0.0053935
-0.0400928,0.0013672
-0.0534522,-0.0039435
-0.0481271,-0.0114985
-0.0459156,-0.00534824
-0.0307151,0.00596073
-0.00453964,0.00586848
0.0253334,0.00555944
0.0418542,0.0150458
0.0368833,0.0144329
0.04991,-0.00206859
0.0578937,-0.0132541
0.0628432,-0.00562735
0.0507885,-0.00428126
0.00766486,-0.0026365
-0.0128353,0.00571474
-0.00651298,0.00917104
-0.0144462,0.00560095
-0.0242404,0.00364709
-0.0227653,-0.0160734
-0.0197854,-0.0382723
-0.0229929,-0.0299869
-0.0121958,0.0116867
0.00201892,0.0222809
-0.00236357,0.0190169
-0.0119138,0.0164411
-0.0315196,-0.00311053
-0.029191,-0.00388537
-0.0106518,0.00230857
0.0127224,-0.000234844
0.0392553,-0.0158572
0.0357562,-0.0128804
0.0365127,0.00993058
0.0328903,0.0195371
0.0164587,0.00829212
0.00643139,0.00312186
-0.00558842,-0.0134627
-0.0164737,-0.0136676
-0.0403197,-0.00359154
-0.0871045,-0.00468531
-0.0875465,-0.0116056
-0.038242,-0.00228874
0.0356004,0.00859628
0.0545588,-0.000881344
0.0480509,-0.0200234
0.0395024,-0.0283298
0.0418528,-0.016416
0.0237766,0.017724
-0.0118175,0.0268238
-0.0611122,0.0129926
-0.0631154,0.0117048
-0.0476446,0.0136116
-0.00405865,0.00327627
0.0471829,-0.0091533
0.0884074,-0.000779471
0.0776698,0.0101534
0.0199609,0.0106489
-0.00826088,0.00750028
-0.0065578,0.00528634
-0.00785401,0.0107746
0.00274825,-0.00684391
0.0172418,-0.0200273
0.0130607,-0.00892826
-0.00185441,-0.00292479
-0.00675661,0.00551004
-0.0144762,0.0107485
-0.0190155,0.00372054
-0.0136269,-0.00410512
-0.0211705,-0.0115556
-0.0460014,-0.0202868
-0.0682953,-0.0137724
-0.047453,0.00423383
-0.0115256,-0.00118626
0.000296755,-0.0183039
0.0149805,0.00602383
0.0430967,0.0228334
0.0455525,0.0236045
0.023695,0.00717931
0.00829785,-0.00674578
0.0132494,-0.0148771
0.0197276,-0.0115082
0.0143605,0.00450782
0.00723267,0.0145103
0.00775897,0.0102143
0.00968532,0.00778743
-0.000987792,0.00502452
-0.00595747,-0.0113384
-0.00619788,-0.0140752
-0.0101153,-0.00211007
-0.0115217,0.000344832
-0.00450414,0.000503044
0.00200454,0.00390672
-0.00404282,0.00936831
-0.0147247,-0.0054523
-0.0237164,-0.0468052
-0.0394347,-0.0314031
-0.036611,-0.0119363
-0.0440672,0.0156
-0.0438415,0.0457507
-0.0141619,0.0415557
0.0228553,0.0293562
0.0434712,-0.00897362
0.0485776,-0.038758
0.0681161,-0.0116517
0.0797608,0.000653351
0.0217387,-0.00937464
-0.0143283,-0.00455856
-0.0224929,0.0069634
-0.0223161,0.0173522
-0.0112346,0.0261217
-0.022365,-0.00355187
-0.0336767,-0.0146805
-0.0142324,-0.0221822
0.00312952,-0.0205648
0.00161628,-0.0152291
0.00968673,-0.000457335
0.0240604,0.0225
0.0149422,0.0236021
-0.0307158,0.0105539
-0.0436978,-0.00449079
-0.0254138,-0.0226169
-0.00713873,0.00843043
0.00306526,0.036801
0.0081027,0.00576903
0.0167747,-0.00130389
0.0163177,0.010697
0.0191029,-0.00119294
0.0524406,-0.0118148
0.0920736,-0.0334482
0.0745755,0.00578796
0.0126829,0.0215331
-0.0289153,0.0051494
-0.0406513,0.00311556
-0.0215492,0.00348409
0.0155918,0.00148823
0.0153521,-0.00310641
0.000502362,-0.0184561
-0.0516983,-0.0214128
-0.138552,-0.00862547
-0.136723,-0.00632565
-0.0665256,-0.00110841
0.0167276,0.0155044
0.0884029,0.0191164
0.103507,0.00105847
0.0841534,-0.00760453
0.0458398,0.00320173
0.0131303,-0.00617136
0.0113639,-0.00108372
0.00683741,0.00119543
-0.00518182,0.00994719
-0.0193838,0.0237646
-0.0217108,-0.00412171
-0.00953183,-0.0114522
-0.00084127,-0.0200424
-0.0290549,-0.0291001
-0.0531988,-0.00490663
-0.0565603,-0.001254
-0.0374173,-0.000450673
-0.0127891,0.0171238
0.0231905,0.0199131
0.0548099,0.00513899
0.057535,-0.00500321
0.00547002,0.00354025
-0.0283451,0.00660851
-0.013568,0.00179301
-0.00421026,0.00292388
0.0117997,0.00366993
0.0318771,-0.00578175
0.0236588,0.000242396
0.0226836,-0.00460704
0.0196595,-0.0161992
0.0153674,-0.0193117
0.00979547,-0.00803728
0.00278621,0.00748494
-0.00584441,0.0160147
-0.0182895,0.0147625
-0.032419,0.00683975
-0.0355387,-0.00187603
-0.0347295,-0.00405326
-0.0346949,0.00648665
-0.0240444,0.0037853
-0.0100383,-0.00873282
0.0148927,-0.00524191
0.0331694,-0.0102502
0.0393248,-0.0142609
0.0195772,-0.00735408
0.005797,-0.00556281
0.000629283,-0.0158461
-0.0272043,-0.00957251
-0.049011,0.0042467
-0.0211605,0.00840781
0.0187517,0.0151114
0.00958255,0.0435912
-0.00112099,0.0254017
0.0164963,-0.0110964
0.0278912,-0.010823
0.0145325,0.000833848
-0.0113896,-0.0057056
-0.0187222,0.00686612
-0.00402699,0.00413565
-0.00364216,-1.91e-05
-0.00686338,0.00624717
-0.00665775,-0.00202016
0.00275159,-0.0120717
0.0185253,-0.0103783
0.0305542,-0.00457637
0.0246898,-0.0110497
0.0227736,-0.00293377
-0.00083003,0.0100175
-0.031558,0.00967387
-0.0184935,-0.0107377
-0.00596856,-0.0178337
0.00444909,0.0222676
0.00963055,0.0148618
-0.00502614,-0.02357
-0.0159378,-0.0106719
-0.0155052,0.0118214
0.000124331,0.00883789
0.0176275,-0.00339807
0.0250651,0.00484568
0.0348524,-0.00111294
0.0277952,0.00334489
0.00168885,0.00799453
-0.0115921,-0.00198139
-0.0112553,0.00522902
-0.00795754,0.0118493
-0.00435405,0.0110353
-0.0120611,0.00507909
-0.0256398,-0.00935699
-0.0153743,-0.0041399
-0.00996566,-2.44e-05
-0.0120338,0.00331411
-0.0247672,-0.00499894
-0.0578571,-0.0143464
-0.0647884,0.00177847
-0.0280751,-0.0207825
0.0214388,-0.00799015
0.0654349,0.012644
0.09199,0.0123297
0.0879016,0.00164194
0.0398363,0.00330365
0.000706838,0.0041417
-0.0161264,0.00726825
-0.0305603,0.00259987
-0.0326404,-0.0104576
0.00257973,-0.00535385
0.0178837,0.00119512
0.0199821,-0.00251873
-0.0139048,-0.0261857
-0.0499238,-0.0139294
-0.0405745,-0.0065168
-0.028704,0.0177227
-0.0402859,0.00600351
-0.032118,-0.0209448
-0.00969573,-0.0139216
0.0179702,-0.0162388
0.041298,-0.00502486
0.051354,0.0193108
0.0583855,0.014064
0.0273455,0.00809053
-0.0116296,-0.000449899
-0.00700869,-0.0045453
0.00334913,-0.0044183
0.0121648,-0.00510224
0.0174122,0.00810063
0.0209581,0.0218795
0.0202105,0.0209712
-0.00032783,0.0187669
-0.0218299,0.0153016
-0.0155372,-0.00121512
0.00195429,-0.0147775
-0.000878011,-0.00930712
-0.012851,-0.00245846
-0.0151282,0.00279579
-0.0169399,0.000169373
-0.031447,-0.0170688
-0.0405024,0.00068693
-0.0136628,0.000714383
0.020298,-0.01256
0.0212806,-0.013236
0.0205893,-0.00574114
0.0169052,0.00457278
0.000843963,0.0162967
-0.00953272,0.0280171
0.00185964,0.020163
0.0229143,-0.00716561
0.0295526,-0.0178338
0.0147189,-0.0124494
-0.00359531,0.00374536
-0.052927,0.00486824
-0.0974377,-0.00710221
-0.0769201,-0.00301956
-0.0475608,0.00677317
-0.00718931,-0.000100059
0.0437394,-0.0186134
0.0694067,-0.0039631
0.0626098,0.00738783
0.0384505,-0.000388117
0.0276189,0.00374805
-0.0026013,0.0181195
-0.0206165,0.0157976
-0.000677277,0.0110745
0.0224815,0.00190709
0.0343717,-0.007052
0.0240506,-0.00585725
0.00741596,-0.00415952
-0.00491462,-0.00477024
-0.0257111,-0.00168145
-0.0466004,-0.00941366
-0.0593589,-0.0211708
-0.053105,-0.0461216
-0.0104181,-0.0200385
0.0377669,0.0152449
0.0441499,0.0193635
0.0162448,0.00852565
0.015543,0.0105852
0.0225338,0.0403295
0.0212134,0.0231485
0.00681878,-0.00644609
-0.00108138,-0.0223404
-0.00439137,-0.0263516
-0.00264564,0.00167695
-0.0140857,0.0111444
-0.00411708,0.00825612
0.00913004,0.00969502
-0.00418513,0.0117185
-0.00984124,0.00903398
-0.00324688,-0.00538056
-0.00724172,-0.0172389
-0.0179718,-0.0165318
-0.0219012,-0.005968
-0.0707031,0.00911759
-0.0887746,0.00847632
-0.038051,0.00842533
0.0263888,0.000926405
0.053681,-0.00656128
0.070851,-0.00734986
0.0448253,-0.0198093
0.0172577,-0.0124488
0.0139439,0.00477972
0.00270739,0.0043638
0.0139229,0.00623319
0.0266055,0.0030902
0.023106,0.000525933
0.0141519,-0.0100292
0.00188537,-0.00869679
-0.00730984,-0.00666659
-0.00530943,0.00440918
0.010628,0.0168164
0.0138099,0.0196381
0.00134184,0.00926278
-0.0125409,-0.00128478
-0.0133102,-0.00663398
-0.0281211,-0.00588345
-0.0147596,-0.00678206
0.0175055,0.00043873
0.0064102,-0.00506277
-0.0219239,-0.00509371
-0.0333889,0.00514997
-0.0247826,-0.00435173
0.00324773,0.00184549
0.019381,0.00389219
0.00905101,0.00191824
-0.00293933,0.00315324
0.000779886,0.00553159
0.0166603,0.00668263
0.0012047,0.00828484
-0.0580396,-0.00576531
-0.0862047,-0.00495865
-0.0595723,-0.00465982
-0.0126428,-0.00716641
0.0336653,0.00310463
0.0371373,0.00387483
0.00368022,-0.010334
-0.0189786,-0.018803
-0.0258652,-0.000228695
-0.00789849,0.00208069
0.0430815,-0.00522703
0.0692407,0.00515804
0.063142,0.0104909
0.0690083,0.0120286
0.0416749,0.00231807
0.0151002,0.0213674
-0.0104417,0.0176552
-0.0291066,0.00276337
-0.0257901,-0.00587258
-0.0294108,-0.0137603
-0.0175855,-0.0180662
0.00806656,-0.00782273
0.00611813,0.000989514
0.00313757,0.00469555
0.00366444,0.00863568
0.0042183,0.0124251
0.00784813,0.00509878
-0.00596483,-0.00891383
-0.0102695,-0.0112527
-0.0131052,-0.00530485
-0.00590492,-0.00150727
0.00144106,0.00357424
0.00135663,0.005676
-0.000273687,0.000856354
0.00436678,-0.00337427
0.0111586,-0.00760366
0.0119487,-0.0170306
0.0162509,-0.0196506
0.0127573,-0.00897379
-0.0184775,0.0231665
-0.0397374,0.0342814
-0.063471,0.0155156
-0.0722472,0.010279
-0.0483982,0.00636101
-0.0117114,-0.0148103
0.0235952,-0.0159919
0.0488525,-0.00849616
0.0474381,0.00491635
0.0227658,0.00744934
0.0140127,-0.0050653
0.0217169,-0.00629347
0.0249539,-0.0212344
0.00671797,-0.0172184
0.0125188,-0.00220143
0.00781856,-0.00309007
0.00782942,0.0023045
0.0132963,0.00822312
0.0096005,0.010907
0.00628282,0.0206303
-0.010764,0.0122325
-0.0714024,-0.00585479
-0.11314,-0.0136791
-0.093353,-0.0278396
-0.0425429,-0.0119333
0.0174793,0.0047367
0.06851,0.0053264
0.0999678,0.00417158
0.0772147,0.00630066
0.0260799,0.0157612
0.0103572,1.96e-05
0.011736,-0.0115177
0.0154245,0.0091342
0.010022,0.0027511
0.00404661,-0.00150486
-0.00531655,0.0150335
-0.00953522,0.0093736
-0.00532177,0.00883629
-0.000322181,-0.00695705
0.000383023,-0.0104948
-0.00388353,-0.00397474
-0.00783684,0.00116627
-0.0130487,0.00956692
-0.0175622,0.00555654
-0.0187529,0.000496072
-0.0172962,0.0113852
-0.0119084,0.00094603
-0.00171594,-0.0178106
-0.00119339,-0.0120172
0.00297406,-0.00865033
0.00842284,0.00121836
-0.048137,0.00333699
-0.0633341,0.0156411
-0.00473311,0.00887689
0.0342595,-0.015217
-0.0165457,-0.019398
-0.0734569,-0.00808906
-0.0443221,0.000703623
-0.00340921,0.00675895
0.0182696,0.0121516
0.051424,0.0124016
0.0704938,0.00444362
0.075375,0.0024445
0.0682711,-0.0186593
0.0388823,-0.014739
0.0163628,0.00729458
0.00856811,0.0169663
0.00447951,0.00498613
0.0055634,0.00413127
0.00609353,0.0152464
-0.00516572,0.00193865
-0.0201,-0.025518
-0.0107588,-0.0106232
-0.000204947,-0.0021162
0.00425354,-0.00623005
-0.00199247,-0.000292416
-0.0268037,-0.00718436
-0.0537565,0.00410559
-0.0671617,0.00969064
-0.0479464,0.00197692
-0.0118657,-0.00701002
0.0190683,-0.00847104
0.0345605,0.0013583
0.0402614,0.00802195
0.0305387,0.00609763
0.0197151,0.0100886
0.00661675,0.0156459
0.00651118,0.00693524
-0.0188067,-0.0290013
-0.00178432,-0.0189978
0.00815279,-0.015989
0.000596831,-0.00235692
-0.0216897,0.0105575
-0.0349926,0.0103861
-0.0381978,0.0173391
-0.0358966,-0.0104986
-0.0290351,-0.0564016
-0.0107986,-0.0152844
-0.00792424,0.0458293
-0.00642328,0.0354688
0.0176546,0.02105
0.0226575,0.0112905
0.052122,0.00752256
0.0805138,-0.0083087
0.0453064,-0.0405441
0.0104191,-0.0350276
0.00909238,-0.0165953
0.0015042,-0.0170921
-0.0281778,-0.00952521
-0.0245462,0.0319741
-0.00811895,0.0422692
-0.00625,0.0354798
0.00152785,0.019523
0.0091034,0.00131085
0.012011,0.0114271
0.00620516,0.00450145
0.00418903,-0.0145799
0.00308413,-0.0171887
0.00763276,-0.00931632
-0.0754265,0.0167481
-0.179574,-0.0113162
-0.151974,-0.0329892
-0.0734349,-0.0185722
0.0217525,-0.0116114
0.0846656,0.000789056
0.120228,0.015024
0.106791,0.0160003
0.0611202,0.0163311
0.0381902,0.0193084
0.0329878,-0.00538807
0.0360667,-0.0280091
0.00216042,0.00560513
-0.0521264,0.00735497
-0.042182,0.00489198
-0.0163517,0.00287411
0.00685847,-0.00170131
0.0194447,-0.0136067
0.0519471,-0.0284052
0.0453429,-0.0213326
0.00755893,-0.00918584
-0.000444007,-0.00171894
0.00467272,0.00780405
0.00231857,0.0151956
-0.00639789,0.0188184
-0.00811139,0.019949
-0.0106141,0.0172747
-0.0205055,0.00493918
-0.0377992,0.000364856
-0.0290663,0.00482739
-0.00494322,0.00420812
0.00675951,0.00430902
0.00682387,0.00483551
-0.00766086,-8.54e-05
-0.0132298,-0.0140375
0.00444448,-0.0305703
0.0104475,-0.0298162
0.000526038,-0.018147
-0.0149638,-0.00614934
-0.033961,-0.00646978
-0.0327895,0.00331742
-0.00837368,0.0176503
0.0134402,0.02468
0.0175072,0.0159851
0.016393,-0.000621441
0.00659896,-0.00128925
-0.000140785,0.00637808
0.00440333,0.00858858
0.0113221,0.0101532
0.0107127,0.012102
-0.0165056,0.00518233
-0.0163866,-0.0142341
0.00756865,-0.0224641
0.0184462,-0.0161331
0.0135215,-0.0212022
0.00229031,-0.0144587
-0.00625762,-0.00333681
-0.015781,0.0252687
-0.0253185,0.0311415
-0.0174174,0.0252537
0.00185546,0.00150832
0.00772235,-0.0176947
0.00527584,-0.00822111
0.00508922,0.0038617
0.0130914,0.00264216
0.00967511,0.00251274
-0.0053366,0.00708452
-0.0149791,-0.00560227
-0.00778596,-0.0257382
0.00561107,-0.0253924
0.0199843,-0.0113752
0.037639,-0.00208595
0.0330778,0.00362992
0.0250817,0.022763
0.00471818,0.0311095
-0.0321669,0.00094307
-0.062695,-0.00449367
-0.0739483,-0.00225298
-0.048763,-0.0161364
-0.0309091,-0.00123409
-0.000650921,0.00238497
0.0330698,-0.00992219
0.0530186,0.0259152
0.0357176,0.0179007
-0.000504279,-0.00944223
0.00694826,-0.0273724
0.0313879,-0.0206662
0.0352823,-0.0121215
0.0285654,0.00209478
0.016424,0.0135074
-0.00347065,0.0170523
-0.0123655,0.0103059
-0.0183125,0.0126397
-0.0154272,0.00100358
0.00646265,-0.00888836
0.0171198,0.000461041
0.0136709,0.0152956
0.0107999,0.0164551
0.00915282,0.00753735
0.00928224,0.014606
0.0177558,0.00959961
0.00640386,-0.0158943
-0.0393682,-0.0319308
-0.0573637,-0.030548
-0.0382706,-0.00696982
-0.0160882,-0.00183364
-0.0159601,-0.0153546
-0.0140884,-0.00145591
-0.00615648,0.00643762
-0.0113663,0.0164386
-0.0777403,0.00572677
-0.0847412,-0.0121087
-0.0403765,0.00446252
0.0233224,0.015308
0.0737391,0.00122023
0.101541,0.0159548
0.0812304,0.0136189
0.0271122,-0.00670267
0.0219086,-0.0106807
0.0197619,-0.017688
0.0194017,-0.0216638
0.018984,0.00737246
0.00346,0.0221091
0.00538643,0.0079751
0.0089149,0.00735811
0.00473127,0.00272556
-0.00656299,-0.0094828
-0.0053729,-0.0188811
0.00127977,-0.0212054
-0.00278578,0.00343405
-0.0131372,0.00455199
-0.0254367,0.0227144
-0.027925,0.0289055
-0.0441362,0.0160848
-0.0949118,-0.0150757
-0.130349,-0.0339426
-0.118464,-0.0188291
-0.0447754,-0.0054363
0.0452843,0.00506112
0.106754,0.0108027
0.117864,0.0132652
0.0853633,0.0105977
0.0552071,0.0162714
0.0324151,0.000508497
0.0107041,-0.0153781
-0.000911176,-0.00693949
-0.000133719,-0.00327321
0.00950695,0.0016582
0.016878,0.00361544
0.0114869,0.00803894
0.00614174,0.00723829
0.00649093,-0.0105108
0.00365381,-0.0215872
-0.0195512,-0.0116214
-0.0214022,-0.00890447
-0.00221389,-0.00833903
-0.00626234,0.00615858
-0.01609,0.012217
-0.0274263,0.00864254
-0.0385604,0.00538092
-0.0357347,-0.00736652
-0.015736,-0.0044263
0.0140079,0.00461327
0.0286398,0.0136445
0.0196467,0.0110867
0.00532002,0.00538999
-0.0109561,0.00735058
-0.0111462,0.00517328
-0.00570974,-0.0130859
-0.0193099,-0.0103247
-0.0392856,-0.0130595
-0.0348221,-0.0311412
-0.0213755,-0.0132935
0.0173985,0.0182731
0.0407303,0.0198284
0.0421919,0.00856728
0.0196647,0.00160118
-0.00440572,-0.00234394
-0.00724603,-0.00470258
-0.00618132,0.00391441
0.00590325,0.0118071
0.0140401,0.00926585
0.0217533,0.0119273
0.0203937,0.0118401
0.0204962,-0.00512665
0.0172792,-0.0210938
0.00264729,-0.0175093
0.00012548,-0.0121622
-0.000859401,-0.00714344
-0.00714718,-0.0010728
-0.0224915,0.000104504
-0.0360554,-0.0130575
-0.0427288,-0.0114708
-0.0273238,-0.00702191
-0.0162114,-0.0034187
-0.0191174,0.0173015
-0.0243489,0.0123011
-0.00471301,0.0151334
0.00946447,0.0234963
0.0203009,0.0109989
0.0473481,0.0018183
0.0411625,-0.0049031
0.0181215,-0.0108303
0.0167363,-0.019964
0.00199839,-0.0031621
-0.0158703,-0.00432077
-0.0311064,-0.00474514
-0.0211763,0.0117827
0.010602,0.00911475
0.0452158,0.021758
0.0341764,0.00647397
0.0210748,-0.0140684
0.00927595,-0.000242137
0.00115013,0.000190637
0.00213279,0.00325205
0.00346467,0.00802091
-0.00482947,0.0109737
-0.000662041,0.00177728
0.0111722,-0.014347
0.0191898,-0.0125004
0.0105596,-0.000467782
-0.0434254,-0.00262725
-0.100052,0.000778075
-0.0828275,0.0128156
-0.034121,0.0123851
-0.00174084,0.00633984
-0.00176771,-0.00164536
0.0260509,-0.0164676
0.0440626,-0.0184173
0.0458617,-0.00287797
0.0454991,-0.000210162
0.0345651,-0.00273937
-0.00211572,0.00564066
-0.0219397,-0.0106913
-0.0256033,-0.0100782
-0.0231913,-0.00780783
-0.0130127,-0.00108978
0.00681375,0.0289968
0.0253992,0.0145276
0.0106825,-0.0145028
-0.0102626,-0.000927976
-0.018852,0.00282967
-0.018848,-0.00166483
0.00896614,-0.0166354
0.0107343,-0.0117547
0.000455372,0.0129694
-0.0208618,0.0128733
-0.0304411,0.00628122
-0.00716216,0.0155745
0.026124,0.0159205
0.0494015,0.00570276
0.0558028,-0.00907327
0.0375408,-0.0205586
0.0100541,-0.0124323
-0.00357443,-0.00391773
-0.0020789,0.00105286
-0.00777866,0.00246746
-0.0160282,-0.00200999
-0.0165507,0.00141383
-0.0192554,0.00116449
-0.0153118,-0.00790745
-0.00883778,-0.00942245
-0.0046105,-0.00754964
-0.00128894,2.3e-05
0.00181894,0.00268472
0.00216725,0.00884546
-0.000354904,0.0194173
-0.00479463,0.0168316
0.00502066,-0.00628589
-0.00128531,-0.0121279
-0.00478645,0.00271821
-0.00279992,-0.00312204
0.00323818,0.00398303
0.00679104,0.0196026
-0.0110256,0.0188385
-0.0230785,0.00602819
-0.0259129,-0.0114492
-0.0395951,-0.0438374
-0.0460882,-0.0466165
-0.0235354,0.0112212
0.00982458,0.0160068
0.0313326,0.00465845
0.0417127,0.00786542
0.0327253,0.0100607
0.0216556,-0.000902836
0.0168559,-0.0169306
0.00739923,-0.0113616
0.00277772,-0.00498934
0.0104016,0.0022942
0.0182299,0.0112615
0.0110149,0.0221283
-0.00248957,0.00841672
-0.00946437,0.00293817
-0.00709806,-0.000485954
-0.0054373,-0.0150058
0.0037492,-0.012062
0.0073902,0.00256175
-0.000928999,0.0129153
-0.00258713,0.00709058
0.000882388,0.00585246
-0.0109599,0.00784018
-0.0156798,-0.00895648
-0.00530264,-0.0217927
-0.006776,-0.0129612
-0.0158974,-0.00879295
-0.00902075,0.011395
-0.00818329,0.0244473
-0.0281608,0.0209291
-0.0308135,-0.00368948
0.0213245,-0.0142622
0.0375351,-0.0205893
0.00141029,-0.000869367
0.00221039,0.00528714
0.014697,0.00145767
0.00599007,0.00605213
0.00511658,0.00328233
0.00609259,0.0121398
0.00923289,0.0045379
0.0196032,-0.0126928
0.0226037,-0.00585987
0.0195419,-0.00698357
0.0137727,-0.00491351
0.012939,0.0123029
0.0142291,-0.00405091
0.000544614,-0.00603764
-0.00754859,0.0181154
0.00370215,0.0169907
0.0100493,-0.0158131
-0.00215391,-0.0226833
-0.000864827,0.00777786
-0.0235827,0.00551816
-0.0987896,-0.0109503
-0.127198,0.00715837
-0.0798731,0.0289355
-0.024513,0.014173
-0.0172821,-0.0179437
-0.0128003,-0.0233181
0.015056,-0.00965499
0.0324889,-0.00637444
0.059267,-0.0138662
0.0914873,0.0164059
0.088125,0.0248306
0.059896,0.0138717
0.0298214,0.00480159
0.00833033,-0.00519047
-0.0165956,-0.0087234
-0.0267275,-0.00390479
-0.0329312,-0.00457476
-0.0107261,0.00319296
0.0173542,0.0120165
0.0221152,0.00748578
0.0114023,-0.011937
0.012415,-0.0182882
0.0111669,-0.00914991
0.0269924,-0.0120155
0.0203081,-0.00408887
-0.017533,0.0108371
-0.0453317,0.00783093
-0.0464938,0.00237211
-0.0384757,0.00614818
-0.018092,-0.0187536
-0.0147091,-0.031747
-0.0134649,-0.000237392
0.000759226,0.00899499
0.0121048,0.0109093
0.0135441,0.0198257
0.00839178,0.0181679
0.00589144,0.0104268
0.00897657,0.000315732
0.00861314,-0.00949701
0.00894515,-0.00512399
0.00147094,-0.012362
-0.0043917,-0.00334987
0.00447255,0.01497
-0.00165982,0.0119355
-0.00156848,0.0149265
-0.00642717,0.00685674
-0.0119025,-0.0141506
-0.00566937,-0.0106688
-0.0114689,0.000501595
-0.0272647,-0.00832847
-0.0164002,-0.00399254
-0.0088413,0.00492247
0.00126964,0.0158648
0.0263265,0.0102744
0.0366544,-0.0171009
0.0308084,-0.0188385
-0.00669761,-0.0124839
-0.0531106,-0.0254813
-0.0502311,-0.0112119
-0.0279804,0.00570931
-0.0306429,0.019114
-0.0281863,0.0266127
-0.00300692,0.0111639
0.0246106,-0.00801975
0.0596667,-0.00580202
0.0666503,0.00122881
0.0472307,-0.00327022
0.0407064,-0.0023981
0.0281931,0.015332
0.00773375,0.018088
-0.00360545,0.00245709
-0.0012231,-0.00975785
0.0125686,-0.00166781
0.0154785,-0.000781532
0.00151939,-0.00331386
-0.00998932,0.0011138
-0.00211082,0.0123428
0.00412797,-0.0219139
-0.0127196,0.00456202
-0.0324966,0.0104853
-0.0412893,-0.0110134
-0.0418469,-0.0129021
-0.0385196,-0.00758185
-0.0362083,-0.00253587
-0.0275175,0.00468298
-0.00762975,0.00840672
0.019352,0.00789323
0.0110635,0.000654623
0.00607251,-0.00403368
0.0188915,0.000525236
0.0403008,0.00510174
0.0454121,0.0104305
0.0410756,0.0112189
0.011754,0.00864228
-0.0727017,0.00636145
-0.0997054,0.00255626
-0.0276188,-0.0118886
0.0299945,-0.0296804
0.0366526,-0.0253999
0.0532183,-0.016372
0.0641944,-0.00269046
0.0432844,0.016025
-0.0065974,0.0235413
-0.0420436,0.00631756
-0.0524399,-0.0155509
-0.0342996,-0.00243538
-0.00862042,0.000428949
0.0070181,-0.0149202
0.0220114,0.00777064
0.0218754,0.0142601
0.0207802,-0.00435205
0.0151417,-0.0101248
0.00842363,-0.00434105
0.00688836,-0.00672412
0.00833169,0.000763149
0.00196494,0.00548988
-0.0131567,0.00140758
-0.0230657,0.00508919
-0.0174682,0.00692249
-0.00586737,0.0111885
0.0159937,0.0014449
0.0201297,-0.00894012
0.000253984,-0.00243742
-0.000853559,0.000430171
-0.0116239,0.00843583
-0.0242054,0.0195195
-0.0162832,0.0132869
-0.0132827,0.00605145
-0.0180151,0.000826198
-0.00948078,-0.015028
9.69e-05,-0.0278318
0.00740852,-0.0143036
0.0206988,0.00716656
0.0224481,0.00800345
0.00788707,-0.00352765
-0.00688725,0.0100183
-0.01402,0.0130298
-0.00829888,-0.00700577
0.00358423,-0.0128497
0.00718198,0.000220669
-0.010498,0.00657613
-0.0442623,0.00910608
-0.0446257,0.0180134
-0.0226156,0.0134973
0.00975441,-0.00144919
0.0331386,-0.00388198
0.0359004,-0.0191773
0.0249454,-0.0309227
0.0197794,-0.019553
0.0205831,-0.00396044
0.0113024,0.00498095
5.71e-05,0.00945063
-0.00292359,0.0111729
0.00519413,0.00446439
0.00939788,-0.00722197
0.00920958,-0.00771174
0.00957212,-0.000999441
0.00751795,0.00491298
-0.00265509,0.0139972
-0.00887265,0.0223413
-0.00351912,0.0161324
-0.000778217,0.0107157
-0.003562,-0.00367444
-0.0089222,-0.0162748
-0.0147443,-0.0140504
-0.0230131,-0.00654598
-0.0280543,-0.0188056
-0.0173528,-0.0120602
0.00124882,-0.00338939
0.016853,0.0157736
0.0248659,0.0182858
0.0197487,0.000239466
0.0152762,-0.00462827
0.00648377,-0.0135086
-0.00331455,-0.00602642
-0.00438531,0.00666916
0.00196522,-0.00333983
0.000312768,0.00223142
-0.00952081,0.00890177
-0.0217194,-0.00218589
-0.0369328,-0.0122293
-0.0482723,-0.00890855
-0.0267182,-0.00331253
-0.00719469,-0.00420841
-0.00645294,0.00802976
-0.00450706,0.0122933
0.00150152,0.00191887
0.0365647,0.011299
0.0438263,0.000422993
0.046801,0.00235118
0.056217,0.00346009
0.0504966,-0.00563688
0.0261601,0.0126174
0.000905681,0.0190105
-0.0182834,0.00138071
-0.0729139,0.0055786
-0.1067,0.00144953
-0.0708185,-0.00551746
-0.00323136,0.0032294
0.0340055,-0.0184269
0.0575444,-0.0113003
0.0624177,-0.00690667
0.0287909,-0.0101333
-0.00567816,-0.0151369
-0.0124134,-0.00570657
-0.00680159,0.000887011
0.00480237,0.00198989
0.0175699,0.00299642
0.0101555,0.00733079
-0.0121465,0.011621
-0.0212829,0.00853401
-0.00875011,0.00821551
0.0133436,0.00360333
0.000758903,-0.00741334
-0.00201057,-0.00989557
0.00414197,0.000567496
0.00342143,0.00893719
0.00404375,0.00478628
-0.00179533,9.02e-05
-0.013736,0.00362806
-0.0116857,-0.00596793
-0.00685667,-0.0133323
-0.000652448,-0.00312127
-0.00582803,-0.000295998
-0.0134971,0.00299068
-0.0123709,0.00919687
-0.00295054,0.0103702
0.0128572,0.00380056
0.0210926,0.000501945
0.0235861,-0.0257826
0.0262199,-0.0277601
0.0125549,-0.00430709
-0.0124519,-0.00862833
-0.0214931,-0.0170194
-0.0176151,0.0129433
-0.0101369,0.0411361
0.00906363,0.0125612
0.0165243,0.00578528
0.00521569,-0.00704382
-0.00855612,0.00108887
-0.0123261,0.00519986
-0.00930046,-0.00259228
-0.00529462,0.00869763
-0.00526417,0.0154186
-0.00546093,0.00803712
-0.00607381,-0.00630237
0.00489461,-0.0141785
0.0181745,-0.0205873
0.0106104,-0.0185552
0.00405955,0.00651402
0.000534873,0.0137543
-0.00701757,0.00874059
-0.0100523,0.00633799
-0.00847665,-0.0038445
-0.00262945,-0.0075655
-0.0018687,-0.00914752
0.00139562,-0.00398613
0.00443164,0.00148172
0.00348291,0.00788239
-0.000210057,0.0114826
0.00241387,0.0116131
0.00778222,0.00332584
0.0127472,0.0160495
0.0105222,0.00898521
4.24e-06,-0.019541
-0.00755152,-0.0164765
-0.0227984,-0.018907
-0.0643031,-0.0317877
-0.0859297,-0.0397087
-0.0494659,0.0086897
-0.00326944,0.0314055
0.0316167,0.0118597
0.0333939,0.00576969
0.0370754,0.00607834
0.0392897,0.00735521
0.0243813,0.00992421
0.0173672,0.00929181
0.0162655,0.0067673
0.0117522,0.00353781
0.0158617,-0.0071423
0.0134972,-0.0176554
-0.0014634,-0.0146967
-0.0146773,-0.00443338
-0.0128577,-0.00270337
0.0430203,-0.0185244
0.115711,-0.00620938
0.129061,0.0222388
0.093216,0.0114016
0.0312311,0.00593203
-0.032224,0.0108268
-0.0663363,0.00924191
-0.0667329,0.0118172
-0.0709394,0.0113862
-0.0752243,0.00931893
-0.0812901,0.00541039
-0.0697241,-0.0024821
-0.0405556,-0.01251
-0.0208227,-0.0192817
-0.0196735,-0.0157051
-0.0248365,-0.00770123
-0.0754383,-0.00141128
-0.107712,0.0190374
-0.0793026,0.0233964
-0.0202188,0.00526572
0.0424879,-0.0160657
0.0880954,-0.0219398
0.0851289,-0.0186648
0.049522,-0.0216392
0.0198692,-0.0130684
0.00884761,0.00609021
0.0121761,0.00721646
0.0303001,0.00937107
0.0519234,0.00356956
0.0516199,-0.00688216
0.032494,-0.00128268
0.00509321,0.00393555
0.00808297,0.0148217
0.0553642,0.0171391
0.0746755,0.0153967
0.0758925,0.0121348
0.0646937,-0.00452647
0.0440327,-0.0131214
0.0402945,0.00620786
0.00379112,0.00959521
-0.0250572,0.00972624
-0.0647583,0.00958908
-0.101338,0.00672536
-0.0970821,-0.00631512
-0.103973,-0.0160979
-0.0753599,-0.0128938
-0.0434373,-0.0259576
-0.0303521,-0.0369604
-0.00119248,0.00768244
0.0397297,0.0208645
0.0694278,0.0116229
0.0522162,0.0121439
0.00450878,0.00701907
-0.0142061,-0.00592461
-0.0320086,-0.0135473
-0.050236,0.0094185
-0.0581417,0.00658019
-0.0624918,-0.00841815
-0.0524216,0.000893064
-0.0246279,0.00915286
0.024596,-0.00424763
0.104728,-0.0145604
0.122638,-0.018548
0.0845707,-0.0126235
0.0617172,-0.0112148
0.00983429,0.0264749
-0.0272924,0.0142652
-0.0302655,0.0104847
-0.0651962,0.00350802
-0.061965,-0.0216007
-0.0436344,-0.00921422
-0.0478373,0.00527459
-0.0544929,-0.000687254
-0.0506962,-0.0028016
-0.0411404,0.00571108
-0.0245543,0.0126547
0.0125267,0.010984
0.0642548,0.00973329
0.129589,0.00375686
0.147151,-0.0144235
0.110185,-0.0110637
0.0632982,-0.0145334
0.0498806,-0.00239773
0.0628539,0.0112477
0.0119228,0.0190836
-0.0455106,0.0290142
-0.102625,0.00355224
-0.12103,-0.0239903
-0.0942717,-0.0161976
-0.0822322,-0.0199981
-0.0672447,-0.020586
0.0117188,0.0120252
0.0747581,0.0193231
0.0713559,0.0156478
0.0317427,0.0187818
-0.00995728,-0.00183987
-0.0290742,-0.0167556
-0.0566039,0.00302289
-0.0751711,0.00255911
-0.0401911,-0.00406716
-0.016183,-0.0135043
0.0139424,-0.0106587
0.0710232,0.0221649
0.103135,0.000115886
0.094587,-0.0176764
0.0734778,-0.0109473
0.041731,-0.0108632
-0.00518421,0.00111949
-0.0515378,0.00866394
-0.0804738,0.00999872
-0.0692427,0.00931013
-0.0191614,0.0124666
0.0164732,-5.99e-05
0.0472952,-0.00730697
0.0540746,0.000285554
0.0163271,0.00668536
-0.0188841,0.0067036
