Comp Ch 3,Comp Ch 4
0.0403223,0.0138982
0.0862532,0.0114374
0.0977932,-0.00557299
0.0606291,-0.00866005
0.0108118,0.00451756
-0.0428864,0.00946836
-0.0614914,0.0251957
-0.00315597,0.0326416
0.0291024,0.0222028
0.00834878,-0.00114474
-0.0188756,-0.0206211
-0.0267724,-0.0105647
-0.0261396,-0.0077618
-0.0389099,-0.00405383
-0.036505,0.00650136
-0.0423833,0.012943
-0.0344282,0.0164877
-0.0217229,-0.00320329
-0.022585,-0.0189151
-0.00448703,-0.01866
0.0182461,-0.00245999
0.0315489,0.00747467
0.0296347,-0.00709819
-0.00264051,-0.0121623
-0.0302736,0.0449111
-0.0367249,0.0134611
-0.0269105,-0.0231843
-0.0275729,-0.0180229
-0.0231952,-0.0177256
0.0084128,-0.00101609
0.0644872,0.0138534
0.118744,0.0176498
0.1101,0.0123162
0.0643281,-0.000632555
0.00706345,-0.00229657
-0.0308778,0.000742024
-0.0532024,0.00240878
-0.0500846,0.0061363
-0.0427111,-0.0063803
-0.0381521,0.0333901
-0.0301309,-0.0079589
-0.00800483,-0.0489708
-0.00701927,-0.0386622
-0.0256402,-0.0397037
-0.0151441,-0.0201811
-0.000668128,0.0152045
0.0079955,0.00794957
0.00683809,-0.0111184
-0.00588466,0.00979665
-0.00686855,0.000988278
0.0024269,-0.015225
-0.00153421,-0.0228937
-0.00337114,-0.0381811
0.0126542,-0.0491215
0.0212788,-0.0169198
0.0208624,0.01429
0.0228971,0.0520025
0.0324061,0.089494
0.0422898,0.100254
0.0299744,0.134522
0.0145305,0.0791379
-0.0165732,-0.0226989
-0.0154216,0.0407427
-0.00754712,0.08484
-0.00469788,0.103806
-0.00999133,0.0607919
-0.00868824,-0.0468203
0.0294443,-0.143835
0.0483283,-0.179743
0.0434144,-0.148041
0.0356459,-0.0558084
-0.00535423,-0.038752
-0.0421409,-0.0354304
-0.0586453,-0.0112353
-0.0592877,0.012065
-0.059965,0.00281806
-0.0554747,-0.0156639
-0.0278892,-0.0158153
0.0062826,0.00154145
0.0211548,-0.0018988
0.0250985,-0.0015718
0.0248099,0.0204953
0.0213242,0.0315543
0.0180931,0.033055
0.0148071,0.0262362
0.00305514,0.0201272
0.00253002,0.0164955
0.0102784,0.0136995
0.0066898,0.0280216
-0.00061209,0.00840237
-0.00525784,0.000677228
-0.0150013,0.0130296
-0.0254523,0.00242656
0.00704945,-0.0187108
0.0551025,-0.0176619
0.0315741,0.00545064
-0.0250289,0.00929989
-0.0668143,-0.026642
-0.0430645,-0.0159517
0.008836,-0.00484176
0.0303099,0.0120607
0.0260599,0.0131676
0.0134991,-0.00630717
-0.00408176,-0.00858759
-0.0184828,0.00822549
-0.0283901,0.0182605
-0.0450569,0.0156207
-0.0229553,0.021527
0.00395129,0.0012803
0.0105189,-0.0171513
0.0160339,-0.0299606
0.0203134,-0.020605
0.0187761,-0.0228706
0.0103687,0.00251207
0.015565,0.0634613
0.0428245,0.0659242
0.0587172,0.0255861
0.0365721,-1.85e-05
-0.00877124,-0.012368
-0.0465831,-0.0440767
-0.0737745,-0.062966
-0.0921896,-0.0567712
-0.0795234,-0.0141395
-0.0269598,0.0461295
0.0278849,0.0559761
0.0496917,-0.000573846
0.0511461,-0.0328758
0.0427332,-0.0349136
0.0289041,-0.0260319
0.0167912,-0.0361665
0.016649,-0.016556
0.016679,0.00884501
0.00637742,0.0416868
0.00361091,0.0792829
0.01784,0.0676906
0.0369263,-0.00771227
0.0393536,-0.0678155
0.0293298,-0.0655519
0.0270252,-0.0290074
0.0440913,-0.0139204
0.0527582,0.0866126
0.031366,0.127667
-0.00230238,0.0765329
-0.0215198,-0.0577274
-0.0466142,-0.104988
-0.0495334,-0.0795979
-0.0697879,-0.0468764
-0.144571,-0.00952314
-0.197641,0.0160206
-0.353093,0.0129929
-0.564739,0.0393167
-0.538214,0.0422408
-0.279371,0.019489
0.105631,-0.00623794
0.477239,0.00976464
0.615083,-0.0311256
0.555032,-0.0315659
0.380138,0.0214426
0.217666,0.0102221
0.0919192,-0.011
0.0156643,-0.0325236
0.00941175,-0.0192605
0.0111587,-0.00690845
0.00405619,-0.010779
-0.0056411,0.00370588
0.001478,0.0252879
0.0179668,0.028522
0.0247153,0.0306819
0.0266925,0.0251385
0.0156926,0.00875603
-0.0243734,0.011184
-0.0728763,0.0179082
-0.103289,-0.00284441
-0.144181,-0.00208445
-0.2248,0.00742197
-0.261774,0.0156098
-0.177677,0.0134918
-0.0654816,-0.0188913
0.0194122,-0.0564007
0.0889488,-0.0596691
0.120683,-0.0343193
0.0428458,-0.00204379
0.00076309,0.033764
0.0638824,0.0258067
0.102615,0.0116725
0.0704311,-0.0384808
-0.0298936,-0.051254
-0.0837802,0.0402284
-0.0478422,0.0408235
0.0424966,0.0123587
0.12748,0.0379674
0.154539,0.0179146
0.122501,-0.00376539
0.0484365,-0.0322004
-0.0453075,-0.0376194
-0.086573,-0.0245798
-0.080972,-0.0176465
-0.0703892,-0.0101168
-0.0690273,0.00558642
-0.0560543,0.0114357
-0.00953253,0.0202497
0.030758,0.0255352
0.00887865,-0.0101211
-0.0376886,0.00520204
-0.0602943,0.0364156
-0.0611948,0.0427975
-0.0675465,0.0292047
-0.0732997,0.0165795
-0.0743576,-0.00095138
-0.0404056,-0.022029
0.000185743,-0.0470488
0.021425,-0.0274179
0.0347254,-0.0143737
0.0490814,-0.0234291
0.0567358,-0.0159135
0.0542853,-0.00110032
0.0466002,0.0102642
0.0378214,0.0179438
0.0307047,0.0063056
0.0250103,-0.00750318
0.0168118,0.000635454
0.00461643,0.0237781
-0.00720639,0.0196268
-0.0151438,0.0171229
-0.0158809,0.022391
-0.0137752,0.0100289
-0.00820931,-0.0156541
0.00115354,-0.0275533
0.0066553,-0.023401
0.0145267,-0.0202093
0.0222262,-0.000473991
0.0262025,0.0125307
0.0258784,0.0143276
0.016033,-0.00852082
0.00331217,-0.039717
0.00726883,-0.022071
0.00881915,-0.0105498
-0.00282934,0.00782225
-0.0124906,0.0082785
-0.0198241,0.0223463
-0.0169512,0.0220766
-0.0145572,0.000664713
-0.00697837,0.0224873
-0.000320524,-0.007704
-0.000919301,-0.0221571
0.00249066,-0.0167074
0.00719553,-0.0152771
0.00440285,0.00246277
0.00170718,0.0220206
0.00421753,0.0167666
0.00512547,-0.0112164
0.0177523,-0.023849
0.021271,-0.025242
0.0100471,-0.00227076
-0.00510663,0.0107846
-0.0179956,0.004604
-0.023107,0.0288456
-0.0271657,0.0441361
-0.0226862,0.000406346
0.00108545,-0.0134232
0.00945987,-0.00838141
0.0034039,-0.017606
0.00603289,-0.0139392
0.0202069,-0.00955752
0.0207355,-0.000925378
0.0153827,-0.0200689
0.0118339,0.000618848
0.0118674,0.0400393
0.0110411,0.0210909
0.00582845,-0.0149524
-0.0052042,-0.0152043
-0.0220391,-0.00575106
-0.0446093,0.000476414
-0.0726599,0.0226045
-0.0564224,0.0711894
-0.0265533,0.044511
-0.00411477,0.0192139
0.01852,-0.00120045
0.0373258,-0.025089
0.0417696,-0.0664033
0.0380072,-0.0415321
0.0182942,-0.00347388
0.0147227,0.0106255
0.0434014,0.00541046
0.0520579,-0.0045103
0.0442238,-0.0300662
0.0350161,-0.0709966
0.015132,-0.00411574
-0.0193915,0.0480113
-0.0300531,0.0491938
-0.0357885,0.0281002
-0.0401888,0.0290889
-0.0333275,0.00827963
-0.0144136,-0.0274483
0.0248186,-0.0396636
0.0300211,-0.0114293
-0.025837,-0.0179365
-0.0821498,-0.0230901
-0.124164,0.00456736
-0.125961,0.0218773
-0.11,0.0245702
-0.0616106,0.0166239
-0.0251029,-0.00944737
-0.00500769,-0.0114877
0.0404195,0.0219862
0.0973982,0.0546301
0.111616,0.0405651
0.0829734,-0.00565502
0.0834029,-0.018507
0.0774238,-0.0235774
0.0613498,-0.0388087
0.0466171,-0.0480608
0.0238329,-0.0446238
0.021401,-0.0364399
0.0235627,-0.0109185
0.00748565,0.000892374
0.00263233,-0.00585129
0.000525361,0.015228
-0.000680194,-0.00358124
0.0134703,-0.0182146
0.0107598,-0.0218509
-0.00999683,-0.0132241
-0.0244442,0.0429999
-0.0413071,0.0505641
-0.0545941,0.0508204
-0.0533686,0.0478013
-0.0499883,0.0234221
-0.0449564,-0.00912513
-0.0319963,-0.00416444
-0.0164092,0.00644797
-0.0102441,-0.00827203
-0.00481722,0.0059363
-0.00947571,0.0315496
-0.0491654,0.0177192
-0.0488212,0.00654968
-0.0162563,0.00301928
0.00504388,-0.0305084
0.0386713,-0.00717309
0.0588007,0.000271929
0.036157,-0.00399277
0.000933373,0.0235622
-0.0287389,0.0290961
-0.0427479,-0.0091426
0.0215282,-0.0139888
0.0748536,-0.0114785
0.0846966,-0.0135552
0.0727157,-0.0191871
0.0518505,-0.00222229
0.0160455,0.0165532
-0.014816,0.00430256
-0.0386112,-0.00095463
-0.0308251,-0.00627198
-0.00638722,-0.0346731
-0.00601952,-0.0241509
-0.0205697,0.00658723
-0.0333311,-0.00292821
-0.0443538,0.0100471
-0.0511156,0.021323
-0.0355903,0.0170041
-0.0213043,-0.0166599
-0.00580316,-0.0309152
0.0161974,-0.0207767
0.0521968,-0.0152693
0.0886584,0.00928569
0.0868021,0.0291674
0.064214,0.0448757
0.0362976,0.00991864
0.00462351,-0.0132417
-0.0324597,-0.0297349
-0.059514,-0.0728213
-0.0582667,-0.0486898
-0.0466379,-0.0150919
-0.0337338,-0.00653143
0.0144313,0.0222256
0.0197717,0.0235677
-0.00643293,0.0209135
-0.0222272,-0.0180206
-0.0403241,-0.0225705
-0.0659033,-0.00518574
-0.046154,0.00627867
0.000957067,0.0287051
0.0178656,0.0522796
0.00819578,0.0469793
0.0238016,0.023643
0.0277544,-0.00365792
0.0293343,-0.00457596
0.0262407,0.0149158
0.0187348,0.0148103
-0.00201918,-0.0150296
-0.0152581,-0.0169226
-0.00600716,-0.00759056
0.00521764,-0.0180869
0.0108602,-0.0464939
0.00948405,-0.0522314
0.00748236,-0.033077
0.00405897,-0.0171109
0.00694837,0.00644525
0.0137811,0.0311781
0.0147473,0.0447488
0.0119985,0.0562832
0.011044,0.0699062
0.00670957,0.0364484
0.0170937,-0.00153847
0.0191203,-0.0155018
0.00367699,-0.0559074
-0.00129496,-0.00320635
-0.0129001,0.0129384
-0.0291422,-0.0040311
-0.0399785,-0.0434989
-0.0133715,-0.0435858
-0.0131512,-0.0182548
-0.0348468,0.0112127
-0.00254013,-0.0203246
0.0293613,-0.0213261
0.0307661,0.00740977
0.0289822,0.0199651
0.0084908,0.0284247
-0.0304018,0.0344907
-0.0508631,-0.0052844
-0.0389202,-0.0330893
-0.009948,0.0134029
0.0196858,0.0459859
0.0484114,0.0239269
0.0544285,0.00531866
0.041965,-0.00233027
0.0103054,-0.0237487
-0.0402463,-0.0361346
-0.028889,-0.007276
-0.0259328,-0.000474257
-0.0186447,-0.0265937
0.0378437,-0.0170928
0.0553998,0.0282233
0.0269099,0.029026
-0.00500014,0.0326769
-0.0561639,0.0206122
-0.0882389,0.0126164
-0.074515,0.0224171
-0.047992,0.023806
-0.00183481,0.0153567
0.0288176,-0.000180074
0.00778281,-0.011701
0.0241521,-0.0254621
0.0379659,-0.0391392
0.027703,-0.04786
0.0176367,-0.0334608
0.0111994,-0.0158687
0.00955265,0.00669786
0.00559204,0.0245405
0.00988588,0.0276842
0.0125859,0.0412415
0.0130178,0.0479364
0.018769,0.0112653
0.0255194,-0.00879337
0.0394893,-0.0219301
0.0437271,-0.0341775
0.0139978,-0.0117298
-0.0229057,0.00451177
-0.0484388,0.0028258
-0.0493085,-0.0239549
-0.0368563,-0.0477282
-0.0331816,-0.0363035
-0.0269172,-0.0220458
-0.00985132,-0.000704899
-0.00714531,0.0271131
-0.00683089,0.0482221
0.000125373,0.0439775
0.00790367,0.0166008
0.014266,0.0151903
0.0184931,0.00845467
0.0137503,0.0225226
-0.000270584,0.0223305
-0.0194818,-0.00644895
-0.0192499,-0.0367538
0.000806751,-0.0369079
0.0155196,-0.0497593
0.00776632,-0.0374389
0.00252035,-0.0302115
-0.000378435,-0.0285908
-9.34e-05,-0.00429832
-0.0123834,-0.000516528
-0.0148554,0.0132428
-0.000294686,0.00893621
0.013137,0.0243566
0.0151548,0.0315744
0.0123341,0.0300353
0.0126814,0.00531028
0.00768263,0.00831592
0.00455186,0.016444
-0.00679102,0.00518546
-0.0162546,0.00237523
-0.0111152,0.0136945
-0.00284676,0.0129012
-0.000940244,-0.00789188
-0.013709,-0.0269137
-0.0182048,-0.0351677
0.000230054,-0.0420803
0.0158297,-0.0329374
0.0138747,0.0299217
0.0105964,0.0503352
0.0186861,0.0342143
0.0178275,0.0158301
0.0139858,-0.000411372
0.0241379,-0.0143958
0.0160785,-0.0114152
-0.0106241,-0.0105517
-0.019581,-0.00477542
-0.0105047,0.0260321
-0.0138443,0.0182595
-0.0147333,-0.0260795
-0.0110816,-0.0386311
-0.00572195,-0.0326017
-0.00206686,-0.0328617
-0.00918733,0.00791026
-0.0322452,0.0241589
-0.0300729,0.029627
0.00590443,0.0263101
0.0180909,0.0278165
0.0351771,0.0283474
0.0550274,0.0138604
0.0734351,0.0121414
0.0449552,0.00216422
0.00726008,0.0262201
-0.0353691,0.0129285
-0.0695208,-0.0636225
-0.0824525,-0.0786372
-0.0839363,-0.010575
-0.0503449,0.00332357
-0.0202415,-0.00933904
0.00223921,-0.0150368
0.0274714,-0.00731325
0.0676483,0.0133745
0.0948296,0.0222747
0.0716803,0.0179171
0.0466001,0.0133525
0.0431217,-0.0116478
0.0222632,-0.0200689
-0.0179905,0.00757362
-0.0360371,0.015084
-0.0426134,0.00799619
-0.0607762,0.0166135
-0.0465117,0.0270971
-0.0239647,0.01393
-0.0157485,-0.0185367
-0.00320356,-0.0363115
0.016026,-0.0212667
0.0159196,0.00669066
-0.000543416,0.0110865
-0.0153512,0.00738192
-0.0272774,0.00645337
-0.0234149,0.000729771
-0.00362565,0.014645
0.00859744,-6.41e-05
0.0143265,-0.0154363
0.00361349,-0.0134251
-0.00103871,0.00322194
0.00398382,0.0158491
-0.0010682,0.00960036
-0.0122573,0.0189716
-0.00425859,0.00896497
0.0407213,-0.0289816
0.0660801,-0.0378422
0.0708635,-0.0210925
0.0454335,-0.0108939
0.001834,0.00422807
-0.0326944,0.0136545
-0.0505197,0.00720055
-0.0512152,0.00500344
-0.0348602,0.000142153
-0.00348917,-0.0111323
0.0123425,-0.0107879
0.01601,0.00711235
0.0168708,0.012461
0.00953961,0.0123363
-0.00603535,0.0110931
-0.00924109,0.0291804
0.00365568,0.0257052
0.00717004,-0.020095
-0.00299493,-0.0375876
-0.00787767,-0.0444774
-0.0141038,-0.0381427
-0.0149567,-0.0047087
-0.00995118,0.0265555
-0.000783978,0.0149268
0.00813566,0.026267
0.00508962,0.00733254
0.00142129,-0.0168064
-0.000929652,-0.0064317
-0.00482024,0.00936165
-0.00264994,-0.00443179
-0.00325203,0.000254478
0.0175919,0.0368488
0.0254185,0.0338742
0.00683286,-0.0105906
0.00130562,-0.0341433
-0.00799181,-0.0389246
-0.00909544,-0.0205355
0.0036541,0.0172969
0.00542593,0.019301
-0.00118963,0.00700522
-0.00476237,0.021516
-0.0117188,0.0212717
-0.0111766,-0.0106854
-0.00423494,-0.0475622
0.00358116,-0.0141652
0.0106934,0.0158476
0.0156725,0.0147307
0.0091038,0.00898259
0.0124304,0.0232143
0.0128238,0.00891142
0.005401,-0.026817
-0.0125025,-0.0358196
-0.0782625,-0.00530579
-0.0866395,0.00286213
-0.04764,-0.00176132
0.00196235,0.0278847
0.0549044,0.0306875
0.100999,0.028647
0.0579542,-0.000480475
0.00605037,-0.0232612
-0.0167555,-0.0266026
-0.0185668,-0.0185933
-0.00386463,-0.00479113
0.0223162,-0.0018979
0.0286406,0.0304379
0.0157934,0.0289918
0.00314848,-0.00659567
-0.00975018,-0.0304381
-0.0237598,-0.0191382
-0.0602074,0.00996364
-0.0732546,0.00615438
-0.0676508,0.00186486
-0.0283031,0.0208197
0.0355059,0.0215395
0.0655296,0.018633
0.0534387,0.00271593
0.0378491,-0.0136011
0.0278109,-0.00465832
0.0229613,0.00758814
0.000324468,0.00592511
-0.0140738,0.00379308
-0.00152146,0.0189176
0.0135128,0.0187375
0.00663707,-0.0118187
-0.00781808,-0.0392047
-0.0100456,-0.0432491
-0.00226486,-0.0539374
0.00980923,-0.0639898
0.00465336,0.0303791
-0.00950391,0.0611076
-0.0155417,0.016588
-0.0172205,0.0144721
-0.0103114,0.00700003
-0.00742194,-0.00989064
-0.0235026,-0.018789
-0.0427857,-0.0449471
-0.0260738,-0.0102415
-0.00248984,0.0256814
0.0111777,0.0221171
0.0420084,0.000805908
0.0625836,-0.0491986
0.0438195,-0.0452897
0.0209393,0.00205948
0.0133809,0.00251682
0.00807764,-0.00268235
0.00609082,-0.00166877
-0.0115242,0.017277
-0.0262645,0.0173748
-0.0299203,-0.00428175
-0.016938,-0.0198504
-0.00851158,-0.010299
-0.0106263,0.0058929
-0.0163231,0.0259736
-0.0237821,0.0316663
-0.0285017,0.033722
-0.020268,0.0607333
0.00511964,0.0517795
0.00789775,0.00684155
0.000779602,0.00556567
0.00646845,0.00772657
0.0132216,0.00798236
0.00202507,0.0145397
-0.00571941,0.0227252
-0.00190233,0.0169527
-0.0129389,0.00780482
-0.0402357,-0.0150621
-0.0361863,-0.0335018
-0.0140704,-0.0227634
0.00415534,-0.0102761
0.00252651,-0.0105272
0.0192832,-0.00574854
0.0273164,-0.0137889
0.0175291,-0.0132677
0.0230664,-0.0158673
0.0360328,-0.0258517
0.0430909,-0.00269653
0.0304901,-0.00196236
0.0101408,-0.000732693
-0.00490173,0.010106
-0.00772815,0.010175
-0.00209503,0.00646021
0.0109451,0.0051773
0.0178575,-0.0205545
0.0124171,-0.0406198
0.000101492,-0.0217222
-0.0113625,-0.00631159
-0.0169081,-0.0049353
-0.0159942,0.00295911
-0.0134918,-0.00207455
-0.0124874,-0.00366623
0.00144507,-0.0597089
0.022177,-0.0371613
0.0247713,0.0486593
0.0180047,0.0391946
-6.43e-05,0.00985934
-0.0200058,0.00735999
-0.0312065,0.0176451
-0.0352559,-0.00368001
-0.0507171,-0.0411217
-0.056001,-0.0296245
-0.0336267,0.00619734
0.00116482,0.0253507
0.0375991,0.00782823
0.0615591,0.0174893
0.0636176,0.0195703
0.0424596,0.0221473
0.0137735,0.00550687
0.00672025,-0.00143654
0.0125349,0.00404619
0.017852,0.00109636
0.015444,0.00116233
-0.0237695,-0.00554807
-0.0853496,0.0356695
-0.0895003,0.00547603
-0.052505,-0.0364259
0.0121961,-0.0058943
0.0558561,-0.0225384
0.0789976,-0.0126996
0.0673826,-0.00252142
0.0310056,-0.0136392
0.0013201,0.00384847
-0.0179675,0.0148129
-0.0361922,0.010982
-0.0363773,-0.0163246
-0.036868,0.000548008
-0.037743,0.00532466
-0.0542011,0.00699001
-0.0634476,0.0178899
-0.0402518,0.0231916
0.00995526,0.0142469
0.0538389,-0.00190017
0.0649404,-0.013205
0.0625085,-0.0108688
0.026397,-0.0186301
0.00456783,-0.00904933
-0.00292096,-0.0280721
-0.0191051,-0.00857262
-0.0331328,0.0202129
-0.010454,0.0246433
0.0116774,0.00161025
0.0269436,0.00447888
0.0196762,0.00880624
0.0173266,0.016607
0.0207263,0.0154004
0.0149624,0.0195708
0.000435673,0.0245409
-0.0185887,0.0113876
-0.0070366,0.00174222
0.0194516,-0.0296009
0.00901704,-0.0940965
-0.00671857,-0.0284839
-0.012473,0.0271672
-0.0361037,0.00308915
-0.0601336,0.0138592
-0.0586987,0.0273609
-0.0122075,0.021809
0.040499,0.00249795
0.0498895,-0.0119732
0.0253702,-0.00703572
0.0107458,-0.00260429
0.0107139,0.00661477
0.0189516,0.0209304
0.0147944,0.028617
0.00439634,0.0168951
0.00727221,0.0103118
0.012303,-0.000333313
0.0136276,-0.0190686
0.00268921,-0.040108
-0.0121192,-0.0284779
-0.0414996,-0.0173589
-0.0552513,-0.00768223
-0.0360112,0.011221
-0.0141979,0.0143852
-0.00417749,-0.00409448
0.0171247,-0.0153913
0.0302659,-0.0117347
0.0234878,0.00145766
-0.00998445,0.0238307
-0.0376368,0.00742437
-0.0380569,0.00793327
-0.0197207,0.0208667
0.000400773,0.00407169
0.0289856,-0.0219653
0.0569646,-0.0250785
0.0448791,-0.017974
0.022669,-0.0128875
0.0103303,-0.0110583
-0.00603834,-0.00425666
-0.0197901,0.00908533
-0.0328864,0.00872599
-0.0368274,-0.00604282
-0.0140049,-0.00512272
0.0139719,0.0061708
0.0365085,0.011215
0.0435692,0.0184694
0.0227672,0.0265076
0.00907877,0.00866404
0.0143074,-4.91e-05
0.00873681,-0.00922633
0.0047292,-0.033042
0.0110204,-0.028284
-0.000298627,-0.0107945
-0.0260472,-0.00710596
-0.0309083,0.000341509
-0.0414626,0.0092774
-0.0755312,0.0181037
-0.0892065,0.00221853
-0.126195,-0.0413732
-0.102603,-0.0537464
-0.0356984,0.0116857
0.0290643,0.0538438
0.0642022,0.0416912
0.0493445,0.0243255
0.0259332,0.0369073
0.00216014,0.0662135
-0.0104351,2.96e-05
0.0482519,-0.0442311
0.114987,-0.0538041
0.137732,-0.0420195
0.103723,-0.0124714
0.066433,-0.00122393
0.0353662,0.0129615
0.00301086,0.0165353
-0.0507677,0.00156881
-0.0723751,0.00464157
-0.0237851,0.0163868
0.019323,-0.00254037
0.0380974,0.00673836
0.0167252,0.0164531
-0.0176482,0.0156747
-0.0253333,0.00754613
-0.0212323,0.000723927
-0.0228604,-0.0181715
-0.0204002,-0.0279206
-0.01037,-0.00540481
0.00787355,0.0119132
0.0158827,0.00505999
0.0057426,0.00286407
-0.00731913,0.00104514
-0.0153974,-0.0163505
-0.0186926,-0.0240393
-0.0104083,-0.0147778
-0.00359391,-0.0176747
-0.0155034,0.00211185
-0.0373244,0.0364691
-0.0713525,0.0127541
-0.0734369,0.00134113
-0.0402364,0.0292749
-0.00663327,0.0247862
0.016327,-0.00129713
0.0322306,-0.0194774
0.0318794,-0.0221029
0.0306402,-0.0169372
0.0287086,-0.0117123
0.0232144,0.00219413
0.0207606,0.0132376
0.0203916,0.00500294
0.0216175,-0.0111624
0.0250502,-0.00400557
0.0212909,0.0192274
0.0115529,0.0522241
0.00370395,0.0879376
0.00182226,0.064248
-0.0123165,-0.0498773
-0.026895,-0.122592
-0.0177316,-0.080912
-0.0349474,-0.0257128
-0.0653684,0.00552872
-0.0511403,0.0280528
-0.0143488,0.0129513
0.0197352,-0.00205178
0.0377512,0.0149911
0.0455718,0.0251332
0.0371939,-0.00721031
0.0217412,-0.0264583
0.00984863,-0.0163057
0.00339113,-0.00497268
0.00140593,0.0173727
-0.00239492,0.0131822
-0.00639079,0.0033224
-0.00353357,0.0119792
0.00508615,0.0112235
0.00226626,-0.00789388
-0.00247651,-0.0305778
0.00392614,-0.0109609
0.00932153,0.00815296
-0.00654378,0.0143176
-0.0263883,0.00953617
-0.0264611,0.00969455
-0.0133326,0.00354916
-0.0129323,-0.0135336
-0.0314293,-0.0157421
-0.0549343,-0.00287973
-0.0305486,-0.010429
0.0219183,-0.00311849
0.0429839,0.00950295
0.0280519,0.0120049
0.0252389,-0.000980013
0.0216226,-0.0502899
-0.000193136,-0.0315179
-0.0134141,0.00867209
0.00561402,0.0075682
0.0254662,-0.000166611
0.0204791,0.00537088
0.00551293,0.0439368
-0.00268459,0.0454173
-0.0037442,0.018806
-0.0044711,-0.0088982
-0.00353305,-0.0061452
0.00422598,-0.00479977
0.0033203,-0.00815191
-0.0114455,-0.00530621
-0.0206262,0.00980787
-0.0109766,0.0177651
0.0135579,0.0205733
0.0373838,0.00588579
0.0338689,-0.0239204
0.0124958,-0.0334887
-0.013216,-0.00661481
-0.0194766,0.0117079
-0.0255733,-0.00336287
-0.0188062,0.0137503
-0.00380928,0.0194599
0.0104753,0.0138362
0.0170447,0.00854985
0.0185175,0.0144065
0.0170093,-0.00862073
0.00912474,-0.047424
0.00265987,-0.0151941
-0.015073,-0.0103455
-0.0317883,-0.0248576
-0.0247315,0.00692726
-0.012086,0.0149983
-0.00735764,0.00597348
-0.0127915,-0.019638
-0.00312336,-0.00144414
0.0148283,0.000281772
0.0204821,0.0169458
0.00179278,0.0114249
-0.00769112,0.0159548
0.0170039,-0.0111818
0.0283394,-0.00980351
0.0240674,0.00740965
0.0166627,-0.00938755
0.0179494,0.00614139
0.00911538,0.0407361
-0.0514976,0.0367049
-0.133819,-0.0045374
-0.129611,-0.0569844
-0.0733743,-0.100105
0.0228412,-0.0492121
0.0998389,0.0148452
0.121493,0.0203295
0.0818721,0.0334468
-0.0016613,0.0419979
-0.0525843,0.0200527
-0.0389568,0.00228324
-0.010819,-0.0177069
-0.00526724,-0.0113211
-0.000248737,-0.00560499
-0.00365241,-0.0247827
-0.000843361,-0.00897496
0.0233347,0.0149961
0.0901657,0.0149294
0.113847,0.00782283
0.0675,-0.00940198
-0.00570115,-0.0280835
-0.0654973,-0.0143858
-0.111981,-0.000661529
-0.113922,-0.00428808
-0.0580344,0.0265466
0.0042725,0.0386804
0.0321144,0.0255089
0.0407585,0.0202093
0.0315581,-0.00740789
0.00873296,0.000933014
0.0114527,0.0141924
0.0305198,0.0176176
0.0258735,0.0241447
0.00387953,0.0271934
-0.00706522,0.0132222
0.00167245,-0.00669355
0.0056872,-0.0162511
-0.00193342,-0.0199227
-0.00114226,-0.0209663
-0.03046,-0.00613976
-0.018791,0.0262071
-0.00437835,0.0181371
0.00352733,0.0164473
0.015258,0.00754845
0.0216607,-0.00829849
0.0163375,-0.0295677
-0.0224735,-0.0338136
-0.0619355,-0.0292809
-0.0585784,-0.0219288
-0.0217453,0.0247557
0.038937,0.00731877
0.0821768,-0.00837963
0.0688298,-0.00468706
0.00992761,-0.00262071
-0.0413559,0.00643869
-0.0503079,0.014616
-0.0350101,0.0203128
-0.0225635,-0.0056101
-0.0237483,-0.0573547
-0.000748236,-0.0705173
0.0396333,-0.0481127
0.0514903,0.018823
0.0469323,0.0101031
0.0437302,0.017648
0.0314383,0.0281111
0.0143661,0.0135835
-0.0117615,0.0127383
-0.0340532,0.0166806
-0.0255785,0.0397478
-0.0248012,0.0159652
-0.036726,-0.0275089
-0.0988415,-0.0168388
-0.11561,-0.00743746
-0.0392498,0.00839083
0.0380808,0.00286217
0.07487,0.0320301
0.0899095,0.0763959
0.0793483,0.0475489
0.0346941,-0.00329245
-0.0186903,-0.0754031
-0.0518967,-0.0851569
-0.133333,-0.0156951
-0.168237,-0.00445073
-0.147721,-0.0191654
-0.0518161,0.00787958
0.0602422,-0.00522801
0.161641,-0.0115784
0.193238,-0.0082535
0.140586,-0.0253515
0.0479217,-0.0151168
-0.0176177,-0.00215393
-0.0209137,0.0290289
0.0560827,0.064557
0.101904,0.0427513
0.0776998,-0.0344825
-0.00121542,-0.0784774
-0.0511101,-0.0458807
-0.0545254,-0.00493284
-0.0458164,0.0398468
-0.0492398,0.0412968
-0.0310453,0.0236602
0.0254671,0.0248858
0.0292741,0.039164
0.0122031,0.010448
-0.0148581,-0.00594335
-0.0151521,0.00751274
0.0197221,-0.0111301
-0.0243993,-0.0394667
-0.0777386,0.0231333
-0.0335629,-0.00563672
0.0601101,-0.0264615
0.0836227,0.03123
0.0758602,0.00680081
0.0292973,-0.0169699
-0.0198596,-0.0449707
-0.0883448,0.0476292
-0.178846,0.0598624
-0.255642,0.0353458
-0.289347,0.018418
-0.276539,-0.0318195
-0.13331,-0.066049
0.0980259,-0.065359
0.309581,-0.0172497
0.375966,0.0467847
0.280584,0.0365393
0.022023,0.0184745
-0.158567,-0.00442465
-0.151239,-0.0327595
-0.0824862,-0.0399275
0.0456788,-0.0109064
0.196291,-0.0079538
0.295884,-0.0205508
0.259537,0.00617312
0.116112,0.0235545
0.0215816,0.0261096
-0.0418889,0.00890367
-0.0858435,0.0179434
-0.121084,-0.0176369
-0.120298,-0.0169447
-0.0747991,0.0207063
-0.0200542,0.026961
-0.00127896,0.0345776
8.94e-05,0.022036
-0.0298956,0.00178847
-0.0479128,-0.0290553
-0.0322336,-0.0171047
0.000431707,0.0199592
-0.0264103,-0.00473594
-0.0559295,-0.0422201
-0.0664808,0.0218026
-0.0906954,0.0015035
-0.0502146,-0.00991195
0.0520769,-0.00739763
0.114982,-0.0628964
0.146365,0.00597533
0.0855787,0.00452415
0.0036635,0.0207411
-0.0361371,-0.00742966
-0.0359001,-0.0678204
-0.0288543,-0.0783874
-0.0360957,0.0302762
-0.0116185,0.103779
0.0148101,0.0802136
-0.0314069,0.0243097
-0.134684,0.0157689
-0.221796,0.00673246
-0.172342,-0.00877885
-0.0191974,-0.00115121
0.147977,0.0084561
0.176238,0.00714719
0.107225,-0.0226158
0.0422152,-0.0344031
0.0190364,-0.0169635
0.004218,-0.0175303
0.0402016,-0.02749
-0.00611815,-0.00839416
-0.101422,0.0173474
-0.126454,0.0212432
-0.00392673,0.0104908
0.122922,0.019799
0.174397,-0.0435526
0.204095,-0.0494904
0.132905,0.0467183
-0.275488,0.0534998
-0.426006,0.0212245
-0.289807,0.00632007
-0.00136125,-0.0330748
0.243882,-0.0548766
0.300551,-0.0303488
0.216896,-0.0242357
0.11499,0.0111156
0.0276904,0.0629293
-0.0332738,0.0556972
-0.0398285,-0.0364342
-0.00413767,-0.0524369
0.00894633,-0.0390367
-0.0165476,-0.00208962
-0.0145453,0.0422037
0.0245787,0.0515863
0.0551182,-0.0122788
0.0715971,-0.0219865
0.0580798,-0.0743586
0.00104804,-0.0852593
-0.0619797,-0.0210144
-0.112279,0.0171391
-0.119961,0.0395838
-0.0943838,0.0759317
-0.0714049,0.0353078
-0.0715231,-0.0418063
-0.0254878,0.00451115
0.0383886,0.015152
0.0611437,-0.00275577
0.0633553,0.0112855
0.0354899,0.032385
0.0270602,0.0240532
0.0252572,0.0171689
0.00445393,0.00687058
-0.00440606,-0.0215333
-0.038697,-0.0396968
-0.0839083,-0.0311528
-0.12762,-0.0693345
-0.167392,-0.00413315
-0.111504,0.0500047
0.011439,0.0846087
0.134268,0.103297
0.210113,0.0160168
0.165654,-0.0109048
0.107104,-0.0299151
0.0844225,-0.0732607
0.0280527,-0.0464267
-0.00853933,-0.00995015
0.0070295,0.0403623
-0.00991551,0.0116317
-0.222242,-0.0029989
-0.361599,0.0975363
-0.254859,0.0359108
-0.13304,-0.0293901
-0.126622,-0.0447009
-0.0804509,-0.0387793
-0.0512825,-0.0390518
-0.108994,-0.00918085
-0.00469396,0.017994
0.158924,0.0180956
0.327615,0.0122566
0.43189,-0.0193338
0.338224,-0.0149901
0.160809,0.0196078
0.0575574,0.0207076
0.0496801,-0.0145326
0.0891769,0.0362074
0.0852394,0.0171641
0.0607616,0.0105128
0.0154859,0.00670574
-0.0268829,-0.0299914
-0.0732523,-0.0369961
-0.0870322,-0.0389732
-0.076265,-0.0563226
-0.118548,-0.0219355
-0.172534,0.0204325
-0.163046,0.00770257
-0.106951,0.0045183
-0.0501346,0.012434
-0.0222178,-0.00300115
-0.0139711,0.00554873
-0.0207817,0.0264693
-0.0324665,0.0351727
0.0128819,0.032988
0.100208,0.0347848
0.119346,0.0341059
0.0536941,0.0154181
-0.00511076,-0.00140711
-0.0114297,-0.0328183
-0.0294864,-0.0371414
-0.0411716,-0.0273793
-0.0288639,-0.013614
-0.015536,-0.00593768
-0.0480836,-0.0147938
-0.0532042,-0.0480739
-0.0277898,-0.0505266
-0.0133575,-0.0358025
-0.000256065,0.0035235
0.0209974,0.0386351
0.0570414,0.0877548
0.0682777,0.0570743
0.0539313,-0.00542618
0.0480916,0.00923611
0.0437235,-0.0138201
0.0490149,-0.0214719
0.0577247,-0.0362489
0.020138,-0.0405861
-0.0106571,-0.0124734
-0.0445322,-0.00209047
-0.0546401,0.00534981
-0.0506288,0.0033448
-0.0567342,-0.0149377
-0.0462431,-0.0118923
-0.0148419,0.0303112
0.00887918,0.037812
0.00554582,0.0345332
0.0244643,0.0357411
0.0273822,0.0164583
-0.0125015,-0.0185674
-0.0173171,-0.0359051
-0.0199778,-0.0164402
-0.0674167,-0.0138295
-0.0415656,-0.0349473
0.0492163,-0.0218562
0.0783085,-0.0381861
0.00624835,-0.0217038
-0.0458031,0.0136263
-0.0131243,-0.0367064
0.0143363,-0.028309
0.0399191,0.114817
0.102691,0.0990224
0.129195,0.0812802
0.0592624,0.0529675
0.00307306,-0.00768858
0.0427464,-0.0384615
0.0468781,-0.0294862
-0.0380576,-0.0219376
-0.170933,-0.0327433
-0.160777,-0.0411192
-0.100507,-0.0711583
-0.0294782,-0.0357221
0.00882653,0.0118638
-0.0350368,0.0324246
-0.0520805,0.0280807
-0.0569557,0.0100559
-0.00447305,-0.00555279
0.0344618,0.0062362
-0.0672096,0.0111376
-0.167945,0.00742777
-0.116024,0.015729
0.0730353,0.0218985
0.190125,-0.00172876
0.235184,-0.0228649
0.259674,-0.0331944
0.232775,0.00114928
0.12585,0.0237414
0.0244359,0.020282
-0.0199742,0.00211474
-0.075702,-0.0241091
-0.087652,-0.0110308
-0.0859837,0.0351314
-0.115324,0.0392166
-0.106093,0.00970992
-0.0649371,0.0274726
0.0245196,0.0347693
0.0652805,0.0250029
0.0419962,0.020483
0.0343443,0.00329711
0.0227178,0.00802222
0.0122176,0.00703089
0.0126379,-0.00289252
0.0196069,-0.00793797
0.0137472,-0.00754112
-0.0389039,-0.0314297
-0.110173,-0.053134
-0.121843,-0.0717291
-0.0810449,-0.043572
-0.051494,-0.0184828
-0.0528739,-0.0248398
-0.0163291,0.00162467
0.0289438,-0.00202243
0.0662082,0.0175062
0.0850601,0.0433545
0.0726745,0.0338681
0.0457474,0.0026287
0.0464887,-0.00763886
0.0455163,-0.0185495
0.00841745,-0.0407139
0.0103045,-0.00811481
0.00190822,0.00448312
-0.0433311,-0.0424038
-0.0486637,-0.0968225
-0.0145691,-0.0391188
0.0200936,0.0547017
0.0339349,0.0103199
0.0124469,0.000542705
-0.0410666,0.0180914
-0.0583001,0.020332
-0.0746939,0.018703
-0.0900709,0.024015
-0.0534998,-0.00753847
0.0179154,-0.0197724
0.00946248,0.0380809
-0.0395071,0.00532744
-0.00908352,-0.0190661
-0.0410615,0.0224359
-0.11366,0.0652129
-0.122739,-0.00680349
-0.0376251,-0.0445144
0.0641039,0.0355232
0.101938,0.0375226
0.147518,0.0169886
0.152422,-0.0122175
0.0919324,-0.00585471
-0.00747151,0.00301688
-0.045351,0.00779879
-0.0306121,0.00559751
0.0242017,-0.00572769
0.0519122,-0.0139593
0.0373705,0.00815416
0.0338261,0.0218235
0.0447182,-0.000396132
0.0515898,-0.00174556
0.0488978,0.0102773
0.0340129,-0.00478547
0.0230967,-0.0383454
0.00652201,-0.00745913
0.00128707,0.024191
-0.0258547,-0.0136965
-0.0796596,-0.0237835
-0.101111,-0.0129409
-0.0796965,0.00581872
-0.10841,0.00736006
-0.127879,-0.00746175
-0.104172,0.00530621
-0.0738988,0.010127
-0.0185131,0.00775051
0.0860544,-0.0020838
0.174919,0.0019403
0.182871,-0.000189806
0.106835,0.0115181
-0.052334,0.00629589
-0.156805,-0.0165106
-0.0862089,-0.0172879
0.0207441,-0.0115605
0.0870728,-0.0152826
0.121542,-0.0179105
0.125823,-0.00401472
0.0638153,-0.000291865
0.00218142,0.015263
-0.0206745,0.0386721
-0.00509207,0.0451355
0.0142522,0.0217578
0.00942467,0.0101957
-0.00802485,0.0104437
-0.027826,0.0158905
-0.0427741,0.0135759
-0.0470872,0.0133196
-0.0458283,0.00416109
-0.0529594,-0.0323283
-0.0575681,-0.0653361
-0.0455229,-0.0586874
-0.0207185,-0.0485206
-0.00256848,-0.0420971
0.0266657,-0.0277988
0.0458242,0.00806978
0.0326258,0.0241115
0.0127056,0.0387132
-0.00763872,0.0567941
-0.00473264,0.0404116
0.0142091,0.00303005
0.0241051,0.00943469
0.0190109,0.0288488
0.00918738,0.00119911
-0.00544781,0.00388657
-0.0287049,0.00665837
-0.0418159,-0.0617081
-0.0280314,-0.0926118
-0.0296238,-0.0234263
-0.0551481,0.0285717
-0.0792291,0.0211707
-0.0829963,-0.0123772
-0.0461251,-0.0284169
0.0384905,0.0129171
0.119876,0.0420734
0.148421,0.0369023
0.130243,0.0147794
0.0884191,0.0133938
0.0474343,0.0121456
0.00896527,0.00267358
-0.0414372,0.00165937
-0.101948,0.010149
-0.129384,0.00199355
-0.125968,-0.0110473
-0.0523796,-0.019998
0.0171451,-0.0172261
0.0437034,-0.0230377
0.0428002,-0.0184189
0.000605022,-0.0104811
-0.0764225,0.00679876
-0.0836286,0.00741926
-0.032265,0.00749576
0.0475118,-0.0104333
0.112314,-0.0395467
0.076805,-0.0049877
0.00895283,0.0162965
-0.0407087,-0.00475761
-0.0558794,0.0368171
-0.0227576,0.0345839
0.0635908,0.00604833
0.0971429,-0.0110722
0.0804923,-0.0205458
0.056701,-0.023383
0.0580373,-0.00039791
0.0523275,0.012504
0.0243345,0.019971
-0.00834009,0.0141268
-0.0356022,0.00521272
-0.0504289,0.00297512
-0.0572564,-0.00146172
-0.0373222,-0.0186346
-0.021862,-0.00534005
-0.00108516,-0.00220402
0.024986,0.00729969
0.0133832,0.00855753
0.0121954,0.0102677
0.00775303,9.22e-05
-0.00833267,-0.022819
-0.0108723,-0.0304145
-0.0100521,-0.0173358
-0.0300573,-0.00207515
-0.0785853,0.0105285
-0.0755366,0.00709359
-0.0567436,-0.000900536
-0.0145973,-0.00363431
-0.0135917,0.026867
-0.0278239,0.00135686
-0.045307,-0.0154115
-0.0369082,0.00436754
0.0322881,0.01402
0.114469,0.0240141
0.116935,0.0230898
0.0879513,0.0261898
0.0134191,0.00423862
-0.0479553,-0.0167937
-0.0520378,-0.010709
-0.0174207,-0.0171348
0.00309386,-0.0509905
0.0251949,-0.026377
0.0410558,0.0148399
0.0161937,0.00627541
-0.0307473,0.0238046
-0.0537268,-0.00039149
-0.0190743,0.00321018
0.026172,0.0188421
0.0572921,0.0056336
0.0497354,-0.00474225
0.0236228,0.00261384
0.0037812,0.0263041
-0.0015466,0.0356931
-0.00947844,0.00873368
-0.0245845,-0.0205359
-0.0336747,-0.0140169
-0.0147454,-0.00783295
-0.015969,0.00765851
-0.0262214,0.00372872
0.00362374,-0.0130427
-0.00589316,-0.0202936
-0.01521,0.0106965
0.00455039,0.0154712
0.0206239,0.0095055
0.0387626,-0.000898384
0.0300852,-0.0306481
0.00993931,-0.0202512
0.00191511,-0.0011796
-0.0146103,-0.0321367
-0.00811117,-0.0507956
-0.0263804,-0.0190087
-0.063679,0.0128524
-0.0653907,0.00928101
-0.0312993,-0.0116851
0.0208112,-0.0153282
0.0570008,0.00817371
0.0620213,0.0293205
0.0456097,0.0467119
-0.0104471,0.0225643
-0.137706,-0.00838235
-0.188577,-0.0203201
-0.108459,0.00395542
0.0276159,0.0265712
0.115526,0.0329398
0.15307,0.0359506
0.116716,0.0119864
0.0424973,-0.0274763
0.00805572,-0.0277326
0.0138929,-0.0175869
0.00540547,0.0145728
-0.00147792,0.0244829
0.00276214,0.0242026
-0.0010293,0.0193538
0.0198296,0.00831651
0.0342575,0.00944671
0.0301195,-0.0124867
0.0303816,-0.0257544
0.0151252,-0.021646
-0.00617142,-0.02168
-0.0366347,-0.0299339
-0.0691758,-0.0328375
-0.122825,-0.020107
-0.125886,-0.0110923
-0.0571249,-0.00892623
-0.00224,-0.00562801
0.00683844,-0.011818
0.0376452,-0.0324015
0.055425,-0.0120578
0.0463448,0.0271281
0.041996,0.0157045
0.0424208,0.0205072
0.0378469,-0.00659379
0.0437273,-0.00861622
0.0406576,-0.00984634
0.0148078,-0.00850178
-0.00614118,0.00106471
-0.0166817,0.0018525
-0.0299577,0.00154588
-0.0174869,0.0135145
0.00777186,0.0199663
0.0279307,-0.0100162
0.0108145,-0.00941501
-0.0301781,-0.00500419
-0.037424,-0.00228069
-0.0474727,0.0208908
-0.111353,0.0394572
-0.2032,0.031332
-0.173434,0.00660245
-0.0544875,0.0161851
0.0568877,0.029886
0.0827665,0.00139734
0.0620848,-0.000670627
0.0607813,-0.0064784
0.0878403,-0.00989231
0.0985459,-0.00085707
0.0973634,0.0122709
0.0770989,0.0169496
0.0554604,-0.00691303
0.0529768,-0.0168534
0.00851604,0.00636282
-0.0153848,0.0257496
0.00450167,0.0278025
0.0210223,0.0127452
0.00860299,-0.000833733
-0.00979106,-0.00179411
-0.0180104,-0.00888394
-0.0131676,-0.0228376
-0.00671177,-0.0266608
-0.0198793,-0.0200942
-0.0334793,-0.00960903
-0.0518902,-0.0171488
-0.0653756,-0.0294329
-0.0466503,-0.0068929
-0.0144558,-0.0459806
-0.00696209,-0.0122621
-0.00699956,0.0508411
0.00387671,0.0515427
0.00686216,0.0342608
0.00357331,0.0348426
-0.0110348,0.0272574
0.00121722,0.00548904
0.00465066,-0.00491299
0.00586178,-0.0114897
-0.0388831,-0.0202783
-0.0556895,-0.0215626
-0.0376095,-0.0146148
-0.0111696,-0.0129044
0.0268152,0.000457457
0.0195987,0.00942176
-0.00831421,0.0014156
-0.00100445,-0.00729463
0.0268622,-0.00778662
0.05052,-0.000400709
0.0613808,-0.0075436
0.0328054,-0.0180044
0.000591943,-0.00176309
0.0146451,-0.0109156
0.0370172,-0.0150513
0.0585728,0.0074887
0.0483303,-0.0070055
0.0254634,-0.0159472
0.00561765,-0.00872095
-0.02793,-0.00895297
-0.0424323,-0.00586269
-0.0500808,0.00794957
-0.0403294,0.0160438
-0.0211258,0.0169762
-0.00880947,-0.00371174
-0.00903914,-0.00467425
-0.01216,0.00170716
-0.00134156,0.00266296
0.0184946,0.0127437
-0.00392467,0.0117028
-0.0740035,-0.00228524
-0.0937856,-0.0124249
-0.0580552,-0.0366587
-0.0142688,-0.0123226
0.0224438,0.0118085
0.0396969,0.0166927
0.0419852,0.00939799
0.0203446,0.00878885
0.0261116,0.0170315
0.0402561,-0.0319328
0.0528239,-0.0434494
0.0420517,-0.0467642
-0.00850238,-0.0177949
-0.0197537,0.0120756
0.0217898,0.0251088
0.0579667,0.0279924
0.0544681,0.0277583
0.0479941,0.0103339
0.0132765,0.00498283
-0.0333203,-0.00823778
-0.0415868,-0.0221198
-0.031208,0.00284836
-0.0307875,0.0198602
-0.0258355,0.0275389
-0.0200503,0.0181372
-0.0420177,0.00607873
-0.0709953,0.027391
-0.0697416,0.0281482
-0.0380393,0.00628688
-0.0110854,-0.000721373
-0.00309796,0.00447351
-0.000731591,0.016577
0.00454716,0.0137313
0.0338022,0.00554343
0.0701887,-0.00485484
0.0593545,-0.0127385
0.043802,-0.0209177
0.0302052,-0.0191981
-0.0143094,-0.00694221
-0.043631,-0.000193476
-0.0621132,-0.00906685
-0.0780681,-0.0052085
-0.0481306,-0.00266063
0.0309673,0.00148111
0.0632685,0.00774809
0.026856,-0.00330839
-0.0122739,-0.00776143
-0.014769,-0.0129073
0.0100234,0.00836752
0.0443563,0.0176812
0.0596276,-0.00808261
0.0532064,-0.00257895
0.0409382,-0.00886269
0.0218202,-0.0193089
0.00538585,-0.0141626
-0.00433804,0.00214113
-0.0106485,0.00445506
-0.0143559,0.00423457
-0.00653653,0.00882501
-0.0022568,0.0102016
-0.0152921,-0.00276762
-0.0223729,-0.0120994
0.00133848,0.00227733
0.00947613,-0.000651226
0.0104127,-0.00597875
0.0130417,-0.00415723
0.0161769,0.00279036
0.0101871,0.00126764
-0.0065324,-0.00743576
-0.0198595,-0.0201557
-0.0198017,-0.0182924
-0.0582962,-0.0525093
-0.117087,-0.0209465
-0.13785,-0.0271904
-0.144762,-0.0419382
-0.179601,0.076165
-0.130572,0.0800472
0.0234958,0.0230521
0.164557,0.00859891
0.25081,0.00291875
0.260274,-0.00101212
0.190758,0.0112739
0.12635,0.0165797
0.0515093,0.0135341
-0.0113599,0.0147599
-0.0425602,0.0125965
-0.0273408,0.0058491
-0.0371268,-0.0212495
-0.113615,-0.0396799
-0.11361,-0.00976454
-0.0473561,0.0362454
-0.0129166,0.0140608
-0.00688439,-0.0022169
0.0209487,-0.00704623
0.0432454,-0.016922
0.0264338,-0.0281999
0.00148147,-0.0210953
0.000540786,-0.0311932
0.00794984,-0.00668825
0.00207113,0.0394244
-0.00772461,0.0278644
-0.00596774,0.00894699
-0.00113903,0.0165321
0.0120908,-0.00286988
0.0263,-0.0130051
0.0236907,0.000305129
0.0100918,0.00200192
-0.00554728,0.00175149
-0.0145109,0.00636006
-0.0113455,0.00800765
-0.00910752,-0.00180184
-0.0161212,-0.0150801
-0.031662,-0.00887438
-0.0368245,-0.00572987
-0.0261673,-0.0025568
-0.0151282,0.00122824
-0.0160043,-0.0031794
-0.00918578,-0.00394013
0.00476965,-0.00133763
0.0209661,-0.00349573
0.0172164,0.00319473
-0.000607258,0.0203429
0.00661558,0.0382639
0.0292068,0.0487073
0.0398999,-0.0140842
0.0288482,-0.0600668
-0.0302988,-0.0135225
-0.0828607,-0.00258731
-0.0939163,-0.00758409
-0.0954452,-0.0394703
-0.0582735,-0.052191
0.0550092,0.0164104
0.122967,0.0204058
0.071008,-0.0330785
0.0102898,-0.052771
-0.0701717,0.0156769
-0.145575,0.0257593
-0.123017,0.0266235
-0.0558709,0.0323046
0.00124087,0.0398278
0.0630353,-0.0141794
0.120227,-0.0354826
0.136952,0.011013
0.102574,-0.00386917
0.096821,-0.00065903
0.080322,-0.000417415
0.0300441,0.0134381
-0.00297289,0.0152465
-0.0108906,0.00596118
-0.0255622,0.00439702
-0.0240259,0.00129778
-0.0122373,0.00848343
0.00185805,-0.00538654
0.0173435,-0.00951158
0.0354437,-0.00708068
0.0330293,-0.0056726
0.00678309,0.000317199
-0.01465,0.00639854
-0.027097,0.0145507
-0.0327626,0.0126897
-0.0333692,-0.00137111
-0.0373493,-0.0141069
-0.0468392,-0.00365899
-0.0467889,0.00479638
-0.0315197,0.00939463
-0.0146348,0.0158871
-0.00419064,0.00990634
0.000598924,0.00364302
0.00870416,0.00454537
0.0232636,-0.0037081
0.0346237,-0.00988098
0.0355121,-0.00453374
0.0118798,0.00401496
-0.0336978,0.00458422
-0.0589768,0.00919606
-0.0646372,0.0114825
-0.0678443,-0.00169353
-0.0560117,-0.0092246
-0.0173532,0.014752
0.0238696,-0.00613803
0.0410715,-0.0316696
0.0500359,-0.0107086
0.0287209,-0.0150122
0.0151612,-0.0085191
0.01439,0.00220502
0.0164315,-0.00341633
0.0265869,0.000990572
0.0409358,-0.0188386
0.0516674,-0.0180033
0.0512095,-0.00742471
0.0366344,0.00141041
0.0157703,0.0169295
0.00858209,0.0230349
0.0037856,0.00287188
-0.0139277,-0.000268914
-0.0420933,0.0065909
-0.0591445,0.0153062
-0.0401453,0.0155537
-0.0271365,0.0103329
-0.0219911,0.0104648
-0.00946216,0.00695453
-0.00519923,0.00619187
0.00179033,-0.000765299
0.0154799,-0.0131094
0.0380702,-0.0146327
0.0443966,-0.00785093
0.0308313,-0.00285314
0.00325313,0.00147359
-0.0163934,0.00779496
-0.0187238,0.00625611
-0.0279642,-0.0011133
-0.108156,-0.00975667
-0.159399,-0.00168157
-0.116217,0.00317079
-0.00517466,0.00761787
0.0580903,0.0127567
0.0970356,0.00669343
0.133286,0.000816929
0.111649,0.00245156
0.0627503,-0.000346982
0.0271268,0.00341134
0.015985,-0.00915527
-0.00160791,-0.0110656
0.00557607,0.0122592
0.0109616,-0.0083732
-0.018981,-0.0151644
-0.0755955,-0.0921692
-0.103457,-0.145009
-0.0938666,-0.0802874
-0.0123249,0.0363526
0.017612,0.0766764
0.0125579,0.11561
0.0323679,0.0668041
0.0678495,0.0205168
0.0624244,0.00724172
-0.0371442,-0.00102294
-0.157419,-0.020853
-0.201282,-0.0204368
-0.158968,0.00279808
-0.0377007,0.0114472
0.104295,0.015098
0.220781,0.0201644
0.25302,0.0211753
0.19426,0.0123349
0.0857924,-0.00218063
-0.00131026,-0.0127669
-0.0163528,-0.0133108
-0.0339228,-0.0160179
-0.0411927,-0.0168228
-0.0345551,-0.0141378
-0.0258369,-0.00657254
-0.0277439,0.00574001
-0.0226483,-0.0077141
-0.00695124,-0.0173482
0.010026,-0.00720091
0.0134874,0.00680557
-0.0107509,0.00935762
-0.0323549,0.00859815
-0.0249479,0.0131741
-0.0137194,0.0166185
-0.00646435,0.00574256
0.00105911,-0.0066853
0.0038559,0.00338385
-0.022174,-0.0108781
-0.0371727,-0.0136487
-0.0230121,0.00593968
-0.00099531,0.00899691
0.00139931,-0.00385596
-0.00532019,-0.0160196
-0.0316247,-0.00426212
-0.0523978,0.00464251
-0.0436401,-0.00365701
-0.0160212,0.00448042
0.00530421,0.0186996
-0.000850841,0.0157884
0.0199088,-0.0152828
0.0347538,-0.0133824
0.0276135,0.0206402
0.000627671,0.0273861
-0.0131174,0.0340329
0.0231236,-0.0279238
0.054929,-0.0659993
0.0636709,-0.0279914
0.00969785,-0.024436
-0.0125247,-0.0252204
-0.0230749,-0.0180023
-0.0252728,0.0129668
0.0227624,-0.0178956
0.0385608,-0.00296509
0.00893097,0.0294224
-0.00688682,0.0434881
-0.00572725,0.0294376
0.00465734,0.0179844
-0.00908748,-0.00544686
-0.0279773,-0.0139135
-0.033506,0.00945711
-0.0317353,-0.00269274
-0.0174182,-0.00845422
0.00209887,0.00227108
0.0276997,0.0110251
0.0452646,0.00475445
0.0443313,-0.00114655
0.0234201,-0.00371271
0.0182049,-0.00820555
0.0161502,-0.00724478
0.0118814,-0.00261136
0.0134037,-0.00250861
0.00867077,0.000145888
0.000720144,0.0108973
-0.00381585,0.0153172
-0.00252284,0.00280269
-0.00168879,-0.0174448
-0.00631107,-0.0171523
-0.0102187,-0.0080929
-0.0100432,9.9e-05
-0.0272238,0.0189326
-0.096309,0.0298614
-0.114959,0.0217409
-0.072233,0.00901673
-0.0330917,-0.0096951
0.0188643,-0.010028
0.047676,0.0163865
0.0261727,0.0183595
-0.0298757,0.0207927
-0.0587581,0.0311426
-0.00418313,0.0191069
0.0636506,0.0245794
0.0868286,0.0255633
0.0634117,0.00976928
0.0404206,-0.00335864
0.0274116,-0.0396456
0.0212641,-0.0631609
0.0203472,-0.0363206
0.0181536,-0.0349234
0.0201684,-0.0383474
0.000210322,-0.0201555
-0.00825518,0.00743586
-0.00934861,0.00727696
-0.0210927,-0.00382748
-0.0112369,0.0111837
0.00454068,-0.00918578
-0.0166062,-0.0192935
-0.0531475,-0.00671436
-0.0721303,-0.020632
-0.103471,-0.01267
-0.112401,-0.00298197
-0.068947,0.00103261
0.0143568,0.0162864
0.0701735,0.027783
0.117324,0.029524
0.113632,0.0174181
0.0418343,0.00704595
-0.00122833,0.00476263
0.0276278,0.00397402
0.0825708,0.00351854
0.0692767,0.0227431
0.0149315,0.0154719
-0.0318364,0.00331103
-0.0163045,-0.000753702
0.00177439,0.0292904
0.00846213,0.014643
-0.00555021,-0.0264647
-0.0389211,-0.0287367
-0.0443767,-0.0339491
-0.0330672,-0.0394544
-0.0185408,-0.0201072
-0.000993363,0.0275799
0.0212241,0.00516971
0.0179608,-0.000784368
-0.00158109,0.0071756
-0.0136722,-0.00476342
-0.00844698,-0.00230069
0.00350216,0.011023
0.0110187,0.0125454
0.00162475,0.00791972
-0.00943664,0.0297379
-0.0224916,0.0216567
-0.0294857,-0.00900128
-0.0179244,-0.0264017
-0.000890999,-0.0185423
-0.00117705,-0.0120531
-0.0124471,-0.0029379
-0.02052,0.00693829
-0.0126911,0.00440858
0.00465922,0.00202435
0.00802795,-0.00180358
0.00780526,-0.0130737
0.0115457,-0.0109891
0.00179509,0.000878879
0.00492753,0.00457247
0.0174281,0.00431645
0.0148304,0.0157335
-0.00271653,0.0206567
-0.00915099,0.00796117
0.00240892,-0.00964894
0.0117711,-0.00879915
0.0124334,-0.000866199
0.0128509,0.00166226
0.00947762,0.00625452
-0.00710875,0.000285282
-0.0365938,-0.0343877
-0.0355701,-0.0478499
-0.00891404,-0.0136149
0.00535158,-0.00706666
0.0168846,-0.0127811
0.00968817,0.00646499
-0.0089224,0.0236741
0.00660973,0.0342742
0.0122995,0.0218583
-0.00355303,-0.0140128
-0.00706054,-0.0127301
0.0223664,0.0233758
0.0315794,0.00629582
0.0204886,-0.0184132
-0.00198944,-0.028054
-0.0559376,-0.0163571
-0.0862898,0.0188182
-0.0983304,0.0131016
-0.0734405,0.00867014
-0.021052,0.00232201
0.0192482,-0.00835666
0.0547906,-0.00387596
0.0865676,-0.0132431
0.0894085,0.000897778
0.0494911,0.0126635
0.0232841,0.0140281
0.000119208,0.0127668
-0.000511627,0.00153865
0.0191723,-0.0091806
0.0348768,-0.00486235
0.027242,-0.00796659
0.0286457,-0.0124795
0.0446191,0.0121607
0.0276368,0.0197756
0.00485959,0.0188631
-0.0096828,0.0137494
-0.0220024,-0.00917413
-0.0385776,-0.027685
-0.0415279,-0.00471032
-0.0248254,0.0179054
-0.0204004,0.0102769
-0.0603318,0.0128556
-0.0672902,0.0340167
-0.0451709,0.0391361
-0.00611233,-0.00117685
0.0345799,-0.0431409
0.0515999,-0.0404536
0.0650891,-0.000706242
0.0234017,0.0137072
-0.0411415,0.0129918
-0.0548795,0.00769095
-0.0293964,0.00470374
0.00189885,-0.00153983
-0.0219283,-0.0169685
-0.0250855,-0.0308925
0.0105517,-0.0137362
0.0171266,-0.00679883
-0.00724549,-0.0149113
-0.00218299,0.00088434
0.0214772,0.0176009
0.0515188,0.0115931
0.0602161,0.00328392
0.0412001,0.0132333
0.0151495,0.0171183
-0.024688,0.0104289
-0.0659386,0.0145897
-0.0526443,0.00813231
0.0031687,-0.0110748
0.0498447,-0.0136781
0.0328543,-0.0171672
0.0219814,-0.0231813
0.0170256,-0.0186342
0.00322526,-0.00510975
-0.00854632,0.00251746
-0.0124927,0.00689227
-0.0138244,0.0134617
-0.0147367,0.0129218
-0.00121922,-0.00879156
-0.00789975,-0.0412862
-0.0136372,0.0032296
-0.00961165,0.0269132
-0.00275146,0.0131772
-0.0153367,0.012985
-0.0369841,0.0180432
-0.0258492,0.00563755
0.0110974,0.00349922
0.0325452,-0.014827
0.0279425,-0.0220971
-0.00291756,-0.00768619
-0.0523224,-0.0372553
-0.0930671,-0.0480188
-0.104475,-0.0112486
-0.0524921,0.0205008
0.0468611,0.0258484
0.0884804,0.00712196
0.0887433,0.00735974
0.0555082,0.0072889
0.0306504,0.0109928
0.00903677,0.0175855
0.00174419,0.0132676
0.0137816,0.00509882
0.0516255,0.00806227
0.0654949,0.00503614
0.0514328,-0.0142645
0.0331208,-0.0179087
0.00460027,-0.00999165
-0.00926416,-0.00305081
-0.00623956,0.0154804
-0.0101034,0.0201982
-0.0702371,0.0168259
-0.131348,0.003241
-0.112198,-0.0101303
-0.0758717,-0.00656106
-0.0374487,-0.00633138
0.0200392,-0.0240117
0.0871365,-0.0137212
0.0894981,0.0132704
0.0152029,0.0297764
-0.0426974,0.0240449
-0.0141667,-0.014022
0.0420857,-0.0283972
0.0610436,-0.00870011
0.0615854,0.00231876
0.0438449,-0.00519073
0.00323896,0.00103391
-0.0325814,0.0154044
-0.0417334,0.0185268
-0.0518796,-0.011653
-0.0378047,-0.0168571
0.00455067,-0.00044723
0.0107957,-0.00480634
-0.00384467,-0.00236054
0.00515024,0.00547874
0.02924,0.018058
0.0274544,0.00389293
-0.0169666,-0.00166172
-0.0437488,-0.000273859
-0.0271755,-0.00634793
-0.00942215,-0.00920703
-0.0202018,0.000131174
-0.0158274,0.00581616
-0.027546,0.00312735
-0.016877,0.000730665
-0.030748,-0.0284632
-0.000358912,-0.0215519
0.0415747,-0.00917557
0.0297851,-0.0176586
0.0276237,0.0208866
0.022832,-6.41e-05
0.0363407,-5.99e-05
0.0418359,0.0182185
0.0328566,0.00308517
0.0029936,-0.00217519
-0.0441474,-0.0258924
-0.060986,-0.0232514
-0.0328417,0.0151852
0.0153981,0.0128647
0.0604176,0.0140263
0.0629476,0.0164281
0.0487912,0.0193522
0.0218467,0.00280022
-0.0149861,-0.01132
-0.0231962,-0.00547902
-0.0223887,-0.00242971
-0.0217693,0.00465954
-0.0335672,0.0162887
-0.0414675,0.0153242
-0.0280762,0.00887768
-0.0215463,0.00736236
-0.0229526,0.00405326
-0.0155107,-0.0016115
0.0138957,0.00305582
0.0427052,0.00457289
0.0544555,-0.00637127
0.0364313,-0.00291964
0.00149725,0.0175822
-0.0129824,0.0219947
0.00182672,0.00335029
0.0186815,-0.0100521
0.0147337,-0.0101273
-0.00271224,-0.0189765
-0.0179882,-0.025186
-0.0528331,-0.00395678
-0.0799079,-0.0229462
-0.0532299,-0.0183889
-0.0108039,0.0161825
0.00970693,-0.0128739
0.0402611,-0.022619
0.05043,-0.0107072
0.0330665,0.00157764
0.0169046,0.0179226
0.0108618,0.0141758
0.00818031,0.0164277
0.00545312,0.00570914
0.010628,-0.00393833
0.0197276,-0.00235539
0.0303805,0.00489692
0.0189338,0.00514058
-0.0233496,0.00715773
-0.0362949,0.00870554
-0.00553955,0.011107
0.00667836,0.00921299
0.0115266,-0.00803213
-0.00100449,-0.0315579
-0.00369647,-0.0360453
-0.0283966,-0.0516418
-0.122171,-0.0284566
-0.152103,-0.00341387
-0.110062,0.0130871
-0.0252622,0.0309422
0.0647566,0.0390883
0.124492,-0.00436869
0.132972,-0.0306364
0.106356,-0.0302303
0.0709915,-4.49e-05
0.0302541,0.0210517
0.012782,0.031672
0.00104812,0.0331896
-0.0203239,0.0257602
-0.0159492,0.0186904
0.0134596,0.0111663
0.0128875,0.0132149
-0.017568,0.0132144
-0.0463527,0.0108211
-0.047776,0.0155243
-0.0383129,0.018882
-0.0357831,0.0152641
-0.0302009,-0.0037013
-0.0428889,-0.0200005
-0.0501338,-0.0196601
-0.031088,-0.0129957
-0.0204736,-0.00630309
-0.0112497,0.00310846
0.00589877,0.00214109
0.0474103,-0.00358696
0.0633092,-0.0067215
0.0585747,-0.0207091
0.0545689,-0.0267045
0.0415657,-0.00753188
0.0390625,0.00858936
0.0295393,-0.00310569
0.023649,-0.00801576
0.00607185,-0.0012558
-0.0191712,0.00451765
-0.0584181,0.00600089
-0.0940394,0.00304439
-0.0890071,-0.0294639
-0.0411638,-0.0481289
0.03062,-0.028186
0.00477721,0.0223735
0.00293416,0.0234039
0.00365885,0.0108119
0.0163043,0.0201571
0.0346923,0.0273852
0.0394423,-0.000802301
0.0398648,0.000966531
0.0360614,0.00326617
0.0147672,-0.0131132
0.0205802,-0.0144387
0.031201,-0.0330519
-0.00526303,-0.0386322
-0.0250418,-0.0192317
-0.013771,-0.0189723
-0.0184365,-0.0198752
-0.0269856,0.0232622
-0.0376127,0.0501345
-0.0137551,0.0345338
0.0141753,-0.000710502
0.0252947,0.0252991
0.00642885,0.0122744
-0.00694163,0.00932512
0.00818105,0.0200759
0.0237844,0.00851551
0.0303478,0.00506617
-0.00701833,0.0075628
-0.0685637,-0.00410564
-0.0823783,-0.0196273
-0.0757164,-0.0220892
-0.0951734,-0.0157895
-0.0523211,-0.00693387
0.044541,0.00474486
0.120288,0.0125152
0.136335,0.0172774
0.0837572,0.0190288
0.00722702,0.0138511
-0.0208815,0.00283771
-0.0193711,-0.002718
-0.0313976,-0.00607643
-0.0424996,4.72e-05
-0.01487,-0.00194243
0.0332943,-0.00298578
0.0487796,-0.00391074
0.0447938,0.0122008
0.0434628,-0.0256971
0.0225187,-0.0486235
-0.00591971,-0.0329439
-0.0191219,0.00425065
-0.090113,-0.00319321
-0.107533,0.0080438
-0.0610859,0.0259478
-0.00240431,0.0193773
0.0252292,0.00672582
0.0388383,-0.00335406
0.0340163,-0.0102579
0.00843392,-0.00598259
-0.00393046,0.00191853
-0.00571332,0.00261008
-0.0177677,0.00958192
-0.0241643,0.0174124
-0.0223692,-0.00908651
0.00426953,-0.0228792
0.0133879,-0.0168494
0.0121688,-0.0115963
0.025076,-0.00637257
0.0183644,0.00764087
0.00595518,0.0248822
0.00593266,0.0214505
0.0161965,0.0253567
0.017965,0.0191776
0.00897289,-0.00855944
0.00471772,-0.0273341
0.000639724,-0.0122638
0.0101764,0.00699229
0.00582312,-0.0120044
-0.00522409,-0.0196035
-0.00497663,-0.0204501
0.0104429,-0.0134415
0.0300941,0.0123192
0.0257153,0.00642912
0.0218135,-0.00996341
0.015607,0.0041304
-0.028923,0.0171833
-0.0619087,0.0132601
-0.051273,-0.00616984
-0.026322,0.0220149
-0.0337445,0.0212678
-0.0266115,-0.0117768
-0.0393484,-0.0234104
-0.0385476,-0.0134437
-0.0355495,0.00492548
-0.0216498,0.0190676
0.0130687,0.0233226
0.0310383,0.0141342
0.056012,-0.0116437
0.0752945,-0.0224231
0.0715283,-0.00855603
0.0222727,-0.00768126
-0.00394354,0.0104973
0.00231395,0.0225166
0.00963691,0.00678708
-0.000904611,0.00513713
-0.0327729,0.0126005
-0.0295864,0.00241193
0.000372207,-0.006276
0.0336891,0.000400551
0.0447705,0.000598268
0.0337027,-0.00046662
0.0231803,0.00659226
-0.0155762,0.0096733
-0.0602883,-0.00146356
-0.0602505,-0.0264735
-0.0317857,-0.00771055
-0.00222744,-0.00381989
0.0129042,-0.0160398
0.0276847,0.00197731
0.0119197,-0.0141244
-0.0186678,-0.0140712
-0.0522515,0.00461785
-0.0621805,0.0143659
-0.0286004,0.00145726
-0.0317863,0.000221489
-0.0411605,0.0102282
0.0166535,0.00872193
0.0844964,0.00759523
0.0891352,0.000214166
0.034618,-0.00679513
0.0194599,-0.0107214
0.0205692,-0.0117054
0.0187602,-0.00847868
0.014833,-0.0111022
-0.000784329,-0.0203495
-0.0197785,-0.01606
-0.0123634,-0.00059666
-0.0044051,0.0290817
-0.0119794,0.0258329
-0.0144468,0.00419507
0.00100629,-0.00314014
0.0145516,0.00562945
0.0119193,0.0121472
0.000710652,0.00777031
-0.00530497,0.0068225
-0.000944478,0.0135595
0.00501283,0.00900616
0.0134512,-0.00813082
0.0164256,-0.0192165
0.00874117,-0.0148518
-0.0030902,-0.00696585
-0.00930761,0.00987294
-0.00969352,0.0145719
-0.0511351,0.0138202
-0.104253,0.0111631
-0.0886263,-0.00433898
-0.021586,-0.0140647
0.0162167,-0.00883389
0.00509478,-0.0351524
-0.0109606,-0.0194751
-0.0150658,0.00879571
-0.00491803,0.0161541
0.045752,0.0348505
0.0689152,0.000581336
0.0710661,-0.0346435
0.0715197,-0.0194502
0.03758,0.00148247
-0.00383843,0.000517103
-0.0083248,0.00753125
0.0163515,0.0195579
0.00684483,0.0161476
-0.025454,-0.00177066
-0.0260596,-0.00391491
-0.00061811,-0.0170603
-0.00703799,-0.0238214
-0.0203204,-0.00744247
-0.0234858,0.010239
-0.0128026,0.0123503
0.009601,0.0135276
0.016599,0.00359874
0.0214571,-0.00955743
0.00977941,-0.0201132
-0.00930604,-0.00577556
-0.00956332,0.000456137
-0.00200144,0.0054049
-0.000264543,0.0162493
0.00687751,0.0142522
-0.00210089,-0.00309319
-0.00608197,-0.00679582
0.0183477,0.00217033
0.0232052,-0.00108484
0.0154888,0.00402353
0.00696572,0.00807807
0.00601585,0.00641136
0.00221098,0.00794716
-0.0102028,0.0132498
-0.0193078,0.0128517
-0.0217145,-0.00241687
-0.0184856,-0.00985695
-0.0235156,-6.95e-05
-0.0133818,0.00375947
0.00335621,-0.00631858
-0.000333854,-0.00808004
-0.0196244,-0.00238758
-0.0128165,-0.0105968
-0.000282332,-0.0186149
0.00306789,-0.0137994
-0.028775,-0.00804567
-0.0562355,0.0274802
-0.0342031,0.0272364
-0.00665766,-0.00724105
0.024096,0.00427468
0.0597021,0.00560184
0.0814982,-0.00825502
0.0391776,-0.0249864
-0.0440513,-0.0235757
-0.0871868,-0.0103056
-0.121274,-0.000565317
-0.0878738,0.0137111
0.0123695,0.0217787
0.113638,0.0158259
0.144062,-0.000208989
0.101957,-0.00825874
0.0498619,-0.0177183
0.032228,-0.0103078
0.0178875,0.0048654
-0.00229141,0.00547708
-0.00542915,0.00588144
-0.00175625,0.00861343
-0.00362027,0.0115598
-0.00785238,0.00103152
-0.0102745,-0.00694168
-0.00768093,0.0035273
0.000471815,0.0148725
-0.00326889,-0.0112933
-0.0244813,-0.0243552
-0.0331813,-0.0146312
-0.00955639,0.00956687
0.0130566,0.00794457
0.00835303,-0.00335405
0.00135547,-0.0163965
0.00405997,-0.0138311
-0.0123747,-0.017864
-0.00906476,-0.0293625
0.0180655,-0.00709005
-0.00897853,0.0486231
-0.0779812,0.0301982
-0.0775697,-0.0320638
-0.0217326,-0.0585395
0.021,-0.00561084
0.0287156,0.0149565
0.0250707,0.0212829
-0.00600374,0.0331976
-0.0677192,0.03379
-0.107751,0.0300003
-0.0814105,0.0227983
-0.00110918,0.0120393
0.0565662,0.00276425
0.097322,0.0145708
0.0951604,0.0184834
0.0521749,0.0139927
-0.00843797,0.00849652
-0.0469298,-0.00303414
-0.0421104,0.000654614
-0.0103953,-0.0135431
0.0338187,-0.0188418
0.067745,-0.0269072
0.0697846,-0.0105545
0.037133,-0.00289662
0.0180471,0.00441467
-0.000938529,0.0208324
-0.0145098,0.015685
-0.0176598,-0.00383353
-0.0122366,-0.0181761
-0.0116605,-0.0147748
-0.0122706,-0.00685847
-0.019641,-0.0053547
-0.026012,-0.00852872
-0.017009,-0.00673347
0.000540723,0.00599168
0.00527384,0.00323846
-0.00630975,-0.0100448
-0.00656329,-0.0125539
-0.0101567,-0.0116833
0.00286368,-0.0300617
-0.00869908,-0.0172042
-0.010235,0.0127837
-0.000328212,0.022237
0.0126502,0.0211674
0.0153146,-0.000516406
-0.00222419,-0.011817
-0.0122163,0.000278355
0.00497069,0.0243882
0.0113103,0.0149406
0.0199657,-0.0116846
0.0241343,-0.0199506
0.0280204,-0.0124866
0.00384631,-0.0197116
-0.0143018,-0.00393018
-0.00769776,5.57e-05
-0.0035931,-0.0124096
0.00411564,0.00357505
-0.00121716,0.0120207
-0.00318029,0.00596602
0.00226118,0.00875503
-0.0110455,0.00900971
-0.0352649,-0.0106717
-0.0420541,-0.0353692
-0.0285305,-0.0170601
-0.00394118,0.00331421
0.0125102,0.0274496
0.0241977,0.0232716
0.0300113,0.0250092
0.0395908,0.0159206
0.0345652,-0.0047271
0.00232084,-0.0055999
-0.0357589,-0.00309232
-0.0665843,-0.00235546
-0.0288357,0.00593629
-0.00683675,0.0010545
-0.0196585,0.00417299
0.00839796,0.00943486
0.0594187,-0.00719582
0.0714314,-0.0131349
0.0603445,-0.0107338
0.0457585,-0.00554731
-0.00854026,0.0165453
-0.147169,0.0118778
-0.155889,-0.00490799
-0.0738568,0.0130783
-0.0353705,0.0256682
0.0168067,0.00344708
0.0732392,-0.00525009
0.103376,-0.0106809
0.10127,-0.0076179
0.0750956,0.00452534
0.0351418,0.00164906
0.0125335,0.00154994
0.00287365,0.0070515
-0.00820117,-0.00433158
-0.0122143,-0.0181709
0.00272415,-0.00951006
0.0201362,0.0013321
-0.00119665,0.0032187
-0.0280762,0.00067855
-0.0340918,0.0047437
-0.0334776,0.00331114
-0.0376123,-0.00679239
-0.0505484,-0.0171258
-0.0460679,-0.0202632
-0.0081892,-0.0178094
0.0222515,-0.00933704
0.028472,0.0158486
0.0357791,0.0183936
0.0306277,-0.00944978
0.00295417,-0.00836809
-0.00765288,-0.0062117
-0.0088296,-0.0073188
-0.0122701,-0.000313312
0.00248626,0.00930696
0.0170202,0.0101275
0.0082318,0.011514
-0.0114077,0.0137017
-0.0322524,0.00994787
-0.0298412,-0.00450553
-0.00755282,-0.0103217
0.022242,-0.00179539
0.016134,-0.00510883
0.000313339,-0.0055578
-0.00616602,-0.00187936
-0.0149812,0.00732038
-0.0442771,-0.00363501
-0.0511449,-0.0287927
-0.0225384,-0.0296128
0.00527882,0.0077443
0.0288915,0.0394395
0.0453751,0.0436036
0.0581228,0.0225543
0.0686037,0.0211932
0.0525722,-0.00256361
0.00323178,-0.0134219
-0.03567,0.0209116
-0.0196587,-0.00965331
0.00224779,-0.031048
0.00368313,-0.0186951
0.00454131,0.00216889
0.00558426,0.0115952
-0.00185952,0.0105534
-0.0282728,0.000991513
-0.0378956,-0.012324
-0.0254753,-0.0504317
-0.0133132,-0.0500814
-0.0133002,-0.0250744
-0.00822395,0.0077284
0.0119459,0.039576
-0.00562168,0.0408176
-0.0401375,0.0396368
-0.0500299,0.0159176
-0.0340004,-0.00459529
-0.0135196,-0.00214502
0.00217067,-0.0016132
0.0227467,0.00327839
0.0394555,0.0154415
0.0656754,0.00500605
0.0764233,-0.00206435
0.059336,-0.00129072
0.0418123,-0.00275938
-0.0169552,-0.00963576
-0.0573048,-0.00276987
-0.0394346,-0.000831952
0.00264401,-0.00593005
0.051708,0.0046278
0.0552711,0.00968687
0.0211347,-0.00674835
-0.0147822,-0.0268373
-0.0412085,-0.0231768
-0.0468925,-0.00632748
-0.00101157,-0.00251818
0.0313986,0.0136649
0.0203354,0.00934343
-0.00147487,0.0066639
-0.0158287,0.0124178
-0.0264397,0.00718545
-0.022641,-0.0121382
-0.0105347,-0.0136803
0.00457015,-0.00344602
-0.00386155,0.00173515
-0.120061,0.00223227
-0.169481,0.0102808
-0.0999832,0.00749467
0.00435612,0.00533258
0.106545,-0.0162224
0.166354,-0.020172
0.156553,-0.00892943
0.0787787,-0.00106199
0.00920069,0.00720215
-0.0169253,0.00582119
-0.0172532,-0.000134427
-0.00931529,0.0120451
-0.0048473,0.00114829
-0.00214101,-0.0130221
-0.00274905,-0.00701145
0.00226916,0.00617467
0.00400604,0.00527392
-0.00235855,-0.000497696
-0.00670775,0.00826836
-0.0145487,0.0109682
-0.014737,-0.0162305
-0.00610928,-0.0275656
0.00123774,0.00136059
-0.00671501,0.00628896
-0.0137127,0.00943495
-0.0227312,0.017078
-0.0293402,0.0118053
-0.0218573,0.00519504
-0.00482813,0.011018
-0.000637349,0.00129331
-0.0128102,-0.0158646
-0.0195376,-0.0201545
-0.00861307,-0.00412497
0.00475631,0.00237505
0.0112284,0.0147432
0.0144988,0.0272585
0.0242949,0.0174945
0.0323319,-0.008015
0.026171,-0.0219588
0.0122581,-0.0325993
-0.000335883,-0.019636
-0.0313598,0.00381725
-0.0567062,0.00450633
-0.0431852,0.0108265
-0.0115988,0.0236036
0.0194544,0.00227404
0.0430286,-0.0104766
0.0427278,-0.0105198
0.0378695,-0.00520073
0.00380233,-0.00208585
-0.0302387,-0.0155808
-0.030366,-0.018921
0.00923594,0.00819397
0.0426358,0.0235704
0.0451576,0.00639281
0.024334,-0.0154111
-0.00138282,-0.0283571
-0.020695,0.00875307
-0.039196,0.0386174
-0.0454614,0.0214567
-0.0449541,0.00823205
-0.0594789,0.012159
-0.0827646,-0.0169981
-0.0698554,-0.022402
-0.0336317,0.00153822
0.0400853,0.0109638
0.0994464,0.0053587
0.108706,0.0102718
0.0951458,0.00867953
0.0426282,0.00279207
0.00295664,-0.00694618
-0.0150156,-0.0181158
-0.0144174,-0.00680315
0.0147279,-0.000962437
0.0246732,-0.000724939
0.00170067,0.00353165
-0.0109364,0.00456803
-0.00790318,0.00381778
0.000579416,0.00676741
0.00614873,-0.00267257
0.00789808,-0.0122906
-0.00209592,-0.00677223
-0.0297723,0.000901438
-0.0427286,0.00432911
-0.0308747,0.00934101
-0.0107906,0.0158718
0.00197871,0.00780527
0.00614249,-0.00690519
0.00744941,-0.00450018
0.0104892,0.00182804
0.00916735,-0.0047941
0.0116606,-0.00868727
0.010457,0.00371258
-0.0047434,-0.00108176
-0.0211143,-0.0226279
-0.0207915,-0.0130166
-0.0106979,0.0076293
-0.00568008,0.000511717
-0.00194475,-0.00565078
-0.0086091,-0.00267339
-0.0228014,-0.00117926
-0.0243703,-0.000486217
-0.0124361,0.0113552
0.00780088,0.0118468
0.0127607,-0.0088679
0.00431688,-0.00608051
0.00292117,-0.00478328
0.0088789,-0.0171714
0.00353877,-0.00305695
-0.0034387,0.0202814
0.0137219,-0.00377867
0.0071077,-0.00479251
-0.0424832,0.00485038
-0.0310123,-0.00432633
0.0110407,-0.0144268
0.032925,-0.0282042
0.0511937,-0.018869
0.0711108,-0.00749089
0.0559478,0.00143394
0.0204004,0.0118942
0.00357685,-0.00112769
0.00287403,-0.0141452
-0.00181351,-0.00118824
-0.00838209,0.00979311
-0.0123189,0.0171975
-0.013911,0.0285924
-0.0161584,0.0313794
-0.0214828,0.0264082
-0.0183383,0.0242696
-0.00977366,0.00981318
-0.00634735,-0.00175036
-0.00984419,0.00698378
-0.00899125,0.0138292
-0.00717919,0.00664021
-0.00826854,0.00849522
-0.0196949,0.0152066
-0.0253009,0.0157669
-0.0206738,-0.00623745
-0.0149365,-0.0173817
-0.0101066,-0.0127061
-0.000534699,-0.0112654
0.00570546,-0.00387666
-2.53e-05,0.00557519
0.00735239,0.0062635
0.0278333,0.00712102
0.0397808,0.00093412
0.0351304,-0.0151688
0.0333355,-0.0200561
0.00256324,-0.0118189
-0.0392307,-0.00478379
-0.0321523,-0.00507197
-0.0146687,-0.00361329
0.0033037,0.00215481
0.0151906,-3.34e-05
0.026261,-0.00998955
0.0287359,-0.00631482
0.00886117,-0.000231253
-0.00549414,0.000779116
-0.0192976,-0.000204346
-0.0296705,0.00233881
-0.0520977,-0.000577476
-0.0887102,0.00887495
-0.0875856,0.00141494
-0.0463122,-0.0256653
0.0106927,-0.0355702
0.0537351,-0.00767595
0.0813814,0.00143792
0.0984379,-0.00585423
0.0698772,0.0108202
0.0398639,0.0157078
0.0220242,0.00335531
-0.00191314,-0.0068189
-0.0145918,-0.00504123
-0.0167977,0.00367022
-0.0425742,-0.00230205
-0.0608276,0.00453583
-0.0187075,0.00469753
0.0395896,0.0131676
0.055626,0.0022747
0.0349061,-0.0232785
0.0323845,-0.0132566
0.0253455,-0.00316208
-0.00598176,-0.0149988
-0.022919,0.001528
-0.0244106,0.0247537
-0.0221047,0.0246409
-0.0171035,0.0116823
-0.0151161,-0.00321426
-0.0254834,-0.0144964
-0.0162889,-0.00353575
-0.00224948,-0.00576203
-0.000138095,0.00382791
-0.00286929,0.00984496
-0.0150557,0.00292448
-0.0287243,-0.00481148
-0.0195005,-0.0249561
0.00739452,-0.0312495
0.0234219,0.00602518
0.0231879,0.0198923
0.033001,0.00118474
0.0371093,0.00200566
0.0152334,0.0193519
-0.0135013,0.0150618
-0.016996,0.00765695
-0.00161257,0.00170322
0.00742519,0.00182844
0.00487684,0.00921187
-0.00634229,0.0077212
-0.0114177,0.00634113
-0.00894597,0.00609141
-0.009766,0.00309551
0.00281662,0.0049806
0.0261837,-0.0072891
0.0231972,-0.0212418
0.00415607,-0.018468
-0.0161806,-0.00406179
-0.0199884,0.00320261
-0.0131474,0.00571214
-0.0086755,0.0103997
-0.00430711,0.0103423
-0.00462202,-0.00238146
-0.00114549,-0.00831673
-0.0073256,-0.00189556
-0.0630731,-0.00926918
-0.0827002,-0.000903098
-0.0510815,0.0172555
0.00120094,0.0224471
0.0653039,0.017191
0.0970026,-0.00607702
0.0779474,-0.0212467
0.0403524,-0.0146015
-0.0028973,-0.0178535
-0.0239625,-0.00714437
-0.0266878,0.00135977
-0.0125963,0.0124089
0.00579237,0.0231597
0.0110208,0.0208782
0.0134198,-0.0124481
0.0158516,-0.020125
0.0141701,-0.0105799
0.0036593,-0.00836971
-0.00740745,-0.00293533
-0.019747,0.00595447
-0.0193667,0.00505166
-0.0161875,-0.000378726
-0.00892942,0.00408822
0.000340907,-0.00400672
0.00140676,-0.00569759
0.00108642,-0.00503898
0.00194108,0.016564
-0.000526465,0.0224328
-0.0033402,-0.00716134
0.00236839,-0.00439199
0.00476134,-0.00470462
0.00486563,-0.0163068
0.00441994,-0.00263316
0.00385617,-0.000912884
-0.00294283,0.00429641
-0.0124505,0.00909012
-0.0102979,0.00988877
-0.00442728,0.00334585
-0.0101173,0.00341877
0.00165725,0.00284819
0.0146921,-0.00790464
0.00563744,-0.0149565
0.00979967,-0.00623004
0.0448867,0.00106431
0.0612464,-0.00205769
0.0365549,-0.00608627
0.00782604,-0.0211114
-0.0214565,-0.000431793
-0.0522353,0.0101717
-0.0625915,-0.000453663
-0.0494846,-0.00400432
-0.0355716,-0.00256262
-0.0280048,0.00598199
-0.029035,0.00240181
-0.0237313,0.0114725
-0.00800042,0.0139519
