Comp Ch 3,Comp Ch 4
0.0151825,0.00658223
-0.0399487,0.00424528
-0.0557375,0.00419509
-0.0459803,0.00927246
-0.0281321,0.000712907
-0.0143506,-0.010252
-0.000267473,-0.0105499
0.0116849,-0.00995426
-0.000259603,-0.00316425
-0.012265,0.00896317
-0.0122409,0.0159922
-0.0189963,0.0113706
-0.0255416,0.00634464
-0.0284598,0.0166461
-0.0540608,-0.00471438
-0.100095,-0.0277607
-0.0919334,-0.00589277
-0.0142722,-0.000867155
0.0919538,-0.0128
0.16016,-0.00121197
0.195862,0.0134556
0.171781,0.00287846
0.0889345,0.0053693
-0.00597502,-0.00518496
-0.0855432,-0.0091154
-0.100464,-0.00178905
-0.0514308,0.00701134
-0.0346045,0.00932371
-0.0179116,0.00430198
-0.0056624,0.00134988
-0.00213579,-0.0119093
0.00346884,-0.0206949
0.00221229,-0.00120639
-0.00292467,0.0125702
-0.00316456,0.0189537
-0.00258249,0.00278929
-0.00608569,-0.00221016
-0.0164354,0.0279637
-0.0133376,0.0328483
0.0137429,0.00978609
0.0276138,0.0202066
0.0183641,-0.0563841
0.0033789,-0.0930673
0.00432623,-0.0442065
0.00681477,-0.0167103
0.00762252,-0.0067893
0.0126115,0.0069634
0.00924433,0.00470711
-0.0217722,-0.0023204
-0.0485461,0.00782436
-0.0526405,0.0142563
-0.0341288,0.0238067
-0.01713,0.0418909
-0.0133337,0.0443829
0.00390866,0.0220759
0.0318079,0.00294161
0.0283377,0.0103628
0.00404542,0.00945913
-0.00906144,0.00254995
-0.0161469,0.0029814
-0.00998048,0.0267181
0.00847487,0.0252541
0.0160408,0.0120943
0.00948128,-0.000860238
0.00397152,-0.0340565
0.00555991,-0.0278536
-0.0075177,0.00496145
-0.0210276,0.023098
-0.02556,0.0272657
-0.0176225,0.0127556
-0.00205281,0.00693016
0.00208262,-0.00780604
-0.00201565,-0.0418513
-0.0239591,-0.0834948
-0.0304234,-0.0380389
-0.0253842,-0.0113841
0.029718,-0.0259941
0.0617362,-0.00439716
0.06315,0.0116273
0.0691475,0.0189018
0.0732374,0.00216984
0.0548584,-0.00180523
0.0269667,0.0061406
-0.0140678,0.00536898
-0.0820286,0.00416047
-0.119965,0.0025937
-0.0913047,0.0108602
-0.0285297,0.000964363
0.0348007,-0.0155673
0.0875843,-0.0127514
0.100511,-0.020008
0.0601543,-0.0131881
0.00869537,-0.0180498
-0.00283901,0.0121888
-0.0118306,0.0176497
-0.0557421,0.00960797
-0.156055,-0.000501764
-0.208449,-0.000543368
-0.185494,0.0524813
-0.0450855,0.0384769
0.119075,-0.0418066
0.22702,-0.0325139
0.195098,0.0116216
0.073261,0.0457216
-0.00920178,0.0234677
-0.124343,-0.0368107
-0.105782,-0.00539389
0.0251538,-0.0315248
0.124057,-0.044336
0.135351,-0.00209923
0.0594465,0.0185215
-0.00866089,0.0147682
-0.0270205,-0.000407432
-0.0435461,0.00747383
-0.0490823,-0.0131946
-0.0137572,-0.011682
-0.0204748,-0.00847771
-0.00472069,0.00755213
0.0280083,0.0318197
0.0260164,0.050967
0.0101261,0.039291
0.00428821,0.00946173
0.0050186,-0.0110536
-0.00993412,-0.0177487
-0.0358935,-0.0250961
-0.0312171,-0.0195977
-0.0212963,-0.016377
-0.0212818,-0.0118386
-0.0099994,0.0276839
0.00329734,0.0164519
0.0098468,-0.00637906
0.0161649,-0.037009
0.0125277,-0.0265352
0.00134478,-0.00495603
-0.0115937,0.00621904
-0.0098495,0.013713
-0.000339976,0.0141905
-0.00472575,0.0142387
-0.00954197,0.00562299
-0.013415,-0.00888927
-0.0183051,-0.0130848
-0.0201826,-0.0216286
-0.0181534,-0.00918917
-0.0178204,-0.00451241
-0.00886809,0.0107915
0.00771709,0.0130892
0.0101043,0.0165173
0.015192,0.0164174
0.0185612,-0.00266391
0.0229208,0.0227773
0.0112219,0.0216697
-0.000629961,0.00196587
0.00632217,0.0232585
0.0133112,0.0380673
0.00482235,0.011745
-0.00169924,-0.0230608
-0.0038365,-0.046607
-0.0129194,-0.0295465
-0.0184606,-0.0194395
-0.0154009,-0.00671858
-0.0262403,0.00669722
-0.0526829,0.00680412
-0.0496461,0.00804853
-0.00685107,-0.00497331
0.0511182,-0.0171683
0.0761489,-0.0109042
0.0538813,0.00438597
0.0412189,-0.0027883
0.0387421,0.00696035
0.0295991,0.0195156
0.0208389,0.0283461
0.00702752,0.0039941
-0.0177651,-0.0237334
-0.0274556,-0.016493
-0.027082,-0.016245
-0.0334682,-0.00418907
-0.0505242,0.0118165
-0.099763,0.0143106
-0.106312,0.0118037
-0.0813532,0.0104238
-0.0252757,-0.000374262
0.0343561,-0.0160993
0.034856,-0.0152773
0.020697,0.000702835
0.0661298,0.00112649
0.086011,-0.00191492
0.0616321,0.028347
0.0122528,-0.00535791
0.00637827,0.0145437
-0.00216691,-0.00316661
-0.0057617,-0.0147049
0.0404131,-0.0108028
0.0788274,-0.00113208
0.0445081,0.00927559
0.0216546,0.0106783
0.00956827,0.00112499
-0.0088139,0.00182106
-0.0314502,-0.011578
-0.0428336,-0.0226096
-0.0527674,-0.0121835
-0.0513248,-0.00172894
-0.0379045,0.0153246
-0.0354354,0.0193086
-0.0163403,0.0248008
0.0250203,0.0186194
0.0463296,-0.015055
0.0396369,-0.0225965
0.0320713,-0.0247713
0.0194032,-0.0302849
0.0174412,-0.000181115
0.0259127,0.0190273
0.00753032,0.000708048
-0.00487369,0.00654823
-0.011173,0.00726004
0.00357812,-0.0139049
0.0250705,-0.0131084
0.00900108,0.0125825
-0.0609117,0.0196925
-0.114631,0.0124182
-0.114502,0.0250255
-0.0627057,0.0216031
0.00747221,-9.79e-06
0.0587471,-0.019481
0.0719956,-0.0291725
0.0287184,-0.0462943
0.0229263,-0.0241981
0.050688,-0.0141118
0.0440567,0.00169838
-0.026247,0.00604593
-0.0704308,0.0153433
-0.0608887,0.00803684
-0.0298233,-0.00245594
0.0209848,-0.0067074
0.0706626,0.00183006
0.0830991,0.0162619
0.0372772,0.019881
0.00304503,0.031172
-0.0167224,0.027199
-0.0314292,-0.0143602
-0.0254039,-0.040107
-0.0140164,-0.0191334
-0.00829449,-0.0117412
-0.0104228,-0.0193874
-0.0119606,0.0148103
-0.001854,0.0243282
0.00701966,0.0104294
-0.017785,0.00466983
-0.0394299,-0.0113505
-0.0404006,-0.0164335
-0.000645287,1.16e-05
0.0551819,0.0228679
0.0648913,0.037832
0.0261375,0.0253374
-0.00387431,0.0238968
-0.0226013,0.0181913
-0.023657,-0.0116055
-0.01718,-0.0190835
-0.00346387,-0.027806
1.13e-05,-0.0396591
-0.00608662,-0.0040479
-0.00281623,0.010857
0.0147863,-0.00289864
0.0264255,0.00156133
0.0275402,0.0064052
0.024402,-0.0190332
0.0194851,-0.022615
0.00955968,0.0136292
0.00322028,0.0286724
-0.0271922,0.0273684
-0.0585171,0.034694
-0.0583139,0.0366318
-0.0242507,0.00611883
0.00180615,-0.0295227
0.00270135,-0.0372313
-0.000489948,-0.0294546
-0.000907841,0.00182787
-0.00117986,0.00100047
-0.00144006,-0.0228069
0.0119683,-0.00359053
0.033893,0.00551929
0.0548518,-0.0104301
0.0385537,-0.0471022
0.0130911,-0.0399655
0.00191222,-0.00633533
-0.00274849,0.0187729
-0.00818554,0.0350686
-0.0115668,0.0340338
0.00621703,0.030053
0.00702528,0.00406788
-0.00844413,-0.0360317
-0.0111478,-0.0278077
-0.0048957,-0.0111125
-0.00608999,-0.00638941
-0.00636829,0.00833568
-0.00981706,0.0207311
-0.0026224,0.00793595
0.0164604,0.00845578
0.0277306,-0.00704805
0.0196516,-0.0188303
-0.00533792,0.00046782
-0.0125534,0.0205394
-0.00773222,0.0216399
-0.00375742,0.0281029
-0.0118383,0.038092
-0.0180428,0.0280745
-0.0698799,-0.00759942
-0.0835203,-0.0313198
-0.0518335,-0.0308319
-0.0111261,-0.0122995
0.0298466,0.00326305
0.066171,0.0298043
0.0745384,0.0197255
0.0443246,-0.0203073
0.0118374,-0.0243109
0.000125259,-0.0212092
-0.018294,-0.0236255
-0.0246977,-0.000732771
-0.0152008,0.00822843
-0.00975377,0.00693079
-0.00916031,-0.00558194
0.00376012,0.0232553
0.0118742,0.026027
-0.00303367,-0.0162909
-0.0312035,-0.0187357
-0.0415509,-0.011208
-0.0133965,-0.00367117
0.0107022,0.00373966
0.0256756,0.00269718
0.0393605,0.000762868
0.0225183,0.00489292
0.0133938,-0.0117914
0.0247752,-0.0244665
0.0384587,-0.0125931
0.0397916,0.0178487
0.0302772,0.0237753
0.0266271,0.0230946
-0.0142252,0.0328956
-0.0521523,0.029166
-0.0510937,-0.00292754
-0.0306507,-0.0418332
-0.00473648,-0.0391785
0.017714,-0.0210668
0.0349373,-0.00209669
0.0245879,0.00279308
0.000793339,0.00698882
-0.00701067,0.00153525
-0.00488851,0.0193598
-0.0136174,0.00179054
-0.0182589,-0.0205248
-0.0151797,-0.00476669
-0.0137362,0.0229228
-0.00107347,0.0354536
0.00770275,0.0195351
0.00168407,0.0296185
-0.00393471,0.00392085
-0.00373862,-0.0289617
-0.00113764,-0.0125461
0.00737578,-0.022462
0.00643417,-0.0229044
-0.0133701,-0.0141459
-0.0236573,-0.00856545
-0.0201886,0.00584555
-0.00574601,0.00549432
0.00937659,0.0190146
0.013033,-0.00288356
0.00753203,-0.0270879
-0.00573362,-0.0108601
-0.0097027,0.000649988
-0.000258228,-0.000532144
0.00479096,0.011878
0.00760495,0.051953
0.00289572,0.0221762
-0.00391413,-0.0124449
0.00510479,-0.0187112
0.0173302,-0.0166959
0.0155095,-0.0101039
-0.0058602,-0.00226157
-0.0211671,0.00671121
-0.0336891,0.00811191
-0.0307793,0.0107088
-0.00599374,-0.00135056
0.000426658,-0.0318405
-0.00190618,-0.0287511
0.0035506,-0.00197032
0.0235969,0.00794048
0.0373417,0.00603268
0.0240469,0.0145157
0.0204247,0.031783
0.027981,0.0032596
0.0185178,-0.0554648
-0.00386338,-0.0469912
-0.00310065,-0.045522
0.0184834,-0.0397159
0.0204553,-0.00354935
0.00604754,0.00389606
-0.008091,0.00202247
-0.00919156,0.0200656
0.0116557,0.0174757
0.0198348,0.00384645
-0.00538088,0.0243394
-0.028595,0.0493567
-0.0350246,0.041633
-0.0388119,0.0497245
-0.0254945,0.062985
-0.0164106,0.0239277
-0.0689784,-0.0125088
-0.104659,0.00608579
-0.0881334,0.00652004
-0.0445074,-0.00866868
0.0152194,0.0118865
0.0724292,0.023899
0.103626,0.0192059
0.0954279,0.0117671
0.0671704,0.00141071
0.0379401,-0.0261962
0.0168832,-0.0384337
0.00953529,-0.0181361
0.00598762,-0.00187013
0.0121557,-0.00192576
0.00409705,0.00377594
-0.0122775,0.00663152
-0.0199082,-0.0100591
7.18e-05,-0.0206609
-0.00889712,-0.0474843
-0.0754652,-0.0586992
-0.081834,-0.0143606
-0.0525566,0.00255863
-0.020155,0.0086893
0.0253084,0.0167941
0.0387629,0.012328
0.0298543,-0.0035435
0.0273847,-0.0242623
0.022107,-0.0197837
0.0115305,0.00894412
0.0151739,0.0129053
0.0168134,0.00913294
0.0126155,0.024072
0.00194971,0.0286985
0.00409229,-0.00248557
-0.00757924,-0.0328606
-0.0327768,-0.0167236
-0.043957,-0.00848338
-0.0282961,-0.012733
-0.00473961,0.00167726
0.0337097,0.0211281
0.0592042,0.0131183
0.0498849,0.00839305
0.0206807,-0.00711366
-0.0030114,-0.0293873
-0.0130108,-0.0218003
-0.0035415,0.00439653
0.00439036,0.0114945
0.00202868,0.0160683
-0.00372795,0.0265755
-0.00686568,0.0191585
-0.00616951,-0.0109399
-0.00204774,-0.0260042
-0.000256314,-0.0308249
0.00436815,-0.0387285
0.0014124,0.0071436
-0.0052098,0.0307402
-0.00878721,0.0176608
-0.0107913,0.0104561
-0.0172507,-0.000925471
-0.0248097,-0.0224899
-0.0123894,-0.0450129
-0.00612175,-0.00843366
-0.0142053,0.0172138
-0.0179599,0.020306
-0.0265784,0.0317224
-0.035134,0.0308873
-0.0355346,0.0112615
-0.00615085,-0.00387486
0.0436415,-0.0142304
0.0976955,-0.004792
0.0694961,0.00231416
0.0175684,0.0170791
0.00749353,0.0169154
-0.0149953,-0.000851463
-0.028174,-0.0205885
-0.0263203,-0.0123724
-0.0292197,-0.010487
-0.0149446,-0.0151991
0.0146777,-0.00103992
0.0167224,0.00849118
0.0087332,0.0109303
-0.000263344,0.0217418
-0.00786768,0.0238904
-0.00090987,0.00245623
0.00915959,-0.00891085
0.0192719,-0.0116718
0.0142637,-0.0139453
0.00515844,-0.0122484
0.000381157,-0.0104052
-0.0105798,0.0175945
-0.00917523,0.0227731
0.00254946,0.0115996
-0.004122,-0.00813318
-0.00584943,-0.0322299
-0.0079679,-0.0230759
-0.00473431,0.000621352
0.000308103,0.00571984
-0.00250211,0.0116757
-0.00688351,0.0229075
-0.00967768,0.0187497
-0.0152997,0.00622528
-0.0283378,-0.0220859
-0.0265536,-0.0120194
-0.0135315,0.00408668
-0.00378184,0.00655052
0.0051622,0.0182949
0.0106243,0.0195462
0.0211979,0.00639012
0.0155313,0.00360714
0.000945729,-0.0216872
0.00535672,-0.0448778
0.00793377,-0.0249852
0.0224392,0.00496715
0.0245745,0.00657359
0.0196861,0.0186167
0.0133923,0.0324504
0.00643969,0.0176942
0.00135066,-0.0127985
0.000840401,-0.0205678
0.00270133,-0.00953399
0.00155638,-0.00284648
-0.00422969,0.01441
-0.0155963,0.0381451
-0.0194154,0.0196028
-0.0159337,0.00109597
-0.0145003,-0.00301052
-0.0100747,-0.0282716
-0.00807906,-0.0284049
-0.00827295,-0.00540879
-0.00397688,0.0021757
-0.00282251,0.00492694
-0.00244002,-0.00574886
0.0150648,-0.0338244
0.0145264,-0.0569647
0.0115557,-0.0403297
0.0244507,-0.018829
0.0320536,-0.00511838
0.0123734,0.0205833
-0.00416084,0.0424556
-0.00657286,0.0549841
-0.0103197,0.0582373
-0.0125387,0.0372224
-0.00711924,0.00938975
-0.00712036,-0.00120872
-0.00994242,0.0116286
-0.009709,-0.00307013
-0.0186786,-0.016963
-0.0200678,-0.0139014
0.00119667,-0.0205498
0.0142158,-0.0561094
0.0206533,-0.0623522
0.0356691,-0.0345339
0.0423517,-0.023965
0.0318808,-0.0024901
-0.00571842,0.0240997
-0.0313286,0.0427021
-0.0920768,0.0458783
-0.1226,0.0429131
-0.111462,0.00982199
-0.0610266,-0.00844971
0.0112776,0.0147097
0.0971321,0.0193886
0.131634,0.00575031
0.103245,0.00123607
0.0627033,-0.00296111
0.0272777,-0.0188185
0.00491165,-0.0528598
-0.00452555,-0.0472364
-0.00268496,-0.0144336
-0.013322,-0.00199219
-0.0019108,0.0117036
0.0111808,0.0317894
-0.0116587,0.0416992
-0.00675024,0.0450702
-0.0116766,0.0268264
-0.0219049,-0.0147444
-0.00790694,-0.018769
0.0102619,0.00164786
-0.0183233,-0.000338395
-0.0473397,0.00213286
-0.0423145,0.00562052
-0.0203529,0.00216393
-0.00441355,-0.0227317
0.0103146,-0.0430449
0.0294718,-0.032406
0.0293352,-0.0162685
0.0136245,-0.000477083
0.00708233,0.019402
0.0179345,0.036556
-0.0119217,0.0372742
-0.0373349,0.0383551
-0.0211105,0.0170961
-0.0134257,-0.0170071
0.0017432,-0.0174311
0.0205635,-0.00123417
0.0312468,0.0102082
0.0295338,0.00351851
0.0168815,-0.00843731
0.00573006,-0.0141266
-0.0027138,-0.0341918
-0.00633023,-0.0534342
-0.000954917,-0.0282264
0.00213772,-0.00830497
0.000175204,0.0105248
-0.00529846,0.0290636
-0.0113968,0.0366788
-0.0112576,0.0298326
-0.00603913,0.0283694
-0.00315345,0.0109727
-0.00617986,-0.0160627
-0.0183405,0.00715152
-0.0274946,0.00826968
-0.0192017,-0.020031
-0.00707597,-0.00947575
-0.00138041,-0.00237142
0.00508474,-0.0206243
0.00573846,-0.0545756
0.0074819,-0.0532571
0.0213312,-0.0118671
0.0258982,0.00221351
0.016808,0.0183669
0.00352245,0.0377424
-0.00711985,0.038917
-0.0128627,0.0373552
-0.0101613,0.0235318
0.00381104,-0.00917394
0.0159246,-0.0163186
0.00754673,-0.00279615
-0.00302905,0.00250354
0.0040943,0.00152197
0.00818698,4.01e-05
-0.000459897,-0.00132726
-0.00654691,-0.0100932
-0.00817552,-0.0248208
-0.00613363,-0.014919
-0.00473926,-0.00393713
-0.00557466,-0.000773173
0.000306983,0.0256338
0.00352457,0.0424072
-0.00370417,0.0261695
-0.00974496,0.0130855
-0.00462611,0.00164842
-0.0034386,-0.0292547
-0.00516204,-0.0363703
0.000930741,-0.014673
0.0153355,0.00197871
0.020399,-0.0066388
0.0108964,0.00119297
-0.0037755,0.00469491
-0.00917201,-0.0201068
-0.0111678,-0.0333412
-0.00813107,-0.015688
0.00851975,-0.00716368
0.0102966,0.000672872
0.0056211,0.0200371
0.00650131,0.0417998
-0.000331529,0.0408644
-0.0139077,0.0218531
-0.0182015,-0.0200705
-0.00114585,-0.02665
0.0149018,-0.0193145
0.00330658,0.00366301
-0.013415,0.00346803
-0.0122874,0.00986092
0.00527787,0.0170045
0.0235144,0.00661424
0.0284876,-0.0110099
0.0172249,-0.0275362
0.00422544,-0.0109197
-0.00436733,0.00405378
-0.00200459,0.0159494
0.00622026,0.0254975
0.00326515,0.0242353
-0.00835561,0.0198362
-0.0582759,0.0106126
-0.078923,-0.0162633
-0.0472594,-0.0269241
0.00952246,-0.013041
0.0561263,-0.00673085
0.0660143,-0.00726707
0.0677231,0.00211501
0.0481017,0.00645785
0.0165593,-0.00689858
-0.0288886,-0.0199823
-0.0951321,-0.0145828
-0.0926397,-0.00370467
-0.038791,0.00255709
0.00482852,0.00969372
0.0313681,0.0291299
0.0522587,0.0282193
0.0361308,0.00829727
-0.00396998,-0.0037067
-0.00718032,-0.0228897
0.00341015,-0.0190255
0.0148473,0.000206694
0.00715631,0.0052631
0.0150862,0.00436775
0.0284895,0.0114679
0.0150297,0.011566
-0.00526572,-0.00646663
-0.0107682,-0.0169997
-0.00764553,-0.00847153
-0.00410476,-0.00294954
-0.0006168,0.00580324
-0.00103011,0.02204
-0.0011013,0.0252529
0.000938479,0.00877682
0.00389965,0.00279872
0.00565776,-0.0105085
-0.000251272,-0.0297827
-0.00617458,-0.0268423
-0.0113335,-0.0319077
-0.00847827,-0.0237131
0.00296058,-0.00194706
0.0029358,0.0108423
-0.00723106,0.00413096
-0.0119231,-0.0185948
-0.00821132,-0.0238737
0.00122303,-0.0225123
0.0108224,0.00133937
0.00993858,0.0208484
0.00355915,0.0220175
0.00577233,0.0231839
0.0117393,0.0123316
0.00940008,0.00314915
0.00305971,-0.0122786
-0.0024479,-0.0176726
-0.0152599,0.00150906
-0.0166889,0.0193227
0.00424076,0.0214806
0.00603728,0.0204065
-0.0112488,0.0261465
-0.0200853,0.024657
-0.0250845,0.00389912
-0.0169995,0.0050569
-0.011416,0.0161434
-0.0119391,0.016506
-0.0101948,0.0256745
-0.0126409,0.0317473
-0.0119003,0.0195629
0.00243006,0.0138914
0.00992876,-0.00532163
0.0101791,-0.0332443
-0.000856466,-0.033057
-0.0118478,-0.0157156
-0.0098393,-0.0382774
0.00523925,-0.0349053
0.0117238,-0.0199369
0.00946723,-0.00497837
0.00605609,-0.0104836
0.00989749,-0.0261452
0.0123437,-0.0122957
0.0131301,0.00413986
0.010142,0.013003
0.00709802,0.0195793
0.00600318,0.0200674
0.00630626,0.0173861
0.0070296,0.0144595
0.00953223,-0.00474146
0.007439,-0.0282855
-0.000133053,-0.0261511
-0.00201748,-0.0137027
0.00266174,-0.0106063
0.00419048,-0.00463456
0.00449705,0.00895707
0.000213991,0.00708209
0.00101138,-0.00968749
-0.00013827,-0.0146264
0.00396322,0.00103668
0.0093455,0.0116726
0.00734773,0.0223863
-0.00205822,0.0283388
-0.00930088,0.0242552
-0.0065795,0.0171746
-0.00395687,0.000898315
-0.00363926,-0.0180379
-0.000424187,-0.0304039
-0.000750119,-0.0247527
-0.00324422,-0.0157587
-0.00151846,-0.0100068
0.00174498,-0.00667303
-0.00322875,0.00607742
-0.004243,0.00157943
-0.00430349,-0.0084243
-0.000385433,-0.0068649
-0.00181154,0.0167102
-0.00481087,0.0162008
-0.00702247,0.0131523
-0.00975962,0.0255806
-0.0122136,0.0216041
-0.00536068,0.0159408
0.0114918,0.00220697
0.0207785,-0.0218244
0.0114839,-0.0299396
0.00684016,-0.0135103
-0.00216479,-0.0029942
-0.00348395,0.000351461
-0.0014673,-0.00809386
-0.00606479,0.00425481
-0.00928271,0.0059702
0.0012507,-0.00841472
0.0118901,0.000651152
0.0125963,0.00544602
0.00671611,0.0126801
0.00300654,0.0223868
-0.00498816,0.0248026
-0.0134716,0.0154006
-0.0108664,0.0108834
-0.000758735,-0.00388137
0.0195728,-0.0273176
0.0128693,-0.0285728
-0.00220401,-0.0182739
-0.00974318,-0.0245994
-0.0270254,-0.0120516
-0.0205559,0.0144293
0.00476323,0.0118698
0.00799281,-0.00227766
-0.0176111,-0.0074818
-0.0354603,0.0034982
-0.0237827,0.0117803
-0.00577464,0.018969
0.016066,0.0294189
0.0360446,0.0275694
0.0472712,0.0181134
0.0366759,0.00589862
0.0135335,-0.0108616
0.00149561,-0.0268201
-0.00269605,-0.027591
-0.00946207,-0.0151871
-0.0144754,-0.00424475
-0.0178588,0.00557253
-0.0272498,0.0119915
-0.0338264,0.00587855
-0.00477098,-0.0101958
0.0158546,-0.0160258
0.0289557,0.00159124
0.0599408,0.0130445
0.0657152,0.0122655
0.0296473,0.0164687
-0.012155,0.0140457
-0.033169,0.00771812
-0.0364979,-0.00880943
-0.0415328,-0.0277434
-0.0794245,-0.0260779
-0.0980705,-0.013355
-0.066925,-0.00718794
-0.0156066,-0.00323823
0.0380886,0.00770145
0.0786365,0.0117082
0.0801693,0.00170673
0.0514598,-0.0107756
0.0234567,-0.000464462
0.00708119,0.00509724
0.00130768,0.0093128
-0.00277301,0.0186853
-0.00226321,0.0208642
0.00330555,0.0128262
0.00394902,0.00555651
0.00231194,-0.0110769
-0.00210529,-0.0263995
-0.0033489,-0.0188003
-0.00183526,-0.00604144
-0.00187131,-0.00494769
-0.00339568,-0.00211285
-0.011914,0.00581082
-0.0179909,0.00425039
-0.0102758,-0.00799998
0.00272757,-0.0137486
0.00249849,-0.0077855
-0.00409062,-0.00518544
-0.00377505,0.00840947
-0.00496103,0.0187872
-0.00363182,0.0181622
0.00175814,0.0127907
0.000801688,0.00283218
-0.000867792,-0.0200437
-0.000913692,-0.0258153
-0.00298916,-0.00793462
-0.00128728,0.00057211
0.00408857,-0.00517109
0.00294578,0.000165516
-0.00112495,0.0183341
-0.00750053,0.01408
0.000404581,-0.0026427
0.00684378,-0.00927438
0.00858368,0.00096067
0.00447008,-1.22e-05
-0.00240367,0.0137535
-0.00261593,0.0325299
0.00492391,0.0392071
0.0134037,0.0199219
0.0148437,-0.0111101
0.0162059,-0.0311019
0.015254,-0.031844
0.0111794,-0.0149954
0.00260856,-0.00796652
-0.0120624,-0.00405013
-0.0242304,0.00649805
-0.0304626,0.0170825
-0.0287503,0.00102168
-0.0124322,-0.0152446
0.00247453,-0.0164104
0.00210853,-0.0125558
-0.00790799,-0.00784021
-0.0121524,0.00659681
-0.00231738,0.0150678
0.0153834,0.0138365
0.0115917,0.00703277
0.00807349,-0.00585768
0.0187629,-0.0157137
0.0152532,-0.0099177
0.00698134,0.00266456
0.00262106,0.00649656
0.00131358,0.0110389
-0.00102987,0.0142881
-0.000910414,0.0179692
0.00620893,0.00235043
0.0139974,-0.0146366
0.0072078,-0.00782778
-0.00106554,-0.00119753
-0.0147972,0.00639086
-0.051547,0.00828615
-0.0634256,0.00901617
-0.0445222,0.00686881
-0.0158505,0.00196243
0.0170235,-0.0119941
0.043232,-0.025432
0.0560121,-0.0220545
0.0398282,-0.00269045
0.00970339,0.00752375
-0.0285033,0.00569749
-0.0420988,0.0167184
-0.0162962,-0.0101417
0.0235575,-0.0371744
0.0390095,0.00423211
0.0299439,0.0144243
0.0202832,0.00867548
0.00963691,0.00877512
0.000478041,0.027625
0.00168709,0.0258873
0.00448613,0.0115124
0.0106886,0.0043704
0.0107958,-0.0125025
0.00236978,-0.0198689
-0.00485968,-0.00470032
-0.00801159,0.000305379
-0.0127066,-0.00478656
-0.0139099,0.00198921
-0.0128883,0.0100536
-0.0043837,0.00483017
-0.00295325,-0.0142923
0.00451718,-0.0117978
-0.0185415,-0.00835906
-0.0744836,-0.00211748
-0.0692717,0.0138771
-0.0400899,0.0186957
0.00203074,-0.00460661
0.0415393,-0.000257517
0.0490451,-0.0271674
0.0150649,-0.0498897
-0.0362341,-0.0379227
-0.0492298,-0.0185329
0.0125043,0.0341866
0.0495136,0.0299838
0.0541159,0.0238397
0.0490343,0.0218337
0.0296102,0.00447289
0.00688359,-0.0116194
0.00380648,0.00484405
-0.000961534,0.00353774
-0.00736283,0.00322143
-0.00492984,0.00456532
-0.0012791,-0.00304608
-0.00264697,0.00455387
-0.00794995,0.00495696
-0.00070156,-0.0104426
0.0090923,-0.0186177
0.00595262,-0.00467876
-0.00930798,0.00691611
-0.0192415,-0.00336213
-0.0269842,-0.00107016
-0.0285618,0.0128481
-0.0159502,0.00412304
-0.00228169,-0.0156406
-0.000938092,-0.0101651
0.00132075,0.000929882
0.0120391,0.0190507
0.0208509,0.0231519
0.0233828,0.0121507
0.0237996,0.00343457
0.0186498,-3.24e-05
0.0133938,-0.00750882
0.00353002,-0.0313931
-0.0102873,-0.0252537
-0.00611019,0.00896146
-0.0146787,0.0147747
-0.0317599,-0.0117519
-0.0227475,0.000837899
0.00117729,0.0203149
0.0148868,0.0480441
0.0220908,0.0288156
0.0251522,0.00093259
0.00426931,-0.0250736
0.000144261,-0.0635772
-0.00441372,-0.0380779
-0.0456908,0.0311519
-0.0683074,0.0197563
-0.047028,0.00299785
-0.0201046,-0.0111769
0.0105436,-0.0215594
0.0471112,-0.0256705
0.0265913,-0.0241953
-0.0163979,-0.00363111
0.00534927,0.0142699
0.0491118,0.0200478
0.0637405,0.0417136
0.0651492,0.0217791
0.0454396,-0.0145392
0.00245757,-0.0164698
-0.0442194,-0.0076565
-0.0685624,0.00216648
-0.114458,0.0157083
-0.124249,0.0202957
-0.0514199,0.0164582
0.0349145,0.00944751
0.0885199,-0.00845151
0.111404,-0.0144178
0.0907034,-0.032558
0.0441263,-0.0199308
0.00930119,0.00469787
-0.0120616,0.0177862
-0.0223255,0.0223715
-0.0281205,0.00756764
-0.0346131,-0.0234259
-0.0423705,-0.023743
-0.0249699,0.00978205
0.00139122,0.0129369
0.0134183,-0.0041315
0.00358358,-0.00481367
-0.0220556,-0.00742298
-0.0317651,-0.00553201
-0.0169154,0.00582518
-0.0145526,-0.0079336
0.0103195,-0.0105242
0.0390688,-0.0124829
0.0252224,-0.0130386
0.0244664,-0.00475654
0.0189121,0.0196958
0.000651943,0.00693278
0.00394839,0.0243012
-0.00181842,0.0282968
0.00470692,0.0163336
0.0267204,-0.00155762
0.0261906,0.000198356
0.00698386,0.0162917
-0.0235617,0.0183416
-0.0302311,0.00866401
-0.0670517,-0.00803553
-0.0529301,-0.0138075
-0.000566497,-0.0139832
0.0491604,0.00313359
0.0696982,0.0315317
0.0442053,-0.0501433
0.00107799,-0.078768
-0.0252099,-0.0410891
-0.0183973,0.0175247
0.0136647,0.00728077
0.0334763,-0.0275125
0.0281406,-0.0362806
0.0449945,-0.0178248
0.0499686,-0.00956626
-0.00358783,-0.0164807
-0.071626,-0.000126356
-0.0947077,0.0573385
-0.0969227,0.0795544
-0.0664102,0.0275788
-0.0215622,0.00247003
-1.93e-05,0.0341402
0.0145386,0.0375994
0.0204066,0.0178085
0.0109794,0.0432481
0.0246415,0.074411
0.0318623,0.0400565
0.00862227,-0.0101721
0.0148978,-0.0660809
-0.00181375,-0.054098
-0.0211517,-0.0363398
-0.0205574,0.00698775
0.0128283,-0.00627852
0.0427292,-0.0485505
0.0344352,0.0506531
0.03014,0.0347652
0.0521966,-0.00300311
0.0267191,0.00500779
-0.00890625,0.00458801
-0.000937093,-0.0250724
0.0662505,-0.0354193
0.0598324,-0.0292127
-0.0904012,-0.00633046
-0.173498,-0.00534815
-0.271688,-0.0218001
-0.255175,-0.0122066
-0.0896387,0.00809874
0.125026,0.00962895
0.258275,-0.0197102
0.289576,-0.0149189
0.207887,0.0140165
0.0911505,0.0443199
-0.0398279,0.0142848
-0.193292,-0.0165762
-0.215491,-0.0174799
-0.135235,0.00136928
-0.0892744,-0.005823
-0.0430743,0.00129224
-0.0282311,0.00812673
-0.0191166,-0.00752915
0.0130041,-0.0276341
0.0167419,-0.0589713
0.102059,-0.0372619
0.219235,0.00711705
0.253767,0.0373533
0.218798,0.023835
0.145201,0.0117008
0.0595575,-0.0412567
-0.0210844,-0.00968062
-0.190352,0.0189401
-0.227338,0.0256298
-0.108175,0.00879825
0.0524902,-0.0156529
0.145328,0.0135085
0.164883,0.0252326
0.108976,0.0325171
-0.0383168,0.00554159
-0.0819373,-0.00113437
-0.000923951,0.0148915
0.016906,0.0529382
-7.08e-05,0.0854719
-0.117949,0.0374968
-0.388538,-0.0680647
-0.416619,-0.0933176
-0.142907,-0.0367891
-0.0148025,-0.0332113
0.0269292,-0.0409018
0.0027853,-0.0560587
-0.0444922,-0.0308114
0.00640154,-0.0302879
0.00266556,-1.68e-05
-0.0715114,-0.00337591
0.0461786,0.0241498
0.104932,0.0369768
0.0561299,0.0236697
0.129716,0.0181813
0.0762642,0.0165464
0.125608,0.0202445
0.253822,0.0338614
0.310412,0.0305005
0.299628,0.0174663
0.207163,-0.0144209
0.197793,-0.00809012
0.236481,0.0534406
0.180694,0.0720746
0.0163342,0.0770034
-0.226409,0.0287769
-0.507703,0.00306321
-0.512799,0.0403947
-0.278391,0.0282572
-0.0851277,-0.0209707
0.00198061,-0.0456709
-0.00847627,-0.0676069
-0.0969594,-0.147732
-0.161926,-0.117685
-0.224057,-0.0513731
-0.272548,-0.0322588
-0.303766,0.0124632
-0.252255,-0.0378221
0.0956827,0.0511969
0.392267,0.0722301
0.249776,-0.0116367
0.00778165,-0.041896
-0.222201,-0.0275193
-0.18536,0.0182717
0.191644,0.0540702
0.560842,0.0524616
0.714543,0.0289321
0.473566,0.00566068
0.175623,-0.0079894
-0.0262975,0.033473
-0.13215,-0.00368718
-0.0758807,0.0367575
0.00707745,0.0655886
-0.0362602,0.0615239
-0.0757491,-0.00106437
-0.0605589,-0.0834616
-0.1003,-0.0841254
-0.13638,-0.0519223
-0.123911,-0.00740061
-0.0513514,0.00645021
0.0162447,0.0276803
-0.0137003,-0.0129584
-0.0479658,-0.014108
-0.0180626,0.034471
0.016475,0.0187143
-0.0696661,-0.00161181
-0.299005,-0.0179437
-0.283119,-0.0688314
-0.0704074,0.00257098
0.154228,0.0403378
0.164507,-0.00948356
-0.0532057,-0.00339064
-0.0919358,-0.0512335
0.0335794,-0.0967977
0.162019,-0.027919
0.151634,0.00932277
0.0645468,0.0417602
-0.0181393,0.0416013
-0.0659484,0.0437565
-0.0425837,0.03922
0.0273004,0.0227712
0.0508028,0.0325655
0.0372149,0.0319978
-0.00147812,0.0298134
-0.0397892,0.0365755
-0.0720398,0.0405539
-0.0564344,0.0302213
-0.0231841,0.0109061
0.0277043,-0.0311032
0.0643068,-0.0222626
0.0499113,-0.0267602
0.0138492,-0.0264594
0.00613685,-0.0402387
0.0238788,-0.0363525
-0.0016262,-0.0235612
-0.0344551,-0.0119099
-0.0224085,0.0054508
0.00895682,0.00726524
0.0227758,-0.000715672
0.0243478,0.0029892
0.0101148,0.0262525
-7.28e-05,0.0234633
0.0221348,0.0154496
0.0508313,0.00600612
0.0641498,-0.0112381
0.0590825,-0.0296132
0.0228047,-0.0375319
-0.00543128,-0.0202045
-0.00234785,-0.00699073
0.00661552,-0.0195994
-0.101289,-0.0329124
-0.171383,-0.0093906
-0.175542,-0.0336007
-0.176334,-0.0128443
-0.0954767,0.0381393
0.0471165,0.0495592
-0.0792724,0.0448016
-0.239482,0.0417181
-0.0607148,0.0123334
0.213209,0.00622885
0.364514,0.0349578
0.336601,0.0581638
0.175253,-0.0382544
0.0213554,-0.0896869
-0.0297188,-0.0485217
-0.0125163,-0.029631
0.0210659,-0.0418024
0.0215355,-0.0299087
-0.023163,-0.0228281
-0.0734482,-0.002358
-0.0720031,0.00912301
0.012941,-0.00388236
0.0734614,0.0166942
0.063562,0.046613
-0.0170136,0.0685271
-0.17529,0.0584203
-0.247825,0.0205908
-0.192744,0.00630434
-0.0379608,0.00782216
0.087878,0.00985984
0.164238,0.00361773
0.18506,0.00612389
0.120483,-0.006363
-0.000203974,-0.0249456
-0.0952995,0.00574872
-0.0631402,0.0230573
-0.0168878,0.00660372
0.0469232,-0.0174021
0.0680737,0.00683156
-0.0717473,0.00673376
-0.383778,-0.01411
-0.29654,-0.0224669
0.0715569,-0.00542907
0.360384,0.00753868
0.339072,-0.00105789
0.181927,-0.0152182
0.0384511,-0.0228158
-0.0839572,-0.0223613
-0.1188,-0.0166551
-0.0873362,-0.0395872
-0.0100896,0.0075961
0.0471945,0.0298627
0.046207,0.0173472
0.00700907,0.000836299
-0.0214486,-0.00686278
-0.0118994,-0.0101144
0.00853804,-0.00961685
0.0162413,0.00368703
-0.0151162,0.0143743
-0.0464273,0.0143814
-0.0480906,0.013102
-0.0267547,0.00775369
0.000393446,-0.0122291
0.00465256,-0.0166351
-0.0263199,0.005571
-0.0471732,-0.00438427
-0.0249638,0.0072273
0.019781,0.0263395
0.0397824,0.0206794
0.0294375,-0.00223232
0.00972203,0.0113924
0.0144003,-0.000282101
0.049151,-0.0243283
0.0340338,-0.0259298
-0.0281034,0.0256126
-0.0317482,0.0475385
0.00273093,0.0310237
-0.0108283,0.0196644
-0.0308408,-0.0186488
-0.0290062,-0.0385155
-0.0659956,-0.0560614
-0.104936,-0.053156
-0.10263,-0.0435103
-0.00880538,-0.0390432
0.088464,-0.0104783
0.116297,0.0337598
0.0624318,0.0266332
-0.000348325,0.00411357
-0.0532071,0.0210192
-0.0770371,0.00730274
-0.0211545,-0.0166639
0.0420212,-0.00241651
0.0988195,-0.00657224
0.109618,-0.00905051
0.0323486,-0.00245862
-0.0447856,-0.0103907
-0.107487,-0.0128855
-0.109724,0.000547821
-0.061447,0.00424674
0.0358915,-0.00629706
0.115035,-0.00230019
0.122699,0.00728136
0.0685114,-0.00521517
0.0105586,-0.0341266
0.00750847,-0.0364953
-0.00503123,-0.0066196
0.00758372,0.00386789
0.0166899,-0.00578826
0.0142304,0.00925898
-0.0121604,0.0337734
-0.0624872,0.0461006
-0.0624731,0.0253346
-0.073422,-0.0147661
-0.1105,0.0290059
-0.0956851,0.0514619
-0.0317861,0.0567168
0.0240532,0.0380464
0.00374727,0.0250602
-0.0153084,0.0316246
-0.0232406,0.00663396
-0.00167864,-0.000887261
0.0844179,0.00562334
0.173643,0.0111489
0.191916,0.021455
0.121504,0.0422309
0.0347064,0.0210373
-0.0118562,0.0198509
-0.0238578,0.0156898
0.0122791,-0.0235889
0.0642644,-0.0721996
0.0603119,-0.0747209
0.00279726,-0.0487871
-0.0420839,-0.0230091
-0.0763536,-0.00796321
-0.0696533,0.00576537
-0.0517006,0.0222408
-0.0426347,0.0105438
-0.0562627,-0.018782
-0.0751448,-0.0093102
-0.0569628,-0.00574129
-0.0310772,-0.00416211
-0.0177824,2.74e-05
-0.0277798,-0.00412111
-0.0257959,-0.0140444
0.00197355,-0.0124966
0.0330547,-0.00794899
0.029928,-0.0132663
0.00895527,0.00216922
-0.0160083,0.0142813
-0.0254347,-0.00681467
-0.0348692,0.00439349
-0.00281671,0.00527262
0.0380924,0.0171925
0.0465532,0.0304452
0.0277002,-0.000170067
0.014532,-0.0238613
0.0173189,-0.0513902
0.0206711,-0.0378377
-0.00117781,-0.0119044
-0.0578928,-0.0253918
-0.107522,-0.0201011
-0.0851077,-0.00929654
0.00414794,-0.000363716
0.103212,0.010857
0.135059,0.0253482
0.077758,0.0236146
0.0169286,0.00823101
3.08e-06,0.012771
-0.0287496,0.0157837
-0.0386808,-0.000303293
-0.0135926,-0.0298654
-0.00321528,-0.0471549
-0.0392767,-0.00512595
-0.100402,0.0178847
-0.0757411,0.0221676
0.00425973,0.0164404
0.0906752,0.00482863
0.124841,0.00749939
0.104237,0.00203805
0.0538843,-0.0108795
0.0177832,0.00584723
-0.00927409,0.0379265
-0.0359671,0.0117333
-0.0275632,-0.00531923
-0.0176848,0.00373557
-0.0180592,0.0122131
-0.0148268,0.00768677
0.00112006,-0.000630023
0.0301803,0.000376013
0.0505667,-0.00702625
-0.0389663,-0.00909911
-0.188399,0.0104375
-0.177308,0.00283453
-0.0941776,-0.0293442
-0.0118356,-0.0553507
0.0577942,-0.0631477
0.111699,-0.00847807
0.0810053,0.0213428
0.0539163,0.0247348
0.00509394,-0.00354052
0.0139976,-0.0600718
0.0532418,-0.00372801
0.0767439,0.0256515
0.0689987,0.00757533
0.0454729,0.00573852
0.0265108,0.00615885
0.0271631,0.00466929
0.0357875,0.0258683
0.0285837,0.0436571
0.0133191,0.0459292
-0.00782151,0.0445272
-0.0502901,0.0198195
-0.0833916,-0.00343177
-0.0789114,0.0155345
-0.118412,0.0169393
-0.160974,-0.00505257
-0.208304,-0.0105203
-0.20988,0.00604306
-0.138278,-0.0103552
0.0103774,-0.0410013
0.164819,-0.0328397
0.236302,0.0183842
0.208562,0.0215995
0.172677,0.0147111
0.117363,0.0294026
0.030127,0.0257978
0.00257577,0.0171726
-0.000781911,0.0153104
-0.00159662,-0.000294703
0.0117364,-0.012721
0.00915646,-0.00777493
-0.0131782,-0.0130892
-0.0416864,-0.0290787
-0.0570955,-0.0201301
-0.0395946,-0.0231794
-0.00189003,-0.0333489
0.00719476,-0.0439904
-0.0170667,-0.0366408
-0.0334956,-0.0114813
-0.0116221,0.0097648
0.00987646,0.0281647
-0.0101724,0.0278384
-0.0254556,0.0158775
-0.0288431,0.0161308
-0.0230986,0.00443095
0.00637572,-0.00103004
0.0337109,0.00265773
0.01825,0.0132128
-0.0102655,0.00391386
-0.00472945,-0.00494594
0.0427876,-0.00544867
0.0551252,-0.00938541
0.03669,-0.0194116
0.0196759,-0.020223
-0.0231108,-0.0136376
-0.0899837,-0.00176224
-0.0983033,0.00653207
-0.0599138,0.013321
-0.00128074,0.0151988
0.0409528,0.0240053
0.0303245,0.0180374
-0.0113411,-0.00433235
-0.0611084,-0.0173294
-0.0869498,-0.0125718
-0.0396418,-0.00312437
-0.0216644,0.000444364
0.0101749,0.00877133
0.0799938,0.012855
0.137537,-0.00849579
0.120382,-0.0297338
0.055383,-0.0203936
-0.00447103,-0.0195072
-0.0516699,-0.000677356
-0.0449703,0.0237799
-0.0331037,0.00858214
-0.0142411,-0.0183818
0.00807566,-0.0141269
0.0231657,0.00131026
0.0387678,0.00143745
0.019741,0.000773247
0.00208171,0.00488638
-0.00167854,-0.0107854
-0.00204388,-0.00942658
0.00802396,0.00488721
0.0139633,-0.00225773
0.00833262,-0.0232503
0.00298038,-0.0196938
-0.00981748,-0.000961126
-0.0133375,0.0175886
-0.00690811,0.0372319
0.000924961,0.0293993
0.0037406,0.029568
-0.0241922,-0.00222764
-0.0671565,-0.012803
-0.118024,-0.00989216
-0.13829,-0.0512434
-0.0238973,-0.0468313
0.0911488,0.0386103
0.0900936,0.0624788
0.0618693,0.0560255
0.0137105,0.00310938
-0.0239074,-0.00597496
-0.0472893,-0.0266924
-0.0474577,-0.0282183
-0.020281,-0.0226465
0.0189989,-0.0180827
0.0762933,-0.00817791
0.0790815,0.0317895
0.0467262,0.03337
0.0331922,0.0262902
0.0209177,0.0200631
0.0284085,-0.00556236
0.038447,-0.0210929
0.0263417,-0.0111456
0.0116165,0.00703756
0.00126975,0.000554585
-0.00199333,-0.00177623
-0.0427491,0.0107971
-0.143281,0.00282972
-0.136405,-0.00835682
-0.0840157,-0.00139701
0.00307875,0.0190686
0.0528656,0.00373314
0.061359,0.0136882
0.0611033,0.0321277
0.0408355,0.0133239
0.00253508,-0.00366647
-0.0541979,-0.0145822
-0.10665,-0.0140082
-0.0680945,-0.0119222
-0.023844,-0.0184005
0.0177163,-0.00924377
0.0698278,-0.00682121
0.113445,-0.00849702
0.100491,-0.00493548
0.0658855,-0.012292
0.0106642,-0.0212179
-0.0156905,-0.0133994
0.00437858,-0.010282
0.0172811,-0.0104409
0.0107367,-0.00494109
-0.0174432,0.0165271
-0.0545256,0.0181469
-0.0700505,0.0131687
-0.0659071,0.00295949
-0.0350772,-0.00991824
0.0173454,-0.000842742
0.0196863,0.0136315
-0.0118608,0.00405724
-0.00811105,-0.00216154
0.0300333,0.00749191
0.0442136,0.0112959
0.0423558,0.00695048
0.0314871,-0.0102411
-0.00457476,-0.0104617
-0.0314067,0.0104964
-0.0282976,-0.00196404
-0.0303973,0.00827183
-0.0322452,0.018448
0.0112833,0.00755676
0.0347306,-0.00565921
0.034752,-0.0289633
0.0209382,-0.0210269
0.0177378,-0.000305601
0.00927135,6.42e-05
-0.00852005,-0.00399232
-0.0174427,0.0046612
-0.0173543,0.00864047
-0.0118506,0.000974302
-0.00802666,-0.0142609
-0.0115983,-0.00638497
-0.016975,0.00305889
-0.00942604,0.00629051
3.29e-05,0.00657393
0.00812209,0.00403183
0.0118136,0.00555142
0.00990884,0.00909034
0.0138866,0.00867885
0.0256725,-0.00451652
0.0227364,-0.016701
0.00396649,-0.00838226
0.00334842,0.0176359
0.0162969,0.0307294
0.0149807,0.0257594
-0.013847,0.00480959
-0.0991008,-0.018574
-0.161983,-0.02569
-0.124847,-0.0226027
-0.0336694,-0.0282563
0.0473492,0.010843
0.135695,0.0347316
0.186853,-0.0090426
0.108455,-0.0233684
-0.00698262,0.0219142
-0.10435,9.78e-05
-0.187766,-0.0408994
-0.101497,-0.00742504
0.0433518,-0.0120722
0.0774154,-0.0302631
0.0254289,0.00483231
-0.0281491,-0.0193454
-0.0463928,-0.00574072
-0.0500643,0.046005
-0.0303717,0.0159425
0.0226076,-0.000711216
0.00828959,-0.00147029
-0.0184532,-0.00299404
0.0334301,0.00105818
0.108559,0.00479201
0.154813,0.00741236
0.146771,0.00701381
0.109538,-0.00581841
0.0658889,-0.00182159
0.0208471,-0.00849111
-0.0217581,-0.0115704
-0.0449651,-0.00906246
-0.0435665,0.00722355
-0.031722,0.0258299
-0.0230279,0.0148581
-0.034818,0.000699893
-0.0448241,0.00157662
-0.0444263,0.020647
-0.0475454,0.0219223
-0.0398365,0.0174355
-0.036603,0.0197046
-0.0329068,0.0115764
-0.0204553,0.014913
-0.00725177,0.0196143
-0.0293111,-0.0108539
-0.0554406,-0.0125081
-0.0339893,0.00271893
0.00112743,0.000792154
0.0324904,-0.0169024
0.0487716,0.00222146
0.0457103,0.0224796
0.0395466,0.00525358
0.0216233,-0.0257584
-0.0273274,-0.0224791
-0.0501273,-0.0161938
0.00300257,-0.0130857
0.0380444,-0.00215921
-0.0002266,0.00503629
-0.00630092,-0.000653174
0.00416157,-0.00731978
0.00693091,-0.0129292
0.00564309,-0.0171343
-0.00302352,-0.0117849
-0.0133941,-0.00493463
-0.00584152,0.00216431
0.0108448,0.00931922
0.0112728,0.010336
0.0124904,0.00667749
0.0326811,-0.0142242
0.0371085,-0.0215823
-0.00296099,-0.00889806
-0.0187951,-0.00524878
-0.000108226,0.0017233
0.0110433,0.00736694
0.0185099,0.00444403
0.0102393,0.000641643
-0.0231793,0.00522352
-0.0430218,-0.00306283
-0.0129115,-0.0131786
0.00975938,0.0005518
0.0107985,0.00863839
0.00433838,0.00931732
-0.0158305,0.0134897
-0.0125202,0.0127044
-0.00348342,0.0142746
0.0175977,0.00690465
0.0333284,-0.00431157
0.0400566,0.0136161
-0.00686514,-0.0133182
-0.0710167,-0.0225332
-0.0805323,-0.00849024
-0.0833892,0.00160011
-0.0575802,0.00249403
0.00576447,-0.00422288
0.0585974,-0.00577353
0.0640885,-0.00135753
0.0489162,0.00124565
0.0396297,0.000210639
0.0155064,-0.00237515
0.00914141,0.00607914
0.0376553,0.00717747
0.0358909,-0.0289198
0.0224871,-0.0345297
0.0162521,-0.00108701
0.0164739,0.013735
0.0202873,-7.12e-05
0.0101988,-0.00348373
-0.00671355,0.00107038
-0.0170071,-0.00479747
-0.0285714,-0.00824255
-0.0373773,0.0141042
-0.109085,0.00280957
-0.153914,0.00764799
-0.0975393,0.021524
0.0169065,0.00758514
0.0940951,-0.00321802
0.103358,0.00335054
0.0770795,0.0158058
0.0407383,0.0102368
0.0270254,-0.0111436
0.0154109,-0.0106838
0.00615808,0.00728914
-0.00313012,0.0253401
-0.0163844,0.0263134
-0.035571,0.021218
-0.0435268,0.0159425
-0.0406366,-0.00909021
-0.0130801,-0.0110982
0.0221887,-0.0119299
0.0338634,-0.00705658
0.0106071,0.00875775
-0.00205691,0.00697503
-0.00511549,0.00253502
-0.0615229,0.00478747
-0.0621293,-0.00281414
-0.0345643,-0.0274692
-0.00507066,-0.0128454
0.0159237,-0.00609265
-0.0315016,-0.0116549
-0.0395825,-0.00985657
-0.0165584,-0.00547308
0.0142177,-0.0142453
0.0522091,-0.000890866
0.0805818,0.00597986
0.0997779,-0.000890768
0.0937523,-0.000654047
0.0294525,0.00720362
-0.0741693,0.00973262
-0.0745193,0.00310729
-0.00294652,0.00665398
0.0389459,-0.0184655
0.0131478,-0.0310865
-0.0202187,-0.00714297
-0.0441268,-3.2e-05
-0.0318742,-0.0071593
0.0164667,-0.00334082
0.0735658,0.0178232
0.0840869,0.0279133
0.0449091,0.0284149
-0.00869983,0.0247971
-0.0362198,0.00867316
-0.0269132,-0.00833927
-0.027317,-0.0113461
-0.0522988,-0.00635117
-0.0316256,-0.00591189
-0.000127667,-0.00317552
0.00861027,0.0161815
0.0203317,0.0145157
0.00893428,-0.0106015
-0.00169488,-0.026905
-0.00318325,-0.0142349
0.00831428,0.00120814
-0.00733723,0.0042184
-0.0245291,0.0126255
-0.013175,0.0227852
0.00389422,0.00130257
-0.00634919,-0.0228353
-0.0207207,-0.0229302
-0.00188302,-0.0145051
0.0167211,0.00134655
0.00383084,0.00185598
0.00506469,0.00406759
0.0209141,-0.0072678
0.0215556,0.0184659
0.0130674,0.0347201
-0.000413987,0.0130488
-0.0162515,-0.000309548
0.000667545,-0.00900576
0.0126759,-0.0085337
0.00165135,-0.00861502
-0.0111289,0.00210176
-0.00754668,-0.00230917
-0.0121503,-0.011862
-0.0323504,-0.0155971
-0.0860771,-0.023524
-0.0899347,-0.0301196
-0.0443059,0.000661612
0.0035434,0.0141355
0.0428935,0.00990836
0.0691533,0.0145366
0.0642478,0.0172393
0.0360647,0.00450109
0.0178972,-0.0185412
0.0128877,-0.0164437
0.0109381,-0.000569622
0.0195973,0.00232827
0.0313948,0.00488505
0.00436902,0.0117367
-0.0207192,0.0078577
-0.0135673,0.00987807
0.00619775,0.00785273
0.0307345,-0.00275468
0.0353585,-0.00644895
0.0199262,0.00327121
-0.00294327,0.00688661
-0.0159228,0.00730489
-0.0147943,0.0134832
-0.00644539,0.0096608
-0.00549306,0.00340933
-0.0205808,-0.00596983
-0.0357502,-0.0103022
-0.0602077,-0.0164896
-0.0982495,-0.0155297
-0.0970285,-0.00377167
-0.0274054,0.0127381
0.0415237,0.0175058
0.0784176,0.00583246
0.0782011,-0.0178071
0.0649574,-0.0111295
0.0271569,0.0229801
-0.00668837,-0.00152019
-0.0178447,-0.0104332
-0.0108087,0.00588142
-0.00791839,-0.00183392
-0.0232693,0.00374893
-0.0211549,0.00179877
-0.0146338,-0.0026291
-0.00624423,0.000325107
-0.00463984,0.00166939
-0.0141225,0.0079625
-0.04702,0.00942904
-0.015291,0.0134433
0.067276,0.0119933
0.0878378,0.0026852
0.0576821,-0.00989899
0.0257289,-0.0160174
0.00452271,-0.00798535
0.00324949,-0.00447599
0.0105416,-0.00226415
0.0110102,0.00503468
0.0109078,0.0107671
0.0044099,-0.00199891
-0.00509713,-0.0246251
-0.0184065,-0.0114158
-0.00498179,0.00827106
0.00529198,-0.00668285
-0.00259842,-0.00329123
-0.0402474,0.00380169
-0.0383058,0.00199205
-0.0277113,0.00601489
-0.0356723,-0.000129895
-0.0181561,-0.0236226
0.0196026,-0.0478701
0.035788,0.000588822
0.0262193,0.0310706
-0.0171257,0.0269463
-0.0421151,0.0348776
-0.0210099,0.0211244
-0.0133207,-0.01228
-0.0126925,-0.0210331
0.0143642,-0.00698007
0.0532321,0.00840803
0.0269296,-0.00105295
0.00024907,-0.00401331
0.00366287,0.0095785
-0.0118079,-0.00094407
-0.0136465,-0.0137774
0.00633425,-0.0319608
0.0133722,-0.00193034
-0.0111891,0.0341313
-0.0120428,0.0243856
-0.0464657,-0.00344266
-0.0549055,-0.0171762
-0.0132329,-0.00888904
0.00981985,-0.00132063
-0.00262079,-0.0304879
0.0253003,-0.0279237
0.0654314,-0.00787086
0.0263683,-0.00967482
-0.0195005,-0.0117958
-0.01314,0.00665385
0.0293136,0.0280478
0.039931,0.00790476
-0.0101466,0.0169053
-0.0217107,0.00539656
0.014985,-0.00589128
0.0214284,0.00999032
-0.01309,0.00415725
-0.0233567,-0.000723276
-0.00442354,0.0119865
0.00351553,0.0141775
0.00775646,0.0019503
0.0263144,-0.0136827
0.0299858,-0.0262704
0.0130809,-0.00940513
-0.00428591,0.00272544
0.0115891,0.0100166
0.013472,0.0080461
-0.00642818,0.00251872
-0.00458339,0.00837951
0.00579993,0.00174193
0.00572434,-0.0107524
-0.00749394,-0.0103672
-0.0188903,0.00405589
-0.0311737,0.00849819
-0.0452854,0.0168882
-0.0381311,0.0267189
-0.00614769,0.0209952
0.0222097,0.00797841
0.0198764,-0.0134807
-0.0174897,-0.0171531
-0.0502478,-0.00247804
-0.0290179,0.0138909
-0.0120717,0.0135422
-0.00929778,0.0132795
0.00253781,0.00473286
0.0275924,-0.00252169
0.0483324,-0.0140846
0.0290748,-0.0146907
0.00833011,-0.0175129
0.00103523,-0.00813874
-0.0170121,0.0132604
-0.0113534,0.007903
0.00713332,-0.00153932
0.0175494,-0.010738
0.0285033,-0.00768117
0.0246592,-0.00789082
0.00945637,-0.00406396
0.00611268,0.00176474
0.00727239,0.00437406
-0.00736418,0.00687782
-0.0277017,0.00802393
-0.0274674,0.00845934
-0.0115453,-0.000540062
0.0142701,-0.0220083
0.031331,-0.0265882
0.0151246,-0.0122442
-0.00800743,-0.00069429
-0.0175403,-0.0035026
-0.0183282,-0.000389862
-0.0259258,0.0111442
-0.0426059,0.00441253
-0.0217215,-0.01622
0.0141374,-0.0168081
0.0292721,-0.00406408
0.0220505,-0.0210578
0.00533877,-0.00369656
0.00641839,0.02152
-0.00566453,0.0227341
-0.0259186,0.0113234
-0.0371067,-0.0133878
-0.00890723,-0.0246339
0.0544774,-0.0101433
0.0984972,-0.00987468
0.112511,-0.00704771
0.01118,-0.00649435
-0.184735,-0.0158658
-0.245532,0.00558794
-0.121027,0.0301543
0.0501613,0.0130983
0.157922,0.0325698
0.162746,0.0340723
0.128415,0.0260143
0.0510502,0.0254804
-0.0389339,0.0233155
-0.0757516,0.00976169
-0.0557032,0.00680323
-0.0498665,-0.002227
-0.0439592,-0.0122185
-0.00443881,-0.0153068
0.0230966,-0.000659545
0.0298467,0.0172146
0.0220686,0.0126884
0.00360997,0.0175655
0.0177662,0.00488853
0.00611756,-0.00880593
-0.0274281,-0.0158277
-0.0494036,-0.0133849
-0.0246034,-0.0130064
0.00520984,-0.0111045
0.0219542,-0.00330057
0.0285706,-0.00406451
0.0348137,-0.0153104
0.034326,-0.0178166
0.02203,-0.0248483
0.0144498,-0.0257275
-0.00431804,-0.0131902
-0.0237111,-0.00339131
-0.0289944,0.00637269
-0.0152915,0.0101733
0.00561408,0.0140059
0.0267137,0.0136673
0.015642,-0.00038498
-0.00994614,-0.00731684
-0.00507595,0.00511545
0.00777767,0.00263002
0.0133737,-0.000776548
0.00785209,0.0069134
-0.011143,-0.00118498
-0.0247646,-0.00169514
-0.0063297,0.000534293
0.0190976,-0.00640254
0.0157366,-0.0138651
-0.0202219,-0.00475246
-0.0734287,0.00691129
-0.0967415,0.0146982
-0.0780387,0.0272207
0.00343113,0.00527314
0.0887033,-0.0301879
0.116035,-0.0268461
0.0652933,-0.00926517
-0.0313446,-0.00883771
-0.052221,-0.0178632
-0.0441224,0.00447161
-0.0381291,0.0124553
-0.0217815,-0.00539868
0.00527385,0.00139905
0.0448536,0.00909642
0.0313181,-0.00630684
-0.00201066,0.00526727
-0.00501394,0.017383
0.0176869,0.0179411
0.0455614,0.00912762
0.0466364,0.0226314
0.0376523,0.0262164
0.00198439,-0.00381606
-0.0452913,-0.0231458
-0.0396278,-0.0091444
0.00297419,-0.0105066
0.0209493,-0.00246823
0.00686387,0.00269668
-0.0119631,0.00469961
-0.0181972,0.000269581
-0.0150346,-0.00563042
-0.00151922,-0.0163949
0.00396771,-0.0233671
0.00290169,-0.0056177
0.00581138,0.0201958
0.00879193,0.0181411
0.0123293,0.0178495
0.0109543,0.022102
-0.00499652,0.00970603
-0.0189453,-0.0139434
-0.00885158,-0.0101184
0.00767198,0.00718691
0.00213472,0.00764838
-0.0286677,0.012931
-0.053645,0.0204346
-0.0632934,0.000303518
-0.0453818,-0.0214073
0.00058415,-0.033012
0.0243491,-0.0370851
0.0028778,-0.0327722
0.00573794,-0.0259845
0.0465491,0.00363796
0.053481,0.0144214
0.0327365,0.0244272
0.00965023,0.0201184
-0.0127732,-0.0136072
-0.0746563,-0.019704
-0.127555,-0.00274857
-0.0691298,0.00113093
0.0321334,-0.000297483
0.0941391,0.00284978
0.137016,0.0170165
0.128815,0.010744
0.0791819,0.0199467
0.0225141,0.00380329
0.000250886,-0.0165104
-0.0194494,0.00650592
-0.0437188,0.017755
-0.0343077,0.00606593
-0.0847794,0.00716725
-0.201278,0.0248317
-0.148357,-0.0195928
0.0189354,-0.0266464
0.124982,0.0110072
0.134876,0.020256
0.103,0.0156677
0.0553224,0.0094061
0.00785982,-0.00358674
-0.0151263,0.00131028
-0.0124491,-0.000464577
9.8e-05,-0.0059175
0.000646957,-0.017921
-0.0121445,-0.0229535
-0.0134448,-0.00100506
-0.0135049,0.0016291
-0.0165882,-0.00122831
-0.00543215,0.0174803
0.0120868,0.0305763
0.00697993,0.0208875
-0.0167201,-0.010213
-0.0251273,-0.0249969
-0.0184079,-0.0155175
-0.00763553,-0.00923024
-0.00865294,-0.00492297
-0.0175041,-0.00888487
-0.0310835,-0.024549
-0.0505648,0.0128448
-0.0599453,0.0210992
-0.0149452,0.00281265
0.0224975,-0.00620919
0.0473071,-0.00718128
0.0498961,0.000177513
0.0135171,0.00579365
-0.00201889,0.0137442
0.0203334,0.0179578
0.0318632,0.00774218
0.0212892,-0.00617648
0.0134922,-0.0142451
0.0117947,-0.0233674
0.0118408,-0.0109686
0.00475159,0.0202236
-0.0130809,0.00728733
-0.0412269,-0.00626991
-0.0412376,-0.00246913
-0.0177361,-0.013392
0.00154105,-0.0119328
0.016519,-0.00508475
-0.000459603,-0.00124988
-0.0249171,-0.00251319
0.00715935,0.0039876
0.0323547,0.0182818
0.0373041,0.0147659
0.00909153,-0.00920738
-0.0281661,-0.0226513
-0.0207386,-0.00673604
0.00568817,0.00545731
0.0164919,-0.00906079
0.00266571,-0.00401149
-0.00185917,0.00393446
-0.00901921,-0.0116918
0.00806538,-0.0162428
0.00797352,-0.0160386
-0.0189825,0.00848121
-0.023249,0.017793
-0.0117369,0.0126896
0.022266,0.00295367
0.0340986,0.00878279
0.0451729,0.0128757
0.0284505,0.00686522
-0.010885,-0.00195476
-0.045871,0.00344381
-0.0590866,-0.00644398
-0.0500324,-0.0328901
-0.0123643,-0.00271143
0.0121914,0.0232229
0.0188548,0.0181878
-0.026408,0.0082184
-0.0822401,0.00422747
-0.0184423,-0.00236361
0.0672179,-0.0238137
0.0836484,0.0034764
0.0899987,0.0129053
0.0863712,0.00466594
0.0440737,0.0120224
0.000688463,0.0134185
-0.0162075,0.00599727
-0.0209682,0.00485668
-0.0345879,0.0154744
-0.0520865,0.0145568
-0.0491671,-0.00115573
-0.0341061,-0.016443
-0.0138963,-0.000744252
0.0107211,0.00592294
0.0340531,0.00867578
0.0333453,-0.0019303
-0.00240244,-0.0263449
-0.0112802,-0.0230483
0.0158198,-0.0239738
0.00880878,-0.0254085
-0.0258478,0.00207628
-0.0334565,0.0249148
-0.01962,0.0110925
0.00477351,-0.00976897
0.00509735,-0.0106865
-0.0549688,-0.0105859
-0.09793,-0.00404166
-0.0650262,0.0136862
-0.0311822,0.011213
0.023235,0.00562711
0.0712566,-0.00942728
0.0896212,-0.0083168
0.0938332,-0.00305161
0.0620862,-0.00964221
0.0205035,0.00343454
0.00777002,0.0160548
0.00885308,0.0112159
0.000236491,0.0133307
-0.0135172,0.0184305
-0.0260976,0.0136765
-0.0309372,-0.000358591
-0.0160193,-0.0169319
-0.00333928,-0.0207195
-0.00408666,-0.013737
-0.0190838,-0.0038155
-0.0353994,0.00988097
-0.0421953,0.00495432
-0.000783129,-0.000752632
0.0490849,-0.000100936
0.0457072,0.00679464
0.0185879,-0.00590706
-0.00142644,-0.0262125
-0.0155007,-0.0124713
-0.0318227,0.0173389
-0.026511,0.00475415
0.00768573,-0.00561095
0.0198642,-0.0134168
0.0177161,-0.00847068
-0.00184024,0.00455435
-0.01789,0.00924447
-0.0133501,0.00965837
0.0230789,0.0105543
0.0207291,0.0174302
0.00109089,0.0108815
-0.00147397,0.00254595
-0.00297032,-0.0100765
0.00362797,-0.0162266
0.00211693,-0.0136694
-0.0113955,0.00137082
-0.0133111,0.00416341
-0.000134229,0.00562112
0.0113695,0.0176371
0.00710011,0.016796
-0.00358702,-0.00151614
-0.00153857,-0.00967011
0.0185246,-0.00520149
0.0310933,-0.012769
0.0221293,-0.00539945
-1.02e-05,0.0130573
-0.0173363,0.00959158
-0.013638,0.00091297
-0.00588256,0.00375733
-0.00133724,0.000250001
0.00378597,-0.00758218
0.000935476,-0.00157728
-0.0120447,0.00297486
-0.0164211,-0.00474972
-0.015338,-0.0109783
-0.030438,-0.000347572
-0.0658899,0.0171881
-0.0591084,0.00581604
-0.0294078,-0.0147209
0.0015694,-0.014319
0.0618796,0.0083426
0.0675707,0.0163286
-0.038797,0.0143698
-0.119755,0.00784199
-0.0571834,0.00611951
0.0347163,0.0113465
0.0997066,0.00204694
0.134916,-0.00830125
0.0881476,-0.0267793
0.0135264,-0.0664473
0.0154512,-0.0392584
0.0357433,0.00692707
0.000892629,0.0038415
-0.0580718,0.0111426
-0.0949638,-0.00395507
-0.0773901,-0.00147704
-0.0239434,0.00840501
0.0360774,0.00421739
0.0646875,0.000986886
0.0560954,0.0108142
0.0373126,0.0159739
0.0130606,0.00760893
0.00287079,-0.0084876
-0.0335627,-0.0158248
-0.0431389,-0.00715853
-0.020728,0.00138567
-0.0346607,-0.0119883
-0.0565845,-0.0215865
-0.00514747,-0.000269688
0.0506575,0.0040538
0.0910133,0.00842373
0.0859542,0.0200993
0.0255269,0.0177242
-0.0127513,0.0151416
-0.0242377,0.0139742
-0.0206414,0.0203121
-0.0640235,0.0215633
-0.089431,0.0160365
-0.0972825,0.0158563
-0.0784924,0.00941272
-0.00518498,0.000744985
0.060847,0.00750744
0.105604,0.0142625
0.0896139,0.0100476
0.0297891,0.00362684
-0.0208883,-0.00152388
-0.034988,-0.0114186
-0.0116892,-0.0295697
0.00930029,-0.0278191
0.0271666,-0.00486151
0.023833,0.00429234
0.00647558,-0.00107671
-0.0195472,0.00595594
-0.0374429,0.0192905
-0.0411197,0.0215143
-0.024054,0.00123488
0.00795952,-0.0419703
0.0201588,-0.0524255
0.00685202,-0.0340506
0.00708044,-0.029001
0.00396781,-0.0103929
-0.0333014,0.00363983
-0.0382245,0.0194512
-0.00995983,-0.0173177
0.0287088,-0.0158585
0.0304756,-0.00676214
0.0362297,-0.00283047
0.0280687,0.00868923
0.018724,0.0230054
0.0131345,0.0286937
-0.00369186,0.0282708
-0.0187516,0.0190481
-0.0216973,0.00512345
-0.0240022,0.00624336
-0.0196353,0.011992
-0.0140505,0.00494474
-0.0106648,-0.00885368
5.41e-05,-0.00913912
0.00680796,-0.00883745
-0.00230477,-0.0195689
-0.000975868,-0.0264894
-0.0169732,-0.0242826
-0.00873081,-0.0167919
0.0127147,0.000803936
0.0285341,0.0214077
0.0442343,0.0235621
0.0484645,0.0180386
0.0467462,0.0226462
0.0212979,0.00584522
-0.00117778,-0.01174
-0.0122437,0.00308892
-0.0154103,0.0319688
-0.00761098,0.0107158
-0.0567137,-0.0093413
-0.121905,-0.00453413
-0.092617,-0.00693574
-0.0238917,-0.0233149
0.0132612,-0.0563671
0.0277114,-0.0334084
0.0581662,-0.0040859
0.0508587,-0.0247242
0.0317889,-0.0330042
0.0285388,-0.00848168
0.0385166,0.0291239
0.03835,0.0514812
0.014347,0.0298881
-0.0036405,0.0108405
-0.00661117,0.0171795
-0.00325573,0.0219524
0.00914386,0.0133976
-0.00533182,0.00965343
-0.0089073,0.00820028
0.0136423,-0.000820997
0.0186049,-0.0177516
0.0159196,-0.0220335
0.000673231,-0.0139325
-0.0063665,-0.00665751
-0.0129863,0.00618045
-0.0324896,0.0180018
-0.0452605,0.0162293
-0.0267749,0.0105634
-0.0338775,-0.00361044
-0.0594263,-0.00213129
-0.040672,-0.00560249
-0.0237392,-0.000782264
-0.00740405,0.0105899
0.00828286,0.00952366
-0.0153522,0.00398994
-0.0164493,0.000439933
-0.01116,-0.0216764
0.00705094,-0.0266419
0.0301511,-0.00615969
0.0639627,-0.00676879
0.10104,-0.00624707
0.0906824,0.00796734
0.0431648,0.012456
0.0103437,0.00617692
-0.00410337,0.0091286
0.00665553,-0.00732428
0.00694739,-0.0203144
-0.0128455,0.00143935
-0.0348243,0.0118563
-0.0438545,0.00109338
-0.0312318,0.0028179
-0.0200681,0.0131078
-0.0498098,0.00996737
-0.0570266,-0.0196324
-0.0433817,-0.0186201
-0.0147023,-0.00732994
0.0235422,-0.00792853
-0.00702406,0.00612872
-0.0350409,0.0176735
0.019599,0.0209688
0.0539408,0.0195121
0.0339294,0.0181983
0.0163432,0.00254087
-0.000839426,-0.0114078
-0.0308816,0.000434103
-0.0237459,0.0119127
0.00768332,0.00495856
0.0437553,0.004828
0.0460239,0.0085971
0.0496684,-0.00312137
0.0644782,-0.0400317
0.0694719,-0.0378723
0.0650893,-0.0163247
0.0470027,-0.0243967
0.0130806,-0.0186899
-0.0224422,0.00793434
-0.0621649,0.0233559
-0.132614,0.0171442
-0.164759,-0.00630332
-0.0985174,-0.0313966
-0.0174053,-0.0179516
0.0230475,0.00357777
0.0440975,0.0149755
0.0511021,0.0130352
0.00821586,0.0147254
-0.0610797,0.0138352
-0.0767804,0.00476468
-0.0165866,-0.00566139
0.0447037,-0.00264352
0.0764168,-0.00233995
0.103911,0.00291926
0.0856432,0.0101056
0.0385867,0.0144731
0.00446736,0.00978336
-0.0160707,0.00719513
-0.0151198,-0.00329669
-0.0041291,-0.0166142
-0.00405706,-0.00965265
-0.00250347,-0.000990125
0.00236624,0.00145723
-0.00358761,0.00442612
-0.0270536,0.011583
-0.0373989,0.0142406
-0.0331525,-0.00647755
-0.0188743,-0.0235323
-0.00152925,-0.0192394
0.00498227,-0.00868817
0.00138008,0.00672793
-0.00552688,0.0207825
-0.0184221,0.0203884
-0.00859734,0.00717413
0.0181146,0.00421685
0.0262655,-0.00699918
-0.0212545,-0.0477887
-0.0447013,-0.0316795
-0.0330814,0.023223
-0.0131873,0.0164062
0.0177768,-0.004714
0.0338573,0.00451678
0.0307956,0.00675353
0.0335477,-0.0196127
0.0329381,-0.00960168
0.0210898,0.0347021
-0.00613558,0.0202753
-0.012609,-0.00738165
-0.0268165,-0.0320747
-0.0650743,-0.0152549
-0.0802874,0.00941565
-0.0414139,0.00775674
0.0361724,0.0186219
0.0719784,0.00897394
0.0694517,-0.00313371
0.0469375,-0.0015936
0.0322958,-0.00222489
0.0245272,0.00548422
0.0237167,0.0190419
0.0119164,0.0120762
-0.00736132,-0.0157427
-0.0229285,-0.0241154
-0.0214887,-0.0182319
-0.0312923,-0.00285205
-0.049652,0.00311458
-0.0435584,0.00759562
-0.0445393,0.0030367
-0.0475438,0.0053646
-0.0271397,-0.00537073
0.000965408,-0.0111356
0.00896115,-0.00333538
0.0137796,0.00827085
0.0436768,0.00737241
0.0561843,0.00473092
0.0248056,0.0108268
0.0290714,0.0158307
0.05948,0.00702843
0.0437644,-0.00830422
-0.00319908,-0.0132415
-0.0385551,-0.0163082
-0.0352862,-0.00568952
-0.0130092,0.0121142
0.0131989,0.011701
0.0347274,-7.14e-05
0.0409309,0.00010594
0.0373948,-0.00657627
0.0265644,0.00582935
0.00927544,0.0154786
-0.0131327,0.0140782
-0.0220692,0.0137975
-0.0873289,0.0064512
-0.160445,0.000739317
-0.16518,0.00109098
-0.10135,-0.0108391
-0.00346673,-0.0201672
0.0524078,-0.0174172
0.0953557,-0.0124354
0.0904863,-0.00265286
0.0704331,0.00980464
0.0450621,0.00823355
-0.00512548,-0.00594032
-0.0235927,0.000443372
-0.0102637,-0.0158378
0.0123096,-0.0219649
0.0345688,0.000151546
0.0538947,0.00508737
0.055193,0.00488374
0.0305962,0.0124296
0.0165802,0.0184149
0.00746592,0.0094651
-0.00268968,-0.00399376
-0.0185825,-0.00882422
-0.0270651,-0.0101477
-0.0281606,-0.00533406
-0.0276721,0.00591589
-0.032015,0.0154828
-0.0365819,0.00935487
-0.0179867,0.00764156
-0.00456002,-0.00380128
-0.0186402,-0.0175148
-0.0325423,-0.0252424
-0.026272,-0.0124057
-0.0230579,-0.00156272
0.00189488,-0.00553368
0.0465681,-0.00335365
0.0582804,0.0198585
0.0369723,0.0117489
0.0294156,-0.0108273
0.0147231,-0.00914617
0.0088287,-0.00582475
-0.0123946,-0.0063873
-0.0517103,-0.00147081
-0.055936,0.0127843
-0.0120569,0.00829838
0.0298732,0.00126562
0.0375977,0.00494616
0.025571,-0.00624072
0.00627069,0.00449256
-0.0175022,0.0195046
-0.0181257,0.012807
-0.0108104,0.0080932
0.00523264,0.0154213
0.0186808,0.0056905
0.0278627,-0.00975743
0.0132408,-0.0128702
-0.0070447,-0.0101217
-0.013613,-0.0130242
-0.0255846,0.00452038
-0.0552618,-0.000575198
-0.0498997,-0.0130613
-0.00995952,0.00417127
0.0332032,0.00415807
0.0589901,-0.0175885
0.0576253,-0.0233575
0.0227653,-0.00969086
-0.0655992,-0.0128492
-0.0917129,-0.00186645
-0.0210438,0.023729
0.0399848,0.0279216
0.0716902,0.00349844
0.0455635,-0.0288009
-0.0127756,-0.0352971
-0.0365878,-0.0295819
-0.0303148,-0.000130094
0.0167758,0.0208612
0.0546331,0.0262279
0.0588394,0.021075
0.0332704,0.0315368
0.00744781,0.026481
0.00605833,0.00401068
-0.00084228,0.00772725
-0.00787217,0.0205548
-0.00966763,0.0118643
-0.0223126,0.00952555
-0.0501762,0.0171573
-0.0763163,0.0252553
-0.0569806,0.0108264
-0.0313813,-0.0320099
-0.0215997,-0.0244877
-0.0699345,-0.0156697
-0.0996077,-0.026181
-0.045379,-0.0298539
0.0358411,-0.00360597
0.0890762,0.0122269
0.0957328,0.0163338
0.0805934,0.00232303
0.0426848,-0.00839855
0.0106033,-0.00530249
-0.00488344,0.00097417
-0.00944255,0.000139731
0.0143238,0.0101066
0.0224326,0.012301
0.0107844,-0.0027591
0.0252534,-0.0243928
0.0276299,-0.0179291
0.00444358,-0.00849497
-0.00265993,-0.00879848
0.00413803,-0.000988534
-0.00385033,0.005908
-0.0228529,0.00531012
-0.0263146,0.00436282
-0.0140869,0.00292609
-0.00445286,-0.00890701
-0.0122461,-0.0144511
-0.0230297,-0.00579729
-0.0115945,0.00856295
0.00907916,0.00853832
0.0220047,0.0160289
0.0279168,0.0172528
0.031531,0.00359766
0.0279003,-0.0113472
-0.00168251,-0.0128771
-0.0269989,0.00206088
-0.0127411,0.00658613
0.0109386,0.00275214
-0.000966998,0.00341123
-0.0196481,-0.00403713
-0.0361929,0.0031306
-0.0380849,0.000332663
-0.0220439,-0.0231266
-0.00220238,-0.0280592
-0.00701946,-0.00452162
-0.0285733,0.0182292
-0.0276272,0.00855273
0.00433454,0.0025669
0.0484787,0.0164337
0.0578594,0.00341474
0.0404853,-0.0185874
0.0314217,-0.00513499
0.00973486,-0.0106809
-0.0236435,-0.00328653
-0.0346632,0.0126137
-0.0233544,0.00927825
-0.00994251,0.00190715
0.0251373,0.00124889
0.0522599,-0.00765037
0.0384834,-0.0141655
-0.0182028,-0.00615474
-0.0415865,0.00355205
-0.0267588,0.00585421
0.0129469,0.0166956
0.0311768,0.0168515
0.0234538,0.00381426
-0.000622288,-0.0133537
-0.0300556,-0.0166874
-0.0448371,-0.00723215
-0.00928309,-0.0221473
-0.0247572,-0.00464255
-0.103766,0.0335058
-0.134668,0.019252
-0.068806,0.000734009
0.0298147,0.00475595
0.086434,-0.0136622
0.107316,-0.00685605
0.0898343,0.0159342
0.0378215,0.0198458
0.0080742,0.0136585
0.00258675,0.0170344
0.016318,0.021832
0.0297512,0.00876597
0.0409702,-0.00481066
0.0352908,-0.0103393
0.00785572,-0.0188549
-0.0282404,-0.023311
-0.048014,-0.00643631
-0.0670204,0.00435017
-0.0365128,0.00597693
-0.000527848,0.00193472
0.0312187,-0.00722606
0.0260044,-0.0183483
-0.0386505,-0.0168076
-0.0862756,-0.0024259
-0.0715935,-5.36e-05
-0.0258228,0.0010557
0.0204054,0.0123591
0.0726339,0.0135164
0.0998081,0.00577237
0.0756371,-0.00948514
0.0297448,-0.00737499
0.00158766,-0.00551545
-0.0191848,-0.00597775
-0.0262773,0.00486152
-0.0178503,0.0119441
0.000833286,0.00618585
0.00315565,0.00698044
-0.0103199,-0.00596529
-0.0278,-0.0218831
-0.0361348,-0.0116582
-0.0199855,0.0039697
0.0114843,0.00611763
0.00197703,0.00288516
0.00815064,0.00897591
0.0154909,0.00932171
0.0100419,-0.00438982
0.00790309,-0.00839099
0.0204129,-0.0104
0.0207273,-0.00486705
0.01031,0.00859676
0.00681556,0.0172129
0.00696436,0.0114406
0.0122745,0.00361589
0.00674362,-0.00233201
-0.00651973,-0.0239345
-0.0165738,-0.0209043
-0.0049121,-0.00239903
-0.00417815,0.0106462
-0.0376469,0.0149665
-0.0809687,0.00736102
-0.0977317,-0.00732358
-0.0646322,-0.0122764
-0.007415,-0.00499085
0.0295111,0.00415822
0.0404739,-0.0172348
0.0260914,-0.0144967
0.0345673,0.00477595
0.0465794,0.0142125
0.0390377,0.00450855
0.0279256,0.0158935
0.0121955,0.0127916
0.020634,-0.00143905
0.0372067,-0.00241119
0.0380844,0.00466226
0.0178672,0.00487485
-0.0169309,0.00375254
-0.0296341,0.00575236
-0.0223895,0.0098405
-0.0128441,-0.000692327
-0.00358986,-0.0174415
0.000495786,-0.00918119
0.00607076,-0.00729169
0.0106031,-0.00259261
-0.00450133,0.00781163
-0.0460617,0.0148838
-0.0503616,0.0149377
-0.0615648,-0.00677253
-0.0693131,-0.0163617
-0.0468122,-0.0132435
-0.00265004,-0.0251524
0.0353352,-0.0281581
0.0433882,-0.00354343
0.0186125,0.0361115
9.41e-05,0.0551963
-0.0076374,0.0214653
0.0183403,-0.0202426
0.0386359,-0.0344148
0.0376163,-0.00978397
0.0370102,-0.00544622
0.0461925,-0.00253024
0.018227,0.00796257
-0.0205778,0.0172066
-0.0100367,0.0177033
0.00991475,0.00569278
0.0203937,-0.00991164
0.0227682,-0.0229992
0.00235087,-0.00888197
-0.00116079,0.00415591
0.00424863,-8.59e-05
-0.00409354,0.00314232
-0.00897393,0.0167245
-0.00929919,0.0160646
-0.0140247,-0.00126903
-0.0226603,-0.00816882
-0.0286181,-0.00504572
-0.0198996,-0.00247844
-0.0110691,0.000634287
-0.011755,0.00501534
-0.0104768,0.0035887
0.0011308,-0.00372544
-0.0298164,-0.00668045
-0.132331,-0.0110246
-0.144834,-0.0267919
-0.0723997,-0.0179972
0.0287704,0.0202681
0.11623,0.0247174
0.139801,0.0221011
0.118923,0.0197138
0.0948044,0.0049158
0.0512032,-0.0125248
-0.00304088,-0.00771587
-0.018428,-0.000367177
-0.0075351,0.00111872
-0.00526835,-0.00156142
-0.0107941,-0.00336715
-0.0112931,-0.0104883
-0.000538016,-0.0098853
0.000856613,-0.0167188
0.000488963,-0.0140627
0.00305553,-0.00349197
2.32e-05,0.0052299
-0.00859396,0.0059521
-0.0166979,0.010909
-0.0160794,0.0197193
-0.0126135,0.0225044
-0.00450253,0.0130476
0.00807011,0.000829592
-0.00238246,-7.95e-05
-0.0164787,-0.0020431
-0.0224593,0.00259222
-0.00791346,0.00596882
0.00729232,0.00394446
-0.000366636,-0.0067789
-0.00837235,-0.0106827
-0.00527025,-0.0212183
-0.00706347,-0.0237939
-0.00733965,-0.0146543
-0.000234288,-0.00759202
0.000489918,-0.00538166
-0.0090709,-0.00359529
-0.00238322,0.00855385
0.0233789,0.0133813
0.00386484,-0.00289056
-0.0251842,-0.0121863
-0.0208439,-0.0117454
-0.00234333,-0.00340534
-0.00394358,-0.0084683
-0.00865326,0.00671619
0.005882,0.0211154
-0.00618859,0.0147515
0.00424096,-0.00165952
0.0381936,-0.0106483
0.0415432,-0.0423004
0.0212839,-0.0175613
0.0189724,0.0276352
0.0219855,0.0301949
0.00453014,0.0181716
-0.00239804,0.021114
-0.0164214,0.0132921
-0.0325307,-0.00125578
-0.0282697,-0.00523608
-0.0159372,-0.0101801
-0.0153097,0.000936269
-0.00335504,0.0106806
0.016255,0.0199758
0.00700033,0.0272202
0.00294782,-0.00143606
-0.00514519,-0.0161224
0.0165493,-0.0188506
0.0313791,-0.0162672
0.00527087,-0.00763328
-0.0191645,-0.0107782
-0.0163079,-0.000589232
-0.00392025,0.0123452
0.00316711,0.0121556
-0.00893866,0.01711
-0.00442584,0.00279656
0.00634589,-0.0154518
0.00938505,-0.0107002
0.0108315,0.00206249
0.0102102,0.0177429
0.00311446,0.00895961
-0.00217927,-0.012634
-0.00821427,-0.0136866
0.00391577,-0.0138206
0.0227314,-0.0173339
0.0230643,-0.010149
0.00832718,-0.00661284
-0.0250103,-0.00940083
-0.0491318,-0.00190759
-0.0589628,0.00891533
-0.0287016,0.00915547
0.0233262,-0.000948712
0.0167353,-0.0071723
-0.0497022,0.0010354
-0.0619783,0.00985122
-0.0250386,0.0187185
0.0246579,0.0201394
0.0665696,0.0146798
0.0971563,0.00842067
0.0857778,0.00179537
0.0551739,-0.0150382
0.0206006,-0.0190233
-0.000549814,0.00112267
-0.00710516,0.00203679
-0.0146432,-0.00699435
-0.0141565,-0.00189164
-0.00317079,0.00201768
-0.052685,-0.00180551
-0.0807003,-0.0109635
-0.0715675,-0.00985867
-0.0256577,-0.00868729
0.0293977,-0.00650807
0.0396599,-0.00312543
0.0493885,0.00125349
0.0579483,-0.00133474
0.0443427,0.0022758
0.0207331,0.00147578
-0.0168557,-0.0124527
-0.0802905,-0.0126239
-0.114701,-0.00196256
-0.0571461,0.00488516
0.000437573,0.0125922
0.02542,0.0241317
0.0276876,0.0262293
0.0338207,0.0137079
0.0284755,0.00228985
0.0106317,0.00499621
0.017404,0.0186814
0.0206448,0.0155511
0.010786,0.00862342
-0.00125966,0.0153278
-0.00876581,0.0173489
-0.015483,0.0137157
-0.0235045,-0.0102805
-0.0282541,-0.0325897
-0.0235181,-0.0224436
-0.0162528,-0.0241111
-0.00389481,-0.0346308
0.0167552,-0.00040794
0.027048,0.0192099
0.0222516,0.00887835
0.027947,0.00302333
0.01871,-0.00246679
-0.0013377,-0.00133345
0.00180775,-0.00428106
0.0098963,0.00683111
0.00153363,0.0105126
-0.011331,0.0079508
-0.0210693,-0.00109895
-0.0244456,-0.0200025
-0.0299145,-0.0175496
-0.0237447,-0.00461029
0.00316518,0.00834562
0.0160137,0.00729341
-0.00133647,0.00354319
-0.0304452,0.00716217
-0.0324865,0.00767343
-0.00735064,-0.00320862
0.0189082,-0.0175185
0.0305045,-0.0149193
0.0378278,-0.0119726
0.0371803,-0.00929504
0.0156397,0.00141319
-0.00113489,0.0109668
0.0104678,0.0024655
0.0188703,0.000731127
0.00936545,0.000442047
0.00232172,-0.0182122
0.00446239,-0.0160831
0.00272719,-0.00666439
