Comp Ch 3,Comp Ch 4
-0.00119284,0.0237931
-0.00817189,0.0153475
-0.00750395,0.0105464
0.000769934,-0.00269968
0.0045986,-0.0281488
0.00786304,-0.0233097
0.00923984,-0.0117316
0.00127133,-0.0132249
-0.00385554,-0.0078916
-0.00694026,0.00254471
-0.00379083,0.0108614
-0.00712205,0.00292615
-0.0275344,-0.0119713
-0.0793607,-0.00329195
-0.104496,0.00746026
-0.0764979,-0.00640465
-0.0176873,0.000793889
0.0352825,0.0167056
0.0974177,0.00908519
0.12225,-0.00894409
0.104189,-0.0170787
0.0740333,-0.0109634
0.0390358,-0.0246382
0.00809621,-0.0326019
-0.0162859,0.0183016
-0.0592029,0.0329842
-0.0585956,0.0233355
-0.0429176,0.0136603
-0.016181,0.00888518
0.0195022,-0.00295914
0.0251466,-0.0116969
0.00608318,-0.00564513
0.00205856,0.0345681
7.78e-05,0.0417512
0.00516282,0.000786575
0.00250578,-0.0159036
-0.00379878,-0.00879471
-0.00499019,-0.0230941
-0.00413186,-0.0374042
-0.0284385,-0.0320555
-0.0575406,-0.0178441
-0.0423612,-0.0038205
0.00487814,0.00461251
0.00892373,0.0254157
0.00316699,0.0221002
0.0225255,-0.0222465
0.0138848,-0.0188848
0.0309055,0.0184513
0.0460744,0.0307008
0.0275876,0.0347511
0.0117653,0.0351329
0.0095478,0.014328
-0.000641701,-0.00452913
-0.0145834,-0.0160323
-0.024821,-0.0275451
-0.0217515,-0.0249416
-0.0213256,-0.00800477
-0.025564,-0.00062819
-0.0182561,-0.00174155
0.0207748,0.0120553
0.0512742,0.0253883
0.0593306,0.00480691
0.051045,-0.0341996
0.0295115,0.00524925
0.00718067,0.0463156
-0.00739477,0.0986414
-0.0316135,0.0279211
-0.0664453,-0.057365
-0.0608352,-0.0336775
-0.0495178,-0.0126659
-0.0435294,0.0113215
-0.023394,-0.00153131
-0.0600372,-0.0666481
-0.110655,-0.0680831
-0.129128,-0.043591
-0.153531,-0.0275811
-0.177916,0.0165735
-0.111104,0.0353885
0.0666677,0.0121207
0.256865,-0.01294
0.311309,-0.0109749
0.271432,-0.0150839
0.226591,-0.0113948
0.13092,-0.000899093
0.00720856,0.0160711
-0.0304631,0.0246299
-0.0349204,0.0187494
-0.0246099,0.00181308
-0.00238462,-0.000498534
0.00416208,0.0160102
-0.00279822,0.00718132
-0.0282074,0.0184901
-0.0310078,0.0404501
-0.0333021,0.0311986
-0.0418101,0.0156982
-0.0550977,0.000974426
-0.0561589,-0.00832368
-0.0697609,-0.0181099
-0.0578878,-0.0258539
-0.0186258,-0.0166489
-0.00938435,0.00257845
-0.0245251,0.018944
-0.0311769,0.0193016
-0.0276356,-0.0196333
-0.0110538,-0.0560302
0.0131596,-0.0627557
0.0317396,0.0183754
0.0355594,0.0593776
0.0373462,0.0405001
0.0321074,0.0313823
0.0205361,0.0219421
0.00745617,0.00017929
-0.00554245,-0.0247144
-0.0117947,-0.0257004
0.00563374,-0.0328849
0.0319304,-0.035015
0.0277989,-0.0157775
0.0260892,0.00473237
0.0382955,0.0102908
0.0230785,0.017708
-0.00491521,0.0099
-0.0310462,-0.00573414
-0.0537404,-0.00247448
-0.0565009,0.0163605
-0.0379755,0.0179327
-0.0107661,0.0171471
-0.00366271,0.0104184
0.00187885,-0.00379905
0.00161404,0.00264011
-0.00463941,-0.0190116
-0.018268,-0.0272704
-0.0299165,-0.0263392
-0.0360255,-0.016916
-0.048049,-0.00167085
-0.0494596,0.00799539
-0.0301566,0.0132756
0.00055016,0.0132584
0.0501697,-0.00854898
0.0873215,-0.0117577
0.10347,0.00937175
0.0898385,0.0181445
0.0497041,0.00918627
0.021206,0.0107226
0.0159025,0.0140162
-0.00968185,0.0128447
-0.0794072,-0.0130102
-0.0806288,-0.0309711
-0.0267654,-0.0361579
0.017208,-0.0200218
0.0169534,-0.000369338
0.0163512,0.0125269
0.00240439,0.0172225
-0.0375836,0.0126762
-0.0547479,0.0176443
-0.0345114,0.00656462
-0.0234227,-0.0148543
-0.0476929,0.0147428
-0.0966035,0.0308941
-0.0687402,0.0107306
0.0165727,0.0293708
0.106933,0.0252037
0.162684,0.00471945
0.156399,-0.00662359
0.103102,-0.0396362
0.0287606,-0.0471919
-0.0202203,-0.0432256
-0.0326368,-0.025652
-0.032162,-0.0284579
-0.00896077,0.00988039
0.00045454,0.0476942
-0.00381058,0.0190077
-0.00955192,-0.0120116
0.00398532,-0.00564913
0.030234,0.0146241
0.0365083,0.0142211
0.0350977,0.0205124
0.0161721,0.0272461
-0.0259512,0.0176274
-0.044683,-0.0129185
-0.0531085,-0.0521761
-0.0685045,-0.0581002
-0.0618662,-0.0300084
-0.0399355,0.0132411
-0.0324535,0.0259233
-0.0312316,0.0136456
-0.0112496,0.0101382
0.0119841,0.00878974
0.0191443,-0.015081
0.0230457,-0.0230913
0.0259641,0.00025213
0.033171,0.0200835
0.0451957,0.0214782
0.0330675,0.0220506
0.0223488,0.0299818
0.0135141,0.0215042
-0.00743869,-0.0101307
-0.0235073,-0.0314471
-0.0338814,-0.0314235
-0.0350434,-0.0367222
-0.0275638,-0.0222671
-0.0398139,0.0162636
-0.085887,0.0195854
-0.0834086,0.0112634
-0.0523764,0.0251585
-0.00313874,0.00879352
0.113761,0.0265201
0.119233,0.0336388
0.0905375,0.0225693
0.0618344,0.00998643
0.0300747,-0.00518727
0.00286433,-0.0352017
-0.0148243,-0.0613048
-0.0378864,-0.0655011
-0.0630873,-0.0539287
-0.0891185,-0.0524759
-0.0597539,-0.0205215
-0.0148034,0.0249129
0.0193385,0.0453146
0.0424953,0.0632225
0.0529425,0.0540877
0.0528243,0.019227
0.0257596,0.00995347
0.00545732,0.0310258
0.0109216,0.0123324
0.0120113,0.00957237
0.00738777,0.0207538
0.00988328,0.00335609
-0.00176577,-0.0380355
-0.0117163,-0.0600011
-0.010348,-0.0555432
-0.00549786,-0.0214692
-0.0110094,-0.00932386
-0.00938991,-0.00336412
-0.000253058,0.00721244
0.00527186,0.0209602
-0.00104304,0.0290218
-0.0107401,0.0253028
-0.0295098,-0.016366
-0.0314674,-0.0231444
-0.000123481,0.0413122
0.01824,0.0432597
0.026132,0.0243929
0.0100087,0.0132
-0.0159041,-0.00777798
-0.0319385,-0.0406499
-0.0392558,-0.0548481
-0.00375989,-0.0400531
0.011481,-0.0300262
-0.00541138,-0.010077
-0.0232719,0.0151867
-0.0117713,0.0236695
0.00956588,0.0325928
0.00833412,0.0313812
0.0117497,0.00691781
0.0296527,-0.0164063
0.0277981,0.00371372
0.0124822,0.0290755
0.00315962,0.0134023
0.0241091,0.021272
0.0441563,0.0222208
0.0327163,-0.00630191
0.00757671,-0.0442462
-0.0087136,-0.0450821
-0.0263141,-0.037789
-0.0322173,-0.0301511
-0.0161797,-0.0149026
-0.00405842,0.0215953
0.0151802,0.0444131
0.0142002,0.0356293
0.00138954,0.0256197
-0.0660867,0.002888
-0.114067,0.0011002
-0.0791748,0.014092
-0.00823535,0.0125094
0.0549857,0.00777136
0.0949958,0.0100767
0.0924083,0.00165771
0.0511447,-0.0315118
0.00483671,-0.0542355
-0.0063513,-0.0356228
0.00300965,-0.0197274
0.0043292,-0.0101384
-0.00420081,0.00681932
-0.0086039,0.0215483
-0.0186238,0.03026
-0.0220019,0.0219714
-0.0245363,-0.00490091
-0.0276534,-0.0207507
-0.0202632,-0.0069235
0.0054855,0.0169326
0.0415664,0.0141225
0.0370784,0.0109901
0.0113724,0.0178778
-0.0016905,0.00361574
-0.0132027,-0.00972
-0.0302192,-0.042528
-0.0522474,-0.0287427
-0.0579106,-0.0211761
-0.0540614,-0.0116616
-0.101146,-0.00171695
-0.0795055,0.0175405
0.0141469,0.0188908
0.100923,0.0106156
0.156895,0.00380372
0.134643,-0.0233682
0.059702,0.0246674
0.00998009,0.0311444
-0.0105688,0.0121168
-0.0213597,0.0286688
-0.0193854,0.0237549
-0.0144369,-0.00804331
-0.0348294,-0.0269492
-0.0504426,-0.0233877
-0.0216218,-0.0170732
-0.00310812,-0.00985198
0.0182166,0.00219139
0.0311229,0.0132498
0.0245271,0.00711812
0.00225995,0.0125405
-0.00547627,-0.00399852
-0.00518249,-0.0228511
-0.00910668,-0.0394837
-0.0154002,-0.0104927
0.00333138,0.0207643
0.0112263,0.0237818
-8.53e-05,0.0158146
-0.00463454,0.00814524
-0.00231711,-0.0191705
-0.000239365,-0.0330835
-0.0134553,-0.00765865
-0.0356744,-0.00804594
-0.0286469,-0.0010263
0.0198685,0.0240542
0.0373513,0.0344078
0.0303403,0.0266874
0.0220891,0.0276234
0.0201276,0.00300527
0.0116111,-0.0164871
-0.00491001,-0.0154481
-0.0125006,-0.00363747
-0.00884546,-0.00455567
-0.00904167,-0.0100107
-0.00624506,-0.00337905
-0.0281004,-0.010045
-0.0377233,-0.00785842
-0.0258945,-0.0167706
-0.0157319,-0.0223391
-0.033142,-0.00614551
-0.0152061,0.0091506
0.0231345,0.0293376
0.0203165,0.0135232
0.0199207,-0.00410707
0.0408699,0.0035978
0.0418416,-0.0110833
0.0214174,-0.0104983
-0.00125934,0.00703727
-0.0197867,0.012154
-0.0243959,0.0124575
-0.0146348,-0.000721446
-0.0172443,0.0102012
-0.0199547,0.00328346
-0.0199952,-0.0198715
0.00961877,-0.0158033
0.0276073,-0.00843637
0.041415,-0.0120796
0.0666177,0.0143887
0.0873959,0.0290632
0.0617583,0.0208706
0.0203921,0.0152899
-0.00582738,0.000314263
-0.0962214,-0.0376703
-0.203088,-0.0291335
-0.187059,-0.00267281
-0.0926073,0.00910077
-0.0331098,0.00681329
0.00404074,0.00719185
0.0626705,0.00746432
0.0892471,-0.00216515
0.0685865,-0.0261734
0.0680278,-0.0303519
0.0638318,-0.0115584
0.0601209,0.00740328
0.0484143,0.0265601
0.0186358,0.0298758
-0.00602686,0.0187006
-0.0201367,0.028374
-0.018396,0.0177027
0.0061661,-0.0212037
0.0280096,-0.01554
0.023177,0.00362241
0.0106306,0.00247359
0.00163459,0.00826834
-0.00555739,0.0176896
-0.0135168,0.00534847
-0.0228353,-0.0187344
-0.0278147,-0.0288819
-0.0232704,-0.0270166
-0.024486,-0.0510421
-0.0311727,-0.0295303
-0.0206351,0.00239121
-0.0328652,0.0317973
-0.0400918,0.0304162
-0.0238036,0.0181224
-0.0123289,-0.0133972
0.0230175,-0.0271989
0.0667575,-0.011552
0.0681873,0.000706239
0.0459357,0.00227032
0.0292109,0.0121304
0.00945951,0.0181096
-0.012013,-0.00118766
-0.0138733,-0.0228099
-0.0130002,-0.0307023
-0.0049865,-0.0270426
0.0120692,-0.0110963
0.0131575,0.00783002
-0.0172432,0.0289268
-0.0257047,0.038229
-0.0135352,0.0354144
-0.00885848,0.0196106
-0.0116986,-0.00114678
-0.0164656,-0.00648879
-0.00235646,0.0237385
-0.00195313,0.0349084
-0.00659157,0.0164356
-0.0197069,0.0191811
-0.0221293,0.0243186
-0.00307679,-0.00168181
-0.00369744,-0.0319828
-0.013372,-0.0222196
-0.0317663,-0.0204959
-0.0295713,-0.0121696
0.00471931,0.0230541
-0.00146195,0.0175079
0.00612697,0.00471487
0.0267015,0.00944867
0.0313493,-0.0110988
0.0506593,-0.0232053
0.0597307,-0.0141399
0.0553395,-0.00546736
0.022666,-0.0183915
0.001296,-0.0049557
-0.00725592,0.0271123
-0.0215039,0.0152922
-0.034358,-0.0380527
-0.0467186,-0.0579782
-0.0435895,-0.0141738
-0.0228163,-0.0147196
-0.0113487,-0.00363156
-0.02446,0.0156252
-0.0514011,0.00846953
-0.077528,-0.00110031
-0.0543486,-0.00220732
0.0142673,0.00112876
0.0838928,-0.0112924
0.110729,0.00534047
0.113304,0.0240614
0.0992226,0.0202617
0.0436214,0.0243358
-0.000370296,0.0276775
-0.017196,0.0056718
-0.0135183,-0.0309362
0.00026959,-0.0382598
0.00679562,-0.0117014
0.00094583,-0.00352285
-0.00472633,0.00528503
-0.0136497,0.0146159
-0.0254498,0.00719617
-0.0303573,0.00775786
-0.0338207,0.013337
-0.0386535,-0.0118189
-0.0324338,-0.0332056
-0.0266949,-0.0102709
-0.0147049,0.0131737
-0.0074985,0.0185283
-0.0116108,0.0254176
-0.0101804,0.0238903
0.00120021,0.000972148
0.0154482,-0.0280541
0.0180352,-0.0231301
0.0187679,-0.0193801
0.0240513,-0.0104896
0.0143664,0.00532801
0.00872128,0.0120897
0.00682851,0.0091514
-0.00039513,0.008453
-0.00283035,-0.0102928
-0.00221436,-0.0273488
-0.000789597,0.007116
0.00603351,0.0242428
0.0137718,0.0216335
0.0147475,0.0283479
0.00737448,0.0313003
-0.0124943,0.0125604
-0.0104505,-0.0149026
0.00704287,-0.0280095
0.000876292,-0.0133581
-0.0130079,-0.0134416
-0.0224029,-0.0115186
-0.010011,0.00446224
0.0222633,0.0148182
0.0149611,0.00414463
-0.0465595,0.00834401
-0.121365,-0.0119592
-0.121435,-0.0492806
-0.0582035,-0.000515255
0.00591099,0.0243703
0.0704849,0.0171488
0.0989024,0.0275851
0.0711452,0.0330035
0.0565578,0.0206172
0.0409997,-0.0134792
0.0058457,-0.0257144
-0.0157262,-0.0185626
-0.00785374,-0.0179566
0.0154934,-0.00431489
0.0313585,0.0126553
0.0392098,0.0104213
0.0488235,0.00122689
0.0349436,-0.00387876
0.0124954,-0.0250088
-0.00323506,-0.0244853
-0.00276228,0.00267807
-0.0143781,0.00282446
-0.0397777,-0.000265381
-0.0514046,0.00384136
-0.0367864,0.01364
-0.0343313,0.0038514
-0.0335987,-0.0310893
-0.00470522,-0.0262654
0.0155036,-0.0210951
0.00610051,-0.0124365
-0.0031483,0.0036162
-0.0166828,-0.00555486
-0.0199772,-0.00246827
0.00275732,0.0270996
0.0331136,0.0199008
0.0461703,-0.0192537
0.0199516,-0.0100583
0.000273866,0.0181943
-0.0237285,0.0233788
-0.0429323,0.0308058
-0.0638331,0.0411833
-0.0579834,0.0308171
-0.0408356,-0.010161
-0.0162857,-0.0438297
0.0167341,-0.0301279
0.0618778,-0.00792962
0.0729373,0.00226603
0.0483305,0.0102036
0.0210878,0.00578755
0.0103223,0.000960016
0.000673156,0.0100299
-0.001735,-0.00815594
0.00772968,-0.0183747
0.00631656,-0.000387109
0.00288568,0.0235293
-0.00287777,0.0170005
-0.00704683,0.014138
-0.00634572,0.0207217
-0.0057378,0.00494219
-0.0108525,-0.0263391
-0.0154666,-0.0417675
-0.0124312,-0.0318743
-0.00750114,-0.0153401
-0.00939677,0.0108575
-0.00949525,0.0148505
-0.018577,0.00530675
-0.0130308,0.0244607
0.00690448,0.00758279
0.0187882,-0.0201548
0.0343617,-0.00703288
0.0419822,0.0126963
0.0428228,0.00750317
0.0290069,0.0101311
0.00546417,0.0313519
-0.0223392,0.0449467
-0.0343947,0.00826588
-0.0408017,-0.0381389
-0.042414,-0.0264565
-0.0305579,-0.016231
-0.00824502,-0.00594396
0.0115711,0.0124884
0.033787,0.0140829
0.0612464,0.0016452
0.0500449,0.00750839
0.0276728,-0.0145943
-0.00966511,-0.0473589
-0.0544107,-0.05674
-0.0786276,-0.0281955
-0.0783836,-0.0114707
-0.0384502,-0.0275784
-0.00612098,0.0265389
-0.0032776,0.0460653
0.0125604,0.0192744
0.0384759,0.0017262
0.0527856,0.0124856
0.0537505,0.0161302
0.0425635,0.0188417
0.0272543,0.0318788
0.00111582,0.0267005
-0.0242807,0.00965964
-0.0311276,0.00623236
-0.0197391,-0.0152071
-0.0106096,-0.0314281
-0.00297033,-0.0126636
-0.00388329,0.00497494
-0.0116395,0.00463202
-0.0208025,0.0111853
-0.0104721,0.0182786
0.00441241,0.0036598
0.00218599,-0.0153135
-0.00521082,-0.0214336
0.0072819,-0.0170686
0.00830472,-0.0196991
-0.00115518,0.00795767
-0.00451994,0.0129458
-0.00110734,0.00725665
-9.08e-05,0.0186475
0.0040771,0.00414777
0.0140998,-0.0374696
0.0216416,-0.0430313
0.0227782,-0.0260392
0.0162801,-0.0116991
0.00683142,-0.0105003
0.00312216,0.00280758
0.00469392,0.0153081
0.00515,0.00138315
-0.00506626,-0.0188921
-0.0179916,-0.0121496
-0.0171628,0.00117418
-0.00475812,0.014683
-0.00486392,0.0411341
-0.00333575,0.0596139
-0.00202338,0.0525507
-0.00412053,0.0192451
-0.00945259,-0.00470454
-0.00945529,-0.00850973
0.000154282,-0.0129368
0.00200899,-0.0110497
0.00319661,0.0101734
0.00733185,0.00274632
0.00441516,0.00155453
0.00630719,-0.0101941
0.0074043,-0.0389024
0.00495102,-0.0327572
0.0053315,0.0154185
0.00981013,0.03394
0.00626078,0.0037243
-0.0100385,-0.00955061
-0.0202464,0.0251186
-0.013491,0.0207016
-0.00414272,0.0125242
-0.00117114,-0.0363326
-0.00252126,-0.0659932
-0.0091127,-0.0465273
0.005414,-0.0318527
0.0173184,0.00417872
0.00948931,0.0097488
0.00956312,0.0172644
0.0231926,0.0368525
0.00367588,0.0157795
-0.042038,-0.0275233
-0.0575969,-0.0202069
-0.0351682,0.0139049
0.0284206,0.0727556
0.0741942,0.131458
0.0594215,0.0540096
0.0109064,-0.0414915
-0.0121004,-0.0629825
-0.00476471,-0.0515593
-0.00598541,-0.0677005
-0.0124941,-0.0569019
0.0123963,0.00446662
0.0220098,0.00665705
0.0150165,0.00423531
-0.00243476,0.0389234
-0.0225715,0.0280017
-0.0297163,-0.024522
-0.0506788,-0.0412628
-0.0993809,0.000380819
-0.0836039,0.0489516
-0.0471396,0.00710166
0.00221928,-0.0162926
0.0463233,-0.00251724
0.0828311,0.0170169
0.0674745,-0.0182388
0.0342893,-0.0360768
0.0329493,-0.0201148
0.0458867,0.00781144
0.0510161,-0.00498951
0.0308255,-0.0210292
0.000216934,-0.00341634
-0.0109481,0.0121957
-0.0141044,0.00991729
-0.0211158,0.0189269
-0.0334585,0.0303675
-0.0295089,0.0313613
-0.028552,0.0285022
-0.0234275,0.0320453
-0.0115224,0.0297837
-0.00826798,0.0194563
-0.0182816,-0.00330157
-0.0260357,-0.0502918
-0.0304798,-0.0543248
-0.0191512,-0.0107193
-0.000949056,-0.0201466
0.0193146,-0.0244389
0.0370538,0.0110835
0.0386516,0.0229314
0.0246781,0.0109284
0.01283,-0.00765095
0.0100739,-0.00205883
0.0137285,0.0122182
0.0135145,0.0127108
0.00482103,0.0176607
-0.0053708,0.0199274
-0.0138458,0.0232136
-0.015377,0.0186113
-0.0106342,-0.00719523
-0.00953875,-0.0382356
-0.00951341,-0.0392801
-0.00987187,-0.0103031
-0.0115069,-0.0140133
-0.0015778,-0.00718199
0.0100791,8.97e-06
0.0173693,-0.000804455
0.0208842,0.000731062
0.0195729,-0.0116234
0.0178829,-0.00803453
0.0171099,-0.000452964
0.0090617,0.00113593
-0.00511051,0.020679
-0.0121321,0.0210092
-0.00891797,-0.00374948
-0.0112264,0.0161474
-0.0135874,0.00992762
-0.0129784,-0.0277908
-0.0159009,-0.0445215
-0.0162655,-0.0182305
-0.0112603,-0.00771214
-0.00264753,-0.0169989
0.000717675,-0.010017
0.00632614,0.00255482
0.0235973,0.0116446
0.0246405,-0.00537075
0.0245307,0.00271551
0.0204966,0.020906
0.0101838,0.0381815
-0.00469106,0.0336394
-0.023212,0.00550952
-0.0265107,0.0135808
-0.0190704,0.036412
-0.0163155,0.0264277
-0.0125821,-0.00207756
-0.0100311,-0.0104266
-0.0117566,0.00030159
-0.0252357,0.0039539
-0.0406907,-0.00255563
-0.034606,-0.0129833
-0.020677,-0.0153218
0.00406215,-0.0353664
0.0335359,-0.000327487
0.0473982,0.0269156
0.0490655,0.0130471
0.0361408,0.0103109
0.0165444,0.0220292
0.00402684,0.0243153
-0.00875125,0.00785651
-0.0143088,-0.0139762
-0.00971979,-0.0293138
0.00243389,-0.029109
-0.00511306,-0.0130029
-0.0691903,-0.0146048
-0.0806766,-0.0144654
-0.0232521,-0.0125773
0.0366846,-0.021631
0.0702423,0.0117674
0.0713771,-0.00261991
0.0591189,-0.0185302
0.0453115,0.00029282
0.0199973,-0.00285231
-0.00651909,0.00228776
-0.0383176,0.0338429
-0.0450672,0.0222054
-0.0152502,0.0132045
-0.000942093,0.00108326
0.0208326,-0.0184655
0.0225099,-0.0146414
-0.00638878,-0.00714758
-0.0196635,-0.0338634
0.00139064,-0.0308147
0.0140557,0.0194259
0.0146973,0.0324891
0.0161777,-0.000861773
0.0268559,-0.00967876
0.0298129,0.00359537
-0.00222489,0.00895182
-0.0347926,0.00603313
-0.0576088,0.0165783
-0.0661566,0.0320154
-0.0411154,0.0383413
-0.0391902,-0.00693909
-0.0360158,-0.0543138
-0.00903784,-0.0521984
0.0288305,-0.0405395
0.0601967,0.0103427
0.027965,0.0144292
-0.0135818,-0.00899728
-0.0089397,0.00040184
0.00979373,0.0246054
0.0153448,-0.00435896
0.0314767,-0.0150503
0.0449719,0.0238879
0.0374596,0.0262019
0.022032,0.0236583
0.00863993,0.0306996
0.0051627,0.0243174
-0.00219828,0.00611387
-0.0150013,-0.0161101
-0.0157117,-0.0287798
-0.0182216,-0.0246415
-0.0152439,-0.00338578
-0.00526436,0.011796
-0.00878874,-0.00154195
-0.0162824,-0.00292374
-0.0223264,-0.00689254
-0.0168746,-0.00802111
0.00210114,-0.0103958
0.0015057,-0.000368059
-0.0022926,0.0138926
0.00178528,0.0115558
0.00857557,0.0159442
0.00820123,0.0143991
0.00596312,0.0218685
-0.00444268,0.0112724
-0.00109087,-0.0263793
0.0163811,-0.0353929
0.00813696,-0.0230766
-0.00508895,-0.00673555
-0.00981237,-0.00325474
-0.00261156,-0.00280048
-0.00287411,0.0158242
-0.0114996,0.0294486
-0.0128176,-0.00267307
-0.00639376,-0.0248874
0.000556218,-0.0137455
0.00155789,-0.00482371
0.00280369,0.00613183
0.00296145,0.0179325
-0.00257512,0.0163641
0.00447438,0.0110679
0.0134825,0.011499
0.0165656,-0.00758534
0.0168766,-0.0190452
0.0092831,-0.00812038
-0.00118918,0.00320927
-0.0020945,0.00166317
-0.00491516,0.0182131
0.00262085,0.0407074
0.000622649,0.00644248
-0.0117357,-0.0297896
-0.0184424,-0.0352197
-0.0263707,-0.0393557
-0.0355692,-0.0174191
-0.0259473,-0.000413273
-0.00773841,0.0180395
0.0193085,0.0273176
0.0405998,0.011498
0.0509726,-0.00108742
0.0559022,-0.0108221
0.0409663,-0.0160304
0.0179695,-0.00504206
-0.0257007,0.00411511
-0.109424,0.0038775
-0.141247,0.0145666
-0.0958212,0.01944
-0.0213532,0.004005
0.0487334,-0.0161402
0.116116,-0.00507184
0.110639,0.0143706
0.0567874,0.00727227
0.0165332,0.000262885
0.00153711,0.000668612
-0.000962734,0.00497896
0.00915354,0.0155475
0.0137174,-0.00905904
-0.00445453,-0.0313908
-0.0443179,-0.0241657
-0.0622319,-0.0123068
-0.0632813,-0.00608398
-0.040006,-0.00775863
-0.0377103,0.0220269
-0.0263147,0.0487487
0.00796708,0.0112715
0.0478157,-0.0163694
0.0539895,-0.00246113
0.0465909,0.000877507
0.0406123,0.017891
0.0145207,0.01977
-0.00684782,0.00618485
-0.0123246,0.00104574
0.000219425,0.0113109
0.009389,-0.0187562
0.0108739,-0.02962
0.0202768,-0.0204526
0.0159866,-0.0257071
-0.00585202,-0.0170768
-0.0263343,0.00728253
-0.0036521,0.0193473
0.0215383,0.0254101
0.00856933,-0.0127998
-0.0115453,-0.0384246
-0.024463,-0.00977946
-0.0347596,0.0118192
-0.0417977,0.0164154
-0.0314907,0.0284817
-0.013193,0.0303428
0.0137392,0.0209047
0.0190672,0.0110102
0.034032,-0.019519
0.0417468,-0.0341397
-0.0038043,-0.0167303
-0.0454193,-0.0297851
-0.020711,-0.0312387
0.00891521,0.0193454
-0.00872522,0.0284534
-0.00189654,0.0156919
0.0311513,-0.00771416
0.0425291,-0.00138162
0.049844,0.00322051
0.029344,-0.00856768
-0.00353037,0.00940616
-0.0319143,0.0250449
-0.0357679,0.0153988
-0.0410588,0.000360842
-0.0322595,-0.012667
-0.0201616,-0.0209979
-0.0101917,-0.00208963
-0.00790096,-0.00258554
0.00463689,-0.0267995
0.0204184,-0.0052743
0.0328471,0.00960706
0.0306354,0.00768713
0.00978306,-0.00203088
-1.39e-05,0.00231361
-0.000506985,0.000533368
-0.00075848,-0.0104646
-0.0170157,-0.00673825
-0.0242841,0.0112879
-0.0177179,0.0248214
-0.0152623,0.0108814
-0.00176425,-0.00758105
0.030634,-0.0215052
0.0612503,-0.0462485
0.0598207,-0.0160933
0.0140247,0.0265914
0.00207689,0.0230174
-0.00396542,0.00240621
-0.00774551,0.0387409
-0.00033706,0.0460463
-0.0257763,0.00467265
-0.0454731,0.0133376
-0.0221557,-0.00726499
-0.0119972,-0.0289302
-0.0618488,0.00123309
-0.0848904,0.0335013
-0.0657843,0.0294226
-0.0271652,0.00868561
0.00611665,-0.0436091
0.0416698,-0.0545758
0.0351172,-0.0307846
0.0151415,-0.0239353
0.0197908,0.00233773
0.0254288,0.0164447
-0.00525195,0.00356066
0.00174868,-0.00246968
0.0358216,0.00143659
0.0572656,-0.01886
0.0626178,-0.0261118
0.0545553,-0.010277
0.0198949,-0.019713
-0.0227041,-0.0209582
-0.00867611,0.033808
-0.00369033,0.0237455
-0.00234189,0.0228249
0.0192302,0.0209676
0.0240863,0.00389456
0.00550536,-0.0177274
-0.0200464,-0.0116683
-0.0427897,0.021392
-0.0398597,0.0540423
0.00443389,0.0654645
0.0155043,0.0339359
-0.00469042,-0.0174571
-0.000598295,-0.0243379
0.0183975,0.00625628
0.0382389,0.0377249
0.00912606,0.0103121
-0.0128024,-0.0337266
-0.0382327,-0.0318653
-0.0484244,-0.0353263
-0.0820842,-0.0149129
-0.0969259,-0.0200093
-0.0554293,-0.0457099
0.00688103,-0.0359114
0.0278953,0.000979624
0.0411471,0.00662219
0.0840224,0.0525386
0.0671348,0.0144188
0.0229592,-0.0459467
0.00703744,0.00802124
0.0215511,0.00590824
0.0137767,-0.0118128
-0.016926,-0.0118087
-0.0318398,-0.00273477
-0.0641354,0.0331371
-0.0916899,0.0579776
-0.10068,0.0426847
-0.0447106,0.0104474
0.0825742,0.0149183
0.188007,0.00729008
0.178666,-0.0243128
0.0869958,-0.0565057
0.0115359,-0.0812893
-0.0574425,-0.0721121
-0.129737,3.69e-06
-0.199948,0.0258416
-0.169985,0.00847199
-0.0822091,0.0140959
0.0147279,0.0154646
0.0948967,0.0130446
0.1431,0.00279445
0.136258,0.0290016
0.0967432,0.00697398
0.11545,0.0313782
0.0934028,-0.00209483
0.0428467,-0.0470602
-5.77e-05,-0.00814681
-0.0130701,0.0106653
-0.0345894,-0.00106934
-0.0642173,-0.0251587
-0.046205,-0.00262454
-0.0140528,0.0127524
-0.0139312,0.024432
-0.0452586,0.0215666
-0.0931941,-0.00281456
-0.112036,-0.0183992
-0.159372,-0.0121517
-0.144477,-0.00298621
-0.0820229,-0.00231071
-0.0078805,-0.0161068
0.0707005,0.00311046
0.120799,0.0261796
0.0959651,0.0253904
0.0768372,0.0377784
0.0610453,0.0404519
0.0218713,-0.0037394
-0.0188926,0.00400765
-0.0187122,0.0128762
0.00467509,-0.0169585
0.0622334,-0.0426624
0.10027,-0.0375824
0.0900093,0.00187427
0.0316277,0.0214464
-0.00398417,0.028055
-0.00937538,0.019271
-0.0139139,0.0163735
-0.0238456,0.0076604
-0.0648019,-0.0201061
-0.117905,-0.0665431
-0.0992015,-0.0819692
-0.0421116,-0.0184245
0.0253759,0.00251031
0.0373928,-0.0166515
0.0291548,-0.0237169
0.0301534,0.0182054
0.0280534,0.0125989
0.0305808,-0.000622706
0.0218955,0.0301436
-0.00766651,0.0189869
0.00941839,0.0459898
0.0206739,0.0414373
0.0110359,0.0401873
-0.00558666,0.0584238
-0.00757657,0.0380873
-0.0153687,0.0010702
-0.00537491,-0.0193944
-0.01053,-0.0321446
-0.039136,-0.0424768
-0.0614991,-0.0334705
-0.0599198,-0.0304505
-0.0201972,-0.0329705
-0.000310453,-0.00194103
-0.0370575,0.0243952
-0.0326525,-0.00940898
-0.0289508,-0.00927743
-0.0382547,-0.00285161
0.0186593,0.000974884
0.0700534,0.0179751
-0.00344508,0.0108469
-0.0631642,-0.00660873
-0.0380611,-0.00561567
0.0345368,-0.00168442
0.0858261,-0.038076
0.0932042,-0.0494028
0.0777399,0.00404023
0.062281,-0.0150069
0.0419243,-0.00210096
0.0275271,0.0140535
-0.0390739,-0.00382498
-0.110337,0.00214642
-0.076556,0.0132547
-0.0360724,0.029112
-0.00974827,0.0168852
0.0394214,0.00562134
0.102207,0.0156569
0.104368,0.0197754
0.0862084,0.00795088
0.0263385,-0.0153983
-0.0263085,-0.0101403
-0.0437952,-0.018727
-0.0372138,-0.0262542
-0.0297327,-0.00921788
-0.0293614,-0.00531068
-0.0520349,0.0058096
-0.0619527,0.0205144
-0.0230759,0.011099
0.0321284,0.0189301
0.0582493,0.00416654
0.0585735,0.0152128
0.0443705,0.0269776
0.0211063,0.0232569
0.0136751,0.0132752
0.0218405,-0.00354505
0.00133409,0.0105275
-0.0185815,0.0247804
-0.015609,-0.0274565
-0.0107477,-0.0529493
-0.0171695,-0.0122543
-0.0274569,-0.0217238
-0.0312754,-0.0400629
-0.0182962,-0.0073074
0.0105471,0.0437313
0.0268607,0.0313511
0.0181803,0.00347825
-0.0309436,-0.00463657
-0.0849514,0.00406148
-0.118105,-0.0020006
-0.117391,-0.0101864
-0.0718661,0.0191357
0.0116173,0.00903977
0.070983,0.0142574
0.082242,0.00484211
0.0542578,0.0266172
0.00160515,-0.0264126
0.00574386,-0.0627991
0.04199,-0.0433162
0.0317866,-0.0351411
0.00556553,0.010292
-0.0208892,0.00844671
-0.0212741,0.0213777
-0.0193599,0.0269553
0.013846,0.00427339
0.0520657,-0.00526973
0.0121695,-0.00851158
-0.00373804,-0.00461836
0.00560079,-0.0367213
0.0161271,-0.00908268
0.0164441,0.0337902
0.0302187,0.00287645
0.0304075,-0.0153467
0.00777108,-0.005123
-0.012214,0.00658317
-0.00383701,0.00171201
0.00215016,0.00147076
-0.00268708,0.00560166
-0.00205203,0.0120487
-0.000362711,0.00904474
0.00871646,0.0113751
-0.0127434,0.0231847
-0.0261488,0.0257254
-0.00170858,0.0171757
-0.00168756,0.0125787
0.00510674,0.0249911
0.00718221,0.0243246
-0.0122398,0.000146693
-0.0256849,-0.010959
-0.0400009,-0.00902324
-0.0261084,-0.00298026
-0.00296808,-0.0178511
0.00520118,-0.0210025
-0.0102739,-0.0202355
-0.0193109,-0.0239844
-0.0143405,-0.0334074
0.00795986,-0.0231361
0.0130238,0.00591121
0.013225,0.00726233
0.0347678,0.000429701
0.0250817,0.0120939
0.00415472,0.0257165
-0.0148585,0.0112521
-0.015774,-0.00961479
-0.0189016,-0.0213693
-0.00289799,-0.0129515
0.0287059,0.00449739
0.017772,-0.00194172
-0.0191509,0.0122028
-0.0310058,0.0259415
-0.0238498,0.0177264
0.00434546,-0.00120668
0.0166049,-0.00253244
0.054496,-0.0106096
0.0392625,-0.0297481
0.00332153,-0.00886023
-0.0152242,0.0169126
-0.000870924,-0.0013215
-0.00749884,-0.00293152
0.0053451,0.0110978
0.0155587,0.00652609
0.00932614,-0.0219862
0.0236165,-0.015432
0.0174109,-0.00285117
-0.0161552,-0.00152488
-0.0273862,0.00792343
-0.0266281,0.0145661
-0.0324435,0.0204324
-0.0411927,0.0148131
-0.0343323,-0.000915032
-0.034586,-0.00444853
-0.0120928,-0.00675291
0.0167426,-0.0115844
0.0340152,0.00274386
0.0512109,0.00506228
0.0274704,0.000656505
-0.00383498,-0.00512277
-0.0198317,-0.0110484
-0.0339051,-0.0260199
-0.0461693,-0.0194439
-0.0169262,-0.0140911
0.0178089,-0.0342524
0.0365943,0.00936256
0.0582472,0.02832
0.0621102,0.0200359
0.0196075,-0.0323262
-0.00431756,-0.0226466
-0.0084978,-0.0237475
0.00569743,-0.0132296
0.0214921,0.00848271
0.0218226,0.0202637
0.0142275,0.0259126
-0.0150847,0.0297636
-0.0470017,0.0290197
-0.0512454,0.0191766
-0.0350636,0.0186731
-0.021891,0.0195465
0.00798341,0.0126424
0.0302529,0.00937675
0.0352717,0.00915266
0.0217433,-0.000950041
0.0148289,-0.0173261
0.00935901,-0.0293197
-0.0170447,-0.0277411
-0.0785721,-0.0211393
-0.117298,-0.00473804
-0.0601483,0.0103678
0.0328871,0.0498003
0.0615705,0.0440416
0.0795409,0.0208555
0.086939,0.0056808
0.047309,0.00156254
0.0100512,0.0225559
-0.0155253,0.0259651
-0.0482604,0.0145125
-0.0553117,0.0136079
-0.0178256,-0.0103935
-0.0022255,-0.0327605
0.0162586,-0.0421577
0.0461361,-0.0391442
0.051451,-0.0280297
0.0435903,-0.0182405
0.0241582,-0.00949342
-0.00168858,-0.000365079
-0.0235202,0.000841527
-0.0420559,-0.000821825
-0.0361383,0.00201025
-0.00694366,-0.000407237
-0.00539416,-0.00210631
-0.0393126,-0.00349971
-0.0508101,-0.0109784
-0.0361042,0.00279191
-0.0237932,0.0224557
-0.0173633,0.017076
-0.0021594,-0.00660599
0.0272994,-0.0290204
0.0369414,-0.0316825
0.0327129,-0.0335861
0.0253668,-0.0229468
0.0274581,-0.00421809
0.0287135,0.0182289
0.0177006,0.0186119
-0.00788263,0.00439157
-0.0141525,0.00555995
0.00162553,0.00782158
-0.0209691,0.0122636
-0.0577889,0.0258117
-0.0769378,0.0158807
-0.0713906,0.0089981
-0.0341204,-0.0016664
-0.00805499,-0.0283318
0.0214037,-0.0205541
0.0384167,0.00573905
0.0242269,0.0147601
0.020587,-0.0115744
0.0394752,-0.00202564
0.0722139,0.0167686
0.0651881,-0.00797058
0.00729596,-0.0106845
-0.0298296,-0.00876677
-0.0115152,-0.0252157
0.0142587,-0.0288292
0.0189278,0.0011258
0.00578936,0.0309779
-0.0227811,0.025718
-0.0373407,0.0193749
-0.0147096,0.0173721
0.0232747,0.00550384
0.0177682,-0.0113692
-0.00439415,-0.0175601
0.000421829,-0.00254969
-0.0474125,0.00903679
-0.0875027,0.0168963
-0.0448356,0.026456
0.0140602,0.0159631
0.0124414,0.00205646
0.029378,-0.0057512
0.0407712,-0.0203362
0.0397489,-0.014413
-0.000424891,0.00328903
-0.0300795,0.0150738
-0.0260291,0.0154111
-0.0241964,0.0141077
-0.012726,0.0164301
0.0165448,0.00436389
0.0621509,-0.0360744
0.0840099,-0.0302733
0.0569994,-0.0167078
0.0242077,-0.0140841
0.0142095,0.00207818
0.0132364,0.0186824
0.0058709,0.023269
-0.0134676,0.021988
-0.0258875,0.0112648
-0.0132566,-0.00567284
-0.0180914,-0.0017655
-0.0291497,0.0136088
-0.020695,0.0118384
-0.0162125,0.00647987
-0.0110056,0.00456303
-0.00443496,-0.0054731
0.00184597,-0.0133468
0.0118858,-0.024701
0.0128883,-0.035255
0.00323674,-0.0252015
-0.00503295,-0.00134951
-0.0103194,0.0100449
-0.020469,0.0100252
-0.0182951,0.0108709
-0.00079462,0.00999129
0.0133402,0.0164068
0.00790909,0.0102411
-0.000171527,-5.83e-05
-0.0134651,-0.000822485
-0.0178373,-0.00861937
-0.00762699,-0.00100678
0.0114839,0.00190744
0.0115522,-0.010792
0.00541696,-0.0286981
0.0154307,-0.0379797
0.0271414,-0.0271694
0.0126361,-0.0117805
-0.0409645,-0.00147047
-0.0688188,0.0137951
-0.065017,0.00902942
-0.0493868,-0.0024113
-0.0145615,-0.00215187
0.0107772,-0.0424231
0.0474897,0.00803515
0.0517769,0.0474105
0.0161435,0.0272043
-0.00537131,0.0151502
-0.00497878,-0.000608788
0.00487038,0.00317516
0.0160372,0.0251618
0.0298834,-0.003079
0.0314928,-0.0127247
0.0294553,0.00595
0.0226661,-0.00653992
0.00479848,-0.0085099
-0.00834577,0.0139946
-0.00798501,0.00811513
0.00223275,0.0154739
0.00121385,0.0273165
-0.00169301,0.00242324
0.00524085,-0.0133734
0.00943797,-0.0101528
-0.00618237,0.00330574
-0.0206728,0.00877614
-0.0344397,0.00547075
-0.0423549,-0.000650433
-0.0245096,-0.0137344
-0.0240636,-0.0154569
-0.0450168,0.00717417
-0.0266469,0.0171945
0.013292,0.00944145
0.0338538,0.00106917
0.0482999,0.00218247
0.0700409,0.00221378
0.0498807,-0.00670289
0.000945874,-0.0480361
-0.00368759,-0.0643902
0.0105761,-0.0549625
0.00420312,-0.0365157
0.014201,-0.0266021
0.0199298,-0.00218905
0.00649527,0.0150019
-0.00428597,0.00951164
-0.0164249,0.00896503
-0.0170993,0.0108958
-0.000813926,0.0242916
0.00177664,0.0288526
-0.0150198,0.0300568
-0.04249,0.0285517
-0.0694197,0.0245207
-0.0615174,0.0221369
-0.0163411,0.0246543
0.00531949,0.0221173
0.0247422,-0.00144832
0.0115378,-0.0159758
0.00144742,0.00124563
0.00380051,0.00554299
-0.0311059,-0.00902377
-0.0469775,-0.0152219
-0.0257076,-0.018766
0.00395452,-0.0218124
0.00892028,-0.00801578
0.0213409,-0.0048251
0.023165,-0.00412445
0.01397,0.00268988
0.0161147,0.00751811
0.0349292,0.00484375
0.0491141,0.0187357
0.0366903,0.0135921
0.0246591,-0.00488106
0.014504,0.00182269
0.00182763,0.0195015
0.00527881,0.00831732
0.0116113,-0.0144459
0.0152936,-0.00041728
0.0112858,0.00709798
0.012697,-0.000527172
0.00315024,-0.00938942
-0.0499433,-0.0154835
-0.0653825,-0.0121987
-0.0452932,-0.00457843
-0.0149485,0.00964064
-0.00030819,0.00886094
0.0232442,-0.00118641
0.0205756,-0.00415264
0.00326613,-0.00813034
-0.0155966,-0.00400137
-0.0147529,-0.0104409
-0.0139918,-0.0102285
-0.00971987,0.00973213
0.0166999,0.0134444
0.027091,0.0124845
0.0190272,0.00856651
0.00966289,-0.00342649
0.0164653,-0.00915512
0.0213314,-0.00684079
0.00689446,0.000372883
-0.00425551,0.0159793
-0.0127064,0.0127722
-0.0160405,-0.00243151
-0.0140748,-0.000708983
-0.00907475,0.00027137
0.00674931,-0.00840831
-0.00297988,-0.0323006
-0.0204301,-0.0272645
-0.0111923,-0.00391018
0.0210629,-0.0138482
0.0326869,-0.00885888
0.020552,0.0202612
0.000314645,0.0147792
-0.00792626,0.00112041
-0.00232546,-0.00138606
0.00629848,0.000628731
0.00719867,-0.000644644
-0.00714486,0.0041073
-0.0339097,0.0120389
-0.0487243,0.00995374
-0.0262622,0.00763294
0.00470904,-0.00214511
0.0392876,-0.0217042
0.0407617,-0.014017
-0.00337317,0.000702763
-0.0309841,0.000324231
-0.0143405,0.00750905
-0.00381698,0.0081129
0.00433696,-0.00469553
0.0277806,-0.0120433
0.0350203,-0.00552128
0.0170757,-0.00353405
0.0349721,0.00487457
0.01085,0.0144606
-0.0506675,0.0134761
-0.0502252,0.00833041
-0.0445612,0.00474612
-0.0954342,0.0128098
-0.113628,0.00613716
-0.0830929,-0.00934908
0.000844013,-0.00183944
0.0574605,0.00865051
0.107504,0.00937349
0.123742,-0.010878
0.0889645,-0.0218302
0.0583642,0.00662545
0.0289455,0.00884014
0.00469691,0.00838726
0.00382385,0.0234518
0.00133528,0.00357998
-0.0340961,-0.0093645
-0.0374226,-0.00492883
-0.0241453,-0.00175403
-0.00970636,-0.00385917
-0.0257621,-0.00461969
-0.0683643,-0.0292021
-0.0453574,-0.0369201
0.00894232,-0.00606225
0.0168097,-0.00332721
0.017904,-0.00739754
0.022129,0.0222385
0.0385799,0.0312062
0.0467557,0.0097871
0.00709944,-0.0150946
-0.0198268,-0.0114723
0.00465122,-0.000812445
0.0166143,-0.000178233
0.00482516,0.00116542
-0.000569819,-0.00157017
0.00061709,-0.00350961
-0.00134696,0.0163277
-0.00239861,0.00829722
-0.00625872,-0.0114706
-0.00898823,-0.00994169
-0.0163014,0.00371849
-0.019985,0.00180919
-0.0167603,0.00157389
-0.0070285,0.0128718
0.000396981,0.0165003
0.00339128,0.00224365
0.00924491,-0.0168014
0.00878078,-0.00897207
-0.00528933,-0.00367205
-0.0120191,-0.00365164
-0.00512739,0.00405915
-0.00117088,0.0120858
0.00408118,0.00715122
0.0108115,0.0139207
0.0187824,0.00376612
0.00749022,-0.0109375
-0.00769905,4.84e-05
-0.0081585,0.00394492
-0.0201876,-0.0110178
-0.0268175,-0.0156347
-0.0180076,0.0146433
-0.00989895,0.0102862
0.00126948,-0.0229195
-0.00200625,-0.0287664
-0.00653134,-0.0167719
-0.000470182,-0.0109699
0.0132351,0.00734315
0.0312077,0.014856
0.0454575,0.00780245
0.0411252,0.00483151
0.0240853,0.00577412
-0.0139276,0.011505
-0.0618677,0.0105709
-0.0807691,0.00838391
-0.030215,0.0175157
0.014178,0.00537099
0.0235721,0.000184574
0.0180063,0.0132314
0.00168049,-0.00606049
0.00123888,-0.0286932
0.0161893,-0.0187967
0.0262693,-0.0166805
0.0265909,-0.0134505
0.0234455,0.00744212
0.0156165,0.0168842
0.00218104,0.0176127
0.00457273,0.0134619
0.00479691,0.0038162
0.00477236,-0.00827746
-0.00254807,-0.00558226
-0.0121922,0.00731703
-0.0157706,0.0112529
-0.0164547,0.00596597
-0.0182083,0.00942863
-0.0137246,0.0180893
-0.00727074,0.00533064
0.00329474,-0.015599
0.00788468,-0.00671654
0.0117164,-0.00153842
0.0168226,-0.00462918
0.0221344,0.00321364
0.017831,0.00310969
0.00825767,-0.0021988
0.00208293,-0.00260437
-0.00891752,-0.00382973
-0.0185493,-0.0150838
-0.00964665,-0.0264471
-0.000119172,0.00106475
-0.0198538,0.0154287
-0.0486371,0.00729068
-0.0721232,0.00231151
-0.0692494,-0.0194481
-0.0259245,-0.0137436
0.0294815,-4.14e-05
0.069112,-0.00740792
0.0744615,-0.00936197
0.0619557,-0.000560687
0.03874,0.00216092
-0.00375794,0.00270546
-0.029673,0.00666839
-0.030186,0.00761567
-0.0019438,-0.000657043
0.0253396,-0.0078656
0.0289764,0.000660119
0.022959,0.00566598
0.00515297,0.00381177
-0.0245933,0.00573198
-0.0502778,0.0162404
-0.0574365,0.0220199
-0.0866062,-0.00378533
-0.116618,-0.0152514
-0.0832219,-0.00967529
-0.0135159,-0.00979276
0.0556862,-0.00500649
0.0978955,-0.000611225
0.112549,-0.00470464
0.0873996,0.000150525
0.0360095,-0.00203411
0.0178835,-0.0117433
0.0199184,-0.0144759
0.0146248,-0.00828725
-0.00105315,-0.00826843
-0.0131009,-0.00438929
-0.0130794,0.0217336
-0.00551764,0.0342709
-0.00569637,0.00997477
-0.0103122,-0.0118961
0.000702013,-0.0089425
0.0220433,0.00960584
0.0112841,0.00902181
-0.0168183,0.0134182
-0.0229226,0.011767
-0.0258794,0.00388766
-0.0316987,-0.0034854
-0.0232167,-0.0148619
-0.00293778,-0.00393377
-0.000599249,-0.000733689
-0.00231019,-0.00819306
0.00627186,-0.000792654
0.00557979,0.00758017
0.00142942,0.0152891
-0.00230037,0.00744311
0.00615527,-0.00210505
0.0205887,-0.0107067
0.00759539,-0.0183466
-0.0141746,-0.0365848
-0.0156161,-0.0374104
0.00516989,0.0047696
0.0129959,0.0571067
-0.00562041,0.0334592
-0.0168879,0.00667988
0.00253983,-0.0123428
0.00259202,-0.0125799
0.00783935,-0.00317043
0.0168251,0.00527199
0.0166485,0.0086796
0.0165385,0.012554
-0.0030327,0.016667
-0.0152456,0.00770948
-0.0139893,-0.0082223
-0.00258928,-0.00927271
0.00656596,-0.00475579
0.0104738,-0.00251331
0.00900139,0.00243633
-0.000946686,0.00994577
-0.012494,0.00606373
-0.016083,0.00134007
-0.00228843,0.00350984
-0.00433534,-0.0033353
-0.00872784,0.00487415
-0.00868199,-0.00160196
-0.0159449,-0.0338049
-0.0233449,-0.0201874
-0.0100779,0.0022805
0.010933,0.00339617
0.0349281,-0.00616084
0.0382806,-0.00682049
0.0140698,0.00773326
0.0012862,0.00180405
0.00425044,-0.000357577
0.000966298,0.00197923
-0.00816523,-0.0163502
-0.0226529,-0.011874
-0.0318302,0.0154082
-0.0200489,0.0192088
-0.0178807,-0.0192833
-4.72e-05,-0.0215174
0.0234988,-0.000641493
0.0332753,0.00507009
0.0494232,0.0142299
0.0284643,0.012186
0.00498908,0.0168997
0.00286515,-0.00171637
0.0031576,-0.00947904
0.00786548,0.0103247
-0.0217865,-0.00323032
-0.063249,-0.0158081
-0.0729353,-0.00184597
-0.068139,-0.0150904
-0.0658749,-0.00651656
-0.0205879,0.00867607
0.0457104,0.000275288
0.0779207,-0.0124114
0.0792041,-0.00741001
0.0660389,0.00472546
0.0429547,0.00838803
0.00393515,0.011062
-0.0648879,0.0118031
-0.0661358,0.00487163
-0.021675,-0.0111714
0.0317576,-0.0181082
0.0716517,-0.0114737
0.0880216,-0.00385039
0.0631251,0.0118714
0.0181579,0.0234724
-0.0138262,0.020212
-0.0267284,0.0196092
-0.0279382,0.00907569
-0.0253398,-0.00462703
-0.0263416,-0.00137395
-0.0296582,0.0102698
-0.0287498,0.0111425
-0.0167614,0.00695475
-0.0106597,0.00883097
-0.00661166,0.0145442
0.000981376,0.0109031
0.00290866,0.000221421
0.00438042,0.00287159
0.00449154,-0.00133178
-0.0206048,-0.00681465
-0.0429685,-0.00732262
-0.0252626,0.00347633
-0.00987081,0.00428595
-0.00474802,0.00407745
0.00463889,-0.00818981
0.00387071,-0.0373787
-0.0100589,-0.0247505
-0.0147069,-0.00859802
-0.00789633,-0.0125865
0.00939363,-0.00789553
0.0227365,0.00199802
0.0235501,-0.00102118
0.0283759,-0.0112433
0.0215776,-0.0112532
-0.00869771,-0.00203296
-0.0229048,-9.29e-05
-0.00285091,0.00642719
0.0156991,0.0142754
0.0233385,0.0128419
0.0136355,0.0039979
-0.0077743,0.00556924
-0.0188057,0.00141899
-0.00630749,-0.0335822
0.0147547,-0.0497845
0.0157635,-0.0278975
0.00163924,-0.0144549
-0.0234865,0.0200423
-0.0459276,0.0422854
-0.0439161,0.017775
-0.0160318,0.00558681
0.0236802,0.00202083
0.0603965,-0.000143121
0.0608176,-0.00706242
0.0347287,-0.0004894
0.0150464,0.0129864
0.0104577,0.0167932
-0.00152273,0.00882673
-0.0228445,-0.00761853
-0.0125908,-0.0208111
0.00721053,0.000483126
-0.00517776,0.00784426
-0.0101109,0.00241169
-0.00728585,0.00257302
-0.00671645,0.0190336
-0.00250897,0.017914
0.00406706,0.00475568
0.000172014,-0.0104413
-0.00333154,-0.0100048
0.00588672,-0.017622
0.0109538,-0.014587
0.00658815,0.00858221
-0.00196735,0.0176896
-0.0155208,0.00739476
-0.0149057,-0.0010613
-0.00058143,-0.00762453
0.0107295,-0.0144197
0.0108023,-0.0102277
0.00255194,0.000928597
-0.0011306,0.00323048
0.00994365,0.00824223
-0.000374365,0.0163244
-0.0086073,0.00646438
-0.00818577,-0.00526274
-0.0227144,-0.00866139
-0.046891,-0.0105932
-0.0459386,-0.00892627
-0.0229668,-0.00708415
0.00685366,0.000860519
0.0351632,0.0137524
0.0491564,0.0116561
0.0218639,0.00413206
-2.78e-05,-0.00632462
0.00410775,-0.00678985
-0.00377181,-5.83e-05
0.00841198,0.00640027
0.0334308,0.0122644
0.0193049,0.022032
0.00461566,0.0277292
0.0099913,0.0160867
-0.00826628,-0.00159279
-0.0368044,-0.0142969
-0.0247257,-0.00826742
0.00838703,-0.00865245
0.0152422,-0.000938308
0.00935042,-0.00376912
-0.000582944,-0.0188072
-0.00557675,-0.0190808
-0.00665755,-0.0357961
-0.0065909,-0.0264962
-0.0145464,0.0038246
-0.0331117,0.0241829
-0.0450272,0.0138881
-0.0423049,0.00152426
-0.0167643,0.0026399
0.0238328,0.00752238
0.0453084,0.00146669
0.0389927,-0.00540203
0.0203298,-0.008877
0.00788294,0.0082529
0.00365371,0.0181605
0.00419036,0.0117302
0.0112339,-0.00273203
0.0183974,-0.00583993
0.0145393,0.00812229
-0.00746284,0.0155699
-0.0298039,-0.00104806
-0.0427757,-0.00705637
-0.0307661,0.00728637
-0.0183914,0.00496067
0.00309278,-0.0181924
0.0407525,0.00728488
0.038945,-0.0031598
0.0202061,-0.0454298
0.0129478,-0.00606374
0.00391417,0.0117689
-0.00216696,-0.00456663
-0.00813922,-0.00484126
-0.0147958,0.00814935
-0.014063,0.0117431
-0.00725298,0.00551298
-0.00175112,-0.00228989
0.00169303,-0.015019
0.00551782,-0.0184458
-0.00096654,-0.0021186
-0.00543391,0.00957895
-0.00239287,0.00942383
0.00336361,0.0095859
0.000748249,0.01387
-0.00120545,0.0101976
0.00950658,0.00127457
0.0100782,0.00126623
0.00582836,0.00936008
-0.00688566,0.0105854
-0.0280186,0.00606289
-0.0312442,0.0122693
-0.0235003,0.017357
-0.00921935,0.00326082
0.0105572,-0.0104319
0.0242627,-0.0194163
0.0160356,-0.0147127
0.00699519,-0.0204289
0.0091137,-0.0164302
0.0101117,-0.00187443
0.00810677,0.00188472
0.00489241,0.00711763
0.000965025,-0.000328759
0.00871906,-0.0126238
0.0258243,-0.0132068
0.0234087,-0.0082043
0.0231257,-0.00461809
0.0243375,0.00595885
-0.0126669,0.0113816
-0.0620944,0.0117652
-0.106634,0.0125157
-0.113342,0.00233565
-0.0929237,-0.024129
-0.0412963,-0.016517
0.0210553,-0.00144675
0.072629,-0.00173509
0.100115,0.00632365
0.0937869,0.0130187
0.0539093,0.0171393
0.0192037,-0.00070276
-0.000526033,-0.000406415
-0.0104674,0.0109248
-0.0113884,-0.00164905
0.00298289,-0.0147522
0.02107,0.0197013
0.0237788,0.0213353
0.0120549,-0.00417332
0.00731088,-0.0180351
-0.00253793,-0.0213947
-0.0120671,-0.00908331
-0.010996,-5.91e-05
-0.00783429,0.0128356
-0.00821664,0.0101477
0.000631678,0.00613259
-0.00556496,0.00583574
-0.0161337,0.000570743
-0.0173387,-0.000683173
-0.0314434,-0.00667001
-0.0265556,-0.00492097
-0.0200094,-0.000990499
-0.0166569,-0.00156482
-0.00358319,0.00572363
0.0172359,0.00114521
0.0197663,-0.00659772
0.02294,-0.00322425
0.030565,0.00858021
0.0209746,-0.00209055
-0.00220769,-0.00226899
-0.00875413,-0.00103326
-0.00661667,-0.00269968
-0.00671356,0.00258797
-0.00879786,0.00357854
-0.00322291,-0.00639472
-0.00389921,-0.0114223
-0.00825506,-0.00690879
-0.0108554,-0.00365723
0.00159989,-0.00293634
0.00886342,-0.00138367
0.00758215,0.0149043
0.00720203,0.0194608
0.00469128,0.00774666
-0.0110751,-0.00126512
-0.0150673,-0.0130804
-0.0127782,-0.0100663
-0.0103255,0.0115713
0.00296547,0.0215812
0.0201985,-0.00434724
0.00878436,0.00411677
-0.0142887,0.0214217
-0.0310724,0.00111059
-0.0196689,-0.0152892
0.0102877,-0.00218258
0.0306412,0.00802548
0.0318811,0.00553094
0.0203418,0.00575057
0.0118055,0.00619373
0.0138628,0.00369126
0.0102263,-0.00505139
0.0190838,-0.0261575
0.0384623,-0.0195577
0.026131,-0.00301478
-0.00575344,-0.00544216
-0.0189277,-0.0183588
-0.00973652,-0.0128863
-0.0230141,0.000871211
-0.0516352,0.00580587
-0.0400879,-0.00495116
-0.0315419,-0.0211611
-0.0376987,0.00570158
-0.0268955,0.0144052
-0.00472391,0.00922448
0.0137978,0.013909
0.0327637,0.00898555
0.0441565,0.0042702
0.0373412,0.00957447
0.022695,-0.00617461
0.00625851,-0.00915532
-0.00377749,0.0073964
-0.014033,0.00538061
-0.0152517,-0.0043384
-0.00622223,0.000757007
0.0147556,0.00892475
-0.00999254,-0.0190349
-0.0190429,-0.00707598
0.00532961,0.00866984
0.00794423,-0.00124126
0.00585308,-0.00114893
0.011279,0.00413276
0.00398063,0.00291822
-0.0088711,0.000393238
-0.013199,0.00288816
-0.0126614,0.00141635
-0.00621025,-0.0109199
0.00331407,-0.0077987
0.0091831,0.00202416
0.00374423,0.0031179
-0.00415331,0.0176082
-0.00382081,0.0204324
0.000229542,-0.00222771
0.0107305,-0.00271381
0.0144964,-0.00827958
0.00807853,-0.0101437
-0.0224738,-0.0027524
-0.038391,0.00942855
-0.0273173,0.0165809
0.00231122,0.0102178
0.0149961,-0.00211319
0.0167786,-0.00629658
0.0367884,-0.00593007
0.0391508,-0.0237239
0.00191502,-0.0202049
-0.0248984,0.0111088
-0.00921285,0.00590135
-0.00134156,-0.000252821
-0.0118296,0.00311089
-0.0151879,0.00615719
-0.0160185,-0.00898619
-0.0141306,-0.00998624
-0.00722457,0.00868647
-0.0263105,0.0145554
-0.0278615,-0.0145907
-0.030303,-0.0255791
-0.0124612,-0.0213644
0.0233051,0.00117994
0.0511873,0.0152184
0.07653,-0.00585922
0.0629604,-0.0108758
0.0109227,0.00577823
-0.0111777,0.0161559
-0.0202096,0.0140822
-0.0179982,0.0143627
-0.0109329,0.0182291
0.00720411,0.0090831
0.0150859,-0.00944358
0.0150933,-0.0121495
0.0143891,-0.00952624
0.00697482,-0.00736511
-0.000812366,0.00814082
0.0115771,0.00635756
0.0269558,-0.0113377
-0.00490302,-0.0101767
-0.036169,-0.0114827
-0.0243161,-0.0172021
-0.00697979,-0.00338943
-0.00126922,-0.00126902
0.00068465,-0.0191234
-0.000348489,-0.0165298
-0.00191441,-0.00471073
-0.00314659,0.00196491
0.00194721,0.00625604
0.00450366,0.000605826
0.000352599,0.00567482
-0.00402345,0.000794165
-0.00695789,0.00906747
-0.00420943,0.0404025
-0.00789384,0.0459693
-0.0249683,0.0295638
-0.0254573,0.030231
-0.0131785,0.00531539
-0.00993339,-0.0264819
-0.00367041,-0.00251958
-0.00654515,0.0111031
-0.0175312,0.00727085
-0.00463563,0.0156068
0.00831452,0.0176326
0.017468,0.0101443
0.0231061,-0.00203142
0.0203218,-0.0142389
-0.000290662,-0.0157455
-0.0258298,-0.0103468
-0.039403,-0.00359998
-0.025152,-0.00769674
-0.0206319,-0.0149103
-0.0127403,-0.00747892
0.0167226,0.00306543
0.0405676,-0.00566008
0.0399686,-0.018787
0.0252404,-0.0157898
0.0174589,0.00436526
0.0105979,-0.000195544
0.0127215,-0.00784883
0.0183159,0.02122
0.00776892,0.00824578
0.000186519,-0.0191252
0.00427693,-0.0118589
0.00263483,-0.00941043
0.00553201,-0.0142192
0.0121376,-0.00955478
0.00671883,0.0171078
-0.00364059,0.0250891
-0.00669785,-0.00342059
-0.00449825,-0.0215882
0.0110309,-0.0120253
0.010546,0.00365167
-0.0309371,-0.0035807
-0.0524621,-0.00298663
-0.0309218,-0.00506457
-0.0176339,-0.010326
-0.0228619,-0.00249217
-0.0047553,0.0220363
0.011711,0.0195811
-0.020328,-0.000432441
-0.02753,-0.00938476
-0.00931572,-0.00518396
0.024424,0.00159938
0.0520455,0.00867327
0.0527017,0.00655185
0.0350302,0.00103357
0.019324,-0.00605127
0.0109967,-0.0112644
-0.00187756,-0.00638871
-0.0120636,-0.00231427
-0.00637421,-0.00161388
0.0106537,0.0026018
0.0034153,0.00788335
-0.00826764,0.0092926
0.0007333,-0.00559105
0.0199195,-0.0149853
0.0102514,-0.000862792
-0.0309198,0.00358106
-0.0393071,0.00821089
-0.0145155,0.0157515
0.0172222,0.011547
0.0222516,0.00201033
-0.0331431,0.000129294
-0.0669859,-0.00466581
-0.0450462,-0.0033007
-0.0169398,0.0012927
-0.00543039,0.00193369
0.0159554,5.14e-06
0.0242502,0.00577692
0.033054,0.0202483
0.0410586,0.0325847
0.0424173,0.00262073
0.03204,-0.023987
0.0297149,-0.0186012
0.0131434,-0.0140841
-0.0136592,0.00336983
-0.0191283,0.0133253
-0.0113033,0.0113907
-0.00693282,0.0134863
-0.00949553,-0.0101187
-0.0134026,-0.0292136
-0.0662957,-0.0276674
-0.0958921,-0.0197655
-0.0689795,-0.0162218
-0.0111841,-0.00567086
0.0428733,0.00915146
0.0765103,0.0142149
0.0768574,-0.0049476
0.0434722,-0.0170131
0.0223048,-0.00360558
0.0328461,0.000944791
0.0140616,0.00160731
0.00125222,0.0196258
-0.0116289,0.0116207
-0.0165258,0.0159006
-0.0155925,0.00754854
7.06e-05,0.00620749
0.0101633,0.0236259
0.0102894,0.0266594
-0.000582429,0.0112723
-0.0235834,0.00635585
-0.0327298,0.00330313
-0.0289842,-0.0117687
-0.0228354,-0.0231634
-0.00111013,-0.0278133
0.0168879,-0.0145222
-0.00853912,-0.0158336
-0.0320686,-0.00409335
-0.0368077,0.0118221
-0.0355126,0.0141356
-0.0143288,-0.00285931
-0.00516654,-0.00309202
-0.00433964,0.00257299
0.0131092,0.00943784
0.02352,0.00958335
0.0268504,0.00564118
0.0329391,-0.00342528
0.0392259,0.00251327
0.0474557,0.0163813
0.0311199,-0.00246985
0.00831928,-0.0223238
-0.00584633,-0.0140453
-0.00641591,-0.00342777
-0.0112101,-0.00460122
-0.0122153,-0.00262028
-0.0118037,0.012739
-0.00589299,0.0140823
0.00543995,0.0170516
0.00522895,0.0159646
0.00423285,-0.000546116
-0.000349137,-0.00762624
-0.0245883,-0.000608907
-0.0423951,0.00233532
-0.0332242,-0.00154575
-0.00113994,-0.00350295
0.012922,-0.00964219
0.0140398,-0.038977
0.0157376,-0.0368111
0.0219532,-0.014046
0.012861,-0.00558293
0.00967138,-0.00198317
0.00382142,0.0078421
0.00256725,0.0191379
0.00343557,0.0208903
0.00102793,0.0280378
0.00555136,0.0204665
0.0198182,0.00334034
0.0088367,0.00122539
-0.0124296,0.0034687
-0.00702876,0.00351236
-0.00273541,-0.000467488
-0.0037056,0.00200134
-0.00658343,0.00230637
-0.0118514,-0.00980813
-0.0104391,-0.0205155
-0.00592695,-0.0247959
-0.00444953,-0.0202096
-0.00111289,-0.0169732
-0.00454702,-0.0211778
-0.01006,-0.0130999
-0.00468438,0.0134113
0.00229936,0.036994
0.00870199,0.0182585
0.0121313,-0.00173556
0.0283545,-0.0114539
0.0319728,-0.000635843
-0.00630429,0.0169669
-0.0367458,0.016374
-0.0485814,0.022591
-0.0464981,0.00732861
-0.0336177,-0.0243212
-0.0174059,-0.0243971
0.00105727,-5.49e-06
0.0218121,0.00312736
0.0281228,-0.00166424
0.0286566,0.00725123
0.0195506,0.00506837
0.0212541,0.00515562
0.0247944,0.00608189
0.0300476,-0.0127246
0.0213628,-0.00803709
0.00508284,-0.00238676
-0.0103213,0.0105637
-0.015853,0.0184447
-0.0203449,0.0150334
-0.00707188,0.00353356
0.00232534,-0.00696968
0.0145857,-0.023267
0.0138415,-0.0217841
-0.00249197,-0.0141182
-0.0101423,-0.0100207
-0.00644081,-0.00515836
-0.00599354,0.00952706
-0.0116424,0.0139027
-0.00533493,0.0152062
0.0083247,0.00799268
-0.00370092,0.00204829
-0.0613055,0.012713
-0.0899591,0.0181052
-0.0445676,0.00953764
0.0169648,0.00912147
0.0431672,0.0120168
0.0627624,0.00598873
0.0868333,-0.00562882
0.0853412,-0.0119089
0.0616748,-0.00540068
0.014886,-0.00720572
-0.0232489,0.00244058
-0.0448686,0.00948842
-0.0579554,-0.000793385
-0.0633961,-0.0132019
-0.0822343,-0.0152929
-0.0657595,-0.0290826
-0.00221574,-0.0205842
0.0361676,-0.00170338
0.0241035,0.00728461
0.0120418,0.0136648
0.0138364,0.0163224
0.00154048,-0.00137344
0.0246276,-0.0108252
0.0407219,-0.00839472
0.0144894,-0.0180364
0.00208113,-0.0247643
0.00293275,-0.0100094
0.00499803,0.00976813
0.00105552,0.021517
-0.0101418,0.0148313
-0.0111536,0.0100281
0.0177039,0.00280161
0.0258752,-0.00618011
0.0154449,-0.0081871
0.00526875,-0.0092399
-0.00919025,-0.0106852
-0.00689278,0.0132364
-0.0162445,0.0203721
-0.0201082,0.0103781
-0.0120067,0.0056273
-0.00402035,-0.00471604
0.00234363,-0.00517069
0.0015869,-0.00372709
-0.00429203,-0.000648684
-0.00974632,0.00335838
-0.00289497,0.0137475
0.00708977,0.0213861
0.00335871,0.0177559
0.00268341,0.00326606
0.0101686,-0.000801909
0.00814619,-0.00724262
-0.00022845,-0.00124748
-0.0103681,-0.00514484
-0.0192735,-0.00644031
-0.0129825,0.00263527
-0.000651019,0.000710919
0.00363052,-0.0131515
-0.00410903,-0.0231123
-0.00415632,-0.0188857
0.000255947,-0.0173446
0.00545669,-0.0146967
0.0112883,0.00919718
0.00637096,0.0309209
-0.0219056,0.0221783
-0.0589825,0.0122881
-0.0618507,-0.00330843
-0.0372164,-0.0164393
0.00826348,-0.00600487
0.0449246,-0.00636653
0.0537103,-0.00378245
0.0540597,0.0134011
0.0365999,0.0222307
0.0186561,0.00068344
0.0214279,-0.0303594
0.00981134,-0.0201988
-0.011038,-0.00494301
-0.0102881,-0.00370183
0.00103518,-0.00245184
0.000608174,0.00719947
0.00524703,0.0190744
0.00841024,0.0214441
-0.00995214,0.0137118
-0.0157059,-0.00843212
-0.00518041,-0.017527
0.00593806,0.00778915
0.00863756,0.0180089
0.00212006,-0.00267424
-0.00474739,-0.00268297
-0.00646092,0.00698562
-0.0196254,-0.00494575
-0.0225249,-0.0216904
-0.00333294,-0.0126227
0.00867257,-0.0133754
0.011698,0.000183454
0.010346,0.0120453
0.0143952,0.0150902
0.0223987,0.0150624
0.0232569,0.0123021
0.00635005,-0.002542
-0.0144036,-0.0162495
-0.0506568,-0.0193102
-0.116465,-0.0248049
-0.100842,-0.018548
-0.0295621,0.0240653
0.043548,0.0423365
0.0995684,0.0241173
0.101684,-0.00471885
0.0498575,-0.0210236
-0.0145683,-0.0171014
-0.0536679,-0.00225147
-0.0721003,0.0069966
-0.0559702,0.0153657
-0.000608311,0.0159655
0.050028,0.00649816
0.0655445,-0.00929497
0.0450785,-0.0278733
0.0247508,-0.00635251
0.0103679,0.0112226
0.012108,0.0146655
0.00460042,-0.0118542
-0.000193617,-0.00277335
-0.010272,0.000213145
-0.0118519,-0.0118218
0.00384703,-0.0183954
0.0183932,-0.0235036
0.0153382,-0.0198096
-0.0111941,-0.00711669
-0.029,-0.0123586
-0.0212324,-0.0174867
-0.00710115,0.00103889
-0.00365588,0.0212052
0.0016264,0.00625281
0.000864816,-0.00392858
0.00380228,-0.000936569
-0.00793514,0.00746104
-0.0102045,0.0314278
-0.00284648,0.0375601
0.00629316,0.0308952
-0.0042727,0.0330718
-0.0197069,0.0243925
-0.0190206,0.000143702
-0.028232,-0.00385547
-0.0343978,-0.00149177
-0.0248992,0.00199563
-0.00552642,0.0101231
0.0120765,0.00991256
0.025045,0.000810468
0.027763,0.00276157
0.0264066,-0.00798947
0.0198081,-0.0223326
0.00675705,-0.0195133
0.00372153,-0.0077016
0.0100155,0.00283201
0.00275668,0.00161278
-0.00363405,0.0076613
-0.0108118,0.00571324
-0.0306692,-0.00126759
-0.028495,-0.0138424
-0.0134165,-0.0133908
0.00513964,-0.0063634
0.0156586,-0.00425848
0.00476635,0.00301927
0.0105294,0.00592552
0.0280116,-0.00267519
0.0241492,-0.00874469
0.011554,-0.0250799
0.000215594,-0.0228449
-0.00659427,-0.00955592
-0.0115762,-0.00174814
-0.0130454,0.0031166
-0.00755167,0.00679232
0.00808454,0.00728141
0.0231583,0.00190842
0.0250819,-0.00397576
0.0383051,-0.00430012
0.0410057,-0.00625826
0.0107406,-0.0060931
-0.0478569,0.00836052
-0.0721972,0.0148082
-0.0626331,0.01359
-0.0448707,0.0113048
-0.014857,-0.0238369
0.0198278,-0.034142
0.0273517,0.00711047
0.0395309,0.00881479
0.0191726,-0.00640986
-0.0214796,-0.00594287
-0.0508296,0.0046129
-0.0575288,-0.00343438
-0.0313498,0.0117969
0.0262645,-0.0102064
0.0769491,-0.0286074
0.077124,-0.019373
0.0419397,-0.0115058
0.0098486,0.0118858
-0.00164223,0.0326419
-0.00422395,0.022024
0.0010251,0.00865092
0.00891946,0.00561684
0.0166157,-0.000189517
0.0149694,-0.00114085
0.0014928,0.0151171
-0.0265587,0.0157925
-0.0268637,0.0193495
-0.0268224,0.017751
-0.0253879,0.00793501
-0.0221099,0.00320826
-0.00468321,-0.00456603
0.0144095,-0.00784952
0.0209373,-0.0113457
0.0106203,-0.00703979
0.0111383,0.0022432
0.0113048,0.00351194
0.00346343,0.00119516
-0.0110928,0.00503846
-0.0716638,-0.00186221
-0.1251,-0.0147072
-0.0804166,-0.01269
0.00128906,-0.000287803
0.0490635,0.00363943
0.0929336,0.0168581
0.100166,0.0192028
0.0564954,0.00173633
0.0444018,-0.00377343
0.0190804,-0.00498366
-0.0200866,-0.00896459
-0.0246602,-0.0100323
-0.0300802,-0.0046378
-0.0378923,-0.00254492
-0.0149083,0.00228337
0.0161386,0.00413396
0.0191113,-0.00916126
0.0212638,-0.0166939
0.032182,-0.0139735
0.0208677,-0.00205811
-0.00419007,0.00764981
-0.0152229,0.0113805
-0.0135786,0.0183847
-0.0237922,0.0173905
-0.0256783,-0.00313116
-0.0188252,-0.0208084
-0.0345335,-0.0101999
-0.0398511,-0.00715441
-0.0238652,-0.0113612
-0.025827,-0.00980503
-0.0183926,-0.00243948
0.0132952,0.00832514
0.0378007,0.0140393
0.0464171,0.00873523
0.0339817,-0.0100225
0.0280447,-0.0151752
0.0164226,0.000778823
0.000837095,0.00667363
-0.0189099,-0.00261702
-0.0261946,-0.0152897
-0.0150385,-0.00499328
0.00209775,0.00626911
0.00518288,0.0010921
-0.00609532,0.00540289
-0.0125908,0.00354701
0.00388717,0.00440591
0.0170754,0.00669462
0.0190907,0.00687129
0.00844305,-0.0010576
-0.0100889,-0.0056989
0.00656684,0.00486767
0.0232842,0.00305169
0.0173432,0.00342371
0.00901369,0.00944795
-0.00158093,0.0110235
-0.0143325,0.00312774
-0.0241268,0.0033114
-0.0181819,0.0160757
-0.0108786,0.00229561
-0.00772424,-0.019881
0.00133383,-0.0137274
0.0144312,0.00062456
0.0148092,0.00548724
0.00168773,-0.000263726
-0.00613033,-0.00114271
-0.0044137,0.00033647
0.00313953,0.00348269
0.0199739,-0.0165093
0.00377818,-0.0107834
-0.0227051,0.0136298
-0.00494766,4.85e-05
0.0113539,0.00209527
0.00618794,0.0167007
-0.0119088,0.015637
-0.0162996,0.00197154
-0.00965729,-0.0193458
0.0060457,-0.021451
0.0114798,-0.0131653
0.0187986,-0.0119468
-0.0141909,0.00292688
-0.0937034,0.00854015
-0.115559,0.00411659
-0.0729071,-0.00182827
-0.00254043,-0.000303383
0.072494,9.61e-05
0.123777,-0.0023289
0.128847,0.00745426
0.0749724,0.023544
0.0128118,0.0201101
-0.0244836,0.0147043
-0.0407199,0.0116214
-0.0405074,-0.0033694
-0.039286,-0.0058172
-0.0146526,-0.0117976
-0.00048013,-0.0163524
0.00787537,-0.0170467
0.0196102,-0.0169496
0.0194262,-0.0134047
0.0135053,-0.0122369
0.00942905,-0.00214128
0.0104386,-0.0118299
0.0127168,-0.0132803
0.011435,0.00239401
0.00234902,0.00830086
-0.00923716,0.012153
-0.0135448,0.0222519
-0.00958416,0.0139401
-0.00461328,-0.000715169
-0.00522832,-0.0114702
-0.00826066,-0.0185994
-0.00439985,-0.00710418
0.00650633,0.00301688
-0.0211097,0.014678
-0.0977333,0.0215071
-0.102701,0.0137124
-0.0450588,0.00111191
0.0266005,0.000941788
0.0862278,-0.00569438
0.112618,-0.010444
0.0901543,-0.000279273
0.0277371,0.00221411
-0.0139951,0.00298097
-0.0191159,0.0147005
-0.0106647,0.0237982
-0.00803229,0.0162411
-0.0262845,-0.00520151
-0.0340719,-0.0170789
-0.0173902,-0.00987433
0.00816113,-0.0099843
0.0191338,-0.00802282
0.0208199,0.00917941
0.0159285,0.00169946
0.00698198,-3.47e-05
0.00918308,0.00906816
0.00205585,-0.00487381
-0.0110038,-0.00935578
-0.0257179,0.00100292
-0.0333732,0.000873475
-0.0319285,0.00155068
-0.0280501,-0.0021786
-0.0188367,-0.00766246
-0.0106921,-0.013578
-0.00277731,-0.0125814
0.000489357,-0.0127029
0.0126144,-0.0100724
0.0296218,0.00948736
0.041236,0.0168893
0.049901,0.0068423
0.0333012,0.00247038
-0.00322877,0.00443612
-0.0149943,-0.00358997
-0.0127864,-0.0151589
-0.0449998,-0.00711959
-0.0712486,0.00524105
-0.0278833,0.0187502
0.000106063,0.0147498
0.0168142,0.0114186
0.0384779,-0.00229555
0.0465506,-0.0149678
0.0367842,-0.0182444
0.00948695,-0.00247163
-0.00554458,0.00279892
-0.00815118,0.00460744
-0.00262295,0.0141136
0.0125997,0.0149794
0.00883724,0.00879713
0.0016945,0.00206734
-0.00287868,-0.0131322
0.00228134,-0.0177882
-0.0018511,-0.00374637
-0.00595209,0.0057964
-0.0108463,0.00631825
-0.0106899,0.00955433
-0.0113665,0.00723583
-0.00674775,-0.0160728
0.0067908,-0.0236056
0.0121642,-0.00647457
-0.00939944,-0.0198231
-0.0244509,-0.0158564
-0.0063825,0.0145399
0.0163487,0.0257415
0.00658145,0.00519962
0.00743344,0.00540188
0.0116894,0.00625327
0.0161462,-0.0100677
0.00916255,-0.00927912
-0.0117913,3.59e-05
-0.0388802,0.00744225
-0.0756115,0.00926022
-0.0961364,-0.00400842
-0.0625371,0.00687396
-0.00575219,0.0114139
0.0596962,-0.00460945
0.0893687,0.0131771
0.081259,0.0139637
0.0650193,-0.00315143
0.03901,-0.00656738
0.00484576,-0.00191113
-0.00524363,0.00251118
-0.00409619,0.008767
-0.00292062,-0.0079196
0.00791379,-0.0210783
0.00754433,-0.0186342
-0.00250301,-0.00905176
-0.0110116,0.000129782
-0.0175417,0.0029523
-0.0107832,0.0132259
-0.0054466,0.0125124
-0.00599915,-0.00392005
-0.00345753,-0.0121042
-0.00960939,-0.0104718
-0.0214778,-0.00560835
-0.0297559,0.0125601
-0.00476997,0.0318353
-0.00931229,0.0222068
-0.0570644,0.0019767
-0.0710398,-0.0105507
-0.0332699,-0.0218403
0.0252014,-0.024719
0.0705613,-0.0199431
0.0766836,-0.00820908
0.0539167,-0.00763222
0.0263056,0.000767634
0.00625597,0.0120821
0.00052512,-0.000152041
-0.000857202,-0.0145077
-0.0110527,-0.0196811
-0.0041906,-0.00940546
0.0182254,0.00217477
0.0352814,-0.00750431
0.0344641,0.000783743
0.0319713,0.0190996
0.019613,0.0208752
-0.00327202,0.0121844
-0.00941354,-0.00532802
-0.00917359,-0.00336033
-0.0236582,0.013501
-0.0675401,0.0136863
-0.140572,0.00986074
-0.148766,0.0086698
-0.115192,0.0291619
-0.042215,0.0152961
0.0337674,-0.0199203
0.0804698,0.010404
0.0965213,0.0190393
0.0716619,0.00699143
0.0309682,0.00841689
0.00307846,0.00940235
-0.00473126,0.00410263
0.0116847,-0.000116773
0.022806,-0.00628825
0.0205721,-0.0111218
0.0146965,-0.0112107
0.00617074,-0.00570691
0.00086035,-0.0012253
0.0155601,-0.0011034
0.0166,0.00792484
-0.00550864,0.00941826
0.00184289,-0.00733791
0.00985185,-0.0184323
0.00968638,-0.00835421
0.010421,-0.00625674
0.00787453,-0.00916
-0.00314476,0.00363452
-0.0241388,0.0125487
-0.0356583,-0.000362398
-0.0253815,-0.0089681
-0.0103641,-0.0107988
0.000455108,-0.0115998
0.00629282,-0.0127246
0.0211336,-0.0120087
0.0254653,-0.00773864
0.00379144,-0.00211715
-0.0193267,0.0119191
-0.0259969,0.00289761
-0.0192197,-0.00991265
-0.012982,-0.00646011
0.0144523,-0.00085481
0.0231699,-0.00125712
0.00914845,0.00840643
0.0009916,0.0210874
-0.00132098,0.0147351
0.000682075,0.00655491
0.00760698,-0.00442353
-0.00784871,-0.0217595
-0.0370244,-0.0303669
-0.032915,-0.0243141
-0.0140336,-0.0104161
0.00706705,0.0174723
0.0360387,0.0136715
0.0564463,0.0214732
0.0417813,0.018512
0.00565936,-0.000320395
-0.0131957,-0.0028003
-0.0184684,-0.00575678
-0.019947,0.0115158
-0.0188527,0.0246008
-0.0146405,0.00507028
-0.00444775,-0.00478273
0.00505824,-0.00239344
0.01131,-0.00996042
0.0144167,-0.0152446
0.0099452,-0.0112535
0.00809589,-0.00127964
0.0104351,-0.00330185
0.0101192,-0.00244497
0.0017939,0.000480963
-0.00838354,0.00234402
-0.0138252,0.00331735
-0.0227887,-0.00538476
-0.0237727,0.0048973
-0.0263108,0.0121976
-0.0293807,0.015054
-0.0144469,0.00813295
0.00196756,-0.00653968
0.0153863,-0.0120675
0.0211266,0.0025459
0.0249884,0.000753653
0.0198321,-0.0132433
0.0121596,-0.0107204
0.00426953,0.00143362
0.00591473,0.00365801
0.000251089,0.00385331
-0.0161693,0.00801926
-0.0260586,-0.00285397
-0.0105417,-0.0187799
0.00705708,-0.0045369
0.0145682,0.0068787
0.0182704,0.0104153
0.0145419,-0.0179147
0.00374302,-0.0201326
-0.0101478,0.0384434
-0.0123802,0.0452033
-0.000557058,0.0108405
0.00881008,-0.022941
0.0166612,-0.0218575
0.000536552,-0.00656923
-0.00240859,0.00363963
0.0200966,0.00820173
0.0175516,0.0103733
-0.00153811,0.00669355
-0.0017521,-0.00516828
0.00714559,-0.0271964
-0.0142427,-0.016367
-0.0591185,-0.0025255
-0.0473844,0.00601231
-0.0429773,0.0154244
-0.0711101,0.0316385
-0.0477112,0.0196944
-0.00493042,0.00564425
-0.0170652,-0.00642987
-0.00146988,-0.0156522
0.059733,-0.00675331
0.099329,-0.00190774
0.0751704,-0.00451789
0.0415628,0.00297279
0.0258864,0.0122647
0.00733527,0.00906284
-0.000268102,-0.00567496
0.0195994,-0.0173083
0.0219435,-0.0162461
0.0115363,-0.023465
0.00383168,-0.00681351
-0.00417262,0.020189
-0.0108165,0.0217214
-0.0103233,0.0126287
0.00374688,0.00758247
0.0129756,-0.00332999
-0.0148808,-0.0141645
-0.0340607,-0.00804739
-0.0286963,0.000895321
-0.0165876,0.00299355
-0.012162,0.00810976
-0.0151961,0.0177318
-0.0108985,0.00748594
0.000631548,-0.0153446
0.00701551,-0.0267318
0.00755766,-0.00972352
0.00454673,-0.00320049
0.000373444,-0.00379169
-0.00636346,-7.29e-05
-0.0233292,-0.00872883
-0.051171,-0.00628313
-0.0656553,-0.00186882
-0.0432857,-0.00778523
-0.00497352,-0.00709009
0.0311336,0.00122436
0.0589283,0.000983711
0.0548166,0.000839095
0.0322133,0.00492681
0.0144067,0.0105522
0.00402345,0.00480326
0.00509322,-0.00602413
0.0138255,0.00872138
0.0127934,0.0142341
-0.00225867,0.0174165
-0.0078762,0.0267891
-0.00672113,0.0328354
0.00275584,0.00203084
0.0173286,-0.00759378
0.0155053,0.000274154
0.00855931,-0.0140878
-0.00202425,-0.0234695
-0.0165558,-0.017278
-0.0164371,-0.0100924
-0.0158908,-0.00359267
-0.0153268,0.000942199
-0.0149697,0.00318658
-0.0119518,-0.0104158
-0.00466441,-0.0164426
0.0023109,-0.00360673
0.00884208,-0.00199733
0.007625,0.000767253
0.00435309,0.0123335
3.76e-05,0.0157276
-0.00202293,0.0144542
0.000380594,0.00440407
0.00617262,-0.0115568
0.00366921,-0.0166803
0.00411938,-0.000266095
0.00408124,0.0148341
-0.00440862,0.00912413
-0.0100237,0.00787754
-0.0102878,0.0101152
-0.00885024,0.00187179
-0.00464869,-0.0157799
0.00566887,-0.0026848
0.00707463,0.00824976
0.0104838,0.00637316
0.0100393,0.00333076
0.00233417,0.00649583
-0.0020007,0.00450271
-0.00121631,0.00147023
0.000526245,-0.00352265
0.0012848,-0.0187997
0.00217947,-0.020534
-0.0062792,-0.00536888
-0.0113041,-0.00284185
-0.0131036,-0.00468408
-0.0162389,-0.0147251
-0.0153671,-0.0215105
-0.0043949,-0.00203897
0.00586062,0.00489801
0.0109428,0.0124722
0.0147488,0.014643
0.0168111,0.010804
0.0141545,0.0124885
0.00853955,0.0078003
0.00537925,-0.00339967
0.00419371,-0.00823159
0.00699653,-0.0151654
0.015024,-0.0122454
0.00859887,-0.00255163
-0.00239711,0.00500059
-0.00524045,0.00348786
-0.00618938,0.0075235
-0.00750782,0.0173281
-0.00943665,0.016074
-0.00553226,0.00707036
-0.00315687,-0.00817105
-0.00694125,-0.0113532
-0.0063911,-0.0108365
-0.00102725,-0.000638745
0.00265296,0.00948156
-1.7e-05,0.0227102
0.00245945,0.00674711
-0.00508055,-0.00304223
-0.0374198,0.00683443
-0.0414351,-0.00974884
-0.0286377,-0.0203513
-0.00475601,-0.00980239
0.0268076,-0.0101613
0.0418587,0.00815257
0.0330545,0.0246806
0.0130618,0.0128
-0.000584843,-0.00300955
-0.00334234,-0.0116105
-0.00535309,-0.00990211
-0.00532423,-0.00896313
0.0163559,-0.00271432
0.0491967,0.00518013
0.0432161,0.00258763
0.0279394,0.000482947
0.0154813,-0.00489262
-0.00268882,-0.0137526
-0.0203945,-0.0135745
-0.0373363,-0.00199756
-0.0397086,0.00467617
-0.0331955,0.0060474
-0.0297557,0.0131542
-0.0337923,0.0175374
-0.028131,0.00558747
-0.0200065,-0.0107374
-0.0155837,-0.00446532
-0.00227966,-0.00091983
0.0172265,0.00145379
0.01888,0.00656912
0.0196733,0.00888078
