Comp Ch 3,Comp Ch 4
0.014459,0.0612713
0.0269309,0.087683
0.0328707,0.101693
0.0333056,0.0651268
0.0304036,0.0630208
0.0211817,0.0904129
0.0173433,0.0294756
0.00720622,-0.0404921
-0.0107633,-0.0174046
-0.0200788,-0.0539393
-0.0202549,-0.0620691
-0.00651209,-0.0913969
0.0358703,-0.0414702
0.0383713,0.0247928
0.0106302,0.0259906
-0.00555382,-0.0180144
-0.00472167,-0.0635344
0.00473322,-0.068068
0.0134227,-0.0535215
0.0216203,-0.00365197
0.0172923,0.0254021
0.0199392,0.0439866
0.0255848,0.0289464
0.0207947,0.00858793
0.00614886,-0.0494322
-0.0421668,-0.0372415
-0.126414,-0.0433014
-0.11817,-0.0514247
-0.0708878,0.0398619
0.0148345,0.0846545
0.0725846,0.0605158
0.116654,0.0498798
0.158963,0.014473
0.0720222,-0.0290764
-0.0179473,0.0246465
-0.0390487,0.0191581
-0.0729072,0.00875915
-0.115833,0.0119023
-0.093834,0.00335275
-0.0912048,-0.00738703
-0.113873,-0.0125764
-0.0687948,-0.0124425
0.0200248,-0.0106407
0.11442,-0.0299767
0.157275,-0.0182667
0.129037,0.0301162
0.0549934,0.0454933
0.0149542,0.0290416
-0.00108375,0.0306181
-0.00893347,-0.02373
-0.01044,-0.0216292
0.0334312,-0.000752528
0.0487306,0.00509163
-0.0133347,0.0147933
-0.0939114,0.00525219
-0.0964229,-0.00640777
-0.0324552,-0.0236325
0.0340501,-0.041231
0.0426113,-0.03296
0.0462211,0.0012055
0.0208098,0.00535553
-0.0235504,-0.000875492
-0.0896179,0.000685613
-0.168437,0.0170169
-0.100691,0.00279505
0.0234021,0.00954044
0.0944132,0.00504951
0.117914,-0.0106964
0.105059,-0.00474056
0.0776043,0.00917405
0.0618828,0.0108429
0.0419495,0.0152631
0.0151486,-0.0119703
-0.00355843,-0.0240348
0.00410528,-0.0262979
0.00335412,-0.0439445
-0.0174296,-2.89e-05
-0.03122,0.00595279
-0.0437512,0.0170657
-0.0442895,0.016073
-0.0297476,0.0483593
-0.0363441,0.0206265
-0.0483158,-0.019506
-0.0414993,-0.0360733
-0.0239718,-0.0133042
0.00457886,0.0470733
0.026331,0.0380912
0.0314141,0.0240948
0.0269919,0.0227122
0.0189801,-0.00287591
0.0204795,-0.026222
0.030954,-0.0122019
0.0127463,-0.016572
-0.0102017,-0.0133534
-0.0248929,-0.0143039
-0.0392821,-0.0251589
-0.0366547,-0.0360567
-0.0178776,0.0343305
-0.0165701,0.0207554
-0.0107772,0.00421224
-0.0075286,-0.0130956
-0.00985123,-0.00574863
-0.00954448,-0.016862
0.00268528,-0.000907709
0.0316832,0.0287891
0.0348848,0.00219314
0.0108418,-0.0315675
-0.000318456,-0.0230099
0.00921129,-0.0114347
0.0258929,-0.0215829
0.0197784,0.0012493
0.00280558,0.0127889
-0.0140078,0.0662759
-0.0519638,0.0332184
-0.0723324,-0.00928791
-0.110622,-0.0397373
-0.113444,-0.0197572
-0.043425,0.0216776
0.0637308,0.0377063
0.141079,0.0204971
0.126569,0.0181473
0.108045,-0.00167732
0.0944086,0.0430779
0.0357146,0.029199
-0.0151408,-0.0221221
-0.0341879,-0.030908
-0.0249624,-0.0267719
-0.00720478,-0.0138739
-0.00761526,-0.00876086
-0.0156508,0.000704641
-0.029511,-0.00859452
-0.0347325,-0.0289033
-0.019743,-0.0138003
-0.0211689,0.00662103
-0.0556944,-0.00773435
-0.0771632,-0.00586922
-0.0625033,-0.0148724
-0.0297926,0.0233143
0.0163989,0.0459059
0.0648701,0.0209519
0.0656403,-0.011231
0.0459614,-0.00711816
0.0275386,-0.0311326
0.0112538,-0.0162365
0.0205637,0.00984536
0.0263998,0.019481
0.00841892,0.0144512
-0.00309876,0.00593207
-0.00352046,-0.00805683
-0.000379769,-0.0276685
0.00665917,-0.0275677
0.0143102,-0.0159257
0.00433637,0.00893907
-0.0386932,0.0281637
-0.0516694,0.0288204
-0.0447955,0.0348731
-0.0306553,0.0277168
0.0241926,-0.0198886
0.0632374,-0.0341346
0.0525894,-0.0227609
0.0170924,-0.0296452
-0.0246387,-0.0237043
-0.0147555,0.0199784
-0.00670057,0.00212983
-0.0178592,-0.00757547
0.00145653,0.0162928
0.0297888,0.0144703
0.0163291,0.00502892
0.0095904,-0.0110533
0.0336965,-0.014331
0.0289145,0.0591704
-0.0040226,0.0467326
0.00166758,0.0342731
0.0224303,-0.000667362
-0.0125535,-0.038554
-0.0763176,-0.0486249
-0.105884,-0.0620573
-0.0817516,-0.0606372
-0.0541793,-0.01681
-0.000290106,0.0261747
0.0311869,0.0186078
-0.00768442,0.0164587
-0.0029083,0.00441673
0.0453975,-0.00912492
0.0601174,0.00421126
0.0342161,0.0209162
-0.0128714,0.0241829
-0.0189168,0.0249052
0.0182121,0.0126207
0.0493236,-0.00147646
0.08153,-0.011377
0.0867774,-0.014417
0.0614773,-0.00958828
0.0435164,-0.00214199
0.00749572,0.00349533
-0.0269193,0.00934675
-0.0702704,0.00735613
-0.106453,-0.00369887
-0.0945705,-0.0160039
-0.0791642,0.00456098
-0.150582,-0.00676601
-0.198259,-0.0159459
-0.117276,-0.00781857
0.0248204,0.0210296
0.14895,0.03158
0.186601,0.0370249
0.15401,0.020262
0.123674,-0.0296717
0.0810581,-0.0480993
0.043102,-0.0152499
0.0218505,-0.010568
-0.00747667,-0.00240399
-0.0220095,0.0244362
-0.00907854,0.020897
0.00185838,0.0126368
0.00658232,-0.00320075
0.00104202,-0.0303568
-0.0179884,-0.0366725
-0.0281272,-0.00485729
-0.0239188,0.0237053
-0.0170068,0.0212194
-0.0270133,0.0326409
-0.0435697,0.0205441
-0.0491747,0.0106874
-0.0435044,-0.00857194
-0.0162702,-0.00618355
0.0130424,0.00257884
0.0129411,-0.00659699
-0.00775615,-0.0292804
-0.0118833,-0.0535373
0.0079762,-0.00200508
0.00919464,0.0218115
0.000623106,-0.0130962
0.000652996,-0.028228
0.00638421,-0.023773
0.0200135,0.0173261
0.00836275,0.0557998
-0.00207035,0.0290146
-0.00404587,0.0201301
-0.000706285,0.0135801
-0.00404938,-0.00413026
0.00605811,-0.0207977
0.0346247,-0.0230332
0.0402775,-0.0055884
0.0162394,0.0173964
-0.0225193,0.00552798
-0.0503153,-0.00216311
-0.0514761,0.036035
-0.0520196,0.0071445
-0.0212102,-0.0143689
0.0341239,-0.030431
0.0519212,-0.0149868
0.0227512,-0.00044698
-0.0106249,0.00529836
-0.0450806,0.004782
-0.054705,0.0171747
-0.0477559,0.00420706
-0.0202264,-0.032775
0.00627632,-0.00973281
0.0485355,-0.0127583
0.0732862,0.00134513
0.0560219,0.00733023
0.0231793,0.0283605
0.0078026,0.0332107
0.0103014,0.0301357
0.0127622,0.0126012
-0.00344847,-0.0531447
-0.0146407,-0.0676762
-0.00394123,-0.0065365
0.0217177,0.0255398
0.0287655,0.0199695
0.0137856,0.0235078
-0.000658837,0.0267401
-0.00817029,-7.7e-05
-0.011262,-0.0317849
-0.0213603,-0.0138729
-0.0262475,-0.00878407
-0.0251886,-0.000410521
-0.0242125,0.0192756
-0.0409024,0.0270003
-0.0711942,-0.0140303
-0.0843228,-0.0277191
-0.036114,-0.0257515
0.0376964,-0.0307654
0.103251,0.0072249
0.109097,0.0115782
0.0695787,0.00170687
0.0504045,0.0125718
0.0239712,0.0281655
-0.0270223,0.0278849
-0.0617574,0.000886904
-0.0517511,-0.0201351
-0.0142386,-0.0103561
0.0233748,-0.00399155
0.0293521,0.00321799
0.0252737,0.0138832
0.0269389,0.0294868
0.0112879,-0.0155871
0.00962116,-0.0105096
0.00769481,-0.0255605
0.00810389,-0.0246046
0.000949405,-0.00628507
-0.0109809,-0.00507721
-0.0262751,-0.0124339
-0.0406915,-0.011435
-0.0461639,0.0143358
-0.0450003,0.0274712
-0.0251073,-0.00860569
-0.0162089,-0.0158927
-0.068962,0.0205511
-0.0606186,0.0265241
-0.0235602,0.0266343
-0.00250007,0.0215883
0.0405643,0.0295383
0.0686112,0.00914497
0.0754204,-0.0374235
0.0729642,-0.0697259
0.0875054,-0.0131056
0.0606584,-0.00239147
0.00577963,-0.00305669
-0.00813051,-0.00896576
-0.0194428,-0.00795289
-0.0131863,0.02926
-0.000221893,-0.00716895
0.00123676,-0.004619
-0.0124769,-0.00104403
-0.035345,-0.0113365
-0.0440027,0.00767946
-0.0464883,0.0229601
-0.0411893,0.0311709
-0.0326993,0.0168934
-0.0383584,0.0293387
-0.00935207,0.00108541
0.0328452,-0.0303748
0.0681312,-0.0204909
0.0440397,-0.0026521
-0.0339671,-0.0271134
-0.0832056,-0.0438616
-0.0777302,-0.0123988
-0.0108689,0.0495243
0.0726688,0.0267462
0.0944616,-0.00645331
0.0655671,0.00121737
0.0632237,0.00919571
0.0561108,0.00771558
0.00695915,0.014182
-0.0187791,0.0153183
-0.0224557,0.0117458
-0.0147015,0.000620362
-0.0174808,-0.0214924
-0.0356292,-0.0329781
-0.0450749,-0.019335
-0.0169791,-0.00286696
0.00442998,0.00105575
-0.00516611,-0.00438474
-0.00274253,0.0337333
0.0119548,0.0220806
0.00827083,-0.0391577
0.00325231,-0.000459159
-0.00586043,0.029928
-0.0166662,0.00562123
-0.0229362,-0.00318754
-0.0257675,-0.00608105
0.00757413,-0.0105288
0.0244999,-0.0124809
-0.0186814,-1.86e-05
-0.0334634,0.000502605
-0.0284096,-0.0317418
-0.0393248,0.019386
-0.0103226,0.00596994
0.0343789,0.001711
0.0517196,0.0127922
0.0476796,0.0226453
0.0214733,0.00691822
0.00165818,0.000653238
0.0136959,-0.00609841
0.0117355,-0.0118805
0.00692853,-0.032838
0.00164929,0.0168202
0.00530545,0.032094
0.0237114,0.0274238
0.0210325,0.0087229
0.00866598,-0.0149892
0.0100763,-0.0276408
0.00811573,-0.0236473
-0.0176986,-0.00750863
-0.032973,-0.0011976
-0.0428397,0.00159186
-0.0404337,-0.00741131
-0.0210381,-0.0354789
-0.0306655,-0.0647556
-0.0344227,-0.0282462
-0.0339657,-0.0109556
-0.00685725,0.0133169
0.0115204,0.0434836
0.0167994,0.0464737
0.0445562,0.0550076
0.0730986,0.0523356
0.0638556,0.0197153
0.0243959,0.00949195
-0.00659493,-0.000335315
-0.016142,0.0004649
-0.0172076,-0.0208408
-0.00690535,0.00178694
-0.00638121,0.0165464
-0.0142771,-0.00294274
-0.0168947,-0.0551386
-0.016323,-0.0614628
-0.0147485,-0.0460238
0.00457039,-0.0185272
0.0164504,0.0086216
0.0064628,0.0447038
-0.0132269,0.0458253
-0.00954141,0.043338
-0.00472711,0.0339656
-0.00845432,0.0132575
-0.00454482,-0.0135974
-0.0101848,-0.0236513
-0.0274744,-0.0223654
-0.00888861,-0.0519931
0.0462696,0.00395608
0.063754,0.0351966
0.0521976,-0.0122142
0.0405658,-0.0414567
0.00758128,-0.0329454
-0.0120287,-0.0271224
-0.0164271,-0.0150707
-0.0166496,0.0255633
-0.0331084,0.0366153
-0.0471757,0.0442067
-0.0886497,0.0431716
-0.0798527,0.0182218
-0.0103052,-0.00247917
0.0402365,-0.0138422
0.0416855,0.0131739
0.032734,1.21e-05
0.024863,-0.0125281
0.00534168,-0.0296324
-0.000565958,-0.0177539
-0.0113681,-0.0245298
-0.00540232,-0.0227214
0.0396856,-0.00283796
0.0629555,0.00131143
0.0252616,0.000199113
-0.0508,0.0116436
-0.0908669,0.0335261
-0.0524187,0.0338542
0.00754343,0.0336599
0.0481292,0.0151183
0.0616558,-0.0113522
0.0740822,0.00732564
0.0499757,0.0194156
0.0171856,0.00910492
-0.00112039,8.05e-05
-0.0155337,0.000185808
-0.0263022,-0.0378058
-0.0216887,-0.0763456
-0.0086575,-0.0482696
-0.000573446,-0.024065
0.0113002,-0.0017492
0.00164502,0.013673
-0.0394567,0.0298556
-0.0399309,0.0369253
-0.00833653,0.0361796
0.00848987,0.0267152
0.0275176,-0.000897122
-0.00592855,-0.0132367
-0.0386991,0.00647776
-0.0409604,0.00318787
-0.0300649,-0.0134781
-0.0114621,-0.0171303
0.00804474,-0.0212463
0.0394565,-0.0182951
0.0334949,-0.0242997
0.00684858,-0.0172777
-0.00278721,-0.0105475
-0.00316266,-0.000949418
-0.0060557,0.0203795
0.00156027,0.032278
0.00801654,0.020396
0.0207628,0.0239964
0.0401519,0.017553
0.0257032,-0.0067309
0.00206944,-0.00731786
-0.00136771,0.00772057
0.00101402,0.00985608
-0.0109279,0.00693236
-0.0216532,0.0100175
-0.0225878,0.0043529
-0.0154133,-0.0214926
-0.00496874,-0.0375648
0.00330074,-0.0271811
-0.00589074,-0.0293319
-0.00332118,-0.00255123
0.0119193,0.0164726
0.00911423,0.0132825
0.0121916,0.0163313
0.0130495,0.0151812
-0.00088416,-0.00509347
-0.0121105,-0.0233282
-0.012508,-0.00866301
-0.0162776,0.00803076
-0.0158165,-0.00137545
-0.00705068,-0.00775795
-0.00596336,-0.00422781
-0.00133079,0.0119668
0.00854062,-0.00464634
0.014101,-0.00594248
0.00796374,-0.0057287
-0.00261825,-0.00508074
-0.00850682,0.0101675
-0.0168683,0.0217995
-0.0230936,0.0180652
-0.00732085,0.0158854
0.00792588,0.0157481
-0.00411703,-0.00610396
0.00128729,-0.0178475
0.0046597,-0.0036761
-0.000361156,0.0163544
-0.000960781,-0.00292416
-0.00579016,-0.0228044
0.00880734,-0.0123104
0.00726395,-0.0173734
0.00864421,0.00323632
0.0291847,-0.00744571
0.0426272,0.00245734
0.0168326,0.00777017
-0.00117442,0.0103228
-0.0046508,0.0174199
-0.000547556,0.00331444
0.0152013,-0.00448196
0.00266147,-0.0222515
-0.0105299,-0.0110875
-0.0336103,0.00905603
-0.0965252,0.0077055
-0.104037,0.0150756
-0.0613584,0.0129067
-0.000278215,0.0365865
0.0533293,0.0289308
0.0818318,-0.00250741
0.0593622,-0.0333865
-0.015268,-0.0224295
-0.0394096,-0.00338517
-0.0144906,0.00827709
0.0202779,-0.00335884
0.0670774,0.000121816
0.0706273,0.0066899
0.0583594,0.000228925
0.0442115,-0.0211358
0.0310612,-0.0163862
-0.024863,-0.00206504
-0.0631838,0.0177874
-0.0570041,0.0130437
-0.0167331,0.00892634
0.0197704,0.0113773
0.0291741,-0.00719191
0.0178332,-0.0416388
-0.0142508,-0.0433192
-0.0293459,-0.0203762
-0.0337584,0.00221369
-0.00764018,0.0176048
-0.00315666,0.0325361
0.0100622,0.0297417
0.0224545,0.0189701
0.0226737,0.0140849
0.0199722,-0.00486218
0.00383615,-0.0215084
-0.00569287,-0.00957466
0.0163883,0.00370221
0.0366454,0.00494684
0.00905445,0.011288
-0.0182192,0.0165365
-0.0253577,0.000971987
-0.0244356,-0.0193664
-0.0163787,-0.0253739
-0.0201521,-0.0208332
-0.0281143,-0.0141785
-0.0334479,-0.0125634
-0.0282706,-0.0277901
0.00594911,0.0147565
0.0219567,0.0204329
0.0111786,0.0291662
0.00771072,-0.000135084
0.00731065,-0.00752329
0.00456224,0.00876533
0.00418388,0.0142054
-0.00240042,0.0100711
-0.0105798,0.00850515
-0.0135012,0.00852277
-0.0120715,-0.013198
-0.00402714,-0.0248985
0.00639506,-0.000657453
0.00813232,0.00945004
-0.000145851,0.00292546
0.00207918,0.0110914
0.00437154,0.0196024
0.00153129,0.00496671
-0.00614317,-0.0158083
-0.0148067,-0.0299259
0.000503813,-0.016231
0.0138833,-0.00605527
0.0127927,0.000764144
0.00766231,-0.000155853
0.00227106,0.00226122
0.000503904,0.00848924
0.00317415,0.0114292
0.00643909,-0.00104557
0.00900399,-0.0106844
0.00314003,-0.00121745
-0.0105083,-0.00308169
-0.0240095,0.00543732
-0.0188773,0.000186216
-0.00502389,0.0172582
0.00953616,0.0491241
0.0291692,0.0137934
0.0281437,-0.0217153
0.00757359,-0.0296118
-0.00729278,-0.0080328
-0.0143155,0.000339001
-0.0126833,-0.00857876
-0.0023049,0.00816656
0.00278505,0.0182607
-0.00575199,-0.00295005
-0.015252,-0.0534178
-0.0147433,-0.0135138
0.0146711,0.020014
0.027556,0.00329324
0.0205822,0.0199893
0.0121763,0.0342596
-0.0311713,0.0210703
-0.0496273,0.00820191
-0.0516042,-0.00863606
-0.04105,-0.0290853
-0.00668024,-0.0302177
0.0354643,-0.0144116
0.0536362,-0.0128086
0.0358674,-0.0150936
0.0102181,-0.00144973
0.00198394,0.00868378
-0.00391184,0.00947382
-0.00620119,0.00376268
-0.0057067,-0.00370284
-0.0285584,-0.0292984
-0.0524028,-0.0303789
-0.0137475,0.00109014
0.0306777,0.0619232
0.0331243,0.0548849
0.031576,0.0193866
0.0484946,-0.00386854
0.050078,-0.0193944
0.0430928,-0.0116966
0.0232464,-0.00174524
0.0060205,-0.00297845
-0.00616302,0.00408381
-0.0105576,0.0240394
-0.0131155,0.0217554
-0.00879997,0.00278411
-0.0121173,-0.0207439
-0.0165039,-0.0211827
-0.0148282,-0.00913527
-0.00890995,0.00856859
-0.0043223,0.0221132
-0.00448194,0.0359011
-0.0041002,0.0116901
-0.0079369,-0.00181476
-0.00798111,-0.0259512
-0.00669956,-0.0420384
-0.00682223,-0.0293282
-0.00434521,-0.0112883
-0.000709396,-0.00925926
-0.00199113,-0.00226282
-0.00488389,0.0159302
-0.00160583,0.0203512
0.00172162,-0.00272841
-0.00162912,-0.0134071
0.00949415,0.0137675
0.0150604,0.00049726
0.0136869,-0.00632153
0.00934014,0.0211607
0.00504323,0.00105192
0.00466519,-0.0130092
-0.0171429,-0.0171304
-0.102837,-0.0360074
-0.172779,-0.038443
-0.129686,-0.00489762
-0.0405598,0.00547788
0.0431066,0.0105399
0.0977401,0.021208
0.125087,0.0222813
0.121396,0.00247904
0.0687378,0.00146762
0.0224104,0.00588522
-0.00287846,0.00946863
-0.00841318,0.0200389
-0.00561029,0.0217993
0.0109609,0.01772
0.0218191,0.00958966
0.0115266,-0.00352389
0.00605673,-0.0194442
0.00571721,-0.0152055
0.00334142,-0.026489
-0.00695533,-0.0191027
-0.0258488,-0.00849702
-0.0397498,0.00204263
-0.0692109,0.0191738
-0.0804082,0.0247528
-0.0372229,0.0072825
0.00794961,-0.00687455
0.023,0.00298423
0.0265005,0.00710551
0.0344362,0.0148593
0.0359829,0.0102794
0.017713,0.000142668
-0.00323723,-0.00513287
-0.001925,0.0121372
0.00219339,-0.000372766
0.00709487,-0.0193158
0.00767559,-0.0154479
0.00369907,-0.00694675
0.00456677,-0.00528154
0.0117357,0.00270149
0.0116018,0.00730613
-0.00101078,0.00923651
-0.00722207,-0.000970864
-0.0075198,-0.00588424
-0.0130416,0.00367639
-0.0145948,0.00108633
-0.00993805,0.00439312
-0.00176253,0.0156985
0.0112504,0.0151533
0.0116556,-0.00439804
0.00432761,-0.0172907
0.00156518,-0.0196607
0.00140449,-0.00930525
0.0043531,-0.0284034
0.00965148,-0.0138719
-0.00290537,-0.00495316
-0.00883432,0.00990205
-0.0149703,0.022075
-0.0149029,0.0142944
-0.0101309,0.00132943
-0.0165228,-0.00448978
-0.0157285,-0.00369616
0.00132031,0.0128239
0.00772137,0.0151189
0.00682548,0.0101036
0.0109865,0.00953215
0.0091501,0.00576122
0.00590312,-0.0162013
0.00933774,-0.0433928
0.0134843,-0.0201337
0.00598586,-0.00684302
-0.00474704,-0.0100251
-0.0141776,0.00686467
-0.0108236,0.0140314
0.0034764,0.0263762
0.0163772,0.00805403
0.0117526,-0.019077
-0.000770264,-0.0121108
-0.0115568,0.00236685
-0.0145147,0.0116539
-0.0115908,0.00923376
-0.0119179,0.0133958
-0.00712439,0.000620694
-0.00135903,-0.00333826
0.00910199,-0.0141298
0.00521065,-0.0422962
0.000178138,-0.0124161
-0.000291179,0.0249873
-0.00687282,0.0162745
-0.00985919,0.0113388
0.00454214,0.0216648
0.0227221,0.0123922
0.02347,-0.0118003
0.0109757,-0.0165522
0.00797587,-0.00240033
0.00416225,-0.0120786
-0.00948284,-0.0156828
-0.00242858,0.00943415
0.013296,0.0206151
0.0135495,0.0160476
-0.00183203,-0.015476
-0.0226716,-0.0256256
-0.0235446,-0.00781999
0.00437633,0.0140726
0.0245551,0.0122439
0.00420371,0.00756601
-0.0867394,0.00996225
-0.146283,0.0158002
-0.12856,-0.00127419
-0.0485883,-0.0289722
0.0110841,-0.0243318
0.0536702,-0.0171287
0.110249,-0.00976186
0.118593,0.0207603
0.0961057,0.0250944
0.0597304,0.0362261
0.0360062,0.0173689
0.0434664,-0.0270222
0.0377668,-0.0329987
0.00812364,-0.00435445
-0.00680037,0.0102597
-0.0143256,0.0057372
-0.019791,0.0110886
-0.0255975,0.0223776
-0.0273035,0.00701234
-0.0154539,-0.00109464
-0.0055679,-0.00591347
-0.0123131,-0.00591197
-0.0189069,-0.00308502
-0.0193109,-0.0012149
-0.0195162,0.00980701
-0.0249431,0.0109293
-0.0215374,0.00615348
-0.0130383,0.00525605
-0.00375517,-0.0182272
0.00165393,-0.0374596
0.000355133,-0.0298739
0.010773,-0.00916265
0.0232756,0.000717189
0.0221056,0.0186047
0.0168164,0.0210266
0.0132281,0.012729
0.00287424,-0.0101942
-0.0128001,-0.0129843
-0.0200061,-0.0153868
-0.00586852,-0.0134963
-0.0075595,0.0115071
-0.0160551,0.0170834
-0.0126315,0.0221287
-0.0273445,0.00342906
-0.0273853,0.0030086
-0.00976276,-0.00293317
0.00607886,-0.0352938
0.00840775,-0.00887566
-0.00341916,0.0160119
-0.0137222,-0.00790904
0.019989,0.00744906
0.00708929,0.00592902
0.00352913,0.0226736
0.0484079,0.00301892
0.0460604,-0.0159405
0.0322301,-0.00625767
0.0220547,0.0178946
0.00720595,0.0206039
-0.0203591,0.00572148
-0.0393655,-0.0140678
-0.0311663,-0.00455942
-0.00154078,-0.0115247
0.0328305,-0.0209189
0.0426468,0.00450307
0.0180206,0.0136536
-0.0123444,-0.00558092
-0.0205327,-0.0147164
-0.031223,-0.0186438
-0.0717002,-0.013713
-0.0714126,0.0146476
-0.0184966,-0.021022
0.0263613,0.00286852
0.0398378,0.0217827
0.0181941,0.0129179
0.0492057,0.0193647
0.0336145,0.0180574
-0.00323549,0.00969317
-0.0309921,0.00220799
-0.0364744,-0.0194021
0.00192756,-0.0387162
0.0448576,0.00889986
0.0192544,0.0283815
-0.0476101,0.0309279
-0.0575508,0.0196997
-0.00903438,0.00919167
0.0392112,0.00133927
0.0577387,-0.00554477
0.0683743,-0.0180822
0.0593541,-0.0366207
0.0158801,0.00421276
-0.0333874,0.0256038
-0.0390981,0.0122895
-0.0258861,-0.00801186
-0.0162619,-0.022814
-0.00332029,-0.00852764
0.0137538,-0.0152035
0.00642732,-0.0265056
-0.00207906,-0.00549488
-0.0035371,0.000787862
-0.0265451,0.00125955
-0.0359463,0.0149522
-0.0246512,0.0225753
-0.00618325,0.00131965
0.0203602,-0.0272696
0.0395222,-0.00427458
0.0225096,-0.0124273
-0.00328165,-0.00520746
-0.037722,0.00838334
-0.0600862,0.0132057
-0.0504456,0.0120264
-0.0208287,0.00457218
0.0132055,0.0043053
0.032157,-0.0311092
0.0506858,-0.0267708
0.0445437,0.0284181
0.0204427,0.00434666
0.0347874,0.00177509
0.0299776,0.0118148
0.00734858,0.0497809
-0.0270787,0.0166692
-0.0446976,-0.0329713
-0.056461,-0.0308219
-0.0516399,0.00754484
-0.0453536,0.00957368
-0.0334145,0.00744569
0.00742238,0.0145399
0.0446479,0.0088965
0.0456354,0.0100754
0.0049458,-0.00366562
-0.0289441,-0.0213633
-0.0387648,-0.0171406
-0.0247232,-0.00301665
0.0214806,0.00839609
0.0692836,0.00949879
0.0888206,0.00585932
0.0730826,-0.00985924
0.0271386,-0.0130168
-0.00443429,-0.038081
-0.0184492,-0.0139879
-0.0202087,-0.0157649
-0.0206224,-0.0226675
-0.0238731,0.0499677
-0.0228648,0.0373352
-0.0203942,0.0275061
-0.0369456,0.0247197
-0.0201751,-0.0225155
0.0176448,-0.0497201
0.0304259,-0.0310449
0.000267753,-0.0221711
-0.0275462,-0.0213331
0.00911175,0.0503699
0.0622308,0.0386251
0.0678243,0.0273098
0.0295491,0.00444838
-0.040285,-0.0176374
-0.104378,-0.014729
-0.0789656,-0.0376401
-0.028427,0.0106278
0.0357381,0.0385778
0.0838366,0.0113397
0.0827084,-0.000939227
0.0403112,-0.0167036
0.00216665,-0.0149711
-0.012123,-0.00547367
0.00260925,-0.00806392
0.026566,-0.001879
0.0419624,0.0184291
0.046268,0.0318181
0.0140847,0.030631
-0.0772399,0.0172554
-0.181406,0.00533241
-0.247733,0.0138083
-0.166874,-0.0081557
-0.0583747,-0.0301558
0.0517635,-0.0319274
0.0431076,-0.0287867
-0.0137408,0.0133156
0.0316227,0.00722098
0.0764036,-0.0225552
0.129287,-0.0358165
0.134579,-0.0269412
0.0643303,-0.00292663
0.0456672,-0.00875487
0.0327055,-0.0414508
0.0423003,-0.0393732
0.114513,0.0308837
0.110191,0.15926
0.0717077,0.0361187
0.0264958,0.0122004
-0.0511229,0.00290078
-0.10477,0.0103362
-0.0926189,-0.00758907
-0.0427084,-0.0253785
-0.0521582,-0.00415314
-0.112089,-0.00399888
-0.142812,-0.0393329
-0.159071,-0.0401421
-0.0347068,-0.0449421
0.105258,0.00839614
0.0843709,0.0264271
0.0483992,0.0269833
0.0341148,0.0257928
-0.03526,0.0152085
-0.0420595,0.0108561
-0.00722594,-0.00506718
0.0653304,-0.00774208
0.0917959,-0.0156544
0.070458,-0.0220901
0.0593895,-0.00308854
0.0775169,0.0288633
0.0207737,0.0474566
-0.177082,0.044692
-0.252976,0.00630052
-0.0874462,0.00134592
0.0330408,-0.0101386
0.13688,-0.00866739
0.214917,-0.0109128
0.0211428,-0.0273978
-0.234014,-0.0508192
-0.236926,-0.0924281
-0.0568251,-0.0953383
0.179381,-0.0518266
0.331031,0.0943345
0.249516,0.108873
0.0722884,0.0472266
-0.0476354,0.0361579
-0.125118,-0.00183461
-0.157303,-0.00190756
-0.171344,-0.0048362
-0.256657,-0.0487734
-0.404689,-0.0367807
-0.296748,-0.0335165
0.0210164,-0.00323704
0.377648,0.0338732
0.549235,0.034877
0.266056,0.0400131
0.0387492,0.0184545
0.0488578,0.00328689
0.0854097,0.0427417
0.119197,0.00674965
0.101148,0.00386033
0.0177983,0.024481
-0.0822947,0.016598
-0.130657,-0.0235894
-0.133279,-0.0279661
-0.141098,0.00712763
-0.121019,-0.0258048
-0.103594,-0.0897324
-0.157101,-0.0385623
-0.214513,-0.0434915
-0.15114,-0.0663267
0.137862,-0.0394913
0.335992,0.0204969
0.221806,0.0217631
0.0476279,0.0307486
-0.00291296,0.033854
0.02283,0.0412122
0.0451304,-0.00241371
0.0631211,-0.0146494
0.00257637,-0.00530507
-0.201062,-0.0347803
-0.299043,0.0580351
-0.267262,0.0314904
0.0392827,-0.011032
0.330089,0.0260539
0.38762,0.0318192
0.245513,0.00221292
0.094345,0.0029633
-0.0665241,0.0210616
-0.106375,0.0160477
-0.115308,0.0230173
-0.279114,0.0225752
-0.343387,-0.036057
-0.210061,-0.0435553
-0.164289,0.00714481
0.0518968,0.0216726
0.217157,0.024364
0.267583,0.0067172
0.309975,0.00236316
0.245819,0.0101837
0.149965,0.00208536
0.00827467,-0.0335398
-0.102446,-0.0615247
-0.182876,-0.0688706
-0.224738,-0.00965446
-0.319429,0.00875978
-0.288862,0.0423362
-0.159892,0.0396
0.0613348,0.037948
0.283621,0.0106758
0.337733,0.0112218
0.28753,0.0236474
0.172127,-0.00353217
0.0984465,-0.00193453
0.0629513,-0.01192
-0.00918662,-0.0801324
-0.0291155,-0.0475145
-0.112159,-0.0208244
-0.19018,0.00178734
-0.177102,0.0198405
-0.149864,0.00265258
0.00443321,0.0172871
0.0967607,0.017299
-0.0506884,-0.033115
-0.112715,-0.0321664
-0.0326108,-0.00303459
0.015262,0.00694155
0.0332579,-0.0126405
0.0298732,0.0151853
0.040358,-0.043526
-0.0642125,0.0312635
-0.26062,0.064451
-0.221931,0.00151439
-0.00414255,-0.0381986
0.142069,-0.000587202
0.149153,0.0210986
0.206816,0.00428834
0.17329,0.00921732
0.085281,0.00891879
0.0387271,0.00584729
0.0248374,0.00504187
-0.207167,0.00575353
-0.266015,-0.0081644
-0.100309,-0.00387636
0.0213156,0.0342857
-0.139012,0.0327813
-0.15395,0.0197947
0.0647976,0.00439688
0.286562,-0.000395352
0.389448,-0.0145003
0.27459,-0.0337918
0.176588,-0.0274251
0.0878935,-0.0188707
0.00364841,-0.0165004
-0.0407504,-0.00765102
-0.088777,0.00239307
-0.127889,0.00157736
-0.111728,-0.00952587
-0.0700152,-0.00469391
-0.0945907,-0.00174044
-0.125599,-0.00106462
-0.0789559,-0.0167579
0.047855,0.00729252
0.0890946,0.0430504
0.0465623,0.0282933
0.0144321,0.0102796
-0.150529,0.00348412
-0.162234,-0.000409146
-0.000313653,0.0137963
0.157886,0.0077073
0.209335,-0.00815887
0.087993,-0.0212632
0.0195374,0.0186962
-0.0283805,0.00674752
-0.0675303,-0.050247
-0.1819,-0.0360175
-0.150325,0.00642859
-0.0139965,0.0137009
0.0569478,0.0359446
0.0957166,-0.00768948
0.0940844,-0.0321598
0.00172589,0.00708824
-0.0290844,0.00540425
0.0663291,-0.0137144
0.042748,-0.00894697
-0.0112209,-0.00995336
0.0114614,-0.0176852
0.0197533,0.0218816
-0.0426744,0.0454753
-0.122483,0.0120382
-0.110624,-0.0287851
0.0214093,-0.0206328
0.115561,0.0131721
0.0303828,0.00664163
-0.106443,-0.0281308
-0.195897,-0.0448592
-0.167618,-0.02036
-0.068973,-0.0170909
0.11455,0.0491231
0.218555,0.0271838
0.171531,0.00129861
0.000166682,-0.0154103
-0.173006,-0.0191025
-0.18597,0.0297619
-0.116054,0.04048
0.00619234,0.0434586
0.149153,0.0241486
0.217506,-0.0101688
0.208437,0.0218073
0.143825,0.0326125
0.0835376,0.00538467
0.0277125,-0.00357629
-0.00399384,0.0153407
0.00058792,-0.00404577
0.000782238,-0.0219115
-0.016196,-0.0439643
-0.0572416,-0.0522823
-0.1262,-0.0215301
-0.181029,0.000752498
-0.139784,-0.00409285
-0.0903532,-0.00697564
-0.0300592,0.00676477
0.0127105,0.00658984
0.013526,0.000970851
0.0367816,0.00256437
0.0533808,0.0143319
0.0503414,0.00102936
0.0509027,0.00494654
0.0671703,0.027789
0.0650699,0.0247444
0.0425119,0.0126078
0.00223893,0.000516732
-0.0208087,-0.0144762
-0.0239617,-0.0537073
-0.024896,-0.0917235
-0.0111217,-0.0303927
-0.0185116,0.023791
-0.048149,-0.00497126
-0.0404141,-0.025376
-0.0125706,0.0290391
-0.00192687,0.0728402
-0.00835158,0.0260825
0.00673345,0.0254669
0.0230957,0.0115898
0.0287403,-0.0131122
0.0474803,0.0088438
0.0721275,-0.0182986
0.0442733,0.0275927
-0.0137898,-0.00115983
-0.0583745,-0.0109824
-0.0320859,-0.00276908
0.0165736,-0.0168271
0.0132173,-0.0215939
-0.0632441,-0.0365378
-0.116389,-0.0177186
-0.131223,0.0385442
-0.0960988,-0.00238689
0.0337188,-0.00217634
0.141423,0.0208262
0.12887,0.0197169
0.0614744,0.00467144
0.0196546,0.0112718
-0.0309408,0.00857771
0.0258554,-0.00881862
0.0926798,-0.000943107
0.0647602,0.0243941
0.0418156,-0.00807164
0.00679038,-0.0526969
-0.052266,-0.017441
-0.0470782,-0.00413457
-0.0617305,-0.0144692
-0.257871,0.0118048
-0.453849,0.0219857
-0.255743,0.0149532
0.0844553,-0.018497
0.350473,-0.0316561
0.370638,-0.0036606
0.150062,0.0252787
-0.00293213,-0.00407487
-0.102407,-0.0177339
-0.0957769,-0.0181938
-0.00445746,-0.0113557
0.0645601,-0.00990581
0.0749954,-0.0228845
0.113585,0.00450888
0.12245,0.0197951
0.0293003,0.00804359
-0.0380291,0.000514717
-0.0307698,0.0150114
-0.00607118,-0.0167688
0.0244446,0.0156725
0.0123154,0.0500545
-0.00353017,0.0160323
-0.00919191,0.0133517
-0.00472881,0.0243986
0.00161694,0.0272246
-0.0286922,0.0246789
-0.0633188,0.00838889
-0.0770747,-0.0140048
-0.0442941,-0.0294433
0.0113971,-0.0263887
0.0120637,-0.0114855
-0.0314335,-0.0202115
-0.0741313,-0.0210072
-0.0370551,0.00948197
0.0234913,0.0186123
0.0513069,0.0105028
0.0426898,0.019291
-0.00699648,0.0207543
-0.031189,0.0149742
-0.015064,0.0132097
-0.00745993,-0.00354523
-0.0363252,-0.0336218
-0.0552084,-0.00968151
-0.0480838,-0.00669628
0.0222821,-0.0108141
0.0701148,-0.00258692
0.0439088,-0.00144091
0.0095951,-0.0138197
-0.0207619,-0.00523015
-0.00609182,-0.00603211
0.0240918,-0.00147664
0.0437489,-0.000590121
0.0409658,-0.0079123
0.0103251,-0.0087371
-0.0141247,-0.000759339
-0.0265494,-0.00408411
0.0155781,-0.0140262
0.0818988,0.0368548
0.0566871,0.025882
0.00345169,-0.0230513
-0.0254798,-0.0391613
-0.0406937,0.0262751
-0.0153476,0.0182654
-0.00368964,-0.00431455
-0.035988,-0.0194915
-0.0710126,-0.0457558
-0.0653371,-0.052263
-0.10067,0.0425152
-0.137087,0.0254378
-0.0546111,0.0109122
0.0579842,0.0402457
0.152022,0.00811622
0.159163,0.00278681
0.0944484,0.0205449
0.0428018,0.0146814
0.0156386,-0.0191862
0.00733408,-0.00051214
-0.00652452,0.0236866
-0.00894381,-0.0140616
0.0478244,-0.00927379
0.0623025,0.00442392
0.0336097,-0.00187123
-0.110997,-0.00196815
-0.183033,0.00293669
-0.100454,-0.0111709
-0.0981974,-0.0235591
-0.163558,-0.00206329
-0.0509977,0.0387514
0.10334,0.00952486
0.205297,-0.00835657
0.212304,-0.000121779
0.15297,0.0114873
-0.0195064,0.0114245
-0.13658,0.0193214
-0.129403,0.00169272
-0.0802847,-0.0550458
-0.0390563,-0.0453143
0.0132188,0.0239548
0.0305702,0.0323042
0.0112593,0.00195348
-0.00510868,-0.000125659
0.023138,-0.0265395
0.0622328,0.0129905
0.0793206,-0.0183153
0.0635942,-0.0379558
0.0387031,-0.00779112
0.0260506,0.0191675
0.0338018,0.0131976
-0.000472368,0.0172785
-0.0465209,0.0154356
-0.043657,0.0121125
-0.0352923,-0.00647732
-0.0903776,-0.0360718
-0.0473885,-0.0784773
0.025295,-0.0733011
0.0500565,0.00199638
0.0294065,0.0438287
-0.114793,0.0297598
-0.223556,0.0156512
-0.0570187,0.0138465
0.122344,0.004281
0.202992,0.0101421
0.140394,0.0119924
0.0383304,0.00620226
-0.011283,0.00339953
-0.0440429,0.00183704
-0.0412675,-0.0158427
-0.0201787,-0.0257199
-0.0178996,-0.0197333
0.00350975,-0.00407762
0.00181328,0.00704129
-0.0051687,0.0146339
0.012435,0.0212588
0.0330227,0.0263267
0.0462088,0.0400479
0.0623724,0.0154174
0.0120274,-0.0173573
-0.0478924,-0.0145628
-0.0423429,-0.0148315
-0.0380167,-0.00582491
-0.0412755,-0.0036608
-0.0493273,-0.0226196
-0.0827782,0.0125039
-0.0995383,0.0128858
-0.0462833,0.0258299
0.00480908,0.00802538
0.0656681,0.00852606
0.0980489,0.0175733
0.0758275,0.00884112
0.0232238,0.00959848
0.0129923,0.0187201
0.0417335,0.0179791
0.0664363,-0.00829269
0.0671279,-0.0271289
0.0210424,-0.0248269
-0.041055,-0.0176151
-0.0549051,0.00732033
-0.0448962,0.00818996
-0.0718416,-0.00641594
-0.0980626,-0.0250039
-0.0500467,-0.0222326
0.0109472,0.00638456
0.0582776,0.0161029
0.0547043,0.0181103
-0.0222494,0.0230948
-0.0507522,0.0206863
-0.0808934,0.0124233
-0.0338832,0.0125354
0.0282261,0.020414
-0.0383565,0.0235036
-0.0371058,-0.00555621
-0.013565,-0.0602796
0.0896948,-0.0681577
0.13909,-0.0435799
0.0877019,-0.0337785
0.0391964,-0.0362672
-0.00997989,-0.00914088
-0.0649555,0.0124491
-0.0823805,-0.00626661
0.00768413,-0.0213549
0.0850223,0.0171786
0.0885477,0.0149352
0.0508366,0.00428363
0.029574,0.0343478
0.0283217,0.0347837
0.0208417,0.0175776
-0.00415174,0.0103036
-0.0327016,-0.00560192
-0.128569,-0.0203829
-0.236277,-0.0212415
-0.132033,0.0159225
0.0265334,0.0106039
0.127225,0.0125418
0.145616,0.00587171
0.062225,-0.00887074
0.0165714,-0.0134749
0.0235643,-0.0025177
0.049652,0.0384786
0.0254452,0.00705681
-0.0511844,-0.0109642
-0.0834252,0.0195958
-0.0783243,0.0126101
-0.0556113,0.000749732
-0.0333219,-0.0068711
0.000809409,-0.010518
-0.0016515,-0.00860539
-0.0129659,-0.00375476
-0.0243102,0.0039989
-0.01623,0.00482102
0.0206999,-0.000616567
0.0466328,0.00637187
0.0719686,0.00550115
0.0857355,-0.0232417
0.0701338,-0.0248459
0.0583432,0.0159259
0.0581146,0.0458876
-0.137823,0.0327323
-0.20026,-0.0258453
-0.105604,-0.0780173
-0.0196678,-0.054993
0.0734245,-0.0244266
0.112942,-0.0132981
0.0706472,0.0047459
0.0510387,0.0328239
0.0163173,0.0710188
-0.0594225,0.0431925
-0.063486,-0.00260376
-0.000989604,0.0016184
0.0200109,0.00355206
0.023843,-0.0136713
0.0334822,-0.00376913
0.0334012,0.0390604
0.0135605,0.0102218
0.0127078,-0.00731204
-0.00795024,-0.0222017
-0.0552595,-0.0319864
-0.0595383,-0.0372175
-0.0158324,-0.0169589
0.0215634,-0.00252099
0.033757,-0.00459634
0.0264401,0.0144508
-0.00344067,0.0312302
-0.0250035,0.0326018
-0.0208566,0.0112831
-0.0074478,-0.0259212
0.000303539,0.0310516
-0.00760015,0.0285614
-0.0216272,0.00468265
-0.0207834,-0.0211904
0.0113231,-0.0118209
0.0467566,0.00310168
0.0336436,-0.025111
0.00918906,-0.0371164
-0.032638,-0.0282567
-0.0528283,-0.0145685
-0.0670368,0.00591936
-0.0368882,0.0258537
0.0182091,0.0332367
0.0344769,0.0126689
-0.00938046,-0.0070911
0.000718111,-0.00496267
0.0940532,-0.002073
0.0924076,0.0215434
-0.0275548,0.0152611
-0.089949,0.00934367
-0.0558196,0.0070391
-0.0558999,-0.0166693
-0.0229005,-0.0233716
0.0486954,-0.018018
0.081902,-0.0122723
0.0648889,-0.0179896
0.082613,-0.0175101
0.0364131,-0.00344277
-0.0807198,0.00354715
-0.123684,0.0044595
-0.0925236,0.0113528
-0.0678406,0.0203671
-0.149344,0.00557973
-0.154216,-0.0201894
0.0130246,-0.0101782
0.220487,0.00759756
0.301881,-0.00385351
0.222523,0.00136486
0.109951,-0.00701791
0.0397501,-0.0100267
-0.0109438,-0.00798131
-0.0748138,-0.0114404
-0.0938049,-0.000911559
-0.0491898,0.00670926
0.00177083,0.00912775
0.00341618,0.0156826
-0.0333325,0.0644988
-0.0660263,0.0704274
-0.0677116,0.0181137
-0.00252442,-0.00755302
0.035081,-0.0267048
-0.00725825,-0.0214281
-0.0426815,-0.015308
-0.0300859,-0.0229879
-0.0130933,-0.00127204
-0.00740967,-0.00137987
-0.00451184,-0.0131848
-0.0193847,-0.0229568
-0.0108889,-0.0261326
-0.0122534,-0.0120368
-0.0130802,0.00752542
-0.00855771,0.00245806
-0.00354461,-0.0153018
-0.037403,0.00144326
-0.020686,-0.00118777
0.0494447,0.0373142
0.0938705,0.0154504
0.0458025,0.00501048
-0.00261849,0.0212756
0.00122726,0.022088
0.00705785,0.0104379
0.0111417,0.00843564
0.0301509,0.00648073
0.0368798,-0.00299724
0.0236645,-0.0119158
-0.0179605,-0.0162928
-0.033047,-0.00826815
-0.0189986,-0.00216065
0.000953301,0.00406916
0.0136373,0.0149785
0.00770137,0.00992823
-0.00497728,-0.0160258
0.0052339,-0.0211762
0.0259533,-0.0292735
0.0236244,-0.0274863
0.00655924,-0.0180398
0.0019315,-0.0124354
0.0165684,-0.0136274
0.0358798,0.0239506
0.00500167,0.0464692
-0.0310926,0.00255328
-0.0182416,-0.00386566
-0.0690485,0.0083692
-0.20337,-0.00477911
-0.202205,-0.00860258
-0.0782823,0.0268375
0.0528475,0.021392
0.110815,0.0113684
0.102553,0.00346217
0.0804087,-0.0208665
0.0690161,-0.0271151
0.0392794,-0.0220039
-0.00413105,-0.0144377
-0.0420227,-0.00785633
-0.0207449,0.0244798
0.0305483,0.0298058
0.0585092,0.0216544
0.0691533,0.013533
0.0474376,0.00670336
0.0454341,-0.00707554
-0.0643666,-0.0188791
-0.230437,-0.0214816
-0.226734,-0.00425433
-0.138466,0.0186394
-0.0375158,0.0268951
0.0536364,0.00501674
0.146166,-0.00532983
0.166887,-0.0105557
0.12377,-0.00442699
0.0946212,-0.0321342
0.0819344,-0.0417017
0.0529457,0.0209035
0.0197399,0.0205931
0.0334662,-0.00170939
0.0195356,-0.010839
-0.0246707,-0.00332207
-0.00989531,0.00576548
0.0107398,0.00544272
0.0040917,0.0105572
-0.0109514,0.0146264
-0.0315935,0.0131034
-0.0501175,0.0101522
-0.0529693,-0.000942886
-0.0617741,-0.0330453
-0.0793741,-0.025132
-0.114571,0.041279
-0.13767,0.0237816
-0.102234,-0.0176698
-0.025266,-0.0193174
0.099046,-0.0177632
0.124371,-0.0130244
0.0321065,-0.00946215
-0.0354182,0.0010094
-0.00328428,-0.00110629
0.0622022,0.00614135
0.101119,0.0167502
0.0954888,0.0165986
0.0449688,0.00133394
0.0197538,-0.00637845
0.00749783,-0.0171925
-0.0144845,0.000258637
-0.0254463,0.00266588
-0.0338102,0.0118382
-0.0525422,0.00283878
-0.0364039,0.0235718
-0.00550821,0.0247281
-0.00642198,0.000117177
-0.00660772,0.0048031
0.00318348,0.0102674
0.0390479,-0.0456371
0.0827713,-0.0145334
0.0485605,-0.0280016
-0.0453849,0.00205229
-0.0859104,0.0252035
-0.0893238,0.0194486
-0.0821381,-0.00753922
-0.0514143,-0.0186753
-0.000311835,0.00258982
0.0478013,0.00960395
0.0497094,-0.00116558
0.0286262,-0.015293
0.0202163,-0.00289749
0.0313671,-0.00484233
0.0399785,-0.00563814
0.0296807,-0.0105431
0.015079,-0.00799837
0.00570902,0.00846743
0.0168085,0.0165098
0.0336028,0.00117509
0.0148144,0.0104428
-0.056204,0.0158444
-0.0432188,0.0159692
-0.0120319,0.00386449
-0.0201715,-0.0137032
-0.017887,-0.00333606
-0.0760225,-8.97e-06
-0.139735,-0.00325002
-0.0970727,0.000772571
-0.0325211,-0.008588
0.0537813,-0.0163695
0.115536,-0.0181521
0.138915,-0.00123786
0.0352222,-0.0152145
-0.0621276,-0.0220276
-0.0547712,-0.00456867
0.0213829,0.00258721
0.0872194,0.0145167
0.108717,0.0204078
0.111012,0.0134925
0.0822694,0.00592927
0.0356895,-0.0105878
0.00353636,-0.000577463
-0.0224475,0.0177444
-0.0302364,0.02355
-0.0336996,0.029641
-0.0652499,0.0220586
-0.118944,-0.00529349
-0.142632,-0.0214233
-0.0927799,0.00481256
-0.0711181,-0.00367945
-0.0759221,-0.023001
-0.0799412,-0.00805811
-0.0585402,-9.09e-05
0.0235492,0.00679632
0.105378,-0.00266312
0.186566,-0.0104601
0.230306,0.00381951
0.157212,0.00703788
-0.0217339,-0.00604457
-0.130394,-0.00788061
-0.0850762,0.0125577
-0.0427832,0.0135522
-0.019218,0.00124284
0.0363328,-0.0496489
0.0863888,-0.0438666
0.0494543,0.0279666
0.0295557,0.0387676
0.00695243,0.0162884
-0.0266431,0.0171799
-0.00412473,0.00472099
0.00107486,0.0033252
0.0118246,-0.00109447
0.0178121,-0.0149536
0.0283362,-0.0234332
0.00885714,-0.00914973
-0.028217,0.0116022
-0.0474103,0.00957799
-0.0280699,-0.00211701
-0.0182317,0.000741996
-0.00868966,0.00305145
-0.0122142,-0.021934
-0.0319313,-0.038259
-0.0287419,-0.00842087
-0.0301798,0.0108595
-0.0263132,-0.000767541
0.00691875,0.0158652
0.0277715,0.0197849
0.043063,0.0064874
0.0247592,0.00796229
-0.0168529,3.88e-05
-0.0498054,-0.00304002
-0.0546248,0.0021719
-0.0396477,0.00741726
0.0372091,0.00775718
0.0906026,0.0269147
0.0440387,0.0457712
0.00446638,0.00409763
0.0246939,-0.00119483
0.0247812,0.00122861
0.016131,-0.0252511
0.0169658,-0.0417003
0.0121762,-0.0316522
-0.0236441,-0.014751
-0.0587649,-0.0164105
-0.0617108,-0.0159257
-0.043113,-0.0142135
0.00170771,0.000162503
0.0176176,0.0182813
-0.04139,0.0129205
-0.0975592,0.00418271
-0.0748674,0.017874
-0.0597636,0.012188
0.0481869,0.006151
0.162184,0.0219331
0.165085,-0.00694639
0.0818875,-0.0189346
-0.0106994,-0.0301695
-0.0982042,-0.0407201
-0.168744,-0.00103508
-0.193449,0.0191765
-0.117939,0.00969286
0.0301397,0.025018
0.143712,-0.00326548
0.177052,-0.0099246
0.150887,0.00125076
0.097991,0.019712
0.0313938,0.0158586
0.0222365,0.00914058
0.0263947,0.0154076
-0.0192538,-0.00763043
-0.0290018,-0.0256469
-0.0175064,0.00991978
-0.030736,0.0103688
-0.0630156,-0.00763056
-0.0598125,-0.00387546
-0.00211927,0.00934703
0.0361014,0.00983315
0.050731,-0.00566169
0.0239533,-0.0184596
-0.0109274,-0.00455064
-0.042929,-0.00411313
-0.0466002,-0.0052429
-0.0184821,0.00100224
0.00643845,0.00484832
0.0256656,0.0122164
0.0275174,0.0145193
0.0022427,0.00323019
-0.00184305,-0.0132477
0.0215516,-0.0179774
0.0307543,-0.0102607
0.00402622,-0.00339555
-0.0225641,-0.00462697
-0.0234523,-0.0155896
-0.024368,-0.000878152
-0.0591114,0.0137719
-0.0979768,0.0050011
-0.111486,-0.0130714
-0.0651101,-0.0123362
-0.00397978,0.00448269
-0.0312503,0.0188324
-0.03914,0.0270643
0.018959,0.030697
0.0637776,0.024786
0.112324,0.0114162
0.152857,-0.0137756
0.10933,-0.029564
0.0197469,-0.04087
0.00164463,-0.0276839
-0.000136043,0.0152338
-0.0266265,0.0540531
-0.0435717,0.00688726
-0.0252145,-0.0477819
-0.00425236,-0.0104274
-0.00610281,0.00347766
0.0112222,-0.0148085
0.0303208,0.00592902
0.0162068,0.0310708
-0.00696594,0.00858437
-0.0256357,0.0116637
-0.0365926,0.00460425
-0.0156775,-0.0377784
0.0155601,-0.00931527
0.0188755,-0.0106178
0.0340961,-0.0021562
0.0364607,0.016251
0.0230117,0.00897602
0.00509096,0.0206825
-0.0192084,0.0195244
-0.0399387,-0.00770969
-0.040563,-0.0208063
-0.0615558,-0.0154903
-0.0836422,0.000298527
-0.050225,-0.000579789
0.0169197,0.0290282
0.0438955,0.0595461
0.0207293,-0.0145588
0.0211486,-0.0312091
-0.0217176,-0.0279671
-0.0626894,-0.0183445
-0.0186918,-0.00432325
0.0323758,0.000703644
0.047274,0.00534317
0.021786,0.0117709
-0.0557555,0.00819416
-0.0511896,0.00418624
0.0139368,0.00257475
0.0803578,-0.00823789
0.0660817,-0.0233782
0.051182,-0.0291923
0.067417,0.00145059
0.0459468,0.00104148
-0.007401,0.00979867
-0.0353762,0.0305405
-0.0352463,-0.00421724
-0.000474774,-0.056423
0.0290329,-0.0233047
0.0290683,0.0137001
0.00731895,0.0127308
0.00743463,0.0218521
0.018387,0.0388764
0.0239947,0.0344146
-0.0129995,0.00806119
-0.0300951,-0.00765127
-0.0144899,-0.00907714
-0.020979,-0.00156466
-0.0262033,0.00369571
-0.0607469,-0.0055639
-0.0937526,0.0164493
-0.0657034,0.0200387
-0.0572019,-0.00964849
-0.0388314,-0.0092384
0.0272756,-0.0180349
0.06602,-0.0118959
0.0783966,-0.00546059
0.0631532,0.00497407
0.0367764,0.0157861
0.0182528,0.0085997
0.0229649,-0.00436316
0.0292719,-0.0133925
0.0118713,-0.0189781
-0.0223494,-0.0207133
-0.0260534,-0.0166158
0.0184326,-0.00284519
0.0125513,0.00838597
-0.0373034,0.0036012
-0.104176,0.000930929
-0.11558,0.0170431
-0.0987772,-0.014295
-0.078416,0.0185162
-0.0496664,-0.000165715
-0.0204147,-0.020595
0.0776312,0.00584248
0.137478,0.0257952
0.191437,0.0277729
0.195432,0.0171575
0.131677,-0.00142566
0.0115262,-0.0214364
-0.0627647,-0.0193737
-0.106524,-0.00296693
-0.107189,0.00628905
-0.050539,0.00024337
-0.019542,-0.00539109
-0.0653191,0.00416861
-0.11622,-0.00908162
-0.0515106,-0.0100852
0.0456608,-0.00895485
0.0908392,0.00202541
0.117933,0.0249416
0.0381513,0.0326333
-0.0725115,0.0253862
-0.093765,-0.00571714
-0.0256476,-0.0230219
0.0632083,-0.0172118
0.0897262,-0.0172505
0.0731716,-0.0170532
0.0249176,-0.0262425
-0.00344862,-0.0132206
-0.00678546,0.0159677
0.0273062,0.00911379
0.0211391,0.0129353
-0.00653527,0.00342151
0.017093,-0.0130877
0.0140656,-0.00557998
-0.0261324,-0.00372171
-0.0332834,0.0033584
-0.00953172,0.0194713
-0.00980698,0.0212153
-0.0167976,0.0287654
-0.0332711,-0.0189571
-0.0455883,-0.0327566
-0.0263412,-0.0140544
0.00874854,0.0105611
0.0083105,0.00376758
-0.0191759,0.00536532
-0.0397224,0.0285196
-0.0140177,0.0231168
0.00199934,0.0118517
0.0144537,-0.00689826
0.0297598,-0.0132496
0.0240823,-0.0101603
0.0220453,-0.00921339
0.0216831,-0.0104673
0.0205688,-0.00587308
0.00467416,0.00631579
-0.0403804,0.000985068
-0.0418548,-0.00416669
-0.0131245,0.00588039
-0.00890268,-0.0136834
-0.0145844,-0.0180949
-0.00509012,-0.0147799
0.0183067,-0.00312508
0.030425,0.00436909
0.0433092,0.0457299
0.0338881,0.026655
-0.0160321,-0.00606929
-0.0504808,-0.0237616
-0.0399646,-0.0177794
-0.0240422,0.0139642
-0.0122502,0.0123294
0.0182942,0.0121515
0.0165277,0.00588058
-0.0202849,-0.0128569
-0.0107209,-0.00739444
0.0165975,-0.0258261
0.0345902,-0.0138885
0.0687793,0.0123482
0.0593435,0.0020386
0.0140148,0.0104493
-0.035751,0.0379421
-0.0392761,0.0296816
-0.0497702,-0.00806434
-0.0330557,-0.016931
-0.00955264,-0.00539474
-0.0150653,-0.0370102
-0.026138,-0.0303518
-0.127423,0.010379
-0.182537,0.0117462
-0.121384,0.00512664
0.00339967,0.0002304
0.131586,-0.0213954
0.217697,-0.0375104
0.196859,-0.0111419
0.095695,0.014225
0.00979131,0.0111958
-0.00997359,0.0160944
-0.0148602,0.0268634
-0.00185324,0.0188388
0.0354214,0.00520563
0.0759647,-0.00188607
0.068758,-0.000845228
0.0258351,0.00591468
-0.023027,-0.000291923
-0.0238604,-0.011864
0.00108666,0.0232091
0.00437093,0.0220341
0.00213702,-0.000131714
0.0132062,-0.0107283
-0.0162027,-0.019888
-0.059051,-0.0141738
-0.0723917,-0.00303834
-0.15515,-0.00975147
-0.247761,-0.00336295
-0.192528,0.0214136
-0.0795656,0.0125407
0.0389573,-0.0052572
0.158986,-0.0161278
0.144735,-0.00754455
0.0738505,7.81e-05
0.0728659,-0.00478774
0.0446304,-0.00808735
0.0143422,-0.0106913
0.00239174,0.0211323
-0.0332305,0.0292305
-0.0347011,-0.00826628
0.00944513,-0.0359482
0.0557192,-0.0075968
0.0698497,0.000756196
0.0452327,-0.00372532
0.00458836,0.011471
-0.0212021,0.0180408
-0.0170635,0.00435385
0.0030664,-0.0140339
0.0120851,-0.00824395
-0.0118077,0.000268845
-0.0181699,0.00683056
-0.00703742,0.0152306
-0.0216755,0.00843722
-0.0313738,0.00216309
-0.0260428,-0.00464836
-0.00116736,-0.0137856
0.0136924,-0.0128778
0.0168714,0.000137763
0.0104321,-0.00410665
-0.00305941,-0.00755161
-0.0155278,0.00661058
-0.0401846,-0.0219186
-0.0236353,-0.00978348
0.0402675,0.0284209
0.0547275,0.0289805
0.0295211,0.0202323
0.00290745,0.0181083
-0.00148818,0.00811126
-0.00599544,0.0146071
-0.0212914,0.0144913
-0.0301509,-0.0276407
-0.0393158,-0.0125613
-0.0692958,-0.00913704
-0.0984152,-0.012345
-0.0551117,0.0214117
0.0153477,-0.0208019
0.0658566,-0.0629937
0.0895208,-0.0460938
0.044048,0.0414124
-0.0407671,0.0508144
-0.04503,0.0180373
0.00563183,-0.00567601
0.0740873,0.0127728
0.0900477,-0.00555961
0.0871707,-0.047856
0.0196771,-0.00703091
-0.0986928,0.0340427
-0.176473,0.0244273
-0.206076,-0.000779016
-0.147668,-0.0113764
0.0481379,-0.00819778
0.17293,-0.00387864
0.208669,-0.000875354
0.179722,0.00519106
0.108593,0.00903897
0.0597016,0.0125833
0.0245985,0.00375586
-0.0131689,-0.0139526
-0.0169375,-0.00508706
-0.00721265,-0.000304162
-0.0377579,0.00284506
-0.0502339,0.00687845
-0.0790355,0.0109457
-0.12557,0.00146156
-0.125727,-0.0127311
-0.0472246,-0.0199507
0.0268341,-0.0349564
0.0321264,-0.0382282
0.0388867,-0.0271464
0.0613854,0.0321369
-0.0170784,0.0437498
-0.0497914,0.0366346
-0.000338248,0.0241899
0.0305095,0.00902496
0.0517883,-0.00820472
0.0462238,-0.00988225
0.0254515,-0.0073802
0.0172627,-0.0019672
0.00842821,0.00488828
0.00325865,0.000209136
0.000391843,-0.00281557
-0.00855576,0.00208617
0.0124817,-0.00418498
0.0189798,-0.012971
-0.0122289,-0.00767012
-0.0714585,-0.00540597
-0.0993836,-0.010611
-0.0438368,0.00574358
0.00538727,0.0220709
0.00993659,7.8e-06
0.00594863,-0.0360889
0.0116003,-0.0192798
0.0222995,0.0239074
-0.0136424,0.0122005
-0.0479891,0.0174188
-0.0324877,0.0100773
0.00695568,0.00444897
0.0290767,0.00489114
0.0464069,0.00201904
0.0719297,-0.0209378
0.0603371,-0.0205113
0.0217169,0.00831101
0.00858715,0.0131355
-0.011435,0.0221784
-0.0463923,0.0186434
-0.0413915,0.000864417
-0.0115863,0.0138042
-0.00479114,-0.00380608
0.0054535,-0.0326064
0.0388972,-0.0298769
0.0415509,-0.0192302
-0.0152039,-0.00680313
-0.0661179,-0.00544921
-0.0267909,-0.0138436
0.0114118,-0.0118662
0.0206694,0.00192956
0.0342052,-0.0220411
0.0409934,-0.0091713
0.00368951,0.0160639
-0.0880411,0.0268499
-0.139634,0.0453835
-0.13114,0.0406322
-0.0611282,0.0168702
0.0196449,-0.0294568
0.0795381,-0.0439408
0.10739,-0.0119289
0.110998,-0.0040361
0.0353284,0.00294887
-0.0221997,0.0180679
-0.0773982,0.0208436
-0.0906409,0.00185466
-0.0228251,-6.24e-05
0.0793863,-0.00798598
0.141416,-0.0104427
0.130276,0.00616275
0.110762,0.010506
0.0604435,0.00773641
0.00138446,0.00419966
-0.0351791,0.0101596
-0.0390732,0.00368239
-0.0233569,-0.0163275
-0.0368661,-0.0213849
-0.035347,-0.016304
-0.0531693,-0.00574379
-0.149918,0.0228512
-0.183911,0.0201365
-0.0890403,0.00842939
-0.0116463,0.0158947
0.034247,0.00335212
0.0537097,-0.019909
0.0999125,-0.0126353
0.131324,0.00549338
0.0925585,-0.0168487
0.0530438,-0.0207313
0.0176303,0.000217601
-0.0567285,0.00413092
-0.099771,-0.00269827
-0.146808,0.00325291
-0.10187,0.000932117
0.0320957,0.00870078
0.138922,0.00357917
0.168026,0.00663232
0.0950482,0.00878119
0.0266386,0.00888353
0.0182218,0.00434365
0.00710477,-0.00911406
-0.00719592,-0.0207896
-0.0442415,-0.00811333
-0.0666966,0.00682966
-0.0630035,0.000971803
-0.0360197,-0.00134379
-0.0148418,0.00973708
-0.049805,0.0130558
-0.0407351,-0.00753591
0.00405415,-0.0175233
0.0224045,0.00232185
0.0364832,0.00500889
0.0406937,-0.0228398
0.0416813,-0.00378741
0.0451371,0.0381818
0.0319196,0.0146708
-0.0110035,0.0268178
-0.0314342,-0.010604
-0.0218829,-0.0528528
-0.00664112,-0.023904
-0.0201143,-0.0121405
-0.0210104,0.00666092
-0.0172128,0.0255876
-0.0371675,0.011537
-0.0653278,-0.0123243
-0.0822555,-0.011761
-0.0712132,-0.00757909
-0.0129641,0.00448034
0.0498606,0.0043076
0.0594294,0.00793552
0.0575445,0.0139319
0.0589716,0.00406112
0.0559004,0.000481502
0.0336341,-0.00752846
0.0200993,-0.0117552
0.00978737,0.0142983
0.0102311,0.0134826
-0.00980158,-0.0177457
-0.0120242,-0.0166715
-0.00321084,0.0387607
-0.0127312,0.034952
-0.0239505,0.00203889
-0.0477416,-0.0144477
-0.0741424,-0.0133329
-0.0696195,-0.0140042
-0.0302811,-0.000984577
0.0311718,0.00522934
0.0745883,0.00324772
0.0980214,-0.00322399
0.0732578,-0.00307217
0.0256864,-0.00359275
-0.00794953,-0.00989937
-0.0126652,-0.0114956
-0.0136661,0.000716808
-0.0125053,0.00444934
-0.00236828,0.00792451
0.00361561,0.0163003
0.0050873,0.00896698
0.0049596,-0.0245864
0.00511169,-0.022811
0.00446074,-0.0125093
0.0152333,0.0169737
0.0133814,0.00418594
0.00683411,0.0104181
-0.00760134,0.0185854
-0.0262314,0.0171905
-0.0548512,0.00743308
-0.0944301,-0.00706042
-0.0918512,-0.0217971
-0.0316334,-0.00889166
0.0104842,0.00617561
0.0132586,0.00839105
0.0251333,0.00934626
0.0496119,0.0217002
0.0336406,0.0109959
0.0194607,-0.015935
0.0104112,-0.0244595
-0.0125784,-0.00661002
-0.0347435,-0.0109009
-0.060808,0.000755849
-0.0413553,0.0228481
0.02199,0.00492688
0.0426457,-0.0281874
0.0840065,-0.0237303
0.0947255,-0.0138727
0.0587367,0.00607848
0.0132928,0.00980654
0.0027588,0.00704843
0.00779759,-0.00403104
0.00337332,0.0173811
0.00429679,0.0348747
-0.00577046,0.00248774
-0.00967908,-0.0174017
-0.00501202,-0.0051695
0.00379215,-0.00130658
0.00821194,-0.00391157
0.00968661,0.00105394
0.00596261,0.000849057
-0.0360357,-0.00276366
-0.122576,0.00536967
-0.164548,0.0102381
-0.173165,-0.00386012
-0.204083,-0.0167373
-0.103191,-0.0438588
0.0608728,-0.0173208
0.187581,0.0065834
0.210686,-0.00653658
0.185522,-0.00651945
0.0767259,0.00476355
0.00914174,0.0203215
0.0124487,0.0126845
0.0296087,0.00959394
0.0433769,0.00458407
0.0565519,0.00817585
0.0556196,0.0158397
0.0136163,0.0197611
-0.042919,0.015021
-0.0958906,-0.0264361
-0.130938,-0.033593
-0.076987,-0.00172334
-0.0091965,0.00244637
0.0218176,-0.0159447
0.0435806,-0.00611393
0.0532,0.0110154
0.0312363,0.0113757
0.0178448,-0.00245628
-0.00225722,-0.0118107
-0.0119988,0.000540839
-0.00699681,0.00293786
0.00127054,-0.00826887
-0.00099805,0.00315216
-0.00976141,0.0106687
-0.0355688,0.0182719
-0.0700895,0.0190375
-0.0648045,0.00191092
-0.0464193,-0.0152753
-0.0318521,-0.00784333
-0.00472802,0.00131273
-0.0144509,0.00164504
-0.00684101,0.00468613
0.0159597,0.0126939
0.0319629,0.00726315
0.0734346,0.0010091
0.0952713,-0.0182064
0.0697304,0.0045382
0.0208999,0.00386692
-0.00208793,0.0202614
-0.0235112,0.0199906
-0.0631604,0.00968355
-0.061713,0.00210244
-0.0430989,-0.016592
0.000321618,-0.0345308
0.0447009,-0.0594085
0.0569108,-0.00665848
0.032094,0.0100829
-0.00890604,0.0028375
-0.0512903,0.00682056
-0.0707,0.00530785
-0.0474601,0.00574091
0.00667895,-0.0028044
0.0117479,-0.00277043
0.000564683,0.00235018
0.0124943,0.00202124
0.0135945,0.00182131
0.0403679,0.0114908
0.0684307,0.00779223
0.056382,0.000395484
0.039592,-0.00428761
0.0208842,-0.00605726
-0.00386191,-0.00334882
-0.0104763,0.00555946
-0.0190699,0.0109337
-0.0282417,0.011997
-0.0212346,0.0181411
-0.010131,0.0171639
0.00381922,0.00279674
-0.00759118,-0.01538
-0.0115893,-0.0162085
-0.0284981,-0.0109049
-0.0551734,-0.00502778
-0.0824551,0.00271568
-0.0722816,-0.000441411
-0.0326008,-0.0132338
0.044991,0.00138842
0.13443,0.00723024
0.121381,-0.0162488
0.0319672,-0.00871541
-0.00553686,0.0201143
-0.0114635,0.0330132
-0.0388263,0.00689187
-0.0533333,0.00794547
-0.0485077,0.00392498
-0.0590682,-0.00819471
-0.0500855,-0.0191225
0.0160568,-0.00108383
0.0840389,-0.00953649
0.122307,-0.0117693
0.0857011,-0.00803427
0.0206604,-0.00395351
-0.00879353,0.0079228
-0.0156512,-0.0045143
-0.00449418,-0.0164868
-0.00561095,-0.0163504
-0.0131277,-0.00244509
-0.0161445,0.0021662
-0.0429277,0.00702048
-0.138465,0.0153009
-0.14423,0.019696
-0.0530204,0.00437397
0.0253462,-0.0198524
0.0809895,-0.0145997
0.104645,-0.000442928
0.0841225,0.0112764
0.0389352,0.00465083
0.00726171,-0.00140683
-0.00697143,0.023634
-0.00397874,0.0258878
0.0059654,-0.011462
0.0125489,-0.0167846
0.0136505,-0.00352432
0.000812605,0.00204021
-0.00409934,0.00874738
-0.0139879,0.0217606
-0.0241106,0.0128871
-0.0310305,-0.0069402
-0.0298141,-0.0284415
0.000108632,-0.0203966
-0.0184059,-0.00579103
-0.0584593,-0.00274028
-0.0443881,-0.00489801
0.00291222,0.00212922
0.0252851,0.0106866
0.0321088,-0.00935934
0.0424502,-0.00994612
0.0166656,-0.014492
0.00741436,-0.0147539
0.0199573,-0.00549966
0.0241361,0.0265563
0.0371132,0.0257335
0.0364536,0.0212883
5.63e-05,0.0177032
-0.0341171,0.0104911
-0.0253297,-0.00510812
-0.0261137,-0.0108063
-0.0347793,-0.0281382
-0.0274461,-0.0286461
-0.0277509,0.00337256
-0.0175867,0.0209117
0.00376503,0.00605116
0.0172592,-0.0185716
0.0282387,-0.00356035
0.0354181,-0.0109788
0.043009,-0.00872987
0.0317636,0.00153013
0.00594137,0.00947677
-0.00284689,0.0204588
0.014212,0.0233004
0.0189617,0.0159889
-0.00969626,0.0078831
-0.020849,-0.00243082
-0.0424078,-0.00482211
-0.0670648,-0.0146254
-0.0282862,-0.0187941
0.0230815,-0.00489536
0.0285331,0.0149077
0.0176969,0.0113246
-0.00179789,0.00180289
-0.0189685,-0.00730315
-0.0322392,-0.0119725
-0.0177838,-0.00595707
0.0176739,0.000758967
0.0237092,-0.00157883
0.00222813,0.00245707
-0.00213854,0.0173861
0.00376963,0.0418152
0.00769832,0.00161629
0.00277829,-0.0600087
0.011491,-0.0409303
0.0470747,-0.0147618
0.0360455,0.00266605
-0.0279662,-0.000892286
-0.0953315,0.0338625
-0.126465,0.0201892
-0.0765358,0.00325474
-0.012345,-0.00166541
0.0743404,-0.00960821
0.126254,0.000488322
0.124179,0.012152
0.0725663,0.00867288
0.00329113,0.0133086
-0.0189387,0.0252043
-0.00615757,0.0187617
-0.0124223,0.0114215
-0.0111346,-0.00128314
-0.00866265,-0.014081
0.000419787,-0.0171867
0.00168091,-0.00784475
-0.01849,-0.00556422
-0.034038,-0.0184032
-0.0560656,-0.00624113
-0.0985873,0.00702801
-0.068655,0.00103468
-0.0197038,0.00184954
0.0293825,-0.00679323
0.0731211,-0.00863132
0.0905806,-0.0136017
0.0822226,0.00821107
0.0442175,0.0218736
0.00265271,0.00593355
-0.0218833,-0.0140779
-0.0246079,-0.0313739
-0.0234589,-0.00916048
-0.0103393,-0.0240603
-0.0153915,0.00363232
-0.0346026,0.00607069
-0.0395158,0.00963554
-0.0307365,0.00426898
0.0072836,0.00952211
0.034651,-0.00771195
0.0342674,-0.0109862
0.040184,0.0115959
0.0219828,0.0119125
-0.0013028,0.00758188
-0.0149453,0.00869943
-0.0249179,0.0183107
-0.0101751,0.00565961
-0.0120615,-0.00578745
-0.0622348,-0.00245575
-0.0506576,0.00698969
0.0089984,0.0112779
0.0551002,0.0106736
0.0694831,0.0079792
0.043414,0.000664823
0.0109749,-0.000536182
-0.00598274,-0.0132842
-0.00844916,-0.0259547
-0.0248495,-0.0243568
-0.0440494,-0.0242138
-0.00945535,-0.00818674
-0.0152174,0.036419
-0.0390111,0.0352544
-0.0587978,-0.00579252
-0.0589557,-0.00795004
-0.00692875,-0.00971988
0.0694863,-0.026564
0.0842546,-0.0456095
0.0643792,-0.00495159
0.0580737,0.0223386
0.0173511,0.0301995
-0.0284599,0.0184883
-0.0341357,-0.00137622
-0.0170166,-0.00501019
-0.0170183,-0.000865417
-0.0111275,0.00240376
-0.00946599,0.0110396
-0.0362286,0.00846536
-0.0306413,-0.00130832
0.0152786,-0.016797
0.0367508,-0.0273772
0.054549,-0.0155995
0.0519335,-0.00971393
0.0423932,-0.00315316
0.0276564,0.00754541
-0.00319584,0.0179102
-0.01653,0.0221093
-0.00747926,0.0281542
-0.0211193,0.016131
-0.0459413,-0.00667112
-0.0803414,-0.0115251
-0.096652,0.000106339
-0.0599298,0.0209864
-0.0119694,-0.0161365
0.0438094,-0.0162806
0.0953854,0.0175134
0.0832181,0.00298248
0.0619256,-0.0223123
0.0283642,-0.0155069
-0.0085846,-0.0350569
-0.0137415,-0.03252
-0.0188926,0.005558
-0.0282214,0.0320381
-0.00728042,0.047497
0.0153572,0.0456242
0.00904494,0.0158246
-0.00105992,-0.0101861
-0.0136925,-0.0131445
-0.0595244,-0.00186971
-0.100043,-0.000699881
-0.0570515,-0.00933893
-0.0156565,-0.00330582
0.0205029,0.00376076
0.0763756,-0.021332
0.0904931,-0.0287353
0.0638325,0.00181405
0.0204368,-0.0124682
0.0020573,0.00203863
-0.0046728,0.0199542
-0.000306077,0.0172627
0.000563016,0.0151866
-0.00461188,0.0123262
0.00223478,0.00217282
0.010932,-0.00641912
0.00616266,-0.00127448
0.00171133,0.00493251
-0.0050784,0.000897432
-0.0212933,0.0061544
-0.0402349,0.000425241
-0.034334,-0.0132757
-0.0147828,-0.0286756
-0.0114856,-0.0225849
-0.00830525,-0.0221206
-0.0129554,-0.00531667
0.000147232,0.01088
-0.00588415,0.0195468
0.00054853,0.0235754
0.0255144,0.0228796
0.0289315,0.00681953
0.02328,0.000541003
0.00737239,-0.000438419
0.0182368,0.00743203
0.00705141,-0.00164556
-0.0117005,-0.0103168
-0.00413071,-0.0151009
0.00246764,0.00910564
-0.0105113,-0.0301631
-0.0108278,-0.0613659
-0.0104961,-0.0335208
-0.00921008,-0.0209777
-0.00189206,0.0162697
-0.00689965,0.052243
-0.00835579,0.0372365
0.000731111,0.025978
0.0114011,0.0247362
0.01796,0.0040407
0.0175087,-0.0123247
0.0116999,-0.0067792
0.00970226,0.00305897
-0.000397108,0.00459391
-0.0198263,0.00449319
-0.0509488,0.00536514
-0.0668184,-0.00529523
-0.0392093,-0.0181525
-0.00739468,-0.0197195
-0.00468849,-0.0106256
-0.00826358,-0.00369968
0.00138061,-0.000213569
-0.000900883,0.00761277
0.0135737,0.0256874
0.0467106,0.0161599
0.0689554,-0.00880274
0.05177,-0.0142963
0.0221432,-0.0191014
0.00439245,-0.00718105
0.0102286,0.00773223
0.0220123,0.00954374
0.0238921,0.0142135
0.00270784,0.0168291
-0.0100703,0.0217947
-0.0225315,-0.00918301
-0.0185166,-0.0191277
-0.00897655,-0.0117711
-0.00612521,-0.00366976
-0.00240257,0.00680283
0.000406922,0.0113803
-0.0036143,0.000336492
-0.0102963,0.00114916
-0.00740142,-0.00886646
0.00251085,-0.00832223
0.00613458,-0.0090989
-0.00238181,-0.00622287
-0.00698643,-0.00119354
-0.0109883,0.00552859
-0.0252515,0.0122953
-0.047608,0.00463136
-0.0440667,-0.0100751
-0.0249086,-0.0206484
0.00292287,0.01595
0.00706497,-0.00713612
-0.0243842,-0.0307145
-0.00872686,-0.0131885
0.0240961,-0.000965518
0.0288637,0.019782
0.0340494,0.0165404
0.0590838,-0.0353246
0.0485208,0.000715345
0.0366127,0.0287003
0.0245928,0.0139254
0.00710168,-0.0104653
0.013219,0.0162398
0.00906898,0.0203494
-0.0177022,0.0132747
-0.0747397,-0.0104938
-0.156198,-0.0173333
-0.133031,-0.00382186
-0.0282489,0.00799114
0.0537999,0.0072994
0.0959798,0.0100969
0.116439,0.00712488
0.0898598,0.00287202
0.0290425,0.00358816
-0.000900852,-0.0117235
0.000768431,-0.0184823
-0.00544794,-0.015868
-0.012689,-0.0105135
0.000214932,0.0118302
0.00471489,0.0241627
0.00744574,0.0165037
0.00717577,-0.00900943
0.00658177,-0.0204064
-0.00782831,-0.00439743
-0.0384235,0.00635816
-0.0641009,-0.00872478
-0.0848134,-0.00587922
-0.0681358,0.00505409
-0.00841252,0.00377199
0.0234919,-0.00447959
0.012175,-0.00813494
0.0120617,-0.0158108
0.0324124,-0.0148308
0.028643,-2.53e-05
0.0158016,0.0206071
0.0155715,0.0203398
0.0169051,0.0128677
0.0165216,0.00800511
0.0179764,-0.00921443
0.0244418,-0.0124373
0.0193633,-0.00888946
0.0123574,-0.00269011
0.00576686,-0.000598638
-0.00676874,0.00313862
-0.0193791,0.00523927
-0.0294231,-0.0131118
-0.0359138,-0.00295028
-0.0298995,0.00297752
-0.0113279,-0.0056069
-0.00419395,-0.000662525
-0.00569793,0.0132406
-0.00599381,0.0137414
-0.000910359,0.0169374
0.00609295,0.0220301
0.00979374,0.0115194
0.0131057,-0.0185921
0.0213132,-0.0147811
0.0269432,0.00189467
0.0207823,-0.000478505
0.0120414,0.00190451
-0.00908281,0.00333059
-0.0272494,-0.0211051
-0.0220457,-0.0360418
-0.0139841,0.0198949
-0.00812227,0.00489248
0.00156423,-0.00725728
-0.000275916,-0.00714621
-0.00306319,-0.000196517
-0.000372023,5.95e-05
0.00383461,0.017273
0.00807822,0.024602
0.0134719,0.00925945
0.0178944,-0.000915736
0.0168441,-0.00881162
0.0105844,-0.00726112
0.00331417,-0.0065568
-0.000505375,0.0028025
-0.00830056,0.0152011
-0.0141957,0.0109923
-0.0191735,0.00772225
-0.0219361,0.00544715
-0.0147711,-0.0114544
-0.00614391,-0.0171738
-0.000472993,-0.00729097
0.0042754,0.000335945
0.00832096,-0.00061102
0.0033042,-0.00335342
-0.00880203,-0.018676
0.00292039,-0.00956069
0.0114269,-0.0189916
0.00324892,-0.0401075
0.000629949,-0.0270194
0.0053665,0.0380825
0.00236173,0.0445848
-0.0122029,0.0306411
-0.0196334,0.0200683
-0.018124,0.0160166
-0.00651598,0.00149361
-0.00284269,-0.0171254
-0.00476307,-0.0323235
0.0119697,-0.00235223
0.017091,0.0198079
0.00813274,0.0104465
0.00583094,0.00537701
0.0096717,0.00756223
0.016006,0.00187531
0.0139718,-0.00893477
-5.58e-05,-0.0143727
0.00602437,0.000989008
0.0108006,-0.00206238
0.00857052,-0.00429299
0.000206381,0.0122766
-0.00490231,0.0113677
-0.00917959,0.00536154
-0.00756836,-0.0170901
-0.00590668,-0.0324773
-0.00780223,-0.0211592
-0.00605673,-0.0121496
0.00264727,-0.000447863
-0.00298079,0.0155266
-0.00776726,-0.00435444
0.00325597,-0.00494857
0.00802653,0.0179625
0.00514444,0.0148391
-0.00514397,0.0125799
-0.0456224,0.00822671
-0.070574,0.00253487
-0.0454803,-0.00293042
-0.0218167,-0.00984399
0.0182948,-0.0173535
0.0638431,0.00650011
0.0797836,-0.00444916
0.0567179,-0.0159609
0.0184878,-0.00155939
0.00445287,0.00708542
-0.002839,0.00771599
-0.0041062,0.0108047
-0.000185316,0.012087
0.0104564,0.00284835
0.0150864,-0.00746762
0.00910414,-0.00669823
0.0033958,-0.00537199
0.000231698,-0.00141327
-0.00442435,0.0070877
-0.007797,0.0095246
-0.0135335,0.00753198
-0.0216896,0.00675001
-0.0283803,-0.00377918
-0.0226263,-0.0264509
-0.0119936,-0.00511744
-0.00227239,0.016381
-0.0114373,0.00527248
-0.0230966,-0.00776105
-0.0127098,0.00470995
0.00367615,0.00506096
0.00472195,0.00318907
0.00448718,-0.00590297
0.00730131,-0.0142607
0.00446464,-0.0254525
0.00194698,-0.0136738
0.0224833,0.0308596
0.0406891,0.0243919
0.026589,-0.00217351
0.00505736,0.000854263
-0.00634628,-0.00427722
-0.011164,-0.0121666
-0.0173001,-0.0010442
-0.023118,0.00608489
-0.0282351,-0.00643054
-0.0216354,0.0120082
-0.0117556,0.0224732
0.00240965,0.0113545
0.0423907,-0.0049366
0.0678708,-0.0107587
0.0486203,-0.00955702
0.0198801,-0.0106268
-0.00755209,-0.00333695
-0.0193024,0.0165457
-0.0218601,0.0196096
-0.0338968,0.0089652
-0.0369119,-0.0031005
-0.0282418,-0.0141828
-0.0261942,-0.00717326
-0.029931,0.00493708
-0.0267323,0.00833498
-0.0309814,-0.00993864
-0.0342059,-0.0148566
-0.0280612,-0.0369166
-0.00880264,-0.0254364
0.0443862,0.0268056
0.0686718,0.0189892
0.120819,0.00203139
0.131319,0.000871185
0.0936479,-0.00293848
0.0205732,0.00364504
-0.0348912,0.0140881
-0.0774472,0.00950695
-0.123697,-0.00205057
-0.132163,-0.0193887
-0.108731,-0.0236874
-0.067647,-0.00079933
-0.0134707,-0.0195384
0.106421,-0.0133114
0.205229,0.0205519
0.162504,0.0153918
0.0950155,0.00717351
0.0636642,-0.00579763
0.0128301,0.00428235
-0.0660107,0.00814378
-0.0996822,0.0107511
-0.0914422,0.0134175
-0.0820908,0.00744033
-0.0631704,-2.81e-05
-0.0301834,0.0103869
0.00364394,-0.000438712
0.0144143,-0.0119237
-0.012012,-0.0126521
-0.0282225,0.0017562
-0.0101061,0.0102329
0.0068371,0.00888017
0.00736086,0.000264459
-0.0238424,0.00290387
-0.0438674,-0.00395873
-0.0775415,-0.00540964
-0.116028,0.00353236
-0.127967,-0.00310934
-0.0965667,-0.000293312
-0.0605905,0.00201317
0.0226779,-0.000209098
0.134572,-0.00536051
0.207242,-0.0093893
0.266513,-0.0180735
0.276505,-0.0195344
0.174767,-0.00342389
0.140538,0.00202929
0.24061,-0.00149458
0.436847,-0.00253925
0.406411,0.00349978
0.167846,0.0101126
-0.239078,0.0106674
-0.491798,0.0090933
-0.528377,0.012235
-0.435969,-0.000344572
-0.361846,-0.00633096
-0.212894,0.0027409
-0.0816308,0.00208725
-0.0664474,-0.00675641
-0.0664901,-0.0145165
-0.0492055,-0.0307191
-0.0162768,-0.018677
0.0132583,0.0137176
0.0193906,0.0195616
0.0201943,0.0338444
0.019221,0.0252515
0.033195,0.00717223
0.0709191,-0.00150041
0.101885,-0.0215237
0.104652,-0.0172518
0.0951781,-0.0098531
0.0879289,0.00476981
0.0874278,0.0156029
0.0841868,0.0124736
0.0715452,0.00275031
0.0367729,-0.000891814
-0.00564563,-0.0251235
-0.0048905,-0.00968267
0.0074506,0.00874766
-0.00848455,0.0167856
-0.0352677,0.00586249
-0.0536636,0.0107199
-0.0538021,0.0160136
-0.0297036,0.0106049
0.00571335,-0.00640907
0.0309001,-0.0219087
0.0323825,-0.0195944
0.0288553,-0.0083403
0.0331266,0.00741121
0.0320129,0.00659099
0.0281849,-0.00340899
0.0192754,-0.00383686
-8.1e-05,0.0125193
-0.0211944,0.00875057
-0.0324645,-0.00772841
-0.025854,0.00140796
0.0158666,0.00596914
0.0291081,0.00512461
0.0426311,0.00911578
0.033565,0.0104841
-0.000588842,-0.00439641
-0.00592211,-0.0238251
-0.00452769,-0.0209032
-0.0119019,-0.0311481
-0.019357,-0.0421195
-0.0044259,-0.000704955
-0.0219704,0.0101516
-0.0161893,0.00803506
-0.0141288,0.0126757
-0.0375473,0.00834071
-0.0551184,-0.00265379
-0.0437429,-0.00390364
-0.0285862,0.00743875
-0.0259429,0.0145235
-0.0273179,0.0195658
-0.0309575,0.0233244
-0.0225414,0.020746
-0.00259777,0.000153508
0.0198095,-0.022018
0.0326799,-0.0223335
0.0304669,-0.017409
0.0321032,-0.0100878
0.0386788,-0.0015465
0.038078,-0.0025193
0.0306451,-0.00732845
0.0155348,-0.0054005
0.00721964,0.000991218
0.00454739,0.00129245
0.00234627,0.00718332
-0.00860992,0.0166035
-0.0169944,0.0243623
-0.0228743,0.0236435
-0.0296504,0.0273969
-0.0278517,0.0190743
-0.0127661,-0.000640174
0.0108887,-0.0177741
0.0174337,-0.0152336
0.0255205,-0.00139157
0.013308,-0.00771394
0.00802366,0.000523898
0.0183254,0.00575577
0.019175,-0.00427236
0.00339117,-0.0117429
-0.0117641,-0.0171915
