Comp Ch 3,Comp Ch 4
-0.0609676,-0.00107533
-0.0327227,-0.0281419
0.00262978,-0.0191379
0.0270153,-0.0109373
0.0151534,-0.0143742
-0.0382251,-0.00905835
-0.056387,0.00855206
-0.0545563,0.0311543
-0.0144134,0.0303393
0.0312711,0.00352466
0.0789168,-0.0163687
0.101095,-0.0168274
0.0811809,0.00744894
0.0488743,0.0197924
0.0155344,0.0193339
-0.000786033,0.0214091
-0.00241973,0.0120217
-0.00330081,-0.0132006
0.00555863,-0.0223146
0.00816037,-0.0202396
0.00330966,-0.0145694
0.00412836,-0.000802132
0.000508541,0.00694736
-0.00252346,0.0127748
-0.00455294,0.0188138
-0.00769148,0.0201853
-0.0130896,-0.0141292
-0.0205028,-0.0315853
-0.0423539,-0.0127089
-0.0808451,-0.00141339
-0.0779023,-0.0121213
-0.042888,0.029665
-0.00619995,0.031668
0.0245571,0.00489332
0.0529339,-0.0172476
0.0684427,-0.0166267
0.0513155,-0.0109121
0.0179665,-0.013178
-0.00897075,-0.00924953
-0.0304299,0.0121979
-0.0182613,0.0249178
0.0216186,0.0167633
0.0410999,0.0102262
0.0257213,-0.0119536
0.00804607,-0.0353269
0.0118265,0.00399377
-0.037004,0.00851457
-0.116478,-0.0154607
-0.101675,-0.00727791
-0.0490062,0.0195574
-0.00343239,0.0195217
0.0364886,-0.00510787
0.0644699,-0.0182563
0.0556676,-0.0150919
0.032331,-0.00961991
0.022229,0.00383827
0.0259771,0.0153531
0.0186397,0.012503
0.00555545,-5.9e-05
0.00864753,0.0003717
0.0175235,-0.0119653
0.00502828,-0.0126993
-0.0128754,0.00389336
-0.018634,0.00839845
-0.0285372,0.0116038
-0.028691,0.0268422
-0.0235782,0.0115129
-0.018698,-0.0183169
-0.00621887,-0.0255448
0.0115406,-0.00251495
0.023892,-0.0148366
0.0195697,-0.00817805
0.0104897,0.007171
0.00273532,0.00429755
0.00218343,0.00460763
0.0101856,0.0125144
0.0235368,-0.0124425
0.0197599,-0.0265649
0.0127811,0.00174219
-0.000823964,0.00998724
-0.0209197,0.00625597
-0.0314669,0.00948057
-0.0411083,0.0179007
-0.0373958,0.00830161
-0.01113,-0.0164726
0.0147146,-0.0236939
0.0207617,-0.0143142
0.0118081,-0.0159117
-0.0349679,-0.00351395
-0.0574175,0.0188687
-0.0373144,0.0219398
-0.0244748,0.019592
-0.0100895,0.0103836
0.0191592,-0.0140089
0.00815737,-0.0167932
0.0202161,0.013272
0.0313251,0.0185807
0.0328275,0.00418002
0.0125498,0.00230356
-0.00354021,0.00767727
0.0101808,0.0195804
-0.00153306,-0.0120161
0.0171555,-0.021936
0.0458829,-0.0112043
0.0632106,-0.0101642
0.055968,0.00381816
0.0294101,0.0134394
-0.00171356,0.0115617
-0.0406458,0.0121462
-0.0771662,-0.00244247
-0.0731274,-0.0234826
-0.038595,-0.0139287
-0.0059679,0.00965508
0.00543028,0.00789422
0.0357229,0.00487296
0.0549676,0.0138907
0.0342658,0.0297214
0.00952254,0.00387779
0.00957176,-0.023331
0.00730956,-0.0185505
-0.0220447,-0.0202596
-0.0586353,-0.00549097
-0.0554018,0.00756565
-0.0309245,0.0116385
0.00480728,0.0117687
0.0304418,0.0128515
0.0453679,-0.00468883
0.0340197,-0.0255578
-0.00599018,-0.0346267
-0.0185444,-0.00732292
-0.0184333,0.00584428
-0.0281473,0.00658548
-0.0310639,-0.00421983
-0.0142214,-0.0246224
0.0208523,-1.58e-05
0.0373666,-0.00751235
0.0282243,-0.00866673
0.0263033,-0.00663431
0.0223133,-0.00397808
0.0105295,0.00444078
0.00517152,0.0183581
0.00337751,0.0112358
0.0031614,0.00302627
-0.00575648,-0.00640385
-0.0112168,-0.0115358
-0.0237856,0.0210133
-0.0311144,0.0272223
-0.0119498,0.0257301
-0.0012696,0.0433837
-0.00267323,0.0354716
-0.0102504,0.00487108
-0.000196058,-0.00877266
-0.00957717,-0.0211226
-0.0189096,-0.0271355
-0.0201484,-0.0298983
-0.0177787,-0.0152978
0.00117651,-0.0255508
0.0187153,0.0108673
0.0167354,0.0441921
0.0116031,0.0196672
0.0180239,-0.00950308
0.0149746,-0.00560903
-0.0103951,-0.00264629
-0.02129,-0.0032152
-0.0132418,0.00995024
-0.0203932,0.0175162
-0.0259142,0.00952615
0.0248949,-0.00960868
0.0438478,-0.033861
0.0391158,-0.0259501
0.0305517,-0.0119497
0.012681,-0.00713117
-0.0228723,0.0029234
-0.103121,0.0101473
-0.124512,0.00837429
-0.0675634,0.0106123
0.030436,-0.0153474
0.0905358,-0.0194935
0.106834,-0.00436813
0.0809831,0.00659572
0.0446492,0.00973835
0.0218013,0.0195664
0.00492044,0.0288333
-0.0044868,0.0163952
-0.00598078,-0.0132289
-0.013337,-0.0307254
-0.0126672,-0.0195414
-0.0011674,-0.00956215
0.000343182,0.000780832
-0.00424229,0.0106321
-0.006111,0.0107616
-0.0066219,-0.00964512
-0.00520044,-0.0190585
0.00293287,-0.0189433
0.00390275,-0.0162613
-0.0021982,0.00104365
-0.012163,0.0132544
-0.0126318,0.0185238
-0.00622148,0.0322861
-0.00703296,0.0353844
-0.00555031,0.00880449
-0.0102174,-0.0253331
-0.0226715,-0.0312364
-0.0314674,-0.0210085
-0.0242103,-0.00294152
-0.00464711,0.0172357
0.0321762,0.015217
0.0483457,0.00328024
0.0252099,0.00670143
0.0166446,-0.00676609
0.01381,-0.0319791
0.0133483,-0.0166895
0.00302039,0.0123854
-0.0161141,0.00591379
-0.0355084,0.00183643
-0.0413792,-0.0128197
-0.0213192,0.00432637
0.0105146,0.0176916
0.0142207,-0.0116704
-0.00846209,-0.00951189
-0.0177653,-0.00556577
-0.00356145,0.00403751
0.00141474,0.0206324
0.0030883,0.023215
0.00408774,0.0150734
-0.0018258,0.0167441
0.00406025,0.00215291
0.00722921,-0.0201202
-0.019074,-0.00745376
-0.0278945,0.00624977
-0.0126174,0.00793488
0.00164214,0.0167478
0.0146536,0.0238464
0.0501328,0.0114267
0.0559255,-0.0204814
0.0317261,-0.0248382
0.0167588,-0.0117022
0.00177244,-0.0052184
-0.0145991,0.00487443
-0.0236745,0.0151989
-0.0346255,0.0135729
-0.0411052,0.00560597
-0.0544906,0.00247998
-0.0428482,-0.0176205
-3.58e-05,-0.0245641
-0.00587256,-0.00645898
-0.00999515,0.00934672
0.00973477,-0.00441554
0.030539,0.0143167
0.0320801,0.028078
0.0209377,0.00366388
0.0133254,-0.0296061
0.00745279,-0.0277798
0.00500871,-0.0217651
0.000532875,-0.0118796
-0.00661649,0.00749048
-0.0156116,0.00195825
-0.0147326,0.00454131
0.00473551,0.00830639
0.037052,0.0103244
0.0549986,-0.0104621
0.0628421,-0.0181894
0.0572518,-0.00647672
0.0348495,-0.00355156
0.00407951,0.0165712
-0.0119971,0.0187365
-0.0345353,0.00951778
-0.0530508,-0.0033397
-0.0452385,-0.0100504
-0.0285433,-0.00663104
-0.0186719,-0.00176788
-0.0234383,-0.00376201
-0.0209583,0.00916469
-0.00461122,0.0285868
0.014893,0.014217
0.0270973,0.00522495
0.0251498,-0.0141581
0.0207134,-0.0289585
0.0095349,-0.0177793
-0.00829506,-0.00516985
-0.0256698,-0.00214795
-0.0256942,0.0122035
-0.0197633,0.0112733
-0.0308913,0.0041099
-0.0350081,-0.009317
-0.0260162,-0.021723
-0.0159219,-0.0269476
-0.0076053,-0.0271206
0.00536435,0.00501475
0.0139932,0.032495
0.0201363,0.0322663
0.0283008,0.0201904
0.0277134,0.0217216
0.0176303,0.00162703
0.00399243,-0.0143129
-0.0010221,-0.00245008
0.00423716,0.00974213
0.00668684,0.00683786
0.00816369,0.0193431
0.00588505,0.0147957
0.0187589,-0.0122771
0.031184,-0.0132922
0.0265301,-0.0110518
0.0164629,-0.00614204
0.00500928,-0.00106509
-0.010573,0.00935143
-0.0197949,0.0155971
-0.0181467,0.00874991
-0.0179618,0.00641795
-0.013617,-0.00486827
0.036728,-0.0204034
0.0726,-0.0212497
0.048144,-0.0143032
0.00861683,-0.0123807
-0.0245423,-0.0215849
-0.0460904,-0.000150394
-0.0513773,0.0170104
-0.0462253,0.0187199
-0.12796,-0.0133042
-0.196799,-0.0400057
-0.134911,-0.0158284
-0.0270944,0.0361649
0.0701569,0.0322151
0.162382,0.0277012
0.208059,0.010399
0.158956,-0.00297007
0.0811228,-0.0286714
0.0166687,-0.00615789
-0.0242521,-0.00343097
-0.0367552,0.000353423
-0.0553431,0.00886232
-0.0775825,0.0165541
-0.0603428,0.0176862
-0.0262089,0.0205015
0.00550339,-0.00894634
0.0201297,-0.0300955
0.0202478,-0.00825038
0.0109996,-0.000941988
-0.00694224,0.00116849
-0.0068276,0.0132814
0.00819121,0.00986241
0.0203979,0.00837111
0.00691279,0.00292867
-0.0225209,-0.0133507
-0.0378561,-0.0230288
-0.0250691,-0.0116336
-0.0125922,-0.00955938
-0.00274193,-0.0125106
0.00686122,0.0136566
0.0177113,0.0253827
0.00615543,0.00178419
0.0243553,-0.0315579
0.0945645,-0.0231867
0.120583,0.00384174
0.0796305,0.0142877
0.00327679,0.0150393
-0.0949387,0.0241658
-0.156841,0.0199826
-0.140587,0.0149389
-0.0771,0.0018202
-0.0190252,-0.0303996
0.0133606,-0.0411891
0.0310841,-0.0162745
0.0254408,-0.0032855
0.00131854,0.00872516
-0.010872,0.0199636
-0.00678685,0.0203293
0.00694548,-0.00165055
0.0279817,-0.0153215
0.0502446,0.00755798
0.0545251,0.00196848
0.0281678,-0.017179
0.00599598,0.00958261
-0.0333309,-0.00329637
-0.0409781,0.000524134
-0.0160648,0.0109524
0.020151,-0.0258627
0.0635337,-0.0259855
0.0972335,0.000131645
0.0684236,0.0206616
0.0134867,0.017169
-0.0183095,0.00679264
-0.0335424,0.00161984
-0.0327269,0.0074718
-0.0260927,-0.0109167
-0.0236632,-0.0245034
-0.0170727,0.0117039
-0.0170913,0.0181675
-0.0218749,0.0186708
-0.0236372,0.0225953
-0.019757,0.0249355
-0.0137085,0.00887962
-0.0136848,-0.0109331
-0.0144526,-0.0329418
-0.00923047,-0.0371876
0.000550857,-0.0160821
0.0185686,-0.0093806
0.0303498,-0.00990348
0.032233,-0.00196597
0.024433,0.0206397
0.0121823,0.0145881
0.00536442,-0.0101668
0.00654865,-0.00164036
0.00782085,0.0126644
0.0280451,0.0137029
0.0287283,0.00986961
0.00645564,0.0232589
-0.0155775,0.00189225
-0.0144736,0.00412058
0.00405372,0.00574783
0.00650698,-0.0299356
0.0037989,-0.0241798
-0.0022421,-0.00486036
-0.00178991,-0.00204455
0.00557345,-0.0209423
-0.0134564,-0.0163225
-0.0346946,0.0125278
-0.0511292,-0.0129122
-0.0660044,-0.0402628
-0.0495882,0.000825642
-0.0214315,0.0219579
-0.00198432,-0.00463741
0.00863044,0.0305789
-0.000766365,0.0489879
-0.0102926,0.0241609
-0.0136478,0.00124024
0.00550333,-0.0269301
0.0331642,-0.0420576
0.0408125,-0.0369339
0.0498962,-0.0397868
0.0501744,-0.0197952
0.0933219,-0.0111155
0.151371,0.00988421
0.132642,0.0122762
0.091674,0.0430301
0.025571,0.049346
-0.0656902,0.0530624
-0.13926,0.030718
-0.145219,0.0151647
-0.108168,0.0565425
-0.0850529,0.0256954
-0.0562327,0.0265662
-0.0641581,0.0209665
-0.0932781,-0.0114261
-0.0809646,-0.017793
-0.0670793,-0.0210737
-0.0338397,-0.0208793
-0.00338742,-0.0258312
-0.00165168,-0.0241419
-0.00501442,-0.0219519
0.0282207,-0.0164737
0.0561272,-0.00630671
0.0540385,0.0162726
0.0392495,0.00896639
0.083944,0.00671892
0.169552,0.0116048
0.187743,0.0129974
0.153327,0.00558763
0.0863488,0.00490927
-0.000153477,-0.00539272
-0.058035,-0.0327653
-0.0889269,-0.0388666
-0.0669536,-0.0274549
-0.0162191,-0.0386824
0.00670136,-0.0252276
0.00289889,-0.00504074
-0.0259765,0.0169147
-0.062072,0.0125836
-0.0798404,0.00883652
-0.0736313,0.0168936
-0.0568908,0.00391469
-0.0724357,-0.0329604
-0.083162,-0.0697871
-0.027765,-0.0278075
0.0121503,0.0440782
0.023922,0.0339278
0.0325795,0.00325977
0.0502403,0.000430668
0.043291,-0.00954216
0.0345096,0.00235743
0.0378432,0.00769939
0.0420546,0.0128788
0.038747,0.0175234
0.0206824,0.00838196
0.00573603,-0.0136212
0.00749035,-0.00868244
-0.038574,0.0137461
-0.106689,0.0123096
-0.0993268,0.0141723
-0.0535151,0.0144318
0.00655884,0.0072374
0.0609442,0.00883443
0.0926635,0.010708
0.0929984,-0.0481215
0.0273506,-0.0269721
-0.014061,-0.0125472
0.019594,-0.0230116
0.0485206,-0.00807684
0.0395073,0.00530449
0.0163486,0.0150439
0.00946315,0.023376
0.0175935,0.00744298
0.0224069,0.00198041
0.0164971,0.0093915
5.36e-05,0.0205105
-0.00711316,0.0325216
-0.0142519,0.0316735
-0.0376317,0.0182985
-0.0500636,0.0037914
-0.0383904,-0.0143166
-0.0574621,-0.0243032
-0.0784112,-0.0297697
-0.0743876,-0.0220451
-0.0548365,-0.0248794
-0.00805883,-0.0212999
0.0453409,-0.00855197
0.0694345,-0.00256715
0.0651082,0.00498805
0.0482813,0.00496053
0.0224782,0.00980607
0.00485833,0.0141897
-0.00137353,0.0207494
-0.00853361,0.0272229
-0.00641506,0.0200054
-0.0106956,0.0137976
-0.0161911,-0.00194586
-0.00800242,-0.0112523
-0.00494524,-0.0225749
-0.00689365,-0.0231396
0.00173865,-0.0116757
0.0115127,-0.0176146
0.0100145,-0.00611702
-0.0007444,0.00883348
-0.00804497,0.0176752
-0.00505836,0.0145149
-0.00255793,0.00032967
0.000481946,0.0052648
0.0030333,0.0117884
0.00272978,0.0202792
-0.00990851,0.0256483
-0.0215198,0.018519
-0.0415616,0.00661597
-0.0374936,-0.00434934
-0.0197003,-0.0161572
-0.0191113,-0.0255344
-0.00233836,-0.0147073
0.0202827,-0.0188123
-0.000710613,-0.0349375
-0.0197231,-0.0187264
-0.0158933,0.00381342
0.0112871,0.00567657
-0.00529875,-0.0109537
-0.00538239,-0.0137476
0.00574443,0.0156917
0.0402638,0.0178306
0.0679874,0.0302221
0.0790337,0.0260246
0.0690835,0.0156698
0.0219262,0.0174778
-0.0142536,0.0148765
-0.00702704,-0.0183864
0.00925752,-0.0324208
0.00438518,-0.0155979
0.000683708,-0.00637212
-0.00657894,-0.00805645
-0.0166015,0.00112744
-0.0203686,0.0255431
-0.035832,-0.00224824
-0.0564691,-0.0353309
-0.0164053,0.00482023
0.0230487,-0.0178561
0.0209372,-0.0332463
0.00783344,0.0286155
0.00701671,0.0339581
0.0049703,0.004065
0.0144898,-0.00431251
0.0105172,-0.00993901
-0.0145817,-0.022568
-0.0392382,-0.0137707
-0.043534,-7.05e-05
-0.0158351,0.00541864
0.0140669,0.00801028
0.015756,0.01622
-0.0101666,0.0135556
-0.0658526,-0.00722928
-0.0722473,-0.0234857
-0.0274006,-0.0165554
0.0205846,0.0164229
0.0692189,0.012635
0.0927598,0.0279175
0.0804048,0.0202548
0.0341346,-0.00546006
-0.00581708,-0.00354071
-0.00227186,-0.00398815
-0.00506766,-0.0160541
-0.00913154,-0.00871159
-0.0135939,-0.00122489
-0.00852251,-0.00260301
0.00194766,-0.00565952
0.00489714,-0.000378009
-0.00479147,0.0142454
-0.00197942,-0.00490049
0.00317372,-0.0105744
-0.0389246,-0.00275886
-0.0780547,-0.00707862
-0.0697522,0.00375711
-0.00992629,0.0249828
0.034124,0.013471
0.0418023,0.000770492
0.0400785,-0.00430186
0.0368599,-0.0149372
0.00886826,-0.0244974
-0.0138851,-0.0113465
0.00103412,0.0111232
0.0100417,0.0050741
0.00977069,0.0164862
0.0151538,0.021152
0.0259551,0.00469762
0.0379668,-0.010917
0.0232571,-0.00518148
-0.0533122,-0.00905688
-0.158028,-0.0110236
-0.17016,-0.0085803
-0.0904562,-0.00196818
0.0238102,0.00692525
0.0818319,0.0225371
0.103468,0.00681006
0.103107,-0.0121744
0.0932354,-0.000464815
0.0536376,0.00729559
0.0189216,0.0124804
0.0131264,0.0183592
0.0260074,0.0175583
0.0256392,0.00847548
0.0144031,-0.0101015
0.0091095,-0.0125501
0.0172841,-0.00739835
-0.00727276,-0.00859744
-0.150114,-0.00709345
-0.276555,-0.00322338
-0.214742,-0.00132321
-0.0239503,-0.00419993
0.111362,0.000730593
0.168719,-0.0292132
0.101052,-0.0274596
-0.0215479,0.00706493
-0.153844,0.0114599
-0.168032,0.00991347
-0.0412554,0.0152145
0.105309,0.024032
0.20171,0.0149625
0.179516,-0.0219411
0.117534,-0.0189032
0.0793863,0.00775099
0.00730246,0.000410117
-0.0392774,0.00133781
-0.0187734,0.0146388
0.0254827,-0.00021973
0.0189435,-0.0255748
-0.00187358,-0.0479465
0.0181807,0.0175882
0.00306783,0.0190356
-0.0336078,0.0176744
-0.0525724,0.0266184
-0.113006,0.00913717
-0.156472,0.0131563
-0.108263,0.0221913
-0.016779,-0.00366737
0.0471319,-0.0272421
0.0858547,-0.0170832
0.0928418,-0.0065231
0.054867,-0.0034491
0.0303163,0.00272849
0.00869861,0.00931982
-0.00271012,0.00997345
-0.013833,0.00244539
-0.00941349,-0.00698185
0.0111564,-0.0220256
0.0122697,-0.0209163
-0.0180758,-0.000558496
-0.0532505,0.00682861
-0.0535233,0.013118
-0.0367043,0.00939347
-0.0272065,0.0036816
-0.00365798,-0.0190032
0.00633548,-0.0159776
0.000419533,-0.00243542
-0.0151506,-0.0226177
0.00278515,-0.0138546
0.0274348,0.022495
0.0259309,0.0255073
0.0159643,0.0123639
0.00599568,0.00704731
0.00182001,-0.0119521
0.00135331,-0.0157157
-0.0195614,-0.00615742
-0.036942,-0.00940343
-0.0119463,-0.0133913
0.0152748,-0.0175511
0.013362,0.00182722
0.0161966,0.0086665
0.0231858,-0.000290804
0.0215859,0.0194558
0.00436449,0.0240131
0.0107223,0.0149728
0.023062,0.0126813
0.0227839,0.0141725
0.00706894,0.0188237
-0.00864038,0.00703547
-0.0235433,-0.0168566
-0.043294,-0.0513672
-0.0103244,-0.0190132
-0.00550643,-0.0213739
-0.0501718,-0.0143783
-0.0541018,0.0172486
-0.0294144,0.0359003
-0.00613651,0.0217085
0.0308516,-0.00684361
0.0662282,-0.0304945
0.0717864,-0.0179983
0.0548838,-0.0040981
0.044215,0.00119449
0.0359062,-0.00203578
0.019492,0.00255562
0.00423897,-0.0110473
-0.00632991,-0.00888022
-0.004962,0.00580651
-0.0133829,-0.00178733
-0.0350226,0.00676242
-0.0424226,0.0248367
-0.0325087,0.0373834
-0.0236317,0.0381582
-0.0229173,0.0318276
-0.0211423,0.0267514
-0.0156785,0.00816857
-0.0134339,-0.00850449
-0.0111643,-0.0148583
-0.000186802,-0.00367621
0.00179139,0.00882794
0.00025485,0.0125624
0.00883599,0.00659311
0.0207943,0.0139234
0.0206065,0.0052501
0.015881,-0.0130834
0.0130595,-0.0239189
-0.0041851,-0.00881135
-0.0214089,0.00280735
-0.0360562,-0.00685327
-0.0503193,-0.0152983
-0.041022,-0.012463
-0.0150074,-0.0221643
0.02823,-0.0212148
0.0560549,-0.0351939
0.0647714,0.00447401
0.0470984,0.0102918
0.0164561,-0.00139577
0.00193567,0.0133617
-0.0084337,0.00986443
-0.0125069,-0.00942996
0.00203898,0.000787812
0.0152854,-0.00285528
0.00200686,-0.0666656
0.0167522,-0.0148847
0.0395754,0.0312427
0.0123617,-0.0118505
-0.0820672,0.00908106
-0.168967,0.0185346
-0.127843,0.0143723
-0.0341853,-0.0235251
0.0488191,-0.0171849
0.096909,0.0119495
0.0894417,0.0155914
0.0397389,0.0199276
-0.00234551,0.00709484
0.0187116,-0.0115033
0.0558693,0.043649
0.0170879,0.0422695
0.016537,-0.0318039
0.0562952,-0.0624471
0.0488335,-0.0189131
-0.0117325,0.0144219
-0.0248796,0.00321193
0.00617853,-0.0104303
0.00932837,0.00362278
0.0142905,-0.00414628
0.00620127,-0.00619119
-0.0213955,-0.00485594
-0.041914,-0.0149701
-0.0654966,0.0191901
-0.119731,0.0344849
-0.146416,0.0163151
-0.0857404,0.0138038
0.000237538,0.0100993
0.0772299,-0.010518
0.124544,-0.00547585
0.0847811,-0.0186723
0.0108701,-0.0291544
0.00168108,-0.0642812
0.00781636,-0.0155142
-0.00930029,0.0560929
-0.00187209,0.0429248
0.0389287,0.0179155
0.0347196,-0.0104304
0.0203682,-0.00977415
0.0132252,-0.00301037
0.000502721,0.00572918
0.00329964,0.0376364
-0.0160157,0.0381409
-0.0408812,0.0139498
-0.0147147,0.00724114
0.0298302,-0.0317137
0.0295893,-0.0413306
0.007178,0.00316239
-0.0213464,-0.000304485
-0.0228961,-0.010743
-0.0215397,-0.0176808
-0.024374,-0.045519
-0.0311166,-0.0098966
-0.00992975,0.00286884
-0.010749,0.0185281
-0.104583,0.0275981
-0.0823509,0.00871866
0.00559071,0.0159903
0.0879545,0.0417929
0.0951127,0.0317595
0.0281958,0.00245242
-0.0677932,-0.0309242
-0.172175,-0.0470611
-0.210757,-0.0126065
-0.039399,0.016286
0.118153,-0.00463374
0.168426,-0.0562456
0.162904,-0.00360612
0.0933765,0.0108934
0.0319717,0.0187518
-0.00112453,0.00996937
-0.0494913,0.0300904
-0.0376654,0.0361791
-0.00456402,0.0447041
-0.0491414,0.0143054
-0.098557,0.00286207
-0.0311937,0.00415661
0.0772344,0.00629804
0.156491,-0.0105958
0.118288,-0.0215141
0.0359372,-0.0297323
-0.0138331,-0.0264643
0.00526661,-0.029534
0.0407343,-0.00347582
0.00813648,0.00130891
-0.00561818,-0.0295375
0.0186352,-0.039417
0.0307012,-0.0228931
0.0354097,-0.0184718
0.0117951,0.0157436
-0.0165398,0.023973
0.0233535,0.0253138
0.0206554,0.0780258
-0.0548182,0.0501403
-0.0946225,0.022537
-0.092778,0.0168063
-0.0951453,0.0181419
-0.198783,-0.00265702
-0.343515,-0.0392901
-0.360685,-0.0542565
-0.179681,-0.052473
0.152754,-0.0256518
0.286314,0.00737981
0.098845,-0.00430678
0.093028,-0.028107
0.189909,-0.0216926
0.268505,-0.0217416
0.262612,0.0111381
0.125588,0.0639027
0.0405894,0.0231455
-0.0525453,-0.012683
-0.163893,-0.00812799
-0.142846,0.00411216
-0.0450369,0.00523766
0.0692513,0.0272769
0.155408,0.0228637
0.117183,0.0114012
0.00138663,-0.00943784
-0.0750144,-0.0408198
-0.0322504,-0.00982762
-0.0330448,0.02352
-0.0736586,0.00425449
-0.0620627,0.00506055
-0.0684523,-0.00925614
-0.0533508,-0.0519203
-0.0550542,-0.0257202
-0.0666344,0.0657423
-0.0101026,0.0850366
0.0785625,0.0863438
0.0855397,-0.0365426
0.0708531,-0.0667741
0.0142412,-0.0423776
-0.0844351,-0.0202823
-0.157496,-0.00243652
-0.288323,-0.0346106
-0.147578,-0.0859133
0.0163186,-0.00319611
0.126703,0.0309736
0.11465,-0.000553096
0.0626028,0.0151322
0.129987,0.0231207
0.132393,0.00832578
0.0966465,0.0157095
0.0501008,0.0241257
-0.0385713,-0.00981727
-0.0550074,-0.0466237
-0.0800881,-0.0348253
-0.116817,0.0403608
-0.096055,0.044282
0.0471475,0.0195815
0.1779,0.0361264
0.142271,0.0224423
0.0477893,0.00278987
0.0332897,-0.0189875
0.031155,-0.0076181
0.0103812,0.00166692
-0.026998,-0.00446787
-0.124978,0.0142171
-0.217733,-0.00701244
-0.165635,-0.0189877
-0.017881,0.000282265
0.0055613,-0.027203
-0.0248858,-0.0353666
0.0976183,0.00971038
0.152802,0.0203879
0.0895787,0.00984179
0.0695584,0.0189691
0.0552202,0.0234117
0.00553697,0.0126468
-0.0431402,-0.0195862
-0.0490993,-0.0353305
-0.00338661,-0.0121318
0.00267527,0.0141102
-0.0320333,0.00923383
-0.0269897,0.0213459
0.0287532,0.0176653
0.0640678,-0.00323562
0.0457601,0.00779439
-0.00781588,-0.000247496
-0.127302,-0.00259132
-0.218484,-0.00388985
-0.183279,-0.0354776
-0.0287091,-0.0186892
0.147827,0.0262944
0.175667,0.0256305
0.122305,-0.00216861
0.0757849,-0.0402814
0.0167659,-0.0351413
0.00457511,-0.0302496
-0.00513538,-0.0123334
-0.0159732,0.0180946
-0.0247953,0.00157224
-0.0105713,0.0135491
-0.0504769,0.0115013
-0.00931327,-0.0037293
0.00915621,-0.0104972
0.0267764,-0.00996622
0.0440121,0.00729674
0.0374083,0.0175487
0.0208103,0.0195381
-0.00983243,0.0258335
-0.0305374,0.0161519
-0.0141535,-0.0103304
-0.00699491,-0.0224267
-0.0121773,-0.00385698
-0.0271413,0.00302037
-0.0496532,0.00975473
-0.0532566,0.0228763
-0.156988,0.0170158
-0.246869,-0.0106866
-0.0983001,-0.0688928
0.0917926,-0.00502427
0.24315,0.0198598
0.224385,-0.00774195
0.122385,-0.0328693
0.0713918,0.0133957
0.0360393,0.043402
0.0166858,0.0271426
-0.0069109,-0.00155463
-0.00512803,-0.0121181
-0.00714313,-0.0140892
-0.136336,-0.0152292
-0.242341,-0.0134472
-0.214543,0.0161644
-0.0638324,0.0306098
0.0418343,0.0340682
0.120428,0.0208292
0.112642,-0.0144477
0.0500702,-0.00884321
0.0138318,-0.00863486
0.0591209,-0.0112617
0.0840836,0.00828633
0.0686286,0.00471364
0.0732054,-0.0181151
0.044316,-0.0503363
-0.0102922,-0.0332894
-0.145374,0.0287047
-0.232607,0.00544376
-0.143045,-0.00508027
0.0385174,0.00642733
0.157317,0.0230219
0.148778,0.0218361
0.0883271,0.00139137
0.042081,-0.00707758
0.0170904,-0.0165683
-0.00279904,-0.0150104
-0.00337336,0.00152467
0.0109018,0.00346556
-0.000925381,-0.00442136
-0.0523452,0.00395564
-0.0774226,0.00842148
-0.0413666,-0.0156684
0.00190752,-0.0354178
0.0133245,-0.0431666
-0.0158322,-0.0421228
-0.0291869,-0.0316853
-0.0396539,-0.022771
-0.0207531,-0.0107193
0.0298903,0.0124294
0.0372225,0.0256937
0.0174624,0.0404846
-0.0125079,0.0329781
-0.0187244,0.033209
-0.0285622,0.0578769
-0.0233072,0.0604025
-0.0244115,0.0439819
-0.0441955,0.0374655
-0.0414281,0.033893
-0.0119228,0.0140412
0.00982399,-0.00665853
0.0241539,-0.0057569
0.0257597,-0.00581646
0.00517883,-0.0094767
-0.00979478,-0.014027
0.00729425,-0.00734031
0.0306145,-0.0129429
0.0223094,0.0112701
0.0069559,0.0104823
0.00431715,-0.0172636
0.00845099,-0.00195995
-0.00149353,-0.00770345
0.0097509,-0.0256071
0.0172698,-0.0262359
0.0063818,-0.0133948
-0.00871808,-0.00337869
-0.0146006,-0.0210879
-0.0109404,-0.044743
0.00682287,-0.0307914
0.00356913,-0.0310044
0.00513269,-0.0191705
0.0271919,0.0160454
0.035107,0.0277727
0.0457224,0.0279994
0.0429565,-0.00637947
0.00694763,-0.0119865
-0.0311903,0.00941139
-0.0374121,0.0156023
-0.0238146,0.000395987
-0.0167478,0.00315751
0.00302937,0.0166484
0.0195885,0.024823
0.00554459,0.0154344
0.0100228,-0.0260092
0.0246198,-0.0196025
-0.0368637,-0.00461095
-0.0904964,-0.00688573
-0.0613704,-0.0210934
-0.0213343,0.000870973
0.0361209,0.0109727
0.0394207,-0.0131667
0.0307817,-0.0294991
0.0582608,-0.0203423
0.0478764,-0.00029163
-0.0379416,0.00841436
-0.09302,0.0105391
-0.0432489,0.0121528
-0.0104931,-0.000804468
-0.0456477,0.00201524
-0.0539922,-0.0181141
-0.0436009,-0.0308018
0.0210165,-0.0114524
0.129644,0.00538854
0.162135,0.0194048
0.119566,0.0169033
0.0503739,0.0238455
-0.066875,0.0318705
-0.149897,0.0280158
-0.115725,-0.0164393
-0.0483418,-0.047742
0.0435671,-0.0252359
0.0827775,-0.00522283
0.0396556,0.0158708
-0.0596128,-0.012446
-0.0835449,0.00443434
-0.00377466,0.0472881
0.0744374,0.0252868
0.115501,0.0052853
0.128205,0.0074241
0.0679357,0.00431196
-0.105363,0.00220401
-0.226197,-0.0010501
-0.0960307,0.00154864
0.0527341,0.0288874
0.0827729,0.0193646
0.0499706,-0.0408395
0.0288803,-0.0313642
0.0438347,0.0164336
0.0414081,0.0184838
0.0197945,0.00790453
0.00736217,0.00729392
-0.0275462,0.0147458
-0.0553401,0.00865328
-0.0345436,-0.00965314
0.00104194,-0.0181942
0.00098655,-0.011028
-0.00561078,-0.00451143
-0.00343508,0.00846504
-0.00163043,0.017996
-0.00483151,0.00513468
-0.0110827,0.0143999
-0.012238,0.012014
-0.00469936,-0.020997
-0.00648551,-0.00967978
-0.0182988,0.00746424
-0.0161716,-0.0141887
-0.00648776,-0.00486694
-0.00666686,0.029611
-0.0253314,0.00960917
-0.0300889,-0.0180536
-0.0245319,-0.0352899
-0.0199643,-0.0221376
0.0263063,0.00039178
0.0626938,0.00339549
0.0535154,0.0183181
-0.0148635,0.00315383
-0.0449283,-0.00459366
-0.0265801,0.00833276
0.00720335,0.0107359
0.0273145,-0.0163795
0.00444839,-0.0145093
-0.0146183,0.00165229
-0.0132788,0.00532007
-0.0103998,-0.0118236
-0.00561598,-0.00707805
0.0242245,-0.0173382
0.0446962,-0.0532875
0.0169376,-0.0158507
0.00744413,0.0179552
0.0306675,-0.00272431
0.0276889,0.00183368
0.0320313,0.0356757
0.0407977,0.0326969
0.0170171,0.0218051
-0.0110048,-0.00674036
-0.019243,-0.0285251
-0.0278957,-0.0413952
-0.0232828,-0.00161961
-0.00564519,0.0235956
0.00443325,0.0120351
-0.00544419,0.00933655
-0.0257991,0.00235769
-0.0505492,-0.00492867
-0.0215786,-0.0133545
-0.0294497,-0.0122809
-0.11369,-0.0172114
-0.1146,-0.0127182
-0.0442854,0.0152885
0.0263783,0.0359173
0.107164,0.0338513
0.138278,0.0271298
0.114122,0.0192552
0.0463589,-0.000853558
0.00348332,-0.0229289
0.00288643,-0.031188
0.0160914,-0.0319936
0.0160697,-0.0141117
0.00625245,0.00619097
-0.0173389,0.00671353
-0.0882586,0.000338289
-0.151674,-0.0175071
-0.0973202,-0.00499169
-0.010912,-0.00261954
0.0611809,0.00799488
0.10909,0.0269661
0.119053,0.02719
0.0655903,0.0108452
-0.0160461,0.000956069
-0.0829388,-0.00775379
-0.0878304,-0.024953
-0.042703,-0.0201263
0.0111603,-0.00807351
0.0420801,-0.00965163
0.0494137,0.000654053
0.0290198,0.0183198
0.00830743,0.0186376
0.0216253,-0.00233529
0.0319074,-0.00495625
0.010937,0.00937182
0.00902535,0.0110284
0.0103272,0.0138218
-0.00157881,0.0053668
-0.00636175,0.0117751
-0.0111297,0.000134744
-0.0175122,-0.00596961
-0.0190707,-0.013252
-0.0212886,-0.0171412
-0.0238848,-0.00835647
-0.0141332,-0.00114017
-0.00168411,-0.00306594
0.00122492,0.0107076
0.000189879,0.0203349
0.00212967,0.0216529
0.00209623,0.00314994
0.00860356,-0.0231797
0.00704656,-0.017709
-0.00111263,0.014721
-0.0253088,0.0124369
-0.0254566,0.0097493
-0.0106359,0.00770833
0.00747267,0.00251484
0.0130076,0.00188446
0.0134181,0.000331343
0.0114687,-0.00503272
0.00915678,0.00555733
-0.00493484,0.0136979
-0.0162476,0.00307192
-0.00718718,0.00166334
0.0143091,0.0149712
0.0140195,0.00211751
-0.00657313,-0.00583819
-0.0191195,-0.0168286
-0.0260728,-0.0165043
-0.0215775,0.00355021
0.00471516,0.00282467
0.0215828,-0.011642
0.0231634,-0.0154794
0.0366558,-0.00739765
0.0438416,-0.018078
0.00862629,-0.0230526
-0.041806,-0.0094775
-0.0515673,0.00138759
-0.034689,-0.0014851
-0.0095115,-0.00408527
-0.00574435,0.0107896
-0.0141009,0.022213
-0.0101158,-0.000306167
-0.00369278,-0.0147401
0.0139746,-0.00489078
0.0324621,-0.00557218
0.0302756,0.00345564
-0.0113622,0.0123787
-0.100229,0.0124816
-0.0926691,0.00451885
-0.0351605,-0.00891106
0.0358967,-0.0128534
0.0847658,-0.0189256
0.103895,-0.00300399
0.0766433,0.00925458
0.0375668,0.00423083
0.0410218,0.00914541
0.0214934,0.0169899
-0.0727959,-0.0157997
-0.165254,-0.0383459
-0.201393,-0.00906578
-0.0570006,-0.00200996
0.114196,0.00337231
0.157376,0.0287004
0.0791213,0.026389
-0.00301979,0.00388221
-0.0268654,-0.0200213
0.00701771,-0.0277669
0.046657,-0.00914025
0.0520439,-0.00867091
0.0549013,-0.0019841
0.0432685,-0.00135071
0.00961241,-0.00948568
-0.00186096,-0.0102982
0.00100185,0.00837874
0.0133041,0.00478123
0.0277368,-0.010122
0.0184171,0.00230271
-0.00944019,0.0152423
-0.0342256,0.0218899
-0.0364957,0.0273934
-0.0321669,0.0417853
-0.0347086,0.0594379
-0.0432872,0.0331673
-0.0440789,-0.00443049
-0.0389535,-0.0218381
-0.0344288,-0.00622516
-0.0161251,-0.0097925
-0.0192454,-0.00365216
-0.11421,0.0121992
-0.117719,0.0140148
-0.0547342,0.00245529
0.0617678,0.00133599
0.156925,-0.00164542
0.158179,-0.00612
0.0473689,-0.0155135
-0.0516412,0.00472341
-0.0456711,0.00175245
0.00650042,-0.00709679
0.0180083,-0.000901623
0.0162252,-0.00715136
0.00897558,-0.0169973
0.00385097,-0.0240729
0.00104,-0.0165303
0.0054998,2.57e-06
0.00936542,-0.0107275
0.0104365,0.00640122
0.000148308,0.0161698
-0.0025703,0.00660056
0.0279434,-0.00624336
0.0534593,-0.00577228
0.0309572,-0.025254
-0.0224678,-0.0229693
-0.0350787,0.00536179
-0.0430132,0.00246074
-0.041698,0.00430125
-0.0173245,-0.0149873
-0.0126858,0.0138531
-0.0150134,-0.00536445
0.0120176,-0.00984135
0.0241762,0.0109308
0.0129378,0.0171937
0.00987589,0.0102231
0.000194547,0.012068
-0.0022848,0.00968157
0.013153,0.00557541
0.0197585,-0.0116988
0.0121588,-0.0328169
0.00932445,-0.00428959
-0.00710826,0.00400706
-0.0237232,0.00876571
-0.0241325,0.000890943
-0.00529394,-0.00224271
0.0111884,-0.00402777
0.00714281,-0.00435775
0.00616666,-0.00421522
0.00575308,-0.00944453
0.00850455,-0.000784527
0.00127251,-0.00629894
-0.0296104,-0.0136243
-0.0411131,-0.0149758
-0.0290692,0.0265052
-0.0217529,0.0247131
-0.019432,0.00743767
-0.0846668,0.00511944
-0.0967594,0.0134563
-0.020561,0.0207916
0.0458157,0.00791601
0.0893601,-0.0175957
0.103522,-0.020987
0.0815252,-0.0400521
0.0299634,-0.0121429
0.00128191,0.0015361
-0.00564302,-0.000912865
-0.00768953,0.0114262
0.0302264,0.00973499
0.0377737,0.0107412
0.0195002,0.0171036
0.0111941,0.0157519
0.0280103,0.00302517
0.0279837,0.000699538
-0.0198091,0.00610145
-0.0547306,0.00993202
-0.0534547,-0.00213831
-0.0503937,-0.000183377
-0.0137425,-0.00704548
0.00379271,-0.0189697
-0.00644691,-0.0165417
-0.0102441,0.00542059
-0.0194025,-0.00186833
-0.0374137,-0.00102611
-0.0287881,0.00265424
-0.0113331,-0.00209214
0.0144295,0.00432995
0.0391103,0.0104148
0.0440714,-0.00496997
0.0382382,-0.0100047
0.0253142,-0.00349615
0.0230213,-0.00229842
0.0210925,-0.00366898
0.0065286,0.00164183
-0.000313285,0.00880824
-0.0063089,0.00889383
-0.0231859,0.0106383
-0.0428151,0.00196732
-0.0441689,-0.0112514
-0.0410733,-0.020422
-0.031766,-0.00380703
-0.00297006,0.00490187
0.0329678,0.00850976
0.0453091,0.0265285
0.0212195,0.0182829
0.0160624,0.0114999
0.00520008,0.00673681
-0.00774152,-0.00494792
-0.00172652,-0.0104939
0.0087991,-0.00676982
0.00660567,0.00364806
-0.0210743,0.0137071
-0.0203996,0.014404
0.00374841,-0.00154315
0.00363112,-0.0257711
0.00281265,-0.0208243
-0.012016,-0.0150109
-0.0183202,0.00625601
-0.0132528,-0.0112501
-0.00901583,-0.0414069
0.00321294,0.0234809
0.0210894,0.0388294
0.0318401,0.00899162
-0.000687394,-0.00783715
-0.0232637,0.00374296
-0.00752593,0.00223773
-0.000147434,-0.00809024
-0.0154582,-0.00111902
-0.013144,0.0115031
-0.00134644,0.0124698
-0.00714927,-0.00147247
-0.0189488,-0.0197318
-0.0195172,-0.0256211
-0.0143633,-0.00971213
0.0123053,-0.00296172
0.0624085,-0.00298905
0.0742796,0.0164405
0.0318294,0.0118216
0.00202403,0.00206081
0.0203171,-0.0126543
0.0235361,-0.0086663
0.0100914,-0.00325932
0.00332201,-0.00855912
-0.0221318,0.00382788
-0.0519734,-0.00597176
-0.0528198,-0.00295707
-0.0386149,0.0279756
-0.0135351,0.00787473
0.0243,-0.00661383
0.0530203,-0.000429355
0.0375609,0.007126
-0.00274543,0.00977034
-0.00612905,0.00891154
-0.00667416,0.00776181
-0.0543807,0.000899191
-0.093302,-0.00959888
-0.0574727,-0.0178487
-0.00693514,-0.00727824
0.048363,-7.06e-06
0.0908761,0.00111984
0.100176,-0.000692127
0.064763,0.00245672
0.0225162,-0.00213993
-0.018468,0.000172466
-0.0910409,-0.00670567
-0.108633,-0.0203221
-0.0436279,-0.00894886
0.0348203,0.00711922
0.082261,0.00844339
0.0608856,0.0123743
0.00116153,0.0159036
-0.00993338,0.0101422
-0.0166215,0.00706576
-0.0420545,0.00435
-0.0225934,-0.0187053
-0.0130753,-0.0210019
-0.0100559,-0.00832105
-0.00112374,-0.000723241
0.0279019,0.00423387
0.0252683,0.00562277
0.0156782,0.00668531
0.0128474,0.000606161
0.0016959,-0.00452223
-0.0353715,0.000100549
-0.0669017,0.00346327
-0.0591209,-0.00420033
-0.0345575,0.00248686
0.0208995,0.0204095
0.0284993,-0.00283316
0.033491,0.00314633
0.0459367,0.00455907
0.0537282,-0.00716758
0.032328,-0.0215912
0.00431996,-0.00937918
-0.0153766,0.0117739
-0.0275162,0.0123776
-0.0162404,0.010185
-0.0252571,0.000779536
-0.03293,-0.0167101
-0.027258,-0.0145058
-0.00976532,-0.00249755
0.0289462,0.013982
0.0601775,0.00516413
0.0408365,-0.00643523
0.0127566,0.0161862
0.00845972,0.00637981
0.0114509,-0.00476728
-0.00390423,0.00167036
-0.0191073,-0.00230212
-0.00870269,0.000827305
0.000669267,0.0125849
-0.0014745,0.0122549
-0.0103133,0.00671243
-0.0110976,-0.000482022
-0.00607838,-0.0137055
0.000776713,-0.0198947
0.000446123,-0.0173281
-0.00191399,-0.0159172
0.00440308,0.00547134
0.00413481,0.0147912
-0.000109207,0.00449721
-0.00810767,-0.0123693
-0.0324895,0.00767313
-0.0313668,0.017337
-0.0047572,0.00493968
0.0125008,-0.00487336
0.00843692,-0.0046094
0.00686515,0.00212242
0.00475901,0.00513566
-0.00292054,0.00440029
-0.0117264,0.00341434
-0.0131093,-0.00603531
-0.00347094,-0.00990229
0.0109635,-0.00759355
0.00801464,-0.00978077
-0.00294303,-0.00906467
-0.00336973,0.000727557
-0.000601706,0.00702645
0.00314354,-0.00563227
-0.00106968,-0.0243251
0.00304342,-0.00493004
0.0110255,0.0129743
0.0309197,0.0188274
0.0198559,0.00663572
0.000644239,0.0143786
-0.00719299,0.0177314
-0.00195608,0.0179576
-0.0112164,0.00128933
-0.00468639,-0.0104963
0.0110459,-0.0140534
0.00905627,-0.00898954
-0.00388276,-0.00130421
-0.0142667,0.000602506
-0.0120621,0.00769755
-0.00859549,0.00820971
0.00595229,-0.00358035
0.0247927,-0.0133054
0.037336,-0.00885077
0.0294678,-0.00711306
-0.00746569,-0.00447891
-0.0344755,0.00495625
-0.0291123,0.00477628
-0.00641733,-0.00404766
0.0129628,0.0029127
0.0191227,-0.010991
0.0252342,-0.026555
0.0292244,-0.015878
0.00559804,-0.00685536
-0.0594861,-0.00471369
-0.07077,-0.00612801
-0.0377405,0.00508546
0.0220623,0.000619409
0.0522803,-0.00625089
0.0374711,0.00116074
-0.00367734,0.0138094
-0.021266,0.0203015
-0.0196259,0.0215353
0.000146015,0.0239371
0.0178438,0.0195125
0.00323397,0.0114382
-0.0205548,0.00892676
-0.0247558,0.00280305
-0.0352316,0.00253868
-0.0395302,0.00767475
-0.0392786,0.00620494
-0.0228927,0.000479117
0.0018891,0.0192622
0.0178823,0.026899
0.0305925,0.00588367
0.0514196,-0.00368116
0.0484933,-0.015981
0.026943,-0.01901
0.0120333,-0.021704
0.00781513,-0.00204652
-0.00435907,0.00367528
-0.0453041,-0.0113265
-0.00918808,-0.000150321
0.0197033,-0.00884875
0.00840334,-0.0279595
0.0202465,-0.0353102
0.000593289,0.00664451
-0.0698705,0.00519334
-0.0694118,0.000472709
-0.0230708,0.0188641
0.0345085,-0.00321339
0.0666068,-0.00151407
0.0640043,-0.0143463
0.0337325,-0.0103001
0.0127687,-0.00508474
0.00161291,-0.00266693
-0.00064403,0.0021016
0.00447578,0.00468752
0.0180336,0.00519715
0.0168162,0.00929313
0.00375052,-0.00726249
-0.0075409,-0.0069305
-0.0057606,0.00476986
-0.00876879,0.00314423
-0.0145611,-0.000799716
-0.0202577,0.00678155
-0.0158544,0.0112062
-0.0151437,0.00357624
-0.0125389,-0.0148443
-0.00962946,-0.0205747
-0.00853808,-0.0141936
-0.00910699,-0.00111723
-0.0095088,0.0128687
-0.0104208,-0.000417585
-0.00539222,-0.00522494
0.000847434,0.00137172
0.00726643,-0.00217899
0.0163166,-0.0129205
0.0204624,-0.0218764
0.0162562,0.0158203
0.0223581,0.0396379
0.0277979,0.0310843
0.0039138,0.0258104
-0.0278482,0.0196589
-0.0411652,0.0062018
-0.0385671,-0.00468099
-0.0378187,-0.0114835
-0.0108068,-0.0183589
0.00897282,-0.00803728
-0.0065653,-0.000100043
-0.0184628,0.0111141
-0.0119288,0.00458782
0.00196586,-0.00422053
0.0246894,-0.00251664
0.0415928,-0.0101652
0.0301223,-0.0157693
0.0159964,-0.00470506
0.0208926,-0.0207212
0.0112611,0.00770305
-0.00643739,0.0334121
-0.0157008,0.023325
-8.6e-05,-0.0024914
0.00548856,-0.0223217
-0.00519121,-0.00944183
-0.00605804,-0.0119699
0.00577297,-0.0168976
-0.0103368,-0.00366656
-0.0393058,0.018108
-0.0456907,0.017098
-0.01656,-0.0017995
0.0158368,-0.0172399
0.046342,-0.0108699
0.0503674,-0.0064008
0.041135,-0.00146703
0.0167176,0.00141131
0.000274058,0.0117462
-0.0102923,0.0111184
-0.0132602,0.000185261
-0.00900462,-0.00833367
-0.00240396,-0.0151591
0.00153869,-0.0141744
-0.000122131,-0.0141562
-0.000555575,-0.00882485
-0.00283672,0.00449404
0.000327308,0.014023
0.00690543,0.0152945
0.00885454,0.00741493
0.0168126,-0.00452779
0.0174315,-0.00695636
-0.000430529,0.00288665
-0.0209255,-0.000110083
-0.00983329,0.0103084
-0.0154877,0.0173753
-0.0435865,0.0210043
-0.0994772,0.00773728
-0.109807,-0.00809928
-0.0832177,-0.00493259
-0.034691,-0.00365494
0.0384473,-0.00630752
0.0981703,0.00236013
0.114016,0.0135642
0.100598,0.00949497
0.0619909,0.00055173
0.0103622,-0.00762571
-0.0326116,-0.0234553
-0.0403858,-0.014359
-0.00703608,0.00886522
0.0273713,0.00862216
0.0271783,-0.00855299
0.0253929,0.0144621
0.0162346,0.0341027
0.000895438,-0.000323784
-0.00374793,-0.019385
-0.00158565,-0.0125412
-0.014554,-0.00789664
-0.0537602,-0.00315399
-0.0741077,0.00483392
-0.0764791,0.00962308
-0.0479308,0.0053966
-0.00149579,0.003173
0.0511418,-0.00784382
0.0557372,-0.00704228
0.0429586,0.00507968
0.0185518,0.00789884
0.0164086,-0.000978791
0.00872193,0.00231708
-0.00498389,0.0163979
-0.000484997,0.00460659
-0.00274218,-0.019184
-0.0230396,-0.0182118
-0.0319942,0.00263512
-0.0135132,0.000239613
0.0119412,-0.0105701
0.0309537,-0.00537754
0.0479347,-0.00639128
0.0472441,0.00305682
-0.00599275,0.0175066
-0.068748,-0.0089491
-0.0671471,-0.0304893
-0.0269838,-0.00180855
-0.0208774,0.028817
-0.00625306,0.0297174
0.0127513,0.0110675
0.00045196,0.00484057
-0.00931102,-0.00823057
0.000450874,-0.0217939
0.0334837,-0.0189597
0.0558588,-0.0269451
0.0554723,0.00199487
0.0479414,0.0145551
0.0161713,0.0224521
-0.01297,0.0155649
-0.0149187,0.00686664
-0.00164514,-0.00369728
0.00977722,-0.00984515
-0.000160787,-0.00625596
-0.000952463,0.000237944
0.0014929,0.00387204
-0.0231215,0.00776761
-0.0418292,0.00623929
-0.0200473,0.00370146
0.0120303,-0.00156553
0.012515,-0.0174219
0.00453356,-0.0103768
-0.00708592,-0.00277836
-0.0130352,-0.00422512
-0.0233281,0.00382309
-0.0211162,0.00721278
-0.0154042,0.0015235
-0.0101426,0.00200233
-0.00404154,-0.00979635
0.0025121,-0.0131288
0.0114447,7.6e-05
0.00652999,0.00634913
0.00165156,0.00665935
0.00363582,0.0117628
0.00736186,0.0132893
0.0051274,0.00405044
0.0143721,-0.00567333
0.0153303,-0.0206595
0.00514843,-0.0174989
-0.00563769,0.00435035
-0.0122107,0.00952826
-0.00305654,0.0106812
0.0063824,0.00873418
-0.000451757,-0.00292276
-0.00690342,0.00159302
-0.00521232,-0.0085356
-0.00245977,-0.0215685
-0.00158463,-0.00989538
0.00940339,0.00354907
0.0205365,0.00399584
0.0159536,0.00331614
0.017792,0.014827
0.0222749,0.0085642
0.00579402,-0.00568225
-0.0176464,-0.0049203
-0.0116351,0.00195799
-0.00928788,0.00232733
-0.0210578,0.00840002
-0.0450725,0.0193548
-0.117228,0.0216776
-0.118383,0.00754876
-0.0507287,-0.0135925
0.0296331,-0.0258674
0.101025,-0.0457184
0.125666,-0.0250856
0.0984269,0.00356286
0.0543083,0.0111327
0.0114975,0.0265666
-0.0108921,0.0219403
-0.00856618,0.000465719
0.00854704,-0.0139395
-0.000584397,-0.0134522
-0.00657614,-0.0109889
0.00224786,-0.000819159
0.0137239,0.0139666
-0.021056,0.0221593
-0.0454197,0.00919448
-0.0158232,0.00032483
0.0134721,-0.0157761
-0.00191201,-0.0211825
-0.0235029,-0.00906145
-0.0289287,0.000904362
-0.0227167,0.00591341
-0.0210035,0.00335117
-0.00655549,0.0164166
0.00478526,0.0217566
-0.0106016,-0.009145
-0.00950841,-0.0080969
0.00639991,0.00399935
0.0604312,-0.0111257
0.0790308,0.020258
0.051146,0.0326444
-0.00705734,0.0119246
-0.0762434,0.00222818
-0.0811537,-0.00587688
-0.0229516,-0.00562238
-0.0091739,-0.00497751
0.00627274,0.000211555
0.0284143,-0.00272166
0.0361459,-0.00332177
0.0310219,0.00241107
0.0280943,-0.00806103
-0.0260062,-0.0272761
-0.00628569,-0.0307495
0.0261874,-0.0162391
0.0219365,-0.00846858
2.3e-06,-0.00720397
-0.00526082,0.0134581
-0.0101823,0.023625
-0.012952,0.0282136
-0.0202125,0.0199075
-0.02638,0.00278238
-0.0282809,6.13e-05
-0.0086847,0.0102207
0.0118709,0.0106927
0.0119467,0.00751163
0.0028373,0.00506903
-0.00150209,-0.00792518
-0.00287427,-0.0235253
-0.00140802,-0.03014
0.011868,-0.0238088
0.0290685,-0.027236
0.0189379,-0.0156415
-0.00109847,0.00341087
-0.0090652,0.00343705
0.00336415,0.0152643
0.00924508,0.0310375
0.00343051,0.0199631
-0.00459424,-0.00134626
-0.0146944,-0.00791484
-0.011351,0.00600933
-0.00626159,0.00906938
-0.0026535,-0.00040678
0.00363211,-0.00127906
0.00169018,-0.0114536
-0.00437338,-0.0253889
-0.0161515,-0.031969
-0.0468321,-0.0179682
-0.0359936,-0.00811197
-0.00184322,-0.00397686
0.0205474,0.0056869
0.0415582,0.00507229
0.0571374,0.0320877
0.0347414,0.0396356
0.00605114,0.0193498
-0.0182575,0.00999358
-0.0272453,0.0121011
-0.0240826,0.00418263
0.00564001,-0.00592433
0.0188488,-0.00815034
0.00671559,-0.0151581
0.00527747,-0.00467032
0.0191855,-0.00886944
0.0169303,-0.025281
-0.0023862,-0.0168099
-0.00977885,-0.00831289
-0.0116959,0.000205027
-0.0163238,0.0148133
-0.00908838,0.0258445
0.00103322,0.0263558
0.00675202,0.0149163
0.0164271,-0.00158655
0.00761802,-0.000178053
-0.00903924,0.00854928
-0.021797,0.00640643
-0.013213,-0.00448277
-0.00824575,-0.00566322
-0.00581735,-0.00599345
0.00632677,-0.0158331
0.0111785,-0.0214488
0.00392851,-0.0154161
0.0118733,0.000825297
0.0159262,0.00655249
0.00362629,0.00546542
0.00266149,0.0111145
0.0157684,0.00584783
0.030126,0.00431344
0.013062,0.00761133
-0.0376605,-0.00778885
-0.122006,-0.00319525
-0.13447,0.00789015
-0.0854948,0.00983231
0.00162786,0.00333853
0.0338848,0.00846541
0.0199869,0.00346142
0.0252125,-0.0381721
0.0330453,-0.0408232
0.0157711,-0.013442
0.0379045,-0.00565883
0.0772635,0.0111007
0.0717346,0.0237532
0.0440174,0.0198128
0.0196982,0.0215481
0.010636,-0.00338316
0.0128258,-0.0223921
0.0100572,-0.00189725
-0.0031413,0.016124
-0.0122033,0.0072315
-0.00972787,-0.00686051
-0.00117324,0.000895654
0.00716925,0.00800788
0.00405961,0.00162237
0.0136342,-0.00648459
0.00663622,-0.00347307
-0.0311249,-0.00186535
-0.0482384,-0.00169931
-0.0197992,0.00182683
-0.00707895,0.00789702
-0.0125431,0.0138655
-0.0270633,0.0115772
-0.028243,-0.00110693
-0.0137802,-0.0113354
0.00447317,-0.00564031
0.0163012,0.00692726
0.00653743,0.0131508
0.00589019,-0.00408941
0.00675416,-0.0216766
-0.00103422,-0.0059458
-0.00713696,-0.0201927
0.00243483,-0.0384711
0.0197635,-0.0135939
0.00806398,0.000532971
-0.0213881,0.0190864
-0.0161631,0.0201366
0.00853386,0.0179526
0.0289176,0.0197841
0.00273528,0.0102673
-0.0168056,0.00614853
0.0015623,-0.0119181
-0.00391368,-0.0153918
-0.00985821,-0.00775907
0.00446153,0.00276632
0.0106392,0.000439285
0.00598782,0.00269434
-0.00307055,0.00465138
-0.0036543,-0.00745981
-0.0135846,-0.0177366
-0.0403581,-0.0285803
-0.0335484,-0.00564932
-0.0110703,0.0198954
0.00402207,0.0259245
0.0114208,0.0208404
0.012883,0.00791438
0.0196005,0.0118261
0.0248021,8.22e-05
0.0274105,-0.012707
0.0163013,-0.0018016
0.00951163,0.000945893
0.0143004,-0.0183783
0.0250555,-0.00732234
0.016124,0.0199164
0.0147289,0.0170573
0.00863429,-0.0026018
-0.00819036,-0.0112968
-0.0296156,-0.0171694
-0.0258963,-0.00936734
-0.0248034,-0.0085
-0.0247019,-0.00733603
-0.0103527,0.0135478
-0.00822738,0.00281118
-0.0188088,-0.00769575
0.00267527,0.00444488
0.00796798,0.00959975
-0.00687673,0.00762554
-0.0271263,0.00950085
-0.00744357,0.000940368
0.0303561,0.00165471
0.0532471,0.00264201
0.0622048,0.00323678
0.0607388,-0.00575004
0.0454365,-0.00376211
0.00512278,-0.00748077
-0.041212,-0.0101092
-0.0505823,-0.00234281
-0.0522429,-0.00470421
-0.12417,0.00468699
-0.196216,7.7e-06
-0.124588,-0.0186823
0.00127959,-0.0135877
0.0848581,-0.00483582
0.145585,0.00109692
0.169135,0.00885949
0.117403,0.0152
0.0419953,0.0144012
-0.0161249,0.00944251
-0.0485812,0.000278223
-0.0427306,-0.00487275
-0.00736912,0.00415465
0.00606166,0.0031927
-0.0210371,-0.00482601
-0.0189865,-0.00682588
-0.00465115,0.00448141
0.00040514,0.0174736
0.00393904,0.01392
0.0235763,-0.003875
0.00721332,-0.0141548
-0.0117641,-0.0101277
0.00391873,-0.00106328
0.0118814,0.0028452
-0.0236735,0.00945771
-0.0451103,-0.00538789
-0.0418102,-0.0145559
-0.0279096,-0.0111873
-0.00135437,-0.00277777
0.0141375,-0.000692069
0.0309125,0.00023015
0.0410758,0.00835403
0.0482057,-0.000240461
0.0439822,-0.00037547
0.0200408,0.0116936
-2.08e-05,0.0223147
-0.0043529,0.000632431
-0.0077827,-0.0155012
-0.0178973,-0.00320617
-0.0147371,0.00535501
0.00145412,0.0107318
0.00906791,0.00893804
-0.0125463,0.00369043
-0.0402866,-0.00614987
-0.0281435,-0.0190108
-0.0131238,-0.0197291
0.00356321,-0.0119988
0.012532,0.00210271
0.0230857,0.00928588
0.0146818,0.0146543
0.00671423,0.00791446
0.0118181,0.0098859
0.0132737,-0.000800438
-0.000593145,-0.0166705
-0.0353194,-0.00867104
-0.0633336,0.00664914
-0.0528253,0.00701322
-0.0316944,0.00533299
-0.00989271,0.00662695
0.00563905,0.00359345
0.0276129,-0.0295943
0.0529429,-0.009963
0.0472528,0.000481119
0.0490459,-0.00662464
0.0432504,0.00776256
0.0183518,0.015181
0.00288514,0.00437289
-0.00309668,0.00424094
-0.0296362,0.00782773
-0.0291468,-0.0125716
-0.0173356,-0.0181065
-0.0234553,0.00103435
-0.0139398,0.00401052
0.00465107,-0.00559954
0.000406655,-0.0050066
0.000577634,0.0124279
-0.000712311,0.016976
-0.0116529,-0.00545491
-0.0160959,-0.0163257
-0.0141572,-0.0214004
-0.0137422,-0.0144578
-0.0111476,0.00087205
0.0085179,0.0190082
0.0321287,0.0220577
0.0337507,0.0166739
0.0174601,0.00958624
-0.0218128,-0.0059138
-0.0317917,-0.0119775
-0.0170336,-0.00387228
0.00795392,0.00121389
0.022505,0.00632495
0.010773,0.0175644
0.00092824,0.0139451
-0.00987315,-0.00542697
0.00169205,-0.0104186
0.0322766,-0.00614529
0.0252632,-0.0251981
-0.00433865,-0.00754804
0.00308044,0.00330961
0.0422784,0.0180636
0.0286952,0.0197878
-0.00572675,0.00686505
-0.0089492,-0.0294951
-0.00158684,-0.0376818
-0.0190676,-0.000927144
-0.038142,0.0195151
-0.0829612,0.00132063
-0.125787,-0.0102113
-0.0816082,0.0134585
-0.00633582,0.0284424
0.0406563,0.00385705
0.0581813,-0.0155561
0.0721846,-0.0147921
0.0576962,-0.0197912
0.0355886,-0.00906313
0.0251048,0.00661679
0.0206552,0.0152971
0.0237524,0.000636546
0.032696,0.00468893
0.0193054,0.00609172
0.00315045,0.00107841
-0.0021535,0.00392045
0.00123653,0.0105014
-0.00191429,0.0171723
-0.0188218,0.0188331
-0.0241302,0.0127463
-0.0420902,-0.0029878
-0.0815063,-0.0144447
-0.0594271,-0.0135485
-0.00926215,-0.00286719
0.0265615,0.00263707
0.0308193,-0.000711976
0.026647,-0.00041231
0.0138245,-0.00815987
0.00984012,-0.014607
0.00691408,-0.00698738
-0.00105455,-0.0131429
-0.00635196,-0.0102092
-0.0152807,-0.00302327
-0.0198643,0.0051821
0.000722781,0.00649489
0.0270304,0.0108263
0.0420873,0.0136363
0.0395499,0.00524155
0.0229866,-0.00880282
-0.00389154,-0.0130398
-0.0421482,-0.00821546
-0.0549702,0.00717079
-0.0604412,0.0155598
-0.0448371,0.016935
-0.00123376,0.00984988
0.0216483,0.00677737
0.0387049,-0.00899622
0.047066,-0.0250885
0.00995382,-0.00701218
-0.0280088,0.00618873
-0.00677149,0.00260273
0.0165431,0.00288308
0.0168181,0.00206111
0.00624795,-0.00394738
0.0158785,-0.0082768
0.0229832,-0.00172667
0.00779138,-0.000875258
0.000815497,-0.00112517
-0.00438702,0.00192909
-0.0136525,0.0111813
-0.0165659,0.0115394
-0.00930788,0.000276139
-0.0277738,0.000364015
-0.0316633,-0.00720898
-0.0163005,-0.0173041
-0.0110537,-0.00943585
-0.0211445,0.00174125
-0.00030997,0.00641427
0.0285854,0.00451608
0.0215873,0.000725082
0.0255463,-0.0010783
0.0343064,-0.0189234
0.0270787,-0.0246211
0.014871,-0.00219744
-0.0157994,0.0158637
-0.046621,0.0123598
-0.0524398,0.0014355
-0.0147047,0.00427668
0.0290892,0.0110771
0.0277836,0.0116259
0.0346793,-0.00793029
0.0329856,-0.0194557
0.0197899,-0.00417806
0.016601,0.0062334
0.0083604,0.00482523
0.00841063,0.0045625
0.00740596,0.0174091
-0.0168301,-0.00944846
-0.0208923,-0.0290753
-0.0148704,-0.0167522
-0.0181315,-0.0200993
-0.0196609,-0.0160136
-0.0160506,0.021307
-0.00630607,0.03185
0.00378092,0.0268032
-0.010701,0.0136471
-0.00334296,0.00320931
0.015639,0.00475954
0.0108012,0.0180561
-0.0523502,0.0114325
-0.104592,-0.00792082
-0.0607195,-0.0016276
0.00268037,0.01653
0.0335859,0.0184589
0.043314,-0.000289044
0.0311095,-0.0114381
0.00756034,-0.0156484
-0.00983306,-0.0242761
-0.00039522,-0.00718723
0.0178949,0.00685877
0.0299569,0.0112134
0.0333112,0.0100635
0.0177528,0.00490843
0.0050774,-0.0148173
0.000748699,-0.0344862
0.0156471,-0.0111561
0.0192414,0.0089765
0.0169278,0.0107198
0.0194078,0.0123096
0.0191115,0.014282
0.0106261,0.00225899
-0.01502,-0.00374096
-0.0279514,-0.0194851
-0.014024,-0.0194605
-0.00820272,-0.00116384
-0.0183328,-0.00326888
-0.0289939,-0.00786414
-0.020414,-0.00791429
0.00357108,0.00228644
0.0125445,-0.00107453
0.00727985,-0.0169166
-0.00649627,-0.0205368
-0.0241522,-0.00742662
-0.0077069,0.0022155
0.0102839,0.0135801
0.0245078,0.0266585
0.0177529,0.0320626
0.0196972,0.0208068
0.0109272,-0.00963223
-0.00842443,-0.00703675
-0.0287948,-0.00231215
-0.0425785,-0.0003425
-0.0452856,-0.0227829
-0.00575244,-0.0111297
0.0328471,0.0304196
0.0360065,0.0368589
0.0126237,0.00426882
0.00341273,-0.0319822
0.0116397,-0.0233249
0.0220635,-0.00666307
0.0211978,0.0026675
0.00674282,0.00370703
-0.00519011,0.00927461
-0.0108939,0.0147691
-0.0105737,-0.00088045
-0.0115421,-0.0198503
-0.0334112,-0.0114715
-0.060205,-0.0058559
-0.0628132,-0.000141144
-0.0264334,0.00707617
0.0157785,0.00918495
0.0534999,0.0155301
0.0739532,0.00758931
0.0582051,-0.014714
0.0240842,-0.022215
0.0192088,-0.00730825
0.0114618,0.0102244
0.00168155,0.0108303
-0.00432665,0.0166904
-0.0218564,0.0240698
-0.0470758,0.0173748
-0.0328288,-0.00686911
-0.00348123,-0.0173215
0.019132,-0.0143239
0.0288299,-0.00799868
0.0156614,0.00578156
-0.0183913,0.00382443
-0.034536,-0.00513684
-0.0486309,-0.00555375
-0.0763044,-0.000206599
-0.0421859,-0.00502462
0.00396556,-0.0135238
0.0348828,-0.00820732
0.0552903,0.00303489
0.0592928,0.00705802
0.0518598,0.00386953
0.0342175,0.0146487
0.0136714,0.00689656
0.00886244,-0.0129589
0.0101705,-0.0108163
0.0120264,-0.00446994
-0.00087505,-0.00145349
-0.0222439,0.00699631
-0.0198966,0.0134082
-0.0043796,0.0115648
0.00661867,0.0097481
0.0120393,-0.00428991
0.000919034,-0.0176764
-0.0180471,-0.0140705
-0.0419777,-0.000250904
-0.0595111,0.00410903
-0.0550431,0.0104663
-0.0333824,-0.00791364
0.00957503,-0.00453253
0.0173608,0.0117496
-0.0645678,-0.00572229
-0.0928863,-0.00153035
-0.0216376,0.0037706
0.0383625,0.00558593
0.0630498,0.00914302
0.0884514,0.00926517
0.0705344,0.0104409
0.0405822,-0.00074395
0.0196834,-0.0128608
0.00999,-0.0158181
0.00238976,-0.0116654
-0.00551261,-0.00235781
-0.00959789,0.00278467
-0.00120018,0.012996
-0.0165266,0.0218912
-0.0278137,0.0146068
-0.0190449,-0.009118
-0.0076723,-0.0233143
0.00159814,-0.00859871
-0.00685556,-0.00110007
-0.00573964,0.00414889
-1.58e-05,0.0126384
0.00209,0.00873309
0.0118357,0.00726334
0.0210744,0.000982797
0.0147982,-0.0133674
0.00975381,-0.0198642
0.00738305,-0.00819072
0.00631759,0.00108185
0.00712257,0.00578921
0.00380212,0.0146599
0.00135169,0.0118759
0.0017429,-0.00869547
-0.00272756,-0.0196072
-0.0047916,0.00321491
0.00165465,0.00372847
-0.00114289,-0.00841288
-0.0061495,0.00344117
-0.0128697,0.00689433
-0.0199396,-0.00382846
-0.0079451,-0.0112668
0.00635678,-0.0260653
0.0127205,-0.00612298
0.00552308,0.00475736
-0.0149944,0.00699113
-0.0125813,0.0121244
0.00933824,0.0126048
0.0199868,0.00707918
0.0140481,0.0118432
0.00821571,-0.00314322
-0.000250114,-0.0192965
-0.0119442,0.00126956
-0.030558,0.00790915
-0.0561881,0.00515697
-0.0840002,0.00722858
-0.0532324,0.003996
-0.00213351,-0.00771816
0.00322503,0.00428341
-0.00694782,-0.000846598
0.019469,-0.014764
0.0612875,-0.00685472
0.0797494,0.00615801
0.0669241,0.00352729
0.0300512,-0.00186488
-0.0134315,0.00277078
-0.0161358,0.00522847
0.0021638,-0.00516376
0.0123518,-0.0124862
0.0132807,-0.0103674
0.0182233,-0.00671748
0.0136726,-0.000658757
-0.00175028,0.00294989
-0.0048308,0.00386647
-0.00197285,0.0107861
5.01e-05,0.00705452
0.00559737,-0.00689282
-0.00433504,-0.00565094
-0.0186789,0.00783999
-0.0200183,0.0130288
-0.0180385,0.0119516
-0.0220652,0.0163435
-0.0154207,0.0210355
-0.00244261,0.0104664
0.00148096,-0.00706156
-0.00252707,-0.010984
0.00418852,-0.0163554
0.0074428,-0.013192
0.00832694,-0.00871546
0.00861758,0.000475111
-0.0103998,-0.00302559
-0.0267422,-0.00197471
-0.00524959,0.00716136
0.00657979,-0.0103672
-0.0124617,-0.0159335
-0.0214176,0.0039416
-0.0173684,0.00835272
-0.0161436,0.00627399
-0.00710946,-0.00551575
0.0164727,0.00404091
0.0374112,-0.00483702
0.0469831,-0.00857602
0.0448034,-0.004154
0.0251368,-0.0146924
-0.000903393,0.00817876
-0.0270209,0.0222588
-0.0315204,0.0178826
-0.0115186,0.00396289
0.00460862,-0.00551283
0.0193996,-0.015936
0.0309394,-0.00673612
0.00259221,0.00573909
-0.0237473,0.00944757
-0.0265129,0.00486622
-0.00890899,0.0108168
-0.0156245,0.0102635
-0.0763353,0.00345404
-0.0883135,-0.0126192
-0.0755688,-0.022027
-0.0525248,-0.00980574
-0.00532733,0.00495706
0.0724394,0.00279805
0.118471,-0.00419387
0.110111,-0.00811257
0.0766184,0.00840952
0.0435546,0.0134975
0.0236133,-0.0142837
0.00682648,-0.0300907
-0.0026717,-0.0161493
0.0103492,0.0122669
0.00925174,0.0191678
-0.0125226,0.0222372
-0.0511189,0.0243742
-0.0618019,0.010347
-0.0408094,-0.00629619
-0.0111792,-0.00708875
0.0047156,0.000293674
0.020803,-0.0016049
0.0203135,-0.0065542
-9.21e-05,-0.00154178
-0.000396332,-0.00415319
0.00383857,0.00613002
-0.00841268,-0.00131933
-0.0085221,-0.010094
-0.0257163,-0.0112036
-0.0516148,-0.00355891
-0.0447682,-0.000185216
-0.0360731,-7.89e-05
-0.0169413,0.0131244
0.0290841,0.0139919
0.050196,-0.00104231
0.0528903,-0.0150105
0.0436006,-0.0101357
0.0438444,-0.00960451
0.052174,0.0017181
0.0350458,0.0153042
0.00734779,0.0157644
-0.0158467,0.0090934
-0.0503272,0.00590882
-0.0645113,-0.00719183
-0.0327109,-0.0178909
-0.00513662,-0.0123542
0.00696432,-0.00395459
0.0108244,-0.00279963
-0.00663828,0.00267219
-0.0210492,0.0125834
-0.0118769,0.010506
0.0079337,0.000670315
0.0150229,-0.0104967
0.00689038,-0.0077583
0.00541368,-0.00527176
-0.0036459,-0.00852204
-0.00817128,0.0130566
-0.00438048,0.00363726
0.00113064,0.00585127
-0.00353276,0.00842194
-0.00472071,-0.00567479
-0.000136232,-0.0097153
-0.00152968,4.83e-06
0.000482537,0.00695892
0.00170627,-0.015177
0.00234408,0.00212164
0.000156174,0.0206217
0.00161115,0.00751355
0.0101404,-0.0096923
0.0166654,-0.0131881
0.0170206,-0.00821295
0.00205428,-0.0106272
-0.00870433,-0.00292138
-0.00858701,0.00783062
-0.00329141,0.00634773
-0.00315763,0.00930203
-0.00517272,0.00522163
0.00214597,-0.0101234
-0.00292007,-0.0127208
-0.0129084,0.00457233
-0.0032052,0.00628415
0.00880246,0.00572327
0.00164569,0.0122957
0.00174365,0.00934539
0.0141454,-0.017622
0.0204023,-0.0287795
0.0146504,-0.00476484
0.00924684,-0.000580502
0.0125741,0.00133441
0.0113612,-0.0109721
-0.00633001,-0.00824221
-0.0135457,0.0105632
-0.0124108,0.0328751
-0.00821815,0.0215346
-0.00685286,0.00153069
-0.0124582,0.00122578
-0.0118484,-0.00127526
-0.0122958,0.000144161
-0.0206643,0.00868458
-0.0228057,0.0185259
-0.0101325,0.0116527
0.00698931,0.00266492
0.0257937,0.00453886
0.0248852,0.00454575
0.0173663,-0.00525266
-0.0126173,-0.00778324
-0.0398028,0.0126463
-0.0477017,0.0164099
-0.0804427,0.00158222
-0.114713,-0.0026789
-0.0530075,-0.0321235
0.0274933,-0.0326235
0.08234,-0.0118324
0.10651,-0.00467603
0.112654,-0.00547365
0.0775734,0.0010236
0.032969,0.0108554
0.0117225,0.00825038
0.00438215,-0.00986587
0.00618603,-0.0111272
0.00534744,-0.00504845
-0.00703662,0.000234378
-0.019713,0.00732622
-0.0133145,0.0122257
-0.00516427,0.00901235
-0.00587685,-0.00140801
0.0103072,-0.0073895
-0.00704847,-0.0197738
-0.0580233,-0.0217779
-0.0547283,-0.0179469
-0.00878266,-0.0050739
0.0264282,0.011631
0.0281592,0.0214082
-0.0107058,0.0212494
-0.0451654,0.00904402
-0.0389176,-0.00299723
-0.0193773,-0.00259422
0.0110781,-0.00131909
0.0346941,0.00192085
0.0490006,0.00906912
0.0392683,0.00873747
0.0176413,0.00297124
0.00199701,-0.00355428
-0.00100191,-0.0142995
0.00697226,-0.0176126
0.00292498,-0.00803081
-0.00561991,-0.00246252
-0.00450906,-0.00566561
-0.00395365,0.000964239
-0.00692356,0.0113193
-0.0101021,0.0098191
-0.00430113,-0.00105466
-0.000783415,-0.0104366
-0.00144379,-0.00532581
-0.00240157,-0.000181089
-0.00732029,0.00863897
-0.0122607,0.0167979
-0.00961215,0.00431798
-0.00680362,-0.000793979
-0.00306458,0.0107305
0.00816831,-0.00165784
0.0136132,-0.0122368
0.00265903,0.000134209
-0.00613391,0.00439187
-0.00818715,0.0075341
-0.0103886,0.0207345
-0.0115149,0.0225637
-0.00177566,0.00406602
0.00303967,-0.0240241
-0.00136458,-0.0305355
0.00384633,-0.0435199
0.0131208,-0.00661632
0.0042838,0.018122
-0.00862618,0.0136652
-0.00650977,0.0114551
-0.00430094,0.015106
0.00247999,0.00351371
0.0119617,-0.00881015
0.0122301,-0.00606853
-0.000696384,-0.000881656
-0.00479811,0.00198251
-0.0055714,0.00393826
-0.0113572,0.00699237
-0.00540428,0.00974664
0.00644904,-0.00205121
0.00228544,-0.0144235
0.000636344,-0.00598575
0.00432358,0.00470955
0.0115034,-0.00566448
0.0239695,-0.0018775
0.0192795,0.00959303
-0.011117,0.000811618
-0.0425477,-0.00912437
-0.0651355,-0.0141839
-0.0298432,-0.00954675
0.0070404,-0.00207126
0.0239697,0.00176719
0.035168,0.00632142
0.04115,0.00103922
0.0248971,0.00425975
-0.00423834,-0.000580189
-0.0139812,-0.0053969
-0.00734489,-0.00238476
-0.00138407,0.00444321
0.00279596,0.004498
0.00245885,-0.00451701
-0.0133022,-0.00157629
-0.0154211,0.00698517
-0.000368333,0.0157337
0.0110611,0.0102095
0.0116461,-0.00775121
0.0122362,-0.0174654
0.00796566,-0.00823002
0.00339116,0.00265948
0.00559554,0.00465549
0.0119659,0.0134192
0.0182487,0.0119824
0.00636555,-0.0025375
-0.00266276,0.000159861
-0.00330949,-0.00607114
0.00139079,-0.00948136
-0.000983252,0.00428094
-0.00982824,0.013916
-0.00570992,0.0194203
-0.00577952,0.0132576
-0.00693031,0.000612788
0.000630732,-0.00836978
0.000500634,-0.0181282
-0.0568228,-0.0139451
-0.108396,-0.00490671
-0.0818735,-0.00670416
-0.0108443,-0.00208455
0.0414015,0.0101804
0.0757977,0.0145672
0.0869187,0.00898773
0.0630395,-0.00147491
0.0261479,-0.00508156
0.0020727,-0.00271433
-0.007775,-0.000664938
-0.0109017,0.00705758
-0.00606671,0.00730969
-0.00954618,-0.00163123
-0.00377529,0.00531871
0.00436213,-0.0190326
0.00587768,-0.0279647
0.0061229,-0.00426903
-0.00233532,-0.000406122
-0.00895752,-0.00238681
-0.00596037,0.00692987
-0.00726227,0.0136231
-0.0161272,0.0114974
-0.0220436,-0.0378677
-0.011213,-0.0296227
-0.00440729,0.0159624
-0.0116041,0.0111478
-0.00508674,0.010545
0.00522658,0.0172504
0.00244833,0.0156215
0.00307603,0.00604134
-0.00590481,-0.0105329
0.00706915,-0.00960862
0.0192457,-0.00257182
0.0161597,-0.0146297
0.0087864,-0.0158265
-0.00373092,-0.00153658
-0.0076853,0.00840026
0.00126391,0.0200875
0.00269911,0.0224784
0.00580563,-0.00179096
0.00560151,-0.0107113
-0.00183098,-0.00509375
-0.00250555,0.00115711
-0.000564064,0.00875975
0.00281559,0.0133802
0.00893764,0.00952366
0.00977537,0.00404804
0.00681973,-0.00771453
0.00629566,-0.0191837
0.00828246,-0.0150938
0.00589146,0.00121182
0.000722768,0.00458365
-0.00600182,0.00300669
-0.0148022,0.00540964
-0.0162951,0.00778307
-0.00824594,0.000352892
-0.000533503,-0.00969553
-0.00404702,-0.00445659
-0.0152896,-0.00419232
-0.0430144,-0.00568719
-0.0482366,0.00121672
-0.0298492,-0.00165392
0.00157091,0.00362139
0.0261068,0.0134133
0.0381151,-0.00618244
0.0419481,-0.0196927
0.0314989,-0.0102279
0.00909251,0.00568967
-0.00291525,0.00358206
-0.0108468,0.00108519
-0.0173527,0.010495
-0.0144106,0.0124262
-0.00585417,-0.00261871
-0.00202565,-0.0119838
-0.00224686,-0.00486878
-0.00553229,-0.00478715
-0.00826507,0.00221919
-0.000431928,0.013086
0.0262349,0.0152826
0.0397769,0.00727577
0.0342257,3.91e-05
0.0244508,-0.0120757
0.0195998,-0.0168065
0.0167631,-0.00427919
0.00812489,0.00302414
-0.00116944,0.000378575
-0.00907401,0.00598453
-0.0261232,0.0153691
-0.033144,0.00959176
-0.0255503,-0.0047647
-0.0194966,-0.00671377
-0.0220884,-0.00948169
-0.0221093,-0.00951019
-0.0188816,0.00271209
-0.0231352,0.00771584
-0.0230764,0.00326759
-0.00863244,0.00619047
0.00786044,0.00602441
0.0252735,-0.0121521
0.068401,-0.0146021
0.0937842,-0.00204179
0.0636302,0.00214362
0.0131049,0.00261722
-0.0401164,0.00765485
-0.0737552,0.0139127
-0.0744299,0.00493206
-0.0688195,-0.011284
-0.0591741,-0.00558627
-0.0400482,-0.000978103
-0.017264,0.000996616
0.032985,0.00543202
0.108208,0.00746809
0.125838,0.00493026
0.0848849,0.00287928
0.0295315,-0.00753947
-0.0303195,-0.0177083
-0.0486295,-0.014362
-0.00189733,-0.013169
0.0505205,-0.0122705
0.112581,0.0029293
0.112295,0.0142704
0.0407212,0.0127996
-0.0279637,-0.000376942
-0.0945794,-0.0108688
-0.126585,-0.010722
-0.121789,-0.0162408
-0.0888967,-0.0119413
-0.0631533,-0.000824344
-0.0510853,0.0184341
-0.0333154,0.017608
-0.0262273,-0.000916301
-0.0188379,0.00765798
-0.0231554,-0.00254177
-0.0227086,-0.00868004
-0.00279403,0.00613352
0.00977067,0.0243316
0.019863,0.029782
0.0475513,0.0236465
0.0608418,-0.00797928
0.0544676,-0.0203605
0.041477,-8.34e-05
0.0230271,0.00333188
0.00955921,-0.00249933
0.00941738,0.0033452
0.0188561,0.0177871
0.00954496,0.0203635
0.000971926,0.0224881
-0.00141618,0.00893591
-0.00796165,-0.00254347
-0.0197184,0.00152441
-0.0352479,-0.00286862
-0.0425644,-0.0158985
-0.0392131,-0.0212108
-0.0136369,-0.0214539
0.0361756,-0.0291897
0.0768426,-0.0283951
0.119877,-0.0155021
0.171659,-0.0132356
0.150168,-0.00701917
0.0781653,0.0158376
0.0147376,0.0155676
-0.0518752,0.0355773
-0.115316,0.0407813
-0.138699,0.0152846
-0.0708839,-0.00654738
0.0107444,-0.00845955
0.00175966,-0.00676827
-0.0520179,-0.0139774
-0.0776068,-0.0146795
-0.0732175,-0.0140088
-0.0627549,-0.0214084
-0.0443205,-0.0337983
-0.0257882,-0.0344647
-0.0189391,-0.0213632
-0.00571757,-0.0142436
0.00300788,0.00749014
0.0127596,0.024536
0.0238083,0.0320391
0.0294396,0.0307848
0.0277956,0.0248736
0.0228849,0.00488959
0.0182296,-0.00614944
0.0202999,0.00446644
0.0283657,0.0113378
0.0323923,0.00538782
0.0232169,-0.0012479
0.0155409,-0.00444436
0.0206924,-0.00686129
0.0224437,-0.018581
0.0133403,-0.0139861
-0.00111352,-7.66e-05
-0.0124728,0.00170444
-0.023361,0.0095163
-0.0233987,0.0204804
-0.00232994,0.0226506
0.00317355,0.0201721
-0.000425497,0.0124514
-0.000176715,-0.00440636
-0.000958454,-0.0071695
-0.00526748,0.00351276
-0.0055647,0.0023406
0.00537012,-0.00628298
0.0177093,-0.00561554
0.0312086,-0.00664689
0.0537511,-0.0203281
0.0572711,-0.0334936
0.0384193,-0.0279448
0.00762333,-0.0193652
-0.036173,-0.0138458
-0.0653034,7.45e-05
-0.0658717,0.0201928
-0.0556904,0.0281072
-0.0418716,0.0212668
-0.025748,0.0080832
-0.016371,-0.00483937
-0.00890497,-0.00170775
0.00135934,0.00511566
0.00374915,-8.2e-05
0.00422979,0.00156075
0.0028432,-0.000174538
0.00267194,-0.00219266
0.00798047,-0.0039263
0.0171951,-0.0103072
0.0199088,-0.00299757
0.0213551,-0.000600052
0.0192103,0.000300083
0.0124932,0.0103058
0.00531324,0.0247553
0.00433779,0.0130696
0.00818131,0.00634955
0.0107216,0.0164276
0.0104458,0.00014309
0.00312635,0.00879858
-0.0059611,0.00758596
-0.0164869,-0.00987742
-0.0291674,-0.0116542
-0.0330786,0.00601149
-0.0359717,0.00131689
-0.0355367,-0.0182276
-0.0260786,-0.0236618
-0.0213256,-0.0160949
-0.0162259,-0.0164925
-0.00999044,-0.00925262
-0.00121795,0.00133331
0.00915375,0.00557843
0.0204494,0.00787062
0.0333999,0.00858163
0.0386614,-0.00419799
0.030241,-0.00151513
0.0322753,0.0167018
0.0463454,0.019178
0.0663305,0.0233014
0.0544858,0.020117
0.0291767,0.00625195
0.00194348,-0.0119931
-0.0101351,-0.0221829
0.00972815,-0.0104337
0.0153002,-0.0116593
0.00641369,-0.0235596
-0.025138,-0.0148208
-0.0413662,0.00139457
-0.0185914,0.00575662
-0.0187065,0.0123579
-0.0301038,0.00305074
-0.0297643,-0.00415879
-0.0401121,0.00347616
-0.0544896,0.00999131
-0.0474414,0.00783528
-0.0324371,0.0176228
-0.0313948,0.0252646
-0.0228686,0.0098649
-0.00860859,-0.0166245
-0.00380723,-0.0343004
-0.00862182,-0.03753
-0.00479869,-0.0349368
0.011845,-0.0308026
0.0424009,-0.0195348
0.0687789,-0.00192797
0.0637713,0.00765795
0.0438703,0.01636
0.0322336,0.00505122
0.0356404,-0.00259475
0.0208798,0.0175974
-0.0129327,0.0438878
-0.0348047,0.0418638
-0.0231739,0.037265
7.66e-05,0.0293804
-0.00518644,0.0110942
-0.00371171,0.00263846
-0.0041905,-0.0231374
-0.0131397,-0.023678
-0.0144984,-0.0253729
-0.0101764,-0.0199784
-0.00399965,-0.00942515
-7.26e-05,-0.00573116
0.000255085,0.00198483
0.00121364,0.00222959
0.00604065,-0.00745785
0.0198218,-0.00749381
0.017514,0.0151398
0.00815195,0.0249865
0.00869355,0.0306582
0.00491175,0.0371344
-0.00790618,0.0229837
-0.00955864,-0.0126412
-0.00596333,-0.0417762
-0.0130531,-0.040009
-0.0261998,-0.0360705
-0.0332827,-0.0290498
-0.0453892,-0.0236653
-0.0605401,-0.0215573
-0.0526465,-0.00704163
-0.0347964,-0.00498053
-0.0101282,-0.0125895
0.0119535,-0.0201235
0.0354256,-0.0160491
0.0478662,0.0217539
0.0546569,0.0386231
0.0552453,0.0418943
0.0453167,0.0513575
0.027938,0.047868
0.0135727,0.0107353
0.00299064,-0.0205096
0.000828196,-0.0222222
0.00216275,-0.0215615
0.00809362,-0.00860495
0.011525,0.00899488
0.0117219,0.0180029
0.0157418,0.0256398
0.0153204,0.0106622
0.0237514,-0.0110983
0.0494245,-0.00449323
0.0690592,0.0147707
0.0427918,0.0253882
0.00186408,0.0204985
-0.0441092,0.0210087
-0.0792486,0.0166999
-0.0742767,-0.00109277
-0.0583721,-0.0288161
