Comp Ch 3,Comp Ch 4
0.0094448,0.0105858
-0.00363848,0.0192251
-0.00667911,0.0140183
-0.0110825,0.0126197
-0.01032,0.0103315
-0.00400979,-0.00976648
0.00265027,-0.0387158
0.0046857,-0.0361251
0.00142655,-0.0258075
-0.00180352,-0.0195044
0.00083631,-0.00382837
-0.000726143,0.0106169
-0.00313141,0.0221319
-0.0111112,0.0315006
-0.0154361,0.0179314
-0.00970758,-0.00275901
-0.00527487,-0.0100813
-0.00405191,0.00148019
-0.00680947,0.0115068
-0.00938561,0.0157634
-0.00878002,0.0220274
-0.00147617,0.012085
0.00927546,-0.0123071
0.0162036,-0.0353781
0.0123877,-0.0216266
0.00421889,-0.0455945
0.00474415,-0.0342153
0.00972002,0.000624642
-0.00265895,0.0236073
-0.0401974,0.026411
-0.06344,0.0225439
-0.0497082,0.00373269
-0.00746054,-0.0210374
0.00273487,-0.0103159
0.00465766,0.0122526
0.024265,0.0159322
0.0349463,0.01024
0.0331339,-0.00359923
0.0327072,-0.0157455
0.0413374,-0.0240561
0.0482727,-0.0244817
0.026991,-0.0142842
0.00453292,-0.00153946
-0.00599508,0.0133022
0.000577685,0.0259489
0.0136401,0.0287971
0.0258554,0.0264305
0.0175365,0.0181428
-0.00463526,-0.00965468
-0.0203712,-0.0140996
-0.0189103,-0.0143121
-0.00530393,-0.017158
0.0037413,0.00715583
0.010007,0.012317
0.000350502,-0.00179945
-0.0151205,-0.0197679
-0.0243636,-0.0379066
-0.0441688,-0.0370796
-0.0561639,-0.0220946
-0.0602628,-0.00536385
-0.0469577,0.0113651
-0.0309042,0.0277834
-0.0115993,0.0355081
0.0241769,0.0540315
0.0499217,0.104281
0.0417721,0.142492
0.0134961,0.153543
0.0131508,0.0529152
0.0339885,-0.131985
0.0342637,-0.174137
0.0106147,-0.114113
-0.00583262,-0.0462004
-0.025919,-0.0320259
-0.0806053,-0.0278712
-0.103822,-0.00490484
-0.0469972,-0.000334429
0.0182992,-0.00523781
0.057906,0.00227825
0.0639751,0.00583194
0.0423139,-0.003066
-0.00705768,0.0210416
-0.0654897,0.011894
-0.0767633,-0.0235441
0.0206711,-0.00831782
0.152027,0.0117504
0.208888,0.0129311
0.23563,0.0188858
0.134824,0.0182789
0.025009,0.00050172
-0.0497622,-0.00894146
-0.113772,0.00239944
-0.144156,0.00127307
-0.143571,-0.0161565
-0.111898,-0.0319289
-0.116459,-0.0335263
-0.144389,0.0248566
-0.0977702,0.0353304
-0.0607646,0.0176382
-0.0128251,-0.00103291
0.0489496,-0.00990123
0.0908877,0.00813288
0.113119,0.0169771
0.0955157,0.0169587
0.0524527,0.0185253
0.0190172,0.0201456
-0.0377988,0.00908392
-0.0727119,-0.0175707
-0.00901213,-0.0123436
0.0857686,-0.0108801
0.124254,-0.0346949
0.092977,-0.00766228
0.00384063,0.00794004
-0.108921,0.0100142
-0.144242,0.0186594
-0.109979,-0.00825122
-0.0241944,-0.013754
0.0567275,-0.0089904
0.0669135,0.00563773
0.0504897,0.013185
0.0344122,0.0180666
0.00276674,0.0249926
-0.00890463,0.022671
-0.00642308,0.000990106
0.000289112,-0.0179411
0.0048768,-0.011901
0.0198038,-0.00815076
0.0340807,-0.00882872
0.0311011,-0.0024745
0.0288402,0.00688272
0.0171397,0.00233533
0.000957326,0.00292289
-0.0156168,-0.0182638
-0.0266269,-0.0400717
-0.0273782,-0.0192867
-0.025193,0.00500449
-0.0291834,0.0061654
-0.0325814,0.0136488
-0.0319628,0.0200426
-0.0184859,0.0139728
-0.000327516,-0.00516143
0.0152606,-0.0125002
0.0210004,-0.00106867
0.0222518,0.000118965
0.0239068,0.00228576
0.0274664,0.00622247
0.0340121,0.00998578
0.0258774,0.0116087
0.00532637,0.00404136
-0.0120364,-0.0165407
-0.0272332,-0.032808
-0.0583153,-0.0156235
-0.0895541,0.0081417
-0.146337,0.00499177
-0.120237,0.00374142
-0.0179882,0.0175333
0.0808462,0.0230415
0.0979129,-0.00483282
0.0888571,-0.0119896
0.0785057,-0.00151762
0.0337725,-0.00672442
-0.00327936,-0.00631749
0.00269163,0.0138434
0.0243197,0.0170344
0.0390918,0.0123377
0.0255096,0.00849492
-0.018559,-0.0196089
-0.0295524,-0.0228141
-0.0164092,-0.0018539
-0.0274094,0.00394857
-0.0363547,0.0103437
-0.0174292,0.0190383
-0.015361,0.0127979
-0.00646483,-0.00717398
0.0177426,-0.0224009
0.0208781,-0.0153793
-0.0201048,-0.0070896
-0.0434714,-0.00674285
-0.0129554,0.00185688
0.0435454,0.0089221
0.0772614,0.00719027
0.0696394,0.00480359
0.0411046,-0.00929593
0.0107828,-0.0236966
-0.0327403,-0.0134693
-0.0587134,0.00235573
-0.0482918,0.00266068
-0.0256277,0.00800863
0.00749429,0.0161815
0.0125743,0.0114299
0.0184003,-0.00799774
0.0308054,-0.0171303
0.0185194,-0.0113005
0.00580624,0.00256167
0.00203429,0.00246277
-0.00724917,0.0179286
-0.0427593,0.024158
-0.0575175,0.00979467
-0.048998,0.000643577
-0.0315318,-0.0226417
-0.0184512,-0.0274944
0.020511,-0.0100263
0.0515936,-0.000133311
0.0631567,0.00493512
0.0381673,0.0139793
-0.00294005,0.0157155
-0.051164,-0.000786379
-0.0597272,-0.0222777
-0.0242773,-0.0168035
0.00402835,0.000641017
0.000357827,0.0018464
-0.00106571,-0.00546411
0.00772209,0.00451717
0.0022899,0.00990595
-0.00353119,0.0236512
0.0102833,0.00938018
0.0232491,-0.00571197
0.0116678,0.00192108
0.0299791,0.0196874
0.0535285,0.0251043
0.0304298,0.022239
-0.0192128,0.0240278
-0.0155124,0.0214065
0.0221328,7.96e-05
0.0173384,-0.0212136
0.00311214,-0.0174997
0.00273799,-0.0174334
0.00636896,-0.0150406
0.00561937,-0.00213841
-0.00332925,0.00219438
-0.0171755,-0.0148495
-0.021552,-0.0154844
-0.0103971,-0.0378953
-0.0074574,-0.041611
-0.0180956,-0.00883162
-0.0247514,0.00941353
-0.0223888,0.00851726
-0.016731,0.0152714
-0.00136883,0.028724
0.0259093,0.0273372
0.0320883,-0.00259325
0.0214915,-0.0167815
0.0151062,-0.00460592
0.00990992,-0.000566219
0.00159756,0.00469072
-0.0162059,0.00969691
-0.047992,0.0108546
-0.0502012,0.00976531
-0.0309106,0.00749634
-0.0056408,-0.0139997
0.0146426,-0.0209528
0.0248655,-0.00295728
0.0292562,0.00967187
0.0125834,0.0123116
-0.00634758,0.0197622
-0.0136602,0.0177336
-0.0144298,-0.0029625
-0.00597118,-0.0268007
0.00139367,-0.0205472
0.00933297,-0.0245639
0.011314,-0.0182846
-0.00626517,0.0082014
-0.0268935,0.0174495
-0.0353211,0.0159016
-0.0368515,0.0136615
-0.0244052,0.00051983
0.00620891,-0.0189323
0.0483633,-0.0185335
0.0761535,0.000326891
0.0556156,0.00153858
0.0337762,0.00144201
0.0180799,0.00841851
0.00207412,0.00989539
0.00171828,-0.0100245
0.00729519,-0.0288199
0.0131745,-0.016799
0.014264,-0.00491735
0.0119945,-0.00246864
-5.52e-05,0.0100594
-0.00884464,0.0245428
-0.0260971,0.0214998
-0.0458292,0.00545943
-0.0507247,-0.00217207
-0.0355311,-0.00771746
-0.00284876,0.00272962
0.00599924,0.0212235
-0.0174175,0.0222402
-0.0189184,0.0252056
-0.0147991,0.0309085
-0.000213398,0.0226663
0.00998089,-0.00508832
0.0179163,-0.0232243
0.0347629,-0.0170524
0.048153,-0.00791722
0.0434357,0.000748949
0.0228769,0.00693301
0.0169234,0.00533322
0.0210247,-0.00447919
0.0273945,-0.00686342
0.0133633,-0.0234944
-0.019266,-0.0304842
-0.0589025,-0.00277954
-0.0893212,0.00569514
-0.17084,-0.00953555
-0.215323,-0.00263211
-0.192591,0.0108515
-0.105468,0.00723875
0.056486,-0.0116242
0.168355,-0.027344
0.214273,-0.0143528
0.217074,-0.001411
0.139389,-0.00534714
0.0635883,0.000476289
0.0262624,0.00618442
-0.00181201,0.00590964
0.00563295,-0.00540682
0.0254465,-0.0203303
0.0089847,-0.0152356
-0.0212509,0.00641534
-0.0392162,0.0165843
-0.0396231,0.0205144
-0.0405555,0.0304475
-0.0362838,0.0278763
-0.0238299,0.00662719
-0.000717074,-0.0188504
0.00403068,-0.017757
0.00134927,-0.00412152
0.00236329,0.00459669
0.00146086,0.00935589
-0.00624875,0.0080669
-0.007002,0.00212246
-0.00308421,0.00326637
-0.00265264,-0.0191608
-0.00691745,-0.036439
-0.0108604,-0.0194267
-0.0356471,-0.012705
-0.063544,0.00688575
-0.04825,0.0324485
-0.0289663,0.0357
-0.00565084,0.0273347
0.0230148,-0.00166657
0.0415165,-0.0210236
0.0475691,-0.0140013
0.0205441,-0.00468097
0.00729134,0.000476112
0.0110036,0.00255506
0.00573952,0.0109184
0.0100549,0.0107276
0.019195,0.00561517
0.026455,-0.0227735
0.0224632,-0.0318851
0.00514509,-0.00168296
-0.0104376,0.011519
-0.013334,0.0198659
-0.0102841,0.0109912
-0.00379188,0.010751
-0.0222164,0.0166001
-0.0406029,-0.0239506
-0.0273344,-0.0370335
-0.0099576,-0.00341309
-0.00285431,-0.00407396
0.00875072,0.00219539
0.0141646,0.0149483
0.00555109,0.0204553
-0.00385372,0.027642
-0.000115751,0.00178395
0.0445249,-0.0290574
0.0798263,-0.0197141
0.0434567,0.00566859
0.0152512,0.0125865
-0.0015288,0.0146807
-0.0191878,0.0254182
-0.0486034,0.029242
-0.0843148,0.00124093
-0.078725,-0.0456976
-0.0506012,-0.0296674
-0.00977205,-0.00885858
0.0437755,-0.00606103
0.0677766,0.0118991
0.0462638,0.0171182
0.0121184,0.00906972
-0.00917309,0.00683479
-0.0121238,-0.0100011
-0.012486,-0.0272841
-0.0147829,-0.0342355
-0.015407,-0.0250356
-0.0227548,0.00721444
-0.0267031,0.0270595
0.00152481,0.0346427
0.0394663,0.0216061
0.0493497,-0.000890813
0.0415737,-0.0152273
0.0299769,-0.0100131
0.0256731,-0.00963234
-0.000800568,-0.000819685
-0.0252363,0.0123824
-0.0312611,0.0113436
-0.0266874,0.00457385
-0.0137122,-0.000463643
-0.00347665,-0.0161745
0.00365779,-0.0249533
0.0179742,-0.00167997
0.0333068,0.0143814
0.0388778,0.0105309
0.0230365,0.0169719
-0.00365853,0.0225135
-0.0142561,0.00820564
-0.020312,-0.0138391
-0.0293947,-0.0175454
-0.0319069,-0.0193928
-0.0326923,-0.0169555
-0.0321596,0.00509215
-0.0430942,0.0137681
-0.0460135,0.0091686
-0.0114062,0.00977916
0.0288742,0.00382098
0.0370975,-0.0183896
0.0345706,-0.0179638
0.0378701,0.00367699
0.0272939,0.00708336
0.0292409,0.0087985
0.0200535,0.0210653
0.00215245,0.0285728
-0.00976604,-0.0105494
-0.00912054,-0.0228346
-0.00557442,-0.0121209
0.00674817,-0.00877333
-0.00106866,0.00751201
-0.0163268,0.0126748
-0.0209983,0.0107774
-0.0196828,0.0012662
-0.0162491,-0.000543767
-0.0059235,-0.0119742
0.000525097,-0.0271877
-0.000825529,-0.0181681
-0.00371489,0.00149828
-0.000525538,-0.00418991
0.00329214,-0.00479183
0.00138454,0.0187923
0.00135306,0.0275176
0.00686677,0.000671458
0.00329566,-0.0270894
0.001947,-0.0134195
-0.00195796,-0.0234696
-0.010542,-0.0109288
-0.00847315,0.0286673
-0.00368361,0.0142729
0.00688782,0.00537326
0.0129424,0.0115891
0.011648,-0.00926039
0.0139804,-0.0226064
0.0148671,0.00441179
0.0164635,0.0155027
0.0155693,0.0102991
0.00379156,0.0115948
-0.0125544,0.0121001
-0.0090262,0.00775205
-0.00391981,-0.0159005
-0.00535193,-0.0121933
-0.012588,-0.00431719
-0.00415046,-0.00874608
-0.00255537,0.00421475
-0.0134838,0.016615
0.0159218,0.0158442
0.0091535,0.0096211
-0.00873155,-0.00151301
0.0288603,-0.0261919
0.0587091,-0.0279261
0.043738,-0.00582833
0.0163441,-0.0062316
-0.0243289,0.00280402
-0.0542004,0.0293731
-0.0661947,0.026915
-0.0603451,0.0099864
-0.04759,-0.0185463
-0.0302692,-0.0202413
-0.00500914,-0.0167467
0.0105254,-0.0072847
0.0186363,0.0113242
0.0936845,0.0167988
0.145049,0.0154145
0.115033,0.00890375
0.057844,-0.00502548
0.00863347,-0.0145222
-0.0341922,-0.00426057
-0.0631074,0.00728648
-0.0610704,0.00455864
-0.0606077,0.00719775
-0.0838057,0.0177107
-0.0774857,0.0129129
-0.0603578,-0.0106731
-0.0413866,-0.0187707
-0.0269222,-0.0110924
-0.0237039,-0.0125974
-0.0245845,-0.00626979
-0.0165641,0.0178645
-0.0166748,-0.00729253
-0.0117208,-0.00609135
0.000702841,0.0167168
0.00828644,-0.0122638
0.0139899,-0.0351779
0.0263886,-0.00860327
0.0252561,0.0186442
0.0305597,0.0139862
0.0469421,0.0123028
0.0765763,0.020491
0.155088,0.0112745
0.177287,-0.027655
0.142631,-0.00614783
0.0763094,0.0126264
-0.006501,-0.00458965
-0.0637555,-0.00241515
-0.0887443,0.0186536
-0.121803,0.00856028
-0.123577,-0.00385427
-0.068419,-0.0101121
-0.0299551,-0.0132935
-0.0350765,-0.0111503
-0.0424601,-0.00502827
-0.0294493,-0.0113389
-0.0141384,-0.0114765
0.00130068,0.0123327
0.000335383,0.0175049
-0.00522683,0.00293112
-0.00420773,-0.0103429
0.00171992,-0.0103473
0.0335709,-0.0038131
0.0594381,0.00450257
0.0571045,0.00976077
0.0411583,0.0151369
0.0240212,0.0218205
-0.00763701,0.0178201
-0.032313,-0.000495893
-0.0253269,-0.0145602
-0.0112615,-0.00350915
-0.012279,0.00480953
-0.0097267,-0.00331459
3.13e-05,0.0116583
0.000826392,0.0228337
-0.0037491,-0.00187824
-0.0077892,-0.0267246
0.00720233,-0.0259941
0.0160724,-0.0125279
0.00511603,-0.00958957
-0.00897022,0.00238116
-0.0184094,0.00855773
-0.0264751,0.00412245
-0.0193362,-0.00107964
0.000256744,0.00608876
0.0208741,0.0134111
0.0632045,-0.0096269
0.0843549,-0.0344892
0.0600893,-0.0131039
0.0193555,0.00159849
-0.0221848,0.00601799
-0.0294696,0.0140596
-0.0237015,0.00707978
-0.0295864,-0.00875873
-0.0287887,-0.00891609
-0.0237847,0.000679394
-0.020831,0.00671407
-0.0344348,0.0167689
-0.037398,0.0264552
-0.0150941,0.0236839
0.0113644,0.0115304
0.0203597,-0.0022072
0.0143617,-0.0300935
0.0312383,-0.0210416
0.0655092,-0.00782134
0.0581128,-0.00136719
0.0263415,-0.0112698
-0.00404964,-0.00258949
-0.0504198,0.0227262
-0.0366169,0.00639853
0.0287008,-0.0147444
0.0438213,-0.00946118
0.0653403,-0.00589778
0.0680993,-0.00408044
-0.0316821,0.0216915
-0.0819442,0.0263323
-0.0969652,0.00917965
-0.10224,0.017114
-0.0660129,0.000556637
-0.0129543,-0.0348812
0.0195095,-0.0263637
0.0283683,0.00605871
0.0291354,-0.0057207
0.00479821,-0.00403492
-0.0252651,0.0305042
-0.0474145,0.0294128
-0.0483767,0.0038608
-0.0391986,-0.0206925
-0.0211524,-0.0159783
0.00979311,-0.0107604
0.0339196,-0.0135484
0.0421225,-0.00928391
0.0837991,0.0122437
0.156066,0.0091206
0.141796,0.00228485
0.0552975,-0.0122955
-0.031708,-0.0206535
-0.0606863,-0.000675793
-0.0533962,0.00100857
-0.0475055,-0.0133389
-0.0650799,-0.0162467
-0.046254,-0.00839807
-0.0291182,-0.00600131
-0.0173405,-0.0232708
-0.016698,-0.0179875
0.00639546,0.000850195
0.0657773,0.0019923
0.0893669,0.0357322
0.0575876,0.0587374
0.0200523,0.0547986
0.0072733,0.0414766
-0.0149353,0.00170946
-0.0645105,-0.0496762
-0.0921279,-0.0708579
-0.0538319,0.00583963
-0.0178107,0.0490269
0.00420041,0.0248703
0.00641664,0.0216516
0.0249115,0.0331421
0.0270046,0.0117946
-0.0208756,-0.0131151
-0.0453615,-0.00511468
-0.0481076,-0.0028269
-0.0249319,-0.00664462
-0.00130222,0.00453805
0.00962263,0.0180373
0.0162316,0.0070172
0.0166519,-0.0151028
0.0172478,-0.0132625
0.025244,-0.0236234
0.0423403,-0.0361111
0.0528862,-0.0285791
0.0575194,-0.00742363
0.0486932,0.00359829
0.0282156,0.0127426
0.0124247,0.0177911
0.00741692,-0.00513945
-0.00593132,-0.0191671
-0.0278638,-0.00984316
-0.040369,-0.0105694
-0.0486387,0.00151626
-0.0519786,0.02742
-0.0358792,0.0106706
-0.0150771,-0.010828
-0.00897685,0.00405234
0.000430988,-0.0187338
0.00994982,-0.0217421
0.0114072,-0.00264975
0.00437339,0.00174464
-0.00256633,-0.00121121
-0.00744593,0.00193095
-0.00544301,0.00899753
-0.0116961,-0.0123162
-0.0168531,-0.026723
0.00586027,0.0112692
0.0366659,0.0155123
0.0797373,-0.0165911
0.157901,0.0114177
0.173669,0.0402034
0.118141,0.0237455
0.00524067,0.0106416
-0.101077,-0.00331982
-0.139904,-0.0234263
-0.13807,-0.0213268
-0.137194,0.000828597
-0.113114,0.00484263
-0.0482981,0.00155604
-0.011252,0.00590366
0.000390141,0.00498669
0.0086523,0.00492693
0.0191353,-0.00838059
0.0262367,-0.0159736
0.0297511,0.00389645
0.0257889,0.0324797
0.00616473,0.0251527
-0.010204,0.0141184
-0.0073621,0.00584961
0.000621415,0.000274551
0.00365252,-0.0145649
-0.00213441,-0.0325399
-0.00108653,-0.028569
0.00512151,-0.0237526
0.0140536,-0.0121063
0.055181,0.00595641
0.0743799,0.0219378
0.0714328,0.027768
0.0524307,0.00433423
0.00915763,-0.00246163
-0.0134544,0.00233081
-0.0220261,-0.00307442
-0.0320566,0.0157092
-0.0805372,0.0158481
-0.136847,-0.00181249
-0.105841,0.0141599
-0.0396078,-0.00530332
0.0114102,-0.0209365
0.0513033,-0.0318874
0.0857988,-0.0233996
0.0850551,-0.0127167
0.037824,-0.0167744
0.0163617,-0.00863917
0.0173266,2.27e-05
-0.00230345,0.00165053
-0.0157711,-0.0188564
-0.0258245,-0.00121881
-0.0260357,0.0213381
-0.016367,0.0229537
-0.0166771,0.00726652
-0.0261539,0.0398999
-0.0284731,0.0429704
-0.0202754,0.038804
0.00549858,0.0216843
0.0341209,-0.0465212
0.106728,-0.0796532
0.184519,-0.0291265
0.188758,0.0188603
0.0952508,0.0323133
-0.0315762,0.0520484
-0.12749,0.0441154
-0.156756,-0.0053695
-0.138875,-0.0423335
-0.0992183,-0.0389604
-0.0571649,-0.0352612
-0.0314694,-0.00199248
-0.0150582,0.0230505
-0.00427062,0.024428
0.0127413,0.0112862
0.0324627,-0.0207609
0.050151,-0.0370005
0.0708537,-0.0330481
0.0995259,-0.00594079
0.0636192,0.0119406
0.000968501,0.0083035
-0.032484,0.000902666
-0.0378969,0.00142866
-0.0543184,0.0166565
-0.0649886,0.034808
-0.0596092,-0.00496747
-0.0386836,-0.0151119
-0.0220563,-0.0062226
-0.0167673,0.0111146
0.00482188,0.0263719
0.0189101,0.0217856
0.00942154,0.0123956
0.00312789,0.00430072
0.00372512,-0.0133011
0.00327229,-0.02538
-0.000819337,-0.018657
0.00524807,-0.00874986
0.0160557,-0.00389536
0.0169716,-0.00215303
0.0150812,0.00583586
0.0290891,0.00859441
0.0515065,-0.00964969
0.0856074,-0.020199
0.0702623,0.00364155
0.0377753,0.00956383
-0.0101186,0.0234172
-0.0549747,0.0218034
-0.0485945,-0.00133608
-0.0261852,0.0168466
-0.0256891,0.000343241
-0.037516,-0.0272519
-0.0355552,-0.0268989
-0.0260215,0.00789908
-0.0312909,-0.012854
-0.0195915,-0.032971
0.000737408,0.00893422
0.0200261,0.0290563
0.0395396,0.00609676
0.0519864,0.00480061
0.0411605,-0.00466801
0.0153037,-0.0222246
0.00019581,-0.000323537
0.00122976,0.018554
-0.00891511,0.0160073
-0.0192535,0.0146272
-0.0230939,0.00801664
-0.0291205,-0.0010383
-0.0336256,-0.0219293
-0.0255258,-0.0227231
-0.00128103,-0.00527923
0.0291214,0.000376222
0.0408094,0.003402
0.0632107,0.0112915
0.0651459,0.0139061
0.0294154,-0.00582999
-0.00229952,-0.0254696
-0.0146978,-0.00403119
-0.0434436,-0.00202093
-0.055599,0.0124266
-0.0454529,0.0245499
-0.0348177,0.014032
-0.0313245,0.00577598
-0.0263734,-0.00166008
-0.00647976,-0.0216103
0.0134169,-0.0292835
0.0191324,-0.0274099
0.0285334,-0.00409159
0.040331,0.0215405
0.0361684,0.0212142
0.0153614,0.0205053
-0.00273709,0.0164495
-0.00902671,-0.0036089
-0.00264262,-0.0105602
-0.00979467,-0.0108257
-0.0146423,-0.0027249
0.0010552,0.00485107
-0.0305527,0.00530296
-0.0853754,0.0122227
-0.10265,0.000144154
-0.0706856,-0.00364989
0.0147977,-0.00907104
0.0879228,-0.0133058
0.118086,0.00162513
0.104844,0.0024713
0.0728728,-0.0202366
0.0369117,-0.0118522
0.0200754,0.0126721
-0.0207445,-0.0139358
-0.0498271,-0.00580238
-0.0308755,0.0150873
-0.00452676,0.0111036
-0.00344073,0.00445868
-0.00521983,0.0107786
-0.0127726,0.0128725
-0.00148385,0.0116645
0.0233042,0.0153441
0.0262406,-0.0016379
0.0100979,-0.017954
-0.0144542,-0.0103896
-0.0334122,-0.00260107
-0.0305087,-0.00630976
-0.0213225,-0.000569645
-0.0214491,0.00250603
-0.0307215,-0.000998903
-0.0184499,-0.0126135
-0.000316632,-0.0131507
0.00401445,-0.00903891
0.00475144,-0.0175663
0.0214807,0.00785406
0.0177458,0.0224273
-0.033029,0.023051
-0.0250681,0.0125772
0.0145742,0.015747
0.029165,0.00359328
0.0171812,-0.0179897
0.0189427,-0.0129242
0.0144773,-0.00399027
0.0018289,0.00203721
-0.0245032,0.00277488
-0.0330134,0.00183557
-0.0155279,-0.00388703
0.0141938,-0.0165739
0.0305479,-0.0180053
0.0254424,0.00170345
0.0157654,0.00603927
0.0119469,0.00832516
0.00995412,0.0132498
0.0135868,0.0116895
0.00458587,-0.00953484
-0.00712089,0.00920701
-0.0121236,-0.00963867
-0.0133419,-0.0212555
-0.0287289,-0.0036412
-0.0401153,-0.00186777
-0.0338052,-0.00479748
-0.0215184,0.00807101
-0.00886,0.0108521
0.00974327,0.0030649
0.0281418,-0.0096746
0.0180859,-0.00408112
0.0148149,0.00791738
0.0250286,-0.00027651
0.0200796,0.00420292
0.00673178,0.0211965
0.00900181,0.0134585
0.010287,0.00553685
0.00384674,-0.00174668
-0.00863954,-0.0177403
-0.0172747,-0.0137983
-0.0164574,0.00204271
-0.0111893,0.0036557
-0.00031636,0.000801519
0.00246747,0.0210575
-0.0128235,0.0153004
-0.0191725,-0.0185371
-0.000403757,-0.00638663
0.00529924,-0.011121
0.0127645,-0.017671
0.017531,-0.000500884
0.0104467,0.0121448
0.0105191,0.0145541
0.00929425,0.011393
0.00693884,0.0121263
-0.00115471,-0.0138917
-0.00931127,-0.0326104
-0.0108187,-0.0148224
-0.0119087,0.000114923
-0.0165861,-0.00350685
-0.0166464,0.00103828
-0.0104148,0.00785822
-0.00660939,-0.00242525
0.000781974,-0.0182523
0.0120537,-0.0122499
0.0132462,0.0066783
0.0153663,0.0211979
0.0195212,0.019172
0.0146498,0.014238
0.00866465,0.00618358
0.00566699,0.0303127
0.00828517,0.026805
0.012124,0.0117844
0.0042303,-0.0103055
-0.00221813,-0.00891604
-0.00173555,-0.00537886
0.0011113,-0.00832822
-0.00157632,-0.0107543
-0.0226989,-0.0263601
-0.0420585,-0.042705
-0.0803901,-0.0293284
-0.100851,-0.018038
-0.0441614,-0.0165558
0.0220708,0.00241329
0.0770578,0.0217253
0.101941,0.0284724
0.0951895,0.0333754
0.0546155,0.0316867
0.00510989,0.00417108
-0.0525542,-0.0105095
-0.0926192,-0.00124252
-0.0939267,0.0134903
-0.0532417,0.0156919
-0.0185098,-0.00219605
0.0120252,-0.0103748
0.0194406,-0.0240902
0.0312625,-0.0374539
0.0311166,-0.017622
0.0354797,-0.00107746
0.0378425,0.00458022
0.0367956,0.0124025
0.016652,0.0269592
-0.0010182,0.035988
-0.00396884,0.0389119
0.0187039,0.0186674
0.0149327,-0.0172933
-0.00588188,-0.0170127
-0.0335363,-0.00467804
-0.0247773,-0.00772256
0.0239907,-0.0305094
0.0572156,0.0110669
0.031086,0.0126853
0.00636229,-0.0241605
-0.000768466,-0.021691
-0.00587135,-0.0163219
-0.0134297,-0.0244764
-0.0112829,0.00266062
-0.00879073,0.0217437
-0.00833218,0.0291815
-0.0136793,0.0214865
-0.0277624,0.0067507
-0.0287856,-0.00351588
-0.0237282,-0.00968074
-0.00956684,0.0033339
0.00185904,0.00682781
-0.00332759,-0.0140816
-0.0015164,-0.0235354
0.00241619,-0.00708717
0.00877528,-0.0034841
0.0103628,-0.029796
0.0141727,-0.0369754
0.0150458,-0.00788458
0.0112208,0.00854466
-0.00577137,0.0211
-0.0196094,0.0385736
-0.0105343,0.0403183
-0.00611512,0.0209296
-0.0166199,-0.0134744
-0.0342108,-0.0557614
-0.0146602,-0.0279548
0.00231336,0.00335292
0.0133683,0.0197588
0.0162255,0.0110029
-0.00438276,-0.0144443
-0.0127884,-0.0250319
-0.00737647,-0.0162852
0.00600625,0.00958968
0.00320769,-0.00292482
0.0187604,0.00322762
0.0403788,0.0299591
0.033749,0.0369637
0.0157776,0.00451186
-0.00777196,-0.0190089
-0.00559493,0.00841344
0.0375968,0.0246005
0.0447642,0.0120666
0.0157646,0.0239983
-0.0400666,0.0272705
-0.0866818,-0.00512745
-0.0567612,-0.0130651
-0.0246523,-0.00832618
-0.00450164,-0.00621772
0.0114829,-0.0195208
0.0259268,-0.0174261
0.0326054,-0.0171283
0.0236911,-0.0303571
0.0110608,0.00805894
-0.00166471,0.0353065
-0.00111397,0.036922
-0.0240409,0.0152166
-0.0187629,-0.00577439
-0.0002614,-0.00920854
0.00016304,-0.0125191
0.0112957,-0.00347138
0.0347597,0.00648586
0.0484705,0.000232148
0.0333774,-0.00146753
-0.027245,0.0155296
-0.127694,-0.0109628
-0.180835,-0.0483604
-0.13741,-0.031056
-0.0285203,-0.0147167
0.0743132,0.00525046
0.147612,0.0386102
0.166658,0.0237417
0.113583,0.0276283
0.0508425,0.0362764
-0.0482209,0.0201406
-0.0878792,-0.0148648
-0.0614061,-0.0237865
-0.0153613,-0.015942
-0.000599826,-0.0220872
0.00793276,-0.0312857
0.0334985,-0.0101442
0.0361663,0.0114941
0.0339356,0.00833596
0.0224321,-0.00710404
-0.00355852,-0.0015612
-0.0100477,-0.000217602
-0.00835969,-0.00217332
0.00094904,0.00392438
0.00611117,0.00149476
0.00702089,-0.0019192
-0.00108101,0.0182112
-0.00767585,0.0244971
0.00148139,-0.0142649
0.00480244,-0.00558867
0.00884031,0.00747087
-0.0068353,0.00865865
-0.00986592,0.00998869
-0.0428726,-0.0196515
-0.0694295,-0.0294417
-0.0454333,-0.00176622
-0.00724791,0.000227062
0.013869,-0.0234889
0.0270623,-0.0048407
0.0272984,0.017033
0.021145,-0.0125964
0.0140996,0.00307694
0.017996,0.014564
0.019082,0.0251664
0.015523,0.00409885
0.0165728,-0.00985407
0.0105281,-0.0181072
0.0135179,-0.0106306
0.0174344,-0.036664
-0.0149093,0.00879933
-0.02776,0.0504845
0.00268998,0.0091368
0.0364183,-0.0161974
0.00655338,0.000723136
-0.0325639,0.00583581
-0.0402003,-0.0085632
-0.0455448,-0.00428512
-0.0476321,0.00804017
-0.0178746,-0.00725185
0.013056,0.0173742
0.00756032,0.0183571
0.000624383,0.000895394
0.00723496,0.00918874
0.0310387,0.0237151
0.036871,-0.00811469
0.00559359,-0.0130991
-0.0147699,-0.0123358
-0.0138875,-0.0066815
0.0130365,0.00660201
0.0407889,-0.00234367
0.023011,0.00971258
-0.0436928,0.0162584
-0.149544,-0.00629613
-0.128629,0.0235719
-0.00659864,0.0626211
0.053344,-0.00149545
0.0692575,-0.0370176
0.106958,-0.0370741
0.0965498,-0.0583547
0.0198398,-0.0188583
-0.0490965,0.0127545
-0.092283,-0.00484236
-0.0685939,-0.0180831
-0.00446121,0.00641095
0.000715923,-0.0198739
0.0211804,-0.0176582
0.0764194,-0.00796568
0.088235,0.016468
0.0374333,0.0199953
0.0193459,0.0158524
0.0193716,0.00957525
0.0195365,0.00854354
0.0185115,0.00970745
0.0131376,0.00942517
0.0225586,0.00347978
0.0176044,-0.0243573
0.00590234,-0.00691839
-0.0142518,0.0332038
-0.0481205,0.0288372
-0.0823589,0.0340945
-0.114385,0.0154248
-0.190771,-0.0333047
-0.285862,-0.0477742
-0.403671,-0.0520526
-0.292887,-0.0481899
0.0477487,-0.0735118
0.380256,0.0311955
0.486127,0.108195
0.37016,0.0539991
0.151404,0.023929
-0.0364571,0.00964517
-0.0676515,-0.0212867
-0.0400675,-0.0292517
-0.021252,-0.0151644
0.0148374,0.00704956
0.056541,0.0069299
0.0532303,0.0189943
0.0304809,0.0295752
0.0484151,0.016094
0.0523652,0.000798394
0.0270464,-0.00949355
-0.00191998,-0.0347766
-0.0457208,-0.0281227
-0.0805399,-0.0205439
-0.0620233,-0.00316884
-0.035224,0.0255142
-0.039696,0.0238597
-0.0509405,0.00535418
-0.0480582,-0.0030759
-0.0429945,0.00335461
-0.0403068,0.00123925
-0.005379,0.00279623
0.0389482,-0.00398915
0.0632309,0.0017323
0.0409483,0.00994654
0.00743828,-0.0156274
0.00437494,-0.0304853
0.0049602,-0.00815991
0.00904333,0.0228645
0.00344564,0.0201639
-0.0290009,-0.0124537
-0.0501538,-0.0203818
-0.0377912,-0.00581821
-0.0292658,-0.000884108
-0.0217535,-0.0171496
-0.013391,-0.0235293
-0.0035807,-0.0148335
0.014894,-0.0119027
0.0320301,-0.0105846
0.0330237,-0.00180031
0.0159544,0.00149325
-0.0593623,0.012881
-0.0910456,0.00125494
-0.0627651,-0.0537301
0.0105918,0.0235284
0.0621952,0.0435915
0.0781341,0.0159184
0.0725547,0.0339334
0.0347529,0.0345679
0.0110606,0.0289128
-0.00687714,0.0058252
-0.029398,-0.0204369
-0.037678,-0.0249048
-0.0169593,-0.0138866
0.0276997,0.0208685
0.0752467,0.0211094
0.0590138,0.00789591
0.0262478,0.0290727
0.0385854,0.00676299
0.0460514,-0.0288273
0.0316184,-0.0152936
0.00918902,-0.0178016
-0.0608998,-0.0486598
-0.188467,-0.0346281
-0.382034,-0.00504783
-0.395162,-0.00308127
-0.139579,0.0100962
0.0258422,-0.00351491
0.135418,-0.0244763
0.297018,-0.0132099
0.337165,0.00650057
0.275041,0.0162378
0.17255,0.0202532
0.0482001,0.0238165
-0.0392334,0.0202267
-0.0936669,0.00586108
-0.0838676,0.00197426
-0.0158688,0.00691193
0.0263016,0.00992178
0.0460821,0.0239334
0.0537051,0.0245941
0.0371237,0.0163812
-0.0445764,0.0161512
-0.159196,0.000793075
-0.168918,-0.0277694
-0.102433,-0.0445586
-0.0177796,-0.0225923
0.0537347,-0.012061
0.0649391,-0.00592457
0.0410952,0.00154345
0.0310968,0.00011427
0.0772098,-0.00540434
0.0951258,-0.0305721
0.089983,-0.0428467
0.0512282,3.54e-05
-0.0497467,0.0338608
-0.094307,0.0221506
-0.0687263,0.0202215
-0.0337971,0.0274514
-0.00404679,0.0317416
-0.0272004,0.00340608
-0.0954726,-0.0241674
-0.133191,-0.018093
-0.108633,-0.0253319
-0.0354474,-0.0105512
0.00861224,0.035524
0.0164669,0.0384586
-0.0248743,0.0219386
-0.0128796,0.0105794
0.0303347,0.001577
0.08828,0.00214726
0.0968918,0.00621447
0.0802078,0.0044761
0.0733251,0.0107113
0.057913,0.0193375
0.0365764,0.0153856
-0.00670371,-0.00810245
-0.0228061,-0.0359879
-0.0151152,-0.0427941
-0.0163182,-0.0441817
-0.022726,-0.045864
-0.0252886,0.00849629
-0.0326616,0.0281252
-0.0527169,0.012378
-0.0568494,0.00809772
-0.0436763,0.0105516
-0.0134515,-0.00338276
0.0460807,-0.0216145
0.066096,-0.0148242
0.0217888,0.00181636
0.0162381,-0.00121059
0.0222811,-0.00417582
0.0236966,-0.0131459
0.0295662,-0.0156354
0.0258587,-0.025013
-0.000521809,-0.0205409
-0.0234055,0.0100044
-0.0287804,0.0167231
-0.0204004,0.0141124
0.00470366,0.0284242
-0.015043,0.0317987
-0.0436466,0.022737
-0.0253026,-0.0035486
0.017448,-0.0134344
0.0413903,-0.0145441
0.0303486,-0.0139489
0.0179311,0.000670196
0.0154771,0.0132146
-0.000550948,-0.00402104
-0.0315451,-0.0122601
-0.0271697,-0.000174434
0.00314813,-0.03536
0.0172971,-0.0372573
0.0121871,0.00437839
0.0138386,0.0189037
0.0153616,0.0214095
-0.00847817,0.0182844
-0.0429386,0.0095173
-0.0315848,-0.000298228
0.0149427,0.00851585
0.0320756,0.00339469
0.0292532,-0.00938962
0.0165304,-0.00108422
0.00568187,0.00992197
-0.00803483,0.00900248
-0.0247564,0.000766059
-0.0380032,-0.00204136
-0.0727303,-0.010848
-0.0691776,-0.0197685
-0.0279679,-0.00798265
0.022812,0.00121297
0.038472,-0.00125486
0.0453277,-0.000747026
0.029835,0.0119086
0.00505434,0.0143405
-0.0198082,-0.0132265
-0.0231666,-0.0155445
-0.026619,-0.0161001
-0.00629159,-0.0280627
0.0561433,0.0152903
0.0851276,0.0355441
0.0544641,0.049567
0.0117075,0.0247664
-0.000432128,0.00920808
-0.00356932,-0.00415965
-0.0234389,-0.0158586
-0.025333,0.00206867
-0.0276563,0.0164836
-0.0245844,-0.00261056
-0.0129448,-0.00187451
0.00500916,-0.000369774
0.0243096,-0.00619709
0.0279089,-0.006085
0.0183699,-0.0074887
0.00916008,0.000575326
-0.000343085,-0.000656783
-0.00413737,0.0103676
0.00240596,0.0106374
-0.0125828,-0.00532599
-0.0405404,-0.00271388
-0.0428,-0.0125359
-0.0206987,-0.0170846
0.00726826,-0.0132941
0.0395574,-0.00255835
0.0579337,-0.00264781
0.0402993,0.00569559
-0.0120654,0.0189461
-0.029387,0.0127764
-0.027728,0.00309116
-0.028696,-0.00666454
-0.0209263,-0.00373443
-0.00576681,-0.00448661
0.0271509,-0.00106062
0.044689,0.00268676
0.0177043,0.00267688
-0.00491208,0.0187559
-0.0111122,0.0101619
-0.0145188,-0.0198302
-0.0109053,-0.0302812
-0.0139535,-0.0298435
-0.0393794,-0.0246203
-0.0561356,-0.000223791
-0.0507717,0.0058529
-0.0230027,0.00279587
0.0173859,0.00547348
0.0386308,0.00987124
0.0397709,-0.00433427
0.0310978,-0.00175984
0.0264655,0.00181921
0.0244328,-0.00165048
-0.0217026,0.00476456
-0.0722454,-0.0120197
-0.0808534,-0.015588
-0.0409638,0.00836091
0.0107063,-0.000788617
0.0575192,-0.00711044
0.0723474,-0.00994147
0.0607114,0.00537037
0.0437157,0.0134046
0.0125289,0.0263288
-0.014296,0.0354419
-0.0175731,0.0391834
-0.0213575,0.00675204
-0.0142602,-0.00341845
0.00979806,0.00760634
0.00244628,0.0133231
-0.0060076,0.0141602
0.00311807,0.00136874
0.000341332,-0.00431472
0.00728526,-0.00365153
0.0115023,-0.00731806
0.0128342,-0.0250208
0.0126698,-0.0346082
0.0182244,-0.0265405
0.017434,-0.0114425
0.00912795,0.00497704
0.00421421,0.00470577
0.0063769,0.0111589
0.016701,0.0143
0.0163985,-0.010089
0.0101174,-0.00493247
0.0103726,0.000854198
0.00209557,0.00715431
-0.0668053,0.0164114
-0.155554,0.0240028
-0.124774,0.0090934
-0.0363533,0.00799987
0.0509081,-0.00035511
0.119241,-0.00927667
0.111508,-0.00997641
0.0287849,-0.0266349
-0.0192853,-0.0337787
-0.024619,-0.0127198
-0.0159101,0.0132217
-0.0196653,0.0100962
-0.038014,-0.00739705
-0.0311026,-0.0201684
-0.0208699,-0.0121312
0.00197012,-0.00315761
0.0237204,0.00760175
0.0168877,0.0117148
0.0173263,0.0139775
0.0211845,0.0122853
0.00811015,-0.00620781
-0.00578166,-0.0107572
-0.0028447,-0.0162014
0.00348779,-0.0103908
0.00424305,0.000174946
0.00589254,0.00394975
-0.00726833,0.00480125
-0.0174986,0.00757429
-0.00617581,0.00282541
0.0219223,0.0034009
0.0318414,-0.00309017
0.0142194,0.00141038
-0.00480101,0.00217298
-0.0185636,0.0134916
-0.000668923,0.0279432
0.0123867,0.0236422
-0.00195561,-0.000845353
-0.0136302,-0.0146117
0.00161094,-0.00242924
0.00288726,-0.00517349
-0.00580242,-0.0240186
-0.0125026,-0.0140027
-0.0343322,-0.00566232
-0.0707625,0.00140976
-0.0367822,0.0216131
-3.47e-05,0.0166946
0.0131352,-0.00450332
0.0451681,-0.0100936
0.0674198,-0.0102314
0.0422381,-0.0113047
0.00699123,0.0159966
-0.0332314,0.0185416
-0.0402508,0.0038805
-0.0150813,0.00897875
-0.0101874,0.00359328
0.00555311,-0.00815865
0.0285502,-0.00634641
0.0493486,0.00141224
0.0248637,0.00431165
-0.00999266,-0.00179432
-0.013017,-0.00537391
0.00442427,-0.00233863
0.0230248,-0.00688227
0.0309147,-0.0148481
0.0135038,-0.00960974
0.00376272,-0.00378502
-0.0110855,-5.09e-06
-0.0287029,0.0108692
-0.0341626,0.018881
-0.0259419,0.0162217
-0.00284669,0.0111345
0.0186529,0.000387831
0.00450877,-0.0076399
0.000829189,-0.00028401
5.43e-05,0.00546579
-0.00266152,0.00296853
-0.00898119,0.00350704
-0.00861453,0.0031415
0.00241512,0.000838171
0.00182343,-0.0144126
0.00205037,-0.00486723
-0.000857512,0.00531816
-0.0154838,-0.0108087
-0.0243674,-0.0144539
-0.0239936,-0.0124117
-0.00802304,-0.00976374
-0.000362584,-0.00840811
0.00464405,0.000404689
0.00413419,-0.0237087
-0.00016119,-0.0207209
0.00482026,0.00638436
0.00752428,0.0246334
0.011059,0.00916863
0.00791959,0.00532066
0.0112884,0.0253607
0.024517,0.0230819
0.0341769,0.00235645
0.0339789,-0.00808094
0.0269093,-0.00193736
0.0226248,-0.000476859
0.0221412,0.00100829
0.0165763,0.00371466
0.0131567,-0.00298783
-0.00392419,-0.0121965
-0.0325838,-0.0235596
-0.0775882,-0.0267459
-0.0797264,-0.0215453
-0.0329217,0.00125949
0.00847584,-0.000637463
-0.0157808,0.00521808
-0.0461477,0.0323075
-0.0284546,0.031048
-0.0118722,0.000151546
-0.0134554,-0.00429575
-0.0194059,-0.00295488
-0.0180256,0.00531615
0.0148868,0.0236749
0.0671623,0.0225281
0.0780995,0.0253656
0.0549113,0.0220732
0.0365179,0.00647339
0.00468103,-0.00779572
-0.0142568,-0.0323635
-0.0155718,-0.0350245
0.000884805,0.00203673
0.00644876,0.0278705
0.000495998,0.0222295
-0.000475473,-0.000883913
-0.00384587,-0.0152202
-0.00490306,-0.0216806
-0.00136975,-0.0199202
-0.000192638,-0.0100313
0.00147463,0.00292608
0.00447913,0.0177701
-0.00180738,0.00735538
-0.00796357,-0.0177655
-0.00576137,-0.0186507
-0.00214637,0.00542745
-0.0078372,6.86e-05
-0.0053616,-0.00953458
0.00256575,-0.0010655
0.00496855,0.00329112
0.000886015,-0.00509359
-0.0128045,-0.00378987
-0.0216189,0.00792157
-0.00778814,-0.00237076
0.00139107,-0.0189503
0.00444685,-0.0157518
0.0229422,-0.00365843
0.0356376,0.0143177
0.00998235,0.0162746
-0.0147181,0.0204179
-0.0319353,0.0200509
-0.0722407,0.00359088
-0.0840855,-0.0110567
-0.0565533,-0.0159849
0.018755,-0.00716784
0.0845742,-0.00593237
0.0698356,-0.00566766
0.0231768,-0.00963648
0.0101764,-0.00362945
0.00741675,0.00651201
0.00452288,-0.00210746
-0.00521768,-0.00962409
0.00666969,0.00210233
0.0359566,0.00738612
0.0349144,0.00822665
0.0107125,0.0173466
-0.00651982,0.0136997
-0.0226863,-0.00503519
-0.0259154,0.0037774
-0.0175727,-0.00877466
0.00206188,-0.023955
0.0168092,-0.0125028
0.00571332,-0.00100315
-0.00182529,0.00330534
-0.00277603,0.00332603
-0.00866855,0.001869
-0.00990078,0.00441603
-0.00476858,-0.00419127
-0.00755836,-0.0168727
-0.00473766,-0.0124104
0.000290955,0.00365773
-0.00396623,0.018712
-0.00938725,0.0063901
-0.0123514,-0.000329863
-0.0197514,0.00269392
-0.048978,-0.0155968
-0.0394135,-0.0105663
-0.0166125,-0.00893887
0.0054524,-0.00750048
0.03504,0.0279835
0.0317854,0.0322028
0.016817,0.0167808
0.0374451,-0.0108301
0.0501832,-0.00591302
0.0294782,0.0149332
0.0102929,0.0179851
0.00132081,0.00292453
0.00952037,0.00869808
0.00793603,0.0140927
-0.000196171,0.00976897
0.00810496,0.0129204
0.0171699,0.0093416
0.0138299,-0.0035512
0.0106558,-0.0129759
-0.00462396,-0.0092262
-0.0647007,-0.00344482
-0.115033,-0.00158828
-0.082151,-0.0104509
-0.0307012,-0.0257844
0.00868931,-0.0413121
0.0577219,-0.00699261
0.0829986,-0.00400491
0.0528642,-0.00377776
-0.00182805,0.000921507
-0.0606319,-0.00134038
-0.0974215,0.00374041
-0.0481878,0.0133487
0.0235317,0.0291516
0.0401203,0.024977
0.0562654,-0.000180926
0.0506769,-0.0214927
0.0332998,-0.0174959
0.0181482,-0.00350332
0.0140791,-0.00510308
0.00813085,-0.00216932
0.00170526,0.0044963
0.000364638,0.00638132
0.00986248,-0.00566855
0.0119387,-0.0115391
0.0090832,0.00025751
0.0032614,0.00622331
-0.00306824,0.0132066
-0.0354999,0.0213968
-0.05761,0.0132415
-0.0326734,-0.0300854
0.010864,-0.0269531
0.0283498,-0.00577255
0.0158269,-0.00744095
-0.0174238,0.0139152
-0.0213828,0.0204497
0.00184753,0.0170926
0.00315678,0.0155297
-0.0083904,0.01309
-0.00827994,0.00492336
-0.0130464,-0.00600773
-0.0183069,-0.00619704
-0.0331468,-0.00643015
-0.0174731,-0.00618693
-0.011818,-0.00265118
-0.00280655,0.00314264
0.027663,0.012696
0.0524308,0.0145922
0.0469924,-0.0157275
0.0266715,-0.0318994
0.0132072,-0.0168887
0.00747837,0.0113132
-0.00236421,0.00568784
-0.0116789,-0.013117
-0.0240557,-0.014555
-0.0217977,0.0174053
-0.00383377,0.010269
0.0142743,-0.0101558
-0.000609157,-0.00556459
-0.0182322,-0.00288348
-0.0213807,-0.00695248
-0.00930926,0.00327613
0.0056241,0.00103897
0.0148272,0.00727321
0.0256814,0.00906554
0.00836548,0.00159051
-0.0108443,-0.00796297
-0.0115979,0.000688519
-0.00453963,0.0129397
0.00632023,0.00830678
0.0128698,0.0157788
0.00521692,0.0219621
0.000918623,0.00831931
-0.00188802,-0.0172246
-0.00236602,-0.0249224
0.0141912,-0.0133935
0.0243374,-0.00641187
0.00954344,-0.00176457
-0.0142031,-0.000234746
-0.0259491,-0.00549682
-0.0465997,-0.00747202
-0.0431963,-0.00793668
-0.0207197,-0.00301806
0.00111564,-0.0208974
0.00331087,-0.00842805
0.00414677,0.0283268
-0.00251381,0.0333732
0.000360456,0.0276925
0.00859797,0.0182543
0.0217607,0.000488968
0.0321691,-0.0226466
0.0368344,-0.0268383
0.0288217,-0.0129895
0.0155236,0.000891237
0.00967782,0.00676656
-0.00382033,-0.00638885
-0.0129513,-0.00913741
-0.00337721,0.00340247
0.00539487,0.00247911
-0.00603939,-0.00590685
0.00117916,-0.00437385
0.00421246,0.0119436
0.0156136,0.00976756
0.020371,-0.00469809
0.00179683,0.0181724
-0.0279041,0.0225667
-0.0564142,0.00623102
-0.0596483,-0.00842892
-0.0771501,-0.0139053
-0.0816005,-0.0124893
-0.0504458,-0.00434651
-0.0178396,-0.00521748
0.00322782,0.00511115
0.0451337,-0.00412433
0.0759682,-0.00821394
0.0696085,0.00466025
0.0640763,-0.00630078
0.0623454,-0.00832777
0.0580074,0.00915036
0.0343127,0.00200821
0.00854913,0.00790884
0.00390645,0.013737
0.00221549,0.00560394
0.00153039,-0.00324346
-0.00135275,-0.00389626
-0.0165316,-0.00406943
-0.0615721,-0.00584004
-0.104634,-0.000259653
-0.0833684,0.0058303
-0.0152022,0.0100491
0.0383627,0.00331557
0.0512577,0.000314375
0.0397904,-0.000996475
0.0173262,-0.00588414
-0.0136778,0.000204318
-0.0381193,0.00157104
-0.0364544,-0.0148965
-0.0254786,-0.00112972
0.0100876,0.0270488
0.0329188,0.0179122
0.0423202,-0.00872735
0.0439066,-0.0153433
0.04401,-0.0115428
0.0341413,-0.0121122
0.000981183,-0.0120181
-0.0175308,0.0116915
-0.0220597,0.0212172
-0.0152542,0.0118219
-0.00329973,-0.00293432
0.00231976,-0.00325475
-0.0101971,-0.0127092
-0.0218229,-0.014317
-0.0313741,-0.0152153
-0.0313449,-0.00763171
-0.0233542,-0.000283757
-0.00852205,0.00171272
0.0138894,-0.0159145
0.0257839,-0.0253614
0.0291677,-0.01484
0.0252509,-0.0281057
0.0224711,0.000114433
0.0218865,0.0266631
0.0141815,0.023359
-0.00717511,-0.00121318
-0.0154786,-0.00139582
-0.0131442,0.0124311
-0.00431428,0.00436511
-0.00361199,0.00719767
-0.00931927,0.0105124
-0.0181682,0.0133603
-0.0333119,0.0232638
-0.0323594,0.036774
-0.0229856,0.0432395
-0.00957221,0.0105617
0.0272546,-0.0153412
0.0343501,-0.0146939
0.0113535,-0.00648142
0.0034622,0.0189232
-0.00646116,0.0198911
-0.0102005,-0.00207716
-0.0122234,0.00231068
-0.0166395,0.00534427
-0.0164565,-0.0331146
-0.00121012,-0.0432101
0.0048795,-0.00342476
0.0222044,0.0118068
0.0225016,0.00913843
-0.0141455,0.00639453
-0.0406958,0.00183779
-0.0215882,-0.00872295
-0.00181535,-0.0350299
0.0130655,-0.0301994
0.0361174,-0.00931076
0.0554169,-0.00238006
0.0528708,0.011328
0.0241645,0.016243
-0.000310815,0.0220881
0.00162304,0.0233124
0.00644254,-0.00401978
0.0142266,-0.029889
0.00963827,-0.0293081
-0.00535898,-0.00133778
-0.0152848,0.0163114
-0.015963,0.0100234
-0.00940081,0.0157844
0.00586958,0.0108972
0.0185395,-0.00860089
-0.0590593,-0.0166058
-0.133907,-0.00704835
-0.106423,-0.00898765
-0.0477541,-0.00504614
-0.039088,0.00281085
-0.00945336,0.00243315
0.0530166,0.00496341
0.0995423,0.00907462
0.098948,-0.00718677
0.0837626,-0.0159672
0.0654841,0.00453676
0.0305611,0.0103927
-0.0106652,-0.0024074
-0.0210941,-0.00465736
-0.0111316,0.00570017
-0.00244237,-0.00143117
0.0104735,-0.0105782
0.0173089,-0.0158407
0.0171279,-0.0134964
0.0205962,-0.00198127
0.0158128,0.00328236
0.00750989,0.00798372
-0.0132512,0.00799786
-0.0366161,0.00595923
-0.0375136,0.000849077
-0.0233035,-0.0117434
-0.011719,-0.0156988
-0.0171868,-0.00392479
-0.0310251,0.0180444
-0.0284662,0.022568
-0.015549,0.0173614
-0.00195488,0.00838804
0.00571876,-0.00145637
0.0125769,-0.0126837
0.011005,-0.00931156
0.0151805,-0.00316379
0.0201837,-0.00298996
0.0161368,0.00563752
0.00118233,0.0189714
-0.014945,0.0142682
-0.0246331,0.00522751
-0.0208994,-0.0143247
-0.0275862,-0.044718
-0.036639,-0.0316884
-0.012728,0.0219096
-0.0118921,0.0164688
0.00597966,0.0253192
0.0234574,0.0312865
0.0173225,0.0169561
0.000724996,-0.00326106
0.00453557,-0.0219218
0.0202344,-0.0119464
0.0365146,-0.00238252
0.0364744,-0.00142419
0.0261784,0.00377016
0.0114668,0.00570372
-0.000351491,0.00426774
-0.0158967,0.00664698
-0.0244627,0.000896744
-0.0153816,-0.0103589
-0.0112269,-0.00485701
-0.00753267,0.00758556
-0.00563623,0.00955645
-0.00401154,0.0115585
-0.00452189,0.0112062
-0.00195054,0.00463801
0.00515837,-0.00788605
0.0111723,-0.0102172
0.0146325,-0.0133029
0.0154505,-0.0141502
0.0111461,-0.0031322
0.00536226,0.00445447
0.00159188,0.0056584
-0.00506973,0.00122435
-0.0122225,-0.00826507
-0.00576853,-0.0105457
0.004053,-0.017661
0.000167319,-0.0118808
-0.00338059,0.00731499
-0.00180138,0.0131516
-0.00481583,0.0048415
-0.0103399,-0.00163069
-0.0310038,-0.00767175
-0.0358317,0.000687729
-0.0223419,-0.0133316
-0.00548666,-0.00523291
0.00809672,0.00978914
0.0276981,0.0154372
0.0491907,0.012987
0.0239079,0.00211908
-0.0606231,0.0085202
-0.0942132,0.000803702
-0.0543302,-0.0329479
0.0228409,-0.0230816
0.0656792,0.00780907
0.0731546,0.0106048
0.0527574,0.00429069
0.0225607,-0.0256206
0.0129288,0.00099523
0.0215027,-0.0179015
0.0406428,-0.0162706
0.0116643,-0.0149037
-0.0183169,-0.0059507
-0.0229841,0.0130585
-0.00970507,0.0258983
-0.00329251,0.0221388
-0.0120004,0.0234061
-0.00671111,0.0201953
-0.00740799,0.0071073
-0.029151,0.00813054
-0.0419029,0.01726
-0.0238845,0.018227
0.0206613,0.0148374
0.0232686,0.00784218
0.005581,-0.00686493
-0.00565094,-0.0129555
-0.0107894,-0.0299915
0.000634591,-0.0255923
0.0220578,-0.0165947
0.0365,-0.00678695
0.0237734,0.0126761
-0.00934523,0.0156179
-0.0183716,0.023149
-0.0121411,0.0215727
0.00325659,-0.00159233
0.00336977,-0.023842
-0.0127013,-0.0180597
-0.00704175,-0.00786752
0.00790387,-0.006359
0.00566232,-0.000993281
-0.00492143,0.0181179
-0.00508202,0.00515935
-0.0175789,-0.0240153
-0.0386946,-0.0281281
-0.0226792,-0.0211133
-0.0199013,-0.0184274
-0.0292263,-0.00336123
-0.00557485,0.0235007
0.00664621,0.0283127
0.00767196,0.0216176
0.0373189,0.0210706
0.0370997,0.00638061
0.0168189,0.0124554
0.014409,-0.00145823
0.000176196,-0.0109788
-0.0266266,0.00646985
-0.00736617,0.00424658
0.0214623,-0.0161234
0.0241473,-0.0112677
0.0195278,-0.0267035
0.02003,-0.0138127
0.0121713,-0.000390352
0.00369853,-0.00175734
0.00513356,0.0128379
-0.0153121,0.0216444
-0.0261216,0.0204971
-0.0135474,0.0177192
-0.0114229,0.00737638
-0.020027,-0.00296521
-0.0200727,-0.00504429
-0.0327257,0.00611473
-0.0330514,0.00673173
-0.000430666,-0.0121462
0.0240216,-0.0030749
0.0107676,-0.00969318
-0.0105872,-0.0340175
-0.00936761,-0.0232853
-0.0040612,-0.0171021
0.0223817,-0.0107469
0.051402,-0.00254399
0.0344971,0.00460905
0.0117116,0.0187401
0.00233477,0.018183
0.00231131,0.0122475
0.0138569,-0.0149735
-0.0117997,-0.00661653
-0.0731238,0.0256019
-0.0733251,0.0119205
-0.0322839,0.000798549
0.0144139,0.00499357
0.0482824,0.00599204
0.0681223,-0.0044823
0.0563233,-0.0209448
0.026035,-0.0260681
0.00468623,-0.0128892
-0.00422989,-0.00453961
-0.00663307,0.00602415
0.000893211,0.0140919
0.00235651,0.0163431
-0.00364754,0.0226165
-0.0113677,0.0126172
-0.0119255,-0.00104532
-0.00873246,-0.0034444
-0.00827272,0.00518644
-0.0132964,0.00358553
-0.0233418,0.00172571
-0.0212168,0.00264092
-0.00919609,0.00240568
-0.0117623,-0.0160636
0.00215708,-0.0297305
0.0196164,-0.0214119
0.0190474,-0.00637729
0.0109433,-0.0043971
0.00213008,-0.0065925
0.00190268,0.0181887
-0.00378838,0.026128
-0.00681676,0.0171079
-0.00622627,0.00718648
0.00811346,-0.00940426
0.023511,-0.00753795
0.0238146,0.00355854
-8.63e-05,0.00179085
-0.0212737,0.00581122
-0.0186943,0.00446587
-0.0113174,-0.000843645
-0.00662934,0.004153
0.00704866,-0.0158495
0.0166078,-0.0121393
0.0215897,-0.00362062
0.0193918,0.00393042
0.00151006,0.0106605
-0.0140088,0.0048954
-0.0163313,0.00790934
-0.0179495,0.0138432
-0.0210241,0.0042256
-0.0262204,-0.0214058
-0.0318707,-0.0018478
-0.0342654,0.0139586
-0.0163816,-0.00580999
0.0148433,-0.0204588
0.0364499,0.00749884
0.0417867,0.00869363
0.0199207,-0.0225958
-0.00900874,-0.0214467
-0.00629645,7.66e-05
0.0103544,-0.00197954
0.0224235,-0.00040094
0.0411935,0.00874633
0.0192073,0.0134185
0.00148706,0.0127119
-0.00635928,0.00434359
-0.0121375,-0.009244
-0.00945997,-0.0149684
-0.0132194,-0.00372945
-0.051603,-0.0224494
-0.0659937,-0.0139412
-0.043662,0.0156447
-0.0215136,0.0218968
0.00504819,-0.00870278
0.0329521,-0.0333196
0.0712449,-0.0304684
0.084639,-0.0196925
0.0587402,-0.00732484
-0.0231485,0.00731836
-0.0827709,0.0168159
-0.0737967,0.0221537
-0.0292874,0.0272585
0.0237671,0.0192562
0.0636236,0.00722082
0.0706737,0.0116546
0.0575332,0.0215761
0.0280215,0.0239927
0.00257574,0.0160546
-0.0166408,0.0150149
-0.0231568,0.0140855
-0.0130219,-0.00135431
-0.0074984,-0.0037437
-0.0151793,0.00576024
-0.0267194,-0.00283509
-0.0267955,-0.00506527
-0.0142882,-0.00564452
-0.00556415,0.00263373
-0.00306447,0.0131092
0.000681885,0.0100175
0.00352617,-0.00279262
-0.000226559,-0.0164444
0.00807095,-0.0117972
0.0152663,-0.00746591
0.00593924,-0.0165428
-0.00807236,-0.0154759
-0.0169436,-0.00929272
-0.0135834,-0.00663109
-0.00500811,-0.00867383
-0.00766217,-0.0174655
-0.0113524,-0.0227962
-0.0101989,-0.01157
-0.0178872,0.0238469
-0.0173925,0.0200426
-0.0050641,0.00729936
0.0130327,0.00128581
0.017857,-0.00203638
0.0200413,0.0043488
0.0287545,-0.0039495
0.0311078,0.00223488
0.0186692,-0.00851032
0.00396758,-0.0105845
-0.00547664,6.47e-05
-0.00678911,0.00645438
-0.0084525,-0.00166809
-0.00851071,-0.0124594
-0.0117077,-0.00600694
-0.00454928,0.00102293
-0.0103043,0.00339318
-0.0112856,0.00936595
0.00286783,0.0122698
0.0173319,0.00946412
0.0151147,0.00677169
0.011125,-0.00293226
0.00266707,-0.0136349
0.00232555,-0.0123797
0.00334048,-0.00390442
0.00805659,-0.00208404
0.00318487,-0.00394443
-0.0138672,-0.00313893
-0.00857237,0.0182387
0.0119667,-0.017423
0.019275,-0.0401741
0.0215509,0.000750946
0.0174687,-0.00279275
0.00325741,0.0113378
-0.0112514,0.036761
-0.0276437,0.0355541
-0.0291064,0.0167231
-0.00976086,-0.00702977
0.00556948,-0.0204207
-0.00408517,-0.0183264
-0.0187809,-0.020942
-0.0156946,-0.00150881
-0.00937612,0.00452525
-0.00741625,-0.00742472
-0.00810944,0.0174215
-0.0178866,0.024761
-0.0207385,-0.00540718
-0.0172137,-0.00569552
-0.00622021,0.00128971
-0.00775295,0.00999537
-0.0162576,0.0174966
-0.0143101,0.018795
0.0188816,0.0142953
0.0293592,0.0146993
0.0155727,0.00943376
0.0421815,-0.0116591
0.0718533,-0.0147776
0.0675265,-0.00899226
0.0229052,-0.00944482
0.00409212,-0.00777355
0.00407597,-0.0023414
-0.00376852,0.000218418
-0.0247467,-0.00991499
-0.0246613,-0.0230751
-0.00358304,-0.0160045
-0.00593683,-0.00184814
-0.0123951,0.002124
-0.00289243,0.0102385
-0.00715272,-0.00387488
-0.00995027,-0.00756213
-0.00810303,0.00478494
-0.00408616,0.00225498
0.00336324,-0.0120669
0.0105883,-0.0157094
0.00360801,-0.0082046
-0.00639704,0.00521724
-0.0205478,0.0143195
-0.0249377,0.0103729
-0.030658,0.0095366
-0.0219122,0.00337832
0.00103879,-0.0041865
0.0189597,0.0038926
0.0318329,0.000296497
0.0316605,0.00212063
0.00195649,0.0109076
-0.0114524,0.0154012
-0.0590171,0.00765912
-0.0894687,0.00633405
-0.053263,-0.00286632
0.00611702,-0.00598981
0.0501938,0.000359045
0.0669198,0.000597394
0.0615551,0.00190359
0.0390384,0.00918889
-0.00124676,-0.000652823
-0.026754,-0.0107673
0.00293919,-0.00451962
0.0322023,-0.00272179
0.0245053,-0.0047434
0.00830151,-0.0110136
0.0014026,0.000396021
-0.010462,0.0106817
-0.0136158,0.00194645
-0.00421096,0.00250191
-0.00096925,-0.0048171
-0.00192044,-0.0170464
0.00555202,-0.00867508
0.00454327,0.00104714
-0.00689117,-0.00283545
-0.0102438,0.00200679
-0.0141741,0.0211294
-0.0116357,0.0193153
-0.00952836,0.0035182
-0.0170277,-0.00948438
-0.0129571,-0.00752822
0.000514312,-0.00897381
0.0120483,0.00287691
0.0148074,0.00477347
0.0228381,0.00750234
0.0233158,0.011392
0.0155779,0.00141445
0.00569409,-0.0282379
0.00531432,-0.0207248
0.00628569,-0.00333404
0.0055941,0.00498208
0.0040672,0.00695444
-0.00507113,-0.00406727
-0.01429,-0.00442211
0.00024673,0.0128164
0.00308293,0.00698748
-0.0147162,0.00731404
-0.0603934,0.0014731
-0.0901193,-0.00918546
-0.0962065,-0.00413687
-0.0877323,0.00293857
-0.0485826,0.0156171
0.0229399,0.0143704
0.045454,-0.00231852
0.0359197,-0.0272397
0.0440927,-0.0252669
0.0527333,-0.0120237
0.0354635,-0.000706379
0.0503266,0.00446879
0.0630936,0.00672494
0.0480896,0.00579519
0.0351306,0.00952719
0.0285959,-0.000103613
0.0198402,-0.00525592
-0.00447848,0.00575479
-0.0242759,0.00633298
-0.031274,0.0033717
-0.0369292,0.00967479
-0.0158028,0.0171451
0.0293471,0.014219
0.0254049,-0.00413127
-0.0130385,-0.00869057
-0.0162798,-0.0139021
-0.018861,-0.00580922
-0.0255313,-0.00104795
-0.023264,0.00160277
-0.0158171,0.00556341
-0.00272764,0.00962255
0.0116022,0.00282367
0.0192009,-0.0107979
0.0151712,-0.00856705
0.012965,-0.00260627
0.0144786,0.00326483
0.0128625,0.00481938
0.00653217,0.00110976
0.00375477,-4.23e-05
5.63e-05,0.00270312
-0.00265834,-0.00304441
-0.000276798,-0.0111018
-0.00200524,-0.0166543
-0.00538905,-0.0130118
-0.0235707,-0.00742109
-0.0901462,0.00498305
-0.112522,0.0182628
-0.0673417,0.0250721
-0.0152704,0.00686721
0.0362681,-0.00152724
0.0603126,0.00480327
0.0614967,0.00446635
0.0469499,0.00440562
0.0473432,-0.00261208
0.0517446,0.000318374
0.0168178,-0.00343027
-0.022932,0.002928
-0.0386338,-0.002371
-0.00854829,-0.0176597
-0.00721449,-0.0032239
-0.0304415,0.00557497
-0.0192404,-0.00903332
0.00136284,-0.00275134
-0.011878,0.00537609
-0.00781592,-0.000228908
0.021652,-0.0166734
0.035769,-0.0119021
0.0269661,-0.00114804
0.0209837,0.00130859
0.0138601,0.00923457
0.0069274,0.0148581
0.00918233,0.012201
0.00333396,0.00541139
-0.00487587,-0.03245
0.00282791,-0.0292212
0.00383046,0.00692253
-0.0156039,0.0155224
-0.0281658,0.0155076
-0.0278863,0.0131777
-0.0138966,0.0104252
0.00967423,0.00930705
0.0151997,0.0017487
0.0106057,-0.0208075
0.00341158,-0.0171894
-0.00208826,-0.00636918
0.00122156,-0.00466758
-0.000190942,0.00249963
-0.00942954,0.00936557
-0.0105034,0.00466823
-0.00395432,-0.00164006
0.00165976,-0.0116765
-0.0012055,-0.0126931
-0.0118801,-0.00370391
-0.0278666,0.0220622
-0.0518254,0.0259117
-0.0472216,0.0194219
-0.0389764,0.00161731
-0.0154218,-0.0205264
0.0408834,-0.0145304
0.089392,-0.0281455
0.0890829,-0.00179184
0.0573436,0.0155912
0.000972698,0.0050667
-0.061373,0.00645497
-0.091044,-0.00355423
-0.0538311,-0.0019654
0.014618,0.00581578
0.0576511,0.0043576
0.0907841,-0.00797529
0.0725681,-0.0159521
0.0267378,-0.00425715
0.00638846,0.0123537
0.00183709,-0.0034011
0.00744226,-0.0252727
0.000470554,-0.0151934
-0.0113636,-0.00718833
-0.0214818,-0.00788015
-0.031568,-0.00169727
-0.0331355,0.0177353
-0.0296328,0.0344916
-0.0285022,0.0293933
-0.0241358,0.0172039
-0.0190195,0.0146584
-0.00470119,0.0119675
0.012817,0.00288508
0.0109797,0.000332938
0.00396699,0.0059598
0.00308195,0.00830658
0.00100312,0.00335593
-0.00432858,0.00849193
-1.99e-05,-0.00842597
0.00659011,0.000195455
0.00421437,0.00046152
-0.0180743,-0.00786173
-0.0297208,-0.00521704
-0.0499633,-0.0146651
-0.0575643,-0.0112952
-0.0183407,0.00707721
0.0179013,0.00379955
0.0398247,0.00279623
0.045457,-0.00960137
0.0391318,-0.0233659
-0.0198089,-0.021012
-0.0527514,-0.00764006
-0.026196,-0.00156542
0.0123932,0.002748
0.0392881,0.013048
0.0738643,0.013591
0.0799947,0.00461685
0.035968,-0.00198901
0.0140171,-0.000119095
-0.000277814,-0.00810997
-0.0152463,-0.00447488
-0.0135517,0.00468143
-0.00235408,0.00320905
-0.00148177,-0.00334644
-0.00413657,-0.00137298
0.000546837,-0.00277906
0.000223897,-0.010242
-0.00682695,-0.00666886
-0.0101146,-0.0041352
-0.0160002,-0.00604665
-0.0337791,0.00157949
-0.0373357,0.0107236
-0.0144121,0.00571523
0.0212187,-0.00607692
0.0351965,-0.0100667
0.0236248,-0.00225298
0.00401536,0.000654018
-0.000527778,0.00373152
-0.00301049,0.0101338
-0.00674002,0.00841757
0.00493285,0.000233667
0.0124909,-0.0023241
0.0125942,-0.0086654
0.0066198,-0.0132584
-0.00580516,-0.00556919
-0.0137565,-0.00561072
-0.0126433,-0.00352342
-0.00688151,0.0223985
-0.0146227,0.0165228
-0.0630643,-0.00576029
-0.112884,-0.0132067
-0.145791,-0.0351292
-0.14261,-0.00706627
-0.0371271,0.0208373
0.0868145,0.0169565
0.16139,0.0121231
0.172794,0.000803526
0.102569,0.00965272
0.0468545,0.00449853
0.0302509,-0.0118444
0.0124594,-0.00883849
-0.00662263,0.00588023
-0.0161612,0.00999694
-0.0135421,0.00950725
-0.00937249,0.01085
0.00339929,0.0112501
0.0175218,-0.0030694
0.0142087,-0.0169394
0.00542896,-0.0109429
0.000332032,-0.00653371
-0.00439188,0.00165637
-0.0195104,0.00639663
-0.0258484,0.00197749
-0.0175872,0.00152475
-0.0140711,0.00375557
-0.0123962,-0.0046144
-0.0123116,-0.0158817
-0.0106577,-0.00956528
-0.00697142,0.00800663
0.0017687,0.0113067
0.00442672,0.0108614
0.00251988,0.0147509
-0.000383086,0.0103264
0.000608752,-0.00429205
-0.00287857,-0.00835893
-0.0122725,-0.0033812
-0.0114572,-0.0053961
-0.00748065,0.0016577
-0.000100589,0.00963865
0.00228822,0.00781494
-0.00884593,-0.00296754
-0.022754,-0.00283854
-0.0186935,-0.00650569
-0.00542478,-0.0132659
0.0173852,0.00316242
0.0143986,-0.00470221
0.0139695,0.0117227
0.00416477,0.0168114
-0.0186637,-0.006917
-0.0162558,-0.016626
-0.00399798,-0.025746
0.00554051,-0.017156
0.024745,0.0045265
0.0320088,0.00462874
0.0155935,0.00693655
-0.00223999,0.0148944
-0.00798024,0.00553976
-0.00508772,0.00366407
-0.00202768,-0.000540885
0.00112402,-0.0112377
-0.000929953,-0.00863671
-0.00302383,0.00298472
0.000566895,0.00348118
0.00418329,0.00618131
0.00640965,0.0111509
0.00871384,0.0115376
0.00789213,-0.00185512
0.00814672,-0.0138291
0.0117388,-0.00234291
0.0106215,0.00176792
0.0100159,0.0023839
0.00667653,0.00307266
-0.0115628,-0.00465493
-0.0268856,-0.00357656
-0.0397609,0.0093224
-0.0334352,-0.00476024
-0.014306,-0.0162883
-0.000179383,-0.00497981
0.0128818,0.0139264
0.0213446,0.0205914
-0.00292837,0.00697066
-0.0369919,0.0165091
-0.0444984,0.0219172
0.0056749,-0.0221279
0.067973,-0.0270555
0.0762438,-0.0279331
0.00572069,-0.0227718
-0.0662333,0.011496
-0.0601478,0.0171079
-0.0308596,0.00346487
0.00253247,-0.0016315
0.027404,0.00422838
0.0421688,-0.00543131
0.0239845,-0.0126562
-0.00357613,0.00907292
0.00774968,0.00962449
0.0458048,0.00125729
0.0498558,0.00295821
0.0269166,-0.00545317
0.0139414,-0.0121282
0.00451571,-0.00518908
-0.0214152,-0.0289526
-0.0409791,-0.0150895
-0.0383117,0.0112658
-0.0294875,0.0184103
-0.0287846,0.0192671
-0.0174688,0.0278447
-0.00293772,0.00721375
0.0191048,-0.0129328
0.0256007,-0.0201623
0.0212146,-0.0139359
0.00282184,0.00420719
-0.0202246,0.0123283
-0.0188538,0.0146161
-0.014266,0.0127569
0.0014524,0.0164138
0.0253979,0.00761726
0.0314589,-0.01117
0.0342803,-0.00949513
0.0241343,-0.00525591
0.0175159,-0.00437186
0.00901292,0.000513905
-0.0039843,0.00133635
-0.018615,0.000403496
-0.0478201,-0.000590223
-0.0679366,-0.0117576
-0.0356291,-0.0169754
0.00255637,-0.00352206
0.0272578,0.00190281
0.0214763,0.00363109
-0.00165227,0.0206955
-0.0127132,0.0235276
-0.00236558,0.0134373
0.00267827,-0.000170102
0.0117688,-0.00944172
0.0301537,-0.0148566
0.0234432,-0.0185257
0.00467946,-0.00716406
-0.00199765,0.00496859
-0.00174816,0.00754469
-0.00840908,0.00754403
-0.00789735,-0.00859695
-0.00338592,-0.0183062
-0.0219078,-0.0190762
-0.0496163,-0.0281743
-0.0577393,0.00299271
-0.0232756,0.0245501
0.0208822,0.0277778
0.0466676,0.0323089
0.0457928,0.0138516
0.0386393,-0.0143657
0.0290796,-0.0157492
0.023032,-0.0118369
0.0190936,-0.0127168
0.00139388,0.00185788
-0.0213569,0.0071311
-0.0179427,0.00705112
-0.00712724,0.00408962
-0.00401055,-0.002998
0.00398822,-0.0116905
0.00307795,-0.00909857
-0.00571977,0.00625106
-0.00980399,0.0158903
-0.0363229,0.00606382
-0.0859925,-0.000821881
-0.0726724,0.0150065
-0.0281631,-0.00319671
0.019631,-0.0159443
0.0567797,0.00655931
0.0628048,0.00565811
0.0345256,-5.86e-05
0.000410143,-0.00642376
-0.0178903,0.00258652
-0.0204804,-0.00477326
-0.0116554,-0.0113552
0.0036454,-0.0175495
0.0196897,-0.0036677
0.0204684,0.00730912
0.00455334,0.0115253
0.00201896,0.00281492
0.0224374,0.00379089
0.0166336,0.0066378
0.0118226,0.0153194
0.0119234,0.00266681
0.00477442,-0.0263155
-0.0127462,-0.00765844
-0.0110934,0.00195515
0.00263898,-0.00301873
-0.000506794,0.00120735
-0.00572652,0.00402679
0.000535466,0.00141176
0.011504,-0.00128287
0.0183063,-0.00806932
0.016638,-0.0127319
0.0056512,-0.0101805
-0.00065354,0.000997042
-0.0124443,0.00334218
-0.00176513,0.0122998
0.00142573,0.0110416
-0.00733854,-0.00781639
-0.00209578,-0.0192605
0.00429684,-0.0215907
0.00547902,-0.0181282
-0.00342455,-0.0120886
-0.0114743,-0.00338111
-0.0155666,0.00851769
-0.0104914,0.0159974
-0.019768,0.0259855
-0.0384911,0.0191982
-0.0268368,0.00636875
-0.00147017,0.0106305
0.0034923,0.0210784
0.0106532,0.0210669
0.0239164,0.019669
0.0245886,0.0263283
0.00688849,0.0298138
-0.0140339,0.00779712
-0.0339943,-0.0152163
-0.0340751,-0.0168045
-0.0238187,-0.0107228
-0.0213042,-0.00105208
-0.0235071,0.000153065
-0.0152163,0.00621426
-0.00619062,-0.025785
0.0201082,-0.0229509
0.047374,-0.0123336
0.0535623,-0.0325718
0.0333835,-0.0271624
0.00848193,0.00989663
0.0102241,0.0143489
0.00917958,0.0127868
-0.00042084,0.0190457
-0.0102836,0.00645422
-0.0151261,-0.00504869
-0.01306,-0.0109908
-0.00511803,-0.00924409
0.012558,-0.0143589
0.0187735,-0.0123212
0.0274462,0.00505156
0.0253085,0.0216223
0.00794397,0.0109606
0.00646172,0.00261398
0.00659714,-0.0151129
-0.00228432,-0.0207522
-0.0128321,-0.00830202
-0.00788746,-0.000826832
0.00739039,0.0112467
0.00566829,0.0172167
-0.000838288,-0.00187218
-0.0318057,-0.00108726
-0.0950547,-0.0128585
-0.0981258,-0.0123562
-0.0571259,-0.00506973
0.00454253,-0.00597742
0.0600147,0.00724017
0.0855322,0.00678241
0.0797942,-0.00535704
0.0534263,0.0166505
0.0431877,0.0115424
0.0376081,0.0011609
0.0108842,0.00027113
-0.0282235,0.00951089
-0.0476774,0.00385927
-0.0486191,0.00306118
-0.0378448,0.0124785
-0.020724,0.0105312
0.0107083,-0.0157425
0.0401419,-0.0334193
0.0393508,-0.017466
0.0144632,-0.00507909
-0.00546228,-9.71e-06
-0.0186713,-0.00168763
-0.00501474,0.00446392
-0.00342663,0.00786524
-0.0205496,0.00892886
-0.0215943,-0.0210874
-0.00813136,-0.00504816
-0.0063603,0.0242683
-0.0101751,0.00801961
0.000748587,-0.00523522
0.00413322,0.00414311
0.0100296,0.0136682
0.00415143,0.011157
-0.0127881,-0.00417448
-0.0141134,-0.0135406
-0.00129245,-0.0107416
0.0166343,-0.00546123
0.026444,0.000627613
0.0196,0.00426205
0.00179648,0.00864081
-0.00567665,0.00790934
-0.00552046,0.00363286
-0.00298767,-0.0118566
0.00279628,-0.0181258
0.00823816,-0.00674191
0.00514081,0.00761458
0.00302475,0.00426479
0.00586685,0.0166245
-0.00155937,0.0310878
-0.0299856,0.0222432
-0.0486082,-0.00671169
-0.0757696,-0.0175373
-0.109109,-0.0142625
-0.0891912,-0.0217323
0.016821,0.00367031
0.0848917,0.0231732
0.0752447,0.0174864
0.0681794,0.00499541
0.0522141,-0.00109852
0.0246969,-0.0126818
-0.0023148,-0.00243345
-0.0109428,0.00536172
0.00516279,-0.00205079
0.0171655,-0.00402396
0.0269908,-0.00423421
0.0317143,-0.000529359
0.0226006,-0.00953192
0.0163071,-0.0208888
0.0206097,-0.00606883
0.0111566,0.00112757
-0.00269187,-0.00173024
-0.0210126,0.00977647
-0.0438616,0.0188142
-0.0408755,-0.00257553
-0.0796745,-0.00401946
-0.146152,-0.0119789
-0.116561,-0.0235796
-0.0105506,-0.0133203
0.073216,0.00536367
0.0908746,0.0087463
0.0787525,0.0100592
0.0569502,0.0172327
0.029224,0.012754
0.0279837,-0.00346443
0.0333074,-0.0121668
0.0283817,0.00657689
0.0239576,0.00499882
0.0110734,0.000105447
-0.00545077,-0.00413318
-0.0166219,-0.000651292
-0.0222312,0.00844536
-0.0456447,-0.0211081
-0.0420563,-0.0205532
-0.0265378,-0.0137491
-0.0219414,0.00922801
-0.00808545,0.00867329
0.0153262,9.95e-05
0.0189967,0.0108399
0.0154218,0.0160145
0.0116659,0.00965502
0.0083226,-0.0210619
0.00789321,-0.0147078
0.0113671,0.00308604
0.0101286,0.00158103
0.00121204,0.00877037
-0.0104698,0.00815237
-0.0115163,0.00126858
-0.00430953,0.00425583
-0.00128483,0.00343167
0.000489053,6.69e-05
-0.00706555,-0.00916403
-0.0207407,0.000425014
-0.0195657,0.00192933
-0.010878,0.00319605
-0.0128848,0.0112225
-0.0218979,0.01082
-0.0239425,-0.00250014
-0.0104528,-0.0133078
0.0124992,-0.00506784
0.0180088,-0.0093143
0.0200579,-0.00425489
0.0250043,0.0129732
0.0164607,0.0192984
0.0112757,0.000375607
-0.00544811,-0.0196333
-0.0439296,0.00114344
-0.0497744,0.0059888
-0.0229853,0.00707607
0.0105215,-0.00244553
0.0235232,-0.0144444
0.0436505,0.0128753
0.0439153,0.0136997
0.0113163,-0.000863228
-0.0236403,-0.0103819
-0.0162856,-0.00886264
0.00703851,0.0011432
0.0312429,-0.000661962
0.0391436,-0.00126553
0.019141,0.00971392
-0.00125995,0.0171999
-0.0102777,0.0114493
-0.00793017,0.00393842
0.00351498,-0.0120558
0.016985,-0.0244402
0.0136599,-0.0154245
0.0109173,0.00139624
0.00908702,0.00512476
-0.0158927,0.00927242
-0.0397036,0.00753
-0.0315841,0.00348191
-0.0117082,-0.00761654
-0.0067076,-0.00795502
-0.00931833,-0.00253741
-0.0255612,-0.000306979
-0.0422523,0.0101105
-0.0381298,0.0154103
-0.0122718,0.00944779
0.0120134,-0.00309911
0.0236985,-0.0090674
0.0244216,-0.0161114
0.0183953,-0.0233542
0.0106347,-0.00768408
0.00507785,0.00392051
0.0121629,0.00362012
0.0234047,0.00118578
0.0134231,-0.000114416
0.00233514,-0.00814965
0.00784991,-0.0121328
0.016692,0.00250168
0.0115328,0.00127411
-0.00193365,0.00314143
-0.00730968,0.0101823
-0.0252698,0.0126591
-0.0482766,0.0111902
-0.025301,0.00699614
0.0277576,-0.00484676
0.0539339,-0.0150085
0.0216361,-0.0104129
-0.014868,-0.0018115
-0.0276804,0.00573917
-0.0177026,0.00905646
5e-05,0.00682097
0.0109664,0.0117657
0.00380973,-0.000594638
-0.0523643,-0.00226261
-0.0865949,0.00477294
-0.0620653,-0.00414337
-0.040731,-0.0115594
0.00741135,-0.000995675
0.0595598,0.00702787
0.0853606,0.00356975
0.0718913,0.0118778
0.0592145,-0.0187695
0.0515934,-0.0530329
0.0275366,-0.00338096
0.00918076,0.0260471
-0.0240917,0.00935368
-0.0513582,0.00332449
-0.0473091,0.0111416
-0.0112815,0.0045601
0.0194029,-0.0117874
0.0393358,-0.0124346
0.0338836,-0.0051302
0.00612274,-0.000655461
-0.0130162,0.00866071
-0.014384,0.0125759
-0.0103143,0.0127065
-0.00926182,0.00961388
-0.00486583,-0.0021353
0.00268389,-0.0125148
-0.0033156,-0.017119
-0.0176848,-0.00728956
-0.0197486,0.00829991
-0.019018,0.0115632
-0.0188502,0.0129729
-0.014036,0.0128903
0.0175739,-0.0437547
0.030484,-0.0203778
0.0240436,-0.00376747
0.0128868,0.00130071
0.00431397,0.0115183
-0.00784659,0.0238884
-0.0532744,0.0172369
-0.0782513,0.0287521
-0.0547524,0.0206005
-0.0142703,-0.000631817
0.0145907,0.00934928
0.02091,0.0147302
0.0377107,0.00424183
0.0428489,-0.00902813
0.026035,-0.0185827
0.0129135,-0.017797
0.017014,-0.0219721
0.0195839,-0.0286466
0.0077371,-0.0169214
0.00308055,-0.00955822
0.00299161,-0.00310242
-0.000681754,0.00759291
-0.0110532,0.0120324
-0.00898878,0.0129372
0.00284513,0.0113625
0.00711452,-0.00584063
0.00770169,-0.0144997
-0.000998136,-0.00334546
-0.0111092,0.00212258
-0.0142773,-0.00741978
-0.0105427,-0.0148038
-0.00404722,-0.0117575
0.000691945,-0.0166878
0.0079821,-0.0322112
0.00634368,-0.0319583
0.000875802,-0.00699402
0.00348941,0.0148758
-0.00298338,0.0276125
-0.0182732,0.0242401
-0.02958,0.0506167
-0.0256913,0.0636297
-0.013548,0.0391609
0.00556921,0.00189677
0.0120342,-0.00165408
0.00891405,0.0100467
-9.15e-06,0.0122705
-0.00969092,0.00498446
-0.00791927,-0.000496218
-0.000808807,-0.00644337
0.000393911,-0.017074
0.0119109,-0.0321099
0.0178344,-0.0266391
0.013714,-0.0221418
0.00191102,-0.0140329
0.00658334,0.0115755
0.0128448,0.016567
0.0095615,0.0139289
0.00240074,0.0146918
0.00165797,0.00532189
0.001759,-0.00867253
-0.000270919,-0.00861949
-0.00503214,-0.000790515
-0.00385054,-0.00233403
-0.00343897,-0.00359182
-0.002916,0.000202
-0.000923525,-0.00294627
0.0100622,-0.0150796
0.0172707,-0.0232666
0.0182323,-0.014087
0.0152933,-0.0106593
0.00766819,-0.00619421
-0.000201714,-0.00244978
-0.00484558,0.0166351
-0.00614674,0.0245801
-0.0131618,0.0156731
-0.0646611,-0.00279219
-0.100862,-0.0114819
-0.0710181,-0.00289193
-0.0192347,0.0060858
0.0215874,0.00439749
0.055975,0.00123592
0.0675479,-0.0058024
0.0394342,-0.009441
0.0137772,-0.0147446
0.00105401,-0.0169058
0.00723518,-0.0103688
0.0248813,0.00295084
0.0284061,0.0127306
0.0158091,0.0187804
0.00785755,0.0177394
0.00184388,0.00913838
0.00265147,0.0037488
0.00272099,-0.00634925
-0.00142325,-0.00814793
-0.0109236,0.00127812
-0.0143173,0.00304165
-0.0150286,-0.00270249
-0.0155276,0.00140975
-0.0135658,0.003263
-0.00705838,-0.0073916
-0.00354392,-0.0206803
-0.00172212,-0.018343
0.00380004,-0.00809304
0.00780708,0.000459184
0.00710901,0.00828578
0.00140463,0.0148585
-0.00363953,0.00789586
-0.00808706,0.0067234
-0.00110996,0.00957458
0.0161454,-0.00304705
0.0149973,-0.00530239
-0.00115299,0.000717663
-0.00771238,-0.00130035
-0.00302528,0.00024656
-0.00719822,0.0063781
-0.0145613,0.00750406
-0.0105653,-0.00404169
-0.0121036,-0.0110577
-0.0234581,-0.00351553
-0.021414,0.0010505
0.00392236,0.00603158
0.0265319,0.0133206
0.0170332,0.0139242
7.56e-05,0.0076463
-0.00884781,0.00226158
-0.0178504,-0.017961
-0.0261817,-0.0211547
-0.0108044,-0.000858211
0.00204017,0.00926956
