Comp Ch 3,Comp Ch 4
0.000597577,0.00979638
-0.00913841,0.0572019
-0.0254353,0.0739699
-0.0874067,0.10179
-0.166874,0.102965
-0.146832,0.0478163
-0.0711357,-0.0600901
-0.00329699,-0.131139
0.0552934,-0.130474
0.0893138,-0.0916208
0.0855666,-0.05722
0.0579822,-0.0235331
-0.00268632,0.00431342
-0.0505718,0.0202421
-0.0572875,0.0147737
-0.0275705,0.0215727
0.0725502,0.0343316
0.126825,0.0220378
0.116022,-0.00831515
0.0696154,-0.0312353
0.0109667,-0.0269069
-0.00667736,-0.00724726
-0.00748555,0.0138087
-0.00279265,0.0207294
-0.00587995,0.0155431
-0.00332407,0.0328422
0.004576,0.0392471
0.000741384,0.00717165
-0.00250658,-0.0269564
-0.00173913,-0.0136776
-0.00781644,0.0119558
-0.00912876,0.0107487
-0.00874589,0.00398969
-0.014225,0.0107317
-0.0186921,-0.0060996
-0.0207312,-0.0298121
-0.0230696,-0.0296472
-0.0203769,-0.0113895
-0.0152481,0.00427711
-0.0162597,0.0167516
-0.00661005,0.00640574
-0.000126394,-0.0144186
0.0098592,-0.0121504
-0.00748165,-0.0203469
-0.0332354,-0.0173294
-0.0112004,0.00561441
-0.00747659,0.0394295
-0.0430909,0.0385361
-0.0488698,0.00563441
-0.0275796,-0.0285617
-0.0179327,-0.0304506
0.0235117,0.000658946
0.071126,0.000645044
0.0750873,0.0172841
0.062951,0.0238264
0.0374103,0.0165712
0.00294639,0.0151958
-0.0100931,0.00526723
-0.00745283,-0.0222603
-0.0128154,-0.0198589
-0.0288419,-0.00223128
-0.0382752,2.11e-05
-0.0306216,0.0155136
0.00313323,0.0311247
0.0541397,0.0172641
0.0678527,-0.0161923
0.0453589,-0.0304202
-0.0191422,-0.0219427
-0.150981,-0.015057
-0.193743,0.00679294
-0.0971693,0.0390164
0.0189399,0.0438368
0.0946469,0.0192465
0.118191,-0.00561576
0.131486,-0.0295424
0.0936147,-0.0389111
0.0288794,-0.0150135
-0.045207,0.00803462
-0.0697041,0.00138759
-0.0460926,0.0222718
-0.00803599,0.0220139
0.030139,-0.0151464
0.058552,-0.0376401
0.0523564,-0.0293876
0.0222429,-0.0123548
0.00395578,0.00267659
0.00857732,0.00648945
-0.00887528,0.00578445
-0.021975,0.00957857
0.00120404,0.0207029
0.0133846,0.00996954
0.00491385,-0.00998347
-0.0167679,-0.0143415
-0.0359526,-0.00205334
-0.0972855,0.0100339
-0.107428,0.0158961
-0.0630331,0.0242729
-0.00249676,0.0173141
0.0492913,-0.00854635
0.0734542,-0.02237
0.0563382,-0.0167068
0.0394172,-0.0140473
0.0375889,-0.00990311
0.0165224,-0.000602534
0.00417813,0.0059622
0.00477185,0.00925497
0.00294164,0.00800469
-0.008103,-0.00909369
-0.036704,-0.0234843
-0.0333703,-0.0166617
-0.00804919,0.00426113
-0.000323788,0.0227477
-0.0223966,0.0247126
-0.0358322,0.034922
-0.0221608,0.0104454
-0.017216,-0.0256569
-0.0252372,-0.0320755
-0.00760813,-0.0181216
0.0050907,-0.012683
0.0032281,-0.000976048
0.0163309,0.00863988
0.0293214,0.0216797
0.0219681,0.0172728
0.00808251,0.00532659
0.00536082,-0.0127171
0.0220592,-0.0135276
0.0426078,-0.00616861
0.0436861,0.00463785
0.0430527,0.0359784
0.0283676,0.046084
0.00839263,0.0323594
-0.0108432,-0.0122385
-0.0403558,-0.0329628
-0.0891862,-0.0399187
-0.10298,-0.0346829
-0.042875,-0.017247
0.0197624,-0.00234652
0.0243493,0.0101721
0.00862659,0.0112355
-0.00366531,0.0139838
0.0105543,0.00164682
0.019752,-0.0122232
0.0523518,0.00146809
0.054109,0.016727
-0.011189,0.0149911
-0.0673114,0.0144435
-0.115495,0.0136634
-0.103894,0.00605405
-0.0244041,-0.0109004
0.0537304,-0.0229339
0.09446,-0.0202981
0.103814,-0.0197042
0.0892565,-0.00580809
0.0290804,0.000439588
-0.0163919,-0.00381245
-0.0515428,0.00986876
-0.0704074,0.0132991
-0.0489017,-0.00262863
-0.0183806,-0.0151335
0.0200609,-0.0026383
0.0539691,0.0158661
0.0751273,0.0127995
0.0667756,0.00305824
0.0452203,0.0132501
0.0269875,0.0131391
-0.0024733,-0.013907
-0.0174671,-0.0241991
-0.0182608,-0.0185437
-0.0231709,-0.0134778
-0.0295083,0.00510495
-0.0357012,0.0195983
-0.0401269,0.0146413
-0.0358038,0.00132165
-0.0260095,-0.0140147
0.00196782,-0.0130049
0.0211906,-0.0169875
0.0132422,0.0198055
0.0114886,0.0190711
0.0379902,0.0136418
0.0578064,0.0278325
0.0342594,0.0289558
0.00205112,-0.000757824
-0.0110413,-0.0287402
-0.0515746,-0.0240588
-0.079045,-0.00938904
-0.0511936,-0.00436718
-0.0200992,0.00109211
0.00356994,0.00183437
-0.0310156,-0.00471013
-0.0491906,-0.00505107
0.00276883,-0.0100701
0.0127703,-0.0240321
0.029083,-0.0105669
0.0696387,0.0226921
0.0788407,0.0182519
0.0268927,0.0150657
-0.0276532,0.0140851
-0.080964,0.00138567
-0.106453,-0.00992318
-0.0869699,-0.0150949
-0.00420368,-0.0065112
0.078279,-0.00294709
0.100815,-0.000335007
0.0805372,0.00854431
0.0223064,0.0116677
0.00669466,0.0136056
0.0120005,0.00302331
-0.00914179,-0.00657376
-0.0350524,-0.0124756
-0.0299093,-0.00368267
0.0127638,0.0114528
0.0187967,0.00747232
0.00596197,0.0135652
-0.0101223,0.00669265
-0.0118211,-0.00102145
-0.00786257,-0.00112829
0.00828568,-0.0189583
0.0221478,-0.0204066
0.0192003,-0.012412
0.00163555,-0.00750801
-0.00482918,0.00757433
0.00434848,0.025007
0.00209745,0.0150978
-0.00535186,0.0016418
-0.0130054,-0.0139371
-0.00519479,-0.0291734
-0.00426783,-0.00458971
0.00230974,0.0134502
0.009957,0.00523687
0.0133434,0.0145345
-0.000354483,0.0268149
-0.00891087,0.0152323
-0.00434761,-0.0154276
0.00326121,-0.0262587
0.00794095,-0.0110721
0.00689269,-0.00361171
-0.0105641,0.0030845
-0.0260997,0.0163155
-0.0220184,0.00750312
-0.0168883,0.00308756
-0.012457,-0.0188206
-0.0152773,-0.0300442
-0.00600476,-0.0224626
0.0141631,0.00143941
0.021763,0.00944778
0.0163218,0.0149731
0.00885011,0.0301845
-0.0130914,0.0233307
-0.0222462,-0.011191
-0.012671,-0.0260534
0.00516779,-0.014593
0.0131519,-0.00748695
0.0183951,-0.00173324
0.01859,0.00811636
0.00456142,0.00662244
-0.00498454,0.00214715
-0.0132204,0.00921058
-0.00974884,-0.00887143
-0.0180523,-0.0294489
-0.0285805,-0.00633408
-0.0289868,-5.42e-05
-0.0260047,-0.00222332
0.00710179,0.008115
0.0161698,0.0119368
0.00960701,0.00498229
0.0115895,-0.00231924
0.040398,-0.00660041
0.0349481,-0.0036341
0.00716438,0.000372697
-0.00343998,0.00748303
0.00554145,0.0253111
0.01243,0.0403939
0.00641336,0.0214857
0.00920486,-0.0020971
0.00912898,-0.0184785
0.00403608,-0.0236403
-0.00828195,-0.00666198
-0.0255753,0.00266137
-0.0233291,0.00899462
0.00101613,0.0188709
0.00828603,0.0185796
0.0264776,0.00572659
0.0506924,-0.0159263
0.015222,-0.0196128
0.0010933,-0.0114098
-0.00218614,-0.00512431
-0.010714,0.00457891
-0.0216276,0.0106064
-0.0343578,0.0043365
-0.0371892,-0.00114447
-0.0364089,-0.0200505
-0.0215554,-0.0105836
0.000390277,-0.00570038
0.00518795,0.0120978
0.00180566,0.0235065
-0.00880584,-0.00019862
-0.00835859,0.00335619
-0.000121988,-0.0413741
-0.00178921,-0.0458467
0.00396997,-0.0329609
0.0222184,-0.0221551
0.0304845,-0.0183679
0.0134626,-0.00192911
0.0135222,0.0165849
0.0236426,0.0615467
0.00458262,0.0630134
-0.00143288,0.0286611
0.00287955,0.00959712
0.00104377,0.0103875
0.00499791,0.016732
0.0128432,0.00823467
0.0160352,0.00107299
-0.00838656,-0.000633589
-0.0214981,-0.0200532
-0.0225469,-0.0445751
-0.0762142,-0.051536
-0.0839016,-0.036844
-0.0331043,-0.0162399
0.0310552,0.00701173
0.0589898,0.0273326
0.0634726,0.0332063
0.0550849,0.0327489
0.0250196,0.0345041
-0.00083051,0.00478816
-0.025436,-0.0194346
-0.0393245,0.01202
-0.0355328,0.0147747
-0.0266114,0.00219089
-0.0210916,-0.00850576
0.0151394,0.000130019
0.0438727,-0.0153929
0.0435865,-0.0495785
0.0423522,-0.0428935
0.0142633,-0.0262483
-0.00317733,-0.0170728
-0.000890358,0.0101104
-0.00123731,0.0279684
-0.00172849,0.0298816
-0.0132193,0.0306868
-0.0213471,0.0199461
-0.0218168,-0.00377302
-0.0198182,-0.00454419
-0.0131391,0.00947744
-0.0142102,7.65e-05
-0.0139084,-0.00580429
-0.0122639,0.00197881
0.0117513,-0.00599298
0.0209846,-0.0172119
0.0253737,-0.0326573
0.0268495,-0.0240191
0.0327696,-0.0163079
0.0291804,-0.00233055
0.0155733,0.0148571
-0.0221696,0.020658
-0.054207,0.0173004
-0.0560435,0.0216746
-0.0314268,0.000917072
-0.00686995,-0.0101867
-0.00950232,0.00508492
0.0009244,0.0092631
0.0127061,0.00100278
0.00829889,0.0165298
0.0153286,0.0203172
0.013515,-0.00393221
0.013364,-0.030697
0.0161561,-0.0353502
0.00371469,-0.018447
0.0244829,-0.00617307
-0.00524821,-0.00221345
-0.0754985,0.00867664
-0.0539355,0.0304895
-0.0105228,0.0192151
0.0170563,0.0266769
0.0487065,0.0195567
0.0600182,-0.0029965
0.0410224,0.00483888
0.0125034,0.01506
0.00539162,0.0122673
0.00322524,0.00421634
0.00143993,-0.00703754
0.00121858,-0.00908881
0.008004,-0.0321129
0.00409054,-0.0331013
0.000404588,-0.0185063
-0.00417265,-0.00596729
-0.0118146,0.0045122
-0.0220305,0.00874814
-0.0229252,0.0177091
-0.0199899,0.0240305
-0.0148725,0.00915439
-0.00949867,-0.00435995
-0.00861565,-0.0219117
-0.00789845,-0.00496687
0.00159795,0.00887375
0.00688374,0.00678549
0.0102756,0.00934544
0.0126029,-0.000915918
0.0171134,-0.0474123
0.0240077,-0.0294047
0.0124499,-0.00924983
-0.00683441,-0.0118203
-0.0319466,0.000498773
-0.0462697,0.0160688
-0.047614,0.0332921
-0.03485,0.0212633
0.000434654,0.0173567
0.0212867,0.00919558
0.0243226,-0.00467591
0.0266457,0.00131519
0.0427459,-2.42e-05
0.0419041,-0.00401895
0.0246916,-0.00286515
0.00690841,0.0137677
-0.00838102,0.00540928
-0.0262169,-0.0207965
-0.0368492,-0.0295663
-0.033501,-0.0284928
-0.021214,-0.0267446
-0.00684339,-0.0050389
0.0125565,-0.00263976
0.046127,0.0376312
0.0551907,0.0363624
0.0417187,0.00289705
0.0207888,-0.0142084
-0.00193234,-0.00550045
-0.0282571,0.0127864
-0.0440903,0.0117311
-0.0380964,0.0066427
-0.015936,0.0102332
-0.00929496,0.0129036
-0.0177628,-0.00532698
-0.00597282,-0.0313712
0.00384383,-0.0295998
-0.00243045,-0.0186298
-0.0376692,-0.00975407
-0.0512038,0.00843194
-0.0355266,0.0213881
0.00562114,0.0143117
0.0417855,0.0124846
0.059153,0.0128298
0.0991109,0.00507759
0.118333,0.0290488
0.110909,0.0128523
0.089596,0.0104662
0.0486638,-0.0073869
-0.00979324,-0.0205998
-0.0766798,0.00689997
-0.10705,-0.0144644
-0.113343,-0.0358684
-0.13936,-0.0442996
-0.134302,-0.0301862
-0.0480023,0.00352347
-0.00466263,0.0104968
0.00923291,0.0213101
0.00276409,0.0165438
-0.00223077,0.015065
0.00213787,-0.00108732
0.00484517,-0.0177583
-0.000752788,-0.0078295
0.00394947,0.00929902
0.0182779,0.0215317
0.0283855,0.0119198
0.0362496,0.000180647
0.0454997,0.00158799
0.0607493,-0.0103858
0.0784276,-0.0305735
0.0661587,-0.00533792
0.0343394,-0.00464938
0.00387652,-0.0160875
-0.0268498,0.00874189
-0.042447,0.026736
-0.0220744,0.0382985
-0.00277538,0.0373546
-0.00166239,0.00373586
-0.00896192,-0.0254693
-0.0177827,-0.0166635
-0.038538,0.00672003
-0.0429057,0.0147013
-0.0272638,0.0114517
-0.00286489,-2.85e-05
0.0184545,-0.0222721
0.0357787,-0.030833
0.0319032,0.00450784
0.0601917,0.0687766
0.0753752,0.0404053
0.0341587,-0.0179323
-0.0161951,-0.0365186
-0.0559055,-0.0409741
-0.0745527,-0.0113244
-0.07087,-0.0159625
-0.0498729,-0.0426833
-0.0211749,0.00083513
0.0110433,0.00583875
0.0513846,0.0185823
0.0608153,0.0275906
0.0461255,0.0250999
0.0200258,0.028772
-0.0111612,0.015436
-0.0314785,-0.0272184
-0.0366919,-0.0444265
-0.0379345,-0.010408
-0.0252796,-0.0327167
-0.0112837,-0.0490226
-0.00248419,-0.00783545
0.00239726,0.0147702
-0.0179746,0.0360386
-0.0341023,0.0211118
0.0042849,-0.0117612
0.0565105,-0.0115771
0.0614637,0.0156405
0.0347848,0.0150883
0.00387122,0.0226982
-0.0269277,0.0403813
-0.0362015,0.00919373
-0.0337572,-0.0199102
-0.0425212,-0.0253485
-0.0061529,-0.0258655
0.107008,-0.0085802
0.196079,0.00924266
0.192094,0.00385927
0.14419,0.0213227
0.0557136,0.0319005
-0.0408236,0.0332303
-0.114232,0.0165405
-0.125812,-0.00429193
-0.166585,-0.0253209
-0.144806,-0.0202575
-0.0926191,-0.00618273
-0.0870866,0.0083752
-0.082547,0.0188015
-0.0612791,-0.00259657
-0.0256215,-0.0169693
7.66e-05,-0.0705711
0.0290802,-0.0588197
0.0646207,0.0300005
0.0623986,0.0170554
0.0314422,0.0249265
-0.00217645,0.0242697
-0.0302507,0.0178347
-0.0244048,0.0036359
-0.0074484,-0.0171962
0.00636429,-0.0134869
0.0271189,0.00487848
0.0381669,0.00322672
0.039748,-0.00400352
0.0478837,-4.73e-05
0.0764937,-0.0190332
0.0691402,-0.0315862
0.0506041,-0.000386311
0.0764036,0.0123796
0.0923561,-0.00137718
0.0438272,-0.00023019
-0.0263817,0.0234694
-0.111039,0.0237293
-0.135107,0.0146688
-0.092216,0.00826519
-0.0382126,-0.0181084
1.12e-05,-0.0315717
0.0359234,-0.0100617
0.0542299,0.0172731
0.034538,0.0425968
0.0252243,0.0693788
0.024269,0.0789875
0.00206074,0.0305037
-0.0184698,-0.0743216
-0.0814806,-0.10759
-0.131172,-0.0659008
-0.101707,-0.0250776
-0.0420441,0.0177705
0.00378465,0.0245569
0.0351766,0.0152741
0.0794143,0.0106126
0.0718078,-0.0115091
0.0297755,-0.0271191
0.0109239,-0.0155651
0.0164015,0.00141344
0.0217561,0.00636602
0.0355703,0.0198503
0.0432766,-0.00238328
0.0325607,0.00389004
0.0251563,0.0273889
0.0244282,0.0199586
0.0072019,-0.0126573
-0.0127573,-0.0122862
-0.0164038,0.000270015
-0.00649976,0.0191201
-0.00840012,0.0195582
-0.0343734,-0.0177637
-0.00532239,-0.0013069
0.0328197,-0.0139409
0.0249977,-0.0224625
-0.0248333,-0.0168238
-0.0858269,-0.0144784
-0.0930545,0.0159547
-0.070016,-0.0270793
-0.0391017,-0.0139368
-0.00442548,0.0288508
0.018534,0.0314405
0.0317044,0.00576906
0.0231185,-0.00127676
-0.00673696,-0.00110924
0.00272907,0.00349352
0.0617989,0.0220875
0.0773322,0.0377873
0.0604496,0.023627
0.0228481,0.000724326
-0.0216768,-0.0196271
-0.0340173,-0.0138426
-0.0303096,0.00137435
-0.0574325,0.0173547
-0.00496415,0.000491743
0.0852453,-0.00810524
0.0838941,0.0254314
0.0728925,0.0242439
0.0580739,-0.0270767
-0.00133487,-0.0671423
-0.0414968,-0.0334947
-0.0932837,-0.00934269
-0.13351,0.003305
-0.123911,0.0124004
-0.0837179,0.0247966
-0.0487279,0.0406097
-0.0268265,0.0180124
-0.01393,-0.0494241
-0.0049281,-0.0604426
0.0154686,-0.0221758
0.0365211,-0.00317174
0.0347058,-0.026068
0.0216624,-0.00762916
0.0279107,0.0158887
0.0581975,0.0173519
0.0749433,0.0109515
0.0906708,0.01022
0.0834863,0.00850897
0.0463452,0.0158262
0.0496631,0.0367977
0.0360382,0.0149076
-0.0449313,-0.0151259
-0.0747171,1.62e-05
-0.0667731,0.016556
-0.0740459,-0.020389
-0.0476673,-0.0236114
-0.0073017,-0.00232375
0.000728675,-0.00695354
-0.0055916,-0.00827615
-0.0150821,0.00739826
0.00610406,0.0269082
0.0302664,0.0188189
0.0291585,0.027989
-0.0011399,0.026117
-0.0328304,-0.0171359
-0.0375066,-0.0268262
-0.0291282,-0.00326997
-0.0225787,0.0101843
-0.0159819,0.0056275
0.000158882,0.0078161
0.0196169,-0.0220681
0.0241775,-0.0413495
0.0211877,0.00497853
0.0216107,-0.00474296
0.0513029,-0.0207563
0.0671825,-0.0159424
0.0448051,0.0173929
0.0191072,0.012696
0.0152195,-0.0243891
0.032842,-0.00474354
0.0493078,0.026227
0.0179801,0.0226932
-0.0458846,0.022667
-0.106353,0.0138832
-0.12389,0.0237262
-0.094048,0.00302613
-0.0603268,-0.00958048
-0.0214281,-0.0116202
0.00524852,-0.0177717
0.0216518,-0.0184322
0.0425584,-0.0133768
0.0498237,-0.0209852
0.0418343,0.00421417
0.0258948,0.0196123
0.0249436,0.0106277
0.0224951,-0.00539655
0.0129032,-0.0107785
-0.00269426,-0.002574
-0.0266655,-0.0105708
-0.0290444,0.00558087
0.000536513,0.0237359
0.022527,-0.00439675
0.0323901,-0.00729451
0.0389604,0.00384006
0.0303534,0.00891529
0.0117888,-0.00632321
-0.00512881,-0.00573203
-0.0327251,-0.00897888
-0.0620234,-0.0116783
-0.062143,-0.014404
-0.0436161,0.00753117
-0.0312906,0.0239075
-0.00565994,-0.00996627
0.0132381,-0.0344136
0.0217743,-0.0192086
0.022211,0.0443662
0.0138091,0.0584511
0.0110695,0.0391506
0.0195689,-0.00345115
0.0193322,-0.0138252
0.0175615,-0.0113239
0.0211345,-0.0235978
0.0128824,-0.0245947
0.00186417,-0.00979477
-0.0069614,-0.00480528
-0.0103957,-0.00788853
-0.0173277,0.00258492
-0.0182435,0.0158774
-0.0112202,-0.00327544
-0.00297324,-0.00553922
0.00030835,0.00688913
-0.000370406,0.00594681
-0.00073637,0.00743661
0.00165372,0.0142434
0.00545682,0.0152897
0.011589,0.00952556
0.0113959,0.00801127
0.0103339,-0.00990539
0.00829251,-0.0272353
0.00211336,-0.0205479
-0.0125511,-0.0214084
-0.0218768,-0.00652845
-0.015426,0.00118068
-0.00619343,-0.0048502
0.00342651,0.0373879
0.00848609,0.0201555
0.00796731,-0.00376643
0.00523446,-0.00520534
-0.00148437,-0.00480171
-0.00085243,0.0072969
0.00701381,0.0240065
0.0180568,0.0210586
0.0217396,0.010286
0.0104151,0.00113267
-0.0411957,-0.0261151
-0.0652069,-0.0319784
-0.0476259,-0.0143801
-0.0134397,-0.00542298
-0.00927245,-0.00832666
-0.00466992,-0.00514184
0.0320838,-0.00683222
0.0288056,-0.022143
-0.000591305,-0.00737972
-0.0190956,0.00369546
0.0158698,0.00585123
0.0570873,0.010651
0.0590655,0.041156
0.0344437,0.05477
0.033232,0.0474087
0.0243794,0.0226655
-0.00624879,-0.0474203
-0.0413259,-0.0669394
-0.045339,-0.0229362
-0.0302726,-0.00278826
-0.0334699,-0.0162641
-0.0413199,-0.00069123
-0.0242486,0.0165012
0.0136148,0.0142387
0.0282036,-0.00132865
0.0383741,-0.00829606
0.0304928,-0.00516675
0.00932206,-0.00917948
0.0172627,-0.00923846
0.0412056,-0.00191331
0.0375959,0.015289
0.033988,-0.0146276
0.00622778,-0.0384353
-0.0344868,-0.0285384
-0.0467026,0.0309196
-0.0617839,0.0425578
-0.0739559,0.0641595
-0.0643283,0.0680426
-0.0446735,-0.0119323
-0.0150063,-0.0501436
0.0149085,-0.00830246
0.0649292,-0.00336742
0.0204933,-0.00665068
-0.0502231,-0.00230427
-0.0570357,0.00442295
-0.0670716,-0.00553962
-0.0627789,0.00220479
-0.0543216,0.00496678
-0.00642619,-0.00652489
0.0346016,0.0014684
0.0517711,-0.0298627
0.08341,-0.0600135
0.113647,0.0143837
0.103118,-0.00778336
0.0771824,0.012771
0.0643218,0.0309615
0.0284853,0.00285269
-0.0219942,-0.0156114
-0.04889,-0.0138644
-0.0364974,0.00323061
-0.0194004,0.0209106
0.0154301,0.0233424
0.0433661,0.0239343
0.061898,0.019413
0.0381547,0.00556904
-0.00717118,0.00675482
-0.0447694,-0.00203697
-0.0541047,-0.0216542
-0.0482568,-0.0232555
-0.041543,-0.0135399
-0.0338378,-0.0055949
-0.0173798,0.00373851
-0.0158044,0.00929939
-0.0192537,0.00916109
-0.0141657,-0.00586629
-0.00783855,-0.00971114
-0.00418815,0.012166
0.0048337,0.00149065
0.00763627,-0.00837995
-3.86e-05,0.00655442
0.00327376,0.00998974
0.00822075,-0.00500943
0.0186808,0.000946151
0.0279689,-0.00502521
0.0196833,-0.0131335
0.00331078,-0.0129021
-0.0084018,-0.00664856
-0.00250794,0.00125094
0.0028948,-0.0161008
-0.00128911,0.0107327
-0.00108451,0.0234329
0.00178228,-0.0103838
0.00464673,-0.00575813
-0.00200933,0.00970068
-0.00259489,0.0119357
-0.00973805,0.00432827
-0.0182977,0.008986
-0.016002,0.0156265
-0.0032653,0.013094
0.00574921,-0.00638182
0.00682965,-0.0322953
0.0171905,-0.0284941
0.0169118,-0.00137307
0.0135973,0.00166946
0.00409338,-0.011024
-0.00826733,-0.00463366
-0.00840575,0.0148366
-0.00734593,0.00743514
-0.000552782,0.00583981
-0.00398764,0.0220335
-0.0019244,0.0236052
-0.00206047,0.0027742
-0.0122892,-0.0195081
-0.0118947,0.00769612
-0.0047562,0.0140685
0.00547871,0.00998748
0.00471451,0.0110567
0.0110454,-0.00509914
0.015128,-0.0116309
0.013162,-0.0149553
0.0152946,-0.0271363
0.00888642,-0.0234993
-0.000133698,-0.0139334
-0.00339257,0.00423055
-0.00348528,-0.00142257
-0.00364823,-0.0220555
-0.0036585,-0.00495372
-0.0102121,0.00535597
-0.0100996,0.00270669
-0.0163372,0.0220722
-0.0299239,0.0130197
-0.0223313,0.00489276
-0.00833785,0.00189831
0.0186864,0.0216111
0.0430377,0.0456233
0.048096,0.0371663
0.040612,-0.0211099
0.0172617,-0.0357039
-0.00752369,-0.0218745
-0.0191099,-0.00878359
-0.0111732,-0.00552861
-7.7e-05,-0.0248661
-0.0153872,-0.0247838
-0.0170849,-0.00728625
-0.0019341,-0.00656292
-0.00272671,0.00926974
-0.021269,0.016097
-0.0154551,0.00506531
-0.00592594,0.0020191
-0.00188505,0.0101382
-0.0207108,-0.00585258
-0.0679788,-0.0195225
-0.0738974,-0.0181791
-0.0349505,-0.0123055
0.0234901,-0.00420097
0.0650738,0.0202401
0.0793293,0.0372551
0.0627703,0.00900412
0.0321204,-0.0169525
0.0111523,0.00356534
-0.0105657,-0.00132231
-0.027512,-0.000517552
-0.0194783,0.0152158
-0.00653268,0.0309083
0.0151769,0.00946441
0.029858,-0.0158114
0.0334279,-0.0115575
0.0253149,0.0247238
-0.00211157,0.0306128
-0.0282237,0.0587498
-0.0269778,0.00358821
-0.0149407,-0.068699
-0.0103716,-0.0227712
-0.00882649,0.00352935
0.00281768,-0.00390512
0.00579526,-0.00953992
-0.00426611,-0.00118373
-0.0017567,-0.0103969
0.00114733,0.00970922
-0.00388835,0.0147646
0.00131378,0.0124448
0.0024689,-0.00208801
-0.000223543,-0.00211635
-0.000329307,-0.0226284
0.00143141,-0.0373176
0.00901676,-0.011991
0.00740301,-0.00362695
0.00378833,-0.00407284
-0.01498,-0.00483015
-0.032151,-0.0115647
-0.0285144,-0.00784125
-0.00311828,0.00979766
0.0114649,0.0110915
0.021704,0.0150564
0.0211798,0.0055789
0.0131683,0.0144909
0.00454699,0.0109315
-0.00229796,0.0214019
-0.0029859,0.0365552
0.00404491,0.0191103
0.0105986,0.00903969
0.0178347,-0.02883
-0.0121094,-0.0533743
-0.0266324,-0.0327339
-0.0154061,-0.00658636
-0.00250651,0.00614587
0.000666754,0.016891
-0.00814825,0.0154917
-0.0336327,0.00883552
-0.0445027,-0.0329743
-0.0637516,-0.00776326
-0.0601508,0.0252308
0.00357044,0.0365404
0.0944411,0.051925
0.129933,0.0277507
0.0907055,0.0112774
0.0213455,-0.0335282
-0.000273789,-0.057397
-0.00144766,-0.0480119
-0.00767325,-0.00893223
-0.00968049,0.0133439
-0.0218198,0.00836567
-0.0151194,0.00483968
-0.00669874,0.0164407
0.0110672,0.0021741
0.0200419,-0.022994
-0.0563672,-0.0149717
-0.154499,-0.00721331
-0.154719,0.000359175
-0.0473218,0.036632
0.0590311,0.0128012
0.11381,-0.0361509
0.131053,-0.00827962
0.0977992,0.000566353
0.0140835,-0.0432064
-0.0538474,-0.0613595
-0.0473049,-0.0353798
-0.020868,0.0236385
-0.00849157,0.0490938
0.0116748,0.0339074
0.0237228,0.00204065
0.0141924,0.00541238
0.0255029,0.0257697
0.0441587,0.0388923
0.020431,0.0218654
-0.0128412,0.00667238
-0.00104627,0.0174969
0.00721127,0.00245581
-0.00398078,-0.019091
0.00377949,0.00657323
0.00528921,-0.0383843
-0.00395823,-0.0544715
-0.0376213,0.011949
-0.0446858,0.00157773
0.000643974,-0.0488263
0.0505239,0.0199236
0.0262352,0.0180663
-0.0156339,-0.00922922
-0.0249943,-0.00281359
-0.0114756,0.0259481
-0.00249517,0.0337554
-0.00729129,0.0334107
0.0129706,0.0136231
-0.002196,-0.0230659
-0.0401032,-0.033046
-0.0821752,-0.00463541
-0.0977706,0.000764418
-0.0780976,-0.0106212
-0.0378904,0.0150516
0.0143795,0.00321539
0.0713297,-0.018396
0.0949181,-0.0156242
0.0599553,0.0020926
0.0539151,0.0100285
0.0699623,0.0115831
0.0746688,0.0210187
0.0565897,0.00692571
0.0623871,-0.021678
0.029016,-0.0267889
-0.0131649,0.0074255
-0.0211954,0.0344463
0.0055046,-0.0101312
0.0299379,-0.0628661
0.0530638,-0.0304666
0.0265708,-0.00498878
-0.0256894,0.00131887
-0.0685808,0.0170647
-0.173886,0.0635306
-0.332194,0.0476478
-0.367653,0.0143643
-0.234454,0.0782277
-0.0681349,0.0153686
0.0706781,-0.0433087
0.187545,0.00914159
0.232643,-0.0203511
0.150865,-0.0451385
-0.0375561,-0.0388621
-0.122826,-0.0150296
-0.100755,0.00765122
0.0335443,0.00542606
0.158591,-0.0216712
0.219156,-0.0488061
0.238836,-0.0411452
0.216106,-0.0399798
0.145546,0.0379685
0.0592159,0.0301579
0.0270781,0.00229496
0.0711138,-0.0321494
0.064722,0.0165133
0.0066439,0.0514006
-0.0253134,0.0281429
-0.0377787,0.0243795
-0.0827541,0.0200787
-0.121799,0.0180129
-0.177469,-0.000378993
-0.202776,-0.0105416
-0.177607,-0.0136566
-0.0654109,0.0125712
-0.0172395,0.00897125
-0.150543,0.00777509
-0.178809,-0.00708439
-0.093587,-0.0137837
0.0447287,-0.0383205
0.213893,-0.0166347
0.272178,0.0144802
0.177082,0.000513187
0.106343,0.0210561
0.0761145,0.0167715
0.0500752,0.0268619
0.017481,0.00571797
0.0245785,-0.0237687
-0.0490135,-0.0068631
-0.257509,-0.0160891
-0.427598,-0.00664124
-0.488715,-0.0232843
-0.279011,-0.014291
0.0250932,-0.0106441
0.252533,-0.020896
0.376186,0.0211306
0.385058,0.0392515
0.244377,0.0195834
0.0251206,-0.0235559
-0.061593,-0.0127638
-0.0245869,-0.00263895
0.0413653,-0.0302482
0.0651055,-0.0544238
0.0330904,0.0336877
0.0079999,0.0274241
0.0120296,0.0155568
0.0128247,-0.000600184
-0.015048,-0.012384
-0.0111418,0.00515675
0.011872,0.0130616
0.000142839,0.0375918
-0.022481,0.0417558
-0.0788281,-0.0297085
-0.07916,-0.0479729
-0.099453,-0.021091
-0.0850841,0.0478151
-0.0587784,0.00150562
-0.15514,-0.0636258
-0.205773,-0.0287454
-0.0308143,0.0335291
0.132206,0.0392078
0.236937,0.0219238
0.230229,0.00215611
0.135027,-0.000366851
0.0634184,-0.014603
0.0160677,-0.0260986
0.00942245,-0.0161753
0.0159144,-0.00363768
0.00866123,-0.00260208
-0.0174222,-0.0152996
-0.0383535,-0.0089269
-0.0516171,0.00715309
-0.0627476,-0.0101526
-0.0551285,-0.00439108
-0.0214982,0.018773
-0.00214962,0.0502989
-0.00464823,0.0388647
-0.0149261,0.0116001
0.00374382,0.00496387
0.0427462,0.024768
0.0522447,0.0114728
0.0393612,0.00283156
0.00564847,-0.0153074
-0.0218057,-0.0103459
-0.0195513,-0.00450686
-0.0231947,-0.0144195
-0.0353944,-0.00825183
-0.0360056,-0.00874162
-0.0347639,-0.0197314
-0.0262699,-0.0188579
-0.00719329,-0.000749518
0.018533,0.00756565
0.0433115,0.0104933
0.0450514,-0.00329474
0.0130266,0.0270075
0.0167897,0.0258953
0.0315897,-0.0187534
0.0251377,-0.0373837
0.0106711,-0.0148353
-0.0917026,0.0200342
-0.200341,-0.0193485
-0.238541,-0.00753164
-0.147559,0.0219159
0.0442928,0.0184506
0.118571,0.00373275
0.141704,0.0248011
0.0917206,0.00221214
-0.00898789,-0.0134509
-0.0334202,-0.0179865
-0.0320243,-0.017079
0.0165601,-0.015798
-0.0212756,0.00903107
-0.044255,0.0152622
0.0671149,0.0131848
0.179837,-0.00351661
0.175277,-0.0121676
0.0813222,-0.0106163
-0.0561356,-0.0114106
-0.130921,-0.00684239
-0.182342,-0.0090133
-0.162367,-0.0154887
-0.044845,-0.0296589
0.0788988,-0.0197633
0.125186,0.00518581
0.116329,0.0132095
0.0620494,0.0137837
0.00641188,0.0164209
0.0111802,0.0174271
0.050715,0.0120004
0.0473734,0.00844856
0.0289377,-0.00569742
0.0117619,-0.0186958
-0.0102108,-0.0134294
-0.0250947,-0.000648759
-0.0391453,0.00843942
-0.0349114,0.0135299
0.000517775,0.014347
0.0147319,0.0200417
-0.00637269,-0.00184826
-0.020876,-0.00468204
-0.0303029,0.0221976
-0.0462652,0.00929529
-0.0425083,0.00397433
-0.0274954,0.0315956
-0.0115375,0.0215305
0.0148704,0.00586343
0.0178357,-0.00324539
0.0161071,-0.0127518
0.0166422,-0.0171925
0.0167592,-0.0173168
0.024659,-0.0195396
0.0239378,0.0127589
0.0256376,0.0393287
-0.0124579,0.0306839
-0.0676817,-0.0337585
-0.0578618,-0.0493203
-0.0292307,-0.0619713
-0.00183615,-0.000954516
0.0157336,0.0180309
-0.00282792,0.0139115
-0.00716137,0.0104265
0.00856091,-0.00538725
0.0261265,-0.00455773
0.0300739,-0.0119491
0.0304639,-0.0759159
0.0280029,-0.0142795
0.00581221,0.0408556
-0.0160527,0.0188557
-0.0189745,-0.011578
-0.0111814,0.024973
-0.0136751,0.0379157
-0.0387204,-0.0120902
-0.0558616,-0.0386264
-0.027675,-0.0545459
0.00647829,0.00148202
0.00710819,0.0485747
0.00570078,0.0555705
-0.00537278,0.0254132
0.00482731,-0.0109595
0.0291549,-0.00149459
0.0356323,0.00599017
0.0313983,-0.0089213
0.0188272,-0.016743
0.0144771,-0.0116099
0.00460371,0.00742213
-0.00624658,0.0136249
-0.0101871,0.0252604
-0.00945608,0.0155074
-0.0229627,-0.0295246
-0.0131792,-0.0187618
-0.00203409,-0.0178337
-0.00415684,-0.0139992
-1.99e-05,-0.00448086
0.00154598,0.0136849
-0.00163474,0.0148982
-0.00281808,0.0140583
-0.000402868,0.0029177
0.00637512,-0.0151129
0.0281138,-0.0235984
0.0558953,-0.00481988
0.0479892,0.0135311
0.0370836,0.00553777
0.0169637,0.00831181
-0.0779833,0.0145344
-0.127937,0.00378498
-0.0880642,-0.0112071
-0.0286528,-0.00623837
0.0378293,0.0181505
0.0689051,0.0134013
0.0718167,0.00218892
0.0397641,0.00818986
0.0254432,0.0134056
0.0321112,0.0184485
0.00399374,0.00387933
-0.0299816,-0.0425112
-0.0545942,-0.0463389
-0.0440348,-0.00139116
-0.0388818,0.0236324
-0.0224283,0.0171728
0.0160134,0.021015
0.0260392,0.0142925
0.0265419,0.00756237
0.0359793,-0.000990931
0.0405037,-0.000368577
0.0331528,-0.00560079
0.00408059,-0.00266072
-0.0726967,-0.00372697
-0.0981235,-0.0111868
-0.0462265,-0.00442903
0.0196224,-0.00142682
0.0629984,-0.0381565
0.0728251,-0.0220065
0.0657672,-0.00232651
0.0414317,-0.00763521
-0.00908201,0.018669
-0.023187,0.00787384
-0.03899,-0.0112646
-0.0317485,-0.0259453
-0.00539214,-0.0449821
-0.00516232,-0.0319918
-0.00901754,0.0147197
0.00213592,0.0196211
0.00526073,0.017539
-0.00376243,0.0259751
-0.00610561,0.0309615
-0.00643434,0.0244886
-0.00515375,0.00965398
0.0048337,-0.00235654
0.0150611,0.000131736
0.000130288,0.00298491
-0.0138655,-0.000223988
-0.0585161,-0.000929686
-0.0768037,-0.00811693
-0.0443528,-0.00702402
-0.00633875,-0.0225391
0.0349412,-0.0242137
0.0673277,0.00600549
0.0238751,0.0170066
-0.00158255,0.0151139
-0.00208267,0.0281686
0.00368353,0.0192147
0.0284741,0.010237
0.0401917,0.0166654
0.0554607,0.0124658
0.0538799,0.000217085
0.0203229,0.0138664
-0.0283516,-0.000795454
-0.050428,-0.0158276
-0.0519449,-0.028668
-0.0670589,-0.0384308
-0.0476847,-0.0920051
-0.0181815,-0.100122
0.0384277,0.00208408
0.0516407,0.0479127
0.00315693,0.0344874
-0.0262114,0.0228756
-0.00396864,0.0318796
0.0154703,0.027624
0.00691256,0.0160507
-0.00141023,0.00550204
0.0143026,-0.00266639
0.0218145,-0.00481062
0.00531834,0.00275326
-0.000353147,0.00325734
0.00634698,-0.00737756
0.0053171,-0.0105786
-0.00245381,-0.00559798
-0.0291304,-3.43e-06
-0.103628,-0.0184354
-0.121654,-0.017029
-0.0558229,0.00477517
0.0275473,0.0120923
0.0779716,0.0142972
0.0863781,0.0226419
0.0756275,0.0184804
0.0484594,0.0133015
0.0189878,-0.00962866
0.0108959,-0.0282782
0.00291719,0.0134552
0.00492615,0.0179277
0.0361233,0.0193994
0.0443006,0.0143746
0.0265347,0.000547437
0.0122365,-0.000898303
0.00190901,-0.0145848
-0.0231458,-0.0168206
-0.0350102,-0.0108228
-0.0520461,-0.00570207
-0.0875999,0.00700209
-0.101417,0.0234618
-0.0695723,0.00403655
-0.0413233,0.0033042
0.011603,0.000794788
0.0684078,-0.0134264
0.0566171,-0.0124703
0.0223494,-0.0111567
0.0197932,-0.00499412
0.0336874,-0.00538962
0.0357035,0.0109233
0.0210176,0.00316456
0.0228243,-0.0128593
0.0270711,-0.0315452
0.0178484,-0.0300377
0.0165534,-0.0218555
0.013026,-0.00274853
-0.0129177,0.0117307
-0.02617,0.0200958
-0.02384,0.0195748
-0.019265,0.0158842
-0.0184379,0.0043973
-0.0186998,-0.00609332
-0.0156476,-0.000694336
-0.00670455,0.0119849
-0.00214446,0.013066
-0.00279322,0.00419257
0.0033698,0.00534167
0.0428782,0.036152
0.0537589,0.0179439
0.0256905,-0.0237611
-0.023831,-0.0159748
-0.0448556,-0.0235428
-0.0440052,-0.00930073
-0.0630194,0.0137632
-0.0479052,0.0171053
0.00802721,0.00915741
0.0268138,-0.000280733
0.0202807,-0.0196741
0.012108,-0.0402571
-0.0241143,-0.0340991
-0.0159198,-0.00288196
0.0169209,-0.0228615
0.0257564,0.0233523
0.0285196,0.0467309
0.0312175,0.0228145
0.0187685,-0.00494198
0.000226938,-0.010494
-0.00170365,-0.0034485
0.00137851,-0.00840758
-0.00854997,-0.000162601
-0.0430189,0.00877282
-0.0878079,0.0118842
-0.125067,0.00885131
-0.135158,-0.0101135
-0.056147,-0.0158368
0.0551067,-0.011694
0.117022,0.0174686
0.126579,0.0159724
0.100417,-0.00321116
0.067183,-0.00352444
-0.0300686,0.00546738
-0.0914806,-0.00606576
-0.0831347,-0.0193633
-0.0901616,-0.0358472
-0.00952657,-0.0228567
0.103487,0.0259124
0.161176,0.018282
0.139572,0.0152871
0.0734033,0.0219544
0.0159882,0.0183936
-0.00782792,0.0166395
-0.0572623,-0.00973972
-0.0923246,-0.00603286
-0.0863743,0.00827043
-0.0371387,0.00757782
-0.00695763,-0.00692102
0.00845389,0.00285581
0.0224832,-0.0159337
0.0344201,-0.0258589
0.0410633,-0.01735
0.0170631,-0.0107012
0.00513598,-0.000949618
0.0199753,-0.000953537
0.0189519,0.00757751
0.0220193,0.0214427
-0.010774,0.0174519
-0.0329954,0.00630937
-0.0274735,-0.0137423
-0.0143738,-0.025411
-0.013033,-0.0122083
-0.00837356,0.0103442
0.00317719,0.0293709
-0.00627418,0.0137972
-0.0164424,0.000926808
-0.0204056,0.00582414
-0.0215337,-0.0204068
-0.0286236,-0.00721531
-0.0322921,0.0187959
-0.0239771,0.0082498
-0.0036128,0.000429117
0.00900152,0.0155229
0.0282719,0.0148632
0.0218349,-0.00426393
-0.00232846,-0.0121939
0.00131688,-0.0488112
0.00124511,-0.0325896
0.00529765,0.0298624
0.0075738,0.0185082
0.0241173,-0.00349576
0.0344841,-0.00648031
0.00349229,-0.000806257
-0.0108015,0.0067781
0.0209314,-0.0122397
0.0158317,-0.0128216
-0.0102262,-0.0040492
-0.0149138,0.00774272
-0.0200335,0.0252863
-0.0155688,0.00664368
-0.00762543,-2.52e-05
-0.0119481,0.00507963
-0.0192844,-0.0158475
-0.00904376,-0.0154107
-0.0058841,0.000177823
-0.0324006,-0.0098325
-0.0354435,-0.0151552
-0.0292084,-0.00739586
-0.0172459,0.014527
0.0115084,0.0139802
0.0446644,-0.00730547
0.0561786,-0.0107302
0.0298321,-0.0111896
0.0124513,-0.0182337
0.00421478,-0.00276709
0.000633445,0.0185677
-0.0205054,0.0194802
-0.0302272,0.00924245
-0.00917206,0.00414261
0.022697,-0.00803791
0.0224702,-0.0206258
0.0284525,0.0194085
0.0629992,0.028926
0.0674041,0.0238758
0.0323307,0.00079374
0.0140457,-0.00890155
-0.00938787,-0.0020688
-0.0256585,-0.00372666
-0.00718378,-0.0160458
0.0105913,-0.0162706
0.00991498,-0.00726872
-0.00400859,0.00913782
-0.0279258,0.0236042
-0.0879971,0.0185012
-0.110038,0.00978643
-0.0704321,0.000834393
-0.0136346,0.00142564
0.035053,-0.00122085
0.07975,-0.0091732
0.067768,-0.00664456
0.00505998,0.00317438
-0.0184852,0.00489075
-0.0123933,0.00601795
-0.00268837,-0.0044039
0.0258753,-0.0162094
0.0502591,-0.00872301
0.0626983,-0.002983
0.0371229,-0.00405007
-0.0160689,-0.00761034
-0.0431892,1.15e-05
-0.0639459,-0.00130022
-0.097298,0.00236483
-0.128485,0.00424297
-0.14918,-0.0257258
-0.122089,-0.0106579
-0.00660729,0.0135105
0.0869325,0.00897516
0.137962,0.0252453
0.145604,0.0277122
0.107287,0.00592672
0.0514599,-0.0472275
0.0160452,-0.0282707
-0.0158665,-0.0185371
-0.0184612,-0.00939122
0.00642396,0.0297662
0.0183551,0.0306793
0.0184783,0.00913829
0.0305013,0.0106396
0.0332197,0.00823866
0.0259932,-0.00459817
0.00503227,-0.0119592
-0.0157077,-0.00406901
-0.0262072,0.00723007
-0.0251452,0.0174024
-0.0243708,-0.00565651
-0.0280407,-0.00352661
-0.0322012,0.0075881
-0.028705,-0.0135573
-0.0235924,-0.0256971
-0.0158696,-0.00674121
-0.0131671,-0.00328459
-0.0352691,-0.00141359
-0.0397377,0.0224938
-0.0204209,0.0234781
0.00319474,0.0132316
0.0249915,-0.0028388
0.0389752,-0.0143394
0.0491773,-0.00684624
0.0338219,-0.000671476
0.00864304,-0.00455463
0.00575151,0.000161233
0.0134626,-0.0116191
0.00290006,-0.0114078
-0.0111716,-0.0112193
-0.0268315,0.00381458
-0.0324125,0.0112764
-0.0202605,0.00525175
-0.0041396,0.00155697
0.0118584,0.00266333
0.02593,0.00451545
0.0272859,0.00417771
0.0129491,0.00289312
0.00505175,-0.0085011
-0.00029994,-0.0166739
-0.00899206,-0.0202284
-0.0112158,0.00284145
-0.00867675,0.0143318
-0.00318059,0.00626416
0.00329983,0.00795469
-0.00194237,0.0106125
-0.0160949,-0.00324259
-0.0142906,-0.0219743
-0.00616103,-0.0198142
0.0108164,-0.00738576
0.00705473,-0.00616358
-0.00509677,0.0196922
0.0093575,0.0261985
0.0324708,0.00568522
0.0264497,0.00520055
0.0233046,0.000626691
0.00891978,-0.0123643
-0.0155497,-0.0120366
-0.0238269,0.00355841
-0.027568,-0.00125004
-0.0176979,0.00348672
0.00744533,0.0209327
0.0320822,0.0214274
0.022589,0.00649473
-5.98e-05,-0.00527978
-0.0477946,-0.00546558
-0.104825,-0.00174134
-0.111077,-0.000626977
-0.0920911,-0.00114761
-0.0231349,-0.0109513
0.0623999,-0.00707173
0.119649,-0.00212108
0.102967,-0.020861
0.0388094,-0.0110002
-0.0147771,0.0165495
-0.0242714,0.00310829
-0.0122195,-0.00341748
-0.000758485,0.0229386
0.0345652,0.0271722
0.0474113,-0.00461227
0.0374927,-0.0330932
0.0254852,-0.0114626
0.0292343,-0.0141398
0.0168601,-0.00193123
-0.00363337,0.00517532
-0.0360522,0.00968541
-0.0517327,0.0105447
-0.0268298,0.00923384
0.0112541,0.00273904
0.0406872,-0.00815263
0.0310405,-0.0128628
0.0174999,-0.0015608
0.0076881,0.005893
-0.0119224,0.0131216
-0.0274261,0.0202859
-0.0486925,0.0172179
-0.0505224,-0.00218977
-0.0322203,-0.0141774
-0.0446157,-0.00919477
-0.0670255,-0.0130542
-0.0367963,-0.00473635
0.0271925,0.00917061
0.068562,0.008393
0.067806,0.000366472
0.0478878,-0.00659898
0.0261871,-0.0167611
0.00105561,-0.0236055
-0.0139632,-0.0103566
-0.01384,-0.00630101
-0.00264216,0.00113808
0.0149673,0.0202889
0.00663336,0.0199357
-0.00499712,0.0145853
-0.0122014,-0.00169234
-0.00737128,-0.0135712
-0.0135775,-0.00675423
-0.0321787,-0.0112708
-0.0388447,0.00187741
-0.0473937,0.00554625
-0.0361072,-0.00221544
-0.0168697,0.00527078
-0.00722327,0.00999732
0.0318427,0.00424281
0.0595931,-0.0115911
0.0484005,-0.00131338
0.0239004,0.0162839
0.0110866,0.00230692
0.0015256,0.00956303
-0.0129519,-0.0115229
-0.0149184,-0.039154
0.00343687,-0.0376106
0.030927,0.0123416
0.0395427,0.0264755
0.0500965,0.0201261
0.0365658,0.0260543
0.0148541,0.0129231
0.00184758,0.000148822
0.00360903,0.00234096
0.0050185,-0.00650409
-0.00615539,-0.0117119
-0.0243069,-0.00699884
-0.0528272,0.00559832
-0.0485637,0.0095986
-0.0502228,0.0041611
-0.0934436,0.00471288
-0.0846277,0.00795205
-0.0317268,-0.00358997
0.0203423,-0.017977
0.0576298,0.00648928
0.0872184,-0.00319984
0.0798204,-0.0145878
0.045303,-0.00188885
0.0156971,0.00324492
-0.00161862,-0.00339454
-0.00171873,0.00647407
-0.0072329,-0.0044765
-0.00749735,-0.0133585
-0.00805245,-0.00376248
-0.00361711,0.0221762
-0.00624442,0.00896226
-0.0163679,-0.0166287
-0.017219,0.00464264
-0.00662739,0.00677155
-0.0112048,-0.00872216
-0.0238798,-0.0124123
-0.00103005,0.00294731
0.0248269,0.00177136
-0.000894983,-0.00233955
-0.0282977,0.00161801
-0.0306637,0.00153886
-0.0293379,-0.0033288
-0.00538323,-0.00621599
0.0419309,-0.0178209
0.0623631,-0.0217595
0.0389225,-0.00791188
0.0197656,0.01373
0.0313309,0.0221605
0.0382163,0.0119783
0.0267865,0.035377
-0.00342313,0.0280583
-0.0490387,-0.00494687
-0.0736819,-0.0246124
-0.0562786,-0.0337674
-0.0440506,-0.0546237
-0.024376,-0.0199281
-0.0207488,0.0207727
0.0109423,0.0639012
0.0252715,0.0304356
0.0015748,0.000809253
0.00472471,-0.0260557
0.0175222,-0.00246596
0.0164815,0.0190099
0.0219562,0.000981281
0.0156176,-0.00717043
-0.0128735,0.00696581
-0.0207847,0.0150013
-0.00455537,-0.000998509
0.0233883,-0.0161735
0.0405139,-0.0160287
0.0539591,-0.00786353
0.0457548,0.00463528
0.0218821,0.0172995
0.00204514,0.0110973
-0.0154913,0.00240276
-0.0316671,0.00258636
-0.0419648,-0.00545048
-0.0266812,-0.0193347
-0.0139302,-0.0173612
-0.0162754,-0.00617098
-0.0141822,-0.00127288
-0.0118934,0.00938768
-0.0166673,0.0180179
-0.00797052,0.00777046
0.0147473,-0.0118821
0.0258432,-0.0168533
0.0178877,-0.00823802
0.0115637,-0.00118744
0.0231729,0.00247507
0.0208939,0.00612001
-0.00857854,0.00677588
-0.0219948,0.00420155
-0.0168128,0.00409271
-0.0232116,-0.0154276
-0.0182988,-0.0147562
-0.0160365,0.0132454
-0.0220114,0.0156238
-0.0319358,0.0129904
-0.0220985,0.0190935
-0.0220806,0.0186138
-0.0427739,0.00416617
-0.0102834,-0.0180113
0.0371092,-0.0140687
0.0468369,-0.00592495
0.0601806,-0.00743048
0.079031,-0.0104255
0.0616499,-0.00920566
0.0140736,0.00536655
-0.0153595,-0.0152465
-0.0107041,-0.0191507
0.00630404,-0.0058265
0.0156757,-0.00685969
0.00305916,0.00240029
-0.0269852,0.0112479
-0.0486641,0.0122276
-0.0472424,0.033499
0.00357195,0.0256469
0.0468001,0.00278423
0.0414263,-0.0123479
0.0174887,-0.0119558
0.00499111,-0.00733863
0.000979708,-0.000829904
-0.0163435,0.00101826
-0.0406537,-0.0017543
-0.0665236,-0.012454
-0.060298,-0.00133985
-0.0470865,0.00710197
-0.0119056,0.00093181
0.0373056,-0.00782134
0.0573376,-0.00142996
0.0504346,0.00560651
0.0327506,0.0119712
0.00853007,0.0104778
-0.00643882,0.00087037
0.00125197,0.00164301
-0.00453688,0.000749516
-0.021784,-0.0127595
-0.0360381,0.00125119
-0.0185569,0.0241865
-0.00279655,0.00634965
0.00879558,-0.0335713
0.0243661,-0.0311707
0.0264707,0.00292508
0.014484,-0.00717106
-0.00548505,-0.0034605
-0.00266588,-0.00486355
0.0201877,0.00779981
0.0226877,0.0181635
-0.0142066,0.016534
-0.0210798,0.0145013
-0.000896799,0.00509382
0.0125581,-0.0284527
0.01687,-0.029769
-0.0184698,-0.00350777
-0.0257282,-0.00637383
0.00212869,0.0191687
-0.00488347,0.0297263
-0.00948042,0.0253876
-0.00566339,0.00751499
-0.00345802,-0.00835207
0.0136542,-0.0240536
0.0149115,-0.0206799
-0.00034064,0.00108492
-0.0123656,0.00351876
-0.0173574,0.00332163
-0.0205482,0.0117859
-0.0147567,0.00756479
-0.0112514,-0.00414251
-0.0040964,-0.0132138
0.0151438,-0.00517009
0.0289848,-0.00124268
0.02448,0.00332341
0.0127804,0.00973536
0.00787191,0.0106546
0.00770812,0.00495604
0.00161647,-0.00110097
0.000894009,-0.0107523
-0.00400298,-0.0169506
-0.0177684,-0.00464962
-0.0206573,0.012274
0.00851854,0.00882403
0.0388432,0.00929941
0.0012988,0.0120463
-0.0171249,-0.00129657
-0.0164668,-0.0327898
-0.0582595,-0.0222321
-0.104005,-0.00533082
-0.0937295,-0.00391176
-0.0389709,0.0172509
0.0215621,-0.00510004
0.0704646,0.0100518
0.0991484,0.0190827
0.0930556,0.00376786
0.0723929,-0.0136999
0.027377,-0.0152814
-0.0323165,-0.011269
-0.032305,0.00729495
-0.0124204,0.00469715
-0.022332,0.0201356
-0.0299546,0.0237292
-0.00752798,0.0161995
0.0308671,0.0040451
0.0374542,-0.00594581
0.0352894,-0.00307817
0.0362038,-0.0162851
-0.00187991,0.00837605
-0.0455161,0.0239196
-0.054951,-0.0148378
-0.0368073,-0.00594532
-0.00609509,-0.019803
0.0143043,-0.0363671
0.0136841,-0.0133338
0.0111894,0.00990306
0.00757622,0.00908195
-0.00223268,0.00424426
0.0004873,0.00898195
0.0180926,0.00851606
0.0355074,-0.00540124
0.0565393,-0.014793
0.059618,-0.00722616
0.0373359,-0.0032524
0.00653665,0.00273225
-0.0197145,0.0106043
-0.0356986,0.0110009
-0.0445213,0.00709003
-0.0483764,0.00842326
-0.0336263,0.000593204
-0.0175631,-0.00801863
-0.016721,-0.00174506
-0.0168458,0.00781181
-0.0187628,0.0068734
-0.013618,0.00758271
-0.000763323,0.00943922
0.00314403,0.00475835
0.0102451,-0.00822904
0.0241303,-0.013417
0.0202391,-0.00762641
0.0126779,-0.00328207
0.00169834,-0.00073194
-0.014853,0.00235598
-0.0128857,0.0130873
0.00153881,0.0100228
0.0147636,-0.00641076
0.0215613,-0.0163923
-0.00226698,-0.0101523
-0.0326367,6.5e-05
-0.0277281,0.00339816
-0.00286626,0.00188134
0.0161828,0.00427007
0.0395099,0.00573624
0.0418529,-0.00419131
0.0197442,-0.0110165
-0.0195518,-0.00217551
-0.0302422,0.00358667
-0.0262591,0.00420279
-0.0365559,-0.000731884
-0.0633556,-0.00016491
-0.0712661,-0.00201935
-0.0310635,0.00183343
0.0060593,0.00083465
0.033206,-0.0145427
0.0532433,-0.00702948
0.0340855,0.0061913
-0.0050661,0.00128662
-0.0326227,-0.00776495
-0.019481,-0.000906182
0.0139704,0.0238423
0.0512143,0.0133468
0.0603404,-0.0123568
0.032312,-0.000247949
-0.00834269,0.000287603
-0.0283458,-0.0174722
-0.0121443,-0.000424276
0.0176394,0.0102237
0.0493477,0.00880748
0.0466726,0.0058394
0.0263023,-0.00391212
0.00496906,-0.0140514
-0.00752974,-0.00983426
-0.00483847,0.00581008
-0.0200982,0.0121453
-0.0326524,0.0119588
-0.0251455,0.0096231
-0.0177911,0.00635128
-0.00090825,-0.000566757
0.00785286,-0.000480477
0.00624851,-0.00406678
0.0105974,-0.000997215
0.00267403,0.0105085
-0.00810513,0.0139754
-0.00946152,0.00402356
-0.00975935,-0.0138713
-0.00760806,-0.0347416
-0.00167782,-0.0297109
-0.0121689,0.00053924
-0.0308484,-0.0122458
-0.0383462,-0.0176671
-0.0247698,-0.000275793
0.000772584,0.0276978
0.0176234,0.0274931
0.0147061,0.00589404
0.0316579,-0.00239663
0.0254927,-0.00130691
0.0138401,-0.0072557
0.00482551,-0.00130917
0.00298073,0.0131132
0.00895248,0.0151406
0.0165027,0.00438813
0.0322871,0.00357301
0.0226836,-0.000934218
-0.024774,-0.0160003
-0.048499,-0.00903452
-0.0276258,-0.0190202
-0.0128926,-0.0301271
-0.00166916,0.00211036
-0.0112621,0.0298688
-0.00914087,0.0252941
0.00676749,-0.00287985
0.029282,-0.00707965
0.0133554,-0.00581805
0.00116549,0.00141294
0.0164243,0.00916922
0.00605469,0.000401017
-0.0218069,-0.00244698
-0.0122444,-0.000650941
-0.00253395,0.0111027
-0.00152768,-0.00115223
0.0018943,-0.00802294
0.00322746,-0.0172545
0.00733245,-0.0024883
0.00795491,-0.00457904
0.00112559,-0.000594686
-0.000577398,0.0215915
-0.00713385,0.0209465
-0.00417717,0.00512316
-0.0145542,-0.0355884
-0.0134942,-0.0171382
0.00102847,0.0108211
0.0079145,0.0115822
0.0185287,0.00776401
0.00892895,0.0105953
-0.000873069,0.0166515
0.00997756,-0.00404143
0.00762896,-0.0147332
-0.000640717,-0.0167252
-0.00471297,0.0015895
-0.00229659,0.0104098
-0.000556421,0.000606461
0.0101889,0.00530706
0.0187088,0.0101889
0.0168135,0.00527936
0.0013535,-0.00547879
-0.0131773,-0.0115146
-0.0357717,-0.0110962
-0.0727416,-0.0153347
-0.0509315,-0.0117713
-0.0469331,0.0117157
-0.0657659,0.0179431
-0.0122989,0.0125091
0.0428885,0.00522802
0.0733148,-0.0151835
0.0662627,-0.0235026
0.0483895,-0.0141658
0.0284153,-0.0123878
-0.00891887,-0.00771887
-0.0383592,-0.0057667
-0.0286936,0.00785634
0.0118036,0.0161557
0.048244,0.00233954
0.0550213,-0.00119901
0.0268982,-0.000609346
0.0115644,0.00361826
0.00445184,0.0100738
-0.000689581,0.0141163
0.00439771,0.0193594
0.00301304,0.0162616
-0.00473918,0.00044496
-0.00315592,-0.00859054
0.000325948,-0.00121425
-0.0122059,0.00734911
-0.0307303,0.00725701
-0.0359569,0.00765016
-0.0244256,0.008691
-0.0154741,0.000230178
-0.0318518,-0.0122415
-0.0615201,-0.0175135
-0.0646741,-0.0128276
-0.028563,-0.0156159
0.0207379,-0.00850801
0.046168,-0.00160105
0.0583702,0.0127618
0.0606025,0.0231164
0.0447403,0.0122744
0.0307829,0.00546458
0.0155002,-0.0143602
0.0061448,-0.021611
0.00193663,0.00740721
-0.0232368,-0.0160708
-0.030506,-0.0317942
-0.0132659,0.0195119
0.00381973,0.0181244
0.00200293,-0.010408
-0.000483228,-0.012219
-0.000561117,-0.00210048
-0.000674273,0.000739266
0.0224901,0.010918
0.0235112,0.0177884
0.00781393,0.0182257
0.00741146,0.0173485
0.00200859,0.00542885
-0.0224865,-0.0169846
-0.0330884,-0.0170292
-0.0311179,-0.00296558
-0.0372584,-0.00192594
-0.074696,0.000902117
-0.118999,-0.00907172
-0.0960661,0.00154469
-0.0112486,0.00661053
0.0468792,-0.0133751
0.0766826,-0.0243961
0.0993388,-0.00172199
0.0979886,-0.00275381
0.0655041,-0.000253266
0.0311674,0.00607566
0.0154834,0.014241
0.00397767,0.0141752
-0.00219778,-0.000745958
-0.00347948,-0.0144593
-0.0043153,-0.00864656
-0.000786049,0.00807939
0.00749858,0.0149736
0.00905521,0.0127085
0.00910149,0.0162228
-0.00936933,0.0105916
-0.0162873,-0.00141339
-0.012952,-0.0148177
-0.0100331,-0.00972963
-0.00886889,0.00500375
-0.015915,0.00382802
-0.0185385,0.00102803
-0.0293115,0.00803996
-0.0277979,-0.000485239
-0.0081407,-0.00631163
0.00713992,-0.0116735
0.00816878,-0.0183628
0.000310479,-0.017436
0.00838237,-0.00440792
0.0119336,0.00616381
-0.00656186,0.0101975
0.0017037,0.00488029
0.0149029,-0.000186083
0.0116027,0.000894265
0.00288695,0.000359628
-0.000667408,0.000138918
-0.0137683,-0.010995
-0.0326956,0.0144617
-0.032954,0.0164574
-0.0107738,0.00450064
0.00888136,0.00897118
0.00707777,-0.000982153
-0.00265899,-0.0255872
-0.00579457,-0.00680841
-0.00725107,-0.00936032
-0.0237744,-0.00716603
-0.020919,-0.00205652
-0.00301501,0.0059362
0.030882,0.0163255
0.0494628,-0.00120626
0.0532275,-0.00897525
0.0321571,0.000600396
0.00380062,0.0117598
-0.0101378,0.0113989
-0.0142729,0.010365
-0.00940404,-0.0195613
-0.0129017,0.00467982
-0.018917,0.0169292
-0.00925903,-0.000292963
0.0123392,-0.0153109
0.0151837,-0.00569055
0.0163888,0.00123243
0.0221945,0.000657677
0.0154791,0.00422821
0.00721832,0.00599626
-0.000405107,0.00431172
3.26e-05,-0.00115912
0.000107881,-0.00684629
-0.000527534,-0.00372503
0.00774621,-0.00164391
0.000593339,0.0060032
-0.0130022,0.0143973
-0.0252459,0.00713609
-0.0256673,0.00023942
-0.0195478,-0.00633712
-0.0133048,-0.0270991
-0.00295362,-0.0332138
-0.00391017,-0.00847687
-0.00723785,0.0100842
0.0156498,0.0141912
-0.000212559,0.00854426
-0.0221295,0.00480904
-0.0119516,-0.00465687
0.00133249,-0.0118352
0.0248167,-0.00733873
0.0566725,-0.0250773
0.0518146,0.00674377
0.0031733,0.0241101
-0.0218366,0.0185677
-0.0250177,0.0119691
-0.0692414,0.0085882
-0.0967145,0.00252788
-0.0817435,-0.00485166
-0.027845,-0.00439991
0.0363422,-0.00267446
0.0718321,0.0120357
0.0606751,-0.00281477
0.0238272,0.00114083
0.00770081,0.00924788
0.023091,-0.00688931
0.04682,-0.0140924
0.0476938,-0.00135781
0.0332619,-0.00188502
0.0102043,-0.00186405
0.00217469,0.0159733
0.000451921,0.0188851
-0.00156402,0.00925216
-0.00582663,-0.00489078
0.0215562,-0.0238913
0.0442063,-0.0130625
0.00426028,0.00286198
-0.040951,0.00225771
-0.0422327,-0.0144784
-0.0540932,-0.0213629
-0.0400691,0.00750506
-0.0124138,0.0164044
-0.008158,-0.00533125
-0.0240926,-0.00876807
-0.0222658,-1.63e-06
-0.00210455,0.00181722
0.00977753,0.00729478
0.0137876,0.0144834
0.0140465,0.0111187
0.00559807,0.00959049
0.00189454,0.00332277
0.00634529,-0.00546571
0.0102882,-0.0152164
0.0034995,-0.0140672
0.00610696,0.000358043
0.00886227,0.00223268
0.000736337,0.00449716
-0.00661447,0.00324665
-0.00669424,0.0021365
-0.00182001,-0.00636704
-0.00362019,-0.00721034
-0.0105943,0.00256506
-0.00913104,0.00540349
-0.00749195,-0.0117524
-0.0165596,0.00362977
-0.0193909,0.015975
-0.00847272,0.0201208
0.0102551,0.00112049
0.028123,-0.0106755
0.0303562,-0.00970088
0.0189648,-0.012388
0.0109717,0.00590324
0.0051946,0.00998055
-0.00285512,-0.0016244
-0.0141369,-0.00393678
-0.0175321,-0.00478678
-0.00218869,-0.0165087
-0.000363543,-0.0215893
-0.00423697,-0.00365966
-0.00723173,0.00394816
-0.00972874,0.00827905
-0.0138569,0.0137848
-0.0093646,0.00929919
0.00214691,0.0016286
0.0104629,-0.00831319
0.00917998,-0.0123285
0.00680863,-0.00680039
0.00634395,0.00164274
0.00859057,0.00661186
0.00951202,0.00938673
0.012396,0.0145958
0.0120938,0.0150128
0.00756672,0.00277032
0.00652119,-0.00522673
0.0109926,-0.00197554
0.0135256,0.000110417
0.00371429,0.0050806
-0.0162714,0.00990222
-0.0301077,0.0114294
-0.0376116,0.0103221
-0.0401474,0.00417409
-0.0360993,-0.0145748
-0.0157783,-0.0261307
0.00616212,-0.0171114
0.0264459,-0.00147741
0.0509697,0.0238912
0.0385113,0.00802071
-0.010616,-0.00664959
-0.0434162,-0.0314212
-0.0571191,-0.0205877
-0.0417926,0.00495433
0.0148332,0.000851136
0.0623855,-0.000585288
0.0649819,0.00600153
0.059303,0.0121139
0.0408612,0.0160387
0.00150022,0.0174768
-0.0112837,0.0124729
0.0025112,0.00127954
-0.00258722,0.00468272
-0.0448635,0.00498243
-0.108345,-0.0188215
-0.103969,-0.026971
-0.0601366,-0.0108714
0.0015688,-0.0243376
0.0564164,-0.0102202
0.0753151,-0.0217119
0.0822936,-0.0230637
0.0646956,-0.0178347
0.0198023,0.0177366
-0.0199838,0.0331499
-0.0303552,0.012849
0.010369,0.0339715
0.0306896,0.0214824
0.0165719,0.00759664
0.00486104,0.00373137
0.00742582,-0.00760423
0.00636804,0.0037178
0.000701959,0.0115694
-0.00111659,0.00684784
0.0042882,-0.00414677
0.00617214,-0.0158183
-0.00343366,-0.0203472
-0.0145979,-0.0166149
-0.0144402,-0.0147563
-0.0182102,-0.00655965
-0.0241183,0.00764188
-0.0203611,0.0175154
-0.0071338,0.0168029
-0.0131822,0.0141285
-0.0238267,0.00392378
-0.00158481,0.00185088
0.00412332,0.00605
-0.00455959,0.00460807
-0.00089152,0.000464332
-0.00577084,0.00636357
-0.0221682,0.0104228
-0.0245134,-0.00443172
-0.00171325,-0.0246848
0.0156657,-0.0241631
0.0154186,-0.0138269
0.0168651,-0.00358571
0.0224104,0.000540199
0.00923614,0.00311404
-0.0160113,0.0104975
-0.0315884,0.020807
-0.0298749,0.0194594
-0.0145441,0.00661871
0.0017432,-0.00561901
0.0222784,0.00158594
0.0516195,0.00232001
0.0503688,-0.00217872
0.0253604,0.0050668
0.0150199,-0.00650378
0.00663168,-0.0360727
0.0025503,-0.0338539
-0.00643778,-0.00962002
-0.0212511,-0.00885248
-0.0263158,-0.0140542
-0.0148646,0.00655416
-0.0229949,0.0101801
-0.0357796,-0.0048216
-0.00144257,0.0049851
0.0347074,0.0184005
0.0270191,0.0227061
-0.00610685,0.0161659
-0.0650313,0.0137695
-0.0671745,0.00608187
-0.0219942,0.00842775
0.0224369,0.00192669
0.0412749,-0.00668764
0.0600588,-0.012822
0.0701935,-0.0148423
0.0295334,-0.0121658
-0.000378512,-0.012068
-0.00973106,-0.00466745
-0.0105341,-0.000505444
-0.013631,0.0172098
-0.0120839,0.0127198
-0.00678801,-0.00415645
-0.000574722,0.00109068
0.00421007,-0.00356027
0.00931851,0.00992941
0.0130393,0.0131355
0.00853764,0.000122144
0.00686711,-0.000952565
0.00529995,0.00779848
-0.00773484,0.00608753
-0.0142593,-0.00608657
-0.0128586,-0.0132764
-0.0178319,-0.0100626
-0.0376096,-0.00714181
-0.0518623,-0.00359984
-0.0663466,0.0109271
-0.0601855,0.0134035
-0.0375191,0.000929128
0.00840863,-0.0197213
0.0505754,-0.0203785
0.0859587,-0.0119837
0.0837969,0.00282739
0.053135,0.0184613
0.0251113,0.0165157
0.0319445,0.0158205
0.0381982,0.00756873
0.0238828,-0.00994712
0.0112289,-0.0174681
-0.0234594,-0.00994483
-0.105807,-0.00634843
-0.133756,-0.0038047
-0.0995982,0.00820481
-0.0335425,-0.00382225
0.0337065,-0.00536401
0.072367,0.00734683
0.0772467,-0.0248097
0.0615284,-0.01838
0.0355735,0.0175274
0.00810908,0.0440599
-0.0110811,0.0209022
-0.0167963,-0.00255859
-0.0192177,0.000574518
-0.0306995,0.000709555
-0.025716,-0.0090343
-2.54e-05,-0.0138905
0.0388489,-0.0114984
0.0740536,-0.00750384
0.0598843,0.00138738
0.00248585,-0.00105724
-0.0318528,0.0100533
-0.0427437,0.00977588
-0.0248253,0.00852539
0.00886047,0.00613789
0.0190157,-0.00245844
0.015278,0.00328574
-0.000489612,0.0126181
-0.0229472,0.00814687
-0.031727,0.00659873
-0.0370618,0.000751662
-0.0402831,-0.0156786
-0.0657884,-0.0260596
-0.0562439,-0.0201154
-0.00373488,-0.0148703
0.0393057,-0.00189295
0.0545567,0.00415443
0.0472473,0.0100997
0.0366772,0.0075319
0.0224473,0.0079579
-0.00342398,0.00817902
-0.0209694,-0.00339366
-0.0213836,-0.0101316
-0.0104751,0.00156827
-0.00123428,0.00554484
0.00472895,0.000687102
0.0126585,0.00437855
0.0236974,0.0122761
0.0222337,0.000924504
0.0228341,-0.0107484
0.0245595,-0.00449648
0.012525,-0.00662757
-0.00744873,-0.00476741
-0.019269,0.0129231
-0.0214843,0.0267721
-0.0139202,0.00901373
-0.00781172,0.00411863
-0.0197216,-0.00772785
-0.0295289,-0.0101232
-0.02837,-0.00923172
-0.0141139,-0.00985985
0.00211457,-0.0027448
0.00770789,-0.013966
0.000194528,-0.0120762
0.00600846,0.00586885
0.0184454,-0.00579573
0.0240798,-0.00942744
0.022701,-0.00549845
0.0243291,-0.00509862
0.0204064,0.00430984
0.0011515,0.0124911
-0.00498174,0.00142996
-0.00722263,0.00908946
-0.0186815,0.0280409
-0.0187229,0.00889121
-0.0106416,-0.00757678
-0.00345517,-0.00578194
-0.00423125,-0.0058165
-0.00172265,0.00258351
-0.000387006,0.00585432
-0.00447097,0.0125437
-0.00393115,0.00298257
0.0106157,-0.0139977
0.0229741,-0.0177558
0.0063812,-0.0194353
-0.014072,-0.00582966
-0.0161187,-0.00272099
-0.00519263,0.00298619
-0.00188752,0.0135981
-0.0134671,0.00716894
-0.00898142,0.000841526
0.00734918,-0.00687168
0.00613082,-0.00782515
0.00133227,0.00372831
-0.000114705,0.0109029
0.00602093,0.00986366
0.0111806,0.0160276
0.00817906,0.0155902
0.00121043,0.00234646
-0.000720623,-0.0122915
-0.00434986,-0.00956795
-0.00274392,-0.00465291
0.00464279,-0.00595133
0.00783633,0.000819536
0.000262386,0.00402204
-0.00489324,0.0186686
-0.00934825,0.0125498
-0.00832734,-0.0120167
-0.00138593,-0.017055
0.00621181,-0.0102097
-3.6e-05,0.000230559
-0.0155601,0.00640236
-0.0255004,-0.000236979
-0.0218184,0.00452489
-0.00399692,0.00430577
0.0247226,-0.0102441
0.0550577,-0.0144588
0.054573,-0.00437742
0.0288032,-0.00268329
0.0102126,-0.000700227
0.000211328,0.00409355
-0.0177196,0.00117088
-0.0282553,-0.00457716
-0.0274739,0.00226061
-0.0179192,0.00121925
-0.00452961,-0.00384161
0.0125634,0.00382214
0.0324598,0.0139838
0.0311653,0.00668529
0.0107158,0.0109982
-0.0355579,0.0182058
-0.0858723,0.00121234
-0.091951,-0.0207798
-0.0628991,-0.0218188
-0.00975232,-0.0112866
0.0397753,-0.00221654
0.0546708,0.00866325
0.0463131,0.0111364
0.00486537,0.00134537
-0.0136833,0.00238519
-0.0198384,0.00566363
0.0175316,-0.0049004
0.0656526,-0.0116633
0.0672688,-0.00189516
0.0351032,0.00608432
0.01741,0.00740774
0.00366294,0.00818795
-0.0222846,0.0057774
-0.0280492,-0.000803184
-0.00748719,-0.00839497
0.0179921,-0.00573753
0.036518,-0.00186052
0.0292517,0.00347613
0.00385398,0.00467904
-0.0269766,-0.0254408
-0.0448059,-0.01026
-0.0491999,0.00495811
-0.0315403,-0.0102918
-0.01044,-0.0201282
0.00330924,0.00398042
0.00998774,0.0224692
0.00445816,0.0103959
0.00154895,0.0115052
-0.0092599,0.0228485
-0.0212687,0.0191156
-0.0295942,0.00462736
0.00180913,-0.0110552
0.018985,-0.0148068
0.0181654,-0.0144776
0.0191129,-0.0142069
0.000328836,-0.00678926
-0.0142896,0.00522558
-0.0153199,0.0146752
-0.000185307,0.0114904
0.0137611,0.00296891
0.0199855,-0.00312891
0.0185564,-0.000128435
0.0100628,-0.00413971
-0.00896711,-0.00881287
-0.0421928,0.00920823
-0.020666,0.0142048
0.013437,0.00413516
0.0200624,-0.0174085
0.0163602,-0.0162425
0.00651368,-0.00649026
-0.0024711,-0.00309574
-0.00886774,0.00256232
-0.00838056,0.00753027
-0.0191989,0.00595934
-0.0507364,0.00589142
-0.0443102,0.00906614
-0.010034,0.00119258
0.0218352,-0.0137559
0.0380328,-0.0248379
0.0271808,-0.00524702
0.0041754,0.00688124
-0.00112175,-0.00392883
0.00730419,-0.000382398
0.0172456,0.00477031
0.0197095,0.00330959
0.0145795,0.000381309
0.0093209,-0.00574565
0.00521521,-0.00567473
-0.000755018,0.00908602
-0.00325067,0.0111338
-0.00147161,0.00431744
-0.00403572,0.0136433
-0.003728,0.00342511
-0.00110453,-0.0112882
-0.00248193,-0.0122622
-0.00528695,0.00600524
-0.0044465,0.0152684
-0.00268319,0.00352022
0.00499249,-0.00113244
0.000144258,0.00751119
-0.0120741,-0.0021433
-0.0038367,-0.0196404
0.014968,-0.0060028
0.0120714,-0.00285536
-0.0135502,-0.00305167
-0.0211596,0.003197
-0.00702518,0.00257957
0.0146867,0.017647
0.0086941,0.0170189
0.00351835,-0.0115814
0.0222856,-0.0161178
0.0161688,-0.0100518
-0.00503252,-0.00775605
-0.0157384,0.00224503
-0.0336495,0.0226794
-0.0344727,0.0196497
-0.0311008,-0.00911747
-0.0618355,-0.0188031
-0.0503584,-0.0182703
-0.00697189,0.000370204
0.0291492,0.00173902
0.0331131,0.00510535
0.0275249,0.0130413
0.0320427,0.00460288
0.0283924,-0.00636959
0.0400572,-0.0121928
0.059593,0.00168002
0.0504391,-0.00669562
0.0148495,-0.0021404
-0.0247769,0.00835841
-0.0326834,0.0122987
-0.0192196,0.0122152
-0.00362535,0.00412778
0.00685121,-0.00291082
0.0182952,-0.00451437
0.0294487,-0.00707365
0.0220703,-0.0214338
0.00722284,-0.00818892
-0.0145069,0.0144719
-0.0330573,0.0236075
-0.0496192,0.0114912
-0.0575916,0.0127027
-0.045928,0.0101624
-0.0309814,-0.034166
-0.0165438,-0.0233933
0.00525634,0.000665524
0.0214,0.000721714
0.0369298,0.00424093
0.0333384,0.0127583
0.0105918,0.0150047
0.0104871,0.00350315
0.0169201,-0.0127001
0.00667467,-0.0177292
4.4e-05,-0.0199807
-0.00410704,0.000398733
-0.0105781,0.0115777
0.000143148,0.0115896
0.0205042,0.00967508
0.0124389,0.00433851
-0.0125306,-0.0143601
-0.011916,-0.016164
-0.00341216,0.000806603
-0.010193,0.00503534
-0.0177366,-0.00600794
-0.0213258,0.00553968
-0.0185571,0.0104088
0.00119352,0.00841166
0.023673,0.000645726
0.0252482,-0.00616372
0.0171627,0.00392124
0.011715,0.00291621
-6.66e-05,-0.00979398
-0.00414545,-0.00682059
0.00142635,0.00580273
0.00570309,0.00989309
0.00587165,0.00628724
0.00150197,-0.00774828
-0.00854591,-0.0140674
-0.0220198,-0.00571111
-0.0217436,0.00287422
-0.00563937,-0.010347
0.00911358,0.0135948
0.0065941,0.0257484
0.00539946,0.00886547
0.00846758,-0.00619698
0.00206889,-0.00538951
0.00437562,-0.00679806
0.0135469,-0.00698057
0.00566486,-0.000376894
-0.0168521,0.00811703
-0.0186533,0.00435745
-0.00666938,0.00165647
0.00655236,-0.00817939
0.0127694,-0.0271581
0.0208528,-0.0267543
0.00251975,-0.00132402
-0.0538467,0.00316495
-0.076212,0.00279543
-0.0751619,0.0142056
-0.0393009,0.0161764
0.0150482,0.0065211
0.0530475,-0.00608831
0.0592971,-0.000212938
0.0524832,0.00263183
0.0221196,0.00929531
-0.00296937,0.0144581
0.0218797,0.0135276
0.0328588,0.0103031
0.0205847,0.00856792
0.0234396,-0.0119591
0.00721403,-0.0170484
-0.000460709,-0.00489519
0.00246382,0.00194265
0.00554297,0.00226585
0.00727024,0.00658655
0.00110365,0.0122346
-0.00293753,0.0049444
-0.00402054,-0.0105745
-0.00873506,-0.0189476
-0.0138975,-0.0138154
-0.0148341,-0.0137138
-0.0136011,-0.00165638
-0.0096758,0.00523512
-0.0050404,0.00459963
-0.0091206,-0.000129905
-0.0459586,-0.00271195
-0.104692,-0.0241721
-0.0855762,-0.0213905
-0.0234643,-0.00918212
0.0359465,0.00489795
0.0622486,0.0175721
0.0620132,0.0272248
0.0351184,0.0245793
-0.0114336,0.0100618
-0.00344355,-0.00684537
0.0317833,-0.00648788
0.0349186,-0.00598165
0.0259492,-0.00174699
0.0158161,0.010694
-0.00106028,0.00661547
-0.0267051,-0.00139373
-0.0275293,-0.00410357
0.000898294,-0.0152767
0.035883,-0.00631781
0.0357124,-0.00439004
0.008417,0.00659158
-0.00156696,0.0187963
3.47e-05,0.0150185
-0.00880464,0.0133832
-0.0185924,0.00835416
-0.0174029,-0.00948031
-0.014812,-0.0249903
-0.0163515,-0.0356232
-0.0141594,-0.0293742
-0.0158454,0.00704372
-0.030763,0.021445
-0.0397057,0.0230808
-0.0222523,0.0107081
0.00585267,0.00470434
0.0351708,-0.00238165
0.0458618,-0.0154133
0.0425319,-0.00534912
0.0201437,0.00660093
0.00385429,0.00270462
0.00534362,0.00688318
0.0121212,0.0131286
0.00774919,0.0104266
-0.0121477,-0.00767382
-0.0298927,-0.0172669
-0.0397091,-0.00451693
-0.0269599,0.00116614
-0.0184949,0.00803503
0.009464,-0.0126664
0.024,-0.0125265
0.0164939,0.0146357
0.0159918,0.00431007
0.0323601,-0.00894867
0.0206888,-0.0112452
-0.00163071,-8.53e-05
-0.00260274,0.00872529
-0.00106343,0.00606123
-0.00667202,0.00810449
-0.00633739,0.0147187
0.00115441,0.00793482
0.00391052,-0.013487
0.00431817,-0.019191
-0.00154368,-0.0165202
-0.018704,-0.00305127
-0.0539259,0.0173815
-0.0650119,0.0190705
-0.0433719,0.0156631
-0.0073196,0.0227567
0.0247057,-0.0153303
0.0399567,-0.0382544
0.0429401,-0.0128934
0.0294732,0.00144614
0.00708064,0.00163679
-0.00527377,0.00715112
-0.00137732,0.0118753
0.00695436,0.0126099
0.00851724,-0.000510381
0.0099751,-0.0148364
0.00555353,-0.0103392
0.00533222,-0.00891342
0.0114635,-0.00500394
0.0123085,0.00370555
-0.00194019,0.0171171
-0.00644481,0.0140083
-0.0108481,0.00675323
-0.00986148,-0.00260984
-0.0133289,-0.018455
-0.00828688,-0.0252947
0.0137933,-0.0104332
0.0146809,0.0123269
-0.0106015,0.0128102
-0.0191018,0.00684439
0.00207176,0.00543909
0.0277741,-0.00683224
0.0183266,-0.00241963
-0.00835118,0.00249499
-0.010189,-0.000534443
-0.0123538,0.00317628
-0.0366331,0.00862482
-0.0358091,0.00990824
-0.0142947,0.00356233
0.0082846,-0.00466143
0.0240354,-0.0136806
0.0271546,-0.0155962
0.0135055,-0.00452407
0.00181287,-0.000716654
-0.00457684,0.00276053
-0.00898543,0.00988447
-0.0123654,0.0145864
-0.007616,0.00439191
-0.0014829,-0.019072
0.00827601,-0.0252575
0.0108119,0.00219306
0.0084166,0.0231989
0.00729989,0.0192021
0.00980098,0.00647565
-0.000475772,-0.00244523
-0.00165616,0.000792604
0.000915898,-0.0056186
-0.00307711,-0.0192212
0.00114929,-0.0141308
0.00380392,0.000493319
0.00235482,0.00853506
0.00183733,0.0068763
0.000234289,0.00923608
-0.0151779,0.0120742
-0.0149147,-0.00337549
0.0073794,-0.0192536
0.0183837,-0.00220974
0.0125971,0.000625685
0.0111876,0.00163794
0.00747434,0.00919961
0.00738982,0.00914388
0.00594381,-0.000248114
0.000107905,0.00271618
0.00123698,-0.00232821
-0.00096161,-0.0141906
-0.00953759,-0.00854161
-0.0366303,0.0010713
-0.100036,0.00120015
-0.1148,0.00422881
-0.0656244,0.00474526
0.00632347,0.000225081
0.0646632,-0.0020525
0.0926525,-0.00314454
0.0857619,-0.00107501
0.0586725,0.00142473
0.00876833,0.00751654
-0.041866,0.00922397
-0.0464239,0.00816848
-0.0192853,0.00786337
0.00163662,-0.00133555
0.0259235,-0.0141568
0.0492254,-0.0135366
0.05082,0.000157573
0.0321177,0.00223506
0.0151694,0.00201103
0.00349938,0.00204878
-0.00995394,0.0025506
-0.022526,0.000629006
-0.0254709,-0.0124904
-0.0208242,-0.0103609
-0.0191459,-0.00423616
-0.0167187,0.00261335
-0.0115888,0.0140171
-0.0153443,0.00996219
-0.00461208,0.00876528
0.0127037,0.00278559
0.0139651,-0.00101796
0.00721394,-0.0130728
-0.000682536,-0.0147141
-0.00429792,-0.000344967
-0.00708014,0.00998789
-0.0134916,0.00236251
-0.00159072,-0.0170622
-0.0108922,-0.00960128
-0.0128534,0.0107755
0.0149855,-0.00984154
0.0348704,-0.0121911
0.0402975,0.00092761
0.0380471,0.00786162
0.0230411,0.0173249
-0.00405823,0.0131538
-0.018863,0.00638395
-0.029996,0.00549564
-0.0315086,-0.00404662
-0.02566,-0.0126924
-0.019984,-0.00586986
-0.0170872,0.00288503
-0.0118158,0.00468834
-0.00447282,0.00729481
0.0143731,0.0100679
0.0259138,0.00738399
0.0271321,-0.00743125
0.0167176,-0.0196439
-0.000231614,-0.0146788
-0.00797108,-0.00364793
-0.0152286,0.00301119
-0.0187488,0.00851888
-0.018185,0.0014395
-0.0149218,-0.00420638
-0.00553347,0.00437372
0.00427187,-0.00582912
0.0081746,-0.0169109
0.003992,-0.0187913
-0.0067015,0.00647276
-0.0196206,0.0224444
-0.0297206,0.019187
-0.0226811,0.0203479
-0.000452944,0.0131679
0.0205345,-0.00665511
0.0303512,-0.00900726
0.018142,-0.00686797
0.00544444,-0.00538343
-0.00463513,0.00618813
-0.0072754,0.0146159
-0.00742664,0.00750716
-0.00647788,0.00308926
-0.0071796,-0.00230835
-0.00242894,-0.0157077
0.0120928,-0.0169866
0.0260997,-0.00929198
0.0352714,-0.00508081
0.052175,-0.00152674
0.0613434,0.00727249
0.0773448,0.0106116
0.0854031,-0.000778765
0.0551743,-0.0070833
0.00374935,0.00134282
-0.0433765,0.00565216
-0.0862074,0.00883492
-0.10548,0.010707
-0.0868486,0.00836496
-0.0510711,-0.00281958
-0.0140197,-0.0105382
-0.000932098,-0.0214876
0.00239901,-0.02544
-0.00791095,-0.00908416
-0.0279714,0.0043752
-0.00535481,0.00693669
0.0595409,-0.00180352
0.0555703,0.00326739
0.0186103,0.0110273
-0.0157246,0.00392742
-0.0511535,0.0045343
-0.0714476,0.000141349
-0.06638,-0.00269429
-0.0270269,0.00279759
0.0323224,0.00890004
0.0724859,0.00659872
0.081145,0.00074274
0.0608353,8.7e-05
0.059943,-0.00581197
0.0670344,-0.00972444
0.0224711,1.69e-05
-0.045424,0.00701867
-0.112747,0.00597255
-0.139198,0.00892596
-0.116861,0.00941587
-0.0791919,-0.00427799
-0.0384054,-0.0237982
0.0269419,-0.0234372
0.104375,-0.0135866
0.202679,-0.00453612
0.250209,0.00593229
0.187596,0.00881083
0.0622359,0.0133563
-0.0376153,0.0265855
-0.0952546,0.0170608
-0.12688,-0.0057951
-0.157463,-0.0124691
-0.16051,-0.00610788
-0.111482,-0.00679492
-0.056865,-0.00375885
-0.0282836,0.00319176
-0.0177895,0.00770356
-0.0142892,-0.000128971
-0.000959022,-0.00291265
0.0135485,-0.00276993
0.0224008,-0.012097
