Comp Ch 3,Comp Ch 4
0.0557251,0.0114842
0.0348395,0.00409383
0.0255342,0.0107204
0.00253851,0.0249696
-0.0270378,0.0173612
-0.0396703,0.0104361
-0.0366323,0.00671648
-0.0280276,-0.0171896
-0.0227372,-0.0320223
-0.0279882,-0.0150616
-0.0202338,-0.00276633
0.0239073,0.0124225
0.04542,0.0277115
0.0500881,0.0335586
0.0546572,0.0245142
0.044515,-0.00103537
0.0208187,-0.00744721
-0.00361001,-0.00529537
-0.0261131,-0.0317511
-0.0245153,-0.0182159
-0.0232305,0.0087533
-0.0379292,0.00708571
-0.0482512,-0.00349565
-0.0332733,0.00126806
-0.0137518,-0.0128713
-0.00486378,-0.00682854
0.00368916,0.00288211
0.0121575,0.016267
0.0180313,0.015174
0.020863,0.0121202
0.0180417,0.0160243
0.004635,0.00246705
-0.00547329,-0.0274962
-0.00344105,-0.0239343
-0.00342289,-0.0169081
-0.00209962,-0.00834017
-0.00631116,-0.000299346
-0.0208405,0.00593609
-0.0233787,0.0190831
-0.0201136,-0.00792457
-0.00521049,-0.0137537
0.00900365,-0.00892077
0.0159465,-0.00457872
0.0111994,0.0117401
0.00520095,-0.00477815
0.00693287,-0.00199053
0.0162741,0.0286844
0.0235278,0.0313689
0.0215375,0.0177555
0.0204349,-0.00566653
0.0149284,-0.0107182
0.00837212,-0.0109411
0.00388238,-0.00396505
-0.00329656,0.00614824
-0.00870623,0.0134058
-0.0138742,0.00783678
-0.0132127,0.00561372
-0.0114268,-0.00321899
-0.0124214,-0.0170486
-0.00920199,-0.0145089
-0.00667186,-0.00193376
0.00286156,0.00216357
0.0235139,0.000479129
0.0103798,0.0110252
-0.0167616,0.0151677
-0.00354064,-0.00468769
0.00387289,-0.0396399
0.00868996,-0.0239211
-0.00142108,-0.00600416
-0.0375636,-0.000324474
-0.0701397,0.010441
-0.0967826,0.0151251
-0.0556041,0.00763146
0.00192038,0.00471938
0.0368724,-0.0110748
0.0751173,-0.0156357
0.104059,-0.00819631
0.0703322,-0.0012491
-0.00549308,0.0102519
-0.108658,0.0141371
-0.108928,0.0166549
-0.0342381,0.00935963
0.0320329,-0.0109851
0.085758,-0.0146643
0.109443,-0.0105333
0.104585,0.000511194
0.0449029,-0.00516353
0.010133,0.0073116
0.000368379,0.0179327
-0.0111131,0.0136695
-0.00940242,0.00453278
-0.0032892,-0.0156885
0.00174432,-0.0210224
0.00241153,0.00516339
-0.00371739,0.0140568
-0.00365185,0.0113754
0.00421703,0.0178619
-0.0112277,0.0208496
-0.030526,0.00745744
-0.0546304,-0.0132605
-0.0803322,-0.0147776
-0.0477536,-0.0109826
0.018631,-5.07e-05
0.0393911,0.0121631
0.00311906,0.00930682
-0.0275103,-0.011939
-0.0224669,-0.020017
0.00646797,-0.00809045
0.0220395,0.0223335
0.0199543,0.0257594
0.0184769,0.0220171
0.0140701,0.00951777
0.0109238,-0.0071875
0.00644557,-0.0269407
0.000862273,-0.0513554
-0.00229681,-0.0557719
-0.0115627,-0.0306515
-0.0162149,-0.0245325
-0.0161472,-0.0109684
-0.01145,0.0258454
0.00101355,0.0477702
-0.00991142,0.0571878
-0.0260365,0.0428464
-0.0222392,0.010026
-0.0233418,-0.0079187
-0.0100747,0.00350878
0.0184665,0.0108389
0.0501345,0.00221627
0.0645441,-0.00616861
0.0482981,-0.0118336
0.0301491,-0.0273342
0.00837791,-0.0428604
-0.0293167,-0.0512779
-0.0428168,-0.0356616
-0.0189489,-0.0189828
-0.018283,0.0140599
-0.0305975,0.0420716
-0.0050899,0.0494789
-0.00529944,0.0373839
-0.012991,0.0225354
0.00696331,0.000672132
0.00688819,-0.00599293
-0.0373504,0.00786029
-0.0500018,0.00822786
-0.0163785,-0.000771397
0.0301308,-0.000543053
0.0444377,-0.00589242
0.0402273,-0.032269
0.0305735,-0.0445406
0.0134819,-0.0151467
0.00209972,-0.050638
-0.00107807,-0.0201661
0.000431034,0.0329086
0.00110094,0.0368376
0.00276492,0.0358266
0.00352157,0.0382217
0.00643577,0.0255773
0.00757682,-0.000616609
-0.00165145,-0.00476529
-0.0114109,0.0097087
-0.0187852,0.00860534
-0.0187234,0.00372265
-0.0188604,0.00275186
-0.013403,-0.0120139
0.00947735,-0.0358302
0.0249598,-0.0412833
0.0269609,-0.020414
0.0185279,-0.0112594
0.00360798,0.000759622
-0.00586318,0.0154291
-0.011395,0.0145928
-0.0197843,0.0107528
-0.00715307,0.0297276
-0.00243783,0.0116935
-0.00860302,-0.00421091
-0.00927734,0.00424278
-0.00100434,0.00846839
0.00927789,0.00673544
0.00589817,0.00776724
0.00108307,0.0123272
-0.0023189,-0.0110074
0.0103934,-0.0318028
0.0167988,-0.0284471
0.0194985,-0.0116736
0.0187732,-0.00658579
0.0101957,0.0072744
-0.00164479,0.0226349
-0.00941005,0.0168881
-0.0128437,0.0108312
-0.0151418,0.00558742
-0.00616824,-0.0130748
-0.00799651,-0.0151763
-0.0199671,-0.00233116
-0.0286114,0.0024892
-0.0339629,0.000504999
-0.0348179,0.00104117
-0.010914,5.21e-05
0.0204952,-0.0135339
0.0212271,-0.0305976
0.000378189,-0.0211645
-0.00324203,-0.0104535
0.0109763,-0.0026801
0.037086,0.0112498
0.0597344,0.0256052
0.0611257,0.034632
0.0334037,0.0280882
-0.0014661,0.00585731
-0.0307956,-0.0127453
-0.0300786,-0.0121822
-0.0153363,0.00226251
0.000452139,0.00341936
0.00495563,-0.00183888
-0.0185501,0.00326099
-0.0449616,-0.00664112
-0.0460975,-0.0185103
-0.031112,-0.0320106
-0.0261092,-0.0207133
0.00473777,-0.00612831
0.0321527,0.00296278
0.0315296,0.0186775
0.0377902,0.0235572
0.0548493,0.0273957
0.0512662,0.0300568
0.0162762,0.00962984
-0.0142056,-0.0118333
-0.0119729,-0.00991797
-0.0096439,0.00335875
0.00094034,0.000684666
0.00942173,-0.00295732
-0.0218338,0.00848291
-0.130202,0.00423857
-0.17252,-0.0247619
-0.112326,-0.0177247
-0.0074597,-0.0218372
0.0690651,-0.0210501
0.130027,-0.0131859
0.164238,0.0126686
0.0941488,0.0378242
0.0120596,0.0264074
-0.00838146,0.0147449
-0.0117457,-0.0120349
-0.00992361,-0.0211966
0.0104043,-0.00170113
0.0241713,0.00747379
0.0241404,0.00609456
0.0193337,0.0060498
0.0106053,0.00827159
0.00780743,0.00174661
0.000112231,-0.0196655
-0.0158373,-0.0189614
-0.0319759,-0.0135794
-0.0349255,-0.00153536
-0.0376737,0.012773
-0.0391187,0.0163092
-0.0351748,0.0164419
-0.0309906,0.0180776
-0.0329054,-0.00229893
-0.0257984,-0.0292779
-0.0195362,-0.0271376
-0.0104496,-0.00852955
0.00322663,-0.00664937
0.0100983,0.00826835
0.00821734,0.0139043
0.0138169,0.0111727
0.0282301,-0.0120228
0.0378064,-0.0230442
0.0251239,-0.00123538
0.00724498,-0.00614361
-0.00827334,-0.00863324
-0.0160825,0.0102773
-0.0187642,0.02098
-0.00321517,0.0254957
-0.00322047,0.0281714
-0.00841252,0.00790496
-0.00298668,-0.013969
0.00336688,-0.00832138
0.00611113,0.00415505
0.0084287,0.00194236
0.0220325,0.01148
0.0410892,0.0125657
0.0442353,0.00102184
0.0328336,-0.0189316
0.0155152,-0.0219329
-0.00568969,-0.0111
-0.0227919,-0.00548583
-0.0171294,0.00353672
-0.00376914,0.0135249
-0.00710253,0.0152354
-0.0177653,0.0165119
-0.0189414,0.012349
-0.0194338,-0.012396
-0.0231909,-0.0300281
-0.0180694,-0.0246305
-0.00550063,-0.00175224
0.0109932,0.0196052
0.012966,-0.000129929
0.0101636,0.00379168
0.015488,-0.00254781
0.0200297,-0.0198213
0.0197203,-0.0161203
0.0152385,-0.00565118
-0.00120371,-0.000303643
-0.0180468,0.0107316
-0.0209239,0.0216019
-0.015254,0.0168465
-0.0183117,0.0140871
-0.0197994,0.00732043
-0.00719615,-0.0234522
0.00127925,-0.0188971
0.00188144,0.0155063
-0.00153488,0.00673659
-0.0106943,-0.00849885
0.00251004,0.0258185
0.0214546,0.0180298
0.0238088,-0.0113787
0.0265185,-0.0200744
0.0210971,-0.0145764
0.0121855,-0.0127975
-0.0033323,-0.00608518
-0.0191155,0.00730318
-0.0278598,0.00961989
-0.0268845,0.0167835
-0.0130154,0.0183477
0.0027187,-0.00832094
0.0117158,-0.0198744
0.0132705,-0.00785804
0.00608121,-0.00512016
-0.0163407,-0.00572182
-0.0431311,0.0120508
-0.0513367,0.0283465
-0.026809,0.0200072
0.0152195,-0.0158688
0.0460748,-0.0272534
0.0536059,-0.0160294
0.049666,-0.0142453
0.0176677,-0.0116048
-0.0191768,0.00584081
-0.017874,0.0133324
-0.011782,0.00316597
0.00249485,0.0116176
0.0146057,-0.000630595
0.00839998,-0.00570145
-0.000249063,0.00270866
-0.0148401,0.00818405
-0.00852028,0.00920003
0.0271975,0.00202341
0.0720489,0.00683435
0.0894748,0.00520496
0.0608039,-0.0152914
0.035908,-0.0260872
0.00113207,-0.0112333
-0.045544,0.000109082
-0.0812257,0.0120159
-0.0899464,0.0177664
-0.0823789,0.00964116
-0.0690953,0.0170096
-0.0471505,0.00100402
-0.0253938,-0.0179119
-0.0146318,-0.0117892
-0.00209944,0.00642635
0.0119818,0.0155542
0.0233664,0.0163885
0.0298829,0.0169169
0.0273242,-0.00871097
0.0241164,-0.0304376
0.0148656,-0.0327916
-0.00377608,-0.0315218
0.0037853,-0.0391179
0.0224576,-0.00363022
0.0100942,0.0328828
-0.000266103,0.027847
-0.00424686,0.0151197
-0.00600004,0.0167189
0.0047073,0.00663214
0.0160551,-0.00707488
0.0159397,-0.00737563
0.0178686,0.0126668
0.0111289,0.00640917
-0.0264672,-0.0044884
-0.0452301,0.0148591
-0.0337252,0.0312453
-0.0282866,-0.00701391
-0.0259015,-0.0277036
-0.000853618,-0.0213425
0.0351664,-0.0147535
0.0440319,-0.00251039
0.053063,-0.00392232
0.105309,0.0063022
0.129253,0.0271836
0.079282,0.015118
0.00699031,-0.0166797
-0.0586015,-0.0183646
-0.092566,0.0010258
-0.0932213,0.00555644
-0.0758903,0.0108792
-0.0604321,0.0240703
-0.0377361,0.00954015
-0.0100661,-0.0104298
0.00731677,-0.0242516
0.0141315,-0.0266063
0.0131339,-0.0218882
0.00657945,-0.0266408
0.00970602,0.012453
0.0158815,0.00948045
-0.00238299,0.0040717
-0.0173738,0.0146675
-0.00905466,-0.000562821
-0.00617511,-0.00233955
-0.0288722,-0.0043375
-0.0257539,0.00958245
-0.00705334,0.0253468
0.00261791,0.00806239
0.00593668,0.00942391
0.0129956,0.015593
0.0240239,-0.00315474
0.059387,-0.012348
0.0901045,0.0399978
0.0796892,0.0541104
0.044798,0.0198001
-0.0156464,-0.0359038
-0.0665992,-0.064416
-0.0802832,-0.0311769
-0.0802402,-0.00607844
-0.0567721,-0.010766
-0.0272599,-0.0208164
-0.0108768,-0.00171752
0.00779253,0.0211855
0.014501,0.0205248
0.0218299,0.0163138
0.0355231,0.0167311
0.0704273,0.000672031
0.110535,-0.0272809
0.0880061,-0.0221343
0.0186109,-0.0335513
-0.0359357,-0.0138049
-0.0706981,0.0150487
-0.0719368,0.0137918
-0.0490219,0.026599
-0.01755,0.0273507
0.0121325,-0.000643139
0.0242269,-0.0185981
0.0157594,-0.0154158
0.000348082,0.00625674
-0.0200468,0.0158275
-0.0248138,0.0026146
-0.0299279,0.00139744
-0.0394405,0.0153259
-0.0332861,0.0135868
-0.0227178,-0.027722
0.0220191,-0.0310566
0.0628493,-0.00613746
0.0481675,0.000151076
0.0351643,0.00178479
0.0345191,0.00376925
0.0229989,0.0168083
0.0185161,-0.00338894
0.00158754,-0.00496078
-0.0267324,0.00365444
-0.0353476,0.00253432
-0.0330676,0.00251175
-0.0352923,0.00288234
-0.027443,0.00944993
-0.0167835,0.0165397
0.0124751,0.0205366
0.0517055,0.000606728
0.0631577,-0.0260649
0.0593824,-0.0210814
0.0170049,-0.0169296
-0.0216355,0.00353058
-0.0395406,0.0140104
-0.065446,0.0135688
-0.082053,-0.0104838
-0.0555168,-0.0182915
-0.0138897,-0.00770215
0.00701006,-0.0150068
0.00316293,-0.0085694
-0.0551517,0.020852
-0.0961312,0.0155076
-0.0681195,0.012105
-0.00858807,0.0236522
0.0505894,0.0182798
0.0861048,-0.00313275
0.0986587,-0.0228087
0.114754,-0.0192575
0.110603,-0.0104897
0.0702318,0.000512682
0.0338794,0.0093985
0.00445375,0.0223326
-0.00863536,0.00943319
-0.00502889,-0.0101496
-0.00940287,-0.0373416
-0.0161774,-0.0395977
-0.01183,0.00511632
-0.0206445,0.0148762
-0.0218971,-0.00388745
-0.0127805,-0.0069322
0.00241478,0.0137671
-0.0103423,0.0116489
-0.0365272,-0.00289908
-0.0434623,0.00260841
-0.025038,-0.00248474
-0.0107091,0.0011141
-0.0074434,0.0128761
-0.0115368,0.0178034
-0.0106403,0.0195611
-0.00142652,0.0193614
0.0134921,0.00795568
0.0149439,-0.0270729
0.0175364,-0.0358951
0.0179271,-0.00671557
0.00559572,0.00217608
-0.0083774,0.00108875
-0.0210282,0.0127238
-0.0255054,0.0142542
-0.0232883,-0.00235661
-0.0248053,-0.0109843
-0.025412,0.00110975
-0.0317656,-0.0132628
-0.0270425,-0.00902244
-0.0100888,0.00872764
0.000262578,0.0190887
0.0142691,0.019562
0.0256093,0.0228243
0.0346586,-0.01219
0.0472267,-0.031435
0.0707928,-0.0181602
0.0902159,-0.00475079
0.0720006,-0.00420637
0.0309927,0.00113844
-0.0186076,0.00789462
-0.0663775,0.00266633
-0.0677059,-0.000791597
-0.050542,-0.0170808
-0.0531372,0.00265889
-0.0628107,0.0145371
-0.0384265,0.00669384
0.0155858,0.0218845
0.0486776,0.0220751
0.0712568,0.0139887
0.0936929,-0.00116781
0.081185,-0.020627
0.0444694,-0.020615
-0.00504856,-0.0165974
-0.0525104,-0.0185749
-0.04472,-0.0239597
-0.0222474,-0.00551864
-0.0295737,0.00589424
0.000272534,0.000503309
0.048799,-0.0167357
0.0346544,0.00763552
0.00339867,0.0171595
-0.0177593,0.0138533
-0.0300853,0.0333703
-0.0411905,0.0384875
-0.05715,0.0180425
-0.0786742,0.027214
-0.0662744,0.023321
-0.0489662,-0.0153935
-0.0377492,-0.0381609
-0.00517282,-0.0966758
0.0276459,-0.0373449
0.0161077,0.013035
0.008893,0.00219719
0.031602,0.00448337
0.0396448,0.0116676
0.0392959,0.0103226
0.0493998,0.0116438
0.0398035,-0.00170338
0.0193426,0.0107958
0.0203124,0.0224326
0.063906,0.0258992
0.0821673,0.0122733
0.048614,-0.00643056
0.0214641,-0.0274662
0.0121219,-0.0181409
-0.0114902,-0.00744419
-0.0473798,-0.000973027
-0.0772546,-0.00243842
-0.0769781,0.00248977
-0.0711129,0.00533937
-0.0526538,-0.00066506
-0.0360739,-0.0112277
-0.038401,-0.0180669
-0.0816438,-0.0219645
-0.0791742,-0.00144282
-0.0320609,0.0455714
0.00102877,0.052089
0.0289866,0.0187439
0.0541637,0.000530528
0.0724801,0.000858316
0.064306,-0.0269664
0.0445626,-0.0461994
0.0306937,-0.0396868
0.0342395,-0.0359645
0.0342371,-0.0143208
0.0319253,0.0198361
0.0272296,0.0274865
0.0141872,0.022497
0.00309277,0.0130179
-0.0023158,0.00806328
0.0138583,0.0121325
0.0176549,0.0144287
-0.00110677,0.016574
-0.0237133,0.0087773
-0.0244607,0.0131481
-0.0124018,0.0270295
-0.00949083,-0.00687514
-0.0105526,-0.0119377
-0.011367,-0.0207722
-0.013433,-0.00986165
0.00236526,0.00207471
-0.000762174,-0.0156093
-0.0202875,-0.0288754
-0.028358,-0.0322485
-0.0208306,-0.035231
-0.00701798,0.00661566
-0.0135556,0.00262175
-0.0229218,-0.00342885
-0.0210109,0.00287855
-0.0154935,0.0153592
-0.00633953,0.0264119
0.0024356,0.0194177
0.0108154,0.0125138
0.0235463,-0.000704019
0.0321543,-0.0188622
0.041134,0.00108248
0.030841,0.00392541
0.0129005,0.00840041
0.0182172,0.00719551
0.0309503,0.00831404
0.0124123,0.0164663
-0.00170459,0.00513381
-0.0098622,-0.0121979
-0.0158767,0.00510361
-0.0196713,0.00680757
-0.0224911,0.0138217
-0.02141,0.019364
-0.0179831,0.0109951
-0.0210598,-0.014988
-0.0161231,-0.0115859
0.0096561,-0.0142792
0.0201341,-0.0319699
0.0201517,-0.0428449
0.0204027,-0.0233695
0.0187376,0.0139168
0.0120737,0.00604592
0.009901,0.00921733
0.00866251,0.00988577
0.000761648,-0.00114308
-0.0086373,-0.00293741
-0.0127815,0.000908177
-0.0117454,0.00776212
-0.0161786,0.0107774
-0.0182012,0.0229504
-0.0141611,0.0314016
-0.0156521,0.00448849
-0.0110166,-0.0117399
-0.00235088,-0.0248694
-0.00205592,-0.0273489
-0.0260106,-0.0156614
-0.02687,-0.00836988
0.00418951,0.00497235
0.0341251,0.00631932
-0.00550018,0.00575543
-0.0149468,-0.00126429
0.0156008,-0.0451596
0.0253385,0.00919783
0.00875334,0.0279266
-0.00199906,0.0170146
-0.00596735,0.0103081
-0.00758267,0.026983
-0.0135349,0.0188415
-0.00547158,-0.0153684
0.0261957,-0.000356697
0.05103,-0.00833906
0.0346736,-0.0181031
0.00775193,-0.0211144
-0.0195256,-0.0201406
-0.053054,-0.00439173
-0.0529526,0.0224343
-0.0223623,0.0227493
0.0207291,0.00485942
0.0359087,-0.000900842
0.0203083,0.01189
0.0286472,0.000807694
0.0240674,-0.0206914
0.00360209,0.00926932
-0.00994819,0.00140297
-0.0142592,-0.0104452
0.0081785,-0.00369387
0.0251376,-0.0364618
0.0321006,-0.0123653
0.0174434,0.00907916
0.00723563,0.020573
0.000805674,0.0100516
-0.00887308,0.0124378
-0.0239945,0.0206548
-0.0352594,-0.00172185
-0.0407495,-0.0111015
-0.0355697,-0.0639475
-0.00921892,-0.0198755
0.000741911,0.0272953
-0.0107811,0.0187629
-0.0207689,0.0108054
0.00126397,0.0331323
0.0194133,0.0161672
0.0107866,-0.00326963
0.00338539,-0.0235156
0.0238734,-0.0237001
0.0273787,0.0119003
0.0130496,0.017744
0.00819312,0.0038511
0.00921488,-0.00466718
0.0111049,0.015393
0.00447926,0.0149675
-0.00302175,-0.0108502
-0.00566163,-0.0142208
-0.0079748,-0.00139975
-0.0151418,-0.00828632
-0.015307,-0.0107243
-0.0112902,0.0303899
-0.0132355,0.0221895
-0.0168297,-0.0302676
-0.000665944,0.000685963
0.00626911,-0.0201487
0.0141469,-0.041132
0.0292931,0.00496358
0.0146048,0.0284602
0.00160338,0.0151786
-0.00178779,0.0174529
-0.0142839,0.00285861
-0.0169591,-0.0186936
-0.00559653,-0.00988687
-0.0107346,-0.0170761
-0.010581,-0.00474989
-0.00851808,0.0286405
-0.00533034,0.0152154
-0.000758925,-0.00170835
0.00793391,0.00474584
0.00860481,0.0038914
0.00461155,-0.0197307
3.3e-05,-0.0273051
0.00383261,-0.00148183
0.00916122,0.000678746
0.00761528,-0.0134429
-0.00247273,0.0107575
-0.00123891,0.000403078
0.0095832,-0.000424127
0.0103295,0.00113936
-0.00266237,-0.0230585
-0.0174769,0.000284934
-0.0626932,0.0154085
-0.0985931,0.0206966
-0.0556364,0.0230894
0.000732991,0.0153471
0.0361334,0.00994954
0.0593255,0.00365887
0.0811774,-0.0113981
0.0672735,-0.01485
0.0140272,-0.00361709
-0.0163531,-0.00324052
-0.0257797,-0.0242452
-0.00674965,0.00270835
0.0240863,-0.000429368
0.0320746,0.00927304
0.00505502,0.00292882
-0.0459145,-0.00176498
-0.0572705,-0.00693704
-0.0210225,0.00018021
0.0212482,0.0210437
0.0407524,0.028764
0.0424544,0.035462
0.0302899,0.00354205
0.0280305,-0.0305037
0.0203955,-0.0282067
0.00593436,-0.0160079
-0.0125748,0.000993696
-0.0211923,-0.00112583
-0.025693,-0.0100982
-0.0290707,0.000783173
-0.0301132,0.0318023
-0.0205416,0.00640223
0.00491794,-0.0174354
0.00534468,-0.039671
0.00176667,-0.0253907
0.00665882,0.00400881
-0.00995025,0.0137484
-0.00382278,0.0182187
0.0103393,0.0179522
0.0106355,0.0134652
0.00757171,0.00335469
0.00735319,-0.0082783
0.0234134,-0.00405159
0.0274833,0.0102127
0.0207824,0.00425897
0.0136993,-0.0167872
0.00189691,-0.0261168
-0.0151166,-0.0134772
-0.00992177,-0.0328799
-0.0139887,-0.0230675
-0.0197454,0.0377111
-0.0436857,0.0420599
-0.0417132,0.0137212
-0.0135367,0.0231533
-0.00745975,0.0146127
-0.0348164,-0.0119836
-0.0634279,-0.0260664
-0.0383828,-0.0368251
-0.0287529,-0.0348414
-0.0310173,-0.0151192
0.00785962,-0.00270911
0.0717039,0.0349418
0.0961833,0.0465501
0.0786811,0.0376151
0.057437,0.0230713
0.0382704,-0.00340338
0.0164556,-0.0105648
0.00900764,-0.00905274
0.00494921,-0.00662477
-0.00352155,-0.00439031
-0.0100618,-0.00907818
-0.0144395,-0.0351858
-0.0182386,-0.0196898
-0.0101454,0.0208224
-0.0107897,0.0035912
-0.00964382,0.00243441
-0.00302625,0.0138951
-8.5e-05,0.00766474
0.00249057,0.00921969
0.00129649,0.0232201
-0.00798058,0.0169118
-0.00732373,-0.0208202
0.00401182,-0.0163886
-0.00956859,-0.0100048
-0.0205556,-0.014833
-0.0102547,-0.00264606
-0.0172252,0.000769342
-0.0251764,-0.0197494
-0.0155782,-0.0124229
0.0044923,0.00406255
0.00234265,-0.0174416
-0.00103549,0.018659
0.00715917,0.0345267
0.0104453,0.00547996
0.00600442,-0.0260256
0.0110187,-0.00762984
0.00869832,0.0227716
0.00269876,0.0141564
0.00158972,-0.0321624
-0.0118214,-0.0714156
-0.000627352,-0.00755992
0.0207373,0.0085589
0.0090007,0.0358837
-0.00121119,0.0543201
0.000818733,0.0381883
-0.00452206,0.0201076
-0.00489342,0.00725673
0.0107643,-0.00417579
0.0170665,-0.0328649
0.00283699,-0.0104948
0.000234006,0.0170341
0.0128871,0.0242305
0.00254736,0.00158341
-0.0264194,0.000819844
-0.0306015,0.00715943
0.00710423,0.00672534
0.0152884,-0.0343729
-0.00413366,-0.0202932
-0.0132646,0.00840372
-0.040355,0.0114639
-0.0665729,-0.0048919
-0.0656102,-0.0574137
-0.0281749,-0.00155329
0.0368462,0.0430158
0.0854427,-0.0140875
0.0778909,-0.0167526
0.0223705,0.000292943
0.000123268,0.0051778
0.00268171,0.0144141
0.00143412,0.00612957
-0.0360498,-0.00757277
-0.0698441,-0.00761292
-0.0278124,0.00472163
0.0190047,0.00986906
0.0428839,-0.0120521
0.0126986,0.00756522
-0.00663894,0.0214818
0.000733512,0.00956312
0.00121801,0.00928
0.00901254,-0.0225149
0.0239333,-0.0737814
0.0499004,-0.0810278
0.0581641,0.0296854
0.0404431,0.0751825
0.0320983,0.0379579
0.0108836,-0.00296722
-0.00174115,0.00268837
-0.027527,0.0209911
-0.0516906,-0.00406553
-0.0265124,0.000302335
0.00403413,0.0117607
0.0060465,-0.0101048
-0.0235398,-0.0236559
-0.0345216,-0.00430564
-0.0126951,-0.0156866
-0.00811635,-0.0431048
0.01332,0.0200561
0.0189698,0.00750846
-0.00164164,-0.0285278
-0.0526907,-0.0152016
-0.0774346,0.0172404
-0.0554491,-0.00125663
-0.00473377,0.00171489
0.0365842,0.0288897
0.0482298,0.00589498
0.0483292,-0.00588248
0.0337513,0.00327355
0.0130231,0.0142565
0.0129833,0.0312129
0.0102564,0.0123042
-0.0307538,-0.014845
-0.0508777,0.00116132
-0.0354128,-0.00371715
-0.00754727,-0.00339223
0.0225378,0.00203548
0.0260085,0.00131629
0.0254329,0.00127838
0.00715043,-0.000557113
-0.0196458,-0.0185236
-0.0240849,-0.0640858
0.0072515,-0.0147844
0.0338103,0.0216748
0.0226629,-0.0195785
0.0307227,0.0283268
0.0149311,0.0433073
-0.00349686,0.0335505
0.026511,0.0273132
0.0610364,0.0116828
0.0329131,-0.0368549
0.00488463,-0.0112019
0.0188744,-0.0218932
0.0207902,-0.00135455
-0.0160692,0.00968506
-0.0762426,0.017079
-0.0780313,0.0277034
-0.0529513,0.0110254
-0.0966585,-0.015133
-0.257548,-0.0572977
-0.302207,-0.026815
-0.247907,-0.0217243
-0.154684,0.0185022
0.055451,-0.00993404
0.244414,-0.0259573
0.36127,0.0612843
0.388482,0.0483947
0.290676,0.028156
0.173075,0.00649293
0.07447,-0.055862
-0.0179877,-0.0285461
-0.0932749,-0.0199071
-0.0952265,-0.0180804
-0.0561936,-0.000816908
-0.0013833,0.0310173
0.016832,0.0541417
0.0257323,0.0301536
0.0615614,-0.0137612
0.0447865,-0.0398174
-0.000409798,-0.110521
-0.0175528,0.000778957
-0.0344114,0.0719242
-0.173054,0.043776
-0.302339,0.0156191
-0.308659,0.00492976
-0.284185,-0.00292622
-0.166782,-0.0134237
0.000112528,0.00482877
0.122548,0.0103794
0.203666,-0.00989815
0.249421,-0.0566463
0.265137,0.0155997
0.239071,0.0588753
0.12367,0.0125954
0.0319943,0.00800417
0.026552,0.0288924
0.00608378,0.0460396
-0.0508253,0.00907945
-0.0531379,-0.010976
-0.0358604,-0.00595579
-0.0390706,-0.0128902
-0.0210904,-0.0146139
0.0124889,-0.0232869
0.0353031,-0.0278063
-0.0120889,-0.0351793
-0.127058,-0.0330972
-0.137561,-0.049274
-0.0831453,-0.0357985
-0.0170611,-0.00919279
0.0795896,-0.00287889
0.118252,-0.0242881
0.0525041,-0.0220762
0.00969225,-0.00591117
-0.0654301,-5.04e-05
-0.153189,0.0644581
-0.132529,0.0785003
-0.0803262,0.0559952
-0.053943,0.0357487
-0.0246203,-0.00226952
-0.0324983,-0.0347475
-0.0807353,-0.0336377
-0.009706,-0.010035
0.0773146,0.0189054
0.140532,0.0454893
0.166081,0.0218707
0.127982,-0.0207205
0.0605445,-0.0532086
0.0387782,-0.0245832
0.0318329,0.0224719
0.0113662,0.0262629
-0.00925636,0.0145114
-0.0102892,0.0134936
0.0154254,0.00758559
0.0249675,0.00239009
-0.000346618,-0.00255127
-0.0307083,-0.0397742
-0.0635675,-0.102605
-0.0670202,-0.107721
-0.0409415,7.44e-05
-0.0155845,0.0804967
-0.0120493,-0.00530403
0.0164743,-0.00454869
0.012301,0.0799199
-0.013315,0.0339755
-0.00548491,0.00915234
-0.00582052,0.00252246
-0.0050679,0.0130699
0.0147768,0.0175843
0.0463249,0.0173306
0.0679375,0.000200567
0.0816624,-0.0226592
0.0289773,-0.0377738
-0.0318875,-0.0266736
-0.0298013,-0.0246554
-0.0240874,-0.0173136
-0.0327869,0.00888772
-0.0464473,0.00467396
-0.0545892,0.013088
-0.0501401,0.0211417
-0.0418886,0.0207777
-0.0185437,0.00744103
0.000859985,0.0118397
0.0102021,0.0142788
0.0106971,0.0126012
0.0319264,0.0138382
0.0516363,0.0116175
0.0723897,0.00869315
0.0870264,0.00648657
0.0830656,0.00656813
0.0563858,-0.01139
0.0111872,-0.0269802
-0.0105237,-0.00817773
-0.0339658,-0.00789787
-0.104777,-0.0218613
-0.226374,-0.00985186
-0.221966,0.00194872
-0.10657,0.00438174
0.0616252,0.00251722
0.131719,0.00688434
0.0744308,0.00515771
0.0382565,0.0354673
-0.0135473,0.0400336
0.0258196,0.0235042
0.121066,-0.00790152
0.099648,0.0214693
0.0324822,0.0151031
0.0271039,-0.0232448
0.00424604,-0.0629991
-0.0182162,-0.0881395
-0.013266,-0.0103471
-0.0234499,0.0123582
-0.0329526,-0.00853765
-0.0333113,-0.00780451
-0.0392413,-0.0232785
-0.0418868,-0.0175564
-0.0292301,-0.020714
0.00994828,-0.00555833
0.122201,0.0252635
0.14646,0.0222208
0.0322184,0.0085803
-0.0612587,0.0105673
-0.128298,-0.00140056
-0.184395,-0.0259767
-0.151552,0.00764363
-0.0525033,0.0434571
0.0554882,0.0286487
0.126253,0.0269219
0.129435,0.0171609
0.114832,-0.00391958
0.0603708,-0.0270367
0.00484617,-0.0264508
-0.0277169,-0.00426513
-0.0342369,-0.0120673
-0.0445584,-0.029269
-0.0509954,-0.0116062
-0.0188381,0.0269555
0.00315485,0.0142099
0.00681682,-0.0106962
0.000668348,0.0213303
0.00378758,0.0256697
0.00356139,0.00773427
-0.014422,0.000323497
-0.0225329,-0.00506113
-0.00275862,0.00390636
0.0299123,0.0128901
0.0375111,0.00139716
0.0263757,-0.0239049
0.00733218,-0.0271266
-0.0295984,-0.0137922
-0.0480291,-0.00536706
-0.0394199,-0.00659115
-0.0150009,0.00894322
0.0108522,0.0299641
0.0200268,0.0200329
0.018364,-0.0199646
0.00406864,-0.0350465
-0.00341844,0.00671715
-0.00311264,0.0162414
0.00458895,0.00797227
0.0118712,-0.000796054
0.00277142,0.00814731
-0.0189291,-0.00280934
-0.0104518,-0.00818552
0.000221333,-0.0185979
0.000990712,-0.0400111
0.0130594,-0.0183971
0.0167958,0.0195996
0.0105333,0.026115
-0.0125554,0.021298
-0.0333758,0.0227881
-0.0138765,0.0244145
0.0202742,0.00683775
0.0404053,-0.00534752
0.0299959,0.00261923
-0.00276886,0.024032
-0.0125276,0.0124449
0.00584728,0.00921494
0.0200255,0.000149683
0.0234544,-0.0158364
0.0133773,-0.0283468
-0.0104226,-0.0378596
-0.0426085,-0.0619048
-0.118317,-0.040063
-0.184043,0.00589193
-0.119503,0.0476764
-0.0046655,0.0384808
0.102177,0.0223701
0.168648,0.0189506
0.161856,0.00274361
0.105797,-0.00814061
0.0340647,-0.000202001
-0.0239551,0.0103865
-0.0545147,0.0171333
-0.048603,0.0118071
-0.00738424,0.00351694
0.0278349,-0.013329
0.0283976,-0.0299035
0.00935099,-0.0275858
-0.0195415,-0.0326223
-0.0563112,-0.0466749
-0.0715553,-0.00624713
-0.0541013,0.0208235
-0.021171,0.0105763
0.0265789,0.0124594
0.0601406,0.0259416
0.048016,0.0175114
0.0303286,0.0105156
-0.0144175,0.0278588
-0.0492006,0.0275816
-0.0384197,0.00230667
0.00848924,0.00363287
0.0122703,-0.0016969
0.003306,-0.00684976
0.00319415,-0.0110405
0.0163324,-0.0144594
0.011865,-0.0277199
-0.000145013,-0.0451393
-0.0109292,-0.0222216
0.000674831,0.019521
0.0113494,0.0176037
0.00625484,0.00700887
-0.00140812,0.0107358
-0.00221004,0.00852297
-0.0111657,0.00241075
-0.019789,0.01609
-0.0119833,0.014362
-0.00944737,-0.00256299
0.00222295,0.0128884
0.016569,-0.0194052
0.0205208,-0.0395525
0.0129411,-0.0291983
0.0107057,-7.45e-05
0.0122943,0.00145481
-0.0242053,0.00419555
-0.0249012,0.00546308
-0.00928959,-0.00282806
0.0162273,0.00166225
0.0175536,0.0276866
0.0134103,0.0267948
0.000878752,0.00881758
-0.016596,-0.0121869
-0.019531,-0.0023033
-0.0106008,0.00913625
0.00888866,0.0227478
0.0204105,0.0102654
0.0257451,-0.00670554
0.0226911,-0.0243022
-0.00233199,-0.0315316
-0.00734302,-0.0379575
0.0153049,0.00411958
0.00540911,-0.0252957
-0.0199978,-0.0221412
0.0029393,0.0369676
0.0229006,0.0433023
-0.0259924,-0.00581687
-0.0493106,0.00334111
-0.0277298,0.00454993
-0.0115043,0.00253274
0.00290074,-0.0262761
-0.00966868,0.00186847
-0.0310721,0.0204714
-0.00402977,0.038108
0.0316687,0.0160261
0.039419,-0.0233468
0.034379,-0.0389205
0.018946,-0.0335442
0.0286126,-0.00686697
0.0352437,0.0312909
0.0108234,0.0203358
-0.0181404,0.010782
-0.0256417,0.000463837
-0.0239172,0.00743861
-0.0187876,-0.00427097
-0.00747712,-0.0168336
-0.00359688,-0.00752723
-0.00689694,0.00870614
0.00237592,0.00721074
0.0104446,0.00363833
0.0105504,-0.00635993
0.011191,-0.0222405
0.00992414,-0.0176124
-0.011799,-0.00277679
-0.0766363,0.00682026
-0.121096,0.0122085
-0.0913205,0.0163177
-0.0223335,0.0068171
0.0168588,-0.0242091
-0.0105003,-0.034255
0.0111572,-0.0201888
0.0668677,0.0121752
0.079855,0.0279164
0.0557906,-0.00505307
0.0503596,-0.0160682
0.0469424,0.0145244
0.0243253,0.0192424
-0.0492525,-0.00102931
-0.101277,-0.0138993
-0.0717318,0.0153427
-0.0161148,0.04967
0.0328465,0.0247129
0.0346125,0.00747318
0.0659737,0.0176702
0.0863665,0.011499
0.0109455,-0.0215167
-0.0156423,-0.0422299
0.00278222,-0.0499663
0.0230357,-0.0132173
0.021671,0.0433835
0.0028596,0.0130616
-1.36e-05,0.0186609
0.00400911,0.0159867
0.0180732,-0.00507128
0.0195053,0.000252516
0.00822227,-0.00601599
0.00385517,-0.0015623
0.00454159,0.00183684
0.0123125,0.00496301
0.00654652,0.0113111
-0.000936917,0.0110228
-0.00039722,-0.0152944
-0.015234,0.0017108
-0.0466628,0.0149517
-0.0575331,-0.0215795
-0.0520705,-0.0358628
-0.0413875,-0.0190114
-0.0247454,-0.00674812
-0.0138197,-0.000315526
-0.0124401,0.00553974
-0.0070434,-0.00128762
0.00661332,-0.0169286
0.0218256,-0.0197068
0.0272472,-0.004637
0.0227827,0.00183053
0.0162978,0.00631764
0.00318175,0.00960135
-0.00673973,0.0129148
-0.00925419,0.0140568
-0.00990938,0.0120927
-0.00286177,-0.00326582
0.00609789,-0.0116894
0.00489585,-0.00604629
-0.00672018,-0.00179864
-0.0122599,0.00294845
-0.010383,0.00493559
-0.00951776,0.000168153
0.00545096,-8.04e-05
8.92e-05,-0.0168184
-0.0020828,-0.029803
-0.00268018,-0.0168372
-0.000805574,0.0203207
0.0092312,0.0442726
-0.0115202,0.00935917
-0.0755366,0.0138721
-0.108583,0.0160864
-0.0464987,-0.0194172
0.0332019,-0.0410779
0.0699454,-0.00965036
0.0987416,0.00809582
0.0976587,0.00402171
0.0545817,0.0236471
0.0131535,0.0116696
-0.00259714,-0.00639372
-0.00425265,0.00666116
-0.0073678,0.011611
0.005682,-0.00906083
0.0285055,-0.0108864
-0.0103034,0.00270064
-0.0468583,0.00625846
-0.0228343,0.0139141
0.0089952,0.0168385
0.0300058,0.0121882
0.0496835,0.00143225
0.0410558,-0.0156203
-0.000870587,-0.00561382
-0.0422093,-0.0170592
-0.0608419,-0.0192287
-0.0550076,-0.0014736
-0.0291304,0.00982742
-0.0433435,0.00718962
-0.090276,-0.00947316
-0.0788911,-0.0211646
-0.00555331,-0.0138684
0.0663927,-0.0312658
0.0994679,-0.0267402
0.108759,0.0398795
0.0818148,0.0374471
0.0395083,0.0163989
-0.00168493,-0.0053381
-0.0197382,-0.0283646
-0.0116332,0.00623465
-0.0112701,0.00228193
-0.0127804,0.00422502
-0.012527,0.0154474
-0.0106712,0.0151822
-0.00866464,0.0153568
-0.00300058,0.00331443
0.00992545,-0.0082156
0.0176968,-0.00510241
0.0164124,-0.00509513
0.0195553,-0.00670966
0.0166642,0.0132041
-0.0169806,0.0168666
-0.0552524,0.0124357
-0.0545964,0.00386489
-0.0437138,-0.0148985
-0.0338133,-0.0249007
-0.0306335,-0.0185331
-0.0320614,0.0146815
-0.0179209,0.00946625
-0.0070718,-0.00298161
-0.00363908,-0.00520648
0.0105244,-0.00909342
0.0506597,-0.0122875
0.0643826,-0.0133581
0.0383546,-0.00017393
0.0268827,0.00850741
0.0144996,0.00527191
0.0024047,0.0020536
0.000921873,0.00193969
-0.00165765,0.00321049
-0.00620865,0.0122811
-0.00697913,0.00320928
-0.00784521,-0.0168531
-0.0112452,-0.0390312
-0.00926737,-0.0114329
-0.00726079,-0.0169269
-0.00482303,-0.0127449
0.00509938,0.0315679
-0.00379523,0.0168068
0.00955383,0.0141826
0.0359907,-0.0191883
0.0179265,0.0189387
-0.0389845,0.0275038
-0.0597422,0.007146
-0.0451422,0.00195534
-0.0150802,0.00582834
0.00099626,0.00470023
0.00671861,-0.001944
0.0112372,-0.00808815
0.00882724,-0.0145061
0.00660121,-0.000493268
0.013374,-0.0208759
0.0219074,-0.0176355
0.0266821,0.0113045
0.032583,0.0329452
0.0387672,0.0258018
0.0200385,-0.00115534
0.00201634,0.00930533
-0.0119751,-0.0104186
-0.0133757,-0.0249388
-0.0110201,0.0013894
0.00216588,-0.00281509
0.000172084,0.00252495
-0.00632049,0.0111703
-0.0173841,-0.00217928
-0.038606,-0.0290255
-0.0316542,-0.0218745
-0.00523095,0.00603767
0.0150061,0.0108576
0.0293973,0.0097506
0.0227425,0.00610258
0.0119112,0.00881128
0.0142148,-0.00989671
0.0184124,-0.0136179
0.0169514,0.00658867
0.0128916,0.0107518
0.018566,0.00678443
0.0159494,0.00577711
-0.0137871,-0.00241905
-0.0577555,0.0075358
-0.0807313,0.0111847
-0.0721535,-0.0114808
-0.0537746,-0.0112621
-0.086824,0.00694849
-0.0901825,0.00823806
-0.0268841,0.00280304
0.0168668,-0.000927465
0.0701801,-0.00243384
0.103552,-0.00455034
0.093337,-0.00894518
0.065801,-0.00729817
0.0254909,-0.00649434
0.0011135,-0.00303192
0.00592182,0.00156045
0.0111315,0.00369715
0.0262809,0.00247629
0.0464034,0.00737321
0.0368292,0.0134605
0.0203692,0.00176408
0.0411636,-0.0140097
0.0234489,-0.0116204
-0.0415466,0.00721202
-0.0816692,0.0159922
-0.0421863,0.0146424
-0.00362744,0.00496167
0.00931298,-0.0151391
0.00729908,-0.0294889
-0.00379142,-0.0310111
-0.0243302,-0.0490261
-0.0393588,0.014818
-0.0151679,0.0378755
0.0105522,0.0252763
0.0180098,0.0183971
0.0124808,0.0135908
0.00874024,0.00713888
0.0030576,-0.00985983
-0.00110486,-0.0195914
-0.00398547,-0.011087
-0.0152789,-0.0090921
-0.0115903,0.00342145
-0.00906923,0.0175918
-0.020761,0.00453894
-0.0203304,0.000820265
-0.00770859,-0.00424219
0.0011882,-0.00339404
0.00252101,-0.00217461
-0.00437452,0.00235155
-0.0063333,0.00595498
-0.000660166,0.0073421
0.0146871,0.00870784
0.0241,0.00178706
0.0119923,-0.0164327
0.00292322,-0.0121054
-0.00449533,-0.00652391
-0.0194428,-0.010665
-0.0164283,-0.00593406
0.000828336,0.0227578
-0.00272548,0.0151567
-0.0145116,-0.00978189
-0.00247409,-0.00387217
0.00647705,-0.00570449
0.00476506,-0.00558154
-0.00819548,-0.0140712
-0.0144439,-0.00765239
-0.0131955,0.00437825
-0.00978829,0.0142953
-0.010826,0.0339599
0.0103255,0.0248828
0.0390036,-0.0283594
0.0262291,-0.028006
0.0182729,0.00426855
0.025928,0.013951
0.00783822,0.00811816
-0.0155699,0.00355338
-0.0100662,0.0130181
0.00440809,-0.000520427
0.0106976,-0.0240014
0.0121779,-0.0129482
0.0117206,0.00730278
0.00537861,0.00411683
0.000317563,0.00277892
-0.000750292,0.0027428
0.00300944,0.00389553
0.0161163,0.00635735
0.0193388,0.00367607
0.0166991,-0.00813233
0.00539182,-0.010787
-0.00363293,0.00662947
-0.0130472,0.00818785
-0.0173404,-0.00239074
-0.032291,0.00638873
-0.0632241,0.00319012
-0.0556645,0.00244593
-0.0281993,-0.0389865
-0.0274295,-0.0243438
-0.0475255,0.00580478
-0.0264213,0.0242687
0.00873741,0.0163677
0.0207564,-0.0139444
0.052662,0.00801132
0.0725586,0.00750474
0.0590639,-0.00839406
0.0131991,-0.0101428
-0.00363244,-0.00409907
0.0159585,0.00283056
0.0268457,0.00464759
0.0271968,0.0128714
0.00682506,0.0111696
-0.0069038,-0.000587498
-0.00478532,-0.0195357
-0.0150787,-0.0268064
-0.0303355,0.00381768
-0.0332693,0.00844797
-0.0195026,0.00144637
0.0052318,-0.000239786
0.0178478,0.00745309
0.0234111,0.0123214
0.0126024,0.000628573
-0.00442044,-0.015161
-0.0119421,-0.0105752
-0.0131851,0.00406058
-0.01059,0.0133909
0.000578416,0.0101635
0.0019209,0.0103485
-0.00327483,0.0121944
-0.000976097,0.00416006
0.00283557,-0.00886517
0.00840648,-0.00904804
0.0116946,-0.00147108
0.0166922,0.0040146
0.0125102,0.000677602
0.00694428,-0.00474404
0.00118576,0.0014808
-0.00443757,0.00455617
-0.00181989,0.00317385
0.00519389,-0.00952038
0.000869617,-0.0166307
0.000888181,-0.00416862
0.00339611,-0.000579085
-0.00246211,0.00471196
-0.00841478,0.0215689
-0.0272472,0.0073011
-0.044787,-0.0263411
-0.0823307,-0.0901098
-0.14702,-0.0315081
-0.130515,0.0383155
-0.0550963,0.0151065
0.052798,0.0124197
0.117839,0.0457423
0.135704,0.034475
0.0981057,0.00891514
0.0398298,-0.00010458
0.0202693,-0.0275813
0.0203805,-0.0232909
0.0132065,0.00946407
0.0113857,-0.000621112
0.0054148,-0.00273406
0.00690667,0.016044
0.0121973,0.0167163
0.00659282,0.00619194
-0.00630142,-0.0113069
-0.00809413,-0.009228
-0.00374311,-0.0192487
-0.00378946,-0.00230683
-0.00910815,0.0218506
-0.0123841,0.0107028
-0.0117708,-0.000229311
-0.0113086,-0.00199763
-0.0128932,-0.013237
-0.020353,-0.0184686
-0.0239299,-0.00626221
-0.0201752,0.00535494
-0.00908009,0.00788459
0.00627578,0.0127172
0.0141646,0.0151059
0.0152252,0.00812997
0.0188574,-0.00279599
0.0233737,-0.00440864
0.0234261,-0.00378762
0.0156903,-0.00816333
0.00522472,-0.00562633
-0.00677662,0.00937463
-0.0190008,-0.00411926
-0.0268873,-0.0192747
-0.0217839,-0.0485011
0.00181936,-0.0149107
0.00905554,0.0209495
-0.00268439,0.0131243
-0.00692977,0.0164922
-0.00672104,0.0274574
-0.0154406,0.0284404
-0.0231081,0.0301067
-0.0346341,0.0100403
-0.0227239,-0.0208036
-0.00245407,-0.011606
0.0233959,-0.000634256
-0.00289692,-0.0183384
-0.0189899,-0.00294646
-0.0099498,-0.0130728
-0.00755835,-0.0128521
-0.00743578,-0.03477
-0.014476,-0.0570607
-0.0029017,-0.00507814
0.00835769,0.032643
0.0116529,0.0258917
0.0343637,0.0327373
0.0379014,0.0351582
0.0257833,-0.00217012
0.0265812,-0.00229506
0.0272968,0.00408732
0.0542999,-0.00484711
0.0563328,-0.00186826
0.0372836,-0.00168808
0.0169124,-0.00135312
0.0162416,-0.00225587
-0.0076617,0.00734072
-0.034737,0.00551419
-0.0420465,0.00428387
-0.0278628,-0.0104355
-0.0145583,-0.0209148
-0.0265687,-0.0111117
-0.0365665,-0.00116198
-0.0216073,0.00222475
-0.00937163,0.0104142
-0.00538581,0.0138832
-0.00500227,0.000385167
0.000613145,-0.0121278
0.00530965,-0.0083147
0.00462125,0.0028673
-0.001601,0.00630294
-0.00865944,0.00672206
-0.0110068,0.00893763
-0.00517972,0.00875994
-0.00370811,0.0121445
-0.00282848,0.00310449
0.0081766,-0.0192333
0.00958613,-0.0223806
-0.00210134,-0.0137706
-0.00509752,-0.00272965
-0.00274483,0.00665777
0.00486247,0.0132724
0.0210541,0.0107405
0.0203339,0.00118847
-0.000702888,-0.00313685
-0.0241238,-0.0141523
-0.0127653,-0.0111258
0.0158895,0.00737391
0.0213983,0.0123329
0.0145834,0.00759713
0.00651841,0.00678211
-0.00714869,0.00385473
-0.010251,0.000750559
-0.00653556,-0.0117479
0.0017373,-0.0134888
0.00894125,-0.00525799
0.00688484,0.0049738
-0.00257149,0.0117219
-0.0154453,0.0113132
-0.0299504,0.00191309
-0.0700668,-0.0124029
-0.0650205,-0.0145637
-0.0200633,-0.00234827
0.0245312,-0.000864339
0.0513477,0.001374
0.0618108,0.00552421
0.0553568,0.00787979
0.0315815,0.00544921
0.0164399,0.000906343
0.0111213,-0.0097729
-0.00170357,-0.0168069
-0.0107733,-0.00603394
-0.00578404,0.00204871
0.0039958,0.0046699
0.00720186,0.00788447
0.0109087,0.0110891
0.0131958,0.00726612
0.0151099,-0.00338525
0.0204679,-0.00523592
0.00188166,0.0018729
-0.0285091,0.00193942
-0.0374756,-0.00187458
-0.0377985,-0.00820066
-0.0257148,0.00309663
-0.00578292,0.00507884
0.00631818,0.00914753
-0.0244797,-0.00500121
-0.0737501,-0.0184617
-0.0761129,-0.018171
-0.0853982,-0.00479892
-0.0810363,-0.000808094
-0.0111902,-0.0279056
0.099177,0.0171918
0.133875,0.0163409
0.112955,-0.00745142
0.0621597,-0.0204794
0.0410793,0.0156319
0.0211948,0.0134093
0.00152813,0.0116683
-0.0152007,-0.000184473
-0.0395101,0.00238129
-0.0536194,0.0204255
-0.0331357,0.00492061
-0.00956717,-0.0102578
0.00165147,-0.00305147
0.0015768,0.00739233
0.0163765,0.000470585
0.013365,-0.011474
-0.0105196,0.00653621
-0.024852,0.0176075
-0.00665319,0.0101532
0.0314163,0.00069644
0.032255,-0.00024148
0.00951464,-0.0102846
-0.00525561,-0.0240257
0.0063501,-0.00560489
0.0126324,0.0127366
0.0115611,0.0227677
-0.00863811,0.0147577
0.00190326,-0.0124548
0.00615518,-0.0192049
-0.00446335,-0.0128677
-0.000655784,-0.0043351
0.0111624,-0.00184423
0.0101,0.00781305
-0.0039121,0.0124703
-0.0198089,0.00425674
-0.021383,-0.018171
-0.0123698,-0.00681035
-0.00537713,0.0103388
-0.00321544,-0.00416681
-0.019014,-0.000836141
-0.0298955,0.00941326
-0.020341,0.0050638
-0.00242764,0.00852937
0.0175757,0.0049876
0.0379513,-0.0124398
0.03282,-0.0289071
0.0164881,0.00256852
0.00584045,0.0177501
-0.00900452,-0.00627148
-0.0269732,0.00273397
-0.0266791,0.0323786
-0.0176366,0.0153578
-0.00844186,-0.0262039
-0.00287628,-0.0295436
0.00712533,-0.0304479
0.016061,0.00582768
0.00569295,0.0185326
-0.00124674,0.0125258
0.00863943,0.0131389
0.011519,0.0160916
0.0159275,0.00457821
0.0139922,-0.0130682
-0.000741017,-0.0142977
-0.014482,-0.00920385
-0.0384668,-0.0112128
-0.0319264,0.00265457
-0.00694631,0.0211399
0.00859964,0.00661936
0.0146712,-0.0209285
0.0234478,-0.00915295
0.0182744,-0.0183488
-0.000557999,-0.00913733
-0.0197791,0.0113793
-0.0195365,0.0115439
-0.0201372,0.00473912
-0.0124924,-0.00261998
-0.00470373,0.00449385
-0.00157056,0.00396203
0.00610145,-0.00825393
0.0311389,-0.00530265
0.0454475,0.00458871
0.037801,0.0125593
0.015368,0.0137586
-0.0150871,0.0120379
-0.0214979,0.00402042
0.00361108,-0.00252002
0.0165987,-0.00268592
0.00867931,-0.0075045
1e-05,-0.00676462
-0.00384648,0.000150095
-0.00939626,0.00441125
-0.0143915,0.00277896
-0.01162,0.0029757
-0.00220219,-0.00266875
0.00990318,-0.0125948
0.0164119,-0.00699821
0.00612513,0.00685928
-0.0123749,0.0140485
-0.0264352,0.0135248
-0.0422949,0.00339745
-0.0532172,0.00385881
-0.0309417,0.00166344
0.00183475,-0.0100078
0.0411584,-0.00827409
0.0478377,-0.00631187
0.0407463,-0.00686829
0.0158006,-0.00330165
-0.0186443,0.000863319
-0.0300479,-0.0101577
-0.0627799,-0.00322998
-0.0762603,-0.00976435
-0.0402908,-0.0173723
0.00372202,-0.00321391
0.0522319,-0.00254959
0.0939345,-0.00312547
0.100906,0.00870173
0.0685397,0.0244693
0.0256004,0.0206274
0.00239166,0.00245978
-0.00805114,-0.00921599
-0.00341342,-0.00481706
0.00827068,-0.00264806
0.0148107,0.000134548
0.00516542,0.00953971
-0.00998034,0.0124494
-0.0310479,0.00623604
-0.0484781,0.00887625
-0.0739675,-0.00191917
-0.0877089,-0.0120416
-0.0816169,-0.00965661
-0.0183251,-0.00173432
0.040853,0.006192
0.0403149,-0.0128355
0.0317688,-0.0018241
0.0352027,-0.00567363
0.0218637,-0.00073314
0.0299165,0.00560158
0.0202884,0.00462248
0.0147503,-0.00555844
0.00472065,0.000301692
-0.00942885,0.0234233
-0.0326648,0.0115775
-0.0304175,-0.00166787
0.00266343,-0.025104
0.0395486,-0.0193087
0.0476407,0.00634654
0.036034,0.000334915
0.0139258,0.000169693
-0.0434628,-0.000633468
-0.0734463,0.00880483
-0.0597719,0.00413886
-0.0417123,0.00463131
-0.00739306,-0.00642615
0.0305718,-0.0298079
0.0463854,-0.00891923
0.0289218,-0.00454466
0.00500386,0.0137123
-0.0168485,0.0268484
-0.0272096,0.00738586
-0.0220489,0.00287999
-0.0184749,0.000748589
-0.0315562,-0.0125711
-0.00567087,-0.0146587
0.0383225,-0.00990069
0.0565682,0.000109049
0.0548059,0.019399
0.0300086,0.0195394
0.0164137,0.0165065
-0.000331514,0.00665841
-0.010463,-0.0107119
-0.0076192,-0.00797764
0.00157433,0.00183186
0.00336142,0.00150686
-0.00222427,0.00172015
-0.0168596,-0.0121117
-0.022803,-0.0150459
-0.00660044,0.00355246
0.00578799,0.00240966
0.00289376,-0.019514
0.0127375,0.00379739
0.0147663,0.0194512
0.00531972,0.00625642
-0.00558136,0.00832836
-0.0330872,0.0103311
-0.0655092,0.00606374
-0.0659632,-0.0113774
-0.0336035,0.00315807
-0.000371778,0.010497
0.0260406,-0.0218208
0.0392927,-0.0360337
0.0445821,-0.0294248
0.0228369,0.0153936
0.000935818,0.0233601
0.0122862,0.0117122
0.0301573,-0.0202523
0.0243616,-0.0119025
0.0213245,0.0113048
0.0123814,0.0202344
-0.00816292,0.0187899
-0.022035,0.0240996
-0.0308668,0.0197175
-0.0285667,-0.0118963
-0.0233147,-0.0397136
-0.0157335,-0.0248463
-0.00787912,0.00142858
0.00166847,-0.000864454
0.0111831,0.00314935
0.00461317,0.0120337
0.00583973,0.00437411
0.00524745,0.00405503
-0.0142088,-0.0020501
-0.0245435,-0.0189781
-0.0103635,-0.0125781
0.0214337,0.00821249
0.0402881,0.00854255
0.0344406,0.00708286
0.028333,0.012189
0.0170733,0.0166051
-0.013136,0.00742032
-0.0222885,-0.0102614
-0.014536,-0.00889835
-0.00485312,0.000974937
-0.0131455,-0.00813486
-0.0207087,-0.00449947
-0.0188034,0.00651552
-0.017736,0.000130703
-0.000790645,-0.000240386
0.022808,-0.000872171
0.0274308,-0.0081664
0.0168879,-0.0088487
2.74e-05,-0.0200693
-0.0104136,-0.0191494
0.00240251,0.000442631
0.0114871,0.0224079
0.00781684,0.0198631
-0.00862709,-0.00158438
-0.0139538,-0.0102935
-0.0117364,-0.00170291
-0.0107266,0.00419965
-0.00212376,0.00694384
0.0175341,0.019253
0.0176583,0.0225009
0.00719198,0.00958712
0.0140021,-0.00155026
0.0169239,-0.0135404
0.0116008,-0.0173579
0.00746347,-0.00903354
0.011363,-0.0087446
0.0115614,-0.00395018
0.00342288,0.00305329
-0.0104285,-0.00362096
-0.0229957,-0.0182434
-0.0621997,-0.00894713
-0.129224,-0.0149513
-0.130991,-0.0196648
-0.10107,0.0139663
-0.0371021,0.0325443
0.03573,0.0150408
0.115262,0.00484242
0.131935,0.0291078
0.0381541,-0.0192017
-0.00880172,-0.00506509
-0.0175611,0.0172812
0.00738929,-0.000718543
0.0471691,-0.0132634
0.0675012,-0.0210725
0.0528224,-0.00569009
0.0321357,0.0221227
0.0350658,0.00544932
0.0220367,-0.00368494
-0.00464955,-0.00329796
-0.00939714,0.00577875
0.0133944,0.00939031
0.0164998,0.00677966
-0.0099991,0.00253634
-0.0271402,-0.0164518
-0.015293,0.00127326
-0.0136087,0.00856999
-0.0178611,-0.0103078
-0.011163,-0.00666024
-0.0095598,0.00564636
-0.0197935,-0.00173872
-0.0212407,-0.00254657
-0.0225413,0.000966067
-0.0126778,0.00451376
0.00538925,-0.0060131
0.0178262,-0.0074407
-0.0107193,6.76e-05
-0.033255,0.00131022
-0.0216524,0.00666276
0.00219888,0.00954792
0.00879598,0.00758129
0.0191709,0.00227062
0.0179266,2.74e-06
0.00230631,-0.0145656
-0.00586106,-0.0153594
-0.00782517,0.00269145
-0.0132259,0.012078
-0.00959548,0.000304965
0.00147724,-0.00603178
0.00833044,0.00110023
0.0107673,0.00786054
0.00884487,-0.0028859
-0.00309428,-0.0160703
-0.000334624,-0.0101473
0.0145995,0.00126431
0.0148822,0.00483386
0.00331312,0.0133995
-0.0192132,0.00792711
-0.0274921,0.0138533
-0.0250775,-0.00520692
-0.0152397,-0.0198861
0.00224795,-0.0165302
0.0116655,0.00918617
-0.00350797,-0.000995856
0.00108075,0.000437779
0.00316803,0.0175973
-0.00237005,0.010401
0.00334355,-3.17e-05
0.0295033,-0.000389496
0.0348824,-0.00150777
0.024907,-0.0185539
0.0104309,0.00986474
-0.0184145,0.0132122
-0.00810403,0.0189148
-0.0130942,0.020062
-0.015527,0.00607041
-0.00571485,-0.00209835
0.000729412,6.75e-05
-0.0209886,-0.0095877
-0.0261772,-0.00917925
-0.0047601,-0.00980109
0.0179156,-0.0120943
0.0293124,-0.0114701
0.0205104,-0.0147307
0.00691109,-0.0229773
0.00787586,-0.0253105
-0.000803117,-0.0181437
-0.0172796,-0.01699
-0.00958693,0.0186959
-0.00405379,0.0276405
-0.0059023,0.0237993
-0.00635762,0.021924
0.00703343,0.0136174
0.0202472,0.00168701
0.0105917,0.00653327
0.00187728,0.016386
-0.00301022,0.0120414
-0.00712071,5e-05
-0.00896406,-0.0235548
-0.00338924,-0.0623767
0.0116385,-0.013356
0.00606688,0.010768
-0.00481416,-0.00109273
-0.0121984,-0.00697474
-0.0191722,-0.00856592
-0.0156367,-0.00572278
-0.00663045,0.00798899
0.0158055,0.0327757
0.0182545,0.0360287
0.0187783,0.0224788
0.0251725,0.0139691
0.0102463,-0.00469438
-0.040547,-0.0248656
-0.0556525,-0.0068934
-0.0408223,-0.0153721
-0.0112508,0.000180934
0.0215754,0.00904337
0.0134024,-0.0172122
0.0181184,-0.0228136
0.0275592,-0.026663
0.0449342,-0.00384785
0.0537234,0.0150444
0.0389048,0.0283906
0.0015264,0.0153951
-0.0492194,0.0153954
-0.0720331,0.0211377
-0.0779198,0.00442183
-0.0429198,-0.0057067
-0.0533966,-0.00281378
-0.0347295,-0.00231273
0.0157441,-0.00536456
0.0496173,-0.0033562
0.0642553,-0.00914999
0.0811264,-0.0244295
0.073177,-0.0308314
0.0507752,-0.00993077
0.0255539,0.0104616
0.0015467,0.00969796
-0.0100143,0.0128335
-0.0039435,0.0188481
0.00424063,0.0311365
0.00102907,0.0201703
-0.00174682,-0.0164547
-0.00182766,-0.0106279
-0.01424,-0.00223878
-0.0228859,-0.00108885
-0.0361211,0.00433027
-0.0557797,0.0101657
-0.0828571,-0.00595683
-0.0688823,-0.00140262
-0.0452967,-0.00880844
-0.0315608,-0.0163923
0.0114728,-0.00587331
0.0650076,-0.00618558
0.0813232,-0.0117057
0.0521923,-0.00601068
0.0228766,0.0102604
-0.00635341,-0.0016976
-0.0055577,-0.0190235
0.0175446,-0.0148978
0.0165544,0.0118066
0.00857758,0.0165004
0.00358291,0.00602065
0.00182495,0.0165715
-0.00231279,0.0188105
-0.0198886,0.00357018
-0.0185648,-0.0108545
-0.00658399,-0.0169415
-0.00194311,-0.00769224
0.00439247,-0.000915486
0.00466734,0.00499627
-0.00745802,0.00739411
-0.00757474,-0.00370323
0.000927539,-0.0028934
0.00583338,0.0171934
-0.00275038,0.00995616
-0.00682742,0.000102103
-0.010542,0.000978076
-0.00718205,0.00338993
0.00222361,0.00136625
0.0180982,-0.00164712
0.00164555,-0.00104299
-0.00627202,-0.0096442
-0.00937729,-0.0461228
0.0025442,-0.0123092
0.0157368,0.021666
0.0140582,0.0107579
0.00219297,0.00548879
0.00315135,0.015336
0.0100306,0.0150368
0.0128652,0.00939622
0.0141582,0.00909443
-0.00654568,-0.0176721
-0.0150991,-0.0279996
-0.00844544,-0.0268594
-0.00244207,0.0109198
0.00257963,0.0212795
0.00600744,0.0094315
0.00761989,0.00528098
-0.00389827,0.00209031
-0.00467226,-0.0104435
-0.00715497,-0.0230619
-0.0449214,-0.0158487
-0.0512619,-0.0040987
-0.0362422,0.0180062
-0.0212058,0.0315849
0.00337058,0.0194161
0.0351801,0.0038708
0.0492256,-0.000230345
0.0280505,-0.00950353
-0.00245192,-0.0136369
0.00910886,-0.000155832
0.0121754,0.00608557
0.0144205,0.00292104
0.0162942,0.0089841
-0.00209701,0.0106455
-0.0335453,-0.00147111
-0.0258038,-0.0160349
-0.00583491,-0.0195881
0.0163139,-0.0247359
0.0347932,-0.0084363
0.0247359,0.00243069
0.00866699,0.0192848
-0.00683303,0.0101254
-0.0174992,0.00126534
8.37e-05,0.0113751
0.0145423,-0.00122072
0.00292837,-0.00792933
-0.00118524,-0.011752
-0.0004762,-0.00840164
0.00581941,0.0113869
0.0113047,0.011746
0.00641106,-0.00401406
-0.00312633,-0.0212755
-0.00617014,-0.0107688
-0.0226467,0.00634171
-0.0550898,-0.00238538
-0.0536114,0.0010466
-0.0376233,0.0195605
-0.0561282,0.00924786
-0.0507914,0.00820101
-0.00645556,0.0056653
0.0344002,-0.00465349
0.0472893,-0.00590261
0.060017,-0.00897512
0.0633999,-0.0107074
0.0211231,-0.000658741
-0.0278786,0.0218382
-0.0270188,0.00613
0.00768479,0.00655911
0.0248206,-0.00223809
0.0400214,-0.0104184
0.0557721,-0.0111838
0.0378862,-0.00985463
-0.00269895,0.000555074
-0.00291251,0.00841662
0.0151098,0.0082095
0.0141182,0.00687555
0.00220056,0.00128812
-0.025867,-0.0248683
-0.0126347,-0.0156054
0.00247584,0.00138804
-0.0266511,-0.0119494
-0.0224004,0.0199093
-0.0195385,0.0193028
-0.0224442,0.0128054
-0.0124165,0.00945839
0.000922016,-0.0120107
-0.00372004,-0.021821
-0.000154144,-0.0115522
-0.00881839,0.00450042
-0.0348467,0.0156882
-0.0393154,0.0120115
-0.0252123,0.0027077
-0.0107885,0.00429994
-0.00338708,-0.0040439
0.0176704,-0.0202705
0.0591412,-0.00298394
0.0637476,0.0155856
0.0351483,-0.00204992
0.00367902,-0.00226558
-0.00942417,0.00804488
-0.0222872,0.00590275
-0.0260159,0.0051854
-0.0158994,-0.0152416
-0.00722665,-0.0153748
0.0238613,-0.00937987
0.0397373,0.00272601
0.02359,0.00421924
0.00762897,0.00952617
-0.00245347,0.0124246
-0.0125931,0.0087094
-0.017681,-0.0107117
-0.0196201,-0.0238637
-0.0110164,-0.00982436
-0.0058351,0.000348766
-0.0112902,-0.0172146
-0.00803765,0.00760838
0.00463812,0.0361837
0.00167098,0.0170139
-0.0248031,-0.0172259
-0.0220954,-0.00579166
0.00084089,0.00872969
0.0273569,-0.00837148
0.0283444,0.00812861
0.0161589,0.00998985
0.00674641,0.00218381
-0.00718904,0.00272264
-0.00591376,-0.00193051
-0.00952099,-0.0202773
-0.0233849,-0.0181003
-0.0195506,0.00920977
-0.000883294,0.0173531
0.0179597,0.0077598
0.0241778,0.00379096
0.0126919,-0.0116632
0.00613692,-0.0160734
0.0112223,-0.0159619
0.00503486,-0.0059008
0.0100342,0.00929821
0.0284932,0.0126725
0.0175099,0.0145154
-0.0135723,0.0214661
-0.0223304,0.00476179
-0.060145,-0.00359361
-0.110023,-0.00722203
-0.0869223,-0.0121053
-0.028184,-0.00278266
0.0267158,0.00516894
0.0810149,0.00667461
0.10208,0.00363647
0.0695622,-0.000686102
0.0220622,-0.00519557
0.00301681,0.00182829
-0.0114402,-0.0143159
-0.0222243,-0.00622877
-0.00646712,-0.00147062
0.0179126,-0.00581496
0.0254996,-0.00191743
0.0197219,0.00840975
0.0145131,0.00639201
-0.00490576,0.0115798
-0.0181635,0.00304847
-0.0160209,-0.0125666
-0.0103043,0.00156126
-0.00922229,0.00260516
-0.0263589,-0.00983622
-0.0483958,0.00391661
-0.0431024,0.00870212
-0.0239212,-0.00574116
0.0136963,-0.0158282
0.0357248,-0.0152325
0.0251938,-0.0270341
0.0136686,-0.0259722
-0.00707631,-0.00856004
-0.0417274,0.0447566
-0.0640848,0.0311911
-0.0408084,0.0202358
0.00264927,0.00890991
0.0524821,-0.00430092
0.0844535,0.00595465
0.0712313,-0.0072799
0.0376006,-0.00243316
0.00771501,0.00820903
0.00545921,0.0158856
0.0103559,0.020749
0.00357491,0.00654934
-0.0165304,-0.00896472
-0.0545665,-0.0113128
-0.0614883,-0.0112309
-0.0388785,-0.0212002
-0.00604821,-0.0222856
0.0270224,-0.00810168
0.0401457,0.00617959
0.0269117,0.0140657
0.0074131,-0.00228484
-0.0103288,-0.00728164
-0.0211484,-0.00189667
-0.0132144,-0.00186505
0.00690931,0.00521977
0.0247895,-0.013276
0.00790556,-0.00781033
-0.00152063,0.0135408
-0.00780691,0.00494968
-0.0165627,-0.00982614
-0.030465,0.000230743
-0.0442411,0.010338
-0.021953,0.00656177
0.00710099,0.00749502
0.0416271,0.00852926
0.0502951,0.00432347
0.0355005,0.00551487
0.0128594,-0.00968768
-0.00225167,-0.0146362
-0.014193,0.00634894
-0.0182505,0.00686187
-0.00664769,0.0076813
0.0014263,0.00551743
-0.012852,-0.0034126
-0.0141332,-8.22e-05
0.00409767,-0.00194052
0.0148553,-0.00721834
0.0162416,0.00142098
0.0161328,0.00494661
-0.00947977,-0.0145887
-0.0531483,-0.0299498
-0.0334843,0.00335606
0.0085931,0.0097051
0.0193345,-0.00219883
0.0154926,0.000774508
0.000355628,-0.0108498
-0.00860696,-0.00165658
0.000971075,0.00454258
0.0112839,0.012368
0.00295252,0.0231318
-0.0231569,0.0205731
-0.0331928,0.00623367
-0.0199421,-0.00878249
0.00475154,-0.00576569
0.0283225,-0.00243855
0.0460558,0.000293161
0.0420453,0.00222394
0.0223003,0.00356281
-0.00322924,0.00222221
-0.0118569,0.00443114
0.000543995,-0.00123421
0.00384591,-0.012918
-0.0153383,-0.016253
-0.021974,-0.00761112
-0.022034,-0.00262515
-0.0187324,0.00420797
-0.0122693,0.0115673
0.00309938,0.00349794
0.00984759,-0.0223357
-0.0108818,-0.0376492
-0.0193553,0.00586102
-0.0030656,0.0182207
0.00849082,0.00425964
0.0232972,0.00754349
0.0106622,0.00740137
-0.00735186,0.00775327
0.000519579,0.00465148
0.0114534,-0.00574681
0.0298571,-0.00862045
0.02839,0.000633847
0.013054,0.00406396
0.00706704,0.00173004
5.31e-05,0.0153696
0.00372668,0.0149967
0.00738421,0.00305606
0.00415697,-0.0102413
-0.0170132,-0.0148808
-0.0190868,-0.0161913
-0.00149001,-0.0141513
-0.0268995,-0.00320549
-0.084351,0.0134716
-0.113705,0.00410386
-0.0898203,-0.00104594
-0.0431128,-0.00457326
0.024504,-0.00849759
0.0750868,-0.00584713
0.084394,0.0117233
0.0804542,0.00951789
0.064884,0.00526554
0.0458311,0.0134998
0.0273686,0.0205537
0.023046,0.0111439
0.0248737,-0.00739611
0.0121909,-0.00894593
-0.0124035,-0.00764297
-0.0461942,-0.0138562
-0.0279848,-0.0186803
-0.00230492,-0.00556003
0.00525174,-0.0026626
0.000509767,0.00383556
-0.0024248,-0.0131615
-0.0235654,-0.00673706
-0.0469454,0.00286295
-0.0365045,0.00845509
-0.0144222,-0.00268231
0.00432217,0.00665187
0.0117534,0.020695
0.00738408,0.01714
0.0185527,0.000231591
0.0190372,-0.0113467
0.0115154,-0.0038908
0.0166902,-6.63e-05
0.0182693,0.00260382
0.00401427,0.00778504
-0.00309533,0.00922163
0.000610295,0.00746708
-0.0112866,0.00166528
-0.00366077,-0.00733171
-0.00748438,-0.0144689
-0.0233351,-0.0107275
-0.00884525,0.0020519
0.00296833,0.00415928
-0.00309752,0.0132178
-0.0175353,0.0279661
-0.0363116,0.00216363
-0.030705,-0.0283592
-0.00627182,-0.0147272
0.0018082,-0.000270476
0.0141435,-0.00865327
0.0303957,-0.00606873
0.038772,-0.00639043
0.0321085,0.00680645
0.0200421,0.0190161
0.00846487,0.011307
0.00354958,-0.00557028
-0.00286458,-0.0136638
-0.0152495,-0.00738283
-0.0289686,-0.0107422
-0.0183115,-0.00227161
-0.000470248,0.0132534
0.00517262,0.0283356
-0.00576917,0.00543568
-0.0190443,-0.0100384
-0.0249612,-0.0128904
-0.00999806,-0.00614011
0.0174726,0.000523556
0.0377111,0.00166096
0.0391174,0.0163097
0.0287249,0.000210207
0.00322808,-0.0231236
-0.0110326,-0.00863333
-0.00980365,-0.0112712
-0.0243243,-0.0100426
-0.0421478,-0.00388796
-0.0413841,-0.00849272
-0.0219693,0.0108815
0.0107317,0.0237989
0.0316094,0.0132501
0.0354774,0.00499523
0.0262391,-0.00959285
0.00937208,-0.00323423
0.0118777,-0.00179674
-0.00111949,0.00902303
-0.0344029,0.0139405
-0.0310813,0.0162827
-0.0354764,0.0211136
-0.0182797,0.0234933
0.0330999,-0.016357
0.0612493,-0.0285562
0.0440657,-0.00880924
0.0155312,-0.00389311
-0.00225451,-0.00950187
-0.0299308,-0.0145254
-0.0926397,-0.0115812
-0.0916079,-0.00306733
-0.0136422,-0.00232076
0.0409804,0.00729179
0.0443805,0.0060065
0.0551377,-0.00381905
0.0557554,-0.000728758
0.0295961,0.0044558
0.0138823,0.00382024
0.0106634,0.00619484
0.00716072,0.00529541
-0.0228552,-0.00676868
-0.0412259,-0.00798767
-0.0352645,0.00130901
-0.0182424,0.00749256
-0.000378708,0.0155744
0.0123415,0.0209577
0.00230064,0.0152041
-0.00420445,-0.00662051
0.00162913,-0.0212427
0.00338903,-0.0110233
0.00841176,-0.00846191
0.0175478,-0.00601941
0.0139774,0.00666729
-0.00890174,0.01143
-0.0189657,-0.00144227
-0.0159019,-0.00467805
0.00703066,-0.00419424
0.0177051,-0.00874121
0.0134042,-0.0116489
0.00883531,0.00296513
0.00838744,0.0098864
0.00383461,0.0116974
0.00295158,0.0123777
0.00730263,0.00771509
0.00266953,-0.00557594
-0.0322036,-0.0109682
-0.0442309,-0.0119945
-0.0305689,-0.00741287
-0.0230206,-0.00129073
-0.0256754,0.010129
-0.0169497,-0.00545197
0.00780354,-0.0246349
0.0319055,0.00372641
0.0330841,0.00748931
0.0214975,0.00110341
0.0198292,0.00649335
-0.000294308,0.00121625
-0.0201613,-0.0178655
-0.0252699,-0.000415506
-0.0108981,0.0186402
0.0223025,0.0161802
0.0335473,-0.00186716
0.0238104,-0.0099025
0.0117119,-0.00275118
0.00181357,-0.00373285
-0.00112164,0.00219193
-0.00743939,0.0124901
-0.00857878,0.0150589
-0.0100868,0.00893676
-0.00996414,-0.00978968
0.000120929,-0.0291989
0.0180704,-0.00796635
0.00701978,0.0046239
-0.00761534,0.00255643
-0.00765638,0.00460837
-0.0117209,0.0162228
-0.0129396,0.0199828
-0.00300812,0.000871255
0.00707113,-0.0182016
0.00500536,-0.0212077
-0.0055246,0.00649611
-0.0143545,0.00951807
-0.0108828,-0.00328485
-0.0022929,0.00610963
-0.00579652,-0.00614814
-0.00288646,-0.0124406
0.000950023,-0.0161413
0.000282419,-0.0200297
-0.00130477,-0.00478248
0.00906808,0.0067542
0.0203851,0.00867906
0.0170305,0.018368
0.024061,0.0311081
0.0198752,0.0262002
0.000920157,0.013449
0.0037007,-0.00915259
-0.0108473,-0.0151701
-0.0231161,-0.0195202
-0.00618682,-0.0101215
0.0225505,0.00408067
0.0202408,0.0190154
-0.00499734,0.0151882
-0.0136316,0.00907986
-0.00743689,-0.0153392
-0.00340725,-0.0216265
-0.0162109,-0.0105931
-0.0402885,0.0069693
-0.0326107,0.0114978
-0.0201306,0.0070213
-0.00802538,0.00762485
0.012364,0.00392674
0.0302228,-0.0262895
0.0344274,-0.027437
0.0171466,-0.0154788
0.00996358,-0.00651609
0.00778959,0.0070374
-0.0264695,0.00880983
-0.0423454,0.0133869
-0.0361292,0.0138655
-0.0190168,0.00683528
0.00977857,-0.00878955
0.0548478,-0.010034
0.0846317,-0.00124562
0.0542052,-0.00701834
0.0111807,0.0029216
-0.0031421,0.018689
-0.00324999,0.0187299
-0.0101912,0.00761981
-0.00552383,-0.00570544
0.00114848,-0.028394
-0.00183169,-0.0126352
-0.00684198,-0.0022141
-0.00379662,0.00474095
-0.0109373,0.0142138
-0.0330476,0.0331133
-0.0895838,0.0250867
-0.13243,-0.00587822
-0.0847668,-0.0416263
-0.020745,-0.0481148
0.0410191,-0.0204117
0.084116,0.0152361
0.0972151,0.00634102
0.0769078,0.00764171
0.0276999,0.016309
-0.000813645,0.00267768
0.00245908,-0.00351256
0.00558435,0.00358552
0.00963793,0.00174152
0.0109439,0.00300529
0.00994925,0.0119325
0.00522499,0.0128839
0.010038,0.00649519
0.0107155,0.00481275
0.0173792,-0.00497665
0.0165191,-0.0117459
-0.00196583,-0.0017158
-0.0301239,0.00301183
-0.0407523,0.00119568
-0.0465361,0.0109875
-0.0443775,0.0121115
-0.0190019,-0.00844215
0.00358061,-0.031064
0.00484909,-0.0390387
0.00837237,-0.000463304
0.0136884,0.0105305
0.00713203,0.0056595
0.00243279,0.010998
0.00600341,0.0139819
0.00488029,0.00870333
0.00869187,0.00154178
0.0126237,-0.0115991
-0.00736284,-0.0172454
-0.0209238,-0.00488388
-0.0122817,-0.0003865
-0.0166786,-0.0150044
-0.00934298,-0.00611265
-6.24e-05,0.0224641
-0.0135782,0.0177299
-0.0115422,-0.0158857
0.00708137,-0.0268604
0.024451,-0.0243518
0.029892,0.00388813
0.0256943,0.0295354
0.0157785,0.0279726
0.00144029,0.0227091
-0.00496389,0.0111705
-0.003349,-0.00115207
0.000856242,-0.0103634
-0.00221122,-0.00761856
-0.006019,0.00492348
-0.00381036,0.00641282
-0.00593794,0.00820165
-0.0116492,0.0110325
-0.013234,0.00976934
-0.002403,-0.00129619
0.0074977,-0.0116694
0.00614078,-0.00625818
0.00459787,-0.00575649
-0.00640202,-0.00396435
-0.00218429,0.00250019
0.0105577,0.00617431
0.00131103,-0.00111058
-0.0119785,-0.00696839
-0.00159215,-0.0143849
0.0234907,-0.0222661
0.00597012,-0.00763259
-0.0305388,0.00585521
-0.031667,0.00572446
-0.0268351,0.00517605
-0.0187892,0.0115526
0.00711885,-0.0055472
0.026901,-0.0316924
0.0145738,-0.00239936
-0.00672692,0.0203397
-0.0144754,0.0106035
-0.00357265,0.00883401
0.0190085,0.0166726
0.0441896,0.00654622
0.0410687,-0.00115047
0.0195289,-0.00653037
0.0120314,-0.0139221
0.0125872,-0.0138569
0.00707424,-0.00194931
0.00506146,0.00452605
0.0043197,0.00455496
-0.00172986,0.00856508
-0.00866196,0.0104478
-0.00723191,0.00328899
-0.000589133,-0.0104657
-0.00138694,-0.00993707
-0.00576193,-0.00804694
-0.0234772,-0.00734496
-0.0406827,-0.00301547
-0.0468672,-0.0104014
-0.0784376,-0.0108479
-0.0725824,0.0166127
-0.0310086,0.0104957
0.0146763,-0.00592358
0.0464079,-0.00426597
0.0670091,0.0135749
0.073049,0.0115801
0.0494757,-0.00128514
0.0109185,0.00730468
-0.00775879,0.00953276
-0.00351825,-0.00495638
0.00420046,-0.0222479
0.0121326,-0.00666806
0.0165654,0.010207
0.00636168,0.00775871
-0.00083278,0.0118855
-0.0104597,0.0138192
-0.0100555,0.00765168
-0.0065621,-0.00120328
0.00244393,-0.019019
0.00700538,-0.0249543
0.00134432,-0.0154502
-0.00264126,-0.00567484
-0.00448164,-0.00852885
-0.00873304,0.00491483
-0.0284072,0.00251074
-0.0413954,0.00886212
-0.0198783,0.0138425
0.00233723,0.00852713
0.0127836,0.0161144
0.0137357,0.000290914
0.00596592,-0.000321384
0.000625997,0.0026357
0.00381996,-0.00199704
0.00853906,0.00187539
0.00255354,-0.0019236
0.0032428,-0.0144725
0.0029915,-0.018831
-0.00321259,-0.00668072
-0.000773259,0.00609187
-7.68e-05,0.0107113
-0.00385275,0.0238357
-0.0107652,0.021297
-0.0073362,-0.0068015
0.00141676,-0.0141417
0.00596828,-0.00978607
0.00895086,-0.00740005
0.00731625,-0.00441024
0.00455638,0.00633766
0.00556814,0.0133409
0.00644329,0.00624905
0.00540512,0.000246632
0.00484969,-0.00563674
0.00196905,-0.0142624
-0.00756047,-0.0095036
-0.0151138,0.00577013
-0.0170494,-0.00294624
-0.00754951,-0.00611166
-0.00253157,0.00599431
-0.00945698,0.00701579
-0.0057192,0.00329247
0.00149788,-0.00400335
0.00633082,-0.00178831
0.00965067,-0.000688305
0.00571932,0.00416051
0.00340753,0.011795
0.00323826,0.0141856
0.00496183,0.00528628
0.00392667,0.0055906
0.00314775,-0.00452588
-0.000266785,-0.0374349
-0.00507875,-0.0221844
-0.0185101,-0.0114361
-0.0169732,-0.0304815
-0.00359999,-0.0261845
0.00516175,0.0341437
0.00149182,0.0271359
0.00667292,0.00853168
0.0158335,0.00553728
0.0168057,0.00444855
0.0154514,0.00620064
0.0111931,0.00837575
0.00516261,0.0126219
0.00134179,0.00796408
0.000140105,0.00402805
-0.000392029,0.00558527
-0.00078424,-0.0042432
-0.00574512,-0.0113333
-0.00862648,-0.000795509
-0.0309251,-0.00491395
-0.0486263,-0.00621152
-0.0416127,-0.00822891
-0.0241776,0.00222661
-0.00374735,0.0111242
0.0165954,-0.00734417
0.0275957,-0.0175154
0.0344291,-0.0173895
0.033409,-0.0230696
0.0181772,-0.00420206
0.00581388,0.0185848
0.00726678,0.0250714
0.00781578,0.0163083
-0.00249743,0.00376479
-0.00240304,-0.0041685
0.00190802,-0.00658911
-0.000458597,0.0099495
0.000262328,0.0201172
0.00242896,0.00575718
0.00318294,0.00497616
-0.00495611,0.00679246
-0.00776001,-0.00485621
-0.00748026,-0.017648
-0.0133415,-0.0122003
-0.0159807,-0.00685456
-0.0118469,-0.00362836
-0.00609319,0.00363114
-0.00182791,0.00579583
0.000125,0.005174
0.0031813,0.00374086
0.00605422,-0.00538176
-0.000896559,-0.0126506
-0.00662642,-0.00519823
-0.00734192,0.00377125
-0.00661241,0.00428237
0.0153236,0.0073898
0.0648233,0.00377031
0.0920406,-0.00110938
0.0956348,-0.00230686
0.0754379,-0.00309876
0.0337318,0.00188784
-0.011984,-0.00418011
-0.0497954,0.00348298
-0.0737079,0.00800673
-0.0750414,0.00463881
-0.0725643,0.000685182
-0.0631171,-0.00149054
-0.0460855,-0.0106808
-0.0166293,-0.0159181
-0.002513,-0.00358882
-0.00383076,0.00443985
-0.00463571,0.00664945
-0.0095149,0.00668904
-0.0205534,0.0153253
-0.0216843,0.00889096
-0.0128047,-0.0118734
-0.00649536,-0.0220043
-0.0028994,-0.0178166
0.000181622,-0.0240001
0.0031776,0.00705099
0.00326604,0.0216549
0.0049255,0.0133442
0.00836372,0.0071365
0.0115832,-0.00363675
0.0105817,-0.0152192
0.0147458,-0.015189
0.0287061,0.00643691
0.0416385,0.00943713
0.0878271,0.0031704
0.105223,0.010986
0.0747103,0.00886014
0.0450557,0.00689873
0.0181408,-9.08e-05
-0.0166407,0.00351927
-0.0322655,0.0019922
-0.0462091,-0.00439509
-0.0646567,-0.000921116
-0.0670824,0.00193963
-0.0612216,0.00294265
-0.0564921,0.00483865
-0.0540705,-0.0121753
-0.0500857,-0.0209423
-0.0363584,-0.0153882
-0.019148,-0.00432875
-0.000904414,0.00712645
0.00443304,0.00694997
0.00288442,0.0102433
0.033548,0.00394736
0.119178,-0.00846983
0.166896,-0.0184947
0.136312,0.00291999
0.0653055,0.00874531
0.00253541,0.0107337
-0.0608664,0.0111518
-0.105663,0.00550557
-0.121368,-0.000657417
-0.110838,-0.00205699
-0.0824854,-0.0100193
-0.0463275,-0.0106835
0.0233949,0.00200713
0.132661,0.00479408
0.225924,0.00182961
0.187999,-0.00431168
0.0685372,0.0030456
-0.0296582,0.0176926
-0.107751,0.0109485
-0.179999,0.00715908
-0.201035,-0.0036213
-0.149424,-0.00962672
-0.0620216,-0.00329709
0.00120807,-0.0030223
0.0695949,-0.00860522
0.0913712,0.00576049
0.0778044,0.0058225
0.0513135,-0.0147882
0.00382444,-0.0249313
-0.0253764,0.00745501
-0.0070123,0.00835008
0.00684673,-0.0100092
-0.0393247,0.00365395
-0.0474026,0.0250564
-0.0393318,0.00664377
-0.032693,-0.012643
-0.0250819,-0.010486
0.00102493,-0.00656082
0.0775393,-0.013836
0.117835,0.000617032
0.0989912,0.0164539
0.0589925,0.0150068
0.0134989,0.0084902
-0.013305,0.00793812
-0.0258995,-0.00244931
-0.0428451,-0.00625002
-0.0514004,-0.00370847
-0.0297435,-0.00235973
-0.0132212,0.00282954
-0.0142732,0.010173
-0.0171154,0.00683184
-0.0162369,-0.00577102
-0.017221,-0.0138447
-0.00943204,-0.0059607
0.00307761,-0.00371417
0.0172099,-0.00185473
0.0256935,-0.00184645
0.0342878,-0.0015657
0.0473109,-0.00549121
0.0649982,0.0136293
0.0996409,0.00488195
0.0922959,-0.00496336
0.0470279,0.00138674
-0.0107181,0.0034479
-0.0603698,0.00225266
-0.0918488,0.00463259
-0.115561,-0.00451934
-0.0928745,-0.00627561
-0.0451981,-0.00102268
-0.0111658,-0.00989616
0.00445723,-0.00338791
