Comp Ch 3,Comp Ch 4
-0.0698174,0.00646723
-0.0504793,0.0220322
-0.0450725,0.0241509
-0.0343345,0.0184011
-0.0184883,0.0152566
0.0030599,-0.00464866
0.0208292,-0.0291913
0.0350372,-0.0260825
0.0598472,-0.0211908
0.108713,-0.0153108
0.1273,-0.0041156
0.0796883,-0.00146224
0.01014,-0.000761508
-0.0409967,-0.00240216
-0.0618679,-0.0157753
-0.0765849,-0.0163349
-0.083212,0.00528148
-0.0649836,0.0143933
-0.033802,0.0173513
-0.00656758,0.025783
0.0605278,0.0391673
0.10782,0.0378378
0.109137,0.00368588
0.0590192,0.0004408
-0.0251054,0.00922379
-0.0739309,0.00356176
-0.0911013,-0.00272735
-0.0968371,0.00104363
-0.0678171,0.00845563
-0.0355711,0.0124148
-0.0151924,-0.022296
0.00190939,-0.0258066
0.0150249,0.0105947
0.0159895,0.0212591
0.0188246,0.0179782
0.0120183,-0.0195835
0.00406781,-0.0248936
0.011638,0.00118001
0.0193915,-0.00787044
0.015891,-0.0252083
0.00742263,-0.0150826
-0.000886271,0.00276619
-0.0114873,0.00851155
-0.00413708,0.0226293
0.0198183,0.0269028
0.0331785,0.00974919
0.0403676,-0.00683447
0.0417749,-0.0324994
0.0385787,-0.0354862
0.0141515,-0.0191312
-0.0098673,-0.0079868
-0.00463843,-0.00682599
-0.00550326,0.00540257
-0.0139101,0.0111014
-0.0259127,-0.00183272
-0.0320839,-0.0135772
-0.0154186,-0.00410314
0.00297994,0.0249539
-0.00145201,0.0267726
0.00138903,0.00697638
0.00837181,0.00849338
0.0130619,0.0242214
0.0165949,0.0154661
0.0175327,-0.00903233
0.021306,-0.0470748
0.0231473,-0.0420589
0.0185662,-0.016029
0.0148723,-0.00222891
0.00772838,0.00696539
-0.00937341,0.0148879
-0.0265528,0.0201814
-0.0270148,0.0101807
-0.0125364,-0.023839
-0.0039862,-0.0260759
-0.00435612,-0.0121678
0.000105607,-0.00369885
0.00521167,0.00360407
-0.00550236,0.00878709
-0.0314093,0.00784563
-0.0456099,0.0244336
-0.0524185,0.0366428
-0.0656012,0.0180167
-0.126928,0.00387159
-0.128628,-0.0332644
-0.0520375,-0.0451876
0.0179739,0.0148295
0.0679402,0.0376978
0.0965509,0.0244818
0.135271,-0.0010146
0.136677,-0.0301157
0.0957537,-0.0208908
0.0465065,-0.0128433
0.0127468,-0.007254
0.00778591,0.00798245
0.0148188,0.0178689
0.0323049,-0.00275327
0.0495594,-0.00930254
0.0454491,-0.0136347
0.00470289,-0.0107807
-0.0363921,-0.0118911
-0.0524335,-0.00785467
-0.0871704,0.0193876
-0.0681671,0.0516461
0.00536346,0.0619081
0.0271939,0.0345186
-0.0347778,0.0246682
-0.138557,-0.0272985
-0.194916,-0.0907618
-0.267677,-0.040982
-0.244752,-0.0045663
-0.0837976,0.000447437
0.139469,-0.00600695
0.285725,0.000602091
0.250814,-0.010008
0.174672,-0.0229128
0.148654,-0.0092498
0.121125,0.0189841
0.0484432,0.0347144
0.00150878,0.064844
-0.0143257,0.0961911
-0.016735,0.0827412
-0.0138012,-0.00640939
-0.0150237,-0.0812705
-0.015674,-0.0748115
-0.0127719,-0.0264801
-0.00591281,-0.00868849
-0.00950768,0.00589385
-0.0406642,0.0108299
-0.0780926,0.00624332
-0.0712883,-0.00226526
-0.0426524,-0.00934391
-0.00599255,-0.00704371
0.00959454,-0.00192246
0.00276746,0.00729076
-0.0396879,-0.0029239
-0.0758266,-0.0186411
-0.0548539,-0.00429781
-0.0327089,0.00202229
-0.0156659,-0.0113892
0.010958,-0.0243266
0.0420754,-0.00996808
0.0900095,0.00245824
0.0915595,0.00780102
0.0370156,0.0111282
-0.00157167,0.0164852
-0.00314386,0.0150255
-0.00556569,-0.00356712
-0.0132442,-0.009521
-0.013988,0.00375698
0.00676537,0.0168942
0.0359834,-0.00151714
0.0329386,-0.00604411
0.013215,0.00990653
9.99e-05,0.0087113
0.00647693,0.00572074
0.00517057,-0.0160298
-0.00959145,-0.0247867
-0.0371527,-0.0168314
-0.0592545,-0.0168268
-0.0806945,-0.0169491
-0.0807859,-0.00318693
-0.0300357,0.0199609
0.0367125,0.0196645
0.071922,0.0335598
0.0501086,0.0293533
0.0147569,0.0340119
-0.00806865,0.024109
-0.00754177,-0.011612
-0.0107131,-0.0436039
-0.00616878,-0.0383454
0.0100611,-0.0157394
0.0329868,-0.0166397
0.0378924,-0.0412747
0.0313349,-0.0108001
0.0319971,0.00487037
0.0238453,-0.00241543
0.00275985,0.00119778
-0.010081,0.0114404
-0.00565104,0.0234309
-0.0266325,0.0262193
-0.0507591,0.00455802
-0.0445712,-0.0165552
-0.0152323,-0.00423381
-0.00774581,-0.00266282
0.000775038,0.00149199
0.0226948,0.035734
0.0239763,0.0300017
0.0147933,0.00532832
0.0134505,-0.00344545
0.000984783,-0.0196721
-0.0177058,-0.012097
-0.0294115,-0.0100159
-0.0821697,-0.0146039
-0.126036,-0.00127592
-0.079993,0.0242417
0.00664697,0.0238942
0.111218,0.00608956
0.175085,-0.035941
0.108033,-0.0325877
0.0261282,0.00711219
0.00469829,0.0241561
0.0528574,0.0182253
0.039033,0.0250203
-0.0111386,-0.00167525
-0.0471511,-0.00773131
-0.0589119,-0.0072401
-0.0602004,-0.0258016
-0.0523765,-0.00198454
-0.0242905,-0.00460015
0.00434002,0.000845946
0.00989718,0.0065855
0.0049707,0.0189325
-0.00792518,0.0207935
-0.0143088,0.0125309
-0.0122593,-0.0101173
-0.00493718,-0.0186423
-0.00286987,0.00184196
-0.00356676,0.0159378
-0.00458167,0.0126296
0.0034132,0.0085993
0.0150672,0.0126952
0.0236063,-0.00179051
0.0320771,-0.0224352
0.0368372,-0.0233252
0.0292117,-0.0213605
0.0139262,-0.0248734
0.00149305,-0.00103601
-0.0105243,0.0183092
-0.0298058,0.0153245
-0.0338748,0.0136551
-0.0240098,-0.00187278
-0.00881295,-0.0313263
0.00401568,-0.0154176
0.00576198,0.0130245
-0.00206006,0.0154457
-0.0102353,0.013777
-0.0104266,0.0163163
-0.00258429,0.00935905
0.00325666,-0.01096
0.00387023,-0.0295181
0.00902837,-0.0161845
0.0120613,-0.00323741
0.00427521,0.000272113
-0.00871882,-0.0130703
-0.00907118,-0.00497492
0.000268917,0.011539
0.000336471,0.0104371
-0.0193958,-0.00889464
-0.0235723,-0.00833128
-0.0126942,0.00343748
-0.00439816,0.000211794
0.00717519,0.00610145
0.0127943,0.00951891
0.0195934,0.0152267
0.02601,0.0178249
0.021058,0.001361
0.0120578,-0.012113
0.00894824,-0.00443265
0.00745843,-0.00426377
0.00917238,0.0029622
0.00687222,0.008151
0.00576246,0.00501972
-0.00390136,0.00151028
-0.0130587,-0.0083721
-0.0135278,-0.0266132
-0.00650104,-0.0179156
-0.0140269,0.00239309
-0.0289744,0.019518
-0.0262947,0.0195304
-0.0154834,0.0153384
-0.00517617,0.0228739
0.00191563,0.0144911
0.0136003,-0.0037921
0.0234331,-0.0211111
0.0237629,-0.0166157
0.0188632,-0.0124298
0.0218749,-0.00276316
0.0188561,0.0078349
0.00624929,-0.000547287
0.000239558,-0.00962923
0.00387566,0.0024898
0.0122301,-0.0130935
-0.000801978,-0.0167771
-0.0268708,0.00470223
-0.0301743,0.0136664
-0.0137308,0.0177633
0.0137146,0.0150371
0.0258694,-0.0040419
0.0178006,-0.00771922
0.00951826,-0.0168034
0.00142384,-0.0251765
-0.0126271,-0.0168683
-0.0165126,-0.00168305
-0.0186794,0.0257779
-0.0553729,0.0266217
-0.101622,0.00489955
-0.133755,-0.00366691
-0.0942915,-0.0129142
-0.02547,-0.0240555
0.0408679,-0.0132878
0.117491,0.0026733
0.142891,0.0044858
0.0898882,0.00246483
0.045641,0.0082172
0.0203335,0.0157196
0.00549573,0.00412582
0.00578526,-0.0112201
0.0122867,-0.00113922
0.0187992,-0.00267739
0.018212,0.0134062
0.00737398,0.0180524
0.00839308,-6.37e-05
-0.0081055,0.00807216
-0.0849645,0.009486
-0.108665,-0.0147246
-0.0659112,-0.0242879
-0.0137765,-0.0102337
0.0340784,0.00640191
0.0712215,0.0101379
0.0753901,0.0149111
0.0523395,0.0205768
0.0484841,0.00861744
0.035062,-0.0124206
-0.00491518,-0.00865267
-0.0329412,-0.00546275
-0.0562195,-0.0214521
-0.0548854,-0.010528
-0.0142108,0.0228017
0.00767356,0.01631
0.00876447,6.26e-07
0.00255205,-0.00962905
0.00222071,-0.0322968
0.00717066,-0.0298582
0.00119733,-0.0136629
-0.0240189,-0.00872321
-0.0412499,0.00513409
-0.0390507,0.0164612
-0.0197627,0.0196728
-0.000434498,0.00743487
0.00978487,-0.0150118
0.0125467,-0.00927656
0.0163933,-0.00221541
0.0220203,0.00538275
0.0180351,0.0189653
0.00838212,0.0279387
-0.00216914,0.0244712
-0.00933353,0.0153113
-0.0101981,-0.00727176
-0.00278608,-0.0225169
-0.00926876,0.00292862
-0.0241344,0.0187249
-0.0203199,0.0170555
-0.00645334,0.0193113
0.0183252,0.0196225
0.0340119,0.0171907
0.0221361,-0.0039179
0.00545973,-0.018615
0.00133535,-0.0101478
0.00424348,-0.00644982
0.000472703,-0.000460176
-0.0156405,0.00720571
-0.0156952,0.00694872
-0.014106,0.000120318
-0.0126001,-0.0216772
0.000398754,-0.0246981
0.000571089,-0.0225699
-0.00840263,-0.00761648
-0.00901573,0.00205851
-0.00327737,-0.00131451
0.000990678,0.00420774
-0.00307445,0.0105835
-0.00881159,0.00157213
-0.0119401,-0.0143236
-0.0118229,-0.0120758
-0.00230956,-0.00649252
0.0132147,-0.00537283
0.0181672,0.00393175
0.0159721,0.0149536
0.0133227,0.0125887
0.0127677,-0.00182885
0.0205031,-0.0105274
0.0267666,-0.0257409
0.0186828,-0.0230704
0.00342768,-0.00419118
-0.0148661,-0.00149021
-0.0195644,0.00125072
-0.0104285,0.0105076
-0.00550687,0.0192304
-0.00119055,0.000740842
0.00950455,-0.0147173
0.0187658,0.00559629
0.0137887,0.0101971
0.0174088,0.0120065
0.0207759,0.0105456
0.0200343,0.00432387
0.0212139,0.0020891
0.0277057,0.000366582
0.00434481,-0.0191544
-0.074672,-0.0306291
-0.149173,-0.00202835
-0.118927,0.0121829
-0.00967448,-0.00242275
0.0660563,0.00753027
0.0931844,0.0240042
0.0681169,0.0237232
0.0365896,0.0071144
0.00804498,-0.0253926
0.00208268,-0.0197321
-0.00736395,-0.0027611
-0.0133178,0.00270288
0.000225676,0.00473899
0.0145522,0.00689514
0.0151894,0.0133409
0.0126876,0.0193273
0.0125289,-0.0068712
0.0113217,-0.0215294
0.00071698,-0.0125326
-0.0139123,-0.00579371
-0.0239977,0.00623176
-0.030925,-0.000196384
-0.0206533,0.0128161
-0.00764469,0.0175805
-0.00889639,-0.00854063
-0.0314109,-0.0132154
-0.0318101,-0.000169721
-0.0420695,-0.0114818
-0.0625865,-0.00194779
-0.032036,0.015022
0.042507,0.0130226
0.0766121,0.0136265
0.0706065,0.00621084
0.0628382,-0.0180144
0.0465654,-0.0269262
0.00480639,-0.00220367
-0.0393768,0.00466143
-0.0688772,0.0210218
-0.0717565,0.0162152
-0.0470173,-0.011522
-0.00818507,0.000165125
0.0302745,-0.00624894
0.0487035,-0.00482978
0.0549571,-0.00542268
0.0520801,-0.00543307
0.0292811,0.000686574
0.0130927,0.00759093
0.00440452,0.00377316
-0.0274483,0.000142549
-0.0982824,-0.00584926
-0.0960541,-0.0169735
-0.0482812,-0.0153818
-0.000862792,0.00179924
0.0400258,0.00923735
0.0736458,0.0155385
0.0715648,0.0231949
0.0411548,0.0164893
0.0280385,-0.00248276
0.0113316,-0.0205119
-0.00225548,-0.0210125
-0.00124539,-0.0129623
-0.0046248,0.000468451
-0.0162114,0.0081129
-0.0217117,0.0158688
-0.0196085,0.0114529
-0.0132775,-0.0022875
-0.000783025,-0.0100754
0.00502088,-0.0177258
-0.00305478,-0.00791748
-0.0157266,0.00936148
-0.0262316,0.0130845
-0.0255339,0.0182262
-0.0174707,0.0219709
-0.0130221,0.00956192
-0.0102148,-0.0136465
-0.0121035,-0.0225824
-0.00559988,-0.0181692
0.00991085,-0.0118346
0.0188647,-0.00347687
0.0186619,0.00198599
0.0202951,0.0133934
0.0142142,0.0129581
0.0132644,0.00510565
0.0200098,-0.0130045
0.0183451,-0.0188687
0.00770994,-0.00141087
0.00276124,0.0153153
-0.0122746,0.0209066
-0.0224373,0.0222612
-0.0227837,0.0249487
-0.0129284,0.00859068
-0.00139196,-0.0123211
0.0071781,-0.0194352
0.0125216,-0.0182131
0.0181011,-0.0113523
0.0160986,-0.000926993
0.0166209,0.00486155
0.0128172,-0.000542136
0.00321308,0.00246617
0.00106362,-0.00462446
-0.0036875,-0.0150683
-0.0166271,-0.0078215
-0.0189732,-0.00166128
-0.0217094,0.00514182
-0.0230804,0.0075345
-0.0268295,0.00898697
-0.0156185,0.0205663
0.0038459,0.0107549
0.0200516,-0.0306236
0.0202816,-0.0234734
0.012743,-0.0104597
0.00772421,-0.0105078
-0.00482767,-0.00130036
-0.01534,0.012631
-0.0139076,0.0115105
-0.00424557,0.00698664
0.000136467,-0.013499
-0.00331551,-0.0224403
-0.00602889,-0.000848222
-0.000692905,0.0163866
0.00932623,0.0198054
0.0191105,0.0280735
0.014619,0.0333974
0.022869,0.0161922
0.0508045,-0.0199757
0.0585902,-0.0295927
0.0279457,-0.0258916
0.00328171,-0.021046
-0.0227568,-0.00418532
-0.0540897,0.0129164
-0.0553078,0.0150135
-0.0343947,0.00560977
-0.0142371,0.00726545
-0.00284077,-0.0178905
0.0035271,-0.0245801
0.00212608,-0.000864233
-0.00264257,0.0208916
-0.00955306,0.0217709
-0.0118733,0.0293671
-0.00481107,0.0239903
-0.00150284,0.00366121
-0.0181662,-0.0299279
-0.0280361,-0.0261384
-0.0174596,-0.0128165
0.00183563,-0.00555369
0.0176469,0.00657086
0.0185171,0.00430462
0.00735446,0.00914065
0.0103464,0.00449411
0.020406,-0.00740736
0.0269825,-0.00390763
0.0251463,-0.0129018
0.010601,-0.00395943
0.0116783,0.0058418
-0.00157556,0.0163522
-0.0144715,0.0251829
-0.0130485,0.0229493
-0.00664932,-0.00354687
-0.00511497,-0.0234982
-0.0119041,-0.0189788
-0.00649696,-0.0112999
0.00634953,0.000546737
0.0210075,0.00660802
0.0286465,0.00386072
0.0220579,0.00146904
0.0168556,0.0148727
0.0302559,-0.00924611
0.0292586,-0.0294902
0.00499873,-0.0124404
-0.0157692,-0.00234592
-0.0233262,0.00657723
-0.0210441,0.0221706
-0.0249802,0.0243247
-0.0339463,0.0113943
-0.026178,-0.0127962
-0.0223803,-0.0204985
-0.0217633,-0.0125888
-0.00913406,-0.0104354
0.00650452,0.00159037
0.0134125,0.0140768
0.00951762,0.0151737
0.0075599,0.00884018
0.0107958,-4.09e-05
0.0176023,-0.0211913
0.0169436,-0.0255372
0.00836363,-0.00457443
-0.00307821,0.00703645
-0.00890406,0.00949732
-0.010891,0.0168013
-0.0136201,0.0156095
-0.0173801,-0.00221519
-0.0150387,-0.0233525
-0.00447124,-0.0245175
0.00150656,-0.0034857
0.00534169,0.00392369
0.00763735,0.00935514
0.00674789,0.0125522
0.00660665,0.00813993
0.00860534,0.0101884
0.011317,-0.0042809
0.0117351,-0.0161167
0.00598907,-0.00148314
0.00165148,0.0129622
0.000681458,0.0051435
-0.00200959,0.00745196
-0.000827418,0.0202197
-0.00594137,0.0163531
-0.0205549,-0.0149514
-0.0331457,-0.0459073
-0.0244249,-0.0269564
0.000452552,-0.00573537
0.0114402,0.000674459
0.0109169,0.0207225
0.0123185,0.0300425
0.0164681,0.0167682
0.0246246,0.000634055
0.0419433,-0.0194755
0.0502641,-0.0262182
0.0278485,-0.0211058
-0.00550171,0.00344932
-0.0366628,0.0113904
-0.0487239,0.0098927
-0.0343903,0.0180197
-0.00763201,0.0155826
0.00773859,-0.00673262
0.000827914,-0.0160911
-0.0120442,-0.0118649
-0.00826824,-0.0100161
0.0121262,0.00367298
0.0379113,0.00788285
0.0478683,0.00298783
0.0599423,-0.0017707
0.0415722,-0.00740493
-0.000409969,-0.0290042
-0.0411188,-0.0274836
-0.0683333,0.00394778
-0.0884275,0.0170851
-0.0829058,0.0130317
-0.0538464,0.00572469
-0.0364648,0.00998473
-0.0140908,0.0118108
0.00747422,-0.00112917
0.0392222,-0.00657404
0.0530861,-0.00506594
0.0375068,0.00572927
0.0100613,0.0129287
-0.0211478,0.0226094
-0.0331353,0.0450597
0.0203284,0.0302757
0.062624,-0.0189085
0.0939855,-0.0318164
0.0974721,-0.0182169
0.0746482,0.00343675
0.0349732,0.0170255
-0.0287302,0.0153361
-0.0950793,0.0189668
-0.125211,0.0183725
-0.10207,0.00164862
-0.063885,-0.0143618
-0.0264936,-0.0102372
-2.69e-06,-0.012296
0.00113575,0.001965
0.000119424,0.0149821
-0.00681804,0.0184949
-0.0117787,-0.00698844
-0.0090641,-0.00537283
0.00211404,0.0119878
0.0164044,0.0103032
0.0417684,0.00498616
0.0714018,-0.0244941
0.0730826,-0.0444101
0.0517374,-0.0276785
0.0386761,-0.00203638
0.0266508,-8.34e-05
0.00949347,-0.0178028
-0.00762433,-0.0179584
-0.0218534,-0.00113129
-0.0392164,-0.00678409
-0.0522907,-0.00317876
-0.0607063,0.00781304
-0.0558205,0.0142422
-0.0410119,0.0111303
-0.0244546,0.0015006
-0.0117934,-0.0164554
0.00958029,-0.0260519
0.0581812,-0.0115817
0.13047,0.00305724
0.1339,0.00478012
0.0842394,0.0168598
0.0137581,0.0156401
-0.0193781,0.00915636
-0.0172187,0.00752027
-0.0223912,-0.00390473
-0.0319992,0.00805035
-0.0444853,0.00926662
-0.0625155,0.00517885
-0.0746489,0.00989226
-0.0574459,0.00414502
-0.0268621,-0.00906657
0.0141116,-0.0243185
0.083602,-0.0355074
0.112491,-0.0346102
0.0711395,-0.0156861
-0.0193887,-0.00716459
-0.0829973,-0.00401622
-0.0822392,0.000545979
-0.0351364,0.0383874
0.000169647,0.0330769
-0.0168088,0.0126049
-0.0309042,0.0284122
-0.0260967,0.0105756
-0.00505648,0.0374912
-0.000772159,0.0265527
-0.00718331,-0.00263535
-0.00287036,0.00212257
-0.00127439,0.000871504
0.00471222,-0.0115483
0.00679904,-0.0202671
-0.00761084,-0.0325272
-0.00903042,-0.0127383
0.00595024,-0.0208743
0.0425383,-0.0101745
0.0611141,-0.00815308
0.0635884,-0.0365292
0.0550712,-0.037541
0.0503912,-0.0198224
0.046097,-0.00166422
0.00049722,0.0147182
-0.0531294,0.0253712
-0.0524711,0.0414404
-0.042564,0.0546302
-0.0368405,0.0326671
-0.0288285,-0.0021295
-0.00394105,-0.0221041
0.0281556,-0.00417478
0.0412391,-7.5e-05
0.0117573,-0.00120391
-0.0458775,-0.00335344
-0.0531855,-0.00563624
-0.0514303,-0.0194093
-0.0312043,-0.0308733
0.00198906,-0.0282243
-0.0067532,-0.0318133
-0.00501761,-0.00519822
0.0231271,0.0472626
0.0679655,0.0379661
0.122021,0.0211953
0.145051,0.0348951
0.135995,0.0294187
0.0835194,0.00520143
-0.00372645,-0.00846953
-0.114353,-0.0113865
-0.132326,-0.00896623
-0.128581,-0.00710483
-0.120955,-0.0092418
-0.103828,-0.0125582
-0.0622406,-0.0230294
0.0378024,-0.0491222
0.0859617,-0.00630511
0.0771822,0.00623542
0.0407594,0.00289502
-0.00916308,0.02056
-0.0485224,0.0380012
-0.0587884,0.0380611
-0.0371772,0.0368708
-0.00273733,0.0296924
0.0284218,-0.0137449
0.0567678,-0.0215761
0.0702821,-0.0120536
0.0577542,-0.00858422
0.0182538,-0.00903931
-0.00938583,-0.0131288
-0.0117247,-0.00718589
-0.0424872,-0.0215229
-0.0857664,-0.0493642
-0.0754277,-0.00901051
-0.0212528,0.0067575
0.0142536,0.00919922
0.0275966,0.030932
0.0578682,0.0382112
0.0751,0.038126
0.0556941,0.026233
0.0283121,-0.000929862
0.00715432,-0.0149527
-0.0202583,-0.00746717
-0.0276477,-0.00173083
-0.0323394,-0.0113342
-0.0237763,-0.00197821
-0.0134986,-0.007446
-0.0140127,-0.0163457
-0.0225953,-0.0263314
-0.0204642,-0.0230998
-0.0105507,-0.00341854
-0.00556517,-0.0081834
-0.00587312,-0.00748263
-0.00164486,0.0180128
0.00672,0.0218835
0.00833194,0.00733618
0.00303079,0.0125464
0.00380539,-0.00225899
0.00791728,-0.00707607
0.00730061,-0.00376574
0.00540852,0.000691659
0.00687206,0.00216978
0.0154749,0.00335379
0.0257363,0.00464953
0.0228609,-0.027649
0.0197963,-0.0379738
0.0210579,-0.0103916
0.00915731,0.000540003
0.000636972,0.015374
-0.00100647,0.00896904
-0.00774948,0.0153476
-0.0162398,0.013262
-0.0215338,0.0201134
-0.0230139,0.0229231
-0.0144168,-0.00772976
-0.00966541,-0.00430286
-0.00991697,0.00320211
-0.00884683,-0.00316949
-0.00334345,-0.013844
0.00784955,-0.0156532
0.0271905,-0.000103435
0.0349454,-0.00604114
0.0203216,0.00346253
0.00223006,0.0310334
0.00311205,0.0419064
0.00704646,0.0159439
0.00271254,-0.0209365
0.00250975,-0.0307651
-0.000679856,-0.00467793
-0.0163467,0.00249976
-0.0229175,-0.0148584
-0.01547,-0.00867274
-0.0163861,0.00978561
-0.0187531,0.00751805
-0.0158345,-0.0179392
-0.0101147,-0.0217089
0.00366357,0.00581696
0.0132836,-0.000264464
0.0124454,-0.0245436
0.00825506,-0.0178166
0.00320015,-0.00201013
0.00346621,0.00811136
0.00669375,0.014903
0.00166149,0.0209442
-0.00265697,0.0224537
-0.00816253,0.0146445
-0.0211506,-0.00433741
-0.00137424,-0.00754564
0.0279037,-0.0189458
0.0293176,-0.0244938
0.0208306,0.0126425
-0.0233419,0.0119527
-0.0501533,0.00304247
0.000788275,0.00909617
0.05229,0.0068014
0.0500012,-0.00719242
0.0367176,-0.00483928
0.0267217,-0.00224555
0.00405854,-0.00269382
-0.0302542,0.0096053
-0.0427803,0.0301174
-0.053864,0.0208159
-0.0581906,0.00786876
-0.0321235,-0.00533587
-0.0138485,-0.0295298
-0.00506629,-0.0212891
0.00136021,0.0065529
0.000776133,0.00293554
-0.0021813,-0.0152611
0.00858504,0.00368125
0.0182342,0.0148804
0.0120455,0.000664608
0.00361362,-0.00997169
2.34e-06,-0.0107661
-0.0166838,-0.0362946
-0.0163388,-0.0350086
0.0194742,-0.00241503
0.044297,0.0290072
0.0313365,0.0416795
0.01145,0.022911
0.00346961,-0.00321829
0.00211561,-0.0125588
-0.00880836,-0.00614393
-0.0204921,-0.000532203
-0.0159578,0.00159444
0.0010114,0.00299487
0.00782513,0.00245309
0.00354901,0.000830238
0.0054942,-0.0119265
0.00872898,-0.0218649
0.0146712,-0.0103125
0.0164033,-0.00796867
0.0137318,0.0109856
-0.00612781,0.0304917
-0.0674277,0.0210273
-0.0976985,0.012304
-0.0663515,-0.00032718
-0.0150981,-0.0220802
0.0245137,-0.0167119
0.0493446,0.000537541
0.0651424,0.0029452
0.0538354,-0.00534877
0.0354156,0.0180822
0.0199259,0.0177968
0.00780975,-0.0088566
0.00688492,-0.0120726
0.0102796,-0.00691916
0.0132464,-0.00274865
0.0109446,0.00506221
0.00109838,0.0149223
-0.00684697,0.0198805
-0.0108889,0.0120688
-0.0107424,0.00800953
-0.0076293,-0.00465682
-0.0079619,-0.0191138
-0.0134085,-0.0158717
-0.0176757,-0.00385688
-0.0167664,-0.00293356
-0.0144184,-0.00142415
-0.0104727,0.00641351
-0.00575724,0.0057398
-0.00198765,-0.0100755
0.00526039,-0.0192302
0.00878462,-0.0112123
0.00843985,-0.00612396
0.00689159,0.00687205
0.00040791,0.0132669
0.00154316,0.00789578
0.0049921,0.00607195
0.000926828,0.00939078
-0.00184453,-0.00921863
-0.00622761,-0.0201779
-0.0106829,-0.0118653
-0.0102609,-0.00221401
-0.00476276,-0.00689992
-0.000424573,-0.00625515
-0.000932141,0.00293983
-0.000113742,0.00389399
0.00243678,-0.0178684
0.00925514,-0.0201471
0.0145708,0.00215235
0.0125072,0.00409616
0.00299006,0.0198338
-0.00488922,0.0296462
-0.0124092,0.0066639
-0.0180919,0.0394482
-0.00783299,0.0218288
0.00385753,0.00153996
-0.000543233,0.00559737
-0.0176484,0.0129648
-0.0225021,0.0214485
-0.00334682,0.0127691
0.00519919,-0.0013544
-0.00255107,0.00400749
-0.000980926,-0.00309412
0.00708391,-0.0169962
0.0087238,-0.0162024
0.00963063,-0.0116643
0.0137741,-0.00496286
0.0137908,0.00354892
0.00764117,0.00633596
-0.00197834,-0.000832633
-0.00824913,-0.0061661
-0.0107351,-0.00944518
-0.01159,-0.0126343
-0.0129589,-0.0163578
-0.0055756,-0.0103064
0.00972593,-0.00740465
0.0117238,-0.00768254
0.00864372,-0.00226938
0.00586592,-0.00113621
0.00415258,-0.00742557
0.00683123,-0.00900994
0.00395397,0.000357857
-0.000958537,0.00396335
0.0151091,0.0044232
0.0242099,0.0136164
0.0261805,0.0186517
0.0226964,0.0129889
0.00900212,0.0095436
-0.0101799,-0.0117668
-0.0536779,-0.0329174
-0.0551255,-0.0234881
-0.0298272,-0.00279593
-0.0131862,-0.00437725
0.00269221,0.0114339
0.012293,0.0170387
0.0310592,0.00403321
0.0301202,-0.0110097
0.00703216,-0.00722757
-0.00599763,0.000242591
-0.00682566,-0.00499312
0.0015018,0.0094649
0.0124712,0.0163399
0.00886363,0.00242571
0.00283859,0.0032943
0.00561628,0.0016399
0.0102782,-0.0112256
0.00175817,-0.0153481
-0.00897119,-0.0123926
-0.0102618,-0.00374215
-0.00512365,0.00394244
-0.00705958,0.00777131
-0.00909219,0.0103977
-0.00770115,-0.00206111
-0.00053811,-0.00998697
-0.00169074,-0.000300326
-0.00194348,0.00656937
0.00350173,-0.000840443
-0.00986769,-0.00806592
-0.0110104,0.0146971
-0.00374685,0.00307844
-0.00143366,0.0103515
0.014025,0.0165445
0.0244881,-0.00382084
0.0152942,-0.0112994
-0.00337967,-0.0081667
-0.00277642,0.00325901
-0.00015968,0.00437585
-0.00871536,0.0111029
-0.0102453,0.00855739
-0.00306814,-0.00196066
-0.00100888,-0.00931712
-0.00380739,-0.00567396
-0.00499317,-0.00539079
-0.0031329,0.00308522
-0.00513093,0.0140078
0.00148466,0.0214593
-0.000219112,0.0114006
-0.00358357,0.00379879
-0.00361275,-0.0100479
-0.00373605,-0.0201919
-0.00611781,-0.0113412
-0.00596881,-0.000603113
0.00237075,-0.0031796
0.00493081,-0.000806566
0.00277862,0.00544401
0.000990219,0.00897221
0.004568,0.00883835
0.0115145,-0.00443361
0.0148302,-0.0188043
0.0109975,-0.0102286
0.00814675,0.00249369
0.00241682,0.0115523
-0.00844729,0.00649457
-0.0058645,0.00916735
-0.000397836,0.00592982
0.00347146,-0.0206418
0.00638544,-0.0199473
0.00239774,-0.00729668
-0.00577874,-0.0015619
-0.00876852,-0.00287651
-0.0124111,0.00396564
-0.00929766,0.014446
-0.00369756,0.0104965
0.00878804,-0.00065934
0.0160551,-0.000868166
0.0158033,0.00281405
0.00677638,0.009767
-0.00715489,0.0173801
-0.0102351,0.0176623
-0.00675704,0.0181578
-0.00527614,0.0133588
-0.00148889,-0.0131583
0.00308791,-0.0470627
0.00213531,-0.0410477
-0.00113206,-0.00686421
-0.000537811,-0.00252711
-0.00201029,-0.000213263
-0.00408661,0.0105295
-0.00293915,0.0134694
-0.00043358,-0.0115991
0.00495906,-0.0151452
0.00840713,0.00225463
0.0123981,0.0208537
0.00314598,0.0469577
-0.00139428,0.0765483
0.00383037,0.0564013
-0.00257683,0.0122931
-0.0230665,-0.0275998
-0.0249923,-0.0925765
-0.0185571,-0.0865929
-0.0182997,-0.0334727
-0.0161503,-0.00950892
0.00843951,0.00481269
0.0283807,0.00114788
0.0256111,0.00460653
0.0127768,0.00966321
0.0107459,-0.00543856
0.0256825,0.00187837
0.0238016,0.0022172
-0.00182931,-0.00120635
-0.0225624,0.0090611
-0.0134168,0.0104909
-0.00625022,0.00643824
-0.00405274,0.00788395
0.00240369,0.0277611
0.00474827,-0.000342491
0.00422094,-0.045353
-0.00293586,-0.024451
-0.0100055,-0.0121408
-0.0110979,0.0114115
-0.0106012,0.0359563
-0.0177671,0.0251354
-0.00443055,0.00954267
0.0126724,-0.00339792
0.0157675,-0.0188949
0.00787587,-0.0137824
0.000723899,0.00200212
0.00290342,0.0171966
0.00437114,0.0199724
0.00320985,0.0170093
0.00145953,0.0190727
-0.000866245,-0.00402266
-0.0109719,-0.044907
-0.00671577,-0.0241088
-0.00247636,0.0123772
0.00511825,0.0371667
0.00187611,0.0254772
-0.00200974,0.0151011
0.00219776,-0.0114547
0.00151585,-0.0380875
0.0129784,-0.0162486
0.0186233,0.0043342
0.0132394,0.0184705
0.00138663,0.0225892
-0.00804145,-0.00798373
-0.0290795,-0.0462259
-0.0293845,-0.0325929
0.00284894,-0.00898682
0.00676965,0.0141592
-0.054543,0.00736799
-0.0623486,0.00952394
-0.0172488,0.0161382
0.0241669,0.0029535
0.035733,0.00923534
0.0246789,0.0170661
0.0398006,0.017844
0.0382003,-0.0149352
0.0215329,-0.0223676
0.010634,0.00383024
0.0221755,0.0157123
0.0270371,0.0230768
0.0105224,-0.0020597
-0.00263881,-0.0208009
-0.01641,-0.0219808
-0.0327064,-0.0177741
-0.0475906,-0.000967286
-0.0339973,-0.00150209
-0.0255253,-0.000786762
-0.0200008,-0.00960663
-0.0122702,-0.0141655
0.000722001,-0.00180287
0.0161905,-0.0195502
0.0230994,-0.0269819
0.0192883,0.0131011
0.0132074,0.0549061
0.0101178,0.053676
-0.000675491,0.0306137
-0.00281142,0.00591369
0.00934732,0.0299819
0.0264359,0.0163752
0.0216225,-0.00135514
0.00281325,0.00227281
-0.0021906,-0.0148362
0.00629308,-0.0430262
0.00653504,-0.0360661
0.0168516,-0.00562245
0.0129091,-0.00741485
0.00422116,-0.00557851
-0.0117648,0.0345489
-0.0157604,0.0101253
-0.0286336,-0.0366054
-0.048384,-0.0309762
-0.0305844,-0.0094163
0.00140242,0.00298107
-0.00401818,0.012348
-0.0104894,0.00982056
-0.0149382,-0.0126941
-0.00894829,-0.0154488
0.0136606,-0.0309516
0.0270446,-0.0380712
0.0299992,0.00988124
0.0215017,0.0181541
0.000291336,0.00820796
-0.0124547,0.0528066
-0.0187113,0.0506078
-0.0373001,-0.00453857
-0.0222789,-0.00965536
0.0355195,0.0157189
0.0222824,0.0176499
-0.0267303,-0.0364114
-0.0283295,-0.0582993
0.0138577,-0.0137391
0.0220596,-0.00772793
0.0188678,-0.0137633
0.0220446,-0.00545611
0.0123528,3.03e-05
0.0137916,0.0169614
0.0147712,0.0156155
-0.00237716,0.0171954
-0.00929855,0.0225828
-0.0345252,0.0178182
-0.0377718,0.000481834
-0.0308595,0.0213878
-0.0296521,0.00164942
0.0288262,-0.0438966
0.0565349,-0.0215727
0.0440029,0.00632322
0.0215267,0.0308721
-0.0266982,0.0434373
-0.0606863,0.0180295
-0.064104,-0.0116628
-0.0544067,-0.0428248
-0.0131354,-0.0276007
0.0400639,-0.00683981
0.0792856,0.0105423
0.0614444,-0.00114404
0.0308201,-0.0130221
0.0198487,0.021915
0.00968495,0.0225194
-0.0305118,-0.0478805
-0.0419811,-0.0205971
-0.0198259,0.0179142
0.0109867,0.00232181
0.0360052,0.000349505
0.00403826,0.0083869
-0.0757592,0.0255489
-0.0851312,0.0227167
-0.0552245,-0.00144817
0.0110371,-0.00186494
0.0722965,-0.0325279
0.0973212,-0.0308663
0.0657978,0.0258371
0.0235303,0.0171224
0.0144764,0.00838831
0.0317084,0.0196733
0.0557635,0.0100029
0.0679504,-0.00295228
0.0563448,-0.0108136
-0.0136857,-0.0138104
-0.0774754,0.00480296
-0.107892,0.00224908
-0.072126,-0.0137346
-0.0383346,-0.00182949
-0.00869219,-0.0461948
0.0360563,-0.029701
0.0494341,-0.0188748
0.00974843,-0.00457939
-0.0251084,-0.00884585
-0.0367626,-0.0033089
-0.0155983,0.0032473
-0.032828,-0.0163109
-0.0506461,-0.00196922
-0.0536446,0.00771959
-0.0621358,0.0112802
-0.0252369,0.0196375
0.0309142,0.0206555
0.0193956,0.0134861
0.0278556,0.0338152
0.0880734,0.06079
0.09032,0.0293601
0.0299638,-0.00547781
0.00527946,0.0233533
-0.0211901,0.00724001
-0.0222894,0.0187631
-0.00405734,0.0096466
-0.0863252,-0.039535
-0.266535,-0.00977151
-0.343214,0.00553252
-0.157498,0.0250463
0.062011,0.0612479
0.189001,0.0214296
0.291514,-0.0229653
0.280606,-0.101455
0.15738,-0.0337424
0.072612,0.000536312
0.0359729,-0.0211352
0.0206872,-0.0162105
0.0241797,-0.00435833
0.0268217,-0.0161342
0.002343,-0.00719033
-0.0392408,-0.00784282
-0.0644264,0.00414214
-0.0568947,0.00394028
-0.0149643,-0.000787037
-0.0113408,0.0747413
-0.027618,0.111299
-0.0449915,-0.00198739
-0.00375556,-0.0552608
0.0237999,0.0168964
-0.030014,-0.0697329
-0.0352036,-0.0680134
-0.0299692,0.00707061
-0.0368002,0.0369891
-0.0241955,0.013484
-0.0276417,-0.0582916
-0.00471328,-0.0253024
0.0275189,0.0239502
0.0419704,-0.019547
0.0331647,-0.0200915
-0.00501819,-0.0223385
-0.0231266,0.0214837
-0.0329445,0.0588388
-0.0692313,0.00252324
-0.0727733,-0.0334963
-0.024937,-0.0110261
0.0112852,0.00441992
0.0501182,-0.00196686
0.0796557,-0.0283381
0.0325455,-0.0234732
0.0016315,0.00407057
0.0208076,0.012355
0.031405,0.00363161
0.0338463,-0.0224097
0.0305764,-0.0212375
0.0290094,0.0338861
0.0261064,0.0404875
0.0162995,0.0169002
0.00560838,-0.000887905
0.00398213,-0.031335
-0.0165193,-0.00974275
-0.0771669,0.00684576
-0.118057,-0.000574013
-0.0838135,-0.0267816
-0.0271936,0.00579604
0.019369,0.039836
0.043266,0.0229196
0.0270472,0.0171687
-0.00867077,0.0177298
-0.00597545,0.012505
0.0272655,-0.00642829
0.0257823,-0.00640879
0.00190355,0.00709615
-0.00627496,0.0177901
-0.00399687,0.0223522
-0.00467223,0.0189861
-0.00485783,0.00854759
-0.0196122,-0.0109385
-0.0152348,-0.0201506
-0.00295747,-0.0132792
0.00505058,-0.0171547
0.0187545,-0.0059176
0.0250881,0.00793909
0.0274429,0.00917583
0.0256235,0.00157128
0.0282691,0.00357166
0.0267082,-0.0189453
0.014559,-0.0444813
0.00581613,-0.0260135
0.00513622,-0.028328
0.0126948,-0.00367961
0.00948119,0.028272
0.00189417,0.0175446
-0.00913064,-0.00735668
-0.0197113,-0.00336876
-0.0303575,-0.0121522
-0.0501024,-0.00944634
-0.0866553,0.0143926
-0.0728419,0.0207438
-0.0279637,0.0278879
0.0178543,0.0261913
0.0361145,0.0194324
0.0500705,0.00430347
0.0399695,-0.0108245
0.0123927,-0.0144922
0.000936744,-0.00690267
0.00913172,-0.000896661
0.02107,-0.00564987
0.0272181,0.00123049
0.0305266,-0.0180794
0.023324,-0.0351578
-0.00380073,-0.00911351
-0.0119309,0.025263
0.0153086,0.0277582
0.0337573,0.0205809
0.00689316,0.0150868
-0.0450579,0.00935151
-0.0503351,-0.00889833
-0.0216676,-0.0022301
0.00681267,0.00431268
0.013358,-0.0115967
0.00343895,-0.0167998
-0.0124197,-0.0163271
-0.0113331,0.0112093
-0.0159518,0.014337
-0.0399903,0.0284458
-0.0415534,0.0330311
-0.000909602,0.0166975
0.0164041,-0.0195116
-0.000118186,-0.0216832
0.00331104,0.0614257
0.0312857,0.0691466
0.069407,-0.0566343
0.0670281,-0.0730631
0.0246745,-0.0437072
-0.00342172,-0.0577239
-0.00412808,-0.0280257
-0.0372216,0.00477076
-0.124384,0.00111678
-0.18883,0.00759025
-0.134592,0.0242623
-0.0832598,0.0140625
0.0103912,0.00516852
0.0979429,-0.00350996
0.124532,-0.0113911
0.0924158,-0.0118629
0.0945797,-0.00175548
0.063892,-0.00431595
0.0135776,-0.00491642
0.0168529,0.00840029
0.0410803,0.012393
0.0383198,0.0282943
0.0318528,0.0183658
0.0382691,-0.00874986
0.0113694,-0.00845504
-0.023188,-0.0192297
-0.0535612,-0.0181424
-0.110082,0.0122604
-0.0918368,0.0294606
-0.0167734,0.00986016
0.031147,-0.0289023
0.0589219,-0.015474
0.0636729,-0.00961794
0.0377361,-0.026417
-0.00270966,-0.00524067
-0.0358603,0.0262395
-0.0341965,0.0393918
-0.0310873,0.0323932
-0.0440608,0.0115287
-0.0486732,-0.00428417
0.00609401,-0.0174866
0.0254583,-0.0169052
0.0204607,-0.00761769
0.0224648,-0.00223004
0.0218683,0.00133134
0.0165768,-0.000694352
0.0029946,0.00457955
-0.0102688,-0.0042255
-0.0187817,-0.0115677
-0.0173895,-0.0195129
-0.0186768,-0.0178264
-0.0427312,0.00302134
-0.0562474,0.012283
-0.032394,0.0232391
-0.022913,0.0234408
-0.0293084,0.00821053
-0.0145551,-0.00460587
0.0261879,0.000357973
0.0599322,0.00607333
0.069535,-0.0129313
0.0619864,-0.0235991
0.0528821,-0.00143957
0.0338551,0.00355313
-0.000465879,-0.0211984
-0.016396,-0.00957039
-0.00882654,0.0126574
0.003929,0.0308644
0.0133,0.0276016
0.00935685,0.00103083
-0.0127674,0.00380045
-0.0110118,0.0501941
-0.00146738,0.0675481
-0.00600893,-0.00182897
0.00255033,-0.0325266
0.0103556,-0.0131232
-0.00420054,-0.00297776
-0.0154578,0.00678222
-0.00404867,-0.00858505
0.00293424,-0.0116914
0.00560519,-0.0222821
0.00728454,-0.0343599
-0.00283858,-0.0156654
-0.0147594,-0.00230468
-0.0227294,0.00689053
-0.0485099,0.0186051
-0.0429186,0.0129723
-0.0167388,0.0166422
0.00244508,0.0102166
0.0133367,-0.0079594
0.00913966,-0.0278937
0.00348271,-0.0369869
-0.00506773,-0.0453714
-0.00389991,-0.0276096
0.0201097,-0.00644072
0.0368434,0.00349948
0.0319747,0.00955032
0.0191903,0.0150163
0.0136323,-0.00343263
-0.00396938,-0.0159801
-0.0136685,-0.0218909
3e-05,0.00201394
-0.0425296,0.0251838
-0.068821,0.0349825
-0.0205031,0.0249854
-0.00106838,0.00938877
0.00815123,-0.0275136
0.0232786,-0.046967
0.0241787,-0.0175932
0.0199778,0.0154257
0.0266501,0.0169336
0.02821,0.00699022
0.0226404,0.0166712
0.00291151,0.017812
-0.00957303,0.00877226
-0.0124107,-0.00429194
-0.0312357,-0.0151701
-0.041883,-0.0272724
-0.0338794,-0.0489161
0.00132595,0.0279706
0.0228977,0.0768334
0.0102509,0.0400752
-0.00338867,0.00454864
0.0182766,-0.0130337
0.0269755,0.00822125
0.0150934,0.0175002
0.012571,0.013647
0.0083389,0.0114962
-0.00401155,0.00422803
0.00850093,0.0145464
0.0153417,0.0394554
-0.0448301,0.0342729
-0.105194,0.0116028
-0.0774446,-0.0473419
-0.0244965,-0.0503023
0.0132884,-0.0195249
0.0326134,-0.0384684
0.0309686,-0.0374441
0.0311523,-0.0319114
0.016818,-0.00978043
-0.00954574,0.00157289
0.00341077,-0.0247609
0.0284954,-0.0131327
0.0495648,0.0196293
0.066221,0.0192582
0.0401064,0.010211
0.00162882,0.0077912
-0.00353619,0.00716478
0.0146451,-0.00264855
0.0268297,-0.0125306
0.0163389,-0.00447903
-0.00925714,0.00526204
-0.0138226,-0.00702222
-0.0144099,0.0107599
-0.0132595,0.0324409
-0.00719412,0.0273028
-0.0378782,0.0151373
-0.0615088,-0.00816852
-0.0219469,0.00199132
-0.00769869,0.00950366
-0.036,-0.00251854
-0.00863685,0.00573615
0.0141625,0.00725378
0.00826824,-0.00666668
0.0254882,-0.00396018
0.0395128,0.0103747
0.0264373,0.00810929
0.012421,0.00252409
0.00579299,0.000232913
0.00419507,0.00380798
0.00175887,-0.00309298
-0.00984163,-0.0175788
-0.00669006,-0.00729448
0.00979305,-0.00864473
0.00750015,-0.029354
-0.00778636,-0.013936
-0.0195007,-0.00585742
-0.0216412,-0.0142409
-0.00937045,-0.0104135
-0.00498222,-0.00527504
-0.0138683,0.00670708
-0.0160376,0.00704313
-0.017629,-0.00849872
-0.0243792,-0.0137772
-0.00680845,0.000759007
-0.00888209,0.029476
-0.0189654,0.014754
-0.0159708,-0.0119003
-0.0212481,-0.0191705
-0.013137,-0.00616542
0.00753602,-0.00290781
0.0039515,-0.0311198
0.00182072,-0.0186486
0.0073841,0.00605255
0.00743454,0.0162594
0.00580047,0.0226837
0.00291843,0.0177393
-0.00149296,0.0250783
0.0066875,0.00464958
0.0167965,-0.0112403
0.0257665,-0.00514493
0.0287787,0.00557042
0.0193484,-0.00460854
0.0040405,0.00541422
-0.00638134,0.0264075
0.00322014,0.026716
0.0161287,0.0158391
0.0191552,0.00417807
0.0272163,-0.0221127
0.013718,-0.0308588
0.00414923,-0.00735289
0.00446066,0.0118103
-0.00460533,0.00776619
-0.0108813,0.00263029
-0.0189299,-0.0169193
-0.00671628,-0.0329245
0.00553328,-0.0195932
0.0115328,0.00276546
0.0086036,0.00785132
-0.0175307,0.00764439
-0.0273605,0.0102144
-0.0337321,0.00522775
-0.0311448,-0.00348912
-0.000346162,0.00364402
0.0294781,-0.00927908
0.0196144,-0.0113539
0.0111345,0.0144259
0.00577008,0.0166841
0.00459029,-0.00578159
0.00301387,0.00246987
-0.00667278,0.0143012
-0.0146789,-0.00569392
-0.00305625,-0.0130935
0.0074374,0.0116237
0.0196199,0.0159622
0.0134253,0.00409831
-0.0313456,-0.00429536
-0.047018,0.0250867
-0.0285629,0.0234577
-0.0322843,0.0136136
-0.0272586,0.0380585
-0.00366269,-0.0165198
0.0187732,-0.035382
0.053221,-0.0265882
0.0648066,-0.0232418
0.0749465,0.0117863
0.0337635,0.00811672
-0.00505353,0.00664686
-0.00462906,0.00166125
-0.000384533,-0.00923359
-0.00855575,-0.00957176
-0.00607183,-0.00743712
0.0239268,0.00764375
0.0314485,0.0142338
0.00310611,0.012661
-0.0249478,0.0117841
-0.031385,0.0101279
-0.014462,0.00863383
-0.00187138,0.0116574
-0.00127997,0.00947239
-0.00672156,0.00119051
-0.0117246,-0.0250843
-0.0179683,-0.0200214
-0.0368336,-0.0206985
-0.0870225,-0.0459958
-0.107786,-0.066959
-0.0740664,-0.0429826
-0.00410146,-0.0180207
0.046654,0.00117278
0.0753982,0.0313734
0.0675542,0.0460646
0.0550008,0.0426034
0.0346286,0.0162259
0.0183134,-0.010124
0.00331489,-0.00627339
-0.0117541,0.00598844
-0.0143125,0.0155324
0.0112383,0.0119635
0.0188615,-0.0108135
0.00594504,-0.0150994
0.0142308,-0.00446607
0.00896075,-0.0197794
0.00181689,-0.0255679
0.00224264,-0.0138903
-0.000731596,-0.0055
-0.0134082,-0.00324804
-0.0207756,0.0177021
-0.0230827,0.0272789
-0.01706,0.0209943
-0.00244519,0.0148978
-0.00374188,-0.00475217
-0.0166438,-0.026028
-0.0110626,-0.0262191
0.0103098,-0.00981212
0.0161031,0.0310989
-0.00134405,0.0362479
-0.0106394,0.00935716
-0.000218684,-0.0210422
0.00825939,-0.0297873
-0.00380972,-0.0103127
-0.0101008,-0.000164949
-0.00119505,0.0123432
-0.00163818,0.0365932
0.00629146,0.0264163
0.0133614,0.00854387
0.00402052,0.00529471
0.025572,0.00275362
0.0358166,-0.00795752
0.0189708,-0.00343753
-0.0130866,0.00481868
-0.0306253,0.00615533
-0.016975,0.0051106
-0.00179145,-0.00636952
0.000328349,-0.00322021
0.00882545,-0.00986799
0.00917132,-0.0196428
0.00984698,-0.0088992
-0.00314841,-0.00770952
-0.0502063,-0.0047982
-0.0748867,0.0129609
-0.0225148,-0.0135372
0.014841,-0.00186884
0.0337563,0.0204721
0.0376975,-0.00657521
0.0110119,0.0157418
-0.0109215,0.0234121
-0.00643983,0.0121972
0.00419151,-0.00314753
0.00985445,-0.00834672
0.0119582,-0.00957334
0.0181605,-0.0152956
0.0222141,-0.0158252
0.0112157,-0.0109918
0.0112366,-0.00193091
0.00860314,-0.00215508
-0.0022932,8.05e-05
0.00125307,0.0154723
-0.00473625,0.0183478
-0.0178454,0.0137992
-0.0132442,0.00978447
-0.0022287,-0.000822605
0.00236304,-0.00343404
0.00383824,0.00540547
-0.00467721,0.00450927
-0.00623579,-0.0165793
-0.00794909,-0.0184539
-0.00314216,-0.0225449
0.0178358,-0.0397842
0.0254348,-0.0220971
0.0150331,0.00400084
-0.00987796,0.00338642
-0.0149879,0.0109387
-0.00788303,0.0150777
-0.0127076,0.0268571
-0.0211074,0.0226668
-0.0268138,0.0166319
-0.0445495,-0.000957319
-0.0655695,-0.0253114
-0.0592704,0.00894604
-0.0325204,0.0209037
-0.00572237,0.00421481
0.0376433,0.00299028
0.056308,0.00600779
0.0603161,-0.0124271
0.0591391,-0.0156022
0.0474539,-0.0115997
0.00907912,-0.0160763
0.0197759,0.00729058
0.0238293,0.0144234
-0.0170474,0.0102355
-0.049383,0.00462041
-0.0466273,0.0332785
-0.02933,0.0223688
-0.000567717,-0.0164404
0.0301463,-0.0564708
0.0253755,-0.0473898
0.028822,0.0115366
0.033342,0.0167028
0.006181,0.0159767
-0.0139038,-0.00548083
-0.00609032,0.00216891
0.00644704,0.000783945
0.00584752,-0.014318
0.00798724,-0.0105719
0.00944308,0.000317536
0.0055867,0.0173878
0.00216083,0.0142645
0.00101317,0.0110938
0.00184333,0.0151232
0.000880174,0.00653244
0.00131942,-0.00872263
0.00043909,-0.00831348
-0.00416451,0.00310283
-0.0097102,0.00357701
-0.0144313,0.000172023
-0.0163928,0.00352039
-0.0164664,0.00701052
-0.015908,0.000444691
-0.00630915,-0.0143711
-0.00228379,-0.00978479
-0.00568142,-0.0066253
-0.0101587,-0.00682725
-0.00952858,0.00455982
0.000861024,0.00832695
0.00789881,0.00556701
0.00245142,0.011176
0.00698879,-0.00414528
0.0119442,-0.0202175
0.00827692,-0.0112167
0.00130522,-0.00206974
-0.00190743,-0.00492996
-0.000421723,-0.00586533
0.00694355,0.00241556
0.00675312,0.000273281
0.00742398,-0.0217487
0.00681767,-0.0284721
0.00616583,-0.0164498
0.00786035,0.00368772
0.00492434,0.0153131
-0.000495275,0.0165335
-0.0140284,0.00521753
-0.0308412,0.0164056
-0.0254098,0.0269028
-0.0400327,-0.00543874
-0.0833651,-0.0238894
-0.0637664,-0.0176733
0.0262729,0.000932882
0.0518044,-0.00845015
0.0469399,-0.0227145
0.0613943,0.0153581
0.0434659,0.0165282
0.015713,0.00245412
0.000504268,0.00545357
-0.00319425,0.0120011
-0.00967165,0.0122151
-0.0158279,0.0188066
-0.0171917,0.0266408
-0.00522908,0.0297588
-0.00355271,0.0115376
0.000942605,0.010687
0.0120206,0.00794226
0.0168901,0.00766949
0.0144546,0.000347438
0.00596806,-0.00912873
-0.0155391,-0.0293625
-0.0405507,-0.0202932
-0.0314223,-0.00124901
-0.0133206,-0.0138654
0.002881,-0.0105551
0.0170864,0.00355437
0.0169428,-0.000650966
0.0112074,0.00234714
0.0191235,0.0074285
0.0287508,-2.84e-05
0.0251732,-0.00824532
0.0236513,-0.0146855
0.0041565,-0.0201745
-0.032594,-0.0122156
-0.0480929,4.21e-05
-0.0213008,-0.00452947
-0.00350517,0.00177567
-0.00658649,0.00513355
-0.0165521,0.00593673
-0.0193604,0.0102034
-0.0283856,0.00225795
-0.0277494,-0.00708678
-0.0169316,-0.00562795
-0.00206143,-0.00906445
0.0134947,0.00301559
0.0170602,0.0148237
0.0306247,0.029424
0.041021,0.0236367
0.0296919,0.0072251
0.0345796,-0.0123471
0.043116,-0.0172947
0.0227343,-0.00974284
-0.00275888,-0.00246483
-0.0103717,-0.0150296
-0.0233484,-0.0174709
-0.0484187,-0.0188639
-0.038201,-0.0060534
0.00116086,0.0190831
0.0337834,0.0722067
0.0386583,0.0268455
0.0283133,-0.0586596
0.0125192,-0.0329452
0.000405269,0.00467523
-0.00998474,0.00411066
-0.0196271,-0.00109251
-0.0126098,-0.0017549
0.0023563,-0.00681449
0.00999157,-0.0124972
0.00399163,-0.00557765
-0.0103903,-0.00943648
-0.0146417,-0.000144592
-0.0124462,0.0158477
-0.00994895,0.0193502
-0.00320251,0.00863591
0.0186724,-0.00435753
0.0120697,-0.00241018
0.00712977,0.014533
0.0220148,0.00503765
0.0211985,-0.00657836
-0.00904143,-0.0176667
-0.0426115,-0.0154113
-0.0379716,0.0227554
-0.0308863,0.0268084
-0.0441214,0.00519159
-0.0710265,-0.00159114
-0.0725956,0.00637442
-0.0431106,0.0172886
0.00637819,0.00722086
0.073111,-0.00601331
0.0752262,-0.001076
0.0315385,-0.0101345
0.041679,-0.0400506
0.0439451,-0.0450517
0.031016,-0.0065604
0.0175545,0.0113688
0.00611584,0.00312785
-0.0109211,-0.0044285
-0.0281101,0.00837638
-0.0156703,0.00551755
0.0181346,-0.0152694
0.0281879,0.00215741
0.0266032,0.0214939
0.0105551,0.0161189
-0.00582653,0.00946
-0.017868,0.015374
-0.0209989,0.024055
-0.0208844,0.0137729
-0.0206424,-0.00873546
-0.0197183,-0.0177631
-0.0120635,-0.0135407
-0.00307594,-0.0051045
-0.00595389,-0.00103045
-0.00237827,0.00291418
0.00774793,0.0106087
0.0115675,0.00923214
0.0123154,-0.00793338
0.0155285,-0.0147513
0.0161107,-0.010577
0.012321,-0.00118999
0.00420518,0.00161011
-0.00549839,0.00181337
-0.0143319,0.00817955
-0.0121288,0.0107771
-0.00302742,-0.00364044
0.00070445,-0.0162566
-0.00346212,-0.0124783
-0.00746365,-0.00703204
-0.0028597,0.0041105
0.00523801,0.0109923
0.0125126,0.00881843
0.0118098,0.00169757
0.00233724,0.00727628
0.000299942,0.0029766
0.0103084,-0.0108202
0.0187113,-0.00631348
0.0174872,0.00926473
0.00534399,0.00833495
-0.00402472,-0.00609818
-0.0296254,0.00173778
-0.0388777,0.010528
-0.0129097,0.0108747
-0.00814378,-0.0101356
-0.0944792,-0.0322066
-0.13855,-0.00227378
-0.0989063,-0.00783113
-0.0406747,-0.0208238
0.031163,0.0108908
0.101283,0.0113413
0.15786,0.0169474
0.134746,0.00460242
0.0583196,-0.00858376
0.0029436,-0.000966313
-0.00449517,0.00135225
-0.0108152,-0.00290231
-0.00935762,0.0104154
-0.00871825,-0.00677925
0.00971089,-0.00816078
0.0415611,0.0131413
0.00352827,-0.0106837
-0.0325041,-0.0127911
-0.0170376,0.00766181
-0.000509119,0.00993898
0.00137204,0.0139135
0.00234591,0.0140612
-0.0126628,-0.00645255
-0.0189065,-0.0131866
-0.0106205,-0.0114506
-0.0102204,-0.0111834
-0.0153724,-0.00357232
-0.0186728,-0.000524526
-0.0154257,0.00714651
-0.00486496,0.0103873
0.00263481,0.0160398
0.0089315,0.00700127
0.00877358,-0.00971704
0.000501499,-0.00536409
-0.00219762,-0.0014728
-0.0016227,0.000844026
-0.00158454,0.00336333
-0.00423722,-0.000648018
-0.00474176,-0.00710038
-0.00545882,-0.00213156
-0.00392228,-0.00393275
-0.000898856,-0.00858118
0.000787321,-0.00502043
-0.00146862,0.00354852
0.00240282,0.00676119
0.00900935,0.0124576
0.0154708,0.0205262
0.0201887,0.0195614
0.0202964,0.0111866
0.0041848,-0.0044611
-0.00435456,-0.0146659
0.00236415,-0.0159673
-0.0210926,-0.00908585
-0.0541412,0.0209133
-0.0473386,0.0211292
-0.0258611,0.00251235
-0.00459103,-0.0182274
0.037513,-0.0412101
0.0534381,-0.0189185
0.0324609,0.00101177
0.0100747,0.00307802
-0.0056873,0.00560841
-0.014271,0.0153536
-0.0118438,0.0238851
0.00026791,0.00611657
0.0092411,-0.0192578
0.018005,-0.0180931
0.0165396,-0.00207325
0.00961743,0.00015848
0.00669365,0.000106427
0.0046608,0.00551744
0.00374618,0.00370492
0.00472607,0.00594753
-0.00219091,0.00204934
-0.0081161,-0.00417774
-0.0111672,-0.00500333
-0.0171592,0.00279038
-0.018616,0.00751271
-0.0153696,0.00896629
-0.0126759,0.0122364
-0.0083798,0.00756443
0.0015924,-0.00954676
0.00905953,-0.022743
0.00573182,-0.0155351
0.00599275,-0.00846067
0.0089655,-0.00569222
0.00860462,0.000930983
0.00871423,0.00199207
0.012775,0.00106252
0.0191119,0.00791375
0.0203707,0.0156086
0.000214169,0.0137899
-0.0331075,0.00887889
-0.0423472,0.0129491
-0.0217828,0.0133788
-0.000421604,0.00459935
0.0151567,0.000684433
0.0199928,0.00146404
0.0177323,-0.014913
0.00511592,-0.021243
-0.0150826,-0.00911166
-0.0162509,-0.018591
-0.0157586,-0.0325684
-0.00619839,0.00426889
-0.00920284,-0.00130067
-0.00860522,-0.0100748
-0.0101511,0.0087568
-0.0160344,0.00557139
-0.00544482,-0.0251861
0.0199112,-0.0333825
0.0168991,0.00623425
0.0240664,0.0227258
0.00847624,0.0264089
-0.0102248,0.0334316
0.0021858,0.0196428
0.00992606,-0.0072265
0.0112864,-0.0170582
0.018812,-0.0156059
0.021073,-0.00226254
0.0241662,0.0128184
0.0178981,0.0152089
0.00629987,0.0111263
-0.00424201,0.0092289
-0.0182452,0.010671
-0.0164083,-0.000129971
-0.00754943,-0.00630863
-0.00819585,-0.000620965
-0.013182,0.000899629
-0.0131394,0.00163935
-0.0109259,0.00557615
-0.0106124,0.0068183
-0.00417938,-0.00618918
0.00571588,-0.0184808
0.0057525,-0.0141588
0.00290885,-0.009812
0.00283095,-0.00559618
0.00219372,0.00276321
-0.00112857,0.00706371
-0.00350577,0.00394426
-0.00618187,0.00573311
-0.000321464,-0.00696693
0.00617632,-0.0154448
0.00653474,-0.00697826
-0.00216521,0.00136054
-0.00108772,0.00662132
0.0029241,0.0197721
-0.00625302,0.014187
-0.0149199,0.00673308
-0.00953201,-0.00932469
0.00258958,-0.0134966
0.0105855,-0.00378006
0.0161625,-0.00553877
0.0140567,-0.00583518
0.0201828,0.00626372
0.0128266,0.013199
-0.0372233,0.00949414
-0.0845917,0.00668388
-0.0690807,-0.00234525
-0.0160842,-0.00994781
0.0277322,-0.0166617
0.0409995,-0.0160581
0.0275077,-0.00527509
-0.0113485,-0.00646142
-0.0242679,-0.012163
0.0106649,0.00465837
0.0374685,-0.00252536
0.0440153,-0.00614159
0.0453723,0.000444032
0.0447794,0.0108363
0.00719476,0.0152258
-0.0302324,0.0115122
-0.00532472,0.0129811
0.0136538,0.00295143
0.00551791,-0.00557474
0.0058066,-0.015945
0.00911004,-0.0128263
-0.00912013,-0.00474821
-0.0160973,-0.0010513
-0.018259,0.00278531
-0.0268759,0.0230448
-0.0236516,0.0238347
-0.0135132,0.0117667
0.000875172,-0.00106567
0.00860901,-0.00631172
0.0147542,-0.00706952
0.00129434,0.00189972
-0.0109647,0.0288701
-0.0184644,0.0339198
-0.0156812,0.00462232
-0.00382512,-0.00185851
0.00549935,-0.0212349
0.0129196,-0.0334351
0.0126956,-0.00435536
-0.00111792,-0.00392027
-0.00613668,-0.0260706
0.0043882,0.0176111
0.00595355,0.0285617
-0.00304701,0.0116857
-0.00935125,-0.00528148
-0.00894568,-0.021224
-0.00712711,-0.0258874
-0.00615561,-0.0253095
-0.0295518,-0.0164479
-0.0369261,0.0153298
-0.0183957,0.0289939
0.00822439,0.0194497
-0.0010908,0.00297607
0.00407653,-0.00253612
0.0244781,-0.0102759
0.0297958,-0.00702394
0.0265352,0.00193369
0.0157839,0.00154969
0.016881,0.00749457
0.0113472,0.0185999
0.0107596,0.00236583
0.00930931,-0.0126231
0.00452955,-0.0117051
0.00824993,-0.0156814
0.0143762,-0.0139023
0.0135509,-0.00019596
-0.000529398,0.00783739
-0.01467,0.00416658
-0.007505,0.00442692
-0.00344752,0.00263109
0.00384263,-0.00299675
0.00849323,-0.011484
0.00486537,0.00284693
-0.00106025,0.0262706
-0.00791644,0.00675576
-0.0147314,0.00139631
-0.0150957,-0.00131117
0.00115048,-0.0248599
0.0226381,-0.0123436
0.00246804,0.0068889
-0.0303541,0.0039023
-0.0368766,0.0186869
-0.038787,0.0110607
-0.0332872,0.00850633
0.00333765,0.00568723
0.0423934,-0.0033827
0.034617,-0.0192659
0.000140279,-0.0516402
0.0054323,-0.0302485
-0.0156904,0.00771651
-0.0176212,0.00120177
-0.0013172,-0.01077
0.0103881,0.0114419
0.032369,0.0166281
0.028591,0.00218953
0.00487017,-0.0105566
-0.00343227,0.000456982
-0.00936674,0.00349504
-0.0124962,-0.00928862
-0.0122042,-0.00158566
-0.00528822,0.0257762
0.00888574,0.00344534
0.00853329,0.00121628
0.0113705,0.00712781
-0.014774,-0.000589029
-0.0360766,0.00236669
-0.0294447,0.00964134
-0.00749845,0.00950461
0.00987836,0.0134529
0.0160319,0.0293774
0.0166383,0.017862
0.0174423,0.00124916
0.0102339,-0.00314412
-0.00259729,-0.0377336
-0.00909333,-0.0278698
-0.0257234,-0.00580755
-0.0206103,-0.00584245
0.00232505,0.00155337
0.0182678,0.00585793
0.0322539,0.00915226
0.0349024,0.00781989
0.0147284,-0.0110203
0.00551047,-0.0171262
0.00811959,-0.0109527
0.0020386,-0.00249298
-0.00258896,0.0206785
0.000965567,0.0208121
-0.00159622,0.00430805
-0.0115895,-0.0151404
-0.0152658,-0.0188104
-0.00798047,0.00639218
-0.000719141,0.0156761
-0.00453466,0.00554362
0.00757347,0.007501
0.00607654,0.00564852
-0.026144,0.00995879
-0.069213,0.0190319
-0.0600705,-0.0288442
-0.0258185,-0.0234597
-0.0400922,0.0228416
-0.0180816,0.016419
0.0385629,-0.0425794
0.0599074,-0.0248101
0.0544627,0.0528086
0.023216,0.023321
0.0154663,0.00219302
0.0250202,-0.00668032
0.0263656,-0.0301747
0.0269136,-0.0174291
0.00485352,0.00582067
-0.0306151,0.0155082
-0.0289933,0.00870425
0.000734182,0.00765442
0.00396016,0.00275023
0.0167121,-0.0109866
0.0200815,-0.00899785
-0.00636245,-0.0101541
-0.0139566,-0.00287505
-0.0149963,0.00791318
-0.0182057,0.0149807
-0.0155358,0.00770474
-0.00527929,-0.00910964
0.00256707,-0.0127023
0.00363335,-0.00597111
0.00907353,-0.00646636
0.00979597,-0.00147232
0.00728565,-0.000483553
-0.00209347,-0.00741663
-0.000242736,0.00208692
0.0112755,0.016955
0.0140442,-0.0118049
0.0127809,-0.0248952
0.0116251,0.0061107
0.0131111,0.0122704
-0.00648019,0.00640255
-0.0370612,0.0105936
-0.0431434,0.0147874
-0.0197045,0.00719332
0.0025765,-0.00319314
0.00110937,-0.00378443
-0.00125439,0.000161949
0.0045232,-0.00342835
3.69e-05,-0.0064969
0.00382952,0.000991698
0.0121423,0.00440766
-0.000906876,0.00120113
-0.00930595,-0.00522779
-0.0131829,-0.0175248
-0.0156098,-0.0172352
-0.0159124,-0.011233
-0.00693477,-0.0069017
-0.00502266,0.00370208
-0.0103381,0.00237537
-0.00745206,0.00187159
0.0101295,-0.00392427
0.0193305,0.000837246
0.00902876,0.0109607
0.00570413,0.00642899
0.0228852,0.00520827
0.0299559,0.00807289
0.0212574,0.00356278
0.00964544,0.00410716
0.0176967,0.0213247
0.0167394,0.00843769
0.00657145,-0.0118309
0.00651577,-0.00331985
0.00158869,-0.00513467
-0.0198971,-0.0125295
-0.02058,-0.0027936
-0.000732035,0.0224573
-0.0117777,0.0180615
-0.0224629,-0.00466216
-0.0261032,-0.0168634
-0.0316366,-0.0160477
-0.0317085,-0.0185889
-0.020121,-0.0186729
-0.00134433,-0.00899266
0.0306326,0.0204046
0.029763,0.012183
0.0186805,0.0126802
0.018647,0.00381615
0.0281916,-0.0355715
0.0206487,-0.00132647
0.00254772,0.0472753
-0.00844882,0.057541
4.03e-05,0.027519
0.00717729,-0.0262346
0.000878979,-0.0237353
-0.0121694,-0.0144439
-0.0187992,-0.0138207
-0.0126422,-0.00621539
-0.00924509,-0.00299148
-0.000692407,-0.00202415
0.00664618,-0.00938514
0.00729591,-0.00676171
0.00166321,-0.0113185
0.00422186,-0.00708993
0.013638,-0.00575094
0.0094002,-0.00552493
-0.00574601,-0.00176585
-0.0087644,-0.000145305
-0.00330248,0.00851364
-0.00999782,0.0157998
-0.00994088,0.0213971
-0.000660871,0.00819652
0.00225667,-0.00471978
0.00345128,0.00195324
0.00715755,0.00356982
-0.00191455,0.00409938
-0.0314238,0.00277648
-0.0341787,0.00156422
-0.00196174,-0.0011249
0.0206843,-0.0119503
0.0356743,0.000890712
0.0260499,0.0057904
0.00637289,-0.00244685
-0.00625345,-0.0085859
-0.0131021,-0.0170164
-0.0133284,0.00219663
-0.0191349,0.0106543
-0.0159962,-0.00120505
0.0039666,-0.0103448
0.0111448,-0.00526077
0.00297697,-0.00244786
-0.00196561,0.00181504
-0.00137921,0.00354788
-0.00255878,0.0129359
-0.000899592,0.00758521
0.0264934,0.00361821
0.0434878,0.00692557
-0.00846446,-0.0223708
-0.0372159,-0.024767
-0.0169848,-0.0101429
0.0111719,-0.019495
0.00543123,-0.0226632
0.014357,-0.0017927
0.0209298,-0.0014377
0.0130319,0.00884001
0.00385352,0.00376845
-0.00666085,0.00267634
-0.0131349,0.00902303
-0.0103568,0.0149133
-0.00175654,0.030308
-0.000517217,0.0320272
-0.00294282,0.0214672
-0.00621727,0.0144728
-0.00993733,0.00967165
-0.00054213,-0.00246414
0.00615802,-0.0188988
0.00109147,-0.00982528
-0.00489582,0.0195174
-0.0144015,0.0206367
-0.0292306,0.015775
-0.0290287,0.0134347
-0.00737196,0.00174992
0.00363146,-0.0170951
0.00963711,-0.0255231
0.0153839,-0.018573
0.0207958,-0.00306115
0.0117178,0.00414633
-0.00251371,0.00313637
-0.00124367,0.0035861
0.010414,-0.0129554
0.0142867,-0.019189
0.0106381,-0.00897686
-0.000906324,-0.0131076
-0.0124442,-0.0103416
-0.00612825,0.00199112
0.00893951,0.00930415
0.0027423,0.0094082
-0.00439948,-0.00356661
-0.00155435,-0.0197868
-0.00101318,-0.0114894
-0.00793312,-0.00718431
-0.00282581,-0.0101976
0.0103461,0.00685248
0.0142149,0.0157234
0.0036869,0.0150131
-0.0059303,0.00795608
0.0011103,0.00360211
0.0150071,-0.00856352
0.0169463,-0.0133433
0.0132829,0.000156452
0.00888205,0.00434807
0.00173869,0.00607168
-0.00396516,0.013936
-0.0349932,0.0168394
-0.059461,0.00672821
-0.0425023,-0.00857786
-0.0263042,-0.0191488
-0.0116791,-0.021143
0.00554204,-0.00585621
0.022555,0.0193995
0.0398386,0.0260237
0.0283762,0.000879131
-0.0120282,-0.00870832
0.00170409,-0.00607889
0.0275971,-0.0138463
0.0412205,-0.0136478
0.0472974,0.00195207
0.0190235,0.00865885
-0.0164561,0.00772228
-0.0297354,0.014366
-0.0135531,0.0232848
-0.00344572,-0.0193698
-0.0100021,-0.0337228
-0.0171136,-0.00508278
-0.0115821,-0.0137021
0.00256248,-0.0126329
0.00470559,0.00625456
-0.000936394,0.00406464
0.00120302,0.0157173
-0.000303931,0.01565
0.00205236,0.0041034
0.0107869,-0.00960024
0.00856196,-0.00747171
0.0016991,0.00010488
-0.00402691,0.00723025
-0.0143139,0.00314364
-0.0208366,0.00806682
-0.0155598,0.00896486
-0.00627115,-0.00437409
-0.00214426,-0.00435581
-0.00751661,-0.00775797
0.00661927,-0.0005547
0.00896972,0.00465134
-0.0145442,0.000189486
-0.021668,-0.00164227
-0.00829686,0.0162211
0.00294242,0.00175523
0.0150123,-0.0215857
0.0262906,-0.00573564
0.00932318,0.00702239
0.00756363,0.00587816
0.0170161,0.00641446
0.00175108,0.00860464
-0.0221201,0.0225165
-0.0185169,0.0192877
0.0107187,0.00753204
0.0281251,-0.0135298
0.0183496,-0.0157454
0.0241653,0.0124733
0.0189163,0.00557318
0.00206528,-0.0044189
-0.0030672,-0.00691868
-0.020744,-0.00429686
-0.0418452,-0.0113248
-0.0313247,-0.0217793
-0.0341563,-0.0260719
-0.0407256,-0.0120161
-0.0398526,0.00562824
-0.0309059,0.00130987
-0.00542553,0.0064601
0.0166997,0.0116302
0.0370507,0.00536312
0.0406566,-0.00479805
0.0300405,-0.00111346
0.035219,0.00119001
0.0358112,0.00421908
0.0274202,0.0140309
0.0248819,0.016384
0.0238529,0.00407851
0.02101,0.00264054
-0.00449602,-0.0018344
-0.0268846,-0.00140806
-0.0118959,-0.0043812
-0.0108457,-0.0104076
-0.0139333,-0.00246626
-0.00312274,0.00613249
-0.00133167,0.0132546
-0.00416954,0.0110192
-0.00509727,-0.000735356
-0.00757424,-0.00867438
-0.0152143,-0.00914646
-0.0380642,-0.011607
-0.0500162,0.00140918
-0.0427965,0.00661614
-0.0191674,0.00815724
0.0024225,-0.00807194
0.029969,-0.00586841
0.046004,-0.0285358
0.0420654,-0.0428219
0.0258048,-0.0204043
0.0117499,0.0181375
0.00272022,0.0130776
0.0126055,0.0118743
-0.000123948,0.0126886
-0.0075879,0.0167063
0.00750334,0.00581778
0.012686,-0.0168474
0.0121178,-0.00596094
0.00169396,0.010479
-0.0218103,-0.000840044
-0.0399451,-0.00709305
-0.0318652,-0.00504895
-0.00682539,0.020313
0.0022744,0.0198041
0.000835063,-0.00870956
0.00662115,-0.0091038
0.00450756,-0.00423184
-0.00362078,0.000579063
-0.000128922,-0.00325837
0.0109694,-0.0220913
0.0216339,0.00571568
0.0253917,0.0244825
0.00848299,0.00377711
-0.0157328,-0.00351532
-0.0449004,0.011452
-0.033381,0.00781875
-0.00776548,0.00703431
0.00231734,0.00426715
0.0228175,0.00636578
0.0146005,0.00421651
0.001176,0.00069551
0.00798981,-0.0174667
0.00379683,-0.0179895
-0.00128892,0.00123716
0.00398324,-0.00145414
0.00894734,0.00896389
0.00535671,0.0286229
0.00518356,0.0277345
0.00834795,-0.0148234
0.00607718,-0.033447
0.0115454,-0.0154646
0.0189113,-0.00411143
0.00173049,-0.00209763
-0.0129163,0.00878972
-0.0243301,0.00387888
-0.0338589,-0.00725141
-0.0353775,-0.00620398
-0.018406,-0.0179921
-0.0143371,-0.0255443
-0.0401415,-0.0125858
-0.0227501,0.0122176
0.0109869,0.0138027
0.0226656,0.0127834
0.0357528,0.0211001
0.0359825,0.0099232
0.0313033,-0.00249482
0.0129837,0.000986655
-0.00918191,0.00285723
0.00808262,-0.00141437
0.00206517,0.00229284
-0.00111705,0.00603148
0.000102728,0.00198882
-0.0043792,0.00149517
0.00172751,-0.00211448
0.0164935,-0.0122754
0.0146546,-0.00914472
-0.0034631,0.00588268
-0.0207936,0.00444818
-0.015948,-0.0059407
-0.0112269,0.00337125
-0.00443393,0.00493887
0.0077287,-0.00338493
0.0225921,-0.0142178
0.0144785,-0.0127002
0.00882166,-0.00715994
0.006509,-0.00140079
0.00912058,0.00820679
0.00240508,0.0122741
-0.00111905,0.00571263
0.00857377,0.0135513
0.00670398,-0.000886803
0.00790033,-0.00922235
0.000193024,-0.0251502
-0.0145374,-0.00456895
-0.0187828,0.0062193
0.000200339,-0.00573111
0.00614465,0.0313814
-0.0232645,0.0147778
-0.0277099,-0.00736036
0.00056026,-0.00386123
0.0181229,0.0005606
0.00341317,-0.016758
-0.0259438,-0.0122824
-0.0290422,0.00487448
-0.0318176,0.00972669
-0.0109342,0.00943959
-0.0193652,0.00717077
-0.0495208,0.01509
-0.0208925,0.00645892
0.0081821,-0.00205041
0.00864404,-0.0104385
0.0347726,0.00175896
0.0456453,0.00383389
0.0297028,0.0146768
0.0335426,0.0135124
0.0124005,-0.019497
-0.019838,-0.0151185
0.00225092,-0.0028484
0.0169724,-0.00589259
0.000814539,-0.00599472
-0.0017377,-0.000280453
0.00766848,0.00336589
0.00880412,0.00514444
0.00384756,-0.0143501
0.00952618,-0.0286343
0.0059159,-0.0216453
-0.00290312,-0.00598141
-0.00405088,0.00115509
-0.00269259,0.0043806
-0.00194749,0.014506
-0.00222459,0.0162474
0.00112324,0.00576923
0.00326992,-0.00806023
0.00250969,-0.0135586
0.00392538,-0.00777864
-0.00700146,0.0151793
-0.0122509,0.0457352
-0.00795279,0.0485023
-0.0168502,0.0312435
-0.0171259,-0.0154882
-0.00244055,-0.0325951
0.00781458,-0.00659647
0.00951835,-0.00603711
0.00235567,-0.00332518
0.00510863,0.00912018
-0.000195532,0.0210514
-0.00473788,-0.00373825
0.000612742,-0.0397362
0.000834379,-0.0342041
-0.00415232,-0.0180129
-0.00797252,-0.011694
-0.00288193,-0.0078808
-3.6e-05,0.0061951
0.00526961,0.0163471
0.019049,0.0247262
0.0194977,0.0279809
0.00187869,0.0129189
-0.0105528,0.00688252
0.000204074,-0.00585398
0.00200838,-0.015377
-0.019046,-0.0139411
-0.0124616,0.000453045
-0.00339415,0.0203389
-0.00643578,0.0101903
0.00237306,-0.0189726
0.0139917,-0.0217256
0.0242001,-0.0147139
0.0189956,-0.0125919
-0.0193142,-0.00853436
-0.0474039,-0.00927881
-0.0329536,-0.000317949
-0.0107871,0.0109625
0.0171585,-0.00625227
0.0533364,-0.00253302
0.0475439,0.0275949
0.0105852,0.0222156
-0.0281441,0.00452433
-0.0521702,0.00892669
-0.043759,0.0153819
-0.0201753,0.000328868
0.0103615,-0.0160007
0.0309657,-0.0307342
0.0382226,-0.026653
0.0379783,-0.0127075
0.0295447,-0.014162
0.0136545,0.00501416
0.0132425,0.0132035
-0.00386804,0.0110251
-0.0276294,0.0179102
-0.0303612,0.00620903
-0.0324044,-0.00275127
-0.0133129,0.00542151
0.0146755,0.0173773
0.0258922,0.015731
0.0296929,0.0117602
0.0272077,0.00585723
0.0223162,-0.00125605
0.0034204,-0.0127695
-0.0101407,-0.0259755
-0.0157431,-0.0197205
-0.0211233,-0.0135355
-0.0287307,-0.00466229
-0.030081,0.00841732
-0.0174722,0.016524
-0.00280189,0.0194532
-0.00582062,0.0190442
-0.0118669,0.00718375
-0.00905936,-0.00244064
-0.00586558,0.00749786
-0.00575584,0.0171763
-0.00677559,0.0153035
-0.00663588,0.0103932
-0.000336204,-0.00107477
0.00480482,-0.0175627
0.00564745,-0.0272125
0.0100018,-0.0178567
0.0093973,-0.010331
0.0120459,-0.00304454
0.0127436,-0.0046866
0.00403105,0.00709198
0.00321419,0.0267867
0.00489736,0.032156
-0.00243989,0.00908657
-0.000710286,-0.0101332
0.00527834,-0.00149404
0.0133122,0.00365101
0.0175896,0.00879249
0.0112692,0.00449716
-0.0128308,-0.0077854
-0.0210227,-0.00942165
-0.016999,-0.0174393
-0.00949691,-0.0238073
-0.00174257,-0.0219507
0.00325686,-0.021756
0.00429582,-0.0164901
-0.00233936,-0.0081349
-0.00326898,-0.00163641
0.00243269,0.00562591
0.000155704,0.0268899
-0.0101631,0.0145379
-0.0109864,-0.00514812
-0.00358248,-0.00282844
0.00345739,0.00648773
0.00547814,0.00523522
0.0198092,0.00921034
0.0342929,0.00746655
0.0153316,0.00105997
-0.00502506,-0.0156759
-0.00699412,-0.0326314
-0.000177398,-0.0383632
-0.00794605,-0.0247824
-0.00764059,0.0186917
-0.0100328,0.0241574
0.000572859,0.017442
0.00934527,0.00853811
-0.0018622,-0.0014808
0.00493295,0.0025564
0.0195877,-0.00671627
0.00584487,0.00418074
-0.00812244,0.0113793
0.00494481,0.0029663
0.0126085,0.00539184
0.019633,0.013096
0.0212139,-0.00119111
-0.0142797,-0.0194163
-0.0294475,-0.0286379
-0.0139872,-0.00455146
-0.00968299,0.00761456
-0.0142143,-0.00433142
-0.0209954,0.0047253
-0.0133369,0.0167077
0.000238161,0.0126173
0.00021438,0.00739533
0.015549,-0.00855073
0.0235569,-0.0116436
0.0157782,-0.000273048
0.0130473,0.0123103
0.0176759,0.0252982
0.00967956,0.0168213
-0.00480523,-0.0051
-0.00534547,-0.0148118
-0.00064088,-0.0224629
-0.0018226,-0.0171904
-0.000906973,-0.0116843
0.00301752,-0.0117079
0.00685445,-0.000136571
-0.00419774,0.0140427
-0.026513,0.012651
-0.074642,0.0244947
-0.0895256,0.0149293
-0.0449949,0.00266854
0.0101969,0.0209381
0.0441872,0.0267608
0.0533553,0.0132519
0.053075,-0.0141664
0.0372469,-0.033647
0.0237008,-0.00128767
0.0143849,-0.0045341
-0.00364296,-0.0143893
-0.0163404,0.000590679
0.000149768,0.00551796
0.0134605,0.0092287
0.0138928,0.0110052
0.0155201,0.00962351
0.0107405,0.00914457
0.00549093,0.00548794
0.00544052,-0.0108281
-0.0191034,-0.0261211
-0.0720585,-0.0196499
-0.0815188,-0.0135048
-0.0548609,-0.00796452
-0.0202718,0.000884002
0.00348846,0.0133545
0.0302149,0.0103708
0.0422193,-0.0097788
0.032674,-0.00452283
0.019639,0.000229422
0.0104991,-0.00682411
0.00899661,0.00230039
0.00668378,0.00540093
0.00359109,0.00160097
0.006227,0.0104983
0.0151303,0.0080476
0.0140467,-0.00954761
-0.00100438,-0.027421
-0.0104063,-0.0110729
-0.0101795,-0.000263942
-0.0134111,0.00282988
-0.0142871,0.0119485
-0.0172763,0.00656353
0.000500916,0.00254682
0.0261568,-0.0158759
0.0235841,-0.00312226
0.00611648,0.0114258
-0.00627317,0.0120983
-0.0250852,0.0130086
-0.0188051,0.0124211
0.00957106,0.00763785
0.00777188,-0.00108956
0.00623239,-0.0107792
0.0174989,-0.0105349
0.019949,-0.00497148
0.00431312,0.00126884
-0.00640501,0.00427041
-0.0126307,0.00632768
-0.0202536,0.0115491
-0.0259246,0.00622662
-0.0144982,-0.00399748
0.00637288,-0.0170928
0.0154228,-0.00804554
0.0100514,-0.000175311
0.000372189,0.00360483
-0.00610618,0.0186797
-0.00771635,0.0185143
-0.00322417,0.0029365
-0.00521065,-0.00715269
-0.00822515,-0.01878
-0.00653594,-0.0164597
0.000652756,-0.0222674
0.00841678,-0.0235613
0.00492649,0.00707798
-0.00254074,0.0167919
0.00268277,0.0172972
0.00859699,0.0118509
0.0155609,0.00210856
0.0117858,-0.00312592
-0.014849,-0.00831723
-0.0237659,-0.00633081
-0.000303861,0.0055092
0.0191878,0.0132913
0.0180164,0.01374
0.0140393,0.00606867
0.0101656,0.000306884
-0.00957703,-0.00459145
-0.0338296,-0.0197707
-0.0298314,-0.000333995
-0.00831296,0.00442955
0.0194755,-0.00216624
0.0215397,0.00824581
0.00651026,0.000613096
-0.00824976,-0.0265131
-0.0169901,-0.0204768
-0.0254746,-0.00728728
-0.0247748,0.00101771
-0.00907134,-0.00277566
0.0203967,0.0117438
0.0338567,0.0171849
0.0430832,0.0137787
0.0242702,0.0123881
0.00121792,0.00670079
0.0042803,-0.00847258
0.00353945,-0.013222
-0.00887045,-0.00603978
-0.00583323,0.00536547
-0.00831465,0.0126429
-0.0126426,0.0235004
-0.0108852,0.000837701
-0.00797158,-0.00976649
-0.0134619,-0.0103498
-0.0186398,-0.0132086
0.00652137,-0.0180242
0.0196445,-0.00273794
0.00509366,0.0152864
0.00412518,0.0198505
0.0121102,0.0131235
0.00796599,-0.0157106
0.00173337,-0.0275617
0.011089,-0.0227521
0.00849939,-0.00860914
-0.0021814,0.00210146
-0.00680603,0.00288326
-0.00815682,0.00565074
-0.00638529,0.00742243
-0.00321464,0.00622079
-9.96e-05,-0.00375407
-0.00287542,-0.0139224
-0.00654829,-0.0087769
-0.000914008,0.00146517
0.00745164,0.0012296
0.0109832,0.0152967
-0.00483424,0.0220307
-0.0203079,0.019542
-0.0170775,0.0121407
0.00272116,-0.000685354
0.0163997,-0.00886271
0.0109356,-0.00236488
-0.0096179,-0.000485025
-0.0162025,0.00206895
-0.0113441,0.00239531
-0.00535703,0.00471638
-0.00705343,-0.00120931
0.00734972,-0.0125911
0.0161763,-0.00770915
0.0123226,0.00289989
0.0156722,0.00156715
0.00899483,0.00102721
0.00481849,0.0105864
0.00375709,0.00877593
0.00684336,0.0019283
0.0067813,-0.00673285
0.00625142,-0.014616
-0.00614093,-0.0141397
-0.0121383,-0.00501215
-0.00564058,0.00089369
-0.00032689,0.00794484
-0.00183143,0.0148262
-0.00546614,0.0111334
-0.010121,-0.00455467
-0.0152491,-0.0131221
-0.0195406,-0.00384
-0.00890462,-0.0133385
0.00425835,0.000906694
0.00773348,0.000233778
0.00559482,-0.00558145
0.000689178,0.0132984
-0.00706512,0.0142625
0.0022506,-0.00641882
0.00744161,-0.0179585
0.00457952,-0.00309955
0.00423616,0.00792249
0.00380639,-0.000351589
-0.00115962,0.00652613
-0.0106979,0.0132183
-0.0325247,0.00810003
-0.0332931,-0.00393717
-0.0155888,-0.0102126
0.00578805,-0.0116071
0.0142112,-0.00727648
0.00637169,0.00435093
0.0126804,0.00848844
0.0304688,0.00628222
0.0339999,0.000520153
0.0279996,-0.00472679
0.0189377,-0.0149745
0.00318963,-0.0171886
-0.00985331,-0.00472691
-0.0143716,0.00445391
