Comp Ch 3,Comp Ch 4
-0.0527926,0.0285655
-0.058416,-0.0128822
-0.00656239,-0.0328553
0.0286966,-0.0143714
0.0692391,-0.0044469
0.0859963,-0.00471071
0.0434458,0.00559008
0.00181109,0.00894677
-0.0111109,-0.00906118
-0.0169316,-0.00418395
-0.00673531,-0.00935133
0.0132342,-0.0363291
0.00483178,-0.0314196
0.002128,-0.0106529
0.00397847,0.00230272
0.00795128,0.000493572
0.0102737,0.0101564
0.0172917,0.0164153
0.0356449,0.00205218
0.0365864,0.00195498
0.00691827,0.0126577
-0.0274112,0.00820176
-0.0414994,0.0149261
-0.038502,0.0262199
-0.0528013,0.0195262
-0.0736525,0.0151742
-0.0591674,0.0114437
-0.0303171,-0.00849832
0.011076,-0.0155977
0.0212324,-0.00591403
0.0290528,-0.00833556
0.0479157,-0.0206039
0.0797207,-0.00612813
0.0881025,0.000750671
0.0722129,-0.00765122
0.0478313,-0.0195923
0.0289325,-0.0238441
-0.00094328,-0.0100947
-0.0346203,0.00203594
-0.043814,0.0148986
-0.0419684,0.023566
-0.0285467,0.0330812
-0.0206912,0.0189527
-0.0241051,-0.00867393
-0.024465,-0.0168187
-0.0170424,-0.006852
-0.00214636,0.00881304
0.00826776,0.00674877
0.00287077,0.00679043
-0.0196378,0.0168147
-0.0516764,-0.00615017
-0.0542007,-0.03874
-0.0408766,-0.0403974
-0.0382559,-0.014863
-0.0303242,-0.000813385
-0.0203993,0.00174198
0.00162943,0.0113738
0.0348376,0.00714114
0.0640607,0.0161826
0.0665054,0.0446218
0.0397615,0.0568412
0.0165249,0.034403
0.0130869,0.00147651
0.0145304,-0.0386711
0.0200342,-0.061748
0.0249282,-0.0144789
0.0414558,0.00379968
0.0482336,0.00410177
0.0262516,-0.0106322
-0.00897532,-0.0171929
-0.0063671,-0.00812954
0.00676671,-0.0106444
-0.0175413,0.00558365
-0.0252687,0.0268005
0.00122676,0.0294007
-0.0360606,0.00528707
-0.0573542,-0.0202273
-0.00125461,-0.0161738
0.0437139,-0.00849532
0.0915775,-0.0043913
0.0791226,0.000994162
-0.0663,-0.0156318
-0.32209,-0.0402998
-0.407744,-0.0211819
-0.279377,0.0289127
-0.0737032,0.0321665
0.14635,0.0110737
0.256179,-0.00333374
0.247831,-0.00879841
0.182847,-0.00743959
0.106752,0.0300712
0.0589243,0.0251344
0.0291861,0.0140285
0.0122033,0.0157237
0.0166393,0.000939159
0.021192,-0.0195743
0.02114,-0.0136746
0.0188298,0.00912246
0.0160022,0.0146599
0.0141616,-0.0174702
0.0162745,0.000651347
0.00746767,0.0269507
-0.0203443,-0.0105427
-0.0400817,-0.0152912
-0.0432196,0.00118088
-0.0480138,0.00325925
-0.0659492,-0.0185136
-0.0791577,-0.0224295
-0.0682778,-0.0129416
-0.037161,8.73e-05
-0.00266439,3.02e-05
0.0168565,-0.0175765
0.0297397,-0.0063848
0.0341874,0.00634444
0.0384088,0.00860111
0.0399799,0.0151253
0.0396359,0.0268799
0.0289367,0.0253044
0.0178522,0.00519248
0.00556948,-0.00907863
-0.00669477,0.000711877
-0.0148214,0.0081119
-0.0259691,0.0089725
-0.0366498,0.0139487
-0.0368251,0.0164313
-0.0256565,0.0160931
-0.00688462,0.00730513
0.00170633,-0.0139332
0.00776936,-0.0253484
0.0171299,-0.010484
0.0209996,-0.0085554
0.0176339,-0.0188259
0.00991074,-0.0158446
-7.55e-05,-0.00841285
-0.00865615,-0.0132279
-0.0181996,-0.029513
-0.0268603,-0.0313071
-0.0302183,-0.0210192
-0.0275699,-0.0145999
-0.0232833,-0.00195111
-0.0214658,0.0102225
-0.0133779,0.0133654
-0.000640241,0.0103917
0.0120027,0.00406288
0.0226875,-0.00885016
0.0225511,-0.0106963
0.0162694,0.00205365
0.00976045,-0.000696626
0.0125857,0.00562445
0.0230505,0.0280181
0.0221646,0.0189308
0.0177717,0.0184368
0.00678164,0.0167225
0.00394006,0.0168899
0.00405004,0.0152044
0.00247163,0.0175463
0.00217528,0.0231269
0.00045738,0.0210761
0.00163287,0.0173415
-0.00231273,0.0126905
-0.0049613,-0.00129279
-0.00261191,-0.0140283
-0.00695448,-0.0158662
-0.0152327,-0.00613526
-0.0244219,-0.00805328
-0.0287808,-0.013912
-0.0246815,0.000676263
-0.0163054,-0.00106241
-0.0122543,0.000511312
-0.00651576,-0.00862035
0.0290785,-0.0114155
0.0521356,-0.0208271
0.0440691,-0.0145405
0.0257825,-0.00345932
-0.00228461,-0.0060077
-0.0199075,0.0037366
-0.0377863,0.0149665
-0.046672,-0.00040362
-0.0462986,-0.00185509
-0.0396073,-0.0215556
0.0141644,-0.00666739
0.0677173,0.0314061
0.048455,0.031727
0.0299221,0.00624406
0.032753,0.00126508
0.0228252,-0.0069826
0.0101179,-0.0136219
-0.000606247,-0.00807433
0.00311914,-0.00462445
-0.00596909,0.00663347
-0.0217005,0.010965
-0.0253935,0.00821496
-0.0237476,0.00322852
-0.0185803,-0.000637035
-0.0134412,-0.0121139
-0.0156,-0.0173088
-0.0244057,-0.00751374
-0.0239615,-0.00175901
-0.00336687,-0.00400554
0.0476393,-0.000208832
0.0971003,-0.00535447
0.0966667,-0.00970571
0.056416,-0.0166663
0.0108288,-0.0198036
-0.0325415,-0.00475899
-0.0610278,-0.00427319
-0.0678407,-0.010438
-0.066954,0.000881876
-0.0311433,-0.00386602
0.028227,0.00346559
0.0413297,0.0164669
0.00848563,-0.00588764
-0.0307616,-0.00788546
-0.0487079,0.0042592
-0.0347151,-0.00214353
-0.018119,0.0107043
-0.00793357,0.0121255
0.00106722,0.00516185
0.0139422,0.0255777
0.0157545,0.0126904
1.34e-05,0.00168647
-0.037391,0.000970731
-0.0576897,0.0047227
-0.0394147,0.00730883
0.000142721,0.00927227
0.0431853,0.00660727
0.0811874,0.00420372
0.112437,-0.0078698
0.102095,-0.0217235
0.0587783,-0.0140823
0.00833377,-0.000413538
-0.0237722,0.0015114
-0.0358309,0.00241683
-0.0119157,0.00967713
0.0286353,0.0102311
-0.0205384,-0.00407254
-0.0879114,-0.0139424
-0.0864076,0.00399245
-0.0524886,0.00602249
-0.015946,0.00435177
0.00550366,0.0126268
0.0292707,0.0159171
0.0175656,0.0170017
-0.0163421,0.0151013
-0.040015,-0.00824092
-0.0525787,-0.0325626
-0.0445972,-0.0553452
-0.0171048,-0.0253798
-0.00115145,0.00758198
0.00372211,0.00790279
0.0261216,0.0146436
0.0501704,0.00866072
0.0715458,-0.00961214
0.0797141,-0.0105176
0.0852909,-0.0214944
0.08104,-0.0101114
0.0592837,0.0271778
0.020615,0.0351563
-0.0254128,0.024518
-0.049019,0.0144541
-0.0375302,-0.00261351
-0.0277011,-0.0156631
-0.0255288,-0.0122633
-0.0314068,0.0015078
-0.0214882,0.0101745
-0.00485661,0.0121382
-0.00938507,0.0105121
-0.0250919,0.00764309
-0.00983683,-0.0057881
0.00193208,-0.0231711
-0.00820811,-0.0342866
-0.0140937,-0.0207063
0.0496781,0.00314032
0.151888,0.0139059
0.143135,0.00931806
0.0602835,0.00379611
-0.0389075,0.00302269
-0.115568,-0.0131032
-0.0955287,-0.0147026
-0.0747558,-0.00716824
-0.0770421,-0.00443506
-0.053739,-0.000287742
-0.0282189,0.00368507
-0.0291189,0.0196222
-0.0106253,0.0312832
0.0104006,0.0115997
0.0114169,-0.00306079
0.0120716,-0.00213824
0.0190801,-0.00424525
0.0299509,0.00651486
0.0049102,0.00571004
-0.0145641,0.00709362
-0.0228397,0.0018205
-0.0234027,-0.00191747
-0.0038933,-0.0160673
0.00952143,-0.0237294
0.00390452,-0.00585247
-0.00100348,0.000404542
0.0144678,-0.0142854
0.0188675,0.00488106
0.0113637,0.0235548
0.00360938,0.012301
0.0153258,-0.00756592
0.0280215,-0.00523558
0.0150709,0.00139777
-0.00449989,-0.00740199
-0.0073316,-0.0166892
0.0269484,-0.0100052
0.035527,-0.0078715
0.0303636,0.00477295
0.00267055,0.00520247
-0.017125,-0.0119701
-0.0108144,-0.0107469
-0.00515869,0.00920092
0.00850795,0.0115679
0.00404736,0.017238
-0.00052789,0.0219893
0.0475236,0.0211987
0.0660897,0.00671713
0.0216743,-0.0210423
-0.0344753,-0.00706767
-0.0681004,-0.00458793
-0.0711334,-0.00296191
-0.0492006,0.00664579
-0.030861,0.0173571
-0.0275749,-0.002874
-0.0293546,-0.0217869
-0.0323276,-0.00720644
-0.0169774,-0.044905
-0.0030525,-0.0161705
0.0160592,0.0226767
0.0411193,0.00232776
0.0725641,0.0147799
0.0846239,0.0302052
0.056563,0.0153434
0.0191149,-0.0156154
-0.013233,-0.0220982
-0.0346172,-0.0107704
-0.033476,-0.00328159
-0.0330466,0.0124895
-0.024724,0.0240508
-0.0198389,0.0189509
-0.0022924,0.0079966
0.0121928,0.00407655
0.0205056,-0.0179257
0.0256395,-0.0227635
0.0361797,-0.00169712
0.0376364,0.00554745
0.0579784,0.00324138
0.0199137,0.0111681
-0.0778778,0.0225307
-0.114176,0.0151638
-0.0977244,-0.0245519
-0.0631431,-0.0463126
-0.0329894,-0.0156746
0.00492109,0.0124545
0.0277067,0.0445403
0.0183964,0.0208526
0.0153611,-0.00663682
0.0274365,0.0121049
0.0789018,-0.000263147
0.191223,-0.012963
0.233505,0.0139822
0.173703,0.0377538
0.0501866,-0.00903092
-0.0733881,-0.0563524
-0.137542,-0.00983116
-0.166403,0.00280856
-0.202784,-0.0351071
-0.148798,-0.0256645
-0.0652069,0.00224897
0.00273536,0.0193791
0.0208987,0.0231969
0.0244898,0.0247838
0.0357638,-0.000519081
0.0501112,-0.0240697
0.0447499,-0.0145962
0.0207368,-0.0142813
-0.0424335,-0.0214379
-0.10818,-0.0115541
-0.0872752,-0.0110131
-0.0295092,-0.00928179
0.0137843,0.0372746
0.0377301,0.0512677
0.0606132,0.0258775
0.0705104,0.00198737
0.0585018,-0.00813051
0.0350005,-0.00677169
0.0183662,-0.00795988
0.00440423,0.000740555
-0.0136939,0.00634443
-0.0280325,0.0119265
-0.0275123,-0.0143719
-0.0111603,-0.0245272
0.00937389,-0.00388457
0.012057,-0.000227774
0.0138176,0.0153324
0.0234239,0.02424
0.0299969,0.0215544
0.0284007,0.0252159
0.033613,0.0223336
0.030945,-0.00721672
0.00855485,-0.0284421
-4.54e-05,-0.0234247
0.00488334,-0.0237628
0.0448874,-0.0188173
0.0581061,-0.0221675
0.0221611,-0.00741097
-0.0200168,0.00675477
-0.0784317,-0.00667194
-0.127552,-0.0412607
-0.130547,-0.0400676
-0.0989842,-0.0258272
-0.0481417,0.0188385
0.00462081,0.061382
0.0396859,0.0375728
0.0617529,0.0246516
0.0637915,0.0235409
0.0607093,0.00511066
0.0423531,-0.00847577
0.014591,0.00789503
-0.0163464,0.0127116
-0.0418473,-0.00435327
-0.0493521,-0.0102359
-0.0370984,0.00393996
-0.0188171,0.000454628
0.0030379,0.00041267
0.0282566,0.00635551
0.0242745,-0.0166159
0.0149808,-0.0204376
0.0302994,-0.00202843
0.0383921,-0.0152811
0.0217513,0.00313106
-0.00468831,0.0179213
-8.58e-05,0.0177143
0.0148552,-0.0042215
0.022166,-0.00775106
-0.0550912,-0.0217532
-0.126843,-0.0277876
-0.105601,0.0130862
-0.0226783,0.0225519
0.0620408,0.0146268
0.0967874,0.0130695
0.0856183,0.0144988
0.0269727,-0.00487729
-0.00902148,-0.0125728
-0.027278,0.00584011
-0.0217667,0.0112041
0.00143321,0.00271204
0.00602458,0.00544476
0.00307752,0.0172766
-0.0292919,-0.0133384
-0.0346096,-0.0268924
-0.0102359,-0.0313986
0.0312292,-0.0445737
0.0517877,-0.0219122
0.0414724,0.0139008
0.0134981,0.0186086
-0.0159242,0.025221
-0.0304066,0.0137321
-0.0248664,-0.00577061
-0.0150619,-0.0200012
-0.00199153,-0.0252302
0.0368009,-0.010625
0.0764377,0.0107831
0.0700518,-0.00193556
0.0406304,-0.0170788
0.00248857,0.01001
-0.0219527,0.00760034
-0.0261381,-0.0133949
-0.027052,-0.0110691
-0.0356741,-0.0136326
-0.0286099,-0.0116956
-0.0236546,0.0125236
-0.0289837,0.026285
-0.0260564,0.0338536
-0.0122606,0.0421823
-0.00827482,0.00740558
-0.0125137,-0.0071379
-0.0177113,0.00836742
-0.0180788,0.0122873
-0.0189569,-0.00647947
0.0019955,0.0247306
0.0322563,0.0560646
0.0221996,0.0225617
-0.0151277,-0.000867798
-0.0328519,-0.0116185
-0.0236091,-0.00473778
-0.0115617,-0.00522552
-0.000176055,-0.00597775
0.0166981,-0.000299713
0.0428796,0.00152971
0.0497196,-0.000605949
0.0166471,-0.00612318
-0.0107344,-0.0310317
-0.01406,-0.0469036
-0.00962434,-0.0420867
-0.00674237,0.0151032
-0.0100218,0.0167339
-0.0216968,-0.0102466
-0.00465531,0.00641698
0.03559,0.0227024
0.071045,0.00438343
0.077138,-0.00684902
0.0392646,-0.0266126
-0.000502887,-0.0139703
-0.018382,0.0013331
-0.0466982,0.014247
-0.0415042,0.0134486
-0.0216977,0.00713914
-0.0107708,-0.00194284
-0.00808572,-0.0211372
-0.0125058,-0.0248512
-0.0108202,-0.00565173
-0.000511111,0.00422214
0.00930759,0.0115988
0.015034,0.016664
0.00909615,0.0229589
0.00503243,0.0126686
0.00572121,-0.0125278
0.00157965,-0.0111583
0.00714801,-0.00634712
0.00313813,-0.00735626
-0.011496,-0.00234999
-0.0222543,0.00298946
-0.0156197,0.00442137
-0.0035831,0.00949305
0.00330128,-0.00809888
0.00494317,-0.0239305
0.00167293,-0.0149481
-0.000406663,0.00407728
0.00645913,0.0135669
0.00758873,0.0145407
0.000731112,0.00408457
-0.00444755,-0.00301488
-0.000612103,-0.00428704
0.0028531,-0.013515
-0.00249559,-0.0104024
-0.00417695,-0.00874101
-0.00290947,-0.0302408
0.00740028,-0.000508604
0.00542067,0.0446707
0.0033721,0.0314831
0.000473806,-0.000300089
-0.000532793,-0.00576269
0.00102976,0.00133128
0.0060102,0.00478949
0.000429723,-0.00203668
0.00268527,-0.00214082
0.0163256,0.00881023
0.0196514,0.00527983
0.00697116,0.00219698
0.00319231,-0.0200186
0.00245586,-0.0261604
0.00261659,-0.0173786
0.00976694,-0.00855844
0.00913771,0.00310543
0.00313064,0.0121795
-0.01133,0.0163065
-0.0732659,0.00928019
-0.107195,-0.00370983
-0.0870772,-0.0115846
-0.0553617,-0.00729334
-0.00536137,0.00450901
0.0453824,0.0057884
0.0878704,0.0194033
0.09029,0.0365298
0.0613105,0.0244172
0.0168051,-0.0141093
-0.00571024,-0.0184729
-0.00500136,-0.0048478
0.00994657,-0.0212516
0.00744351,-0.0247318
-0.0204614,-0.00520893
-0.0220894,0.00148738
-0.0205531,0.00472923
-0.0146323,0.030881
-0.00302758,0.00526581
0.00580914,-0.000504273
-0.0098153,0.00151686
-0.0226637,0.00900468
-0.0254116,0.00891618
0.0213845,0.0205811
0.0566612,0.0327028
0.0476959,0.0200168
0.0207779,-0.00907357
0.0111871,-0.0155172
0.0076103,-0.00356661
-0.00138289,-0.00987123
-0.0118721,-0.0204667
-0.0241663,-0.0368086
-0.0120359,-0.0125176
0.0141942,0.0113506
0.0254278,0.00884758
0.0174794,-0.000461688
0.00358997,-0.00672328
-0.019024,-0.0101682
-0.0275473,0.00170436
-0.0208753,-0.000113734
-0.0289368,0.00304452
-0.0488983,0.0290315
-0.0465482,0.0140587
-0.0281322,-0.0172048
0.00253692,-0.0176691
0.0437368,0.00559219
0.0677062,0.00461295
0.0527452,0.00875145
0.0215165,0.0130056
-0.0192673,0.00125419
-0.0384378,-0.00117091
-0.0216121,-0.0405289
-0.00995094,-0.0502714
-0.0245831,-0.016707
-0.0148893,0.0167126
-0.000737964,0.00490196
0.0272821,0.00295528
0.0464691,0.00457194
0.0457055,0.0378032
0.0240968,0.0156236
-0.00318041,-0.00987772
-0.0262049,0.00887641
-0.0239937,0.0289673
0.000367498,-0.0373649
0.0158262,-0.00132394
0.0215824,0.00403675
0.012483,-0.026752
-0.0520779,0.0204633
-0.161226,0.0126958
-0.180663,-0.0413262
-0.110076,-0.0139249
-0.00996053,0.0340329
0.0977742,0.00388317
0.163468,0.0197626
0.17935,0.026012
0.121057,0.0163101
0.0279676,0.0115308
-0.0415528,-0.00462182
-0.075924,-0.0101929
-0.0568782,-0.0382534
-0.0153432,-0.0492863
0.0431721,-0.00381113
0.0693744,-0.00893581
0.0444442,0.0386895
-0.0126893,0.0334851
-0.00580644,-0.0526349
-0.00183604,-0.0203104
-0.0360513,0.0104691
-0.0566533,-0.0147563
-0.0175039,-0.000406043
0.0115293,-0.00173615
0.0174347,0.0432622
-0.0129178,0.0334214
-0.0107165,0.0134268
-0.00907726,0.00311865
-0.00832592,0.00368863
-0.0126529,-0.0152685
0.00165617,0.0161956
0.0196416,0.0233065
0.0283528,0.00116927
0.0385779,-0.0444084
0.0462322,-0.00582773
0.0178081,-0.00294001
-0.00504382,-0.0311273
-0.00822101,-0.033202
-0.00599697,0.000473158
-0.0102849,-0.00537209
-0.020987,-0.00559972
-0.016018,0.0315806
-0.016435,-0.000347586
-0.0145691,-0.0331136
-0.00817756,0.0151514
-0.0446335,0.0294437
-0.0825767,0.00815913
-0.0604447,0.00846061
-0.0201052,0.0117433
-0.0108009,-0.00910833
0.0352393,0.017291
0.0572626,-0.0119861
0.0434551,-0.0437993
0.0288707,-0.0338814
0.0479443,-0.0101985
0.0510812,0.022332
0.0417405,0.0472628
0.0146958,0.0334002
0.000151392,0.00864281
-0.0067663,-0.0108379
-0.0151037,-0.0212815
-0.0210823,-0.0119304
-0.0154692,-0.00464766
-0.0122328,0.00435381
-0.0134559,0.0065698
0.0100314,0.0408006
0.00986453,0.0335108
-0.00294577,0.0132175
-0.0102503,-0.00143764
-0.023251,0.00542651
-0.0272103,0.0165508
-0.00638689,-0.0175943
-0.0185266,-0.0267655
-0.0461964,-0.0117723
-0.0439435,-0.0230597
-0.0269298,-0.0382644
-0.00667316,-0.0456403
0.0119387,-0.0351676
0.0343866,-0.0181119
0.0469322,0.0181528
0.0385061,0.020928
0.0251398,0.0363559
0.0142718,0.0509784
0.00262213,0.0236417
0.00384158,0.00879155
0.00683044,0.00063816
0.00573955,0.00194177
0.00697152,0.00328395
0.0108599,-0.00486145
0.00756862,-0.0185183
0.00285311,-0.0178622
-0.00242398,-0.0262678
-0.00168545,-0.0353955
-0.0099802,-0.0407504
-0.00924101,-0.0142921
-0.00194318,0.0049959
-0.0103372,0.0182502
-0.0546185,0.0463829
-0.0991008,0.0477954
-0.0577713,0.0374663
-0.00501515,0.0172136
0.0413811,0.00395384
0.0885222,0.00101129
0.0948259,-0.00792512
0.0634486,-0.0130644
0.0369601,-0.00889571
0.0095822,-0.00897569
-0.0336782,-0.0339647
-0.0565553,-0.059663
-0.0278434,-0.0324443
-0.00168496,0.0119425
0.00182858,0.0291381
0.0110821,0.0189698
0.0183209,0.0257786
0.00381878,0.0416145
-0.0310737,0.029667
-0.0590211,0.0208361
-0.0360591,0.00446243
0.0246427,-0.0183643
0.0571071,-0.0117334
0.0447855,0.00239622
0.0134222,0.00125223
-0.033321,-0.00525326
-0.0463907,-0.0126223
-0.0414847,-0.0222362
-0.02663,-0.01714
-0.00546548,-0.0264796
0.0005701,-0.0230883
-0.0205459,-0.0130523
-0.0165611,0.0102912
0.0190881,0.0248599
0.0756107,0.0338649
0.0951439,0.039179
0.0589891,0.0209688
0.0173229,-0.00552899
-0.0211832,-0.0265664
-0.03362,-0.025633
-0.0372152,0.0193606
-0.0533782,-0.00876336
-0.0395942,-0.0491408
-0.0176495,0.0191215
-0.0146092,0.00755568
-0.0172685,-0.0465794
0.00671762,-0.0379163
0.026089,-0.00787854
0.04359,-0.00280163
0.0538818,0.0177223
0.0293532,0.0133025
0.0180736,0.0330758
0.0271755,0.0322796
0.0106253,-0.0167909
-0.00139061,-0.00794818
-0.0154597,-0.0156371
-0.0167927,0.00348324
-0.0256069,-0.00474327
-0.0268722,-0.00404621
-0.0352838,-0.0086465
-0.0534388,0.0160427
-0.0586442,0.0138975
-0.0624242,-0.0154158
-0.00640434,0.00991564
0.0362439,0.0325529
0.0421868,0.0158476
0.0345337,0.0164404
0.0307907,0.0258628
0.0200758,0.0244791
0.00710997,0.0273642
0.00401413,0.00882602
0.0290718,-0.00750807
0.0334077,-0.00558402
0.0156674,-0.00639181
-0.00160691,-0.0156746
-0.0153336,-0.00770622
-0.0124354,0.00344275
-0.00757491,0.0006237
-0.00984109,-0.037445
-0.00504217,-0.0577456
-0.0039024,-0.0291591
-0.0113545,-0.0177761
-0.0155417,0.000706281
-0.0165861,0.0304295
-0.0129432,0.0247662
-0.0101681,0.00912294
-0.0112251,0.00517655
-0.00666931,-0.0179816
0.0113341,-0.0160765
0.0257716,0.012725
0.0137064,-0.000736163
-0.00966481,-0.0106804
-0.0119782,-0.0124897
0.00671782,0.020266
0.0133516,0.0183159
0.0214429,-0.0110346
0.0144725,-0.0112971
-0.00792404,-0.0352803
-0.0522173,-0.0281592
-0.0908004,-0.00190869
-0.0574048,0.0172374
0.0124425,0.0178794
0.0638896,-0.00169683
0.0822311,0.00285595
0.0584226,0.00991068
0.0520704,0.000912552
0.0253867,0.016677
-0.0109973,0.0171937
-0.0304664,0.0166903
-0.0408747,0.0275363
-0.0411348,0.0169916
-0.0215633,-0.020658
0.00184816,-0.0356151
0.0177245,-0.0347187
0.00842634,-0.0195102
-0.0125726,-0.00218816
-0.00592206,0.0148995
0.000347173,0.035261
0.000331931,0.0286649
0.014529,0.0238455
0.0205243,-0.0120261
0.018443,-0.0289954
0.0119499,0.00188219
0.00267362,0.00932829
-0.00205976,0.000493108
0.000603445,0.00201047
0.00240709,0.00422396
0.00817232,-0.00526325
0.0156719,-0.0213582
0.0146709,-0.0167278
0.0103601,-0.00599029
-0.00189571,-0.00696439
-0.0189937,-0.00191885
-0.0140332,0.0227291
-0.00504861,0.0201971
0.00702223,0.0199168
0.0027822,0.00409919
-0.00305522,-0.0146971
-0.0366938,-0.0124074
-0.0547751,-0.00609166
-0.0503158,-0.0104473
-0.0483617,-0.0248829
-0.0255524,0.0289238
0.0318462,0.0229504
0.0698311,0.0114659
0.0677321,-0.000854884
0.0527936,-0.0226791
0.0318719,-0.00539901
-0.00836604,0.0116363
-0.0291654,0.0173088
-0.0179271,-0.000846954
-0.0137442,-0.0070022
-0.0174451,0.0256557
-0.00207703,0.023303
-0.000216539,-0.000299806
-0.0252802,-0.0115341
-0.0329768,0.00119442
-0.02816,0.00148467
-0.0165464,-0.00307054
0.0229723,-0.0105416
0.018827,-0.0402567
0.00440561,-0.0578596
0.0223359,-0.0275041
0.0358183,-0.0195621
0.0182283,-0.00780812
-0.0186767,-0.00200398
-0.00595575,0.00463986
0.0448575,-0.0110948
0.0547493,0.0160357
0.0110624,0.0586328
-0.0334288,0.0155987
-0.0403321,-0.0276233
-0.0152735,-0.0145982
-0.00285465,0.0093484
0.00717041,0.040827
0.0264143,0.0522588
0.0176041,0.0306829
-0.00494891,-0.00163509
-0.0298309,-0.00197579
-0.065977,-0.00995439
-0.0707237,-0.0274694
-0.0466422,-0.0324307
-0.0350373,-0.0096843
-0.0289282,0.00996044
0.0124575,0.0119513
0.0834073,0.014567
0.0879935,-0.00261381
0.05467,0.0306915
0.0251648,0.0158382
0.0122775,0.0229438
-0.00407269,-0.0138027
-0.0399823,-0.024118
-0.0181098,-0.0133998
0.0238579,-0.0338207
0.0402225,-0.0317993
0.0482432,-0.00624466
0.0355136,-0.00136477
0.0173009,-0.0170018
0.00789973,-0.0145873
-0.00477954,-0.034278
-0.0501515,0.0165383
-0.0620393,0.0903398
-0.0376047,0.0727576
-0.0699767,-0.015228
-0.141011,-0.0377592
-0.130823,-0.0168535
-0.0815593,0.00230843
-0.0339537,-0.0081913
0.0373983,-0.0244907
0.100888,0.0347611
0.107539,0.0352342
0.0472014,-0.0201742
0.055426,-0.0400066
0.0808637,-0.0501417
0.108495,-0.0413083
0.135783,0.0513265
0.134515,0.0412786
0.0840628,0.036629
0.011133,0.0284436
-0.0596507,-0.02549
-0.203709,-0.059921
-0.345852,-0.0275574
-0.247922,-0.01186
-0.0329238,0.0438307
0.12632,0.0124796
0.151289,-0.00492345
0.0904296,0.0236488
0.0309204,0.03706
-0.0435593,0.0217648
-0.119345,-0.0238356
-0.0763552,-0.0577909
0.0288534,-0.0314205
0.107408,-0.0172485
0.127069,0.0241394
0.138837,0.00810207
0.077042,0.0587556
-0.018402,0.021027
-0.0796049,-0.0295552
-0.0418945,-0.014617
0.0665466,-0.00931618
0.0997622,-0.0411298
0.0410781,0.000848479
-0.0131079,0.0607768
-0.0343443,0.0794533
-0.0297473,0.0392515
-0.0289905,-0.0266322
-0.0668205,-0.0162804
-0.117724,0.023205
-0.0694146,0.0217545
-0.0183453,-0.0224757
-0.0351535,-0.0708889
0.00114695,-0.085858
0.0428802,0.0168109
0.0677914,0.00984947
0.0728593,-0.0572355
0.0587557,0.0191846
0.0398612,0.0565427
-1.07e-05,-0.0164826
-0.0292072,-0.0266217
-0.0273072,0.00125602
-0.0365601,0.0194343
-0.0384913,0.0148181
-0.00261617,-0.0340077
0.0859841,-0.0157701
0.0385228,0.000807239
-0.0908945,0.0196382
-0.143922,0.0743672
-0.137766,0.0461708
-0.135479,0.0292099
-0.0603205,0.00289316
0.0792495,-0.0775781
0.182705,-0.0489342
0.139945,-0.00293523
0.0346199,-0.00390579
-0.01995,0.00614194
-0.00269112,-0.0212231
0.0163116,0.0136467
0.00597582,0.0342564
-0.00712267,-0.0417827
-0.00471438,-0.0382677
0.00421979,-0.000834347
0.0395048,0.0265289
0.00829322,0.0290503
-0.0561196,0.0464721
-0.0344514,0.0459347
-0.0175501,0.0263529
-0.0219649,0.0153501
0.0525592,-0.0465288
0.0663184,-0.0656576
0.00277617,-0.0333752
-0.00646922,0.00986974
-0.0264966,0.00381436
-0.0395214,-0.000268036
-0.0182532,-0.0399071
0.00526532,-0.0284477
0.00877194,-0.0150669
0.00814481,0.0230929
0.00955052,0.02781
0.0298734,0.0211884
0.040328,0.00681633
0.0140399,-0.0078337
-0.0224822,0.0422642
-0.0256322,0.0709624
0.0123365,0.0454597
0.0501971,-0.0362996
0.0647588,-0.054333
0.0478452,-0.0274587
0.0231828,-0.0342947
0.0118408,-0.0183686
0.00746447,0.00330769
0.00733574,-0.00528956
0.0121036,-0.0153067
-0.0125636,-0.0425733
-0.0618633,-0.0330101
-0.118193,-0.0160235
-0.186271,0.0471653
-0.208223,0.0477738
-0.222069,0.0242202
-0.231089,0.0232068
-0.204925,0.0186025
-0.0567762,0.00975014
0.145836,-0.0131807
0.323569,-0.0248703
0.338109,0.00874312
0.189713,0.0187959
0.101539,0.0326966
0.0971781,0.0403867
0.0968666,0.0238209
0.0715943,0.0175076
-0.00466697,0.00857591
-0.0638777,0.00247331
-0.033497,-0.00779096
-0.0245295,-0.0488687
-0.0313422,-0.0836542
-0.016967,0.000617294
-0.00290848,0.0329127
0.0137729,0.00147758
0.0147279,-0.0230415
0.0303654,-0.0451031
0.0193102,-0.00262995
0.0539188,0.00297983
0.0328669,-0.00680145
-0.0172713,0.00519155
-0.0760843,0.0257671
-0.0563323,0.0259674
-0.0237091,0.00294771
-0.025108,0.00894905
-0.00350347,-0.00393651
0.0273433,-0.0100866
0.0560728,0.0229196
0.0174809,0.0115399
-0.0387091,0.0263624
-0.0423482,0.023196
-0.016903,-0.0214983
-0.0127833,-0.0541574
-0.0563712,-0.0585487
-0.120172,-0.08497
-0.125761,-0.112796
-0.0481896,-0.093371
0.00439838,-0.00768606
-0.0136473,0.0774602
-0.0224421,0.127565
0.0127656,0.0545629
0.0430286,0.0207408
0.029422,0.021737
0.0365811,0.0281934
0.0831255,0.0285304
0.107144,0.0214832
0.0601954,0.00665179
0.0257278,0.000976814
0.0412572,0.0245061
-0.0137602,-0.00288594
-0.0767041,-0.000734708
-0.077513,-0.0118675
-0.0825879,-0.0276164
-0.0526542,-0.029507
-0.000625603,-0.0217853
0.00175204,-0.032402
0.00885305,0.0074927
0.0387027,0.0149966
-0.0165742,0.00857531
-0.0838162,0.00956246
-0.124485,0.0185707
-0.0270725,0.0192869
0.100019,0.0114491
0.179795,0.00918992
0.19955,0.00420457
0.178706,-0.0111242
0.102628,-0.0120594
-0.0010759,-0.0106578
-0.0604788,-0.00790621
-0.0665031,-0.00877562
-0.0860911,-0.0102794
-0.0814964,-0.00745956
-0.0277954,0.0041445
-0.0239348,0.0063034
-0.0290977,-0.0113554
-0.00608019,-0.0152726
0.0130345,-0.0075937
0.00999326,0.00149043
0.00629523,0.0129591
0.00890705,0.0141503
0.00944225,0.0122456
0.00152843,0.00673332
0.00951538,-0.00393691
0.00611572,-0.0222585
-0.0405271,-0.00644951
-0.078857,0.0183933
-0.0759236,0.0235417
-0.0535581,0.0283232
-0.0223367,0.0205946
0.00566815,0.0123966
0.0198201,-0.00294291
0.00617095,-0.00280225
-0.00218886,-0.0205719
0.00746365,-0.0273882
0.0322968,0.00658434
0.0364803,0.0017231
0.0226147,0.00770363
-0.00112201,0.0111009
-0.0258135,-0.00928845
-0.0235402,-0.019577
-0.0190108,-0.0242581
0.00375408,-0.0310804
0.0111491,-0.0281177
0.00826474,-0.0182837
0.0432251,0.0131907
0.051329,0.0283288
0.0115847,0.00997844
-0.0465205,-0.00588893
-0.0400915,-0.0181089
0.0154289,-0.0243151
0.0533102,0.0199109
0.0484165,0.047765
0.0246067,0.0166665
0.0179772,-1.24e-05
0.0134588,0.00748258
0.00428771,-0.00695192
0.0081775,-0.0225061
-0.0011325,-0.0239618
-0.0250873,-9.09e-05
-0.0267821,0.0148456
-0.0414028,0.0277333
-0.047027,0.0237473
-0.0304062,0.00779762
-0.00848147,-0.00853362
-0.0170059,-0.0136925
0.00491635,-0.0213652
0.0533744,0.0144136
0.00657438,0.0534876
-0.0118249,0.0354628
0.0359374,-0.0174084
0.0445625,-0.0409544
0.0269891,-0.0313822
0.00564105,-0.0312808
-0.0138787,-0.0258208
-0.016265,-0.00174945
-0.0272786,0.0058543
-0.0342676,-0.00100378
-0.0220613,-0.00856456
0.00287414,0.00085828
0.038482,0.00316676
0.0631827,0.00147674
0.0706118,0.00560744
0.0484555,0.00824773
0.0192613,0.000984063
-0.0186589,-0.00305398
-0.0347709,0.012636
-0.0216121,0.0165494
-0.0145441,0.0106286
-0.0428931,-0.00141143
-0.0728556,-0.0197961
-0.100191,-0.0288256
-0.0751252,-0.0185955
-0.000301934,0.0376745
0.0295454,0.039685
0.0342757,-0.00596111
0.0447287,-0.0306514
-0.0100952,0.0111052
-0.0896768,0.0336206
-0.101507,0.00425454
-0.0493014,-0.00102044
0.0262643,0.0101067
0.10104,0.00678602
0.1464,-0.00500251
0.142033,-0.00399972
0.0977698,0.0146139
0.0450116,0.0100481
0.00189411,-0.0104707
-0.0109055,-0.0195625
-0.0420149,-0.0141522
-0.0472084,0.0125806
-0.0238947,0.0113417
-0.0218843,0.0103582
-0.0281665,0.0128829
-0.0170154,-0.025003
-0.01743,-0.0512297
-0.0278988,-0.0646673
0.0142561,-0.00656915
0.0554467,0.0640166
0.0266524,0.0362539
-0.00785983,0.008834
-0.0185203,0.01038
-0.0308354,-0.000344498
-0.0341581,-0.0165977
-0.0164814,-0.00658648
-0.00568757,0.00306486
-0.00943392,-0.0217886
-0.0371216,-0.0120126
-0.0741438,0.0158046
-0.0311175,0.00949535
0.0409699,-0.00866106
0.0761119,-0.0194113
0.0722154,-0.0162892
0.0261453,0.0112464
-0.00988042,0.021438
0.0143535,0.0112343
-0.00599053,-0.00404518
-0.026651,-0.00630711
-0.0143676,0.00461256
0.0137373,-0.0263468
0.0209537,-0.0278881
0.0169695,-0.0409268
-0.00173262,0.0333366
-0.0359038,0.0350315
-0.0676168,0.032248
-0.0555189,0.0358168
-0.0313193,0.0140476
0.00406877,-0.0281535
0.0457624,-0.00170873
0.0487132,-0.000679852
0.0346169,-0.0247696
0.017057,-0.00644756
0.0108573,0.01905
0.00828408,0.00600628
0.00414096,-0.0105929
-0.00309591,-0.0092341
-0.0117731,-0.032515
0.000942018,-0.0207188
0.00778913,0.00262633
-0.0112622,0.0142858
-0.00432562,0.0116528
0.0104223,0.0126137
-0.00916888,0.0174289
-0.0466971,0.0122904
-0.0700573,-0.00252652
-0.0245121,-0.00385918
0.070332,0.00890712
0.0781028,0.00939076
0.00267677,-0.0113452
-0.0581969,-0.013867
-0.0753396,-0.0292061
-0.0790043,-0.0469518
-0.0338939,0.00185066
-0.0030214,-0.0375272
0.0271681,-0.00841142
0.0308925,0.0378201
0.036506,0.0377097
0.0385954,0.0235491
0.039677,0.017441
0.0325382,0.0161016
0.0283119,0.005647
0.0371278,-0.00808823
0.0312786,-0.00375893
0.0158209,0.00215341
0.0131412,0.00661991
0.00787352,0.009147
0.00143719,0.0112262
0.00449996,0.00939295
0.00778537,0.00957375
-0.00162529,0.00476544
-0.00982205,-0.00615989
-0.0108462,-0.00680553
-0.0101843,0.00434549
-0.00304931,0.00928603
0.00170423,0.0122716
-0.00526915,0.0170458
-0.0570292,-0.00170467
-0.136654,-0.0192768
-0.144787,-0.013715
-0.0719975,-0.00151818
0.0214166,-0.0196999
0.115976,-0.0172034
0.162608,0.025479
0.11876,0.019197
0.0403092,0.0031132
0.0147418,-0.00742458
0.00169308,-0.0251965
-0.0350146,-0.027336
-0.045596,-0.0169037
-0.0130584,-0.00687709
-0.00285047,-0.00123202
-0.0152035,0.00731411
-0.0211022,0.0113626
-0.00947555,-0.000196187
0.00311012,-0.0170348
0.00404039,-0.0295035
0.00608175,-0.00127597
-0.00199407,0.0130369
0.00047244,0.0104102
0.00240259,0.0124976
-0.0118003,0.00327109
-0.0338563,0.000921803
-0.0447591,-0.00205066
-0.0239211,-0.0189264
0.00770934,-0.017514
0.0260731,0.00319568
0.0342173,0.0148247
0.041256,0.0209619
0.0106998,0.00992983
-0.0155705,0.00813033
-0.00803683,0.0133247
-0.00817293,-0.00326933
-0.0210563,-0.0107637
-0.0297131,-0.00979593
-0.031839,-0.0082088
-0.00119008,-0.00121909
0.0206249,-0.00755967
0.00156999,-0.00543655
-0.0260913,0.00168965
-0.0219554,-0.0125559
-0.0179014,-0.036875
-0.0190678,-0.0224467
-0.00138471,-0.000708448
0.0281905,0.0029235
0.0345432,0.029876
0.022303,0.0317453
0.0199923,0.01955
0.0269382,0.00550166
0.0466275,-0.000292837
0.0529644,0.00298667
0.0391916,0.00964413
0.00794837,-0.0215281
-0.0470163,-0.00481669
-0.0706608,0.0208433
-0.036898,0.0180661
-0.0185167,0.00653287
-0.0212859,-0.00269474
-0.00758205,0.000169287
0.0102063,0.000112236
0.0177262,0.00653339
0.0170336,0.00819437
0.00417338,0.00805378
3.81e-05,0.0153045
0.016344,0.0157778
0.038464,-0.00713858
0.0225141,-0.0222255
0.00422907,-0.00846669
-0.00457505,0.000678222
-0.025669,0.0120696
-0.0256489,0.012601
-0.0115242,-0.00898811
-0.00600669,-0.0201626
0.0245857,0.00784802
0.0531186,0.0104651
0.0327702,-0.0148611
0.00241067,-0.00847855
-0.018815,0.0029499
-0.0172514,0.00771519
-0.0281736,0.00494714
-0.0271914,-0.0182237
-0.0193679,-0.0580596
-0.00887487,-0.0302581
0.013753,-0.00329759
0.0148672,0.00338897
-0.0077012,0.00255884
-0.0241637,-0.00566988
-0.0192742,-0.00569431
-0.000570935,-0.0110692
0.0178303,-0.0284963
0.0176053,0.0177753
0.0111031,0.0299854
-0.00108466,0.0141391
-0.0135046,0.0213427
-0.0140277,0.0174472
-0.00698489,0.00837548
-0.00737204,0.00749665
-0.0140883,-0.00374083
0.00122829,-0.0102945
0.0380272,-0.0153623
0.0453213,-0.00748991
0.036788,0.00492455
-0.00174839,-0.00736488
-0.0593173,0.00322938
-0.0382801,0.0308239
-0.00165486,0.0168603
-0.0127199,-0.0043444
-0.016369,-0.0062771
-0.00357387,-0.00795269
0.00428203,-0.00136396
0.0148555,0.0195882
0.0242059,0.0163017
0.0268127,-0.000297645
0.0220942,0.00585643
0.0157626,0.0043231
0.0105931,-0.00442274
-0.00876786,-0.0073907
-0.011466,0.00596395
0.0063612,6.49e-05
0.0102975,-0.0105245
0.00673812,-0.0101499
0.00377236,-0.00815037
-0.00150089,-0.0204951
-0.014873,-0.026968
-0.00908684,-0.0159104
-0.000694414,-0.0264947
-0.0102193,-0.0206502
-0.0271028,-0.0253099
-0.0287001,-0.0321596
0.00718943,-0.00743553
0.0423132,0.0104026
0.0482294,0.0194184
0.0342617,0.0202873
-0.0146391,0.0295566
-0.026006,0.0471803
-0.0163451,0.0411721
-0.0192315,0.0429144
-0.0139763,0.0425819
-0.00394832,0.0290315
-0.0067583,0.0109652
-0.0585905,-0.00169811
-0.124499,-0.0140444
-0.119453,-0.0278991
-0.0432688,-0.0194887
0.0918595,-0.000880275
0.124371,-0.00414905
0.053496,0.00883652
-0.0133838,0.0173015
0.0191544,0.00433806
0.0327143,-0.0147577
0.0131024,-0.013177
-0.0118973,-0.010343
-0.00878361,-0.00141771
0.00662005,0.0135116
0.0121404,-0.00137477
0.0174609,-0.00973135
0.0456905,0.00347312
0.0527609,0.00333849
0.0100785,-0.015652
-0.0222874,-0.0180486
-0.0495356,-0.00976024
-0.0596955,-0.00939267
-0.0321455,-0.0127959
-0.000945942,-0.0049163
0.0191964,-0.00758849
0.0428627,-0.0118369
0.0462446,0.00732199
0.0171965,0.0126592
-0.0106391,-0.0066596
-0.0146416,-0.00602869
0.0109097,0.00148108
-0.00228793,-0.00333564
-0.0396004,0.00454189
-0.0512921,0.0108399
-0.0433298,4.88e-05
-0.0114431,-0.0192249
0.0151436,-0.0227145
0.0157769,-0.00105697
0.00956771,-0.0241329
0.0113643,-0.00688716
0.00861729,0.0136836
0.0312447,0.0200681
0.0631129,0.013851
0.0759967,0.011541
0.0575218,0.00768791
0.0233283,0.00931243
-0.0126591,0.0160547
-0.041892,0.0146757
-0.0465551,-0.00272612
-0.01125,-0.0040811
-0.00206584,0.0041536
0.0105049,0.000316605
-0.00644013,-0.0137863
-0.0643482,-0.0159744
-0.12626,-0.0149443
-0.146806,-0.0135146
-0.0951779,-0.00477511
-0.0150521,-0.0120023
0.073842,-0.00868437
0.130872,-0.0133223
0.0968694,0.00399118
0.0294441,0.029973
-0.00270023,0.00582689
0.0165997,0.00144836
0.0318524,0.0146453
0.0379006,0.0181822
0.0216062,0.00331522
0.00808534,-0.0234444
0.0137391,-0.0198868
0.0309648,0.000601274
0.0244583,0.0148543
0.0103198,0.0229485
-0.0104622,0.0191718
-0.0100305,0.0199677
-0.013953,0.0169719
-0.0361237,0.0121495
-0.0375506,-0.00269463
-0.0227262,-0.00474024
-0.0212752,-0.00676382
-0.0429645,0.00756769
-0.0559047,0.0166746
-0.0407569,-0.00238909
-0.0143168,-0.019609
-0.000403917,-0.0283139
0.0237309,-0.0418962
0.0429715,-0.0561366
0.024299,-0.0102935
0.00484903,0.0316413
0.00679231,-0.00127968
0.00599805,-0.00115364
-0.000309596,0.0480385
-0.00408424,-0.000471897
0.00159402,-0.0333404
0.00642836,-0.0250639
0.00320718,-0.00420706
0.0047732,0.0133319
0.00264383,0.0165719
0.00145966,0.0198619
-0.00150328,0.0128833
0.0126999,0.0135852
0.0204625,0.016848
0.0168144,-0.00275069
0.0102637,-0.00761776
-0.00482693,4.78e-05
-0.0131957,0.00825386
-0.00369357,0.0101605
-0.0052197,0.00322944
-0.0396123,-0.00513745
-0.0499161,-0.011947
-0.038918,-0.00877176
0.00224526,0.0222168
0.0330974,0.0127791
0.0229676,0.000827828
-0.00627846,0.0058844
-0.0110396,0.00679663
0.000249885,0.00116201
0.00348419,-0.00744986
0.0135889,-0.0171841
0.0215113,-0.0122744
0.0217203,0.000395662
0.0259665,0.00459042
0.0297092,3.91e-05
0.0142634,-0.00190955
-0.0134594,-0.00175908
-0.0273914,-0.00546308
-0.00895228,-0.000221785
0.000418595,0.00287215
-0.00416835,-0.0140656
-0.017726,-0.0198647
-0.0597363,-0.0137503
-0.0917571,-0.040359
-0.0339941,-0.0125178
0.0365617,0.024986
0.0647762,0.045291
0.0784279,0.00274418
0.0447853,-0.0108528
-0.00677838,0.00436868
-0.0243097,0.00513109
-0.0121925,0.00649433
-0.00434038,0.0202802
-0.00245086,0.016816
0.00774825,-0.000499711
0.00956641,-0.0184961
-0.0243336,-0.0207863
-0.0180337,-0.0123251
0.00875542,-0.0062678
0.0157679,-0.00379422
0.0193581,0.00422145
0.0152584,0.00172686
-0.00448902,0.00194594
-0.00475977,0.000189639
0.014032,-0.00590752
0.0285152,-0.00808421
0.0165575,0.0025034
-0.0077043,0.00106158
-0.017447,0.00404259
-0.00980004,0.0175713
-0.0106715,0.0216237
-0.000398658,0.00775135
0.00476715,-0.00659207
-0.0233402,-0.0076867
-0.0295915,0.00472133
-0.0168496,0.0229109
0.00907954,0.0195519
0.0474407,0.00937492
0.0483685,-0.00216396
0.0344935,-0.00856793
0.0354762,-0.0178507
0.0286966,-0.0290168
-0.0175524,-0.000999435
-0.0120546,-0.00515173
-0.0177175,-0.0188885
-0.0860573,0.00184315
-0.0801013,0.00585546
-0.0225553,-0.000472248
-0.00830772,-0.0365794
0.00125438,-0.032283
-0.00707024,-0.0179433
-0.00780538,0.00172915
-0.00130442,0.0142743
-0.0063185,0.0294732
0.00532478,0.0182991
0.0304249,0.00588013
0.0459481,0.0089461
0.0492464,0.00401284
0.0331581,0.000561504
0.0146945,0.00442817
-0.0106494,0.0124359
-0.0246578,0.0162641
-0.0393368,0.0046808
-0.0197138,0.0112929
0.00767507,0.00495058
0.0108712,-0.0127739
0.000215323,-0.0165736
-0.0207952,-0.00518436
-0.0294451,-0.0082955
-0.0251053,-0.00422468
-0.00841193,0.00843209
0.0128792,0.0035531
0.0221313,-0.0162809
0.0322085,-0.0277732
0.0409598,-0.0104659
0.0277812,0.000972345
0.00201636,0.0240886
-0.00717194,0.0198744
-0.0269657,0.00248109
-0.0765687,0.0083611
-0.0699977,0.0133631
-0.0225554,-0.000407956
0.038509,-0.00814969
0.0641954,0.00222042
0.0615569,-0.00691045
0.0136147,-0.00920356
-0.0341776,0.00424908
-0.070234,0.0184766
-0.0800871,0.00392165
-0.0230955,-0.010221
0.0243344,-0.0144361
0.0575527,-0.024351
0.0673875,0.000683763
0.04602,0.0263787
0.024452,0.0054493
0.00386454,0.010395
0.00533671,0.0603219
0.00642421,0.0270294
0.00342512,-0.0153645
0.0260798,-0.0176354
0.035484,-0.0350549
0.0120823,-0.0312929
-0.0301737,-0.00958471
-0.0367232,0.00118712
-0.00875569,-0.000457714
0.0161954,0.00314141
0.00168077,0.00607896
-0.0233265,-0.00848282
-0.0138973,-0.0153573
-0.0242081,-0.00396818
-0.0312533,0.00167312
-0.0258616,-0.000582076
0.0231965,0.00153746
0.0375701,-0.00666971
0.0314941,-0.0201348
0.0121435,-0.0206702
-0.00817317,-0.00713386
-0.026532,0.00106819
-0.050224,0.00475746
-0.0505412,0.00318471
-0.026032,0.0238865
0.00279541,0.0349936
0.0341646,0.032294
0.0530001,0.0306269
0.0253819,0.0215151
-0.0277816,0.0206745
-0.0435587,0.0192631
-0.015278,0.00554959
0.00183378,0.00536416
0.00786309,-0.0222262
0.0251588,-0.0338505
0.0399476,-0.0331648
0.0121643,-0.038586
-0.00667451,-0.0517012
0.00744297,-0.045209
0.0150374,-0.00741877
0.00591482,0.0278827
-0.0267875,0.0228055
-0.0594461,0.0396369
-0.0357407,0.0296786
-0.010548,0.00843385
0.0213488,0.00233257
0.0649607,0.00114805
0.0394411,-0.0023695
-0.0120343,0.00291122
-0.0102732,0.00330656
0.00678352,-0.00618049
0.0170726,-0.0208047
0.0186191,-0.0238793
0.0121083,-0.0119453
0.00147579,-0.0139316
-0.00553583,-0.0105859
-0.0107767,-0.0050642
-0.0178801,0.0142293
-0.0202625,0.0234666
-0.0165671,0.0168233
-0.00320302,0.000676622
0.00703824,-0.0143565
0.000583202,-0.00768479
-0.00107564,0.0123194
-0.00360582,0.0152818
-0.0148047,0.00886613
-0.015526,0.00423663
0.00513266,-0.00322659
0.0149015,-0.0186585
0.0222703,-0.0193175
0.0227975,-0.00757984
0.0170598,0.000222963
0.0212363,0.00696784
0.0224548,0.0190957
0.00700761,0.0217051
-0.0138605,0.0234739
-0.0409686,0.0187272
-0.0669916,-0.00501762
-0.0416245,-0.0172543
-0.0191575,-0.00181201
-0.0117045,0.00502662
-0.00918316,-0.00453767
-0.00428322,-0.0123241
0.00346102,-0.00423114
0.00944369,-0.0164754
0.013208,-0.0135072
0.0191925,-0.00958481
0.0295022,-0.0157663
0.030338,0.00100871
0.0193043,0.0117708
0.0034798,-0.00379814
-0.00852919,-0.0111585
-0.0107783,0.0128062
-0.0142748,0.0224593
0.00354379,3.98e-05
0.0202041,0.0101835
0.0157394,0.0222953
-0.00135878,0.00427379
-0.0187613,-0.0102009
-0.0257842,-0.0116595
-0.00912799,-0.0280361
0.0299837,-0.00679458
0.0311352,-0.0129693
0.00828012,-0.019026
-0.00327156,0.00219959
-0.0214859,0.0100978
-0.0348181,0.0122546
-0.00818651,0.00043243
0.0166525,-0.0190922
0.0127731,-0.0247715
0.0165766,-0.0267604
0.0260585,-0.0140238
0.002888,0.00423318
-0.0115441,0.00866439
-0.00541399,0.00509106
-0.00842457,0.0194618
-0.00919601,0.0418178
-0.00282229,0.0313108
0.0048621,0.0164922
0.00591488,0.01781
-0.00754511,0.016813
-0.0161582,0.00989586
-0.0110975,0.0128122
-0.0188704,0.0198591
-0.0251834,0.0228449
-0.0047786,0.0192995
0.00890098,0.00576345
0.0148712,-0.00254184
0.0197827,-0.0129033
9.94e-05,-0.0112243
-0.0194403,-0.0109348
-0.004653,-0.00179274
0.0109421,0.0018456
0.0292637,-0.00111643
0.0532001,-0.00898652
0.0629365,-0.0148537
0.0477794,-0.00605664
0.0264916,-0.00500543
-0.00870563,-0.00654347
-0.0641043,-0.0267898
-0.154845,-0.0201679
-0.197674,-0.00967971
-0.154916,-0.0215046
-0.0535234,-0.00745901
0.0633809,0.00883704
0.136745,-0.0199157
0.155584,0.00139601
0.12921,0.0237724
0.0579624,0.0124301
0.000775172,0.00872029
-0.0244254,0.0102579
-0.0486799,-0.00631225
-0.0402466,-0.015728
-0.00982129,-0.00779665
0.0164173,-0.0118398
0.0379746,-0.00864139
0.0517108,0.00585358
0.0572713,0.0152476
0.0424525,0.0192562
0.0065587,0.0129125
-0.0192671,-0.00702891
-0.0260569,-0.00896332
-0.0304701,0.000693232
-0.0344575,0.00119374
-0.0252184,-0.000138112
-0.0460313,-0.0132763
-0.0425661,-0.0206871
-0.0151393,0.000995797
0.000872709,0.00582766
0.00329455,-0.00653631
0.000335899,-0.00300838
0.0174879,0.00299391
0.0344621,0.00909666
0.0333458,0.010079
0.0365599,0.00129251
0.0424907,-0.00021897
0.012837,0.013207
-0.0491693,-0.0175568
-0.0620258,-0.01918
-0.0363842,0.0067393
-0.0254927,0.00358462
-0.00205504,-0.0104439
0.0241449,-0.0367105
0.0288575,0.029507
0.0246783,0.0449013
0.0102839,-0.0200142
-0.0254196,-0.0250516
-0.0258497,0.0067854
0.00338967,-0.000634972
0.0113296,-0.0114184
-0.00204285,0.0131633
-0.0120901,0.0158003
-0.00954659,0.0105224
-0.00772843,0.00136169
-0.0104892,-0.00557818
-0.0112597,-0.00293903
0.00327185,0.00107136
0.00629511,0.000833079
-0.00140634,0.0064874
-0.0179592,0.00860174
-0.00578628,0.00913964
0.018899,-0.000638913
0.0294004,-0.0104037
0.0338022,-0.00617042
0.0275515,-0.00840558
0.00852298,-0.00834018
-0.00880083,0.0170513
0.00658463,-0.000148561
-0.00786496,-0.0111621
-0.042233,0.0218934
-0.0189719,0.00637028
-0.00966642,0.0115173
0.000965611,0.0142713
0.0148369,0.00342582
0.0201935,-0.00568036
0.00960234,0.000743494
-0.0203214,0.00348769
-0.0254687,0.00283942
-0.0103111,-0.0114797
-0.0155887,-0.015535
0.00024171,-0.00925766
0.00983927,-0.0076565
-0.00417488,0.00680152
-0.00702658,0.0149541
0.00143376,0.00663737
0.0073977,-0.00821598
0.0145848,-0.000622823
0.0217722,-0.00640221
0.0200839,-0.00828463
0.01679,-0.00358062
0.0271125,-0.000522388
0.0165853,0.0122049
-0.0357135,0.0170998
-0.0413152,0.0138818
-0.0128715,0.00420304
-0.00218014,-0.0150447
0.00913289,-0.0160171
0.0165986,-0.0103743
0.0131865,-0.00959399
0.0105941,-0.0056944
0.00286414,0.00265377
-0.00480729,0.00514309
-0.00520963,0.0126283
-0.00164273,0.00541252
0.00430495,-0.0151656
0.00974401,-0.0104479
0.00481661,0.00521276
-0.00388877,0.00783496
-0.012201,0.00186216
-0.00975635,0.000363886
-0.00646831,0.00733443
-0.00368871,0.00271932
0.00655888,-0.00459395
0.0115208,-0.0100142
-0.00111043,-0.028029
-0.0277301,-0.0423346
-0.0638701,-0.0340805
-0.0696227,-0.00740618
-0.0454203,0.0262021
0.00815705,0.0407728
0.0542418,0.0309882
0.0696259,0.0159451
0.100177,0.0177897
0.100062,0.0100481
0.0249165,0.00272814
-0.0491099,-0.00911219
-0.0606413,0.0193654
-0.0469221,0.0104695
-0.0614132,-0.0123234
-0.0578215,-0.0381599
-0.0171038,-0.0456267
0.023569,0.00685186
0.0326207,0.0193855
0.0246006,0.0107339
0.0179028,0.00226584
0.0251481,-0.00311584
0.0233896,-0.00344836
0.0187032,-0.0133975
0.0105075,-0.0198358
-0.00351565,-0.00524893
-0.00585959,0.0104623
-0.00572048,0.0103702
-0.0148328,0.0159275
-0.0151271,0.0167728
-0.00145396,0.00369007
0.0107052,-0.007931
0.0181511,-0.00182651
0.0240374,0.0041153
0.0270971,0.00481054
0.00874511,0.00892431
-0.0226428,0.013839
-0.0325689,0.012586
-0.019433,0.00863922
-0.00963677,-0.00223461
-0.00236216,-0.0182646
-0.00242237,-0.0198855
-0.00472015,-0.0054239
-0.0036949,0.002215
-0.0151387,0.00146706
-0.0194565,0.0091252
-0.00663287,0.0171543
0.00750196,-0.00339268
0.0237645,-0.0136998
0.0335674,-0.0112842
0.0112268,-0.0164722
-0.0272948,-0.032796
-0.0378254,-0.0129576
-0.00764135,-0.00541752
-0.00156485,0.0111875
-0.0346708,0.0231011
-0.0662561,-0.0168361
-0.04825,-0.0158902
-0.000576661,0.0153515
0.0393301,0.0177099
0.0500425,0.0153542
0.0592195,0.0287023
0.0549193,0.0283162
0.0289744,0.0124478
-0.00593554,-0.00599738
-0.0302738,-0.024315
-0.00595139,-0.0116064
0.0185791,-0.00307902
0.00475625,1.13e-05
0.00421788,0.00206865
0.00938294,0.011022
0.00426658,0.016088
0.00848575,0.00632518
0.0178725,-0.010977
0.0065387,-0.00842065
-0.00656742,-0.00947324
-0.0135331,-0.0124805
-0.0156717,-0.0085889
-0.0130924,-0.000785056
-0.00972476,0.00294959
-0.00592491,-0.00537668
-0.00679945,-0.015578
-0.00785932,-0.00854508
-0.0013791,-0.0023423
0.00713212,-0.000505207
0.00790162,0.00635999
0.00226057,0.0121205
-0.00343563,0.00972547
-0.00382703,0.00505253
-0.000340115,-0.00248891
0.00537009,-0.0108987
0.00200489,-0.00957895
-0.0061842,0.000776659
-0.0078187,0.00570254
-0.00710686,0.00795761
-0.00635213,0.0121532
-0.0033514,0.00847942
0.00129631,-0.00318685
0.00527539,-0.0111601
0.00756534,-0.00298268
0.0136059,0.00477171
0.0196691,0.00756935
0.0107848,0.00647282
0.00244731,0.00895128
0.0264089,0.0138387
0.0324343,-0.00168479
0.00593048,-0.0180501
-0.0239789,-0.0254646
-0.0443549,-0.0244064
-0.034142,0.00643565
-0.0143563,0.0027465
-0.0277981,-0.00586676
-0.0323827,-0.00488274
0.00776007,0.00536927
0.0260039,-0.00582251
-0.0144124,-0.00809568
-0.0303714,-0.0130462
-0.0204438,-0.00132575
-0.0413645,0.0383309
-0.0411742,0.051328
0.00961261,-0.022226
0.0520702,-0.00666664
0.0233252,0.00524021
-0.00938603,-0.0159449
-0.00388662,-0.0336893
-0.00230865,-0.0079903
0.00665335,0.0151929
0.0423014,0.00152418
0.0583651,0.00616895
0.0570502,0.0145818
0.0411342,0.0120411
0.0170067,-0.00104198
-0.00183374,-0.0011245
0.00509439,0.0048574
0.01455,0.00418887
0.0156409,-0.00717419
0.00946194,0.0174822
-0.0120588,0.0199278
-0.0296337,0.0105423
-0.0212951,-0.00505342
-0.00926199,-0.0227513
-0.00777504,-0.0192402
-0.0151307,-0.00682986
-0.0200442,-0.00502785
-0.0157294,-0.000849952
-0.00909832,0.00811558
-0.00491335,0.0103322
0.000469688,0.000818751
0.0100743,-0.00578437
0.0119606,0.00084287
0.00999058,0.00438791
0.00677156,0.0086423
-0.00843807,0.00499343
-0.0292088,-0.00695591
-0.0322077,-0.00580068
-0.0131658,-0.00305751
0.0255283,0.00980164
0.0445734,0.00279695
0.0313068,0.000661082
0.0089208,0.00820849
-0.0424145,0.00938804
-0.0553576,-0.00496749
-0.0192436,-0.00718107
0.00162152,0.00944075
-0.00667689,-0.00548838
-0.0581433,-0.0245719
-0.0843444,-0.0147779
-0.039385,-0.00505965
0.0198928,0.00649973
0.0568314,0.00490185
0.0861226,0.00236393
0.0998085,-0.00318835
0.0651822,-0.00853283
0.00411981,-0.0090556
-0.0325116,-0.0136296
-0.017333,-0.00353179
-0.00824515,0.00541378
0.00152564,0.0080938
0.000369106,0.0142194
-0.00865421,0.0115561
-0.0269775,-0.00126794
-0.0285743,-0.0163294
-0.00917084,-0.00639765
0.00727953,-0.00117527
0.0217607,-0.0116421
0.0301684,-0.0108542
0.013206,-0.00592261
-0.00427194,-0.00316532
0.00111969,0.00387494
0.011953,-0.00499023
0.00373742,-0.0223068
-0.00139934,-0.0383592
-0.0136633,-0.00691536
-0.0223263,0.0227063
-0.00640663,0.0215113
-0.00176349,0.021382
-0.0119333,0.0110048
-0.00923112,0.0179113
-0.000210502,0.025541
0.000650173,0.0169836
0.00334806,0.0140442
-0.00160382,0.0171741
-0.00261131,0.0225029
-0.00290828,0.0186298
0.000612667,0.0159886
-0.000362757,0.0108379
-0.00536697,-0.00311315
-0.0052238,-0.015843
-0.00880776,-0.0149989
-0.0106689,-0.00653571
-0.00725565,-0.00790346
-0.00208049,-0.00770082
0.00259302,-0.00224279
0.0172776,-0.00229428
0.024316,-0.0103933
0.0251827,-0.0133635
0.00456926,-0.00830149
-0.0199435,-0.00294319
-0.0293662,0.0146756
-0.0234527,0.0190448
-0.0235025,0.00688388
-0.0184798,-0.00818545
-0.00369457,-0.0113494
0.0379743,-0.0101946
0.0597598,-0.0181245
0.0514244,-0.0105521
0.0365549,-0.00722658
0.0120249,-0.0137379
-0.0351611,0.00829092
-0.0534139,0.0195171
-0.0407001,0.00205665
-0.0161106,-0.0133981
-0.00783167,-0.0108433
0.0107961,-0.00331594
0.0280122,-0.0010493
0.0420428,0.00261138
0.0367534,0.013473
0.0173364,0.0216021
-0.00626688,0.0177731
-0.0185474,-0.00284259
-0.0265387,-0.0282007
-0.036319,-0.0247694
-0.021549,-0.000413223
-0.0153506,-0.0102377
-0.0465129,-0.0479345
-0.0399623,-0.0326277
0.00186569,0.00800179
0.0446769,0.0211463
0.0349487,0.000183242
0.00139073,0.00657519
0.00501837,0.00821202
0.0355766,0.00840018
0.0366943,0.0202501
0.0127896,0.0288321
0.00978031,0.0265642
-0.00664136,0.0199935
-0.0120205,0.00342212
0.00735414,-0.0071879
0.00371553,-0.0013634
0.0156208,0.00791404
0.036543,0.00218
0.0100719,-0.00316314
-0.0341089,-0.0077069
-0.0367314,-0.00507288
-0.0199279,-0.0390461
-0.0153118,-0.050575
-0.00568321,0.0248291
-0.0102834,0.0307723
-0.011333,0.0131068
-0.0210697,0.00810427
-0.0182727,0.00794988
0.00864176,0.00380616
0.0296094,-0.0047317
0.0244201,-0.017759
0.0137694,-0.0182909
0.00743523,-0.0104601
0.0128017,0.00155488
0.0361347,-0.00430876
0.0481803,-0.000750689
0.0152836,0.0153194
-0.00468339,0.0152176
-0.0126093,0.00480579
-0.0301197,0.00349155
-0.0243208,-0.0020514
-0.0191931,-0.0163596
-0.00429468,0.018794
-0.000933827,0.021366
-0.00617539,0.00400787
-0.0063003,-0.000561606
-0.0074129,-0.00112755
-0.0135626,-0.00806037
-0.0170554,-0.0127525
-0.0180047,-0.0019782
-0.005629,0.0029908
0.0158747,-0.000200998
0.0164185,0.0035687
-0.0219411,0.00145385
-0.0702236,-0.00623179
-0.0594548,-0.0028682
-0.0179175,-7.17e-05
0.0247564,-0.00381048
0.0371148,-0.00806431
0.0395836,0.00540129
0.0218318,0.00742469
0.00598353,0.00480538
0.00966416,0.0056356
0.00572281,-0.0202215
0.00868549,-0.0300647
0.0169786,-0.0139627
0.0125893,0.00727903
0.0104201,0.0210143
0.00664412,0.000924582
-0.00469907,0.00233114
-0.0113038,0.0069774
0.00160166,-0.0359717
0.0148347,-0.0117171
0.018726,0.012255
0.014506,0.0134679
-0.0047961,0.0161487
-0.0143432,0.00978237
-0.00981431,-0.000420983
-0.00685878,0.000966662
-0.00350493,0.011875
0.00568393,0.00181977
0.0169076,-0.0204734
0.0133899,-0.0042573
0.00444628,0.00745366
-0.00285887,-0.0038831
-0.0163261,0.0109937
-0.017978,0.0194399
0.0093081,0.00638737
0.00631091,-0.00598161
-0.00255291,-0.00421766
0.00422587,0.0022956
0.00324617,-0.00357796
-0.0126212,-0.000746524
-0.0168528,0.00334979
-0.0181019,-9.36e-05
-0.0270101,-0.00405677
-0.0399526,-0.0103152
-0.0219762,-0.0203883
0.00588937,-0.0125889
0.0266567,-0.000777826
0.0457401,0.00152892
0.0323409,0.00325473
-0.0123523,0.0149386
-0.0237387,0.0107627
-0.026314,-0.004114
-0.0369852,-0.00917312
-0.014148,0.00688431
0.0472473,0.017085
0.0536609,0.022214
0.0298345,0.0100335
0.0334572,0.00930875
0.0136396,0.000154928
-0.0170177,-0.0125185
-0.029967,-0.019288
-0.0441946,-0.0158071
-0.0641878,-0.00863326
-0.0443524,-0.000942668
0.01603,0.00525799
0.0530349,-0.00496721
0.0423583,0.00694561
0.00902243,0.024903
0.00498253,0.00366604
-0.0105162,-0.00378835
-0.0429425,-0.00624841
-0.0353943,-0.0144744
0.0175894,-0.0111769
0.0727888,-0.00226752
0.0646684,0.00125537
-0.0318106,0.00440363
-0.0877401,0.0070874
-0.0410856,-0.00219842
0.0280408,-0.012015
0.0699535,-0.00565159
0.0703291,0.00327371
0.0421144,0.00468899
0.0119575,0.0133183
-0.00968226,0.0153128
-0.0153856,0.00230163
-0.0394862,-0.0218573
-0.0479435,-0.0248391
-0.0379827,-0.0151637
-0.0521807,-0.0187941
-0.0427179,-0.00413232
-0.00371024,-0.00590761
0.0272185,0.016376
0.0471484,0.0252044
0.0496768,0.00710477
0.0363646,-0.00766641
0.0135531,-0.00871923
-0.00919919,0.0123271
0.00274621,0.0237668
0.0219417,0.01537
0.0257413,0.0201796
0.0240365,0.0256727
-0.0127673,-0.0134711
-0.0624119,-0.0234889
-0.0720511,0.000932874
-0.0479079,-0.00143673
-0.013232,-0.00727721
0.0124718,-0.00217195
0.0409956,-0.00231695
0.0498557,-0.0174693
0.0159805,-0.0124324
-0.0169432,-0.0147648
-0.0228174,-0.0114545
-0.0122406,0.00243498
-0.00214583,0.0156659
-0.0112321,0.00495629
-0.0053864,0.00774123
0.00644702,0.0150163
0.00132575,0.0106086
0.0058995,-0.00231401
0.0393288,-0.00647076
0.0684457,0.00996777
0.065082,0.0116676
0.0311415,-0.0058877
-0.00691109,-0.00621164
-0.0591936,-0.00675475
-0.0847156,-0.0195644
-0.0385227,-0.0237352
-0.0277413,0.00241091
-0.0281335,0.00877262
-0.0213275,0.00303607
-0.010369,0.0089184
-0.00621868,0.00695833
-0.00556875,0.00471039
0.00839099,0.0107697
0.0139084,0.00691238
0.00918641,-0.0100549
0.00734116,-0.0126577
0.0218194,0.0074815
0.0244967,0.00775078
0.0173503,-0.0014045
0.00246182,0.00468394
-0.00261355,0.0113442
-0.00347199,-0.0141928
-0.00262644,-0.02437
0.00363591,0.00600975
-0.0153592,-0.00436255
-0.0189214,0.00281287
-0.00630268,0.00377065
0.00104004,0.00154563
0.0185577,0.0108282
0.0460829,0.0173525
0.052401,-0.0126294
0.0246668,-0.021594
0.00470413,0.0120129
-0.00779419,0.00779577
-0.0430693,0.00737065
-0.0442945,0.00854761
-0.0225424,0.00512412
-0.00441587,-0.0034949
0.00777076,-0.0110205
0.00923343,-0.0133453
0.000314979,-0.018187
-0.0085325,-0.0108201
-0.00971456,0.00339981
-0.002399,0.00722164
-0.00113078,0.011928
-0.0194544,0.0196038
-0.0223623,0.0154372
-0.00503379,-0.00749974
-0.00271274,-0.0178742
0.0121927,-0.00176801
0.0378864,-0.0104125
0.0420556,-0.00759165
0.0354883,0.0202498
0.0242576,0.012746
0.0205358,0.00300657
0.0126532,-0.0117283
-0.00866371,-0.0205755
-0.029502,-0.00921679
-0.0334311,-0.00396956
-0.0307305,0.00363077
-0.0280328,-0.00184222
-0.0312793,-0.00945326
-0.0275995,0.00185089
0.0148702,0.00887959
0.0525179,-0.000634453
0.0585763,-0.0170318
0.0322954,-0.00524677
0.00882595,-0.0171721
-0.0159004,0.0065856
-0.0902287,0.0252345
-0.137126,0.0199054
-0.0675742,0.0148115
0.0222043,0.00144256
0.0809721,-0.00396447
0.113729,0.00952065
0.0738093,0.00180137
0.00644603,0.0081398
0.00998596,0.00255389
0.0132317,-0.0072314
0.00324926,-0.00291052
-0.00136702,-0.0276434
0.00168475,-0.0160164
0.00644304,0.0147047
-0.0152379,0.00180248
-0.0526202,-0.0100796
-0.0377764,0.00352993
0.00912537,0.00903591
0.0427914,0.00894118
0.0375421,0.00871874
0.00308965,-0.00490567
-0.0353635,-0.0118009
-0.0756796,-0.0041417
-0.0878384,0.00381113
-0.0503608,-0.00115518
0.009245,0.012237
0.0406169,0.010192
0.0481125,0.00367487
0.0474625,0.0077554
0.0371761,0.00038236
0.0207934,-0.00382963
0.0042975,-0.0107022
-0.0177506,-0.016692
-0.0272739,-0.016861
-0.0225323,0.00819645
-0.0120292,0.0207652
-0.0140524,0.00925276
0.000944192,-0.00814672
0.0296301,-0.00831673
0.029888,0.00435505
0.0333251,0.00863767
0.0197849,-0.00943273
-0.0429378,-0.00340641
-0.0674119,0.00943067
-0.0369525,0.00702633
-0.00633214,-0.00740017
0.020965,-0.0144433
0.0364911,0.00235389
0.0313459,-0.00215239
0.0182067,0.000143218
0.0139331,0.00433986
0.014703,0.0015072
0.00728695,0.000347822
-0.00574473,-0.000359803
-0.00765419,-0.00691156
-0.00823709,-0.0086383
-0.011107,0.00283091
-0.0135301,0.013184
-0.0108052,0.00113889
-0.00566653,-0.00144023
0.00168321,0.0223297
0.00171943,0.00777373
0.0087186,-0.0115778
0.001439,-0.0101067
-0.0167118,-0.00380999
-0.0124628,-0.000227211
-0.00450717,0.00269865
0.00126158,0.00505184
0.00242807,-0.00417199
-0.0121448,0.000422967
-0.0188673,0.00223757
-0.00886767,-0.006205
-0.00509783,-0.0160354
-0.00175838,-0.0060011
0.00286338,0.0012863
0.00591302,0.0125625
-0.00556221,0.0125113
-0.00202954,0.00385541
0.0323486,-0.0188832
0.0474856,-0.0121774
0.0282194,0.0109096
0.00820954,0.00638708
0.00800466,0.00787031
0.00907551,0.0144825
0.00949143,0.00385589
0.00212484,-0.0161109
-0.0206779,-0.0225843
-0.0288524,-0.0181885
-0.00379274,-0.0100623
-0.00354947,-0.00410969
0.0014734,0.00691878
0.012341,0.016496
-0.00835459,0.0156921
-0.0331493,0.0127468
-0.0190554,0.0136856
-0.00705011,-0.00449184
-0.00928503,-0.017537
0.000440654,0.000324632
0.00632212,-0.0181552
0.00220225,0.000132366
-0.00768746,0.0136241
0.00566545,-0.00361853
0.0369218,0.00200145
0.032668,0.0261066
0.0142674,0.0151143
-0.00565028,-0.00180231
-0.0507083,-0.0135316
-0.0508577,-0.00792539
-0.0103148,0.000249958
0.0200637,0.00537561
0.00924829,0.0057701
-0.00394122,-0.0128273
-0.00501347,-0.0223212
-0.000283237,-0.0117521
0.00585439,-0.000968514
0.00983512,0.000639496
0.00754326,0.0054419
0.00355415,0.00874881
0.00238655,0.00589846
0.00263883,0.00300403
0.00746398,-0.00234246
0.0111903,-0.00867624
0.00883037,-0.00332083
0.00829386,0.0116474
0.00676308,0.0100229
0.00454751,0.00321198
0.00570449,0.00961519
0.00419433,0.0104072
0.00310337,0.000769237
0.00690825,-0.0109843
0.00167684,-0.00631963
-0.00678528,-0.0050836
-0.00629477,-0.00532857
-0.00190504,-0.00349005
-0.00466684,-0.00246246
-0.00286617,-0.00613898
-0.00683514,-0.00711816
-0.0228109,-0.0110804
-0.0421395,-0.00994983
-0.024786,0.00257984
0.0197118,0.0163819
0.0477336,0.0156887
0.0501221,0.00751982
0.00807499,0.0136785
-0.0260516,0.0142317
-0.0170784,0.00184662
-0.00252996,-0.00868523
7.23e-05,-0.0182202
-0.00359114,-0.0149176
-0.00395605,-0.00166097
-0.00250124,0.00982068
-0.00973535,0.00931036
-0.0142392,0.00723243
-0.0118145,0.00940083
-0.00155785,-0.00183069
0.00229922,-0.00627823
-0.00269284,0.00362708
-0.00838711,0.00854621
-0.00657223,0.00737869
-0.00478456,0.0112024
0.0007704,0.010976
0.0039068,-0.00169531
0.00692657,-0.0134934
0.00520453,-0.0119096
0.00235957,-0.00782108
0.00405028,-0.0027153
0.00393004,0.0011576
0.00555067,-0.00559784
0.00472471,-0.0196731
0.00428057,-0.00967667
0.00847334,-0.00305561
0.00326639,-0.0144514
-0.00409879,-0.0130454
-0.00812427,0.00096707
-0.0190782,0.00273457
-0.0170947,0.00652529
0.000756563,0.0137758
0.0191645,0.0151011
0.0214832,0.00340424
0.0167292,-0.00786404
0.015662,-0.00430289
-0.000149122,-0.00244819
-0.00301694,-0.00111436
0.00272185,0.00582574
0.000528704,0.0100392
-0.0015585,0.00740539
-0.00122142,0.00356777
0.00270198,-0.00868855
0.00954239,-0.0147127
0.00772111,-0.00483344
-0.00281393,0.00242113
-0.00802288,0.00437731
-0.00679182,0.00323181
0.00860987,0.0103341
0.0154429,0.00602374
0.0064132,-0.00382005
0.00843392,-0.0105815
0.00447909,-0.00394143
-0.0203582,0.00590742
-0.0199638,-0.0319134
0.00401237,-0.011165
-0.0468786,0.0234972
-0.116977,0.0217618
-0.109922,-0.0109995
-0.00156824,-0.00491827
0.0850556,-0.0124486
0.0956606,0.0109019
0.0686292,0.0227497
0.0314592,0.0109007
0.00234859,0.00637615
-0.0151575,0.00729609
0.00783425,-0.0110589
0.010125,-0.0234398
-0.00412318,-0.0163357
0.000666272,-0.0128201
0.00823708,-0.000278936
0.00892815,0.0111726
0.00109533,0.0063003
-0.000479402,-0.00142837
0.00399326,-0.00704372
0.00719172,-0.0187842
0.00882757,-0.006538
0.00125529,0.0080425
-0.00966091,0.0160377
-0.0162677,0.0146394
-0.0172773,0.0144634
-0.018914,0.0187125
-0.0216568,0.0165001
-0.0151947,0.00307013
0.000238969,-0.0105706
0.00946248,-0.00674491
0.0170985,-0.0137163
0.00635624,0.0022193
-0.00584119,0.011626
-0.00209503,0.0157118
-0.00722724,0.0194934
-0.00192422,0.00646834
-0.000969847,-0.00714452
-0.00864633,-0.00312945
-0.0224925,0.000989027
-0.0275808,-0.00434072
-0.0145751,-0.0179709
0.0037275,-0.0303063
0.00802036,-0.0206302
0.00828232,-0.0179584
0.00780743,-0.0205784
0.00819343,-0.0117488
0.0149772,-0.00269966
0.013945,0.00296979
0.00110837,0.0110648
-0.00745285,0.0203138
-0.01607,0.0223694
-0.014491,0.024222
0.00602579,0.0109698
0.0253883,0.00170243
0.0198563,0.0079978
-0.000302089,0.0074127
-0.000804319,0.0017815
0.000118005,0.00207545
-0.00279872,0.00199031
-0.00352034,-0.0108283
-0.000865256,-0.0307894
0.00461772,-0.0241152
0.0120326,-0.0116478
0.0178824,-0.00491356
0.0130486,0.00215095
0.00255097,0.0141141
-0.000653053,0.0135255
-0.000696078,0.0131086
-0.00192291,0.0198611
-0.00324233,0.00415601
-0.00389231,-0.00679252
-0.00624013,0.00248668
-0.0119255,0.00178431
-0.0147661,-0.0090851
-0.0132595,-0.00726163
-0.0151123,-0.00285111
-0.0175189,-0.0212352
-0.00873477,-0.0297905
0.00843822,-0.0148238
0.0299914,0.00353626
0.0438639,0.0220326
0.0366089,0.0186573
0.0224407,0.0240594
0.00152577,0.0178667
-0.0226257,0.000909332
-0.0414836,0.0198114
-0.0414822,0.0100848
-0.0155731,-0.00818389
-0.00216905,-0.00981657
0.0088181,-0.00198328
0.00292859,0.00743545
-0.0026307,-0.00107697
-0.00351201,-0.00509018
-0.00407417,-0.0233778
0.00741786,-0.0444068
0.0156615,-0.0105938
0.0163665,-0.00544791
-0.000925713,-0.00405983
-0.0183548,0.0118109
-0.013913,0.0201577
-0.00538761,0.0201643
9.06e-05,0.0122613
0.00849198,-0.00143901
0.0148581,-0.00685859
0.0125114,0.00335494
0.0106295,0.00823916
0.00260318,-0.00182692
-0.00783743,-0.000757245
-0.0120107,0.00399646
-0.0119577,-0.00841873
-0.00258883,-0.0153498
0.000638482,-0.0185048
0.000324178,-0.0116657
0.00819157,-0.00139159
0.00449494,0.00860988
-0.0022043,0.0128816
-0.0117495,0.0147586
-0.0117554,0.0164229
0.000631559,0.00850391
0.0161537,-0.00723442
0.0151593,-0.00984434
0.0131703,0.00392703
0.00380471,0.000508156
-0.0121322,-0.0060279
-0.0146337,0.00346632
-0.00787171,0.00596627
0.000130341,-0.00846726
0.00738957,-0.0249825
0.00990367,-0.01772
0.00888716,-0.0125869
0.010484,-0.00496696
0.00784825,0.00873729
0.000642029,0.0176285
-0.000713903,0.0182922
-0.00190552,0.0155741
0.00143792,0.00258533
0.00647732,-0.00848038
0.00093323,-0.00461136
-0.0080302,0.000950031
-0.011067,-0.000243227
-0.0110635,-0.00315203
-0.0101467,-0.00123656
-0.00789383,-0.000552156
-0.00257029,-0.0063116
0.000781267,-0.0119562
0.00229627,-0.0106371
0.00534136,0.0019087
0.00562911,0.00975584
0.00273377,0.0160821
-0.00266082,0.016941
-0.00211875,0.0138724
-0.00130849,0.0140479
0.000169192,-0.000600224
-0.0017721,-0.00796424
-0.00612371,-0.00222542
-0.00295586,0.00406032
-0.00417183,-0.00374153
-0.00639934,-0.00461686
-0.00426434,0.00568683
0.00230225,-0.00273681
0.0116051,-0.015158
0.0142075,-0.0138851
0.0110571,-0.00906291
0.00719419,-0.0091838
0.0231444,-0.00202035
0.0367884,0.00482153
0.0249911,0.00722071
0.0066866,0.00791948
-0.0111113,-0.000346889
-0.0233793,-0.0134438
-0.029426,-0.013028
-0.0289959,0.000242204
-0.0206906,0.00423288
-0.0117005,0.00481591
-0.0089713,0.00708061
-0.00877239,0.00788128
-0.00643933,-0.000861852
-0.00380655,-0.00807602
-0.00533428,0.00191812
-0.0031382,0.00362668
0.000185975,0.000163563
-0.000918051,0.011009
-0.00385242,0.0149116
-0.00324624,0.0104793
-0.000578881,0.00891945
0.00654703,-0.00224441
0.0105385,-0.0109433
0.00729203,-0.00890344
0.00522165,-0.00195624
0.00715299,0.00136587
0.0078341,0.00133109
0.00529764,0.00846412
0.00280149,0.00571953
0.00222725,-0.00502812
0.00301686,-0.0101593
0.00213415,-0.00474455
0.00128285,-0.00130707
0.00190832,0.00401467
-0.000489278,0.0114046
-0.00187716,0.0135506
0.00017414,0.00481528
0.00292942,-0.0051994
0.00738506,-0.00928335
0.0095067,-0.00886407
0.00814089,-0.00481493
0.00529792,-0.00538706
0.00338219,-0.00420156
0.00134321,0.000281363
-0.00319314,0.00258692
-0.00517798,-0.00158122
-0.00460488,-0.0143664
-0.0040672,-0.0146997
-0.0046197,-0.00733966
-0.00516115,-0.00384807
-0.009335,0.00329947
-0.010693,0.0100268
-0.00984696,0.0104131
-0.00839457,0.00848581
-0.00309678,0.00195321
0.00442768,-0.00967185
0.00815474,-0.0102651
0.00438401,0.00219966
0.0033646,0.00355955
0.00447003,0.00133918
0.00265781,0.00320696
0.00116193,0.00894418
0.00280826,0.00188141
0.00561559,-0.00739334
0.00428574,-0.00384252
0.00388995,-0.00326305
0.00647992,-0.000251358
0.00160366,0.00724504
-0.00366353,0.0123841
-0.00561352,0.0110948
-0.00522986,0.00682094
-0.00104432,-0.00390813
0.00378673,-0.0140424
0.00257522,-0.00968642
-0.00191064,-0.00115868
-0.00519175,0.000992141
-0.00707326,0.00335075
-0.0108564,0.0060453
-0.0122699,0.00319616
-0.00920742,-0.00784095
-0.00613524,-0.0143833
-0.00494616,-0.00642523
-0.00311521,-0.00332409
-0.00164149,0.000501152
0.000563957,0.00859544
0.000940333,0.00742564
0.0132844,0.00575408
0.0197951,0.00748645
0.0174874,-0.00259821
0.0167574,-0.0100488
0.0305358,-0.000466464
0.0601073,0.00918617
0.056753,0.0104204
0.0224,0.0016444
-0.0124887,0.00132737
-0.0422323,-0.00148281
-0.0614741,-0.00105078
-0.062744,-0.00249485
-0.0495735,-0.0180885
-0.0295015,-0.0078062
-0.0169403,-0.000949644
-0.00209829,0.0116703
0.0812465,0.0156536
0.122488,0.00939434
0.0885678,-0.00188359
0.0307481,-0.017817
-0.0306979,-0.0218027
-0.0770356,-0.00989084
-0.103633,-0.00033528
-0.104418,0.0077774
-0.0975529,0.0158772
-0.0865506,0.0180541
-0.0546294,0.00451923
-0.00985167,-0.0071091
0.0278552,-0.00268603
0.0424837,0.00177436
0.0608958,0.00321663
0.0656615,0.0100118
0.04086,0.012965
0.029606,0.00783176
0.116768,0.00564172
0.205213,-0.00468785
0.175487,-0.0146961
0.0295814,-0.00973252
-0.0890113,-0.00056005
-0.0928712,0.00396266
-0.0579292,0.00207185
-0.0765687,-0.0034289
-0.0623773,-0.00959283
-0.0223949,-0.0159838
-0.0302271,-0.0181665
-0.0457343,-0.00412674
-0.0657119,0.00091507
-0.0754222,0.00706534
-0.0744407,0.0116931
-0.0815552,0.0109895
-0.0764449,0.00582274
-0.0392567,0.00533077
0.00942109,-0.00569145
0.117339,-0.0129666
0.243273,-0.00652082
0.277503,0.00509734
0.17224,0.0151561
0.0241629,0.021899
-0.0899417,0.0211475
-0.142129,0.00643198
-0.101345,-0.0162552
-0.0889189,-0.0259334
-0.0664157,-0.0208736
-0.0274908,-0.0109167
-0.016514,-0.00200439
-0.0172903,0.00793403
-0.0236131,0.00954312
-0.0340331,0.00717973
-0.0311537,0.00462516
-0.0178201,-0.00290255
-0.0060205,-0.00490245
-0.00190662,0.000408435
0.0130382,-0.00154416
0.0373263,-0.00921633
0.0567875,-0.00237825
0.067505,0.00953896
0.0607206,0.00517455
0.0575899,-0.00981644
0.0917825,-0.0109498
0.0914141,-0.00589104
0.0670364,0.00454578
0.0245972,0.000736909
-0.022339,0.00454176
-0.0558138,0.0197276
-0.0975498,0.0133
-0.109017,-0.000275163
-0.0710612,-0.0129369
-0.00649561,-0.0132036
0.0454643,-0.00277388
0.0628713,0.00310868
0.0384134,0.00591971
0.00591433,0.00560924
-0.0261282,0.00714585
-0.0671558,-0.00434547
-0.0784378,-0.017925
-0.0392682,-0.00785805
-0.00908651,-0.000854215
0.00545039,0.00441553
0.0284418,0.00820326
0.0668117,0.00684618
0.0731392,-0.00163726
0.0499893,-0.00337136
0.00797498,-0.00823115
-0.0378859,-0.0131691
-0.0638892,-0.00474147
-0.0774349,0.00350856
-0.0629994,0.00153552
-0.0320858,0.00336518
0.0118202,0.0106196
0.0410698,0.00807207
0.0384046,-0.0047291
0.0153914,-0.00996002
-0.00783756,-0.00780756
-0.0116348,-0.00902576
-0.0107463,-0.0047645
-0.00897735,0.00436912
-0.0149988,0.00423665
-0.0182869,0.00189817
-0.0114819,-0.00235417
0.00434648,-0.0115176
0.0242062,-0.0111593
0.0356131,0.00859775
0.0401653,0.0253073
0.0412785,0.0281668
0.040889,0.0251594
0.041864,0.0272642
0.0341902,0.0164389
0.0227363,-0.0127979
0.0084383,-0.024962
-8.44e-05,-0.00394988
-0.0147378,0.00065498
-0.0279442,-8.81e-05
-0.0391075,0.00242697
-0.045451,-0.000254155
-0.0489889,-0.00133059
-0.0438021,-0.0129709
-0.0281127,-0.0303248
-0.0122669,-0.0170982
0.01602,-0.00107196
0.0581357,0.00445922
0.0630618,0.0098458
0.0457908,0.0224879
0.0189461,0.0231205
