Comp Ch 3,Comp Ch 4
-0.0280645,-0.0181021
-0.049231,0.00320854
-0.0405512,0.0200395
-0.00764055,0.0221783
0.0235841,0.0358075
0.0407571,0.0415988
0.0356659,0.0327334
-0.00637558,0.0168986
-0.0491935,0.0088215
-0.0860889,-0.00947802
-0.148786,-0.00927354
-0.202233,0.0112576
-0.159999,0.0159552
-0.0301474,0.00194002
0.0645266,-0.00924795
0.086967,-0.0206024
0.0745008,-0.0297946
0.0835597,-0.0222831
0.127052,-0.00131131
0.141101,0.0111312
0.107485,0.0144539
0.0772224,0.0169699
0.0509186,0.0208291
0.012682,0.00451183
-0.00952932,-0.0120044
-0.0241551,-0.00178211
-0.0339737,-0.0103342
-0.0389316,-0.00506212
-0.0421648,0.0135755
-0.0527018,0.0203348
-0.035074,0.00773217
-0.00470617,-0.00159823
0.0157498,-0.0147536
0.0151326,-0.0228694
0.00107999,-0.0230768
-0.00847527,-0.0177773
-0.011004,-0.0103727
-0.010671,0.0063334
0.00358341,0.0197492
0.0243881,0.0176936
0.00887669,0.00167473
-0.00859342,-0.000622124
-0.0409999,0.0133804
-0.0966273,0.00138938
-0.0938636,-0.000728697
-0.0246994,0.0357267
0.0341259,0.0393669
0.0588646,-0.006252
0.0621242,-0.00729208
0.0366951,-0.0100562
0.00705629,-0.0258633
-0.00715546,-0.0195697
-0.00438654,-0.01571
0.0044205,-0.0184864
-0.011537,0.00127156
-0.0727433,0.0153044
-0.0786274,0.00544947
-0.0363655,-0.0117559
0.0094503,-0.0142928
0.0360518,-0.000701007
0.0529081,0.00258328
0.0516177,-0.0151435
0.0444562,-0.00378463
0.0208731,0.011824
0.0193114,0.0304256
0.0243686,0.0204518
0.0268269,-0.0116808
0.031626,-0.0259233
0.024716,-0.0139054
0.00630158,-0.00130822
-0.0220444,0.010235
-0.030116,0.0134722
-0.023242,0.0156179
-0.00591922,0.00916216
-0.0076041,0.000118827
-0.0273256,-0.00147803
-0.0487478,0.00363889
-0.065915,0.00855727
-0.0616005,0.01292
-0.0538711,0.014426
-0.0370064,0.00553665
-0.00776098,-0.000129869
0.0336175,-0.0179923
0.0556823,-0.0425374
0.0368126,-0.0281851
0.0267207,-0.0146492
0.0399159,-0.00754841
0.0504038,-0.00747332
0.0496776,-0.00147647
0.0401188,0.013531
0.0411496,0.00399959
0.0456433,-0.00144094
0.0310748,0.0156788
0.0115223,0.0127335
-0.014673,0.00421511
-0.0421283,0.0141533
-0.0578966,0.0279888
-0.0594661,-0.00513682
-0.04049,-0.00109325
-0.0212057,0.00488071
-0.0163268,-0.0125203
-0.0224356,-0.00763365
-0.0243155,-0.00290363
-0.0210074,-0.00384946
-0.00752068,0.0061009
0.00667173,0.0145097
0.0129118,0.0045379
0.0146552,-0.0194598
0.0143907,-0.019436
0.0158795,-0.00275963
0.0198662,0.00396246
0.0201293,0.0118687
0.0065013,0.00924129
-0.0077865,0.0065164
-0.0171107,0.00101032
-0.0108084,-0.00833707
-0.00268922,-0.0347427
-0.00473311,-0.0354674
-0.0107347,-0.0130208
-0.010831,0.00493985
-0.00559816,0.0194786
-0.00086428,0.0207644
-0.0033146,0.0176682
-0.00566577,0.00217715
0.00180848,-0.00856671
0.0207411,0.00886512
0.0228981,0.00223687
0.0127632,-0.0107772
0.01394,0.0215542
0.00816431,0.0329955
0.00298906,0.0193216
0.00393964,0.00335049
0.00269749,-0.0129048
-0.00749807,-0.0270488
-0.0171218,-0.0229971
-0.0185385,-0.00843254
-0.0133034,-0.00589342
-0.00754126,-0.000216883
0.00487563,0.0118133
0.015742,0.0121474
0.0357863,-0.00522514
0.0515717,-0.0140106
0.0439285,-0.00282725
0.0249941,0.00243288
0.0047926,0.0073395
-0.0043962,0.0111198
-0.00811761,0.0107479
-0.0218983,0.00470559
-0.0268937,-0.000926784
-0.0302575,-0.0172976
-0.0284697,-0.0266168
-0.0334353,-0.0151626
-0.0267687,-0.00119528
-0.0134002,0.00362081
-0.00544972,0.0123632
0.00504082,0.0166069
0.0178989,0.0104883
0.0159142,-0.0078389
0.00833542,-0.00980947
0.002427,0.000666269
0.00561845,0.00811404
-0.0060892,0.0144666
-0.0265603,0.0151205
-0.0176568,0.0132231
0.00264576,0.00819732
0.0224234,-0.00100069
0.0346746,-0.0196506
0.0280159,-0.0233324
-0.00305858,-0.00839889
-0.0474181,-0.00614859
-0.0241287,-0.0017365
0.0207295,0.00710091
0.0452027,0.0122002
0.0520054,0.00721711
0.0478297,-0.012793
0.0183091,-0.0131839
-0.0276279,-0.00840505
-0.136605,-0.00686139
-0.19554,0.00443959
-0.136662,0.0198023
-0.012796,0.0134126
0.0844937,0.00361845
0.126824,-0.00470664
0.12065,-0.0244108
0.0441395,-0.0201477
-0.0157892,-0.00736883
-0.0311729,0.00143277
-0.0219603,0.0194438
0.0102799,0.025202
0.041972,0.014887
0.0707394,-0.0022166
0.0563469,-0.0156772
0.0180036,-0.0207283
-0.00298136,-0.0169892
-0.00978414,0.0117141
-0.0238527,0.0168038
-0.0291415,0.00741065
-0.0334137,0.00449845
-0.0246129,0.00943183
-0.0162079,-0.00338874
0.0221267,-0.0149632
0.0431027,-0.00202168
0.0296486,0.0114377
-0.000907501,0.0133863
-0.0116009,0.0175258
-0.00871874,0.0187585
-0.00473569,0.00516307
-0.000676421,-0.0139621
-0.00245289,-0.0162674
0.00279813,-0.0116606
0.00639525,-0.0161442
-0.000745155,-0.00122153
-0.0121527,0.00076973
-0.0216807,0.00226297
-0.0249024,0.00958692
-0.0210603,-0.00256007
-0.0107234,-0.0206449
-0.00785249,-0.019931
-0.00944263,0.00368511
-0.0232685,0.011405
-0.026917,0.00804111
-0.00496126,0.0190794
0.0139653,0.0226953
0.0200539,0.00322472
0.0188051,-0.0237701
0.01285,-0.0224008
0.0130145,-0.0142131
0.0241665,-0.00886846
0.0336339,0.00249666
0.0315842,0.00663699
0.0158609,0.0116192
-0.00394499,0.0258565
-0.0232802,0.00389807
-0.0338652,-0.0240026
-0.0356708,-0.0167295
-0.0341371,-0.0013368
-0.0353188,0.00382048
-0.0276106,0.0140151
-0.00363082,0.0209119
0.00874669,0.0126473
0.00426899,-0.0104758
0.00613907,-0.0247227
0.00779304,-0.015551
0.0108814,-0.0126627
0.0172911,-0.00218544
0.0240798,0.0143318
0.012443,0.0166321
-0.00331977,0.00772602
-0.005892,0.0040371
4.42e-05,-0.00925357
0.00263821,-0.0148427
-0.000840767,0.00128878
0.000533745,0.0123923
0.00505711,0.00882158
0.00448261,0.0114668
0.00561441,0.020315
0.00469938,0.0125485
0.00293866,-0.0143184
0.00809017,-0.025686
0.0248969,-0.0117019
0.0347316,-0.00546618
0.0216267,0.00432429
0.00146595,0.012509
-0.00679977,0.0111539
0.0158175,0.00461585
0.0227096,-0.00224603
0.0134362,-0.0305962
-0.00513826,-0.0371073
-0.0448494,-0.00724282
-0.0564639,0.0145969
-0.0296474,0.0193913
-0.0191106,0.0145541
-0.00910759,0.0236713
-0.0150759,0.0100596
-0.0214349,-0.0135534
-0.0120313,-0.0104795
-0.0101669,-0.00329258
-0.0120611,-0.00098028
-0.00967536,0.00919787
-0.00261735,0.0120977
0.00262495,0.00164834
0.00863368,-0.00539804
0.0137385,-0.00893233
0.0175435,-0.0178125
0.0215066,-0.0110736
0.0352474,0.0082144
0.0350443,0.0129992
0.0232127,0.011477
0.0142998,0.01512
0.00251155,0.0170294
-0.0186467,-0.00166613
-0.0439373,-0.0195083
-0.07075,-0.0221118
-0.0424309,-0.0178006
0.000126283,-0.0061552
0.0245004,0.00523892
0.0313638,0.00993293
0.037405,0.00475286
0.0291927,-0.000309063
0.0125531,-0.0155076
0.00305789,-0.0227617
0.00511447,-0.00606566
0.0156512,0.00739686
0.00740606,0.0084896
0.000290128,0.0186779
-0.00679191,0.027166
-0.0171081,0.0141431
-0.0332891,-0.00810956
-0.0423708,-0.0136612
-0.0430731,-0.0100635
-0.0433676,-0.000335995
-0.0245261,0.00480985
0.00184451,0.0024477
0.0464007,0.0164706
0.0704019,0.00777623
0.0600765,-0.00225832
0.0287147,-0.0137483
-0.00729426,-0.0233173
-0.0159688,-0.01393
-0.00303944,0.00751918
0.00920392,0.0191996
0.0168447,0.0279704
0.0286762,0.0289358
0.0368244,0.00727281
0.0309593,-0.0161715
0.00209069,-0.0159868
-0.0488798,-0.0128721
-0.0699729,-0.0109461
-0.0616638,2.9e-05
-0.0275954,0.00725072
0.00229092,0.00125082
0.0237861,-0.00161336
0.0443676,-0.0108663
0.02352,-0.0281614
-0.0041773,-0.0276779
-0.0197161,-0.00676078
-0.0182914,-0.000329877
-0.00210257,-0.00182864
0.00740543,0.00611505
0.00931263,0.0160139
0.00781805,0.0100764
0.000353855,-0.0014352
-0.00689993,0.00336786
0.0155355,0.00842025
0.039024,0.0139865
0.0417323,0.0126036
0.0291855,0.0154187
-0.00481053,0.00435725
-0.0420848,-0.00230087
-0.0509105,-0.00720227
-0.0329065,-0.016315
-0.0259883,-0.00983839
-0.0301759,0.00221786
-0.0278307,0.00202557
-0.0162391,0.00902123
-0.00368731,0.0179152
0.00349923,0.0154365
0.0070849,0.00504385
0.00838282,-0.00855756
0.00745906,-0.00792419
0.00914056,-0.00369011
0.00805844,-0.000342453
0.00813467,0.00742057
0.0046852,0.00765984
0.000509693,-0.00203596
-0.00150948,-0.00549152
0.00131641,-0.0268019
0.0198316,-0.0227484
0.0282804,-0.00753783
0.0228027,-0.0122282
0.0117481,-0.00339653
-0.00815946,0.0108918
-0.0117741,0.0132897
0.00353504,-0.0123089
0.00996263,-0.0111194
-0.0057925,-0.00140804
-0.00594941,-0.00016483
-0.0142027,0.00449883
-0.0214484,0.0128033
-0.0225676,0.0130946
-0.022746,0.00519047
-0.00263153,0.00780561
0.033377,-0.0029579
0.0318641,-0.0225965
0.0448602,-0.0279498
0.0513585,-0.0108585
0.0125585,0.00528281
-0.0164121,0.0104941
-0.0425566,0.0181245
-0.0694834,0.020156
-0.054598,0.00712097
-0.0168082,-0.00622149
0.0328229,-0.000952737
0.0723216,0.00215411
0.082686,0.00936497
0.0499196,0.0152734
0.0160936,0.0200751
0.0235875,0.012437
0.00640701,0.00826247
-0.0374478,-0.00447203
-0.05841,-0.0340661
-0.0737539,-0.0243538
-0.0951812,0.0104444
-0.0854506,0.0125289
-0.0531923,0.0103719
-0.00468422,0.0180609
0.0169466,0.0150239
0.0127543,-0.00404878
0.0151366,-0.0276515
0.0138196,-0.026195
0.0138262,-0.010654
0.000581278,0.00101239
-0.00305562,0.00726032
-0.000544618,0.00280839
0.00528804,-0.00702595
0.0130941,-0.00406908
0.0144609,-0.0152125
0.0162507,-0.0166087
0.0305156,0.00638626
0.0513002,0.0105106
0.0659453,0.00321891
0.0560859,0.0102173
0.0539892,0.0220743
0.0551245,0.0135792
0.0293502,-0.010275
-0.00118196,-0.0132461
-0.0490751,-0.00306243
-0.128568,0.00221322
-0.135452,0.0102559
-0.0902273,0.0159664
-0.0206193,0.0141846
0.0381915,0.0103014
0.0825365,-0.00541424
0.0816007,-0.0251011
0.0407327,-0.0255816
-0.000252128,-0.00723456
-0.0224441,0.00504421
-0.019403,0.00198398
-0.000284821,0.00532099
0.0154878,0.00712958
0.0200432,-0.00589222
0.0218161,-0.018615
-0.000849575,-0.0115641
-0.0212723,-0.00262603
-0.0335869,-6.46e-05
-0.0384328,0.00117191
-0.0256772,0.0100317
-0.0173047,0.00449711
-0.00888747,0.00493708
0.0134774,-0.00632907
0.0325043,-0.0201854
0.0341687,-0.0083969
0.0392452,0.000548203
0.0422397,-0.00871707
0.0158014,0.00896616
-0.0147205,0.0239019
-0.039408,0.020923
-0.0433413,0.00450887
-0.0348135,-0.0113373
-0.0296807,-0.0111513
-0.018859,-0.00611293
-0.00940591,0.00515841
-0.00150453,0.0173954
-0.00450266,0.0151901
-0.00968252,0.00668552
-0.00857289,-0.00698811
-1.63e-05,-0.0214497
0.0135931,-0.0146933
0.0150155,0.00340766
0.00320794,0.00290243
-0.00192308,0.00179266
0.0024718,0.0143941
0.00417208,0.020835
0.00281608,0.0116523
0.0309833,-0.0146608
0.0687518,-0.0140809
0.0742024,-0.00269452
0.0647215,0.0121153
0.0382033,0.0272294
-0.00106536,0.00204268
-0.027568,-0.0194213
-0.0397148,-0.00184501
-0.0490363,-0.000648629
-0.0583956,-0.0201852
-0.064931,-0.0242169
-0.0778154,-0.00772047
-0.0807652,-0.00201764
-0.0615596,0.000853793
-0.0219698,0.0155899
0.00888886,0.0185936
0.0295534,0.00244313
0.0874851,-0.0161626
0.11567,-0.0203208
0.0894924,-0.0212156
0.0812495,-0.0106101
0.0589097,0.0199661
0.0348856,0.0526724
0.0116382,0.0248306
-0.0430448,0.00571406
-0.0816959,-0.0123904
-0.0666655,-0.0257768
-0.030777,-0.0104416
-0.0218079,0.00525074
-0.0419625,0.00181218
0.00294588,0.00294113
0.0885061,0.0111677
0.105417,0.0111294
0.0799063,-0.00489422
0.0686526,-0.0182715
-0.00104909,-0.00839334
-0.0779247,-0.00227645
-0.131146,0.00236631
-0.167373,0.0110519
-0.148046,0.0117398
-0.0926617,0.00865021
-0.0580623,0.00524145
-0.023147,-0.0181831
0.0319539,-0.0239821
0.0764437,0.00426571
0.0667475,0.00893332
0.0330276,0.00948112
0.0293395,0.0275126
0.0636141,-0.00378241
0.0550678,-0.0259395
0.0392577,-0.0210236
0.0336871,-0.0135711
-0.00755561,0.00275367
-0.0260245,-0.000426924
-0.0620487,0.00335581
-0.0635085,0.0147413
-0.0251796,0.00855822
0.0074683,-0.00434182
0.0439725,-0.0131727
0.0508112,-0.0124111
0.0371938,-0.000331955
0.011953,0.0143742
0.0168267,0.0114828
0.0136578,-4.41e-05
0.0403081,-0.00281789
0.10009,0.00915874
0.095311,0.00897253
0.0466041,-0.0123915
-0.0345655,-0.0235175
-0.100338,-0.0159846
-0.096315,0.00730677
-0.0588051,0.023918
-0.0562955,0.0125342
-0.0492674,0.00366489
-0.0286433,-0.00118803
0.0082964,-0.00783153
0.0604782,-0.005839
0.0949881,0.00270256
0.0683754,0.00537774
-0.00269285,-0.00626084
-0.051168,0.0139806
-0.0717698,0.0180998
-0.0620991,-0.000120858
-0.0482408,-0.0105587
-0.0164543,-0.0191548
0.0274024,-0.0103112
0.0323027,-0.00602545
0.028897,0.00315896
0.0266188,0.01051
0.0223204,0.0116352
0.0164898,0.00747203
-0.00794499,0.00572421
-0.0241253,-0.00661959
-0.0222434,-0.0383508
-0.0216325,-0.0313312
-0.0221124,0.0325395
-0.0139005,0.0330273
-0.00525691,0.000872731
-0.00157904,0.00835415
-0.00384236,0.0088993
-0.00275902,-0.0115568
0.0126234,-0.0121989
0.0337996,-0.00516419
0.0456811,-0.00203189
0.0703337,0.00649693
0.103357,0.00900526
0.0974696,0.00795561
0.0692223,0.00645008
0.0323966,-0.00900416
-0.0106292,-0.0204504
-0.0716861,-0.0332769
-0.134682,-0.015412
-0.117877,0.0169489
-0.0857947,0.0188821
-0.0704987,0.0227317
-0.0521497,0.0230281
-0.0324921,-0.0023864
-0.0246958,-0.0460882
-0.0190462,-0.0462372
0.00494176,-0.00159816
0.0229301,0.0102498
0.0182699,0.0207125
0.00871369,0.0286007
0.0103609,0.0182864
0.0151491,0.0127719
0.0221251,4.6e-05
0.055225,-0.0142481
0.124177,-0.00324871
0.194213,0.0192506
0.186451,0.0100298
0.0862458,-0.00593668
-0.0162964,0.00845052
-0.0746234,0.0146891
-0.0946609,-0.0100981
-0.114265,-0.0224014
-0.134987,-0.0145109
-0.104368,-0.0101408
-0.0565849,-0.00380051
-0.0451755,0.00852501
-0.0434361,0.0111278
-0.0158975,-0.00519933
0.0136557,-0.00369021
0.0532822,-0.0273962
0.0586426,-0.0307776
0.0226801,-0.00256036
-0.0368936,0.0167525
-0.0474412,0.0122201
-0.0124671,0.0235499
0.0165184,0.0105428
0.0297081,-0.0353805
0.0314757,-0.0401732
0.0444686,-0.0207479
0.066029,0.0110729
0.0521116,0.0163459
0.0306238,0.0235685
0.00561487,0.0391126
-0.0222799,0.0480644
-0.0263725,0.0232173
-0.0420724,-0.00879958
-0.0576206,0.00428048
-0.0489246,0.0116593
-0.0359194,0.0107487
-0.0237384,-0.00234665
-0.0132271,-0.0142017
-0.00450248,-0.0145303
0.0149848,-0.0262311
0.0297159,-0.0409925
0.0314034,-0.03426
0.0257133,-0.0191928
0.0178537,-0.0105701
0.0146244,0.0106154
0.0111516,0.051698
0.0116753,0.0582511
0.00982779,0.0375514
0.00926543,-0.00458551
0.0135862,-0.0351287
0.00142571,-0.0249546
-0.0117129,-0.000823373
-0.0147791,-0.00817294
-0.0131288,-0.0264473
-0.00693436,0.00417154
0.00051516,0.0165554
0.00713846,-0.00971144
0.00780084,-0.0275132
0.00520394,-0.0239227
0.00736417,-0.0245524
0.018338,0.00576274
0.0204257,0.0176218
0.0114538,0.017316
0.00559202,0.0169593
0.00194478,0.0172309
0.00171808,0.00770765
-0.00479181,-0.00111765
-0.0172186,0.00919797
-0.0273787,0.0081088
-0.0275111,0.00426674
-0.0257392,-0.00161569
-0.0250308,-0.00194414
-0.0217627,-0.0146208
-0.0150039,-0.0324555
-0.00510043,-0.0161055
0.00223968,-0.00423476
0.0115549,0.00161097
0.0177612,0.00878578
0.0131473,0.0168704
0.0052704,0.02287
0.00411444,0.0189824
0.00836487,0.0081925
0.0221011,0.00530229
0.0400357,-0.00206832
0.0547468,-0.00380705
0.0798912,-0.00205478
0.0972961,0.00304806
0.0481704,-0.00708866
-0.0164622,-0.000495466
-0.0713687,-0.00862785
-0.106502,-0.0415496
-0.0994664,-0.0153895
-0.0707054,0.0080085
-0.052325,0.00974422
-0.0299762,0.00736128
-0.0159481,-0.00455958
-0.005392,0.0131247
4.27e-05,0.0239279
0.00739981,0.0153805
0.0146305,-0.00422829
0.0161424,-0.0125317
0.0085791,-0.00327366
0.00777189,-0.00349548
0.0215003,-0.00372677
0.0297903,0.000184676
0.0297227,-0.00450852
0.0198825,-0.0172211
0.000277769,-0.021893
-0.0020538,-0.00924015
0.00827136,-0.000691448
0.006801,0.0102997
0.0126719,0.0144037
0.0213956,0.0158027
0.024895,0.0212033
0.0148768,0.0211891
-0.0212691,0.0064284
-0.0485454,-0.00909561
-0.0507442,-0.00845808
-0.0387336,-0.00170794
-0.0343485,-0.00310522
-0.0225015,-0.00195589
0.00196595,-0.000283985
0.0152278,-0.00378815
0.0161048,-0.0170112
0.0187089,-0.0197944
0.0262595,-0.00150581
0.0279136,0.0072175
0.0223208,0.00783567
0.0178956,0.0119308
0.014301,0.0184618
0.00316605,0.0137673
-0.00320252,0.0109503
0.000258397,-0.00740542
0.00509359,-0.00679842
0.000139337,0.0026589
-0.0123617,-0.00807899
-0.0150556,-0.0104296
-0.0123165,-0.00140417
-0.00997319,0.00185344
-0.00298373,-0.00512029
0.00484123,-0.0176733
0.00818249,-0.0155687
0.00988303,-0.0113845
0.0125273,-0.00542295
0.0147996,0.0186023
0.0066852,0.022776
0.000972445,0.0187466
-0.00155795,0.0142575
-0.00199521,0.00190953
-0.00258256,-0.0121161
-0.00342174,-0.0110548
-0.00778535,-0.00230259
-0.0138963,-0.00754923
-0.0209517,0.000409419
-0.0226181,0.0115989
-0.0144819,0.0128934
-0.00810152,-0.00656955
0.000601053,-0.0312824
0.00675719,-0.022423
0.00759834,-0.0152849
0.0141948,-0.00182661
0.0129518,0.0132083
0.00852729,0.0161656
0.0050519,0.0174406
0.00546417,0.0157914
0.00593615,0.000337343
0.00245064,-0.0112803
-0.00675049,-0.0031054
-0.013835,0.00225402
-0.0179447,-0.00274909
-0.0100081,-0.00150142
0.0140821,0.00215666
0.0254053,-0.00184138
0.0215889,-0.0136693
0.0117434,-0.015639
-0.00110358,-0.00155902
-0.0134856,0.00298954
-0.0116075,0.0097014
-0.00708548,0.0182025
-0.0130734,0.017468
-0.0154575,0.013574
-0.00850285,0.00874409
-0.00144586,-0.012363
-0.00156921,-0.0246205
-0.00628619,-0.0115415
-0.0120049,-0.0014965
-0.0110882,-0.00273879
-0.009383,-3.61e-05
-0.0067012,0.00876899
-0.00251718,0.00334301
0.00231441,-0.0122593
0.00778084,-0.0031892
0.0141414,0.00799841
0.0178328,0.00707649
0.0200285,0.0142546
0.0210855,0.0192657
0.0155029,0.0169128
0.00942414,0.0181767
0.00448928,0.00176711
-0.00231616,-0.0176163
-0.00905758,-0.0160355
-0.0139641,-0.00540284
-0.0144899,-0.00245109
-0.00494945,-0.00154654
0.000897324,-0.0018041
0.00701913,-0.00791801
0.0121691,-0.0186023
0.0144123,-0.0207531
0.0167785,-0.0056353
0.0208032,0.000288604
0.0168108,0.00706501
-0.00437239,0.014898
-0.0160715,0.0166774
-0.0151667,0.0118095
-0.0124586,0.0162936
-0.0113351,0.000689374
-0.0147352,-0.0249156
-0.0163644,-0.0160891
-0.0170847,-0.000255933
-0.0169058,-0.000661728
-0.0183545,-0.00313667
-0.015103,0.0104903
-0.00758638,0.00405448
-0.00217784,-0.0111916
0.000184681,-0.0190707
0.00788628,-0.0068299
0.023405,-0.000800188
0.0305703,0.00408617
0.0271852,0.0214978
0.0169428,0.0307742
0.0117332,0.0225946
0.0160809,0.0125062
0.0134919,-0.0224425
0.01322,-0.0424354
0.0162466,-0.00891225
0.0109366,0.00609752
0.00871085,0.000454658
0.00351188,-0.00030164
-0.0137477,0.00705003
-0.0325574,0.000942534
-0.0377788,-0.0135956
-0.0298701,-0.00838709
-0.0236939,0.0106315
-0.0084166,0.0221849
-0.00355459,0.0260041
-0.00711384,0.00893112
-0.00392712,-0.0430632
-0.00540713,-0.030825
-0.00736614,0.00470225
-0.00295048,0.00645383
0.00499709,-0.021805
0.0123825,-0.0251198
0.00966223,0.00801917
0.000624709,0.0299359
-0.000170464,0.0562554
0.00250539,0.0209773
0.00462176,-0.0246021
0.00735051,-0.0385173
0.0130967,-0.0163441
0.022789,-0.00158193
0.0248972,-0.00153106
0.0186432,-0.000144446
0.017832,0.015371
0.00676209,0.0150824
-0.0160014,0.0162808
-0.0246982,-0.00244761
-0.0228301,-0.0278048
-0.021913,-0.00844309
-0.0190539,0.0253715
-0.0174719,0.0214667
-0.0221847,0.00890299
-0.0175299,0.00663461
-0.0027919,0.00566447
0.00446504,-0.0243334
0.0119261,-0.0359712
0.0176086,0.00408892
0.0101132,0.0184947
0.0106832,0.00770274
0.0141442,0.00498825
0.0111095,0.012427
0.00374678,0.00433317
0.00419779,-0.0109334
0.00893972,-0.0205755
0.0071899,-0.00949531
0.00979322,0.0129913
0.00686979,0.0161846
0.0119608,0.0016206
0.0187605,-0.0033751
0.0140076,-0.00443049
0.00984616,0.0058693
-0.00234016,-0.00337092
-0.00760474,-0.00841407
-0.0154531,-0.00627256
-0.0312329,-0.0015011
-0.0456811,0.00758909
-0.0429649,0.016535
-0.0263191,0.0131797
-0.0103684,-0.000444717
0.00392346,-0.00986493
0.00400253,-0.019258
-0.00197935,-0.0174941
-0.0174382,-0.00116303
-0.0185156,0.00488648
-0.000506311,0.0179786
0.00924488,-0.00358736
0.0175674,-0.00728537
0.0444694,0.00800466
0.0583147,-0.00571935
0.051299,-0.00901716
0.0395097,-0.0098294
0.0277032,-0.0102705
0.00275017,0.00158555
-0.0114769,0.0133347
-0.0128284,0.00907675
-0.0291859,-0.00647893
-0.0448723,-0.0180833
-0.0312662,-0.0154522
-0.0133421,-0.00243488
0.0108724,0.0122744
0.0171257,-0.00267556
0.000653376,-0.00716051
-0.0260162,0.00517929
-0.0321891,0.011012
-0.0213081,0.0094893
-0.0225608,-0.00568432
-0.00314373,-0.00646635
0.0353379,-0.0026313
0.064901,0.00781377
0.053934,0.0186645
0.0206108,0.0170562
-0.0171214,0.00718025
-0.0282125,0.00422054
-0.0142946,-0.00662955
-0.0195138,-0.0211831
-0.0464275,-0.0164064
-0.0376547,-0.000124557
-0.0121869,0.00485127
0.00443754,0.0110041
0.0177871,0.017
0.0227531,0.00585388
0.0230018,-0.0148386
0.0185842,0.00220072
0.0128587,-9.41e-05
-0.00501834,-0.0118498
-0.0156555,-0.000793564
-0.0181094,0.0179089
-0.0103929,0.0204841
0.00796424,-0.00410348
0.0169284,-0.00898089
0.0252446,-0.0167158
0.0219356,-0.0169557
-0.00119901,-0.00826158
-0.0105637,0.00426977
-0.000437371,0.00119654
0.00418325,0.02235
-0.0113326,0.0115503
-0.0107773,-0.00849931
-0.00196963,-0.0258493
-0.0023484,-0.0203288
-0.000754757,0.000729775
0.00259972,0.0307984
0.010863,0.0444952
0.00742828,0.0289461
0.00476715,-0.00495889
0.0055477,-0.00693414
5.98e-05,-0.0282831
0.00217599,-0.0395821
-0.00233169,-0.0313943
-0.0113493,-0.00491818
-0.0232773,0.00993159
-0.038568,0.00389922
-0.0349097,0.00442866
-0.0194297,0.0179373
-0.0109279,0.0317822
0.00603806,0.0158123
0.0416407,-0.0236543
0.0694327,-0.0295498
0.0472489,0.00100427
0.0150931,0.0151276
-0.000776262,0.00961183
-0.0120898,-0.0129508
-0.0105143,-0.0272872
0.00689524,-0.0100445
0.0218735,-0.00115951
0.0119698,0.00176728
-0.0116368,-0.00593751
-0.034441,-0.00255707
-0.0351428,0.0100845
-0.0257658,0.0083301
-0.012931,0.0128769
-0.0102175,0.0233015
-0.0230273,0.0181637
-0.0178781,0.0259993
-0.00395625,0.0308223
-0.00614953,0.0228867
-0.00201983,-0.00699876
0.030059,-0.0578398
0.0592428,-0.0200319
0.0401417,-0.00211193
0.0253386,-0.0331853
0.0129413,-0.0240246
0.00122784,0.0201936
-0.0450411,0.0325423
-0.0793536,0.0120559
-0.0633938,0.00649425
0.00434085,-0.0125572
0.0496287,-0.0298203
0.0529303,-0.0177997
0.0420597,0.00712656
0.0106005,0.0026578
-0.0194211,0.00141193
-0.0358544,0.024402
-0.0176042,0.0167393
0.0291544,-0.00255994
0.0611074,-0.00511772
0.0656688,-0.0053563
0.0475442,0.00195098
0.0164576,0.00346392
-0.0285467,-0.0283933
-0.053725,-0.0193023
-0.0666438,-0.00163307
-0.0527285,0.0158807
-0.0330312,0.0131655
-0.024013,-0.00866509
-0.0082876,-0.00174638
-0.00153477,0.0089402
-0.00628057,-0.0100267
-0.0163497,0.00351651
-0.00998942,-0.00622261
0.00140231,-0.00343579
0.0325807,0.0319739
0.0304227,0.0218836
-0.0117401,-0.000129269
-0.0306179,0.000635504
-0.020285,-0.0126992
0.00224814,-0.0214641
0.0345164,-0.0191918
0.0466851,-0.0142732
0.048701,0.0211327
0.0468671,0.086356
0.0284335,0.0606539
0.00830717,-0.0324048
-0.00549278,-0.0837972
-0.010331,-0.0571889
-0.0411613,-0.0107836
-0.0509742,0.0144872
-0.0496011,0.0429845
-0.048286,0.0177752
-0.0236891,-0.0401362
0.0339737,-0.0582459
0.0647813,-0.0255979
0.0487504,0.0396984
0.0128813,0.0782239
-0.0219684,0.0531994
-0.0357344,0.0277717
-0.0231574,-0.0444315
-0.00213082,-0.0700092
-0.00184553,-0.0050555
-0.011179,0.0159698
-0.0239382,-0.0224164
-0.0104796,-0.027548
0.0251819,-0.0070505
0.0471626,0.00369602
0.0479804,0.0109281
0.0413868,0.0106992
0.0111644,-0.029097
-0.00125267,-0.0220997
-0.0221656,0.00430391
-0.00845546,0.0295098
0.0118119,0.0227806
0.0275429,0.0131751
0.0500538,0.053218
0.0426812,0.0650002
0.0116486,0.00886712
-0.0203722,0.00821831
-0.0488221,0.0206772
-0.075259,0.0348083
-0.0643838,0.0431861
-0.0143526,0.00370074
0.00517816,-0.0462494
-0.0249592,-0.0533325
-0.0355866,-0.0403296
-0.0295919,-0.0655669
-0.0347729,-0.0608831
-0.00764194,-0.00962822
-0.00574644,0.0133729
-0.0323115,-0.02391
-0.0238967,-0.0471225
0.013857,-0.00236791
0.0312023,0.0188541
0.0472717,0.00143824
0.0573019,-0.0256468
0.0442329,-0.0135554
0.0476931,0.0189229
0.0354061,0.0155476
-5.68e-05,-0.000987259
0.00493889,0.0510949
0.0326992,0.0667604
0.0279102,0.0155991
-0.0030129,0.00340885
-0.0270889,-0.0622247
-0.0064726,-0.0868152
0.0414437,-0.0124893
0.0736845,0.0382602
0.0510119,0.0862635
-0.0165061,0.0858889
-0.104324,0.026719
-0.118821,-0.0284318
-0.0681061,-0.0113854
0.00347933,-0.00173496
0.0313621,-0.00613827
-0.00164488,4.92e-05
-0.0225535,-0.0101282
0.0105438,-0.0166122
0.0222111,0.0150576
-0.0105617,0.0137145
-0.0294689,-0.0177525
-0.0631102,-0.0188257
-0.0487898,-0.00605922
-0.0561673,-0.0113501
-0.0482031,-0.0275728
0.0557608,-0.0201382
0.230646,-0.0254571
0.295922,-0.00451078
0.238612,0.0296016
0.0641571,0.0100322
-0.101851,-0.0161027
-0.158674,0.016514
-0.0898759,-0.043961
-0.126284,0.00377729
-0.243392,0.1738
-0.411149,0.169238
-0.41897,0.050077
-0.286417,-0.0406692
-0.0353855,-0.139767
0.239296,-0.145633
0.370575,-0.124053
0.384622,-0.0754547
0.306742,0.0177788
0.109308,0.0265097
-0.0131049,-0.0131366
-0.0166549,-0.0334084
0.0176018,-0.0369981
0.0400706,-0.0240773
0.0459236,0.0895475
0.0714514,0.216398
0.055783,0.207054
0.0283983,0.0682903
0.007468,0.00392051
0.0107407,0.0169698
0.0022166,0.0679726
-0.0417206,-0.000443108
-0.0670645,-0.120425
-0.0695512,-0.138478
-0.0707747,-0.101329
-0.0806263,-0.0558527
-0.0917168,-0.0544802
-0.115019,-0.037747
-0.100436,-0.0290057
-0.0611101,-0.00862201
-0.00660256,-0.0279095
0.0596711,-0.0161339
0.134837,-0.0103377
0.170127,-0.0353338
0.183158,0.0127041
0.13841,0.0456325
0.0450558,0.0247886
-0.0612429,0.00177496
-0.117142,0.00528671
-0.0816406,0.010608
-0.029809,0.0246061
-0.0145662,0.0416642
-0.029287,0.0274113
-0.0693784,-0.00101626
-0.111633,0.0150369
-0.0741304,0.0215604
-0.0359806,0.00032302
-0.0160938,-0.00385156
-0.0158183,-0.00539825
0.00104103,-0.0098184
0.0340044,-0.0189228
0.0578647,-0.0355349
0.0558417,-0.0165262
0.0370822,0.0107909
0.0114123,0.0151062
0.00109656,0.0104158
-0.00670476,0.0122983
-0.0154197,0.0310452
-0.0128652,0.0459761
-0.00743517,0.0334401
-0.0112458,0.00500373
-0.0234924,0.00456349
-0.0113843,0.0262452
0.00415911,0.0144352
0.0185948,0.00559534
0.0314889,0.000683145
0.0547218,-0.00311615
0.0580312,-0.0051948
0.0521176,-0.0109188
0.0431835,-0.0381801
0.0189075,-0.0572359
-0.00784837,-0.0340752
-0.0289495,0.000167287
-0.0332353,0.0101613
-0.0328096,0.0105291
-0.039065,0.0132577
-0.0442448,0.0170097
-0.0225903,0.00580835
0.00489319,-0.00541731
0.0265327,-0.00479998
0.0442221,0.0131869
0.037051,0.0289877
0.0144521,0.00572831
-0.0151013,0.00986552
-0.0192684,0.0602402
-0.00102419,0.0300711
0.0262969,-0.0697257
0.020329,-0.0593484
-0.034355,-0.0140608
-0.134218,-0.0105937
-0.153041,-0.0318308
-0.0860081,-0.00165842
-0.0105876,0.00561241
0.0461963,-0.00615975
0.0918453,-0.01084
0.0997134,-0.00798895
0.0697407,-0.0127482
0.041811,-0.00724228
0.030289,-0.00141397
0.0313185,0.000805744
0.037499,-0.00515728
0.0306616,-0.0068381
0.0130524,-0.0121734
-0.00766037,-0.0142597
-0.0220077,-0.00462496
-0.0414429,0.0139784
-0.0407552,0.0172927
-0.0456197,0.0124444
-0.0655124,0.0112725
-0.0657331,0.0266104
-0.0354126,0.0340883
-0.0206866,0.000157242
-0.0344207,-0.0091858
-0.0483034,-0.0156509
-0.0244057,-0.00154487
0.0313826,0.00812682
0.0921045,0.00632688
0.113839,0.00678347
0.0715238,0.00688216
0.0603476,-0.0019811
0.0649238,-0.0155679
0.0487562,-0.0345948
-0.00615695,-0.0228434
-0.0504047,0.00938999
-0.0337318,0.0173884
-0.00308075,0.0441625
-0.00499444,0.0337231
-0.00920432,0.000385242
-0.0388799,-0.00641625
-0.0642352,0.00665521
-0.0666373,0.000739471
-0.0571011,-0.00332794
-0.0330143,-0.00410954
0.0168006,-0.00882145
0.0415233,-0.0143219
0.028106,-0.0135632
0.0138662,-0.0200328
0.00820899,-0.0258747
0.0261079,-0.0252692
0.0651536,0.00612402
0.0524471,0.0231653
-0.0311372,0.000802741
-0.0636441,-0.00112354
-0.022658,0.0181166
0.0156925,-0.0088956
0.0364342,-0.0165195
0.0469215,0.000681106
0.0165867,-0.00713139
-0.0295812,-0.0112234
-0.0556983,-0.00458327
-0.0394807,0.00804878
-0.018818,0.0014586
-0.00436597,0.000856462
0.00581895,0.026869
0.00201316,0.0213768
-0.00306086,0.046909
-0.00843159,0.0590809
-0.0138615,0.0381134
-0.0112237,0.0220022
-0.00652435,-0.0334134
-0.00769783,-0.0496674
-0.000189898,-0.0359115
0.00528288,-0.00354256
0.0123893,-0.0154084
0.0138373,-0.02824
0.0192724,-0.0179082
0.0384474,-0.0100881
0.0589849,-0.0104183
0.0587124,-0.00376669
0.0498036,-0.000326855
0.0302283,-0.00701504
-0.00598047,0.0122524
-0.0374736,0.028616
-0.0544664,0.0352066
-0.054898,0.0305377
-0.0326645,-0.00845779
-0.0210125,0.0237693
-0.0155858,0.0226412
0.00108396,-0.000308066
0.00362335,-0.0364188
0.00472991,-0.0428711
-0.00868333,-0.00564316
-0.0211014,0.0113126
-0.0120014,0.00334384
0.00591972,-0.0124262
0.0183681,-0.0160746
0.0237183,-0.0165627
0.0298966,-0.00313507
0.00779215,-0.0138462
-0.00143168,0.00394146
0.00533967,0.00625189
0.0159109,0.00612757
0.0130415,0.0186767
0.00232042,0.0125977
0.00944504,-0.00560996
0.0103312,0.00101929
0.000283588,-0.00044845
-0.0221753,-0.00971089
-0.0307417,0.0143493
-0.0167654,0.0323233
0.0170731,0.0122271
0.0374544,0.0041474
-0.00506809,0.000131719
-0.0206593,-0.00146842
-0.00664652,0.00309027
-0.00635563,-0.0148828
-0.0260356,-0.0245329
0.00112979,-0.00684352
0.0148086,0.00327262
0.00356177,0.00538487
-0.00589072,-0.000384849
-0.00393478,-0.00782568
0.00192289,-0.0073776
0.0159123,-0.00420117
0.0125023,-0.00182281
-0.00311993,-0.0106758
-0.0109697,-0.00857645
-0.00368299,-0.00197498
0.00519533,0.00240439
0.0178598,-0.0075994
0.020757,-0.0219851
0.0100726,-0.000628974
-4.13e-05,0.0108549
-0.00578808,-0.0225679
-0.0263821,-0.029064
-0.0283599,-0.00257425
-0.0143077,0.0262356
0.00258487,0.014841
0.0125946,-0.00245856
0.0178455,0.0110124
0.0198496,0.00843269
0.0177817,0.0106935
0.0135338,0.0163659
0.0021356,0.020032
-0.00838407,-0.00378716
0.00398323,0.0006214
0.0147614,-0.00524842
0.00396955,-0.00969233
-0.0271135,0.0143821
-0.0669485,0.0076786
-0.0639165,0.0187848
-0.0481298,0.0415792
-0.0338596,0.0379625
-0.00705277,0.039734
0.0293909,0.00215198
0.0182978,-0.088738
-0.0347374,-0.041304
-0.010141,-0.0218331
0.0111112,-0.0168034
0.0166078,0.00471182
0.0300035,-0.00240172
0.0348282,0.00393538
0.0256181,-0.00495076
0.0419002,-0.0268986
0.0430494,-0.0209878
0.0193232,-0.00131497
-0.00516827,0.0166636
-0.0189035,0.0167907
-0.013929,0.029881
-0.00936644,0.023616
-0.000567883,0.00481689
0.00582184,-0.00610091
0.0313313,-0.00253963
0.0302169,-0.013406
0.00128126,-0.0225759
-0.0206731,-0.0190795
-0.0258394,0.012052
-0.0199631,0.0315539
-0.00955223,0.0350054
0.00325806,0.0214375
0.00439049,-0.0233379
-0.0020115,-0.0206219
-0.0036319,0.0293703
-0.00553624,0.0289516
-0.00100916,0.00219868
0.00482993,0.00941413
-0.00779463,-0.0291108
-0.0229129,-0.0626854
-0.0279055,-0.0344633
-0.019222,-0.0142511
0.000362872,0.000640832
0.0242226,0.00732424
0.0322141,-0.017116
0.0312613,-0.00539318
0.022103,0.0133696
-0.00456981,0.00469431
-0.0252424,-0.0302823
-0.0424119,-0.0426579
-0.0296404,0.00852336
-0.00734853,0.0210126
-0.0113337,0.0188507
0.0172889,0.0451498
0.0597699,0.0275142
0.0589941,0.00558633
0.047125,0.00102684
0.0343346,0.00969772
0.0169454,0.00546769
-0.0057493,0.0005177
-0.0350877,0.00235465
-0.0450616,0.00656465
-0.044635,-0.00243118
-0.0631322,-0.00312052
-0.0609632,-0.0106501
-0.0336208,-0.0136708
-0.00871237,-0.00697855
-0.000664326,0.00185219
0.0119066,0.00670643
0.0273726,0.0109031
0.018031,0.0135845
0.00903469,0.0151234
0.00794756,0.00252527
0.00838293,-0.0131286
0.00980494,-0.00859329
0.0114741,-0.0089358
0.0074041,-0.000486694
-0.00680287,0.0131413
-0.0196843,0.0158447
-0.0173005,0.0088068
-0.00179802,0.00375017
0.0204717,-0.011893
0.043038,-0.0158715
0.0490125,-0.00515191
0.0355946,0.00347353
0.0254704,0.00390416
0.00915373,0.00660674
-0.021393,0.0128705
-0.0208571,-0.00207715
-0.00791888,-0.0223443
0.000200147,-0.0170608
-0.00843302,-0.00331644
-0.0253871,-0.0136355
-0.0453973,-0.00655448
-0.0425302,0.000102591
-0.0238068,-0.00500857
0.0007889,0.00314544
0.0193486,0.00840858
0.0210319,-0.00400692
0.0153644,-0.0073993
0.00199282,0.00941557
0.00340365,-0.0116199
-0.00675354,-0.0187384
-0.00733576,0.036155
0.0101714,0.0561132
0.0124385,-0.00713698
0.00229651,-0.0301164
-0.000183588,-0.019929
0.00807515,-0.0052948
0.0133652,0.00694108
0.0106447,0.00891831
0.00370797,0.00600127
-0.00418874,0.00027878
0.00306872,0.00219447
0.0149887,-0.00504756
0.0298332,-0.0129621
0.0120547,-0.0110098
-0.00847723,0.000689436
-0.0191154,-0.00312312
-0.00940904,-0.00280439
-0.00889317,0.00867713
-0.0103984,0.0144767
-0.00623942,0.00535386
-0.00188767,-0.00527735
0.00235403,-0.00410999
0.00522722,-0.00504461
0.00697564,-0.00198014
0.00361522,0.0141554
-0.00619112,0.011161
-0.0101199,0.00932093
-0.00236558,0.000842663
0.00902003,-0.00428245
0.00496274,0.00526781
-0.0107946,0.0206566
-0.0107875,0.0180088
-0.00715159,0.0131895
-0.00899101,-0.0200992
-0.00492319,-0.0717548
0.0037452,-0.0399569
-0.00593426,-0.0390818
-0.0113296,-0.00121393
0.00874563,0.0391718
0.0162828,0.0167275
0.00264181,0.00473421
0.0185506,-0.00554858
0.0187215,-0.00960281
0.00502527,0.0112714
0.00831761,0.0135983
-0.00147079,0.00439201
-0.032298,0.0148898
-0.0450745,0.0112527
-0.0183929,-0.0050938
-0.0015595,-0.0088738
-0.0031953,-0.0149684
-0.000809046,-0.0244352
0.0035879,-0.0271401
0.00809095,-0.0123865
0.0101048,-0.00119265
0.00707147,0.00422503
0.00869453,0.0208886
-0.00640895,0.0257742
-0.0182157,0.022343
-0.014595,0.0199907
-0.00947927,0.00327016
0.00794945,-0.0118892
0.019042,-0.00613223
0.0157881,0.00394681
0.0108137,0.00130791
0.00976283,-0.00699692
0.011664,-0.00800637
0.0165369,-0.00254816
0.0187814,-0.00537435
0.0103431,-0.00952616
4.82e-05,-0.00509784
-0.00993313,-0.00313809
-0.0143545,0.00443171
-0.0169093,0.0154187
-0.0195579,0.0202986
-0.0107285,0.0278962
0.000641045,0.0330602
0.00931773,0.0156355
0.00244009,0.00179375
-0.0236964,0.00505154
-0.031673,0.0181402
-0.00908806,0.00575237
-0.00054885,-0.031648
0.00982164,-0.0281965
0.0122757,-0.0155677
0.00774121,-0.0219851
0.0155037,-0.0303935
0.00723945,-0.0365002
0.00415828,-9.96e-05
-0.00160424,0.02666
0.00195028,0.0187516
0.00377043,0.0137828
0.000757196,0.0117082
0.000753768,0.0387611
0.00427654,0.0574364
0.00618421,0.00435919
0.00331844,-0.0611364
-0.000635267,-0.0468202
0.00577539,0.0378155
0.0101933,0.0341068
-0.0057946,-0.0101655
-0.0106378,-0.029271
-0.0179394,-0.0363452
-0.0325497,-0.0125254
-0.0198203,-0.0199352
-0.00102519,-0.0237266
0.0057008,0.0101041
0.0166019,0.0344462
0.0153192,0.0423784
0.0212174,0.0314673
0.0242305,-0.00931863
0.00319378,-0.0604446
-0.00956048,-0.0242491
0.00911533,0.00993126
0.0210868,0.0352616
0.0141228,0.0277726
0.0157023,0.00792526
0.025552,-0.0195385
0.0388265,-0.0394854
0.00865103,-0.0242402
-0.0202265,-0.0112387
-0.0212186,-0.0186938
-0.0338453,0.0120147
-0.0441286,0.0322558
-0.0367306,0.025393
-0.0279724,0.00808449
-0.0171533,-0.00111386
-0.00387513,-0.00446103
0.00482614,-0.00278962
0.00947,-0.00262055
0.00481451,-0.00400933
0.00334351,-0.00203168
0.00372076,-0.00592989
0.00177232,-0.00139543
0.00112288,0.00398057
-0.000202208,-0.000202369
0.00210823,-0.00963258
-0.00161364,-0.00692077
-0.00438815,-0.00256727
0.00871514,0.00936067
0.01693,0.0260464
0.0203595,0.0260776
0.0202558,0.0132822
-0.00536892,-0.0148194
-0.0303302,-0.0284706
-0.0402828,-0.0315488
-0.0213878,-0.016533
-0.000580428,-0.00722556
0.0102104,-0.00113771
0.00466078,0.0113914
0.00883398,0.015584
0.0169432,0.00983421
0.0175201,-0.00236095
0.0192968,-0.00375739
0.0221275,-0.00264022
0.0184986,0.00212524
0.014059,0.0102837
0.0072369,0.0259152
0.00297972,0.0189441
-0.0135848,0.00684098
-0.0188407,-0.00281982
-0.000993476,-0.0147614
-0.00106321,-0.012629
-0.00819802,-0.002625
-0.0176693,0.000111753
-0.0178394,-0.000791003
-0.00921158,0.00503913
-0.00404831,0.00674232
0.00196318,-0.00237065
0.00739452,-0.0106882
0.00716691,-0.00657345
0.0110166,-0.00120047
0.00692892,0.00363377
-0.0159092,0.00899451
-0.0243173,0.00169839
-0.0132298,0.000108217
-0.00133609,-0.00295883
0.00488827,0.00760056
0.0159665,-0.0112631
0.0113679,-0.0175218
-0.00363917,-0.00416425
-0.00790151,0.00129809
0.00227932,-0.00460445
0.0201066,-0.00252845
0.0120217,0.004569
-0.0107705,0.00112407
-0.0199522,-0.00530083
-0.0215406,0.00200592
-0.000363054,0.00205904
0.0234178,-0.0051597
0.0172757,-0.00153082
0.00375703,-0.00935487
0.00491806,0.00652518
-0.00339067,0.028965
-0.00970945,0.00837069
-0.000255828,-0.00874525
0.00221459,-0.00310279
-0.00630547,-0.0001304
-0.00182781,0.00172704
0.00214789,0.000913582
-0.00156204,0.0020436
-0.000571158,-0.000970806
0.00875135,-0.00597292
0.0121322,-0.00589814
0.0121507,0.00212195
-0.0014934,6.74e-05
-0.0165606,0.0020756
-0.0197766,0.0124354
-0.00509644,0.0136156
0.00138513,0.012088
0.00524144,-0.0104741
0.00963462,-0.0214976
0.0112942,-0.00483079
-0.00040169,0.00884935
-0.00589936,0.0227072
-0.000394781,0.0262404
-0.00696717,-0.016158
-0.0103062,-0.012569
-0.00138263,0.000233791
0.00418843,-0.00674998
-0.00225154,-0.000461133
-0.0078928,-0.000388067
-0.00772607,-0.00708181
-0.00297809,0.0117415
-0.00373231,0.0329855
-0.00481371,-0.0108536
-0.00139368,-0.0394046
0.00571678,-0.0167015
0.00892337,-0.00353734
0.00889911,0.00262515
0.00214071,0.00252775
-0.0146434,-0.00768179
-0.0177494,0.00193074
0.00271981,0.0160374
0.0133401,-0.0099703
0.00535796,-0.0145932
0.0082788,-0.00351025
0.0149836,-4.34e-05
-0.00464166,-0.00151328
-0.0166077,0.00698031
-0.00953689,0.0121323
-0.0187941,0.0201736
-0.00775805,0.0143461
0.00744119,0.000635887
0.0184157,-0.0111059
0.0229088,-0.00250102
0.019183,0.0134198
0.0153907,0.00333995
0.00730656,-0.022699
-0.00816023,-0.0272818
0.00713801,-0.0245276
0.0438893,0.00156665
0.0556124,0.0186292
0.0256675,0.0116797
-0.0216392,0.0163354
-0.0454163,0.0107748
-0.0489141,-0.000966827
-0.0491576,0.00410998
-0.0278432,-0.00532087
0.00857501,-0.0168364
0.0136614,-0.0154887
0.00518065,-0.0151698
0.00351363,-0.00883316
0.000762159,0.00257282
-0.00942315,0.00737677
-0.00960183,0.00898131
-0.00919161,0.0152362
-0.0169219,0.0165949
-0.0141625,0.0116985
-0.00136018,-0.00427203
0.000286869,0.00728796
-0.00395638,0.0104193
-0.0114901,-0.0399943
-0.00684314,-0.0292304
0.00783941,0.00931184
0.0084628,0.00779287
0.00601052,0.0100106
0.0176126,0.0135393
0.0349951,0.00962566
0.0316756,-0.00924639
0.0113126,-0.00881165
0.00720476,0.0130268
0.00528586,0.00821699
-0.015026,0.0152987
-0.0230196,0.0153947
-0.000591939,-0.00501994
0.00346935,-0.0139935
0.00663762,-0.012793
0.0111112,-0.013113
0.0146968,-0.00074311
0.00410056,0.00438825
-0.00640628,-0.00107666
-0.00460335,-0.00773275
-0.00173987,-0.0086763
0.00248011,-0.00692254
0.00430977,-0.00448942
-0.00822772,0.000574427
-0.012847,0.00431615
-0.022647,0.0136907
-0.0263459,0.0191353
-0.0123473,0.0122306
0.00476275,0.00764787
0.0178474,0.0222239
0.0263288,0.0097467
-0.00376827,-0.000507142
-0.00486944,0.0131923
0.010231,-0.0357411
0.0107612,-0.0386512
0.00510123,-0.00700762
-0.0143612,0.00558768
-0.0170598,-0.00331344
-0.0076204,-0.0145416
-0.0136772,-0.00943389
-0.0230627,0.00331948
-0.0472964,-0.000758076
-0.0485321,-0.00504977
-0.019376,-0.000735986
-0.00447472,0.018263
0.0216834,0.0113921
0.0611187,-0.00622073
0.0785674,-0.012822
0.0744527,-0.0128499
0.0725325,-0.00496893
0.0368691,0.0100184
-0.00612845,0.01027
-0.0229272,0.00146853
-0.0109183,0.00734742
-0.00633279,0.00227423
-0.00658485,-0.0232636
-0.0114291,-0.0208635
-0.0137245,0.0156507
-0.0114907,0.0266359
-0.0245484,0.0195442
-0.0356671,0.0222337
-0.0263354,0.0209386
-0.0179197,-0.00330578
-0.011364,-0.0268397
0.000424188,-0.0182782
0.000144302,-0.0113907
-0.00676264,-0.00964022
-0.00537323,0.00454087
-0.00537108,0.00666626
-0.00377092,0.000581764
0.000370191,0.00105823
0.0109366,-0.00349643
0.017911,-0.00469395
0.014662,0.0109399
0.0127747,0.0154837
0.0110611,0.00571679
0.0057682,-0.00230884
0.000458119,-0.00190521
-0.000626376,0.0159397
-0.0134014,-0.00952434
-0.0227173,-0.00724355
-0.016357,0.0121116
-0.0112899,0.0244536
-0.0097989,-0.00330452
-0.00494771,-0.0366413
0.000283067,-0.0246408
-0.000312711,-0.0169461
0.00570923,-0.00627214
0.0101491,-0.00771768
0.00972213,0.00742497
0.00949249,-0.00658304
0.01266,-0.0216689
0.0164201,0.000857456
0.0155245,0.02414
0.00517385,0.021378
-0.00113152,0.00949553
-0.0019493,-0.00185811
-0.00505289,-0.00555201
-0.00216802,-0.00306758
-0.00437795,-0.000904337
-0.00316589,0.00992598
0.00288388,0.0223944
0.0130739,0.0128598
0.00755439,0.0137086
-0.0128729,0.00368384
-0.0171486,-0.00781297
-0.00847725,-0.00378061
-0.00975201,0.00436788
0.00168551,0.00536234
0.00433855,-0.0201094
-0.00663341,-0.00893796
-0.0130128,0.00175357
0.00194548,-0.0145673
0.0141899,-0.0113005
0.00714405,-0.0027038
0.000454506,-0.00419633
0.0023438,-0.0148015
-0.00511739,-0.0146104
-0.0242956,0.0153662
-0.0211516,0.0134934
0.00386301,0.00721878
0.0154084,-0.00288068
0.0159292,-0.00512793
0.00713942,0.00217416
0.000768236,0.000776442
0.00381621,0.0015641
0.0126607,0.0126886
0.0112488,0.0213745
0.00356812,0.014106
-0.00310333,-0.00280259
-0.00651898,-0.0105738
-0.00786406,0.00766957
-0.00208844,0.0159373
-0.00641186,0.00145256
-0.0188808,-0.0360573
-0.0188985,-0.0160007
-0.0132386,-0.0133287
-0.0133393,0.00216014
0.000946897,0.00257122
0.0202707,-0.013265
0.030933,-0.00209711
0.0292604,0.00058872
0.0280242,0.00381666
0.0146556,0.00894769
-0.00973948,0.00757675
-0.0152042,0.000801604
-0.00458722,-0.0137225
-9.22e-05,-0.0119588
0.00193356,-0.0064241
0.00574214,4.57e-05
-0.000172718,0.0124184
-0.00360174,0.0142619
-0.0108878,0.0064574
-0.00965202,0.0026631
-0.00058146,-0.00430329
-0.00705771,-0.0139461
-0.00248393,-0.00544192
-0.000242581,0.0064702
0.00060735,0.00800586
0.00854774,0.00835823
0.01052,0.018014
-0.00874656,0.0192678
-0.0270717,0.00891221
-0.0165787,-0.009187
-0.00290994,-0.00961286
0.00377697,0.0135999
-0.00669509,0.046998
-0.00768596,0.041913
-0.0122352,-0.00744533
-0.00544565,-0.0103611
0.0106033,-0.0294831
0.0237036,-0.0510322
0.0223598,-0.0154688
0.0193235,-0.000241413
0.0196784,-0.0302478
0.0152068,-0.0361915
0.00654098,-0.00157476
-0.00500585,0.0191891
-0.00610414,0.0157175
0.000715013,-0.00858543
0.00297902,-0.0137409
-0.00577922,-0.000100074
-0.00281688,-0.00303038
-0.00042962,-0.0110792
-0.00382266,0.00244955
-0.0086429,0.0193893
-0.0116285,0.0133267
-0.00597689,0.00536293
-0.00105184,-0.000225344
-0.00605532,0.00325074
-0.0152688,0.00735892
-0.0142199,0.00671821
-0.00560268,0.0100546
0.00628486,0.0149217
0.0249574,0.0125783
0.0259029,-0.00108968
0.0151257,-0.0157715
0.00587231,-0.0135792
-3.82e-05,-0.010911
-0.00700697,-0.00545413
-0.0170841,0.00215596
-0.0141533,0.00767881
-0.00291902,0.00492745
0.00518101,0.0011354
0.00772551,-0.00588339
0.00745582,-0.0138417
0.00135973,-0.0057585
-0.0108127,0.00516896
-0.0116546,0.0076907
-0.0172608,0.00601584
-0.0262811,0.0117151
-0.0166421,0.0139969
-0.00158132,0.0072508
0.00451354,-0.00208271
0.00920675,-0.00728973
0.0130461,0.0017428
0.00485898,0.00596255
0.000561097,0.00379283
0.00586664,0.0151488
0.0035837,-0.00261981
0.00289731,-0.00897972
0.00487844,-0.00247057
0.00375293,0.0050951
-0.00681694,-0.00328749
-0.00145651,-0.0385662
0.00289474,-0.0249021
0.0085555,-0.00102265
0.00631338,0.0209615
0.00264594,0.0137138
-0.00758636,-0.0045887
-0.0214455,-0.0081277
-0.0244378,-0.00544049
-0.0132371,-0.00903244
-0.00579586,-0.0110048
0.000591926,0.0051066
0.0197186,0.0142873
0.0384199,0.00551146
0.0321185,-0.00108673
0.0239052,-0.0124416
0.0249005,-0.010536
0.0261267,0.00357723
-0.000320136,0.00700027
-0.0303605,0.0025428
-0.0278686,0.00916567
-0.0257276,0.00937349
-0.0150752,0.00365974
-0.00846087,-0.00615448
0.00124324,-0.00824275
0.0118886,-0.00353975
0.00696502,-0.00284282
0.0134882,0.00688183
0.0195564,0.00818699
0.00945609,-0.00170955
0.00290617,-0.00080792
-0.000430762,0.00608776
0.000876522,-0.000495286
-0.00439458,-0.00625182
-0.0128344,0.0028564
-0.0257745,0.0135976
-0.0290074,0.0172781
-0.0336101,-0.0032615
-0.0289376,-0.0176852
-0.00879805,-0.00104693
0.00155814,0.00675917
0.0105517,-0.0296231
0.0250644,-0.0211451
0.0224176,0.00883526
0.00595334,0.0107005
0.00631237,0.00493705
0.0105288,0.00422889
0.0112894,0.00572889
0.00801722,0.00152325
0.00812363,-0.00978272
0.0128629,-0.0147665
0.0155386,-0.00307156
-9.41e-06,0.00519353
-0.0217003,0.00855621
-0.0189728,0.0138612
-0.00611458,0.0158664
0.0025338,0.00442051
0.00725747,-0.00354231
0.00379949,-0.0137696
-0.00214818,-0.021043
-0.00409148,-0.00222095
0.000220536,0.0104691
0.0124126,0.0231009
0.0177465,0.0147307
-0.00447567,0.00590548
-0.0161379,0.00667602
-0.0364818,-0.0150655
-0.0508479,-0.00889951
-0.0373413,0.00105558
-0.00210067,-0.00287031
0.0283331,0.00209732
0.0258448,0.0117064
0.0102555,-0.00793624
0.0126715,-0.0267902
0.0235293,-0.007568
0.0351492,0.00110456
0.0275338,-0.0151473
0.00133853,-0.01057
-0.0165297,0.0130061
-0.0195398,0.0348178
-0.0154663,0.0305882
-0.00976238,0.00512674
-0.00988669,-0.0381667
-0.0126547,-0.0509081
0.00194216,-0.00641587
0.0203742,0.021581
0.00613906,0.00494644
-0.00485574,0.014347
-0.0112713,0.0279603
-0.00549705,-0.000666821
0.00895764,-0.0285311
0.0122819,-0.0379427
0.00179334,0.0127403
-0.00587706,0.038513
-0.00565416,0.0385762
-0.00333086,-0.00970902
0.00303612,-0.0336966
-0.00130424,-0.00606855
-0.000740065,0.00165393
0.012509,-0.0165478
0.00481609,-0.00795573
-0.00410413,0.00829356
-0.00476452,0.0103082
-0.007342,0.0152293
-0.0104764,0.0184962
-0.003717,0.0113355
0.0107636,-0.00081941
0.0158272,-0.00725671
0.00593392,-0.010162
0.00205637,-0.0093867
0.00746572,-0.00356951
0.0171794,0.00488797
0.00994834,0.00792125
0.00596488,0.00465646
0.0166634,-0.000433506
0.00838044,-0.0148029
-0.0205566,-0.018767
-0.0238912,0.00118457
-0.0212091,0.013599
-0.0224473,0.00400048
-0.0177093,-0.00440053
0.00276579,0.00134773
0.00908946,-0.000414171
0.0031683,-0.00906663
-0.003788,-0.0015588
-0.0125023,-0.000799218
-0.0146657,0.00165204
-0.00908155,0.00884196
-0.00479134,0.0102691
0.00295543,0.0094805
0.00874776,0.00638217
0.00486188,-0.00118947
0.00827457,-0.0124684
0.0185997,-0.00961281
0.022299,0.00350198
0.0169109,0.00170397
0.0161473,-0.00263304
0.0251218,0.0122267
0.000978023,0.0219302
-0.0309564,0.000608489
-0.032069,-0.0216702
-0.0264059,-0.0216922
-0.0192527,-0.0326717
-0.0123601,0.0215683
-0.00341256,0.0458272
0.00581724,0.00456203
0.00530588,-0.0235696
-0.00631859,-0.0248503
-0.00219262,-0.00988538
0.00626962,-0.00968079
0.0131804,0.00914037
0.0152067,0.0185669
0.0199484,-0.00142025
0.0245506,-0.0118878
0.0260409,0.00700612
0.0241677,0.00750883
0.0159782,-0.00656931
0.00723195,-0.0128552
-0.00350338,-0.00112411
-0.012711,0.00335685
-0.00790778,0.0035244
-0.0147018,0.00942818
-0.0430264,0.0144202
-0.0515067,0.00283681
-0.0237532,0.00788105
0.00926354,-0.0113421
0.0277876,-0.0219417
0.0241416,-0.00608869
0.00593295,0.0114116
-0.00879426,0.00629043
-0.0147491,0.00984884
-0.00421922,0.00914633
0.0114663,0.00122682
0.013794,-0.0109143
0.0145235,-0.0115743
0.00134723,-0.00907868
-0.00819577,0.00669898
-0.0117533,0.0387764
-0.0165854,0.0339605
-0.0104631,-0.00861488
-0.00392999,-0.048342
0.00400407,-0.0373625
0.00919435,-0.015372
0.0125158,-0.0140785
0.00900206,-0.0015306
-0.00400092,0.0121395
-0.00659302,0.0167499
-0.00536634,0.0176767
-0.00201702,0.0253455
0.0042872,0.0287091
0.00667583,0.0204209
0.00343016,0.00603116
0.00466479,-0.0474691
0.0100183,-0.0283279
0.0110404,0.00213438
0.00740206,0.0110132
-0.00314741,0.0128194
-0.013026,0.00484578
4.17e-05,-0.00417304
-0.00222612,-0.019466
-0.0171381,-0.013666
-0.0195582,0.00546113
-0.00689989,0.00274986
-0.00247585,0.0142519
-0.0163005,0.0338688
-0.0121938,4.35e-05
0.0228477,-0.0206308
0.0386153,-0.0194513
0.0165085,-0.00261782
-0.00491431,-0.00384149
-0.000434437,-0.00662874
-0.00268493,-0.00239918
-0.00825146,-0.00398648
-0.00537909,0.00598594
-0.00124804,0.0179991
-0.00219395,0.00578531
0.00412381,-0.00969655
0.0201217,-0.00297392
0.0197032,0.00411668
0.0092237,-0.000895237
-0.00964993,-0.00144803
-0.0216184,0.00535036
-0.0178555,-0.00135258
-0.0068586,-0.0130525
-0.0131859,-0.00601731
-0.0193449,0.00304261
-0.0152196,-0.00936393
-0.00495558,0.00929489
0.0146586,0.0216864
0.0221126,0.0150583
0.00784294,-0.00929561
0.00560183,-0.0194559
0.0143962,-0.014931
0.00528743,-0.0183452
-0.00425634,-0.0017372
-0.00418558,0.0120435
0.00323149,0.0147565
0.00222772,0.0152968
-0.000980403,0.0124877
-0.00345195,0.00547897
-0.00274812,-0.00334004
-0.0193485,0.000950527
-0.0123019,-0.000450368
0.0100993,-0.00341881
0.0104805,-0.00110002
0.0134194,0.00220355
0.0274828,0.000876668
0.0195447,0.000295137
0.00611825,-0.00913742
0.00285058,-0.0173686
0.00288943,-0.0126562
-0.00087274,-0.00090077
-0.00278576,0.0028991
-0.00629757,0.0062685
-0.0111003,0.00731832
-0.0114754,0.00212861
-0.00797372,-0.0100448
-0.00891228,-0.00481117
-0.0101828,0.0109528
-0.00623538,0.00956421
-0.000795398,0.0123134
-0.019453,0.00477106
-0.0373573,0.00074458
-0.019686,0.0486617
-0.0024791,0.0447143
-0.00490875,-0.0300197
-0.00586349,-0.052426
0.00879483,-0.00440347
0.0339978,0.0205208
0.042356,-0.0121429
0.02623,-0.041956
0.00493122,-0.0167762
-0.00992732,0.00822716
0.00308862,0.0337407
0.0184992,0.03085
0.0185419,-0.0126814
0.00990751,-0.0541537
0.000706441,-0.0201674
-0.0159276,0.00425429
-0.0288646,0.00467698
-0.0263758,0.00368791
-0.0162162,0.000846223
-0.0204437,-0.0192899
-0.0159026,-0.0193771
0.0171647,0.0183838
0.0261188,0.010108
0.0119808,0.00158742
0.0147696,0.0150705
0.00796244,0.0182607
-0.00575606,0.00633457
0.0029924,-0.0114361
0.00415794,-0.00515031
-0.000542129,0.00438988
0.00286917,0.00767918
0.00744791,0.00775937
0.0034939,0.00423218
-0.00336037,-0.000290021
-0.00815537,0.00155608
-0.00333401,-0.00403965
0.00236931,-0.0127302
-0.00222703,-0.0127099
-0.00865558,-0.0041074
-0.00795169,-0.000646436
-0.00687696,0.00677284
-0.000238205,0.0166006
0.0149415,0.0146732
0.0246263,-0.000665005
0.0140578,-0.00779349
-0.0018989,0.00148786
-0.0162096,0.00811801
-0.0397267,0.00908841
-0.0571146,0.00948648
-0.0387856,0.0123077
0.00124046,0.0112182
0.0134066,0.0141524
0.0155116,-0.0252009
0.0270827,-0.0408131
0.0209797,4.92e-05
0.00474802,0.0296134
0.00739084,-0.0220454
0.00486557,-0.0402421
-0.000160543,-0.0149689
0.00871676,-0.00419289
0.0250532,-0.00735125
0.0192334,-0.00960901
-0.00543409,0.00145712
-0.00863532,0.00719597
0.00244683,0.0123939
0.00912937,0.00863442
0.00295895,0.0118665
-0.0011346,0.0169526
0.00162232,0.0123668
0.0089774,0.000883195
0.00318892,-0.0112847
-0.00911968,-0.00762637
-0.018715,0.000351591
-0.00862362,0.00364037
0.00811319,0.0128077
-0.00610558,0.0176237
-0.0110098,0.00332121
0.0144211,-0.0197582
0.0122438,-0.0161864
-0.0107028,-0.000451394
-0.00588809,0.00340407
0.00392035,0.00543327
0.000431993,0.0027786
-0.00344887,-0.00143195
-0.00118903,0.00699383
-0.000295755,0.00315436
0.00103228,-0.0131441
-0.00589189,-0.0197491
-0.0169257,-0.00729545
-0.0162664,0.00464036
-0.0045706,0.0135287
-0.00472725,0.0120914
-0.0017239,0.0111652
0.00580667,-0.0108538
-0.00103884,-0.0145067
-0.000381703,0.0104573
0.0017075,0.0225175
0.000341757,0.0346689
-0.00189018,0.0244885
-0.00823787,-0.0168695
-0.00371924,-0.0359133
0.00112491,-0.0357569
0.00256571,-0.0204085
0.00210105,-0.00421123
0.00978056,0.0232316
0.0194422,0.0338387
0.0131885,0.0302218
0.00347173,-0.00892142
-0.0105906,-0.0232911
-0.00400777,-0.00998815
0.0051712,-0.0155127
0.000706092,-0.0197424
-0.0132652,-0.02114
-0.00238294,-0.0177214
0.00851084,-0.00983189
0.00813095,0.0191959
-0.00194525,0.0293913
-0.0255072,0.0141757
-0.0131663,-0.0024016
0.0140947,-0.0152842
0.0234681,-0.0328584
0.0234053,0.001742
0.00634386,0.0267096
-0.014395,0.0225553
-0.0185066,0.0298283
-0.00965584,0.0195428
-0.00441856,-0.00246275
0.000515821,-0.0208625
0.00945941,-0.0149002
0.0144551,-0.00384166
0.0114212,-0.00619566
0.0075539,-0.00164652
0.00637565,0.00122145
0.00552577,0.000221572
0.00540486,0.0015263
0.00410335,-0.000551173
0.00362649,-0.00830816
-0.00424359,-0.00568094
-0.00768902,0.00185943
-0.00869935,0.00370474
-0.0111449,0.0106868
-0.0206424,0.0193592
-0.0236508,0.0152777
-0.0166915,-0.000151374
0.00261336,-0.0150088
0.0305495,-0.0178412
0.018115,-0.00458504
-0.000179787,0.0247153
-0.00943685,0.0308837
-0.00995428,0.00493155
-0.0165325,-0.000386253
-0.0156658,0.004846
-0.00638111,-0.00234776
-0.00123707,0.00358571
0.00950016,0.00628356
0.0176783,-0.0160803
0.00697278,-0.0142695
-0.0108419,-0.00664443
-0.00246204,-0.0152383
0.00518212,-0.0307259
0.0051521,-0.0344706
0.00231,-0.0254888
0.00634732,-0.0148483
0.0132477,0.00232493
0.0133877,0.0164964
0.00569808,0.0203838
0.00139074,0.024635
-0.000117331,0.0265036
-0.00211203,0.0201648
-0.000615879,0.00685148
0.00244973,-0.000998754
-0.00601581,-0.000500447
-0.0218584,0.00160551
-0.0204088,0.00809655
-0.00814886,0.00332049
-0.000312671,-0.0136215
0.00838299,-0.0287897
0.017595,-0.0260258
0.0234192,-0.0165885
0.02116,-0.0128009
0.0117963,-0.00186768
0.00201917,0.00921538
-0.00777868,0.014709
-0.0107322,0.0159953
-0.00790328,0.0117962
-0.00411054,0.000545401
-0.0108911,-0.00500987
-0.0301743,-0.0027835
-0.0384299,-0.00711973
-0.0302332,-0.00337664
-0.0176174,0.0139756
-0.00298231,0.0344708
0.0164242,0.0233089
0.03391,0.0266739
0.0244467,0.0478969
0.0161474,0.0150919
0.0205048,-0.0243656
0.0180002,-0.0667651
0.00931818,-0.0574976
-0.00427194,-0.0196058
0.00807266,0.0149787
0.0155318,0.0253922
0.00418971,0.0322167
-0.00837567,-0.0136214
-0.0167148,-0.0287648
-0.0105268,-0.00898882
-0.0061243,-0.00279602
0.0110765,0.00160036
0.0129962,-0.00988991
0.00266512,-0.0218653
-0.00304572,-0.0238409
-0.00411311,-0.0208412
0.00699425,-0.0222315
0.0127714,-0.0141222
0.00953123,0.0304512
-0.00376675,0.04196
-0.0140353,0.029681
-0.0204189,0.0263927
-0.0165045,0.0120441
-0.00838927,0.00784116
-0.0111143,0.0119891
-0.014773,0.0126156
-0.0167206,0.00519734
-0.0195345,0.0116434
0.00153927,0.00361464
0.0240887,-0.0116591
0.0229922,-0.0405936
0.012763,-0.0336446
0.00740348,-0.00347528
0.00496871,-0.001531
0.00217609,0.00236379
-0.0035334,-0.000358829
-0.00036713,0.0163649
0.00757852,0.027897
0.00381671,0.0160047
-0.00575664,-0.00525986
-0.00250472,-4.14e-05
-0.00304624,0.00890048
-0.00792604,-0.00310469
-0.0094653,-0.000198357
-0.011553,-0.00507328
-0.0129777,-0.0019883
-0.00115547,-0.00866103
0.00633006,-0.0284753
0.0024516,-0.0234712
0.00185766,-0.0160634
0.00643156,-0.0113755
0.00440258,0.00417897
0.00310335,0.0184322
0.00191117,0.016847
0.002285,0.0185619
0.0144527,0.0141237
0.0169527,0.00063097
0.00832171,0.00110886
-0.00183887,0.00970322
-0.00403909,0.000996419
-0.00554285,-0.0148635
-0.00844191,-0.000637334
-0.00846918,0.00524032
0.00107077,-0.00973517
0.0019405,-0.0219125
-0.0100357,-0.0158758
-0.0206851,-0.0059781
-0.0219873,0.00156443
-0.0199629,0.0130251
-0.0112819,0.0114576
0.00489422,0.00346217
0.0220894,0.0104254
0.0308603,0.0020126
0.0177475,-0.00832611
0.0122335,0.0065212
0.0137281,0.0073402
0.0148077,-0.00354154
0.00778094,0.00779721
-0.010036,0.0182433
-0.0237599,0.00361957
-0.024232,-0.0186211
-0.0130576,-0.01167
-0.000979845,-0.0137315
0.00784704,-0.0141786
0.00992139,0.00408113
-0.00252506,0.00630275
-0.00710013,0.00587134
0.00232237,0.0121524
0.014921,0.00112657
0.0228646,-0.0120119
0.0171615,-0.00487616
0.00641525,0.0104955
-0.00935339,0.00749246
-0.0140898,0.00151105
-0.0257372,0.000945127
-0.0164044,0.00877341
0.016906,0.00419463
0.0297027,-0.0157621
0.0208116,-0.0179142
0.00454113,-0.0122858
-0.0102468,-0.00121465
-0.0240221,0.0138915
-0.0143948,0.00835637
-0.00732574,0.00111862
-0.00549827,-0.000563692
-0.00135938,0.00147548
0.00570577,0.00133553
0.00943767,-0.00746003
0.00402065,0.00187184
0.00033401,0.0111426
-0.00609284,0.0251424
-0.00981844,0.0334393
-0.00364785,-0.000535315
0.0118501,0.00848068
0.00528754,-0.0163432
-0.00144819,-0.0192397
0.00314604,-0.0354707
-0.00160507,-0.0515478
-0.0270735,-0.0172186
-0.050395,0.0206126
-0.0425522,0.0227676
-0.0358421,0.00826307
-0.0184217,-0.00362264
0.00577309,0.0041311
0.0287395,-0.00523984
0.0383743,-0.0109884
0.0371974,-0.0152448
0.0327089,-0.00096333
0.031147,0.0178401
0.0224611,0.00992042
0.00479227,-0.00826807
-0.00185375,-0.0120197
0.00451037,-0.00391453
0.0126462,0.00255
0.0149702,0.0101809
0.00799337,0.0154409
0.00490746,0.0145153
0.00175653,0.0107682
-0.00176257,0.00574794
-0.00254844,-0.00774443
-0.00278582,-0.00882831
-0.00968109,0.000920909
-0.0158297,0.00313566
-0.0175772,0.00113645
-0.0144416,0.00694043
-0.00909225,0.0105013
-0.00389963,-0.00344228
0.00509396,-0.0175663
0.00472997,-0.013456
-0.00392082,-0.00344696
-0.00367137,0.0089725
0.00919159,0.017865
0.0215145,0.01878
0.0118709,0.0189789
-0.00915781,-0.0039308
-0.0107942,-0.0149331
-0.0133162,-0.0169776
-0.0208889,0.00115156
-0.024095,0.00161316
-0.0115618,-0.000924164
-0.00671461,-0.00209122
-0.00362048,-0.00872035
-8.51e-05,-0.0114763
0.00506615,-0.0120339
0.00726227,-0.00335651
0.0051487,0.00625753
0.0114833,0.00266325
0.010225,0.00792684
-0.000597831,0.0103696
0.00446973,0.00545804
0.00780211,-0.00743648
-0.00498163,-0.00327616
-0.00109701,-0.0140396
0.0183907,-0.0185659
0.0126697,-0.00119858
-0.00678911,0.0069648
-0.00200555,0.00487828
0.00857996,0.00987277
-0.000665674,0.0154893
-0.00586171,0.00683177
-0.0057688,-0.0115968
-0.00129771,-0.0149251
-0.00180425,-0.00851199
-0.000186626,-0.00328369
-0.0027272,0.00779662
-0.00713286,0.0112127
-0.00105994,0.00904227
-0.00367068,0.00504353
-0.000554313,0.00325456
0.00273542,-0.0103342
0.0049022,-0.0117344
0.00748625,0.00676122
0.00313403,0.00834019
-0.00887305,-0.00263265
-0.00902148,0.00698116
-0.00906284,0.0267332
-0.0079322,0.00886007
-0.000924996,-0.0281942
0.00840699,-0.0196712
0.0105432,-0.0145888
0.0149585,-0.0032415
0.0311995,0.00804003
0.0285478,0.0191514
0.00244582,0.0157385
-0.0164611,0.0107333
-0.023352,-0.00290424
-0.0205428,-0.0145083
-0.0160261,-0.01046
-0.0118592,-0.00501552
-0.00858135,-0.00287296
-0.0264983,0.00374898
-0.0246773,0.012054
-0.00482224,0.00657228
0.012942,-0.00834185
0.0244024,-0.00534637
0.0294742,0.0224247
0.030303,0.0285649
0.0137634,-0.0190719
-0.00655116,-0.0216466
-0.0129971,0.003556
-0.0123539,0.00142807
-0.00686807,0.00946228
-0.00580873,-0.0171577
0.00682904,-0.0277222
0.0194319,-0.00239649
0.0105753,0.00691006
-0.00330243,0.00333794
-0.0110761,0.00381671
-0.0147443,0.012494
-0.0204935,0.00705168
-0.0134198,-0.00974872
1.1e-05,-0.0160316
-0.0173273,-0.0187187
-0.0116057,-0.0128277
0.0131786,0.00699649
0.0168089,0.0141353
0.0217514,0.00783325
0.0194211,0.00319303
0.0124285,0.00856894
0.000162977,-0.0057088
0.00417178,-0.0213335
0.0132294,-0.0118146
0.0163805,-0.00775502
0.0113953,-0.000304799
0.00291794,0.0219216
-0.00596596,0.0318731
-0.0237604,0.0130346
-0.033928,-0.00695299
-0.0308239,-0.00887713
-0.0213793,-0.00978485
0.00777829,-0.00409994
0.0273654,0.00738157
0.0281923,0.0156733
0.0196283,-0.00126654
0.0130286,-0.0020857
0.00558556,-0.0021645
0.00566143,-0.00861851
-0.00224808,-0.00238224
-0.00669381,0.00865607
-0.00241913,0.00629819
-0.000624466,0.00622186
0.00188419,0.00781056
-6.18e-06,0.00606585
-0.000924607,-0.00179503
-0.00690235,-0.00865282
-0.00632851,-0.00615371
-0.0014683,-0.0102772
-0.010603,-0.00559416
-0.0255168,0.00523055
-0.0300263,0.013439
-0.0167516,0.0102406
-0.00125915,-0.011687
0.00077783,-0.0209609
0.00173355,-0.0165719
0.0071805,0.00624505
0.0127365,0.0193091
0.018433,-0.00052088
0.0212969,0.0123118
0.00809201,0.0175277
-0.00198609,0.00510198
0.0108415,-0.0170314
0.0194688,-0.0162536
0.00230897,-0.00499274
-0.0148945,0.00303394
-0.0156232,0.00831543
-0.0131786,-0.000619248
-0.0137639,-0.00559893
-0.0180334,-0.0100634
-0.0143853,-0.000867345
0.0103058,-0.00579788
0.0178996,-0.011049
-0.00102232,0.00135061
-0.00628457,0.00211763
0.00829969,0.00316044
0.00571024,0.0164942
-0.00233924,0.0187493
-0.0129184,0.00337626
-0.0115042,-0.0191031
0.0124888,-0.0118835
0.0189036,-0.00270083
0.02891,-0.004004
0.0271219,0.00325105
0.0140487,0.0125697
0.00197091,0.0188809
-0.000615761,0.00811355
-0.00432538,-0.0125855
-0.0198221,-0.0231937
-0.0231708,-0.031633
-0.0137273,-0.00159693
-0.00636049,0.00792733
0.000668555,0.0115538
0.00601103,0.0269541
-0.0112028,0.0302384
-0.0246815,0.0110979
-0.0104192,-0.00554611
0.00607069,-0.0111995
0.00919783,-0.0230801
0.0187716,-0.00795772
0.0254643,0.00671622
0.00488109,-0.000554159
-0.0193863,-0.00865987
-0.0227352,0.00907096
-0.0111864,-0.0041007
-0.00135989,-0.0219667
0.00769579,-0.0111453
-1.49e-05,0.000318134
-0.0164663,0.00708202
-0.00295815,0.0100437
0.0140022,0.0132248
0.0114311,0.00503341
0.010291,-0.0102723
0.00591295,-0.0110921
0.000204706,0.000826977
0.00020754,0.0061544
-0.00995371,0.00194704
-0.0158671,0.00789136
-0.00552686,0.0122965
0.00563148,0.00432778
0.00846156,-0.0012367
0.0137847,-0.00518372
0.0148399,-0.00291515
0.00712469,0.00118516
0.00430651,0.00577016
0.0110841,0.00457035
0.00756052,0.00722934
-0.00474905,0.00720633
-0.002188,-0.00606049
0.0055955,-0.0135044
0.00034934,-0.00680067
-0.00388969,0.000348546
-0.00798886,0.00307939
-0.00468497,0.00320962
-0.00641162,0.00467548
-0.0155652,0.00156106
-0.0132627,0.000377544
-0.00795721,-0.00716162
0.000793539,-0.0140898
0.00367699,-0.0122279
0.00243478,-0.00771583
0.00774791,0.00243074
0.0126495,0.01227
0.00484778,0.0119686
0.00129864,0.00778667
0.00286338,-0.00842297
0.000417027,-0.020361
-0.00264402,-0.0114777
-0.00230319,-0.00326097
-0.00916235,0.00847709
-0.0128337,0.0107557
-0.00221867,0.00395301
0.0121843,0.0113574
0.0136204,0.0111276
0.00359433,-0.00505437
0.00251035,-0.00955158
-0.00325981,0.000484124
-0.00992961,0.00931151
-0.00495639,-0.000927534
0.00706485,0.00148607
0.00571046,0.00891549
-0.0104193,0.00314719
-0.0153955,-0.0110097
-0.00825148,-0.014136
0.00346973,-0.00497619
0.00662865,-0.00374882
0.0189879,0.00243334
0.0291785,0.0124971
0.0162911,0.00639325
0.00118848,-0.00615408
-0.006501,-0.0152399
-0.00132638,-0.0109761
-0.0024385,-0.00238154
-0.0160137,0.00610766
-0.0120387,0.0125887
-0.00640574,0.0100452
-0.00199677,0.0140615
0.00363311,0.0176903
0.00154574,0.00812949
-0.00263606,-0.0187476
-0.0130888,-0.0279601
-0.0140305,-0.0108777
-0.0189118,0.0045588
-0.0323351,0.0153404
-0.043656,0.0120889
-0.0181033,-0.0031278
0.00528466,-0.0036359
0.00337363,-0.00527443
0.0126586,-0.0045705
0.0295837,0.00967354
0.0383558,0.012028
0.0342618,-0.00452273
0.0248487,-0.0285819
0.00988197,-0.00485599
0.00711825,0.000371493
0.0169902,0.00101982
0.0268017,-0.00241742
0.0304457,0.00654562
0.00204454,0.00257509
-0.0640637,0.00043304
-0.0813204,0.00521146
-0.0276088,0.00435188
0.00973675,0.00196271
0.0107964,0.00536258
0.0141109,-0.013273
0.0165422,-0.0286622
0.02009,-0.0138197
0.0134949,0.00860659
0.00518976,0.011671
0.00145882,0.00639047
-0.00456584,0.00910871
-0.0064063,0.0205909
0.000380701,0.0117921
0.00725652,-0.0140903
0.00704984,-0.00401073
-0.00134903,0.000600675
-0.007378,0.00712257
-0.00961931,0.0170323
-0.0137819,0.00986364
-0.016428,0.00401288
-0.0146877,0.00585884
0.00185173,-0.0196494
0.0103592,-0.0270786
0.00869512,-0.0119219
0.00792314,0.000311152
0.0081598,-0.00162057
0.00721787,0.00285092
-0.000648428,0.00830202
0.000791939,0.00193121
0.00335181,-0.010741
0.00250112,-0.00769854
0.00310377,0.00144968
-0.00215851,0.00547086
-0.0162372,0.00596903
-0.0152132,0.00757233
-0.000510366,0.00778253
0.00781869,0.00830807
0.0139404,0.000919882
0.0158895,-0.0100574
0.00399983,-0.00935697
-0.0144945,0.00382593
-0.0199045,0.00339731
-0.0159103,0.00254591
-0.0152878,0.00909048
-0.00864808,0.00774863
8.78e-05,-0.00737413
0.00980355,-0.0149152
0.0260431,-0.00712791
0.0341104,-0.00727385
0.0253518,-0.00628012
0.0118553,0.00304706
-0.00548849,0.00977785
-0.0240428,0.0102728
-0.0328533,0.00695453
-0.0221903,-0.00599493
-0.00547452,-0.0171341
-0.000762439,-0.00969124
-0.00163869,0.000456487
0.0024176,0.00072416
0.00203874,0.00487439
-0.00912183,0.013247
-0.00710169,0.00994859
0.00314285,-0.00282499
0.0080972,-0.00665902
0.00732904,-0.00160507
0.00815979,-0.0018301
0.0101719,0.00184939
0.00696103,0.00696327
0.00189198,0.00586971
-0.00108781,0.00356054
-0.00332601,-0.0036183
0.00218337,-0.0179865
0.00780316,-0.0185038
0.00438493,-0.00701573
-0.00238329,0.00157291
0.00165513,0.00310769
0.0013078,0.00595332
-0.00833039,0.0123951
-0.00767994,0.00498142
-0.0094771,-0.00708691
-0.0147463,-0.00443645
-0.0111634,-0.00148093
-0.00693015,0.000186231
-0.00394152,0.00583031
0.00302558,0.00828452
0.010566,0.00674582
0.0127981,0.00898436
0.0130876,0.000732957
0.0181507,-0.0242966
0.0131902,-0.022999
0.00515851,0.0068148
-0.00279769,0.016381
-0.0113522,0.00906614
-0.0129323,0.0133069
-0.00346865,0.0110981
0.00162002,-0.0011301
0.00237703,-0.0113069
-0.000388492,-0.00632017
-0.000349682,-0.00514978
0.0035207,-0.00249925
0.00171595,0.00306319
0.00342427,0.00617889
0.000428274,0.00137057
-0.00346742,0.0038652
-0.00335695,-0.00692512
0.00308088,-0.0143891
0.00660895,-0.00729143
-0.00208502,0.00226761
-0.00662345,0.00716409
-0.00809935,0.0125433
-0.00848151,0.0083677
-0.00305433,-0.00293175
0.00287196,-0.00715259
0.0044492,-0.00999985
0.00347254,0.00413787
-9.93e-05,0.00314659
3.65e-05,-0.00109419
0.0126825,0.0111947
0.0264742,0.0109095
0.0248261,0.00141166
0.0160068,-0.00245314
0.00868445,-0.0108763
-0.00627482,-0.0127578
-0.0253802,-0.00194077
-0.0322593,0.00153758
-0.0180851,-0.00474324
-0.0116676,-0.00195247
-0.00734595,0.00778169
0.00570537,-0.00415549
0.0171921,-0.0103352
0.0140365,0.00795284
0.0013183,0.0061302
-0.000574689,0.0039003
-0.00953416,0.0118226
-0.0194713,0.015307
-0.0195572,0.00794872
-0.00947788,0.0033534
-0.00376359,-0.00392715
0.00259897,-0.0176833
0.00423151,-0.0195516
-0.00144893,-0.000851496
-0.0054196,0.00281588
-0.00651152,0.00216552
-0.00432645,0.00501756
0.00290765,0.00940689
0.0079104,-0.00472467
0.0110423,-0.0143209
0.00705911,-0.00633154
0.00316558,-0.00652361
0.00266231,-0.00214232
-0.000740249,0.0073259
-0.0075322,0.0064553
-0.00161909,0.00175135
0.00245965,0.000844604
0.0119975,-0.00833562
0.0202765,-0.0173449
