Comp Ch 3,Comp Ch 4
-0.107008,-0.00594841
-0.0439846,0.00770064
0.0125923,0.0207067
0.0410809,0.0324778
0.0663354,0.0441951
0.0821004,0.0206053
0.0737697,-0.0513844
0.0430175,-0.0428233
0.0373649,-0.00504794
0.0447066,-0.0115692
0.0459282,0.00658342
0.0365071,0.012815
0.0116165,0.00376681
0.0116109,0.00458795
0.0144722,-0.0112623
0.00820515,-0.0220462
-0.0124826,-0.0389214
-0.0309296,-0.0351476
-0.028864,0.00328413
-0.0320177,0.013842
-0.0344496,-0.0074577
-0.017962,0.00752148
-0.0127294,0.0224071
-0.0152832,0.015916
-0.00436137,0.00596289
0.00804088,-0.00022786
0.0183405,0.0109446
0.0185327,0.0116614
0.00994094,0.0158293
-0.0026869,0.0201688
-0.0130649,0.0121652
-0.0128019,-0.00742442
-0.011274,-0.0316574
-0.0179513,-0.0221757
-0.0407412,-0.017894
-0.0386884,0.00914097
-0.0186173,0.0070776
-0.00663392,-0.00318298
-0.00471445,0.0139258
-0.00310565,0.0206249
-0.00189863,-0.00448826
0.00657934,-0.0245548
0.0210481,-0.00646636
0.0389036,0.00922834
0.0635369,0.00975943
0.0614773,0.00734291
0.0354364,0.000505807
0.012399,0.00614489
-0.00874685,-0.021963
-0.0286358,-0.0129042
-0.0352749,0.0165674
-0.0441672,-0.00114587
-0.0543118,0.00174528
-0.0436913,-0.0277022
-0.0164457,-0.016123
-0.00393749,0.0335436
-0.00827027,0.0201809
-0.00284356,-0.0116166
0.0124811,-0.0121404
0.0219323,0.00474449
0.0309566,0.00852564
0.0348685,0.0125969
0.0215776,0.0179915
0.0150552,0.0188629
0.0225503,0.0131741
0.0322069,-0.0112571
0.0277452,-0.0223072
0.0129205,-0.0072721
-0.0192561,-0.00946032
-0.0413439,-0.0123873
-0.0415514,-0.000430095
-0.0324337,0.00944217
-0.0109097,0.00644699
-0.00394883,-0.00515116
-0.00527821,-0.0207405
-0.00637534,-0.0217204
0.00260307,0.00605682
0.00302218,0.0253952
0.00207197,0.0238113
8.31e-05,0.0212248
-0.00028839,0.0161557
0.0178946,-0.00518658
0.0412919,-0.0232508
0.0352447,-0.0167632
0.0240581,-0.0113148
-0.00985043,-0.00838854
-0.063609,0.000399522
-0.0658027,0.0132493
-0.0211381,0.00787431
0.0201497,0.00314171
0.029109,-0.000579029
0.0505057,-0.00915942
0.0413066,-0.00141526
0.0228923,-0.0101444
-0.0339477,0.00304415
-0.0932192,0.0259507
-0.0966867,0.00828795
-0.063021,-0.0058653
0.00829383,-0.0145765
0.087531,-0.0367642
0.129921,-0.0102478
0.0941118,0.008799
0.0440743,-0.000922479
0.00703115,-0.00610884
-0.0429865,-0.00159795
-0.0908592,0.0112335
-0.0867089,0.00787716
-0.049181,-0.0167914
-0.0456026,-0.0156652
-0.0558968,0.00020323
-0.0515573,0.00324436
-0.00355053,0.0104996
0.0310231,0.01632
0.0585199,0.0245004
0.0902091,0.0163278
0.0677997,-0.00687493
0.0488227,-0.018169
0.0369691,-0.01317
0.0323293,-0.0131877
0.0442901,0.00959863
0.0331521,0.0310502
0.00567233,0.00404144
-0.00901888,-0.0107551
-0.00902522,-0.00212857
-0.00819548,-0.0105666
-0.000869134,-0.0116824
0.00272916,0.00885663
0.00604849,0.0183882
0.00354226,0.0278435
-0.00815479,0.0130021
-0.0206043,0.00522761
-0.031841,-0.00810716
-0.0350133,-0.0258708
-0.0343815,-0.0261287
-0.0324962,-0.0211178
-0.0283988,-0.00592939
-0.021866,0.0023994
-0.0172072,0.00553488
-0.00788028,0.00995989
5.54e-05,0.0103896
0.00631661,-0.00404313
0.0141742,-0.0201301
0.0180916,-0.00691759
0.0151238,0.00976129
0.0145912,0.0160803
0.0132821,0.0257855
0.014483,0.0225979
-0.000253304,0.0106827
-0.0165855,-0.0111024
-0.0281919,-0.0243642
-0.0332844,-0.0204285
-0.0300509,-0.0206955
-0.0167526,-0.0113064
-0.0108864,0.00255214
-0.00860013,0.00802825
0.00109935,0.00563645
0.00794091,-0.00142796
0.0224984,-0.00843501
0.0345807,-0.0143071
0.0314428,-0.00298309
0.0275444,0.0127225
0.0248834,0.0153232
0.0232236,0.023227
0.0169365,0.0290759
0.0107674,0.0144807
0.00276895,-0.0445872
-0.0118515,-0.0256676
-0.0243834,-0.0111892
-0.0421425,-0.00429984
-0.0443205,0.0124814
-0.0329986,0.0418474
-0.0181208,0.0424514
-0.00130544,0.0279125
0.0103361,0.00242812
0.0156405,-0.00739374
0.0160163,0.00326219
0.0220747,0.0121033
0.0319443,0.00593721
0.0394121,-0.00528035
0.0359767,-0.0173614
0.0334547,-0.0375943
0.0251471,-0.0534262
0.00513158,-0.0378431
-0.0300433,-0.0282661
-0.0519669,-0.019842
-0.0675098,-0.00495431
-0.0695599,0.0118303
-0.0462663,0.0282958
-0.0172403,0.033411
-0.0122167,0.0219387
0.0208374,0.00167951
0.0484779,0.00422416
0.0469991,0.0151665
0.0324557,0.0196417
0.000483998,0.00741015
-0.0363745,-0.00405069
-0.10769,-0.013649
-0.106674,-0.0345053
-0.0901481,-0.0434951
-0.0428055,-0.0332233
0.0442016,-0.0139173
0.135205,-0.00215727
0.14348,0.0282616
0.0900655,0.0388373
0.0500393,0.0353041
0.0303576,0.0345903
0.00445271,0.0151773
-0.0115347,-0.00668989
-0.0186699,0.00126772
-0.00600022,0.00554034
0.00432758,0.000601863
-0.0053624,0.00520865
-0.00941091,-0.00465011
0.01278,-0.0328468
0.005611,-0.0370808
-0.0315065,-0.0371101
-0.0330594,-0.0403232
-0.00200852,0.00103553
0.0116812,0.0149206
0.00151144,0.0193953
-0.000496764,0.0238953
0.0105142,0.0269846
0.0292971,0.0260266
0.031913,0.0088282
0.0180981,0.00186697
0.00894515,0.0196348
0.00181971,0.0206352
-0.00932987,0.0115035
-0.0125291,0.00564046
-0.0139597,7.81e-05
-0.0116413,-0.0194183
-0.00870313,-0.0363209
-0.00771642,-0.0281672
-0.0131341,-0.0196691
-0.0228628,-0.0115112
-0.028089,0.00218656
-0.0312124,0.0182954
-0.0305661,0.0260089
-0.0286251,0.0277256
-0.0238241,0.0096758
-0.0191716,-0.0127844
-0.0069141,-0.00947162
0.00621494,0.00809416
0.0276901,0.00119646
0.0380052,0.00131407
0.0346939,0.00788518
0.0243358,-0.000475955
0.0151292,-0.0213753
0.00973692,-0.0327376
0.00189208,-0.0203804
-0.00777742,-0.013432
-0.0159719,0.000546731
-0.0167201,0.0154911
-0.00887963,0.0170599
-0.00213853,0.00642805
-0.00255504,0.017366
-0.00827774,0.00635293
-0.00829652,-0.0133842
-0.00475953,-0.00531288
0.000320683,0.00629951
0.010667,0.00687725
0.0104277,0.000738348
0.00290723,-0.00828095
0.00349989,-0.0160649
0.0138141,-0.0228583
0.0126024,-0.0218871
0.00407439,-0.0175531
-0.00136288,-0.00498942
-0.00276008,0.0132004
0.00635234,0.0136363
0.0221584,0.0165057
0.021467,0.0220009
0.00809536,0.00912985
0.00236049,-0.00738632
-0.00658314,-0.000875746
-0.021202,0.0130293
-0.0204561,0.0140122
-0.0173188,0.00392153
-0.0174784,0.0119669
-0.0291892,0.0151304
-0.0404308,-0.00682408
-0.0120364,-0.0294587
0.00842795,-0.0293202
0.0108015,-0.0209018
0.0192837,-0.00899639
0.0262184,-0.00281296
0.021454,0.0091702
0.00435331,0.0109041
-0.00694634,0.0115114
-0.00606765,0.00198085
-0.00276888,-0.0130503
0.01275,0.000831528
0.0339148,0.0134711
0.0390333,0.0085291
-0.00539267,0.011865
-0.0396631,0.0105877
-0.0381447,0.00990853
-0.00996932,-0.00726275
0.0322197,-0.021307
0.0564433,-0.0141729
0.064198,-0.0131427
0.0197982,-0.0077459
-0.0795915,0.0149943
-0.114924,0.0261029
-0.121616,0.0121172
-0.0764524,0.00097155
0.00167121,-0.0172975
0.0824758,-0.0226505
0.0944222,0.000912024
0.0599477,0.00809815
0.0516473,-0.00239921
0.0448434,0.0169921
0.0280461,0.0222963
0.00298715,0.00181331
-0.00509208,-0.0218084
-0.00355282,-0.0229514
-0.0206194,-0.00878215
-0.0275266,-0.0114794
-0.0246848,-0.0113181
-0.023962,0.0170754
-0.0199853,0.0262589
-0.013243,0.0271174
-0.0115877,0.0185599
-0.014944,-0.0070223
-0.00785584,-0.0114178
-0.00175091,-0.000519381
0.0042736,0.00491844
0.0110439,0.00908425
0.0250152,0.0167011
0.0417676,0.0135424
0.0520713,-0.00440676
0.0416788,-0.022756
0.0104514,-0.0196178
-0.0249194,-0.0176739
-0.0296658,-0.0157661
-0.0173322,0.00786943
-0.0117437,0.0217365
0.000563513,0.0117266
0.00979632,0.00447435
0.00133942,-0.00458385
-0.00982006,-0.0183272
-0.0144057,-0.0266482
-0.0193695,-0.0105376
-0.0177286,0.0213123
-0.018662,0.0230079
-0.0235894,0.0267736
-0.0231059,0.0225988
-0.0113804,-0.0071604
-0.00105585,-0.0308463
0.0100705,-0.0207879
0.0152916,-0.011803
0.010709,-0.00468403
0.00343221,-0.00165652
0.0010448,0.00437734
-0.00105143,0.00547229
-0.00130732,0.00641009
0.0136316,-0.0056061
0.0311772,-0.00901614
0.026584,-0.00449811
0.0123355,0.00734062
-0.00753545,0.019235
-0.0372231,0.0197492
-0.0377593,0.0072256
-0.0117197,-0.0102449
0.0211102,-0.0307291
0.03345,-0.033215
0.0341866,-0.0195349
0.0660994,-0.0133699
0.0868483,-0.00421338
0.0648284,0.013654
0.012381,0.0219529
-0.0422128,0.0192741
-0.0825374,0.0177556
-0.0809205,0.00285412
-0.0535815,-0.0119371
-0.0318766,0.00415378
-0.0327957,0.0139218
-0.0467696,0.00945864
-0.048631,0.0181392
-0.0293839,0.0199896
-0.0163353,0.001451
-0.00614001,-0.0232523
0.0115802,-0.0207168
0.0209214,-0.0110194
0.0258272,-0.00658566
0.0360175,0.00641716
0.0388932,0.0140107
0.0295023,0.00781502
0.0251014,0.00370727
0.0136191,-0.011662
-0.00955589,-0.0297161
-0.0204868,-0.0525996
-0.00508869,-0.00995227
0.00443146,0.0280001
0.028709,0.0191473
0.0652027,0.0184015
0.0593034,0.0194466
0.0444848,0.00366334
0.0110549,-0.00593215
-0.0343184,-4.17e-05
-0.0541069,-0.000757539
-0.0639532,0.00714258
-0.0660129,0.00517482
-0.0420961,0.0122142
-0.0141054,0.00365418
0.0265962,0.0044661
0.0951486,-0.0158958
0.154276,-0.0305551
0.141666,-0.000419105
0.0788006,0.0105141
0.00182654,0.00397821
-0.084279,0.00943503
-0.14337,0.0171686
-0.130664,0.00539844
-0.108822,-0.0264491
-0.0784151,-0.040225
-0.0395232,-0.0352913
-0.0104181,-0.0377575
0.00594683,0.00935102
0.0105689,0.0360791
0.00997815,0.0250928
0.011204,0.0157279
0.00368293,0.0055974
-0.0101104,-0.00995459
-0.0131683,-0.0201337
0.0176386,0.0113865
0.0511368,0.0215193
0.0515943,0.00710746
0.0426905,0.0152726
0.0611713,0.0210424
0.0763631,0.00616478
0.0684779,-0.0155528
0.0309914,-0.0151504
-0.0101138,-0.00129279
-0.0422983,0.00336406
-0.059393,0.00739217
-0.0560901,0.0179351
-0.0418717,0.00800451
-0.0395352,-0.0172892
-0.0513865,-0.0128564
-0.0467033,-0.0170013
-0.0308797,-0.0429265
-0.00767928,0.00520429
0.0192473,0.0373565
0.00969388,0.0136759
-0.028117,-0.0148669
-0.0398309,-0.00767838
-0.0159514,-0.0155606
0.00700592,-0.0302724
0.0326305,0.00732094
0.0556536,0.01693
0.0579521,0.0101538
0.0681414,0.0205649
0.0958858,0.020708
0.178095,0.00738747
0.263899,0.00985651
0.223949,-0.0111758
0.0684453,-0.0204489
-0.0855261,0.00187121
-0.193539,0.0105027
-0.251392,0.00712581
-0.243238,0.00824343
-0.18474,0.0118133
-0.104083,0.000970046
-0.0292092,-0.0320617
0.00600008,-0.0260959
0.0144273,-0.0121246
0.0188929,-0.0138621
0.0187944,0.0222145
0.0171807,0.0398533
0.0103786,0.021655
0.00607737,0.00666344
0.0138254,0.013906
0.00743432,-0.000979365
-0.0131022,-0.0266719
-0.0208423,-0.0235634
-0.00114175,-0.00526206
0.0141957,0.00150054
0.0273428,0.00594217
0.0382235,0.00502471
0.0394559,0.00532607
0.0463263,-0.0365721
0.0753476,-0.0303069
0.0675763,-1.98e-05
0.04212,-0.00128198
0.0429137,0.00865898
0.0337895,0.00391078
-0.0038838,0.0024523
-0.0340365,0.00799054
-0.0646905,-0.0238952
-0.0755584,-0.00267802
-0.0759209,0.0140205
-0.0720403,0.0147509
-0.0356689,0.0106302
-0.00503926,0.013402
0.0066039,0.0194258
0.0119104,0.0247264
0.0270689,-0.0022082
0.0267175,-0.0232625
0.0200442,-0.0164629
0.0430536,-0.0212839
0.0666976,-0.00797674
0.044001,0.0108939
0.00298534,0.0235228
-0.0378832,0.0136078
-0.0601778,0.00607274
-0.0425874,-0.0102918
-0.00782196,-0.0314943
0.0321853,-0.0155285
0.0813576,-0.0121099
0.060018,-0.00192196
-0.00382387,0.00945774
-0.0229128,0.0252812
-0.0173628,0.0195051
-0.0229213,-0.0114107
-0.0493842,-0.0176303
-0.0596822,-0.00901748
-0.0524357,-0.0124497
-0.0682025,-0.00534503
-0.096896,0.0180242
-0.0760926,0.0170629
0.0164608,0.0027191
0.162557,-0.00590731
0.21468,-0.0137794
0.166164,-0.0099946
0.0559411,-0.000796799
-0.0607735,0.00499336
-0.120262,0.010565
-0.141029,0.0158225
-0.0921106,0.0206103
-0.0194083,0.00356945
0.0525752,-0.0188428
0.0683737,-0.0311176
0.0638803,-0.0191202
0.0207889,0.0208134
-0.0196441,0.0311677
0.00826212,0.0230909
0.0102051,0.0120078
-0.0462728,0.0092216
-0.0826763,-0.01626
-0.0733609,-0.0404184
-0.0306839,-0.0199943
-0.00641522,-0.0108742
0.0189415,-0.00642234
0.0606959,-0.00989775
0.051683,0.019671
-0.00180515,0.039214
-0.0175902,0.00754345
-0.0100067,-0.0189859
0.0103068,-0.0072342
0.0182078,0.00515766
0.0154754,0.00850092
0.00282875,0.0163878
0.00355394,0.0240301
0.0220558,0.0220565
0.00534704,-0.0042637
-0.0209417,-0.0255455
-0.0367215,-0.0268492
-0.0398562,-0.0130007
-0.0205001,0.000615404
0.0129831,0.00661099
0.0482831,0.0090006
0.125133,0.0117577
0.23339,0.00994523
0.210028,-0.00324363
0.0613756,-0.0115375
-0.0670937,-0.0136178
-0.159161,-0.0150737
-0.170707,0.00040133
-0.139155,0.0257469
-0.119432,0.0192282
-0.0724745,0.00139968
-0.00855212,-0.0139918
0.0354972,-0.0286632
0.0382845,-0.0353777
0.00663795,-0.0181095
0.00168087,0.00615101
0.0168894,0.00464357
-0.0237811,0.0202045
-0.0381209,0.0243444
-0.0275998,0.00926362
-0.0195128,-0.0156911
0.0178184,-0.0207108
0.0827635,-0.00556153
0.10632,0.00693161
0.0739172,0.0340307
0.0193075,0.0243575
-0.0236154,-0.00475949
-0.0604981,-0.00673326
-0.0719375,-0.00778305
-0.0467175,-0.0104289
-0.0301731,0.00372922
-0.0187278,0.0309628
-0.00344606,0.0242843
0.00759833,-0.0582112
0.0055489,-0.0191967
-0.00747942,-0.0105399
0.00911465,-0.00712474
0.0600107,-0.00216725
0.0645547,0.00559708
0.029983,0.004331
-0.0183443,0.0132644
-0.049802,0.0187399
-0.0396317,0.00680418
-0.00573187,0.000673112
0.0198872,-0.0156781
0.0296313,0.00531225
0.0245426,0.00645498
0.0346379,0.00923724
0.0380452,0.0191126
0.0296847,-0.00393432
0.0119651,-0.0158604
-0.00997795,-0.00601155
-0.0215068,-0.000187427
-0.0304942,-0.011802
-0.0406421,-0.013656
-0.0349564,-0.000529944
-0.0232297,0.00397126
-0.0205571,0.00867702
-0.0203873,0.0174273
0.000313459,0.0142863
0.0300653,0.00508594
0.0290567,0.00550249
0.0198826,-0.00599582
0.00119907,-0.0113551
-0.00890687,0.0173505
-0.0127512,-0.0107825
-0.0226989,-0.0510215
-0.0031424,-0.00705706
0.075618,0.0162685
0.145945,0.00878505
0.143691,-0.00895774
0.0711685,0.00293757
-0.0177872,0.0257092
-0.0691716,0.0211274
-0.104538,-0.00981951
-0.104099,-0.0114169
-0.0938094,0.0205357
-0.0611932,0.0145152
-0.00659867,-0.00599235
0.00548348,-0.0269096
-0.00751816,-0.0483025
-0.028762,-0.015488
-0.0431247,0.00888877
-0.0289247,0.0128826
-0.0032201,0.00639177
0.0236548,0.0109487
0.0394009,-0.0116981
0.0572753,-0.0271157
0.0809684,0.00738663
0.0482065,0.012197
-0.0555637,0.0019195
-0.063783,-0.00306663
-0.013021,0.00437486
-0.00336975,0.0101719
-0.0126231,0.00782132
-0.0139437,0.00297268
-0.0191071,-0.00624155
-0.0144505,-0.0202425
-0.00963425,-0.0329633
-0.00574253,0.00907867
-0.00526229,0.0248662
-0.00800533,0.0158233
-0.00297829,0.00604268
0.0198015,0.00157427
0.0981748,0.00337338
0.155877,-0.00214708
0.135616,-0.00229397
0.109094,0.00801164
0.04417,0.0236579
-0.0499625,0.0388679
-0.109307,0.0386019
-0.154345,0.0412914
-0.143117,0.052764
-0.0671161,0.0169625
0.00265396,-0.0657363
0.0291084,-0.10711
0.0255136,-0.0553605
-0.00272388,-0.00559298
-0.0243401,0.00572185
-0.0437711,0.00477924
-0.0411698,-0.0118471
-0.0129786,-0.0118099
0.00156455,0.0168163
0.0206996,0.00811029
0.0588137,-0.000127007
0.125122,0.014812
0.14416,0.000419163
0.0996018,-0.00575925
0.029094,0.0150279
-0.0465909,-0.0195424
-0.056759,-0.041286
-0.0674026,-0.0297078
-0.0627828,-0.0108393
-0.0322395,0.011927
-0.0181949,0.0117587
-0.0290076,0.00951842
-0.047407,0.0241772
-0.0493097,0.00539467
-0.0416326,0.0110482
-0.0282273,0.00426231
-0.011612,0.00978444
-0.00268877,0.0192966
0.00251433,0.0199701
0.0116829,0.00808745
0.0271137,-0.00292557
0.044473,-0.0290415
0.0481246,-0.0528646
0.0373779,-0.039222
0.0276161,-0.00573494
0.0242868,0.00975553
0.0299753,0.00894835
0.0443592,0.00456963
0.0311768,0.00852063
-0.00183231,0.0205027
-0.0357969,0.0151287
-0.0486418,0.00509804
-0.0276409,0.000949049
-0.0154863,0.0127844
-0.013948,0.0299398
0.00433312,0.0296066
0.035556,0.00978212
0.04957,-0.003195
0.0463421,-0.0237872
0.020233,-0.0249734
-0.0105123,-0.00812194
-0.0272212,-0.0138903
-0.0249005,0.00288091
-0.0310245,0.0162308
-0.045279,0.00943625
-0.0457315,-0.00212063
-0.0357608,-0.0129286
-0.0243289,-0.0203014
-0.0230645,0.00147946
-0.0114464,0.0173542
-0.00472675,-0.00777654
-0.00611251,0.022837
-0.00399311,0.0216551
0.00934053,0.014312
0.0166526,-0.011921
0.0239206,-0.0411238
0.0132995,-0.0407989
0.00591033,-0.00771001
0.0228995,-0.0236259
0.0408004,-0.0223765
0.0566375,0.0210693
0.0683416,0.0328318
0.0937063,0.02095
0.0860606,0.00341222
0.0542861,-0.000648247
-0.00477375,0.00958898
-0.0619831,0.00511033
-0.0834131,-0.00744253
-0.094027,-0.00166073
-0.064636,0.00439616
-0.0366159,0.00919178
-0.0235126,0.0156398
-0.0230646,-0.00317762
-0.0252483,-0.0160999
-0.0295364,-0.0167844
-0.00741673,-0.0703808
0.0127133,-0.00222583
0.00509616,0.0642901
-0.0112157,0.0250409
-0.0141983,0.00816278
-0.0114899,-0.0059096
-0.00856139,0.00543866
-0.00107555,0.0233235
0.00967804,0.0164219
0.0112955,0.0102337
0.0150242,0.00534203
0.0220585,-0.000519953
0.0291432,-0.00726746
0.0385643,-0.0249084
0.0413759,-0.0255583
0.0363905,-0.0181339
0.0241641,-0.0110295
0.014498,0.00573406
0.0106908,0.0125753
0.00159162,0.0055028
-0.00872628,0.00361315
-0.0254765,-0.00660753
-0.0459713,-0.0287148
-0.0602666,-0.0674023
-0.040614,-0.0154483
-0.00166077,0.0215273
0.00472257,-0.0135199
0.00900035,0.0365405
0.0151607,0.0734041
0.0156901,0.00217371
0.0198826,-0.036078
0.0216803,-0.00574321
0.0086129,0.0257979
0.00135953,0.0210585
-0.0035026,0.00753824
-0.009187,0.0157896
-0.0046304,0.0166918
0.00851451,0.00422912
0.00539902,-0.0196667
-0.00723734,-0.0408734
-0.00853921,-0.0361366
-0.00300065,0.00487325
0.00235446,0.0107411
0.00475313,0.0164767
0.0151176,0.0192855
0.0214182,-0.00280787
0.0332091,0.00885795
0.0599733,0.0027995
0.0425176,-0.0133215
0.00521782,0.00927769
-0.0213561,-0.00288315
-0.0504853,-0.0315118
-0.0622759,-0.00763579
-0.0705146,0.0073879
-0.0571693,-0.00284559
-0.0239251,0.0120304
-0.00962233,0.0100409
0.00203686,-0.0184312
0.0013836,-0.0317324
-0.00505087,-0.00480051
0.00613947,0.0196013
0.0175834,0.0254218
-0.00597445,0.0230667
-0.0060881,0.0366996
0.0369656,-0.0288095
0.0635492,-0.00999036
0.0173328,-0.0061976
-0.0281777,-0.00128815
-0.0299068,0.00792552
-0.0215747,0.0178066
-0.0220292,0.00929933
-0.0693973,-0.0165349
-0.0764941,0.0039052
-0.0117098,0.00328308
0.0556186,-0.014896
0.0799239,-0.0058673
0.0868165,-0.0259737
0.0740311,0.0209842
0.027298,0.0193649
-0.00143214,-0.0214189
0.0103816,-0.0417861
0.0209769,-0.0225053
0.0155733,-0.00263584
7.65e-05,0.0137382
-0.0132502,0.00912355
-0.0146193,0.00481182
-0.0235913,0.00950092
-0.0278173,-0.00755484
-0.0238758,-3.98e-05
-0.0300838,-0.00770375
0.000795875,0.0151226
0.0164242,0.019587
-0.0120564,0.00319417
-0.0280783,0.0168168
-0.0174944,0.0212543
-0.00727609,0.00444167
0.00427978,-0.0468243
0.017811,-0.0375689
0.00891876,-0.000715189
0.00156115,0.0044713
0.00105174,0.0109656
0.0141139,0.0123794
0.020511,0.0142827
0.0107142,0.00551535
-0.0106443,-0.0394367
-0.00651215,-0.0227335
0.00188366,0.00169453
-0.00746361,0.0247632
-0.0238631,0.0361277
-0.0155978,-0.00405446
0.00323677,-0.0107304
0.00299374,-0.00311439
0.00116783,-0.00456758
0.00773141,-0.0126219
0.0117595,-0.00918902
0.0159222,0.00249937
0.0196899,0.0123125
0.0166878,0.0129318
0.00910806,0.0217579
0.000253875,0.0294278
-0.00758048,0.0213614
-0.00447026,0.00797212
0.000563293,-0.00265291
0.00192196,-0.0151911
-0.00777546,-0.0119972
-0.0220096,-0.0224923
-0.017246,-0.0569614
-0.00275498,0.040693
-0.0106945,0.0364304
-0.0317284,-0.00521059
-0.0233521,-0.034447
0.0141182,-0.00582984
0.0167681,0.0292511
0.0238008,0.0189407
0.030014,-0.00327581
0.0156769,-0.0154664
-0.00534024,0.000677801
-0.00828633,0.0209341
-0.00489628,-0.0183932
-0.00422639,-0.0175081
-0.00688961,-0.00664589
-0.0113573,0.000319868
-0.0243418,-0.00535721
-0.035059,-0.0194418
0.00265026,0.00883637
0.0133927,-0.00188884
0.0121987,0.0105169
0.00729374,-0.00677412
0.00828656,-0.00293273
0.0166555,0.00624936
0.00263565,-0.00288762
-0.0159327,-0.00324514
-0.00761449,0.00380347
0.0100593,0.00769471
0.00753831,-0.00888375
-0.00734209,-0.0123427
-0.0135723,0.0132619
-0.00651134,-0.0215382
-0.00264303,0.00462821
-0.00163659,0.0298442
0.00529112,0.010946
0.0274592,0.00762514
0.0358861,-0.00156031
0.0233218,-0.030485
0.00167133,-0.0484329
0.00205343,-0.0150063
0.000506673,0.00059838
-0.0137164,0.0301407
-0.0085627,0.0132891
0.00230443,0.0339556
0.000163965,0.0479849
0.0026242,0.0125379
0.002203,-0.0105308
-0.0013946,-0.0141209
-0.0113925,-0.012006
-0.0279709,-0.0177514
-0.0228565,-0.0304007
0.000368375,0.00921036
0.00198138,0.00816365
0.00215265,-0.00885519
0.015893,0.00931365
0.0139495,0.00746087
0.00998054,0.00351523
-0.000206378,-0.0104321
-0.0140789,-0.0210805
-0.0210834,0.0140362
-0.014537,0.0165393
-0.00345282,-0.00291413
-0.00215197,-0.0361255
0.0233445,-0.00520652
0.0257442,-0.00638886
0.00589219,0.018134
-0.00112592,0.0316045
-0.00539309,0.0275125
0.0050021,-0.00541123
0.0150858,-0.00174924
0.0149727,-0.0015481
0.0227393,-0.0112399
0.0108364,-0.00341968
-0.0208186,0.00525627
-0.0516389,-0.00674297
-0.0393684,-0.00746818
-0.0229823,0.00117089
-0.00404725,0.0350909
-0.00631251,0.0293087
0.00381129,-0.0295088
0.0122311,-0.016995
0.00762126,-0.00729435
0.00212438,-0.0115324
0.000992182,0.00577278
0.00690261,0.0301707
0.00939156,0.0352819
-0.0119904,0.0209191
-0.0211241,-0.0104209
-0.00821995,-0.0150101
-0.0111193,0.0383938
0.0105067,-0.00650879
0.0424731,-0.061619
0.0514545,-0.0661127
0.0302843,-0.0334656
-0.00793082,-0.0169573
-0.0336288,-0.0384091
-0.0326947,-0.0253879
-0.0281094,0.0166692
-0.0254044,0.0442317
-0.00429148,0.030365
0.0149339,0.0496054
-0.0123286,0.0350109
-0.0562269,0.000921751
-0.028801,-0.0148501
0.0526432,-0.0268089
0.110744,-0.0130907
0.0866773,0.00319388
0.0423979,-0.000934128
0.00987644,-0.00522118
-0.0262634,-0.000139143
-0.0206314,0.00659002
0.0129955,0.0138386
0.0157549,0.0037379
-0.00544351,0.0263065
-0.0304165,0.0152253
-0.035129,-0.0256221
-0.0634971,-0.0339185
-0.0564076,-0.0282451
-0.0175937,0.00665294
0.00673382,0.0233298
0.00877764,0.0239506
-0.00271929,0.0390129
0.0102301,0.0269185
0.0268281,0.0108647
0.0255217,-0.018832
0.0174063,-0.0605243
0.0204686,-0.0353833
0.00852701,-0.00730961
-0.015064,-0.0109829
-0.0198488,-0.0121455
-0.00994837,0.000694856
-0.011781,0.022662
-0.0110253,0.00787551
-0.000737476,0.0236788
0.0216268,0.0137538
0.019425,-0.0221854
0.0179455,-0.0107624
0.00899388,-0.0118246
-0.0162886,-0.0223603
-0.0525534,-0.0178687
-0.0196826,0.0211975
0.0276283,0.0169699
0.0406516,-0.0307453
0.0565426,-0.0395772
0.0471305,0.0368494
-0.0041424,0.0473334
-0.0243769,0.00923116
0.000115594,0.0433916
-0.0259808,0.0223173
-0.0419104,0.00893223
-0.0319628,0.0202985
-0.00877092,0.0350606
-0.00470988,0.00533004
0.00158278,-0.00744851
0.0220716,-0.0186722
0.0243076,-0.0119586
-0.004289,-0.0166872
-0.039347,-0.0240247
-0.0349355,-0.0218145
-0.0455528,-0.0285429
-0.0674395,-0.0425466
-0.0909049,-0.00308164
-0.0912306,0.0204438
-0.0364392,0.0258615
0.054429,0.00436872
0.11739,-0.0255139
0.122634,-0.0156257
0.0894563,0.0513217
0.0557686,0.0284119
0.0181234,0.0333319
-0.0186529,0.00635895
-0.0368499,-0.00182644
-0.054219,-0.0048546
-0.0414212,-0.0427274
0.0293921,-0.0735864
0.0919326,-0.00435844
0.0918362,0.0546702
0.0776053,0.0152495
0.0678166,-0.0347002
0.0261411,-0.0228877
-0.0240912,0.0112775
-0.0541782,0.0125172
-0.0541406,0.0245918
-0.0695125,0.0152484
-0.0778539,0.00270403
-0.0752181,-0.00115633
-0.0728477,-0.0194382
-0.0728253,-0.0523233
-0.0302057,-0.030426
0.0497592,-0.0139092
0.102569,0.029565
0.0901821,0.0367904
0.0669213,0.0287392
0.0277798,0.0197954
-0.0512734,-0.0234665
-0.0975559,-0.0698269
-0.0864346,-0.0579116
-0.040355,-0.00301686
0.0115426,0.00593233
0.0454287,0.0706604
0.0487968,0.0715842
0.0660933,0.00349349
0.10235,0.00543927
0.0718342,-0.0135928
0.0139872,-0.00796015
-0.0161257,0.00871573
-0.0594457,-0.0156292
-0.106762,0.0247428
-0.125099,0.0520736
-0.0941283,0.0351818
-0.0304281,-0.0100177
0.0456279,-0.00602677
0.0335908,-0.0363291
0.00293374,0.00126863
-0.0061297,0.0266102
-0.0189462,0.0496903
0.0106322,-0.0168441
0.0813126,-0.034781
0.0937177,-0.0215919
0.0523188,0.00667236
0.0284319,0.00377049
0.0164852,-0.0855553
0.0313583,-0.0797985
0.0894121,0.00205497
0.132301,0.021997
0.0745119,0.0514863
-0.0863556,0.0266589
-0.197487,0.0296762
-0.233005,0.00764937
-0.157325,-1.86e-05
-0.0541243,-0.00147235
-0.0209869,-0.0204173
0.0167617,-0.0261522
0.0297858,-0.0203276
0.0369666,-0.0396754
0.0416919,0.00219705
0.0611525,-0.0130701
0.0484312,-0.00305835
-0.0133685,0.0258441
-0.0456319,0.0117147
0.058912,-0.0642689
0.117996,-0.0800883
0.0686852,0.0660678
0.0385191,0.0686426
0.0248477,-0.0040847
-0.00914539,-0.0108023
-0.00345595,0.00613181
0.0169732,0.0117123
0.036831,0.00206526
0.0463442,0.00551777
0.00688112,0.0290981
-0.0176434,0.0335148
-0.0908244,0.0251102
-0.150566,-0.00326251
-0.141702,-0.0183431
-0.0744951,-0.00827434
-0.0297351,0.00982801
-0.00245514,0.0283244
0.0163248,0.0150167
0.0365437,0.00795742
0.0649033,-0.000554057
0.0875913,-0.00841224
0.0904799,-0.00711734
0.0657649,-0.00626096
0.0408875,-0.0124466
0.0140862,-0.0100515
-0.0145384,-0.015774
-0.0461348,-0.0113225
-0.0818211,-0.00612209
-0.0682184,-0.0116735
-0.0537882,-0.0149464
-0.0346664,-0.029616
-0.0215276,-0.0676061
-0.00179925,-0.0439107
-0.00716072,0.0357653
-0.0154956,0.0652071
0.00592511,0.0467166
0.0212238,0.0381535
0.0242467,0.0087059
0.022829,-0.00566987
0.0262378,-0.0106652
0.030145,-0.0103655
0.0287178,0.000578545
0.038409,0.0144125
0.0387326,0.0232873
0.0308344,0.0323187
0.0308732,0.00343296
0.0424676,-0.0303035
0.0415889,0.000443461
0.00177405,0.0199729
-0.0568598,-0.0129506
-0.0956631,-0.0638374
-0.0794937,-0.0928409
-0.0307259,0.0172234
-0.000167611,0.0330102
0.00340391,-0.00344915
0.00558616,-0.00614331
0.00148459,-0.00259803
-0.00328939,0.00194514
-0.000707951,0.0128115
-0.00682116,0.0231578
-0.020341,0.0281703
-0.0242506,0.020216
-0.0150093,-0.00273593
0.00291781,-0.0191089
0.0190535,0.00390044
0.0189472,0.019679
0.0189619,0.00603628
0.0279696,0.00827546
0.033289,-0.00188683
0.0299501,-0.0105185
0.0197717,-0.0190565
0.00934948,-0.0134927
-0.00638225,-0.00599886
-0.012477,-0.00561933
-0.00675635,0.00125649
0.0268807,0.00571165
0.0746579,-0.0109335
0.083882,0.0113672
0.0690281,0.0190965
0.0197462,0.00100272
-0.0291007,0.00415152
-0.0813626,0.0310339
-0.113676,0.0244555
-0.103366,0.00843814
-0.0868791,0.00725166
-0.115919,0.00426234
-0.0950775,-0.0192672
-0.0274819,-0.0591745
0.0483485,-0.0600393
0.0908224,0.0030143
0.10423,0.00835192
0.124146,0.0391727
0.0583821,0.0281195
-0.0276986,-0.0241589
-0.0428871,-0.0168449
-0.0363373,0.00607946
-0.0327174,0.0109478
-0.00414775,0.022782
0.00164001,0.0238352
0.00738314,0.00181888
0.00207611,-0.024973
-0.00333827,-0.0347149
0.0203133,0.00333073
0.0374008,-0.00228535
0.0172819,-0.00975137
-0.00920829,0.00409857
-0.00925273,-0.0114322
-0.00250579,-0.0126184
-0.0034162,0.000127579
0.000981369,-0.00330047
-0.000435008,0.00698519
-0.0142653,0.0139016
-0.0168879,-0.00789479
0.019282,-0.00565673
0.0111781,-0.0250058
-0.0194007,-0.00487933
-0.0232609,0.0152974
-0.0212807,0.00967867
-0.0070229,-0.00576485
0.0282204,-0.0128836
0.0470846,0.0216349
0.0261217,0.013175
0.0142122,0.031914
0.00498423,0.0189927
-0.0124728,0.00384319
-0.0354913,0.0121929
-0.0300533,0.0162101
-0.014562,0.00767704
-0.0185978,-0.00265145
-0.0199768,-0.0145257
-0.0114093,-0.0127744
-0.0217252,-0.000581131
-0.0275831,0.00383189
-0.0172439,-0.0110125
-0.0103194,-0.0183648
-0.0169083,-0.0424608
-0.0015805,-0.0343136
0.0258517,0.00665122
0.0359701,0.033782
0.039423,0.0149876
0.0484089,0.00352538
0.0827118,-0.00912656
0.0942219,0.00475401
0.0725413,0.0148911
0.032328,0.00973252
0.0188182,-0.00545539
-0.0179223,-0.0157029
-0.0453854,-0.00939567
-0.0640868,0.00538912
-0.0914771,0.00670805
-0.083943,-0.00015169
-0.0551153,-0.00345299
-0.0358621,0.00726558
-0.0160625,-0.00745091
0.0233075,-0.0279942
0.0301963,-0.00270466
0.00676976,-0.00843458
-0.0172037,0.00255103
0.00113302,0.0280646
0.0175556,0.030156
0.0217097,0.0110155
0.0158871,0.00695648
0.023516,-0.0191166
0.0267282,-0.0248495
0.0155223,0.00587035
0.0184972,0.0344188
0.0139758,0.0155147
0.00127499,0.00250776
-0.0134155,-0.00113254
-0.0193059,-0.00814217
-0.0114878,-0.00469368
0.0178328,0.0107954
0.0366925,-0.00761303
0.0089906,-0.0236404
-0.0184754,-0.0258619
-0.0317233,-0.03023
-0.0306902,-0.0259883
-0.0324445,-0.0140084
-0.0236513,0.0188704
-0.010625,-0.0154571
-0.00599091,-0.00566847
-0.00297751,0.00438417
0.000414982,0.0048391
-0.000769162,0.0205806
-0.000543633,0.015277
0.000665241,-0.00312747
0.0163265,-0.001721
0.0235343,-0.0304146
0.0149367,-0.0187104
0.00308671,-0.00949968
-0.00763998,-0.0233811
-0.0071822,0.00285985
0.00103269,0.0367332
0.0166585,0.00540104
0.0278191,0.00212823
0.0283083,0.0435651
0.00851309,0.0250018
0.00452517,0.0272651
0.0169828,0.024474
0.015865,0.0121031
0.00872648,0.0039069
0.00724947,0.00511048
0.00739024,0.0198702
0.00266498,0.0144279
-0.00212536,-0.00172733
-0.00456246,-0.00269322
-0.00968761,0.00429643
-0.0293984,0.00680001
-0.0427487,0.00363524
-0.0580934,-0.0125868
-0.0478595,-0.0156795
-0.0209963,0.0137085
-0.0208974,-0.00493723
-0.000327779,-0.0339612
0.0222739,-0.0437114
0.00856942,0.00410988
0.0149916,0.0197929
0.0542328,0.00239924
0.0398016,-0.0066833
0.0174494,-0.00762156
0.017424,-0.00364673
-0.00194176,-0.0192259
-0.0180652,-0.0312044
0.00373242,-0.0164152
0.0298751,0.0262772
0.0244347,0.0508676
-0.0020354,0.0232089
-0.025514,-0.0029068
-0.0407862,-0.0356092
-0.0288479,-0.00387117
-0.00171575,-0.00159781
0.0199738,-0.0109531
0.0142686,0.00066877
-0.010289,0.0101838
-0.0297476,0.00837515
-0.0330736,0.00712681
-0.0109714,0.00216438
-0.00239479,-0.00875162
0.0038799,-0.00776124
0.0140766,-0.00741142
0.0175088,-0.00883757
0.00854975,0.00238108
0.00882029,0.010992
0.0173538,0.0275054
0.0191355,0.0314961
-0.00543257,-0.0118179
-0.0234914,-0.0317131
0.00316092,-0.0223447
0.0107733,-0.00831771
0.00323294,-0.0213357
-0.0100996,-0.0142694
-0.0333987,-0.0390487
-0.027363,-0.0191697
-0.00564991,0.0224661
0.0221878,0.00845225
0.0390491,0.00728936
0.0499003,0.0149656
0.0466513,0.0127263
0.023788,0.00188617
-0.00202719,-0.00519414
-0.0299891,-0.0251807
-0.046001,-0.0197462
-0.0143928,0.0176113
0.0101113,0.027127
-0.00407856,0.0223797
-0.0345904,0.0123924
-0.0401864,0.00732922
-0.0213048,0.0131327
-0.0090541,0.00357727
0.00279495,-0.00241748
0.0108529,-0.00966536
0.00267681,-0.00996673
-0.00349392,-0.00762614
-0.00410706,-0.00659652
-0.0120943,0.00577409
-0.0131117,0.0255428
-0.017949,0.0114831
-0.0235438,0.00448538
-0.0138544,-0.00349874
0.0222693,-0.012236
0.0392163,-0.0199118
0.0237555,-0.0268172
-0.000349616,-0.0164162
0.0119473,-0.00160656
0.0143071,-0.00484164
0.00195783,-0.0238745
0.0108047,-0.00999058
0.0230714,-0.00604925
0.0271968,0.0309684
-0.00262659,0.0157843
-0.0357631,0.00191558
-0.0279155,0.043038
0.0216081,0.0325513
0.0524473,-0.000294913
0.0525173,-0.000898783
0.0405724,-0.00507567
-0.0116364,0.00255894
-0.0453704,0.0100454
-0.049006,0.0108065
-0.0273741,-0.00808029
-0.00218424,-0.0127128
0.0073656,-0.00720779
0.0137893,-0.0094356
0.0226591,-0.0163007
0.0278606,-0.00919135
0.0250477,-0.0018592
0.00553273,0.0190258
-0.018878,0.0334491
-0.0390003,0.0179591
-0.0501961,0.000777546
-0.0527606,-0.0184497
-0.051181,-0.0444291
-0.00360943,0.00724417
0.0331687,-0.000970308
0.0271996,-0.00811737
0.0176672,0.0177482
0.0139504,-0.00179534
0.0195337,0.0012399
0.0253495,0.0224354
0.0155852,0.0179208
0.00712177,0.00447567
0.00104958,-5.75e-05
-0.0125978,0.00377653
-0.0139537,0.007519
-0.00131607,0.003024
0.00372426,-0.0139384
-0.0195404,0.0195633
-0.0417011,0.0243123
-0.0271804,-0.00618609
-0.00112464,-0.0203215
0.0229488,-0.0132733
0.020589,-0.0211554
0.0197115,-0.0161816
0.0226769,0.000925328
0.0173317,0.00219623
0.00465045,-0.000385878
-0.00501969,-0.00902466
-0.00313304,-0.0131821
0.0076228,-0.00564248
0.0140011,-0.00682066
-0.00072889,-0.017149
-0.0249283,0.00286232
-0.0158369,0.011915
-0.00465768,0.0058635
-0.0033304,0.00747658
0.00180545,0.00237864
-0.00833706,-0.0101148
-0.0128904,-0.0160642
0.002809,-0.00578963
0.0132552,-0.00327356
0.010346,-0.00913775
0.00355356,4.11e-05
-0.00604603,0.00360754
-0.0100638,-0.00849977
-0.00627017,-0.00379487
-0.00539447,0.00776158
-0.0166569,0.00408768
-0.0239178,0.00692027
-0.0217616,0.00934456
-0.0114878,0.00973043
0.00572134,0.00941603
0.0331088,0.0126247
0.046947,0.0050858
0.0160715,-0.00986256
-0.00513607,-0.00526622
-0.0253183,-0.0108267
-0.00726783,-0.00104674
0.0190049,0.00936134
0.0160638,0.0255949
0.0209322,-0.000290176
0.0136953,-0.0104163
-0.00198531,-0.0104361
0.00351349,0.00862312
0.0125388,0.019816
-0.014445,-0.0101009
-0.0664859,-0.0279186
-0.0485083,-0.00458395
-0.00404748,-0.00394086
0.0141727,-0.0131027
0.0136603,-0.000494956
0.00484411,-0.0258997
0.00671881,-0.0250238
0.00343893,0.0185859
0.00685473,0.0326547
0.0232619,0.0222056
0.0277675,-0.0013368
0.027218,9.18e-05
0.0278835,0.0226231
-0.0117317,0.0127307
-0.0385559,0.00525524
-0.0357481,-0.000117246
-0.0163824,-5.19e-05
0.0145964,-0.00343936
0.0264907,-0.00994629
0.0201817,-0.0101989
0.0133549,-0.0123195
0.00468652,-0.00337037
-0.012529,-0.000412445
-0.0164705,0.00438651
-0.0178961,0.000703974
-0.0248548,0.0050769
-0.0236639,0.0130961
-0.0157288,-0.011093
-0.00735422,-0.0303565
0.00216473,0.00885053
0.000417432,0.00920546
-0.00420979,0.00018916
-0.0079925,0.00137399
0.0102893,-0.00210351
0.0250034,-0.00399249
0.0214406,-0.00852661
0.0209212,0.00647252
0.0120616,0.0202549
-0.00518405,0.0135211
-0.00330403,-0.00090045
-0.00098039,0.00017818
-0.0136796,-0.00590463
-0.00826357,-0.00661423
-0.00114282,0.00270949
-0.00208793,0.010537
-0.00315683,0.0080839
0.00109339,0.0283897
0.0131223,0.0226558
0.0356421,-0.0305103
0.0532595,-0.0544237
0.037126,-0.00713768
-0.00871956,0.00304162
-0.0358146,0.00620624
-0.0332739,0.0263584
-0.0377155,0.00517408
-0.0296579,-0.0106039
-0.0261795,-0.0212045
-0.0106604,-0.0223063
0.0235401,0.00710126
0.0247847,0.0173543
0.0170599,0.0312244
-0.00576695,0.030844
-0.0210123,-0.0278989
-0.00742158,-0.0418964
-0.013917,-0.0136632
-0.0201828,-0.0124139
-0.00162989,0.0231776
-0.00186813,0.0126288
-0.00310175,0.000537806
0.0039017,0.0236799
0.00816823,-0.0152966
0.0295336,-0.00544195
0.0371809,0.00402284
0.0312253,0.00982692
0.0253787,0.00222504
0.0143117,0.000554252
-0.000747024,0.00075334
-0.00256538,0.00904507
0.0109211,0.00380145
0.011099,-0.0141949
0.00680973,-0.00132656
-0.00880567,0.000836995
-0.0241068,-0.00123486
-0.0329031,0.0062969
-0.0280817,0.0102817
-0.0256111,0.00135754
-0.0298199,-0.00330379
-0.026556,-0.00491631
-0.0147968,-0.0134648
-0.00281129,-0.0116892
-0.00228156,-0.00518603
0.000380768,-0.00298101
0.00127927,-0.00191069
0.00629083,-0.0019019
0.0117174,0.00535538
0.0173485,-0.000996223
0.0127455,-0.0297953
0.00965232,-0.014342
-0.00763159,0.0202676
-0.0104532,0.0264017
0.00579412,0.0302273
0.0126598,0.0200328
0.0209689,-0.0020015
0.00521422,-0.00691238
-0.0168749,-0.0167114
-0.0152216,-0.0191062
-0.00574768,-0.018146
0.00908405,-0.00760928
0.0151136,0.00398508
0.00919591,0.0165055
0.001439,0.0207816
0.00377861,0.0152829
-0.00363318,0.00496876
-0.0164754,-0.00892987
-0.0123199,-0.0136183
-0.00893982,-0.0140414
-0.0124827,-0.00370536
0.00353245,0.00424059
0.0138442,0.00155195
0.0162433,0.00108424
0.0262007,-0.000333561
0.0260172,-0.00494594
0.0287898,0.00343751
0.0386483,0.00174951
0.0273669,0.00815823
-0.00377246,0.00260756
-0.020102,-0.0209601
-0.0126968,-0.0105574
-0.00566602,-0.0431321
-0.00582986,-0.0291336
-0.00686859,0.0238749
-0.0124597,0.0283005
-0.0224576,0.00410449
-0.0279004,0.00155767
-0.0217526,0.0232588
-0.0181112,0.00930967
-0.0170562,0.00157047
-0.00608818,-0.00565528
0.00441657,0.00339449
0.0118515,0.0223448
0.0209605,0.0251532
0.0297013,0.0159611
0.0223283,0.00481291
-0.00517686,-0.0171453
-0.0188583,-0.00699386
-0.0100736,-0.0110749
-0.00318429,-0.00885904
0.00258135,-0.00732346
0.00820736,-0.0108273
0.000992236,-0.00391746
-0.00759712,0.0043432
-0.010152,0.00312843
-0.00556873,-0.000998147
0.00203157,-0.00270276
0.0120028,-0.00835757
0.0155953,-0.008391
0.00740787,-0.0034877
-0.0111381,-0.0111132
-0.0303723,-0.0250665
-0.0117581,0.00582589
0.0167851,0.0295288
0.0296896,-0.00171709
0.0385304,-0.0173061
0.0342525,-0.0144901
0.0263744,0.0178121
0.00914529,0.0323447
-0.0365111,0.0448139
-0.0613393,0.0540268
-0.0632188,0.00370758
-0.0405918,-0.0312359
-0.00758183,-0.0308162
0.0123464,-0.0296197
0.0224149,-0.0367043
0.0153544,-0.0340709
0.00423785,-0.0137096
0.00681309,0.00631135
0.005067,0.0297744
-0.000634717,0.0258779
0.00132932,0.0137149
0.00617649,0.00479356
0.00909725,-0.00857552
0.00739857,-0.00969662
0.00675262,0.00674908
0.00803644,0.00972395
-0.00478111,0.00561352
-0.00184442,0.000585381
0.00333121,0.00378363
-4.43e-05,-0.00620898
0.00680658,-0.0162688
0.0149621,-0.00981444
0.010516,0.00604898
0.007254,0.00992032
0.00569675,0.0111899
-0.00993557,0.0139603
-0.0239779,0.0134111
-0.0194366,0.00346708
-0.0158068,-5.79e-06
-0.0263855,-0.0121302
-0.0319244,-0.0224064
-0.0279782,-0.00975893
-0.00665859,0.00696214
0.011402,-0.00890604
0.0103348,-0.0178591
0.0170561,-0.0257847
0.017319,-0.0605076
0.0285589,0.0114896
0.0308194,0.0518242
-0.00431282,0.0243404
-0.0275596,0.0142288
-0.0269903,0.013117
-0.0209987,0.0152469
-0.00228321,0.0101672
0.0217637,0.00118562
0.0337,0.00463485
0.0210274,-0.00317736
0.016623,-0.00166687
0.0156785,-0.0138421
0.00404884,-0.0263474
0.000828054,0.00709327
-0.00141834,0.0248617
-0.0103189,0.00126195
0.00595372,-0.0144469
0.0254996,-0.00865759
0.0205367,-0.00916055
0.0140363,-0.00184548
-0.00490835,-0.00332313
-0.0284513,0.0102943
-0.030874,0.0185602
-0.0290903,0.0191027
-0.0263967,0.0133541
-0.029858,-0.00116372
-0.0247218,-0.00526691
-0.00578404,-0.0163022
0.00290472,-0.00546038
0.011999,0.0113641
0.00551413,0.00679919
-0.00040273,0.00200426
-0.00201121,-0.0135606
0.00316257,-0.027998
0.00549212,-0.019644
-0.000673444,-0.000438599
-0.00116532,0.00291961
0.0126962,0.00753055
0.0211472,0.0108717
0.0166977,0.00634932
0.010089,0.00332365
0.00714917,-0.00456464
5.01e-05,-0.0134416
0.001126,-0.0112031
0.0171284,-0.00550567
0.0109554,0.00744648
-0.0179864,0.00504332
-0.0230388,0.00577505
-0.00948517,0.00622294
-0.0105251,-0.00784549
0.000904019,-0.0156167
0.00671016,-0.00774417
0.00519619,-0.00255097
-0.000583633,-0.00104352
-0.00195861,0.0140144
0.0116407,0.0290003
0.0211468,0.0088613
0.0190436,-0.0150816
0.0111537,-0.00981489
0.000786007,0.00138986
-0.0112185,0.00163741
-0.0227347,0.00535784
-0.027892,0.00528121
-0.0180524,-0.0058188
-0.00389432,0.0011767
0.0156313,0.0102093
0.0380529,-0.00304911
0.0373255,-0.00702836
0.00593034,0.00108893
-0.0195471,0.00172932
-0.0164685,0.00880265
-0.014854,0.0117282
-0.0153266,0.00916541
-0.00798542,-0.000632121
-0.00661832,-0.00862732
-0.0121638,-0.0100553
-0.00100451,-0.00643266
0.00855216,0.00101297
0.00171459,0.000548541
-0.00320055,0.00132249
-0.00215665,-0.0225484
-0.00754343,-0.0408097
-0.00827119,-0.00605873
0.0090637,0.00545801
0.0160065,-0.0192729
0.0127219,0.00646073
0.0194233,0.0317887
0.0160733,0.0184307
-0.00495781,0.00663471
-0.0363236,0.038676
-0.0421668,0.0292428
-0.0085974,-0.0108359
0.000825099,-0.00954129
0.0096068,0.00734457
0.0123985,0.00661993
0.00122568,-0.00324631
0.00415895,-0.0269814
0.012627,-0.0119176
0.0039517,-0.0044363
-0.00320611,-0.0348499
0.0215065,-0.00990564
0.0316466,0.00446894
0.0283765,0.0196618
0.0194072,0.0217609
0.0223163,0.0104571
0.00954872,-0.00174204
-0.0300393,-0.0280799
-0.0421021,-0.0448242
-0.00862297,-0.0015729
0.00615651,0.0121068
0.0030749,0.00850524
0.0106301,0.00720633
0.011885,0.0107154
-0.00310812,0.0115801
-0.0107061,0.013923
-0.0146634,0.0110721
-0.0252417,-0.00115738
-0.0351686,-0.00398392
-0.0367584,0.00610513
-0.0294335,0.0118312
-0.0170576,0.0109237
-0.0101508,0.00758496
-0.00591169,0.00675339
0.00471059,-0.00199444
0.0160243,-0.0145277
0.018617,-0.0127586
0.0184229,-0.00780449
0.0142356,-0.00646403
0.00950155,-0.000205541
0.00942029,0.0098856
0.00651823,0.00266924
0.00364084,0.00264684
0.00391121,-0.000314418
0.00662506,-0.0103248
0.00263767,-0.014343
-0.00930582,-0.0110266
-0.00507545,-0.00287288
0.007708,-0.000208267
0.00427309,0.00170243
-0.0004036,0.0185701
0.000845228,0.00611448
0.00771371,-0.0160016
0.0115165,-0.0175775
0.013818,-0.00034012
0.0147113,0.00452224
0.0077744,-0.00272647
-0.00100831,0.00593669
-4.46e-05,0.0334044
-0.00717337,0.0325914
-0.00880284,-0.0210752
-0.00438887,-0.0513834
-0.00567514,-0.00846385
-0.0114143,-0.00771863
0.00169184,0.0197743
-0.00761709,0.0355371
-0.0186296,0.0118021
-0.0133926,0.00319099
0.00995139,0.0115586
0.0182966,-0.0221938
0.000324574,-0.0304291
-0.0163768,-0.00357976
-0.0106232,-0.00450648
-0.00375654,-0.00392068
8.2e-05,6.21e-05
0.00691915,0.00688211
0.0145239,0.0035006
0.0229813,-0.000568407
0.0251034,0.00104331
0.0117938,0.00119447
0.000419688,0.00467602
-0.00635496,0.00590545
-0.00803004,0.0094127
-0.0106029,0.0102487
-0.0100331,-0.0125825
-0.00966621,-0.029744
-0.0058655,-0.0129277
-0.00707013,-0.0133981
-0.00998409,-0.0163634
-0.00506925,-0.000391813
-0.000940792,0.0212824
-0.0072194,0.0197777
-0.0113872,0.0187021
-0.00228046,0.00930015
0.00711356,-0.00619465
0.0070069,-0.0032275
0.00248467,0.00636842
0.00037233,0.00717187
-0.00309786,0.00457458
0.00602241,0.00684479
0.0200489,0.00861679
0.0200126,0.00481781
0.0142951,-0.010385
0.00675611,-0.00669331
-0.00237735,-0.00383076
-0.0116161,0.00224702
-0.01282,0.00868236
-0.0070341,0.0090773
-0.00602693,0.00559126
-0.0101326,-0.00573101
-0.0178443,-0.033842
-0.0142907,-0.0331907
0.00939192,0.00171758
0.0254552,0.0254426
0.0217758,0.0280212
-0.0189183,0.0101953
-0.00709797,-0.0073584
0.0066998,-0.0272359
0.0059869,-0.0267836
0.00503886,-0.0221907
0.0139535,-0.0141966
0.00620312,0.000708125
-0.00319065,0.0165437
-0.00874336,0.0221739
-0.00718589,0.0219956
-0.00493915,0.0179565
-0.000976319,0.00962645
0.00282645,0.00685857
0.000853591,0.0110627
-0.000746535,0.0108345
0.00518764,0.00564822
0.00397681,0.00334497
-0.00571467,-0.00124402
-9.2e-05,-0.0201769
0.00175248,-0.0387989
0.000525142,-0.0380166
0.00536833,-0.0173339
0.0127848,-0.00840817
0.0110921,-0.00494813
-0.0139911,0.00904463
-0.0127317,0.0124479
-0.00786868,0.0106186
-0.00647596,0.0191704
-0.00372193,-0.019711
0.00633016,0.0188658
-0.00565484,0.0365205
-0.0212415,0.015322
-0.00659301,0.00667069
0.0102301,-0.000661247
0.0240996,-0.0132698
0.029764,-0.0122579
0.0215422,-0.0154819
0.00837956,-0.0164989
0.00205358,-0.00681628
-0.00197929,0.00215289
-0.00570498,0.00594516
-0.0169324,0.0101313
-0.0287727,0.0161735
-0.0259998,0.0187797
-0.0176346,0.00432027
-0.0128938,-0.0067756
-0.0153719,-0.00425806
-0.0149234,-0.000574944
-0.00790269,-0.00179035
-0.00468075,0.00399881
-0.00568385,-0.00302201
0.00289242,-0.00422959
0.0161979,-0.0117721
0.0156302,-0.0232321
0.0113773,-0.00466028
0.0079584,-0.0127305
0.00297214,-0.00945328
0.00449862,0.00162495
0.00806593,0.0137885
0.014408,0.0153087
0.0249057,0.010069
0.027763,-0.0113264
0.0230557,0.00233071
0.012105,0.021191
-0.00079977,0.02462
-0.0103903,0.0203034
-0.0206216,0.0402674
-0.0172363,0.0311059
-0.0152612,-0.0159192
-0.0101071,-0.0550825
-0.0147812,-0.0436633
-0.0128175,-0.0595172
-0.0187335,-0.054346
-0.00918934,-0.00978882
0.0175376,0.037727
0.0317898,0.0464787
0.0231466,0.00932409
0.0180832,-0.00455221
0.0184855,-0.0126467
0.000563497,0.0149994
-0.0199258,0.0211233
-0.0346592,-0.00409167
-0.0320981,-0.00836891
-0.0239894,0.00479171
-0.00338224,-0.00996229
0.0132963,-0.00189044
0.0225942,-0.00410709
0.0309326,0.00052039
0.0303103,0.00568348
0.0220463,0.0116017
0.00601022,0.00996134
-0.0116709,0.0154439
-0.0219645,0.0178772
-0.0251143,0.0150229
-0.0202889,0.000146425
-0.00874281,-0.0114316
-0.0117036,-0.00974836
-0.0208478,-0.00821804
-0.00943418,-0.00665902
0.012084,-0.000695418
0.0183961,0.00468102
0.0153839,-0.00466337
0.00873533,-0.0129143
0.00868071,-0.0186876
0.013823,-0.0115258
0.00808874,0.00165658
-0.00543582,0.00892529
-0.00453911,0.0116083
-0.00254262,0.0133082
-0.00317186,0.0150006
-0.00746203,0.0188564
-0.00903984,-0.00395514
-0.00247537,-0.0142646
0.000389647,-0.00783183
-3.45e-05,-0.0104821
0.00360598,-0.0127104
0.00741947,0.000353921
0.00821988,0.0100638
0.00604326,-0.00416724
0.0108611,-0.014104
0.0149013,-0.014951
0.0200759,-0.000695712
0.0148551,0.0206105
0.00961324,0.021784
-0.013842,0.00954963
-0.0388153,0.00511306
-0.0356758,0.00662135
-0.0150377,0.000577067
0.00186035,-0.0107038
0.00185869,-0.00880388
-0.0103529,0.00458268
-0.00927756,-0.0014226
0.000689855,0.00168735
-0.00419501,0.00742906
-0.00611356,-0.00466768
0.00483493,-0.0183274
0.011605,-0.0179699
0.00632629,-0.00849583
0.00168585,-0.0036175
0.0218048,0.00852174
0.0281114,0.0295715
0.00523731,0.00457451
-0.0281252,-0.0596754
-0.027227,-0.0276894
-0.0179314,0.00558826
-0.0220246,0.00510694
-0.00460703,0.00201936
0.0273735,0.0209854
0.0206995,0.0143983
0.00065995,0.00764521
-0.00253107,0.00912291
0.0061888,0.00434285
0.0119363,-0.00403123
0.0130052,-0.00234035
0.0165866,-0.0138301
0.017013,-0.0189702
-0.00330511,0.00421978
-0.018793,0.0239099
-0.0169813,0.0217028
-0.00441763,0.0233162
0.000860213,0.0229287
0.00612081,0.00545767
0.023982,-0.00694715
0.033697,-0.00697866
0.0222586,-0.00644762
0.00762646,0.00144054
0.009676,0.00456353
-0.01264,-0.0022516
-0.0353629,-0.00989508
-0.0294757,-0.0213654
-0.0168711,-0.0183872
-0.0148443,-0.011634
-0.0077239,-0.00283532
0.00163493,0.00426766
-9.43e-05,0.00766634
-0.00608132,0.00825286
-0.00798499,0.0173966
-0.0127431,0.000258868
-0.00723671,-0.00879167
-0.00142487,-0.0145939
-0.00350879,-0.0115262
-0.00252669,-0.00357545
0.00215673,0.00436362
0.0110534,-0.00588667
0.0135408,0.00468042
0.00283401,0.0197937
0.000561173,-0.00599125
0.0103715,-0.0170963
0.0093417,-0.00443113
-0.00409758,0.00870365
-0.00413273,0.0190909
0.000354877,0.0230627
0.00290968,0.0188923
0.000389317,0.0136466
-0.000431706,-0.00731933
0.000920002,-0.0188647
-0.000480295,-0.00838573
-0.00543831,-0.00224161
-0.00183066,-0.00736857
-0.0010127,-0.00734268
-0.00629277,-0.000253761
-0.00343737,-0.00155118
0.00923758,-0.00398501
0.011528,-0.0196939
-0.00194621,-0.0217743
-0.00650258,-0.0169915
0.00352243,-0.0121696
0.0161716,0.0261945
0.0192625,0.0394105
0.00921315,0.039503
-0.00369671,0.030314
-0.00855973,0.000392266
-0.014852,-0.0274331
-0.0152764,-0.0489809
-0.00959197,-0.0228523
-0.0091441,0.0178658
-0.00457388,0.000494496
-0.000714883,-0.000273341
0.00457182,-0.0111847
0.0155252,-0.01295
0.0143796,0.0154514
0.000553817,0.0195027
0.0011407,0.0087959
0.00188061,0.0049711
-0.00366161,0.010258
-0.00599385,0.0087438
-0.00547416,-0.00327713
0.00716508,-0.00435519
0.020455,-0.00673025
0.0153029,-0.0096182
-0.000251254,0.00750185
-1.37e-05,-0.0108581
0.0112493,-0.0225853
-0.00541188,-0.0010414
-0.017516,0.00643123
0.000447152,0.00266645
0.00789097,-0.03465
0.00636894,-0.00589745
0.0133033,0.0306127
-0.0060304,0.0202089
-0.0432545,0.00404214
-0.0430413,-0.00642983
-0.0145235,0.0107415
0.00205893,0.0177472
0.00903809,-0.0229062
-0.00150569,-0.0272858
-0.00696957,0.0222805
-0.0063698,0.0120899
-0.00214095,-0.00036844
0.0103625,0.00379345
0.0104102,0.00964681
0.00555104,0.00590697
0.00614983,-0.00510894
0.00634283,-0.0113693
0.00765645,-0.00405223
0.0106369,-0.00157253
0.00866097,0.00153019
0.00414445,0.00890172
0.00173384,0.0103812
-0.00110702,0.00490993
-0.0025984,-0.00296161
-1.21e-05,-0.0139187
0.00770623,-0.0117508
0.00852012,0.000383532
0.00137977,0.00481057
-0.00648541,0.00490434
-0.0111859,0.0117889
-0.00991452,0.0140497
-0.00794481,0.0039157
-0.00147284,-0.00905879
0.00857633,-0.00587049
0.0113082,-3.95e-05
0.0106837,-0.00707772
0.0223277,0.00396433
0.0302785,-0.00462286
0.0239774,-0.0155256
-0.00021178,-0.0277209
-0.0201159,-0.0112622
-0.0165865,-0.000760302
-0.0189639,0.0107624
-0.0243203,0.018191
-0.0146346,0.00522959
-0.00632569,-0.00856118
0.000312321,0.00208637
0.00314111,0.0184626
0.00350627,0.00780517
0.00498229,0.000613537
-0.016235,-0.0156877
-0.0409198,-0.0494045
-0.0175311,-0.0205422
0.0129434,-0.00993343
0.0189545,0.00121962
0.00983534,0.0267219
0.0104577,0.0375549
0.011292,0.00323753
0.0101468,-0.00888286
0.000199784,-0.00223313
-0.0147093,0.00910679
-0.0263005,0.0100185
-0.0238084,0.0117763
-0.0242239,0.01498
-0.0112465,0.0123754
0.00527642,-0.0125033
0.00568179,-0.019203
0.00817057,0.0046817
0.0150666,0.00258484
0.00938107,-0.00114063
0.00890259,0.000716474
0.0108053,0.00603882
0.0162398,0.0114499
0.0184551,0.00937042
0.0204491,-0.00709609
0.0201626,-0.0137599
0.0152443,-0.00299479
0.000916622,0.0033617
-0.00691673,-0.00333934
-0.00874376,-0.00256684
-0.00348608,0.0106477
0.00321462,0.00804503
0.0136003,-0.00504937
0.0039794,-0.00875888
-0.00853455,-0.00501961
-0.0048456,-0.0156889
-0.00539641,-0.00260275
-0.0139158,0.0114991
-0.0164825,0.00886901
-0.0131752,0.00875587
-0.00696038,0.00871125
0.001946,-0.0106442
0.0152459,-0.0186344
0.0143092,-0.0123159
0.0133377,0.00312456
0.00509257,0.00920981
-0.00932591,0.010544
-0.02016,0.0103275
-0.0117121,-0.00277847
-0.00685942,-0.0157884
-0.00385108,-0.00349933
0.00143404,0.0163849
-0.00506085,0.0217217
-0.0175381,-0.000344577
-0.0120917,-0.028433
-0.00328012,-0.0284638
-0.00198957,0.00574928
-0.00406875,-0.00349401
-0.0042058,-0.0104611
-0.00379058,-0.0193043
-0.00351851,-0.00517635
0.00490896,0.000831954
0.00812446,-0.00476534
0.00513042,0.0235364
0.00658009,0.0123616
0.027841,0.00430457
0.0322068,-0.0140647
0.0152033,-0.0124683
0.00849074,-0.00930717
0.0078031,0.009553
-0.00754775,0.0294894
-0.0132555,0.018349
-0.00058815,-0.00837294
0.00628316,0.0104018
0.0220467,0.00230318
0.0308826,-0.0194724
-0.000474523,-0.0162966
-0.0506234,0.00863031
-0.0671577,0.0130799
-0.0324776,0.0144401
-0.00224213,0.0174142
0.00693049,-0.00262677
0.0123358,-0.0133868
0.0129614,-0.0122495
0.00951717,-0.0098514
0.00651966,-0.00948848
5.35e-05,-0.00106237
0.000863849,0.00855305
0.00677723,0.010797
0.00998742,0.00852906
0.00833249,0.00376406
0.00790631,-0.00568834
0.00899697,-0.00778507
0.00512089,0.00246454
0.00514725,0.00536781
-0.00754078,0.00422603
-0.0151403,0.0078887
-0.0209467,0.01315
-0.0194661,0.0108554
0.00298091,0.00229167
0.0115517,-0.0162595
0.00655926,-0.0244998
0.00443482,-0.014288
0.00569501,0.00164757
0.00382266,0.0109263
0.00166103,0.00649377
0.000730406,0.002568
0.00108135,-0.00945245
0.0064855,-0.0171405
0.00461618,-0.00763572
0.00244102,0.00361818
0.00339487,0.00873969
-0.00199911,0.00622384
-0.00732,0.00407451
-0.00947297,-0.00215178
-0.0165333,-0.000666417
-0.0186941,-0.0036647
-0.0215419,-0.00138432
-0.0151499,-0.00291085
0.00443986,0.00452924
0.02209,0.00908482
0.00960903,0.00508405
0.00790506,-0.00226717
0.00981675,-5.36e-05
0.0135391,0.000285154
0.0117926,-0.00625802
0.00342251,-0.00195562
-0.00601828,-0.000430829
-0.0127581,-0.0069921
-0.0157779,-0.0129761
-0.011265,0.00651225
0.00552077,0.0107252
0.0164559,0.000930402
0.0129698,0.00189209
0.0119037,0.00490631
0.00497662,0.000200504
-0.00377222,0.00884328
-0.0121599,0.0209763
-0.0135139,0.00911049
-0.0107575,-0.000873102
-0.00238253,0.00338638
0.00662891,-0.0048749
-0.000747119,-0.00872547
-0.00931738,0.00237718
-0.00377688,0.00158314
0.00369424,0.00164942
-0.00356903,0.00550199
-0.0110165,-0.00392026
-0.00388844,-0.0286145
0.00546432,-0.0201453
0.00150276,-0.0140143
0.0172902,-0.0173826
0.0323571,-0.031052
0.0206527,0.00596984
0.000168594,0.0111084
-0.00128302,-0.00202466
-0.00250865,0.0164207
-0.00528673,0.0157156
-0.0066896,-0.00964629
0.00106737,0.00186275
0.0100356,0.0114495
0.0168674,0.00884878
0.0114821,0.0188604
-0.0186491,0.016061
-0.0380943,0.0072741
-0.0222136,-0.00214526
0.0153904,-0.000544995
0.0115652,0.00347019
-0.0102006,0.00107186
-0.0128666,-0.00107758
-0.0157249,0.00161825
-0.013691,0.00656749
-0.0106945,0.0060812
-0.00542101,-0.00325919
-0.00338565,-0.0212885
-0.0141173,-0.0517475
-0.019617,-0.0394934
0.00263039,0.00872903
0.00733638,0.0020219
0.0110754,0.0269141
0.013534,0.0299222
0.00828639,0.0106731
0.0108883,-0.0130084
0.0180518,-0.00623727
0.0210788,0.00485565
0.0288891,0.00347706
0.0276976,0.0115915
0.0154571,0.0168139
0.00802471,0.0181045
-0.0128675,0.00762459
-0.00359966,-0.00509897
0.0119428,-0.0202732
-0.00572695,-0.0103443
-0.0301688,-0.00452865
-0.0373168,-0.0111493
-0.0242186,0.00306623
-0.00799745,0.0126734
0.00417517,0.009319
0.00237482,-0.00311074
-0.00894913,-0.0107934
-0.0019575,-0.0013489
0.00609705,-0.00730157
0.00442062,-0.00824622
0.00509173,0.0139717
0.007973,0.0151808
0.00502676,-0.00365929
-0.00850335,-0.00116332
-0.0109374,-0.00480547
-0.000880636,-0.0123837
0.0088485,-0.00555149
0.018371,-0.0151089
0.0382311,-0.00617943
0.026454,0.0123646
-0.00573626,0.00951895
-0.0200312,0.0149617
-0.0243179,-0.0174636
-0.00689289,-0.0126295
-0.00646353,0.00222179
-0.0078913,-0.00546091
-0.00160453,-0.00558464
-0.00274572,0.0130776
-0.00671344,0.0209977
-0.00367607,0.0104291
0.00234634,0.00345178
0.00808129,-0.0087879
0.0112138,-0.0146853
0.00622867,-0.0104609
0.00638274,-0.00140954
0.00803002,0.00648813
-0.0030316,0.00871495
-0.0134433,0.00989125
-0.0146006,-0.00305532
-0.00852231,-0.0293254
0.00540751,-0.016076
0.00601032,0.0119335
0.00935472,-0.00485419
0.0127803,-0.00976138
0.00645662,0.00213739
0.00138049,0.00608397
-0.00274568,0.0162693
-0.0101415,0.0139654
-0.0129047,0.00386298
-0.0136381,0.00464529
-0.00891348,0.016936
0.00305334,0.000991213
0.00739259,-0.00188931
0.00175454,0.00574492
-0.000517632,0.00974593
-0.000862512,-5.62e-05
-0.00341885,-0.0180349
-0.0011493,-0.00982619
0.00332907,-0.00222766
0.00409991,-0.00111454
0.000133507,0.00539746
-0.00293074,0.00986196
-0.00258711,0.00437628
0.00329496,-8.38e-05
0.00331786,-0.0107269
-0.00284186,-0.0216276
0.00568062,-0.0125491
0.00281863,-0.00695799
0.000698855,-0.00652194
0.00597059,0.00317688
0.00905021,0.00785021
0.00520222,0.0160517
0.0013774,0.0342657
0.00216146,0.0463524
-0.00805832,0.0260481
-0.00991185,-0.0239918
-0.00608922,-0.0259228
-0.00280498,0.010956
-0.00442819,-0.00380267
-0.00414591,-0.0246472
-0.00289757,-0.0155312
0.0109898,-0.0176801
0.0261675,-0.0121801
0.0217079,-0.00469
0.0134986,0.00516338
0.01175,-0.0175732
0.012228,-0.0256744
0.00873017,0.0482094
-0.0162283,0.0393735
-0.0198364,-0.00146995
-0.0237346,-0.011296
-0.0328772,-0.00945805
-0.0249866,-0.0122862
-0.0137619,-0.00661271
-0.00941743,-0.000303817
-0.00346592,-0.00212236
-0.0012743,-0.00900954
0.0021666,-0.0074709
0.0117754,-0.0135173
0.0177,-0.00559845
0.0125148,0.0111619
0.00595511,0.0135969
0.00300032,0.00791397
-0.00346794,0.000357845
-0.0164314,-0.00985363
-0.0041961,-0.0062763
0.0081398,-0.0109195
0.00599227,0.0113652
0.000545214,0.0097104
0.000326669,0.00398403
0.00277251,0.0150931
0.00588278,0.0212574
0.0115222,0.012645
0.0163637,0.00605678
0.017454,0.00426992
-0.00179922,-0.0128321
-0.0247686,-0.023722
-0.0368764,-0.0116786
-0.032527,0.00803714
0.00304372,0.0140588
0.0259479,-0.0101153
0.0121075,-0.00420364
0.000351146,0.00284517
0.00449793,-0.0104896
-0.00427544,-0.00766233
-0.00415421,-0.0201299
0.00598637,0.00353653
0.00932629,0.0303948
0.00224701,0.0125581
-0.000670502,0.00291735
0.00388985,0.0101413
0.02035,-0.0114227
0.0210856,-0.0109973
0.022999,0.000245668
0.0150725,0.00849113
-0.0106212,0.0104101
-0.0230143,0.00978712
-0.024379,0.0108822
-0.00910208,0.00559264
0.0037024,-0.0161272
-0.00759759,-0.0232089
-0.0187312,-0.00821683
-0.00568876,-0.00461461
-0.00066345,-0.00520778
-0.00836724,-0.00104937
-0.0164456,0.00156693
-0.00564795,0.00161943
-0.00832746,0.000329385
-0.0152607,-0.00640122
-0.00178172,-0.00863675
0.0142836,0.00506115
0.0229716,0.00797444
0.0264469,-0.000965415
0.0189089,0.00046736
0.00627893,0.0206224
0.000629443,0.00683167
0.00401961,-0.012662
0.00734176,-0.0101193
0.00126818,-0.00648051
0.00183094,-0.00461325
-0.00144853,0.00243596
-0.0101904,0.00684817
-0.0103476,0.0143767
-0.00917575,0.0116056
-0.00384426,-0.00463785
0.00168787,-0.0112214
-0.00078928,-0.00746114
0.00148098,0.00197233
0.00109183,-0.00581401
-0.00386251,-0.00212565
-0.00821354,0.0128484
-0.00918975,-0.00729858
-0.00239415,0.00354871
0.00505509,-0.0220347
0.00628323,-0.00928169
0.00619442,0.0130581
0.0018514,0.00916948
-0.00281404,0.00800611
-0.00360424,0.0052284
0.00370275,0.0034359
0.00653019,0.00308708
0.0126602,-0.00627348
0.0117258,-0.0107743
0.00110766,0.0106067
-0.00233446,0.00886986
0.00526092,-0.00498784
-0.000709609,0.00139034
-0.00068039,0.0131451
0.0019059,0.00887319
-0.00202589,-0.000481954
-0.00187396,0.00545177
-0.00539334,-0.0193391
-0.0157709,-0.0275021
-0.0162147,-0.020035
-0.00952504,0.000138671
-0.00856808,0.0141158
-0.00975088,0.00389679
-0.00865413,0.00245974
-0.00558271,-0.00853949
0.00267302,-0.0110215
0.00682463,-0.00340118
0.00442556,0.000289491
0.00220346,0.00566787
0.00102745,0.0212345
-0.00144041,0.035057
0.000505818,0.013102
0.00846649,-0.0166368
0.0114238,-0.0219842
-0.000154313,-0.011799
-0.00817708,-0.00196072
-0.00697363,0.0205592
0.00627572,0.0292586
0.0261203,0.0214241
0.0303524,-0.0112213
0.0220262,-0.0437982
0.00242196,-0.0194673
-0.00546717,-0.000671967
-0.0168894,-0.00118454
-0.0181117,-0.00652872
-0.0125645,-0.0129915
-0.00895686,0.0155474
-0.000967352,0.00913339
0.000925953,-0.0180479
0.0103851,-0.00656699
0.00878186,0.0104508
-0.00803695,0.00294181
-0.0117563,-0.00189216
-0.00592696,0.00415284
-0.00444239,0.00938726
-0.00275518,0.00380011
-0.00216082,0.0016447
0.000387221,-0.00693613
0.0092693,-0.0117975
0.0108663,-0.0114953
0.00940185,0.00820305
0.0166576,0.0227666
0.0248609,0.0303476
0.0180454,0.0227004
-0.00366862,0.00235036
-0.0107168,-0.00931196
-0.0102943,-0.0121354
0.00138207,-0.00521021
0.00204567,-0.00148361
-0.0128945,-0.00122418
-0.0254441,0.00621548
-0.0235704,0.00464348
-0.0192201,0.00336054
-0.00850966,-0.00251947
0.00835826,-0.0166217
0.00893018,-0.0221975
0.00539526,-0.0249093
-0.00319437,-0.0125417
-0.00878101,-0.00578235
-0.00246999,0.0256863
0.00910417,0.036468
0.00699258,0.00110776
0.00691701,-0.0374561
0.00584929,-0.0130476
0.00392693,0.00858517
0.0105871,0.00836028
0.00974119,0.0142852
-0.00184196,0.0208603
-0.00326563,0.0138386
0.000433615,0.00143907
-0.00199383,-0.00417373
-0.0024729,-0.0155425
0.00557717,-0.0159784
0.00113904,-0.00716342
-0.0075435,-0.00361366
-0.00222344,0.00358149
-0.00151691,0.0141083
-0.000175419,0.0201237
-0.00247801,0.00376603
-0.000862278,-0.00728651
0.000505951,0.00367838
0.000251942,-0.0028369
-0.00469843,-0.0117729
-0.00620014,-0.00445975
-0.00770382,-0.0021741
-0.00816215,0.000588643
-0.00730063,0.00568128
-0.00925912,-0.00984167
-0.00258616,-0.0262034
0.00294477,-0.00210638
0.00371913,0.0106044
0.0076797,0.0103055
0.0123503,0.0154419
0.0179858,0.0194673
0.0265025,0.00883472
0.0259576,-0.00905393
0.0265192,-0.0104191
0.0121446,0.00269628
-0.00174719,-0.000884731
-0.0198605,-0.00754681
-0.0240523,-0.000212545
-0.0260101,0.00100505
-0.01897,-0.002459
-0.00958004,0.0034874
-0.00480614,-0.00117888
0.000626525,-0.0188617
-0.000588942,-0.0013032
-0.00640808,-0.000427541
-0.00947979,-0.00593506
-0.0108814,0.00325938
-0.0161751,0.00939213
-0.00583592,0.0190385
0.0102059,-0.00234951
0.0153515,-0.0215053
0.0147862,-0.0150125
0.0134852,-0.00361546
0.0108399,0.00666266
0.00660931,0.0169386
-0.0102514,0.014245
-0.0193117,0.00376967
-0.00293477,-0.00469155
0.00829527,-0.0256846
0.00835821,-0.0379407
0.0050923,0.00667753
0.00366005,0.0167392
0.00105179,0.00936393
-0.00447781,0.0143224
-0.0153674,0.00770465
-0.016561,-0.0151007
0.00663745,-0.00505372
0.00183563,-0.00346592
-0.00556528,-0.0187112
0.00930437,-0.000777623
0.0039781,0.00769769
-0.00710124,0.0187633
0.00668814,0.0129978
0.0290825,0.00853115
0.0224906,0.000579685
0.0149479,-0.0140094
0.00661927,-0.00762514
-1.9e-05,0.010541
-0.00638019,0.00554058
-0.00871521,0.00443588
-0.011801,0.0099846
-0.0100132,0.0124657
-0.000589086,-0.001859
0.00650895,-0.0062268
-0.0113667,0.00288069
-0.0244253,0.000132326
-0.0030061,-0.0081347
0.0103752,0.000779519
0.0115031,0.000144794
0.0085764,-0.0101857
0.00420842,-0.02439
0.00860219,0.00505056
0.00962254,0.00116157
-0.000827842,-0.00592843
-0.00573113,0.00688173
-0.00464062,0.00868314
-0.0120036,0.00888927
-0.0215655,0.0185875
-0.0233368,0.00618129
-0.00694381,-0.00539877
-0.0035602,-0.0118796
-0.00194395,-0.0111072
-0.000242311,-0.00876923
0.00845014,-0.00204572
0.0128483,0.00429441
0.0165027,0.00621299
0.0104475,-0.00164875
0.00318068,-0.00301353
0.00568193,-0.00655392
0.00728968,-0.0133181
-0.00175254,-0.00640309
-0.0117055,-0.00626698
-0.0177938,-0.0107523
-0.0231739,0.0128228
-0.00260334,0.0300961
0.0292326,0.0327534
0.0336169,0.0147383
0.0206746,-0.00196735
0.00405632,-0.0271086
-0.012135,-0.0177326
-0.0274347,0.0124059
-0.0240846,0.0138901
-0.00885767,0.00646589
-0.0101847,0.0124763
-0.00668775,0.0192385
0.00633795,-0.0156946
0.00924465,-0.0383024
0.00121383,-0.0315646
-0.00406561,-0.0170871
-0.00380418,0.0164437
-0.00352087,0.0191121
-0.000100547,0.00904364
0.00698579,-0.00152441
0.0128376,-0.00641596
0.0159258,-0.00244415
0.00818267,-0.00222203
-0.00913244,0.00570997
-0.0190274,0.0134963
-0.00695302,0.0169884
-0.000796876,0.00299486
-0.00273963,-0.0102199
0.00294558,-0.00866206
0.00538014,-0.0124911
0.00393238,0.0023437
0.00360835,0.00536784
-5.62e-05,-0.0124369
-0.00246823,-0.0258508
0.0148285,-0.0311987
0.0203097,-0.021966
0.0226307,-0.00261807
0.0148863,0.00935852
0.00883697,0.00715562
0.0041928,0.0104069
-0.0043624,0.0219286
-0.0151708,0.0360724
-0.0236046,0.0338785
-0.0242953,0.0232124
-0.0133405,0.00648233
-0.010128,-0.00134988
-0.00679128,0.00340058
-0.00409067,-0.000425802
-0.00690275,-0.00782121
0.000940492,-0.0254697
0.00673061,-0.0232257
0.00634587,-0.0212348
0.0119755,-0.0401066
0.0082578,-0.0152582
0.00200049,0.00297153
0.00475256,0.00406422
0.00577441,0.0105482
0.00198534,0.0166693
-0.00221458,0.0162819
-0.00698069,0.0201284
-0.0086628,0.013965
-0.0032222,0.00266868
-0.00216377,0.0049173
-0.00339597,0.00830775
-0.000463623,0.00492229
0.00303907,0.00351011
0.00162779,0.00447774
-0.000857897,0.00118805
0.00441795,-0.00993351
0.0138969,-0.0161431
0.0033762,-0.00874895
-0.000113947,-0.00890337
0.0188315,-0.00450821
0.0111286,0.00565415
-0.00964984,0.0104861
-0.0170289,0.0130135
-0.0168578,0.0186182
-0.00859264,0.00989736
-0.00157792,0.00105351
0.0036867,-0.00998953
0.019836,-0.00455068
0.0276526,-0.00487092
0.0164721,-0.00972867
-0.000936502,-0.00937536
-0.0127565,-0.0128957
-0.0195931,-0.0195149
-0.0275405,-0.0204118
-0.0240959,-0.0111644
-0.0119006,-0.00497365
-0.0112385,0.0017765
-0.0207615,0.0075541
-0.017316,0.00765914
-0.00448228,0.0084747
0.0053867,0.004848
0.0213291,0.00175883
0.0259252,-0.00049243
0.0159831,0.00492711
0.0132483,0.00641316
0.0163064,0.005646
0.00987497,0.00546595
0.00388192,0.00631081
0.0115022,-0.00251681
0.0153108,-0.0142444
0.00701239,-0.00883398
0.00258564,-0.00600591
-0.00275293,0.00107615
-0.00732421,0.0156764
-0.00827313,0.0199158
-0.0049002,0.0176949
-0.00729779,0.0242862
-0.00845981,0.0118498
-0.00391172,-0.0225689
-0.00657304,-0.0299894
-0.00704079,-0.0118889
-0.00795737,-0.000561013
-0.00565416,0.00293783
0.0023793,0.0197285
0.0010139,0.00428215
0.00262999,-0.0152292
0.00290685,-0.0347936
0.00529511,-0.017961
0.00874433,-0.0038278
0.0101044,0.000869085
0.000590282,0.00351874
-0.00356237,0.00969923
-0.00224586,0.0101602
-0.00328192,0.00872526
-0.00394151,0.00303024
-0.00367595,-0.00249572
-0.0044758,0.00269068
-0.00521181,0.00625696
-0.00757527,-0.00172458
-0.00761832,-0.000725364
-0.00730254,0.00339984
-0.00341843,-0.00276097
0.0043913,-0.018099
0.0103415,-0.0167578
0.0102305,-0.00418809
0.0227835,0.000866874
0.0234691,0.00879161
0.0143878,0.00694188
0.0100916,0.00128636
0.000689553,0.0144807
-0.015112,0.0353572
-0.0200713,0.0319125
-0.0128365,0.0169736
-0.00914314,0.0136942
-0.0105049,-0.0195501
-0.00853768,-0.0275222
-0.0156207,-0.00367741
-0.0171656,-0.00554517
-0.00841363,-0.0145878
0.000102931,-0.0203747
0.00267884,-0.0135157
0.00347721,-0.00781967
0.000553186,-0.00415506
-0.00474831,0.0087589
-0.00528854,0.0149062
-0.00382876,0.00835916
0.00133645,0.0104448
0.00389367,0.00281329
0.010777,-0.002739
0.0218578,-0.0206235
0.0289334,-0.0188342
0.0362914,-0.0119878
0.0389179,-0.00509725
0.0319296,0.0194696
0.0217386,0.0125341
0.0104267,2.47e-05
0.0133983,-0.0103338
0.0122058,-0.00630001
-0.00199233,-0.00257851
-0.0211367,-0.00484851
-0.0374196,0.00274989
-0.0479393,0.0151327
-0.0504181,0.0150752
-0.0359455,0.0161184
-0.0266152,0.004197
-0.026856,-0.00490147
-0.0242965,0.00384663
-0.0178212,0.0119833
-0.00240845,0.00916046
0.00813477,0.00568346
0.00904844,0.00697362
0.00862559,-0.0008555
0.0163438,-0.0149783
0.0308958,-0.0198447
0.0273871,-0.0111215
0.0170667,-0.00877927
0.00780304,-0.00428214
-0.00616198,0.00512471
-0.0226858,0.00945471
-0.025103,0.00504425
-0.0150461,-0.000338527
0.021702,-0.0117358
0.0746322,-0.0140411
0.0841401,-0.00172487
0.0670473,0.00566866
0.04565,0.00422017
-0.00717579,0.00989405
-0.064055,0.0118611
-0.0812936,0.00295215
-0.0790186,-0.0114791
-0.0748056,-0.0135256
-0.0606307,-0.0114125
-0.0167458,-0.00624121
0.01799,0.0040933
0.0334732,0.00818696
0.0748069,0.00660993
0.0911139,0.0053265
0.0685514,-0.00194045
0.0459433,-0.0120521
-0.000350903,-0.0103864
-0.05751,0.000434281
-0.0940868,0.00257608
-0.0885665,0.0078868
-0.0628739,0.00942388
-0.0394035,0.00546228
-0.0112661,-0.00934088
0.0419737,-0.0183698
0.0659307,0.00394971
0.0802267,0.00119915
0.0852217,0.0015538
0.0738583,0.00992092
0.0469145,0.01197
0.000915065,0.00787897
-0.0428839,0.00593378
-0.0704383,-0.00493936
-0.0878157,-0.0142842
-0.0908247,-0.0052768
-0.065824,0.00203692
-0.0319978,0.00151344
-0.0117617,0.0047744
0.00726348,0.00927935
0.0150818,0.00403285
0.0313926,-0.00784627
0.055132,-0.0121422
0.0462511,-0.00585969
0.0291019,-0.00384203
