Comp Ch 3,Comp Ch 4
0.0330157,-0.0205989
0.0387525,-0.0255517
0.0394821,-0.0122106
0.040327,0.0102338
0.0424651,0.0182995
0.0307895,0.0118778
0.00769194,0.0123283
-0.013437,0.0201555
-0.0161966,0.00804785
-0.0175125,-0.01385
-0.0221574,-0.0177826
-0.0181748,-0.0141731
-0.0150146,-0.00287678
-0.0136494,0.00839107
-0.00639352,0.0139607
0.00818037,0.0074322
0.0213062,0.0128271
0.0243976,0.00516501
0.028023,-0.0184739
0.0313248,-0.0164795
0.0285448,0.000486949
0.0233856,0.00802335
0.00459406,0.0192271
-0.0182183,0.035986
-0.0306089,0.035562
-0.035334,0.00787782
-0.0325843,-0.00846383
-0.0347876,0.0102672
-0.0209263,0.0324487
-0.00893319,-0.00703781
-0.010257,-0.0445663
-0.00321527,-0.0541808
0.0104229,-0.0431759
0.0125686,-0.0212324
0.0145295,-0.0231133
0.0135455,-0.0315495
0.0132289,-0.0103498
0.0185644,-0.00235657
0.0154073,-0.0121437
0.00402051,-0.002374
-0.00797406,-0.00647902
-0.0107066,-0.00566832
-0.0118451,-0.0183923
-0.0130013,-0.0263376
-0.0163527,-0.0214079
-0.0172305,-0.0109806
-0.0209471,-0.00614044
-0.0152234,0.0115098
0.00210996,0.062199
0.0136515,0.156296
0.0160176,0.237102
0.0167949,0.228668
0.0194949,0.0881359
0.0236805,-0.0168772
0.0240678,-0.0590741
0.017112,-0.132669
0.00120613,-0.163555
-0.0160685,-0.168822
-0.0275341,-0.14643
-0.0300368,-0.106364
-0.0445253,-0.017787
-0.0583046,0.0368504
-0.0475964,0.051578
-0.0135936,0.0400195
0.0208785,-0.0202776
0.0341462,-0.0558269
0.0278899,-0.0591126
0.00961467,-0.00793674
-0.0202021,0.0135976
-0.0109888,-0.0133131
0.0121513,-0.000719145
0.0287663,0.0372026
0.0559631,0.117238
0.069441,0.174938
0.0571095,0.139899
0.0441511,0.081761
0.0331901,0.0332122
0.00516418,-0.0122209
-0.056238,-0.0420939
-0.141549,-0.0540702
-0.130939,-0.0332985
-0.0400223,-0.0206551
0.0504018,-0.0363986
0.0816458,-0.0704448
0.0902445,-0.0844797
0.0667723,-0.080795
0.0112855,-0.0518101
-0.0406182,-0.0460807
-0.0614844,-0.0120902
-0.0540203,-0.000784824
-0.0574409,0.0544273
-0.15254,0.119119
-0.223955,0.0962961
-0.160852,0.0290963
0.0197776,-0.0366401
0.162974,-0.0865798
0.134941,-0.0366416
0.147464,0.0336392
0.172462,0.0564269
0.166522,0.064542
0.149024,0.0351627
0.100009,-0.0112938
0.0322026,-0.0273581
-0.00206904,-0.0113675
-0.0206795,-0.0131099
-0.0352125,-0.0225312
-0.0531866,-0.0575759
-0.0371323,-0.0500985
-0.0236356,-0.0220511
-0.0384165,-0.0138314
-0.0587202,-5.72e-05
-0.0936996,0.0191853
-0.0916475,0.0239635
-0.0504305,0.0163143
-0.0308877,0.0525336
-0.0350626,0.0390723
-0.0486771,-0.00670121
-0.0572139,-0.0230651
-0.0379304,0.0288907
-0.0191152,0.0340048
-0.000214846,0.0286674
0.0227526,-0.00457283
0.0590973,0.0149688
0.0479866,0.0274463
0.0388344,-0.0413048
0.0465672,-0.0896068
0.0382592,-0.0421924
0.0169237,-0.0742269
-0.0307148,-0.0444805
-0.0409932,0.0649106
-0.00604584,0.0566472
0.0263017,0.0333174
0.0340874,0.0303547
0.00979589,0.008834
-0.00154155,-0.00730364
0.00673607,-0.0138875
0.00639431,0.0169747
0.002517,0.021458
0.00393823,0.018678
0.00772121,0.00424476
0.0126097,-0.0221959
0.0165588,-0.0365383
0.0166083,-0.0283969
0.0148837,-0.0111106
0.00817414,-0.0149765
-0.00546917,-0.00946739
-0.0191997,0.0102709
-0.0218234,0.0340009
-0.0218678,0.036693
-0.0227832,0.0215107
-0.0177793,-0.00784454
-0.0137662,-0.00442893
-0.0101898,0.00608754
0.00334334,0.0220505
0.00745907,0.0148547
-0.00176146,-0.00400396
-0.0062481,-0.0213652
-0.00246992,-0.0457596
0.00423983,-0.0587054
0.015601,-0.0322312
0.020545,-0.0218276
0.0100395,-0.0135395
-0.00631819,0.0209734
-0.00620868,0.0239521
-0.00973654,0.00810719
-0.0128788,0.032184
-0.0186207,0.0205607
-0.0331047,-0.0129964
-0.00742868,-0.00544971
0.00866068,0.0178528
0.0103233,0.0477248
0.0111152,0.0261427
0.0149571,0.0245812
0.0165547,0.0107745
0.0185295,-0.0179261
0.0158624,-0.0375662
0.00774725,-0.0257115
0.000989485,-0.0299536
-0.00352533,-0.0322077
0.0047872,-0.00785246
0.0220852,0.0293582
0.0374613,0.0149679
0.0308758,0.00608837
0.0234229,-0.00327551
0.0223261,-0.00717272
-0.0237611,0.00484323
-0.0296653,0.02118
0.00765956,0.0225767
0.026495,0.0218266
0.0220341,0.0160794
0.00235431,-0.00638661
-0.0152586,-0.0350883
-0.0762772,-0.0368651
-0.149895,-0.0247421
-0.122665,-0.0277858
-0.0446392,-0.00640669
-0.000825882,0.00428643
0.00801475,0.00143542
0.00971296,0.0153196
-0.00199498,0.0184926
-0.0160589,-0.00190364
-0.0196212,-0.00643756
-0.0507174,0.010814
-0.0680427,0.0184671
-0.0701922,0.0163521
-0.0107203,0.0219095
0.0800786,0.0136792
0.15465,-0.00118685
0.194436,-0.0269863
0.184239,-0.0424012
0.143466,-0.049825
0.0749062,-0.00581055
0.0151194,0.0104734
-0.0200914,0.018941
-0.0741118,0.0209645
-0.126525,0.0201577
-0.0988032,0.0126642
-0.027872,-0.00982055
0.0447977,-0.00338212
0.070038,0.0169517
0.0368905,-0.00388671
-0.00657535,-0.0177839
-0.00998749,0.0055687
-0.010109,-0.0281719
-0.00682934,-0.0343197
-0.00499573,0.00497219
-0.00426111,0.0128518
-0.0180806,-0.0105461
-0.0337262,-0.0125617
-0.0334226,-0.00227068
-0.0284071,0.00359384
-0.018394,0.0294163
-0.000988591,0.0538158
0.00346833,0.0376702
-0.004209,-0.00844612
-0.0110515,0.00557758
-0.0134639,0.022338
-0.0077486,0.0186136
-0.00518336,0.0204032
-0.00852429,0.0265599
-0.0199389,0.00727553
-0.010275,-0.0292346
-0.00314246,-0.0348109
-0.00951888,-0.0351947
-0.00892742,-0.0310631
-0.00430685,-0.00654426
0.00568183,0.0119089
0.0393237,0.00318014
0.0872057,0.00112989
0.0973935,-0.00282141
0.0583383,-0.0284143
0.00840159,-0.0272857
-0.0600864,0.00345453
-0.0938825,0.0182663
-0.0869474,0.0120103
-0.0652984,0.0172856
-0.0255148,0.0335273
0.0146978,0.00323819
0.021969,-0.0264332
0.00489228,-0.0329278
-0.00583022,-0.026165
-0.0108633,-0.0233041
-0.0157481,-0.00726787
-0.0163447,0.00267295
-0.0015296,0.00777363
0.0176967,0.0112183
0.0191773,0.00849986
0.0180159,-0.0047771
0.0158663,-0.00826679
0.0163696,0.0153931
0.0204744,0.0216461
0.0191831,0.0191491
0.00836888,0.0202901
-0.00284952,0.0037101
-0.00328757,-0.0304806
0.00769375,-0.0631006
0.0115358,-0.00171092
0.00576549,0.02217
-0.00417029,-0.00709174
-0.0212286,-0.009087
-0.0178463,0.0104475
0.00609679,0.0207811
0.0187873,0.0315122
0.0101283,0.00399966
0.00242152,-0.0335529
0.00444306,-0.00872957
0.00758756,0.0241302
0.00405189,0.0207404
-0.00214138,0.0214821
0.000585043,0.0259226
-0.00048487,0.0126893
-0.00105108,-0.0211113
0.000638441,-0.0295877
-0.003475,-0.0223859
-0.0167168,-0.0293784
-0.032176,-0.0289829
-0.0269829,-0.0166032
-0.00457695,0.00384565
0.0144661,0.0432846
0.0199027,0.0280299
0.0208516,0.00435331
0.0266259,-0.0166461
0.0155265,0.00821645
-0.00187139,0.0130694
-0.00574296,0.00575272
0.0168737,0.0125064
0.035505,0.0331163
0.0323146,0.0101405
0.0205732,-0.0159538
-0.0032641,-0.0192386
-0.0659334,-0.0240134
-0.134118,-0.037531
-0.118052,0.00396219
-0.054856,0.0285211
0.0315367,0.010444
0.0888297,0.00501565
0.0986717,-0.00566871
0.0807205,-0.0300559
0.0391993,-0.0106741
0.018268,0.0209302
0.00574321,0.0045259
-0.00571321,-0.00126133
-0.0262814,0.0254876
-0.0918722,0.0289033
-0.151562,0.000917565
-0.104616,-0.0258349
0.00491386,-0.0270987
0.0466599,-0.0281396
0.0603796,-0.0160667
0.0656542,0.00849265
0.0501775,0.00861942
0.0362603,-0.0188031
0.0376007,0.0196649
0.0344365,0.0152223
0.0151704,-0.00911823
0.00163216,-0.012002
-0.0130752,-0.000225987
-0.0073079,0.0215254
0.00163087,0.0218629
-0.00747102,0.0230825
-0.0233817,0.0297668
-0.0211957,0.0121577
-0.0357608,-0.0186893
-0.0482705,-0.0306584
-0.0128093,-0.0241438
0.0421204,-0.00158792
0.0527747,0.0191419
0.0275633,0.0109956
0.0236346,-0.0017458
0.0306118,0.00792464
0.00260956,-0.0184362
-0.0114696,-0.037743
-0.0100093,-0.0208182
-0.0240305,-0.00239245
-0.0462146,0.0154036
-0.0554839,0.024748
-0.0867285,0.0273065
-0.0888502,0.004286
-0.0232475,-0.0194837
0.0768869,-0.0234474
0.147726,-0.0109941
0.116532,-0.00746909
0.0423882,0.0100104
0.0146266,0.0288331
-0.00585054,0.0193825
-0.0435232,-0.000967798
-0.0684506,-0.0262511
-0.0477465,-0.0347108
-0.0124912,-0.0104033
-0.00900711,-0.0122367
-0.0104934,-0.00986951
-0.000963105,0.0231812
0.0121644,0.026685
0.0264412,0.0128473
0.0361654,0.0156554
0.0374978,-0.00860634
0.0227232,-0.0105516
0.0106062,-0.00149503
0.00353815,0.00424559
-0.00602651,0.0147103
-0.0232059,0.0227221
-0.0372487,0.0175423
-0.0370245,0.00461521
-0.0328361,-0.0128317
-0.0199448,-0.0291011
-0.00901336,-0.0220832
-0.00497898,-0.00565387
-0.00388183,0.00388154
-0.000706934,0.0126588
0.00545494,0.021971
0.00390167,0.0012628
0.00288823,-0.0313957
0.0164865,-0.0482551
0.0238597,-0.00704652
0.0158757,0.024618
-0.00183344,0.00934247
-0.015929,0.0150406
-0.0322459,0.0194155
-0.0285793,-0.013377
0.00284132,0.00429639
-0.00337148,0.00174809
-0.00187376,-0.0244694
0.000176808,-0.0153988
-0.00115513,0.00405077
0.00210394,0.0143747
0.00757452,0.0188386
0.0197332,0.0296054
0.0252207,0.020372
0.0263958,-0.0087458
0.0199487,-0.0208456
0.0187838,-0.0160449
0.0317458,-0.00441719
0.0292027,0.00551647
0.0107154,0.00305626
-0.00465262,0.0119372
-0.0216458,-0.00750232
-0.0262475,-0.0182879
-0.0121344,-0.00857743
-0.00203374,-0.0145044
-0.00692693,0.00530749
-0.0193907,0.0116117
-0.0160786,0.00902973
-0.00315275,0.0100304
-0.00895627,0.0259151
-0.0149664,0.0118051
-0.0199993,-0.022917
-0.0116323,-0.0206803
0.000827274,-0.0128152
0.0178349,-0.00524156
0.0241981,-0.00357327
0.0163956,0.0141788
-0.00121276,0.0120954
-0.0109931,0.00201365
-0.0182691,-0.0210317
-0.0223366,-0.0501838
-0.00332545,-0.029079
0.0168957,0.00594512
0.0248279,0.0523435
0.00358289,0.0379874
-0.0698583,0.0309967
-0.101538,0.0370107
-0.0918471,0.016006
-0.0444789,-0.0220035
0.0330848,-0.0230717
0.110382,-0.0083675
0.131834,-0.00661519
0.105949,0.00999414
0.0528944,0.0151234
-0.0320258,-0.000213604
-0.0716253,-0.00365993
-0.0203775,-0.0167202
0.0236102,-0.029798
0.0276132,-0.0124198
0.00982524,0.00658668
0.0002208,0.00112708
-0.0203017,-0.0085134
-0.00594816,0.00715712
0.0548152,0.00311063
0.065797,0.00488178
0.0336117,-0.00445296
0.00745425,-0.0191053
-0.00581308,0.00582624
-0.0142318,0.011092
-0.0218736,0.0126668
-0.0270214,0.00861908
-0.0322928,0.00206013
-0.0533066,-0.00668312
-0.0887278,-0.0348617
-0.0956886,-0.0444971
-0.0960091,-0.000911698
-0.0632402,0.020027
0.0193193,0.0212852
0.104384,0.0299438
0.133726,0.0344864
0.0988489,0.01073
0.054246,-0.0232275
0.0208141,-0.0314265
-0.0176003,-0.0119396
-0.0240186,0.00051046
-0.0219619,0.0030967
-0.0211751,0.013073
-0.0105894,0.0112872
-0.00885286,0.0225871
-0.00984246,0.0054514
-0.0082609,-0.0392895
0.00501103,-0.038128
0.0124166,0.00103302
0.0124034,0.00225343
0.00391895,0.00601691
-0.00517515,0.00963375
-0.000697637,0.0297761
0.0191141,0.0244858
0.0154545,-0.0189477
-0.0118773,-0.0160448
-0.0394675,-0.0116629
-0.0504902,-0.00557772
-0.0328425,0.0107164
-0.0107634,0.0168881
-0.0145878,-0.00018514
-0.0139277,0.00138684
0.00625876,-0.0102195
0.0176906,-0.0229436
0.0169315,-0.00288888
0.0143472,0.0135124
0.00725124,0.0160614
0.00537806,0.019765
0.00149142,0.00964226
0.00382524,-0.000218326
0.013849,-0.0319122
0.0254832,-0.0163964
0.0277204,0.00533076
0.0143364,-0.00742629
0.00113515,-0.00712444
-0.00708007,0.00639366
-0.00737953,0.00933666
-0.0078884,0.00351191
-0.00782789,0.00166675
-0.00870882,-0.0170197
-0.00760855,-0.0159885
0.000256981,0.00988517
0.00490182,0.0188734
0.00398187,0.0186425
0.0029988,0.0231334
0.00163449,0.0321486
0.00429602,0.0167732
0.0101457,-0.0207841
0.00285566,-0.0317746
8.38e-05,-0.0172543
0.000783892,-0.0075637
-0.0150454,-0.00268485
-0.0255657,0.00388692
-0.0284434,-0.00980682
-0.031123,-0.0222103
-0.0293053,0.00110545
-0.014682,0.00369339
-0.00450746,-0.00293778
-0.0136703,0.00773701
-0.0102518,0.00759077
0.0202205,-0.00132598
0.0489082,0.029388
0.054476,0.0449121
0.0477336,0.0159605
0.0273604,-0.0293197
-0.00734771,-0.0424467
-0.0274328,-0.0399702
-0.0230405,-0.0279242
-0.00131565,0.0078938
0.00296757,0.01203
-0.00308183,-0.0194836
0.00205048,-0.0301412
0.0148271,0.0210879
0.018517,0.00379026
0.0200633,0.00628449
0.018934,0.0239633
0.00623168,0.0218994
-0.00530537,0.0230273
-0.00729494,0.0344659
-0.00700392,0.0247938
-0.0106026,-0.00489659
-0.0150493,-0.0173894
-0.0170775,-0.0177787
-0.018055,-0.0238522
-0.0188715,-0.0124408
-0.0122313,0.00198288
-0.00490489,0.00758018
0.000993127,0.00249176
0.000470479,-0.003871
0.00399205,-0.02958
0.0183604,-0.0413397
0.0287781,-0.0170623
0.0270343,0.00271344
0.0168706,0.00161797
0.00869923,0.00930046
0.00305191,0.0152924
-0.00199919,-0.00282089
-0.00620183,-0.0245202
-0.00894058,-0.0171246
0.000341864,-0.00278611
0.00989012,0.00436139
-0.00255998,0.0206652
-0.00978974,0.0360345
-0.00721871,0.0304226
-0.0305825,0.02138
-0.0753134,0.00167036
-0.113363,-0.0129742
-0.0946096,-0.00805533
-0.0719718,0.0249317
-0.00391591,0.038852
0.100813,0.0441849
0.149114,0.0492405
0.128745,0.0499381
0.0721932,0.0123684
0.020035,-0.0241541
-0.00891081,-0.0204294
-0.0350576,-0.0161145
-0.0541981,-0.0208683
-0.0481496,-0.0193929
-0.0400724,-0.0224096
-0.0115189,-0.0248491
0.0200594,-0.0285208
0.0395406,0.0129347
0.0399816,-0.00408162
0.0164135,-0.0197411
0.000795841,0.00291437
-0.0220964,0.00658613
-0.0384717,0.00844819
-0.0129948,0.0214646
-0.00739166,0.0102682
-0.00503848,-0.0174667
0.000949637,-0.0294379
-0.0024491,-0.0152247
-0.00525956,-0.015391
0.0034586,-0.00846158
0.0151944,0.00657684
0.0223265,0.0102279
0.0264741,0.00358542
0.0221184,-0.00522414
0.0188985,-0.0300804
0.0219573,-0.0394935
0.0220679,-0.0139325
0.0141172,0.00558026
-0.000281883,0.00568946
-0.0152403,0.0130342
-0.019709,0.0253218
-0.0169065,0.0174118
-0.0123069,-0.0115825
-0.0138807,-0.0166287
-0.0199331,-0.00481328
-0.0268017,-0.00297883
-0.0318109,0.00587448
-0.025468,0.0206209
-0.0443525,0.0162602
-0.0468989,0.0105828
-0.0430632,-0.00247577
-0.0337728,-0.0232165
-0.00329947,-0.022287
0.0654261,-0.000427961
0.117025,0.00589422
0.117004,-0.00311142
0.0859793,0.0100255
0.0388158,0.0386893
0.00071824,0.00777304
-0.0325448,-0.0205475
-0.0489545,-0.0174478
-0.0514062,-0.00210366
-0.0402613,-0.0112935
-0.0262933,-0.00253495
-0.0130947,-0.00194537
0.00293341,0.0158549
0.0158344,0.0303528
0.0125764,-6.92e-05
0.0184207,-0.0278222
0.0109454,-0.0221297
-0.00641603,-0.00624667
-0.0256595,0.00352754
-0.0378384,-0.00886786
-0.0279337,0.0159264
-0.00437214,0.0336164
0.00433546,0.0128839
0.00368039,-0.00542109
0.00274551,-0.00730357
0.00391182,-0.00493746
0.010408,0.00212657
0.0148472,0.0138188
0.0184453,0.0182374
0.0204425,0.00913284
0.0152277,0.000605464
0.00950865,-0.0218163
0.00596299,-0.0402673
0.00172856,-0.0215005
-0.00779083,-0.00133325
-0.0176124,-0.000512806
-0.0226767,0.00881325
-0.0203366,0.0251763
-0.0171094,0.0138552
-0.0153384,0.00549468
-0.00876382,-0.011076
0.00339828,-0.0058847
0.0108574,0.0104551
0.00870987,0.0258183
-0.000583247,0.0266925
0.0044004,0.0171477
0.0161346,0.0132908
0.0206784,-1.89e-05
0.0227542,-0.0352424
0.0181926,-0.0376793
0.00618912,-0.0110641
-0.00258992,0.00275865
-0.0180586,0.00775186
-0.0253857,0.0187283
-0.0233889,0.0211506
-0.0114449,0.00791578
-0.00417794,0.00172206
-0.00504086,-0.00598945
-0.000182938,-0.0157522
0.012288,-0.00514956
0.0196682,0.0143705
0.0203004,0.0233894
0.0188889,0.0128295
0.0151096,0.00180381
0.00953627,-0.0114284
0.00106866,-0.0310279
-0.0020906,-0.0221005
-0.00604136,-0.00744831
-0.0124351,-0.0124574
-0.0241562,-0.00950164
-0.0387994,-0.00584904
-0.0367785,0.00119395
-0.0156734,-0.00208791
-0.00636632,-0.000674811
0.000213341,0.00881827
0.0057657,-0.00263592
0.00517851,0.00712491
-0.0114549,0.0297979
-0.00606705,0.0274658
0.0012148,0.00943037
0.0131864,-0.00255875
0.0335896,-0.0263975
0.0545277,-0.056173
0.0808354,-0.0426083
0.103051,-0.00210658
0.0774809,0.00560163
0.031791,0.0316433
-0.0212814,0.0311028
-0.0612575,0.0199227
-0.0682471,0.00232585
-0.0496011,-0.00411426
-0.0427508,-0.000276179
-0.0367541,0.00208271
-0.0379461,0.00969462
-0.0302148,0.0180216
-0.0157439,0.0135939
-0.0076035,0.00484526
0.00406542,-0.00553152
0.0115286,-0.0310357
0.0107756,-0.0372805
-0.0287862,-0.0159531
-0.0981458,0.00621826
-0.094982,-0.00407843
-0.0477591,-0.00676208
0.00137693,0.011698
0.041064,0.00650494
0.0721545,-0.0157695
0.0758005,-0.00294901
0.0569548,0.00674508
0.0359805,0.00554985
0.0291397,0.0460803
0.0371186,0.0459737
0.0386664,0.0120699
0.0260315,-0.0025353
0.00959017,-0.0159951
0.00402855,-0.0367709
-0.000823056,-0.0374741
-0.00593394,-0.0223972
-0.00806942,-0.013676
-0.010172,-0.00742677
-0.0115186,0.00360419
-0.0125459,0.0180763
-0.0189601,-0.00604426
-0.029764,-0.0360564
-0.0360898,-0.0146041
-0.0312375,-0.00239978
-0.0161802,0.00246336
0.00811133,0.06579
0.0130619,0.0550691
0.00892319,0.0290087
0.0064183,0.0180671
0.0149011,-0.00599782
0.0235725,-0.0324741
0.00958576,-0.0301275
-0.00328281,-0.0161242
-0.00211222,-0.0155665
0.00902814,-0.00228727
0.00269162,0.0161393
-0.00797862,0.0231788
-0.00931339,0.00491103
-0.0168999,-0.0235365
-0.0191136,-0.00725941
-0.00067784,0.0148257
0.00599313,0.0102209
0.0027979,0.02423
0.0141177,0.0359202
0.019722,-0.000124375
0.0145349,-0.00985073
0.0323385,-0.0315805
0.0584028,-0.0390104
0.045092,-0.0260208
0.013853,-0.0138178
-0.0238499,-0.00375595
-0.0554374,0.00990773
-0.0786578,0.0210871
-0.0696658,0.010287
-0.0347462,-0.00872886
-0.0245358,-0.0066725
-0.045105,0.00583201
-0.0315662,0.0105327
0.012569,0.0170058
0.0370253,0.0237744
0.0215622,0.0157774
-0.010381,0.00874914
0.000897603,-0.00986613
0.0108077,-0.0358428
0.0182075,-0.0365498
0.0275361,-0.0215944
0.0458233,-0.0110179
0.0503794,-0.000499772
0.0337221,0.0206097
0.00999329,0.0282692
0.00165944,0.00384989
0.002854,-0.00970018
0.000208636,0.003679
0.00669156,0.011626
0.0154097,0.0198078
0.0103759,0.0223138
-0.00208862,0.017882
-0.0128972,0.0106927
-0.019137,0.00560887
-0.0227319,-0.0145003
-0.0164961,-0.0383566
-0.0194876,-0.0366927
-0.0257138,-0.0225897
-0.0313492,-0.0178293
-0.0279023,-0.0110781
-0.0191925,0.00419977
-0.00122443,0.0278087
0.0211891,0.0274254
0.0272355,-0.0125617
0.0239037,0.00375497
0.0165772,0.035189
-0.00233104,0.00772444
-0.0154759,0.0164133
-0.013891,0.0300662
-0.00832975,0.00841246
0.00122193,-0.0161128
0.00931391,-0.0307413
0.0188533,-0.037668
0.011149,-0.0281501
0.00708603,-0.0082805
0.00472456,0.00101084
-0.00253559,0.00835917
-0.0107126,0.0162075
-0.00886314,0.0092933
0.00142238,-0.00795477
0.00705195,-0.00888983
0.010615,-0.00207902
0.00784404,0.000593933
0.00319298,0.00789165
-0.00624645,0.0126027
-0.00867733,0.00576595
-0.00896543,0.00473267
-0.00252757,-0.00965166
-0.0012677,-0.031241
-0.00841692,-0.025571
-0.0121895,0.00576736
-0.00301079,0.0204035
0.00230269,-0.00126059
0.00406208,0.00940816
0.00150475,0.0226078
-0.000225236,0.0136905
0.00405575,-0.00509577
0.0062809,-0.00476675
0.00544736,0.000540264
0.00541725,0.00544608
0.0111175,0.0132656
0.0155889,0.0176615
0.0122273,0.00654809
0.00223657,0.00220394
-0.00708648,-0.0240701
-0.0206189,-0.0454122
-0.0166243,-0.014844
-0.00123833,-0.0119439
0.00767117,-0.00230903
0.00460014,0.00739531
6.66e-06,0.0210969
-0.00016513,0.0272714
0.0026588,0.00302233
0.00568499,-0.00918024
0.00574484,-0.00024053
0.00134993,-0.00647152
-0.00221078,-0.00063178
-0.00874348,0.00572899
-0.0200761,0.0075671
-0.0186329,0.00991477
-0.0138269,0.00824291
-0.00633134,-0.00532194
-0.00558107,-0.0216148
-0.00173246,-0.0142025
0.00182102,-0.00504494
-0.00329622,-0.00146513
-0.00218384,0.00968848
0.0181274,0.0249697
0.0460227,0.0172109
0.0671881,-0.00746421
0.0628743,-0.00559782
0.0388323,-0.000506384
0.0134201,0.00381742
-0.012421,0.00661926
-0.0515714,-0.00218484
-0.0714848,-0.00188517
-0.0703753,0.00621595
-0.0703497,0.0148809
-0.0383853,-0.0257963
0.0123154,-0.0357828
0.0463914,-0.0204226
0.0649086,-0.012895
0.0558903,-0.0161904
0.0324321,0.02477
-0.000138828,0.028528
-0.0395343,-0.00283189
-0.0632089,0.00202993
-0.0739296,0.035494
-0.0580509,0.0193962
-0.0631004,-0.0229467
-0.0642024,-0.00830437
-0.00638677,0.0172055
0.0431852,0.0167441
0.0585562,0.00557406
0.0547046,-0.0138081
0.0794926,-0.0275706
0.0850281,-0.0161868
0.0615751,-0.000186401
0.0263737,-0.00670032
-0.027031,-0.00541191
-0.0993076,0.0104549
-0.106596,0.0149079
-0.0455548,0.0028317
0.0343495,-0.0129532
0.0865536,-0.00714408
0.0886206,0.000708408
0.0766357,0.0047293
0.0438082,0.0075687
0.00225144,0.00415719
-0.0122157,0.00944029
-0.0165292,0.0066232
-0.0179441,-0.0124222
-0.0241134,-0.0233875
-0.040005,-0.0246789
-0.0407261,0.00589968
-0.0164439,0.0352799
0.000261494,0.0486018
0.00216195,0.0224199
-0.000983888,-0.0367081
0.00251564,-0.040881
0.00627293,-0.0113279
0.0028592,-0.00139523
0.00170212,-0.00041493
0.000638853,0.0129438
-0.00303091,0.0206473
-0.00516713,0.0213578
-0.0142967,0.0126927
-0.0183325,-0.00259029
-0.00622575,-0.0222333
0.00043726,-0.0266287
-0.00829863,-0.0122516
-0.00890553,-0.00395785
-0.0132179,-0.00577649
-0.0223986,0.00679024
-0.0139713,0.020245
0.00896002,0.0205095
0.0198831,-0.0155517
0.0164291,-0.0296003
0.00769031,-0.00372344
0.00483044,0.00843743
0.0163312,0.00616144
0.0278634,0.00143081
0.0125481,0.0073894
0.015139,0.0200295
0.0142656,-0.0106259
0.00539731,-0.0277065
0.00160179,0.0044736
0.00672406,0.00824377
-0.00403006,-0.00554582
-0.0326237,0.00271953
-0.0323963,0.0157647
-0.00775051,0.0200834
0.015202,0.00341828
0.00515679,-0.0163941
-0.0153767,-0.0108322
0.00067613,-0.0174216
0.0138298,-0.00237511
0.00412316,0.0193895
-0.0193063,-0.0068043
-0.0245841,-0.00142645
0.00640701,0.028239
0.0220502,-0.0170099
0.0128187,-0.0334846
0.00759422,-0.00920791
0.00313322,-0.00092601
-0.0167057,-0.00251711
-0.0852054,0.00670023
-0.122999,0.0305463
-0.0771732,0.0340503
-0.00427106,0.00848097
0.0608076,-0.00399876
0.101121,-0.0155725
0.11165,0.00943322
0.0717343,0.0223602
0.00943105,0.0122284
-0.0113811,0.00790493
-0.0201055,-0.00592346
-0.0058374,-0.0121195
0.0153994,-0.0203496
0.00693559,-0.0529103
0.000935598,-0.0802088
-0.00801442,-0.0330144
-0.0273545,-0.0201742
-0.00609265,0.0592353
-0.00457929,0.0623221
-0.0176779,0.0213999
0.00350419,0.00234592
0.00915627,0.0079603
-0.00150621,0.0150168
-0.0069754,0.00341517
-0.0563344,-0.0121239
-0.0896588,0.0182681
-0.0633489,0.0249102
-0.0121562,0.00796282
0.0458692,-0.0103857
0.0932349,-0.0211935
0.0859546,-0.020727
0.0338877,-0.00908568
0.0240491,-0.0139367
0.0415531,-0.00790025
0.0357901,0.0509881
0.0254481,0.0807541
0.0383474,0.0329903
0.0305116,-0.024604
-0.0115011,-0.0790359
-0.0295197,-0.0964385
-0.0456385,-0.0197331
-0.0736805,0.0591826
-0.0724148,0.0356694
-0.0496519,0.0192648
-0.0232232,-0.00338148
0.0195504,-0.0370723
0.0407035,-0.026943
0.035423,0.0494929
0.00375305,0.0889898
-0.0352157,0.0490883
-0.0377083,-0.0352834
0.000285265,-0.0602167
-0.0643854,-0.00929178
-0.0550986,-0.00790887
0.00505339,-0.030429
0.0862213,-0.0475175
0.0966677,-0.0428725
0.0474014,0.0243039
-0.107309,0.0255429
-0.177323,-0.0206121
-0.0856516,-0.0553361
0.0790384,0.0275577
0.167138,-0.00277058
0.131543,-0.0293155
0.0682044,-0.00156492
0.0114514,0.0209067
-0.0166482,0.0264761
0.0067388,0.0208961
0.0382155,0.0298327
0.0294817,0.0130035
0.0250533,-0.00300049
0.0213115,0.0106781
-0.0308476,0.00128366
-0.0781901,-0.0332694
-0.180389,0.00829849
-0.29675,0.0340916
-0.256954,0.0267075
-0.0645367,0.0453115
0.137162,0.0355842
0.200938,-0.046384
0.204857,-0.0866432
0.182529,-0.0122097
0.100734,0.00824005
0.00687534,0.00427054
-0.12313,0.00435387
-0.164837,0.00933512
-0.132095,-0.00394572
-0.0165145,-0.0171978
0.126454,-0.000512079
0.124497,-0.00222787
0.0490683,-7.93e-05
0.0363384,0.0100313
0.036372,0.0213735
0.0323972,0.0428119
0.0107876,0.0104659
-0.0185073,-0.0179465
-0.0118132,-0.0546748
-0.00606535,-0.0601867
-0.0047741,-0.0149359
0.0139166,-0.0217968
-0.0155695,0.0123718
-0.00790033,0.0573228
0.0223428,0.0383963
0.0296705,0.0326592
0.0150481,0.00803536
0.0163875,0.013135
0.0190564,0.000860463
0.024077,0.0197896
0.0232284,0.0328867
0.0120528,0.0101733
-0.0315159,-0.0193482
-0.0900449,-0.0364963
-0.115629,-0.0609642
-0.121828,-0.0627962
-0.18998,-0.0147956
-0.204798,0.0208567
-0.116385,-0.00855411
0.0444159,-0.00558334
0.195706,0.0459819
0.162199,0.0321351
0.0361818,-0.00451052
-0.0652662,0.00764733
-0.116495,0.0143784
-0.0199068,0.0158827
0.0926218,0.0115027
0.217694,-0.00518219
0.236586,0.0602234
-0.011169,0.0497194
-0.213387,-0.00775707
-0.275654,-0.0600248
-0.121425,-0.0502187
0.0585823,-0.0167142
0.203527,-0.00460523
0.249174,-0.00355006
0.156027,-0.0112253
0.00645207,-0.0559332
-0.12989,-0.0653384
-0.150369,-0.0261916
-0.0464556,-0.00555894
-0.0085087,-0.0104985
0.125345,-0.0304126
0.203868,0.0116623
0.159223,0.0530978
0.106366,0.0792775
0.0551623,0.0606316
-0.019414,0.0507701
-0.0997785,0.0310324
-0.124739,0.0218396
-0.160229,-0.0317357
-0.166431,-0.0616884
-0.11177,-0.0744815
-0.0321744,-0.0166421
0.0567901,0.00897961
0.0912474,-0.0258979
0.0566969,-0.00125768
0.0130897,0.00578864
-0.000505593,0.0412501
0.00189542,0.0767
-0.00765455,0.0727897
-0.0288565,0.0594745
-0.00912597,0.0259883
-0.0123787,-0.0507126
-0.00809207,-0.0692147
0.015393,-0.045291
0.0448794,-0.0215559
0.0470663,-0.0138594
0.0223342,-0.00649027
-0.0251308,0.0246464
-0.0905878,0.0307253
-0.0982816,-0.0358589
-0.0448167,-0.0716371
-0.0172005,-0.0577446
0.000437527,-0.00241357
0.0725562,0.0586004
0.15537,0.0224529
0.130953,0.0159905
0.0879754,0.0398206
0.0587935,0.0207458
0.0117655,0.00968839
-0.0797458,-0.0272549
-0.127311,-0.0478705
-0.200988,0.0131185
-0.337494,0.0173918
-0.220435,0.097121
-0.0739321,0.00415217
-0.0167079,-0.0726889
0.0290883,-0.0510318
0.0175429,-0.0105665
-0.0546419,-0.027091
-0.140209,0.000506669
-0.149781,0.032502
0.0745391,0.0384622
0.316025,0.0151991
0.478345,0.0345789
0.459172,0.00902895
0.196396,-0.0282961
0.0238856,-0.0265807
-0.0256439,-0.030865
0.0284993,-0.0306641
0.0417194,-0.0460497
0.020719,-0.0168129
-0.0238849,0.0223251
-0.303351,0.00765893
-0.453881,0.00014277
-0.314409,0.00183293
0.00882215,-0.0257172
0.258623,-0.0109928
0.310681,0.00937706
0.166642,0.0338904
0.0340283,0.0475992
-0.0431636,0.0323459
-0.0918205,0.00585592
-0.10094,-0.00982559
-0.0712373,-0.00505356
-0.0233077,-0.00154815
0.00153602,-0.00224376
-0.0213044,-0.00258625
-0.00437724,0.00498135
0.0474556,0.00808899
0.0873124,0.00374949
0.0899762,0.00447275
0.0516216,0.00850963
-0.00870755,0.00987941
-0.0594148,0.0241419
-0.0685634,0.0204716
-0.0544487,0.0231705
-0.0409264,0.0123415
-0.041942,-0.0352433
-0.0451759,-0.0472904
-0.0303845,0.00479469
-0.00760873,0.0110385
0.014375,-0.0168887
0.0360674,-0.0263616
0.0364831,-0.0217315
0.0211652,0.0110277
0.027812,0.00719927
0.0557197,-0.00698288
0.0521711,0.00582747
0.0159848,0.0234032
-0.0149818,0.0269292
-0.0336961,0.028162
-0.0422082,0.0223066
-0.0354032,0.0140553
-0.0399073,-0.0155013
-0.0383301,-0.0248368
-0.0251523,-0.0535878
0.0126752,-0.00738315
0.0505445,0.00938146
0.0510002,-0.0309396
0.0455042,-0.0217403
0.0455729,-0.000976497
0.0394171,0.0262278
0.0326856,0.0340901
0.0383808,-0.00872327
-0.00281559,-0.0492112
-0.0534452,-0.0177912
-0.105047,0.0026766
-0.135908,0.0178661
-0.120226,0.0355438
-0.0406261,0.00566573
0.021809,0.017234
0.030571,-0.0117858
0.00413015,-0.0627989
-0.0566857,-0.00710974
-0.0409967,-0.0100107
0.00046861,-0.0048319
0.0247026,0.00600957
0.080387,0.00545058
0.131032,-0.00889431
0.120173,-0.023599
0.00317047,-0.0278034
-0.0872272,-0.0164984
-0.0717038,-0.0147589
-0.0167198,0.00477815
0.0588013,0.0302291
0.108348,0.0582928
0.0627133,0.0471928
-0.0242923,0.0234895
-0.0816013,-0.0105643
-0.100438,-0.0175093
-0.101098,-0.00284681
-0.0259121,-0.0204151
0.0640044,-0.0258575
0.0979421,-0.0316638
0.0732468,0.018884
0.0111196,0.0226283
-0.0268035,-0.00446082
-0.0306998,0.00277834
-0.0619296,0.00738571
-0.0305109,-0.00145048
0.050702,0.00332994
0.0387845,0.0209559
0.00510694,0.038756
-0.0143814,0.0412033
-0.0204018,-0.00127568
0.0259533,-0.0202312
0.0374752,-0.0134975
0.00771173,0.00767447
0.0143731,-0.00854086
0.0383084,0.014612
0.0415914,0.0577209
0.029676,0.032849
0.024297,-0.00858846
-0.0158292,-0.017364
-0.0372608,-0.00748368
-0.0100763,0.000540481
-0.00298858,0.000103514
0.000346445,0.000934461
0.00276463,0.00724332
-0.0220376,0.0107825
-0.0711357,0.000748356
-0.0954438,-0.0229579
-0.0635679,-0.0339004
0.00832469,-0.0302722
0.044211,-0.0222533
0.0328454,-0.0319637
0.01719,-0.0247205
0.0121148,-0.00387695
-0.0153528,0.0199405
-0.0251308,0.0182591
0.0204689,0.0108717
0.0461182,0.00662445
0.0449445,0.00519331
0.028921,0.0155464
0.010802,-0.00411011
-0.0174706,-0.0335722
-0.0308462,-0.0145457
-0.0264726,0.008922
-0.0123458,0.0381363
-0.0341709,0.0146922
-0.0282153,-0.0360896
0.00556046,-0.03005
0.0299788,-0.00896362
0.0164057,-0.0018313
0.00537502,-0.00496753
0.0208997,0.00362527
0.0396643,-0.00564711
0.0527919,-0.0100841
0.0416195,0.00684363
-0.0240272,0.0126203
-0.0609991,0.0183217
-0.0422129,0.0455826
-0.0435256,0.0561511
-0.0482977,0.0292945
-0.0207851,0.00321119
0.00707947,-0.0326169
0.0136413,-0.0456322
0.0249642,-0.0291804
0.0216638,-0.00366965
0.00987199,-0.0128384
-0.00783547,-0.046894
-0.0219932,-0.064705
-0.00670816,-0.0654821
0.0342225,-0.035586
0.0594793,0.0587897
0.0500084,0.0506865
0.0261784,0.033046
-0.00220792,0.0283423
-0.0299499,0.0140489
-0.076594,-0.00617641
-0.114903,-0.000765163
-0.0653479,-0.0118857
-0.0244893,-0.00683849
-0.0271909,0.0036781
0.0214285,-0.00589895
0.00753633,-0.00200136
-0.047803,0.0123039
-0.0350797,0.0160578
0.0469419,0.0427315
0.0984465,0.0332193
0.134478,0.0333147
0.128729,0.000373183
0.0143479,-0.00408133
-0.0221232,0.00342826
-0.00387771,-0.0210322
0.0154415,-0.0308919
0.0375521,-0.0305926
0.045448,0.00484301
-0.0159115,0.00310215
-0.10593,0.00427353
-0.20907,0.010387
-0.235406,-0.0155943
-0.0968016,0.00431209
0.114377,0.0273255
0.192078,0.00893899
0.143544,-0.017311
0.0684822,0.00637954
0.0400091,0.00693576
0.0274275,0.00700782
-0.00449704,0.00701531
-0.0194987,0.00961484
-0.00929544,0.0125464
0.0136384,0.00122534
0.0246572,-0.00862334
-0.0155471,-0.0100879
-0.0637555,-0.0261736
-0.0594362,-0.0374149
0.0102234,-0.0106731
0.032552,0.0467145
-0.0279585,0.0388127
-0.0406276,0.0202196
-0.0320888,0.00389254
-0.013962,-0.0106467
0.0263127,-0.0163903
0.0452496,-0.0212416
0.0384859,-0.0141489
0.0107377,-0.0131321
-0.0255357,-0.0100686
-0.0438364,0.0026516
-0.053635,0.00103588
-0.0600944,0.00738526
-0.0251427,0.00539913
0.0218684,-0.00890745
0.0269725,-0.0340873
0.0539906,-0.0349149
0.103108,-0.0159112
0.0716464,0.0384715
0.0100465,0.0678074
0.00577338,0.0100157
-0.0196881,-0.0198488
-0.0527504,-0.0340038
-0.0490081,-0.0216341
-0.0452801,-0.0271633
-0.073478,-0.00738718
-0.0635533,0.0100995
-0.0108316,0.0134706
0.0378135,0.0145906
0.0633886,0.0054695
0.049871,-0.00370749
0.039441,0.00522849
0.0286829,0.0141282
0.019789,0.0204821
0.000850033,0.0248292
-0.00921977,0.00177839
-0.00472038,-0.0178681
-0.00371943,0.00106864
0.00567318,-0.00539122
0.00742201,-0.0244116
-0.023622,-0.0287339
-0.0486931,-0.0418475
-0.0222515,-0.0257516
0.00749828,0.0272748
0.00410549,0.033167
-0.0299489,0.0346346
-0.0262284,0.00603631
0.00215393,-0.00870512
-0.00686794,0.0198471
0.00549707,0.0287754
0.0360303,0.0145671
-0.0170831,0.0144693
-0.0284565,0.0284166
0.0233541,0.0373004
0.0639934,0.0170511
0.0701635,-0.0183247
0.0560337,-0.0307207
-0.00401263,0.000536706
-0.103428,0.000533154
-0.144433,-0.02605
-0.0959624,-0.0223325
0.0385935,-0.00740581
0.122897,-0.0211653
0.0820565,-0.0533917
-0.0155887,-0.0267725
-0.0494084,0.0144464
-0.0228327,0.0285133
0.0298191,0.00130631
0.0561965,-0.0143262
0.0848474,0.0202652
0.086958,0.015014
0.054785,-0.0273495
0.0123487,-0.0256335
-0.0280645,-0.0102684
-0.0641674,-0.0211275
-0.104768,-0.0109115
-0.162137,0.00532655
-0.144531,0.00328785
-0.0485876,0.0162387
-0.0318754,0.0349447
-0.0850281,0.0275164
-0.0510741,0.00145097
0.0978464,-0.0154424
0.180178,-0.0191291
0.155488,-0.001903
0.128539,0.0361228
0.0805642,0.0474591
0.0220424,0.0284992
0.0064917,-0.00422029
-0.00929921,-0.00407363
-0.0292295,-0.00320512
-0.0139879,0.000770564
0.0118801,0.00629463
0.0137267,0.00997631
-0.00726988,0.00269305
-0.0370838,-0.00375395
-0.0298235,-0.00488505
-0.0113008,-0.00536513
0.00386055,-0.0183472
0.0131053,-0.022279
-0.016379,-0.0200825
-0.039312,-0.0176322
-0.0360513,-0.0119741
-0.0316463,-0.0042048
-0.0428532,-0.0127057
-0.0459274,-0.0385352
-0.0415105,-0.00012726
-0.00643566,0.0269432
0.0353963,0.0226752
0.0412282,0.029554
0.0264521,0.0226434
0.0117127,0.00294958
-0.00344319,-0.0125431
0.0104939,-0.0108263
0.0168074,-0.0317683
-0.00520696,-0.0237513
-0.0201661,0.00344978
-0.0185605,-0.00727636
-0.0175709,-0.00781415
-0.0158347,-0.00515832
-0.00379965,-0.00618926
-0.000138019,0.00389574
-0.0226436,-0.00870305
-0.0287317,-0.00785338
-0.0161487,0.00887971
0.00654394,0.00840956
0.0577282,0.0267331
0.0676085,0.0428116
0.0489171,0.0659331
0.0199813,0.028245
0.0146152,-0.0276723
0.0259818,-0.0409764
0.00798875,-0.0146474
-0.0172038,-0.00458221
-0.0120038,-0.00811876
0.0125198,0.00780797
0.016159,0.00761288
0.00143178,-0.00264895
-0.00810063,-0.0138981
-0.0534774,-0.00369713
-0.105207,-0.037728
-0.0509038,-0.0140066
0.00765043,0.0118521
0.0153301,0.0190566
0.00637985,0.0160409
0.0296962,0.0176059
0.0396251,0.00457207
0.028356,-0.0114475
0.0186079,-0.020891
-0.00907322,-0.0104595
-0.0586747,0.00294034
-0.12477,0.00356368
-0.164468,-0.0107594
-0.120546,0.0207689
-0.0244308,0.0235846
0.127869,0.00439826
0.236593,-0.0203952
0.207661,-0.00111675
0.0824805,0.0183566
-0.00175342,0.0275645
-0.0425429,0.0275839
-0.0739051,-0.000182191
-0.0525685,-0.000421548
0.031096,-0.0169767
0.0653924,-0.0427602
0.0661063,-0.0461201
0.0433507,-0.00160005
-0.00234802,0.0293678
-0.0344226,0.0195452
-0.0442132,0.0203036
-0.0395445,0.0294008
-0.0480168,-0.00539142
-0.0930139,-0.0336835
-0.103191,-0.0332916
-0.0307055,0.00771712
0.0551275,0.017043
0.0873131,0.0209431
0.0447806,0.016494
-0.000924649,0.00275058
0.0099002,-0.00296446
0.0324556,0.0101672
0.0250177,0.00560661
0.00373091,0.000525257
0.00101891,0.0193422
0.0184912,0.0200642
0.0264559,0.00173445
-0.0197959,-0.0125929
-0.0801356,-0.0433338
-0.0286579,-0.028084
0.0251793,-0.00643081
0.0186824,-0.00213556
-0.00927599,0.0092409
-0.0259265,-0.0147394
-0.0262623,-0.0311975
-0.017425,0.0154846
-0.00491772,0.00804933
-0.0263684,-0.0141178
-0.0217758,-0.0148334
0.0209995,0.00500938
0.0264366,0.00407355
0.0434813,-0.00384376
0.0617362,-0.00518223
0.0183319,0.00683466
-0.0444155,0.0200729
-0.037924,0.0231324
-0.012283,0.00396014
-0.0168068,-0.00788285
-0.00656059,-0.00708348
0.0100945,-0.0021585
0.0235056,0.0132988
0.0203603,0.00973693
-0.00119963,0.00272306
-0.00471467,-0.00224785
0.0078909,-0.0111681
0.018483,-0.0165258
0.0127217,-0.0117263
-0.00861211,-0.00424796
-0.0197292,0.0022547
-0.017712,0.00109016
-0.00994747,0.00122045
-0.00895158,-0.0185225
-0.0064816,-0.00257011
-0.00088718,-0.00262114
-0.00504661,-0.0173881
0.0165757,0.00128349
0.00979095,0.0151148
-0.00458261,0.00459283
-0.00479918,0.00745266
0.0111756,0.0185172
0.00561933,0.00601695
0.00240833,0.0116185
0.0166915,0.00247875
0.0137393,-0.023412
-0.0257803,-0.0210875
-0.0388982,-0.00495019
-0.0162269,0.00142603
-0.0357588,0.019766
-0.0349922,0.0136835
0.0251096,-0.00191352
0.0518188,-0.0121493
-0.0193099,0.00481
-0.130237,0.00637598
-0.091914,0.00397667
-0.0143868,0.0183713
0.0255466,0.00686006
0.0772764,0.00231385
0.111018,-0.00922563
0.104151,-0.0116153
0.077402,-0.024242
0.0411773,-0.0190807
0.00735105,-0.0049516
-0.0158501,-0.00404302
-0.00583214,-0.000173265
0.015254,0.0092469
0.0120574,0.0186524
-0.0211789,0.00300905
-0.0266241,-0.0165628
-0.0147845,0.00726507
-0.0186233,0.018215
-0.0286155,0.0151821
-0.0606856,0.0113823
-0.0568228,0.00406601
0.0205221,-0.0117678
0.061024,-0.0248604
0.048828,-0.0223946
-0.00865997,-0.0132773
-0.0345948,0.00752906
-0.0353569,0.0160779
-0.0322638,0.0204398
0.000835055,0.0128802
0.0282906,0.0029902
0.0566702,0.0336787
0.0459327,0.0296358
0.0100975,-0.0224059
0.0137588,-0.0132658
0.0317291,0.00175427
-0.00859834,0.00673694
-0.0854714,0.00784018
-0.0908055,-0.000568739
-0.0331584,-0.0106494
0.0350786,-0.0269199
0.101551,-0.0190392
0.0747085,-0.00631323
-0.00360327,0.00307594
-0.0142611,0.00167115
-0.00238244,-0.00502692
-0.00613339,0.00398916
0.0104698,0.0108298
0.0176763,-0.00375776
-0.0503901,-0.00694544
-0.192627,-0.00792268
-0.225761,-0.0138539
-0.155259,0.0233584
-0.0458508,0.0347925
0.0683655,0.0198341
0.169511,0.00277894
0.139581,-0.0283514
0.0939582,0.00563629
0.0784855,-0.00292156
0.0122178,-0.031197
-0.0230951,0.0159736
-0.014498,0.0117012
0.0176911,0.00881225
0.043509,-0.023934
0.0486403,-0.0505213
0.0378743,-0.0345887
0.0108932,0.00858548
0.01254,0.0250407
0.0250313,0.0133207
0.0124318,0.00680683
-0.003165,0.0137266
-0.0178464,0.0161686
-0.0326096,-0.0068751
-0.032731,-0.0110009
-0.0359093,-0.00943911
-0.0436663,0.000789518
-0.0437418,0.0207292
-0.0380614,0.0012866
-0.0306302,0.00319355
-0.0124689,0.0250636
0.00241508,0.0141865
0.00419014,-0.00912641
0.0122795,-0.0149035
0.0143458,-0.00242915
0.0215264,0.00170791
0.0351952,0.00368144
0.0520636,0.00257773
0.0406951,-0.00559331
0.0223945,-0.0135
0.00735915,-0.0170583
-0.0132743,-0.032606
-0.0231212,-0.0516531
-0.0147887,0.00672298
-0.0250278,0.0241823
-0.0767004,0.01057
-0.0992463,0.00997086
-0.0619633,0.0251163
-0.0890886,0.0331238
-0.0832848,0.0131062
0.000606574,-0.00490489
0.0530237,-0.00525602
0.0689191,-0.0167623
0.129501,-0.0128509
0.161219,0.00678667
0.0615724,0.00549149
0.013382,0.0117894
0.0160589,0.022391
0.0349541,0.0105995
0.0115003,-0.00865366
-0.0303915,-0.0280303
-0.0463534,-0.0352937
-0.0480823,-0.0148164
-0.0337997,-0.0223534
-0.0116683,0.0154783
0.00557016,0.0596668
-0.0167799,0.0238058
-0.030071,-0.004199
-0.00814508,-0.0106422
-0.0233389,0.00935489
-0.0671716,-0.00382794
-0.03547,-0.00673825
0.0267541,-0.0102375
0.0587955,-0.00602229
0.0479515,-0.00255021
0.0413688,-0.0137116
0.0416262,-0.0217544
0.0220507,-0.0100934
0.0078378,-0.000866972
0.00477341,0.0062044
0.00398108,0.0164695
0.00213351,0.0195297
0.00653415,0.00603921
0.0115888,-0.0115299
0.00945656,-0.00965373
0.00926448,-0.0041493
0.00391087,-0.00146807
-0.00639656,0.00170473
-0.00483688,0.00852148
-0.00697393,0.0085411
-0.0202859,0.00818466
-0.0301636,-0.0017545
-0.0282591,-0.00805433
-0.0277193,-0.00465657
-0.027829,0.00142643
-0.0314894,0.00611702
-0.0310963,0.00551235
-0.0427924,-0.00100708
-0.092447,-0.0299908
-0.0681055,-0.0244898
0.0259578,-0.000490834
0.0591147,-0.019431
0.0904199,0.00889388
0.101285,0.0336319
0.0654307,0.0300108
0.000832272,0.023599
-0.0703982,0.00589031
-0.0961866,0.028726
-0.0176356,-0.00549371
0.0563766,-0.044517
0.0575763,-0.0347212
0.0506935,-0.000105468
0.0179331,0.0105676
0.0307426,0.0230861
0.0201937,0.00965081
-0.00769495,0.0489984
-0.0190233,0.00614643
0.00760256,-0.0305412
0.0150002,-0.0267455
0.00734449,-0.0266024
-0.0018819,-0.0456035
-0.000781312,0.00093724
-0.0246157,0.0418522
-0.0655277,0.0190932
-0.050718,0.0101481
0.0142487,0.00317391
0.0508348,-0.0100957
0.0153742,-0.0143883
-0.0221459,-0.00200685
-0.0425457,0.00930837
-0.058055,0.012603
-0.0424281,0.0238148
0.0224668,0.0170739
0.0553263,-0.0114617
0.049223,-0.0102948
0.0262649,-0.00566774
0.0136064,-0.00560819
0.00407309,0.0013352
-0.00360129,0.00279401
-0.018695,-0.00511057
-0.0263363,-0.00977149
-0.0173268,-0.023257
0.00172172,-0.0255247
0.00909808,-0.0145164
-0.0079335,-0.000129892
-0.00650033,0.00534856
-0.0129668,0.0102539
-0.0288869,0.0254612
-0.0505179,0.0281405
-0.110952,0.00992909
-0.0880568,0.0092988
-0.0434835,-0.00768223
0.0376444,-0.0187902
0.127772,0.00521764
0.155456,0.0190492
0.0879725,0.0165234
0.028518,0.00293426
-0.00448086,-0.0063058
-0.0185415,-0.0144141
-0.0109128,-0.0251998
0.00916817,-0.0134305
0.0170107,-0.000709865
0.0231958,0.000525009
0.0163572,0.00484833
0.00298314,0.0125815
-0.000586993,-0.000134785
0.011871,-0.0138529
0.0241081,-0.0149324
0.025873,-0.00751877
0.0134877,-0.00272162
-0.0105692,0.00404679
-0.0281563,0.00512335
-0.0204347,0.0022218
-0.0109748,0.00545012
-0.00414838,0.00558089
-0.000606338,-0.00263894
-0.0223031,-0.00602613
-0.0378801,0.00446642
-0.0267626,0.0103996
-0.0303418,0.0123277
-0.104588,0.015274
-0.201298,0.00807044
-0.191744,-0.00567312
-0.0813459,-0.0149348
0.0636537,-0.00399292
0.161306,0.00104865
0.189964,-0.000829627
0.164308,0.00885584
0.0912866,0.00805759
0.0306172,0.032738
0.0172699,0.0647926
-0.000874905,-0.00507599
-0.0480804,-0.0639268
-0.116052,-0.0640416
-0.103185,-0.0246251
-0.0408045,-0.0122608
0.0312221,-0.0441168
0.0803524,-0.0109822
0.12933,-0.00149452
0.150742,0.0391767
0.0371363,0.0206655
-0.0545525,-0.00597968
-0.0677881,0.00241564
-0.0644884,0.00833682
-0.0431828,-0.0107615
-0.0213439,-0.0147324
-0.0321408,-0.000399164
-0.0172404,0.00591518
-0.00286412,0.00202217
0.00445274,-0.000899451
-0.00533604,0.00189624
-0.000673153,0.00733042
0.00316496,0.00720675
0.0158103,0.0156383
0.0145661,0.0264671
0.0191637,0.014486
0.0362571,-0.00588398
0.0415292,-0.0113448
0.0271517,-0.00774684
0.00498156,-0.00486777
-0.0168787,-0.000619166
-0.0354489,0.00277369
-0.0420715,0.000599088
-0.0159309,-0.000585312
-0.00594023,0.00205627
-0.00818481,-0.00327347
-0.0479578,-0.00919413
-0.0972061,0.000543292
-0.0661465,0.0114268
0.00423992,0.016504
0.0444573,0.019936
0.0443301,0.0126437
0.0555702,0.000740192
0.0592866,-0.015875
0.0457994,-0.0321637
0.0286074,-0.00603253
0.0212968,0.00710042
0.00128744,-0.00221367
-0.0199142,0.0293422
-0.0180104,0.0448208
-0.0313465,0.0208157
-0.0265082,0.0426836
-0.00888318,-0.0185607
0.00582931,-0.0561862
0.0106582,-0.0359728
-0.0359129,-0.0220838
-0.0446831,0.00150575
-0.0120375,0.0116943
0.00509944,-0.00398178
0.02366,-0.0238569
0.0519098,-0.0194859
0.0558061,0.0113753
0.0148087,0.0171462
-0.0142796,-0.0116408
-0.025465,-0.00581587
-0.0314394,0.017317
-0.00545003,5.3e-05
0.0279601,-0.00832582
0.0128683,-0.0188936
0.00608594,-0.0231544
0.00435685,-0.000367877
0.0168678,0.0182685
0.00849583,0.0240242
-0.00462874,0.0268517
-0.00828176,0.0244216
-0.00389419,0.0216219
0.0113452,0.00805438
0.00333128,-0.0143395
-0.00592307,-0.0268428
-0.0141412,-0.0227872
-0.0207522,-0.0114723
-0.0142726,-0.00223326
-0.0035689,-0.000980503
-0.00390602,-0.000777597
-0.00255555,0.00334426
0.00829073,0.00159219
0.0204304,-0.000376483
0.0254374,0.00633097
0.0293052,0.0142813
0.024202,0.0182881
0.0166733,0.0269649
0.0099244,0.0306499
-0.021218,0.0132539
-0.0626978,-0.0211185
-0.0944947,-0.0264701
-0.116756,-0.0227034
-0.121136,-0.0177479
-0.0452023,-0.0191915
-0.0218999,-0.00624605
-0.0342963,0.0139082
0.00729237,-0.00716651
0.0815978,-0.0171984
0.105009,-0.0109421
0.0858324,-0.0135407
0.0704835,-0.0027532
0.0652598,0.00611252
0.0484172,0.0175435
0.0469059,0.0245573
0.0524003,0.0232576
0.0429122,0.00876048
0.0213641,-0.0257313
-0.011528,-0.0208617
-0.0287642,-0.0456809
-0.0155146,-0.0301158
-0.000180775,0.0412742
-0.00794708,0.0154639
0.00287758,0.00940348
-0.0116031,0.0191292
-0.045287,0.0142127
-0.0406579,0.00145195
-0.0157497,0.000462359
-0.029045,0.0053915
-0.0519633,0.0100972
-0.0403561,0.00193709
-0.016792,0.0058855
-0.0091266,0.0157773
-0.000551431,-0.0242813
0.0196724,-0.0290057
0.0205282,0.00304392
0.0107586,-0.0170588
0.00315315,-0.0148086
-0.00464924,-0.00758773
-0.00280137,-0.00468784
0.00453904,0.00793062
0.00752693,0.0110705
0.0181087,0.00810709
0.00725855,-0.00263921
0.00303565,-0.0213396
0.00290414,-0.00231222
-0.029775,0.0187017
-0.0526892,0.0268696
-0.0510583,0.0400073
0.00501469,0.0311427
0.067884,0.00126461
0.087664,-9.22e-06
0.0777116,-0.00194108
0.0219381,-0.0239262
-0.0732976,-0.0279828
-0.118634,-0.00327888
-0.108467,0.0117989
-0.0502354,0.000868805
0.00703442,-0.0130626
0.0624156,0.000902684
0.098124,-0.0113052
0.0921911,-0.00907715
0.0687377,-0.00105767
0.0187993,0.00142895
0.00509674,0.0107911
0.00735383,0.027888
0.0104391,0.0139058
0.005913,-0.0131749
-0.00305276,-0.0143924
-0.0084206,-0.00938804
-0.0250192,-0.00306885
-0.0399335,0.0104246
-0.0456228,0.0045021
-0.0847737,-0.0259063
-0.168226,-0.0580184
-0.121121,-0.035487
0.0016067,0.008064
0.105743,0.0689925
0.153229,0.0444432
0.115004,-0.0119311
0.0464568,-0.0032171
-0.0204797,0.0143611
-0.0331369,0.00908242
-0.00191223,-0.00634863
-0.0106457,-0.01514
-0.0209348,-0.0177599
-0.00451293,-0.00575887
0.00848612,-0.0180204
0.0243352,-0.0146571
0.0151653,0.0276046
-0.00292002,0.0322491
0.0160897,-0.000679108
0.0280904,-0.020869
0.00318009,-0.0227767
-0.0101283,-0.00828694
-0.0263801,0.00188001
-0.0230034,0.00240331
-0.0224718,0.00459676
-0.0376853,0.0120177
-0.0172078,0.0269168
0.0118138,0.0020483
0.00621549,-0.00307854
0.00516809,-0.00677359
0.015527,-0.00371937
0.0140503,0.00456161
-0.00429559,0.0073746
-0.0144925,0.000516525
-0.0160559,0.00145097
-0.0101037,0.00234258
0.0181925,-0.00528324
0.0363644,-0.0183392
0.037704,-0.0232372
0.0234716,-0.0147691
0.0185236,-0.00682254
0.01054,0.0338355
0.00397913,0.035829
-0.00134514,0.00659244
-0.0145083,-0.020135
-0.0218194,0.000345733
-0.0105109,0.0133918
-0.018098,-0.00822931
-0.0428414,-0.0185889
-0.118392,-0.00404862
-0.174631,0.00597481
-0.1491,0.000898273
-0.0235493,0.00188055
0.101958,-0.00849369
0.15313,-0.0327568
0.151116,-0.0223112
0.107096,0.00572721
0.0393552,0.0192493
0.0106372,0.031801
-0.0114196,0.0275881
-0.00119443,-0.012259
0.0295728,-0.0497103
0.0311207,-0.0144652
0.0448139,0.0182632
0.0446987,0.0298345
0.0236651,0.0190508
-0.000171233,0.0209156
-0.0197808,0.0202793
-0.0229104,0.00479113
-0.0360216,-0.00909955
-0.0331683,-0.0201608
-0.0384084,-0.0224489
-0.0761516,0.00438878
-0.0995304,0.00659041
-0.0726303,-0.00256948
-0.0157952,0.0232503
0.0125482,0.022971
0.0278475,-0.000575666
0.0609558,-0.00226405
0.0569873,0.00265368
-0.0205713,-0.000479831
-0.131194,-0.0012149
-0.11893,0.00371923
-0.0237866,0.00541754
0.0644403,0.000659333
0.114797,-0.0111471
0.123082,-0.0216006
0.0963921,-0.0193559
0.03987,-0.0109806
0.00704283,-4.92e-05
-0.00170026,0.0125966
-0.027359,-0.0136632
-0.0478283,-0.0074765
-0.0205295,0.0133161
-0.0012467,0.00260729
-0.00508658,0.00643972
-0.0196112,0.00415653
-0.0656208,-0.00186929
-0.0774612,0.00621507
-0.0602457,0.015142
-0.0165858,0.00396015
0.017406,0.00789782
0.0368329,-0.0242515
0.063448,-0.0623863
0.0875007,-0.033322
0.0886711,0.0166277
0.0477254,-0.00322983
-0.00957134,-0.00364963
-0.0418928,0.0213583
-0.046846,0.033133
-0.0108288,0.0162524
-0.0340698,-0.0287933
-0.0595431,-0.0115539
0.0672984,-0.0136793
0.0433954,-0.00225007
0.0230985,0.0194814
0.0309924,0.022086
-0.0139503,0.0154084
-0.0448632,0.00357477
-0.0252549,-0.0052809
-0.0190904,-0.00902024
-0.00815261,0.00867924
0.0168154,0.00660346
-0.0276574,-0.00276716
-0.0770807,-0.0106359
-0.0923486,-0.0113668
-0.0519,-0.0172346
0.0188867,-0.0254557
0.0788314,-0.0184477
0.105347,-0.00738467
0.0877424,0.00247443
0.0531474,0.0168654
0.0185541,0.0160429
-0.000813277,0.0179343
0.00296245,0.0412652
0.00975014,0.026327
-0.0103519,-0.00329229
-0.0253136,0.0048217
-0.025237,0.00373202
-0.0273972,-0.00295601
-0.0321094,-0.0074913
-0.0246759,-0.00563385
-0.0373609,-0.019697
-0.0398161,-0.0286318
-0.0213615,-0.0182381
0.0145945,-0.00922938
0.0288375,-0.00284971
0.0295913,0.00475957
0.0266426,0.00868711
0.0184012,0.0162374
0.0136354,0.0138744
0.00584226,0.00838697
-0.00876745,0.00729629
-0.0141191,0.0109391
-0.0277295,0.0103924
-0.012463,0.0139874
0.00141486,0.0144298
-0.0119318,-0.000122611
-0.0146292,-0.00713954
-0.00161736,-0.0157874
0.00988904,-0.0238476
0.0317184,-0.0177379
0.0285188,-0.01973
0.00931472,-0.00205222
0.0150875,0.0147415
0.00404054,0.0117802
-0.0151381,0.00417224
-0.00313068,0.00478178
0.0237452,0.00841977
0.00100709,-0.00794604
-0.0192242,-0.00619303
-0.00296721,0.00983156
0.00160024,0.000792359
-0.00204674,-0.0101987
-0.00889227,-0.0101978
-0.000909738,-0.00154805
0.0032793,-0.00479983
-0.00948816,0.00121046
0.0101613,0.00169302
-0.0128305,-0.0138157
-0.102571,-0.020705
-0.113566,0.010781
-0.0408213,0.0238756
0.0281575,0.00658342
0.0699277,0.0101969
0.107417,0.0220249
0.0732062,-0.00692751
-0.0376409,-0.0322882
-0.115248,-0.0203161
-0.117153,0.0146962
-0.018726,0.0156637
0.0755342,0.0167773
0.132078,0.00136043
0.116233,-0.0315843
0.0601756,-0.0289743
0.0316419,-0.0121651
0.00640935,0.00861841
-0.0445639,-0.00191264
-0.0337868,0.014639
0.00862022,0.0401081
-0.00508,0.0242391
-0.018855,0.0041573
0.00328012,-0.0146596
-0.00155067,-0.0143407
4.92e-05,0.00536475
0.00274252,0.0119267
-0.0148002,0.0101525
-0.0174062,0.0107821
0.0232166,0.00156246
0.0477728,-0.0145235
0.022846,-0.0291607
-0.00375396,-0.0223128
-0.00983578,-0.00698034
-0.0125157,0.00243849
-0.032607,-0.00234518
-0.0253432,0.00620637
-0.0159893,0.0102356
-0.0176184,0.0116313
-0.0124947,0.00759394
0.000353755,-0.00884015
0.00986533,-0.00589717
0.00125381,0.0158867
0.000302701,0.0343127
-0.00718754,0.0169832
-0.0510999,-0.0106955
-0.0675488,-0.0154864
-0.040057,-0.00937803
-0.00578988,-0.0250283
0.0222645,-0.0225938
0.0652443,-0.00571419
0.0534384,-0.00822884
-0.00307575,-0.00239688
-0.0776348,0.0156253
-0.112736,0.0129234
-0.0373425,0.00922425
0.047072,-0.00322803
0.0997726,-0.00957242
0.0850736,-0.00576229
0.0400039,-0.00412733
0.0253442,-0.00426905
0.00749652,-0.00607123
-0.0180363,0.00381189
-0.0103578,-0.00690656
0.0125551,-0.0202197
0.0040345,0.00431767
-0.000305842,0.0100055
0.0136702,0.0143627
0.0206245,0.0187898
0.0186005,0.0296064
0.00644849,0.0190456
-0.00397387,0.0121356
-0.0183979,0.00386961
-0.0305525,-0.0072892
-0.0219274,-0.0108849
-0.0269866,-0.00464545
-0.0323857,-2.1e-05
-0.0253159,-0.00206801
-0.00999671,0.00262877
-0.00131191,0.00733414
0.00375626,-0.00670544
0.0251618,-0.0211549
0.03523,-3.05e-05
-0.00689081,-0.00243772
-0.0251603,-0.0376989
0.0180505,-0.0121008
0.0460107,0.0161236
0.0196121,0.0199532
-0.011876,0.00290555
-0.013646,-0.0248152
-0.0310482,-0.023804
-0.0355778,0.0157111
-0.0145215,0.0115164
-0.0148455,-0.000800881
-0.000590122,0.00268406
0.0309194,0.0213454
0.034835,0.0126062
0.0094288,-0.00697492
-0.0243902,-0.0152407
-0.00732495,-0.0232499
0.00947622,-0.00599056
0.0235112,0.00486497
0.00887593,0.00677125
-0.0250884,0.0124077
-0.0384825,0.00604432
-0.0232689,0.00636257
0.00902023,0.014152
-0.0242937,0.0101209
-0.030494,0.00159506
-0.00167564,-0.00588004
0.0383144,-0.0126252
0.0535975,0.0159314
0.0502256,0.00786819
0.00766479,-0.00102848
-0.0762413,-0.00540875
-0.089566,-0.0156376
-0.0371957,-0.0218872
0.0402471,-0.0103253
0.0841955,0.00528252
0.134302,0.0138369
0.117835,0.00675497
0.0366832,0.00156209
-0.013361,0.00378934
-0.0179441,-0.0023409
-0.0230285,-0.00471951
-0.0236782,0.00563161
-0.022038,0.00974414
-0.0332492,0.00663346
-0.0497062,0.01528
-0.050153,0.0212489
-0.00986326,-0.00964185
0.0235197,-0.0462766
0.0097132,-0.0423084
0.0185338,-0.0230521
0.0323577,-0.00227598
0.0103472,0.0306462
-0.0216409,0.0208201
-0.032946,0.0105015
-0.0322942,0.0199074
-0.0488498,0.000315663
-0.0411252,-0.0177871
-0.0222309,-0.0156253
0.00343202,-0.00436122
0.0247943,0.00894334
0.0159945,0.0125539
-0.00489661,0.0207517
-0.0321138,0.0205422
-0.0354162,-0.000252459
-0.0299689,-0.0170945
0.00390564,-0.0199182
0.0482585,-0.0339454
0.0607832,-0.0265153
0.0622969,0.00842936
0.0402531,0.0173143
0.0230232,0.00687243
0.000126384,0.00329549
-0.0140635,-0.0146523
-0.0151261,-0.0196706
7.55e-05,0.0165563
0.00817074,0.0262714
0.0070688,0.0125931
-0.0129453,0.0162225
-0.0211953,0.0287584
-0.0149685,0.0143698
0.00728154,-0.0131872
0.0162926,-0.0264012
0.00847937,-0.0152332
-0.0227372,-0.00548462
-0.0705739,0.00115362
-0.0602588,0.00493328
0.00810906,0.00245309
0.0599984,0.0133875
0.0417726,0.021284
0.0196492,0.000289679
0.0123509,-0.0174972
-0.00882349,-0.0269973
-0.0231403,-0.0213162
-0.0138366,-0.0062154
-0.00143738,0.0124467
-0.00749968,0.0164199
0.00242635,0.000218104
0.02035,-0.0121477
0.0243721,0.00474373
0.00820038,0.00770819
-0.0012421,0.01832
0.00661427,0.0027646
0.00672528,-0.0289676
0.0062942,-0.00881594
-0.00432777,0.0113554
-0.0610719,-0.0254102
-0.100052,-0.0480901
-0.0475065,-0.0160977
0.0179481,-0.0173038
0.0627316,-0.00214531
0.0650421,0.0317951
0.0498122,0.0323662
0.0172789,0.0420982
-0.0111086,0.0243499
-0.0193584,0.00380566
0.000554159,0.00299686
0.0230474,-0.00411289
0.0216596,-0.00835786
0.00126065,-0.000147502
-0.0173968,0.0112916
-0.0120086,0.00889191
-0.00810006,0.00631329
-0.0145704,-0.00179595
-0.0164032,-0.0037664
-0.0161096,0.0202173
-0.00209384,0.00184618
0.0123939,-0.0207405
0.0268272,-0.0135504
0.0324966,0.0157535
0.0277653,-0.0143439
0.0199786,-0.010148
-0.00280618,-0.00281262
-0.0809574,-0.00825234
-0.130378,0.00177288
-0.144267,0.00207185
-0.137743,-0.00102862
-0.0815448,0.00551953
0.0337722,0.00149514
0.135959,-0.00775397
0.148964,-0.0171244
0.116136,-0.00538941
0.106191,0.00970358
0.0953624,0.0110944
0.0333105,0.00990209
-0.0148214,0.00452438
-0.00414226,0.018566
0.011845,0.0117972
-0.00720562,-0.020416
-0.0281689,-0.0254258
-0.0187711,-0.0260526
-0.0269902,-0.0158726
-0.0333099,0.00567101
-0.0299655,-0.00332651
-0.0291257,-0.00487707
-0.00644487,0.0228807
0.0189896,0.00304619
0.0342833,-0.0340314
0.0209957,-0.0252606
0.0328608,0.0204382
0.0267167,0.0484434
-0.00692628,0.0236696
-0.023805,0.00538663
-0.0346096,0.00847047
-0.0591459,0.00243808
-0.0489279,-0.0144188
-0.0202164,-0.0164607
-0.00242984,-0.0108779
0.00972031,0.00324836
0.0347915,0.00963638
0.0410652,0.00333326
0.0212583,0.00142029
-0.0129387,0.00140613
-0.0217744,-0.00729821
-0.0158936,-0.0125184
-0.0271943,-0.00382478
-0.0298448,0.00226707
-0.0334936,0.00347256
-0.0393734,0.0115124
-0.0326549,0.0209899
-0.00400856,-0.00725442
0.0404397,-0.0237345
0.0560732,-0.00907296
0.0608257,0.0117295
0.0531455,0.00383562
0.0447957,0.00334009
0.0520699,0.0114593
0.0124011,0.010809
-0.041891,0.00365738
-0.045219,-0.00216093
-0.0341333,-0.0130882
-0.0641139,-0.00400831
-0.0668663,0.0112568
-0.033851,0.0082953
0.00935373,0.00262601
0.0332027,0.0050788
0.0282701,-0.00863992
0.0319995,-0.0184641
0.0289768,-0.0174755
0.0123687,-0.0049489
-0.00492613,-0.0162471
-0.00424687,-0.0169373
0.00889355,0.0157829
0.0128754,0.0116226
-0.00420538,0.00608587
-0.0297341,0.0078028
-0.0203271,-0.00279061
0.0122419,-0.00859315
0.0264282,-0.00708348
0.0232118,-0.00339948
0.00473025,-0.00722251
-0.0177527,-0.0340514
-0.0315374,-0.0101275
-0.0298989,0.0260871
-0.00993511,0.0362179
0.0108144,0.0244168
0.0318958,0.0271042
0.0498392,0.0294401
0.0417901,0.0471712
0.0278806,0.00331215
0.0210861,-0.0529198
0.00335972,-0.0336012
-0.0163507,-0.0057627
-0.02469,-0.0100334
-0.0264868,-0.0170882
-0.0284091,-0.0118982
-0.0392491,-0.00846413
-0.0379237,-0.0125116
0.00901613,0.01116
-0.0109109,0.0259646
-0.0735121,0.00929776
-0.119256,-0.012213
-0.113579,-0.0235413
-0.0104854,-0.0101412
0.0879685,-0.0086849
0.14299,-0.0052008
0.0962159,0.00732888
0.0247724,0.0435908
0.0104863,0.0233172
0.0287884,0.00410347
0.0326301,-0.00828764
0.000329292,-0.0106536
-0.0146898,-0.00810826
-0.000250432,-0.0166886
0.0125062,-0.0150685
0.0149428,0.0173823
0.025044,0.0257609
0.0200189,0.00488112
0.00298325,-0.0181218
-0.00708597,0.00400235
-0.0398676,-0.00763948
-0.0386163,-0.0276775
-0.012262,-0.0169385
0.0176639,0.0225468
0.0198906,0.0193535
0.00424219,0.00647239
0.00124897,0.0012788
-0.00819219,-0.0130147
-0.0128263,-0.0129829
0.00576426,-0.00695257
0.00589575,-0.005024
0.000410767,0.0111236
-0.000913074,0.029069
-0.0047675,0.0234396
-0.00609369,0.0034685
-0.0222027,-0.0105866
-0.0774805,-0.00930644
-0.0831207,-0.00522593
-0.0442491,0.00653682
0.000445223,0.0135706
0.0387627,0.0149945
0.0511777,0.00783687
0.0408515,-0.0113651
0.0382801,-0.00420276
0.0300567,-0.0116242
-0.00773436,-0.0199736
-0.0235895,-0.0143421
-0.005023,-0.0122554
0.00980805,0.0111082
0.0182976,0.0133822
0.0238432,0.0148839
0.0246389,0.00493856
0.0198764,-0.00167596
0.0197116,0.00373732
0.000785706,-0.00197125
-0.0203017,-0.00231471
-0.0162756,0.012597
-0.0121916,0.0125692
-0.019771,-0.0040643
-0.00396888,-0.0138786
0.00213902,-0.0204056
-0.0052848,-0.0151555
-0.0128277,0.00403372
-0.0217967,0.00880549
-0.02278,0.00854289
-0.0243842,0.0113392
-0.0169097,0.00966385
-0.0328496,-6.65e-05
-0.0221225,-0.00876307
0.00230605,-0.0057283
0.0184507,-0.0162832
0.0211508,-0.0217166
0.0161594,0.011146
0.0214797,0.0126868
0.030283,0.00286712
0.0215459,-0.00340561
0.0153338,-0.0101747
-0.00737043,-0.0431695
-0.0219791,-0.0221801
0.00327633,0.0141111
0.0205211,0.011229
0.00382881,0.0111717
0.00497641,0.0279301
0.021631,0.0214455
0.0361555,0.00384758
0.0277877,-0.00648936
-0.00241084,-0.00333756
-0.0328197,-0.0104055
-0.067046,-0.00837165
-0.0689332,0.00593392
-0.0696318,0.00393904
-0.0414216,0.00269843
-0.00829606,-0.00584889
0.0393629,-0.0235801
0.0699736,-0.0131495
0.0590075,0.0138447
0.0536612,0.0132536
0.0270164,-0.000472624
-0.00269666,-0.00101059
-0.0294411,0.00634689
-0.0605241,0.0301167
-0.0777403,0.0234653
-0.037593,0.00479228
0.0140413,-0.00176968
0.0545237,-0.0397071
0.0723696,-0.0371803
0.0715291,0.0131142
0.025679,0.0159277
-0.015921,-0.00667145
-0.0122785,-0.00381944
-0.0121008,-0.0153402
-0.0176168,0.00599428
-0.00553303,0.0111725
-0.00389625,-0.0014019
-0.00300431,-0.00759165
-0.00505061,0.0199945
-0.00361121,0.0208472
0.00831916,-0.00240001
0.00788027,-0.018391
0.0241644,-0.0120371
0.0284567,0.00650275
0.0179109,0.00758462
-0.0170903,0.00722745
-0.0366211,0.0236972
-0.0313796,0.00780876
-0.0715084,-0.00816641
-0.0863834,-0.00452703
-0.0324527,-0.0126368
0.022793,-0.0324143
0.0661381,-0.0086529
0.0559074,-0.00727461
0.0256198,0.0102879
0.0113477,0.0201049
-0.0046684,0.0171811
-0.00810485,-0.00440561
0.0185272,-0.0225996
0.0450522,-0.00953241
0.0448247,0.0089556
0.0295374,0.00674057
0.0347873,0.00328124
0.00147101,0.0089137
-0.050789,0.00158107
-0.0664064,0.00747416
-0.0621691,-0.00507042
-0.0255025,-0.0113832
0.00514136,-0.00406767
0.00745621,-0.00215894
0.00594654,0.000902414
0.00056979,0.0144834
0.0074022,0.0181413
0.0166194,0.00170054
0.00112235,-0.00404737
-0.0443983,-0.0157665
-0.0549193,-0.0115036
-0.0361068,9.69e-05
-0.00721797,0.00514821
0.0133295,0.00112739
0.0418609,0.000754267
0.0614633,0.00233144
0.0304286,0.00497947
0.00597575,-0.00190183
-0.000151506,-0.00935438
-0.00579579,-0.00213897
-0.0163758,0.00493139
-0.0266135,-0.00105775
-0.03443,0.00835956
-0.0230809,0.025889
0.00524181,0.00832844
0.0308648,-0.0244076
0.0331795,-0.0224659
0.0490694,0.00928538
0.0225509,-0.00204168
-0.0063455,-0.00654348
-0.0146656,-0.00503364
-0.0142539,-0.00154084
-0.00833795,0.0107485
0.00699888,0.000721523
0.0140973,-0.0164787
0.01086,-0.00967661
-1e-05,0.00488326
-0.00376912,0.00256672
-0.0161092,-0.0014864
-0.0299721,0.015064
-0.0223903,0.013029
-0.00440592,0.00534421
0.00765612,-0.00905303
0.0233194,-0.0110411
0.0300354,-0.00369808
0.00788254,0.0134546
-9.64e-05,0.0217348
-0.00520087,0.0105955
-0.00915988,0.0061239
-0.00480727,-0.0163246
-0.00343855,-0.0200635
-0.0270623,-0.0238689
-0.0181338,-0.0337407
0.0216272,-0.00116719
0.0277404,0.0401524
0.0118646,0.0160101
-0.00462565,0.00471264
0.000880318,0.0230014
0.0183386,-4.03e-05
0.0267415,-0.0184604
0.0322675,-0.012234
0.0285672,-0.00879823
-0.00283327,-0.0127193
-0.0764886,-0.0118508
-0.152283,0.0139084
-0.241676,0.0129729
-0.175207,0.00740214
-0.00557647,-4.1e-05
0.10266,-0.0167398
0.143746,-0.00843825
0.13441,0.00263752
0.0816575,0.00867639
0.0290994,0.00762217
0.0217386,0.00241232
0.0455467,0.00476587
0.0623964,-0.00416501
0.0546412,-0.00805668
0.0408545,-0.00193915
0.0201769,-0.00584803
-0.0129095,-0.00705106
-0.00818788,0.012824
0.00854319,0.00279779
-0.0085509,0.0123638
-0.0261037,0.0246652
-0.0332899,0.0147274
-0.0225148,-0.0130781
-0.00376089,-0.00697056
-0.0086625,1.81e-05
-0.0156186,-0.00082569
-0.00497266,0.00920583
-0.0413007,0.0133601
-0.0890641,-0.00188645
-0.0679732,-0.0259297
-0.0292538,-0.0236199
0.00612728,-0.0161809
0.0178368,-0.0174877
0.00201439,-0.00218905
0.00886812,0.0173251
0.0346497,0.00491386
0.0355045,0.00261662
0.0361914,0.000607384
0.0437919,-0.0166429
0.029794,-0.0116932
0.0108745,0.00361188
0.0172009,0.0012687
0.0120437,0.00768409
-0.0498256,0.0186093
-0.0600782,0.0139377
-0.0217821,0.00557726
-0.00159547,-0.00904712
-0.00507328,-0.0187249
-0.00583994,-0.00597046
0.000866706,0.00678336
0.0113234,0.00914193
0.0149013,0.0226165
0.0133415,0.0100867
0.0172078,-0.00462376
0.00806658,-0.0362602
-0.00389948,-0.00353523
-0.00879529,0.0168136
-0.0104807,0.00949485
-0.00285629,0.00524569
-0.000537556,0.00667649
-0.0244291,0.0125143
-0.036428,0.00678712
-0.00682512,-0.00639821
0.0212434,-0.0072599
0.02435,0.000938432
0.0130515,0.00589647
0.00934498,0.00824106
0.0163731,0.00519697
0.0191312,-0.0015556
0.00866909,-0.00576196
-0.00323317,-0.00953196
-0.000325704,-0.0124983
-0.00194822,0.00178743
-0.0149784,-0.0117999
-0.0259361,-0.0114751
-0.0438418,-0.00751714
-0.0472809,-0.00910072
-0.0210516,0.00050332
-0.00357483,-0.00138718
-0.00018576,-0.00486325
0.0159467,0.0101365
0.0290098,0.0121924
0.0243996,0.0106544
0.0293272,0.00978071
0.0266568,0.00999193
0.0218838,0.0125368
0.0227901,0.00305914
0.0143127,-0.00817978
-0.00372203,-0.0244691
-0.019786,-0.0194976
-0.0171186,-3.02e-05
0.0029661,6.22e-05
0.00611243,0.0165939
-0.00423358,0.0328965
-0.0608666,0.0331551
-0.0836159,0.00124791
-0.0443265,-0.038349
0.0120159,-0.0534228
0.0549189,-0.030081
0.0878307,-0.00385261
0.0712036,0.00863549
0.0232837,0.0321876
-0.00619243,0.022083
-0.0225079,0.0144197
-0.020574,-0.00678963
-0.0146754,-0.0195164
-0.000898496,-0.00965548
0.011772,-0.0115172
0.00414329,-0.0152767
-0.00985983,0.0161804
-0.00644688,0.019108
0.0174771,0.0108252
0.0240811,-0.000730207
0.010332,-0.00245321
-0.00245089,0.00544225
-0.00554579,0.00878177
-0.0309576,0.00618238
-0.032011,0.00534894
-0.00955644,0.00659588
-0.00628678,-0.00737431
-0.0189087,-0.00172521
-0.0311412,-0.00614463
-0.0238396,-0.0195482
-0.0147585,-0.0119364
-0.00108262,-0.00507461
0.0115268,-0.00230164
0.0103222,-0.00461744
0.0105262,-0.000261381
0.0226105,0.00462674
0.025057,-0.000575655
0.0154083,-0.000511009
0.00700833,-0.000585313
0.000607813,-0.00277797
0.000225816,0.0181417
0.00463167,0.0272198
0.00373726,0.00731956
-0.000670732,-0.000910601
-0.00440498,-0.0043325
0.00416707,-0.0155277
0.00878826,-0.0171492
0.00847299,-0.00573592
0.00319628,0.00385549
-0.0109112,0.000675186
-0.0213296,0.00193173
-0.0144615,0.0155587
0.00211184,0.0190329
0.00446932,-0.001931
0.00464438,-0.00718611
0.00348146,-0.00535564
-0.00658211,-0.00168804
-0.00335485,0.007595
0.00870483,0.0202976
0.00692527,0.00474321
0.000635475,-0.0289594
0.00813412,-0.0214205
0.0190454,-0.0109042
0.00948084,-0.00286839
0.00734546,0.0114932
-0.00861206,0.00945889
-0.031878,0.0153026
-0.0294469,0.00115382
-0.015448,-0.0231813
-0.00653165,-0.0173088
0.00588501,-0.000462583
0.0107987,0.00866917
0.00922306,0.00791883
0.0122996,0.00629381
-0.000979167,0.00836917
-0.0124828,0.0109203
-0.00585771,0.0148129
0.00038098,0.00480254
0.0138879,-0.0135628
0.00589391,-0.0199734
-0.00196986,-0.00769451
-0.00448258,0.00542639
-0.00592072,0.00657183
-0.0042767,0.00447654
-0.00300013,0.014094
-0.0039429,-0.00719409
0.00719322,-0.0347086
0.0129537,-0.0420879
0.00952323,0.004148
0.0133461,0.0187942
0.0270083,0.00640523
0.0152761,0.0426994
-0.0050425,0.0256624
-0.0133659,-0.000825909
-0.0256112,-0.013208
-0.0168548,-0.00321355
0.00310643,-0.0122778
0.00404831,-0.00197
-0.00960517,0.00809605
-0.021239,0.0126653
-0.021877,0.00334355
-0.0369222,-0.00980789
-0.0102086,-0.0276895
0.04955,-0.0167534
0.0538431,0.0181864
0.0442114,0.0223485
0.0334287,0.000610821
-0.00536901,-0.0100172
-0.0335085,-0.00131838
-0.0362549,-0.0106895
-0.0141256,0.0256812
-0.0123764,0.00457588
-0.03815,-0.0245741
-0.0366925,-0.0136843
-0.0221671,-0.00168064
0.00933203,-0.00900227
0.0391985,-0.00720738
0.0656073,0.0202984
0.0630327,0.0204353
0.03462,0.00808676
0.0153443,-0.0035168
-0.00833141,-0.00596989
-0.0242556,0.00986993
-0.0351964,0.00676785
-0.0256373,-0.011609
-0.0385954,-0.00573649
-0.105346,-0.00182099
-0.110791,-0.00131828
-0.0544304,-0.00593165
0.0151484,-0.00992469
0.0752729,-0.00474674
0.103299,0.00170389
0.0925583,0.00298491
0.0523928,0.0068346
0.0236333,0.0135124
0.00503816,0.00257613
-0.00715169,-0.0202683
-0.00858901,-0.00898876
-0.00252398,0.00227399
-0.00167521,0.0060241
-0.00875886,0.0110256
-0.0109616,0.0117397
-0.00497272,0.00653372
0.0052156,0.000992309
0.00822765,-0.00494746
0.00721375,-0.0142052
-0.00467081,-0.0164926
-0.0160036,-0.0269785
-0.0162099,0.00289653
-0.0070171,0.0327224
0.0152644,0.0193725
0.0168913,0.0290833
0.00903153,0.00305543
-0.000785739,-0.0252956
-0.0124755,-0.0189035
-0.0216492,-0.00543283
-0.0414006,-0.0174552
-0.0408637,-0.00540081
-0.0124739,0.00845655
-3.57e-05,-0.0195038
0.00658557,-0.020888
0.0161621,0.0192214
0.0113612,0.0151278
-0.00228928,0.00297443
-0.0077874,0.00564443
-0.00514282,0.00499465
0.0207751,0.00581667
0.0500857,0.01224
0.0453031,0.00809079
0.0290975,0.000225013
0.0125099,-0.0013915
-0.0218417,0.00341365
-0.0312061,0.00259548
-0.0185512,0.00407299
-0.024804,0.0128034
-0.0291319,0.0144746
-0.0253633,0.00632038
