Comp Ch 3,Comp Ch 4
0.00312579,-0.00142895
0.0472491,-0.00513547
0.0729059,-0.0123045
0.0383633,-0.0149103
-0.0141453,-0.0342177
-0.048309,-0.0421394
-0.0569252,-0.0153327
-0.0526482,-0.00558187
-0.0461225,0.0175533
-0.0421476,0.0439011
-0.0397258,0.0217881
-0.0383871,-0.0159802
-0.0188074,-0.015628
0.0100303,0.00444496
0.0393683,0.0215493
0.0852601,0.0339552
0.100095,0.0131188
0.0653393,-0.0283525
0.0188537,-0.0295145
-0.020545,-0.00862475
-0.0536342,-0.00015776
-0.0807005,0.0174406
-0.0700912,0.0371118
-0.0420452,0.0264456
-0.00449724,0.00232037
0.0391767,-0.00844433
0.0661512,-0.0119759
0.061595,0.00837929
0.043743,-0.00170959
0.0246101,-0.0161624
0.016892,-0.0135197
0.0337428,0.0127707
0.0318868,0.00715005
-0.0119775,-0.0218602
-0.0543109,-0.00271298
-0.05803,0.026801
-0.0633706,0.0206433
-0.0707397,0.000262419
-0.0558668,-0.00305024
-0.0251559,0.00866136
0.00213985,-0.00733487
0.018383,-0.0136158
0.0302791,-0.0132333
0.0289504,-0.0195792
-0.000815907,-0.00975002
-0.0140632,0.00365015
-0.00975991,-0.00594518
-0.0118214,-0.00132236
0.0108563,0.0144316
0.0349263,0.0229019
0.0284647,0.022682
0.0176301,0.0335007
0.0129359,0.0242016
-0.00139109,-0.024983
-0.0195338,-0.0397449
-0.0154871,-0.025019
0.0156951,-0.00287135
0.0337098,0.0115736
0.0280252,0.00754502
0.00823025,-0.000321854
-0.0200029,-0.00709996
-0.041431,-0.0127449
-0.0284766,-0.00951545
0.000969272,-0.0047313
0.025116,0.0014657
0.0541571,0.0197483
0.0589213,0.0255098
0.0354117,0.00629353
0.0122168,-0.0071433
-0.012233,-0.00430065
-0.0364596,0.0111148
-0.055422,-0.01508
-0.0504517,-0.0158339
-0.0264729,-0.0087461
-0.0228514,-0.0162622
-0.0197575,-0.0172769
-0.0112241,-0.0207912
-0.0132397,-0.0302556
-0.025255,-0.0148747
-0.0295097,0.0255934
-0.0363844,0.109987
-0.00894086,0.0280031
0.058756,-0.0735093
0.108117,-0.00331833
0.102617,-0.00467027
0.0593289,-0.025886
0.000950394,-0.0143439
-0.0546979,-0.0120506
-0.0858093,-0.0109613
-0.039108,0.00983757
0.0305499,0.0103577
0.0456324,0.00132615
0.0497721,0.00492279
0.0402932,0.0222328
0.00488714,0.00825885
-0.0293348,-0.00738453
-0.0469041,-0.00363472
-0.0539622,0.00439528
-0.035978,0.0240314
-0.0161111,0.0408564
-0.0048138,0.0232671
-0.00363487,-0.00423396
-0.00901352,-0.00686876
-0.01779,-0.0114026
-0.0165104,-0.0155025
-0.00281662,-0.00812634
0.0149482,0.00712879
0.0144093,0.0179255
-0.00605732,0.00164151
-0.0216473,-0.0279784
-0.020976,-0.0322099
-0.0134415,-0.0192488
-0.000619381,-0.0192524
0.0151871,-0.0197297
0.0331354,-0.00335568
0.0594312,0.0189564
0.0661791,0.0222299
0.0437412,0.0165019
0.0345207,0.0186262
0.0321547,0.0231873
0.010739,0.0245556
-0.0117629,0.0237908
-0.00647859,0.0146679
0.00652423,-0.00140923
-0.00116553,-0.00240546
-0.0160118,-0.00943497
-0.0404592,-0.014539
-0.0666062,-0.012684
-0.0737779,-0.021409
-0.0552606,-0.0218609
-0.0274118,-0.00878003
0.00965216,0.00679906
0.0410523,0.00632073
0.0446664,-0.0048974
0.0299302,0.0205646
0.0243052,0.0357198
0.0216963,-0.00329899
0.0119391,-0.0175761
-0.00335286,-0.0134107
-0.00493357,0.0066423
0.0063801,0.00247011
0.0124326,-0.0160851
0.00977014,-0.0185184
-0.00580824,-0.0195507
-0.0294459,-0.0196308
-0.0422824,-0.0154789
-0.0307694,-0.017249
-0.0236454,0.00442788
3.05e-05,0.0172495
0.0286365,0.0140199
0.0372337,0.00682347
0.0461993,0.000996511
0.0497796,0.0131058
0.0339162,0.0317342
0.0110386,0.0228547
-0.00556621,0.0172715
-0.0108952,0.0231845
0.00188778,0.00732063
-0.00331669,-0.0148426
-0.0191795,-0.0165678
-0.0415754,-0.0209446
-0.0703731,-0.0136845
-0.0754388,-0.00656353
-0.0467329,-0.0131166
-0.00376762,-9.5e-05
0.0375165,0.0138387
0.0393839,0.0349899
0.0087796,0.0281321
-0.00482875,-0.00805473
-0.00197768,-0.0207469
0.00431633,-0.0148909
0.00977277,-0.0100628
0.0223136,-0.00304621
0.0270458,0.00274016
0.00560629,0.00190022
-0.0187089,0.00149043
-0.0294706,-0.0157823
-0.0428128,-0.0405754
-0.0538108,-0.0391855
-0.0353987,0.00492071
0.00333538,0.0157667
0.0730632,0.0115332
0.12096,0.0298631
0.111538,0.0159099
0.0662377,-0.0187502
0.00894383,-0.00962603
-0.048207,0.0107173
-0.0812816,0.0134015
-0.0836976,0.00734726
-0.0635047,0.00916997
-0.0273761,0.00724171
-0.00875205,-0.00580593
-0.000877113,-0.00286929
-0.00373355,-0.00722724
-0.00685761,-0.00850075
-0.00603632,-0.00832341
0.00300004,-0.0145226
0.0082558,-0.0165194
0.0262694,-0.00354029
0.0452593,0.00554812
0.0376755,0.00580048
0.0217518,0.00761977
0.0118011,0.00715378
-0.000666267,0.000524313
-0.0141481,-0.0120455
-0.0182168,-0.0245299
-0.000973052,-0.0157973
0.00815811,0.00170706
0.00286324,0.0249196
0.000636048,0.0372991
-0.00672466,0.00350507
-0.00927962,-0.0306749
-0.00861515,-0.0183437
-0.00550862,0.00162978
-0.0023477,0.00106596
0.015265,0.0228431
0.0298198,0.0667565
0.0228768,0.0438114
0.0155381,-0.0202807
0.00522726,-0.0256744
-0.0206863,-0.00620979
-0.053812,0.0145535
-0.050121,0.0121878
-0.0153365,-0.0127609
0.00250495,-0.0105976
0.00413996,-0.00553138
0.00270782,-0.0115223
-0.004529,-0.0164627
0.000289272,-0.0119699
0.012179,-0.00464301
0.0115875,-0.0116967
0.0106903,0.00287756
0.0307989,0.0153371
0.0252876,0.0125982
-0.00621033,-0.00277004
-0.0133115,-0.0205055
-0.0185144,0.00141151
-0.0273444,0.0233844
-0.00937602,-0.000987915
0.0462076,-0.0209852
0.0863438,-0.0119403
0.0731651,0.00392915
0.0582169,0.0344846
0.0540112,0.0312452
0.0224805,-0.0117155
-0.0293179,-0.0191745
-0.0573405,0.000296019
-0.0845294,0.0704326
-0.0795609,0.0441795
-0.0424922,-0.0505745
-0.0267671,-0.0458368
-0.0256998,0.00483897
-0.0183152,0.0337938
-0.0126003,0.00143811
-0.0249962,-0.0245605
-0.0282713,-0.0198908
-0.00795953,-0.00513333
0.00821655,-0.00219936
0.00280009,-0.00928036
-0.00439305,-0.00629896
-0.00885837,0.0112913
-0.00428619,0.00547005
0.00794083,-0.0279739
0.0170394,-0.0116686
0.0243831,-0.00133039
0.0451301,-0.00309921
0.0540771,0.000406456
0.0310417,0.0109752
0.00455601,0.0488572
-0.00282615,0.0164577
-0.0198469,-0.0337091
-0.0398611,-0.0291066
-0.0358454,-0.011326
-0.0103957,0.0113851
0.0154835,0.0134128
0.030529,-0.0177252
0.0380491,-0.019153
0.0310111,-0.0181172
0.0192145,-0.0185749
0.0106588,-0.0118858
-0.00153114,-0.000473932
-0.00207684,0.00252773
0.00972016,0.0443528
0.0109276,0.034567
-0.00456316,-0.0121163
-0.0164979,-0.00376791
-0.0255424,0.0196526
-0.0399725,0.0152209
-0.0502046,-0.00880515
-0.0335294,-0.00577372
-0.00439715,0.00212475
0.00715573,-0.0149297
0.0119651,-0.0200901
0.0111503,0.0214783
0.00378412,0.033905
0.0140873,0.00918686
0.0351001,-0.0170399
0.0365309,-0.0195217
0.0370222,-0.00979148
0.0400608,0.00387427
0.019445,-0.00135887
-0.0106219,-0.00945818
-0.0364543,0.0351556
-0.0495198,0.0337054
-0.0572014,-0.0173984
-0.0557163,-0.0289675
-0.0314583,-0.0110568
-0.00851344,0.00062094
-0.00632442,0.00302623
-0.00451463,0.00558004
-0.000590005,0.00281528
0.0220784,-0.00157772
0.0461223,-0.00836695
0.0727161,-0.00843419
0.085006,0.00960591
0.0745262,0.0391627
0.0526846,0.0177465
0.0195183,-0.00935831
-0.0149406,-0.00878943
-0.0164551,-0.0116231
-0.00156467,-0.0250913
-0.0259497,-0.0185941
-0.0588877,0.011835
-0.0636233,0.016201
-0.0605003,-0.00859673
-0.0666432,-0.0111648
-0.0546459,-0.00347753
-0.0378549,-0.00175053
-0.0256999,-0.00518567
-0.00888613,-0.00271208
0.00200063,-0.00255938
0.0125266,-0.00123629
0.0429894,0.0130106
0.0556027,0.0126338
0.0402645,0.0146277
0.0251072,0.00709437
0.0141349,-0.0132291
-0.000328185,-0.0183583
-0.0188387,-0.00562991
-0.0101404,0.00368898
0.0162565,0.0104195
0.0156377,0.0126478
0.00631609,0.000877009
0.000591416,-0.016851
-0.00510712,-0.0132938
-0.012086,-0.000505028
-0.0200975,0.0077403
-0.0342252,0.0726927
-0.0175971,0.124579
0.021793,-0.00339401
0.0250162,-0.0723889
0.00812387,-0.0155902
0.0113762,-0.0178637
0.00327754,-0.0307415
-0.0101181,-0.0306864
-0.0118118,-0.028905
0.00700775,-0.0203087
0.0319933,-0.0163555
0.0343874,0.0179896
0.0286652,0.0407031
0.0174591,-0.0152498
0.00385502,-0.0281353
-0.000210106,-0.00806463
0.00191786,0.00326347
-0.00108598,-0.0174123
-0.00160177,-0.00564821
-0.00749592,0.00845248
-0.030501,-0.00351492
-0.042556,-0.0348627
-0.0363561,0.00813721
-0.0336763,0.0424586
-0.0291639,-0.0106763
-0.0216228,0.0302199
0.00507805,0.0273039
0.0165422,0.00969088
0.0155267,0.0175345
0.0227307,0.0077896
0.0276533,0.00557171
0.0341338,0.00259183
0.0401463,-0.00929042
0.0274421,-0.0239586
0.00487227,-0.0110231
-0.0143412,0.0133361
-0.0130038,0.0213223
0.00330425,0.0101776
0.0354524,0.0285798
0.0531034,0.0176042
0.0260278,-0.0411249
-0.0212404,-0.0371921
-0.0509614,-0.0118117
-0.0636027,0.0108924
-0.0474709,0.0102374
-0.0193949,0.00955917
0.0100293,-0.00867918
0.0127511,-0.0176677
-0.00421627,-0.0145874
-0.0226416,-0.0109844
-0.0366587,-0.0156859
-0.0372432,-0.0116317
-0.0153238,0.00692999
3.38e-05,0.0271723
0.00240563,0.0250478
0.00825093,0.00845395
0.0102739,-0.0141179
0.00443371,-0.0255458
0.00632483,-0.0145338
0.0247641,0.00547193
0.0390688,0.0080285
0.0295334,-0.00564769
0.0157384,-0.00783512
-0.00482573,0.00271969
-0.026426,0.00890699
-0.0342425,0.0156444
-0.0228247,0.0320921
-0.0107495,-0.0130423
0.0200821,-0.00579166
0.0333343,0.0947049
0.0221212,0.0532909
0.0120726,-0.0558399
0.0119708,-0.0699989
0.0110035,-0.0502071
0.00294749,-0.0380339
-0.00159072,-0.00482931
0.0120524,0.0366143
0.0163345,0.0396839
0.00406098,-0.000468026
0.00283855,-0.0370009
-0.00761935,-0.00929442
-0.0227749,0.0231394
-0.0212324,0.00769618
-0.0140879,-0.0183944
-0.00951387,0.0133066
0.00768493,0.0956517
0.0270587,0.0152117
0.0199914,-0.0419662
0.00360141,-0.0277216
-0.00589309,-0.0514944
-0.0149117,-0.0390702
-0.0307481,0.0561317
-0.0199511,0.0230408
0.00192913,-0.0135596
0.00483171,-0.0210213
0.00378306,-0.0196362
0.00183674,-0.0169542
-0.00821592,-0.00922386
-0.0122915,-0.000139087
-0.00432121,0.017367
0.00147562,0.0250908
0.0150879,0.0066421
0.0340953,0.0209731
0.0377416,0.00456586
0.0169329,-0.0157
0.00417014,-0.00259013
-0.00795223,0.0145902
-0.0266169,0.01163
-0.0329032,-0.00838008
-0.0127822,-0.0104096
0.00960662,0.00320221
0.012039,0.0159382
0.0128155,0.036952
0.0108642,0.0419227
-0.000714971,-0.023222
-0.0379473,-0.0596183
-0.0425081,-0.0514471
-0.0261315,-0.0173857
-0.00696121,0.033888
-0.0061016,0.0331672
-0.0101673,0.0178248
0.00382028,-0.0264827
0.013609,-0.0453903
0.0219089,-0.0293292
0.0365071,-0.000191507
0.0491685,0.0372951
0.0324115,0.0370422
0.00252953,0.00407612
0.00119145,0.00240624
-0.00275921,0.00502488
-0.0250078,-0.0112698
-0.0288983,-0.0415953
-0.0307374,-0.0250991
-0.0384029,0.00834622
-0.0195551,0.0300684
0.00503414,0.0164131
-0.000375051,0.0515837
-0.00437254,0.0156109
0.00724018,-0.0420879
0.00829245,0.0165284
0.0113655,-0.0609052
0.0242183,-0.037203
0.0396871,0.0292799
0.0338561,0.0434904
0.0177996,0.0335846
0.0124848,0.0212195
0.00348949,-0.0226742
-0.0122023,-0.0746309
-0.0233226,-0.0334587
-0.0315873,0.0214986
-0.0330513,0.0264078
-0.0172804,0.0854386
0.00149276,0.0312907
0.00118402,-0.0757811
-0.00219463,-0.0498054
0.00198961,-0.00937247
0.000292277,0.00963381
-0.000838074,0.0163514
0.0213938,0.0226871
0.0426199,0.0340545
0.0374525,0.0172756
0.0296005,-0.00190647
0.0162136,-0.0149234
-0.00442375,-0.0250541
-0.0258478,-0.0254252
-0.0342169,-0.0173517
-0.0423551,-0.00979596
-0.0298682,0.00632106
-0.00546598,0.00704142
-0.000731148,-0.00521463
-0.0127391,-0.00936692
-0.0212064,-0.00776294
-0.0331489,-0.011546
-0.0305216,-0.0159083
-0.00742481,-0.000567206
0.0334959,0.0548873
0.0615067,0.0772278
0.0518848,0.0140174
0.0338602,-0.0138602
0.0131033,-0.0233995
-0.00225939,-0.0319777
-0.0129017,-0.0130503
-0.0150354,-0.0038036
-0.0151003,-0.0115876
-0.00447203,-0.00273889
0.00661345,-0.00120108
-0.0146186,-0.0124937
-0.0276241,-0.0444403
-0.0107349,-0.0140226
-0.00776516,0.042546
-0.0142426,0.0244475
0.0128607,0.0131305
0.048441,0.01593
0.047211,0.0130981
0.0300019,0.00635578
0.0171433,0.00888156
-0.00600668,0.00817551
-0.0289726,-0.0114485
-0.0363472,-0.0106543
-0.0301764,-0.0113195
-0.0140352,-0.0182927
0.0101959,-0.0167105
0.0128484,-0.0116453
-0.0112523,-0.00277668
-0.0278468,0.0190499
-0.0303051,0.0150724
-0.0317989,-0.00503455
-0.0248686,-0.0175162
0.00414077,0.00100433
0.0364246,0.0247771
0.0385735,0.0252009
0.0304909,0.0287564
0.0215167,0.0390256
0.00830109,0.0108945
-0.0121085,-0.009189
-0.0204982,0.0149075
-0.0198715,-0.0218462
-0.00479936,-0.0418435
0.0179843,-0.018745
0.0145334,-0.0107268
0.000719632,-0.0122498
-0.0103137,-0.0104156
-0.0148446,-0.0233241
-0.0143033,-0.0371133
-0.00832103,-0.0153818
0.0131385,0.0243875
0.0293283,0.0564829
0.029022,0.0704972
0.0301831,0.0404046
0.0170866,0.00548134
-0.000873541,-0.0413634
-0.0155572,-0.0360201
-0.0184795,-0.0228581
-0.0180196,-0.0215042
0.00240302,-0.0124948
0.0174441,0.00132182
0.00161984,0.00248724
-0.0110301,-0.00968535
-0.0140779,0.00600274
-0.0263557,0.0187552
-0.0370588,-0.00235965
-0.0253262,-0.00645004
0.00756233,-0.0134
0.0258718,-0.0582526
0.0285432,-0.0405347
0.0351143,0.0230864
0.022776,0.0410922
0.00138687,0.0442237
-0.0105655,0.0386942
-0.0163485,0.0137114
-0.014261,-0.0226795
0.00881261,-0.00968799
0.0150042,0.00295877
-0.00547103,-0.0095556
-0.0164909,-0.0103031
-0.0168181,-0.00150824
-0.0229835,0.0240555
-0.0294561,0.0023975
-0.00469323,-0.00451671
0.0270249,0.0133758
0.035298,0.0145847
0.0320393,0.013876
0.0189079,0.0129104
0.000178887,-0.00244446
-0.0152295,-0.0148049
-0.0164536,-0.0139281
-0.0177842,-0.0153334
-0.00607562,-0.010081
0.0167233,-0.00639981
0.0141003,-0.0147778
-0.00216761,-0.0159133
-0.00635733,-0.00759082
-0.0152253,-0.00505017
-0.032048,-0.00971729
-0.0307871,-0.00664942
0.00371082,0.0109413
0.0433776,0.0237725
0.0387018,0.0178216
0.024438,0.00908781
0.0178748,0.00810972
0.00418095,0.0148119
-0.0108239,0.0169743
-0.0115695,0.00497674
-0.0138045,-0.00459415
-7.66e-05,0.00273492
0.0130573,0.00346074
-0.0056042,-0.00628416
-0.0207978,-0.0101614
-0.0197842,-0.00828915
-0.0238974,-0.0122466
-0.0292938,-0.0156567
-0.0200311,-0.00971294
0.0106516,0.0100671
0.0307014,0.0128608
0.0321672,0.00282582
0.0283007,0.00258693
0.0173992,0.00150991
0.00111116,-0.00357257
-0.00954562,-0.00381687
-0.0108606,-0.00641779
-0.011591,-0.0120227
0.00950925,-0.00916469
0.0159808,5.54e-05
-0.00142881,0.00197201
-0.00722026,-0.00696828
-0.0139216,-0.000891692
-0.0296832,0.0173759
-0.0387455,0.00899033
-0.0177787,-0.0140603
0.0199185,-0.00402518
0.0248214,0.00893098
0.0186317,0.0131195
0.0150813,0.00293538
0.0085728,-0.000372588
0.00173014,0.0106332
0.00367546,0.00187129
0.00199097,-0.0202003
0.00479738,-0.0110508
0.0211157,5.38e-05
0.0190808,0.00306172
-0.00301903,0.00170877
-0.0224882,0.0123882
-0.0383861,0.00349867
-0.0525806,-0.00803719
-0.0507175,-0.01653
-0.0126867,-0.0086524
0.0270644,0.00171709
0.0339595,5.18e-05
0.0312383,-0.0022166
0.0192775,0.00117554
0.000498976,0.00594702
-0.0106888,-0.00045
-0.00870353,0.0153904
-0.00565119,0.0288342
0.014351,-0.0239399
0.0171384,-0.00588379
-0.00516902,0.0332016
-0.0123128,0.0242235
0.00103419,-0.00501109
-0.00683804,-0.0282505
-0.0303463,0.0016538
-0.0277509,0.0366117
0.00898295,-0.00336186
0.0289321,-0.0405808
0.0169024,-0.0323957
0.0137341,-0.013087
0.0128258,-0.00703871
-0.00832074,0.0129789
-0.0152679,0.022869
-0.000936541,0.039162
0.00486719,0.0309312
0.0258536,0.00365481
0.0413254,-0.00679425
0.0229406,-0.0150854
-0.00365344,-0.015465
-0.0146506,-0.0219448
-0.0220181,-0.0370426
-0.0273906,-0.0501709
-0.0177309,-0.0172907
0.00324647,0.0443401
0.0189794,0.030427
0.0168655,0.0122755
0.0117849,0.0152764
0.0167036,-0.00889277
0.00380914,-0.0181825
-0.0167805,-0.00217688
-0.0251848,0.0150148
-0.0138709,0.0193354
0.0114783,0.00806338
0.0112141,-0.00146723
-0.0152354,-0.00608768
-0.0292061,-0.00586098
-0.0331393,-0.00366276
-0.0444928,-0.00671656
-0.0580745,-0.0129283
-0.0286506,0.00155359
0.0307666,0.0253597
0.0569825,0.0346818
0.0665629,0.0141857
0.0709874,-0.0188891
0.0602067,-0.031564
0.0237986,-0.0117086
-0.0100699,0.0197676
-0.0145096,0.020097
-0.0134775,-0.0180099
-0.00803798,-0.0362805
-0.018756,-0.0164778
-0.0306511,0.0395021
-0.0343079,0.0876265
-0.0449306,0.0405233
-0.0139656,-0.0871814
-0.0138137,-0.0868366
-0.001874,-0.014025
0.0246847,0.0258965
0.0443939,0.0101284
0.0436938,0.00112012
0.00312618,-0.0185099
-0.0226867,-0.0269361
-0.0173072,0.00496642
0.000858615,0.0286117
-0.00241978,0.014565
0.0149213,0.0438639
0.0410309,0.0313984
0.038215,-0.0206992
0.0341925,-0.0289612
0.000848746,-0.0161372
-0.046891,-0.00699262
-0.0670938,-0.00853696
-0.0610804,-0.0306592
-0.0287282,-0.00509536
-0.0210572,0.0197146
-0.0220238,0.00992789
0.0132423,0.00476305
0.0177501,0.0205599
-0.0175137,0.000412183
-0.0219222,-0.0264105
-0.0217252,-0.0287285
0.00639366,-0.00036376
0.0797306,0.0170594
0.105402,0.00658799
0.0454873,-0.000807363
0.00283391,0.00572887
-0.0197755,0.00567466
-0.0352086,-0.00213907
-0.021947,0.0340985
0.00780363,0.0349307
0.00884409,-0.00990376
-0.030781,0.0073282
-0.0233182,0.0420818
0.029662,0.00375749
0.0311709,-0.0490218
-0.0315261,-0.0145549
-0.0410939,-0.0104556
0.0151694,-0.0637252
0.0522239,-0.0109098
0.0338857,0.0527124
-0.000647638,0.0814576
-0.0132316,0.0201708
0.0251507,-0.0496051
0.0559876,-0.0604457
0.00118619,-0.0443662
-0.0710901,-0.0233261
-0.0592131,0.0132912
-0.0266595,0.0697898
-0.0183259,0.139888
0.0244048,0.0235543
0.0200509,-0.0598134
0.00487712,-0.00925107
0.0172007,0.0132888
0.027687,-0.0393221
-0.0443587,-0.0503604
-0.0810598,-0.0267803
-0.0528332,-0.0311706
-0.0187476,-0.0582485
-0.00795167,-0.0474071
-0.0229612,-0.0147202
-0.0043215,-0.00221001
0.0455697,0.00383299
0.11906,0.0412427
0.0920832,0.0775318
0.0265911,0.0388644
-0.022019,0.0108637
-0.0151865,0.000391935
-0.0206852,0.0183314
-0.0642098,0.0174674
-0.082595,-0.00417577
-0.0102466,-0.0182262
0.0849289,0.00746634
0.152736,0.00475872
0.142259,-0.0382964
0.0766258,0.0142183
-0.0755641,-0.019921
-0.157383,-0.0717039
-0.170875,0.0173353
-0.128987,0.173599
-0.0445425,0.0940906
-0.0679624,-0.132314
-0.106558,-0.074183
-0.087811,0.053054
-0.0013067,0.0397041
0.145191,-0.0617573
0.211536,-0.113746
0.295944,-0.0733956
0.299725,-0.0380847
0.117921,0.00135174
-0.0721938,0.0145869
-0.125168,0.0179168
-0.172506,0.073325
-0.114638,0.0688161
0.0134552,0.00231278
0.0536841,0.034788
-0.0197143,0.00868139
-0.0757181,-0.000206388
-0.0772655,0.035254
-0.019625,0.00843563
-0.0691568,-0.0634528
-0.0662008,-0.0636134
0.024168,0.00340165
0.0370452,0.0934241
-0.0242137,0.0762421
-0.0907305,0.0096163
-0.0888616,-0.0110474
-0.0297812,-0.0150999
0.0696488,0.0101418
0.137397,-0.0263662
0.0835342,-0.0807194
0.0142103,-0.063581
-0.0340439,0.0146728
-0.0155446,0.0338132
0.108166,-0.0109082
0.161818,-0.00953846
0.137512,-0.0500141
0.0887192,-0.0409287
-0.0468078,0.15783
-0.158096,0.0858485
-0.164215,-0.0387617
-0.108778,-0.0570126
-0.0276379,-0.0402445
0.0747321,-0.0210162
0.103909,-0.0257256
0.0267631,0.00418442
-0.0364415,0.019031
-0.0246906,0.0317903
-0.0544237,0.0440302
-0.0888707,0.0429363
-0.112416,-0.0312166
-0.148056,0.0221522
-0.0357103,0.0991255
0.12722,0.0359233
0.122674,-0.111197
0.0679008,-0.116249
0.0690545,-0.0400621
0.0583035,0.00261859
0.0282157,0.0439672
0.0151626,0.0326461
0.0175254,0.0162506
0.0455484,0.0393577
0.0781745,0.0179319
0.0271409,-0.0123404
-0.031521,-0.0166872
-0.0635695,-0.0142442
-0.0768589,-0.0129596
0.00276524,-0.034754
0.068824,-0.0464531
0.00795943,-0.0447175
-0.0407653,-0.0401134
-0.0722001,-0.00502463
-0.0425115,0.0150938
0.0718597,0.0074286
0.0943154,0.0495691
-0.0158281,0.0665678
-0.193047,0.043058
-0.191321,-0.00969562
-0.0592881,-0.0124756
0.0339293,0.00241984
0.0339447,-0.0141349
-0.00901307,-0.0225557
-0.0356709,0.0541126
-0.0224645,0.0173823
-0.0195378,0.0172116
0.0510295,0.013178
0.134212,-0.0337365
0.142929,-0.0957623
0.058652,-0.0619112
0.0162232,-0.0212494
0.0357812,-0.0184321
0.0344577,-0.0280968
0.0145091,0.0293456
0.0388347,0.0983242
0.0789911,0.132474
0.0257751,0.033859
-0.0828759,-0.0594644
-0.158368,-0.0248223
-0.189228,0.0686993
-0.171792,0.0695597
-0.0860143,-0.0752395
-0.00193571,-0.0956291
0.0123245,-0.0444866
7.12e-05,-0.0200931
-0.0196815,-0.00102158
-0.0226327,0.0800573
-0.0647053,0.0749594
-0.0954652,-0.124822
0.00354178,-0.107705
0.184249,0.0420612
0.263255,0.127423
0.221615,0.00507255
0.159064,-0.113166
0.112523,-0.0840685
0.074563,-0.00681717
0.0335046,0.0252809
0.000430458,0.0496579
-0.00637635,0.0585126
-0.0330506,0.038726
-0.0819119,0.0160555
-0.0778264,0.0419228
-0.032613,0.0540014
0.00310615,0.0322065
-0.0447996,-0.0095198
-0.0643995,0.000383312
-0.0540514,-0.029718
-0.0665172,-0.0487314
-0.0941014,-0.0462976
-0.0784343,-0.0342679
0.000628021,0.0189482
0.0707179,0.0571818
0.0854924,0.0289212
0.065186,-0.044855
0.00526631,-0.107078
-0.0939867,-0.074946
-0.109155,0.0234774
-0.121856,0.0539851
-0.114605,0.0254701
0.00669435,-0.013213
0.126134,-0.0252673
0.145889,-0.00507157
0.0889878,0.0313784
0.0637996,0.113966
0.0264247,0.0123692
-0.105562,-0.0118939
-0.15355,-0.032679
-0.126552,-0.0123725
-0.0407668,0.0869104
0.0505165,-0.0498732
0.0723806,-0.111171
0.133725,-0.0389005
0.128972,0.0153281
0.00615138,0.0352805
-0.0678232,0.0060343
-0.0298409,-0.0721577
0.0117343,-0.0462207
-0.00826247,0.0254731
-0.0853076,0.0447954
-0.0595459,0.0134413
0.0371653,0.0330342
0.0423762,0.0433932
-0.0139977,0.051145
-0.0693358,0.0532734
-0.048285,0.0482044
0.00907168,0.0483036
0.0433285,-0.0502943
0.0638898,-0.103744
0.0825962,-0.0799109
0.0635417,-0.00200016
0.0635971,0.0249385
0.0723229,0.0218862
0.0321869,-0.00974367
-0.093667,0.0354331
-0.142168,0.0598811
-0.0773274,-0.0181477
0.0158904,-0.116646
0.12403,-0.102743
0.111543,-0.0152771
0.0332794,0.0293646
-0.0447523,0.0568162
-0.0862333,0.0549901
-0.0849036,0.000358689
-0.11729,-0.0292673
-0.152475,-0.0186626
-0.0574773,0.00294398
0.110282,-0.02759
0.112487,0.00437255
0.0534083,0.056511
0.0433887,0.0670473
0.0815955,-0.0111173
0.0399504,-0.0343476
-0.020827,-0.0155611
0.0289357,0.00558921
0.0537552,0.0456705
0.0389146,0.0453698
0.12194,-0.0576103
0.123437,-0.0416223
0.0579359,0.0209177
-0.0187289,0.00785617
-0.110874,-0.0191454
-0.138357,-0.0705432
-0.0985196,-0.00466408
-0.0940713,0.0595382
-0.0856013,0.0543548
-0.143783,0.0347479
-0.190409,0.0199786
-0.0834338,0.0583014
0.0726756,0.172762
0.0824402,-0.0349846
0.0477349,-0.211844
0.0478624,-0.116742
0.037257,-0.0436862
0.0219444,-0.0172674
0.0261745,-0.00494564
0.0546097,-0.0152931
0.0592454,-0.0160426
0.0830685,0.0253798
0.0936354,0.0768268
0.0316082,0.17358
-0.109558,0.156609
-0.193935,-0.109504
-0.118181,-0.132323
0.00217759,-0.022983
0.0535776,-0.0508531
0.100615,-0.0471448
0.116126,-0.00312635
0.14957,0.02991
0.146039,0.0238209
0.0888293,-0.0047512
0.0213956,-0.0211995
0.034915,-0.00900435
0.0123819,0.0141149
-0.0952715,0.0384708
-0.179287,0.0165325
-0.136326,-0.00479666
-0.0293242,0.00969515
-0.0302735,-0.0149924
-0.111072,-0.0272788
-0.205091,-0.00632849
-0.229744,-0.0204561
-0.0986382,-0.0246759
0.0241466,-0.00789025
0.0881437,0.0302561
0.100446,0.103086
0.154036,0.0549812
0.169438,-0.0507739
0.214705,-0.0465364
0.223905,4.15e-05
0.115767,0.0197556
-0.0779799,0.018225
-0.118305,0.0246098
-0.111954,-0.00568178
-0.0918986,-0.0258821
-0.0429764,-0.0468681
-0.0236267,-0.109323
-0.0290214,-0.0205431
-0.0541007,0.14218
-0.0695613,0.0494074
-0.0382885,-0.018296
0.0260387,-0.00897952
0.0882878,0.038377
0.0822071,0.023771
-0.0154377,0.00274578
-0.109831,-0.0790992
-0.149634,-0.0382816
-0.139296,0.0300089
-0.044681,-0.0362468
0.0774202,0.0306109
0.0615868,-0.021092
0.0528524,-0.0790024
0.160478,-0.0350856
0.201588,0.0167897
0.170152,0.0115271
0.113651,0.0190196
0.0587925,0.0441871
0.00984611,0.0525298
-0.0450245,0.0504945
-0.11532,0.0262994
-0.13164,-0.0214969
-0.154507,-0.0137447
-0.165166,-0.0381964
-0.110264,-0.0483269
-0.041248,-0.000716982
0.0965777,-0.0100371
0.249532,-0.0324895
0.172682,0.00482811
0.0741099,0.0455186
0.0664065,0.0272998
0.0181485,-0.00458554
-0.079367,0.021492
-0.191989,0.0586
-0.214599,-0.0365617
-0.128232,-0.0588867
-0.0566617,0.0566504
-0.0229652,0.0326652
-0.00610462,-0.0199339
0.0763274,-0.0425329
0.142013,0.0142816
0.11873,0.13841
0.0550392,0.081653
0.0130342,-0.10016
-0.0133926,-0.110436
-0.0356258,-0.024527
-0.0605853,0.0216685
-0.0705953,0.0565767
-0.00289846,-0.0189168
0.0129376,-0.112807
0.0152983,-0.0797197
-0.00943566,-0.0104459
-0.0109993,-0.0101284
0.0702575,0.0266703
0.0663663,0.0668196
0.0315762,0.0268393
0.027319,0.0116729
-0.0326539,0.0249143
-0.0827665,-0.00580142
-0.046839,-0.0413409
-0.00649602,0.0199189
0.0285998,0.0660779
0.0195608,0.0502577
0.0248557,0.00403221
0.0497145,0.088054
0.0508421,0.010961
0.0612394,-0.219944
0.022471,-0.0875001
-0.0429787,0.0559859
-0.0674822,0.0902422
-0.0493531,-0.0109412
-0.0305006,-0.033894
-0.0667591,0.0456437
-0.0974748,0.0356045
-0.0942823,-0.0345894
-0.0799817,-0.0590477
-0.0155142,-0.0352686
0.029849,-0.0159068
0.0427831,-0.054479
0.0526103,-0.0112071
0.0730567,0.0459591
0.144981,0.0511902
0.233613,0.108301
0.300352,0.0838777
0.245195,-0.0396399
0.0398092,-0.0667685
-0.122805,-0.0553089
-0.192685,-0.0153114
-0.19948,-0.0022042
-0.179871,-0.00537383
-0.0957852,-0.00619995
-0.0434854,-0.0316118
-0.0361043,-0.0279105
-0.0373153,0.00152221
-0.0819916,0.023643
-0.12457,0.0107676
-0.0759693,-0.00713083
0.0450721,-0.00990574
0.113178,0.0280714
0.058253,0.0474579
-0.0748638,0.0269482
-0.0815046,-0.0458977
0.0052427,-0.0343327
0.0627939,0.0306017
0.0918403,0.0608925
0.081636,0.120113
0.0823125,0.07575
0.0775666,-0.0416812
0.0305668,-0.0622808
-0.052718,-0.0191574
-0.0169491,-0.0721883
0.091007,-0.0648971
0.117344,-0.00548096
0.0212036,0.0502681
-0.110034,0.0376476
-0.137879,-0.0396317
-0.13914,-0.0808186
-0.151341,-0.0373592
-0.118197,-0.00989829
-0.0139796,-0.0281662
0.0935236,0.0866522
0.131902,0.156352
0.12863,-0.0070694
0.149453,-0.0650016
0.185646,-0.0481612
0.161918,-0.00576759
0.0879572,0.0048966
0.0241457,0.010037
-0.0459945,0.0167692
-0.136769,0.0151556
-0.180042,0.0288845
-0.177824,0.0625093
-0.111871,0.0174943
-0.052132,-0.0704559
-0.0457952,-0.0662253
-0.0530624,-0.0262613
-0.0507897,0.0175648
-0.0238246,0.00714611
0.00174481,0.0136303
0.0569479,0.025514
0.108306,0.000836026
0.118149,-0.0280239
0.0987574,-0.049112
0.0418863,-0.0319422
-0.00536093,0.0189692
-0.0239917,0.0139892
0.00287104,-0.0691187
0.0282041,-0.0416148
0.00703437,0.0155521
-0.0685559,-0.003954
-0.116572,0.0256275
-0.080828,0.094688
-0.0245483,0.0781273
0.023732,-0.00801055
0.0335716,-0.00708345
0.0236885,0.0143321
0.0199214,-0.0070356
0.0223057,-0.00419878
0.0181644,0.0156566
0.0151181,0.0103302
0.0319205,0.00834296
0.0288817,0.0512348
-0.0212835,0.119309
-0.0437962,-0.0212064
0.0102343,-0.116095
0.0846218,-0.0564864
0.0826711,-0.0451597
0.0357789,-0.0431712
-0.0174988,-0.0350228
-0.0650928,-0.0429107
-0.128935,0.0382835
-0.13545,0.0576046
-0.0310313,0.0530599
0.0703549,0.0152714
0.0595344,-0.019458
0.0382449,0.0803649
0.0304592,0.147973
0.0128305,-0.0659765
0.0171193,-0.197769
-0.0108308,-0.0774126
-0.0162219,-0.031825
-0.00771043,-0.0165347
-0.00258048,-0.0107504
0.00100358,0.0572715
-0.00968645,0.057567
-0.0206836,-0.109389
0.0138625,-0.107237
0.0541402,0.0414302
0.0474766,0.0782691
0.0318966,0.0541815
0.026155,0.0647804
0.0360172,0.0267074
0.0222427,-0.0217412
-0.0219013,-0.0317088
-0.0647475,0.0184484
-0.0628862,0.0503143
-0.0529744,0.00843587
-0.0541307,-0.0241733
-0.0572047,-0.00862942
-0.0739942,0.0965891
-0.0435083,0.0309281
0.00541119,-0.0322729
0.0288063,0.00923
0.0582382,-0.00983089
0.064991,-0.0487152
0.0498477,-0.0431682
0.017511,-0.0273002
-0.00707172,-0.0187512
-0.025547,-0.0253361
-0.0108684,0.00858083
-0.055911,0.0390345
-0.0638689,0.00339038
0.0160847,0.047507
0.0730993,-0.0329386
0.0565074,-0.0621009
-0.0105635,-0.0595056
-0.0479256,-0.0285986
0.000185512,-0.00102437
0.0139319,0.0291145
0.0175723,0.000938457
0.0294886,-0.0376132
0.0287247,-0.00727634
0.012625,0.0526852
-0.0214167,0.0776029
-0.00532535,0.0254934
-0.00528046,0.00974382
-0.00171262,0.0729005
0.0545691,0.0740268
0.0603526,0.00270833
0.0310632,-0.0373572
0.0326915,-0.0404093
0.036079,-0.0405578
0.0238219,-0.00233699
0.031995,0.00140528
0.0487115,0.00597543
-0.0107668,0.0100903
-0.119016,0.0173536
-0.156465,-0.0466877
-0.11259,-0.0596216
-0.0366806,0.0259351
0.0659431,0.0396022
0.0783565,-0.0400945
0.0103461,-0.0218982
-0.0248835,-0.00825119
-0.0163118,-0.0152565
-0.0195852,0.0701681
-0.0105935,0.102397
-0.00308891,-0.00902472
-0.0239904,-0.038838
-0.0302362,-0.0728676
-0.059953,-0.0607143
-0.0921727,0.0045157
-0.0912596,0.0416085
-0.0836585,0.0140402
-0.0332257,-0.0254925
0.0186454,0.00805353
0.0969967,-0.031461
0.190434,-0.0529065
0.155336,-0.0262458
0.0933743,-0.00796932
0.0580768,0.0683675
0.0342846,0.0665395
0.0141777,0.0119438
-0.00339336,0.0340844
-0.0159501,0.0280978
-0.0411414,-0.0354421
-0.0862176,-0.0632523
-0.101421,0.0365437
-0.0607391,0.107231
0.0172034,-0.0104495
0.0503047,-0.044943
0.0150174,-0.00132014
-0.00248117,-0.0159355
0.027611,0.0281596
0.0588918,0.0647186
0.0723103,-0.0097257
0.0586774,-0.0242278
0.028379,-0.0365479
-0.0112357,-0.0520599
0.00986597,-0.0381316
0.00434227,-0.0144775
-0.00145912,-0.0131406
-0.0320331,0.0314813
-0.0800181,0.0287417
-0.0599113,-0.0332891
-0.0377044,-0.0256095
-0.0275039,-0.00993728
0.0353255,0.00867137
0.075898,0.00584614
0.0523303,0.00492948
0.00498913,0.0251163
-0.0315498,0.024971
-0.0578393,0.0138228
-0.0797062,0.0162989
-0.113931,0.019889
-0.0897981,-0.00359695
-0.0111055,-0.0525187
0.0674497,-0.0574489
0.077609,-0.0427113
0.010212,-0.037694
-0.0541163,-0.0384431
-0.0746267,-0.00866878
-0.0622037,0.0128924
-0.0327881,0.0790051
-0.00864364,0.097107
-3.47e-05,0.0727754
0.0349607,0.0144796
0.0633315,-0.0402583
0.0454371,-0.0180562
0.0325478,-0.0263982
0.0335325,-0.0399088
0.0521838,-0.0146451
0.0509415,0.00521752
0.0278927,0.000739838
0.0399109,-0.00378802
0.0548105,-0.00365388
0.0230117,0.00528699
-0.0328421,0.0161471
-0.0305768,0.0127992
-0.0195506,0.0389578
-0.0266341,0.0227147
-0.0135377,-0.00892948
0.0171345,0.0109426
0.0224239,0.0445151
-0.0111314,0.0143762
-0.0386374,-0.0229735
-0.0254588,-0.00783379
0.039339,0.0438011
0.0663293,0.0403678
0.0323238,-0.00625666
0.017319,0.0360604
0.0621985,-0.0843765
0.0632851,-0.105164
-0.00873145,-0.0533693
-0.0799344,-0.0205866
-0.0683339,-0.029101
-0.0253678,-0.0193716
-0.0141079,0.0145932
-0.0784376,0.0196874
-0.12462,0.0169629
-0.103954,-0.00662256
-0.0884479,-0.027227
-0.0201328,-0.0329966
0.0763764,0.0131781
0.0910871,0.032134
0.104888,0.0302782
0.0987594,0.0237369
0.0557844,0.0607674
-0.0198636,0.0240327
-0.0680277,-0.00218012
-0.0932818,-0.00202561
-0.0904712,0.0218433
-0.0325098,0.0545804
0.032309,0.0137272
0.0372794,-0.0639157
0.0420585,-0.0876291
0.0567236,-0.0217031
0.070737,0.00143898
0.0870073,-0.00319356
0.0589034,0.0186592
0.0270578,-0.0081803
0.00305963,0.0114414
-0.0299657,0.0434111
-0.0691334,0.0498701
-0.0894099,0.00883966
-0.0687037,-0.01543
-0.0629491,-0.0440459
-0.036143,-0.0462223
0.0165889,-0.0188086
0.0357207,0.00842284
0.0703877,0.00906895
0.0825673,-0.00813799
0.0481674,-0.0437921
0.0521023,-0.0214849
0.0762897,0.0288719
0.0373069,0.0350583
0.00177854,0.0202197
0.00852879,0.0103179
-0.0016807,-0.00331561
-0.0431353,0.00444775
-0.0765836,-0.0126402
-0.0970235,-0.0121054
-0.161426,0.0155687
-0.157644,0.00565743
-0.0617961,0.00515079
0.0670103,0.0285659
0.152655,0.0477387
0.0945254,0.00543011
0.00834662,-0.0425302
-0.0128423,-0.017556
-0.0175831,0.0036148
-0.0413248,0.0163515
-0.0459332,0.0282255
0.00524219,0.00103244
0.0564731,-0.0633473
0.0337586,-0.0616899
-0.0314565,-0.0108693
-0.0135536,0.0225639
0.0491705,0.062659
0.0688499,0.0259763
0.0608359,-0.0496785
0.0289552,-0.0111295
-0.00671496,-0.0158169
-0.0571146,-0.00295715
-0.0854009,-0.00814668
-0.079072,-0.00130127
-0.0641804,0.0185575
-0.0556354,-0.0114002
-0.0353688,-0.0195493
-0.0222381,-0.0103932
0.00720942,-0.000835827
0.0352626,0.0739045
0.0651711,0.0790505
0.0835631,-0.0722053
0.0285152,-0.0450667
-0.00117618,0.0512614
0.00891813,0.00125768
0.0272307,-0.0356359
0.0559887,-0.0120303
0.082757,0.00077746
0.0716994,0.0103862
0.0269212,0.00520099
-0.00374017,-0.00345022
-0.0522385,0.000956235
-0.0963773,-0.0271525
-0.0872964,-0.00840401
-0.0354689,0.0727975
0.0576003,0.0693789
0.109841,-0.0233489
0.103883,-0.034965
0.0698137,-0.0122706
0.017833,-0.0112316
-0.0449645,-0.00322809
-0.0835743,0.0354935
-0.062575,0.0228454
-0.0267209,-0.0152333
-0.00516914,0.00813366
0.0185759,0.0195488
-0.00494031,-0.00976272
-0.0708974,-0.0164468
-0.0971551,-0.0467045
-0.102001,-0.0612159
-0.0765505,-0.00345553
-0.0196295,0.0308781
0.0248619,-0.028759
0.0321345,-0.0685586
-0.00129848,0.00693259
0.00128715,0.0613113
0.0178686,0.0150076
0.0604514,-0.00973665
0.0956796,0.00460327
0.0474168,0.013778
-0.00706057,0.00279418
0.0327199,0.00629259
0.0574238,0.00978012
0.0169162,0.00107681
-0.00845219,0.0125497
-0.0114442,0.0254234
-0.0715524,0.0114457
-0.120353,0.00942771
-0.0762455,0.0293891
-0.0222929,0.023721
0.01772,-0.0396306
0.058651,-0.0657318
0.0484086,-0.03135
0.0204052,-0.0187175
-0.00836455,-0.03152
-0.0094508,0.00893925
0.0183838,0.0756432
0.0611096,0.0873503
0.125884,0.0169594
0.133214,-0.0310536
0.0963744,-0.0840717
0.0305032,-0.0335342
-0.0660883,0.0314394
-0.120583,-0.00133019
-0.12594,-0.033796
-0.0924451,-0.0249452
-0.0585616,-0.0232027
-0.0500597,-0.0171239
-0.0263054,0.022833
-0.000950999,0.0534648
-0.0119345,0.017364
-0.0116437,0.00698437
0.0120756,0.00362575
0.0274229,-0.00125673
0.0392363,-0.000393832
0.0489814,0.0550791
0.029249,0.122337
0.039347,-0.0219322
0.0372341,-0.0552693
0.00669312,-0.0276629
-0.0385357,-0.00209559
-0.0263092,-0.0227089
-1.74e-05,-0.0366239
-0.0255443,-0.033724
-0.0408601,-0.0158861
-0.0161783,0.0485309
0.0117454,0.0830824
0.0317283,0.00360275
0.0333268,-0.0399843
0.0295604,0.00137837
0.0148196,0.016857
-0.0018829,-0.00915917
0.00849265,-0.0603652
-8.55e-06,-0.055186
-0.017912,-0.000996794
-0.00626304,0.0601708
0.0470338,-0.00347571
0.111173,-0.107328
0.0842339,-0.0179155
0.037789,0.0763281
0.0263041,0.0734282
-0.00106415,0.00890931
-0.0659545,-0.0280002
-0.128655,-0.0389339
-0.160036,-0.00383427
-0.131268,0.0143526
-0.0866193,0.00138149
-0.0321044,-0.00495213
0.0112472,-0.0122978
0.0350534,-0.0451357
0.0705007,-0.0229475
0.091378,0.0508285
0.0565221,0.073196
-0.00281435,0.0142295
-0.0382798,-0.00692519
-0.0495595,0.0188615
-0.0568244,0.0214343
-0.0325109,0.0313808
0.00715214,0.0233269
0.0173793,-0.0677594
0.0196218,-0.0919254
0.0345325,-0.0170659
0.0425536,0.0585883
0.0277947,0.0434857
0.0316542,0.027193
0.0393038,-3.79e-05
0.0124125,-0.0406045
0.00541716,-0.0281147
0.0196492,0.00376093
0.0269212,0.0204885
0.0240842,0.0586582
0.0463611,-0.0330719
0.0338599,-0.0848004
-0.0308657,-0.0409029
-0.0465181,-0.0115512
-0.036292,0.0411542
-0.0327847,0.0149082
-0.0335253,0.0276705
-0.0160512,0.0478051
-0.0213284,0.0279826
-0.0266438,0.000400519
-0.0549837,-0.00248272
-0.0658756,-0.0226292
-0.026822,-0.0151451
0.00909688,-0.000808462
0.0516846,-0.00878788
0.0677016,-0.0472598
0.0426223,-0.0412887
0.012131,-0.00892724
0.0423025,0.0150609
0.0544552,0.0405341
0.0134023,-0.0220318
-0.0220756,-0.0354562
-0.00444973,-0.00200241
0.00931349,-0.000938515
-0.0114904,0.0183862
-0.0283118,0.035533
-0.00930612,0.0622637
0.0124697,0.0311187
-0.0168256,0.00301723
-0.0591641,-0.0176685
-0.0435591,-0.0613176
-0.0121938,-0.0361805
-0.0148084,0.0356798
-0.0374976,0.0423591
-0.0284813,0.0208809
0.0152678,0.00965483
0.0514695,0.0123751
0.0760514,-0.0267709
0.0677542,-0.0436662
0.0486264,-0.0240398
0.0120216,0.00621779
-0.0249779,0.0481941
-0.0234113,0.0331342
0.0173066,-0.0527457
0.0249458,-0.0342235
0.0116384,-0.0326714
-0.0150178,-0.0158334
-0.0379678,0.0472762
-0.0316354,0.0279553
-0.0179119,-0.0446425
-0.0192772,-0.0236373
-0.02268,0.0111536
-0.0179045,-0.00204263
-0.040426,-0.00386116
-0.0208303,0.0322337
0.0227748,-0.0035933
0.0247324,-0.0567884
0.00457754,0.00879739
0.0286939,0.0147654
0.0508587,0.00649674
0.0601285,0.0308238
0.0363235,0.0522348
0.0076329,0.0512805
-0.0272747,0.0152761
-0.0678938,-0.0231274
-0.0690051,-0.0346117
-0.0534469,-0.0323625
0.000632165,-0.00686598
0.0345526,-0.00266272
0.0317743,0.00899245
0.0149188,0.086087
-0.000240886,0.0506323
0.0183051,-0.0667968
0.0230015,-0.0620773
0.0208798,-0.0167198
0.011787,-0.0479552
0.00206577,-0.0354774
-0.0145481,0.00694681
-0.0579984,0.0523884
-0.0489586,0.0756639
0.028151,0.044645
0.0875707,-0.0718629
0.06859,-0.0546231
0.00493773,0.0277602
-0.017644,0.00856665
-0.0396828,-0.00675053
-0.0820836,-0.014435
-0.0831492,-0.00829221
-0.0459724,-0.00594764
-0.0151784,0.0460108
0.00100985,0.0688157
-0.00903032,-0.000183953
0.0233638,-0.0321936
0.0776618,-0.0268347
0.0849912,-0.0218916
0.0515607,-0.0423213
0.00748858,-0.00690657
-0.0280955,0.0263855
-0.0605734,-0.00826131
-0.0774651,-0.0275136
-0.0578829,0.0183922
-0.0796556,0.0569649
-0.0288376,-0.00158842
0.0574041,-0.0148809
0.125208,-0.0145084
0.105875,0.00142926
0.0309035,0.0339943
-0.0180092,-0.00602453
-0.0162639,-0.0252193
-0.0166981,0.00804085
-0.00181998,0.016326
0.0308743,-0.00457253
0.0373833,-0.028355
0.035334,-0.00681221
0.00463405,0.024316
-0.0145717,0.0022144
0.00996667,-0.00372178
0.0391372,0.00883058
0.0300081,0.000494704
-0.0306675,-0.0102082
-0.0603091,0.0106242
-0.0544753,0.0148716
-0.043922,0.0286064
-0.0233325,0.0178388
0.00319728,-0.000680574
-0.0202558,-0.0304529
-0.0398038,-0.0193199
-0.0539261,0.00694961
-0.0987665,0.00580963
-0.0630982,0.00488334
0.0144967,-0.0168459
0.0562011,-0.0647463
0.0751807,-0.0786529
0.0535411,-0.0405067
0.0565853,-0.000172093
0.0498436,0.0889178
0.0184724,0.110276
1.11e-05,0.0378494
-0.00800272,0.000951819
-0.0432358,-0.0422914
-0.0327745,-0.0716356
0.0451402,-0.056538
0.0828797,-0.0153824
0.0907705,0.0175973
0.0754466,0.0322398
0.000744589,0.0262513
-0.063365,0.0231215
-0.0798649,0.0849838
-0.0724714,0.189298
-0.0434409,-0.00768707
-0.0185861,-0.116737
0.0345632,-0.0518915
0.05545,-0.0535976
0.0304639,-0.096692
-0.00134427,-0.0337377
-0.0228989,0.0627723
-0.0168731,0.0760726
0.0108538,-0.00125075
3.23e-05,-0.0205113
-0.0324795,0.018871
-0.026749,0.0335345
0.00128091,0.0153518
0.0180849,-0.0331028
0.0107686,-0.00441712
-0.0221578,-0.0367744
-0.0233403,-0.0801482
-0.0263324,-0.080658
-0.0081252,-0.0374143
0.0230986,0.0356138
0.0310484,0.0589394
-0.023929,0.050824
-0.0998126,0.0285282
-0.018787,-0.00924563
0.0420794,0.00673868
0.0150165,0.0169563
-0.0563622,0.0127034
-0.130494,0.0172646
-0.0564222,0.000608233
0.0814946,-0.0456971
0.120559,-0.0852331
0.0761981,-0.0418815
0.0685547,0.0428498
0.0370347,0.0984111
0.0154564,-0.00773235
0.0408295,-0.0233702
0.0599573,0.000780291
0.0468079,-0.00239775
0.0185863,0.00270981
-0.0184974,0.0372778
-0.0387738,0.0209258
-0.0546703,-0.00148924
-0.0589137,-0.0112446
-0.0428715,-0.0316081
-0.0108834,-0.0172786
0.0125667,0.030175
0.0256627,0.0317778
0.0128686,0.0149491
0.0109358,0.000603696
0.000819688,0.0369402
-0.0430315,0.0707328
-0.0433125,-0.0114756
0.000300834,-0.0330699
-0.0308252,0.0526901
-0.0813977,0.0319319
-0.0619833,-0.106004
-0.031099,-0.110703
-0.0720558,-0.0277097
-0.0629951,0.0278814
-0.00726053,-0.00210004
0.0365696,-0.0201668
0.113214,-0.00655749
0.168992,0.0307575
0.174423,0.0354096
0.153931,0.00594381
0.100515,-0.0106063
-0.0184385,-0.0150185
-0.127432,0.00210183
-0.140551,0.0677282
-0.102295,-0.00368766
-0.0491556,-0.0820352
0.00552019,-0.0309281
0.0125629,0.0100792
0.0208749,0.0245638
0.0186542,0.0123073
0.0336566,-0.0174716
0.0567637,-0.0713673
0.00643846,-0.0276698
-0.0372923,0.0454807
-0.0314641,0.0366944
-0.0311195,0.0126922
-0.0661698,0.0101828
-0.0347213,0.00801322
0.0281956,0.000325807
0.00170796,0.00136812
-0.0221898,0.0156422
-0.0164514,-0.00230087
-0.0318626,0.0116918
-0.0211638,0.0432158
0.0263503,0.0318633
0.0701509,0.0195959
0.0703628,-0.02894
0.0291362,-0.0480683
0.00135904,-0.0565737
0.00484931,-0.027816
0.00496008,0.0249698
-0.0413262,0.000747408
-0.0633413,-0.0316752
-0.0350638,-0.0266504
0.000942736,-0.0342168
0.0279025,-0.0226021
0.0370381,0.0159299
0.035739,0.0171878
0.0263459,-0.00248158
0.0348056,0.00524581
0.0145614,0.050652
-0.0405672,0.0794746
-0.00901136,-0.0013359
0.0713266,-0.0100481
0.0555426,0.0780027
-0.0351111,0.0196643
-0.0467141,0.0170536
-0.0272507,0.0605422
-0.0535418,0.0104912
-0.0181304,-0.0506436
0.0533363,-0.123236
0.0381056,-0.107379
-0.0358577,-0.0208602
-0.0374348,0.0194874
0.0180548,0.0276223
-0.0135659,0.0262448
-0.0419655,0.0217095
-0.018899,-0.00189013
0.00318744,0.000828358
0.0202865,0.0462536
0.0206549,0.0829473
0.0398665,0.00227351
-0.0248873,-0.0342258
-0.0436306,-0.0330368
-0.0218642,-0.0554048
-0.0115662,-0.0160696
0.010593,0.035186
0.00735082,0.0568448
-0.0447109,-0.00619154
-0.0365207,-0.0589673
-0.00274108,-0.0214132
0.0101657,0.0323694
0.0270941,0.0608549
0.0299782,0.0277602
0.0623157,-0.0867003
0.0623629,-0.073578
0.0110972,-0.0262453
0.0124452,-0.0127908
0.0306473,-0.0133655
0.0129827,-0.00299149
-0.00509721,-0.010798
-0.0110851,0.0138056
-0.0179467,0.0445285
-0.045895,-9.07e-05
-0.0631379,-0.0104837
-0.0377343,-0.00599833
-0.0087354,0.000344502
0.00477275,0.0172942
-0.0211097,0.0050837
-0.0279248,-0.00870574
-0.00444911,0.0296477
0.0200345,0.0329873
0.0408038,-0.00519606
0.052761,-0.0112289
0.0465637,-0.0109161
0.0311561,-0.000947525
0.0467532,0.0445376
0.0606435,0.065733
0.0539151,0.0476554
0.0305658,0.0028091
-0.0125208,-0.011758
-0.0376345,-0.0309796
-0.0655365,-0.102411
-0.113731,-0.0715555
-0.0965479,0.0531679
-0.0631545,0.0690695
-0.0281577,-0.0318654
-0.00653746,-0.0509468
-0.0692268,0.0110812
-0.165383,0.00482728
-0.201021,-0.00155779
-0.0135246,0.0121626
0.229862,0.0346236
0.330165,0.0130406
0.226061,0.00372495
0.0608966,-0.0293378
-0.0183334,-0.0264818
-0.0215501,0.000784333
-0.0194861,0.00684511
-0.0186419,0.00602236
-0.0177093,-0.000213579
0.00291509,-0.0308122
0.0154402,-0.0218668
0.0158135,0.0257897
0.0224226,0.0560435
0.0145374,0.0367753
-0.00639269,-0.00893853
-0.0534198,-0.0201471
-0.107761,-0.0161062
-0.0915266,0.0057401
-0.0735506,0.00620485
-0.08,-0.0225009
-0.0444795,-0.00352657
-0.0540792,-0.00644899
-0.0385771,-0.0103303
0.0737065,-0.00409304
0.21397,0.00966256
0.272004,0.0288764
0.200061,0.0404274
0.045137,0.0223968
-0.109398,-0.0147487
-0.185362,-0.0322612
-0.180467,-0.0271716
-0.19247,-0.038702
-0.203556,-0.0408688
-0.108512,-0.0341345
-0.00977351,-0.0140745
0.0664718,0.0309191
0.118315,0.0526858
0.0983165,0.0189067
0.128112,0.0121933
0.143096,0.0103898
0.0630142,-0.0127561
0.0276532,-0.0245234
0.0641532,-0.0106201
0.063708,-0.00482391
-0.00517485,-0.00271602
-0.0747164,0.0126591
-0.080391,0.0490339
-0.0698532,0.0882893
-0.040976,0.0185343
0.0245555,-0.0416266
0.0653008,-0.0300209
0.0794021,-0.0168649
0.0411868,-0.0055166
-0.00281465,0.034072
-0.0145402,0.011853
-0.0307604,-0.0666985
-0.067393,-0.0800074
-0.133175,-0.0248265
-0.172067,0.0523509
-0.108496,0.060195
-0.0100711,0.011466
0.024789,-0.0303362
0.0324908,-0.0278177
0.0516481,0.00191012
0.0969165,-0.0195656
0.12839,-0.032831
0.0785475,0.00742041
0.0702904,0.0652067
0.109247,0.109287
0.118149,0.0138753
0.0474017,-0.0539275
-0.0525227,-0.0392682
-0.094526,-0.0185546
-0.106392,-0.00477669
-0.117226,0.00228317
-0.0696133,0.00462243
-0.00915961,0.00646852
0.00130756,0.0172907
0.00435722,0.0571818
0.0163847,0.0358255
0.000900927,-0.0247357
-0.0458067,-0.0274644
-0.0801173,-0.036685
-0.0947781,-0.0366685
-0.0551522,0.00799544
0.0255316,0.0109291
0.0551898,-0.00587405
0.065025,0.00523435
0.0967382,0.0176382
0.1282,-0.00680012
0.0879508,-0.0318538
0.00370589,0.0290511
-0.0213667,0.0327486
-0.0237078,-0.0510446
-0.0363652,-0.051612
-0.0390787,-0.0362794
-0.0672631,-0.0104864
-0.0626739,0.016329
0.0214125,0.0199383
0.0514589,0.000622013
0.0265138,-0.00422562
0.037659,0.0650688
0.0385944,0.114271
0.000959383,0.0286781
-0.0380871,-0.0533108
-0.0561979,-0.0338574
-0.0841646,-0.0308112
-0.0762075,-0.0614526
-0.0197764,-0.0385399
0.0295893,-0.00436537
0.0538175,0.014812
0.000932595,0.0305258
-0.03562,0.00886353
0.0320925,-0.0311748
0.120369,-0.0268576
0.118541,-0.0250905
-0.000279192,0.0390805
-0.0669161,0.0468668
-0.0118583,0.0175628
0.00534044,0.0176438
-0.0202174,0.00519752
-0.0321186,0.00625024
-0.0308728,0.00342459
-0.0118059,-0.0228977
0.01626,-0.0278956
0.0234986,0.0198736
0.0156085,0.018291
-0.0133184,-0.0187846
-0.0150768,-0.0341923
0.00692737,-0.0344106
-0.00255482,0.0829222
-0.0291343,0.18994
-0.0328287,-0.00221594
-0.0558661,-0.0538195
-0.0551966,0.00172144
-0.012699,-0.0263489
0.0284842,-0.0640441
0.069783,-0.0313007
0.0909412,-0.0139995
0.0613397,-0.0100793
-0.00283151,-0.0125954
-0.0365883,-0.0278928
-0.0417267,-0.0161633
0.00239799,0.0239892
0.0526432,0.00666691
0.0606111,-0.0172564
0.0395391,-0.0120661
0.0272408,-0.0409512
0.0167398,-0.0470516
0.0161016,-0.0108876
0.023944,0.0116887
0.0222438,0.0294911
-0.0259702,0.0409292
-0.134702,0.0521415
-0.195714,0.0105802
-0.179258,0.0364336
-0.109852,0.00110507
-0.0274474,-0.0306733
0.0768281,-0.0263147
0.135566,-0.0140379
0.130606,0.0114547
0.101758,0.0210416
0.0632208,0.0146414
0.0231089,0.0108935
0.00379762,0.0167188
-0.00351062,-0.00590531
-0.0149419,-0.00236346
0.000908273,0.0115809
0.0114719,0.0172778
0.0071455,0.0160364
-0.0127841,0.0215118
-0.0461452,0.046443
-0.0544193,0.0474334
-0.00937403,-0.0421291
0.00269726,-0.0721452
0.00395018,-0.0415655
-0.00366274,-0.0133661
-0.0244754,-0.00246106
-0.0254646,-0.00303388
0.011728,-0.0267816
0.012532,-0.00610332
-0.0147788,0.0275444
-0.00891596,-0.020613
0.0171966,-0.0557841
0.0334044,0.0137131
0.0246589,0.0313244
-0.00546106,-0.0266717
-0.0365157,0.0211666
-0.0436148,0.0626299
-0.0708923,-0.00330083
-0.116995,-0.0134464
-0.0732712,0.0382191
-0.0117845,0.0269833
0.0465188,-0.0335241
0.126737,-0.020407
0.127736,0.0107322
0.0908414,-0.013846
0.0558246,-0.0410657
0.0284535,-0.0231714
0.0148512,-0.00863187
0.00698143,-0.00500939
-0.0144022,0.0110821
-0.0119352,0.0160324
0.0155428,0.0207223
0.00142537,0.0044033
-0.0474395,-0.0166545
-0.0842437,-0.0158911
-0.0879963,-0.00169144
-0.0246786,0.0115545
0.0245786,-0.00293463
0.0295961,-0.030142
0.0175182,-0.00151706
0.00326634,0.0434743
-0.00131496,0.00629775
-0.00386622,-0.0141341
0.0316004,0.00459693
0.0804121,0.0192504
0.105585,0.0174181
0.0870164,0.0143273
0.0135735,-0.0022052
-0.0362857,-0.045546
-0.0621196,-0.0369319
-0.0684175,0.0109636
-0.0374101,0.0484434
-0.0185425,0.0834472
-0.0275889,0.0123153
-0.0528916,-0.0607087
-0.0874501,-0.0487342
-0.0236855,0.0142696
0.0864088,0.0259409
0.138861,-0.0127754
0.0523474,-0.0299394
-0.0535082,0.00538808
-0.0779694,0.0389545
-0.0880834,0.0944619
-0.0969952,0.0230197
-0.0574108,-0.0884247
-0.0177667,-0.0688116
-0.00988076,-0.0054089
0.00430051,0.00226087
0.03397,-0.0252272
0.055694,-0.0321652
0.0860686,-0.0127334
0.111777,0.00434311
0.0950329,-0.0056139
0.0479231,0.0144233
-0.0206805,0.0267702
-0.064099,0.0128257
-0.0876801,0.0120147
-0.116134,0.0224571
-0.139536,0.0134828
-0.0749596,0.00138643
-0.0133965,0.00508898
0.0388879,0.00856306
0.081199,-0.00427809
0.118771,-0.0191054
0.0168967,-0.0272923
-0.035284,-0.00155831
-0.0102821,0.0416652
0.0102778,0.0382412
0.0299686,0.0434858
0.0801653,-0.0138577
0.092277,-0.023928
-0.00186352,-0.0196531
-0.0413235,-0.0500204
-0.0163131,-0.0379383
0.00651477,-0.00645349
0.0156674,0.0261099
0.0140616,0.0116918
-0.00959726,-0.0152986
-0.0204078,-0.00467654
-0.0133239,0.014893
0.00762344,0.0178861
0.00443359,-0.0178075
0.00590293,-0.0455246
-0.00388804,-0.0166769
0.030056,0.0212761
0.100063,0.0319887
0.0887863,0.0229627
0.0186905,-0.0219832
-0.0417338,-0.0264328
-0.0526798,0.0498434
-0.0570536,0.096776
-0.047742,0.00975045
-0.0278682,-0.0333285
-0.00189047,-0.0301861
-0.00803513,-0.0364353
-0.021946,-0.0341859
-0.0039788,-0.0381997
0.00348657,-0.0108506
-0.0168781,0.0186803
-0.035723,0.0254204
-0.0384742,0.0342571
-0.00340927,0.0347377
0.0363548,0.012394
0.0272827,0.0301584
0.0142632,0.0147878
-0.012365,0.0192787
-0.0429973,-0.004397
-0.0526825,-0.0782024
-0.0157489,-0.0626837
0.0110988,-0.0307526
-0.0117182,-0.0255128
-0.000914076,-0.0150861
0.0295044,0.00757335
0.0287101,0.021754
0.0467427,0.00346981
0.0705173,0.00241824
0.0616046,0.0194087
0.0241115,0.0307744
-0.00871121,0.0212227
-0.0432398,0.0142223
-0.060061,0.00341601
-0.0550492,-0.0170844
-0.0627674,-0.0324192
-0.0379836,-0.0452269
0.0164563,-0.00641869
0.0470477,0.0575206
0.0440676,0.0635734
0.0371993,0.00765929
0.0275175,-0.0100442
0.0192991,0.000228888
0.0236422,0.000703097
-0.0046758,-0.0088668
-0.0557755,0.00027685
-0.0473834,0.00667511
-0.0132913,-0.00578786
-0.0171901,-0.0115327
-0.0407171,0.0119274
-0.0387367,0.0124597
-0.0198501,-0.0469686
-0.0551035,-0.0629062
-0.0188383,-0.0214727
0.0597924,0.00714388
0.0716197,0.00433505
0.0264019,0.00383646
0.0306328,0.0474273
0.0232842,0.0624416
-0.0031748,0.0114335
-0.0407237,-0.00048958
-0.0498677,-0.00964877
-0.00269272,-0.0058228
0.0593279,0.0321307
0.0781572,0.0210374
0.0666061,-0.0203575
0.051123,-0.0246133
0.0273613,-0.00494615
0.00291465,-0.0367192
-0.0133007,-0.0247577
-0.0312932,0.0119371
-0.0380969,0.0360608
-0.0234892,0.0256568
-0.039034,-0.0127111
-0.0451226,-0.0270681
-0.00487884,-0.0205658
0.0110017,-0.0153549
0.00589215,0.00390533
0.0287838,0.0431914
0.0304402,0.0495799
-9.14e-05,-0.0186509
-0.0468419,-0.0610678
-0.0657387,-0.0308155
-0.0491366,0.00968909
-0.0188916,0.0392251
0.00571502,0.00646099
0.00696931,-0.0469899
0.00474986,-0.0410237
0.0455029,-0.0118979
0.0564291,-0.000719349
0.0205646,-0.00367585
-0.0114163,-0.00908453
0.00591118,0.00147933
0.0417336,0.0232969
0.0269334,0.0345472
0.00760321,0.0655115
0.0304066,0.0562692
0.0453058,0.00097373
0.0177952,-0.00973269
-0.0166753,-0.0204411
-0.0258383,-0.0317151
-0.0421694,-0.0235964
-0.0564631,-0.00614935
-0.067132,-0.00530639
-0.0514444,-0.00072838
-0.0476643,0.00417078
-0.0777791,-0.00920387
-0.0836809,-0.0128142
0.0098953,0.010545
0.0831795,0.0300537
0.0606303,0.0307684
0.0390667,-0.0199658
0.0281375,-0.0240724
0.0170468,-0.00561122
0.0141748,-0.0189525
0.023054,-0.00288782
0.0503999,0.0106821
0.0800922,-0.0358394
0.105674,-0.0196589
0.0809011,0.0542386
0.0121058,0.092225
-0.0370039,0.0457743
-0.0659712,-0.0290894
-0.103032,-0.0374384
-0.118798,-0.00646824
-0.0950047,0.0121162
-0.0683345,-0.0084122
-0.0205105,-0.0289099
0.0321726,-0.0437032
0.0775112,-0.0239425
0.10494,0.000297027
0.0683615,0.003613
-0.00944148,0.0229828
-0.0613056,0.02937
-0.0651692,-0.0276961
-0.0425663,-0.0449664
-0.0340575,-0.0195556
-0.0411882,-0.00664886
-0.0247239,-0.00449051
0.0183771,0.0234876
0.0335655,0.0638037
0.0249854,0.0412563
0.020128,0.0121045
0.0439362,-0.0109077
0.0616839,-0.0322977
0.0527711,-0.011368
0.0364288,0.00756029
0.00914923,0.0107828
-0.0100414,0.0180783
0.00113977,0.0360988
-0.0167154,0.00619948
-0.0330376,-0.0501901
-0.0340604,-0.0206346
-0.0468893,0.0302877
-0.0277206,0.0133369
0.0243079,-0.0260338
0.0441299,-0.0204437
0.0336357,-0.00592031
-0.000285611,0.00791616
-0.0465263,0.0383421
-0.0805322,0.0115912
-0.0689247,-0.0184156
-0.0195634,-0.0117266
-0.000489053,-0.00251409
0.0365555,-0.0035941
0.0919796,-0.00201299
0.110064,-0.00391837
0.0989814,-0.0151491
0.0586759,-0.000206675
0.0243605,0.0100945
0.00054888,0.0017416
-0.00882571,-0.0198287
-0.0371111,-0.0277846
-0.0727213,-0.00911168
-0.097732,0.022775
-0.0768242,0.029838
-0.0332166,0.00825618
-0.0161427,-0.0252627
-0.0289815,-0.00055503
-0.00688783,0.0392863
0.0403643,0.00977638
0.0169198,-0.00827967
-0.00659622,-0.00388622
0.0203933,0.016969
0.0428302,0.00926094
0.0211175,-0.0294177
-0.0155941,-0.0436041
-0.0154671,-0.0404641
0.0162461,0.0010589
-0.00732483,0.0713012
-0.0354605,0.0984428
-0.0304808,0.0159046
0.00929944,-0.0749765
0.00831572,-0.0744252
-0.0271068,-0.0468705
-0.0285736,0.00643428
0.00976736,0.0198277
0.0434179,0.0237459
0.0499429,0.00879766
0.0209105,0.000408238
-0.0114074,-0.00620019
-0.0329191,-0.00907696
-0.0248063,-0.0121203
-0.00439048,-0.00987966
0.005714,0.0146186
0.036603,0.0602614
0.039247,0.0713216
0.00800602,0.0020065
-0.00103212,-0.048967
0.0187451,-0.0313793
0.0354399,-0.00901831
0.0241352,0.00309599
0.00624479,0.00570524
0.0132214,0.00404737
0.0106241,0.00316781
-0.0185481,0.00915784
-0.0488328,0.00868156
-0.0451111,0.012529
0.0064984,-0.0245585
0.0418815,-0.0203767
-0.00433818,0.00815043
-0.0105112,-0.000187969
0.012195,-0.00314333
0.0113115,0.0236699
-0.0022881,0.0100691
-0.03303,-0.0177394
-0.0620755,-0.0179925
-0.075552,-0.0303515
-0.0491579,-0.00572257
0.0129905,0.0183887
0.0580963,0.00795771
0.0357975,-0.00948178
-0.0146349,-0.0154503
-0.0298488,-0.00838417
-0.00760728,0.0169576
0.0100075,0.0237933
-0.00877353,-0.0226438
-0.0242812,-0.0430674
0.00108967,-0.00671134
0.0201477,0.00390021
0.00394017,-0.00752462
-0.00189583,0.010824
0.0380933,0.0342036
0.0461779,0.0172333
0.0321076,-0.0258946
0.0286895,-0.0233126
0.0393628,0.0164139
0.0546101,0.0393808
0.0465317,0.0445125
0.0091501,0.0276982
-0.0634453,0.00878528
-0.0925504,-0.00678823
-0.0889959,-0.0146372
-0.0658897,-0.0150949
-0.0305409,-0.0112951
0.000677042,-0.00688827
0.0102762,-0.0155162
-0.0127304,-0.020504
-0.00401536,-0.0118821
0.0358899,-0.0125788
0.0492804,-0.0071781
0.0426596,0.00197098
0.0305603,0.0174947
0.0220966,0.0443372
0.0269738,0.0704077
0.0445703,0.0562056
0.0677195,-0.00794749
0.0557855,-0.0536089
0.0268851,-0.0399655
-0.0214598,-0.0318509
-0.0802528,0.0105513
-0.0853685,0.015049
-0.0538721,-0.0191218
-0.0268615,-0.0234482
-0.0139071,-0.0256033
-0.0113566,-0.00698752
-0.0276166,0.0171213
-0.0504125,0.00832154
-0.0913945,-0.0402904
-0.0462253,-0.0236778
0.0511167,0.013715
0.0661731,0.0319507
0.0625298,0.0162685
0.0451004,0.010851
0.0243067,0.00659302
-0.000646247,0.00763836
0.00564556,-0.0192655
0.00693193,-0.0212327
0.0201143,0.0222595
0.0210486,0.0369538
0.0203958,0.0291696
0.0578248,0.036957
0.0726713,0.0344175
0.0612513,-0.0318765
0.00572099,-0.061045
-0.0660803,-0.0431752
-0.112915,-0.017425
-0.154766,-0.000530112
-0.130596,0.00280832
-0.0455133,-0.00846523
0.0145249,-0.0107863
0.0487771,-0.017109
0.0642263,-0.026618
0.0543939,0.000578014
0.0242732,0.0259001
0.0336438,0.0128676
0.0514023,0.0187778
0.0397233,0.0340561
0.0313209,0.00830769
0.0163349,-0.015901
-0.020377,-0.0129017
-0.0590792,-0.0163021
-0.0570167,-0.0142135
-0.0358123,0.0117981
-0.0319769,0.0613527
-0.0193077,0.0871521
-0.00246954,0.0223115
-0.00522796,-0.064526
0.00036481,-0.0779448
0.00902028,-0.0387733
0.000542624,0.00843865
0.0128184,0.0148855
0.0258591,-0.00257151
0.00854033,-0.00427159
-0.0139578,0.0184143
-0.0243044,0.0366839
-0.0137341,-0.00689664
0.00946071,-0.0219041
0.00872058,-0.0116649
-0.00266688,0.014121
0.000372958,0.0292796
0.0174558,-0.0115961
0.038032,-0.033564
0.0280808,-0.0104574
0.0140277,-0.00471247
0.012612,-0.0133596
0.0358947,-0.0193846
0.056889,-0.000873126
0.020471,0.0289904
-0.0162198,0.0291699
-0.0152574,0.0166307
-0.0238254,-0.00216689
-0.0224657,0.00691659
-0.0318238,0.022064
-0.0439383,0.00633849
-0.0383491,-0.0106504
-0.00966379,-0.00553753
0.00512769,-0.00396919
-0.0126956,-0.010308
-0.02536,0.0016702
-0.00674226,-0.00590754
0.0182093,-0.0322335
0.0102667,-0.0355268
0.00155009,-0.0137736
0.0122556,0.0197709
0.0402002,0.0330285
0.0544607,0.016227
0.0315807,-0.00511868
0.0158517,-0.0117537
0.0272258,-0.00491194
0.0269471,-0.00015235
-0.0019383,0.0192659
-0.0113709,0.0177188
-0.00286251,-0.012466
-0.0326333,-0.0165647
-0.0275994,-0.0118443
-0.0119054,0.00177145
-0.0227418,0.016379
-0.0301213,0.0175515
-0.0278383,-0.017353
-0.0396591,-0.0187202
-0.0677139,0.00404214
-0.0549259,0.0281929
0.0211547,0.0187041
0.0488031,-0.000194247
0.0344304,-0.00104937
0.0337791,0.0282555
0.0200801,0.0276592
0.00316518,-0.0115884
-0.012342,-0.00473157
-0.0124551,-0.0210634
-0.00670415,-0.0436383
-0.0137849,-0.0507079
-0.00395848,-0.0134136
0.00174945,0.0915297
-0.00456897,0.0952124
-0.00291792,-0.0196315
-0.0216513,-0.0407068
-0.0101152,-0.0302836
0.0238181,-0.0396107
0.0409887,-0.032522
0.0376024,0.0124327
0.0292274,0.010278
0.0373165,-0.0305002
0.0351399,-0.0396237
0.00792528,-0.00991894
0.000444669,0.0302084
0.0404566,0.0542319
0.0453284,0.0363449
0.00771815,-0.000292689
-0.0297511,-0.00871054
-0.0375076,0.00885493
-0.0456802,0.00791216
-0.0380015,-0.0326895
-0.0285655,-0.0198974
-0.010417,0.0566094
0.00741102,0.0675959
0.0193793,-0.0134674
0.0157799,-0.0410344
-0.00872232,-0.0326509
-0.0576796,-0.015893
-0.0828327,0.000931909
-0.0629564,-0.00224271
-0.0332457,-0.0291205
-0.0171217,-0.00223598
-0.0117995,0.00564449
-0.00918778,-0.0143224
-0.000626465,0.014391
0.0157711,0.01653
0.0223166,-0.0101751
0.0383046,-0.0199944
0.0713028,-0.00314276
0.106468,0.0150805
0.104274,0.00534485
0.0718987,0.00608014
0.0368452,0.0193746
0.00433986,0.0208789
-0.0167198,0.00545556
-0.0269219,-0.005281
-0.0324078,0.00404867
-0.029308,0.0119668
-0.0188727,0.0109517
-0.0177951,0.00702816
-0.0467595,-0.00252729
-0.0678911,-0.00343852
-0.0599295,-0.00672006
-0.0205589,-0.00316533
0.00217922,-0.00552493
-0.0308593,-0.00732734
-0.0300476,-0.00525934
-0.00648335,-0.0142814
-0.0163113,-0.0143361
-0.0156528,-0.00410458
0.00357273,-0.00120189
0.0217829,-0.0140563
0.0533891,-0.0188639
0.0792026,-0.00296259
0.0556152,0.0087208
0.0364006,0.00280492
0.0233633,-0.00476348
-0.0199788,-0.0160833
-0.054067,-0.0280315
-0.0275704,-0.0022929
0.0183501,0.0595553
0.0238474,0.100786
0.0339761,0.0561422
0.0460353,-0.0380959
0.0355495,-0.0479798
0.0253895,-0.0372232
0.000135403,-0.0249222
-0.0251662,-0.00105102
-0.0321202,0.00941851
-0.0299814,-0.00823802
-0.0162588,-0.0140725
-0.0138371,0.0301843
-0.0118445,0.0336945
0.00170915,-0.00662962
0.00608545,-0.0193898
-0.00740197,0.00710955
-0.0207163,0.017469
-0.0210283,-0.0113432
-0.00226717,-0.0159883
0.017475,0.0124114
0.00376475,0.0232331
-0.0222295,0.00226029
-0.0117318,-0.00446053
-0.0293147,-0.0117961
-0.0401558,-0.0242155
-0.0484958,-0.0099177
-0.0330667,-0.00383578
0.00106934,-0.0021204
0.0181656,-0.00815812
0.0271025,-0.0200282
0.0388773,-0.0325166
0.0324622,-0.00453035
0.0266198,0.0113004
0.0297972,0.00666135
0.0275217,0.00419887
0.0345152,0.00445992
0.0423148,0.00828267
0.0324256,0.0149889
0.00456995,0.0188846
-0.0117148,0.0172934
-0.0239733,0.00807572
-0.0459417,-0.00376478
-0.0545638,-0.0060442
-0.0369278,0.00809283
-0.0206385,0.0046077
-0.0176894,0.0287217
0.000217384,0.0488681
0.015589,0.0152328
0.00856025,-0.0133386
0.00399368,-0.0368135
0.00594651,-0.0275567
0.00572373,-0.0132228
0.0177209,-0.00933762
0.0333148,-0.00276671
0.0266273,0.00608681
0.0222384,-0.00384273
0.0154583,-0.0094145
-0.00447755,-0.0105966
-0.0200073,-0.00421179
-0.011981,-0.000292216
0.00479047,-0.00677591
0.00554859,-0.00394385
-0.00391154,0.00995618
-0.0238865,0.0181866
-0.0430532,0.0199368
-0.0450745,0.00360647
-0.0228589,-0.00973227
-0.00892378,-0.0148049
0.00964066,-0.0196838
0.0370255,-0.00303268
0.0517602,0.00782401
0.0400161,0.00144556
0.0174434,-0.00275922
-0.00430735,-0.00294789
-0.0241172,-0.00757904
-0.0694421,-0.010409
-0.0587692,-0.00695773
-0.0139571,-0.00100285
-0.00571451,0.00279476
0.0101481,0.0149455
0.0155549,0.0309436
0.0183838,0.0161785
0.0318794,-0.0135195
0.0510576,-0.00836878
0.0173359,0.0262097
-0.0069583,0.0309947
0.0307865,0.00554077
0.0312442,0.0124671
-0.00269848,0.0140199
-0.0290939,-0.0129631
-0.0459971,-0.00855185
-0.0458684,-0.0136486
-0.0279846,-0.016217
-0.00928626,0.00220353
0.0131898,-0.00117224
0.031588,-0.0242374
0.0357019,-0.0218302
0.0184865,-0.00967178
-0.00908651,0.00908938
-0.0307522,0.0128788
-0.0149491,-0.0171115
0.0136903,-0.0280975
0.0361258,0.0126354
0.038564,0.0400622
0.0124045,0.0150523
-0.0054224,-0.0114226
-0.00660466,-0.00390173
-0.0267555,-0.00308265
-0.0311982,-0.0213915
-0.0214267,-0.0149312
-0.00933329,0.00846508
-0.0118316,0.019012
-0.00846077,0.0103199
0.00655333,0.00432524
0.0223281,0.00412101
0.0130223,0.00836628
-0.000859091,-0.00617948
-0.00887451,-0.016948
-0.00391294,-0.0220189
0.0289214,-0.0191732
0.0241437,0.0010063
0.00459194,0.0133893
0.00508357,0.00451131
0.00159604,-0.00792637
-0.0176984,-0.00595409
-0.0131295,0.00483634
0.0028926,0.0175675
0.0123629,0.0109397
0.00795936,0.00102711
0.0154699,-0.00460534
0.0109539,-0.00582993
-0.0095641,0.00190104
-0.0296192,0.00244529
-0.0344967,0.000636696
-0.031517,0.0106576
-0.0124321,0.0249767
0.0248994,0.00513766
0.0403439,-0.00665011
0.0264514,0.00542008
0.0133656,0.0102829
0.0026548,-0.00160019
-0.0145755,-0.0193684
-0.0331784,-0.0157867
-0.0319586,0.0229607
-0.00610547,0.0157871
0.0126093,-0.0196676
0.014621,-0.012516
-0.0134694,0.00433317
-0.0374961,-0.00649383
-0.0311581,-0.0179621
-0.0139308,-0.00321874
-0.00479604,-0.00480511
0.0113406,-0.0106769
0.0183932,-0.00213002
0.0180418,-0.000375437
0.00853094,-0.00330602
-0.00509372,-0.000618908
-0.00512527,0.00378862
-0.00898797,-0.00685264
-0.0015549,-0.00436931
0.0187095,0.0231881
0.0284004,0.0527214
0.0264557,0.0257549
0.0225706,-0.0171681
0.00959808,-0.02809
-0.00951526,-0.0221598
-0.0201561,-0.00574707
-0.0197777,0.0147745
-0.00624011,0.0194541
0.0261576,-0.00161451
0.0287412,-0.0158935
0.00402244,-0.0249469
0.00479589,-0.0173648
0.0118987,-0.00216145
0.00119241,0.0017869
-0.00933111,-0.00424334
-0.00788862,-0.00217976
-0.000554208,0.0128324
0.00326858,0.0335223
0.00532758,0.0230516
-0.00516933,-0.0187155
-0.024665,-0.0280795
-0.049243,-0.0216286
-0.0377181,-0.0149833
-0.000880398,-0.00392995
0.0279801,0.0183451
0.0382994,0.0625286
0.0427799,0.0558258
0.022143,-0.00378954
-0.00452158,-0.0268613
-0.0160462,-0.0186605
-0.0241592,-0.0165199
-0.0355193,-0.0147413
-0.0140017,-0.017594
0.0182113,-0.0062506
0.0254757,0.00678751
0.0156676,0.00720112
0.00232838,0.00133903
-0.00467719,0.0135381
-0.00701929,0.00521182
-0.00105539,-0.00888492
-0.00253458,-0.00510488
0.00957295,0.0121943
0.0240137,0.0071935
0.0108101,0.00180041
-0.00961023,0.0111647
-0.0188876,-0.000634016
-0.0273319,-0.021757
-0.0346112,-0.00966203
-0.0201783,0.019498
0.00854652,0.0259441
0.0211553,0.00749345
0.0158979,-0.0100065
0.0111283,-0.012978
-0.0011505,0.00734815
-0.0171706,0.0186708
-0.0450841,0.0183358
-0.0487368,0.00274906
-0.0234566,-0.0245768
0.0193182,-0.0147467
0.0438639,-0.00273245
0.0330143,-0.00743566
0.0194136,-0.0105712
0.0182843,-0.0114426
0.0104445,-0.0197038
-8.62e-05,-0.0310915
-0.00493694,-0.0190493
0.00949238,0.00666053
0.0149778,0.0154696
0.00782001,0.0163821
-0.0032324,0.0136794
-0.0158954,0.00451595
-0.0265393,-0.00238863
-0.0233204,0.00494795
-0.00939431,0.00928724
0.00201134,0.0128716
0.020204,0.0186976
0.0428783,0.00649559
0.0442333,-0.00512157
0.0295374,0.00740282
0.00830111,0.00884845
-0.0129858,-0.0229895
-0.0192068,-0.0335045
-0.00469863,-0.0151249
0.00472499,0.0042229
-0.00132027,0.0112243
0.00140525,0.00734873
0.000659552,-0.00104701
-0.0171179,0.00191813
-0.0393079,0.00822008
-0.0433091,0.00405699
-0.0366113,-0.00300115
-0.0181084,-0.0021314
-0.00160544,0.0038006
-0.000416285,0.00447751
-0.00313554,0.000641923
-0.000970568,0.00372007
-0.00419522,0.0025595
-0.0153483,-7.62e-05
-0.0166722,-0.00496958
0.00422554,0.00139724
0.0218459,0.0185946
0.0223499,-0.00112987
0.0221815,-0.0159328
0.0149338,-0.0146338
0.00273147,-0.0133203
0.00121272,-0.013666
0.00666084,-0.00850967
0.00374101,-0.00242253
0.0122177,0.00670532
0.0192366,0.00520976
0.00856093,-0.00647418
0.00245537,-0.00950064
0.00212056,0.00484928
-0.0108121,0.0130775
-0.0225772,-0.00836048
-0.0135697,-0.0154707
0.0106794,-0.0058424
0.021275,0.00287933
0.0144328,0.0119332
0.00974402,0.0134892
0.000747479,0.00893375
-0.00688954,-0.000560931
-0.00763034,0.00814435
-0.00379955,0.00825294
0.0067298,-0.0110556
0.0215076,-0.00371178
0.0195996,0.0375876
-0.000106541,0.0642669
-0.00869408,0.0197352
-0.00716889,-0.040367
-0.00951247,-0.0531523
-0.0193905,-0.0290574
-0.00944084,-0.000208286
0.0117477,0.0279157
0.0162427,0.0226121
0.0118899,0.000864928
0.00300685,-0.01129
-0.0103324,-0.00847371
-0.0210998,-0.00915261
-0.0200862,-0.00957103
-0.0152987,-0.00756747
-0.0042001,0.0117693
0.0118221,0.020487
0.0124739,-0.00410402
0.00216094,-0.0157998
-0.00318249,0.00040785
-0.0104108,0.00928733
-0.0253136,-0.00530705
-0.028407,-0.0121523
-0.00728445,0.00120186
0.0117208,0.0193944
0.0151933,0.018866
0.0174349,0.00151813
0.00746722,-0.00554099
-0.00588557,-0.00385517
-0.0150119,-0.00787588
-0.0174347,0.00367491
-0.0143474,0.0112184
0.00843393,0.000442821
