Comp Ch 3,Comp Ch 4
-0.0587217,-0.0168621
-0.0823435,0.002976
-0.100329,0.00384616
-0.0518438,-0.00332328
-0.00534037,-0.00419395
0.00411511,-0.00205477
0.00592087,0.00551226
0.0165669,0.0111784
0.0399629,0.0104906
0.0520129,0.00874079
0.0437423,0.0202461
0.0294632,0.0139478
0.0118694,-0.00392124
-0.010998,-0.0161774
-0.0273476,-0.0109697
-0.0250569,0.0106081
-0.00819297,0.0137445
0.0135803,0.00490505
0.0264788,-0.0168169
0.033719,-0.00528067
0.0609946,0.00232059
0.0745791,0.00276169
0.0578334,0.00904509
0.0306388,0.0197559
0.0228838,0.0326738
0.0475829,0.046256
0.0583193,-0.0171202
0.0214579,-0.0577252
-0.0383784,-0.0369657
-0.104562,-0.0117361
-0.0996586,-0.00428547
-0.00783051,0.011235
0.0423758,0.0175946
0.0455346,-0.000532434
0.00180127,-0.0108412
-0.0582214,-0.00703935
-0.0701717,0.00512906
-0.0567202,0.0179481
-0.0368959,0.00854425
-0.0231094,-0.00543054
-0.00612649,-0.014121
0.0242806,-0.00499966
0.0324873,0.0125022
0.0307339,0.0058919
0.044862,-0.0158735
0.0506385,-0.0228839
0.0473478,-0.020395
0.0344073,-0.0197353
0.0138505,-0.0127156
-0.00449785,0.00730915
0.0242009,0.0303487
0.0448784,0.0344829
0.0336517,0.0219859
-0.0167403,0.00992998
-0.0971831,-0.007813
-0.161146,-0.00399424
-0.160504,0.0128042
-0.0934411,0.00341171
-0.0257774,-0.00173355
-0.0026343,0.00539498
0.0210702,-0.0128745
0.0579619,-0.0147829
0.0739241,-0.0102937
0.0678703,-0.0134493
0.0631248,-0.0143781
0.0363527,-0.00900107
0.000213106,7.97e-06
-0.0313119,0.0128559
-0.0585648,0.01742
-0.0690476,0.0563135
-0.0304272,0.0813982
0.0042262,-0.037682
0.0221286,-0.0598943
0.0217888,-0.0363132
0.0201766,-0.0126405
0.0227496,-0.000624481
0.0272731,0.00381255
0.0602216,0.0107495
0.0758076,0.0103047
0.0501553,-0.00214371
-0.00847351,-0.0141744
-0.0523941,-0.0119111
-0.0800148,-0.00384462
-0.0622027,0.00813849
0.00851566,0.0124954
0.0433734,-0.00376281
0.0253757,-0.0228698
0.0193903,-0.0353729
0.00221745,-0.0201828
-0.0252714,0.0414071
-0.0148649,0.0715936
0.0201703,-0.000334705
0.0371923,-0.0245146
0.0323003,0.0112453
0.0209067,0.0200729
-0.00239614,0.0113625
-0.0273958,-0.000623561
-0.0534993,-0.00827661
-0.0520228,-0.00688221
-0.0287817,0.00347201
-0.00179133,0.00831342
0.0143743,-0.0158586
0.0103837,-0.0151803
0.0239879,0.000485927
0.0492164,0.00560899
0.058801,-0.00304859
0.0312465,0.00283712
-0.018659,0.0286803
-0.0483206,-0.00196727
-0.064002,0.00102587
-0.0551242,2.26e-06
-0.0387264,-0.0319267
-0.0459532,-0.00683506
-0.0485381,-0.0031585
-0.0287134,-0.0208818
0.00484805,-0.013749
0.0291839,0.00381293
0.0448454,0.0139807
0.0449993,0.00818249
0.0273194,-0.00420778
0.0208524,-0.00991922
0.0305314,-0.0200815
0.0182523,-0.018977
0.00778128,0.00600026
0.0265186,0.0185193
0.0596174,0.00884789
0.068011,0.00100082
0.0360919,0.0183637
-0.00612152,0.0161927
-0.0282429,-0.00241028
-0.0503915,-0.00728495
-0.0418432,0.000954561
-0.0586012,0.00636404
-0.0734892,0.0171281
-0.0412207,0.0159289
3.03e-05,0.000341806
0.0309073,-0.00671149
0.0437945,-5.92e-05
0.0296688,0.00434832
0.00867092,-0.0077013
-0.00817923,-0.0135964
-0.00281187,-0.00538354
0.0128014,0.00249087
0.00632895,0.002068
-0.00702653,0.0109042
-0.0162133,0.0184674
-0.0212509,-0.0107731
-0.0377509,-0.016531
-0.0380342,-0.0145155
-0.0213251,-0.0176101
-0.00521023,-0.0111239
0.0112658,0.0130607
0.0264692,0.0217434
0.0400258,0.00434554
0.044154,0.00593116
0.0305546,-0.0193556
0.0110973,-0.0368478
0.00349562,-0.0313072
0.00325065,0.000437748
-0.00090017,0.0138092
-0.0143333,0.0341003
-0.0282289,0.103623
-0.0308081,-0.0102923
-0.0313433,-0.0742966
-0.0251414,-0.0324472
0.00191217,-0.00447298
0.0374985,0.00131665
0.0636789,0.0173415
0.0678982,0.0296956
0.0310377,0.021036
-0.00626459,-0.0342752
-0.0160819,-0.0315305
-0.0093892,-0.00875874
0.0101439,-0.000267255
0.0173781,0.0152319
0.018297,0.0185474
-0.00984913,-0.00841181
-0.0538792,-0.0229991
-0.0956783,0.0315066
-0.104067,0.0626269
-0.0838898,0.0142853
-0.042748,-0.0387435
0.0249325,-0.0240091
0.0980814,-0.00836768
0.167076,-0.0178843
0.190057,-0.00885539
0.149577,0.00140677
0.0917531,0.00273259
-0.00812219,0.00203494
-0.121654,-0.0087543
-0.178101,-0.00849331
-0.147549,0.0129919
-0.0926559,0.0316029
-0.0615456,0.0318945
-0.0339841,0.0426452
-0.0188597,0.00797519
-0.0259924,-0.00268103
-0.0283679,-0.0134533
-0.0186913,-0.00167141
0.000804931,-0.0171735
0.0164424,-0.0185559
0.0267685,0.00396867
0.0339585,-0.0026085
0.0348366,-0.0117051
0.0375001,-0.015163
0.0321062,-0.0242172
0.026079,-0.0345404
0.0226283,-0.0216945
0.0247614,0.023091
0.0253092,0.046316
0.0220425,0.00648479
0.0109165,-0.00680656
-0.0145689,-0.00114554
-0.0238523,-0.00339027
-0.0150455,0.00408518
-0.003596,0.0185976
0.00497836,-0.00636169
0.0119154,-0.00717354
0.00822629,0.0158073
-0.00457755,0.0210888
-0.0081195,-0.00422141
1.2e-05,-0.00315334
0.00187784,0.00120178
0.00170146,-0.0164048
0.0201614,-0.0385957
0.06378,-0.0174124
0.106127,-0.00178531
0.10771,0.00747478
0.0613338,0.0678251
-0.0200804,0.0823924
-0.100996,-0.0126598
-0.140566,-0.0483721
-0.132158,-0.0475126
-0.0859618,-0.0351698
-0.0134075,-0.0123611
0.0373336,0.0467767
0.0518196,0.0565481
0.043645,-0.0412913
0.0106753,-0.0348009
-0.0279326,-0.0192653
-0.0552398,-0.0161311
-0.0278393,-0.00484825
0.00443421,0.00545888
0.00530772,0.00939457
-0.000738373,0.0072327
-0.00966463,-0.00408227
-0.0173203,-0.0175744
-0.0197264,-6.64e-05
-0.0118214,0.0381982
-0.00109285,0.0110698
0.0234791,-0.0174664
0.0504661,0.0378697
0.0594127,0.0284442
0.0758043,0.0164281
0.13245,0.0254898
0.139147,-0.0061231
0.0570592,-0.014993
-0.0332324,-0.0382624
-0.0945225,-0.0397623
-0.107647,-0.00961357
-0.0922763,-0.00670162
-0.0521451,-0.0116156
-0.0213879,-0.0128762
-0.0124173,-0.0173158
-0.0187992,0.0104007
-0.0355695,0.0571051
-0.0437412,0.0335068
-0.0271983,-0.017249
-0.00129028,-0.0020461
0.00738532,0.00945563
0.0142535,0.021265
0.0163016,0.00759808
0.00966139,0.00170783
0.00647984,-0.00368025
0.0179101,-0.0151062
0.0364218,-0.00591394
0.0328648,-0.00389158
0.0207273,-0.003968
0.0100638,0.00522139
-0.00198628,0.00410572
-0.0101522,-0.0224227
-0.0191565,-0.0215143
-0.0261815,0.00646081
-0.0196875,0.00223976
0.000546187,-0.0109306
0.00841394,-0.0221929
9.98e-05,0.0255932
0.00511487,0.0501597
0.00554623,-0.0202154
-0.0105633,-0.0330259
-0.0162865,-0.0102281
0.000525114,-0.00688114
0.0182712,-0.00047091
0.0134869,0.00647911
0.00713262,0.0304315
0.00739165,0.043066
0.00685301,0.00700516
0.0223478,-0.034987
0.0482644,-0.0239229
0.0468108,-0.0122751
0.0325127,0.000278385
0.00833749,0.0203686
-0.0257989,0.0116753
-0.0546514,-0.0236014
-0.0481944,-0.0154331
-0.0393736,0.0747134
-0.0351253,0.00557017
-0.0232621,-0.0575122
0.0174883,-0.0211181
0.0711041,0.0377873
0.121564,0.00216723
0.133364,-0.0172032
0.0862113,-0.00874108
0.00518162,-0.00762291
-0.0820934,0.0271333
-0.123222,0.0342785
-0.136015,-0.0228788
-0.101671,-0.039719
-0.0443014,-0.00440331
-0.0154323,-0.000997955
-0.0275859,0.00536266
-0.0366186,0.00565779
-0.0200872,-0.00363509
0.0116422,-0.00876529
0.0441797,0.00257662
0.0547171,0.0128452
0.0444512,0.0260073
0.0401819,0.00931381
0.0206735,-0.0140366
-0.0047612,0.00444705
-0.0136793,0.0179476
-0.00826819,-0.0135023
0.000658527,-0.0367381
-0.000892131,-0.00797685
0.0194962,0.025781
0.0557518,0.0308232
0.0623658,0.0126649
0.0342976,0.00955477
-0.0044926,-0.000208377
-0.0311572,-0.0195559
-0.0484078,-0.0293231
-0.0486371,-0.00940749
-0.0284124,-0.000457744
-0.00655416,0.0041985
0.00723814,0.0210745
0.00478441,0.00703442
-0.00570655,-0.0115632
-0.0236161,-0.0164057
-0.0132599,-0.0168184
-0.00459674,-0.00522411
0.00384581,0.00359441
0.0326793,0.0134071
0.0574163,0.013961
0.0479005,0.0037325
0.0259288,0.0185596
0.00538685,0.0205696
-0.0180776,-0.0229212
-0.03525,-0.0207577
-0.0198697,0.020803
-0.00405496,0.0403779
-0.0169742,0.0266108
-0.00895479,-0.0206659
-0.00083825,-0.0192537
-0.000251685,-0.0533548
-0.000835561,-0.052012
-0.00798395,0.000602968
-0.011186,0.0102712
-0.00221324,0.0222597
0.00677732,0.0307297
0.00502084,0.00270417
-0.00671279,-0.00866113
-0.00897268,-0.00243368
-0.0131635,0.00250159
-0.0136821,-0.0202699
-0.00677984,-0.0156335
0.0137938,0.00532861
0.0270585,0.00997983
0.0227118,-7.72e-05
0.0178951,-1.29e-05
0.010829,-0.00849156
0.00219271,-0.00989314
-0.0027574,0.00155021
-0.00586133,0.00252812
-0.00954195,0.00583014
0.00608422,0.0157817
0.0106329,0.012979
-0.00513159,0.0098125
-0.0105242,0.00397619
-0.0105719,-0.0167218
-0.0204224,-0.0039157
-0.0353071,0.017076
-0.0260804,0.00977308
0.0129213,-0.0214843
0.0327485,-0.0344174
0.0292896,-0.00421282
0.0129488,0.0201826
0.00329727,0.0151123
-0.00301826,-0.00274527
-0.00786786,-0.00312033
-0.0169845,0.00389101
-0.00557095,0.00307284
0.0179588,0.0124394
0.0205343,0.00929944
0.0085953,-0.0019518
-0.00383389,-0.00562955
-0.0187911,-0.00834806
-0.0259886,-0.0146696
-0.0264491,-0.0176602
-0.00551015,0.000140758
0.0153364,0.0156265
0.0154847,0.0105624
0.0132252,0.008244
0.00831343,0.00386398
0.000454314,-2.57e-05
-0.00286621,-0.000816526
-0.00506527,0.0014059
-0.0186748,0.01435
-0.0100128,0.0285287
0.021528,0.00453611
0.0361721,-0.0178933
0.0189569,-0.0177749
-0.00643478,0.00561653
-0.0233137,0.0100832
-0.0309801,-0.000851472
-0.0179359,-0.0101729
0.00990394,-0.0222297
0.0255636,-0.0121133
0.0105658,-0.012087
-0.000434329,-0.00777801
-0.00589281,0.0110075
-0.0219168,0.00920738
-0.0284405,-0.00593883
-0.0136196,-0.0148171
0.000332272,-0.0158978
0.0168764,0.00398986
0.0334969,0.0131908
0.0405243,0.00251559
0.0587456,-0.0122153
0.0652507,-0.0203607
0.0322036,-0.00593179
-0.0241743,0.0230678
-0.0467074,0.0175877
-0.0290421,0.00544231
-0.0102874,0.0145892
0.0109991,0.0569975
0.034774,0.0342432
0.0279254,-0.0399201
-0.00419205,-0.0338894
-0.0411207,-0.00860059
-0.0488486,-0.01439
-0.0401475,-0.0119793
-0.00718088,0.00815933
-0.0134961,0.00723361
-0.0435351,-0.00445385
-0.0527256,-0.0118755
-0.0480236,-0.00083566
-0.0424682,0.0018097
-0.0258913,-0.0181837
0.0237786,-0.0115448
0.0632927,0.0305615
0.0657036,0.0197039
0.050754,0.000311631
0.0230349,0.0178204
0.00109592,-0.025259
-0.0147717,-0.0305353
-0.0146681,0.006633
-0.00656352,0.000343977
0.00804526,0.00776169
0.023477,0.0324348
0.0133908,0.0242321
-0.00747541,-0.00352647
-0.0195965,-0.00901854
-0.0303704,-0.0134665
-0.0370751,-0.0226823
-0.0318265,-0.021081
-0.0086544,0.00314359
0.00581799,0.00890801
0.0110366,0.00712966
0.0259089,0.0201114
0.0297895,0.0140922
0.0249134,0.00703604
0.0248895,0.00877405
0.0266311,0.00735651
0.0215069,0.00388211
0.0273575,0.00781469
0.0296076,0.000732252
0.0180117,-0.00763959
0.00860634,-0.00836118
0.00198881,-0.0175412
-0.0113221,-0.0234812
-0.0281886,-0.0251065
-0.0356209,-0.00927015
-0.0407372,0.0121566
-0.0313774,0.0164406
-0.00487493,0.0156681
0.0207295,-0.0276313
0.0432823,-0.00515676
0.0367124,0.0411056
0.0321364,0.0102111
0.0139504,-0.0515916
-0.00984827,-0.0297813
-0.0105957,0.0128079
-0.0258517,0.0259607
-0.0670728,0.0122102
-0.084558,0.0030256
-0.0728803,-0.00212902
-0.0582416,-0.0161015
-0.0408208,-0.0188673
-0.00750801,-0.0120648
0.0220518,0.0137542
0.0254152,0.0234295
0.0204804,0.0132684
0.00771176,0.00768658
0.000636612,-0.00104202
0.00252275,-0.00983208
0.00894463,0.00439483
0.00896473,0.0170241
0.0267453,0.0310846
0.0662425,0.03376
0.103389,0.00952245
0.138584,-0.0210387
0.140516,-0.0329669
0.0836503,-0.0321093
-0.00323841,-0.022416
-0.0754958,0.0038109
-0.109034,0.0146373
-0.107648,-0.00684662
-0.076067,0.000107621
-0.0345263,0.0115762
-0.00847879,0.0399472
0.00704088,0.023329
0.0093686,-0.0670173
-0.0182757,-0.0401782
-0.0438012,0.00759677
-0.0393211,0.0358431
-0.0243771,0.0238881
-0.0221619,-0.0164044
-0.0206644,-0.0339655
-0.0161416,-0.0208145
-0.0172256,-0.00224804
-0.0175309,0.00542284
-0.00411854,0.00561823
0.0247379,-0.00289812
0.042704,-0.0107265
0.0391804,0.00331767
0.0266515,0.0206638
0.0174983,0.00174338
0.0122905,-0.0148488
0.0235874,-0.0102174
0.0445501,0.0222633
0.0524539,0.0314351
0.0653069,0.0142589
0.0536864,0.000873648
0.00784724,0.00129272
-0.0255038,0.00862104
-0.037474,0.00041484
-0.0666117,-0.00732535
-0.0711427,-0.0307067
-0.0273138,-0.0262954
0.0392473,-0.00965992
0.091457,-0.0111022
0.126941,0.0115232
0.119661,0.0273591
0.0452056,0.0349126
-0.0667333,0.0238959
-0.138791,0.0195472
-0.145646,0.0193171
-0.125522,0.0176605
-0.0601777,-0.0285492
-0.0210633,-0.0167258
-0.0193464,-0.0232571
-0.0211809,-0.0497785
-0.0299833,-0.0551088
-0.038287,-0.0334351
-0.0261854,0.00535333
0.00727196,0.0307093
0.0378963,0.0387339
0.0704561,0.0225236
0.108135,0.0180415
0.107322,0.0299412
0.0745479,0.0459318
0.0664307,0.0374205
0.062481,0.00147661
0.0221987,-0.050207
-0.0121284,-0.0434986
-0.00728802,-0.0167636
0.00282773,-0.00747271
0.00478355,-0.0170236
-0.011634,-0.0191666
-0.0647171,-0.00586078
-0.115927,-0.0105727
-0.118945,-0.0121197
-0.0773116,-0.00517877
-0.0295968,-0.000467561
-0.00187146,0.00223625
0.0116351,0.00230529
0.0155337,0.00449547
0.0107391,-0.0186522
-2.07e-05,-0.0292281
-0.0113769,0.0169427
-0.0055411,0.0187717
0.0229777,0.018397
0.0337132,0.029906
0.0160059,0.0303363
0.00529896,0.0256923
0.00366623,0.00142894
-0.00179572,-0.0236771
-0.00752001,-0.0249616
0.00384922,0.00126971
0.0178223,0.023855
0.0157486,0.00725236
0.022723,-0.0341281
0.022284,-0.0377549
0.0138375,-0.0144879
0.0130928,-0.00927927
0.0141869,0.0129852
-5.93e-05,0.0261157
0.00406816,0.0198646
0.0255513,0.0117756
0.0261349,0.0106613
0.00842081,0.00928143
-0.00465364,0.0079028
-0.0165276,0.00300517
-0.0268206,-0.0061684
-0.0257323,-0.0153968
-0.00636351,0.00258408
0.00483194,0.0216034
0.004192,0.0142592
0.00707954,0.0121351
0.0018232,0.0126985
-0.00648616,0.00224878
-0.0125679,-0.0216151
-0.0138927,-0.0242204
-0.0111669,-0.0169812
0.00836282,0.00506932
0.0229377,0.0111461
0.00981751,-0.0147957
-0.0109891,-0.0328975
-0.0145141,-0.00667716
-0.0221518,0.00456446
-0.0270792,-0.0353277
-0.0185047,-0.0222153
0.00394471,0.0474802
0.0166853,0.0448994
0.0171286,-0.0114988
0.018475,-0.0297461
0.0221975,-0.00883463
0.00138351,-0.00178326
-0.0168121,-0.00841867
-0.00677,0.00646175
-0.00186209,0.0405456
0.0194875,0.0564598
0.0416792,0.02094
0.0384693,0.0106149
-0.00702034,0.0153594
-0.0465219,-0.0115274
-0.051829,-0.0346379
-0.0468322,-0.0380282
-0.0223714,-0.0130747
-0.00415456,0.0238512
-0.0546163,-0.0119341
-0.101059,-0.0329886
-0.00734276,-0.00250845
0.117345,0.00393581
0.155674,0.0256216
0.0965601,0.0153355
-0.0327318,-0.0169572
-0.0554319,-0.0177271
-0.0195599,-0.0119596
-0.0531188,-0.0151388
-0.101808,-0.00952527
-0.0463224,0.0066062
0.0455251,-0.0129219
0.0139675,-0.0191665
-0.00681956,0.000139296
0.0811875,0.0176864
0.156989,0.0262853
0.196263,0.0143156
0.134337,0.0193303
-0.0162783,0.00775337
-0.145398,-0.0120143
-0.136377,-0.00737245
-0.0657898,0.00456038
-0.0104231,0.0100682
-0.0248119,0.0195773
-0.063772,0.0238021
-0.105325,0.00230955
-0.0606034,-0.0098427
0.00332754,-0.00725202
-0.0195767,-0.00791902
-0.052211,-0.00100655
-0.0579065,-0.0127073
-0.0101101,-0.0371159
0.111567,-0.021989
0.187696,-0.00512287
0.113061,0.0141328
0.0271629,0.0247021
0.000340743,0.013135
-0.047665,-0.0192823
-0.0603899,-0.0208411
-0.0272816,0.015518
0.0354707,0.039872
0.101705,0.0327131
0.11538,-0.00740149
0.104928,-0.0213007
-0.000330965,-0.00570301
-0.177537,0.0035718
-0.252409,-0.0143484
-0.178563,-0.00737344
-0.0521361,0.0139451
0.0566799,0.00260556
0.0874301,-0.0201187
0.0353713,-0.0347609
-0.029925,-0.045036
-0.0984116,-0.0234123
-0.108151,0.0252011
-0.0450097,0.0356695
0.0740955,0.00416171
0.176048,0.012268
0.228409,0.0380602
0.189269,0.0193596
0.119134,-0.0188487
0.0184191,-0.0226394
-0.0729352,-0.0285077
-0.0502913,-0.0349014
-0.0354502,0.00447478
-0.0442248,0.0335058
-0.0538577,0.0149238
-0.0436316,0.00844469
-0.0382836,0.00841841
-0.0574753,0.00955553
-0.0517323,0.0228978
0.0181435,0.00516553
0.0722223,-0.00443202
0.0864524,0.0181251
0.067564,-0.000694247
-0.0123295,-0.0289119
-0.0727671,-0.00958651
-0.102518,-0.00119039
-0.110957,-0.00876804
-0.0587725,-0.0316188
0.0233594,-0.0191247
0.0787618,0.0171678
0.0776644,0.0218771
0.0253627,0.0210931
-0.00337554,0.0185334
-0.00980778,0.0011109
-0.0764972,-0.0120573
-0.0864602,-0.0321254
-0.00434803,-0.0280359
0.0406014,-0.00901849
0.0372044,0.00925473
0.073843,0.0366428
0.1228,0.0316147
0.0386131,0.00853962
-0.116047,-0.00149567
-0.184171,0.00798119
-0.142069,0.0160961
-0.0502947,0.0132058
0.0747285,0.012409
0.112263,0.0097341
0.0439103,-0.00275094
0.0494366,-0.0338027
0.0810543,-0.0429023
0.0737221,-0.000432936
0.0808142,0.0291176
0.0740574,-0.00378131
0.0285635,-0.0412333
-0.0146076,-0.00307756
-0.0352878,0.0116507
-0.083024,-0.0303802
-0.143217,-0.0569984
-0.169636,0.0200618
-0.0778402,0.0846007
0.0115607,0.0303731
0.0599848,-0.0162065
0.0727677,-0.000692601
0.0440498,-0.0257077
0.159875,-0.0528679
0.280236,-0.0155625
0.206681,0.0561068
0.0221338,0.046555
-0.123074,0.00456167
-0.253798,-0.0438345
-0.305622,-0.0105956
-0.328783,0.0179781
-0.322414,0.0152881
-0.16944,-0.00893607
-0.0705878,0.0252425
-0.00219426,0.0338202
0.21241,-0.0331097
0.441472,-0.0566343
0.448639,-0.0296413
0.25177,-0.00961553
0.0705302,-0.0149234
-0.00548646,0.00540844
-0.0229827,-0.0245024
-0.0866592,-0.0332345
-0.125793,0.00702446
-0.0509704,0.0234248
-0.0186953,0.0196617
0.0297784,0.0149125
0.0671869,0.027377
0.00592958,0.048416
0.0100882,-0.00826934
0.0596503,0.00122456
0.0117506,0.078764
-0.0572524,0.0566594
-0.100926,-0.00752384
-0.163463,-0.0557504
-0.190411,-0.0593246
-0.134357,-0.0570071
-0.0486361,-0.0384398
0.029951,-0.004948
0.0723848,-0.00572817
0.0727224,-0.00851666
0.0648593,0.0140013
0.0531126,0.0312988
0.0569022,0.0515782
0.0394858,0.0587632
0.0528909,0.0406815
0.066515,0.0218018
0.0627002,-0.0651414
-0.00343017,-0.0461818
-0.0732155,-0.0362478
-0.0382824,-0.0478478
-0.082507,-0.0134923
-0.176049,0.0423151
-0.123851,0.074378
0.00921558,0.0170878
0.0679988,0.0316385
0.0578542,-0.0195112
0.0366615,-0.0701203
0.10318,-0.00733854
0.136713,-0.00196454
0.0628451,-0.0320263
0.0364502,-0.00307784
0.0992036,0.0404469
0.0168859,0.0355399
-0.0566187,-0.0462117
-0.0156146,0.0258376
-0.0898879,0.0942818
-0.192631,-0.0143784
-0.193408,-0.116277
-0.200205,-0.0280574
-0.0396352,0.0848958
-0.078288,-0.0242542
-0.0166278,-0.0273007
0.0378984,-0.0164913
0.0344358,-0.00475326
0.059657,-0.00310519
0.0241187,-0.00183702
-0.00287218,0.0666997
0.0481596,-0.000969409
0.116003,-0.0919897
0.159526,-0.022265
0.113675,0.0245239
0.0925162,0.0558042
0.195706,0.0906215
0.256098,0.0460057
0.147034,-0.00880081
0.027054,0.0272732
-0.0596121,0.0266743
-0.105733,-0.0520259
-0.162572,-0.0657537
-0.177238,-0.0244643
-0.122092,0.0156911
-0.0518565,-0.00821196
-0.0467449,-0.0450002
-0.0915814,-0.0188234
-0.142702,-0.0370052
-0.0897762,-0.0415883
0.00781129,-0.0147101
0.0435407,-0.00580853
0.101829,-0.0134235
0.0942415,0.0209637
-0.00135674,0.0757159
-0.0865327,0.101956
-0.190287,0.0664097
-0.268193,-0.0866064
-0.252597,-0.0983427
-0.0316192,0.0467923
0.299122,0.0965229
0.476117,0.0266401
0.326179,-0.0563283
0.0270198,-0.108875
-0.0654528,-0.0478229
-0.0287387,0.0681577
-0.0359662,0.0555629
-0.0486319,0.0702358
-0.0296402,0.0644172
0.0274448,-0.00618176
0.0515345,-0.00345222
0.0738156,0.0345822
0.189283,0.0255615
0.263591,-0.0794422
0.139434,-0.124725
-0.112887,-0.0718434
-0.338087,-0.0339932
-0.367249,-0.00723891
-0.254604,0.0222701
-0.030544,0.0484518
0.0677468,0.0136282
0.0342369,0.0407906
0.0156574,0.00378883
-0.0895389,-0.14711
-0.195256,-0.0770365
-0.135598,0.0538901
-0.0335621,0.0915416
0.0305639,0.00289759
0.138704,0.0439053
0.268477,0.0632665
0.285704,-0.0227905
0.166092,-0.00648072
0.01931,0.0235891
-0.0569574,-0.0761437
-0.0308229,-0.0689794
0.0639974,0.0620806
0.0686859,0.0962592
0.015611,0.0527715
-0.0428349,0.056318
-0.113546,0.0240681
-0.0952752,-0.0779961
-0.066673,-0.0540351
-0.029493,-0.0426476
-0.0215174,-0.0248324
-0.038545,-0.0322049
0.0107474,-0.00516827
0.0388106,0.00822951
0.0185674,-0.0113136
0.0161661,-0.0245946
0.0461008,-0.0339757
0.138357,0.0179303
0.166491,0.0594939
0.0454492,0.058232
-0.0960666,0.0814571
-0.117134,0.0168543
-0.111783,-0.0418686
-0.098504,-0.00419885
-0.0866819,-0.0400948
-0.0758382,-0.0460959
-0.00981334,0.0304745
0.0672094,0.0139862
0.0859896,-0.0566133
0.0303892,-0.0301955
0.00644696,0.0583061
0.0175305,0.14442
-0.0103617,-0.0170297
-0.0369669,-0.114613
-0.0857911,-0.0506507
-0.110235,-0.00384223
-0.0436114,0.0151248
0.014199,0.0122296
0.0215928,-0.0409849
-0.0521946,-0.0319243
-0.0596513,-0.00662315
0.00247844,0.0134665
0.118147,0.0941871
0.193856,0.0690069
0.162723,-0.0511457
0.0474672,-0.0112035
-0.0605516,0.0594913
-0.108753,0.0674732
-0.0417793,-0.0228542
-0.102361,-0.0956912
-0.168467,-0.0272185
-0.141606,0.0180371
0.0456021,-0.0309228
0.272139,-0.110211
0.336352,-0.132339
0.160613,0.00267322
-0.0619088,0.126769
-0.102172,0.130824
-0.0217789,0.0258343
-0.0118702,-0.0145981
-0.00910395,0.00947271
-0.0219428,0.0310908
-0.0107263,0.0215545
-0.0797904,-0.00565604
-0.120826,-0.0533263
0.0207563,-0.0838775
0.0559887,0.0664753
-0.0877963,0.0796521
-0.125631,-0.0656673
-0.000428591,-0.00317901
0.0697606,0.0497364
0.14332,0.136444
0.104777,-0.0580557
0.00298179,-0.112399
0.0566115,-0.0737166
0.0995125,-0.0416866
0.0305743,0.0424418
0.0505339,0.0472233
0.0790152,-0.00678846
-0.0832089,-0.0439937
-0.182963,-0.0521364
-0.16852,-0.0440247
-0.128537,0.0824058
-0.0900782,0.144731
-0.0493888,-0.0745695
0.0584529,-0.0567174
0.124042,0.0521309
0.0726053,0.0442168
0.0445422,-0.0104152
-0.0114001,-0.0618817
-0.109451,-0.00231223
-0.104642,0.0127196
0.0106913,-0.00252309
0.205351,-0.0140675
0.277486,-0.0152009
0.160818,-0.0142169
-0.0182719,-0.0163793
-0.204952,-0.0133745
-0.247205,0.00420256
-0.177376,0.00974495
-0.107637,-0.0191747
-0.0532738,0.0545657
-0.0714308,0.110206
-0.0267106,0.0656623
0.0829128,-0.0451237
0.0519173,-0.0803515
0.0538092,-0.0480259
0.134183,0.0651786
0.124759,0.1
0.108991,-0.0255573
0.0937295,-0.0367265
0.0744243,-0.0265333
0.0020496,0.00269827
-0.145665,-0.0574758
-0.155045,-0.0507978
-0.0838405,0.0363046
-0.0220381,0.0441339
-0.0641228,0.0259494
-0.0995508,0.0279549
-0.0282093,-0.0291741
0.0266485,-0.0567163
0.0357868,-0.0527017
0.110551,-0.000609849
0.103649,0.0235368
0.0244814,-0.00903163
0.0705715,0.0542268
0.0576904,0.0379117
0.0380184,-0.00832317
0.080361,0.0832488
0.0500856,-0.0233757
-0.0501597,-0.145743
-0.0146603,-0.0464057
-0.0157637,0.0598376
0.0478551,0.000440774
0.0787031,-0.0348566
0.00307687,0.0786654
-0.169697,0.0246752
-0.187594,-0.00174713
0.0251669,0.0533941
0.0328773,0.0089353
-0.0588655,-0.0346603
-0.0382807,-0.00477589
-0.00761451,0.0131226
0.0416743,0.00111607
0.037686,-0.0085812
-0.0299607,-0.0258798
0.0438401,-0.0364241
0.0908767,0.0440705
0.0326542,0.0811915
-0.0066167,-0.0511539
-0.0166123,-0.0879824
0.00251933,-0.0103003
0.0235174,0.0425281
0.002711,0.00549852
-0.0375084,-0.03348
-0.060156,-0.0342612
-0.0487303,-0.00938429
-0.0557663,0.0223394
-0.0707197,0.0518638
-0.0815173,0.00575191
-0.107648,-0.0133484
-0.072916,-0.0226084
-0.00641062,-0.0151885
0.0716613,-0.0279003
0.0156349,-0.0562401
-0.0411524,-0.0343801
-0.0240774,-0.00478733
-0.0473228,0.0346089
0.00232647,0.0868835
0.10218,0.0389701
0.19385,-0.000826988
0.273646,0.00684761
0.194219,0.0827775
0.0768872,0.0900009
0.0783369,-0.0746162
-0.0386786,-0.078434
-0.186589,-0.0355544
-0.151651,-0.0146185
-0.0631277,-0.0155521
0.00876107,-0.0229735
-0.00524988,-0.0227337
-0.0517763,-0.00461599
-0.0537438,-0.00692815
-0.0311873,0.00102044
0.0427138,0.0056822
0.124178,0.0199938
0.117033,0.0614903
0.0172483,0.0506277
-0.0184812,-0.0250733
0.0128856,0.0668632
0.0491259,0.0494262
0.00916528,-0.0145979
-0.0606595,-0.0647123
-0.079805,-0.0957872
-0.0808856,0.0110587
-0.0743477,0.01519
-0.065802,0.0275974
-0.0976137,0.0672641
-0.136569,0.0426962
-0.161872,0.0360022
-0.121612,-0.0532436
0.0125821,-0.154018
0.144416,-0.117546
0.143775,0.00144019
0.0963878,0.104134
0.186808,0.035887
0.220277,0.0605221
0.0842747,0.0720158
-0.114194,0.0322865
-0.189783,0.00826479
-0.0831563,-0.0366057
0.120934,-0.0509603
0.206928,-0.0434874
0.210494,-0.0269959
0.104299,-0.0723354
0.0178765,-0.0751596
-0.105292,-0.0193515
-0.267375,0.0243267
-0.223542,-0.00414748
-0.164297,0.0124916
-0.104942,0.0873824
0.0344751,0.0893792
0.140989,0.0391723
0.0870329,-0.00674553
0.0230121,-0.0213373
0.0106902,0.0403241
0.00927786,0.0541673
-0.0576244,-0.00793914
-0.0811508,0.00828808
-0.0758538,0.00873393
-0.0145806,-0.00149064
0.0375085,-0.0524607
0.00490299,-0.0765241
-0.0364171,-0.0340555
0.00617319,-0.0160754
0.12815,-0.0439286
0.144247,-0.0236738
0.0969876,0.00557722
-0.00981567,0.017857
-0.06684,0.0243424
0.0475647,0.0441084
0.121107,0.0801216
0.0680483,-0.0393691
-0.0378377,-0.0963472
-0.0560504,-0.0192917
-0.0687641,0.0464708
-0.0936718,0.0329847
-0.109822,-0.0268955
-0.0994123,-0.0510385
-0.0589596,-0.0537801
-0.0152056,0.0243701
0.0247682,0.123896
0.100106,0.043589
0.120188,-0.0387528
0.0417042,-0.0241476
-0.027704,0.067884
-0.0677291,-0.00677128
-0.0547658,-0.0347955
-0.00315509,-0.0248495
0.0616773,-0.0243451
0.136254,-0.0208213
0.118208,-0.0141145
0.0142556,-0.0234285
-0.045057,-0.0480726
-0.0832747,0.0325641
-0.118076,0.185194
-0.13983,0.106195
-0.101705,-0.053971
-0.0661397,-0.0755762
0.000265587,-0.0545567
0.0963489,-0.0306928
0.107262,-0.000674346
0.0292033,0.0291976
-0.0178948,0.0150697
0.00331323,-0.0547382
0.0476642,-0.0567803
0.0467236,0.0627865
-0.0370338,0.0416216
-0.167638,0.0122785
-0.1264,0.0793117
-0.0419718,-0.000915228
0.00370984,-0.0411943
0.116668,-0.00378916
0.21113,-0.0390757
0.201774,-0.0287863
0.120777,0.0132138
0.0664128,0.00636553
0.0373491,-0.00818072
0.0339089,0.00988881
0.00399282,0.00948027
-0.0102954,0.000154371
-0.0228404,-0.0129086
-0.123536,-0.0502437
-0.164898,-0.0346469
-0.120796,0.0167026
-0.0461653,0.0112894
-0.0242432,0.0255021
0.0274248,0.0283772
0.0599978,0.0299053
0.00123253,0.0119426
0.0353691,-0.0210338
0.0848839,0.0106585
0.0254195,0.0164766
-0.0863684,-0.0809501
-0.154167,-0.0256179
-0.132768,0.00646411
-0.158389,-0.0218512
-0.0671184,-0.0213529
0.156486,0.0614427
0.366751,0.0726468
0.281141,0.0695815
0.00596348,0.0285993
-0.0879743,-0.0526121
-0.0844157,-0.0470617
-0.0786764,-0.0613559
-0.0626195,-0.0374516
-0.050617,0.0342955
0.00670025,-0.00748557
0.0509599,-0.0331408
0.0480993,-0.0263146
-0.0437306,0.00596639
-0.0514291,0.0253241
0.0408446,0.0485902
0.114711,0.0081936
0.0505524,0.0577761
-0.120391,0.0836971
-0.176802,-0.0267863
-0.0909597,-0.0370997
0.0372511,-0.0403826
0.10515,-0.0342456
0.1078,-0.00827749
0.0578422,0.0174187
0.0387773,-0.00417383
0.0240901,-0.0100752
-0.0672239,0.0147627
-0.170445,0.0094605
-0.172653,0.00125357
-0.110978,-0.0185969
-0.0315427,-0.0188061
0.0468883,0.01857
0.0960338,0.0189145
0.0317788,-0.0491359
-0.0324723,-0.0516431
-0.0858744,0.00462299
-0.0766404,0.0260637
0.0256136,0.00215035
0.182376,-0.00632807
0.219286,-0.000426865
0.166826,-0.0370421
0.0542658,-0.0547862
-0.0347319,0.0153635
-0.0372629,0.10747
-0.103057,0.103007
-0.176836,0.0160483
-0.166807,-0.0155058
-0.0445375,0.0307281
0.160422,0.049207
0.18337,-0.0401156
0.156155,-0.0223512
0.0695163,-0.0280258
-0.0517828,0.0553588
-0.0477513,0.0943221
-0.0544074,-0.0820282
-0.0243214,-0.11705
-0.0145336,-0.0356287
-0.120632,-0.0339501
-0.119538,-0.0371162
0.0170711,-0.0218355
0.185799,-0.0150216
0.218931,0.0343196
0.0591051,0.024298
-0.0573741,0.00652112
-0.0886385,-0.0126187
-0.124962,-0.0142129
-0.132327,0.00509733
-0.0631041,-0.0013358
-0.0594177,0.00659846
-0.0789687,0.0367485
-0.0128914,0.0312536
0.0190305,-0.00563929
0.0466796,0.0123534
0.0699599,-0.0240567
0.113358,-0.040295
0.110123,-0.0272911
0.0115515,0.0286175
-0.0238334,0.0778352
0.078975,0.0956974
0.103152,0.0169313
0.0312933,-0.102851
0.0548149,-0.0586258
0.0396097,-0.0181367
-0.121648,0.0155143
-0.190995,0.0743836
-0.128102,0.0941475
-0.00446418,0.0237267
0.0720087,-0.0940587
0.0213362,-0.0388001
-0.088397,0.0486783
-0.0920212,0.0429986
-0.0226006,0.0130347
0.0767065,-0.0259562
0.0663874,-0.0336006
0.056847,-0.0851796
0.13673,-0.0631969
0.129228,-0.0234886
0.0348703,0.0211135
-0.05285,0.0286131
-0.113733,-0.00521489
-0.128816,-0.0409851
-0.142027,0.0491618
-0.189338,0.0452579
-0.176326,-0.0377678
-0.0521748,0.0192361
0.119635,0.0792682
0.228104,-0.00616617
0.18228,-0.0459322
0.0968837,0.0161764
0.0454256,-0.006764
-0.00356688,-0.0239706
-0.000340107,-0.0100415
0.0223459,0.00391164
0.0203611,-0.00323971
0.0474943,-0.0166917
0.0295345,0.0387967
-0.0748296,0.0514781
-0.0946536,-0.0324377
-0.0594541,-0.0107815
-0.0431181,0.0885558
-0.0394231,0.00740476
2.17e-06,-0.0820596
0.0676724,-0.0325403
0.0662464,-0.0459545
-0.0380776,-0.0470604
-0.143056,-0.00192998
-0.182941,0.016409
-0.0520973,-0.0191436
0.119096,0.0277531
0.163626,0.0351084
0.111928,0.00544677
0.0375428,0.0164704
0.00130459,0.0400737
-0.0511632,0.0214059
-0.0814419,-0.00934992
-0.0311101,0.001041
-0.00317142,0.0527876
0.0644459,0.0658628
0.0604984,0.0113304
0.0359909,-0.0365603
0.0216591,-0.0564839
-0.0305212,-0.0607061
-0.0829978,-0.026379
-0.038114,0.00579365
0.0723521,0.0206284
0.0923989,0.0204745
0.0797803,-0.00387611
0.0557154,-0.0202656
-0.00548983,-0.034479
-0.0462918,-0.0484397
-0.111888,-0.0248236
-0.135439,0.0165054
-0.0418524,-0.0260062
0.0448575,-0.0264406
0.0507464,-0.00515577
0.00815115,0.0320344
-0.0216753,0.0274568
0.0150455,0.00465656
0.062206,0.0248481
0.0501281,0.0553773
-0.0437843,0.163812
-0.138931,0.155418
-0.117173,-0.00395388
-0.0239018,-0.0864769
0.100063,-0.0922858
0.135405,-0.0587556
0.0804119,-0.0662113
0.000356639,-0.0717274
-0.0687882,-0.0312236
-0.0572355,0.00583607
-0.0294681,0.00722225
0.00483806,0.00454125
0.0345723,0.00355195
0.0493803,-0.00300026
0.0902362,-0.00114087
0.058948,0.029968
-0.0875966,0.0677097
-0.199887,0.0528647
-0.171623,-0.0422258
-0.0831384,-0.0343769
-0.0585251,0.0241901
-0.0195188,-0.0152583
0.11472,-0.0194514
0.20351,-0.037092
0.158554,-0.0375261
0.0906336,0.00570654
0.0522966,0.0449852
0.0521203,0.0434092
0.0429057,0.0253432
0.00114191,0.0331765
-0.0372765,0.00134077
-0.0276116,-0.00285916
0.0124469,0.00979851
0.0632362,-0.0157978
0.0208631,-0.0194041
-0.0821986,0.001042
-0.115179,-0.025279
-0.0571704,-0.0317476
-0.0643396,-0.017053
-0.0904972,-0.0152083
-0.0537591,-0.0340097
0.0156264,-0.0282129
0.0321158,-0.00785728
0.0429175,-0.0266689
0.0408099,0.00403442
0.040809,0.123355
0.0698151,0.133497
0.0483111,0.0323946
-0.0154387,-0.0141193
-0.0595145,-0.0463244
-0.0212569,-0.0264595
0.0348746,-0.00728847
0.0135067,-0.00688711
-0.0366378,-0.00437478
-0.138872,0.011189
-0.138056,-0.0119351
-0.122063,-0.0446243
-0.0838233,-0.0475653
0.00154428,-0.0823143
0.107441,-0.0558454
0.116615,0.0548427
0.0803476,0.0843312
0.0890601,0.0219897
0.0513815,-0.00549271
-0.0251571,0.102531
-0.014171,0.0511223
0.0595679,-0.0668204
0.0574195,0.00504372
0.0479631,0.0139043
0.0115647,-0.0159054
-0.0438,0.0851645
-0.0419443,0.00521102
0.0187217,-0.11858
0.0670779,-0.0631025
0.0231477,0.00352879
0.00569712,0.0108094
0.00225508,0.0148242
-0.0385675,0.018127
-0.0643262,-0.00274938
-0.0787912,-0.0130651
-0.0643173,0.00134213
-0.0292405,-0.0152132
-0.0265515,-0.0118904
-0.0511224,0.0157865
-0.0478436,0.0235456
-0.0148656,-0.0335357
0.0235775,-0.0476795
0.0618318,-0.00855244
0.0800129,0.024694
0.0275524,0.00677156
0.0134917,-0.0192911
0.0474723,0.00716863
0.0535807,0.0386466
0.0431719,0.0471631
0.0290053,0.0229536
0.00925164,-0.016565
-0.0232859,-0.0126005
-0.033128,0.0503206
-0.0186101,0.0452649
-0.00930452,-0.0165371
-0.00584263,-0.0358055
0.0167472,-0.0368184
0.0429813,-0.0323072
0.0333602,-0.0142053
-0.000922702,0.00361583
-0.0308609,0.00881527
-0.0593185,-0.0124732
-0.091677,-0.0428
-0.104591,-0.0372778
-0.104064,-0.000745819
-0.0947545,0.0384137
-0.0429205,0.00780901
0.0487291,-0.0015194
0.110748,0.0103481
0.117117,-0.0333381
0.084019,0.0383142
0.0382544,0.109326
0.00573871,-0.0234095
-0.0220037,-0.0482508
-0.00499122,-0.0170554
0.0150582,-0.0292971
0.000852577,-0.0172043
-0.0249069,0.0304329
-0.00698706,0.0489407
0.0205439,0.0550335
0.0175011,0.04945
0.0331061,-0.0657391
0.0269618,-0.0882441
0.0076668,0.00263805
-0.00822409,0.0768932
-0.0113288,0.0110516
-0.02097,-0.0361616
-0.0381346,-0.0119313
-0.0540638,0.00824158
-0.0438833,-0.0119969
0.00122521,-0.0281595
-0.00167514,0.00873701
0.0353183,0.0107503
0.0632895,-0.0112227
0.0529325,-0.00556783
-0.00785365,0.000309992
-0.0851925,0.0113734
-0.11705,0.0104704
-0.0838194,0.00709871
0.000223837,0.0142313
0.0552252,0.0567223
0.0838834,0.0585674
0.124422,-0.0146482
0.100708,-0.0820123
0.0467623,-0.0833016
0.0191449,-0.00659232
0.0201028,-0.00560759
0.0205457,0.00872616
0.0228998,0.05433
0.00978685,0.0242677
-0.0234221,-0.0113658
-0.0566534,-0.00907951
-0.123884,-0.00596016
-0.224908,0.0134971
-0.221779,0.0230765
-0.0973855,-0.0109071
-0.0254741,-0.0430434
-0.0273243,-0.0335484
0.0437565,0.0234674
0.15839,0.0424827
0.20921,-0.0245293
0.180291,-0.0297485
0.0769199,-0.0239128
0.0332688,-0.0328827
0.0738298,-0.0117086
0.0357943,0.0397263
-0.0482141,0.0571552
-0.0650198,0.097658
-0.0630626,0.158399
-0.0919006,0.128119
-0.0523508,-0.150488
0.00927404,-0.140258
0.0653877,-0.0349124
0.0628792,-0.0492532
0.00694529,-0.0427431
-0.0047497,-0.0127055
-0.00825763,-0.00448575
-0.00691419,-0.0175012
-0.0376749,0.00724106
-0.0101819,0.00487592
0.0655454,-0.015474
0.0753032,-3.92e-05
0.026857,0.0445603
-0.024521,0.0266725
-0.0829251,-0.0257197
-0.144656,-0.0501968
-0.191341,1.46e-05
-0.147233,0.0590095
-0.00307928,0.0074087
0.055738,-0.0360538
0.0514447,0.0105254
0.0739401,0.106677
0.0898284,0.0439027
0.0143152,-0.0304701
0.00378357,-0.0410806
0.039275,-0.028874
0.00671091,-0.0435967
-0.00597462,-0.0375313
-0.0113508,0.000514625
0.0301887,0.0292646
0.00334881,0.0311515
0.00339826,0.000637512
0.063698,-0.00594446
0.0484087,0.0112488
0.0674544,0.00118643
0.08005,0.030456
0.00870268,0.0106303
-0.0374969,-0.0252309
-0.019291,-0.0208203
-0.0172675,-0.0224734
-0.0454667,-0.0204159
-0.0639669,-0.011066
-0.0675947,0.0169128
-0.0699382,0.0438769
-0.0471341,0.0174218
0.0351435,-0.0195376
0.0738228,-0.00415075
0.0562598,-0.0206061
0.00852784,-0.0390922
-0.0811131,0.000975346
-0.124787,0.0690187
-0.0808915,0.0665757
-0.0174593,0.0299187
0.0619178,-0.000180356
0.0936467,-0.0314133
0.0813935,-0.0168243
0.00282192,-0.00487964
-0.0513894,-0.00664044
-0.0591565,0.00334059
-0.00867298,0.0267427
0.0832166,-0.019003
0.0731005,-0.0318783
-0.00894157,-0.00170256
-0.0418472,-0.0193951
0.0199805,-0.0241799
0.0766609,-0.0122119
0.0816283,-0.0231874
0.0512028,-0.0035059
-0.0144844,0.0352812
-0.0683176,0.0679511
-0.0904532,0.0417979
-0.0663213,-0.0675268
-0.0664888,-0.0342487
-0.0145899,-0.00614152
0.0193492,0.0191916
0.00593135,0.0936209
-0.011113,0.0657849
0.0231464,-0.0128602
0.0804393,-0.034857
0.107334,-0.0412088
0.0972324,-0.0621298
-0.0129323,-0.0539214
-0.0324146,-0.0326495
-0.00271229,-0.0140029
-0.00930811,0.00817376
0.00322018,0.0225479
0.033571,0.0134964
0.0269447,0.0162299
-0.0193874,0.0126533
-0.0752893,0.0241898
-0.117782,0.00474386
-0.15496,-0.0306288
-0.108431,-0.024403
0.00965693,0.0102052
0.0729084,0.0102133
0.0544331,0.0166981
0.0157962,0.00158537
0.00377953,-0.0379643
0.00933947,-0.00204097
0.0480098,0.0244509
0.0320334,0.0332813
0.0205062,0.0517108
0.00937217,0.0579044
0.0456341,0.0414539
0.0470929,-0.0593675
-0.0941567,-0.06691
-0.127293,-0.0152026
0.00762736,0.0529915
0.0831855,0.0552586
0.0755444,-0.0306922
0.0767742,-0.0424696
0.106423,-0.012993
0.0643409,-0.00283251
-0.0918008,0.0155024
-0.1986,0.0389327
-0.166803,-0.0141792
-0.114463,-0.00858499
-0.0724197,0.00635013
-0.00846633,-0.0541451
-4.46e-06,-0.100048
0.00675745,-0.0279017
0.0750588,-0.0138399
0.0861826,-0.0190207
0.0299831,0.0216673
0.0517293,0.0306369
0.0507937,0.0267591
0.0341866,0.0123633
0.0528214,0.0442459
0.0832214,0.0435657
0.0862949,0.00143834
0.0120403,-0.00446506
-0.0140901,0.00518916
-0.0029994,-0.0155398
-0.0184641,-0.0302527
0.00170685,-0.00458862
0.040947,0.030807
0.0373253,-0.00180037
0.00136908,0.00557986
-0.0393075,0.017821
-0.0978558,-0.00725613
-0.119576,-0.0235472
-0.0739944,-0.0235842
-0.0824649,-0.00145111
-0.0696666,0.0287575
0.0319468,0.0269998
0.108169,0.000399399
0.122945,-0.0409137
0.0481996,-0.0272587
-0.0240375,-0.0242742
-0.0185802,-0.0282391
0.0059246,-0.0113072
0.0154091,0.0286294
0.0116787,0.0707203
0.0515056,0.0600212
0.0797991,0.0233062
0.0229199,-0.0105056
-0.0177091,-0.0391767
-0.0393303,-0.00983608
-0.105827,-0.00307856
-0.139726,0.00835463
-0.105336,0.0198888
-0.079979,0.0436739
-0.045118,-0.0169465
0.045886,-0.0970468
0.0456279,-0.00422975
0.0465147,0.0200252
0.027043,-0.0398224
-0.00805276,-0.0270292
0.0752155,0.00193723
0.149469,0.00649343
0.148396,-0.00346363
0.108124,-0.0191929
0.0219046,0.0048846
-0.102473,0.0293896
-0.140958,0.0237392
-0.107185,0.0162439
-0.0636709,0.0687433
0.0174413,0.0654608
0.0743858,-0.0336095
0.0753615,-0.0362523
0.0410861,-0.0394991
-0.0563499,-0.0498161
-0.105669,-0.00881518
-0.13382,0.0147318
-0.158058,0.035943
-0.0826197,0.0182272
-0.0717727,-0.0133438
-0.0648496,-0.0190328
0.0716332,-0.003007
0.135284,-0.00872077
0.12803,-0.0164795
0.04092,0.0591868
0.0242898,0.0350166
0.0360098,-0.0286421
0.0443288,-0.00379758
0.0698926,-0.0075985
0.0938074,-0.00857923
0.031656,-0.00969548
-0.0134276,-0.0173832
-0.0266724,-0.00469689
0.0148379,0.016344
0.0896607,-0.00404489
0.0625032,-0.000716638
-0.0139836,-0.00957778
-0.0595034,-0.0337643
-0.0894834,-0.0181282
-0.0560991,-0.00582278
0.0325119,0.0158641
0.0801547,0.0394298
0.0113688,-0.000561012
-0.0349536,-0.0304165
-0.0341229,0.0105335
-0.0365084,0.0386491
-0.00945792,0.0420662
-0.0464569,-0.00262164
-0.109332,-0.00492167
-0.0789737,0.0364499
-0.0162206,0.0603111
-0.0156467,0.0320447
-0.00396038,-0.040801
0.0822949,-0.0659092
0.0925637,0.0150537
-0.0361091,0.0455352
-0.162646,-0.0149541
-0.113689,-0.0187261
0.016351,-0.0281391
0.0809248,-0.0199135
0.158424,-0.0495916
0.185825,-0.0466939
0.0723476,0.0129363
0.0304141,0.0222944
0.0351798,0.017907
-0.0191567,-0.0167016
-0.030813,-0.0173201
-0.00796002,0.000235871
-0.0374894,-0.00982131
-0.0768764,-0.0376187
-0.0764888,-0.02065
-0.0257579,0.0051297
4.58e-05,0.00561644
0.0556898,0.0170645
0.036439,0.0304366
-0.0533743,0.0315016
-0.0913321,0.0454022
-0.110648,0.0317983
-0.0973627,-0.0191763
0.0003468,-0.0152462
0.0814908,0.0556085
0.0594203,-0.00603857
-0.0198508,-0.0595497
-0.0176649,-0.0332425
0.0981455,-0.0257288
0.198758,0.0330514
0.194691,0.0563845
0.121856,0.0313189
0.0114937,-0.00171579
-0.133751,0.0134967
-0.167552,0.00889608
-0.115589,-0.0165586
-0.0588234,-0.0265017
-0.0578949,-0.0437339
-0.0537202,-0.0364225
-0.0452098,-0.0188448
-0.0170184,-0.0360136
0.0272175,-0.0165856
0.0743661,0.0209594
0.0989065,0.0402346
0.0928815,0.0554386
0.0888404,-0.00667506
0.0705944,0.00823638
0.0192721,0.0521972
-0.014862,0.0525361
-0.0457293,-0.0358421
-0.0986499,-0.0562424
-0.141313,-0.0357861
-0.101566,-0.046875
-0.0265087,-0.023564
0.0426158,0.0278486
0.0248543,0.0238582
-0.0519771,-0.0150406
-0.0433544,-0.0143911
0.0138501,-0.0144222
0.0296652,0.0223415
0.0811475,0.0538302
0.0889768,-0.0314864
0.0490714,0.00919555
0.0502867,0.0762176
0.0382069,0.0610623
-0.0236544,-0.0254414
-0.0336412,-0.0547174
-0.0257113,-0.0415117
-0.0196773,-0.0289147
-0.0683395,-0.0252438
-0.112229,0.00407828
-0.0911758,0.0130172
-0.0528644,0.0431882
0.006398,-0.00792831
0.048923,-0.0349217
0.074443,0.0498354
0.120891,0.108652
0.101768,-0.00786668
0.0413962,-0.0125568
0.0398075,0.00302666
0.10708,-0.0634636
0.108338,-0.0642058
0.00356889,-0.017828
-0.163606,-0.0200489
-0.238002,-0.0289136
-0.185404,5.15e-05
-0.115587,0.0314802
-0.0653321,0.0208063
-0.00411603,0.0115311
0.0217317,0.0363696
0.0391296,-0.00783691
0.105335,-0.0425751
0.151468,-0.0271389
0.1129,0.0122445
0.0934292,0.0200724
0.09024,0.0423685
0.0955335,0.0320995
0.075854,0.00563246
-0.0387645,-0.00252583
-0.0815797,-0.0116692
-0.0724585,-0.0158921
-0.0536188,-0.0139207
-0.000350653,-0.0171363
0.0607987,0.00804467
0.0641455,0.0228129
0.0236047,0.00330737
0.0231531,-0.0329543
-0.043363,-0.0138274
-0.184613,-0.00749659
-0.257606,-0.0146326
-0.22099,0.00345305
-0.125164,0.000489473
-0.0687967,0.0631692
0.0329034,0.0827986
0.129946,-0.0473294
0.186386,-0.0397173
0.180043,-0.0432588
0.122845,-0.0314975
0.0598612,0.0167029
0.00671195,0.0636371
0.00784277,0.0566225
-0.020194,-0.00599713
-0.0359233,0.00110227
-0.0146985,0.00699956
0.0289015,0.0248168
0.0157479,0.0196129
-0.0270752,-0.0679047
0.0166643,-0.0355197
0.01674,0.00627286
-0.061582,-0.00973323
-0.0630044,-0.00834829
0.00601446,0.000385072
0.0357429,-0.0101676
-0.00193031,-0.0158014
0.00273688,-0.0327263
0.000950518,-0.0215607
-0.0304068,0.013545
-0.0376689,0.0470726
0.00758732,0.0067593
-0.00756063,-0.0394249
-0.0401188,-0.0145261
-0.0714317,0.0252478
-0.0627861,-0.0161368
-0.00861225,-0.025295
0.0583587,-0.00702028
0.0441381,0.00711542
-0.0273355,0.0121426
-0.0485647,-0.00562909
-0.0121009,0.0145039
0.0347411,0.0485986
0.0759626,0.0456846
0.089839,0.0161696
0.0499258,0.0146462
0.00817849,-0.00986313
-0.00629504,-0.0171022
-0.0465227,0.00802366
-0.0175104,0.0425
0.0504592,-0.00310027
0.0457391,-0.0437225
-0.0627049,-0.0280376
-0.103243,-0.00621746
-0.0335834,0.0157278
0.0539991,0.0411001
0.100937,-0.0103944
0.116932,-0.033053
0.0782963,-0.0233393
-0.0148677,-0.0234222
-0.0843226,-0.0151358
-0.0858421,0.00535097
-0.0501521,0.019133
-0.0060796,0.0254838
0.0319486,0.00980425
0.00115525,-0.0230318
-0.0629409,0.0112542
-0.0156703,0.0221385
0.0131842,-0.0201563
-0.0206283,0.0422141
-0.0359211,-0.0161484
-0.0734765,-0.0148183
-0.040824,-0.0484189
0.0454878,-0.0163265
0.0266157,0.0226777
0.0140792,0.00589572
0.0732271,-0.0186168
0.0960295,-0.018362
0.0549052,0.00146136
-0.00234671,0.0166352
-0.0596203,0.0304317
-0.0652654,0.0169703
-0.0267529,0.00994363
0.0530056,0.024289
0.0615569,0.000506481
-0.00498183,-0.0461304
-0.00747631,-0.0221759
0.0597244,0.0126996
0.105336,0.00719825
0.0590774,0.00485796
-0.059222,-0.00223721
-0.161608,0.0226105
-0.122038,-0.014683
-0.0650268,-0.0449569
-0.0633859,0.00216496
-0.0444247,0.0341909
0.00159097,-0.0115054
0.0522557,-0.0329275
0.100203,-0.00933785
0.105751,0.00551321
0.071329,0.00930953
0.0592529,0.00787771
0.029479,-0.0202434
0.0299721,-0.00393841
0.0162783,0.0308825
-0.0514503,0.0262558
-0.0794094,0.0135388
-0.0528646,0.0363699
-0.013112,0.0016539
0.00545705,-0.033702
-0.0701798,-0.0135163
-0.0838194,0.0369353
-0.0307586,0.0587231
0.0072774,-0.0103255
0.0287531,-0.035236
0.088124,-0.0207784
0.0830929,-0.0354326
0.0450928,-0.0437195
-0.0268926,-0.0193014
-0.127067,-0.00127377
-0.0942486,0.0270165
0.0278265,0.0263976
0.0700039,-0.0111579
-0.0112878,-0.0296442
-0.161558,0.00754534
-0.150343,0.0212345
-0.00212477,-0.0242293
0.0787851,0.0221285
0.149032,0.039611
0.166343,-0.017661
0.131717,-0.0796142
0.148666,-0.0181299
0.10097,0.0589035
0.0214557,0.0149444
-0.0809959,-0.00458036
-0.195493,0.00457455
-0.311226,0.0742499
-0.272201,0.088836
-0.152983,0.00642593
-0.0422602,-0.0173395
0.144502,0.0493653
0.324923,-0.0380091
0.342451,-0.123228
0.175116,-0.0792471
0.00934933,-0.00929921
-0.0727835,0.0492431
-0.0681809,0.0187797
-0.0348592,-0.00672198
-0.040324,-0.00701089
-0.0343993,-0.00878045
-0.0298642,-0.0131494
0.0138375,-0.0131835
0.0356237,0.0139842
-0.0208367,0.0217991
-0.0867614,0.0341195
-0.0592176,0.0177158
-0.00493428,-0.021068
0.0189988,-0.015968
0.0157742,-0.00943942
-0.0474695,-0.00383536
-0.115115,-0.0265431
-0.114876,-0.0236167
-0.0547329,0.01353
0.0320502,0.0434878
0.120016,0.0418476
0.161964,-0.0278535
0.0984675,-0.0278743
0.059747,-0.0285748
0.0609262,-0.0246079
0.05417,-0.00821078
0.0285516,0.0285091
-0.0349322,0.042241
-0.0970473,0.0123038
-0.0899811,-0.0332398
-0.0558902,-0.00360521
-0.00731703,0.0477741
0.00622537,0.0288171
0.00278911,-0.0126515
-0.0236229,0.0513611
-0.0794154,0.0620434
-0.0532989,-0.010335
-0.0526618,-5.33e-05
-0.0339844,-0.0193595
0.0331427,-0.0464079
0.0433153,-0.0580468
0.0334767,-0.0635679
0.0792884,-0.0315143
0.106311,-0.0134187
0.08156,0.0169582
0.0290213,0.0822697
0.00609214,0.0103616
-0.00170055,-0.0635349
-0.040753,-0.0563048
-0.0220905,-0.0319113
-0.0151734,0.0397995
-0.0500432,0.0928041
-0.0547073,0.0666715
-0.0372094,-0.0153836
-0.0396926,-0.0505057
-0.0515695,0.00457161
-0.0738578,0.0401981
-0.0202679,0.0185602
0.0305596,0.00126768
0.0309392,0.0250836
0.0591876,0.0664332
0.0816171,-0.0112922
0.0542941,-0.0972474
-0.0112002,-0.0898989
-0.042742,-0.0142432
-0.049656,0.0978808
0.0343779,0.0262027
0.0349424,-0.0335694
-0.0421842,-0.0198294
-0.0363244,-0.0338282
0.000694314,-0.00339089
0.0664707,0.0383356
0.104491,0.0515838
0.0869076,0.0149996
0.0135869,0.0163089
-0.0249551,-0.0198241
-0.051687,-0.0681996
-0.127847,-0.0505808
-0.152734,-0.0216759
-0.0289202,0.0110494
0.0998193,0.00263228
0.122901,0.0301432
0.0731102,0.0506336
0.014642,-0.0220898
-0.00108568,-0.0658047
0.0134574,-0.0484705
-0.0315251,0.0196387
-0.0709555,0.117871
-0.0135131,0.0986648
0.0258316,-0.00544444
0.0347366,-0.111743
0.0339704,-0.0799845
0.0289278,-0.0199189
0.036859,0.0126415
0.0158749,0.0216033
-0.0207766,0.00619037
-0.0533957,0.0068589
-0.0342313,-0.00206984
-0.0853338,-0.00572588
-0.19501,0.0193767
-0.173944,-0.0131354
-0.0465931,0.116847
0.0462328,0.141655
0.129281,-0.0813113
0.157937,-0.0580118
0.122432,-0.0348878
0.0634832,-0.054684
0.0308931,-0.0192542
0.0112533,0.0195569
0.0256259,0.0328899
0.0359108,0.0132059
-0.00133215,0.00643006
-0.0300431,-0.00721568
-0.0379664,0.0323514
-0.025039,0.0265864
0.00993664,-0.0194239
-0.00779974,-0.034758
-0.0725746,-0.0432165
-0.0765638,-0.0257929
-0.0471373,0.00787245
-0.0669434,0.0107307
-0.120725,-0.00137533
-0.162572,-0.00615378
-0.105475,0.00874575
0.0012821,0.024313
0.105654,0.0331609
0.134626,0.0245939
0.169594,-0.0540283
0.221483,-0.0860179
0.185257,-0.0509716
0.0635021,0.0150267
-0.0613857,0.0596373
-0.144757,0.118962
-0.101293,0.0485085
-0.0158601,0.0474447
0.0587101,0.0189889
0.0831632,-0.0921836
-0.0418363,-0.096761
-0.11076,-0.0196736
-0.102758,0.0313584
-0.0931157,0.0221226
-0.0139368,-0.00871894
0.108943,-0.0107747
0.188675,-0.0205029
0.17745,-0.0537887
0.117247,-0.039741
0.0436446,0.0195037
-0.0328677,0.0120398
-0.0649129,-0.0231012
-0.0540685,-0.0170362
-0.0571782,0.0160652
-0.0877681,0.038044
-0.131603,0.025379
-0.125151,0.0449348
-0.0590144,0.00712802
-0.0389817,-0.0634483
-0.055959,-0.0405518
-0.00979889,0.0136592
0.00305161,0.0970539
0.029444,0.0286468
0.025118,-0.023194
0.0659478,0.0216849
0.0620068,0.0603259
0.038916,-0.024539
0.0359468,-0.0329517
0.0512902,0.0277547
0.059581,0.0388558
0.035105,-0.0210048
0.033045,-0.03564
0.0606415,-0.000936176
0.0599565,-0.00803648
0.0464156,-0.0335902
0.0661661,-0.0107248
-0.0107023,0.0104931
-0.194055,-0.0305864
-0.263762,-0.0161274
-0.183154,-0.0124938
-0.0895083,0.0321473
-0.0362413,0.0700559
0.0422434,0.0101931
0.0976416,-0.0202641
0.0880869,-0.036366
0.0350949,-0.0258013
-0.0028914,0.0236262
0.0176454,-0.0308031
0.0883099,-0.0608449
0.142866,-0.0273723
0.107275,-0.0186233
0.0392387,0.003007
-0.00618159,0.0426919
-0.0145595,-0.0196982
-0.0447722,-0.0396399
-0.0688682,0.031306
-0.0646618,0.053274
-0.0394967,0.0438688
-0.00550561,0.034484
-0.0137843,0.00530383
-0.077084,-0.0152277
-0.102564,0.0168203
-0.0273501,0.0190536
0.0437176,0.0377378
0.0612749,0.00832256
0.0642245,-0.0435906
0.100578,-0.0595846
0.104775,-0.0282908
0.0564966,0.0535374
-0.0411693,0.0793758
-0.0906155,-0.0416849
-0.0396885,-0.0400322
0.0177338,0.0290384
0.0476571,0.0194442
0.00315532,-0.0519196
-0.102277,-0.0110163
-0.199038,0.0727484
-0.281939,0.0390429
-0.199615,-0.0780427
-0.0398375,-0.067464
0.113691,-0.0361868
0.239769,-0.032339
0.267167,0.0156616
0.184873,0.0789545
0.0992597,0.0591004
0.0233658,0.0363532
0.00792428,-0.00477501
0.0209076,-0.00680007
0.04268,-0.0257948
0.0301735,0.000685287
0.00454567,-0.0302055
-0.0848723,-0.039726
-0.185895,-0.0159507
-0.178401,0.0054182
-0.114799,-0.014512
-0.0392313,-0.0493414
0.0664832,-0.0451943
0.0630805,0.00542395
0.0532874,0.051965
0.135492,0.0228965
0.155855,0.0409109
0.0638522,-0.00190612
-0.0311911,-0.0432454
-0.0376941,-0.0217295
-0.0137176,0.00388502
-0.00520728,0.0200397
-0.0343048,0.04149
-0.0787083,0.0851067
-0.081733,0.0398144
-0.0715843,-0.0178878
-0.112523,0.0120346
-0.110719,-0.0202679
-0.0608887,-0.0657993
0.00503315,-0.0534614
0.00245904,0.0235929
0.0225951,0.118618
0.0884353,0.033342
0.101962,-0.0550592
0.130339,-0.0718278
0.12211,-0.0526624
0.0732951,0.0396831
0.078254,-0.0288538
0.0400407,-0.0682776
-0.0453497,-0.0241157
-0.105032,0.0192711
-0.0737611,0.0675832
-0.000760548,0.0280162
0.022026,-0.00229716
0.0231129,0.00891915
0.00318643,0.0614338
0.0105012,0.00293567
0.0246468,-0.0623221
0.00433215,-0.0612567
0.0154241,-0.00356956
-0.0350068,0.0250418
-0.171901,0.0309079
-0.284018,0.0345744
-0.246583,0.024733
-0.00282042,0.0108061
0.133652,-0.00704595
0.224293,-0.00779002
0.294877,0.00643392
0.242708,0.00194784
0.133246,-0.0241073
0.0360819,-0.0358512
-0.0340904,-0.0420134
-0.0626682,-0.0212182
-0.0803391,0.000249619
-0.143326,0.00670429
-0.175296,-0.0240345
-0.15568,-0.0443704
-0.145173,0.0351508
-0.0930284,0.0658294
-0.0504485,0.0429848
-0.0583554,0.0373193
-0.02012,0.0690821
0.0875258,0.066127
0.204541,-0.0572176
0.230911,-0.0949746
0.194166,-0.0233728
0.124319,0.0424661
0.0257895,0.121322
-0.0149043,-0.00122805
-0.0042054,-0.111863
-0.0276397,-0.0881855
-0.0283405,-0.0174065
-0.00425742,0.0056331
-0.0421689,0.00647152
-0.121087,0.000750186
-0.185145,0.0111739
-0.205385,0.00526141
-0.138589,0.0180763
-0.0214459,5.5e-05
0.0712762,-0.0658155
0.0881053,-0.0511245
0.0943566,0.0172696
0.0940872,0.0725096
0.049821,0.00313923
0.026677,-0.0438882
0.0454189,-0.00549758
0.0529143,-0.00244771
0.0620617,-0.0347596
0.0527322,0.0134235
0.0120464,0.039827
-0.0659316,0.0397374
-0.109222,0.0236868
-0.103204,0.00689679
-0.108778,-0.0113215
-0.0660602,-0.00610396
-0.00734074,0.0407999
0.0373508,0.0367273
0.0393066,-0.0423244
0.0248812,-0.0505046
0.0429918,0.0264157
0.0906253,-0.0129236
0.0500349,-0.0258652
-0.040764,0.041348
-0.0273287,0.0459939
0.0940484,0.0184516
0.12875,-0.00449891
0.0667867,-0.0484898
0.0146788,-0.0495311
-0.0131384,0.0136957
-0.0336311,0.101392
-0.0551312,0.0456375
-0.0559941,-0.0361981
-0.00232535,-0.0632039
0.0708154,-0.0721576
0.0920968,-0.0298828
0.0406075,0.0145493
-0.0427637,0.029158
-0.116446,0.0127336
-0.108475,-0.00160172
-0.0825581,-0.0132044
-0.0789241,0.00569461
-0.084178,0.022918
-0.0986837,0.0103111
-0.116749,-0.00667393
-0.0175301,-0.0192953
0.106896,-0.0141939
0.118369,-0.0178276
0.075531,-0.00723377
0.0673949,0.00417665
0.0375957,0.0127825
0.0122365,0.00162763
-0.0249812,0.00666442
-0.0311958,0.0963974
0.024419,0.14352
0.0689097,-0.0157944
0.0374986,-0.0796977
-0.0115987,-0.0711444
0.00616493,-0.0752282
0.0427142,-0.0646054
0.00265106,-0.0284204
-0.0222007,0.00397966
0.026559,0.0175237
0.0711327,0.0214232
0.0433749,0.147177
0.00610439,0.0775441
-0.0435629,-0.0544215
-0.0898973,-0.072768
-0.0886788,-0.0202782
-0.0664646,-0.00685011
-0.0640282,-0.0121106
-0.0110274,-0.0199499
0.0353338,0.0172197
-0.00605375,0.0235434
-0.00798687,-0.0307202
0.0140691,-0.0779045
0.0242646,-0.0245619
0.0512582,0.0515586
0.0489725,0.0292796
0.034192,-0.0128007
-0.0131032,0.0108607
-0.0772957,0.11287
-0.0292992,0.0041275
0.0194169,-0.023038
0.00936329,-0.000432774
0.0198361,-0.00396185
0.0273822,-0.0245038
0.0159395,-0.0470036
0.0231954,-0.0428968
0.0406185,-0.0332544
0.0163728,0.0251821
-0.0297968,0.0804667
0.0284768,0.0258818
0.0816422,0.0146148
0.0515456,0.0690727
0.013184,0.173104
-0.0144888,0.0438912
-0.046208,-0.166957
-0.0677826,-0.116581
-0.0828406,0.00354295
-0.0904785,-0.0619348
-0.0785458,-0.109613
-0.0157373,-0.0211882
0.00802374,0.0665017
0.00359198,0.0320827
0.0242293,-0.0199742
0.0136247,0.00813521
-0.0170323,0.0187375
-0.0291431,0.0178884
0.0194325,0.0656578
0.0271427,0.0179809
0.00593368,-0.0301646
0.0497713,-0.0538145
0.0899387,-0.0581629
0.0557031,0.0620298
0.0286591,0.0896656
0.0444625,-0.0323905
0.0270067,0.00507529
0.00401989,0.0496559
-0.0445825,-0.0303696
-0.109637,0.00881908
-0.152892,0.0446153
-0.148237,-0.0686178
-0.095211,-0.0240794
-0.045727,-0.0517238
0.0302683,-0.0459429
0.0918198,0.0758962
0.103028,0.0329554
0.0796377,-0.0272609
0.036398,-0.0691426
0.00801083,-0.0432772
0.0325525,-0.0309686
0.0351401,0.0384607
0.0624404,0.0743599
0.0905233,0.00521624
0.0605646,-0.0339233
0.0135646,-0.00797744
-0.0224659,0.0190969
-0.0508585,0.004836
-0.13132,0.0722936
-0.136887,0.0354282
-0.0713071,-0.0255026
0.0171618,-0.0228938
0.0799817,0.0668774
0.061795,0.00461244
0.0323576,-0.0282558
0.0465053,-0.067262
0.0409518,-0.0606768
0.0141761,-0.0424116
-0.023287,0.0124885
-0.0422473,0.025573
-0.055157,0.0064923
-0.0767332,9.49e-05
-0.0287487,-0.00888545
0.0155445,-0.00462159
0.0127903,0.0254676
0.0284378,0.0544451
0.0219984,0.0673276
-0.0120939,0.035412
0.00367778,-0.0442784
0.0303953,-0.0466444
0.0206515,0.0237155
0.00759934,0.040768
-0.00996979,0.0313743
-0.00777447,-0.0298457
0.0233664,-0.082441
0.0613767,0.047103
0.0169485,0.124961
-0.0621049,-0.0330872
-0.100567,-0.0802316
-0.0798451,-0.0255621
-0.000780425,-0.0334582
0.0799883,-0.0400728
0.0909461,-0.0163751
0.0551743,-0.0157328
0.017591,-0.020567
0.00462053,-0.0157485
-9.3e-05,0.0176879
0.000449351,0.0397957
-0.0158741,0.0315244
-0.0753002,0.019689
-0.134643,-0.0151687
-0.0937696,-0.067119
-0.0398216,0.0319233
0.00494184,0.129884
0.063945,-0.0210374
0.112163,-0.0360866
0.0776087,0.0788999
-0.0108793,0.0525263
-0.0790387,-0.0492874
-0.0519056,-0.0421882
0.0223493,-0.0215496
0.0871693,-0.00896662
0.0570722,-0.0198621
-0.0226892,-0.00892638
-0.0585818,0.00428137
-0.0645832,-0.0133132
-0.044128,0.0029446
-0.0523788,-0.014098
-0.0514769,0.0475944
0.0254726,0.0298242
0.0647433,-0.0292371
0.0703859,-0.0280376
0.137592,-0.0108012
0.150883,-0.00672167
0.058083,-0.00248442
-0.0146827,-0.0116586
-0.0494835,0.00202219
-0.00298118,0.0094663
0.0385898,-0.0116321
-0.00420185,-0.0242305
-0.0623906,-0.024639
-0.0527218,0.00734143
-0.000759107,0.0537915
-0.00721004,0.0740106
-0.0730903,0.0147149
-0.102197,-0.0593248
-0.0780041,-0.0465043
-0.0311207,0.0320551
-0.0237914,0.0679379
0.0275775,-0.0458402
0.0698274,-0.0819995
0.0766121,-0.0486492
0.047293,0.0192277
0.00288079,0.0738069
-0.0104687,0.0359006
0.00522723,-0.00761972
0.0214806,-0.00641762
0.0256276,-0.0022803
0.0295065,3.38e-05
0.00476405,-0.00713653
-0.07734,-0.0116743
-0.14776,-0.0204626
-0.110282,0.00319311
-0.0833721,0.0361359
-0.0603659,0.00138285
0.0584211,-0.00950555
0.106225,0.0091845
0.0855899,-0.0319198
0.0497865,-0.0347662
0.0574583,0.0710459
0.0598031,0.145278
0.0712516,0.115558
0.0639114,-0.0719546
0.06356,-0.0905701
0.0282831,-0.0461396
-0.0267923,-0.0740477
-0.00927996,-0.0594851
-0.0121803,-0.0355584
-0.028578,0.00157548
0.00465953,0.026283
0.0075081,0.0143863
-0.0351907,0.0146285
-0.0654598,0.040406
-0.0939217,0.0325161
-0.12177,0.00799951
-0.0415202,-0.00552773
0.0437529,-0.0093459
0.0309727,-0.00406149
0.00103228,0.0116183
0.00721151,0.00505034
0.0233916,-0.0180609
-0.0231323,-0.0259162
-0.105287,-0.0175672
-0.0850231,0.0146156
-0.00280201,0.0826254
0.0928706,0.018078
0.157441,-0.056429
0.168833,-0.0317852
0.0615198,0.000290187
-0.0446833,-0.00700102
-0.0486018,0.00138539
-0.0602561,0.0494567
-0.0862863,0.00483538
-0.061103,-0.0700601
-0.0189293,-0.048066
0.0240247,-0.000664114
0.0577071,0.0398033
0.0271883,-0.00285997
-0.0349911,-0.00359222
-0.0242483,0.0042345
0.0185247,0.00565431
0.0200644,0.0180722
0.0388761,0.0229283
0.0631916,0.000793069
0.0465819,0.00508356
0.0203956,0.0205297
0.00777907,-0.0168709
-0.0294463,-0.0223098
-0.0477903,-0.000856657
-0.020384,0.00852396
0.00399409,-0.00241513
0.0256279,-0.0156515
-0.0253264,-0.0114126
-0.050182,0.0498825
-0.0131887,0.071124
-0.00437336,-0.00790857
-0.0278897,-0.00999925
-0.0392222,0.00571343
-0.0868006,-0.0363433
-0.0764772,-0.0293286
0.00597718,-0.00495867
0.0610375,-0.00345598
0.0594101,-0.00541443
0.0470599,-0.000189277
-0.00176779,0.000730738
-0.0641842,0.00647096
-0.000423902,0.00965858
0.102219,-0.00913037
0.103879,-0.0118753
0.0614761,0.0635908
0.030555,0.0711549
0.000679038,0.0461358
-0.0323521,0.00580882
-0.0438416,-0.115325
-0.071181,-0.122072
-0.0830726,-0.0480173
-0.0676615,0.0047831
-0.0739651,0.00182749
-0.030753,-0.0116334
0.0263451,-0.0174998
0.097399,0.00699417
0.0937028,0.00546366
0.0187945,0.0142629
-0.0498614,-0.00038226
-0.0954264,-0.00946975
-0.0634438,0.0118531
-0.00574366,0.0461122
0.0241169,0.0358007
0.0778761,0.0184882
0.111055,0.0173861
0.0988024,-0.0192923
0.0442211,-0.0178847
0.0115195,0.00680666
0.0171531,0.0145204
0.00376637,0.00175061
0.0117034,-0.00713187
-0.0031543,0.00546823
-0.0337657,0.0267607
-0.0446579,0.023619
-0.0429096,0.00680298
-0.024134,0.0298874
-0.00541269,0.061711
0.00847958,0.0414368
-0.0072181,0.0508464
0.0454124,0.0116792
0.0910571,-0.0796942
-0.0117054,-0.124467
-0.101106,-0.120654
-0.0746303,-0.0390764
0.0150495,0.0205638
0.0625778,0.0368592
0.0513495,0.0268913
-0.00683734,0.00957713
-0.100195,0.00527119
-0.120534,0.00365117
-0.074587,-0.0020328
0.00435728,-0.0215863
0.0470626,-0.0155447
0.0437394,0.0290264
-0.0536316,0.0182417
-0.0922036,-0.0151208
-0.0101974,-0.00272043
0.0430847,0.00092473
0.0263018,-0.0101507
0.0740216,-0.0245578
0.105882,-0.0237311
0.0613316,0.00675867
0.0162233,0.0337831
0.0131988,0.0322179
0.0343301,0.0104814
0.0192181,-0.00901597
-0.0286223,8.65e-05
-0.0513328,0.0124161
-0.0501368,-0.0115211
-0.0403646,-0.0135442
0.00355102,-0.00860373
0.0437362,-0.0121744
0.0450288,-0.020575
0.0118598,-0.0151693
-0.0220868,0.0163653
-0.025275,-0.0107175
-0.0308802,-0.00557707
-0.0270067,0.0144382
-0.00141117,0.0108611
0.02269,0.0221159
0.0225098,0.0247971
0.00722462,0.0158126
-0.0300494,0.00753382
-0.0735353,-0.00105479
-0.0435625,5.76e-05
-0.00958036,-0.000529635
0.00357808,0.00574985
0.0227933,0.0216487
0.0451577,0.0117517
0.0437063,-0.0116681
0.048517,-0.0295521
0.0154262,-0.0123588
-0.0283313,0.120212
-0.00375922,0.0539487
0.0336547,-0.12387
0.029587,-0.0810044
0.00303324,-0.0191471
-0.0115494,0.0319579
-0.0132935,-0.00783532
-0.020166,-0.0419502
-0.0315135,0.0534693
-0.0228613,0.132418
0.00399415,0.0170685
0.028039,-0.0867611
0.0297314,-0.0375176
0.0249079,-0.0115622
0.0257136,-0.0281244
0.0085501,-0.0192685
-0.0238976,-0.017158
-0.0417935,-0.0332363
-0.0572434,-0.0193821
-0.0687403,0.0325991
-0.0672536,0.0691236
-0.0486693,0.0123613
-0.00605191,-0.02713
0.0592242,-0.0576423
0.041482,-0.0280022
0.0267676,0.0390503
0.0540965,0.00370496
0.0495896,0.000639776
0.0357692,0.0391874
0.00837753,-0.0145575
-0.020812,-0.042905
-0.0404459,0.00708616
-0.0495026,0.019679
-0.0398747,0.0177251
-0.0111844,0.032303
0.0201853,0.0514376
0.0390965,0.044916
0.0606334,0.00248446
0.0555642,-0.0117791
0.0216784,-0.0107208
-0.0218341,-0.0175405
-0.0365422,-0.021933
-0.0328822,-0.0299623
-0.0178018,-0.0288463
0.0139936,-0.0172799
-0.0260022,-0.0129314
-0.0909242,-0.00364271
-0.0681237,0.00586091
-0.0148898,-0.0126174
0.0273079,-0.014134
0.0710747,-0.00173159
0.117479,0.030713
0.090587,0.0678705
0.0399503,0.033548
0.0422958,-0.00806804
0.0362025,-0.00135973
-0.020033,0.00233358
-0.0618163,0.103953
-0.0764957,0.146863
-0.0600687,-0.0987136
-0.027527,-0.144543
-0.00532805,-0.0644395
-0.00414249,-0.0273203
-0.0101917,-0.00831226
-0.0109665,-0.00943753
-0.0106197,-0.0145263
-0.0143173,-0.00375296
-0.00789665,0.0082328
0.0169923,0.0150122
0.0285809,0.0136631
0.00562547,0.015315
-0.00882722,0.0161132
0.00036744,0.00421655
-0.00618857,-0.0125198
-0.0218428,-0.0258773
-0.0161891,-0.0174867
0.010021,0.000622121
0.0318308,0.0159406
0.0314668,0.00982089
0.0179082,-0.00364008
0.0131806,0.00489275
0.00130406,0.0383464
-0.0215737,0.00992384
-0.0294862,-0.0142416
-0.013651,0.0170536
0.00465648,0.030974
0.000469072,-0.00239196
-0.0236057,-0.018535
-0.0278775,-0.00756707
0.00347222,-0.00115495
0.035778,-0.00720979
0.0546425,-0.0115876
0.0404391,-0.00432768
0.0181299,0.0145529
0.00168829,0.0216368
-0.0111231,0.00935921
0.0126478,-0.000590299
0.0483437,0.0182347
0.0545259,0.0150443
0.0220656,-0.00240761
-0.0190164,0.00248559
-0.0287054,0.0127551
-0.00764037,-0.0196929
-0.00379027,-0.0411091
-0.00844634,-0.0263646
-0.0214498,-0.0174356
-0.0545846,-0.0142773
-0.0728902,-0.0269416
-0.0681332,-0.0281844
-0.0558274,-0.00543699
-0.0314453,0.058715
-0.00309221,0.0656692
0.00336726,-0.0118029
0.00495451,-0.056054
0.00332992,-0.0379573
-0.00527984,-0.0106845
-0.0105604,-0.000996878
-0.00183145,0.00651348
0.0208129,0.0128893
0.0471284,0.0156074
0.0566413,0.0257422
0.0513149,0.0408262
0.0369498,0.0162653
0.0177318,-0.0263521
0.00572869,-0.0294328
-0.00530523,-0.0102682
0.0113223,-0.00339847
0.0623731,0.0106939
0.0825232,0.0157111
0.0544131,0.0140028
0.00355055,0.00823222
-0.055438,-0.0101644
-0.10127,-0.00587059
-0.108422,-0.000654988
-0.0790321,0.0129279
-0.0416764,0.0116714
-0.0209583,0.0044479
-0.0124729,0.0055477
-0.00654764,0.000997988
0.0107147,-0.0045594
0.0317361,0.0198875
0.0439899,0.0264015
0.0675391,-0.0288192
0.0876088,-0.0345857
0.0852142,-0.0195179
0.0403822,-0.0157599
-0.0151733,-0.0089885
-0.0566925,0.0240519
-0.0852718,0.0308591
-0.0744328,0.0296129
-0.0268223,-0.0072286
0.0232717,-0.0267563
0.0424364,-0.00829573
0.0143018,0.00439357
-0.0234818,0.00815781
-0.043914,0.00538149
-0.055142,-0.00504922
-0.0471612,-0.0206344
-0.0265607,-0.028832
-0.0194715,-0.0149716
-0.0035826,0.00268157
0.0150299,0.0137112
0.0315272,0.0185688
0.0591436,0.0311343
0.0814333,0.0094792
0.0761013,-0.0184516
0.0489629,-0.0258742
0.00417524,-0.0265909
-0.0231004,-0.00550222
-0.03237,0.0121647
-0.0309743,0.0353807
-0.0161264,0.0294523
-0.0101355,-0.00855435
-0.00152909,-0.0204394
0.0146535,-0.0189166
0.0374262,0.00100594
0.0522325,0.0310731
0.0591083,0.019256
0.0438545,-0.000520926
-0.0125896,0.00904982
-0.0615747,-0.0119475
-0.0862779,-0.0455637
-0.0893429,-0.0286278
-0.0747481,0.035804
-0.0352289,0.0236832
0.0117042,-0.0169177
0.0404434,-0.0146499
0.0381052,-0.00694223
0.0132641,0.00645071
5.42e-05,-0.00793371
-0.00401594,-0.0217639
-0.0182855,0.0107903
-0.0241853,0.0228686
-0.00502066,-0.00500086
0.0179699,-0.000509721
0.0225534,0.0219946
0.0226826,0.00885552
0.0252759,-0.000121782
0.0168592,0.00455175
-0.00919455,-0.000150923
-0.0299967,-0.00525917
-0.0207604,-0.0041749
0.00121725,0.00155112
0.00756159,0.00255709
0.0367085,0.00301601
0.0661037,-0.00526911
0.0737639,-0.0169966
0.0705665,-0.0195147
0.0600808,-0.0139477
0.0183455,-0.0080917
-0.0176648,-0.00147347
-0.0532128,0.0030262
-0.0908096,-0.00781863
-0.105255,-0.0104592
-0.0907061,0.00890462
-0.0482514,0.0163746
-0.00318491,0.0103413
0.0148068,0.00557015
0.0337887,0.00417358
0.0546099,0.00595339
0.0631005,0.00721957
0.0355924,0.00852361
-0.00279494,0.00323995
-0.0205987,-0.00522905
-0.0256159,-0.00791544
-0.0414738,-0.00481834
-0.0673164,7.26e-05
-0.0598835,0.00906892
-0.0600274,0.00439999
-0.0622565,0.028971
-0.0396226,0.0207642
-0.0178461,-0.011934
-0.0120565,-0.0166103
0.0359936,-0.0116286
0.107318,-0.003119
0.147979,0.00461223
0.184441,0.00716563
0.173037,0.00836423
0.0942205,0.00659398
0.0246236,-0.0117912
-0.0378754,-0.00398459
-0.103319,0.00754716
-0.098239,-0.0130954
-0.0767246,0.0215286
-0.0751209,0.0677266
-0.0824872,0.0190559
-0.0853119,-0.0533721
-0.0709667,-0.0671272
-0.0454716,-0.0348552
0.00595494,-0.0121914
0.042052,-0.00438066
0.0476238,0.00610103
0.0333299,0.0178073
0.000499849,0.0190251
-0.0318393,0.0114353
-0.0578271,0.00244144
-0.0600202,-0.00875765
-0.0375273,-0.0160697
-0.0110536,-0.0301259
0.0291534,-0.0264652
