Comp Ch 3,Comp Ch 4
0.0186816,0.018103
0.0121597,0.00534161
0.00201509,-0.0250259
-0.0076932,-0.0293898
-0.00586793,-0.0250742
0.0384433,-0.00672606
0.0851682,0.0113905
0.0717947,0.0142504
0.0283324,0.0102343
-0.0219848,0.00501144
-0.0622495,0.00105345
-0.076013,-0.00131615
-0.0283835,-0.0180334
0.0150173,-0.0231472
0.0482977,0.0209915
0.0643679,-0.00412504
0.038391,-0.0268681
-0.00319182,0.008776
-0.0259055,0.0354888
-0.0562203,0.0435158
-0.0737291,0.0515183
-0.071652,-0.00292854
-0.0465092,-0.0595102
-0.0271153,-0.0391592
-0.00942565,-0.0200151
0.0173033,-0.0207721
0.0194683,0.0333895
-0.00647464,0.0958488
-0.0309994,0.0302841
-0.0231738,-0.0139988
0.0120857,-0.015366
0.109461,-0.01155
0.181348,-0.000908406
0.143775,-0.0164892
0.0688218,-0.0594233
0.00196496,-0.0507433
-0.0743124,0.0297392
-0.121079,0.0232123
-0.103836,0.00128946
-0.0584896,0.0126136
-0.0391774,0.0151134
-0.0272695,0.00737396
0.0084168,-0.00375183
0.0330309,-0.00915844
0.0232351,-0.00345068
-0.00115316,0.00321762
-0.0268128,-0.000971613
-0.0395408,-0.0110238
-0.0246969,-0.00792735
-0.0130785,0.00562684
-0.0200416,0.00561929
-0.0177848,-0.0030744
0.00122782,-0.0190742
0.0127402,-0.0183332
0.0205979,-0.000385959
0.059245,-0.00331589
0.1073,0.0120101
0.0941705,0.0166971
0.0459397,0.00405273
-0.0115861,-0.0025433
-0.0863222,-0.000666692
-0.100444,-0.0119959
-0.0615659,-0.00088117
-0.0335781,0.0351504
0.00790896,0.0443144
0.0619588,0.0146002
0.0787446,0.0149373
0.0722392,0.0133187
0.0590603,-0.0151344
0.0192509,-0.0133992
-0.0400435,-0.035841
-0.0843699,-0.0507989
-0.0504734,-0.0189346
-0.0013348,0.0353074
0.019337,0.0179869
0.0172328,-0.0290842
-0.0133671,-0.0140111
-0.0465762,0.0111263
-0.0713217,0.00966767
-0.0561939,0.0101039
-0.0205354,-0.000441261
0.0210265,-0.00355691
0.0409012,0.0139718
0.0295927,0.0125199
0.0188961,-0.00285529
0.0123884,-0.00935238
-0.00349534,0.00231159
-0.0130806,-0.00402293
0.00181929,-0.0250957
0.0261627,-0.00599258
0.0251045,0.00666392
0.0137385,0.00219631
0.00676753,-0.0171232
-0.0154936,-0.00355477
-0.0333752,0.0291338
-0.0163646,0.0424368
0.00177591,0.00457712
0.0135544,-0.0294707
0.0269829,-0.0024648
0.0252839,0.0110557
0.0251425,-0.00820876
0.0226427,-0.0123576
0.0144395,-0.01444
-7.11e-05,0.00690134
-0.0232062,0.0407398
-0.0111648,-0.0106813
0.00804316,-0.0384996
-0.000378548,-0.00819172
-0.00214237,0.0270906
-0.000925885,0.0263327
-0.0135376,-0.00138769
-0.0288385,-0.00812323
-0.034069,-0.00179007
-0.0348419,0.0070837
-0.00418702,-0.00362454
0.0294971,-0.00403074
0.0285729,0.00760678
0.0217716,0.00123854
0.0267866,-0.017721
0.0245694,-0.0291481
0.00954307,-0.0311516
-0.00570195,-0.0155165
0.00426845,0.0122228
0.0124619,0.0404714
-0.00510055,0.0464733
-0.013993,0.016242
-0.0117964,-0.0143822
-0.0260617,-0.00568342
-0.0400137,-0.00465036
-0.0330341,-0.00503362
-0.020549,-0.00771793
0.00866463,0.00618983
0.0315006,0.0234864
0.0252561,0.0338398
0.0179189,0.021217
0.0194533,-0.019151
0.0109774,-0.0282168
-0.00074981,-0.0296521
0.00164942,-0.0221916
0.0169119,-0.0115653
0.011739,0.00570252
-0.00112086,0.0174429
-0.0106657,0.00635185
-0.0244729,-0.0117008
-0.0490458,-0.00890226
-0.0740108,-0.00573296
-0.071254,-0.043738
-0.0420314,-0.0527455
0.0143902,-0.00943492
0.050127,0.0250905
0.0474284,0.0262297
0.0374061,0.0364996
0.0334837,0.032701
0.0123854,0.00207512
-0.00551068,-0.00745369
-0.00111868,0.00139883
0.00292045,0.0140589
0.00982141,0.00476851
0.031035,-0.00373823
0.0224556,-0.00951405
-0.00401204,0.00705276
-0.0234458,0.0155566
-0.0280995,0.00212965
-0.0446551,0.0124279
-0.0434576,0.00226995
0.00279659,0.0172439
0.0246077,0.0238463
0.0237194,-0.020692
0.0277545,-0.0283717
0.0266918,-0.0181042
0.0110388,-0.00365397
-0.0081404,0.0174126
-0.00616511,0.0117269
0.00716676,-0.0451626
0.00342924,-0.029799
0.0019894,-0.027285
-0.0110219,-0.0287183
-0.0194388,-0.0111113
-0.0228752,-0.00558124
-0.0122031,0.00491699
-0.00236097,0.00180633
0.0133873,0.0127895
0.0294736,0.045539
0.0177661,0.026445
0.000843347,0.0152706
0.00336637,0.0424887
0.00606184,0.0102876
-0.00999724,-0.021337
-0.0300816,-0.0118251
-0.0391273,0.00857404
-0.00863883,-0.000721321
0.0129919,-0.0107189
0.0162023,-0.00696735
0.0140742,-0.00570632
0.000423003,-0.00159077
-0.0108613,0.0112151
-0.00715436,0.0202556
0.000775707,0.0296435
0.0283905,-0.00343672
0.0385508,-0.00208619
0.0188644,0.00793147
0.0111526,-0.014084
0.00224159,-0.0133315
-0.020169,-0.0179661
-0.0250901,-0.0387242
-0.0159409,-0.013581
-0.000432748,0.0203328
0.00385592,0.0161633
-0.000294385,0.00310958
-0.00404726,-0.0113695
-0.0108762,-0.0201151
-0.0175212,-0.0137071
-0.014514,-0.00196329
-0.0115833,0.000762678
0.00177141,0.000975093
0.0253115,0.00730572
0.0268981,0.0198249
0.0145715,0.00825297
0.00120199,0.0109684
-0.0131664,0.0282929
-0.0244557,0.032279
-0.021819,-0.000201959
0.00279138,-0.0204717
0.0251976,-0.00756958
0.0164146,-0.00994154
0.0133712,-0.0149624
0.00141175,-0.0108931
-0.0219786,0.000850939
-0.0212205,-0.00512418
0.00139778,-0.00623927
-0.000977665,-0.0120198
0.00778888,-0.00605958
0.0191358,0.0262781
0.00652398,0.0253434
-0.0115445,0.00318355
-0.0119399,-0.0135458
-0.0146819,-0.00932258
-0.016818,-0.018464
-0.0124807,-0.0142608
0.0130924,-0.00449156
0.0256216,0.0133917
0.0125153,0.00864258
0.00487533,-0.00131246
-0.00354331,-0.0115217
-0.0137982,-0.00961822
-0.0164585,0.00631683
-0.0140421,0.0204267
-0.0128612,0.0213071
0.013986,0.026632
0.0348037,-0.0233625
0.0158941,-0.0331123
0.00272948,-0.0270661
0.00266316,-0.0250983
-0.0143322,-0.00650808
-0.0226837,-0.000138827
-0.000885761,-0.00208725
0.0222539,0.00898101
0.0195587,0.00393438
0.013063,0.0173767
0.0129564,0.0288448
0.0019071,0.0070383
-0.0224041,-0.00982567
-0.0347261,-0.00364729
-0.0336154,0.0161358
-0.00554809,0.00682556
0.0257141,-0.0148059
0.0226794,0.035174
0.0163995,0.0618257
0.0201579,0.0155269
0.0037201,-0.0365899
-0.0218268,-0.0328681
-0.0358243,0.0116574
-0.0229954,0.0174752
-0.000662817,0.000898479
0.0110651,-0.00554948
0.0396759,-0.00977786
0.0661535,-0.0222087
0.0214109,-0.0268339
-0.0330661,-0.0114215
-0.0428492,0.0142941
-0.0348271,0.0116688
-0.0147954,0.00096909
0.0230148,-0.00392847
0.0312599,-0.00428594
0.0171588,-0.00379292
0.00267227,0.00574559
-0.0236724,0.00954929
-0.0456511,-0.00554855
-0.0427254,-0.00718401
-0.0117072,0.012875
0.0154801,0.000623295
0.0191423,-0.0191424
0.0141863,-0.00604679
0.0175577,-0.00111639
0.0165417,-0.0133929
0.00780328,-0.0115677
0.00532188,0.00161446
0.00484288,-0.00160861
0.0171539,0.0232881
0.0240124,0.01614
0.00870068,0.00596768
-0.00323727,0.00886249
-0.0120653,-0.0249287
-0.0286527,-0.0332599
-0.0462883,-0.0052538
-0.0396957,0.0139168
-0.0133915,0.0218173
-0.00633497,0.0478171
0.00728025,0.0100306
0.0240695,-0.0308401
0.0134136,-0.0142988
0.00607672,-0.00870939
0.00590895,-0.007858
-0.00316099,0.0117758
-0.00620975,0.00885934
0.0169981,-0.00622097
0.0235126,-0.00427767
0.00977977,-0.00887884
0.0109699,-0.00765524
-1.48e-05,-0.00294565
-0.0214284,-0.0058255
-0.0295479,-0.00139101
-0.00467553,0.00658594
0.0251628,0.0152477
0.0278313,0.0158103
0.0207233,0.00771921
0.0098906,-0.00346293
-0.00818086,0.0166976
-0.0193271,0.00552334
-0.0134656,-0.0497655
-0.0165522,-0.0350836
-0.00845436,0.00536806
0.010473,0.0378598
0.00516012,0.0413816
-0.00649859,0.0155504
0.000632528,-0.00267636
0.00299347,-0.0134285
-0.0268162,-0.0235439
-0.0290124,-0.0309833
0.00227788,-0.0128279
0.015213,0.0584499
0.0144143,0.0628622
0.0202748,-0.0363994
0.0116793,-0.0373858
-0.00108868,-0.0105485
-0.00665181,-0.020803
-0.00622146,-0.0123449
-0.00638067,0.00176669
0.0155702,0.0110349
0.0287624,0.0138154
0.0125441,0.00382735
0.000777189,-0.000300967
-0.00719497,0.00366021
-0.0250104,0.00132021
-0.0389929,-0.0122218
-0.037387,-0.0172435
-0.0103753,-0.0139595
0.00763707,-0.0112359
0.00717613,-0.0116057
0.014729,-0.0074661
0.0200864,0.0172871
0.0133137,0.0214882
0.0064229,-0.00483892
-0.00232316,0.00227887
-0.00681828,0.0275915
0.0134873,0.030167
0.0321275,0.00666325
0.0188551,-0.00977964
-0.00814148,-0.00368996
-0.0148169,0.00391918
-0.0184266,0.00209908
-0.0366746,-0.0130397
-0.0187296,-0.0167612
0.0220432,-0.00513909
0.0336597,0.00446417
0.0269454,0.0170444
0.0136289,0.00912434
-0.00657196,-0.0055033
-0.0299284,-0.0027536
-0.0291809,-0.000411065
-0.00375167,-0.00372089
0.0185251,0.0272451
0.0199583,0.0344301
0.0311229,-0.0145076
-0.000427488,-0.0155446
-0.0249064,-0.00710147
-0.0201733,-0.0111868
-0.0270614,-0.00850362
-0.0229953,-0.0100684
0.00386256,-0.00288675
0.00994789,0.0063038
0.00559065,0.00491846
0.00754324,0.000447007
-0.00972974,-0.0114922
-0.0405869,-0.021423
-0.0360856,-0.0248587
-0.00691164,-0.0116761
0.01002,0.0115857
0.0370123,-0.00372128
0.0567647,0.00529464
0.0456176,0.0429762
0.01074,0.0259128
-0.0175554,0.00943904
-0.0405271,-0.0123499
-0.0532099,-0.0280552
-0.016307,-0.0183433
0.0357112,-0.00412935
0.0459523,0.00844355
0.0335016,0.00416151
0.0155452,0.00254501
-0.00797796,-0.00634011
-0.026282,-0.0117284
-0.0227585,-0.015821
-0.0115165,-0.0119522
0.00243917,0.00593896
0.0298927,0.0193601
0.0300753,0.0263902
0.0047454,0.0260513
-0.00330491,0.00234643
-0.0139192,0.00241041
-0.0348732,0.0208842
-0.0473178,0.00843384
-0.0212798,-0.010815
0.0122382,-0.00164318
0.0218575,0.00258089
0.0302805,-0.00596933
0.0241061,-0.00900995
0.0059672,-0.00985573
-0.00366201,-0.00587977
-0.000554639,-0.00482077
-0.00387405,-0.0171205
0.00129771,-0.0136044
0.0213738,-0.00252086
0.0204568,-0.00978307
-0.00672464,-0.000820629
-0.0224383,0.0115635
-0.0294121,0.0156187
-0.0509286,0.0145183
-0.0552253,-0.00885026
-0.00701563,-0.00993434
0.0383075,0.0102582
0.0371189,0.0141789
0.0333236,0.0103465
0.0229595,0.000769217
0.00473082,-8.69e-06
-0.00377063,-0.0114139
-0.00729303,0.00626048
-0.0152096,0.00255605
0.000931856,-0.0149056
0.0153037,-0.00583399
0.00442802,0.0172428
-0.0113115,0.0337508
-0.0115863,0.00849463
-0.0183884,-0.0210656
-0.0310529,-0.0384509
-0.028053,-0.0282775
0.00311641,-0.016017
0.0270738,-0.00581525
0.0236465,-0.00108628
0.0188977,0.00841799
0.0158884,0.0161019
0.00554946,0.0145536
0.000278111,0.0049747
0.00152663,0.00168872
0.00037139,0.00211216
0.0149897,0.0107339
0.022682,0.0105302
0.00119181,0.00223578
-0.00950981,-0.00155504
-0.0154057,-0.000274362
-0.032021,-0.00512013
-0.0447849,-0.00914631
-0.0234389,-0.00432391
0.0114138,0.0105256
0.0197925,0.0170614
0.0233407,0.0134809
0.0211798,0.00526165
0.00633554,-0.00678457
-0.00560273,-0.0160304
-0.00260001,-0.0121356
-0.00180748,-0.00580634
0.00488423,-0.00215761
0.0278621,0.0037469
0.0242428,0.000711188
-0.00363551,-0.00755356
-0.0190396,-0.00919366
-0.0256199,-0.00674665
-0.0386846,-0.00344533
-0.0453761,-0.0219479
-0.0159764,-0.0162564
0.019032,0.0084897
0.0233489,0.0244623
0.0252191,0.026109
0.0222056,0.00725791
0.00564277,0.00776221
-0.0119814,0.0166799
-0.0126251,-0.0131944
-0.0234143,-0.0195537
-0.00952375,-0.00636815
0.0289367,-0.00175473
0.0268936,-0.0099786
0.00136573,-0.0133431
-0.0250418,0.0193744
-0.0132731,0.0052634
0.00412525,0.00437761
0.0325575,0.0158397
0.051942,0.0170272
0.0448467,0.0115764
0.0330849,0.0115391
0.00957497,0.00389457
-0.0251673,-0.00980901
-0.0501311,-0.0181539
-0.0522509,-0.0165215
-0.0464614,-0.0146467
-0.0259745,-0.00900599
-0.00371769,-0.00303662
0.00563132,-0.0115325
-0.00102282,-0.015597
-0.0164942,-0.00959096
-0.0486897,-0.0042637
-0.054679,-0.000664328
0.00824665,0.00243755
0.0603327,0.0163949
0.0681093,0.033471
0.0712706,0.0330554
0.0639779,0.0121678
0.0252456,0.00114019
-0.0195174,-0.00372383
-0.0456849,-0.00723819
-0.047119,-0.00978592
-0.0185187,-0.029982
0.0205327,-0.0152801
0.0366984,0.0162546
0.0171767,0.00707118
-0.0203426,-0.013296
-0.0607108,-0.0145081
-0.0798071,-0.00980983
-0.0666678,-0.000747663
-0.00821406,0.0072062
0.0508219,0.0172539
0.0541096,0.018382
0.0421243,0.0140101
0.0569531,0.0268029
0.0464606,0.0450229
-0.0131799,0.00974394
-0.0375839,-0.00504218
-0.0283239,-0.0268276
-0.00168146,-0.0397752
0.0170619,-0.0288628
0.016857,-0.0398663
0.00486412,-0.0517972
-0.0115122,-0.0202493
-0.0149972,0.0083014
-0.00562385,0.0175749
0.00279043,0.0223699
0.0200155,0.0222197
0.0257381,0.0287968
0.0115221,0.0436336
0.0152335,0.0133555
0.00151722,0.0179109
-0.0252254,0.00982124
-0.0470124,-0.0180985
-0.0464081,-0.0113159
-0.0473361,-0.00353081
-0.0127125,-0.0109778
0.0175121,-0.00374573
0.00844667,-0.00206749
0.000100267,-0.00613573
0.0131966,-0.00678794
0.0190227,-0.00634916
0.00754138,-0.00819645
0.0069192,-0.00715625
0.0267053,0.00731551
0.0344836,0.0149047
0.0301871,0.00803133
0.0240784,0.00268229
0.00224802,-0.00295339
-0.0264483,-0.0137926
-0.0354197,-0.0200285
-0.0304125,-0.0153219
-0.0218976,0.000756047
0.00092164,0.0140074
0.00409965,0.0131966
-0.0179827,0.00534937
-0.0157907,0.00795677
-0.00472635,-0.00550989
-0.00709639,-0.0218642
-0.0113494,-0.00862584
0.00343302,0.0117873
0.021007,0.0315788
0.0276745,0.00901414
0.0310561,-0.00137206
0.0198282,0.00271699
-0.00895314,-0.00395307
-0.0276484,-0.0275584
-0.0208106,-0.0298088
-0.0200524,-0.00526005
-0.00199149,0.011099
0.0251681,0.0136781
0.0262077,0.00491848
0.0104203,-0.00249869
0.0056737,-0.002318
-0.00588799,-0.00335609
-0.0198538,-0.0100552
-0.019921,-0.0175675
0.00903083,-0.00861542
0.0357644,0.0156554
0.0308054,0.0212577
0.0257514,0.0224846
0.0066264,0.0192427
-0.022547,-0.00443708
-0.0398058,-0.0149264
-0.0401246,-0.0152848
-0.0394998,0.00680935
-0.0133874,0.0627031
0.020773,0.0330367
0.0187561,-0.0263314
0.0031804,-0.022065
0.00578193,-0.0195804
0.00755509,-0.0251789
-0.00267992,-0.0159872
-0.00233482,-0.00202407
0.0118318,0.00934982
0.0243078,0.018288
0.0222951,0.0475909
0.0132588,0.0300839
-0.00921056,-0.0302753
-0.0138606,-0.0365341
-0.00761323,-0.0234037
-0.0180516,-0.0105132
-0.0152252,0.000753175
0.0115554,0.0334642
0.0242926,0.017176
0.00484765,-0.0191174
-0.0148959,-0.00680024
-0.011487,-0.00796424
-0.01595,-0.00989397
-0.0275339,-0.0146969
0.0119646,-0.00871095
0.0285639,0.0145389
-0.0118036,0.00570174
0.00707943,-0.0308584
0.0134997,-0.00692464
-0.0272183,0.0227739
-0.0439573,0.00824105
-0.0264626,-0.0134106
0.0113489,-0.0151468
0.0323984,-0.0228144
0.0296612,0.00503035
0.028851,0.0171114
0.0138175,-0.00244905
0.0128684,0.0133197
0.0046068,0.0135811
-0.0116757,0.00290691
-0.00607808,-0.00546391
0.0181632,-0.0061974
0.0313441,0.00396326
0.00872439,0.00519449
-0.00763393,-0.00890878
-0.0264583,-0.0102401
-0.0612619,0.072976
-0.0854574,0.0948187
-0.0720546,-0.0235669
-0.0586732,-0.0706168
-0.0112187,-0.0246535
0.033935,-0.00782406
0.037303,0.0426238
0.0442644,0.0568016
0.0638042,-0.00237504
0.0667972,-0.0491755
0.040754,-0.0271093
0.0215883,-0.01497
0.0303593,-0.0147945
0.0285899,-0.00289622
0.0130488,8.37e-05
0.00218683,0.00115901
-0.00710034,-0.000517265
-0.0192004,-0.000579285
-0.0263651,0.00388127
-0.0200349,-0.00703104
-0.0124997,-0.00183784
0.015978,-0.00138035
0.0240466,-0.0023324
0.00455512,0.0190095
0.00219904,0.033755
-0.00688582,0.000717632
-0.0376797,-0.0137242
-0.0535611,-0.0266249
-0.0293369,-0.0180164
0.0234751,0.00696092
0.0225402,0.0128503
-0.00318861,0.0127979
-0.0104186,-0.014981
-0.0278868,-0.0370445
-0.0433725,-0.00362901
-0.0401457,0.0121875
-0.0210797,0.00183564
0.0265298,0.0103237
0.069589,-0.00815326
0.0480863,0.00258791
0.00302584,0.0108472
-0.0337008,0.0118569
-0.0454309,0.00574981
-0.0445429,0.0246979
-0.0568281,0.0512572
0.00304726,0.00340105
0.0669567,-0.0418774
0.0667885,-0.0235193
0.0347072,0.00217188
0.0103662,0.0025817
-0.0170501,-0.0111839
-0.0348219,-0.00814028
-0.0232541,-0.00847144
-0.00891882,-0.0203924
0.0223859,0.00206365
0.042362,0.0246755
0.0362671,0.0199139
0.0234298,0.00628014
0.0197868,-0.000399686
-0.00245804,-0.00655588
-0.0301009,-0.0163741
-0.0384723,-0.00796166
-0.0348994,-0.0181218
0.00451844,-0.0254926
0.01334,0.0287132
-0.000261363,-0.00489745
-0.0232178,-0.0207211
-0.0394463,0.0213032
-0.027722,0.0484064
-0.00775644,0.0311977
0.00812372,0.0373041
0.0344031,0.092408
0.049,-0.0233331
0.0168778,-0.0764935
-0.00894602,-0.0231025
0.00186153,-0.027224
0.0190942,-0.0120513
0.0127571,-0.0107286
0.000539733,-0.0239868
0.00520532,-0.00606686
0.00136013,-0.00800086
-0.00793562,-0.00914983
-0.00335414,-0.0109859
-0.00643304,-0.0305393
-0.0361823,-0.0249408
-0.0312062,0.00120234
-0.010969,0.0221375
-0.00210418,0.00648903
0.0319464,-0.00823059
0.0522897,0.0389571
0.0314941,0.0508868
0.0367581,0.0125588
0.0150943,-0.0398435
-0.036721,0.00533299
-0.0695458,0.0284229
-0.0430036,-0.0132237
-0.027356,0.00660165
-0.0466937,0.0238918
-0.00950821,-0.00883729
0.0499111,-0.00440203
0.0739553,-0.0103161
0.0317861,-0.0210667
-0.011737,-0.01393
-0.0271319,-0.0155986
-0.0265248,0.0232734
0.013659,0.0356426
0.041588,0.0473848
0.0128412,0.0385699
0.0162252,-0.0201708
0.029321,-0.00891373
0.0357669,0.0350093
0.0326537,-0.00732269
0.0169651,-0.0390208
0.00600163,-0.0592802
-0.0255514,-2.83e-05
-0.0613778,0.0417995
-0.102058,-0.0061095
-0.12304,-0.0223027
-0.10028,-0.005815
-0.0757407,0.00501892
-0.0346876,-0.040031
0.0393843,-0.0497812
0.0778339,-0.00555907
0.0772241,0.0185211
0.0743584,0.0221607
0.0687066,0.00811213
0.0691745,-0.00765293
0.0571991,-0.00351046
0.0331011,-0.0258074
0.0181453,-0.0314775
0.00190348,0.008707
-0.0260551,0.0650317
-0.0213633,0.046057
-0.015816,0.069097
-0.013508,-0.018252
-0.0373922,-0.114773
-0.0588517,-0.0308141
-0.0186688,0.0380634
0.0146936,0.0364497
-0.0103868,-0.00404687
-0.00346196,-0.0293906
0.043682,-0.0298176
0.0287006,-0.0102378
-0.0186204,0.0235882
-0.0448106,0.0330051
-0.0143775,0.0231994
0.0388863,0.00917847
0.0505779,-0.0110742
0.0248692,0.0105801
0.00746293,0.0328723
0.00157943,0.0175917
-0.000276268,-0.025636
0.0110886,-0.00692102
0.00902434,0.00536957
-0.00958102,-0.00997389
-0.0210315,-0.0221755
-0.0489969,0.0075712
-0.0433178,0.072544
-0.0291816,0.0328247
-0.0136071,-0.0188738
-0.00644315,-0.0693352
-0.068212,-0.052374
-0.1019,-0.00855643
-0.0642961,0.0454342
-0.0278561,0.0224893
0.0190594,0.042396
0.10401,0.0762024
0.116998,0.0204059
0.0224693,-0.0904716
-0.0439321,-0.128419
-0.0559138,-0.0532835
-0.0102967,-0.0150769
0.0535659,-0.00424674
0.075781,-0.00141239
0.0557238,0.00484984
0.0198411,0.0259275
0.0114297,0.0385854
0.00123817,0.00293798
-0.000159303,-0.0292411
0.00824116,-0.0176803
0.0276613,0.0513207
0.0414396,0.0421312
0.036289,-0.0233359
-0.00373716,-0.000955116
-0.0446801,0.0325586
-0.0080822,0.0135748
0.0208648,-0.0126968
-0.0102669,0.0170832
-0.0368929,0.00769691
-0.013092,-0.0214434
0.0359205,0.0166458
0.0465609,0.0295794
0.0105612,0.019534
-0.0175443,0.0396048
-0.0447655,-0.029025
-0.030631,-0.0174464
-0.00678954,0.018409
-0.018364,-0.0140148
-0.0214382,-0.0281783
-0.0108595,-0.0681657
0.0232459,-0.112531
-0.000451312,-0.0249531
-0.023626,0.0545616
-0.0557465,0.057183
-0.0303282,0.00578317
0.0074002,-0.00886725
0.0144718,0.0464985
-0.00316503,0.0272026
-0.0570508,0.0275737
-0.0665019,0.130535
0.0305939,0.0560175
0.0326001,-0.107394
-0.0181648,-0.0520166
-0.0278806,0.0149441
0.0142051,-0.0316204
0.0586715,-0.0660244
0.0657565,-0.0535398
0.0219688,-0.0413526
0.00401161,-0.0287185
0.0267073,-0.0457742
0.041414,-0.037499
0.0376369,0.0660179
0.0514988,0.0752895
0.0246062,0.0193851
-0.00479955,0.00751171
-0.0201861,-0.000707514
-0.0540738,0.0325732
-0.091516,0.0326643
-0.0685892,0.0859705
-0.0448139,0.0223094
-0.0766019,-0.0179757
-0.162576,0.129459
-0.0839331,-0.0541014
0.0480069,-0.142619
0.13286,-0.0694841
0.127873,0.00968261
0.0977792,-0.00664364
0.0540955,-0.0362756
0.0258938,-0.00631552
0.0071069,-0.000791143
-0.0230514,-0.0160479
-0.0602825,-0.00791349
-0.045523,0.000610385
-0.0162493,-0.0130942
-0.0171122,0.0393113
0.0379785,0.0341214
0.109816,-0.0376397
0.0981149,0.0419587
0.0477296,0.0938762
-0.0220403,-0.0208451
-0.082915,-0.0168448
-0.108715,-0.0103849
-0.0331101,-0.0343676
0.03629,-0.0215893
0.0264929,-0.0136808
0.0221439,-0.0164584
0.0175152,0.0432389
0.016195,0.0812211
0.0196431,0.0199285
0.0250539,-0.00784911
0.0341532,-0.0581508
0.0163804,-0.0839088
0.00994491,-0.0176555
0.0169256,0.00211571
-0.0191726,0.010592
-0.00804131,0.0442442
0.0106979,0.0341375
0.014357,0.0292077
-0.00615472,0.000383078
-0.0783907,-0.0186383
-0.116913,0.055066
-0.0885939,0.199274
-0.0398028,-0.0258592
0.009081,-0.141312
0.0176652,-0.0664173
0.00915226,-0.0766935
-0.0137135,-0.0774694
-0.0173302,-0.0303237
-0.0283479,0.0426884
-0.0444993,0.0720204
-0.0066305,-0.00871628
-0.0312993,-0.0586469
-0.0411623,0.0174994
0.0101105,0.0621541
0.122012,0.0214576
0.179144,0.0124819
0.185416,-0.0243346
0.13071,0.008785
0.0865746,0.0819654
0.0301388,0.0277151
-0.0183429,-0.0390666
-0.0695579,-0.0530944
-0.100633,-0.0354207
-0.102006,-0.0674316
-0.139745,-0.0366197
-0.174998,0.0352354
-0.0785504,0.0704516
0.060995,0.0306571
0.0875158,0.0304267
-0.0290218,0.00309755
-0.180288,0.0370227
-0.194785,-0.0238457
-0.133461,-0.0334978
-0.00740432,-0.0135238
0.104247,-0.0703904
0.109383,-0.033928
0.102061,0.0551835
0.104452,0.0471053
0.118627,0.00117261
0.155655,0.00433583
0.132061,0.00339066
0.0920002,-0.00398465
0.0477578,0.079444
-0.0489031,0.115996
-0.0948068,-0.0180131
-0.0716692,-0.128586
-0.0525373,-0.114933
-0.0488265,-0.0109469
-0.00153749,-0.00812268
0.0490978,-0.0208656
0.0113356,0.00907493
-0.0333816,0.0265497
-0.0469448,0.00747131
-0.00569264,-0.000259889
0.00931259,0.0492786
-0.00373712,0.042884
-0.0180818,0.000354461
-0.0120219,-0.0190155
-0.00308518,-0.0376757
0.0125295,0.00615409
0.0454321,-0.0110981
0.022261,0.0172862
0.0249877,0.0540709
0.0586447,0.037646
0.0196124,-0.10166
-0.0608281,-0.0339175
-0.12566,0.00541131
-0.123928,0.0181069
-0.05268,0.0491052
0.0858166,-0.0234131
0.181809,-0.0536273
0.231333,0.00821206
0.240244,-0.0130865
0.0957376,0.0172978
-0.0878296,-0.0258389
-0.211136,-0.0706711
-0.260773,0.0191736
-0.149929,0.0649075
0.0111901,0.0356947
0.099248,0.0356474
0.0896215,0.056066
0.030741,0.0820096
-0.00908836,0.100495
0.0102444,0.0453149
0.00974183,-0.0431067
-0.0650237,-0.0691542
-0.0995653,-0.104102
-0.114554,-0.0836751
-0.0907851,-0.0228256
-0.0244688,-0.0399032
0.0182674,0.0128426
0.00806391,0.0691095
-0.0632906,-0.0156809
-0.112733,-0.0325142
-0.0584855,-0.0404268
0.00980923,-0.0307926
0.0486415,0.00495573
0.0217606,-0.0647576
-0.00656645,-0.049516
-0.0128909,0.00861048
-0.0160413,0.0315415
0.0311089,0.0156705
0.0401042,0.0423957
0.0559359,0.0534731
0.0453273,0.0726424
0.0959873,0.0245579
0.163617,-0.0153283
0.110827,-0.0284273
-0.0292313,0.00501602
-0.0384735,-0.027986
0.0554544,0.000797669
0.108137,0.029716
0.0581643,0.0214805
-0.0020984,0.0221782
0.0059003,-0.0481583
-0.0168099,0.026225
-0.0407094,0.0836143
-0.0299875,3.02e-05
0.0408698,-0.065525
0.0310998,-0.00959547
-0.0825666,-0.017945
-0.0273868,-0.0813537
0.0227807,-0.00813592
0.0500667,-0.0187147
0.0956955,0.0329017
0.0546985,0.0449944
-0.0447157,0.0882986
-0.155894,0.0462269
-0.178752,-0.0793693
-0.164811,-0.0799622
-0.106241,-0.0153902
-0.0278968,0.0287608
0.0399495,0.0132907
0.0840088,-0.0439946
-0.0143998,-0.0141283
-0.0543569,0.104772
-0.151505,0.0487928
-0.244322,0.0234543
-0.0536487,0.0736486
0.223415,-0.108272
0.28161,-0.134798
0.166746,-0.0893315
0.0466511,-0.074528
0.0425127,-0.0161557
0.00642864,0.0252234
0.0343907,0.0169248
0.0450926,0.082826
-0.0113988,0.171675
-0.0083885,0.069454
0.0101376,-0.0637776
-0.0436613,-8.65e-05
-0.0681511,0.0376198
-0.0166182,-0.0229782
0.0187237,-0.00572652
0.00168469,-0.0312384
0.00343436,-0.0449596
-0.0163485,-0.0170114
-0.0560899,0.127353
-0.0134573,0.0292086
0.0719753,-0.126407
0.0887529,-0.0838373
-0.0241456,-0.0353759
-0.130143,-0.0153413
-0.106346,-0.00866551
-0.0155481,0.104977
0.0448223,0.0834624
0.0782333,-0.0175894
0.0433926,0.0664598
-0.00232211,0.0394759
-0.0233458,2.1e-05
-0.0555024,-0.00545735
-0.061414,-0.0924866
-0.0640284,-0.0463322
-0.0623566,-0.049351
0.0213244,0.0201938
0.130955,0.0929832
0.148732,0.0469493
0.0853838,-0.0340345
-0.0014035,-0.0487456
-0.0400935,-0.0425836
-0.0461807,-0.0413836
-0.0664875,-0.0232101
-0.0565309,0.0380667
-0.108614,0.102604
-0.146756,0.0490206
-0.0305205,-0.00427752
0.051518,-0.0829224
0.151473,-0.082198
0.162885,-0.000829567
0.0353768,0.018367
-0.00730649,-0.000618221
0.0430506,-0.0415878
0.0707065,-0.0124874
0.0977374,0.039034
0.0573103,0.0433174
0.00165374,-0.0528116
-0.0380085,-0.0293792
-0.0487811,0.0198069
-0.0453681,0.01831
-0.0680584,-0.0271158
-0.14666,-0.0760974
-0.119896,0.0231476
0.0664408,0.0843732
0.128445,0.00290178
0.0247513,0.016176
-0.0100708,0.0581291
0.0466145,0.0742436
0.0392772,-0.00856842
-0.0292732,0.0759802
0.0217617,0.225166
0.0849605,-0.0252903
0.0390681,-0.108941
0.107377,-0.0930898
0.156244,-0.0703852
0.0870834,-0.0484773
-0.0573761,-0.0780195
-0.241636,-0.034933
-0.339062,0.0239707
-0.188592,-0.0377343
0.0491305,-0.0330793
0.163421,0.0191281
0.100147,-0.0204079
0.0447635,-0.035967
-0.0842784,-0.0562625
-0.234232,-0.0234658
-0.197196,0.0126173
-0.0868295,0.0762703
-0.00914094,0.10356
-0.00260129,0.120473
0.0128659,0.0942622
0.0812399,-0.0421352
0.0847338,-0.0894233
0.0991596,-0.0577695
0.0911367,0.0169538
0.012464,0.0488625
-0.0297315,-0.0117675
-0.018745,-0.043089
-0.0492668,-0.0411548
-0.0684078,0.0125367
0.00273475,0.0930274
0.0620757,0.0437443
-0.0225956,0.0697235
-0.0659192,-0.00102401
-0.0222616,-0.116948
0.0202226,-0.0852176
0.0541921,-0.0495503
0.133218,-0.0404289
0.152342,-0.087552
0.176186,-0.0110462
0.175385,0.0717689
0.106847,0.105619
0.0516324,0.038561
-0.0557072,0.0336504
-0.166447,0.0873263
-0.144087,-0.0179971
-0.149189,-0.02056
-0.0911412,0.0030594
-0.003419,-0.0202781
0.0402682,0.0181706
0.0490501,0.0817586
0.077205,-0.0532158
0.0366676,-0.140774
-0.0173396,-0.101568
-0.0700128,-0.0525461
-0.099409,0.0153468
-0.091205,0.0908532
-0.0438606,0.0908881
-0.0593424,0.241796
-0.0556387,0.0290969
-0.00313538,-0.157539
0.0515581,-0.0832876
0.075749,-0.0601096
0.0756547,-0.0130703
0.0704737,-0.00839727
0.04481,-0.00877909
0.0255882,0.0479473
0.000631645,-0.0417593
-0.0555132,-0.0485361
-0.0601854,-0.0166131
-0.0331334,0.00478564
-0.00256388,0.0015892
0.0445227,0.0135595
0.0972805,0.0310772
0.0674627,-0.0151665
0.00661188,-0.0521501
-0.019967,-0.0269095
-0.00246586,0.0586748
0.0109703,0.0656556
0.0417654,-0.0104098
0.00389138,-0.0226227
-0.0388118,0.0302626
-0.0691559,0.0267783
-0.0893034,-0.0267082
-0.0649497,-0.0133786
-0.0816409,0.0339223
-0.0746323,0.0413187
-0.00258302,-0.00402044
0.0465041,-0.00166164
-0.016777,0.00135624
-0.0160725,-0.00490818
0.101488,0.0236896
0.148466,0.0291022
0.117843,0.0333288
0.162981,-0.00288441
0.208397,-0.0548293
0.1687,0.0334144
0.0616627,0.110916
0.0499067,-0.0328078
-0.0196785,-0.130188
-0.163156,-0.0662382
-0.262938,-0.0329156
-0.334334,-0.00616768
-0.262046,0.0457021
-0.111766,-0.0119903
0.017289,-0.031902
0.0676886,0.0249344
0.0515056,-0.0476747
0.000817077,0.0264948
-0.0111229,0.0324898
0.0426802,-0.0155944
0.0833749,-0.0242981
0.11134,0.0810103
0.103788,0.110975
0.0850934,0.0432466
0.0513565,-0.0476857
-0.0288079,-0.0662672
-0.0587429,-0.0206464
-0.0823351,0.0259371
-0.0911392,0.00558258
-0.0477274,0.000887636
-0.00553819,0.0152981
0.00238338,-0.012915
-0.0170736,-0.0285316
-0.0285739,-0.0357015
-0.00560448,-0.0395815
0.00643906,0.0140019
0.00929578,0.109186
-0.0239085,0.117855
-0.0454907,-0.0548806
-0.00374163,-0.0830661
0.0216065,-0.0686684
-0.0144069,-0.0512236
-0.0274338,-0.051097
0.0141675,-0.0176575
0.0233939,0.0273851
0.029059,0.0104365
0.0452189,-0.0360376
0.104083,0.100438
0.168956,0.0906116
0.157307,-0.0607947
0.0547622,-0.0401889
-0.028457,-0.0605302
-0.0818151,0.00209867
-0.0667576,0.0664309
-0.0590029,0.037594
-0.0842926,-0.0225811
-0.0813134,-0.028291
-0.0548545,-0.00947933
-0.0553461,0.00164751
-0.0364742,0.0126494
0.0148387,0.0337082
0.0515249,-0.0204733
0.0572263,0.0112258
0.0306594,0.104629
-0.00114178,0.0677621
-0.000167373,0.00474944
0.0425146,-0.0991378
0.0865191,-0.0492467
0.0596176,-0.0438727
0.0211536,-0.0446598
-0.00683155,-0.027166
-0.0548226,0.0261153
-0.0928918,0.064262
-0.114612,0.0328709
-0.133286,-0.0482485
-0.11292,-0.0355299
-0.00152116,-0.0172908
0.115676,-0.00583068
0.173133,0.0168517
0.106327,0.0306228
-0.0222247,0.0285235
0.0176289,-0.000263353
0.0858517,-0.0132087
0.0490425,0.00185575
0.009458,0.0136299
0.0290341,0.0380749
0.0012845,0.000992566
-0.103936,-0.0174591
-0.158136,-0.0180584
-0.118788,-0.0337672
-0.0587975,-0.00646007
-0.0258154,0.0112027
0.00527147,-0.0395722
0.0567998,-0.0104726
0.0934547,0.073335
0.0599381,0.0829143
0.0274083,0.0152037
-0.00470671,-0.0209692
-0.0503602,-0.0141245
-0.0626984,-0.0348195
-0.0368424,-0.0320189
0.0106056,-0.0243297
0.0495601,-0.0102746
0.0408485,0.00328044
0.0136171,0.00571141
0.0056527,-0.0192265
-0.0169288,-0.0314788
-0.0930271,0.0229493
-0.0863354,0.112967
-0.058491,0.0617153
0.0110559,-0.0162153
0.144499,0.0230601
0.168437,-0.0165848
0.0948986,-0.00137695
0.0934086,0.02183
0.117592,-0.0437567
0.0888348,-0.0644981
-0.0125854,-0.0313011
-0.0879292,0.0166538
-0.0980651,0.000950628
-0.0992611,-0.0206421
-0.121808,0.115318
-0.124462,0.0618395
-0.0876204,-0.0573358
-0.0978874,-0.0840394
-0.105868,-0.033952
0.0239519,-0.0322067
0.162408,0.0113351
0.142017,0.0222775
0.0367581,0.00327258
0.00610848,0.0221688
-0.0278884,-0.0409537
-0.0991198,-0.0510242
-0.0666385,-0.0338343
-0.0179712,-0.00601646
0.0584836,0.0179755
0.106254,0.0196146
0.0585976,0.0567711
0.0126399,0.1191
0.0249883,0.0306135
0.032279,-0.127455
0.0208274,-0.0752348
0.00118518,-0.00766446
0.0156838,0.0339166
0.0526536,0.0580772
0.0610729,0.0660684
0.0610569,0.0303704
0.0249345,-0.00514111
-0.0162217,-0.0440274
-0.067483,-0.059179
-0.0879185,-0.0610756
-0.0741955,-0.0358995
-0.0246601,0.00343545
0.023789,0.0469052
0.0129207,0.0323064
-0.0500382,0.00381971
-0.02413,-0.0258341
0.00607033,0.00357555
-0.01381,0.00930936
0.00894787,-0.0116598
0.0178262,0.00485636
-0.020772,0.0283682
-0.110472,0.0459503
-0.145873,0.0362277
-0.0696377,0.0268794
0.0127792,-0.0482092
0.0415109,-0.0313691
0.0495713,-0.00413519
0.0478853,-0.0252814
0.0697492,0.00127979
0.0531964,0.000193889
-0.0130346,0.0154003
-0.0323002,0.0487856
0.00679562,-0.0162767
0.0121587,-0.0580277
0.00431798,-0.0201585
0.0446092,0.0283241
0.168631,-0.00538359
0.284637,-0.0382166
0.304586,-0.0115696
0.220448,0.0208367
0.0219988,0.0447155
-0.208004,0.0982759
-0.328428,0.0654937
-0.30231,-0.0347692
-0.22318,-0.0431754
-0.154938,-0.050945
-0.108141,-0.0437372
-0.0559143,-0.0510745
0.0674057,-0.0209697
0.190877,0.0162724
0.19745,0.0326398
0.0882472,0.045634
-0.0350908,-0.0180234
-0.101473,-0.00721629
-0.151781,0.0374771
-0.156465,0.0831157
-0.126523,-0.00856786
-0.00431996,-0.0619149
0.0802592,-0.0266275
0.0897955,-0.00815624
0.0806217,0.00519163
0.0929633,-0.0147789
0.0891087,-0.00856678
0.0462349,0.0163041
0.0197442,0.00987013
-0.0263798,-0.0700082
-0.074809,-0.0283317
-0.0602556,0.0324249
-0.0246856,-0.0165348
0.0466685,0.0866564
0.104073,0.0844828
0.0507684,-0.034123
0.0156117,-0.0580859
0.024299,-0.0533337
-0.04489,-0.00150118
-0.0610339,0.00273548
-0.00910431,-0.0328484
0.0779163,0.0197126
0.100197,0.071251
0.0702023,0.0082569
0.0109955,-0.0207718
-0.0566369,0.0323499
-0.0936148,0.0990801
-0.0872283,0.00897062
-0.0513431,-0.0387824
-0.0014425,-0.0109711
-0.0127337,0.0113504
-0.0107754,-0.00442573
0.000881469,-0.0499687
0.00653805,-0.0668423
0.0013927,-0.07586
0.0130172,-0.00990706
-0.0073579,0.022054
-0.0292936,-0.0764269
0.009896,0.0174622
0.0312757,0.0631223
0.0188585,-0.0106081
0.00375436,-0.0605965
-0.0248644,-0.0480966
-0.0379488,0.0359312
-0.0175237,0.0544782
-0.00330334,0.0150613
0.0023517,0.026965
0.0400413,0.0375562
0.073657,0.0453924
0.0788335,0.0307939
0.0534376,0.0030196
0.00561034,0.00184595
-0.00969606,0.021882
0.0171098,0.0250883
0.0952352,0.0255011
0.116002,0.0480241
0.0160616,0.0213728
-0.106904,-0.0293399
-0.154979,-0.0891211
-0.137454,-0.0295842
-0.107741,0.0125949
-0.0957609,-0.0478547
-0.0861424,-0.0161958
-0.00169483,0.0626214
0.104785,0.00570791
0.122805,-0.0453914
0.0688212,-0.0370002
0.00931405,-0.00626319
0.0236321,-0.0296595
0.0358455,-0.0323102
0.0460026,-0.00465646
0.0485202,0.0202816
-0.0249319,0.0275803
-0.0573255,0.00965652
-0.0195918,-0.000882695
-0.0326374,0.00372402
-0.0675274,0.00612967
-0.0494911,0.00831546
-0.00309305,0.010951
0.0289395,0.0256475
0.0363912,0.0564321
-0.0045574,0.0619472
-0.048644,-0.0541182
-0.0609825,-0.0752417
-0.03721,-0.0779558
-0.0180389,-0.0459955
-0.0136628,0.00140026
0.0161111,0.0712782
0.0326739,0.0421695
0.0407772,0.00640288
0.0887693,0.0188836
0.123183,0.0309937
0.094044,0.0252031
0.0340336,-0.0232966
-0.033753,-0.0293327
-0.0276591,-0.00416224
-0.00555166,-0.0105798
-0.0278421,-0.027512
-0.0414319,-0.0191
-0.0219146,-0.0133273
-0.00955321,-0.0220034
-0.043939,-0.0335302
-0.0697393,0.00518072
-0.0615618,-0.0264591
-0.0387328,-0.0240728
-0.00562125,0.0451399
0.00568245,0.115202
0.0126014,0.0475688
0.0298601,0.00581095
0.0295955,0.0315551
0.0192368,0.0417563
0.0273596,0.000612625
0.0574271,-0.00499956
0.0659924,-0.0367696
0.0331968,-0.0133539
0.00449623,-0.053045
-0.00726022,-0.0390448
0.0194442,-0.0199104
0.00740743,-0.0204372
-0.0274648,-0.0200032
-0.0225385,-0.00209809
-0.00450941,0.0135585
-0.0255441,0.023303
-0.06958,0.0130013
-0.0577726,-0.00679948
-0.026182,-0.00751796
-0.0140636,0.0117981
0.00506259,0.0568152
0.0716869,0.0119838
0.104594,-0.0458889
0.0774167,-0.012121
0.0307481,0.0264094
-0.0423475,0.0118278
-0.121654,0.0406913
-0.177675,-0.00661852
-0.141681,-0.0550724
-0.0797177,-0.0136976
-0.0212546,-7.25e-05
0.0673764,0.0280846
0.175409,0.00397564
0.212793,-0.0345089
0.10233,-0.0487545
0.0160256,-0.0568304
0.0123641,-0.0367417
0.00116933,0.0114517
-0.0181078,0.0496072
-0.0170483,0.0205015
-0.0108372,0.0187847
0.0116492,0.0412193
0.0404977,0.0222994
-0.023138,0.0256741
-0.0696819,0.043852
-0.00247216,0.0421487
0.0165405,-0.00409276
-0.112067,-0.0487807
-0.246483,-0.0164888
-0.237952,0.0287683
-0.102638,0.0258799
0.0593882,-0.0259888
0.216245,-0.0372794
0.251968,-0.0266626
0.155233,-0.0302015
0.102716,-0.0417585
0.038717,-0.0479607
-0.0256935,-0.0327776
-0.0184756,0.00509274
0.00162364,0.0624546
-0.0445813,0.0697236
-0.101755,-0.0248505
-0.105911,-0.0502522
-0.0960911,0.00546448
0.00747801,0.0479294
0.0698806,0.073104
0.0430552,0.00941271
0.128402,-0.0313329
0.175761,0.0548926
0.0901097,-0.0168789
-0.0386618,-0.0602725
-0.0729724,-0.000742204
-0.0349476,0.0819062
-0.046714,-0.0228132
-0.101949,-0.082329
-0.120254,-0.0138191
-0.114303,0.0494084
0.00373891,-0.0236068
0.109555,-0.0564347
0.117307,-0.00585443
0.145475,0.00298443
0.145945,0.0159984
0.0383975,0.0219407
-0.0712239,-0.00275507
-0.107041,-0.0140657
-0.116692,0.0365283
-0.134859,0.0241234
-0.0814522,-0.0228613
-0.0163363,-0.0292442
-0.00315117,0.0118078
-0.0464436,0.0135588
-0.0358122,0.0054014
0.00507226,0.0112563
-0.00950313,0.00873225
-0.0662164,0.0186128
-0.0375123,0.0141982
0.0711645,-0.0228632
0.152505,-0.00487474
0.151357,-0.0276552
0.0818426,-0.0230105
0.0139985,0.014005
-0.0711566,0.011769
-0.144139,-0.0251277
-0.132322,-0.0199644
-0.0610009,0.00104591
-0.00752917,0.0442801
0.0347922,0.0305084
0.0648451,-0.0176531
0.0758519,-0.0100145
0.12192,0.0264241
0.130077,0.0194669
0.115478,0.0298769
0.111515,-0.0105497
0.030433,-0.0674793
-0.078493,-0.0417712
-0.161358,-0.0251122
-0.157593,0.00827095
-0.094264,0.0184632
-0.0230721,0.0270575
-0.0251836,0.0150654
0.00930825,-0.0421907
0.0407515,0.0132744
0.0450089,0.0734081
0.0338043,-0.00617878
0.0234185,-0.0370223
0.0313844,-0.0398001
0.0195932,-0.0471609
-0.0569223,-0.025953
-0.0860881,-0.0169065
-0.0809543,0.0829838
-0.0482555,0.0854727
-0.030038,0.00399198
0.0396499,0.0138729
0.0823994,-0.000367912
0.0468716,-0.0582029
0.00268561,-0.0407519
-0.000215469,-0.0308403
0.0366488,-0.0144026
0.0578427,0.06357
0.0438786,0.0451232
-0.00244056,0.0448874
-0.0496658,0.0189649
-0.0589966,0.0143901
-0.0421377,0.0415856
-0.0265561,-0.0016214
0.0422452,-0.0429278
0.111738,-0.0481257
0.12063,-0.0141791
0.0983465,-0.00261962
0.0269748,0.000131377
-0.0333459,0.00606298
-0.0316601,-0.019825
-0.00980054,-0.0195341
-0.0107292,-0.0150493
-0.0355959,-0.0338742
-0.0229618,-0.0312679
-0.00771341,-0.00373732
-0.0400936,0.0268242
-0.0567917,0.0351347
-0.0464557,-0.0264652
-0.0389598,-0.0670219
-0.0371736,-0.00423612
-0.0418667,0.0627309
-0.0363805,0.0468771
0.0145731,0.0135051
0.0322551,0.0207204
0.00502307,0.0222298
0.0336021,-0.00331977
0.0277022,-0.0086323
-0.00283482,0.00960571
-0.0273032,-0.00212406
-0.00913345,-0.00472223
0.0437628,-0.00929393
0.0344009,-0.0273385
-0.00316295,-0.026655
-0.0178659,-0.0154741
-0.0473746,-0.025881
-0.0415656,-0.0224658
0.00590109,0.0217245
0.0053002,0.0319328
-0.00732222,-0.000282191
0.0415294,0.0677242
0.0552793,0.135293
0.060652,-0.0452523
0.0740213,-0.101142
0.0462494,-0.0366082
-0.00427819,0.0202296
-0.104713,0.023519
-0.118166,-0.0444002
-0.0573453,-0.0378413
-0.010514,0.015761
0.0340972,0.0287532
-0.00859791,-0.0171647
0.000889933,0.0203732
0.098508,0.0420711
0.143069,0.0141539
0.0786653,0.0043089
-0.0236427,-0.0302113
-0.0587133,-0.0574593
-0.0510654,-0.0403033
-0.0347469,-0.0235628
-0.0519023,0.0275453
-0.0401544,0.0620647
-0.00289562,-0.0034492
0.0584736,-0.0493008
0.0669786,-0.0652901
-0.028889,-0.0215152
-0.0646362,0.0519309
-0.0492736,0.0392732
-0.0290226,0.00784777
-0.00572448,-0.00306838
0.0303355,0.0376417
0.0179491,0.021267
-0.00428183,0.012268
-0.00232365,0.0590529
0.0151314,0.0107802
0.00439118,-0.0100626
-0.0368047,0.0127558
-0.066093,0.0181623
-0.0482174,-0.0409969
-0.00747513,-0.041401
0.0275076,-0.00613252
0.0475692,0.0149163
0.0407544,0.0161863
0.0238,-0.028304
0.0371862,-0.0292859
0.0566431,0.00888519
0.0643775,0.00199012
0.0443072,-0.0221849
0.0540725,0.00865918
0.0490993,0.0179811
0.00210286,0.000359107
-0.0510841,-0.0130104
-0.0728343,-0.000691196
-0.0596037,0.0343242
0.00219687,0.00203572
0.0173795,-0.0121549
0.000627352,-0.0336666
-0.00398812,-0.0264221
-0.0127866,0.0030093
-0.0350675,0.0688873
-0.0538981,0.129259
-0.065464,0.060399
-0.0654159,-0.0956179
-0.0654259,-0.115672
-0.0479222,-0.0513073
-0.020758,0.00560222
0.0391947,-0.0266211
0.120963,-0.0340129
0.106326,0.00730348
0.0432935,0.0496061
0.0281392,0.0126733
0.0468257,-0.021877
0.0314326,0.00427657
-0.039312,0.00148581
-0.0143472,-0.0213363
0.00544639,-0.0244096
-0.031709,-0.0139402
-0.0555206,0.0101099
-0.0512383,0.0206686
-0.037332,0.0128157
-0.00535574,0.016829
0.0181283,0.0088796
0.00842775,-0.0075002
0.0340143,0.00581795
0.0613053,0.0148567
0.0187855,0.0438224
-0.0176412,0.0320567
-0.0244187,-0.0148215
-0.00124423,-0.0372361
0.00489687,-0.0435546
-0.00571869,0.00558584
0.00949141,0.0347974
-0.022856,0.0169748
-0.0224676,-0.0242631
0.00877512,-0.00188134
0.0210784,0.0247843
0.00670459,0.00113851
-0.0122361,0.00404875
-0.0599147,0.0213994
-0.0175566,-0.00104313
0.0567965,0.0335823
0.0877447,0.0351227
0.0557946,-0.0375308
0.0103821,-0.0286363
-0.00834427,-0.0303638
-0.0399568,-0.0280588
-0.0862882,0.024534
-0.0733529,0.0388892
0.0104112,-0.0202735
0.0289377,-0.0419438
0.0187263,-0.0263155
-0.00197459,-0.000253714
-0.0132723,-0.0240577
-0.0551135,-0.041108
-0.0890966,-0.0292687
-0.0177014,-0.000549263
0.0634067,0.084438
0.0623096,0.181294
0.0206919,0.0230665
-0.023514,-0.075973
-0.00880715,0.00259134
0.0072666,-0.0108953
0.0044853,-0.0730881
0.0316771,-0.0306013
0.0661677,0.0130881
0.0625501,0.00767365
0.0657404,-0.000198348
0.104981,-0.0231373
0.0902728,-0.0294578
0.0271934,0.0106846
-0.0325634,0.061984
-0.082561,0.0436357
-0.14223,-0.0257599
-0.154567,-0.0227388
-0.119899,-0.0412695
-0.10571,-0.0340765
-0.034714,-0.038056
0.0539662,0.0185868
0.0364557,0.0308371
0.0104821,-0.0100413
0.0114883,0.00322546
0.00954014,0.0444209
0.0291971,0.0457106
0.0783582,0.0263024
0.156261,0.0325262
0.156434,0.00275677
0.113061,-0.0237092
0.0811341,-0.00725624
0.0182376,-0.00988563
-0.0875081,-0.0152066
-0.121644,-0.0163448
-0.101133,-0.0256942
-0.0928281,-0.0230139
-0.0894243,0.00194063
-0.0700451,0.0341715
-0.0828693,-0.00219518
-0.082392,-0.00379237
-0.00543335,0.000237737
0.0487834,0.025509
0.0233282,0.0593498
0.0212712,0.018107
0.0551918,-0.0281012
0.0555198,-0.0482674
0.0166974,-0.0507314
0.00135989,-0.0391706
0.0131397,-0.0269653
0.0283183,0.0128258
0.0611404,0.0484013
0.0700724,0.0290567
0.0295092,0.0108772
-0.0263471,0.028896
-0.0530814,0.0331242
-0.0566795,-0.00160837
-0.0581872,-0.0339477
-0.0427001,-0.0142615
0.0114395,-0.0047614
0.0428775,-0.00250316
0.0219417,0.0223512
0.00830587,-0.015063
0.0260281,-0.0433036
0.0219398,-0.0246028
-0.0121868,-0.0257655
-0.0386813,-0.00806768
-0.0111799,0.0436333
0.0141709,0.073067
0.00916505,0.00911405
-0.00855254,-0.0353028
-0.00136662,-0.0115472
0.0162088,0.00708604
-0.0027962,0.00465977
-0.01949,-0.0285269
0.0358424,-0.0395163
0.0570592,0.048969
0.0128434,0.0689528
0.0256509,-0.0358847
0.0494036,-0.0348277
0.0224381,0.0269259
-0.0426797,0.0409716
-0.0719869,0.0145073
-0.0798933,-0.0312333
-0.0767752,-0.00209994
-0.0502211,-0.0139165
0.000128489,-0.0544812
0.0231449,0.00404985
0.0221024,0.0289912
0.00180586,0.00511441
0.0187669,-0.00760128
0.0165634,0.000392591
-0.00896223,0.00104214
-0.0124129,-0.000923086
-0.0180367,0.016229
-0.0190517,0.0408319
-0.00621615,-0.00256498
-0.00906718,-0.0526996
-0.0339901,-0.0452123
-0.0253807,-0.0276778
0.0194883,0.00837967
0.10607,0.0197615
0.169038,0.000195972
0.154742,-0.0120311
0.0719787,-0.0131241
0.00768271,0.0229496
-0.0613617,0.0131788
-0.125233,-0.0108523
-0.123017,-0.00987999
-0.0790867,-0.00697251
-0.0462843,-0.020358
-0.0393676,-0.0266781
-0.0157834,-0.00612174
0.00945622,0.0696603
0.031918,0.0735576
0.0484351,0.0125714
0.0360673,0.00525158
0.0320855,0.0143194
0.0246569,0.034512
-0.0207422,0.012151
-0.0417843,-0.0418225
-0.0278751,-0.0293626
-0.00589187,0.00486231
-0.00687323,0.0070641
-0.0120528,-0.000543737
-0.00927718,0.0135475
-0.00192721,-0.0452297
-0.0103409,-0.0487105
-0.00402562,-0.00742088
-0.00945308,0.00937235
-0.0264811,0.00770236
-0.0115053,0.00228095
0.0148812,-0.00191836
-0.000340449,-0.00212186
0.00575179,0.0189081
0.0459769,0.028462
0.082182,0.00888191
0.0500434,-0.00868232
0.0290746,-0.0221313
0.0381749,0.00919449
0.0603784,0.0490047
0.0804809,0.00566086
0.0447442,-0.0321992
-0.00551407,-0.0200211
-0.000125668,-0.0090331
-0.00787887,-0.00353768
-0.0439955,0.000466291
-0.069983,0.00039697
-0.0988339,0.00489256
-0.116137,-0.0181084
-0.0894165,-0.0283394
-0.0341996,-0.0205166
0.00771665,0.00482229
0.0266046,0.0145302
0.0123728,0.00999787
0.0113807,0.0565587
-0.00334898,0.106319
-0.0343875,-0.0239542
-0.020406,-0.0912767
0.00542088,-0.012199
0.000344865,0.0049416
-0.0220896,-0.00309971
-0.0106059,0.0132946
0.00457616,0.00919021
0.00893233,-0.00860853
0.0757238,-0.00955931
0.0932965,-0.0211916
0.0683589,-0.0169131
0.0341787,-0.0056632
0.006391,0.00475903
-0.0314842,-0.00193683
-0.0635396,-0.0291526
-0.0227702,-0.032023
0.0604109,0.0149294
0.086732,0.0309094
0.0507572,0.000813167
0.015235,-0.0161002
-0.0217335,0.00197106
0.0032114,0.0200521
0.034736,0.0178178
0.0385749,0.00336039
0.0294358,0.00490067
0.00626002,0.0147651
-0.0364347,0.0332745
-0.0689217,0.077925
-0.109612,0.0449889
-0.128636,-0.0303515
-0.0659951,-0.00944812
0.0181534,0.00914795
0.0542016,-0.03409
0.100299,-0.0694926
0.12059,-0.0524375
0.0742815,-0.00489897
0.0287837,0.032242
-0.0477005,-0.00091092
-0.0990121,-0.0155154
-0.114964,-0.00764792
-0.147859,0.000474974
-0.114859,-0.00935793
-0.0541844,-0.0141685
-0.0528852,0.013902
-0.0750451,0.0505839
-0.00121827,0.0291094
0.0426898,0.0143319
0.0567123,-0.0153716
0.0839361,-0.0398657
0.0812246,-0.024831
0.101013,-0.00847289
0.152417,-0.0215491
0.110814,0.0130114
0.05266,0.0537189
0.0291701,0.02968
-0.0363578,-0.0248596
-0.0947712,-0.017902
-0.112068,0.00437791
-0.0651424,-0.0278071
-0.00444596,-0.0301538
0.0350765,-0.00848347
0.0560428,0.00825087
0.0391386,0.0230339
7.49e-05,0.00197489
-0.0403453,-0.0228035
-0.0781851,-0.0268412
-0.102313,-0.0159108
-0.0882807,0.0167436
-0.0597808,0.0304289
-0.0258899,0.0280447
0.030665,0.00304763
0.0600423,-0.0186116
0.0460505,-0.0160126
0.0230308,0.00346969
0.048127,0.0316161
0.093924,0.0181884
0.0668208,-0.00600372
0.0227894,0.0548052
0.0256854,0.157085
0.0313558,0.0740429
0.00655083,-0.0779849
-0.0297158,-0.118115
-0.0544374,-0.0708601
-0.0498366,-0.0144808
-0.0259688,-0.0045664
-0.0416032,0.0192956
-0.0648085,0.0107974
-0.0339344,-0.0262192
0.0216387,-0.0458919
0.00946929,-0.0236276
-0.0149212,0.0060203
0.0013715,0.0106812
0.0436653,-0.0167378
0.0721748,-0.0336527
0.0988315,-0.0054711
0.100861,0.0331459
0.0598532,-0.00671107
0.0180412,0.0285898
-0.0219363,0.0783345
-0.0601846,0.0260844
-0.077117,-0.054777
-0.0586511,-0.0366462
-0.0345165,0.0200687
-0.034663,0.0241947
-0.0378693,-0.013844
-0.0412219,-0.0133773
-0.0420126,0.00751373
-0.0287299,0.0133846
0.00691053,0.0377172
0.0656316,0.0339151
0.121305,0.00150269
0.128036,-0.0129323
0.0691915,-0.00558219
0.000730117,0.0136422
-0.0861048,-0.000892376
-0.133918,-0.0138377
-0.117928,0.00435955
-0.0515769,-0.0184699
0.029068,-0.0596109
0.0937398,-0.0232301
0.0872268,0.0320735
0.0771318,0.024388
0.0537485,-0.00536117
0.0168198,-0.0293527
-0.0239076,-0.0305109
-0.0614152,-0.0172115
-0.09797,-0.00815456
-0.094177,0.0032203
-0.0725494,0.00569836
-0.0431302,0.00771841
0.0147252,0.00881536
0.065148,0.00305703
0.107149,-0.0146129
0.0555354,-0.00959801
-0.0292646,0.0111236
0.0330402,0.0327979
0.0347865,0.0731361
0.003829,0.0260679
-0.012526,-0.0140774
-0.00539571,0.000480112
0.00364684,-0.00485906
-0.00550113,-0.00941004
-0.0462333,0.044475
-0.0658313,-0.0142006
-0.0468172,-0.0267088
-0.0105176,0.0173043
0.019458,0.0450552
0.0265076,-0.00576963
0.0242574,-0.0988566
0.0197167,-0.0345866
0.0111751,0.0180901
-0.0344675,0.024039
-0.0762817,0.0364873
-0.0828191,0.0156413
-0.0553995,-0.0191537
-0.00907263,-0.0141507
0.0315043,0.0136414
0.0674533,-0.0270654
0.0594383,-0.0598943
0.0260251,-0.0287346
0.076723,-0.0345471
0.143264,-0.00562801
0.153173,0.0650197
0.107481,0.0143605
0.0612446,-0.00283882
0.00518565,0.00439366
-0.0977177,-0.00094123
-0.195837,0.02401
-0.160489,0.0180776
-0.0642882,0.016416
-0.0260502,0.00273655
0.00793819,-0.0328251
0.0131564,-0.0305447
0.0124549,-0.0205669
0.0172506,-0.0162065
0.00750443,0.0401741
0.0318287,0.0196375
0.0521873,-0.00889383
0.0423272,0.00788756
-0.0143799,0.0101286
-0.0786121,-0.0182203
-0.10232,-0.014431
-0.0470172,-0.0118229
-0.0100861,0.0174616
-0.0201151,0.0333059
-0.0304036,0.00155011
0.00198851,-0.0108163
0.0241335,0.0136423
0.0284899,0.0460641
-0.0126296,0.00554942
-0.0250662,0.0147125
0.018063,0.0439791
0.0442344,0.00638294
0.0552634,-0.0415657
0.0694089,-0.0321693
0.0795504,0.0203755
0.0773041,0.0289998
0.0465749,-0.0142624
0.0173045,-0.0541678
-0.0223665,-0.0643023
-0.0658313,-0.040304
-0.0731687,8.96e-05
-0.0298497,0.0145901
0.0445269,-0.000422242
0.0811124,0.0096123
0.0748541,0.0761702
0.0525258,0.0400145
-0.0268559,-0.0709577
-0.0775494,-0.0656803
-0.0994043,-0.0216349
-0.0937733,0.0281675
-0.0666006,-0.00937426
-0.0627801,0.0260348
-0.094043,0.125514
-0.0922659,0.0830491
-0.0314768,-0.0335086
0.0169081,-0.067456
0.0604247,-0.0471336
0.0891887,-0.0343468
0.108922,-0.01436
0.0796971,-0.00950367
0.0129669,0.00141313
-0.0194397,-0.00778044
-0.0148544,-0.0176036
0.00215162,-0.00560846
0.0593759,0.00790321
0.0701178,0.00178351
0.0610671,-0.00276046
0.0626655,0.00661406
0.0228304,0.0137675
-0.0867027,0.020004
-0.138002,0.0260164
-0.0601346,0.0520319
0.0128512,0.0121537
-0.00412863,-0.0184463
-0.0123788,-0.0062171
-0.0313734,-0.0250394
-0.0953863,-0.0105707
-0.0804563,-0.0172827
-0.0682356,-0.00920674
0.00273679,-0.0184979
0.0268183,-0.0296079
0.0421318,-0.0197041
0.0707137,-0.00861931
0.0580085,0.00848955
0.0440589,0.0164461
0.0406181,0.00573704
0.0679799,0.0386838
0.0988955,0.0671803
0.100176,0.0518404
0.0773027,0.037955
0.0365205,-0.0251623
0.0180066,-0.0284672
-0.013109,-0.00442571
-0.0952786,0.00165057
-0.126663,0.00938811
-0.141521,-0.0215741
-0.140561,-0.0443657
-0.0700403,-0.0199717
-0.00642338,-0.00110654
0.0363323,0.0183162
0.0831854,0.00414944
0.0692138,0.0110104
0.0460894,-0.0116905
0.0845028,-0.0211024
0.0720778,-0.0123336
0.00617963,-0.00246469
-0.0425862,-0.00374458
-0.0288114,-0.0218594
0.000572723,0.0129654
-0.018052,0.0995106
-0.0381724,0.0334586
-0.0764521,-0.0411215
-0.0761263,0.0137215
-0.0154025,0.0436689
0.0472166,-0.0440993
0.012382,-0.0718992
-0.0559611,-0.0363278
-0.0191974,0.000926994
0.0622702,-0.0186519
0.0775915,-0.0394916
0.050062,-0.000740589
0.002292,0.0288229
-0.0530714,0.0115529
-0.0997074,-0.000954094
-0.0797753,0.0576716
-0.0189935,0.0311463
-0.00716884,-0.0455618
-0.0342799,-0.0229145
-0.0443617,0.00680039
-0.0314852,0.0113073
0.00346331,0.00264446
0.0449522,-0.000170467
0.0466143,0.0274695
0.103127,0.0217127
0.124385,-0.00551409
0.0695127,-0.00650153
0.00535328,-0.00543079
0.0234818,-0.0395746
0.0816492,0.0208773
0.0440209,0.0990658
-0.000843963,-0.00907584
0.0416436,-0.0582512
0.0737296,-0.0220127
0.0707824,0.0332307
0.0882502,0.0514904
0.101321,-0.0223915
0.0318049,-0.0401765
-0.0887818,-0.0200076
-0.207452,-0.0354667
-0.301801,-0.0218015
-0.309972,0.0157056
-0.224427,-0.00807062
-0.0927385,-0.0219885
0.0572121,-0.0161623
0.125753,0.00243382
0.0758649,-0.00190817
-0.00825766,-0.00907671
-0.025276,0.0200065
0.0166148,0.0291169
0.0540644,0.0193919
0.113891,0.0492111
0.170529,0.0215254
0.138738,-0.0369436
0.0561127,-0.0507347
-0.00061489,-0.0275106
-0.0556563,-0.0042891
-0.0790119,0.0727808
-0.0136196,0.0341883
0.0122438,0.0113553
-0.0537825,0.0347356
-0.10827,-0.0120308
-0.112651,-0.049004
-0.0598947,-0.0447631
0.0273632,-0.028405
0.0922678,-0.0303024
0.110481,-0.0032088
0.0492141,0.0279802
-0.0383292,0.0279186
-0.0736795,-0.00435657
-0.0111196,0.000596702
0.0758396,0.0154298
0.11915,-0.00165773
0.115119,0.0172719
0.0850565,0.0144932
0.0313994,0.0375845
0.0589926,0.0329214
0.128752,0.000245949
0.0835318,-0.0342006
-0.0216162,-0.0522228
-0.0935615,-0.0575081
-0.186749,-0.00854599
-0.230126,0.070705
-0.190936,0.0249241
-0.155835,-0.0355525
-0.0932218,-0.011756
-0.0426373,-0.016354
-0.021845,-0.0197183
0.0243816,0.00583054
0.0720597,0.04714
0.0946216,0.0766478
0.123878,0.0021781
0.159187,-0.0394256
0.113672,-0.00731018
0.0421891,0.0141644
-0.0262919,0.00998671
-0.0810165,0.00164545
-0.101564,-0.0155499
-0.109668,-0.0118351
-0.0753539,-0.0249204
-0.00520448,-0.00132866
0.0432126,0.00686148
0.0805655,-0.00799656
0.112553,0.00377303
0.0941104,0.00428454
0.031613,-0.0269831
0.00138729,-0.0455606
-0.0204193,-0.0280177
-0.0369395,0.011071
0.0340771,0.0270391
0.0330231,0.028248
-0.0200233,0.0595744
-0.00990957,0.0116
-0.00513827,-0.0485021
-0.0117856,-0.016305
0.00172389,0.0344488
0.0219042,0.0320951
0.0220521,-0.0353269
-0.00872129,-0.040322
-0.0515651,-0.000565779
-0.112662,0.00964095
-0.115007,-0.00159908
-0.0500247,-0.0123153
-0.0138688,-0.0155891
0.00267513,0.00102576
0.0359584,0.0342129
0.0374309,0.0287578
-0.011406,-0.00871857
-0.0095515,-0.0225178
0.0123329,0.00105978
0.00801761,0.0361608
0.00236494,-0.0161977
0.0274248,-0.034863
0.0703442,0.0114983
0.0682127,0.00704476
0.0958839,-0.00748866
0.107133,0.0198842
0.0596801,0.0547845
0.0063563,0.0602747
-0.0243364,-0.000697889
-0.0715651,-0.0797028
-0.113212,-0.0328765
-0.134891,0.00752702
-0.132836,0.0215335
-0.0764858,0.014046
0.0305121,-0.0472688
0.0753488,-0.0152667
0.0697568,-0.000617043
0.0946891,0.00660106
0.0979166,0.0163077
0.0226451,0.0115559
-0.0448001,0.00046227
-0.0497321,-0.00425446
-0.00459634,-0.0169728
0.0452976,-0.02557
0.0601146,-0.00851192
0.0802861,0.00643554
0.0470232,0.0142765
-0.0603305,0.0047589
-0.123808,-0.0139677
-0.10927,-0.0184102
-0.0812788,-0.00428244
-0.0680151,0.0319632
-0.0657319,0.0852242
-0.0704996,0.0491357
-0.036281,-0.0263096
0.0176876,-0.0778537
0.0255225,-0.0335034
0.0291943,-0.00676946
0.0320621,-0.0059986
0.057343,0.0099553
0.0974981,-0.043111
0.140581,-0.0562713
0.119825,-0.0128045
0.0927505,0.0301089
0.0842881,0.0479558
0.00757274,0.0245787
-0.0753197,-0.0231082
-0.104322,-0.0258328
-0.116353,-0.00523461
-0.150188,0.0156138
-0.144001,0.00525455
-0.0951979,0.0377052
-0.0441546,0.0206798
-0.0353954,-0.0032366
-0.0132264,-0.0141765
0.0261638,-0.0354773
0.0545298,-0.000822346
0.109738,0.0390607
0.207256,0.0486879
0.226861,0.0278715
0.190245,-0.00452504
0.108576,-0.00977556
-0.0156935,0.00965051
-0.136216,0.00463863
-0.170385,-0.00321214
-0.106628,-0.00749118
-0.050548,0.0170726
-0.0202964,0.0457522
0.0345763,0.0137993
0.0479896,-0.0309297
-0.00878639,-0.0515768
-0.00423646,-0.00577887
0.00505924,0.0632294
-0.0389714,-0.00549675
-0.0714883,-0.0410328
-0.0804446,-0.0248485
-0.0963763,-0.0233801
-0.0543547,0.00351806
-0.0102952,0.0658943
-0.00363745,0.00968759
0.0405037,-0.0696388
0.0590649,-0.0511581
0.00967875,-0.0360332
-0.0361589,-0.0279878
0.00177072,-0.00382561
0.0694658,0.0300771
0.111773,0.0317382
0.100772,-0.0116193
0.0400345,-0.00496755
-0.0452502,0.0138204
-0.114215,0.0132175
-0.102735,0.0163827
-0.0515473,-0.00112635
0.00274161,-0.0393848
0.0174483,-0.0320107
0.0487073,0.00283354
0.117842,0.0308649
0.13261,0.0269589
0.0578756,0.0136059
0.0202934,0.00154667
0.0861996,-0.00970597
0.152286,0.0130649
0.113093,0.0383064
0.0294476,0.037275
-0.0491805,0.0193122
-0.13072,-0.00733301
-0.16588,-0.00582927
-0.173065,-0.00807312
-0.156761,-0.0246082
-0.0926963,-0.0044709
-0.0153352,-0.00212677
0.0139815,-0.0136663
0.0287822,-0.00388757
0.0324863,0.00550044
0.0158321,-0.00498769
-0.00355106,-0.00148423
-0.0285467,-0.0202508
-0.0458571,-0.0211949
-0.0694871,-0.00248377
-0.0442924,0.0117458
0.0140514,0.0226452
0.0572133,-0.00117635
0.0946356,-0.0142548
0.118545,-0.00235675
0.129815,0.0190387
0.10426,0.0171797
0.050453,-0.00600266
-0.028749,-0.00959652
-0.0897172,-0.0112885
-0.118486,0.0331596
-0.114121,0.0305348
-0.0759993,-0.0259678
-0.0436522,-0.0201935
-0.019826,-0.00993376
0.0101899,-0.0126942
0.00562751,0.00770054
0.0281609,0.0188368
0.0826717,0.0102103
0.0732888,-0.000828117
0.0364383,-0.0064886
0.0606205,-0.00948276
0.0618952,0.00752929
0.0556857,0.00959783
0.0397184,-0.0299931
-0.0173458,-0.0520092
-0.0725441,-0.0202335
-0.0965686,0.0657923
-0.128735,0.0794223
-0.129086,-0.0486128
-0.0583787,-0.0658773
0.0189454,-0.0161163
0.0501586,0.00597742
0.038222,0.0126499
0.0432317,0.0165168
0.0701253,0.0122374
0.112518,-0.000338967
0.089446,-0.00873528
0.031896,-0.0140129
-0.0135792,-0.00229069
-0.0329845,0.0198441
0.00786347,0.0421956
0.0419442,0.0168171
0.0205669,-0.0558575
0.0071159,-0.0318703
-0.0184085,0.00459337
-0.0681555,0.00407406
-0.0983028,-0.00192688
-0.0888215,-0.00331483
-0.0670983,-0.00475673
-0.0506958,-0.00479026
-0.0199654,0.00570179
-0.0171918,0.0110713
-0.0596586,0.0127585
-0.0769737,0.0125582
-0.0301632,0.0032573
0.0172996,0.0315478
0.0862429,0.00289736
0.144148,-0.0161644
0.129089,0.0134954
0.0502799,0.0170288
0.00271319,0.006346
0.0654512,-0.0112203
0.0869267,-0.00977167
0.0430761,-0.00245021
0.0743589,0.00516864
0.0583529,0.00491235
-0.0269337,0.00969317
-0.117129,0.0120317
-0.129585,0.00181812
-0.0853486,-0.0155577
-0.077646,-0.0153784
-0.0536445,-0.00231344
-0.0216194,-0.0097796
-0.00890947,-0.0163326
-0.0283733,0.00796343
-0.0679807,-0.0245804
-0.0745684,-0.0206286
-0.0630552,0.0327143
-0.0406806,-0.00521033
0.0412469,-0.0167337
0.122285,-0.0107519
0.165496,0.00535318
0.160723,0.011232
0.136234,0.00220669
0.0732148,-0.00337704
0.0537803,0.0693738
0.0782334,0.103509
0.0661489,-0.0589113
-0.0573121,-0.0501497
-0.150112,0.0760622
-0.143292,0.00495199
-0.13608,-0.0853876
-0.15137,-0.0787607
-0.108448,-0.0685741
-0.0679466,-0.029877
-0.038565,-0.00505479
0.00155048,0.0667611
0.0472545,0.0674938
0.0566835,-0.00224682
0.0495878,-0.00775605
0.0542236,0.0228205
0.0628345,0.0216037
0.0487129,-0.0090273
0.0663955,-0.00491217
0.0946923,0.00525341
0.0919506,0.00528016
0.0796441,0.00519054
0.0323035,-0.00381286
-0.0648867,-0.0151492
-0.0997956,-0.0243674
-0.0588951,-0.00866673
0.0211638,0.027476
0.0557073,0.00787382
0.0198037,-0.00967282
-0.0590471,-0.000774081
-0.111476,0.00888946
-0.115426,0.021035
-0.0896368,0.0265296
-0.0713173,-0.00106241
-0.0441831,-0.0298423
-0.01521,-0.0292412
-0.0165713,-0.0351757
-0.0157663,-0.00574441
0.0464594,0.0195163
0.137629,0.00706793
0.190449,0.0031381
0.207135,0.00927528
0.171542,0.0072754
0.0873258,0.0112845
-0.0248057,0.00924761
-0.0899081,-0.0145768
-0.103792,-0.0271961
-0.0926004,-0.0202333
-0.0706928,-0.0147541
-0.073943,0.00449106
-0.102096,0.0230325
-0.097737,0.0104315
-0.079846,0.00137612
-0.0546972,-0.00943778
0.00587846,0.0133274
0.0694632,0.00412651
0.0769079,0.0116921
0.0646608,0.0634281
0.0429213,0.00481775
0.000600184,-0.0594375
-0.0215866,-0.0235961
-0.0183719,-0.00906599
0.00465202,-0.0103276
0.024051,0.0107131
0.0266288,0.0252946
0.017156,0.0359925
-0.00281761,0.0188795
-0.0198124,-0.00991093
-0.0359931,-0.00962357
-0.0422966,-0.00439791
-0.0320244,-0.00935793
0.0219717,-0.00303657
0.0627504,0.00612261
0.0664891,0.000576883
0.0709543,-0.00189202
0.0834326,0.00157359
0.0631987,-0.00601302
0.00791555,-0.0117618
-0.0189659,-0.0101872
-0.00397406,0.00279149
0.00116943,0.00654172
-0.0173734,-0.00214087
-0.04864,-0.00915709
-0.0701148,-0.0117829
-0.0485569,-0.0121932
-0.0564842,-0.0104904
-0.074919,-0.0107141
-0.0612585,0.00148948
-0.0326208,0.046122
0.00259152,0.029974
0.0197529,-0.0186316
0.0119898,-0.0552372
0.000557741,-0.0219925
-0.00993079,0.0095769
-0.0181004,-5.87e-05
0.00537286,-0.00679413
0.0242944,0.0221066
0.0275307,0.0464412
0.0346465,0.0292656
0.0657192,-0.00732117
0.0882961,-0.0229428
0.0713446,-0.00720379
0.0506039,-0.00304063
0.0193497,-0.011312
0.00898806,-0.0208976
0.0170859,-0.00618033
0.00813636,0.0123296
-0.0372508,0.0283761
-0.0594479,0.0270484
-0.0549785,0.00553297
-0.065407,-0.00826121
-0.0656392,-0.0200417
-0.028471,-0.0149123
-0.00179386,0.00254977
-0.0105318,0.00896888
-0.0137997,0.00481231
-0.0276189,0.0072084
-0.0352258,0.0286468
-0.00214606,0.0237971
0.0432431,0.0045571
0.0651427,0.0317417
0.0732932,0.0153583
0.0488139,-0.030352
-0.00136269,-0.0459401
-0.0489459,-0.0065078
-0.0647944,0.00364742
-0.0505094,-0.0239542
-0.0345565,-0.0222671
-0.00385882,-0.00838673
0.0293197,0.00626405
0.0362522,0.0106659
0.0264707,0.00471028
0.0426943,-0.000921428
0.0376074,-0.00643214
0.00372556,-0.00948747
-0.0268549,-0.00713809
-0.034623,-0.00453715
-0.00279788,-0.00936257
0.0895086,-0.00196439
0.128502,0.00569877
0.0640343,0.00251519
-0.00182267,-0.00386519
-0.0593215,-0.00781668
-0.102818,-0.00364619
-0.108824,0.000119694
-0.0796102,0.00670388
-0.0281199,0.00441212
0.0107517,0.00449563
0.0254627,0.00815645
0.0282828,0.0218129
0.00806014,0.00573254
-0.022931,-0.0156187
-0.0390614,-0.00802555
-0.0484525,0.00377314
-0.0419006,-0.00176555
-0.0166064,0.00442802
0.00474175,0.00597516
0.0206998,0.00223795
0.042766,0.0113497
0.0649311,0.000191431
0.0755701,-0.000545403
0.0848303,-0.00126366
0.0999402,0.00578352
0.108483,0.0258596
0.104813,0.0106732
0.0707028,-0.00737157
0.00802947,-0.0141632
-0.0581107,-0.00633607
-0.104664,-0.0111402
-0.128909,-0.00966939
-0.132892,-0.00441718
-0.110456,0.00371457
-0.075278,0.0097408
-0.0504424,0.00345208
-0.0352685,0.000523557
-0.00799438,0.0047313
0.00535591,-0.0024601
0.0025097,-0.00574134
0.00289134,-0.00950997
0.0254214,-0.00614902
0.0380533,-0.000783431
0.0239299,-0.00105183
0.0218058,0.00133151
0.0298734,-0.000309901
0.0114815,-0.00392068
-0.0141881,-0.00157313
-0.025772,0.0193041
-0.021866,-0.00447391
0.00550338,-0.0217793
0.0423995,-0.0143081
0.0766976,-0.00646438
0.0980034,0.0193873
0.0878373,0.0231663
0.0537248,-0.015025
0.020899,-0.0203684
-0.00889889,-0.000486508
-0.0143234,0.0100081
0.0135952,0.013121
0.039547,0.021609
0.0706526,0.0219207
0.0678099,0.00408905
0.00644432,0.00793357
-0.0804991,-0.00885745
-0.159542,-0.0268647
-0.197985,-0.013855
-0.158925,0.00648546
-0.105789,0.0140485
-0.0675389,0.00918794
-0.00489538,0.00219827
0.0295429,-0.0048489
0.0139811,-0.0114504
-0.00141562,-0.012536
0.0131478,-0.00666223
0.0375345,0.00119708
0.0622664,0.00180803
0.091321,0.00171215
0.0884303,-0.0026386
0.0565003,-0.0125848
0.02524,-0.00951179
-0.00376877,-0.00258094
-0.021451,-0.00722824
-0.00413448,0.00311285
0.0258169,0.016845
0.0303767,0.0131844
0.0197629,0.00521121
0.00823191,-0.000418622
-0.00563288,-0.00406087
-0.0311199,-0.00957231
-0.0529756,-0.0114438
-0.0456586,-0.0037738
-0.0303193,0.00367144
-0.0334726,0.00580696
-0.0265008,0.00211421
-0.0151049,-0.00211623
-0.000705251,-0.000122144
0.0136436,0.00897232
0.0423376,0.00384594
0.0747212,-0.0135901
0.0846312,0.00754902
0.0608597,0.0205153
0.0158001,0.0147025
-0.0209874,0.00758928
-0.0316341,0.00273833
-0.0460248,-0.00872299
-0.0492496,-0.0177479
-0.0171658,-0.00800927
0.0189108,0.0127806
0.0209332,0.0236147
-0.00551377,0.00972271
-0.0283098,-0.00954195
-0.0339154,-0.0175356
-0.0531037,-0.00392945
-0.0591548,0.0179505
-0.0458789,-0.00358222
-0.0473137,-0.0168176
-0.0355585,0.00356718
-0.0160444,0.0135415
-0.00588437,-0.000989894
0.0217858,-0.00627056
0.0639612,-0.00355902
0.132762,-0.0042691
0.191905,-0.000770791
0.25281,0.0225701
0.235654,0.0137
0.143547,-0.0210404
0.00473581,-0.020373
-0.123776,-0.0208476
-0.207695,-0.0106312
-0.22563,-2.33e-05
-0.174064,-0.00986845
-0.134126,0.00116448
-0.0929437,-0.00734894
-0.049148,-0.00133176
-0.0451996,0.0031517
-0.0524419,-0.00515086
-0.0186888,-0.000551434
-0.00514008,0.0208405
-0.0197894,0.0281284
-0.0462846,0.0125074
-0.0243637,-0.00771179
0.0508017,-0.00370596
0.119685,-0.000901117
0.183223,0.000963539
0.185199,0.00236226
0.123133,0.00125357
0.0363004,-0.00935252
-0.0429102,-0.020749
-0.0614403,-0.0177232
-0.000640415,0.00533358
0.0898438,0.0351395
0.0974921,0.0141696
0.10598,-0.00505708
0.0859227,0.00828029
0.00567764,0.00620718
-0.0319305,-0.00750655
-0.0647617,-0.012004
-0.0812876,-0.00573072
-0.102263,-0.000982407
-0.150362,0.00416089
-0.184263,0.00838939
-0.175515,-0.000848635
-0.131268,-0.0158361
-0.10343,-0.0196473
-0.0701755,-0.0168426
-0.0237122,-0.00466431
0.0160214,0.0105752
0.0295523,0.0156087
0.0184576,0.00615027
0.0499837,-0.000562355
0.0997665,-0.00158059
0.169966,0.00187849
0.209141,0.0185412
0.179108,0.0314673
0.0898148,0.0064254
-0.0328012,-0.0303249
-0.139702,-0.020025
-0.133082,-0.00984167
-0.01272,-0.00693039
0.14856,-0.00824873
0.255437,0.00238889
0.220686,0.0212413
0.0794326,0.00215161
-0.0776356,-0.0111952
-0.173615,-0.0119463
-0.172635,0.000923262
-0.0986378,0.00863004
-0.0652926,0.00438453
-0.0820068,0.00454518
-0.119727,0.0241248
-0.130046,0.0177333
-0.11406,-0.0146948
-0.092888,-0.00624429
-0.0169619,0.0348185
0.0748148,0.0722525
0.110062,-0.000342373
0.0730051,-0.0542829
0.0114874,-0.035616
0.0251688,-0.00922086
0.0686894,-0.0102855
0.10316,-0.0115013
0.115383,-0.0100497
0.0947743,-0.00248419
0.058721,-0.0034673
-0.0059982,-0.00640329
-0.0520203,-0.00711473
-0.0723782,-0.01445
-0.0602523,0.00309065
-0.013958,0.0108873
0.0502128,0.00231747
0.1088,-0.00178594
0.141868,-0.010529
0.0780622,-0.0168612
-0.0119696,-0.00392066
-0.0344515,0.0154829
0.054452,0.0335844
0.0920726,0.0214381
0.0319686,0.0191441
-0.070767,0.0271247
-0.156677,0.00205597
-0.241647,-0.0181336
-0.287262,-0.0142833
-0.261568,-0.0117001
-0.180749,-0.0076741
-0.0529074,0.00589299
0.0894451,0.0247294
0.173087,0.0224654
0.190663,-0.013509
0.140473,-0.0332033
0.087522,-0.0222935
0.0480255,-0.00332047
-0.0141065,-0.00158012
-0.0799189,-0.0154783
-0.0745705,-0.00800948
-0.0563885,0.0214293
-0.0480478,0.036489
-0.0239198,0.000650484
0.0192533,-0.021909
0.0137693,-0.0116131
-0.0226419,-0.0119
-0.0132063,-0.00871762
0.035634,0.02367
0.0435674,0.0214731
0.0402579,-0.0109674
0.0453294,-0.0148856
0.000658271,-0.0106613
-0.0388988,-0.00169453
-0.0454686,0.00399334
-0.0455434,0.00626954
0.0212289,0.0135726
0.174698,0.0216883
0.388059,0.0196012
0.536208,0.0184638
0.440176,0.00884049
0.186089,-0.00940742
-0.0592825,-0.0199914
-0.220292,-0.0187654
-0.221061,-0.011373
-0.291538,-0.000523799
-0.377313,-0.00384529
-0.38776,0.000389366
-0.360801,0.00494643
-0.27789,-0.00914065
-0.178893,0.0038044
-0.0650201,0.0168499
0.0812507,-0.00284882
0.172421,0.013399
