Comp Ch 3,Comp Ch 4
-0.0684781,-0.00105441
-0.09022,-0.00373629
-0.0935083,-0.0105784
-0.0738209,-0.00841067
-0.0366088,0.000951693
-0.00435407,0.0124881
-0.00372011,0.0272599
0.00996997,0.0140435
0.0176215,-0.0135822
-0.00508389,-0.0121357
-0.0322102,-0.00764691
-0.0252262,-0.00191349
-0.00854004,0.00861785
-0.00682744,0.0141646
-0.00037715,0.0278755
0.00819474,-0.00509185
0.00306936,-0.0192587
-0.00392358,-0.0152868
0.0198234,-0.0077006
0.0772133,-0.00238135
0.125025,0.00349846
0.124915,0.014338
0.0603489,0.0154851
-0.0345339,0.00114504
-0.0888486,-0.0124237
-0.108177,-0.0203987
-0.0893493,-0.027182
-0.0601844,-0.0266155
-0.0112455,0.0228161
0.0165371,0.110848
0.0234762,0.0148615
0.0188363,-0.0483088
-0.00344647,-0.0199002
-0.022458,-0.00443194
-0.0204481,-0.00887364
-0.000585999,0.00195949
-0.00101206,0.0369836
0.0172176,0.0148632
0.0285497,-0.01656
0.012876,-0.036264
0.00369076,-0.0213887
0.00450689,-0.00269228
0.00200154,-0.0164326
-0.00899139,-0.0150527
-0.00111258,-0.00365937
0.020303,-0.00699814
0.0376695,-0.00102809
0.0422684,0.0444761
0.0378006,0.056236
0.013232,-0.0143597
-0.0160149,-0.0388525
-0.0334854,-0.0240369
-0.0350818,0.000922343
-0.0194569,0.0302932
0.00792725,0.00954568
-0.0353618,-0.0184506
-0.032686,0.0174186
0.00072167,0.00923672
0.0257471,-0.0195136
0.0356915,-0.0117476
0.0618204,0.0222499
0.0716264,0.0401284
0.0428544,0.0371401
0.0112667,0.0151441
-0.0148647,-0.00906129
-0.0417331,-0.0198665
-0.0634345,-0.0155666
-0.0687676,-0.00159083
-0.0628992,-0.0246212
-0.0445044,-0.0169775
-0.0179444,0.019406
-0.00365204,-0.0418979
-0.00690875,-0.0332642
-0.00493854,-0.00758718
0.00666242,-0.0073791
0.0233445,0.000552055
0.0481065,0.0212376
0.0713226,0.0351706
0.0715901,0.0298089
0.0438734,0.0160341
0.0102379,0.00357382
-0.0215668,-0.00195426
-0.0403283,-0.0107996
-0.0420799,-0.0121433
-0.0399544,0.0161314
-0.04064,0.0246042
-0.0240668,-0.0266011
-0.0185798,-0.0301377
-0.0251902,-0.013855
-0.000757433,-0.0154044
0.0222497,-0.00795313
0.0215518,-0.00374843
0.0223449,0.00146797
0.0315353,0.035664
0.0515376,0.0520467
0.0471218,0.00797266
0.0238,-0.00720951
0.00590971,-0.00262128
-0.0134774,-0.0132824
-0.0359437,-0.0182549
-0.0486343,-0.00137914
-0.0494953,-0.0199756
-0.0346515,-0.030305
-0.0080702,-0.0084818
0.00309275,0.00761083
0.000498429,0.008615
0.00204785,0.0149141
0.010265,0.0202167
0.0139064,0.0256923
0.00621101,0.0225818
0.0194257,0.00892036
0.0356372,-0.00105109
0.0328247,-0.0116783
0.0254604,-0.0152114
0.0112362,-0.0102844
-0.00972682,-0.0064664
-0.0278211,-0.0178312
-0.0318939,-0.00929536
-0.0350383,-0.0200778
-0.0194311,-0.0320974
0.00294217,-0.0164092
0.00558978,0.000454364
-0.00658556,0.0279408
-0.00292648,0.0405752
0.00792969,0.00928289
0.0146014,-0.0402624
0.0108484,-0.010034
0.0163693,0.0339532
0.0345817,0.028621
0.028514,-0.00124628
0.000194573,-0.0069588
-0.0191307,0.00667126
-0.0236187,0.0139387
-0.0306113,-0.00833923
-0.0304967,-0.0426825
-0.0238061,-0.0193356
-0.00387149,0.0155413
0.0126769,0.0225667
0.00434687,0.0287425
-0.00263092,-0.0202767
-0.00412763,-0.0200889
-0.0111274,0.020093
-0.0182077,0.0182507
-0.00380376,0.00179665
0.0346118,0.0109575
0.0543911,0.00804602
0.0457082,0.00642726
0.0244544,0.0184536
0.0152877,0.0294877
-0.0102102,-0.0200613
-0.033972,-0.0524922
-0.0435308,-0.035385
-0.0404639,-0.00244984
-0.00849084,0.0270169
0.0220218,0.000129633
0.0214384,-0.0232396
0.0098946,-0.00261403
0.00774236,-0.00246378
0.0123752,-0.00353527
0.0281073,0.0333241
0.0454254,0.0236637
0.0461863,-0.0325524
0.0173631,-0.0161475
-0.0192425,-0.0137243
-0.0383994,-0.0157552
-0.046754,-0.00318292
-0.0552542,0.00301617
-0.04019,0.0175376
-0.0210018,0.0362894
-0.0023648,-0.00551495
0.0124491,-0.00715989
0.00659227,0.00254169
-0.0119127,-0.00555831
-0.0111437,-0.000329191
-0.00398617,-0.00547484
-0.00757056,-0.0115525
-0.00583459,-0.00200759
0.0158071,0.022105
0.0363968,0.0248396
0.0352008,0.00106571
0.0243259,-0.0142837
0.0040768,-0.0102534
-0.0125636,0.00492354
-0.0162605,-0.00192317
-0.0184001,-0.013911
-0.0256247,-0.0150371
-0.00121599,-0.000500484
0.021113,0.0214821
0.00714896,0.0221044
-0.00654441,0.0111287
-0.00419917,-0.00414352
-0.0050201,-0.0143525
-0.0138658,0.0153688
-0.0121167,0.0445515
0.013783,0.002834
0.0238562,-0.0294969
0.0141999,-0.0267627
0.0166171,-0.0196186
0.0108898,-0.0182555
-0.0059418,-0.0133473
-0.0205358,-0.00434218
-0.0234201,-0.00406464
-0.0186057,-0.0020002
0.00538973,0.0129733
0.0156016,0.0138199
-0.00156119,0.0262645
-0.0056961,0.0370147
0.00139319,-0.00197629
0.00578369,-0.0248483
0.0264904,-0.0229832
0.0431341,-0.00673041
0.0355025,0.00628141
0.0108624,0.00590269
0.00027088,0.0425191
-0.00330732,0.0178246
-0.00915897,-0.0336055
-0.01695,-0.0340286
-0.0246072,0.00704879
-0.0367709,0.0294484
-0.0347996,-0.00919649
-0.0141037,-0.00171125
0.00461338,0.0096206
0.00872985,-0.0196899
0.0180566,-0.0202848
0.0144555,-0.00136481
-0.00520096,-0.00340612
-0.0301977,-0.0107267
-0.0126265,0.0106338
0.011448,0.0218308
0.00480412,0.0164709
0.0128383,0.00491544
0.018227,-0.01554
0.00340029,-0.0106536
-0.0091978,-0.00467043
-0.0108931,-0.00438992
-0.0166144,-0.00962196
-0.00868463,-0.00473069
0.00772844,0.00280009
0.00566661,-0.00172711
-0.00196442,-0.00507798
0.00135036,0.00180181
-0.00277134,-6.36e-05
-0.0164258,0.00336647
-0.0169685,0.0105584
0.00981535,0.0111613
0.0313648,0.00883433
0.0319573,0.00299113
0.0316461,0.00230898
0.0182674,-0.00427172
-0.00220538,-0.0119468
-0.0145875,-0.00642845
-0.0162066,-0.00744964
-0.0129331,-0.0120634
0.0080263,0.0102161
0.0152368,0.0166977
-0.00747066,0.00174622
-0.020358,-0.00663078
-0.015345,-0.00917836
-0.0194657,0.0265983
-0.033357,0.0593374
-0.0184811,0.000413433
0.0139659,-0.0401517
0.0250793,-0.0276872
0.0219947,-0.0106045
0.00651801,0.01472
-0.000694587,0.00243645
0.00929042,0.00783629
0.021511,0.0508734
0.0231956,0.00618788
0.0118682,-0.0306326
0.0202337,-0.0223027
0.0109806,-0.0200108
-0.0114092,0.00123252
-0.0178872,0.00564404
-0.0206719,-0.0129048
-0.0346156,-0.0153849
-0.0456986,-0.0132399
-0.0260886,0.00177155
0.00603116,0.0137423
0.0148188,0.00225088
0.0196748,-0.00852911
0.0219708,-0.00772
0.0151902,-0.00348288
0.00249878,0.00102204
0.000785844,0.00500207
-0.00580812,-0.000827256
0.00237976,0.00205763
0.0161291,0.0100648
0.00472342,0.00520912
-0.0111254,0.00344775
-0.00666064,0.00898754
-0.00901485,0.00781983
-0.0220541,-0.00767088
-0.0246702,-0.00600536
-0.00276062,0.010248
0.0194094,0.0132512
0.0215993,0.00204122
0.0230815,-0.0015627
0.0161465,-0.00633799
-0.00269844,-0.00193429
-0.017975,0.00863622
-0.0129835,0.0111649
-0.00572241,-0.00482818
0.0158511,-0.00715448
0.0234898,-0.00220325
-0.0044765,-0.00232913
-0.0270026,0.0018162
-0.0262422,-0.00533633
-0.0297915,-0.0148973
-0.0480453,-0.0117562
-0.0246916,0.00405174
0.0428796,0.0146329
0.0610697,0.0155014
0.0321427,0.0151287
0.00971357,0.00266278
-0.00542781,-0.024274
-0.0146922,-0.0404937
-0.0130588,-0.0293296
-0.00757068,-0.00210809
0.00648925,0.0520228
0.0306916,0.0578067
0.0292375,0.00741846
0.00581866,-0.00656185
-0.00220446,0.00747607
-0.00208807,-0.0128924
-0.0181597,-0.0404034
-0.0449675,-0.0267167
-0.0331435,0.000948424
0.00596149,0.0204816
0.0213382,0.0174979
0.0260694,0.00106194
0.0203228,-0.00399085
0.00587698,-0.00418716
-0.00874885,-0.0102201
-0.0122065,-0.0148349
-0.0139239,-0.0171967
-0.000326111,-0.00190797
0.0182196,0.0330094
0.00707874,0.0401575
-0.00877435,0.00586517
-0.00212843,-0.031805
-0.00688832,-0.0311251
-0.0240173,-0.0173103
-0.0373024,-0.00782514
-0.00237053,0.0183114
0.0537777,0.0231622
0.0694551,0.0163052
0.0481521,0.0115992
0.013371,0.0031884
-0.0224955,-0.00483369
-0.0541724,-0.00702871
-0.0500705,-0.00550192
-0.0283475,0.00373612
0.018775,0.0198108
0.0361298,-0.000660829
0.00562001,-0.0270748
-0.0180426,-0.0162002
-0.0216802,-0.00563326
-0.0239352,-0.0122334
-0.0246218,-0.0209394
-0.00942312,-0.00995333
0.0107147,0.0125728
0.0149489,0.0298612
0.00756987,0.0204516
0.00756436,0.00624297
0.00434937,-0.00343599
0.00194864,-0.0131736
0.000609261,-0.0114778
-0.00343165,-0.00313488
-0.00373953,-0.0231534
0.0168455,-0.00359191
0.0252047,0.0442555
0.00707339,0.0413271
-0.00353474,0.0367615
-0.00889772,0.0483924
-0.0156156,-0.021151
-0.0146545,-0.0813451
-0.00327682,-0.0322296
0.0133453,-0.00741029
0.00638111,-0.00675219
-0.00183138,0.0120101
0.00174558,0.00641759
0.00201521,-0.00441094
-0.000755045,-0.00670508
0.0103212,-0.00537169
0.0149356,-0.00894834
0.0231224,0.0146157
0.0286844,0.056774
0.0113426,0.0160717
-0.00990458,-0.0427564
-0.0149183,-0.0394673
-0.0329411,-0.0212629
-0.0493973,0.0179577
-0.036822,0.0224021
0.000213866,-0.00119587
0.0242724,0.0112184
0.0241662,0.00672631
0.0161698,0.0322638
0.00105751,0.0290649
-0.0114562,-0.036165
-0.0198872,-0.0702894
-0.010606,-0.0665085
-0.00494153,-0.022625
0.0215252,0.0327866
0.0441185,0.0439995
0.0264677,0.0366131
0.00705646,0.0122397
-0.00646288,0.00187375
-0.022742,0.0221184
-0.0349798,0.0525529
-0.0273476,-0.00460515
0.0057643,-0.0495265
0.0168046,0.00210418
0.00351002,0.0399749
-0.00028571,0.020345
-0.00283429,-0.0422977
-0.0132387,-0.0347257
-0.0148879,0.0284994
-0.00784968,0.0345181
0.00129771,-0.0239082
0.0207039,-0.0154603
0.0209707,-0.0049464
0.000665508,-0.00551603
-0.0126863,0.0077322
-0.0208299,-0.00498381
-0.0253414,-0.0394492
-0.0156224,-0.0516005
0.00736868,-0.0165755
0.0257425,0.0288821
0.0229951,0.0206634
0.0258577,-0.0257323
0.0137588,0.0119693
-0.00169859,0.0534858
-0.00772498,0.0705245
0.0053436,0.0142901
0.00542208,-0.0487811
0.0079517,-0.0318689
0.02212,-0.00367954
0.00715229,0.0107355
-0.0116731,0.0041358
-0.0113272,-0.0121365
-0.00791951,-0.0121125
0.00821501,-0.0154642
0.0229535,-0.019595
0.000180408,0.0202313
-0.0123764,0.0248866
-0.0108965,0.00857287
-0.00677283,0.0145632
-0.00685056,-0.0154794
-0.00940921,-0.035657
-0.00488585,-0.0332476
0.00810422,-0.0096075
0.0131527,0.00582547
0.0144142,0.0135267
0.010339,0.0250596
-0.00365766,0.0275955
-0.00647491,0.0243737
-0.00598392,0.00654335
-0.0205965,-0.0147058
-0.0449723,-0.024627
-0.0483899,-0.0111779
-0.00609597,0.00343884
0.0251134,0.00886346
0.0200333,0.0077101
-0.00273692,0.0264125
-0.0185485,0.0244686
-0.00863084,0.00354213
0.0156267,-0.00247347
0.0348439,0.00736313
0.0322308,0.000299425
0.0281104,-0.0278705
0.0195834,-0.021374
-0.00906295,-0.0268028
-0.0107528,-0.0256001
-0.00701202,-0.00751869
-0.017946,-0.00708471
-0.0381617,-0.0150253
-0.0335039,-0.0078513
-0.0106071,0.0295412
-0.00430067,0.0291696
-0.00193123,-0.00843925
0.00864299,-0.00526082
0.00399108,0.0021054
-0.00694121,-0.00648739
0.00383195,-0.0102225
0.0203073,-0.016095
0.0278643,0.0091796
0.0424977,0.0399146
0.0401147,0.0427154
0.0113369,0.0361024
-0.00539277,0.0510575
-0.0184758,-0.00902413
-0.0326489,-0.05673
-0.0361412,-0.0302694
-0.0103351,0.0079729
0.0162689,-0.0234762
0.0128449,-0.040692
0.00503003,0.0216842
0.000601957,0.0111022
0.00575792,-0.0357266
0.00180758,-0.0259846
-0.0062084,0.0191491
-0.0115146,0.0403853
-0.00128038,-0.0070213
0.018733,-0.047838
0.0067238,-0.0189226
-0.00881124,-0.00453269
-0.0136564,0.0160228
-0.0203909,0.0399124
-0.0239628,0.0327972
-0.016454,0.031143
0.001353,0.0251633
0.0185637,0.00408302
0.0239461,0.00467588
0.0235989,-0.0172355
0.0124417,-0.0237659
0.000642819,-0.0190788
-0.00247845,-0.0142106
-0.00381452,-0.0100148
-0.00517021,-0.00984054
0.0327126,-0.00129635
0.0345878,0.0115487
-0.00657926,0.0161039
-0.0437877,0.000680835
-0.0429027,-0.00963598
-0.0147747,-0.0138328
-0.00680343,-0.0117262
0.00777352,-0.00707059
0.0275285,-0.00112443
0.0193519,0.000469292
-0.00243041,0.00709149
-0.0098649,0.0180826
-0.0128003,0.0219042
-0.0142006,-0.00663008
-0.0173244,-0.0315332
-0.0190951,-0.00579243
-0.00194444,0.0270909
0.0279994,0.0519535
0.0326675,0.0418959
0.0156211,-0.0109844
0.00637783,-0.0284289
-0.00744106,-0.0164612
-0.0262701,-0.0154242
-0.0350999,-0.0232499
-0.0151302,-0.00357687
0.013718,0.0138975
0.0177647,-0.000514301
0.0173506,-0.00315847
0.0164634,0.00113602
0.0162178,0.0045294
0.00354782,0.00381612
0.00141356,0.00215207
0.000635136,-0.011727
0.00758788,-0.0174421
0.0118575,0.00822156
0.00585333,0.021504
-0.00712554,-0.0117434
-0.0123676,-0.00907838
-0.0239744,0.00945897
-0.0330344,-0.00157342
-0.0266177,0.00151876
-0.00335688,-0.00719851
0.0162467,-0.0191259
0.015353,-0.0283647
0.0148762,0.0126221
-0.00711808,0.0688948
-0.0236067,0.0187
-0.013542,-0.0311348
-0.00452216,-0.0079167
-0.00505562,0.0285781
0.0185562,0.013161
0.0338237,-0.016
0.0261915,-0.00889445
0.0177733,0.0175173
0.0192047,0.0155024
0.0142214,-0.0363484
-0.00181535,-0.0468224
-0.0163148,-0.0250715
-0.0186725,0.000165641
-0.0329457,0.00204828
-0.0192799,-0.00600185
0.0238721,0.00231802
0.0463434,0.00319283
0.0288376,-0.0058906
-0.00346642,-0.00179918
-0.0314294,0.01177
-0.0315696,0.0164623
0.00505781,0.0216331
0.0247192,0.0169959
0.00506069,0.00713775
-0.009059,0.00913831
-0.0109691,0.00193888
-0.0279773,-0.0160874
-0.0389457,-0.0168008
-0.0186517,0.0014564
0.00914042,0.0134153
0.02379,0.0139064
0.0204547,0.0116034
0.0090138,0.00468162
-0.00144212,-0.000929546
0.0071669,-0.000484532
0.0230643,-0.00416759
-0.0121453,-0.00949389
-0.0190303,0.00143422
0.00226704,0.0217619
-0.00801768,0.0159637
-0.0197005,-0.00382323
-0.0199407,-0.00996174
-0.0177943,-0.0245885
-0.0274473,-0.0314818
-0.0302144,-0.0192904
0.010278,0.00369656
0.0414142,0.00640466
0.0314007,-0.00316659
0.0213541,-0.0183577
0.00920058,-0.0328232
-0.00277486,0.00584973
-0.0121783,0.0438694
-0.00688994,0.00895489
-0.00566223,-0.00909144
-0.000475191,0.0317848
0.00593894,0.015473
0.00527778,-0.0274244
0.016829,-0.0357781
0.0239144,-0.0157903
0.0140382,-0.0187517
-0.0157338,-0.0218272
-0.0265558,-0.00293266
-0.000269534,0.0224761
0.0180152,0.0301832
0.0206623,0.0255779
0.0229023,0.0382816
0.0138827,0.0426879
0.000851817,-0.00100083
-0.00538451,-0.0279524
-0.00828142,-0.0358027
-0.00367179,-0.0179867
0.0162139,0.0352031
0.0222037,0.0460147
0.00343877,0.00929209
-0.00860935,-0.0116052
-0.0086522,-0.0374163
-0.0290325,-0.0376965
-0.0466986,-0.0270276
-0.0364292,-0.000668985
-0.0139787,0.0492301
-0.00124497,0.0836552
0.0123439,0.0225617
0.0157635,-0.0546331
0.00247604,-0.0416936
-0.00990248,-0.0136052
0.000189628,0.0168138
0.0121025,0.00323783
0.0197516,-0.0036055
0.0307524,-0.0148347
0.0191712,-0.024599
-0.00729705,0.0112348
-0.0120235,0.023985
-0.00934703,0.00852031
-0.0176246,0.0113858
-0.0267694,0.00470747
-0.00397323,-0.0202284
0.0188342,-0.0125717
0.009918,-0.00453985
0.00376578,-0.017883
0.000950645,-0.0261619
-0.00737964,-0.0133103
-0.0207248,-0.00722083
-0.0166156,-0.0104539
-0.00530186,0.0214991
0.0140095,0.0544672
0.0228004,0.0130709
0.00291125,-0.0252167
-0.00948714,-0.0408531
-0.00965084,-0.0355947
-0.0120953,-0.0105381
-0.00817698,0.00174776
-0.00726768,0.0301495
0.00746569,0.0666988
0.0147491,0.0278082
-0.000980563,-0.0353793
-0.00321872,-0.0440075
0.00617444,-0.0141111
-0.0103942,0.078462
-0.0205168,0.0709262
-0.00722259,-0.039472
0.00753973,-0.0408593
0.0394976,-0.0189515
0.0570744,0.00167015
0.0374955,0.000716328
0.00453269,-0.0158015
-0.025233,-0.013899
-0.0439643,0.000173582
-0.0417313,0.0164521
-0.00505723,0.0498409
0.0375411,0.0658029
0.0478951,0.0260933
0.0353879,-0.0247843
0.0178608,-0.0444205
-0.00868333,-0.0251539
-0.0298373,0.000193864
-0.0262614,-0.00649274
-0.019668,-0.0216128
-0.018861,-0.014877
-0.000662124,0.00513897
0.0129124,-0.00439378
0.00477023,0.000706575
-0.0223928,0.0394709
-0.0272541,0.0217297
-0.0163606,-0.0266659
-0.00447297,-0.0442772
0.0116115,-0.0181856
0.0165833,0.0132405
0.0040944,0.0492866
0.00667008,0.0572207
0.00909678,-0.0103344
0.0105013,-0.0379299
0.0163176,-0.0261495
-0.0105525,-0.000428799
-0.0175222,0.00393288
0.0270144,-0.00361951
0.0411596,0.0131489
0.0196761,0.0056314
0.00105516,-0.0115643
-0.00101776,-0.0181247
-0.0186201,-0.0172906
-0.0452546,0.0134298
-0.0519111,0.00710401
-0.0222885,-0.00585514
0.0145058,-0.00633806
0.0141226,0.000339516
0.0099655,-0.0058936
-0.0136427,-0.0039564
-0.0380399,-0.00380571
-0.0283457,-0.00657185
-0.0216258,-0.0051822
-0.00998286,0.00118549
0.0385976,0.00282816
0.0618647,0.00458654
0.0360744,0.016877
0.0341467,0.0170249
0.0313469,0.00805229
0.0165902,0.000101774
0.00972151,0.00284285
-0.00722877,0.0662324
-0.0127664,0.0522994
-0.0166559,0.00813756
-0.0362437,-0.00876397
-0.0326344,-0.0468953
-0.0218758,-0.0627119
-0.00193795,-0.053699
0.0120367,-0.025252
0.0132684,-0.00106946
0.00765251,0.00391401
0.0296436,0.000799377
0.0322093,0.0347838
0.0183697,0.0272434
-0.00221461,-0.000815279
-0.0365432,0.0242841
-0.0563093,-0.0121259
-0.0422016,-0.0531935
-0.00016037,-0.017257
0.0379001,-0.00876924
0.0295253,0.00559772
0.0192727,0.0307707
-0.00416805,0.0268491
-0.0248781,0.00677791
-0.0287118,-0.000814847
-0.0202375,0.0185344
-0.0176077,0.0104173
0.000769581,-0.0309936
0.0379748,-0.0231125
0.0494031,-0.0276788
0.015794,-0.0111733
-0.0216378,0.0358374
-0.0400212,0.054077
-0.0223377,-0.00658139
0.0045273,-0.0282386
0.0165677,0.00854129
0.0116779,0.000896221
-0.00719101,-0.0165841
-0.0169978,-0.0124437
-0.0272993,-0.016622
-0.0359196,0.0414191
-0.026615,0.107088
0.00462071,-0.000451352
0.0438993,-0.0678869
0.0674804,-0.0150913
0.0688803,0.0107695
0.0371168,0.0180932
-0.00730256,-0.00714617
-0.0123201,-0.0256801
-0.00867161,0.00741094
-0.0173119,-0.00451435
-0.0189964,-0.0329637
-0.00205085,-0.0214208
0.0102704,-0.0515373
-0.00475808,-0.0450993
-0.0408057,0.0232294
-0.0746387,0.0335104
-0.0617784,-0.0244546
-0.0053686,-0.0342877
0.0462009,0.0108586
0.0702541,0.0372153
0.0989017,0.0158643
0.0847894,0.028271
0.0244014,0.0515805
0.00613539,0.0574755
-0.000129089,0.051238
-0.0195155,-0.00704498
-0.0550071,-0.054561
-0.0893963,-0.0165571
-0.0973998,0.0235841
-0.081163,0.00788539
-0.0161474,-0.00871539
0.0645144,-0.00631292
0.083264,-0.00375955
0.0313459,-0.0202817
0.00464558,-0.0199303
-0.00696312,-0.0132017
-0.0011798,-0.00282275
0.0261041,0.0107268
0.0210946,0.00744956
-0.000439089,-0.000732828
-0.00800747,-0.00968826
-0.0225448,-0.00815861
-0.0393173,0.0402108
-0.0333482,0.0752791
0.0218865,0.0157825
0.0534504,-0.0678772
0.0461917,-0.0407289
0.0284587,-0.0100616
-0.0258254,-0.0251732
-0.0703879,-0.0315737
-0.120433,-0.00899235
-0.119148,0.00113514
-0.0812725,0.00465797
-0.0312883,0.00726258
0.0493962,-0.00114004
0.084789,-0.0209865
0.0622101,-0.00462088
0.0564672,0.0378387
0.0753878,0.00692661
0.0362968,-0.0231842
0.0621407,-0.0218683
0.127947,-0.00840314
0.0869162,0.00910305
-0.0199555,0.0176557
-0.00653229,0.0142206
-0.0253646,0.012083
-0.0747797,0.0106469
-0.0596228,-8.78e-05
0.00361947,-0.00360399
-0.000911024,0.00784509
0.0136477,0.0190177
0.0828856,0.0149779
0.0624134,-0.00326273
0.0110169,-0.0175514
-0.00604709,-0.0229101
-0.0570851,-0.0173903
-0.13769,-0.0273374
-0.185737,-0.0209363
-0.146132,-0.000127221
-0.104557,0.0419963
-0.0456615,0.0659661
0.0279667,0.0392129
0.0852308,0.00972302
0.0997067,-0.00632067
0.0882365,-0.0147211
0.0476354,-0.0208512
-0.0184068,0.0236046
-0.0776463,0.061958
0.0353546,0.0475877
0.127607,0.0109482
0.062526,-0.0265102
0.00461774,-0.022634
0.0315042,0.00646841
0.116985,0.0196376
0.161528,0.0305101
0.128892,-0.049695
0.0195379,-0.0605332
-0.0858574,-0.0164165
-0.184666,-0.0189294
-0.267766,-0.0613086
-0.307632,-0.050919
-0.243808,-0.0606616
-0.090688,-0.158319
0.0788708,-0.202115
0.162337,-0.190533
0.172226,-0.125592
0.234654,0.0388452
0.240162,0.252471
0.208466,0.328509
0.0737977,0.220881
-0.106951,0.108926
-0.197722,0.0577007
-0.219244,-0.00156843
-0.12206,-0.0382001
0.042979,-0.0295373
0.110511,-0.0263844
0.0338676,-0.0064435
-0.0671409,0.0609779
-0.115587,0.0967134
-0.0674559,0.00988844
-0.0180816,0.006784
0.0232034,0.0123184
0.0138499,0.052907
-0.014996,-0.0263587
-0.00478071,-0.0564613
0.0406786,0.102288
0.0318955,0.0352215
0.0247597,-0.160214
0.054266,-0.128292
0.0640003,-0.0796295
0.0153527,-0.0904611
-0.0573378,-0.0359388
-0.0833035,-0.0329708
-0.00788679,-0.0656691
0.0392903,-0.0510746
0.0288109,0.0188864
0.0216076,0.0796462
0.0369977,0.090027
0.0563857,0.0543901
0.0761104,0.0367672
0.0651119,0.0248641
-0.00672994,-0.00343915
-0.0904122,-0.073686
-0.0808888,-0.0756375
-0.0380035,-0.000955234
-0.0215376,0.00725856
-0.0398303,0.0180736
-0.0523069,0.030073
0.00269118,-0.0107494
0.0245248,-0.00456763
0.0283444,0.102856
0.0830339,0.167096
0.116323,0.041947
0.086035,-0.0927811
0.065952,-0.0881527
0.0301735,-0.0717345
-0.0848895,-0.0378046
-0.226719,0.00560683
-0.217747,-0.00156957
-0.101067,-0.0655412
-0.0536761,-0.0593125
-0.0163841,0.0193527
0.0362993,0.0216977
0.101884,-0.000664704
0.146831,0.0229449
0.115679,0.0269393
0.100042,0.0250108
0.0139761,0.00832278
-0.0449226,-0.00309442
-0.0219679,0.0026991
0.0177004,0.00315201
0.0372942,0.00971814
0.0549987,-0.00810803
0.0775402,-0.00600752
0.0572943,-0.0103935
0.0021106,0.0387415
-0.0352339,0.0512564
-0.0459369,0.00194522
-0.0517326,-0.0139614
-0.0270369,-0.00831104
-0.00323109,0.0206776
-0.00407969,0.0282595
-0.0383688,0.0182963
-0.0567165,0.00689305
-0.0235321,-0.0436025
-0.0095835,-0.0236742
0.0017712,0.0133661
0.0456918,-0.00214511
0.073117,-0.0223277
0.0300464,0.00376482
-0.0172749,0.0190658
-0.0301697,-0.00715767
-0.0445994,-0.0569286
-0.0620919,0.00727291
-0.0768143,0.0710428
-0.123053,-0.0465739
-0.164831,0.0182661
-0.129099,0.0515511
-0.0230728,-0.0108791
0.0412464,-0.0502466
0.0642869,-0.054199
0.0626231,-0.0680319
0.0291335,-0.0298302
0.060014,0.057066
0.104778,0.0674908
0.1069,0.0569733
0.0976144,0.0421257
0.0227668,-0.0123994
-0.10625,0.0132322
-0.146591,0.025273
-0.0165245,-0.0378436
0.122741,-0.0680678
0.136794,-0.0372733
0.124004,-0.014947
0.104574,-0.00930679
0.0185652,0.00190757
-0.0871391,0.0378385
-0.106014,0.0461558
-0.0872736,0.00887811
-0.0554319,0.00213711
-0.0169406,0.00804269
-0.0310679,-0.0353046
-0.0663394,-0.0238371
-0.0530577,-0.00929623
-0.00170568,-0.0574426
0.0242936,-0.0220182
0.0343001,0.0232383
0.0271654,0.0250968
0.0109808,-0.000568944
0.0222461,-0.0271065
-0.00640747,0.030852
-0.0162644,0.0550153
0.0137683,0.00767707
-0.0055967,0.00938196
-0.0180893,-0.00863845
-0.053502,-0.0244406
-0.0934914,-0.0239264
-0.066773,0.0179442
0.0351029,0.0385378
0.155004,-0.0104629
0.222947,0.109763
0.175736,0.121786
0.142805,-0.091535
0.115832,-0.121032
0.0695432,-0.0462981
0.0105058,-0.081043
-0.0693896,-0.0856844
-0.181264,0.0037365
-0.24283,0.149925
-0.226525,0.165739
-0.178883,-0.0834115
-0.139223,-0.145524
-0.0366445,-0.0290308
0.0527555,0.0361691
0.0530188,0.0315622
0.0252696,-0.0100769
0.0326634,0.00349128
0.0766238,0.0490372
0.0614111,0.0740756
-0.00771747,0.0521988
-0.012004,0.00992408
0.0616984,-0.0250308
0.166124,-0.0256192
0.220156,0.00849703
0.190513,0.0252032
0.111038,0.0103739
0.0414258,-0.0150998
-0.00487775,-0.0126881
-0.0334001,-0.0255462
-0.0687296,-0.0318023
-0.102598,-0.0329274
-0.151184,-0.0137661
-0.217897,0.00450752
-0.218185,-0.0183391
-0.152287,-0.0310279
-0.102437,-0.0427722
-0.0625629,-0.026053
0.00947954,0.0303084
0.0780715,0.0403175
0.0796361,0.0798102
-0.0047835,-0.00531985
-0.0659818,-0.0384291
-0.00532785,0.00715676
0.0503338,0.0108296
0.0753913,0.0106429
0.103001,-0.0213086
0.108724,-0.0117216
0.0874194,-0.00407261
0.0249483,-0.00413106
0.00933286,-0.00330765
0.0217606,-0.0105612
0.0260435,-0.00178847
0.0255212,0.0104322
0.0233793,0.0218677
0.0159746,0.0285735
0.0408033,-0.00540058
0.0521088,-0.0341237
0.0243396,-0.0194693
-0.0143551,-0.00325178
-0.0380954,0.00641868
-0.0428459,0.0429438
-0.0618608,0.0666422
-0.0786234,0.0581757
-0.0903504,0.00159423
-0.0828792,-0.0270202
-0.0573358,0.00903946
-0.0286803,-0.00374164
-0.0293944,-0.0458337
-0.0160254,-0.0449925
0.02418,-0.0332266
0.0629703,0.00716719
0.0551523,0.0454773
0.0569808,-0.0587895
0.0607424,-0.0721468
0.0805722,-0.0253586
0.0793179,0.00333975
0.0409467,0.0224681
0.0192569,0.0129389
-0.0109216,0.0388316
-0.0122156,0.0059747
0.00390603,-0.0267262
-0.0200697,0.0572551
-0.0264599,0.0602959
-0.0405983,0.0125516
-0.0474151,-0.00190891
-0.0511858,-0.0348065
-0.0674255,-0.0369007
-0.0750573,-0.0178429
-0.0946059,-0.00440354
-0.090735,0.00354844
-0.0317417,0.0127689
0.0791479,0.0372596
0.139325,0.0263688
0.105775,-0.0165358
0.0900451,-0.0263107
0.0897827,-0.000747323
0.0842645,0.0221566
0.0623342,0.00390155
0.0120969,-0.0140933
-0.0382629,-0.0015373
-0.0635648,-0.00134366
-0.0689263,-0.0198035
-0.0694599,-0.031374
-0.0709374,-0.0158895
-0.0665582,0.00920055
-0.0590014,0.0171763
-0.0472399,-0.00073857
-0.0100174,-0.0325031
-0.022274,-0.0379755
-0.0627022,0.0500793
-0.0390155,0.101599
0.0222879,-0.000967695
0.0306435,-0.0362001
0.0492393,-0.0330181
0.0573876,0.000610215
0.0442431,0.0612725
0.045462,0.0373163
0.051578,0.00506904
0.0338878,-0.0115109
0.0111706,-0.0493219
0.0176388,-0.02101
0.0175931,0.0159153
-0.00127159,0.00722221
-0.0268542,0.00919755
-0.0262088,-0.0103049
-0.0429664,-0.0340658
-0.0824708,-0.0113127
-0.0851323,0.0309225
-0.0899996,0.0252845
-0.0818658,-0.042017
-0.0308921,-0.0831222
0.0637638,-0.0555581
0.116632,0.0173267
0.133384,0.0461887
0.117034,0.0539706
0.0766868,0.047865
0.0341586,0.00286333
0.0116275,0.0210421
0.00880858,0.0313588
0.019743,0.00774801
0.0197477,0.0178465
0.0248697,0.0130693
0.0284633,-0.0561607
-0.0052096,-0.0882642
-0.0403864,-0.0719684
-0.0243498,0.00554943
-0.0208033,0.10002
-0.101938,0.124911
-0.127477,0.0228093
-0.0736503,-0.0730359
-0.0129419,-0.0513893
0.0215443,-0.0348542
0.0266176,-0.0597723
0.00771601,-0.0773621
-0.0118561,0.0301732
0.013768,0.0890788
0.0659265,0.0279734
0.0885116,-0.0245227
0.0367068,0.0120803
-0.0311538,-0.0109517
-0.0318203,-0.0556133
-0.00121844,-0.0438104
0.0122699,0.0137475
0.0194777,0.0710557
0.0257862,0.0582898
0.0138732,-0.0333138
-0.0131091,-0.0354428
-0.0116888,0.0450224
-0.0209149,0.0480243
-0.0400395,-0.0118809
-0.0311402,-0.020482
-0.0329069,0.00273673
-0.0484629,-0.00183906
-0.0556206,-0.0120579
-0.0566802,-0.00980203
-0.064351,0.0194428
-0.0338603,-0.00497004
0.038738,-0.0490669
0.0875239,-0.0592165
0.0493665,0.00676776
0.00329189,0.0504167
0.0143344,0.0198589
0.0385213,0.067437
0.0241044,0.118963
0.0183372,0.0205036
-0.006899,-0.0706912
-0.0162528,-0.0859251
0.0333325,0.0103764
0.0624378,0.0526518
0.0561887,-0.00701648
0.0360554,-0.0611869
0.0118064,-0.0362253
-0.0129424,-0.00482855
-0.0757267,-0.00235465
-0.134465,-0.00430981
-0.115386,-0.00304051
0.0127323,-0.0112074
0.106348,-0.0121571
0.0495777,-0.0153188
0.0130909,-0.0293044
0.011676,-0.0268242
-0.00359419,-0.00953314
0.00233467,0.0178674
0.0385695,0.0150557
0.0466191,0.01851
0.0054534,0.0179543
-0.0530414,0.0223692
-0.06758,-0.000608147
-0.0257319,0.00406578
-0.00123243,0.0847895
-0.00205141,0.112784
-0.00931302,-0.00885314
-0.037055,-0.0453533
-0.0199516,0.000359518
0.0225559,0.0158381
0.0134225,-0.0387826
-0.00251428,-0.0316314
-0.0147475,0.00562192
-0.0182,-0.0358541
0.0204269,-0.0552225
0.0537837,-0.018412
0.037951,0.0130342
0.0432308,0.00480295
0.0661345,0.0151953
0.04461,0.0348539
0.0180957,0.0163909
0.00842328,-0.0249517
0.0128367,-0.045104
0.0299865,-0.0338567
0.00495622,0.00512345
-0.0342718,0.0498903
-0.0771032,0.0612609
-0.0881934,0.00544899
-0.0792311,-0.010262
-0.0771274,0.00652229
-0.0810888,-0.0261256
-0.0724757,-0.0781206
0.00309691,-0.0425314
0.0336681,-0.00076205
0.0389338,0.0211393
0.0679906,0.0286395
0.0746501,0.0191477
0.0814292,-0.0074541
0.0841756,-0.00898663
0.0342001,0.0357083
-0.0581581,0.0212494
-0.0975532,-0.0238045
-0.0668351,-0.0208133
-0.00618319,-0.0133786
-0.00920684,0.0121413
-0.0297089,0.00830543
0.0299465,-0.0118504
0.0391391,-0.00263687
-0.0122442,0.0189918
-0.0454172,0.0156564
-0.0443488,0.013944
-1.48e-05,0.0360098
0.0831859,0.0434039
0.100596,0.0339372
0.0534658,0.0178691
0.0359626,0.0459279
0.0621048,-0.0159111
0.0623024,-0.0757447
0.0150436,-0.0281404
-0.0310357,0.0112897
-0.0825609,-0.00288309
-0.100041,0.0143955
-0.0528811,-0.016475
0.000245482,-0.0339227
0.00358243,-0.0249174
0.0010152,-0.0345995
-0.0272476,-0.030906
-0.0984199,-0.0204528
-0.117261,-0.0218428
-0.0940189,-0.00318131
-0.0420015,-0.0133699
0.0302724,-0.0420535
0.0666237,-0.0266586
0.08297,0.00978855
0.0835012,0.0418315
0.100766,0.0428204
0.105843,0.0126743
0.0857999,0.0365103
0.0681001,0.0699461
0.0451501,0.0429679
-0.00549034,0.0070378
-0.0502994,0.006142
-0.0429266,-0.0222483
-0.026134,-0.0158758
0.00380284,-0.00338267
0.0252731,0.00580556
0.0355454,0.0161394
0.0217426,0.0321047
-0.00862113,-0.014278
-0.0326085,-0.0438127
-0.0601657,-0.011615
-0.0563698,-0.0177821
-0.0531936,-0.0110454
-0.0638122,-0.0127879
-0.0828044,-0.017792
-0.0584088,0.00311853
-0.00148844,0.00437172
0.0262103,-0.0177786
0.0128232,-0.0371003
0.0286424,-0.0191255
0.0229815,0.0294445
-0.0137381,0.0407718
-0.0177808,0.0167568
-0.0131484,0.0145672
-0.0216683,0.0472125
0.0200189,0.00812973
0.0867055,-0.0635937
0.108187,-0.0364243
0.0727965,0.0491099
0.0304808,0.00777068
-0.0262146,-0.0215467
-0.0785666,0.0370112
-0.114204,0.0621922
-0.126049,0.0148031
-0.0938098,-0.0585157
-0.00149918,-0.0280267
0.0765663,0.00745925
0.0932233,-0.0127464
0.0626023,-0.0236195
0.0308727,-0.0165899
0.0144677,-0.0102411
-0.0133896,-0.0351346
-0.0288836,-0.0183988
-0.00409071,0.0530205
0.00266533,0.0361187
-0.0216645,0.00657385
-0.0353698,-0.02866
-0.0210115,-0.0430801
0.0232188,-0.0228495
0.0441983,0.00929195
0.032079,0.00969757
0.00785173,0.000131058
0.00150172,0.00835037
0.0153069,0.0151113
0.0298998,0.00490082
0.0370447,-0.000571599
0.0258921,0.00185881
0.0122133,0.00762365
0.00690918,0.00708072
0.00372747,0.00876557
-0.0213596,0.0180303
-0.0185541,0.016332
0.000287956,0.0174802
0.00181083,0.0189368
0.00808218,0.00546904
0.0116187,-0.00370763
0.00891049,-0.00581849
-0.0207635,-0.0111667
-0.0684208,-0.01776
-0.0467979,-0.0127615
0.0224652,-0.0052786
0.0378064,3.17e-05
-0.0347035,0.00734598
-0.0494248,0.00634504
0.0149195,-0.00465853
0.0284333,-0.0148025
-0.00402866,-0.0126983
-0.0209527,0.000598456
-0.000640089,0.019578
0.00527256,0.0232875
-0.0349904,0.0127642
-0.0255244,-0.00164978
0.0129371,-0.0227047
0.0344116,-0.0207899
0.027369,-0.00900568
-0.0121551,-0.00945492
-0.0286685,-0.00881717
-0.0542621,0.00123228
-0.0770437,-0.000665258
-0.0842312,-0.00722161
-0.0620645,0.00634604
0.0338924,0.0265185
0.177453,-0.000255484
0.207741,-0.0268993
0.12618,-0.00658783
0.0154011,0.0160724
-0.0718977,0.0137072
-0.0612577,0.00226821
-0.0489311,-0.00418134
-0.0319878,-0.0133455
0.00104968,-0.0211532
-0.00149015,0.00738167
0.0135366,0.0250019
-0.0139899,-0.00668531
-0.0351497,-0.0153497
-0.0233088,0.0235543
-0.0296073,0.0140053
-0.0467994,-0.00650263
-0.0876861,0.0510503
-0.0993452,0.0747414
-0.0121035,-0.010616
0.0913914,-0.0555674
0.138984,-0.0488012
0.104355,-0.0187682
0.0609639,-0.0208776
0.0663829,-0.035118
0.0657065,-0.0069543
0.0129472,0.0104453
-0.0372717,0.0418362
-0.019239,0.0904638
0.0197567,0.0676435
0.0368752,-0.0649076
-0.0163014,-0.0897393
-0.158332,-0.00987258
-0.18815,0.0384926
-0.0436694,-0.0151202
0.0531215,-0.0531282
0.0210779,-0.00720461
0.0473433,0.0354491
0.0647912,0.0259761
0.00999881,0.0203655
-0.0149101,0.0127345
-0.00789607,-0.0438095
0.00122224,-0.0464137
0.00177398,-0.00117044
-0.00841183,0.079798
-0.0432457,0.0497828
-0.0458919,-0.00695699
0.0592106,0.0253921
0.154934,-0.00193403
0.167976,-0.0473786
0.092709,-0.0500735
-0.0341626,-0.0162213
-0.10817,0.0146773
-0.130102,0.0228732
-0.120989,0.0364788
-0.0360042,0.0149104
0.0223111,-0.0268641
0.0217057,-0.0426197
0.00844363,-0.0520852
-0.0199826,-0.0546401
-0.0564709,-0.028559
-0.0683571,-0.00534606
-0.0390386,0.00809093
-0.0215054,0.0316406
0.00237833,0.0608192
0.00665734,0.0429242
-0.0222084,0.0593053
-0.0140387,0.0696352
0.0106886,-0.0792768
-0.0366352,-0.111484
-0.0222197,-0.0447916
0.0705905,0.0444071
0.072623,0.0837724
0.0465599,0.0384765
0.0525167,-0.0134582
0.0557586,-0.0108457
0.0574158,-0.0138278
0.058382,-0.00237142
0.0324009,0.0307082
0.00740017,0.0308164
0.0108697,0.015036
0.0214151,0.00251784
0.0134577,-0.0350737
-0.0259648,-0.077139
-0.0714138,-0.0817336
-0.0910921,-0.0219945
-0.0521927,0.0526222
0.0109584,0.0567866
0.0530413,0.0203259
0.00776939,-0.0164978
-0.0311331,-0.0394507
-0.000541845,-0.0249231
-0.0203307,-0.00386416
-0.0520748,0.0122574
-0.0446408,0.0218981
-0.0274842,0.0093997
-0.0322895,0.0147212
-0.00676192,0.0302101
0.0272846,0.0541493
0.0237042,0.039504
0.0401209,-0.0219344
0.062864,-0.044097
0.0299684,-0.0353051
-0.000103927,-0.0199699
-0.00739074,0.0183178
-0.02327,0.0231144
-0.015463,0.00151494
0.00851952,-0.000739945
-0.00598286,0.00257492
-0.0231921,-0.019399
-0.000841046,-0.0383275
0.0558198,-0.0126769
0.105469,0.00929675
0.116436,0.00250958
0.0872194,-0.0117593
0.010002,-0.00552967
-0.0759978,0.0139885
-0.110009,0.009926
-0.0484728,-0.00651636
-0.027012,0.00493634
-0.0324815,0.0403815
-0.0030743,0.0293613
0.0279988,-0.0105111
0.0171098,-0.0214429
-0.0500469,-0.0120252
-0.0838809,-0.00078252
-0.0517756,0.00757619
-0.0163301,0.00139928
0.0200277,-0.00859516
0.0340384,0.0134266
0.0127393,0.0483937
-0.0133792,0.0471312
-0.0061663,0.0027166
0.0165421,-0.049882
0.0126544,-0.0454152
-0.00554171,-0.0226948
-0.0264131,0.0116118
-0.0109339,0.0211237
0.0103285,-0.00314852
0.0144781,-0.0148612
-0.0362434,0.0310176
-0.0829077,0.0732649
-0.0527052,-0.0597761
0.00230671,-0.122921
0.080547,-0.0546043
0.114154,0.0159834
0.0880791,0.0311554
0.047692,0.0494927
0.0401277,0.0490143
0.0351115,-0.00976
0.0106781,-0.0299727
-0.00381225,-0.0282671
-0.0128016,-0.0139821
-0.0330031,0.0068928
-0.0173869,0.0188147
0.0138096,0.0276984
-0.00400968,0.034683
-0.0118538,-0.0044297
-0.0049879,-0.0402824
-0.00904969,-0.0441092
-0.0362491,-0.0260187
-0.084446,0.00370426
-0.0986823,0.0218715
-0.0519211,0.0133909
-0.0112089,0.00605418
0.00413724,0.0217648
0.00759319,0.0175844
0.0191987,0.00494672
0.0247402,0.00404158
0.0355887,0.0118497
0.0156657,0.010557
0.0248211,0.0107593
0.0292275,0.00429956
0.0129048,0.00448604
0.0173483,0.00793513
0.013375,-0.056078
-0.0148279,-0.0751384
-0.0166972,-0.0104556
0.0308715,0.0315308
0.0680092,0.0431411
0.0370389,0.0496543
0.00522236,0.0143595
-0.0255949,-0.0100365
-0.0500367,-0.0201358
-0.0653477,-0.0247533
-0.0438354,0.00524739
-0.00876155,0.0625802
0.0379596,0.0523943
0.0380579,0.0194083
0.0265689,-0.00434355
0.0489607,-0.0398784
0.036684,-0.0357406
-0.017053,-0.00397946
-0.0380456,-0.013871
-0.0202928,-0.0318473
-0.00895992,-0.0311502
-0.0382274,-0.0203092
-0.048754,0.015069
0.0043482,0.0333043
0.0236236,-0.0185616
-0.025645,-0.0591947
-0.0182028,-0.0331905
0.000371818,0.0109038
-0.00984097,0.0163541
0.00568588,0.00849609
0.0378739,0.00490954
0.0802709,-0.00510678
0.109182,-0.0179596
0.0568184,-0.00105759
-0.030104,0.0439977
-0.0590702,0.0155685
-0.0627936,-0.00753585
-0.0530224,0.0375899
-0.058373,0.0632594
-0.0414928,0.0177053
-0.00219235,-0.0374542
0.0273188,-0.0477901
0.00420949,-0.0189473
-0.0515191,0.00287427
-0.0837547,0.00488982
-0.0607295,-0.0028029
0.00567745,0.000725219
0.0431115,0.0050448
0.0309517,0.0111736
0.0474453,0.00762971
0.0572502,0.00947985
0.00837163,-0.000788131
0.00274662,-0.04513
0.0661667,-0.0358993
0.067555,0.0210791
0.0221491,-9.61e-05
0.0161708,0.00694454
0.0258157,0.0841634
0.0445673,0.0467886
0.0140135,-0.0318385
-0.0400589,-0.04234
-0.0369566,-0.0117838
-0.0105826,0.0155182
-0.0145467,0.0408349
-0.0270638,0.045791
0.00354377,0.0115031
0.0427969,-0.000274118
0.00231295,-0.00347297
-0.0424737,-0.0372794
-0.0419414,-0.0546866
-0.0137295,-0.038826
0.0251958,-0.0196213
0.0223994,-0.0155008
0.0205157,-0.0185079
0.0179676,-0.0307832
-0.0265148,-0.0104326
-0.0564373,0.0152074
-0.0702873,0.0132148
-0.069033,0.00598026
-0.016864,0.0200644
0.026431,0.0284893
0.0247703,0.0323472
0.0410667,0.0333669
0.0475436,0.00643089
-0.0111713,-0.058407
-0.0703665,-0.0572677
-0.104275,0.0334083
-0.0722145,0.126933
-0.00378698,0.091684
0.0781568,-0.0388224
0.125841,-0.0779138
0.0811686,-0.061345
0.0306436,-0.0412134
-0.0132967,-0.0176067
-0.0415991,-0.000379524
-0.0591206,0.00970909
-0.0300248,0.00806916
0.0179858,-0.00300379
0.0133967,-0.00532349
-0.0127298,0.0176783
-0.0313457,0.0208049
-0.0114041,0.00637846
0.0293718,-0.0129301
0.0305465,-0.00940875
0.0421436,-0.00251441
0.0660449,-0.0061401
0.0581851,0.0020944
0.0291272,0.0111115
0.0220196,0.0124574
0.0259272,0.00687801
0.00720714,0.00415475
-0.0179887,0.00269198
-0.0342296,0.00887552
-0.025165,0.0119534
-0.000143316,-0.00080031
-0.00239468,-0.0102655
-0.023998,0.0137447
-0.0469337,0.0380253
-0.0637369,-0.0115735
-0.0737258,-0.0520457
-0.0582591,-0.0364175
-0.0334158,-0.0156518
-0.0141219,-0.00577872
0.0236668,0.00573643
0.0351368,-0.00515495
0.0238294,-0.00382642
0.0222298,0.0140337
0.0257841,0.0161712
0.0284534,0.00936764
0.0350106,0.0153897
0.0329911,0.0249509
0.0327741,0.0277307
0.0314355,0.00794029
0.00582087,-0.0538842
-0.0117608,-0.0704725
-0.027026,-0.0281959
-0.050977,-0.00520579
-0.0455556,0.0169077
-0.0123953,0.0639815
0.0134713,0.0704601
-0.00895471,0.00925877
-0.0356622,-0.0183291
-0.0223994,-0.0251162
0.0167015,-0.0231643
0.0456588,-0.00947396
0.044072,0.021221
0.033133,0.0569642
0.0234566,0.0250519
0.0267449,-0.0316395
0.0764554,-0.0303217
0.114838,-0.0162617
0.056188,-0.0112012
-0.0387415,-0.00810366
-0.0773018,-0.00183087
-0.0797852,-0.0156265
-0.0546292,-0.0297148
-0.0451539,-0.0167927
-0.0962777,0.0121541
-0.111967,0.0217082
-0.0579037,0.00789184
0.00265306,-0.000282141
-0.0248783,0.00353689
-0.0286849,-0.00016073
0.0150863,0.0018803
0.0509715,0.0304103
0.0628198,0.0663974
0.0808858,0.0267138
0.0800349,-0.0327475
0.0353988,-0.0296971
-0.0223071,0.0100738
-0.0290711,0.0277232
-0.0137882,-0.0311409
-0.0453633,-0.0403356
-0.0479209,-0.0165964
-0.00301731,-0.00715035
0.0254664,0.029524
0.0110113,0.0123608
0.0201782,-0.0355159
0.0705906,-0.0314243
0.0901385,-0.00453432
0.060752,-0.0117233
0.0251241,-0.0116995
0.000446336,0.0430552
-0.0224352,0.113825
-0.0531681,0.0390964
-0.0664148,-0.04618
-0.0703028,-0.0363642
-0.0837201,-0.0215901
-0.0713722,-0.0175478
0.00301374,-0.0113812
0.0540022,0.00507041
0.014835,0.0115459
0.00228522,-0.0349703
0.034609,-0.0210632
0.0575,0.00577467
0.0583555,0.0113133
0.0526506,0.0235056
0.0363463,0.0259684
0.0400251,0.0112801
0.0300902,-0.0159296
-0.0132353,-0.0354162
-0.0572502,-0.0375038
-0.0814706,-0.0327702
-0.068934,-0.0152678
-0.0358961,0.0191502
-0.0257494,0.0460689
0.00714393,0.0301273
0.0609587,0.00420187
0.0424865,0.0046167
-0.0572038,0.0203548
-0.0792152,0.0366041
-0.0221822,-0.00485678
0.00926473,-0.0239514
0.0263589,0.0108773
0.0372504,0.00858446
0.0145301,-0.00954441
-0.00522779,-0.00726664
-0.00651479,0.0109706
0.00670383,0.0291867
0.0304789,-0.00975967
0.00679428,-0.0474656
0.00992467,-0.0341298
0.0429849,-0.00800276
0.0743389,0.00430971
0.0656458,-0.00306166
-0.0105339,-0.00911195
-0.061866,-0.00138127
-0.0741871,0.00899045
-0.0567341,0.00118975
-0.039644,0.0046587
-0.0479482,0.012115
-0.0228923,-0.000962224
0.0377091,-0.0399433
0.0439237,-0.0206541
0.00903111,0.0239009
-0.0154702,0.0430064
-0.0172996,0.0268765
0.0360813,0.0390773
0.0700656,0.0132228
0.0286297,-0.0355123
0.00619223,-0.0278357
0.00754247,-0.01663
-0.0163248,-0.00814404
-0.0426684,-0.0115166
-0.0479709,-0.00045019
-0.0354223,0.0475362
0.00407399,0.0548125
0.0485162,-0.0236681
0.0613388,-0.0496394
0.0310031,0.0060375
-0.00278965,0.00078099
-0.0344626,-0.0257219
-0.0624696,-0.0240834
-0.0922065,-0.0146447
-0.0721012,-0.0171461
0.028121,0.0458892
0.0560727,0.0601184
0.0600252,0.0317766
0.0562146,-0.0239193
0.0368132,-0.0595751
-0.00285958,-0.0382853
-0.023415,0.00502402
-0.080549,0.0317204
-0.0889789,0.0299447
-0.0687821,0.0109647
-0.0596949,0.00365398
0.0266893,0.00637299
0.109707,0.009077
0.081034,0.00975052
0.0630074,0.0139053
0.0782366,-0.0051365
0.0481285,-0.0211638
0.0142663,-0.011905
0.0120741,-0.007787
-0.00578807,-0.00698733
-0.0367671,-0.00388755
-0.0461437,0.00389981
-0.0535071,-0.00933421
-0.0252387,-0.00510305
0.0129594,0.0147219
-0.00221838,0.00741033
-0.0096002,-0.013006
-0.0320405,-0.00641825
-0.0550885,0.00170082
-0.0211794,-0.0218709
0.0180764,-0.0118706
0.0337128,0.00998521
0.0423071,0.0162228
0.0587289,0.0131009
0.0507551,0.000901619
0.00925244,0.00479099
-0.00175415,0.00691673
-0.00390645,0.00187975
-0.0295721,0.00146487
-0.057215,0.00795686
-0.0716624,0.00718846
-0.0639753,-4.81e-05
-0.00887365,-0.0311564
0.0446136,-0.0556688
0.0207352,-0.0199827
-0.00739554,0.0138882
0.0319171,0.0150962
0.084003,0.0183938
0.0920349,0.0146964
0.0608337,0.0152294
-0.00382855,0.0272047
-0.0581124,0.0298007
-0.0661058,-0.00740708
-0.0740464,-0.0368894
-0.0854539,-0.0362079
-0.0719017,-0.0250134
-0.0302558,-0.0153904
0.0375159,-0.00964061
0.0897441,0.0137882
0.0877272,0.01271
0.054727,-0.00744679
0.0457991,-0.00924493
0.00353844,0.0107307
-0.0461741,0.0384982
-0.0463312,0.0321127
-0.0318358,0.0259936
0.0145844,0.0261678
0.0325796,0.00168019
-0.0257963,0.0013151
-0.0989306,-0.01563
-0.111852,-0.0108075
-0.0717239,-0.00112914
-0.0101957,-0.044615
-0.0129026,-0.0583101
0.0414686,-0.0135209
0.124595,0.0268234
0.157211,0.0376929
0.129847,0.0334776
0.0517571,0.00872318
-0.0361483,-0.00663628
-0.0949757,-0.00762683
-0.0915482,-0.00505391
-0.054138,-0.00342876
-0.00225081,-0.0147332
0.0484022,-0.0243656
0.0760586,-0.0107851
0.0601562,0.00192992
0.027306,0.00304447
0.000848552,0.0100221
-0.00123543,0.00707453
-0.01597,0.00131035
-0.064119,-0.00252474
-0.108908,-0.00651058
-0.126219,-0.0289441
-0.102645,-0.0296754
-0.0409268,-0.0258858
0.0382121,-0.0380951
0.106167,-0.0255626
0.13208,0.0214273
0.135428,0.0584845
0.0996244,0.0584202
0.0371682,0.0461739
0.00280083,0.0236501
-0.0253283,0.00462685
-0.0499679,0.0179074
-0.0586249,0.020841
-0.0449081,0.00741617
-0.0229654,0.0219522
0.00697217,0.00835681
0.0166497,-0.020789
-0.0373196,-0.0260905
-0.112827,-0.024452
-0.127512,-0.0162661
-0.08787,-0.00486238
0.0144425,-0.00106551
0.106597,-0.00370206
0.0978528,-0.010576
0.0507644,0.0014238
-0.000517091,0.0110555
0.0152326,0.00265005
-0.0226986,-0.0209472
-0.0709037,-0.0523524
-0.058111,-0.0522015
0.00854224,-0.015997
0.0903527,0.0144556
0.0902855,0.0161964
0.0317474,0.00979988
0.0205143,0.0244525
0.0282163,0.0304102
0.0125419,0.0169062
-0.0203215,0.00866935
-0.0266325,0.0186581
0.00917676,0.0217411
0.045357,0.0176659
0.0275895,0.0199541
-0.011914,0.00898995
-0.0197396,-0.0250823
-0.0326049,-0.0520646
-0.0540533,-0.033417
-0.102439,0.00186194
-0.0775147,0.0147491
0.0250405,0.00251125
0.0256969,-0.0176275
-0.0246439,-0.0156398
-0.00461457,-0.0106072
0.0235961,-0.0204563
-5.04e-05,-0.0184363
0.013824,0.00550044
0.0595391,0.0193776
0.0227286,0.0232659
-0.0277008,0.0185903
0.00400475,0.0140497
0.0417862,0.0121556
0.017409,0.0111014
-0.0166363,0.00417271
-0.0201621,0.00374511
-0.000137145,0.0090521
0.0546425,0.00345929
0.0735097,0.00234555
0.0294577,-0.00772565
-0.00105089,-0.0103729
-0.0091835,-0.0119434
-0.0367222,-0.0098344
-0.0518877,-0.00647917
-0.0366138,0.000634633
-0.00996484,0.00430969
0.0107489,-0.00456779
0.0122801,0.00605227
-0.0481484,0.0534189
-0.0536853,0.0357975
0.0118179,-0.0530612
0.0454001,-0.0966777
0.0437811,-0.048466
-0.000359138,0.0175741
-0.0566142,0.0749907
-0.0810436,0.0473211
-0.0291106,-0.0572763
-0.0255823,-0.0526344
0.0103357,0.0280722
0.0515689,0.0313576
0.010569,0.00117356
-0.0138487,-0.0144855
-0.0459832,-0.0135367
-0.0591947,-0.000909929
0.000567324,0.0174802
0.0426862,-0.000188649
0.0917618,-0.028898
0.0906201,-0.00565875
0.0425703,0.0197274
0.00420518,-0.00881238
0.0093141,-0.0126083
0.0318224,0.0245739
0.0235749,0.0575637
0.0471239,0.0471846
0.0591645,0.0355135
-0.0464507,0.027846
-0.0812113,-0.030727
-0.00770967,-0.0818338
-0.0088931,-0.0556169
-0.0596166,-0.0135693
-0.0457633,0.0189135
-0.00668259,0.0333344
-0.0181294,0.0175342
-0.0592269,7.5e-05
-0.0327423,-0.0257789
0.0698201,-0.0630163
0.0614217,-0.0589224
0.0140064,0.0258209
0.00708508,0.0813121
0.0023768,0.0330066
-0.0124696,-0.00961814
-0.021567,-0.00973365
0.0431539,0.0119407
0.0977193,0.0335389
0.109269,0.0377245
0.0806566,0.0161853
0.00334793,-0.014105
-0.099079,-0.0458528
-0.146616,-0.06853
-0.158725,-0.0479673
-0.15812,0.00500879
-0.110677,0.0326415
-0.0468821,0.041828
0.0658502,-0.00965326
0.140363,-0.0336579
0.107496,0.0105055
0.0964362,0.0120054
0.0682587,0.00855388
0.0153931,0.00571424
-0.0118642,-0.00468752
-0.0289301,-0.003855
-0.000845255,-0.00239783
0.0319305,0.0254442
-0.0107684,0.0291719
-0.0520329,0.00726683
-0.0840764,0.000236082
-0.072796,0.00225403
-0.0593772,-0.000281768
-0.0136008,-0.0186965
0.0642804,-0.0310758
0.0486685,-0.024664
0.0368652,-0.0155214
0.0441093,-0.00619776
0.0522426,0.010616
0.0259004,0.026192
-0.00805351,0.0070767
-0.00171069,-0.0128114
0.00705419,-0.00999569
0.0215362,0.0290065
0.0456728,0.0492592
0.0474936,0.0242041
0.0159962,-0.0015883
-0.0115,-0.0144188
-0.0138285,-0.00812175
-0.0256536,-0.00545717
-0.0403379,-0.00307074
-0.0895847,-0.00500894
-0.0787233,-0.0460922
-0.0337193,-0.0320338
-0.0337384,-0.00512335
-0.0522165,-0.0136915
-0.0346558,-0.0264644
0.0214849,-0.0334338
0.0537348,-0.012065
0.0470799,0.0230417
0.0642499,0.0487989
0.0901437,0.0433606
0.0500821,0.0196512
0.0412358,0.00461044
0.0164778,0.0182454
-0.0503992,0.0357392
-0.0848423,0.00933337
-0.0766644,-0.031211
-0.0554669,-0.0282818
-0.0471228,-0.0043968
-0.0134436,0.0322641
0.0816445,0.0489317
0.113514,-0.00641941
0.0488352,-0.0115123
-0.0476225,0.0248766
-0.117452,-0.0119064
-0.0990765,-0.0355516
0.00320253,-0.0196379
0.078696,-0.00970879
0.0671183,-0.0265125
0.052508,-0.0204094
0.0435655,-0.0109338
0.0325302,-0.0262032
0.0595281,-0.0253937
0.0625822,-0.00111004
0.0247394,0.0324262
0.0136215,0.0339357
-0.0242783,0.028232
-0.0634269,0.0243644
-0.0401396,0.0240861
-0.0255166,0.0260395
-0.0679705,0.00838138
-0.0964573,-0.0219078
-0.0885178,-0.0186076
-0.0686245,0.0020285
0.00544467,-0.0106038
0.0876897,-0.0429995
0.0678078,-0.0469175
0.0402846,0.000811035
-0.00536171,0.0253789
-0.105128,0.0138395
-0.077921,-0.00586611
0.0701862,-0.0233255
0.105212,-0.015995
0.0268931,0.00923822
-0.0474831,0.0322848
-0.117246,0.0161756
-0.100391,-0.0240526
-0.012486,-0.0360396
0.0714499,-0.024008
0.120307,0.00279278
0.0977237,0.0421634
0.0537113,0.0491204
0.0448516,0.0168759
0.041218,-0.00154828
0.0208005,-0.0033687
0.0144879,0.00553226
0.000306525,-0.00930314
-0.0355801,-0.0153385
-0.012133,0.000950576
0.0364648,0.0193812
0.0232416,0.0127567
-0.0222879,0.00348646
-0.0747068,-0.00247815
-0.102911,-0.025611
-0.056063,-0.0357479
-0.0111764,-0.0170252
-0.00210785,-0.00928949
-0.0101452,-0.00211356
-0.0137545,0.00775197
0.0330093,0.0182944
0.0711712,0.0228523
0.0378452,0.0316686
-0.0155135,0.0422179
-0.0164595,0.0160516
-0.0106241,-0.0118212
-0.0136062,-0.0131229
-0.0482824,-0.0109074
-0.0521833,-0.0122133
0.0201353,-0.0184887
0.0095379,-0.0352183
-0.0393104,-0.0515366
-0.0599823,-0.0299574
-0.0322068,0.000927645
0.0422805,0.0187496
0.105571,0.0332784
0.127575,0.047389
0.120294,0.0261717
0.0687917,0.0127407
-0.00323848,0.00632886
-0.0485339,0.000796993
-0.0779932,-0.0148166
-0.0538717,-0.0200512
-0.0320923,0.0106039
-0.0423435,0.0190622
-0.00284964,0.0254768
0.0188225,-0.0115449
-0.0116386,-0.0574026
-0.0524058,-0.0652806
-0.0446583,-0.0325598
0.000565952,0.0244433
0.0236832,0.0456994
0.020685,0.0353858
0.0320408,0.0217849
0.056212,0.019886
0.0350054,0.0273429
-0.0156917,-0.0127724
-0.038861,-0.0422882
-0.0114187,-0.0168695
0.0400558,0.0238603
0.0653571,0.0384904
0.0381644,-0.00987931
0.0179435,-0.0287723
0.0200851,-0.0264788
-0.0243542,-0.0132245
-0.0728543,-0.00602836
-0.0802869,0.00188839
-0.100481,-0.0116312
-0.0948937,-0.0130291
-0.0277475,0.0534395
0.0388691,0.0653624
0.0900046,-0.0382737
0.0840149,-0.080422
0.0430068,-0.0428739
0.0420334,-0.0103763
0.0527864,0.0108041
0.0636791,0.0284163
0.0559908,0.027861
0.0498565,0.032777
0.0103863,0.0291564
-0.0642601,0.00772314
-0.18307,-0.00501236
-0.270081,-0.0167684
-0.225087,-0.0333609
-0.123043,-0.0262376
-0.00590163,-0.00048734
0.0593233,0.00433019
0.0756841,-0.0112738
0.167862,-0.0220063
0.235164,-0.0198228
0.209697,-0.00237234
0.0945733,0.0276791
-0.0375124,0.0762019
-0.0749938,0.0690472
-0.0245605,0.0139924
0.00693919,-0.0175069
0.010115,-0.0191885
-0.01677,-0.0108055
-0.0537966,-0.00780558
-0.0528029,-0.0206993
-0.0201387,-0.00437347
-0.0261105,0.0332794
-0.0344034,0.0193062
-0.0177189,-0.0385567
-0.0229462,-0.0596336
-0.0354936,-0.0425846
-0.0421388,-0.0245632
-0.00583349,-0.0201965
0.0427001,0.0191025
0.0672621,0.0698977
0.0886931,0.0586357
0.0607099,0.044364
0.00306381,0.0276414
-0.0312884,-0.0214206
-0.0505914,-0.0444138
-0.0605231,-0.0452213
-0.0515808,-0.0325831
-0.0213486,-0.0131955
0.0437898,0.00205974
0.044222,0.0212472
0.0101977,0.0119568
0.0017706,0.00264052
-0.0335471,0.00805486
-0.0674262,0.0293592
-0.0275556,0.0187514
0.0386809,0.000544708
0.0516328,0.0199368
0.0500514,0.0411711
0.0285963,0.021101
-0.00875738,-0.0274004
0.0120684,-0.0367768
0.0345876,-0.0342312
0.0203689,0.00753931
0.0389534,0.027327
0.0774856,-0.0163548
0.0679441,-0.0316316
-0.00166046,-0.0100065
-0.0668654,0.011699
-0.0852228,-0.0150274
-0.0590318,-0.0321715
-0.036126,-0.0174115
-0.0353481,0.0066234
-0.0271583,-0.00162659
-0.0216671,-0.0197011
-0.0529317,0.0228056
-0.0256419,0.0487349
0.0428291,0.00976381
0.0310787,-0.000138622
0.0330489,-0.00410491
0.082014,-0.0227049
0.0796306,0.000218829
0.0579361,-0.0194555
0.0462058,-0.066385
0.000715763,-0.0101151
-0.0582421,0.0265502
-0.0927144,0.00666208
-0.0817597,0.0166972
-0.0624338,0.0322413
-0.0476006,0.0298793
0.00844809,0.0209463
0.0486551,0.013627
0.0600564,0.0116864
0.0294456,0.0337277
-0.00966072,0.0334481
-0.0362714,-0.0096229
-0.0731922,-0.0584422
-0.101997,-0.070425
-0.0661923,-0.0382909
0.0287219,-0.0114133
0.111104,-0.00365932
0.0904457,-0.0145016
0.00407293,-0.0243504
-0.0313725,-0.013858
-0.0493296,-0.00631626
-0.067405,0.00421357
-0.0478031,0.0142911
0.00485708,0.00404347
0.0627197,-0.0151719
0.0739556,-0.0178655
0.0532763,0.00438038
0.0793426,0.0198059
0.0884607,0.022274
0.0437232,0.0281921
-0.00152839,0.0493364
-0.0167092,0.0690263
-0.00893309,0.0569151
0.0114813,0.00648444
-0.00640725,-0.0154036
-0.0165061,-0.00787842
-0.0564883,-0.00137324
-0.113138,0.00995648
-0.096107,0.00369606
-0.00153561,-0.00893356
0.0481735,-0.0176428
-0.0317556,-0.0227358
-0.0145828,-0.017243
0.050687,0.00714347
0.024772,0.0112049
-0.0139511,-0.0118506
-0.0516741,-0.00534391
-0.0191015,0.0112079
0.0537313,-0.00215446
0.0874635,-0.0189134
0.0913921,-0.0252616
0.057911,-0.0114077
0.00520981,0.00573518
-0.021848,0.0203585
-0.0331667,0.0178696
-0.0548863,-0.00839481
-0.0403322,-0.0109453
-0.00806319,0.00692125
0.0303985,0.00189497
0.00702957,0.0053046
-0.00513185,0.0210996
-0.0740383,-0.0222626
-0.0975694,-0.037386
-0.00563054,-0.0212878
0.0461447,-0.0115491
0.0148072,-0.0145137
0.015738,0.0164673
0.0306021,0.0519095
0.0308598,0.0372981
0.00110689,0.0113155
-0.0230849,0.0069029
0.0034113,0.00559561
0.0418566,0.00391243
0.0675106,0.0048383
0.0740708,-0.0055901
0.0371242,-0.0222727
0.00228506,-0.00784152
-0.0317031,0.0283712
-0.0746543,0.0232567
-0.0649634,-0.0483024
-0.0362249,-0.0519094
-0.0178452,0.0112226
-0.00572586,0.025548
-0.0232165,0.00554311
-0.0227835,-0.00567413
0.00728151,-0.0228405
-0.00556562,-0.036164
-0.0195645,-0.0102032
0.0140791,-0.00743236
0.026589,-0.0122489
0.0233602,-0.0084854
0.0146344,0.0137164
0.0253276,0.0299975
0.0375046,0.00638723
0.0234041,-0.0156841
-0.0322331,-0.0163683
-0.0935797,-0.010067
-0.0816326,0.0122244
-0.0263812,0.0257451
0.0117166,0.01351
0.0413709,0.0140469
0.0485824,0.0166984
0.0354094,-0.00352826
0.0081602,-0.0264802
-0.0368503,-0.0439632
-0.0408612,-0.0320646
0.0562641,0.0216205
0.0520186,0.0282222
-0.00828328,-0.000314887
0.017924,-0.00544778
0.0584568,0.00425913
0.0498247,0.00692183
-0.0145026,0.00158397
-0.0532945,-0.0122638
-0.0527127,0.000892817
-0.0631485,0.0261742
-0.0383124,0.0393463
0.0118932,0.0499938
0.0356938,-0.00379128
0.0202144,-0.0190856
-0.00370531,0.00650271
-0.0104854,-0.0325681
-0.0443713,-0.0526768
-0.0810934,-0.0289911
-0.0891361,-0.00633806
-0.0527854,0.00270422
0.020577,0.0337311
0.0515371,0.037596
0.0400027,-0.0113409
0.0761823,-0.0461342
0.112576,-0.0191982
0.0710618,0.00219863
0.0320471,0.00557197
0.0297402,0.0192192
0.019622,0.0429694
-0.0103907,0.0348631
-0.0177161,-0.00351447
-0.0254816,-0.0149856
-0.0268269,0.00115771
-0.0174574,0.0129821
0.0143702,-0.0154204
0.0411262,-0.0219272
0.0243817,0.0446613
0.0289603,0.0383473
0.0700654,-0.0415034
0.0501592,-0.0551555
0.000135025,-0.0328232
-0.0407901,0.00545121
-0.102289,0.0192005
-0.150235,0.0164512
-0.136686,0.01328
-0.0376021,0.00141927
0.0213391,-0.0233579
0.0463087,-0.0469338
0.0823988,-0.0457971
0.00661284,-0.000114445
-0.0402514,0.0466091
0.00133779,0.0470563
0.0254518,0.0209528
0.00825285,0.00639209
0.0296713,-0.0128195
0.0304023,-0.0217527
-0.00937701,-0.0115191
-0.0311954,0.00344574
-0.0389411,0.0112433
-0.0947237,0.022587
-0.104632,0.018293
-0.0183183,-0.00439226
0.0197287,-0.0337788
-0.0087736,-0.0380723
-0.00214471,-0.016376
0.0425847,0.00899001
0.0946065,0.0211178
0.141566,0.0320709
0.156898,0.0228198
0.107015,0.00957279
0.0292886,0.00137676
-0.0347294,-0.00170967
-0.0711928,-0.00284415
-0.0890926,-0.00269896
-0.0662446,0.00221503
-0.0387183,-0.00286333
-0.0240017,-0.0154355
-0.0147786,0.0213281
-0.0159518,0.037404
-0.0360959,-0.00250717
-0.0318884,-0.04298
0.0146076,-0.0354283
0.0599959,-0.00244074
0.0828803,0.0169245
0.0534476,0.0148899
0.038042,0.00251457
0.0413018,-0.0187181
0.0121999,-0.0174253
-0.069559,-0.00573017
-0.0976913,-0.0126172
-0.00724096,-0.0202783
0.0692693,-0.00749431
0.0236053,0.0113517
-0.0202545,0.0412875
-0.0273227,0.0592269
-0.0273634,0.0423005
-0.0225436,0.0121631
-0.0541865,-0.0320348
-0.0661521,-0.0391937
-0.0597537,-0.033792
-0.0414458,-0.0208215
-0.0256075,0.00730181
-0.031017,0.00592682
-0.0327448,-0.00248707
-0.0337118,0.00582537
-0.00798131,0.00973144
0.044954,-0.00410079
0.111023,-0.0060765
0.142825,0.000787389
0.150923,-0.00750947
0.147734,0.00152904
0.104704,0.0305835
-0.00452733,0.0377594
-0.0893629,-0.00661536
-0.0975871,-0.0201266
-0.0551743,-0.0186407
-0.0648299,-0.0249284
-0.0660335,-0.012244
-0.0240217,-0.00801065
-0.00800611,-0.00829806
0.0112551,-0.00371049
0.0128851,0.000220085
0.0148103,0.00345349
-0.00436245,0.0154557
-0.0539429,0.035176
-0.0954871,0.0240939
-0.0714218,-0.0205808
0.00687963,-0.0351789
0.0627215,-0.0123966
0.0274525,-0.00337052
0.0244792,-0.00673902
0.0678525,-0.00309605
0.0724367,0.0153526
0.0549074,0.0320146
0.0308723,0.0381285
-0.00110987,0.0411986
-0.0216977,0.00862844
-0.0230277,-0.0167727
-0.0313275,-0.0307955
-0.0363202,-0.0341268
-0.00228061,-0.0155902
0.0374049,0.0120831
0.0492565,-0.0124596
-0.00553566,-0.0169906
-0.0431469,0.00821449
-0.069767,0.0146217
-0.0908684,-0.00308808
-0.0479052,-0.0157159
-0.00410894,-0.0258503
-0.0137236,-0.033352
0.00282332,0.0120066
0.0483045,0.0122659
0.0603729,0.00741599
0.0661334,0.0419769
0.0885118,0.0491049
0.0787829,0.0349758
0.0643338,0.0236755
0.0431877,0.0130227
-0.00446477,0.0133631
-0.0186348,-0.0250129
-0.0261613,-0.0330136
-0.0500213,-0.00795519
-0.0468287,-0.00892731
-0.0431836,-0.0173986
-0.0379577,0.00151447
0.00418093,-0.00755814
0.0277551,-0.0102154
0.0204225,0.00550298
0.00620336,-0.0103761
-0.0371048,-0.0188778
-0.10337,0.00492649
-0.174791,0.0161203
-0.143099,-0.0200211
-0.00889596,-0.0398403
0.106814,-0.0192507
0.100322,0.0137265
0.0501202,0.0154246
0.0205245,0.0207154
0.0291018,0.0370216
0.0214187,0.0195541
0.0529957,-0.0412256
0.0697637,-0.0434
-0.0063781,-0.00845082
-0.0442965,-0.0024306
0.014399,0.0315078
0.0553677,0.0467972
0.0485846,0.0268885
0.0141505,0.0056331
-0.0175893,-0.0139763
-0.0623999,-0.0246472
-0.0962584,-0.0203468
-0.058272,-0.028893
-0.0172473,-0.0338067
0.0264532,-0.0389108
0.0665499,0.00270537
0.0731868,0.0516904
0.0431841,0.0521502
-0.00975742,0.0372657
-0.0534657,0.0319588
-0.125863,-0.00428567
-0.122182,-0.0264771
-0.0478648,-0.0128675
0.0176882,-0.0138329
0.0291708,-0.0200213
0.0423468,-0.0199338
0.0490633,-0.0147561
0.0205355,-0.000312115
-0.00750875,0.00417708
0.0417733,0.00468175
0.0825805,0.00994184
0.0210599,0.00395554
-0.0521002,-0.00243949
-0.0333976,-0.00528175
0.0226656,0.00077527
0.075978,0.0107452
0.10885,0.00153406
0.0599025,-0.00179386
-0.0221047,0.0126838
-0.0409269,0.0132699
-0.042171,0.0225883
-0.049438,0.0182076
-0.0629972,0.0234352
-0.0562185,0.0306212
0.0172965,-0.0330696
0.0323237,-0.0523079
0.0274396,-0.0110498
0.0615768,0.00133322
0.0294964,0.00868696
-0.0458728,0.00369495
-0.121479,-0.00292886
-0.102976,-0.015178
-0.0465932,-0.00852561
-0.00176321,-0.00082103
0.0355911,-0.0117514
0.0428868,-0.0204831
0.064946,-0.0154981
0.0504764,0.0082701
-0.0201702,0.0217963
-0.0457094,0.00255826
-0.0498905,-0.00695342
-0.0551726,0.0077717
-0.0292013,0.00950107
0.0194397,0.00206171
0.0451357,-0.0041422
0.0652976,0.001702
0.0172923,0.000996775
-0.0156417,-0.00848914
0.0401196,-0.0229994
0.0750824,-0.0142527
0.0640768,0.00735973
0.0571833,0.029788
0.0279864,0.0699303
-0.059097,0.0558663
-0.132116,-0.0139519
-0.121983,-0.0349434
-0.0103887,-0.0374708
0.120743,-0.0291153
0.170469,0.0151011
0.111806,0.0336331
0.0486435,0.0147885
0.0224605,-0.00137039
-0.0280297,-0.0143704
-0.102721,-0.0197601
-0.124432,-0.023512
-0.105861,-0.0191068
-0.0568521,-0.0089835
-0.000136862,-0.0120787
-0.00376384,-0.0148353
-0.0389698,0.00745869
-0.0577113,0.0306381
-0.0337481,0.0174759
0.00540188,-0.00953576
-0.0138423,0.0137635
-0.0146434,0.0105402
0.0119721,-0.0235216
0.0363376,-0.0166822
0.0596831,0.00494126
0.0793785,0.0137119
0.0554239,0.00880226
0.0274362,0.00901786
-0.0040071,0.0448813
-0.025557,0.0414941
0.00988794,-0.0110041
0.0326595,-0.0349418
0.0073638,-0.0183364
0.0280553,0.00824005
-0.0377446,0.0124542
-0.109999,-0.019737
-0.0970942,-0.0371294
-0.0885586,-0.0322383
-0.0339183,-0.0289537
0.0563837,-0.0264287
0.107078,-0.000704928
0.0889961,0.0370195
0.0406803,0.0440532
0.0216801,0.0238333
0.018782,0.000173386
0.0279959,-0.00482562
0.0113238,0.00691523
-0.00676487,-0.0329506
0.0147136,-0.00692885
0.0569738,0.00482096
0.0526406,-0.0103201
-0.0136693,-0.00465437
-0.0343168,0.00749368
-0.0424493,0.0030693
-0.0941236,0.0159516
-0.113718,0.0336266
-0.0950467,0.0213278
0.01477,-0.0159341
0.073662,-0.0315649
0.0548449,-0.015833
0.0100434,-0.0068973
-0.0205783,0.000923168
0.0192574,0.0253127
0.01915,0.0320893
0.00535942,0.000786149
0.0223551,-0.0282152
0.00792208,-0.0285521
-0.0105386,-0.00351473
-0.0142203,0.0146665
-0.00754428,0.00689398
0.0190496,0.00738504
0.0272958,0.00905511
0.0259606,0.00838446
0.0297664,0.0216029
0.0265066,0.0221373
0.0538095,-0.00802196
0.00627057,0.0128026
-0.0792891,0.0102173
-0.130042,-0.0500102
-0.132407,-0.0558564
-0.117084,-0.000497915
-0.0710368,0.00809499
0.0238282,-0.0149889
0.0683697,-0.0132196
0.0482903,0.0290452
0.053724,0.065404
0.0646098,0.020441
0.0354273,-0.0164368
0.000958436,-0.0270201
-0.00504617,-0.0148025
0.0302047,-0.0012971
0.0687542,-0.0098685
0.0786066,-0.01807
0.012701,-0.000128933
-0.0507679,0.0123779
-0.0609033,0.00738331
-0.039175,0.00376311
0.00131439,-0.00948269
-0.00440092,0.00554935
-0.00268855,-0.00262432
0.0259009,-0.0244687
0.0512935,-0.0172979
0.00375776,0.00340159
-0.0325697,0.00207373
-0.00211778,0.00351257
0.0122276,0.017721
0.0139739,0.0154175
0.0107468,0.0210999
-0.00690115,0.0258233
-0.0409852,0.00755839
-0.0544947,0.00203189
-0.0129708,-0.00780015
0.0492372,-0.0234153
0.0707577,-0.0274235
0.0454596,0.0019643
-0.00511118,0.0258468
-0.0177481,0.0162217
-0.00471341,0.00292113
0.0282407,0.00830381
0.0198313,-0.00310215
-0.0427488,-0.0460953
-0.0997265,-0.0484613
-0.108596,-0.0272537
-0.0649186,-0.00252028
-0.0129457,0.0103913
0.0126629,0.0430398
0.0081321,0.0549867
0.0166866,0.00800303
0.00913781,-0.0311652
0.0315358,-0.0444867
0.0600698,-0.0353547
0.039893,0.0132231
0.00315515,0.0360906
0.0175408,0.0265241
0.0457739,0.00696164
0.00600106,-0.00974665
-0.0588671,0.00359841
-0.0690981,0.0181297
-0.0333927,0.0104684
0.00598632,0.0238269
0.021864,0.0263978
0.0168231,-0.00396226
0.0765996,-0.0250738
0.0803873,-0.0132886
0.00806142,-0.00582955
0.0182796,-0.0189704
0.00871157,-0.0255129
-0.0173336,-0.0188189
-0.008019,-0.00719742
0.021111,-0.000568372
-0.000709196,0.00247877
-0.0183638,0.00201522
0.017316,-0.00674219
-0.0197496,0.00514886
-0.0961191,0.015648
-0.0395774,-0.0124235
-0.0106796,-0.0297031
-0.0424281,0.00282195
-0.0153758,0.0353631
-0.00944589,0.0228766
-0.00365269,0.0078486
0.0107663,0.0102897
-0.0037261,0.0191527
-0.0398226,0.00337042
-0.0162981,-0.0262448
0.0493429,-0.0253608
0.0482252,-0.0114275
0.00289463,-0.00254837
-0.0177862,0.00435184
0.00611024,0.00279711
0.0277014,-0.00296862
0.034504,-0.00432785
0.0265841,0.00577902
0.00639836,0.0137863
-0.0231319,0.0113289
-0.0347006,0.00496084
-0.0229629,-0.00345061
-0.00630272,-0.00579754
0.010878,-0.00961339
0.0400419,-0.00570097
0.0701774,0.00247872
0.0789342,0.00214176
0.037437,-0.000841753
-0.0370846,-0.00235771
-0.097667,-0.0188838
-0.084851,-0.0264956
-0.0411399,-0.00691417
0.0171611,0.0112777
0.00781113,0.0107493
-0.00271278,0.0123749
0.020144,0.0327315
0.0337279,0.0318078
0.0703129,0.0193986
0.0606362,0.00801773
0.00626458,-0.00260589
0.00059147,-0.0235909
0.0106915,0.000705945
-0.00954919,0.0293464
-0.022383,0.0016939
-0.0511497,-0.0109973
-0.0758518,-0.00859027
-0.0555261,-0.0184939
-0.0119729,-0.0258473
0.019378,-0.0225483
0.0397935,-0.0236353
0.0607016,-0.00628744
0.00957381,0.0492594
-0.0335898,0.0626061
-0.0045544,0.0163301
0.0362508,-0.0044405
0.0481722,-0.000459966
0.0321378,0.00401529
0.00853789,-0.00982197
-0.0564125,-0.0195901
-0.153049,-0.0231249
-0.139872,-0.0194883
-0.0655406,-0.0141123
0.00282159,-0.0260121
0.0495711,-0.0271829
0.0844094,-0.0117189
0.0734428,-0.0197129
0.0351212,-0.0166335
-0.0104777,0.00586265
-0.0330138,0.0154269
-0.0260036,0.000209822
0.0206382,-0.00971011
0.0293716,0.0143921
0.0483673,0.0285351
0.0312676,0.00976663
-0.00265612,0.00973146
0.0110784,0.011391
0.025068,0.0252619
0.0181137,0.0384046
0.00735061,0.0302167
-0.0147689,0.0126531
0.0206383,0.00781175
0.0327293,0.00934985
-0.0125448,-0.0284942
0.0169819,-0.0558671
0.0427944,-0.0124845
-0.0138026,0.01606
-0.0771701,0.0135119
-0.0925824,0.0199626
-0.0560164,0.0238559
-0.0137066,0.00207783
0.0206451,-0.0355876
0.0232489,-0.0380289
0.00671125,-0.0212493
0.0153066,-0.00583403
0.0212291,0.0026427
0.0349394,0.018702
0.031595,0.020769
0.00660868,0.00793443
-0.0288123,-0.0033229
-0.0659532,-0.0121763
-0.0603864,-0.0131943
-0.00183972,-0.0177096
0.0379302,-0.0314785
0.0137962,-0.0125405
-0.0109396,0.0184498
0.0404437,0.00345259
0.0382016,-0.0181726
-0.0149445,0.00290654
-0.0475654,0.0276299
-0.0506134,0.0268925
-0.0179444,0.0136984
-0.000862167,0.000375629
0.0213125,-0.00167334
0.0527644,-0.00156081
0.0419465,-0.00738705
0.000784384,-0.0134698
-0.0537719,-0.0134198
-0.0534151,-0.00642647
0.0131801,1.72e-05
0.0554248,0.0052099
0.0753698,-0.00508988
0.0729736,-0.000871103
0.0302688,0.0223372
-0.0125502,0.0263747
-0.0219109,0.00336266
-0.0260581,-0.0136731
-0.0265432,0.00207129
-0.0107952,0.0268686
0.00749753,0.00818249
0.0261754,-0.015015
0.0165318,-0.00102754
-0.0232167,0.00782392
-0.0526856,0.00922922
-0.0926673,0.012266
-0.0698909,-0.0134133
-0.0264996,-0.0410972
-0.0552619,-0.0316124
-0.0578538,-0.0242368
-0.0206646,-0.0128546
-0.00567286,-0.0136347
0.014866,-0.0093758
0.00558684,0.0189941
0.0238831,0.0355816
0.107077,0.028143
0.173149,0.0176988
0.12059,0.0217732
0.0218142,-0.00521545
-0.0279592,-0.0303488
-0.047584,-0.0317103
-0.0539259,-0.0148944
-0.0169969,-0.00332624
0.0244111,-0.00317802
-0.0016073,-0.0129861
-0.0432454,0.00603877
-0.038711,0.0427067
0.0179947,0.0463552
0.0491108,0.0265441
0.0832076,0.0296311
0.0687515,0.0185359
-0.0124483,-0.0150129
-0.0790824,-0.0248346
-0.0848505,-0.0115215
-0.0633713,-0.00716749
-0.0249937,-0.0042494
-0.0200835,-0.0126774
0.00468783,-0.0228676
0.0124066,-0.00175499
0.016562,0.0359213
0.0235683,0.0267947
0.0336871,-0.00120495
0.0372932,-0.0103125
0.00410596,-0.0297301
-0.0122182,-0.027879
-0.0147308,-0.0104936
-0.0316142,-0.00995326
-0.0313442,-0.00506751
0.0134718,0.0126533
0.0887885,0.0046285
0.0897233,-0.00373458
0.0250144,-0.00295497
0.0530749,-0.0158144
0.0579757,-0.0164475
0.0270053,-0.00982082
-0.0267414,0.00869943
-0.0659256,0.0258981
-0.0969358,0.0309829
-0.106613,0.0119135
-0.0711896,-0.00724214
-0.029325,-0.00335516
