Comp Ch 3,Comp Ch 4
-0.00253811,0.0706336
-0.00199911,-0.0816885
0.00994818,-0.0531383
0.0395878,0.00836093
0.0508469,-0.0214805
0.0436239,-0.00962859
0.0357899,0.0553066
0.0120269,0.0369081
-0.0118671,-0.0666252
-0.0216439,-0.03579
-0.0253203,-0.0279231
-0.0191776,-0.0263269
-0.00464575,0.0337658
0.0108313,0.0484906
0.0247124,0.00509206
0.0427135,-0.0109704
0.05245,-0.0169468
0.0291714,-0.0158805
-0.0202054,0.0160776
-0.0347131,0.0187688
-0.0185315,0.0111382
-0.0178357,0.010746
-0.00968014,0.00188097
-0.011601,0.00258035
-0.0358691,-0.00362815
-0.0568411,0.0172411
-0.0541393,0.0505039
-0.039042,0.000379648
-0.0262233,-0.0219364
-0.00250583,-0.00770525
0.0331725,-0.0161308
0.0655746,-0.0294919
0.0751695,-0.0114947
0.0661806,-0.0241676
0.0112931,-0.0319968
-0.0460386,-0.0321474
-0.0495103,-0.0143829
-0.0430941,0.0425439
-0.0336382,0.0503101
-0.0145865,-0.0126564
-0.0123817,-0.0236463
-0.0184152,0.0214088
-0.0257781,0.019085
-0.0274156,-0.0131371
-0.0277062,0.00197768
-0.00877623,-0.0160843
0.00573164,-0.00421736
-0.000531377,0.022235
-0.00847357,0.0660599
0.0159368,0.0522341
0.0827899,-0.0385476
0.142648,-0.0171956
0.183319,0.0122899
0.167887,0.0444261
0.0995284,-0.0648505
-0.0130012,-0.05089
-0.0958149,0.0152449
-0.137707,0.00984716
-0.129499,-0.0145092
-0.0887558,-0.0147562
-0.0545524,-0.00548254
-0.0251841,-0.00754712
0.00544122,0.000494258
0.0168239,0.0187937
-0.0227181,0.00747358
-0.0427298,-0.00492713
-0.0335001,0.00011411
-0.0172723,0.00836501
-0.0168958,0.0145354
0.00863443,0.00442369
0.0266728,-0.00128891
0.0317768,0.0301206
0.0428496,0.031026
0.0404265,-0.0551209
0.0189931,-0.0608434
-0.00895096,-0.0131812
-0.00611635,0.021326
0.0201307,-0.0237782
0.0289552,0.0700238
0.0303803,0.0378952
0.0194678,-0.039035
0.000639512,0.0188722
-0.0278956,0.00271688
-0.0534709,-0.00372243
-0.0453562,-0.0123973
-0.00555793,-0.0200031
-0.00295273,-0.011124
0.0116099,-0.000117276
0.0321613,0.000300149
0.0322122,0.00132887
0.0212268,-0.000500727
0.00565252,0.0167276
-0.00843549,0.0407729
0.010597,-0.0163268
0.0178087,0.00794563
0.0189354,-0.0193824
0.0112242,-0.00918136
-0.0185127,0.0496827
-0.0417203,0.00337644
-0.0409002,-0.076175
-0.0460703,-0.0239967
-0.0403799,-0.0021573
-0.0100742,0.0103852
0.0367249,0.0203622
0.0465037,0.00937181
0.0315215,-0.0260024
0.0300298,-0.0105944
0.0112689,0.00115304
-0.0190491,0.011588
-0.0193476,0.0309893
-0.00788578,0.0262014
-0.0156855,-0.0147063
-0.0248182,-0.00645381
-0.0192148,-0.015078
-7.4e-05,-0.0179553
-0.0235027,-0.00739433
-0.0335576,-0.0150054
-0.0102821,0.0358977
0.0125348,0.0845674
0.0556157,-0.0381126
0.0870569,-0.0666979
0.0582819,0.0294631
0.000585677,0.0708275
-0.0571713,-0.0135153
-0.0957419,-0.0556607
-0.0617526,-0.0589081
0.0137705,-0.0167526
0.0633146,0.0466194
0.0747138,0.176531
0.10013,0.0127763
0.102303,-0.137974
0.083155,-0.0258462
0.0249184,0.0590837
-0.0156239,0.00545955
-0.0336616,0.00844196
-0.0567289,-0.0174986
-0.0531096,-0.0666865
-0.122633,0.052573
-0.110807,0.0852374
-0.0141907,-0.0494005
-0.0369815,-0.0484204
-0.059655,-0.0227773
-0.0445438,-0.037129
-0.0160714,-0.0194634
-0.0180174,-0.00654716
-0.0162898,-0.00208817
0.0255528,0.0164019
0.0349734,0.00598905
0.0167238,-0.00485851
0.0124379,-0.0104901
0.00837916,-0.0295034
0.0053466,-0.0252269
0.0025625,0.0282229
0.0309151,0.0403015
0.0506142,0.0434776
0.0537955,0.00460199
0.047292,-0.0135412
0.0306015,-0.00946749
0.00172298,0.00665081
-0.00889634,0.00523533
0.00392026,0.0379796
-0.00575618,-0.00297058
-0.00139842,-0.0103063
0.00381458,0.0134531
-0.00575447,0.0137827
-0.00638542,-0.00353647
-0.0248201,0.0576311
-0.0417689,0.058951
-0.0255431,-0.0338216
0.00159316,-0.0692501
0.0318156,-0.0508567
0.0388474,-0.00648118
0.0295159,-0.00400957
0.0136415,0.00195726
-0.00601019,0.0225833
-0.0191912,-0.0039858
-0.018541,-0.0608088
-0.0145751,-0.0252002
-0.0158205,0.0185605
-0.0114737,0.0558256
9.65e-05,0.0512048
0.0255342,0.0535888
0.0636817,0.05051
0.0704892,-0.111066
0.0356245,-0.112595
-0.0190228,-0.0420714
-0.0791108,0.0310437
-0.0785098,0.0308592
-0.0521116,0.00926651
-0.0130922,0.00393659
0.0223392,0.021111
0.0286433,0.00127154
0.024164,-0.0144885
0.015139,-0.0114425
-0.0203825,0.000623157
-0.0330768,0.0152031
-0.0200259,0.014813
-0.0257582,0.0130447
-0.0337014,0.0173422
-0.0288551,-0.00169216
-0.0249183,-0.0267216
-0.0227859,-0.00578027
-0.00691456,0.00129596
0.0274747,-0.017474
0.0498484,0.0932951
0.0877508,0.0883417
0.106749,-0.135785
0.0610946,-0.0549246
0.0171026,0.0103925
-0.00804719,-0.0166572
0.00255821,-0.0492634
-0.00420062,-0.0130261
-0.0277612,0.0826828
-0.0214103,0.0401514
-0.0314697,-0.0423577
-0.0579351,-0.0271004
-0.0705983,-0.00751832
-0.033203,-0.00710114
0.0112906,0.0142435
0.0413761,0.0223556
0.0577742,0.0662168
0.0353828,0.0648745
-0.00554144,0.0723575
-0.0239511,-0.0394526
-0.0288921,-0.0864518
-0.0379787,-0.0461077
-0.0065409,-0.02294
0.0281316,0.00721002
0.0132652,0.0270445
-0.0167645,0.0540218
-0.0262784,-0.000982139
-0.0277446,-0.0311722
-0.0260259,-0.0140812
-0.0273164,-0.00683431
-0.0283225,-0.00240528
-0.0240592,-0.0136736
0.00485311,-0.0287439
0.0284252,0.0879234
0.0384013,0.0111726
0.0577172,-0.0904698
0.0570562,0.000519843
0.0410127,0.0155202
0.0230483,-0.0126847
0.0106056,-0.0170485
0.000726697,0.00649359
0.000591212,0.0119437
-0.00957483,0.0137391
-0.0385353,0.00141607
-0.0403311,-0.0246977
-0.0124745,-0.0257851
0.0016684,0.00537665
0.0171573,0.0137796
0.0352655,0.00697231
0.0352129,0.0184937
0.00262432,0.064975
-0.022684,-0.0253127
-0.016853,-0.0632671
-0.00124894,0.00103767
0.0102767,0.0310745
0.0173453,-0.00739667
0.0376886,-0.0163404
0.0404722,0.0434877
0.0405594,0.0863337
0.0308334,-0.065173
-0.0112396,-0.0860697
-0.059032,-0.0134486
-0.0896021,0.0199815
-0.103884,0.05444
-0.0805619,0.0327337
-0.0473789,-0.0404027
-0.013176,0.00380341
0.0175638,-0.00534028
0.0128273,-0.0294486
0.0188856,0.0173071
0.0344966,0.022141
0.0540462,0.024306
0.0352091,0.0672359
0.0101359,-0.0896022
0.00557205,-0.100445
0.0115841,0.0495711
0.00926927,0.0147364
-0.0046365,0.0025076
-0.00445072,0.0389116
-0.020811,0.00463152
-0.0302573,-7.32e-05
-0.017136,0.0220474
0.0167924,-0.0580582
0.0334791,-0.0461201
0.0375459,-0.0110808
0.0414261,0.0225539
0.0435305,0.0177782
0.0277957,0.0269946
0.0139455,-0.0121677
0.00497193,-0.00813874
-0.0284862,-0.0212039
-0.0516186,-0.00756474
-0.0457458,0.00698107
-0.0288828,0.00450355
-0.0145171,0.00424787
-0.0109187,0.0208852
-0.0287424,0.0340883
-0.0281708,-0.00844251
-0.0211934,0.011699
0.0124568,0.0162219
0.0270482,-0.00832226
0.0100784,-0.0108085
-0.00807369,0.0206276
-0.0155836,0.0245216
0.0106105,0.00451511
0.011972,-0.0514137
6.99e-05,-0.0446411
-0.0087158,-0.0044165
-0.00252506,0.0890498
0.00792976,0.00674077
-0.00403788,-0.0506338
-0.0137701,0.000981469
0.000909378,-0.0143137
0.0195928,-0.0324437
0.0430898,-0.0457806
0.0559862,-0.012307
0.0634487,0.0316182
0.042062,0.0161808
0.00472967,-0.0208836
-0.033553,0.0146163
-0.0434688,0.0274203
0.00262807,0.00729592
0.0471059,-0.0164961
0.0364258,-0.0232916
0.00879204,0.0228451
-0.0118208,0.0433096
-0.0263935,-0.00124968
-0.0202408,-0.0127958
-0.0331542,0.00243425
-0.0392832,0.0048957
-0.022843,-0.0100965
-0.041575,0.0293406
-0.0353602,0.0557639
-0.00344882,-0.00759468
0.00818041,-0.0672465
-0.00802823,-0.047892
-0.0224912,-0.0358992
-0.0346981,0.0223901
-0.0403009,0.0714464
-0.013217,-0.0411716
-0.00126501,-0.0326333
0.0254792,-0.0140164
0.0487409,0.0169532
0.0329827,0.045654
0.00854561,0.0388268
-0.0123492,0.0646489
-0.0100685,-0.0484548
-0.00722767,-0.0578159
-0.00579854,-0.0280675
0.023777,-0.0204034
0.0511147,0.0253167
0.0552351,0.0718066
0.0438511,0.00998708
0.0202243,-0.0322967
-0.0121918,0.0335615
-0.0349699,0.020215
-0.0223984,-0.0518902
-0.00363544,-0.00673105
0.0134055,0.0527791
0.0151874,0.0340922
-0.00405416,-0.0565329
-0.0287733,-0.0338411
-0.0442164,-0.00706024
-0.0500406,0.0112726
-0.0324417,-0.01824
-0.000157355,-0.0348948
0.0272838,-0.0257306
0.0354474,0.0176325
0.0417286,0.0479791
0.0533165,0.0534101
0.0474397,-0.0178971
0.0150889,-0.0380627
-0.0138496,-0.0222794
-0.0215908,-0.00917212
-0.00486157,-0.0020779
0.00237287,0.00309807
-0.0284376,0.00105705
-0.0605473,-0.000969997
-0.0419584,0.00229357
-0.0171109,0.0112514
-0.0165361,0.0107653
-0.0156626,-0.0289986
-0.00973656,0.019746
0.0227131,0.0333553
0.0806383,0.0156483
0.10688,-0.0115569
0.0753849,-0.0160436
0.0283904,-0.000511781
-0.0342938,-0.032363
-0.0821257,-0.0179087
-0.0680372,0.0349352
-0.0289787,0.0336228
0.0066893,-0.000900046
0.034338,-0.00582744
0.0471849,-0.0298877
0.0184506,0.0396888
-0.020627,0.0383998
-0.0625036,-0.0313143
-0.0796532,-0.0237795
-0.0413746,0.00682305
0.00132031,-0.00413029
0.0135011,-0.0235005
0.011326,-0.021336
-0.00602344,-0.0342031
-0.0219559,-0.0137311
-0.0422173,0.0525999
-0.0142671,0.0603707
0.021864,0.0187623
0.0562326,-0.0683713
0.0668631,-0.015973
0.0531468,0.00209127
0.0318188,-0.000621218
0.00535131,0.0109209
-0.0253044,0.0110677
-0.0466283,0.00228013
-0.0449431,-0.00156246
-0.0139698,0.00332215
0.00693424,0.00634547
0.00501735,0.0226659
0.00279078,0.0370773
0.00497982,0.00395866
0.00217442,-0.0235536
-0.00303282,-0.0272719
0.0075378,-0.0164091
0.0315795,-0.00663664
0.0492507,0.0215724
0.0429729,0.0487972
0.0174246,-0.00958154
-0.00845666,-0.0475142
-0.0372914,-0.00804249
-0.0725184,0.0586719
-0.0777994,0.00963849
-0.035348,-0.0358661
0.0177951,-0.0758339
0.04527,-0.0420415
0.0593436,-0.00204099
0.0716318,0.0193585
0.0735754,0.0271226
0.0663995,0.0368821
0.04154,0.00865077
2.67e-05,-0.00731217
-0.0100247,0.00782433
-0.00840513,0.0145868
-0.0452383,0.0332759
-0.080341,-0.0156415
-0.0687832,-0.0167894
-0.0244371,-0.035621
0.00283807,-0.0421841
0.00906553,-0.00150846
0.0143017,0.0443631
-0.0077178,0.0463392
-0.0464312,-0.0348277
-0.0542156,0.0111287
-0.0475991,0.0363201
-0.0208668,-0.0252349
0.00553467,-0.049812
-0.00129139,-0.0144096
-0.0340186,-0.00563382
-0.0306374,0.00780927
0.00826816,0.0703128
0.0225302,0.0316313
0.022768,-0.0370973
-0.00574437,-0.0123459
-0.0106157,-0.00287422
-0.00359889,0.0106925
0.034294,0.000648988
0.0507728,-0.0089557
0.074971,0.0134957
0.105725,0.0234557
0.0926726,0.00236543
0.0458776,-0.0214137
-0.00975467,-0.0120432
-0.0628744,-0.024403
-0.11208,-0.000287905
-0.0903587,0.0389408
-0.0361106,-0.0370457
-0.0310152,-0.0566327
-0.0360751,-0.00123157
0.00171778,0.00556818
0.0362754,0.000745824
0.047184,0.0167503
0.0516599,0.0539073
0.048368,0.0631006
0.0306725,0.00640919
0.0040754,-1.13e-05
-0.0139678,-0.0420218
-0.0332738,-0.0366774
-0.0469841,-0.0033755
-0.047562,-0.00308326
-0.0580251,0.0135406
-0.0424541,0.00619542
-0.00895772,-0.0227331
0.00535855,-0.0138552
0.00611538,-0.022866
0.014162,-0.00358049
0.0623457,-0.00230399
0.103114,-0.0107843
0.105558,0.00120138
0.130444,0.0260038
0.160835,0.0505895
0.106861,0.020882
0.0166188,0.00533024
-0.0641897,0.0487977
-0.134435,0.0253317
-0.181832,-0.0626801
-0.166867,-0.0434901
-0.115236,-0.021174
-0.0399541,0.00151007
0.00757466,0.0191111
0.00316909,-0.000636129
0.00118023,0.0203176
-0.00743132,0.050583
-0.0331301,0.0164531
-0.0307693,-0.0509909
0.00325606,-0.0341296
0.053485,0.00581469
0.084186,-0.0360541
0.0994581,-0.0612186
0.0915003,0.0245552
0.0446905,0.036271
-0.0136857,0.0104949
-0.0661614,-0.0151434
-0.0869167,0.00703992
-0.0670365,0.0160615
-0.0282307,-0.00104283
-0.00191489,0.0212294
0.00394747,8.68e-05
0.0110675,-0.0382137
0.0192116,-0.0342273
0.0106497,-0.000193953
0.00571314,0.0560696
0.00987899,0.0989189
0.0278985,0.0111006
0.0280957,-0.0223047
0.0218029,-0.0351834
0.0107555,-0.0300076
-0.00815328,-0.0339989
-0.0146487,-0.0297146
-0.0151095,-0.0216264
-0.0191441,-0.0208504
-0.0186371,0.0291278
0.00240017,0.0541701
0.00645962,-0.0007272
-0.0162767,-0.0227742
-0.0277314,0.019992
-0.0284142,-0.0102242
-0.024776,-0.0269997
-0.0163622,-0.0116274
0.0136685,0.0140667
0.0400485,0.0281843
0.0405675,0.0130114
0.0326215,0.0303442
0.0232858,0.0680756
0.0177361,-0.0148546
0.0559572,-0.0718418
0.12604,-0.0318581
0.136914,0.00176784
0.101198,-0.00953612
0.0205113,-0.0366847
-0.087936,-0.00646746
-0.146425,0.0133147
-0.151947,0.0466229
-0.125976,0.0232969
-0.0827435,-0.0369944
-0.0398524,-0.054255
0.00631367,0.00895532
0.0293216,0.0465905
0.0266189,0.050956
0.0108233,0.0943858
-0.00249008,-0.0272812
-0.0201709,-0.0456974
-0.0330413,-0.0403056
-0.0232918,0.0180048
-0.00975413,0.0551987
0.0224948,0.0218392
0.0584502,-0.0366311
0.0562728,-0.0188501
0.043106,-0.0194141
0.0295518,-0.0685534
-0.000536152,-0.0404873
-0.0338971,-0.020859
-0.0472873,0.00565196
-0.00872919,0.0236145
0.0462996,0.0237395
0.0885713,0.0451578
0.0788762,0.0401649
0.0366496,0.0164564
0.000276439,-0.020477
-0.00529826,-0.0256252
-0.00515483,-0.0237798
-0.00844178,-0.0136998
-0.00172298,-0.000864663
-0.0170121,0.000658959
-0.0552296,-0.00676762
-0.0782529,-0.000572798
-0.0753843,0.00704223
-0.0551147,-0.00814162
-0.0209919,-0.00263466
-0.00194579,0.0399097
-0.00535461,0.0385403
-0.00902354,0.00413561
0.00731024,-0.0144486
0.00131424,0.0400711
-0.0053786,0.0306253
-0.027511,-0.0665667
-0.0465016,-0.0380889
-0.0421315,0.0262404
0.0209324,-0.0349641
0.0638141,0.00438481
0.115039,0.0395123
0.170967,-0.0150254
0.180198,-0.0269364
0.115113,0.0045045
0.0449785,-0.00197796
-0.0268248,-0.0236041
-0.10187,4e-05
-0.146603,0.0107095
-0.157924,0.0368738
-0.109497,0.0226768
-0.0653648,-0.0178748
-0.0454766,-0.0133561
-0.00748441,-0.00173384
0.026898,-2.02e-05
0.0323251,0.0561009
0.0652583,0.0686682
0.0933907,-0.0638036
0.0479688,-0.077406
-0.00937305,-0.0181465
-0.0533232,0.0085426
-0.0837202,-0.00447795
-0.0309655,-0.0064234
0.0357227,-0.00176964
0.0520823,-0.00113714
0.0541721,0.00877667
0.0452394,-0.00596172
0.0321132,-0.0222972
0.0128867,-0.0157059
-0.0136081,-0.0114047
-0.045109,0.0095222
-0.0620989,0.0139461
-0.049307,-0.0173621
-0.0160718,-0.00517189
0.00654566,0.0264754
0.000269282,0.0313642
0.000731675,0.0193175
0.0111193,0.00898467
0.0268535,0.00227806
0.0198715,0.0158024
0.0188492,0.0282271
0.0298435,0.0148919
0.0169082,-0.00713715
-0.00180908,-0.0105764
-0.0142912,-0.00157821
-0.0329792,0.00174324
-0.0384843,-0.00834696
-0.0145903,0.013715
0.00965933,0.0189466
0.0723583,0.00792324
0.148492,-0.0323864
0.147315,-0.0545664
0.0798325,-0.0135855
-0.0161891,0.00305901
-0.108124,0.0236282
-0.160088,0.0136334
-0.138597,-0.023551
-0.0599759,-0.00370164
-0.00890533,-0.0114649
-0.0012532,-0.0261506
-0.0242139,0.0512975
-0.0496207,0.0526118
-0.0548704,-0.0304123
-0.0352833,-0.0343092
-0.0475334,-0.00765909
-0.0469729,-0.0273352
0.00237953,-0.011329
0.0436559,0.00824062
0.0544337,-0.00143218
0.0486393,0.0352096
0.0667611,0.0175805
0.0859288,-0.0172671
0.0921472,-0.0257131
0.0737106,-0.0257
0.0547758,0.00978564
0.0458612,0.00934908
0.0306267,-0.0063489
0.0217898,-0.000345562
0.00953938,0.0259191
-0.0167139,0.0484305
-0.0333308,-0.0376321
-0.0876327,-0.0023548
-0.139893,0.107218
-0.0849603,0.00937992
-0.0406117,-0.104986
-0.0249011,-0.000980096
0.0122278,0.0683884
0.0287212,0.0156944
0.0243672,-0.0630715
0.00362668,-0.000982804
0.00721905,-0.0141887
0.00491029,0.00767263
-0.0051625,0.0203993
0.0181491,0.0283446
0.0443142,-0.0178204
0.0240025,-0.0886623
-0.0121167,-0.0500718
-0.0121559,0.00149351
0.00446165,0.00210951
0.0401178,-0.00518916
0.0629393,0.0179692
0.0428846,0.022804
0.018229,0.0114482
-0.0162701,-0.000988876
-0.0550835,0.00195953
-0.0474708,0.0221795
-0.0152,0.0273488
0.0170581,0.0326515
0.0345436,-0.000216547
0.0221205,-0.0492087
-0.0275248,-0.028804
-0.0427815,0.0493615
-0.0457131,0.0780608
-0.0448145,0.00193688
-0.0458493,-0.0187473
-0.074295,0.0116116
-0.0667043,-0.0072936
-0.0529749,-0.0353197
-0.0143528,-0.021507
0.0165061,-0.00294381
0.035884,-0.00853518
0.0546749,-0.0173092
0.0604259,-0.0135876
0.0584604,0.0365204
0.0718322,0.0625263
0.0982098,-0.0223973
0.0734756,-0.0428888
0.0214699,-0.00647343
-0.0223381,0.00249566
-0.0265526,-0.0119105
-0.0116645,-0.00523931
0.00476642,0.00689079
0.0648565,-0.00456857
0.103971,0.0269509
0.0980923,0.0179967
0.0522057,0.0136483
-0.0445071,0.00405881
-0.141921,-0.0213524
-0.283211,-0.0166966
-0.362482,0.00791427
-0.256702,0.0212586
-0.0500178,-0.0290888
0.167856,0.059088
0.262023,0.0129779
0.223975,-0.116234
0.193179,-0.0553032
0.135801,0.0529706
0.0797216,0.0582063
0.0185989,-0.0843936
-0.0368588,-0.0374448
-0.10263,0.0327775
-0.10347,0.0525352
-0.0825995,-0.00643699
-0.0972558,-0.0969189
-0.0830418,-0.101048
0.0124858,0.0303156
0.0888248,0.155369
0.0449902,0.0805482
-0.0382596,0.00840717
-0.0517792,0.00563978
-0.10208,-0.0600768
-0.171717,-0.102119
-0.157827,-0.00639615
-0.0430996,0.0619318
0.0875587,0.0121422
0.146084,0.130208
0.132628,0.148769
0.0685182,-0.0592423
-0.00235098,-0.0679607
-0.0149885,0.0787684
0.0376184,0.0331036
0.0716011,-0.135575
0.0950169,-0.0968708
0.171115,-0.0470257
0.153644,-0.0300741
0.188402,0.00748415
0.142351,0.0623328
-0.182892,0.0172457
-0.421085,-0.061915
-0.327127,-0.0528008
-0.124529,-0.0275348
0.00776005,-0.012138
0.136539,0.0287839
0.232537,0.0361232
0.19989,0.0413407
0.0978065,0.0533978
0.0387577,-0.0295518
0.00057783,-0.0661257
-0.0287387,0.00258899
-0.0980389,0.0595917
-0.162203,0.0661813
-0.23023,-0.0163603
-0.216222,-0.0388873
-0.0716388,-0.0606802
0.126027,-0.0344424
0.247678,0.0523253
0.121124,-0.00948669
-0.0831695,-0.0660514
-0.237419,0.00392811
-0.220545,0.154824
-0.00382712,0.0621399
0.126753,0.00361086
0.0986376,0.0435575
0.1388,-0.0822127
0.141084,-0.100585
-0.0124496,0.0468532
-0.0844365,0.0664067
-0.0473202,0.0930667
0.016634,0.0870796
0.0675702,-0.0737313
0.102204,-0.098812
0.0584842,-0.0159022
-0.0366369,-0.0126281
-0.188921,-0.0349089
-0.241017,-0.0757941
-0.202355,-0.0922493
-0.0306082,0.0321386
0.118967,0.0114383
0.389499,-0.0140828
0.717609,0.0255304
0.568094,0.0598535
0.0397458,0.0560995
-0.416692,0.0242651
-0.392862,0.0159164
-0.184999,-0.00750945
-0.218844,-0.0874684
-0.198702,0.0991318
-0.152997,0.139495
0.0244621,-0.212844
0.196063,-0.117904
-0.0500413,0.053965
-0.518101,0.0190344
-0.393879,-0.0399651
0.00824711,0.00236459
-0.0222765,0.0534062
-0.114316,0.0258191
0.022754,0.0477323
0.271237,-0.0522358
0.302648,-0.0998741
0.236697,0.0519906
0.151614,0.066712
0.296441,0.0275923
0.286565,-0.0780005
0.194278,0.0137318
0.165911,0.0416037
0.0899728,0.0776579
-0.0028234,0.0868309
-0.0730302,-0.087844
-0.0145738,-0.0652803
0.225762,0.13639
0.282577,0.074799
-0.0203405,-0.0937108
-0.241406,-0.0862648
-0.210962,0.00207889
-0.0824554,-0.090762
-0.0838523,-0.127117
-0.208602,0.0412586
-0.277557,0.0807543
-0.123301,0.0380781
-0.0586845,0.0461626
-0.0889031,0.0185621
-0.0622632,0.0108291
-0.100639,0.00428762
-0.219542,-0.058865
-0.0500978,-0.070144
0.0442507,-0.114551
-0.157794,0.0586203
-0.191728,0.0767617
-0.200182,0.0330253
-0.180464,0.0859755
0.0489689,0.0367888
0.239511,-0.0452607
0.326214,-0.0811066
0.32614,-0.131475
0.280412,-0.0499299
0.251372,0.100609
0.0487263,0.126078
-0.0522679,-0.0841248
-0.0937778,-0.121233
-0.132085,-0.0290534
0.0970122,0.0290219
0.270676,0.0444491
0.209048,0.12351
0.0330606,0.0612648
-0.0788463,-0.0487258
-0.188442,-0.00682373
-0.204728,0.0141896
-0.122823,-0.000666434
0.112505,0.0280729
0.250196,0.00345699
-0.115765,-0.0393373
-0.541563,0.0110204
-0.538513,0.0239337
-0.369731,0.0330423
-0.132672,0.0377141
0.0218448,0.0575531
0.275328,0.107554
0.641259,-0.157029
0.741765,-0.195626
0.506357,-0.0364216
0.20758,-0.00791161
-0.0712305,-0.0110933
-0.18383,0.010359
-0.160005,0.0564145
-0.150904,-0.0172757
-0.136383,-0.0801187
-0.0958035,-0.0301481
-0.0456269,0.0381572
-0.0177405,0.0448833
-0.0552912,0.00302688
-0.131421,0.00597637
-0.0895014,-0.0188195
-0.0699424,0.0363366
-0.0840872,0.0960524
-0.00355697,-0.0359
0.0958321,-0.0546442
0.0903225,0.0169688
0.00534768,0.0834437
-0.111393,0.0181412
-0.0805454,0.0164948
-0.0461479,0.114076
-0.0836803,0.00959526
-0.0324212,-0.0458542
0.104802,-0.00240163
0.152955,-0.0258373
0.0791742,-0.040676
0.159736,-0.046266
0.279969,-0.0216108
0.241081,-0.0227598
-0.0730472,-0.0201864
-0.384854,0.0345397
-0.460843,0.0281326
-0.260063,-0.0587215
-0.0327477,0.0460926
0.0394477,0.0679238
0.0449003,-0.0272915
-0.0417118,-0.0748947
-0.0257962,-0.0221939
0.00420758,0.161638
0.108743,0.0421216
0.265824,-0.0039889
0.351779,-0.0245831
0.206575,0.0342051
-0.0879257,0.0429952
-0.0800045,-0.203329
0.0620383,-0.112835
0.092379,0.0363606
0.0787374,0.0183096
-0.0692145,-0.00943919
-0.218213,-1.41e-06
-0.172466,0.0137749
0.0113735,0.08832
0.0993827,0.0698354
0.0782943,0.0229506
0.0381116,-0.0178276
0.0247897,-0.107991
0.00582055,-0.108095
-0.0881328,-0.0705433
-0.24746,-0.0384969
-0.182822,-0.0369545
0.0223605,-0.0354299
0.126197,0.109639
0.170527,0.104775
0.149897,0.0604405
0.0720431,0.0572302
-0.00731002,-0.00983349
-0.050346,0.0111526
-0.0725812,0.0164905
-0.109677,-0.0540716
-0.0596885,-0.0385154
-0.0457255,-0.0296544
-0.12028,0.0109907
-0.155748,0.0756181
-0.0286042,-0.0594542
0.185259,-0.0462714
0.292422,-0.0341402
0.160299,-0.0297253
-0.0549571,0.0361197
-0.159004,0.0431046
-0.164984,-0.0233254
-0.202662,0.00481412
-0.287625,0.0659709
-0.143656,0.146072
0.134242,0.117296
0.351602,0.016762
0.288095,-0.0913275
0.0300918,-0.135243
-0.158909,-0.101363
-0.212232,-0.0450076
-0.0658106,0.0397066
0.0842346,0.0671404
0.134579,0.126219
0.108114,0.0720281
0.142311,0.0180214
0.0823009,-0.134505
0.0985089,-0.125619
0.145074,-0.00396549
0.0598767,-0.0457353
0.0262063,-0.0631414
0.0412107,-0.0116986
-0.0317576,0.0252412
-0.117677,0.0118462
-0.0928571,-0.00298111
-0.0131592,0.0316511
0.0596143,0.0539831
0.0630864,0.0515122
0.0227652,0.111854
0.0691817,0.06959
-0.0899383,-0.0284048
-0.362217,0.00540959
-0.406836,-0.0172751
-0.218086,-0.0676735
-0.0890842,-0.0941757
-0.0724005,-0.0401891
0.00169895,0.0286605
0.120209,-0.0181371
0.221201,-0.0413428
0.19389,-0.0193665
0.0905901,0.0074133
0.116415,0.0265238
0.103942,0.0151635
0.0296117,0.00484195
-0.00125866,0.00118891
0.02711,-0.0307918
0.0773415,-0.0137082
0.00978635,0.0465079
-0.199652,0.125646
-0.213363,0.00335354
-0.0863092,-0.0203007
0.0493841,0.0486884
-0.0467084,-0.0496851
-0.0606613,-0.104158
0.0609263,0.00910844
0.0439439,0.061906
0.101718,-0.0384993
0.153722,-0.00777983
0.0894389,0.0895823
0.0148008,0.010912
-0.137117,-0.0267483
-0.164285,-0.05601
0.0284229,-0.131353
0.249192,-0.0535122
0.371157,0.0380332
0.306606,0.123485
0.144809,0.118217
-0.0454833,0.0190571
-0.229974,-0.0474162
-0.292149,-0.0125908
-0.141934,-0.0449205
-0.127977,-0.00977132
-0.461162,0.0635299
-0.581266,0.00508067
-0.278533,-0.0299116
0.190754,0.0631424
0.437136,-0.0390939
0.393852,-0.148552
0.230216,-0.0703636
0.126865,0.0454928
0.0753076,0.0775112
0.0247472,0.0354125
-0.0215164,0.0264569
-0.0395664,0.0184245
-0.00981813,0.00966784
0.0328197,-0.0271419
0.0825955,-0.0351908
0.11451,0.0346338
0.0546688,-0.0156939
-0.0615511,-0.000678018
-0.114068,9.47e-05
-0.135049,-0.0353357
-0.155635,0.0100717
-0.139328,0.0367348
-0.0719882,-0.0622285
0.0330617,-0.0162648
0.0860952,0.0707043
0.0094512,-0.0619341
-0.114201,0.0714554
-0.168302,0.167055
-0.164446,-0.0557632
0.0439551,-0.071073
0.233785,0.00227202
0.201546,-0.0900541
0.0777676,-0.0486138
0.049047,0.0436645
-0.0126314,0.00181465
-0.149591,-0.0605514
-0.164592,-0.050795
0.0618699,-0.0749044
0.275712,-0.0668865
0.218962,0.0980545
-0.0456851,0.144915
-0.215058,0.129768
-0.13809,0.0312666
-0.125658,-0.11834
-0.156857,-0.0638897
0.01426,0.000193779
0.147005,0.0179475
0.143745,0.0167761
0.0588957,-0.0106652
-0.0380875,-0.0912444
-0.0550304,-0.0191417
0.0740619,0.209334
0.162362,0.0692517
0.0970884,-0.0236005
0.00072829,0.0537152
-0.0921547,0.0869343
-0.101366,-0.0803642
0.0229659,-0.0942369
0.182573,-0.0491118
0.0896969,-0.0507994
-0.149172,-0.0353411
-0.231277,-0.0460364
-0.286302,-0.030161
-0.208837,0.0229103
0.0583455,0.0763649
0.237941,0.104065
0.179,0.0471868
0.0513564,-0.0639737
-0.0181581,-0.0611223
-0.100833,0.104769
-0.11719,0.0311725
-0.035782,-0.100174
0.161343,-0.020403
0.260116,-0.0214522
0.200836,-0.037592
0.0420216,-0.00412172
-0.116145,0.0106581
-0.131566,-0.00177343
-0.118714,-0.020736
-0.064686,0.0234543
0.0111908,0.104122
0.0466851,0.0163434
0.0187164,-0.0270245
0.0122048,0.0538405
-0.052397,-0.0563734
-0.0720294,-0.119956
-0.0144127,-0.0836147
-0.0122723,-0.0288341
-0.030258,0.0142708
0.00490787,0.0912901
0.0184648,0.0696721
0.0324405,0.0223751
0.0742217,0.0256754
0.0989505,0.0263408
0.0780117,-0.0846519
-0.0415038,-0.062964
-0.122929,0.013414
-0.00654284,0.0363885
0.10627,0.00268683
0.0696748,-0.0513788
-0.0374261,0.0765532
-0.0668982,0.113627
-0.0185735,-0.0335856
0.0429456,-0.00412804
0.0165314,-0.0166201
-0.104011,0.00263079
-0.126865,-0.00845398
-0.0414326,-0.0306439
0.0658401,0.083117
0.101605,-0.0193664
0.0569726,-0.0598583
-0.074956,0.0297125
-0.135241,-0.0438204
-0.122335,-0.0397504
-0.191699,-0.0161091
-0.292121,0.00628583
-0.287195,0.111631
-0.147995,0.269248
0.0918522,-0.00957489
0.330707,-0.235421
0.429981,-0.101824
0.195346,-0.0384349
0.0355701,-0.0347142
0.0196374,-0.016011
0.0229357,-0.0141563
0.181563,-0.0129533
0.278221,0.061938
0.257082,-0.00240969
0.169766,-0.0759772
0.0360084,-0.0222923
-0.06269,0.0331695
-0.0381254,0.0257924
0.010692,0.0411702
0.0515997,-0.00668326
0.0415355,0.0060277
-0.068824,0.0298058
-0.227878,0.0441629
-0.277903,-0.00484935
-0.231428,-0.0110851
-0.0879782,0.0724439
0.0739154,0.0215049
0.151407,-0.0747446
0.141421,-0.0251852
0.0330412,0.0299289
-0.138818,0.000871758
-0.353052,-0.0244704
-0.419716,0.0800993
-0.217888,0.112174
-0.00796652,-0.100095
0.0363558,-0.129113
0.0141228,0.0337744
0.146183,0.0242741
0.169599,-0.0187578
0.11795,0.0574662
0.144542,-0.0383616
0.21239,-0.114972
0.164085,-0.0391567
0.0778646,-0.00555044
-0.0861243,0.0870752
-0.191325,0.124817
-0.0508574,-0.0439399
-0.0631604,-0.0543343
-0.192704,0.0807158
-0.273071,0.0294813
-0.225738,-0.0476822
0.0403058,0.00718972
0.380439,0.00901497
0.550158,-0.000744466
0.456377,0.0312571
0.206311,-0.0144967
-0.0843085,-0.0053433
-0.249896,-0.0445383
-0.239307,-0.0685694
-0.182339,-0.0190536
-0.175504,0.00177626
-0.132096,0.073188
0.0101354,0.0338082
0.0635012,-0.0524615
-0.120509,-0.0111677
-0.245747,-0.00166295
-0.105278,-0.0351517
0.0721665,-0.0242009
0.264931,-0.0182077
0.416119,0.00867159
0.287539,0.0591161
0.0354846,0.0389091
-0.0805598,0.0407238
-0.0906529,0.0622678
-0.0857506,0.05438
-0.0618486,-0.0201301
-0.099194,-0.0468935
-0.176607,-0.0405224
-0.183782,0.00646834
-0.0425858,0.00975698
0.0959426,-0.0290476
0.205017,-0.0279635
0.243895,0.0823073
0.184881,0.008504
0.0306946,-0.0539547
-0.0917903,-0.052162
-0.104015,-0.0961418
-0.118581,-0.0727164
-0.126858,-0.0267454
-0.0804565,0.0291892
-0.133006,0.0968457
-0.244638,0.0377597
-0.200951,-0.0340536
0.0118492,-0.0721387
0.145461,0.0233331
0.0864476,0.0824099
0.0217615,0.0592548
0.191136,0.0553351
0.204939,-0.0529591
0.0560106,-0.0393441
0.0830484,0.028466
0.134775,0.0461288
0.147967,-0.0323619
0.134363,0.0200453
0.065074,-0.0540918
-0.0781779,-0.0366994
-0.219737,0.0450712
-0.298603,0.0180628
-0.216164,-0.0356989
-0.0751047,0.0192751
-0.00310571,0.138795
-0.00536904,-0.0162918
0.10267,-0.137446
0.115888,0.00672156
0.05549,0.0315963
0.05464,0.0227451
0.022082,0.0575116
0.0592618,0.0558524
0.0455097,-0.0121938
-0.0109438,-0.0776326
-0.101032,-0.029296
-0.184554,-0.00441175
-0.147134,0.0210522
-0.0459785,-0.0493519
0.00437195,-0.0592233
0.102404,0.0434253
0.0870422,0.0684089
0.0548541,-0.0820359
0.0633743,-0.0721828
-0.116494,0.00129661
-0.219646,0.0218654
-0.0265146,-0.00205015
0.12867,0.0448268
0.0670996,-0.0035082
0.0354938,-0.0560814
0.0475052,-0.00946069
0.0575797,0.0041005
0.117887,-0.0507284
0.108814,-0.0113649
0.0657412,0.0607373
0.0661322,0.108818
-0.0202973,0.112392
-0.0771338,-0.0569209
-0.0510873,-0.103187
0.0633082,-0.0215844
0.126649,-0.00154608
0.0950304,0.00555839
0.0170926,0.0233101
-0.0703572,0.0538712
-0.0917147,0.0104795
-0.0767763,0.00227554
-0.0908806,0.00216442
-0.112947,-0.061462
-0.0594618,-0.0557522
-0.00975691,0.0279756
0.00274647,0.122378
-0.000704099,0.108519
-0.0520092,0.075639
-0.0784769,-0.00060153
-0.0299147,-0.0258643
0.0244127,-0.195754
0.00774136,-0.148755
0.0221654,-0.00865707
0.0829484,0.0374095
0.101843,0.0148962
0.0561079,-0.0220354
-0.0653668,-0.0153633
-0.1733,0.0229824
-0.199318,0.0124387
-0.0770412,-0.00969992
0.192605,-0.0076194
0.169609,0.00858032
-0.0568187,-0.012734
-0.137429,-0.00621187
0.00609741,0.0230438
0.173647,0.0237905
0.0967591,0.0255415
-0.0136705,0.0791683
0.0338233,0.145965
-0.0498434,0.0287178
-0.119716,-0.14773
-0.0497199,-0.135483
0.0829321,-0.0526205
0.171315,0.0135436
0.136401,0.0312428
0.0935502,0.0329901
0.119552,0.0279893
0.0599172,-0.00479175
-0.112501,-0.00140017
-0.199721,0.0104656
-0.186441,0.0442575
-0.180153,0.0135952
-0.163901,-0.0574184
-0.0856446,0.00269307
0.021914,0.069793
0.0950796,0.0467045
0.11699,-0.00422198
0.0889618,-0.0287816
0.0927703,0.123666
0.0876737,0.0145514
0.01761,-0.0917134
-0.109624,0.031514
-0.00706523,-0.0445298
0.16941,-0.109905
0.228213,-0.0180219
0.144223,-0.0529327
-0.0370669,-0.0530893
-0.117628,-0.0223761
-0.137359,0.00512878
-0.152398,0.0133189
-0.127422,0.000539786
-0.107239,0.042064
-0.0893364,0.0678365
0.0279231,0.0612389
0.0909746,-0.036177
-0.0674463,-0.0853186
-0.130939,-0.0390914
-0.0512502,0.0140302
0.0534516,0.00595583
0.127395,0.0146153
0.0665048,0.0105803
0.0403655,0.00907894
0.118627,0.019493
0.130323,-0.0076507
0.0435507,0.0151742
-0.0676767,0.0659251
-0.105711,0.0111758
-0.123944,-0.0284136
-0.162151,-0.0479855
-0.168894,-0.0213969
-0.0267454,0.00620191
0.172979,-0.00286313
0.245048,0.026773
0.222359,0.00280543
0.117792,-0.0208848
0.0444949,-0.00129469
0.000998759,0.031957
-0.0663745,0.0727787
-0.12846,-0.00903361
-0.0930447,0.0493994
0.00246815,0.0344653
0.0405838,-0.00883847
0.0344826,-0.0223876
0.0913634,-0.0550957
0.11487,-0.00777304
0.0711247,-0.047488
-0.0383986,-0.136822
-0.106375,-0.0559555
-0.086225,0.033618
-0.0542897,0.0151351
-0.0506919,0.0155153
-0.0116425,0.081153
-0.0551144,0.0120372
-0.103062,-0.0543312
-0.109251,-0.0329333
-0.0877471,-0.0277035
-0.0585831,0.0663575
0.0226741,0.0753018
0.0428181,0.0100818
0.0187042,0.0427323
0.0268771,0.0805835
-0.0310431,-0.00317141
0.00609976,-0.00710434
0.148612,-0.00516176
0.208025,-0.0527224
0.0940434,-0.0319846
0.0107904,-0.0367063
-0.0397565,-0.0863167
-0.126859,-0.002848
-0.164264,0.0458584
-0.179544,0.0427469
-0.0724418,0.0965731
0.0987792,0.08642
0.144114,0.00416319
0.113548,-0.0975673
0.064624,-0.0645334
0.0186949,-0.0502695
0.0698422,-0.0211718
0.101811,0.031587
0.0927206,0.0453843
-0.036245,0.0273581
-0.186734,-0.0207924
-0.177376,-0.0185952
-0.0772843,-0.011655
-0.0338353,-0.0258556
-0.0329834,-0.0342731
0.0386135,-0.0368828
0.170912,0.0116799
0.200848,0.0066965
0.117715,0.0439265
0.0345415,0.0787692
0.0254452,-0.0182523
-0.0303297,0.00845659
0.0198698,0.0562437
-0.012596,-0.000747359
-0.136749,-0.028537
-0.253951,-0.00793774
-0.279374,-0.0129259
-0.153035,-0.0443107
-0.0257792,0.0296266
0.095558,0.0711942
0.205519,0.027102
0.192223,-0.0434499
0.0797802,-0.0704112
-0.0159927,-0.0410238
-0.0185816,-0.0156002
0.059764,-0.0225325
0.0421253,-0.0216988
-0.0380713,0.0194921
-0.0308965,0.0447179
-0.0365087,0.00112798
-0.0825332,-0.00692528
-0.0936132,0.00914015
-0.0177922,0.037416
0.0577467,0.00904787
-0.00425295,-0.0499137
-0.0719839,-0.0367442
-0.0131945,-0.040971
0.0746866,-0.0202213
0.0761051,0.0122166
0.0807406,0.00418983
0.0363882,-0.00460424
-0.0932472,-0.0144177
-0.0715908,0.00282242
0.0576728,0.0486168
0.140199,0.204169
0.0796288,0.0967029
-0.0243911,-0.127056
-0.036885,-0.103864
0.0435714,-0.0443854
0.0737558,0.00222045
0.0225732,0.00579653
-0.025938,-0.0122322
-0.00461855,-0.0233968
-0.059396,0.0049509
-0.17813,0.0548323
-0.143501,0.0742471
-0.0320462,0.080274
0.00332909,0.0782949
-0.00823766,-0.017904
0.0365457,-0.143471
0.0336607,-0.0740168
0.0633448,-0.0168418
0.0584722,-0.0228583
0.050011,0.0975496
0.0858701,0.0806407
0.0820236,-0.0841871
-0.0215618,-0.000775513
-0.141089,-0.00193622
-0.137578,-0.0651384
-0.121051,-0.0634041
-0.142888,-0.0147289
-0.0383978,0.130265
0.0445495,0.0893242
0.0664237,-0.085659
0.0905403,-0.0829298
0.0353041,-0.00561413
-0.0108083,0.0217452
0.0529075,0.00748844
0.0890024,0.00411168
0.0517688,-0.00116349
0.124824,-0.00207823
0.161702,0.0195003
0.0846287,0.0112296
-0.0184694,0.00119818
-0.130713,0.0066176
-0.172442,0.00096847
-0.102378,-0.00950419
-0.0118128,0.0164397
-0.0249436,0.00157863
-0.0645942,-0.0722098
-0.0162233,-0.0121532
0.071893,0.217338
0.080959,0.0858235
0.0111862,-0.0147559
-0.0295571,-0.00406685
-0.0257541,-0.132099
0.0475645,-0.0759868
0.123428,-0.0299778
0.0828719,-0.016954
0.0282744,-0.0408758
0.0299309,-0.0223294
-0.0179966,0.0186481
-0.0453324,0.0274685
-0.0360234,-0.0133623
-0.0869798,0.0115446
-0.116942,0.0690714
-0.0889094,0.0176599
-0.0744188,0.0238084
-0.0576576,-0.0407553
0.00314427,-0.063579
0.0353579,0.0110026
0.0550893,0.038969
0.0728349,0.0237303
0.0993199,-0.0617681
0.0694413,-0.0607888
0.0373655,0.0145252
-0.00302587,0.0543837
-0.0193684,0.161085
-0.0391245,0.0698806
-0.0118226,-0.0819799
0.0476792,-0.0829079
0.0503172,-0.00661414
-0.0878057,0.00449568
-0.250366,-0.0222087
-0.304444,-0.0490292
-0.239789,-0.0173479
-0.171331,-0.0173833
-0.0704878,-0.063819
0.162508,-0.0121675
0.308297,0.0569028
0.276992,0.0322085
0.181761,0.0313783
0.13026,0.051111
0.146537,0.0110505
0.15975,0.000130663
0.115722,0.0401975
0.0553375,0.0608346
0.000976765,0.00635298
-0.0142067,-0.0691977
0.00587753,-0.0766492
-0.0711713,0.00883412
-0.172311,-0.00812569
-0.246044,-0.0173086
-0.265412,0.0547919
-0.196288,0.0635791
-0.0834145,0.0401403
0.0270759,-0.0196186
0.145418,-0.083616
0.221124,-0.0500465
0.138484,-0.0254921
0.0235155,-0.0171915
-0.0336503,0.0172809
-0.0149391,0.0185792
0.0212547,-0.034168
0.0636032,-0.00814511
0.0701494,-0.0150906
0.115231,-0.0353054
0.18009,-0.0297036
0.0826926,0.0269026
-0.086252,0.0461001
-0.215665,0.0463466
-0.219908,0.0232136
-0.233434,-0.0337049
-0.294967,0.0373883
-0.225019,0.112322
-0.116816,0.044164
0.0334318,-0.0546514
0.24589,-0.0389384
0.331484,-0.0891919
0.277718,-0.0711517
0.167974,-0.0362819
0.102739,-0.0322191
0.0419486,-0.0196587
-0.0633994,0.00361961
-0.127634,0.0491454
-0.0899699,0.00857726
-0.0549656,0.0011303
-0.0206854,0.111565
-0.00362892,0.202377
-0.0132383,-0.0394026
-0.0571534,-0.115582
-0.028476,-0.0265786
0.0186684,0.0283513
0.0488911,0.0580791
-0.0275234,0.0508681
-0.149363,0.052669
-0.0518526,0.0779692
0.119685,0.0469005
0.200935,-0.0521371
0.126377,-0.122113
0.0181051,-0.0608527
-0.0524491,-0.0283838
-0.0575326,-0.0355443
-0.0755843,-0.0267848
-0.0465617,-0.0368734
-0.0171466,-0.0546509
-0.0434057,-0.0156936
-0.0546423,0.0151599
-0.0116756,0.0212258
0.0321964,0.0198414
-0.0174025,0.0270557
-0.036925,0.125224
0.0420773,0.0941921
0.044417,-0.00340258
-0.0169299,0.0149408
-0.02877,-0.0530386
0.00155982,-0.0651473
0.0526537,-0.0227365
0.0984619,-0.0219985
0.0713942,-0.0316317
0.0348813,-0.038286
0.0226128,-0.0261642
-0.0365928,-0.0116114
-0.122079,0.00365032
-0.0921203,0.00765283
0.0227547,-0.013618
0.050088,-0.00277131
0.0407287,0.00715967
0.0510824,-0.00569775
0.071755,-0.00666456
0.0568221,0.004525
0.0277986,0.0247871
0.00453703,0.0288132
-0.0163356,0.0140781
-0.0977773,0.0100155
-0.165256,-0.0262982
-0.131661,-0.066227
-0.0611904,-0.0260927
0.00650397,0.055292
0.0754218,0.0454194
0.0919825,0.0103314
0.0786482,0.00927531
0.0502249,-0.0197899
-0.0313355,-0.0153579
-0.113619,0.00339324
-0.0452177,-0.0268077
0.0736267,-0.00564905
0.156212,0.0292754
0.0885147,0.000363579
-0.0595597,0.014408
-0.134437,0.0522405
-0.126684,-0.0152042
-0.103926,-0.0201994
-0.0980578,-0.0636969
-0.0173257,-0.00515544
0.0677911,0.202118
0.115924,-0.0261448
0.0402937,-0.098357
-0.0373158,-0.0648506
-0.015604,-0.0190618
0.0955419,0.0810812
0.137475,-0.00154614
0.0980335,-0.0737766
0.07379,-0.00778186
0.0341788,0.0214559
0.0225014,0.00795207
-0.012463,-0.0145115
-0.0404027,-0.0199065
-0.034091,-0.00490234
-0.0266573,0.0249101
-0.0150925,-0.0279718
-0.0603445,0.00334362
-0.0823902,0.0758871
-0.131855,0.0105616
-0.199157,0.0291234
-0.0825661,0.0272673
0.0731401,0.0363791
0.153773,0.0216989
0.164391,-0.0685113
0.140795,-0.0655482
0.073519,-0.0318636
-0.0162364,0.0267216
-0.0407664,0.124481
-0.0614247,0.125683
-0.0331253,-0.0336504
0.0185162,-0.11392
0.0332067,-0.0705567
0.0344616,0.0521505
-0.0199927,0.0194479
-0.0497479,-0.0989222
-0.0337678,0.011712
0.00577547,-0.0298922
-0.033917,-0.0598929
-0.128679,-0.0447493
-0.16902,0.0264394
-0.104753,0.0669351
0.0191484,0.0323744
0.0483219,0.00702974
0.0519904,0.0426141
0.0618616,0.0815782
0.109777,-0.0212472
0.104649,-0.0902301
0.0154033,-0.0496439
0.0569997,0.016743
0.105557,-0.0306185
0.0688108,-0.0269362
-0.00686338,0.000418486
-0.124037,-0.00575922
-0.117369,0.141967
-0.053474,0.084398
-0.0410562,-0.0906351
-0.0357297,0.0330471
-0.0182901,-0.0303292
-0.110061,-0.033379
-0.157451,0.0214116
-0.0459354,0.0201206
0.085745,-0.0340684
0.090705,-0.0515247
0.111847,-0.0161388
0.0848533,-0.00219271
0.0475591,-0.0342177
0.100412,0.0442492
0.113654,0.111276
0.101846,-0.0186994
0.0532478,-0.0785274
-0.00534604,-0.0314922
-0.0508839,-0.00477556
0.0126292,0.0160607
0.0754165,0.0175357
0.0609142,0.0584512
0.00907307,0.0099656
-0.10854,-0.0722202
-0.194931,-0.0309092
-0.205435,0.00863738
-0.152014,0.0647162
-0.0335242,0.141695
0.0743204,-0.0146028
0.1005,-0.109093
0.0930334,-0.0565979
0.109066,-0.0386654
0.0856922,-0.00265364
-0.0267251,0.0906695
-0.0889882,0.111977
-0.162391,0.0209252
-0.143285,-0.0797338
-0.0629134,-0.0752192
-0.0314163,-0.0215657
0.0316765,0.0310576
0.161558,0.00591724
0.173729,-0.0326829
0.041947,0.0149126
-0.0985107,0.0325414
-0.16553,-0.0444288
-0.0632973,-0.00384647
0.145945,0.063731
0.215755,-0.0294954
0.128781,-0.0426164
0.0294081,-0.00380731
-0.095467,0.0579853
-0.0986826,0.000742939
-0.0729459,-0.0856202
-0.0151343,-0.0494928
0.0347714,0.029756
0.00841728,0.0707895
-0.00688823,0.0391635
-0.0164595,0.00898575
-0.0711152,-0.0158585
-0.147434,0.00948397
-0.158969,0.0470332
-0.147758,-0.00051335
-0.110792,-0.0275694
0.0436026,-0.084911
0.161669,-0.0532655
0.18744,-0.00274533
0.155908,0.0132827
0.0780148,0.0244667
-0.0142658,0.0681273
0.0129425,0.117743
0.177512,-0.0187871
0.22943,-0.13
0.0894033,-0.0177867
-0.0693687,0.0530081
-0.120255,-0.00188486
-0.16615,-0.0395747
-0.148109,-0.0589802
-0.0420484,0.0078345
0.0440266,0.0231306
0.0810155,-0.0332359
0.118537,-0.0269707
-0.00139925,0.071124
-0.119449,0.0851995
-0.0359916,0.0217442
-0.0433456,-0.0629846
-0.0704745,-0.0559766
-0.00290573,-0.0178206
0.00235348,0.00765791
-0.0371989,-0.000918757
-0.0473512,-0.0190257
-0.0899953,0.0183519
-0.0717915,0.0395873
0.00409718,0.0283049
0.136001,-0.0284503
0.219538,-0.0303335
0.120903,0.0378064
0.0186891,0.0278558
-0.0553872,-0.0357892
-0.114408,-0.0226714
-0.0835021,0.0466218
-0.0452526,0.0432086
-0.0360905,0.0148161
-0.0106951,-0.0235448
0.0276289,-0.0209772
0.0616478,-0.0150566
0.0594237,0.00827029
0.0497074,0.0187475
0.0436482,0.0200912
0.0114492,-0.00209173
0.0206256,-0.0190967
0.0371071,-0.00127852
0.00103526,0.0631782
-0.0464031,0.0870967
-0.0614584,-0.00560666
-0.0248643,-0.00385607
0.0691701,-0.088506
0.0442561,-0.0628622
-0.0109742,0.0103924
-0.049769,0.011497
-0.00812509,-0.0580596
0.0201451,-0.060208
0.0112938,-0.00491182
0.0131414,0.00496836
-0.0359441,0.0231802
-0.147255,0.032794
-0.23171,0.0310515
-0.247604,0.0189802
-0.170341,0.000528729
-0.0472683,-0.0368103
0.0502593,-0.0499006
0.0964231,0.0625171
0.210229,0.0561555
0.33349,0.0469468
0.33762,0.0235674
0.211869,-0.0250619
0.0189646,-0.0759744
-0.110225,-0.131783
-0.0759441,-0.0630409
-0.00559111,0.00507784
-0.0531409,0.0202605
-0.177468,0.0519935
-0.145952,0.0549884
-0.0204726,-0.0103108
0.0881748,-0.0110696
0.173493,0.0267592
0.137022,0.0194509
0.0462555,-0.00327109
-0.00578954,0.00554728
-0.0436747,0.047908
-0.125013,-0.0209247
-0.137153,-0.0159602
-0.0690208,0.0105883
-0.0844353,-0.0174025
-0.164997,-0.000145796
-0.172146,0.0266389
-0.0613852,-0.00215501
0.0633098,0.0128996
0.0772294,-0.0564234
0.0858098,0.0250347
0.119173,0.139334
0.096429,-0.0577776
0.0439176,-0.0721814
0.0697936,-0.0491909
0.140622,-0.0583856
0.109033,-0.0298052
0.0276676,-0.0180334
-0.00753352,0.0309127
0.0338843,0.0638163
0.0470047,0.069133
-0.0250713,0.0466634
-0.0150211,-0.00250723
-0.0159803,-0.0363519
-0.140764,-0.0169698
-0.205057,0.0822906
-0.215947,0.0269183
-0.160352,-0.0397542
-0.039702,-0.0246608
0.0227798,0.00477991
0.0514494,-0.0160495
0.0852973,-0.0556827
0.0512075,0.0364416
0.022003,0.0490247
0.0387741,-0.0374013
0.0527542,-0.0846604
0.064605,-0.0722128
0.00687006,0.0172898
-0.0725354,0.0475613
-0.0282032,0.0471199
0.0568076,-0.0441778
0.0924914,-0.0620238
0.142605,0.0515783
0.174879,0.161388
0.121785,0.0702312
0.0237798,-0.0684244
-0.0247244,-0.0997784
-0.121366,-0.0696631
-0.189057,-0.0280163
-0.115449,-0.0153779
-0.0330396,-0.00536921
-0.0574082,0.0193098
-0.155399,0.0297999
-0.134188,0.0252697
-0.00140003,-0.0101258
0.0813092,-0.0227681
0.0480139,-0.0069892
0.0315461,0.0221093
0.0947275,0.0551256
0.114215,0.131916
0.126989,-0.0468826
-0.0412406,-0.0819131
-0.115824,0.00409903
-0.0604941,0.0016831
-0.0240305,-0.00628205
-0.0261733,-0.00399284
-0.139577,0.0374671
-0.219357,0.0524207
-0.0586151,0.0310723
0.123388,-0.023869
0.109693,0.047491
0.0769062,-0.0885754
0.0798194,-0.117063
0.13205,-0.0225749
0.16373,0.00959636
0.0770382,0.0336691
0.00734236,0.0155835
0.055759,0.0157339
0.145446,0.0466872
0.197784,0.00804382
0.118462,-0.00176668
-0.0246215,-0.0111198
-0.226105,0.0312534
-0.257842,0.0431203
-0.175899,0.0168492
-0.105248,-0.019316
-0.0305916,-0.00634289
0.0756022,0.00349936
0.127462,-0.0513174
0.0174024,0.0215508
-0.0687126,0.0200247
-0.0609094,-0.0470866
-0.0438082,-0.0321994
-0.0116545,-0.0371633
-0.0442185,-0.0479032
-0.113617,-0.00694736
-0.144063,0.000142412
-0.204858,-0.0227375
-0.211801,-0.0228974
-0.0682887,0.023212
0.199145,0.0267903
0.305314,0.0158056
0.231283,0.00492403
0.124645,0.00725313
0.0642604,0.0229811
0.0173839,0.0182247
-0.0320048,0.10142
-0.0434257,0.0358947
-0.0334924,-0.0917889
0.00616945,-0.0445893
0.0386706,0.00796541
0.042224,-0.00907062
0.0399181,-0.0463573
0.0305363,-0.0155238
0.0240829,0.0369288
0.054492,-0.00109274
0.0861246,-0.0126998
0.00447365,0.0554975
-0.155544,0.0425029
-0.166422,0.0429302
-0.109394,0.0347669
-0.0661616,0.0441936
-0.0258633,-0.0223783
0.00452374,-0.0991871
-0.00320282,-0.0437176
0.021411,-0.0105796
0.0318205,0.00935273
0.0498313,0.00162158
0.0773715,0.000407174
0.0760875,0.00509585
0.0767825,0.00377723
0.0892775,-0.00464354
0.0587842,-0.0386781
0.0126324,-0.0012895
-0.0358872,0.00322647
-0.0565794,-0.0126519
-0.0593133,0.00821916
-0.10783,0.0130362
-0.110348,0.00612846
-0.0524445,-0.0100528
0.0185628,-0.00178157
-0.0388193,0.0482239
-0.104506,0.0865982
-0.0875589,-0.0518322
-0.0940629,-0.0937622
-0.0368738,-0.000363961
0.111648,-0.0546733
0.145938,-0.0713444
0.0630736,-0.00907353
0.029683,0.0334757
0.130608,0.083942
0.23774,0.107192
0.27259,0.108622
0.17257,-0.0227137
0.0228018,-0.0943419
-0.135213,-0.0413892
-0.276919,-0.00252099
-0.346126,0.028877
-0.362535,0.0207633
-0.221887,-0.0343427
-0.0599325,-0.0244004
0.0784571,0.0270809
0.136565,0.0156099
0.212066,-0.0257973
0.146733,-0.0356243
0.036368,-0.0303873
0.0838993,-0.0175958
0.0934297,0.000502518
-0.00667165,0.0235149
-0.0723648,0.0565239
-0.0271123,0.0417114
0.0301748,-0.0248665
-0.0311443,-0.024567
-0.0205245,-0.0154018
0.0164102,0.00338867
0.00453424,-0.002512
0.037801,-0.0304922
0.0995943,-0.0312651
0.0583452,0.0225398
-0.0485448,0.0722637
-0.166702,0.0692355
-0.161639,-0.0527341
-0.0217606,-0.0546195
0.062827,0.0186665
0.0392623,0.0360567
0.0724086,-0.0498541
0.133523,-0.0634405
0.118173,0.0157898
0.0290583,0.0861083
-0.0273381,-0.00117502
-0.0348091,0.0115645
-0.049939,0.0267512
-0.0579428,-0.0301275
-0.0331261,-0.0169033
-0.0313606,0.00360471
-0.0149625,0.0113799
0.027985,0.00159106
0.0384889,0.0119316
0.0351842,-0.00140342
-0.00342534,-0.0339307
-0.0614426,-0.0145341
-0.0545659,-0.00793252
-0.0604858,0.010506
-0.0868018,0.0153467
-0.0356476,0.0348796
0.0145862,-0.00343291
-0.00497759,-0.0226335
-0.0409439,0.0461817
-0.00805447,-0.0891171
-0.00783761,-0.0443805
-0.0952998,0.0415504
-0.0186179,0.0610185
0.0968124,0.0417284
0.170496,0.00386904
0.164486,-0.0337786
-0.0178199,-0.0207342
-0.136412,0.031807
-0.0559945,0.0149025
0.0720509,-0.0581053
0.168446,0.000157385
0.140222,0.0381594
0.0183513,-0.0547205
-0.0771083,-0.0603743
-0.085102,-0.00655371
-0.019328,0.0382252
0.0917682,0.000667037
0.0982102,-0.0222422
0.0279421,0.00743544
-0.0309172,0.0103664
-0.123989,-0.00761052
-0.158867,0.0517605
-0.0754026,-0.0196627
-0.0272578,-0.0820994
0.0234005,-0.0482797
0.0650937,0.00850194
0.130368,0.0569311
0.0762371,0.0731149
-0.00102264,0.0952651
-0.0502325,0.0339229
-0.0894285,0.0838986
-0.119594,-0.0554461
-0.190995,-0.0340874
-0.150728,0.0451641
-0.00758135,-0.100165
0.105233,-0.081459
0.172608,-0.0215074
0.16752,-0.0111754
0.158378,0.00746504
0.101514,0.0369895
-0.00877397,0.0463225
-0.0969272,0.014168
-0.0608273,-0.0154313
0.00952298,-0.0607412
0.0399355,-0.0877035
-0.0158531,-0.0566847
-0.118269,-0.0127717
-0.166849,0.00377636
-0.103927,0.0318763
-0.0324599,0.0538751
0.00635941,0.039648
-0.0409632,0.0657256
-0.0635703,0.0698982
-0.0573882,0.029617
-0.0122719,-0.0270577
0.0732793,-0.0376615
0.0967154,-0.0197966
0.050106,-0.0274676
-0.0315781,-0.00407323
-0.0481578,0.0274892
0.0211761,-0.081738
0.132627,-0.0805573
0.205014,0.000443257
0.120717,0.0158341
0.0137258,0.0126327
0.00956438,0.0259502
0.0586322,0.0776491
0.087433,0.00719803
0.0636014,-0.0227401
0.0264832,0.0702436
0.0425425,-0.0375315
0.00157584,-0.0649021
-0.0813991,0.0524762
-0.168019,0.0489053
-0.219856,0.0855807
-0.198413,0.100859
-0.107871,-0.0461841
0.0311346,-0.101721
0.139352,-0.0512264
0.157373,0.0255733
0.0943645,-0.0391587
0.0510688,-0.0683759
-0.0132401,0.0112196
-0.0791495,0.0396963
-0.029072,0.0394734
-0.00685979,-0.0346682
-0.0326564,-0.0323348
-0.0566479,-0.00932036
-0.115006,-0.00952668
-0.0475149,-0.0304938
0.0408781,-0.0341051
0.0660649,0.0223273
0.120706,0.0864221
0.0736968,0.0637517
-0.0451792,-0.0363303
-0.0680127,-0.0255735
-0.0518963,-0.0402272
0.0104458,-0.0459322
0.0596408,-0.000393885
0.113106,0.0215075
0.10114,0.043048
0.0166986,0.132003
-0.084435,0.014056
-0.159965,-0.0626493
-0.17174,-0.00892481
-0.0656589,0.025494
0.0713039,0.0138812
0.0695178,-0.0395158
0.0410818,-0.00633139
0.0579698,-0.017522
-0.0437761,-0.0545465
-0.151594,-0.0709544
-0.0529524,0.00574021
0.0319985,0.0374367
-0.0208216,-0.0441757
-0.0440074,-0.0449268
0.0519127,0.00716724
0.185039,0.0160898
0.205268,0.0589222
0.109378,0.1073
-0.0346345,0.0369327
-0.197318,0.0783489
-0.160264,0.00806364
-0.107778,-0.135526
-0.0217452,-0.0591172
0.0246351,-0.0106716
0.0334449,-0.0292431
-0.00104507,0.015501
0.0144957,0.0649406
0.0636212,0.0180994
0.0657263,-0.0315342
0.135155,-0.0118825
0.199972,0.00380593
0.202578,0.0139651
0.136615,0.0292036
0.0505969,-0.00557697
-0.0541263,-0.0190036
-0.0752451,-0.0204164
-0.0754523,-0.0143512
-0.113135,-0.0299402
-0.149385,-0.0249187
-0.120428,0.00168884
-0.135624,0.00910469
-0.208723,-0.0045344
-0.205161,-0.00535559
-0.109132,0.0175971
-0.00987385,0.0437235
0.0554963,0.0406611
0.174246,-0.026112
0.195705,-0.0506275
0.16438,-0.0210158
0.0967353,0.0869175
0.0382298,0.111513
0.0096598,-0.0201683
-0.047787,-0.0820812
-0.0800681,-0.00638096
-0.0723399,-0.0215999
-0.0545813,0.0319287
0.0327868,0.174214
0.0569911,-0.0514898
-0.0136775,-0.171208
-0.039232,-0.0733482
0.00265112,-0.0103246
-0.0248602,-0.0146051
-0.0876065,0.00963605
-0.0102173,0.0636291
0.0861873,0.0740569
0.123034,0.0123088
0.146572,-0.073454
0.128188,-0.0149781
0.0421017,0.0866607
-0.0141587,0.0143503
-0.0388948,-0.0399616
-0.118456,-0.00944149
-0.221771,-0.0449572
-0.311035,-0.0359275
-0.242768,-0.0109889
-0.13395,0.0320974
0.054245,0.0442986
0.295692,0.00863726
0.40994,-0.00135813
0.346794,-0.0520822
0.145425,-0.032494
-0.0559575,0.0634206
-0.103505,0.0728602
-0.0555633,-0.0212212
0.000511966,-0.0267669
0.0416707,-0.0176796
-0.0193425,-0.0231267
-0.0713548,-0.0021842
-0.0768369,0.0383374
-0.0741973,0.0331279
-0.110073,-0.00173854
-0.0991641,-0.0186761
-0.0357068,-0.0164302
-0.0106268,0.00253011
-0.0365294,0.0322234
-0.0513415,-0.000866447
-0.0372124,-0.0535024
-0.00773517,-0.0327794
-0.000459644,0.0301936
0.0246089,0.00390911
0.088211,-0.0456056
0.124759,0.00679578
0.0627765,0.0693177
-0.0430324,0.0359344
-0.0484833,-0.0489033
0.0150002,-0.0251011
0.0996473,0.0185473
0.0847128,0.0158646
0.0421216,0.0124653
0.0478242,-0.00386608
0.0111089,0.140278
-0.0438197,0.0921975
-0.0295904,-0.0748335
0.0106085,-0.0547259
-0.0187524,0.013539
-0.0468707,-0.0630037
-0.00827344,-0.0972619
-0.110894,-0.0314585
-0.0753282,-0.0158941
-0.112848,-0.00895345
-0.109401,0.00537674
-0.0455969,0.0052057
0.0878738,0.00164141
0.156048,0.0114356
0.175915,0.0234748
0.16115,0.018025
0.0886512,-0.00108684
0.0106368,-0.0188762
-0.0457381,-0.0164836
-0.0910631,-0.00202717
-0.140541,0.0171258
-0.169867,0.0189923
-0.143318,0.00268823
-0.0646987,-0.000753372
0.00486412,0.00603522
0.0759614,0.00827243
0.146445,0.00962187
0.173541,0.0132429
0.157224,0.0134112
0.050664,-0.00441669
-0.0697063,0.0374527
-0.0655928,0.0455362
0.0187229,-0.0383389
0.0209327,-0.0560173
-0.0606104,-0.0489221
-0.0889528,-0.035754
-0.0746164,-0.0151365
-0.0876309,0.00193009
-0.0785892,0.0123491
-0.0690737,0.0222493
0.014693,0.0106328
0.192813,0.0273305
0.324035,0.0246726
0.332896,0.0587407
0.20479,0.0521572
-0.0490878,-0.044636
-0.255386,-0.0571904
-0.293294,-0.0130551
-0.245038,-0.0131272
-0.175769,0.0167974
-0.0719413,0.0316667
-0.0768626,0.0303001
-0.108091,-0.0326878
-0.038087,-0.014096
0.141767,-0.000198156
0.195708,-0.0463566
0.104191,-0.0659785
0.038928,-0.0373498
-3.78e-06,0.0360669
-0.0225567,0.103961
-0.0138947,0.103339
0.058568,-0.0481592
0.104544,-0.132783
0.104416,-0.0361718
0.0556822,0.0352289
0.00626875,0.00579725
-0.0205072,-0.0204902
-0.060794,0.0259067
-0.088024,0.0382655
-0.0833225,-0.00802157
-0.0306556,-0.0343236
0.00850122,-0.0221554
-0.0150211,0.0211892
0.00964193,0.0267005
0.0268696,0.00186273
-0.0451992,0.0349004
-0.0998975,0.0331704
-0.0887467,0.0124709
0.0133547,0.0296456
0.107933,0.0158048
0.169241,0.0308516
0.116694,-0.00321531
-0.0224043,-0.0420908
-0.0599384,-0.0065422
-0.00506221,-0.00145231
0.0341613,0.0154319
0.0488962,-0.0399899
0.0359911,-0.0973594
-0.0581551,-0.032895
-0.139869,0.03241
-0.158679,0.0515421
-0.107066,0.0102118
-0.0297618,-0.014293
0.0203518,0.0738327
0.0668737,-0.0475946
0.0527891,-0.115517
0.0622611,-0.0439528
0.170351,-0.0101968
0.173162,0.0382409
0.149913,0.0426178
0.0830241,0.0193997
0.0730361,-0.0181362
-0.0186646,-0.00243866
-0.151785,0.0817278
-0.174499,-0.00530391
-0.189344,-0.0411726
-0.184705,-0.00969686
-0.0707282,-0.0662696
0.00716697,-0.0292492
-0.0353429,0.0159452
-0.0593067,0.0379071
0.0110602,0.0486155
0.0938288,0.0883869
0.0378192,0.0429071
0.0164273,-0.0262431
0.108093,-0.0418721
0.165543,0.0106595
0.113908,0.0193
0.0510894,-0.0297277
-0.0824292,-0.0132124
-0.123753,0.0357357
-0.0464734,0.0237801
0.00773557,-0.000791007
-0.0372662,0.00456173
-0.0690293,-0.0190363
-0.0338844,-0.0162708
0.0328646,-0.0166311
0.0572221,-0.0332718
0.0200226,-0.0620754
0.00466631,-0.00783702
-0.0103737,0.0350242
-0.0458592,0.0257718
0.0116936,-0.0326261
0.107044,-0.0330656
0.0536235,-0.0020984
-0.0497904,0.0863941
-0.119835,0.0948702
-0.101023,-0.0285524
-0.0591507,-0.0197363
-0.00269175,-0.0308575
0.00613263,-0.0540769
-0.000540803,-0.025295
0.0938924,-0.0280499
0.149593,0.0180556
0.195695,0.022015
0.195361,-0.0216314
0.0945974,0.00964706
0.0193456,0.056962
-0.0268916,0.0936135
-0.0373414,-0.0140868
-0.166275,-0.0384875
-0.302767,-0.00809442
-0.252361,-0.0229341
-0.111428,-0.0627119
0.00329313,-0.0455512
0.101558,0.00376053
0.152395,0.0356166
0.0886916,0.0322962
0.00834023,-0.00811357
-0.0307749,-0.0325736
-0.0413869,0.00202258
-0.0453172,0.12356
-0.0174917,0.123801
0.0257024,-0.0722624
0.0127174,-0.0667924
-0.0387447,-0.0160539
-0.0360182,-0.00789896
-0.0199317,-0.0144247
0.0570562,0.00621347
0.12365,-0.0476125
0.128123,-0.0301611
0.0654261,0.118076
-0.0152058,0.0514791
-0.0656072,-0.0878704
-0.0882495,-0.0849062
-0.0931237,-0.0588887
-0.0666447,-0.0246771
0.0134742,0.0780833
0.0631285,0.0745071
0.0726821,0.0337939
0.0946726,-0.00990597
0.0748116,0.00939948
0.0697991,-0.0650496
0.0703684,-0.00602998
0.000296701,0.00917013
-0.0308444,0.0465183
-0.0437844,0.050374
-0.0701741,-0.00367785
-0.11982,0.0037047
-0.165315,-0.012267
-0.127458,-0.0196631
-0.0352219,-0.0136757
0.0117589,-0.0359322
-0.0083531,-0.0313074
-0.0170219,-0.00934663
0.00130818,0.00114692
0.0379656,0.0170428
0.0894497,0.0105624
0.178614,0.0095166
0.171825,0.0263295
-0.0208593,0.0372742
-0.0663946,0.0402917
-0.00132001,-0.00275883
0.0414122,-0.045487
0.0693196,-0.0507119
0.0314248,-0.073896
-0.0436343,-0.0776464
-0.033931,-0.025534
-0.0391691,0.142941
-0.0646139,0.218346
-0.0421807,0.0115185
0.00777291,-0.114071
0.0140829,-0.0216421
0.029373,-0.0221275
0.0251348,-0.0117012
-0.071029,-0.0083368
-0.103882,-0.0455422
-0.0635173,-0.00253319
0.00586862,0.042619
0.0123741,0.0115619
0.0150984,-0.0209857
0.0223506,-0.00696782
-0.00221614,0.00840873
0.0121234,-0.0226997
0.0732492,-0.0185602
0.0963054,0.0133828
0.0572082,0.0209702
-0.0179852,0.0117863
-0.0183197,-0.0347265
0.00355319,-0.0400553
-0.0328993,0.022249
-0.0233972,0.0440646
0.00179852,0.00979225
0.00983889,-0.0159891
0.0406726,-0.00980566
0.0250132,-0.0013754
-0.0371312,0.00323623
-0.105103,0.00265262
-0.117131,0.0349643
-0.0822882,0.0230887
0.00266345,-0.0244127
0.0914541,0.00768331
0.139579,-0.019967
0.0959775,-0.0483499
-0.0145811,-0.0187699
-0.0606382,0.0519241
-0.0208857,0.121904
0.0213766,-0.0291997
0.0273137,-0.076373
0.0132251,-0.0288456
-0.000219979,-0.019397
-0.00653038,-0.00649713
-0.0234026,0.00544709
-0.0289991,0.0437172
-0.0149531,0.0437455
-0.0454946,-0.0255169
-0.136699,-0.02293
-0.134466,0.0177395
-0.0386521,-0.0154532
0.0249236,-0.0563039
0.072496,-0.0192548
0.12262,0.0236352
0.115158,0.0173181
0.0718239,-0.0243421
0.0334301,-0.0221666
-0.0485932,0.0433448
-0.0817032,0.0944083
-0.0549765,-0.0153263
-0.0204414,-0.0771398
0.036576,-0.00929152
0.0835289,0.0273642
0.0599795,0.0289555
0.0471748,0.021554
0.0491042,-0.00882808
0.0413704,0.019433
0.0206961,-0.00751183
-0.0212491,-0.000862074
-0.0318251,0.00561131
-0.0174787,-0.0167662
-0.0235211,-0.00446877
-0.0509789,0.00374007
-0.0738974,0.0130395
-0.106324,0.069799
-0.0991471,-0.014785
-0.0397197,-0.043077
0.0247739,-0.0227432
0.0672878,-0.031404
0.108495,0.023458
0.117918,0.0272721
0.0909934,-0.0224233
0.0469517,-0.0109577
-0.00465173,-0.0263264
-0.0595047,0.00366887
-0.0676808,0.0284713
-0.0187324,-0.0238197
0.000219558,-0.0104823
-0.0512062,0.0112505
-0.110908,0.00984417
-0.137651,0.0472227
-0.09277,-0.00978315
0.00695345,-0.0136224
0.0828132,0.00898068
0.025749,-0.0491939
0.0287248,-0.0171486
0.0647413,0.0392416
0.104066,-0.0151925
0.113616,-0.0228625
0.105055,0.000580535
0.0703536,-0.00333199
0.0104908,-0.00495428
-0.0418905,0.0117206
-0.0687255,-0.0164006
-0.0493928,-0.0403703
-0.0248135,0.00496747
-0.0122745,0.0330007
-0.0221956,0.0601798
0.0166107,0.0690285
0.039434,0.0576525
-0.00512176,-0.00593022
-0.0572218,-0.0900507
-0.0740933,-0.0351698
-0.122108,0.00771789
-0.13966,0.0324263
-0.0467896,0.0421706
0.0361625,-0.0619821
0.0547534,-0.0649627
0.0643929,0.0103858
0.113504,-0.00426438
0.0924064,-0.0299864
0.0254184,0.00409139
-0.0254556,0.0176414
-0.0594678,0.0158674
-0.0472974,0.0411642
0.0249187,0.0109982
0.0989439,-0.0580114
0.110192,-0.0258011
0.0747137,0.0175455
0.051914,0.0227444
0.0356035,0.00107865
-0.00800242,0.0356684
-0.0300103,0.00449865
-0.0323303,-0.0237487
-0.047612,-0.0261666
-0.0796413,-0.0399849
-0.0887438,-0.0222712
-0.0838092,0.00848713
-0.112978,0.0285079
-0.133974,0.0332362
-0.155157,0.0147342
-0.130011,-0.000449604
-0.0207395,0.073825
0.0741915,0.0561016
0.128034,-0.00633237
0.123259,-0.0926743
0.111005,0.0174183
0.123668,0.0321914
0.155156,-0.075121
0.129693,-0.0319033
0.050361,-0.0110165
-0.0436478,-0.0153385
-0.0851493,-0.0175551
-0.101105,-0.00166179
-0.0907702,-0.00452181
-0.0512161,0.00695235
0.00959705,0.00320962
0.0442835,0.0414701
0.0926457,0.0338478
0.0901913,-0.0543169
0.0639185,0.0132273
0.0622328,0.00110161
0.0391734,-0.001181
-0.00722508,0.0554136
-0.0478552,-0.0309526
-0.0900447,0.0125527
-0.115023,0.0580877
-0.129119,-0.0151215
-0.121065,-0.0272015
-0.0400761,-0.00161577
0.00728685,-0.00435673
0.00870443,0.00533379
-0.0204289,0.0251048
-0.021354,0.0326317
0.0191821,-0.0311661
0.0252791,-0.0510339
0.0283215,-0.0110081
0.0602386,0.021543
0.0390531,0.0291422
0.0407264,0.0273623
0.046899,-0.0349457
0.0130885,-0.0444274
-0.000207661,-0.0184168
0.0385558,-0.00624869
0.040241,-0.011242
0.0213321,-0.0264019
0.017276,0.0609535
0.0424777,0.0533295
0.037782,-0.015174
0.00959189,-0.0159117
0.0137147,-0.00958163
0.00838897,-0.00521627
-0.0419078,-0.00113576
-0.0844009,0.0118596
-0.0997388,0.0114218
-0.0977408,0.00212203
-0.0871541,-0.00157799
-0.0424984,-0.00145179
0.0054762,0.00878861
-0.011138,0.0415605
-0.0372683,0.0242319
-0.00742309,-0.0503142
-0.00563094,-0.0321836
-0.00800586,0.0112916
0.0397321,-0.00331777
0.109522,-0.0138344
0.150362,0.0307522
0.128477,0.0273134
0.0444084,-0.0470027
-0.0596253,-0.0562529
-0.101825,-0.0449226
-0.075432,-0.0259511
-0.0369397,0.00591249
0.01193,0.0518892
0.0526471,0.0591798
0.095829,0.0805493
0.112166,0.0238812
0.0774908,-0.0567905
0.0174305,-0.0602447
-0.0392698,-0.0440932
-0.0983122,-0.011027
-0.131774,0.0234173
-0.0826643,0.0167904
-0.0519029,0.0111834
-0.0327311,0.0333652
0.00136772,-0.00809827
-0.000569684,-0.00417913
-0.0144462,0.0276706
-0.0433996,0.0716481
-0.033078,0.0605743
0.00623648,0.0375639
0.0437476,-0.078786
0.0502812,-0.0648298
0.033929,-0.0342223
0.0134483,-0.0489461
0.00352609,-0.0391018
0.0102706,-0.0189502
0.0286517,0.0199306
0.0382274,0.0332293
0.0369755,0.011426
0.0348772,-0.00875739
0.021072,-0.0164048
0.000197029,-0.0113132
-0.0119863,-0.000513808
-0.0234684,0.00234272
-0.023775,-7.15e-05
0.0207174,-0.0010176
0.0730404,0.00464478
0.0874505,0.0179968
0.0475275,0.0276672
-0.0137938,0.0199265
-0.0692507,-0.0014822
-0.097668,-0.0111258
-0.0873406,0.00124984
-0.0447393,0.0143444
-0.0173629,0.00398258
0.00992434,-0.00679368
0.0291656,-0.0130114
0.0218886,-0.0110301
0.0102691,0.0248586
0.01339,0.0100516
0.010787,-0.021827
-0.0074335,0.00912501
-0.0465192,0.0382528
-0.0754484,-0.00398527
-0.0676738,-0.0320414
-0.0407869,0.0436874
-0.00370705,0.0085987
0.0456017,-0.0678219
0.0717496,-0.0546495
0.0853202,-0.0108936
0.0864397,0.00694647
0.0566405,0.0157591
0.022936,0.0222162
0.00168828,-0.00857408
-0.00416728,-0.0292458
-0.0436554,-0.0151694
-0.0719884,0.00313367
-0.0725902,0.0133071
-0.0485423,-0.0586446
-0.0484161,-0.0507966
-0.0369415,-0.00694458
0.00119799,0.0117284
0.029134,0.0314899
0.0066927,0.112757
-0.0145916,0.189699
0.00146405,0.0260137
0.0207355,-0.0710186
0.0204713,-0.0301599
0.0135902,-0.00275633
0.0275413,-0.0106648
0.0369994,-0.00982715
0.0347088,-0.00385361
0.0490513,0.00553971
0.0645588,-0.00040549
0.058925,-0.0129263
0.0465403,-0.0128724
0.00603838,0.00736404
-0.0526943,0.0369104
-0.0609135,0.011634
-0.0378938,-0.0416129
-0.0371008,-0.0415035
-0.0494247,0.0163398
-0.0350053,0.0547443
-0.00913677,-0.0370707
0.00253193,-0.0817518
-0.0108516,-0.0121425
-0.0109689,0.0144257
-0.00195344,-0.00541067
-0.0226632,0.021629
-0.0435835,-0.000425635
-0.0464885,-0.0316138
-0.0134224,-0.0184191
0.0396807,0.0282329
0.0583745,0.0318129
0.0575373,-0.0031883
0.0458964,0.0312257
0.0300942,0.039019
0.0306288,-0.0172565
0.0438102,-0.0277621
0.0416302,0.00253895
0.0318528,0.0279081
0.020766,0.0107053
-0.00973924,-0.0313081
-0.0574312,-0.0363927
-0.083087,-0.0196473
-0.0712517,-0.00656813
-0.0265529,-0.00553974
0.0186388,-0.0127
0.0503076,-0.00480102
0.0583583,0.00840447
0.0369642,-0.00394389
-0.0142865,-0.00581706
-0.047635,-0.0126785
-0.0639884,-0.00930477
-0.0893837,0.00110233
-0.0949083,0.0195431
-0.0731111,0.0128817
-0.0469427,0.0061475
-0.0169237,0.00638388
0.0145926,0.0124542
0.0454358,0.0119397
0.0941378,0.00186431
0.136249,0.0114063
0.155915,0.0116376
0.171759,0.00726204
0.156855,0.0020653
0.0794358,-0.00545392
-0.0580314,0.00617029
-0.161527,0.00638137
-0.17639,-0.0152469
-0.156209,-0.0193561
-0.12719,-0.0179948
-0.0762315,-0.00801789
-0.0370066,0.0100974
-0.0203323,0.00927237
0.00486464,-0.00497728
0.0231032,-0.01734
0.0415881,-0.0170031
0.0493743,0.0122767
0.050725,0.0165818
0.0560432,-0.0145816
0.0440707,-0.0182802
0.0196452,0.0237558
-0.0159996,0.0172033
-0.0317846,-0.00659582
-0.0196586,0.000600491
-0.0132675,-0.000929786
-0.00747216,-0.00967302
0.0340571,-0.00654817
0.0613261,0.0145477
0.0656221,0.0279821
0.0776628,0.0255426
0.122451,0.0124905
0.133755,-0.00188452
0.0712886,-0.00724991
-0.0319737,0.00148504
-0.118992,0.00270909
-0.160667,-0.020541
-0.135273,-0.0242412
-0.0732171,-0.0105022
-0.062908,-0.00511094
-0.075767,-0.0054254
-0.0611941,-0.00473267
-0.0314944,-0.0120485
0.0153291,-0.0177864
0.0638935,-0.00741223
0.106245,0.0111187
0.0857075,0.0184791
0.0291104,0.00735766
-0.0354743,0.0114776
-0.0595854,0.0140818
-0.0395622,-0.00532552
-0.00688017,0.000484753
0.0072026,0.00918829
0.000937642,0.00188514
0.0108252,-0.0011697
0.0139833,0.00207789
0.0119434,0.00275681
0.0292465,0.00352155
0.042543,0.00449168
0.0242882,-0.00684798
-0.0119094,-0.0127834
-0.0340229,-0.00332204
-0.0319613,0.0207996
-0.0168711,0.0223802
-0.00804076,0.0122233
-0.00708841,-0.00288968
-0.0112363,-0.0132531
-0.0205033,-0.0112227
-0.0240771,-0.00125227
-0.0257209,0.0101442
-0.0185539,0.0172694
0.0185371,-0.00835653
0.0371693,-0.0046587
0.0385884,0.00782362
0.0410397,0.007812
0.0563888,-6.24e-05
0.0606012,-0.00887424
0.0534435,-0.0129925
0.0631154,-0.00433167
0.0807377,0.0015076
0.0972894,-0.00218388
0.0932646,-0.00850005
0.0618246,-0.0132751
-0.00512077,-0.0103715
-0.115066,-0.0102394
-0.198658,-0.0105674
-0.201492,-0.0114459
-0.154234,-0.00171903
-0.0840822,0.00575334
-0.0139473,0.0059311
0.0252972,0.00669024
0.0268956,0.00294053
0.0197032,-0.00857639
0.00714747,-0.0172094
-0.0132487,-0.0126163
-0.00668738,0.00247188
0.00573986,0.0128023
0.00191139,0.0178321
-0.00162328,0.0088369
-0.0103596,-0.00283755
-0.0101044,-0.00480442
0.0029314,0.00163818
0.0356044,0.00466191
0.0577451,-0.00146377
0.0933279,0.00212459
0.107839,0.010395
0.10173,0.00308584
0.0764486,0.00233251
0.0344833,-0.00289826
0.00529009,-0.00726975
-0.0204094,-0.0129822
-0.035531,-0.0151798
-0.0384976,-0.00521149
-0.0638453,-0.000845571
-0.074599,0.0226595
-0.0429059,0.0518333
-0.0132875,-0.00966269
0.00956005,-0.0303342
0.0179677,0.0091909
-0.00525824,0.0106295
-0.0289297,-0.0123982
-0.00506903,0.00781409
0.0118591,0.0408473
0.00449308,0.0298547
-0.0137993,-0.00606979
-0.0299608,-0.00375757
