Comp Ch 3,Comp Ch 4
0.0325593,-0.0144505
-0.0016905,0.00612696
-0.0370311,0.0347105
-0.049806,0.0108017
-0.0380452,-0.00549298
-0.0117042,-0.0109195
0.0264263,-0.000681829
0.0595784,-0.000701118
0.0518935,-0.00333096
0.0296223,0.0168778
0.0279456,0.0176387
0.0360455,0.00558502
0.0186154,-0.00270455
-0.00210684,-0.00441748
-0.00873191,0.000299556
-0.0332153,-0.0169594
-0.0635401,-0.0273333
-0.0725691,0.0128503
-0.07002,0.021561
-0.0496663,-0.01851
-0.0128701,-0.0282161
0.0103639,-0.0131119
0.0288256,-0.00474968
0.0915749,0.0143987
0.120534,0.0158044
0.0871653,0.00727054
0.0429297,0.038218
0.00332172,-0.00270707
-0.0353002,-0.0478601
-0.0610886,-0.0586488
-0.0488848,-0.0684764
-0.0148626,0.00779364
-0.0116508,0.129822
-0.0208594,0.0417429
-0.0301129,-0.00309361
-0.0349628,-0.00820443
-0.0333779,-0.0103533
-0.0154326,-0.00637534
-0.0116922,-0.00329126
-0.00298007,0.0175004
0.0147099,0.0381727
0.0186652,0.0118579
0.00494206,0.00783485
0.0187313,0.0293497
0.0451055,0.0147678
0.0570234,-0.00962459
0.0397173,-0.0363491
0.0278375,-0.0379278
0.0184938,-0.0494843
-0.00352875,-0.0519591
-0.0207018,-0.0377218
-0.0265742,-0.0022394
-0.0307776,0.0412335
-0.0254656,-0.00938127
-0.00245043,-0.0272446
-0.0114101,0.0223047
-0.0196923,0.0781328
-0.00197656,0.0284732
0.0106302,-0.0283916
0.00949176,0.0276664
0.00949377,0.0061076
-0.0080014,-0.0662168
-0.0329548,-0.0302278
-0.0387703,0.0117834
-0.00824467,0.0415973
0.0212381,0.0211133
0.0319722,0.00117844
0.0343067,-0.0103651
0.0150216,-0.00908183
-0.015419,0.00972601
-0.0295215,0.00288479
-0.0185742,-0.0145521
-0.00758508,-0.00595142
0.0169248,0.0124297
0.0291469,0.0119776
0.0184842,-0.00202016
0.0251033,0.00105728
0.0277835,0.0139512
0.0124896,-0.00383688
-0.0125871,-0.0265159
-0.0322161,0.0094427
-0.0284717,0.0543228
-0.00382143,0.00937814
0.0105612,-0.00460133
0.0116324,-0.00693001
0.00474529,-0.046728
-0.00473699,-0.0521115
-0.0118475,-0.0203208
-0.0190756,0.0041326
-0.0105004,0.0194923
0.0122231,0.0303584
0.0184908,0.0189571
0.00292696,0.00991596
-0.00700931,0.011129
-0.0154214,-0.00939759
-0.0330113,-0.0227511
-0.044873,0.00864733
-0.018566,0.0342669
0.0185759,0.0122089
0.0225976,-0.00244124
0.0215989,-0.011857
0.0101884,-0.0145609
-0.00502263,-0.0195033
-0.0124232,-0.0239716
0.0184562,-0.00714852
0.0564241,0.00751598
0.0700182,0.00294012
0.0622034,0.00133677
0.0120449,-0.00199942
-0.0483897,-0.000461725
-0.0609183,-0.00305046
-0.0578922,-0.00603207
-0.0459888,0.00366852
0.00209812,-0.00877764
0.0455669,0.0149129
0.0511915,0.0271549
0.0279976,-0.00358151
0.029867,-0.014895
0.0448232,-0.0120817
0.0410721,-0.00612058
0.032519,-0.00501108
0.00409249,-0.00227697
-0.0486542,0.00033871
-0.0790672,0.00815631
-0.0872109,0.0330866
-0.0903357,0.0250633
-0.0684782,0.00150563
-0.0362571,-0.00802403
-0.0151206,-0.0145803
-0.017737,-0.0169467
-0.0109925,-0.0207704
0.012581,-0.0461314
0.0161449,-0.0324283
0.0174803,0.00573517
0.0107427,0.015562
-0.00296961,0.0291173
-0.000475363,0.0614812
0.0204331,0.0470452
0.0351848,-0.0093667
0.047206,-0.0214053
0.0673927,0.019372
0.0614124,0.0307482
0.0365981,0.0028761
0.0337607,-0.00581608
0.0242622,-0.00326209
-0.00865988,-0.0172629
-0.0302899,-0.0441911
-0.0212121,-0.0521743
-0.00223196,-0.0110455
-0.0101664,0.0736003
-0.02658,0.0443126
-0.0395245,-0.0299332
-0.0473821,-0.0773189
-0.0557877,-0.0732725
-0.0334667,-0.0146479
-0.00402557,0.0162866
0.0209957,0.0365522
0.0403067,0.0651772
0.0336976,0.101552
0.0259344,0.0747724
0.019863,0.0385529
0.00208881,-0.0118003
-0.0140395,-0.00146684
-0.023337,0.0122145
-0.00249106,-0.0390972
0.0222681,-0.0377026
0.0195161,-0.034905
-0.00285704,-0.00667478
-0.0299034,-0.00497104
-0.0504534,-0.0348034
-0.041432,-0.0374305
-0.0160306,-0.0125947
-0.00191978,-0.0117875
0.0223314,-0.0743615
0.0453953,-0.164775
0.0432322,-0.153356
0.0381427,-0.102248
0.0351517,-0.0253218
0.0256587,0.0561177
0.0159669,0.161421
0.0148216,0.239726
0.0253529,0.201203
0.0159856,0.0840652
0.00187443,0.0237431
-0.00482876,0.00775413
-0.0286047,-0.0395355
-0.0548365,-0.0733872
-0.0589752,-0.0411044
-0.0546479,0.00229812
-0.035702,0.0215897
0.0061048,0.0301863
0.0339275,0.0265875
0.0287991,0.0156101
0.016846,-0.000292354
0.000449561,-0.02994
-0.0197283,-0.0908258
-0.0345835,-0.128559
-0.0277264,-0.110812
-0.00255452,-0.0604066
0.0134693,-0.0294217
0.027912,0.0566543
0.0252506,0.114616
-0.00625452,0.0513727
-0.0377796,-0.00518982
-0.0398172,-0.0611023
-0.024607,-0.0344924
-0.000999459,0.0993978
0.0345919,0.10225
0.0479756,0.0384812
0.0326633,0.0254936
0.0210759,0.0315
0.00653392,0.0157594
-0.0102184,-0.0104256
-0.0221071,-0.0217316
-0.0123303,-0.0500341
0.00396809,-0.0303252
-0.00450839,0.0450305
-0.0135243,0.00585578
-0.0219644,-0.0433867
-0.018166,-0.034199
-0.00749326,-0.0166952
-0.00129038,-0.0158998
-0.00363422,0.00813738
0.0142362,0.0544686
0.0579961,-3.88e-05
0.0693202,-0.0397203
0.052496,0.000149622
0.0386881,0.013548
0.0126408,0.00149762
-0.0298549,-0.00492214
-0.0615959,-0.00179164
-0.0438368,-0.00586478
-0.00449098,-0.0116879
0.0168712,-0.0237404
0.014438,-0.0248631
-0.0138551,-0.0234213
-0.0488429,-0.0250318
-0.0658046,0.00107805
-0.0526758,0.0142873
-0.0330187,0.00469247
-0.00644737,0.0205209
0.0154897,0.0233202
0.023785,0.0554579
0.0283103,0.0853349
0.0318871,-0.0282323
0.0376659,-0.0518622
0.066126,-0.0181642
0.0901709,0.00186922
0.0815387,0.0126437
0.0376522,-0.00379705
-0.0360291,-0.0163582
-0.0945932,-0.0304003
-0.109793,-0.0402567
-0.0937268,-0.0495482
-0.0536063,-0.0579725
-0.0167118,-0.046566
0.0262274,0.0338766
0.0684346,0.094034
0.0823535,0.0776115
0.0556673,0.0944386
0.0226119,0.0810886
-0.00144123,0.0110886
-0.0294541,-0.0271211
-0.0532225,-0.0412493
-0.0431051,-0.0222153
-0.0168963,-0.0248147
-0.0116338,-0.0273797
-0.0026062,-0.0302228
0.00155458,-0.0281738
-0.00419755,-0.0168395
-0.00929254,-0.0212195
0.00570026,-0.00318878
0.00872212,0.0159997
0.0259988,0.00302858
0.0429241,-0.00855082
0.031608,-0.0133814
0.012154,-0.00776842
-0.000479309,0.041507
-0.0153242,0.0748428
-0.0227477,0.0198228
-0.0191478,-0.0146849
-0.00634789,0.0151462
0.00278445,0.0127648
0.00176025,0.00555642
0.0010604,0.0038487
-0.00183471,-0.0232551
-0.00783639,-0.0231228
-0.00568971,-0.0190906
-0.000332297,-0.0120924
0.00794729,-0.0103008
0.0278147,0.00119485
0.0354208,0.00500023
0.0182179,-0.00516102
0.00197284,-0.012552
-0.00933758,-0.0139181
-0.0235141,-0.0137993
-0.0368567,-0.0187099
-0.0307592,-0.0205179
-0.00926956,0.0145783
-0.00565055,0.066705
-0.0002307,0.0275789
0.00247337,-0.00817951
-0.00418879,-0.00653846
-0.00811769,-0.0122669
-0.00408669,-0.0176732
7.78e-05,-0.0191225
0.0123356,-0.00636319
0.0247856,0.0339479
0.0245804,0.0807218
0.0198443,0.0813668
0.0161064,0.0409728
0.0028535,-0.0811848
-0.00529914,-0.0958249
-0.00680563,-0.0351045
-0.00720993,-0.00253526
0.000873735,-0.00945629
0.00396264,-0.00745881
-0.000994754,0.00466443
-0.0178493,0.00558949
-0.0185513,0.000976248
0.00455072,-0.00623778
0.0252812,-0.00332153
0.0273783,0.000687413
0.0283704,0.00961218
0.0145861,0.0173102
-0.0105678,0.0058996
-0.0290296,-0.00266517
-0.0410605,0.00102551
-0.0387478,-0.0148524
-0.0337787,-0.0165913
-0.0224589,-0.00410702
-0.00268837,0.0231398
0.0148879,0.0317516
0.0130321,0.040289
0.0122852,0.0109548
-0.000273861,0.0086817
-0.0146566,0.0056832
-0.0134742,-0.0265401
-0.00323818,-0.0238681
0.00702014,-0.0129473
0.0262478,0.00386751
0.0385665,0.0188501
0.0256338,0.00606269
0.00252484,-0.0147445
-0.0139253,-0.0124775
-0.0163784,0.00155786
-0.0182777,-0.00820674
-0.0121398,-0.0213728
0.000702753,-0.016434
0.00222863,0.0226334
0.00107446,0.038683
0.00115666,-0.0330432
-2.55e-05,-0.0654866
-0.00346875,-0.0358154
-0.0113694,0.0243488
-0.00388178,0.0416528
0.01486,0.0355641
0.0365753,0.025973
0.0356612,0.0117806
0.0173425,0.00721
0.00315141,0.0294723
0.000164898,0.0154125
-0.00818597,-0.037849
-0.0195662,-0.0376925
-0.0146832,-0.00537158
-0.00533031,0.00906144
-0.00194809,-0.00339853
0.00856042,0.0140213
0.0205597,-0.0196557
0.00517764,-0.0174924
-0.010281,-0.0101861
-0.00283287,0.00131944
-0.00311708,0.003616
-0.0033806,-0.00167968
-0.0017113,0.0186015
-0.00258976,0.0142265
0.000356668,-0.0121823
0.0100117,-0.0205513
-0.00197256,-0.0139383
-0.023473,-0.00282257
-0.0242182,0.00401479
-0.00582186,0.0107464
0.00881368,0.00461329
0.00165525,-0.00313704
-0.00195676,0.0044072
0.00199251,-0.0095877
0.00332064,-0.00398522
-0.00434062,0.0207296
-0.0110653,0.00970053
-0.0126396,-0.00916043
0.0123398,0.0192521
0.0262042,0.0125273
0.013509,-0.0154171
-0.00108874,0.0272817
-0.00781345,-0.00342639
-0.0108004,-0.0523861
-0.0196973,-0.0182743
-0.0166391,0.0101058
0.00539434,0.0136002
0.018934,0.00657868
0.0138951,0.0489326
0.0115695,0.0401344
0.00487165,-0.0177571
-0.00568329,-0.0298058
-0.00315663,-0.0299437
0.00129583,-0.0299944
0.011967,-0.0129393
0.0283507,0.00517712
0.0222793,0.0164764
0.000666506,0.00542704
-0.0149685,0.00702352
-0.0285144,0.0387462
-0.0419338,0.0143062
-0.0383081,-0.0614347
-0.00643277,-0.0576344
0.0227047,-0.00646605
0.0174387,0.0133672
0.0191881,0.00633875
0.0181939,0.00371078
-0.000436345,0.00970852
-0.0132497,0.0290547
-0.0119548,0.0396359
-0.0222194,0.0259608
-0.0122974,0.0106409
0.0255658,0.00574406
0.0319712,-0.00201256
0.0118432,-0.0151313
0.000701499,-0.0337637
-0.0147081,-0.0350111
-0.0325306,-0.0147854
-0.0338765,0.00196986
-0.0104882,0.0165538
0.0162976,-0.00393019
0.0233819,-0.0064495
0.0211406,0.0164539
0.00966518,0.0434999
0.00430202,0.0460005
0.0172453,0.000914718
0.0293467,-0.0304465
0.0245652,-0.0259845
0.026196,-0.00698307
0.0156029,-0.00136089
-0.0122895,-0.0289023
-0.0362732,-0.0118909
-0.0490455,0.03322
-0.0537678,0.0360497
-0.0423702,-0.0191536
-0.01508,-0.0276071
0.018914,-0.0235053
0.0355757,-0.0259629
0.0278831,-0.0153935
0.0099305,0.00885607
0.0193662,0.00738231
-0.0118029,0.0207985
-0.0302849,0.0208712
-0.0249896,-0.00348212
0.00825683,9.33e-05
0.0182193,0.00681991
0.00087545,-0.00380953
-0.00838893,-0.0132401
-0.00541176,-0.0274957
-0.00843725,-0.0437988
-0.0076945,0.0018476
0.0151118,0.0590797
0.0400383,0.0841516
0.0346164,0.0622905
0.0298825,0.0260025
0.0258871,-0.0453613
0.00631125,-0.059308
-0.0292143,0.0398548
-0.0439727,0.0184318
-0.0393384,-0.0737991
-0.0211268,-0.043978
0.00704783,-0.0100234
-0.0026046,-0.00304573
-0.0180271,-0.015333
-0.00397654,-0.0193298
0.00939667,-0.0115025
0.0105741,0.0144171
0.0105412,0.020871
0.0273285,0.0238441
0.0367396,0.0302873
0.0242779,0.00307212
0.00835941,0.0116712
-0.00162146,0.0400556
-0.0168028,0.0219878
-0.0376293,-0.00876015
-0.0322151,-0.0180377
-0.0245933,-0.0367599
-0.0155194,-0.0114586
0.0008655,-0.0124098
0.000943131,-0.0265701
-0.00855956,-0.0181616
-0.011139,-0.00992907
-0.010572,0.000297351
-0.0113415,0.012405
-0.00526105,0.00662417
0.0314514,-0.00605123
0.0531112,0.0154429
0.044899,0.0551457
0.0463841,0.0166307
0.0444167,-0.026514
0.0171202,0.00315426
-0.0156075,0.0199303
-0.0350529,-0.0339149
-0.0475034,-0.0298757
-0.0306571,0.0251151
-0.0106984,0.00539712
-0.0149795,-0.0164679
-0.0212633,-0.0130032
-0.0180257,-0.0122565
-0.0173408,0.00664429
-0.0173651,0.0516592
0.00457014,0.0411542
0.0339996,0.0124841
0.0348788,-0.013707
0.0191745,-0.0226327
0.0117206,0.000956285
0.00602579,0.0174831
-0.00228391,-0.0120807
-0.00890979,-0.0334237
-0.0187251,-0.0218443
-0.0196253,-0.0118222
0.000761789,-0.00930812
0.00772635,-0.000110229
-0.00658681,-0.00522982
-0.0151819,0.00821087
-0.0245801,0.012603
-0.0312571,-0.00813806
-0.0176953,-0.0207691
0.0118726,0.0309188
0.0423531,0.0380203
0.0434685,0.000119573
0.0396707,-0.0250599
0.0274261,-0.0206506
-0.00398064,0.0603151
-0.0199671,0.0288562
-0.0108024,-0.0518864
-0.0132945,-0.0293113
0.000656378,0.0300617
0.0173194,0.0301545
0.00652065,-0.00880854
-0.0127041,-0.00478283
-0.0161846,-0.0170374
-0.0201865,-0.0245731
-0.0240685,-0.0227938
-0.0174239,-0.0391568
0.0113365,-0.0115921
0.0318433,0.0811036
0.0302796,0.0489492
0.0197184,0.0108995
0.0174746,-0.00748255
0.0121895,-0.0380288
-0.00118725,-0.0367906
-0.00476189,-0.0297971
-0.0176812,-0.0170476
-0.0138875,0.00427879
-0.00199847,0.00563742
-0.00894227,-0.0089117
-0.0171942,0.00883681
-0.017907,0.01475
-0.0166676,-0.0033179
-0.0182383,0.000874218
-0.00528544,0.0227453
0.0207401,0.0289108
0.0303195,0.0176374
0.0159437,0.0353937
0.00285793,0.0432581
0.00334753,-0.0335056
0.00831998,-0.0473649
0.00843744,-0.0213786
-0.00165772,-0.0157405
-0.00338058,-0.0128641
0.00892144,0.00873808
0.00956054,0.028881
-0.0138119,0.038766
-0.0212933,-0.00314804
-0.019179,-0.0288868
-0.0188913,-0.018932
-0.0203462,-0.0197172
-0.0131949,-0.0149228
-0.00365398,0.000166764
0.0200912,0.00311858
0.0583395,-0.00572726
0.0668797,-0.0176636
0.0360087,-0.0116196
0.00535105,0.0036501
-0.00467956,0.00672785
-0.0265951,0.0427525
-0.0304374,0.0727615
-0.0214014,0.0487861
-0.0233486,0.0780472
-0.0388446,0.0323814
-0.0308523,-0.0693293
-0.0185577,-0.0992523
-0.00934536,-0.0240637
-0.00564737,0.0154468
0.0233485,-0.00639753
0.0475142,-0.0104955
0.0246545,-0.0114115
-0.0103736,-0.0251953
-0.022687,-0.0265866
-0.0212248,-0.0225439
-0.0164075,-0.00389817
-0.0172764,0.00822471
-0.00558663,-0.00932941
0.0268793,0.0234213
0.0510427,0.0358374
0.0514654,-0.00508532
0.026608,-0.00988105
-0.00115805,-0.00322504
-0.0236266,-0.00675991
-0.0397424,-0.00699658
-0.0374342,0.000224937
-0.0107936,0.0206944
0.00927603,0.0766802
0.0298629,0.0941909
0.0307687,0.0102979
0.0177097,-0.0631133
0.00558694,-0.059832
0.000463021,-0.0341344
-0.0051544,-0.014093
-0.000410851,-0.00630599
0.0147261,0.00123306
0.00635316,-0.00269273
-0.01368,-0.0192516
-0.0280968,-0.00524185
-0.0335624,0.0544755
-0.0295956,0.0391229
-0.0425653,-0.00243624
-0.018431,-0.0569868
0.0261682,-0.0169278
0.0350154,0.00358006
0.0247706,0.00796184
0.0198117,0.0255279
-0.000807904,0.0231769
-0.00673059,-0.0225029
0.0133272,-0.0222064
-0.00263395,-0.0208562
0.00470096,-0.0118665
0.0199718,0.0168092
0.0142144,0.0205514
-0.00180346,0.00579043
-0.0135615,-0.0016889
-0.0232364,0.00179667
-0.0217305,-0.0120687
-0.00980361,-0.0317578
0.0114707,-0.00342608
0.0199239,0.0158481
0.00211206,0.0130674
-0.00705677,0.00978124
-0.0155814,0.0112314
-0.029024,0.0513324
-0.0309538,0.0299921
-0.0109337,-0.0239383
0.00443067,-0.0363795
0.0211999,-0.0102097
0.0348444,-0.0113444
0.0175511,0.00440569
-0.00686105,0.0465166
-0.00801155,-0.0283766
-0.0242006,-0.0599327
-0.0273355,-0.045082
0.00737108,-0.0124265
0.0530647,0.0373016
0.0700318,0.0511066
0.058052,0.0175411
0.0244172,-0.00818304
-0.0394065,-0.0117987
-0.0499105,-0.0171523
-0.00177697,-0.00350727
0.0418508,0.00598801
0.041145,0.0136437
0.0326372,0.011253
-0.00224854,0.006187
-0.0714177,0.02827
-0.0964812,0.0210342
-0.0776419,-0.0123357
-0.0460647,0.000936095
-0.0494561,0.0321724
-0.028576,0.0329798
0.0158994,0.00544302
0.0368589,-0.0165434
0.0383598,-0.0333806
0.0367218,-0.0291493
0.0375723,-0.0115398
0.0359253,-0.00712586
0.0116174,-0.0210117
-0.00143623,-0.0384186
0.0219759,-0.0336737
0.0534162,-0.0221108
0.0343689,-0.00883384
-0.00768064,-0.00363994
-0.0211144,0.0301014
-0.0369546,0.0502567
-0.0466537,0.0086719
-0.0335909,-0.0163849
-0.00647991,0.00659652
0.0208171,0.00950792
0.0511701,0.00126328
0.0652513,0.0302132
0.023112,0.0121236
-0.0131436,-0.0289335
-0.0300575,-0.0366314
-0.0386867,-0.0123121
-0.0386515,0.00385977
0.0107078,0.0170907
0.0339125,0.0315375
0.00701472,0.017062
-0.0108464,0.00177708
-0.027092,0.0103336
-0.058436,0.032721
-0.0902138,-0.0520126
-0.107714,-0.0913181
-0.0686238,0.00856948
0.014398,0.0358
0.0603411,0.0330018
0.0572768,0.0788388
0.0679447,0.0838369
0.092775,0.0130865
0.0836859,-0.0814535
0.00203986,-0.0441799
-0.0530479,0.0481085
0.0230104,0.00597336
0.0810663,-0.00868131
0.0596421,0.0499577
0.0192171,0.0112481
-0.00931247,-0.068523
-0.0417739,-0.0790554
-0.055718,-0.0223319
-0.0323251,0.0881466
-0.0210697,0.148715
0.0294958,0.0287912
0.0642363,-0.0204886
0.0346042,0.0464912
-0.0024554,0.0276791
-0.0296662,-0.00948928
-0.0347046,-0.123585
-0.0212984,-0.367793
0.00784868,-0.382096
0.0414964,-0.332003
0.0382341,-0.187158
-0.0109209,0.0369527
-0.0505004,0.22065
-0.0702498,0.338676
-0.126517,0.22049
-0.15953,0.0792727
-0.131146,0.11922
-0.142063,0.0947551
-0.142521,0.0467765
-0.00699821,0.190099
0.139303,0.223075
0.177995,0.0580554
0.157191,-0.054392
0.121464,-0.0163835
0.104323,-0.00944568
0.117994,-0.0248907
0.0852696,-0.0319971
0.0123476,-0.034429
-0.023088,-0.049325
-0.0578363,-0.0483486
-0.0649659,-0.0481477
-0.0811831,-0.0812998
-0.0887485,-0.0953226
0.00512314,-0.0784845
0.0864116,-0.0527077
0.124147,-0.0388949
0.129151,-0.00752728
0.10162,0.0239561
0.00515113,-0.0142955
-0.0579663,-0.125826
-0.0574432,-0.0631531
-0.0765302,0.110618
-0.108531,0.132178
-0.0712254,0.0922919
-0.00736032,0.0653118
0.0108913,0.0355801
-0.0366756,-0.0134645
-0.185901,-0.0206433
-0.189024,0.0162903
-0.000589069,0.0296151
0.154313,-0.0130129
0.185781,-0.0958851
0.119289,-0.118102
0.044393,-0.0391249
0.0251707,0.00191702
-0.01597,-0.0116777
-0.0468697,0.022992
-0.0332133,0.0631223
-0.0168155,0.0618071
0.0122647,0.0521037
0.00451051,0.0604952
-0.0300572,0.037008
-0.0312776,-0.0286372
-0.012469,-0.0448333
0.00807137,-0.034789
0.0245042,-0.0644491
0.0167246,-0.0250812
0.0273828,0.0172109
0.0680939,-0.00696331
0.0624226,-0.00263373
0.0162834,0.0170999
-0.0283732,0.0119774
-0.0670575,-0.0109391
-0.0993562,0.00884556
-0.0958799,0.0126421
-0.035816,0.00433146
0.0158231,0.00126635
0.0302242,-0.0153659
0.00837565,-0.0144446
0.0136751,-0.00222354
0.0239877,0.0176036
0.0357532,-0.0250123
0.0263387,-0.0572165
-0.0151616,0.0270646
-0.0140558,0.0547053
-0.00583311,-0.0627906
0.0183689,-0.0602298
0.0230707,-0.0327304
-0.0331949,-0.00140838
-0.0928057,0.0391428
-0.0647013,0.0747934
-0.0237945,0.090658
-0.0552683,0.0863497
-0.00578193,0.0375025
0.0633179,0.000416282
0.0998523,-0.00433736
0.0807544,-0.0261737
0.0322745,-0.0130021
0.0297426,-0.0569875
0.0567721,-0.0444664
0.0526911,-0.0398119
0.0612314,-0.00867183
0.0357203,-0.000201166
-0.0703242,-0.0175184
-0.107936,0.0166195
-0.0694296,0.0373417
-0.0413147,0.0276898
-0.0228715,0.02482
-0.00124947,-0.00226827
0.0457747,-0.00414055
0.0699878,0.0162435
0.0154439,-0.000337445
-0.0550348,-0.0396115
-0.0816351,-0.0422118
-0.0529247,0.0110247
-0.00475557,0.0238832
0.0513435,-0.018427
0.113143,-0.0659844
0.110086,-0.0966823
0.0696459,-0.0178842
0.0250863,0.0617765
-0.0295146,0.0551091
-0.101552,0.0560837
-0.12757,0.0620527
-0.0982667,0.0443382
-0.0302721,0.00979411
0.0584074,-0.0594455
0.117177,-0.0340578
0.0791963,0.00989771
0.00644539,0.0284042
0.00450622,0.0477238
0.0321815,-0.0100724
0.0220451,-0.111226
-0.0384916,-0.0543402
-0.0938544,0.0749593
-0.0659433,0.073084
0.0155946,-0.0503067
0.00610655,-0.00063401
-0.106643,0.105257
-0.167686,0.035383
-0.0919973,-0.00521186
0.000673675,-0.00208259
0.0701322,-0.0243953
0.127493,-0.0210438
0.131568,-0.0201894
0.133403,-0.0365692
0.145728,-0.039982
0.114324,-0.00305322
0.0276957,-0.00172523
-0.132228,-0.0502596
-0.184177,-0.0494741
-0.0892777,-0.0186839
-0.0121783,0.0208136
0.0410942,0.0777804
0.0538009,0.0368373
-0.0438889,-0.0389432
-0.188217,-0.0376635
-0.314454,0.0045746
-0.248276,0.0429121
-0.00298703,0.0295166
0.157188,0.0149627
0.196708,-0.0117127
0.306164,-0.024422
0.30657,-0.00676587
0.109574,-0.0559431
0.0273665,-0.0579346
-0.0165163,0.0309485
-0.0255845,0.0616592
-0.0269883,-0.0244337
-0.0389744,-0.04806
-0.0569907,0.00549134
-0.0824443,0.0554022
-0.0240746,0.0677428
0.0914128,-0.00952957
0.148148,-0.0353355
0.0649013,-0.00662028
-0.0542509,0.00503049
-0.113159,-0.0134152
-0.12879,-0.0184685
-0.0899111,0.000912746
-0.0468407,0.0231033
-0.0378159,-0.0158554
-0.0418997,-0.0385749
-0.0414453,0.0507053
0.00349696,0.0481957
0.0208204,-0.00869041
-0.00851886,-0.00721164
0.0210898,-0.0136647
0.024044,-0.000538786
-0.000417294,0.0115016
-0.0043099,0.0195706
-0.0201424,0.0155795
-0.00373116,0.0183841
0.0332818,0.00656813
0.0616272,0.00217522
0.0673135,0.0140827
0.0630695,0.0120195
0.00902635,-0.0103117
-0.0405602,-0.00765067
-0.0586934,0.00292699
-0.0589287,0.000220974
-0.046737,-0.0338833
-0.0118131,-0.0169418
-0.047967,0.00321758
-0.138087,-0.0270918
-0.066622,-0.0301455
0.0490843,0.0168198
0.092948,-0.0193333
0.0558015,-0.0459702
-0.0121616,0.00743642
-0.0718174,0.045198
-0.130256,0.0493365
-0.184086,0.0254641
3.46e-05,0.0376014
0.135305,-0.00560461
0.174493,-0.0970272
0.243472,-0.0994018
0.234388,-0.0510633
0.121762,0.0251993
0.0430222,0.0531484
0.0555749,-0.0304694
0.0513719,-0.0363222
0.044089,0.014229
0.0226363,0.0386189
-0.00501079,0.169069
-0.0465601,0.241024
-0.0702411,0.0414363
-0.0783805,-0.0743481
-0.0650626,-0.103339
-0.0874768,-0.0728003
-0.0867874,-0.100325
-0.0292606,-0.0586646
0.0320764,0.025863
0.042763,0.0165228
-0.0274687,-0.0344709
-0.0981878,-0.0473864
-0.125188,0.00542532
-0.149698,-0.0027362
-0.118411,-0.0167382
0.00623912,0.0102769
0.129646,0.0186013
0.116963,0.0424064
0.0550386,-0.00736955
-0.0414103,0.0112723
-0.0770767,0.0119857
-0.0533456,0.013361
-0.00244101,0.031703
0.0347454,0.0284935
0.0253297,-0.00814831
0.0275334,-0.013407
0.104947,0.0403598
0.0984333,0.0238109
-0.0563757,-0.027361
-0.204207,-0.01614
-0.192528,-0.00374484
-0.0744503,-0.0178723
0.0832242,-0.0418634
0.171518,-0.0102319
0.140446,0.0108907
0.0685404,0.0780348
0.0377002,0.0106484
0.0293805,-0.0562217
0.0420071,-0.0332078
0.0262808,-0.0222689
0.00758092,0.00160639
0.0103044,0.0412078
0.0216008,0.039105
0.0451941,0.00951374
0.0753899,-0.01551
-0.0102388,-0.027355
-0.0927651,-0.0312768
-0.0886104,-0.023857
-0.068958,0.00991962
-0.0260642,0.0231736
-0.0513274,-0.0666007
-0.228617,-0.0388078
-0.197104,0.0373055
0.0622277,0.0330349
0.23617,-0.0065839
0.207771,-0.0320754
-0.0134412,-0.0168574
-0.165645,0.0263813
-0.10593,0.0241114
-0.0349165,-0.0252109
0.0359459,0.054324
0.10847,0.0848531
0.120503,-0.0267389
0.109217,0.0506396
0.133621,0.116547
0.0788193,0.0652477
-0.024622,-0.0678622
-0.0966433,-0.108247
-0.0850651,-0.0017861
0.0339147,0.0533524
0.0799664,0.00679454
0.077678,-0.0657269
0.0967564,-0.0588
0.0688367,0.00122349
-0.074896,-0.0306114
-0.203731,-0.0340499
-0.2686,-0.0044371
-0.254316,0.0108604
-0.124582,0.000823148
0.0255548,-0.0702638
0.0110044,-0.009143
-0.052354,0.0238483
-0.0829156,-0.0146907
-0.0554598,-0.00874346
0.0415854,-0.0169311
0.202752,-0.0324876
0.262325,0.024032
0.146071,0.0515686
0.0600638,0.0248903
-0.0161035,0.0286485
-0.077837,0.0527801
-0.120468,0.0738528
-0.117841,0.082942
0.0267343,0.0452469
0.231758,-0.0296063
0.34952,-0.0260226
0.284156,-0.0579869
0.125607,-0.074375
0.00709202,-0.0525566
-0.0405321,-0.030111
-0.0905271,-0.00403467
-0.161916,0.024684
-0.161694,-0.00349999
-0.129035,0.00570751
-0.0747126,0.0321713
-0.0240515,-0.00405325
-0.0130998,-0.0484466
-0.0842553,-0.00910455
-0.21724,-0.00141593
-0.213702,-0.0124102
-0.156185,0.0236941
-0.042078,0.0177819
0.0753533,0.0271765
0.162818,0.0427376
0.110519,0.0338199
-0.00186815,-0.0108794
-0.118164,-0.0286876
-0.168048,0.035561
-0.0484591,-0.0352766
0.107916,-0.0951288
0.186003,0.00595453
0.165027,0.157553
0.13485,0.00116764
0.0722582,-0.0930971
-0.0326764,-0.0346737
-0.0996571,-0.0115967
-0.0236214,-0.0147917
0.075384,-0.00343445
0.0933068,0.0451013
0.0887843,0.0497781
0.0636065,-0.0332377
0.0225687,-0.110072
-0.0362218,-0.0711917
-0.0684745,-0.0252209
-0.0106291,0.052535
0.0918469,0.0694093
0.141181,0.0551694
0.0988413,0.0421229
0.0237826,0.00356067
-0.072023,-0.0177369
-0.114133,0.00642535
-0.154161,0.0100241
-0.158752,-0.00817645
-0.0665745,0.00621498
0.00542473,0.0549972
-2.86e-05,0.0179174
-0.07855,-0.0480192
-0.103884,-0.0286621
-0.023304,0.034035
0.116602,-0.0203308
0.150885,-0.11217
0.0517234,-0.0584429
-0.0466575,0.0157428
-0.080477,0.106923
-0.143713,0.0704252
-0.0825869,0.0371017
0.129159,0.0588095
0.317719,0.0442607
0.311882,-0.0442782
0.167311,-0.101553
-0.0051135,-0.062574
-0.112935,-0.0416883
-0.124397,-0.0510358
-0.145805,-0.0413711
-0.133739,-0.0355891
-0.0958029,0.0359536
-0.152211,0.159635
-0.250759,0.126134
-0.12856,0.083386
0.100354,-0.0196094
0.205082,-0.12319
0.0749052,-0.085225
-0.121682,0.00343091
-0.0743932,-0.0135544
0.0847628,-0.0203538
0.135502,-0.0189976
0.127177,0.0159625
0.0852496,0.025731
0.0492717,0.0253606
0.027817,0.0136401
0.00775908,0.000325998
-0.0303609,0.00417596
-0.0550149,-0.0857951
-0.0483528,-0.089357
-0.0243531,-0.0929392
-0.00113524,-0.0252799
-0.000644398,0.0829895
-0.0224273,0.148919
-0.0148928,0.0593339
0.0104506,0.0459695
0.0106274,0.0974187
-0.044893,0.036996
-0.0373654,-0.0725228
0.0262246,-0.101506
0.0526081,-0.0351143
0.062633,0.0188779
0.0417336,0.0024571
-0.0149492,-0.0329734
-0.0951013,-0.000338985
-0.111945,0.0139211
-0.0428006,-0.0191606
0.123757,-0.0217929
0.227744,0.00908381
0.160021,0.0103818
0.0460159,-0.004877
-0.0278208,-0.0074716
-0.0809206,0.0103166
-0.144167,0.00312188
-0.202146,-0.0403057
-0.204412,-0.0405466
-0.170813,0.00406057
-0.108883,0.0546691
-0.0623537,0.0364594
0.0804452,-0.00385119
0.193415,-0.0585642
0.193795,-0.0114297
0.186028,0.0430655
0.12684,0.0836273
0.0836953,0.114591
0.110763,0.0317198
0.106489,-0.0374285
0.0720181,-0.0311253
0.0426731,-0.0751953
-0.076386,-0.0399231
-0.199759,0.0522939
-0.253265,0.0566391
-0.209142,0.0038885
-0.120587,-0.0199621
-0.0620541,-0.0798743
-0.059007,-0.0995642
-0.062965,-0.0642514
-0.0774484,-0.017099
-0.0795655,0.0173189
0.0797706,0.0312765
0.261896,-0.00756443
0.306991,0.0458792
0.211755,0.132979
0.038924,0.0897186
-0.0539837,0.0271314
-0.0296265,-0.0600632
-0.0532467,-0.026281
-0.158824,0.000307013
-0.168502,-0.0410268
-0.0664959,-0.0433495
0.00360534,-0.0303054
-0.0403879,-0.0953591
-0.0664112,-0.119925
0.0629569,-0.0374729
0.1674,0.0737677
0.109177,0.154364
0.0369842,0.0812062
0.0186023,-0.0162921
0.00565609,0.0012934
0.0205598,-0.0138574
0.0441941,-0.0428641
0.06695,-0.0284525
0.023057,-0.000969327
-0.08558,0.00330453
-0.0847393,0.0188866
0.00748257,0.036388
0.127828,0.0534998
0.15113,0.0340036
0.0993092,0.020158
-8.09e-05,-0.00887683
-0.141124,-0.0311788
-0.200631,-0.056036
-0.169183,-0.0758024
-0.117121,-0.0240737
-0.0164969,0.0981368
0.000266172,0.134437
0.0453538,0.0341837
0.0599076,0.0382296
-0.00887034,0.0717002
-0.0262012,-0.0344623
0.0353378,-0.162019
0.0671822,-0.106723
0.115229,-0.0323959
0.0729159,-0.0244578
0.0268018,-0.0191839
0.0715818,-0.000174573
0.0511486,0.0181858
-0.00543735,0.0280107
-0.0216365,0.0112402
-0.0204909,-0.0232766
-0.0166115,-0.00168682
0.022757,0.0155886
0.0181792,0.00469795
-0.0494701,-0.00988939
-0.107606,-0.013397
-0.108981,-0.0105414
-0.0739643,-0.00516402
-0.0267702,-0.00238914
-0.024695,0.00130098
-0.0497415,0.0320468
-0.00236398,0.0336273
0.0668087,0.0614276
0.0582265,0.0684848
-0.0025395,0.0394799
-0.0227794,-0.0272836
-0.0369272,-0.0507034
-0.124654,-0.0531844
-0.126229,-0.039234
-0.0119407,-0.0459731
0.0573349,-0.0429914
0.0372459,0.0314565
0.0906572,0.0524815
0.154599,-0.0190994
0.124859,0.0175363
0.0419772,0.0205541
-0.000251429,0.0466755
0.0551059,0.0807015
0.101621,0.00437767
-0.0121687,-0.0547566
-0.102103,-0.0265047
-0.0482047,-0.0103419
-0.0133512,-0.0669227
-0.058012,-0.0724541
-0.10119,-0.0126473
-0.047362,0.0945201
0.0865723,0.0549589
0.07057,-0.0578507
0.0120506,-0.0246308
0.0170903,0.00215503
0.0253769,0.0116556
-0.0184647,0.0198091
-0.104951,0.0300284
-0.103337,0.0530755
-0.0618231,0.0804749
-0.0637913,-0.052781
-0.0915625,-0.0850044
0.0368096,-0.0410556
0.165256,-0.0254315
0.133163,0.0449675
0.0297493,0.0506718
-0.0479053,-0.0743938
-0.0705827,0.0246055
-0.0251437,0.103618
0.0453614,0.00425072
0.0734994,-0.0563949
0.022094,-0.0267029
0.0247627,-0.0467931
0.0510276,-0.0418754
0.0204513,-0.00762237
-0.0130131,0.047389
-0.0476022,0.033899
-0.0504397,-0.0244823
0.0169241,0.0137735
0.0668036,0.121842
0.0370505,0.0318272
0.0297862,-0.0812294
0.0447693,-0.0384421
0.0619407,0.0743001
0.0507178,0.0738218
0.00909946,-0.0942041
-0.0621569,-0.124515
-0.223159,-0.05794
-0.370294,0.00344381
-0.302261,0.00605137
-0.0884622,-0.0172494
0.0911761,-0.00279989
0.142367,0.00852956
0.0669225,0.0373923
0.132523,0.0317146
0.237725,0.0655602
0.18053,0.0500817
0.125134,-0.0248112
0.102593,-0.0733112
0.0143317,0.0239642
-0.0822259,0.0187959
-0.160449,-0.0469132
-0.123836,-0.0504211
-0.0199056,-0.0179242
0.0833887,0.0269541
0.135704,0.017013
0.0393841,0.0099868
0.0121421,-0.0114449
0.0502147,0.0225414
-0.00246895,0.105261
-0.089552,0.0666082
-0.10476,-0.0235983
-0.0569751,-0.0368235
-0.0546105,-0.032859
-0.0875257,-0.0534195
-0.079257,-0.0414491
-0.0274243,-0.0011841
-0.0190312,-0.0191144
-0.00303643,-0.000866233
-0.0261738,0.0682644
-0.0777624,0.0654453
0.00388515,-0.00348406
0.0843046,0.0289978
0.186399,0.0784533
0.214684,0.0102789
0.110221,-0.0485791
0.0287987,-0.0674646
-0.0448326,-0.0487213
-0.170857,-0.0255659
-0.233373,-0.0180254
-0.196737,-0.00495586
-0.00681077,-0.0512645
0.0971889,-0.0161904
0.0412472,-0.00586411
-0.0168856,-0.0380756
-0.0359495,-0.00565449
-0.0732292,0.0616012
-0.0348098,0.0944364
0.132741,0.0478911
0.254482,0.029882
0.175912,-0.0090138
0.0171902,-0.0495586
-0.0330083,-0.0103082
-0.0592565,0.0280001
-0.117636,0.00405522
-0.0580903,-0.0352171
0.0349841,-0.00483382
0.00739672,0.0200109
-0.0187619,-0.00489167
-0.0236008,0.00984773
0.0335064,-0.00964483
0.136484,-0.0266117
0.138179,-0.0246306
0.0550431,-0.0143471
0.00388169,-0.00184491
0.0085459,-0.00771204
-0.00942301,-0.000277637
-0.0751019,0.0169898
-0.12839,-0.00544139
-0.0791074,-0.0493277
-0.0107759,-0.0559078
0.0197442,0.00834682
0.0265081,0.0726017
0.0181296,0.0702733
-0.0133363,0.0493085
-0.0214554,0.00590377
-0.0250959,0.0440382
0.0131533,0.0556862
0.0338557,-0.0440156
0.0111854,-0.0488708
0.00954812,-0.0289289
0.0413991,-0.0157176
0.0156226,-0.021377
-0.063095,-0.017701
-0.109296,-0.008172
-0.110141,0.0173722
-0.16608,-0.0317781
-0.198852,0.00312193
-0.187541,0.0916296
-0.0704688,0.0386847
0.116178,-0.0363519
0.190834,-0.061667
0.10749,-0.0165584
-0.0196052,0.0603339
0.0401489,0.0387578
0.133848,-0.0384187
0.16513,-0.0331128
0.172157,-0.0210753
0.217628,-0.0599296
0.234732,-0.0504814
0.106011,0.0218036
-0.0377646,0.0524552
-0.108479,0.0450771
-0.166001,0.00117377
-0.159808,-0.000810705
-0.0335981,-0.00953033
0.0580363,-0.0156662
-0.0814421,0.00290085
-0.256916,0.0566051
-0.251696,0.0729532
-0.128886,0.0286113
-0.0152726,-0.0296824
0.0315429,-0.0312098
0.0760013,-0.0489827
0.156953,-0.0460894
0.191225,-0.038712
0.0941369,-0.0395421
-0.118491,-0.0115633
-0.246217,0.0292379
-0.0781936,0.0205746
0.0634165,-0.00290445
0.0760884,0.0276122
0.113444,0.114031
0.159945,0.0900746
0.124009,-0.0301869
0.113055,-0.0593067
0.0802583,-0.00418686
-0.0112318,-0.0162075
-0.044257,-0.0357425
-0.0743625,-0.0339413
-0.112599,-0.0180113
-0.128117,-0.0113424
-0.0304516,-0.00478546
0.0373086,0.00815585
0.0936264,0.00228224
0.0993082,0.0182803
0.0635139,0.0772528
0.0466665,0.0623144
0.0296481,-0.0215011
0.0216693,-0.0567474
-0.0394921,-0.0326547
-0.107319,-0.0386069
-0.148004,-0.0257475
-0.105348,-0.00705516
-0.0818519,-0.00128912
-0.110443,0.0395949
-0.0615507,0.00403663
-0.0152134,-0.000587893
-0.0554888,0.035173
-0.0621917,0.00333464
0.00887636,-0.0438248
0.0584832,-0.0297261
0.0723092,0.023625
0.114727,0.0141676
0.11843,0.0246282
0.071948,0.0175173
0.0113765,-0.0200513
-0.0469969,-0.0317936
-0.0458674,-0.027091
0.0062951,-0.0223893
0.0136295,-0.0247489
0.00924578,-0.0254471
0.0196461,0.000802157
0.0322636,0.00738951
0.0399367,0.073749
0.055003,0.0705369
0.034434,0.0348466
-0.0278995,0.0293922
-0.0817158,0.0095113
-0.0857915,-0.00686094
-0.0798159,-0.00743692
-0.0767525,-0.0234618
-0.101583,0.0189088
-0.038087,0.0301323
0.108767,0.0233654
0.213672,-0.0199652
0.224894,-0.089215
0.0935524,-0.0646494
-0.0688963,0.00577718
-0.102877,0.0597793
0.0074883,0.0240465
0.0635085,-0.0309429
0.0326313,-0.0407208
0.0307019,-0.0358707
0.0460169,-0.027165
-0.0724204,0.0341519
-0.0958778,0.119585
-0.024001,0.0338119
0.0289528,-0.0555474
-0.0321301,-0.0470871
-0.0822312,-0.0401202
-0.0594249,-0.0228264
-0.0735219,-0.0110878
-0.111595,0.0344691
-0.0753191,0.0519285
-0.021779,-0.0354053
0.0087287,-0.0334912
0.0399668,0.00854737
0.0721486,0.0124209
0.0865251,0.0171016
0.0281826,0.0230273
0.0341297,0.000431922
0.0965141,-0.0377723
0.0877543,-0.0110508
0.0881503,0.0498629
0.0845908,0.0313824
0.0250495,0.0186534
0.00294294,0.019446
0.0265214,0.0523096
0.0293282,0.0182833
0.0149853,-0.0552042
-0.0330174,-0.0400351
-0.101281,-0.0215997
-0.133853,-0.0199862
-0.137094,-0.0233795
-0.191664,-0.0076414
-0.207116,-0.0181531
-0.102254,-0.0398383
0.0128202,0.0236883
0.042753,0.0619521
0.0318337,0.00597923
0.0677982,0.00523398
0.132833,0.00716329
0.183022,-0.037198
0.0948246,-0.0311854
-0.0536697,0.0106356
-0.0995664,0.0482621
-0.0140634,0.0127851
0.0733941,-0.0341258
0.0807142,-0.0316563
0.0669185,-0.00905247
0.0590255,-0.000238279
0.0424157,0.0009773
-0.00322477,-0.0185014
-0.0470942,-0.0116708
-0.0879366,0.0265772
-0.102514,0.0369332
0.00663905,0.0139967
0.0894825,-0.00457027
0.0640271,-0.000903244
0.0270658,0.0100131
-0.0307843,0.0171054
-0.0901996,0.0323872
-0.155701,0.00379023
-0.127353,-0.0178902
-0.0548992,0.00145046
0.00340378,0.024054
0.0400549,0.019674
0.0804048,0.000235393
0.0762115,-0.0164573
0.0274916,-0.00858013
-0.000130347,-0.0193252
0.00176532,-0.0280303
-0.013259,-0.0318532
-0.065886,-0.0354137
-0.0254759,-0.0314173
0.0851082,-0.0270086
0.121893,-0.00836825
0.0446567,0.0622562
0.00478993,0.0103052
0.0434145,-0.0242133
0.0459271,0.0142882
-0.011308,0.0221405
-0.0593929,0.0414093
-0.0723757,0.0778792
-0.0379586,0.0517373
-0.0254118,-0.0465332
-0.032579,-0.0245511
-0.00170649,0.0304986
0.0822241,-0.00662353
0.137841,-0.0275062
0.105501,-0.0074654
0.00761977,-0.0264257
-0.0637658,-0.0480871
-0.0745584,-0.0288545
-0.08226,-0.01326
-0.0707142,-0.0172161
-0.0833029,0.0191877
-0.0821875,0.0522256
-0.0111396,0.0435373
0.0578644,-0.00399402
0.0217943,-0.0404376
-0.0124712,0.0406072
-0.0167303,0.0678409
-0.000446885,0.0296949
0.0257398,-0.0218946
0.0661645,-0.0677941
0.107259,-0.0425946
0.0955178,-0.037538
8.17e-05,-0.0287442
-0.103017,-0.00825636
-0.0801548,0.0227289
-0.0306261,0.0323319
0.00431577,0.0387456
0.0262465,0.0274092
0.0358598,0.0169519
0.0963975,-0.0451281
0.0911976,-0.0849601
0.00188811,-0.0243658
-0.0521533,0.0163299
-0.0662412,0.0157553
-0.0443595,0.022868
-0.00889455,0.0249342
0.00550178,-0.00836407
0.0223732,-0.02088
0.0160176,0.00854423
-0.0136273,0.01999
-0.0476936,0.0193986
-0.0316221,-0.0122381
0.004213,-0.0316059
0.00980316,0.0322571
0.0200872,0.088872
0.00662759,0.0299604
-0.0408536,-0.0166136
-0.0861585,-0.0146636
-0.148484,-0.0291526
-0.139104,-0.0314934
-0.036621,-0.0178741
0.071311,0.00301266
0.127473,-0.00809498
0.139382,-0.0450334
0.0588296,-0.0388417
0.0288748,-0.00613709
0.0477205,0.0168492
0.048078,0.0317357
0.00702396,0.0336465
0.014285,0.00208911
0.0793512,-0.00282428
0.0871571,0.0928115
0.0259842,0.0375075
-0.0192304,-0.0286429
-0.0033536,0.040231
-0.0364948,0.0206418
-0.155853,-0.053507
-0.148135,-0.0914727
-0.0210839,-0.0318764
0.0127887,-0.00230171
-0.0797178,0.0221146
-0.0557886,0.0370459
0.0437861,-0.000263498
0.0280502,-0.0309765
-0.0452814,-0.0212282
-0.0566613,-0.0471412
0.0102961,-0.0201483
0.0944022,0.0486936
0.132142,0.0205472
0.113249,-0.0656455
0.0627424,-0.0134052
0.00031824,0.0556771
-0.0551281,0.0327875
-0.0621911,-0.0130542
0.0093087,-0.0178458
0.0699922,0.00544882
0.0486371,0.0326977
0.00166146,0.0152603
-0.0244764,-0.00841376
-0.0386487,0.00833511
-0.0230802,0.0285375
-0.000399458,-0.00153536
-0.0137288,-0.0275213
-0.00666852,-0.0108165
-0.0121076,-0.0143439
-0.0458953,0.0141138
-0.0508442,0.00650844
0.00752795,-0.0312415
0.0107286,0.00332722
-0.013268,4.96e-05
-0.0117425,-0.0162957
0.0173546,0.0254074
0.0907512,0.085409
0.0684101,0.073225
-0.0374619,-0.0334592
-0.0517415,-0.0553951
-0.0392157,-0.0212226
-0.0596089,-0.00690688
-0.0587649,-0.0526203
-0.0567346,-0.047506
-0.0371436,0.0407922
-0.0064347,0.0753219
-0.0164744,0.0467183
0.00714255,0.00852167
0.0570338,-0.0286863
0.0387126,-0.0372402
-0.0018331,-0.0498231
0.0494399,-0.0336834
0.056961,0.0463452
-0.0107753,0.0501066
-0.0285155,0.00301994
-0.00428346,0.00809453
0.000965592,-0.00336206
0.0234643,-0.0223605
-0.0162169,-0.0335735
-0.104612,0.00204596
-0.0985872,0.0374506
-0.0281659,0.0107389
0.0266459,-0.0280102
0.0749401,-0.0481662
0.132346,-0.0475213
0.13304,-0.0204523
0.0757578,-0.00538786
0.0442631,-0.022196
0.0247633,-0.00571031
0.0168485,0.010443
-0.0130932,0.00593111
-0.0424968,0.015955
-0.00624603,0.0424084
0.0561687,0.0423066
0.0766456,0.0303804
-0.00246582,0.0271005
-0.0952602,0.00899649
-0.100973,0.00242871
-0.0476689,0.00318509
-0.0261198,-0.0131577
-0.0339874,0.00357159
0.0128021,0.00230343
0.0398539,-0.0484053
-0.0259711,-0.0245996
-0.121053,-0.012892
-0.101083,-0.000179538
-0.0175425,0.0182111
0.036903,0.0209096
0.083509,0.0125507
0.0435315,-0.0208293
-0.0409815,-0.0101947
-0.058286,0.0413287
-0.0336769,0.0337409
0.0063105,-0.00998882
0.0295457,-0.0228104
0.0410595,-0.0131591
0.0455711,-0.0181857
0.0622346,0.00582236
0.0578345,0.0326692
-0.00765651,0.0171719
-0.0487276,-0.00365265
0.0017957,0.010191
0.0604476,0.00508081
0.0238359,-0.0355727
-0.083768,-0.045164
-0.0913947,-0.044344
-0.0345671,-0.00388341
-0.0137871,0.0279421
0.0560762,-0.00948154
0.108082,-0.0198743
0.0570085,0.0140042
-0.0265501,0.0444358
-0.0724457,0.0190572
-0.100978,-0.00409402
-0.0328333,-0.00658843
0.0561157,-0.00993169
0.0705486,0.0165275
0.0716694,0.047871
0.0764515,0.0264568
0.0301853,-0.0184047
-0.014289,-0.0468869
-0.0191463,-0.0538645
-0.0602233,-0.0232066
-0.112631,0.0566326
-0.0639963,0.0443998
0.0183707,-0.0279011
0.0652561,-0.0163384
0.0615688,-0.0310878
0.00938434,-0.0165068
-0.0180388,0.0181315
-0.0480476,0.0674034
-0.042859,0.0254709
0.0149957,-0.042873
0.0442794,-0.0655207
0.0352317,-0.0434918
0.0124158,-0.000953171
-0.00521686,0.0521665
-0.0274311,0.0480778
-0.0131493,0.0395672
-0.0199086,0.00414779
-0.0925757,-0.0547315
-0.110281,-0.042365
-0.062729,-0.0153244
0.0217608,0.0062789
0.0751914,0.0301157
0.0903268,0.02853
0.067647,0.0128675
0.0572839,-0.0196371
0.0610833,-0.0286426
0.0400531,0.00322809
0.00200442,0.0184895
-0.0265238,0.0156856
-0.0104163,0.0236227
0.0259205,0.0125425
0.0131649,0.010901
-0.0354704,0.0174669
-0.0305171,-0.0111573
0.00815471,-0.0152973
0.0383593,-0.00797681
-0.00162477,-0.00941766
-0.0081031,-0.000444513
-0.0118434,0.0149004
-0.0797225,-0.014902
-0.116702,-0.0379659
-0.0480426,-0.0316659
0.0306763,-0.00953782
0.0621909,0.0337419
0.0480206,0.00795314
-0.0207532,-0.0511883
0.0118079,0.00390851
0.0327611,0.121088
0.0202283,0.0634842
4.51e-05,-0.0508993
-0.0029811,-0.068964
-0.0158895,-0.0478417
-0.0162872,-0.0144665
-0.0192686,-0.0309374
0.00886067,-0.0125888
0.0423685,0.0742887
0.00971176,0.0879734
-0.00686818,0.0156598
0.0156103,-0.0295724
-0.00228224,-0.0244516
-0.0367108,-0.00737249
-0.0757395,0.0162888
-0.116824,-0.00941704
-0.120431,-0.0359658
-0.0916157,-0.0156118
-0.00489254,0.00359301
0.0153341,0.0393405
0.0855763,-0.0111397
0.13503,-0.0425801
0.0991611,0.0100575
0.0760079,-0.00291144
0.077915,-0.00887746
0.085628,0.0111861
0.0163963,0.0545427
-0.0178888,0.0380019
-0.0141328,-0.00573591
-0.0369706,-0.00790428
-0.0117704,-3.09e-05
-0.000261325,0.000807536
-0.0195816,-0.00355002
-0.0223025,-0.00820181
0.048248,-0.0500048
0.0309607,-0.013293
-0.0237979,0.0110507
-0.0391467,-0.0171816
-0.0244535,-0.0101355
-0.0121307,0.00516962
-0.00898677,-0.00178508
-0.00278976,0.00125685
0.00134651,0.00178521
-0.00267411,-0.00967648
-0.0100496,-0.010449
-0.0274209,-0.00317808
-0.0272372,-0.00156118
-0.00415901,-0.0116234
0.0386446,-0.00321652
0.0562629,0.0136026
0.0414898,0.0155304
0.0194462,0.0240861
-0.0134937,0.057741
-0.0492923,0.0510458
-0.0809937,0.0545305
-0.115308,0.084275
-0.0921242,-0.047401
-0.0568966,-0.106685
-0.0645725,-0.0301413
0.00361502,-0.02252
0.0764459,-0.0300888
0.0987957,-0.00848267
0.0908111,0.00431859
0.0678099,-0.0254392
0.0595364,-0.0394247
0.0472758,-0.0166814
-0.00954521,0.0317724
-0.0517489,0.0492338
-0.00657961,0.0242572
0.0560681,-0.00967092
0.0135208,-0.0059027
-0.0531114,0.00842595
-0.0644494,0.0242135
-0.0417646,0.0295068
0.0114698,-0.0361807
0.0341075,-0.0156166
0.0323751,-0.00759976
0.0536875,-0.00952267
0.0537877,0.000466338
-0.0158978,-0.00921034
-0.065286,-0.0105506
-0.062261,-0.00444969
-0.0775738,-0.00699821
-0.0707341,-0.00555074
-0.0482629,0.0445802
-0.00363192,0.0706601
0.00939411,-0.00479233
0.0304391,-0.0271611
0.062059,-0.0130991
0.102385,-0.00325461
0.172984,-0.000261534
0.129904,0.00473542
0.0106214,0.0266529
-0.0535085,-0.00325006
-0.0655033,-0.00551566
-0.0304676,0.00502515
-0.00675134,-0.0124325
-0.0134744,-0.0372875
-0.00179134,-0.0465767
-0.00551256,-0.00640145
-0.0200476,0.0044801
-0.0349715,0.0199391
-0.0281932,0.00519648
-0.0133019,-0.0181711
-0.00668378,-0.0423951
-0.004698,-0.0592944
-0.0187249,0.026512
-0.0469557,0.152667
-0.0481859,0.0623396
-0.0417454,-0.018591
-0.0178541,-0.0246943
-0.0131887,0.00574717
-0.0290928,0.0309987
0.0215963,-0.0224421
0.0495581,-0.0551564
0.0389887,-0.00230748
0.018964,0.0442781
0.00321183,0.0358832
0.0280371,-0.0119701
0.0788727,-0.0239106
0.0941932,-0.0535305
0.0325714,-0.035422
-0.0396583,-0.00876211
-0.111259,-0.0123828
-0.109909,0.00928673
-0.0141212,0.0291645
-0.0142139,0.0246386
-0.0712894,0.00197174
-0.0798476,-0.0185501
-0.028298,-0.0443617
0.0605418,-0.0241481
0.106658,0.0140107
0.117137,0.0389405
0.104871,0.0693222
0.0665594,0.0114812
0.0384336,-0.0356118
-0.0127875,-0.0243908
-0.0263884,-0.0140197
-0.0189154,-0.000249888
0.0026522,0.00240721
0.0522429,-0.0141653
0.0683243,-0.0202691
0.0331347,0.00438108
0.0039472,0.0156658
-0.0537667,0.0015651
-0.103155,-0.0118666
-0.123922,-0.00778453
-0.101096,0.0105932
-0.0278086,0.0170626
0.0460722,0.0459469
-0.0207805,-1.24e-05
-0.11492,-0.0225196
-0.0871651,0.00459634
-0.0689667,0.0754611
-0.0354182,0.0491064
0.0895389,-0.0643953
0.18059,-0.0329764
0.13744,0.00669999
0.07668,0.0124416
0.00373475,3.76e-05
-0.0338802,-0.00956376
0.0167501,0.0248319
0.0822772,0.00561668
0.0610231,-0.0512625
0.000556449,-0.0215991
-0.0249298,0.0188062
-0.0162012,0.0372207
-0.0334059,0.0101967
-0.0374448,-0.0416442
-0.004004,-0.0633574
-0.0105623,-0.0395422
-0.026071,0.00443838
-0.00779577,0.0133854
-0.011396,0.0203518
-0.0522775,0.0220051
-0.0835187,0.00710937
-0.0975609,-0.00449398
-0.0378999,-0.0147801
0.0142671,-0.0196382
-0.00709506,-0.0299742
-0.0699719,-0.0167848
-0.0744417,0.00443707
-0.00637245,0.0526799
0.0877673,0.0613549
0.166022,0.00115701
0.149703,-0.00135792
0.122089,0.00553273
0.083304,-0.0100379
0.0255207,-0.00187566
-0.0209799,-0.0120379
-0.0376743,-0.0131527
-0.0149982,0.0367767
0.0248297,0.0652329
0.0149263,0.0266024
-0.0219405,0.000302433
-0.0959269,-0.0255781
-0.126727,-0.017198
-0.0864455,-0.0117428
-0.0375335,-0.024459
-0.0106324,-0.0210282
0.011734,-0.0171059
0.0237723,-0.0238044
0.0272502,-0.0250634
0.0209651,0.00302687
-0.00789044,0.0208427
0.016369,0.00073275
0.0337774,-0.0180889
0.0255509,-0.00518615
0.0136674,0.0202408
0.00363067,0.011874
0.00350089,-0.00401196
0.00323766,0.00220808
-0.00313777,-0.00706833
-0.0439586,-0.00942556
-0.0718682,0.0290788
-0.0895001,0.0250442
-0.0460265,-0.00764627
0.0667689,-0.0316039
0.125684,-0.0270388
0.109884,0.00695093
0.0595858,0.071221
0.0125667,0.0444866
-0.0442198,-0.0472
-0.0659794,-0.0640291
-0.0318629,-0.0303584
0.0348676,-0.0244545
0.0639589,0.0175565
0.0657386,0.078214
0.0378723,0.0337339
-0.00667,-0.014402
-0.0441207,-0.00896074
-0.0872022,-0.00657463
-0.0989819,-0.0177673
-0.110987,0.00189888
-0.0804598,0.00869118
0.0187862,-0.0145555
0.0779929,-0.0117744
0.0615561,0.0275807
0.039335,-0.00829017
0.0306642,-0.0128443
0.0418182,0.0351343
0.0705569,0.0347147
0.0505687,-0.0143355
-0.0179122,0.0136804
-0.0613045,0.0360923
-0.0591318,-0.00994627
-0.0331894,0.0201141
-0.0563098,0.0238259
-0.0564809,0.00334725
-0.00498296,-0.0354139
-0.00261309,-0.0376998
-0.0114787,-0.0243468
-0.0196898,-0.00878721
-0.0683554,-0.038741
-0.0548119,-0.0529913
-0.0570484,-0.0372882
-0.108026,-0.00795348
0.0195739,0.0163578
0.192302,0.00629635
0.199406,0.000734363
0.140684,-0.00963068
0.111285,0.00520719
0.0821521,0.0232756
0.0499389,0.017578
0.0116886,0.0187642
-0.0203743,0.0197516
-0.0220649,0.00996309
-0.0293571,0.014748
-0.0601072,0.0317937
-0.0564719,0.0251164
-0.0361479,-0.0160018
-0.0324506,-0.0345433
-0.0296308,-0.00501581
-0.0476081,0.016993
-0.0488525,0.00874789
-0.0174796,-0.00484482
0.0147497,-0.0100493
0.0312089,0.0108879
0.0262343,0.0102163
-0.00300182,-0.0305078
-0.0518939,-0.0233646
-0.0456091,0.00219395
-0.0108229,0.0122522
-0.0116074,-0.00405479
-0.031903,-0.0263709
-0.016441,-0.0475608
0.00536253,-0.00857683
-0.0230483,0.0441861
-0.026597,0.0410722
0.0171872,0.0106035
0.0292039,0.014185
0.034823,0.0186171
0.0328747,0.00905337
0.0231906,-0.0123715
0.0282556,-0.0151857
0.0129381,-0.00467818
-0.0433535,-0.0215947
-0.0488608,-0.0164945
-0.0173348,0.00389479
0.0367213,-0.00276534
0.0354508,-0.00124194
0.00468635,-0.00665838
0.0427777,-0.034413
0.0419108,0.00162861
-0.00408891,0.0324706
-0.0153237,0.0539723
-0.0145378,0.0451588
0.00690935,-0.0173557
0.0400629,-0.0274312
0.0475463,-0.00240316
0.0087666,0.024363
-0.00298358,0.0331654
0.0102154,0.0170058
-0.0208531,-0.0210272
-0.0572328,-0.0341009
-0.0318928,-0.0324145
0.0296584,-0.0262317
0.00866711,-0.0452045
-0.0486505,-0.00660743
-0.0376684,0.070265
-0.0399144,0.0299413
-0.0643142,-0.0136789
-0.0212598,-0.0213472
0.0249934,0.00509925
0.0546523,0.0104837
0.0744232,-0.00445625
0.0456483,-0.00591854
0.0124456,-0.00228831
-0.00164994,0.0228443
-0.0448479,0.0441106
-0.0784271,0.00549418
-0.0369663,-0.0463889
0.0142183,-0.0186062
0.0299278,-0.0126737
0.0213052,-0.0259368
0.0100045,-0.0181819
-0.00167505,-0.0122873
-0.00260058,0.00920448
-0.00948865,0.0030505
-0.0191246,-0.0147062
0.0106724,-0.00421969
0.0567533,0.0593895
0.0494751,0.0354043
0.0496267,-0.0188067
0.0814838,-0.0286835
0.0630509,-0.00942184
0.0210319,0.0253188
-0.018594,0.0152736
-0.0722115,-0.0291412
-0.0769843,-0.039603
-0.0297123,-0.0464205
-0.0247628,-0.0217723
-0.0751245,0.0106543
-0.124785,0.0257785
-0.168056,0.0188318
-0.137348,0.0203955
-0.00916815,0.0272049
0.126645,0.0304537
0.154164,0.0401361
0.139064,0.0498917
0.0813347,0.0542152
0.0474709,0.00677166
0.0337101,-0.0437393
0.00687399,-0.0751563
-0.0128061,-0.0517616
0.00673869,-0.0122096
0.0254264,0.0247803
0.00272341,0.0388665
-0.0478207,0.0311147
-0.0653275,-0.000704005
-0.0381636,-0.0363375
0.000536136,-0.0203576
0.0355119,0.0174235
0.0304057,0.0166619
0.00687762,-0.0245754
-0.00697074,-0.0411267
0.000830185,-0.0213356
-0.0206467,0.00015437
-0.0413988,0.00599703
-0.0472553,-0.00841018
-0.0288519,-0.00922369
-0.00570684,0.0131791
0.0272292,0.00692643
0.0483174,0.00404628
0.0462541,0.0185225
0.0596621,0.025426
0.0571351,0.0138792
0.0413546,0.0073284
-0.00961612,-0.0132035
-0.0575274,0.000590757
-0.0847425,0.0056561
-0.0778092,-0.0301371
-0.0707069,-0.0143625
-0.0679358,-0.0117557
-0.0364494,-0.0246131
-0.0336572,-0.0148982
-0.0353035,-0.0178116
0.000602394,-0.022188
0.0332493,-0.00264234
0.0756693,0.024964
0.0824709,0.0423072
0.0620348,0.034423
0.0546258,0.0227759
0.0518537,0.0150296
0.0217282,-0.00414085
-0.0142646,-0.0106072
-0.0203977,0.0319334
-0.019094,0.0576624
0.00896809,0.0107826
0.0217087,-0.0357039
0.0112456,-0.0563925
0.0169005,-0.0389633
0.00901888,0.00607023
-0.022972,0.0454444
-0.0176747,0.0313883
0.00541804,0.00100887
0.0133941,-0.0195465
0.0120769,-0.0314893
0.0192834,-0.0247139
0.0166467,-0.0214824
-0.00859056,-0.0229144
-0.0342745,-0.00517955
-0.0701474,0.0032836
-0.124154,-0.014333
-0.10204,-0.000435167
-0.0805236,-0.0111267
-0.0489388,-0.0158381
-0.00192293,0.0340677
0.0152452,0.0507576
0.00924232,0.0147396
0.027696,-0.014852
0.0713352,-0.0173903
0.123406,-0.00300038
0.130305,0.00984804
0.0921296,0.0245803
0.0685062,0.0302967
0.00983912,0.0260109
-0.058105,-0.00061868
-0.0754322,-0.021824
-0.0445377,-0.00962227
-0.0150019,-0.0160693
0.0253958,-0.0293698
0.0224023,-0.0018206
-0.0052683,0.0140971
-0.00654687,-0.00399816
0.0174878,0.0175461
0.0226897,0.0501482
-0.00320979,0.0386189
-0.0137129,-0.0197717
-0.0165447,-0.0367566
-0.0335365,-0.0308147
-0.032075,-0.0196434
-0.021114,-0.00881862
-0.0311774,-0.00260372
-0.0468,0.00497142
-0.0349448,-0.000669015
-0.0229516,-0.0128941
0.015792,-0.00684975
0.030453,0.0194952
0.0256172,0.0261267
0.0397513,0.0111102
0.0607085,0.000798645
0.0387534,-0.0179577
-0.00450018,-0.0286608
-0.0286286,-0.0364047
-0.0136304,-0.0181547
0.00472897,0.0159273
-0.00681717,0.0245511
-0.0123707,0.0208589
-0.0101131,0.0143254
-0.0133114,0.00534683
0.00683656,-0.00269037
0.014123,-0.00600518
0.00813707,-0.00750042
0.0516826,-0.0187295
0.052067,0.00956477
-0.0217973,0.0341385
-0.0783795,-0.00880325
-0.0334695,0.00337228
-0.00444538,0.034706
-0.0424554,0.0283078
-0.049692,0.00515933
0.0377111,-0.00969471
0.0677864,-0.0181768
0.00228232,-0.0140146
-0.0352117,-0.00185058
-0.0138692,0.00545105
0.0336333,-0.00782556
0.0498829,-0.0257992
0.0191156,-0.0156069
-0.0236145,-0.0120551
-0.00708903,-0.00279005
0.0375591,0.00210347
0.0609488,-0.00764509
0.0405822,-0.00917597
0.00440123,0.0034452
-0.0234285,0.00432116
-0.0640023,-0.00758494
-0.105418,-0.00145933
-0.121328,0.0611463
-0.0961862,0.0839991
0.00596857,-0.0245478
0.0687197,-0.010135
0.0441011,0.0209975
0.00474584,-0.00845983
-0.0203987,-0.0700398
0.0125629,-0.0687973
0.0691047,-0.0192384
0.0824334,0.0185375
0.0505516,0.00901044
0.0299936,-0.0136999
0.0283666,-0.000791275
-0.00421126,0.0161144
-0.0428639,0.00614827
-0.0448088,-0.0155757
-0.0222755,-0.00540366
0.00735307,0.012168
0.0304888,0.020353
0.0776983,0.0300944
0.075906,0.036271
0.0342379,0.0170702
-0.0230889,-0.0246927
-0.0579454,-0.0236489
-0.0488235,0.00398493
-0.0388615,0.00317892
-0.0116874,0.00450745
0.00484268,0.0134846
-0.00913736,-0.00908139
-0.0319552,-0.0301959
-0.0531066,0.00208351
-0.0735738,0.00912931
-0.0704331,-0.0261404
-0.0267755,-0.0129815
0.0156283,0.032499
0.0535266,0.0413565
0.0741688,0.00911645
0.0473404,-0.0062407
0.0204758,-0.0277612
0.014631,-0.0472277
-0.0197484,-0.00989776
0.00890703,0.0345298
0.0630512,0.0409742
0.0612732,0.0134745
0.0448159,0.00299722
0.0245447,-0.00492653
-0.0224241,-0.0118762
-0.0427308,-0.0150737
-0.0393279,-0.0178559
-0.0510242,-0.0183444
-0.0724421,-0.00539805
-0.0833265,0.0143762
-0.081428,0.0194561
-0.0493218,0.0119389
0.0292247,-0.0184286
0.0656548,-0.0210107
0.0122275,0.0163559
-0.0509308,0.031218
-0.0541975,0.0175551
-0.00864201,0.0591659
0.0651492,0.0262411
0.122072,-0.00424903
0.105763,-0.00427068
0.0469688,-0.0216701
0.00696192,-0.0607675
-0.0170114,-0.0857446
-0.00997689,-0.0508187
0.019767,-0.0188562
0.00673184,-0.00273942
-0.0267037,0.0105948
-0.030368,0.0159626
-0.0209301,0.0204026
-0.0127566,0.0187213
-0.0288316,0.0126736
-0.0188549,-0.00191429
0.00335857,-0.00510862
0.042735,0.00992542
0.0415239,0.00657116
0.011179,0.00580412
0.00911573,0.00626552
-0.0100786,0.0204678
-0.0358113,0.0458192
-0.0193429,0.0499361
0.0242474,0.0086931
0.0361025,-0.0295631
0.0383111,-0.0280689
0.00677224,-0.0169604
-0.0204036,-0.0163529
-0.0273162,-0.00799073
-0.021328,0.0117309
-0.00364237,0.00977206
0.00198915,-0.0152078
0.0212947,-0.0210916
0.0354113,-0.022711
-0.00743905,-0.0149008
-0.0756653,0.0163805
-0.0838789,0.0381766
-0.0539798,0.029551
-0.0479106,-0.00414302
-0.0332849,-0.0369077
0.0230204,-0.0306172
0.0267702,-0.0108732
0.0400006,-0.00868169
0.0432379,-0.00496776
0.0525543,0.00856993
0.0568721,0.017462
0.0330894,0.0181079
0.0156087,0.0188144
-0.000639788,0.0141007
0.0085693,0.010922
0.0264298,0.00633104
-0.00661995,-0.0112954
-0.0297611,-0.00906816
-0.0102415,-0.0165208
0.00612231,-0.0236289
-0.0153043,-0.014979
-0.0465005,0.00729532
-0.0319639,0.0372294
0.00459507,0.0415786
0.0274941,0.00263063
-0.0144753,0.00738847
-0.0326195,0.00966331
-0.0103125,-0.0342853
0.00854665,-0.0599402
0.00409944,-0.00912113
-0.0430668,0.01883
-0.0487304,0.00387329
-0.050669,0.0175656
-0.0241307,0.0150104
0.016168,-0.00289982
0.0443177,-0.0152983
0.052886,-0.00298098
0.0781159,0.0176482
0.0960168,0.0284155
0.057365,0.0214983
0.0226097,0.00331379
0.0171779,-0.0103033
0.000370994,-0.0174097
-0.034787,-0.0211275
-0.0731725,-0.0142131
-0.0928057,-0.0246616
-0.0736283,-0.0435548
0.00971627,-0.0429789
0.0606287,-0.011952
0.0329694,0.0269388
0.000159884,0.0442601
-0.0353192,0.0144842
-0.0382099,-0.00739781
-0.0183192,-0.0167116
0.00195638,-0.000709068
0.0112036,0.0214198
0.0229814,0.0546493
0.0393388,0.0932981
0.0479993,0.0511758
0.0184081,-0.0186136
0.000892494,-0.0421345
0.0255483,-0.0240252
0.00976338,-0.031653
-0.0614688,-0.0321782
-0.0778932,-0.0306285
-0.0501089,-0.0322071
-0.0140571,-0.0339945
-0.00626116,-0.0351901
-0.0436753,-0.0035682
-0.0255024,0.0408084
0.0151322,0.0829717
0.0666089,0.0631466
0.105832,-0.00367847
0.120779,-0.0460659
0.0663968,-0.0274193
-0.0167557,-0.0058725
-0.0614523,0.000687156
-0.0825349,0.00503467
-0.0431641,0.00747174
0.0139304,0.00146181
0.0152283,0.00974482
-0.0361614,0.0198353
-0.0500336,0.00730359
-0.0120105,-0.00887052
-0.00104224,-0.0202471
-0.0187745,-0.034099
-0.0193292,-0.0120582
-0.00787693,0.0406159
0.0237963,0.0231112
0.0539742,-0.0125802
0.071045,-0.0121154
0.0763583,-0.00488932
0.0598365,-0.0141758
-0.00454844,-0.00972079
-0.0707822,0.00724717
-0.0884742,-0.00615929
-0.073387,-0.0148549
-0.00720314,0.0239531
0.0553886,0.0141074
0.090247,-0.00913582
0.0994944,0.0150282
0.0444957,0.0217722
-0.0164318,-0.017357
-0.068321,0.0166696
-0.0810559,0.10973
-0.0416413,0.0607737
-0.0342939,-0.0497798
-0.0309718,-0.0222483
-0.0122875,-0.0328364
-0.0258668,-0.050959
-0.0374029,-0.0209084
-0.00615065,-0.0071254
0.0486373,-0.00693266
0.0564801,-0.0128422
0.0246238,-0.0096468
0.00737835,-0.00621817
-0.042577,0.0101747
-0.0804117,-0.00435111
-0.0469241,-0.0163913
0.0316977,-0.021224
0.0614807,-0.0217308
0.0739102,-0.00955352
0.0836565,0.0135768
0.0477176,0.0316129
0.0363843,0.00793895
0.0219031,0.00529771
-0.0147237,0.0187198
-0.0472245,0.0131193
-0.052976,0.0050909
-0.0293755,0.00162526
0.00571176,0.00208864
0.034014,-0.00708129
0.00802729,-0.0202348
-0.0523867,-0.0298176
-0.0670043,-0.0106503
-0.0439873,0.024754
-0.0106332,0.0107825
0.0243046,-0.000974617
0.0352761,0.0317842
0.0316972,0.0445373
0.0224022,0.0176983
0.0271199,-0.00734656
0.00391497,-0.0284521
-0.0241871,-0.0346498
-0.0357464,-0.0242866
-0.0437407,0.00621178
-0.0340179,0.018378
0.024394,0.00383381
0.0410553,-0.00362905
0.0146459,-0.00129674
0.0124501,-0.0145705
0.0146257,-0.027008
-0.00444447,-0.0194581
-0.0371513,-0.0154457
-0.0231029,-0.000320176
0.00802622,0.0274522
0.0436164,0.0344782
0.0570016,0.0251637
0.0104673,0.0143702
-0.0365713,0.0131204
-0.0258195,0.015071
-0.0160773,0.011223
-0.0218213,-0.00961537
-0.0286319,-0.00160373
-0.0225235,0.0274291
0.0205455,0.00424074
0.0112408,-0.0269649
-0.0453957,-0.0129259
-0.0557263,0.015243
-0.00212866,0.00861418
0.041421,-0.0273405
0.044182,-0.0339853
0.0205047,-0.0035718
0.0146549,0.0156292
0.0380754,0.0453815
0.0426478,0.0544861
0.0317937,-0.00275129
0.0200663,-0.0653664
-0.0132843,-0.0467948
-0.0383429,-0.0177216
-0.014192,-0.0308384
0.0143707,-0.011377
0.011238,0.0293311
-0.003511,0.0353756
0.00117175,-0.0257212
-0.00194449,-0.0518619
-0.0211286,-0.0330251
-0.0156357,0.0306792
0.00557888,0.0919429
-0.00980147,0.0418893
-0.0361908,-0.0180937
-0.033785,-0.036583
-0.00796548,-0.0504491
-0.0182763,-0.034226
-0.0607679,-0.00685444
-0.0317756,0.00617212
0.0279214,0.0164631
0.0519783,0.0183943
0.0280593,0.000186888
0.0158747,-0.0152792
0.0587982,-0.00369721
0.058667,0.0143871
0.0219609,0.025259
-0.010092,0.0186771
-0.0173911,0.0157297
-0.0171298,0.0161205
-0.00947479,0.00511363
-0.00277921,0.00505707
-0.0114315,0.00422496
-0.0100041,-0.00332598
-0.00954227,-0.010034
-0.0284221,-0.0106507
-0.0351831,-0.00810686
-0.0354742,0.0138366
-0.0685216,0.0325232
-0.0420317,0.0220559
0.0141697,0.000209545
0.0710243,-0.0143948
0.0565587,-0.0121635
0.0421926,-0.0280367
0.0584342,-0.0417837
0.0820049,-0.0269835
0.0653076,0.00789645
0.0175428,0.0142014
0.0138587,-0.00461835
-0.0217285,-0.0122673
-0.0631683,-0.0158767
-0.0720807,-0.0109496
-0.0671384,0.00808726
-0.0655221,0.0307222
-0.0482995,0.0397417
-0.025262,0.0289368
0.0209503,-0.0202898
0.0398228,-0.0302111
0.0268562,0.046507
0.028755,0.0655593
-0.0119663,0.0462291
-0.0349268,0.0257623
-0.0274396,-0.0450013
-0.00462322,-0.078828
0.036641,-0.0616449
0.06058,-0.035864
0.0531298,-0.0150759
0.043492,-0.00499018
0.0348387,0.00850607
0.021043,0.00931986
0.023195,0.00348927
0.0401231,0.0306385
0.0338471,0.0282082
0.00650665,-0.0129055
-0.0123665,-0.0222651
-0.0286029,-0.0347775
-0.0696276,-0.0394356
-0.113045,-0.017609
-0.122404,0.0292854
-0.0748357,0.055475
-0.0253868,0.0813438
0.00348284,0.0919126
0.0357392,-0.00652537
0.0599334,-0.0785116
0.0419867,-0.0493996
0.0225691,-0.023794
0.0156748,-0.0125243
0.00432508,0.0165797
-0.00845874,0.0212741
-0.0158453,0.00787065
-0.00872739,0.00624773
0.00822691,-0.000694235
0.0185191,-0.0158664
0.0156398,-0.0291192
0.0102084,-0.0297395
0.00776361,-0.000501793
0.011472,0.0210672
0.0100351,0.0139281
0.00803973,0.00528546
-0.00812006,-0.00515766
-0.0338887,-0.00553766
-0.0492094,0.00596969
-0.0284184,0.00832853
-0.00971561,0.00637548
-0.00788905,0.0179339
0.0163187,0.0262822
0.040443,0.00589399
0.0603503,-0.00420431
0.036146,-0.00961922
0.00802085,-0.0189612
-0.0135013,-0.0236194
-0.0259432,-0.0155165
0.0162923,0.00381226
0.0577886,0.0105061
0.0534516,0.00747372
0.032344,0.0105706
0.00661272,0.0199406
-0.0241351,0.0233246
-0.0484358,0.011392
-0.0542574,-0.0154656
-0.0531558,-0.023484
-0.0330437,-0.00886499
-0.0275068,-0.00320634
-0.0250471,-0.0116033
-0.0016534,-0.0197279
0.0204758,-0.0169076
0.00392341,0.0103354
-0.0416055,0.00383263
-0.0519836,-0.0189766
-0.0403644,-0.00913441
-0.0246865,0.0143116
-0.0118959,0.0192818
-0.024147,0.0046057
-0.0117419,0.0147348
0.0184442,0.0132247
0.0717931,-0.0136141
0.0590899,-0.03688
-0.0335691,-0.00907969
-0.0344925,0.0639074
0.0625483,0.0667488
0.113062,-0.0107455
0.106754,-0.0209071
0.0646717,-0.0300473
0.021427,-0.0755283
-0.00229939,-0.0568833
-0.0215733,0.0125637
-0.039917,0.0510868
-0.0314589,0.0107664
-0.00440277,-0.00409729
0.00970942,0.00439438
0.00656636,0.00475408
-0.00218795,0.0105617
0.000956813,0.0132333
0.002551,0.0257109
0.0194815,0.0180376
0.0224015,0.0013223
-0.0485535,-0.00382063
-0.110551,-0.00394168
-0.0941339,0.0210872
-0.0514259,0.011754
-0.0368681,-0.011066
-0.00835683,0.013367
0.0504222,0.0188659
0.0615451,-0.0268677
0.0460516,-0.0427845
0.0486505,-0.0309573
0.0342547,-0.0191784
0.00452014,-0.0114056
-0.0101545,-0.00646322
-0.0113381,0.00420959
-0.000236763,0.0060329
0.0145675,0.00291643
0.0236924,0.00774544
0.0163217,0.019988
-0.0203417,0.0157661
-0.0591931,0.00360026
-0.0382562,-0.0165425
0.00766945,-0.0230974
0.000911092,-0.00408596
-0.0145217,0.0162983
0.00236372,0.0201363
0.040927,0.0149011
0.0525534,0.00877792
0.0314761,-0.00906215
-0.00118577,-0.0135646
-0.019637,-0.00592526
-0.0250807,0.000849589
-0.0066308,0.00780568
0.0155468,0.0128566
0.0220211,0.00810404
0.0128481,-0.00265766
0.00144138,-0.00615264
-0.0145254,-0.0075524
-0.0280945,-0.00985528
-0.0377707,-0.0153303
-0.0374048,-0.0232953
-0.040587,-0.0221541
-0.0599666,-0.00880019
-0.0620245,0.0161623
-0.0173105,0.0209067
0.038978,0.00401687
0.0630306,0.00553955
0.0565862,0.011261
0.0318232,-0.014827
0.0254449,-0.00638358
0.027255,0.0568429
0.0242616,0.0542453
0.0126777,-0.0121327
0.00822478,-0.0235657
-0.00493331,0.000481736
-0.0187615,-0.00688815
-0.0291246,-0.0327083
-0.0266603,-0.0265417
-0.0106172,0.000277798
0.00145397,0.00224408
0.00485431,-0.014186
0.000552402,-0.0143403
0.00647007,-0.00639518
0.0119895,-0.00261512
-0.00249061,0.0098516
-0.0380574,0.020963
-0.0438889,0.0338601
-0.0554679,0.03181
-0.0113259,0.0289668
0.022398,0.0232116
0.0506175,-0.0192517
0.0577665,-0.0464702
0.00517662,-0.0289718
-0.0726517,0.0162073
-0.068433,0.0261913
-0.0157247,0.0288204
0.0263063,0.0290584
0.0709138,-0.0371467
0.0837067,-0.0584312
0.0647266,-0.045514
0.0398017,-0.0160935
0.0286353,0.00265341
0.0288396,0.0137634
0.0361601,0.0287474
0.0228595,0.0266249
-0.00860248,0.00888552
-0.0394088,-0.00263752
-0.0607663,-0.00980349
-0.0689949,-0.0155332
-0.0566933,-0.0145211
-0.0229752,-0.00186513
0.0140411,0.00876699
0.0223756,0.0182096
0.0219341,0.0150933
0.00209689,0.00312661
-0.0357273,-0.00643554
-0.0512871,-0.0137239
-0.0415001,-0.00810189
-0.0248716,-0.00201968
0.0154162,0.00556141
0.0605224,0.00704553
0.0634688,0.00394361
0.0324741,-0.00039107
0.00510945,-0.0057064
-0.0133573,-0.0153796
-0.0325174,-0.00745096
-0.0473467,-0.00446895
-0.0254579,-0.0114936
0.0021277,-0.00488018
-0.00325088,-0.00187831
-0.0208169,-0.000814158
-0.0329224,-0.00809357
-0.0229958,-0.0152338
-0.00218395,-0.0132181
0.0165253,0.0342734
0.0235103,0.0586705
0.0459949,0.0213519
0.0659169,0.000946011
0.054678,-0.00195743
0.0221763,0.00331307
-0.00442874,0.0100053
-0.0167203,-0.0117415
-0.0320639,-0.0319251
-0.0427822,-0.0132616
-0.015748,0.00202807
-0.000643455,0.0105848
0.00777933,0.0321817
0.0203208,0.0178167
0.0117253,-0.0116843
-0.00599563,-0.0212976
-0.0314002,-0.0215783
-0.0552642,-0.0150038
-0.0429733,-0.00634004
0.00170416,-0.00192979
0.0419511,0.00713386
0.052435,0.0111782
0.046073,0.0058033
0.0304576,0.0023476
0.000898235,0.00159738
-0.0395692,0.0185686
-0.0435624,0.0284004
-0.0248911,0.0233051
-0.024527,0.00908195
-0.0239709,-0.0055316
0.00969299,-0.0168852
0.0405305,-0.0237147
0.0107228,-0.0414449
-0.00784788,-0.0431974
0.0124194,-0.018305
0.0282519,0.0334045
0.0319747,0.0601826
0.0121387,0.012373
-0.00074694,-0.0107827
0.0129043,-0.0134725
0.0229679,-0.0105361
0.0193371,-0.00857392
0.00105827,-0.0123257
-0.0069663,0.00155829
-0.0105539,0.0178724
-0.018784,0.0184824
-0.00904177,-0.00479629
-0.0058704,0.00273256
-0.00874482,0.00871578
-0.00792888,-0.0175004
-0.0118023,-0.021008
-0.0187676,-0.0192097
-0.0026026,-0.00253355
0.0196071,0.0149802
0.0138754,0.00741076
0.00883094,-0.00523707
0.00302543,-0.0107594
-0.0132866,-0.0139315
-0.0330724,-0.0165225
-0.0420383,-0.00278925
-0.0456434,0.0280525
-0.0782898,0.0190117
-0.0870039,-0.00572841
-0.0302892,0.00351655
0.0159528,0.0181888
0.0740552,0.00762499
0.120988,-0.0129026
0.132251,-0.0130615
0.103978,-0.00678853
0.054245,0.00435831
0.00659424,0.0102833
-0.0268038,0.0087771
-0.0316256,-0.00331027
-0.0280471,-0.0082745
-0.0245495,-0.00792464
-0.0359473,-0.00859831
-0.0412298,0.00385764
-0.0178041,0.016644
-0.0121733,0.013057
0.00677028,0.0236452
0.026757,0.0382819
0.0137493,0.0226114
0.00298956,0.000341352
-9.69e-05,-0.00354726
-0.00149254,-0.00547018
0.00153325,-0.00385742
0.00859537,0.0104507
0.00113142,0.00567324
-0.0133449,-0.0224358
-0.0307282,-0.0435778
-0.0498183,-0.0509563
-0.0585054,-0.0457126
-0.0519968,-0.033507
-0.0291186,-0.0150228
2.64e-05,-0.00154718
0.0175151,0.00800439
0.0289712,0.00649812
0.0377382,0.0055234
0.0333495,0.00928802
0.0134374,0.0132506
-0.00173239,0.0156914
-0.016241,0.0117051
-0.0236973,0.0111916
-0.0275198,0.0168042
-0.0250782,0.0189756
-0.0147271,0.0204312
0.00162788,0.0237931
0.0149076,0.0285687
0.0182176,-0.00769592
0.00182337,-0.0496161
0.0252968,-0.0444437
0.0488011,0.00883835
0.0376577,0.0247213
0.0268296,-0.0170577
0.0113206,-0.00779927
-0.0067275,0.00762307
-0.0157366,-0.00156545
-0.0233227,-0.00552578
-0.0139542,0.00248374
0.0149694,0.0221685
0.0286729,0.0314051
0.017805,0.0258055
0.00981036,0.0145936
-0.000536167,-0.00272669
-0.00807466,-0.023153
-0.00808654,-0.0350113
-0.00628787,-0.00129799
0.010997,0.0359052
0.0243259,0.0180103
0.0176438,-0.0080249
0.00198789,-0.0123081
-0.0127342,-0.0119916
-0.0239098,-0.012723
-0.0248974,-0.00698993
-0.0251325,-0.00400056
-0.0136838,-0.00289463
0.00854797,0.00271702
0.0242963,0.000547161
0.0171463,-0.00358815
0.0013961,-0.00131072
-0.00552765,-0.00429914
-0.00481159,-0.00924259
0.00796163,-0.0118763
0.0268735,-0.00349431
0.0150928,0.00438958
