Comp Ch 3,Comp Ch 4
-0.00771603,-0.0121582
-0.00918067,-0.0086982
-0.00610909,0.00465167
0.00233796,0.0110662
0.0352648,0.000532088
0.0710812,0.0032636
0.0734266,0.0314549
0.0466173,0.0330767
0.0209289,-0.0227758
-0.0293575,-0.019607
-0.0780595,0.00656528
-0.0938354,-0.0115254
-0.0657631,-0.0183398
-0.00986256,-0.00845036
0.060061,0.000333842
0.111807,0.00355571
0.0893246,-0.000741181
0.031874,-0.0226682
-0.0232088,-0.0420453
-0.063796,-0.0268657
-0.0824449,0.00144409
-0.067198,0.0227412
-0.0365417,0.0363531
-0.0121724,0.0272602
-0.000271719,0.0303567
0.0222841,0.0408449
0.0352795,0.0434007
0.0308274,0.000355571
0.0244313,-0.0330454
0.0177938,-0.00527331
0.00765065,-0.00372257
0.00475795,-0.0205393
-0.0106415,-0.0239496
-0.0323433,-0.0328796
-0.0316707,-0.0320298
-0.00498454,-0.0114144
0.0203996,-0.00325414
0.0320015,0.00260244
0.044732,0.0258218
0.0401574,0.0307816
0.00889094,0.0179794
-0.0188626,0.0132122
-0.0274663,-0.00877855
-0.0283971,-0.0178824
-0.0319896,-0.0258794
-0.0120315,-0.0221453
0.016772,-0.00139563
0.0153025,0.0102883
-0.0010356,0.0093756
-0.00390614,0.0128354
0.00434533,0.00469617
-0.00629866,-0.0109589
-0.00788215,-0.00958831
-0.00517535,-0.00722294
-0.00840702,0.0201037
-0.0099138,0.0474361
-0.00644894,0.0202709
0.00541433,-0.0172278
0.0123995,-0.0112539
0.00678031,-0.016692
-0.00654913,-0.0250787
-0.0198347,-0.0186388
-0.0034911,0.0117883
0.0196127,0.0241086
0.0273998,0.0045465
0.0383702,-0.00381221
0.0188503,-0.000923585
-0.0155058,0.00377572
-0.0351888,-0.0081524
-0.0396385,-0.0130508
-0.0468448,0.00146303
-0.025266,0.0333008
0.0203358,0.0135009
0.0437852,-0.00256548
0.0388701,0.0178684
0.0359694,0.0113116
0.0525091,-0.00243627
0.0555443,-0.0245518
0.0321075,-0.0358248
0.0174613,-0.0095527
-0.00451906,0.00753929
-0.0515665,0.00499044
-0.074476,-0.00662401
-0.0757841,-0.00682084
-0.0812048,0.00391287
-0.0692369,0.00603599
-0.043429,0.00351957
-0.0214765,-0.00466317
0.0328121,0.0049957
0.0725956,0.0086333
0.0659238,0.00636518
0.048679,0.0198934
0.0347135,0.00819122
0.00771217,-0.0176974
-0.0221477,-0.0217732
-0.0152946,-0.00980554
0.00853462,0.00981667
0.00191839,0.0152986
-0.0227072,0.00922139
-0.0265448,-0.00978287
0.00496241,-0.0204443
0.0306021,-0.0100017
0.0356816,0.00123875
0.0291816,-0.00838369
0.0158341,-0.0114486
0.0329342,0.00432384
0.0522605,0.0165341
0.0333586,0.0102209
0.00772718,-0.000530393
-0.0244578,-0.00600261
-0.0690931,-0.0135517
-0.110487,-0.0173634
-0.100531,0.0052437
-0.0481368,0.0768136
-0.0112349,0.0555591
0.00441557,-0.0477271
0.00541358,-0.0467727
-0.00866273,-0.00558183
-0.0215746,-0.0104227
0.00300364,-0.0110578
0.0285555,0.00757893
0.0628781,0.0277528
0.122044,0.0333731
0.122762,0.0862155
0.0771338,0.0539445
0.0254378,-0.0591375
-0.0377138,-0.0610632
-0.0846201,-0.0487588
-0.0986161,-0.0287188
-0.0714947,-0.00684379
-0.0407923,-0.0138458
-0.021546,-0.0223663
-0.00644161,-0.00930208
-0.00334367,-0.0169823
-0.0137984,-0.0403646
-0.0217833,-0.0300522
-0.0180176,0.000487203
-0.00615453,0.0270558
0.0222956,0.0516867
0.0459449,0.0491846
0.0476598,0.0426569
0.0538349,0.0398016
0.0586954,0.0210754
0.0392656,0.000414975
0.00939474,-0.0155567
-2.98e-05,-0.0179845
0.00193056,-0.0106516
-0.00271638,0.000383848
-0.0172973,0.00729953
-0.0366312,0.004336
-0.0491447,-0.006818
-0.0533292,-0.0177031
-0.0455793,-0.0190754
-0.0264624,-0.011108
0.0103872,0.00253984
0.0497763,0.0189071
0.0573891,0.00908468
0.0346146,-0.0108584
0.0108186,-0.00478479
0.00319643,-0.0102406
0.00046933,-0.0114091
-0.00953565,0.0232429
0.00465796,0.0287953
0.0256347,-0.0137151
0.0219333,-0.0564855
0.00905163,-0.0488559
-0.00947249,-0.035288
-0.0213415,0.00448317
-0.0191653,0.0637597
-0.0138059,0.0345289
-0.0212075,0.00460259
-0.0203596,-0.0121862
-0.00371898,-0.0152294
-0.0168483,-0.00927678
-0.0341368,-0.00537734
-0.018184,0.00709251
-0.0138037,0.0145137
-0.0267233,0.0290396
-0.0212115,0.0397739
0.0193156,0.0283273
0.0504556,0.0145823
0.0508462,0.00589741
0.0652897,-0.000624818
0.0674503,-0.0148403
0.0314327,-0.027972
-0.0109588,-0.0287791
-0.0394948,0.0055011
-0.0488589,-0.00118036
-0.0103205,-0.0242319
0.0249191,0.012976
0.014796,0.0449963
-0.0019631,0.00466118
-0.0106326,-0.0315595
-0.0146646,-0.030403
-0.0184824,-0.014824
-0.0185414,0.0046217
-0.0114809,-0.00306767
-0.014761,-0.0336266
-0.0393429,-0.0327551
-0.0583875,0.0331032
-0.0577834,0.0349822
-0.0403143,-0.0098603
-0.0161651,-0.00287121
0.00392679,0.0201779
0.0166992,0.0218466
0.0489541,-0.00143909
0.0755461,-0.0105592
0.076574,0.000266002
0.0533567,0.0296213
0.0265676,0.0112882
-0.00783077,-0.0213602
-0.0233934,-0.0298798
0.0105883,-0.0120404
0.0399978,0.0111586
0.0297093,0.0225209
0.0019997,0.0282413
-0.0277114,0.0210242
-0.0674176,-0.0108017
-0.0893231,-0.0456967
-0.0513778,-0.0452734
-0.0122624,-0.0135927
0.0077854,0.00659771
0.0323387,0.00630598
0.0448332,0.00935247
0.0360018,0.0229442
0.0266632,0.0268971
0.0110742,0.00359763
-0.0165136,-0.0331005
-0.0407681,-0.0482556
-0.0340795,-0.0358137
-0.00914895,-0.0120286
0.0370734,0.00725706
0.0918826,0.0291983
0.0901458,0.037579
0.0599426,0.0266451
0.00290483,0.0190265
-0.0496429,0.00998402
-0.0634486,0.0105766
-0.0271774,0.0205444
0.0181011,0.0176284
0.0275654,0.00150044
0.00702235,0.00179615
-0.0218175,0.00238806
-0.0596124,-0.00572193
-0.0957535,-0.0169514
-0.104226,-0.0214443
-0.0657804,0.00916519
-0.0202043,0.00601558
-0.00141101,-0.0156743
0.0055708,0.00675013
0.0116475,0.00517407
0.0238298,-0.0438981
0.0404086,-0.0396298
0.0670505,-0.0106569
0.0878068,-0.0129946
0.0907778,-0.00694137
0.058544,0.00623914
-0.00531846,0.0242919
-0.0309077,0.0378558
-0.028426,0.0275974
-0.0367938,0.0121598
-0.0338252,-0.018725
-0.00636626,-0.0186189
0.0288205,0.0119706
0.0208561,0.0140788
-0.0055633,-0.0135148
-0.0204194,-0.015918
-0.0322757,-0.00392087
-0.0255599,-0.0191842
-0.00607728,-0.00335226
0.00225478,0.0147207
0.0140478,-0.00277417
0.0153834,0.00308764
-0.00548849,0.0055825
-0.0233082,0.00369121
-0.0137505,0.00635971
-0.00732277,0.00817614
-0.0143412,0.00125887
-0.0235564,-0.0062276
-0.00463263,-0.00172316
0.0333162,0.00482463
0.0707067,-0.000967346
0.079633,-0.0211826
0.0436545,-0.0436691
0.00398557,-0.0570462
-0.0317033,-0.029239
-0.0578181,0.0733097
-0.0616662,0.0671007
-0.0346635,0.00573638
0.00190387,0.0138683
0.0227241,0.0519184
0.0286323,0.00477311
0.0277378,0.00877174
0.0195611,-0.0126618
0.000566866,-0.00743176
-0.0195113,0.0070905
-0.013975,-0.0168519
-0.0148728,-0.012615
-0.0258969,0.000829577
-0.0183888,-0.0207685
-0.0239176,-0.0240231
-0.030365,-0.0206128
-0.0231333,-0.0216748
-0.00686655,-0.00816239
0.00601406,-0.0130442
0.0331645,-0.00782886
0.0509417,0.0243438
0.0396421,0.0520069
0.0233924,0.0651698
0.0272963,0.0136325
0.0177482,-0.00620087
0.00173854,-0.0287167
-0.00972722,-0.0347755
-0.0115175,-0.0163513
-0.0189198,-0.00278453
-0.0201236,0.00606192
-0.020061,0.00883969
-0.0280883,-0.00135265
-0.0239647,-0.0130314
-0.0127491,-0.0159569
-0.000475592,-0.0136528
0.0212476,-0.00149877
0.0397544,0.0155359
0.0391066,0.00895505
0.0278515,-0.00968849
0.0306626,-0.0092387
0.018066,-0.00204481
-0.00764046,-0.00222548
-0.021706,-0.00564917
-0.0178581,0.00649691
-0.0155215,0.0175388
-0.030396,0.00948422
-0.022428,-0.0113856
0.00327667,-0.0160003
0.0248239,-0.00413178
0.0196434,0.00880034
-0.0176264,0.00594796
-0.0153646,-0.0212412
-0.00786095,0.00874665
-0.0210614,0.0544705
-0.0130272,0.0498457
0.0173069,0.0398045
0.0706676,0.00531875
0.0709446,-0.0411327
0.0431634,-0.027373
0.00186822,-0.00310177
-0.0505872,0.00608661
-0.0572256,0.0235907
-0.0491156,0.020652
-0.0668542,0.0202935
-0.0637896,-0.0105129
-0.012354,-0.0692668
-0.00192822,-0.0602578
-0.0172854,0.00184514
-0.00725619,0.0233063
0.0141842,-0.00624144
0.019496,-0.031801
0.00236344,-0.0119078
0.0128875,0.00614595
0.0322968,-0.000476755
0.0167205,-0.00321196
-0.000520296,-0.00268406
0.0155873,-0.00283477
0.0240454,0.00465015
0.0275001,0.0116194
0.0459495,0.0209008
0.0386179,0.0525706
0.00735443,0.035419
-0.0165725,-0.0298606
-0.0263403,-0.0377999
-0.0167936,-0.0150827
-0.00711017,0.0531636
0.00768831,0.0606204
0.0195046,-0.0415799
0.00677628,-0.0329852
-0.0157398,-0.0329297
-0.0286023,-0.0375912
-0.0196588,-0.00725157
-0.00901344,-0.00332518
-0.00671216,0.00783857
-0.00743974,0.0444196
-0.0237703,0.0147184
0.00271333,-0.0298679
0.0243056,-0.0246106
-0.0151068,-0.0280926
-0.0309077,-0.0198814
-0.0242333,0.0211971
-0.011539,0.0339058
-2.24e-05,0.0755597
0.0218706,0.0888927
0.0297424,-0.0174556
0.0258728,-0.059892
0.0320217,-0.0280214
0.0243255,-0.00265551
-0.000628556,0.00443197
-0.0176284,0.018703
0.0109021,0.00911815
0.0275596,-0.00746604
0.00449558,-0.00963526
-0.00030839,-0.00653603
-0.00265309,-0.00392232
-0.00455162,-0.00407076
-0.00311559,-0.0100886
-0.00574422,-0.0108676
-0.0117058,-0.0112483
0.0151422,-0.00619928
0.0219373,0.0039814
-0.0166606,0.0119605
-0.0367626,0.0120504
-0.0366255,0.00425791
-0.0335384,-0.0174965
-0.0212988,-0.022509
0.00145405,-0.0102477
0.0244221,-0.000383293
0.0197799,0.0105917
0.00779298,0.0323949
0.00168032,0.0297918
-0.00409584,0.0103538
-0.00586161,0.00235499
0.00430567,-0.0430756
0.00466039,-0.0392081
0.00869173,-0.0259214
0.0328684,0.00267591
0.0461045,0.0245486
0.0382333,0.0236941
0.0208682,0.0111219
0.00533198,-0.0141502
-0.0141922,-0.0205301
-0.0305741,0.0148058
-0.0210651,0.050375
0.00761055,0.0085885
-0.0038922,-0.0126991
-0.0230705,-0.0256717
-0.0454277,-0.021996
-0.0614918,-0.00249588
-0.0477772,0.00096831
-0.033582,0.00381509
-0.0201884,0.047629
0.0178822,0.0609406
0.0556586,-0.0058601
0.0405361,-0.01998
0.0542372,-0.024831
0.0681721,-0.0312763
0.0320126,-0.0238022
-0.00228989,-0.00339707
-0.0159586,0.039125
-0.000441375,-0.0136715
0.00767267,-0.0307157
-0.0132327,0.000120842
-0.0126216,0.00701274
-0.0072439,0.0335551
-0.0154155,0.0011849
-0.0205084,-0.0300907
-0.014503,-0.0201413
-0.0123151,-0.00652499
0.00935922,0.000156986
0.0303455,0.0468996
0.0137801,0.0122574
-0.0179858,-0.0440729
-0.0412693,0.0128654
-0.0496561,0.0344732
-0.0466925,-0.0144052
-0.0331999,-0.0436803
-0.000284698,-0.00554864
0.0170749,0.0231457
0.010714,0.0179949
0.0107249,0.0144196
0.00760137,-0.000364609
-0.000818086,-0.0129879
0.0156738,-0.00305472
0.0378545,0.0234184
0.0403683,-0.00910819
0.0467549,-0.0271621
0.0420394,-0.00555986
0.00125174,0.00456103
-0.0190427,0.00391044
-0.00612381,0.000823095
-0.0129435,0.0088664
-0.0464039,0.00683653
-0.0499675,0.00949662
-0.0211881,0.0310875
-0.00739177,0.00493946
0.0074065,-0.0164546
0.0237491,-0.0194711
0.0172533,-0.0285603
-0.000651279,-0.0281167
-0.00242191,-0.00211042
-0.0026454,0.0157819
-0.00163219,0.0110806
0.0163574,0.0163415
0.0208359,0.0234435
0.00284433,-0.00671871
-0.0089628,-0.0050293
-0.0128317,-0.00134594
-0.0260057,-0.00493288
-0.0275538,-0.00853731
0.00855221,0.00488039
0.0288764,0.0295681
0.0216691,0.0396188
0.0162687,-0.0199614
0.00911539,-0.0461789
0.0114921,-0.0212314
0.010449,0.0081518
0.0116081,0.0220307
-0.00298669,-0.0246669
-0.00606718,-0.0260478
-0.00430474,0.0104172
0.000910179,0.0176071
0.0123291,-0.00690215
0.0112243,-0.00888224
-0.00911709,-0.00515653
-0.0283536,-0.0141404
-0.0293053,-0.016349
-0.00250377,0.00666064
0.0158678,0.0236104
0.00840294,0.025857
0.00715555,0.0125772
0.00171484,0.000563219
-0.00759036,-0.00552856
-0.00960628,-0.00233639
-0.00373214,-0.00123381
-0.00316357,-0.010253
0.0103387,-0.00262475
0.0144709,0.00515265
-0.0017114,-0.0018483
-0.00625008,-0.0121002
-0.00794923,-0.00424193
-0.0281982,0.03361
-0.0396749,0.0476169
-0.0302786,0.0394511
0.00582369,0.0169359
0.0329218,-0.0425717
0.0382146,-0.0378137
0.0304099,0.00410595
0.0190843,-0.00434549
0.00823946,-0.0253092
-0.00356843,-0.0134311
-0.0168507,-0.0225147
-0.0125325,-0.0139199
0.0158401,0.0292914
0.023236,0.0212395
0.00167074,0.00610048
-0.011686,-0.00164905
-0.0227643,-0.0101498
-0.0260465,-0.0192606
-0.00904944,-0.0223391
0.00990835,-0.00938919
0.00586689,0.00859681
-0.0255535,0.0204613
-0.0323558,0.0122174
-0.0184025,0.00769271
0.0198958,0.0393769
0.0289548,-0.0146238
0.0126948,-0.0348895
-0.00268827,-0.0064935
0.0176712,-0.00204265
0.0207201,0.0148533
-0.0119631,0.0268763
-0.0326485,0.0420245
-0.0258914,0.0295553
-0.023101,-0.0436775
-0.0493354,-0.0332876
-0.0317875,-0.0133623
0.0418591,-0.00837711
0.0866587,0.00825846
0.0979924,0.0118966
0.0926071,0.00368833
0.0400628,-0.00669542
-0.0214328,-0.0146576
-0.0377272,-0.0190471
-0.0609916,-0.00584072
-0.0986945,0.00710353
-0.0500081,0.0255954
0.0087289,0.0209149
0.012657,0.00485437
0.00242161,0.00528
-0.00585658,0.0115184
-0.0304365,-0.0266559
-0.022296,-0.045371
0.0207199,-0.0202434
0.0497178,0.0383474
0.0758411,0.0646075
0.0491267,0.0205676
0.0186698,-0.0456094
-0.0202156,-0.0421799
-0.0487318,-0.0158137
-0.0567598,-0.0242377
-0.0476713,-0.0273208
-0.0159611,2.49e-05
0.00468291,0.0232497
0.00152381,-0.00175577
0.001571,-0.0181715
0.00432856,-0.0107051
0.00151198,0.00115998
0.00342446,0.0138491
0.0268984,0.0248363
0.0480491,0.0284134
0.0408588,0.0249443
0.028016,0.0302847
0.018586,0.0315253
-0.00380037,0.0239322
-0.0321611,-0.000771408
-0.0435252,-0.0165359
-0.0498251,-0.0245353
-0.0317871,-0.023085
-0.00300644,-0.0180827
0.00353903,-0.0148747
0.0032208,-0.0213354
0.00814097,-0.0193071
0.00564335,-0.0206097
0.000510185,-0.0169111
0.00119876,0.0219502
0.0175077,0.0367061
0.0377446,0.0215001
0.0374986,0.0264194
0.0318474,0.0319935
0.0179418,0.00593786
-0.00743244,-0.0138057
-0.0277993,-0.0272993
-0.0381397,-0.0285026
-0.0431054,-0.00686924
-0.0168582,0.00813098
0.00757834,0.022693
-0.00114513,-0.0344177
-0.0166793,-0.0163965
-0.0203131,0.0284281
-0.011832,0.00921121
-0.00516588,-0.0495862
0.00257582,-0.0204601
0.0223253,0.0757398
0.0304701,0.0331229
0.0241552,0.00311027
0.0295756,0.00463027
0.0191649,-0.00139419
-0.00912356,0.0219594
-0.0253186,0.0242067
-0.0305902,-0.0210976
-0.0226504,-0.0297311
0.00292717,-0.000721885
0.019078,-0.0121138
0.0154746,-0.0518912
0.00536275,-0.0415461
-0.00973827,-0.00865147
-0.0149973,0.00102111
-0.0105492,0.00434579
0.00692838,0.031291
0.0280398,0.0329769
0.0281119,-0.000382443
0.00371469,-0.00544151
-0.00645458,-0.00914964
-0.0032099,-0.0180054
-0.00835205,0.00785657
-0.0170766,0.0297794
-0.0306337,0.00965975
-0.0191492,-0.0130849
0.00597228,-0.00697561
0.00873465,0.00951011
-0.00772586,0.018829
-0.00580474,-0.0142615
0.0027772,-0.033656
0.00259547,-0.0173778
-0.00151635,0.00260769
0.0134769,0.0079637
0.0293115,0.0113313
0.0191248,0.0178387
0.0123734,0.0178723
0.00369054,-0.00435422
-0.00436191,-0.0165259
-0.0106809,0.0111541
-0.0211009,0.029903
-0.03491,0.0110021
-0.00982071,0.00947535
0.0281996,0.0055311
0.0356907,-0.0106157
0.0124794,-0.0153533
-0.00836542,-0.00448009
-0.016286,-0.00647707
-0.016892,-0.0126404
-0.0148727,-0.00950015
0.00307926,-0.0152427
0.0160376,-0.0121099
0.00811285,0.0178013
0.0117954,0.0429077
0.013348,0.014957
-0.00947566,0.00285153
-0.0195007,-0.00146028
-0.0112292,-0.0349064
-0.00918672,-0.0316913
0.011514,0.0010659
0.0264191,-0.00353635
0.0114414,-0.0173599
0.00138897,0.00382619
-0.00901036,0.0044694
-0.0203518,-0.0247499
-0.0137622,-0.025814
-0.00664183,0.00344431
0.00958131,0.0264916
0.0140925,0.037834
0.0102894,0.02855
0.00433222,0.0230001
-0.0069389,0.00926738
-0.0140689,-0.023068
-0.000538502,-0.0406849
0.00493981,-0.0304505
0.00900474,-0.0112191
0.0143059,0.00785371
-0.0121944,0.0226744
-0.0386281,0.0128172
-0.0343276,-0.00324672
-0.0184088,-0.0133814
-0.0139654,-0.0224392
-0.0150078,-0.0272818
0.0118212,-0.0135894
0.0409758,0.0197737
0.0396296,0.0522365
0.0276586,0.0285095
0.0146243,-0.0174858
0.00288229,-0.00786793
-0.00714345,0.0417664
-0.00909397,0.0764376
-0.0149293,-0.0097416
-0.00829351,0.00234964
0.0100014,0.0231949
0.0157182,-0.00728728
0.0131194,-0.0547395
0.00674932,-0.0595189
-0.00384637,-0.0366245
-0.0203856,-0.00979806
-0.0155929,0.0143679
0.0089249,0.0741009
0.024838,0.0175872
0.0247757,-0.0441575
0.0159715,-0.00705472
-0.0142055,0.0242832
-0.0373569,-0.00426618
-0.0506801,-0.0171103
-0.0493238,0.00575079
-0.0283523,0.0123289
0.0239155,0.00908667
0.0561835,-0.0078913
0.0273476,-0.0260274
-0.0104953,-0.0254983
-0.0264986,-0.0128087
-0.0287863,0.0149898
-0.0314311,0.0227312
-0.00279316,-0.0255919
0.0428743,-0.0302337
0.0526247,-0.0138241
0.0336787,0.0276887
0.0207436,0.0306861
0.00466728,-0.00746258
-0.0247654,-5.78e-05
-0.0193636,0.00728963
-0.00381881,-0.00998648
0.0132664,-0.00458123
0.0395981,0.0268367
0.0439348,0.0257586
0.0276635,-0.0100659
0.00929707,-0.0157831
-0.0169473,-0.00671217
-0.0420344,-0.00823038
-0.0429798,-0.0131626
-0.023814,0.00526207
-0.00361773,0.0229251
-0.00275224,0.062797
-0.00116357,0.0664972
-0.00533728,-0.0347401
-0.0195992,-0.0537356
-0.0169044,-0.0284614
-0.0150559,0.00971464
-0.0152768,-0.00507359
-4.81e-06,-0.0457614
0.0155772,0.0171146
0.0145093,0.0409338
0.0128266,-0.0375533
0.00239246,-0.0250303
-0.0137569,-0.0231627
-0.016596,-0.0383993
-0.0208842,0.0214932
-0.00313646,0.0806885
0.0168325,0.0476858
0.0246185,-0.0276246
0.0257756,-0.0396167
0.0122705,-0.0297165
-0.00469581,-0.0166002
-0.00830841,0.054089
-0.00326608,0.071134
0.00893302,-0.0413231
0.025323,-0.0366111
0.028301,0.000468238
0.00909989,-0.00693352
-0.00558434,-0.0210329
-0.0154548,-0.013405
-0.02401,0.00385199
-0.0308713,0.00155232
-0.0219923,0.0167351
0.0133479,0.0241969
0.0236212,0.0430625
0.0247736,0.0309015
0.0181671,-0.00333585
-0.00216365,-0.040254
-0.0211328,-0.0511246
-0.0250169,-0.0256606
-0.0248801,-0.000338873
-0.0133963,0.0171664
0.00310733,0.0212279
-0.00223644,0.0209311
-0.0190905,0.0300942
-0.00958205,0.00798441
-0.0050695,-0.0191543
-0.0122781,-0.0209637
-0.0179868,-0.00883461
0.00610156,0.0381263
0.0369415,0.0314632
0.0300003,0.00370629
0.0274244,0.0059384
0.0240787,-0.0197944
0.0200369,-0.0226149
0.0252675,-0.0244578
0.00367152,-0.0195665
-0.0345039,-0.0135934
-0.0226092,-0.000384737
0.0221417,0.0101276
0.0408903,0.00106831
0.0198876,-0.00936949
0.000228321,0.00267182
-0.0147446,0.0264247
-0.0351046,0.0316059
-0.0573722,0.0282596
-0.0520061,0.0291928
-0.0168193,-0.0243587
0.00581762,-0.0561911
0.0205656,-0.0285095
0.0191938,-0.0121139
-0.000430181,-0.0273406
-0.00727505,-0.0397881
0.00490162,-0.0271502
0.0143123,-0.00710231
0.0373078,0.00733529
0.0493776,0.0318229
0.0213054,0.0385091
0.00128195,0.0473623
-0.00569813,0.0265228
-0.0190804,-0.0167329
-0.0314036,-0.013798
-0.026185,0.0187407
-0.0028331,0.0444003
0.0133801,-0.0253213
0.0175259,-0.0282319
0.0161628,0.00275267
0.00207073,0.00361421
-0.0202258,-0.013878
-0.0305331,-0.00856057
-0.0468077,0.0197571
-0.0437192,0.0327001
-0.0152149,0.0322811
0.0222073,0.0332085
0.0390505,0.0218637
0.0448201,-0.0681008
0.0348662,-0.0335118
0.00980732,0.0104002
-0.0226862,-0.034112
-0.0236959,-0.043997
0.0140754,-0.00647115
0.0337304,0.0239576
0.0264366,0.0331069
-0.0160866,0.0168179
-0.0308526,0.00455082
-0.0163076,-0.0111955
-0.00364547,-0.0432628
-0.000346991,-0.0147057
0.00894302,0.00950495
0.033178,0.0250621
0.0364398,-0.00965155
0.00571101,-0.0231616
-0.0140338,-0.00038428
-0.0228786,0.00847809
-0.0410078,-0.00282266
-0.0539769,-0.013736
-0.0304276,-0.0147904
0.00623101,-0.0048723
0.0338979,0.000212353
0.0404751,0.0111677
0.0181504,0.00578571
-0.0109134,-0.0101547
-0.0287561,-0.00103426
-0.0167583,0.0259085
-0.00601159,0.032666
0.0197214,0.0186427
0.0347264,0.00926078
0.0140084,-0.00205399
-0.0184107,-0.00358967
-0.0257551,0.0097274
-0.0281297,0.010695
-0.0364643,-0.00235877
-0.0251782,-0.0267027
0.00489377,-0.0271645
0.0153718,-0.00341136
0.00688431,0.0209232
0.0107815,0.0402827
0.0169135,0.0168723
0.0164944,-0.0336942
0.0162145,-0.013326
0.0216392,0.0649533
0.0270998,0.0468052
0.0354663,-0.00651035
0.0238532,-0.0531208
-0.0138181,-0.0498857
-0.0361886,-0.0455665
-0.0526592,-0.0341591
-0.0526342,-0.00498515
-0.032901,-0.00940983
0.00840401,-0.00391089
0.0520938,0.0129384
0.0682434,0.0390413
0.0410203,0.0351192
0.0171757,0.00299303
-0.0142366,0.0606774
-0.0425544,0.0405214
-0.0236876,-0.0872029
-0.00653194,-0.039012
0.0230517,-0.00370478
0.0476424,0.0248809
0.0288957,0.0406871
0.00051219,0.00904299
-0.00796927,-0.0191954
-0.01653,-0.0165177
-0.040327,-0.0208988
-0.060161,-0.0328155
-0.0370412,0.000679227
-0.00845342,0.0347294
0.00127199,-0.00385537
0.0160412,-0.042813
0.0173282,-0.0292763
0.0102319,0.00801531
-0.00394614,0.0140252
0.00703667,0.00463935
0.00334416,0.0332865
0.00406023,0.0614799
0.0183807,0.0130068
-0.00803462,0.0155146
-0.0451105,0.0106625
-0.0503636,0.00895467
-0.0440355,-0.00792151
-0.0228673,-0.101342
-0.00760991,-0.0715465
0.00405576,0.00883732
0.0271994,0.0265444
0.0179963,0.0633704
0.0160505,0.00584012
0.04792,-0.0208164
0.0486521,-0.0172261
0.0250807,-0.0103934
0.0214825,-0.0150923
0.0024266,-0.00514114
-0.00564801,0.0351437
0.00788974,0.0267175
0.0222303,-0.0146676
0.0473537,-0.0179162
0.0437919,0.00262785
-0.0115412,0.0132051
-0.0489169,0.0186627
-0.054906,0.0134178
-0.0222487,-0.00257583
0.0283441,-0.0250716
0.0513256,-0.0188038
0.0305043,-0.000537982
0.00486384,0.00460627
-0.0145848,0.00867092
-0.0315502,-0.000419106
-0.0391934,-0.00536744
-0.0343143,-0.00308669
-0.029607,0.0423927
-0.0142825,0.0212127
-0.00784757,0.00618588
-0.00113236,0.063788
0.0154627,0.0213466
0.0233675,-0.0308307
0.0139577,-0.0523771
-0.0068939,-0.0346259
-0.0249372,-0.0339391
-0.0300341,-0.0116064
-0.0194134,0.0577763
-0.00687434,0.00271391
-0.00561712,-0.036159
0.0134061,0.02424
0.0191048,-0.00139872
-0.0190244,-0.0539722
-0.0316653,0.000177972
-0.0137257,-0.00685747
0.00975247,-0.0191703
0.0271761,0.0051056
0.0153435,0.0131477
0.00844259,-0.000225955
0.0126831,-0.0147186
0.010297,-0.0140094
0.0453095,-0.0122789
0.115516,-9.24e-05
0.128587,0.0110893
0.0676735,0.0176557
0.01037,0.0547933
-0.0257573,0.0358966
-0.0643163,0.0462846
-0.0617926,-0.0303734
-0.0669174,-0.0229624
-0.0603471,0.0244684
-0.0654001,0.0131325
-0.109074,-0.0141502
-0.0953613,-0.017686
-0.0238961,0.000379145
0.015044,0.0112709
-0.0177022,0.00122964
-0.0356301,-0.0294542
-0.00710793,-0.029294
0.0420309,0.0298747
0.112692,0.0812092
0.135429,0.000897955
0.0797024,-0.11485
0.020821,-0.0913956
0.0224965,-0.0340662
0.0415167,-0.00346936
0.00869828,0.0475909
-0.0316997,0.0543994
-0.0303117,0.0135842
-0.0122371,-0.029507
-0.0332849,-0.00650291
-0.057465,0.0357419
-0.0813745,0.0717566
-0.0787419,0.0582351
-0.0622594,-0.050274
-0.0787712,-0.038473
-0.0426581,-0.0354223
0.0813958,-0.0382885
0.196039,0.00896368
0.201533,0.0575833
0.122882,0.028635
0.00556144,0.00894724
-0.0670502,0.0268431
-0.0476125,-0.00230642
-0.0138246,-0.0104185
-0.0334073,-0.0340113
-0.0678128,-0.0464722
-0.0394181,0.040103
0.0416086,-0.025785
0.063881,-0.0514407
0.0397219,0.0607882
0.0810952,0.0258042
0.0750573,-0.011281
-0.0249697,-0.00735818
-0.108636,-0.0480225
-0.145196,-0.000920963
-0.118729,0.0669861
-0.0692816,0.00545084
-0.0406524,-0.0407651
-0.0502011,-0.0388304
-0.0899112,0.00278328
-0.0568885,0.0208722
-0.00596857,-0.000820374
-0.0245115,0.0382169
-0.120733,0.0106928
-0.157678,-0.084452
-0.13625,0.0124066
0.0463025,0.0427081
0.243804,-0.0430073
0.235132,-0.00610172
0.181838,0.0653212
0.211547,0.0115332
0.165163,-0.014645
0.101023,-0.0326241
0.0698193,-0.0606721
-0.025879,0.0179937
-0.111116,0.0975101
-0.0665224,0.045061
-0.0497577,-0.0733802
-0.028741,0.0089935
0.0485082,0.0633821
0.0994899,0.0149939
0.121078,-0.0559195
0.112683,-0.0713698
0.0703174,-0.0272152
-0.0387999,0.0102774
-0.106225,0.0111767
-0.0642558,-0.0120139
-0.0850423,-0.031815
-0.104935,-0.0259745
-0.0974243,0.0141553
-0.104624,0.0384792
-0.104813,0.0547549
-0.0626346,0.0201546
0.00978014,-0.0336053
0.0552542,-0.0128244
0.0572447,0.010849
0.0811569,0.0320452
0.113737,0.0216951
0.0718492,-0.079833
-0.0453933,-0.0349724
-0.149701,0.0318617
-0.206856,0.0704445
-0.197802,0.202557
-0.112763,0.0934806
-0.0749236,-0.119726
-0.0427157,-0.0510558
-0.0356416,-0.0563521
0.0133574,-0.0866949
0.0830922,-0.0293373
0.166556,0.0213155
0.212631,0.0617531
0.189838,0.0621754
0.139615,0.00636938
0.128385,-0.0737478
0.066956,-0.0853208
-0.0374818,0.00907405
-0.0624349,-0.0194672
0.0105072,-0.0940648
0.0742386,-0.0196468
0.129027,0.0623106
0.0832198,0.0816994
-0.0153033,0.0415959
-0.124642,-0.0100154
-0.184951,-0.0303575
-0.205661,-0.0410809
-0.165737,-0.0515974
-0.0714341,-0.0377563
0.00602469,0.0722795
-0.000648717,0.184574
0.0209495,0.074472
-0.000619121,-0.06865
-0.0142865,-0.0611823
0.0195092,-0.0571863
0.0262027,0.00218997
0.00725782,-0.0120163
0.0444314,-0.0339862
0.093351,0.0203255
0.0510963,-0.00730862
-0.0246494,-0.0114496
-0.0481755,0.000402479
-0.0352798,0.115745
0.0182896,0.0327513
0.0849675,-0.117076
0.0616722,-0.0127947
0.0181445,0.00451638
0.00771294,-0.0307126
0.0206098,-0.016514
0.00672313,0.03702
-0.0187459,0.0554896
-0.0216046,0.0494345
0.0166329,-0.00412824
0.0593197,-0.0261043
0.070358,-0.0338377
0.0129643,-0.0374865
-0.0645551,-0.0576183
-0.101713,0.0133648
-0.123757,0.0334013
-0.161522,-0.00605151
-0.0942708,-0.00518407
0.0900498,-0.0292513
0.213682,-0.0157387
0.197382,0.0144663
0.0934024,0.0241145
-0.0195782,0.0216545
-0.0905838,0.0709838
-0.12844,0.0528865
-0.135843,-0.0304765
-0.186814,-0.044889
-0.176219,-0.0177295
-0.0796068,0.0269091
0.0671008,0.0709565
0.127076,-0.0226157
0.136296,-0.130121
0.162075,-0.0834662
0.14087,0.0123666
0.0339036,0.0602526
-0.036079,0.0546227
-0.0380785,0.0258483
-0.0188723,0.0387979
-0.0197033,0.0835543
-0.0515914,0.0383341
-0.080871,-0.0464276
0.0178808,-0.00168184
0.0930995,0.0392972
0.126566,-0.101285
0.0611083,-0.13897
-0.0403238,-0.0545281
-0.0904696,0.0159395
-0.0849618,0.00777498
-0.0435928,-0.0271633
-0.0173346,0.000913259
-0.0197723,0.0312214
0.0219908,-0.0161842
0.0854676,-0.0275922
0.0514817,0.0573937
-0.0701037,0.0930382
-0.115242,0.045293
-0.0317854,0.00541649
-0.0140802,-0.00550921
-0.0283308,0.0064694
-0.0250544,0.0532025
0.0428358,0.0858866
0.102428,-0.0232739
0.0779943,-0.107695
-0.015368,-0.0900384
0.00602011,0.0380086
0.0352459,0.0651062
0.102536,-0.0328233
0.143353,-0.0348213
0.0749583,0.00776221
-0.0853485,0.0173381
-0.196738,0.016241
-0.130505,-0.00967427
-0.0274697,-0.0724608
-0.0141754,-0.0903963
0.0237746,-0.0641229
0.0946122,0.0316587
0.128178,0.0299368
0.0452496,-0.0168187
-0.0403536,-0.0331281
-0.0545843,0.0166133
-0.0359757,0.0973355
-0.0440988,0.0492605
-0.07954,0.0399604
-0.0646417,0.0212475
0.00249511,-0.0115033
0.0635881,0.0139184
0.100867,-0.00276869
0.0751553,-0.0628925
-0.0317572,-0.0272723
-0.0543559,0.0605489
-0.0147238,0.0873383
-0.0293611,0.0803687
-0.106921,-0.0181314
-0.122016,-0.113535
-0.107089,-0.109479
-0.0662576,-0.0228824
0.0125088,0.0323572
0.0570777,0.01317
0.0691122,-0.00842131
0.0604728,0.000817901
0.0105506,0.0247084
-0.0128729,-0.00500128
0.0383506,-0.00113968
0.0874895,0.0747307
0.118209,0.0423049
0.119694,-0.0114826
0.12049,-0.0174773
0.121107,-0.0676163
0.0300718,-0.0447002
-0.0581846,0.019406
-0.0626049,0.0612093
-0.0573358,-0.0197764
-0.0587891,-0.0351601
-0.0297871,-0.00635296
-0.00406842,-0.028537
-0.0308429,-0.0277049
-0.0281141,0.0080139
-0.075633,0.0266161
-0.0571947,0.0466747
0.0143764,0.0638268
0.0629489,0.0207228
0.0949622,-0.0226984
0.150212,-0.0325901
0.11411,-0.0202133
0.00839152,-0.0102613
-0.0843944,0.0121229
-0.127351,0.0660066
-0.105549,-0.0338135
-0.172075,-0.0778905
-0.282269,0.0147441
-0.124241,0.00868316
0.107149,-0.0361432
0.241009,-0.0170316
0.207628,0.0090775
0.0656017,0.0318901
-0.0278467,0.0630476
-0.0363295,0.112787
-0.0724103,0.0994316
-0.0960732,-0.119968
-0.0634854,-0.200291
-0.055356,-0.0287116
-0.0794465,-0.0161269
-0.0385588,-0.0631943
0.018519,-0.0286373
0.0159833,0.00119936
-0.0862175,0.0543683
-0.125202,0.103629
-0.0664973,0.0499174
-0.0118222,-0.0241023
0.133032,0.0502099
0.277497,0.0339147
0.322104,-0.018738
0.254878,-0.000314113
0.225336,0.0107164
0.187706,0.00209716
0.0715844,-0.035712
0.00621472,-0.0545157
-0.0417697,-0.0136899
-0.124277,0.0484467
-0.161154,0.0459881
-0.152184,-0.0132454
-0.161416,0.0284968
-0.183031,0.051249
-0.168134,-0.00895212
-0.108045,-0.0748393
-0.0340011,-0.0912515
0.0261871,-0.0271442
-0.0149556,0.076219
-0.0589878,0.094677
-0.0668523,-0.0250494
-0.0352053,-0.0387417
0.0415862,0.00258961
0.106918,-0.0115069
0.123443,-0.0111723
0.110031,-0.00516456
0.0896747,-0.0269088
0.0731566,-0.0253951
0.00429262,-0.00707675
-0.0834798,0.0328796
-0.111162,-0.0189313
-0.102026,-0.047079
-0.0812264,-0.028127
-0.0540909,-0.0139717
-0.0347073,0.0029909
-0.0647092,0.0128283
0.01366,0.0035755
0.167219,0.0201394
0.202586,0.0247158
0.137601,0.00636412
0.0717639,0.00409504
0.0349119,-0.0115719
0.0186744,-0.00349073
-0.0209364,0.0710482
-0.0405287,0.129212
-0.042429,0.11281
-0.0566326,0.0231648
-0.0313238,-0.00949254
-0.00293765,-0.0179725
0.0124762,-0.0376744
0.0439467,-0.0718336
0.026435,-0.0127224
-0.0116723,-0.0505828
-0.0167769,-0.0731274
-0.0201407,-0.052759
-0.00720296,-0.0241471
0.000382502,0.0252149
0.0017609,0.0421726
-0.0222627,0.0306203
-0.0536966,-0.0117211
-0.070111,-0.035932
-0.0595542,-0.0234183
-0.0440406,-0.0157905
-0.0506883,0.000277212
-0.0517002,0.0518034
-0.0050728,0.0448013
0.0553441,-0.0063962
0.1181,-0.0289261
0.133917,-0.0216425
0.0836872,-0.0237746
0.0465682,-0.00717576
0.0315943,0.0214053
0.00091566,0.0267629
-0.0236867,0.0512961
-0.0327052,0.0232641
-0.020488,-0.0247677
-0.0332545,0.0300102
-0.0416845,0.0684215
-0.0123271,-0.0604496
-0.0230307,-0.0525427
-0.0396964,-0.0130672
-0.0384033,-0.0345792
-0.0631399,-0.0362464
-0.0969856,-0.0140792
-0.0879913,-0.00893458
-0.0455402,-0.0209653
0.00734009,0.00387018
0.0123637,0.0400712
-0.019435,0.0257601
-0.0156443,0.0389855
0.134602,0.0400106
0.24832,0.0161645
0.224338,0.0131087
0.123681,-0.0154624
0.0369565,-0.0166046
-0.0172524,-0.00771567
-0.0565342,-0.00394928
-0.0743498,0.00605604
-0.0984818,0.0336064
-0.0886613,0.0494416
-0.0710393,0.0553177
-0.0827761,-0.039344
-0.0742772,-0.0848735
-0.00551585,-0.0217674
0.0728277,0.0134152
0.0334095,-0.0421486
-0.0304867,-0.0532559
0.00157415,-0.0118252
0.0274648,-0.00441604
0.00185673,-0.0236391
-0.0345363,-0.0162708
-0.0356264,0.00937019
0.0261516,0.0362885
0.0779179,0.0330006
0.0531418,0.0533052
0.0391278,0.0253639
0.0331824,-0.0305668
0.000554627,0.00716177
-0.0585927,0.0294352
-0.0770079,0.0634751
-0.0230068,0.0413349
0.0308474,-0.0513105
-0.0207032,-0.0327573
-0.095944,0.00035657
-0.0495455,0.0235186
0.0916552,0.0548515
0.169058,-0.0664578
0.16443,-0.0987242
0.104924,0.00718054
0.053864,0.0250257
-0.0260191,-0.0301733
-0.090775,-0.0145984
-0.123515,0.0454347
-0.0813583,-0.04624
0.00446277,-0.0745713
0.0529383,-0.0209953
0.0855221,0.0189635
0.035248,0.036452
-0.0380166,0.027359
-0.0647681,0.0242594
-0.0760254,0.0127187
-0.105326,-0.0123156
-0.098577,-0.0132883
-0.0682602,0.0483401
-0.0266348,0.0883116
0.0130959,-0.0119134
0.00839661,-0.0998749
-0.0106561,-0.0576213
-0.00982129,-0.0114105
0.0198902,-0.0155282
0.0450119,-0.0083027
0.0507895,0.0194696
0.0530061,0.0748095
0.0668492,0.0584536
0.01558,0.014367
-0.0506475,0.0155725
-0.0346296,0.0943231
-0.0124045,0.0519539
-0.0468612,-0.0926014
-0.0848325,-0.0768879
-0.0580099,-0.0304899
-0.00587149,-0.0295111
0.0297083,-0.0341374
0.0369715,0.00164923
0.0791753,-0.00456788
0.101064,-0.0484352
0.104085,-0.0378623
0.0905137,0.0408643
0.0824952,0.0584675
0.069582,0.0416339
0.0312145,0.0107657
-0.00679441,-0.0150756
-0.0314523,0.0186342
-0.0477917,0.0921361
-0.0532743,0.0520464
-0.0591916,-0.0169083
-0.101678,-0.0475279
-0.078016,-0.0383345
-0.0244565,-0.06417
-0.0300506,-0.106098
-0.0211302,-0.0323024
-0.0224714,0.0161289
0.00432106,-0.0229226
0.0484215,0.022372
0.0611381,0.0589452
0.0639278,0.0339813
0.0430618,0.00815883
0.026401,0.00711269
0.0195005,-0.0302327
-0.00451668,-0.0195951
-0.0260548,0.0376024
-0.121275,0.0333512
-0.228555,-0.00401862
-0.176446,-0.0305322
-0.0452514,0.0137374
0.110572,0.016207
0.203337,-0.00841843
0.115932,0.0027741
0.0488048,-0.0231666
0.0128403,-0.0294009
-0.0607053,-0.0129887
-0.0710102,0.00496444
-0.0265587,0.0572009
0.0470091,0.0927194
0.0691021,0.0279669
0.0372919,-0.0173346
0.048187,-0.0340803
0.0431707,-0.026226
0.0127348,-0.0111417
-0.0263178,-0.0172928
-0.018288,-0.0342402
0.0225277,0.0169863
0.0920773,0.0512663
0.115524,0.0184712
0.0338866,-0.0241437
-0.0567853,-0.0199671
-0.107249,0.0192491
-0.0765839,0.0018071
-0.0430318,-0.0280003
-0.0245434,0.0209853
-0.0028498,0.0137816
-0.0143603,-0.00264923
-0.0237723,-0.0421705
0.00140073,-0.0339321
0.0141547,-0.0218949
-0.00921165,-0.00203112
-0.0376146,0.0184155
-0.0469347,0.0246245
-0.0385177,0.0472557
-0.0231731,0.065019
0.0135217,0.0164929
0.043527,-0.0270599
0.0250256,-0.0332621
-0.027476,-0.0687104
-0.0678671,-0.0293085
-0.0558773,0.00254685
0.0215291,0.0116712
0.0700708,0.0537605
0.0573678,-0.0131875
0.0362172,-0.0350236
0.0292152,-0.0458155
0.014268,-0.010309
0.00804922,0.0815413
0.0160018,0.0157564
0.0322577,-0.0520763
0.00941091,-0.0190085
-0.0427067,0.00280271
-0.0558731,-0.0138238
-0.0509948,-0.0139867
-0.0440922,0.00308975
-0.00827363,0.00430606
0.031209,-0.00626784
0.0412207,-0.00657182
0.0228768,0.00100195
-0.0175937,0.0124026
-0.0450487,0.0469252
-0.0210626,0.0751907
0.0313841,0.0115069
0.0509706,-0.0206733
0.0532669,-0.0229365
0.0170209,0.00749698
0.0166927,0.0228659
0.0361558,0.0102012
0.0506917,0.00538899
0.0561808,0.0102949
0.0214192,0.007278
-0.0193017,0.00633363
-0.0316109,-0.0328562
-0.192185,-0.0302571
-0.168688,0.00076845
-0.0836964,0.0160517
0.00816012,0.0235316
0.0956725,-0.0026051
0.0984941,-0.0825233
0.0727342,-0.110721
0.0543799,-0.069007
0.0136021,0.0164525
0.00850341,0.0890653
0.0364407,0.102616
0.0676947,0.0521902
0.0397173,0.012487
-0.0189565,0.0046197
-0.0546749,-0.0254307
-0.0536726,-0.0427769
-0.0568212,-0.0262851
-0.0617014,-0.00875585
-0.0760069,0.0456918
-0.0807961,0.0465746
-0.0255392,-0.0526615
-0.000720874,-0.0856745
-0.0036939,-0.0546488
0.0144579,-0.00800475
0.0611828,0.0308577
0.0681679,0.0484215
0.0316402,0.0563451
0.0400885,0.0487914
0.0461644,0.0379692
0.03425,0.0151327
0.0393553,-0.0169185
0.0452606,-0.0333565
0.0229071,-0.0466805
-0.0253433,-0.0383056
-0.0202278,0.00407895
0.0144464,0.0405537
0.00596191,0.0307412
-0.0255487,-0.0362384
-0.0340939,-0.0502957
-0.0209682,-0.0364339
-0.0132312,0.00168045
-0.00769436,0.0300248
-0.0188951,0.0486534
-0.0519222,0.0435084
-0.0629574,0.0714143
-0.0450657,0.0583508
-0.0304796,-0.039906
-0.0200114,-0.0549319
0.00395433,-0.022628
0.0385367,-0.0564103
0.0240247,-0.0573986
0.00817802,-0.0200054
-0.00252039,-0.00217083
-0.0122262,-0.00889613
-0.0215637,0.0125866
-0.0212691,0.0161208
0.00629127,0.00924002
0.032477,-0.013962
0.0623337,-0.00763307
0.0779326,0.0278642
0.035415,0.0657495
0.00279838,0.0579904
-0.0065117,0.0322568
-0.0268367,0.00993009
-0.0068706,0.0358806
0.00454039,0.0480893
-0.029726,-0.0180509
-0.0109833,-0.158756
0.0237654,-0.14107
-0.00533253,-0.0235931
-0.0243952,3.07e-05
-0.0216456,0.0202879
-0.0201069,0.0412535
0.00168702,0.00803364
0.0272031,-0.0192294
0.00842111,-0.00585679
0.00953219,0.0276601
0.00819168,0.0428031
0.0197085,0.0243368
0.0367754,-0.0018745
0.00954054,-0.0330756
-0.0322845,-0.0451148
-0.102841,0.0366837
-0.108395,0.0276966
-0.103648,-0.000969305
-0.0284002,0.0140899
0.0979088,0.0157328
0.0404979,0.0116859
-0.00389942,-0.00416249
0.0637183,-0.0239804
0.0618367,-0.0317496
0.04679,0.00261058
0.0884019,0.0530555
0.0865055,0.0535105
0.0558397,-0.0112814
0.0239454,-0.0350428
-0.0292508,-0.022907
-0.0660007,-0.0301929
-0.0543109,-0.00916886
-0.0245552,0.023675
0.0205463,0.00998669
0.0396796,0.063827
0.0030476,0.0910198
-0.0267884,-0.0417159
-0.05078,-0.0682979
-0.0499911,-0.0365514
-0.038019,-0.00582739
-0.066292,-0.00593839
-0.0519891,-0.0250823
-0.0303042,0.0103307
-0.0139147,0.0381194
0.028795,-0.0417301
0.0579287,-0.0593324
0.0662622,-0.0046217
0.0481014,0.00800357
0.00104527,0.0188397
-0.0279625,0.0322248
0.00291002,0.0277006
0.0828256,0.0366874
0.0580205,0.00855315
-0.0472285,-0.0409227
-0.0679586,-0.0129174
-0.0371667,-0.00602315
-0.0257281,-0.0413856
-0.00239315,-0.0291949
0.0368105,0.0305358
0.0315675,0.0866434
-0.0184582,0.0524601
-0.0509834,-0.0279572
-0.0549956,-0.0271404
-0.0237715,-0.0366821
0.0309341,-0.0444708
0.0712353,-0.01018
0.0865845,0.0109358
0.0604936,0.0207428
0.0244775,-0.012086
-0.0121783,-0.0355243
-0.0512982,0.0458363
-0.0687567,0.0241726
-0.0989263,-0.00488337
-0.131691,-0.00182311
-0.0735209,0.011454
0.0112957,0.0283776
0.0629679,-0.0219299
0.0600541,-0.0259746
0.0404013,-0.0104743
0.0725631,-0.0150183
0.0894372,0.0027424
0.0680871,0.00595077
0.0472187,-0.0140298
0.0169364,-0.0213395
-0.00632562,0.0427722
-0.0318187,0.0965419
-0.0467429,0.102687
-0.0128168,0.0525945
0.00530725,-0.0475063
-0.07124,-0.0448705
-0.0816393,-0.0734569
-0.0316468,-0.0572732
0.00856527,-0.0202279
0.052386,-0.000242308
0.0399451,-0.00425173
-0.00740509,0.00328495
-0.00332442,-0.00614791
-0.00435522,-0.00928398
-0.00104929,0.00217645
0.0178521,0.0112601
0.0348731,-0.00397598
0.0136284,-0.0216915
-0.0191866,0.012075
-0.068343,0.0389014
-0.0363557,0.00432028
0.0556204,-0.0376209
0.111417,-0.0164292
0.0674332,-0.0030995
0.0392646,-0.00295386
0.0195132,0.0158194
-0.00837558,0.0312826
-0.049838,0.0253844
-0.094553,0.0389776
-0.095556,0.0743426
-0.0861977,-0.00127345
-0.0429509,-0.0984535
-0.0052638,-0.0444032
-0.0205447,0.00832799
-0.0315608,0.000166733
-0.0212892,-0.0311642
0.00306298,-0.0410652
0.0505662,-0.0160747
0.0693564,0.00893231
0.048692,0.000569914
-0.0123494,0.00234701
-0.0728005,0.00046343
-0.0466966,0.045015
0.0811389,0.0484845
0.19171,0.0227367
0.153404,0.0537478
0.0238741,0.0216937
-0.0683044,-0.0588068
-0.0571315,-0.0315049
-0.0286162,-0.0303782
-0.0161397,0.0318326
0.00350098,0.0864407
0.0142404,-0.00605955
-0.0249674,-0.0568001
-0.0634558,-0.00838109
-0.0471932,-0.0301596
-0.0414417,-0.0441005
-0.0102644,-0.0323596
0.0103525,-0.0016025
0.0439759,-0.013137
0.0975665,-0.0157531
0.0354976,0.00852626
-0.0456803,0.0200057
-0.0352687,0.0203646
-0.0186408,0.0229495
-0.021239,0.0155746
-0.00906713,-0.012402
0.00732226,-0.0295536
-0.00406098,0.00297298
-0.00299998,0.0390737
-0.0261477,0.0440597
-0.0203107,0.0248413
-0.0245568,0.00382632
-0.000349299,-0.0248584
0.000850215,0.0221507
-0.0480126,0.0969966
-0.0134483,-0.0020633
0.00995873,-0.0654477
0.00811028,-0.0354761
0.0434857,-0.0514697
0.0478657,-0.0433392
0.06011,-0.0534768
-0.00420578,-0.0467495
-0.0204351,0.0325253
0.0145536,0.0465709
0.000533369,-0.00483609
-0.0114954,-0.0223446
0.0043525,0.0233179
0.0384108,0.0764333
0.0194617,0.0276054
-0.00681073,-0.0612865
0.000614496,-0.0417771
-0.00121255,0.0310282
-0.0463864,0.0512197
-0.0958811,0.0238861
-0.101891,0.0188804
-0.0237246,-0.014507
0.1142,-0.0225543
0.118695,0.0254799
0.0626178,0.01788
0.079991,-0.00357443
0.0852593,-0.0137723
0.0020816,-0.0273017
-0.0598307,-0.0203891
-0.0597355,0.00990401
-0.0218586,0.0450372
0.0265344,0.0155955
0.0180188,-0.0548507
-0.0918626,0.0225212
-0.138317,0.0207297
-0.0702694,-0.0275737
0.0326856,-0.00619976
0.11448,-0.0217071
0.119987,-0.0538301
0.0174155,-0.00391246
-0.0707053,0.0273675
-0.0681137,-0.0125698
-0.0186212,-0.0213785
-0.00612355,0.00435484
-0.0207124,0.00211073
0.006366,-0.0220749
-0.03659,0.0114519
-0.104339,0.0309381
-0.0634686,-0.0202517
0.025987,-0.0446745
0.12974,0.0227598
0.118971,0.0565427
0.0347461,0.0722389
-0.0427095,0.0422047
-0.0902598,0.011313
-0.0435636,0.0292326
0.0806335,-0.0196715
0.132359,-0.0380239
0.111151,-0.00660423
0.0436948,-0.0110895
-0.0113561,-0.0271268
-0.0453694,-0.0401675
-0.055747,-0.0206641
-0.0448214,-0.00254743
-0.0486801,-0.0108022
-0.0422472,-0.0252763
-0.0299867,-0.0250964
-0.0249481,-0.0118928
-0.0240478,-0.00491258
-0.00303408,0.0147804
0.00446112,0.0246415
-0.00142077,0.00840536
0.00843098,-0.0210883
0.0435284,-0.00268442
0.0406457,0.0258346
0.0195412,0.0551644
0.00601363,0.0630025
-0.0337436,0.00977145
-0.0556083,-0.0201632
-0.0568948,0.0157134
-0.0385541,0.00450756
-0.00539418,-0.0352278
0.0207942,-0.0328928
0.0498765,0.00156945
0.0736053,0.0150678
0.0588629,0.00231045
0.0348101,0.0131134
0.0251634,0.0542688
-0.0135794,0.0118234
-0.0725926,-0.0427426
-0.0288974,-0.0175308
0.00605783,-0.00644035
0.0039903,-0.0227235
-0.00691052,-0.0247104
-0.0222544,-0.0264171
-0.0191479,-0.0398991
-0.0311009,-0.0278678
-0.040957,0.00436165
-0.0209739,0.0180307
-0.00119707,-0.00790278
-0.00787685,0.00570127
-0.0178027,0.0111122
0.0386595,-0.0012378
0.0844385,0.00886785
0.0587069,0.00735006
0.0216115,0.000717356
-0.0133917,0.0260552
-0.0323078,0.0366814
0.00347533,0.0300873
0.0580616,0.0282921
0.0918883,0.00970793
0.0849739,-0.0104133
0.0215838,-0.0225159
-0.0470419,-0.0401438
-0.0818915,-0.0456813
-0.0770056,0.0317801
-0.0248238,0.070129
0.0145276,0.0027164
0.000503547,-0.0392657
-0.0339898,-0.0200563
-0.100107,0.00602094
-0.123473,0.0626129
-0.0679346,0.0860823
0.0149671,-0.00379573
0.0292013,-0.0491676
0.0320739,-0.0367042
0.0715079,-0.00726798
0.0591293,-0.0197705
0.0323297,-0.0198375
0.0666836,0.00171308
0.0698268,-0.0101589
0.0317329,-0.0248499
0.0225995,0.00466683
0.0488741,0.000873365
0.0225185,0.00348379
-0.0316646,0.000940053
-0.0505697,-0.000290257
-0.0347107,5.52e-05
-0.0153613,-0.0144845
-0.00818746,0.00949757
0.00923612,0.00550566
0.0266865,-0.0237546
0.0337272,-0.0241866
0.000669184,-0.00793318
-0.0540379,0.0190245
-0.0749952,0.0223168
-0.10257,0.0223497
-0.0940758,0.00292783
-0.0817482,-0.0230534
-0.0491799,0.0236327
0.0076988,0.091373
0.0464021,-0.0168999
0.0483652,-0.0970145
0.0480082,0.0375407
0.0746994,0.0687906
0.0643417,-0.058627
0.0504363,-0.0717833
0.0519115,-0.0324322
0.0190383,-0.00516554
-0.00999688,0.0169947
0.00195765,0.0602595
0.0152462,0.014865
0.0323901,-0.0216716
0.0500912,-0.0262879
0.00307793,-0.0224512
-0.0920281,-0.04161
-0.108199,-0.0227417
-0.0704581,0.0512057
-0.0386545,0.0637366
-0.0150772,0.0399201
0.0269922,-0.0202421
0.079364,-0.0286142
0.0332394,0.00367623
-0.0978517,0.0258298
-0.16013,0.0159776
-0.00556718,0.0038828
0.174368,0.0334438
0.224809,0.0244911
0.121681,-0.0249153
-0.00922916,-0.0293063
-0.0912978,-0.0362187
-0.132606,-0.0426373
-0.123186,-0.0239847
-0.0320364,0.00522024
0.0576519,0.0136862
0.0609311,3.2e-05
0.0370427,-0.00448535
0.00660289,0.0265407
-0.00650006,0.0124774
-0.0151388,0.00484105
-0.033555,0.00799093
-0.0472456,0.00616767
-0.0520896,0.0183736
-0.0615713,0.0146274
-0.0246158,-0.00412776
0.0531,-0.0106482
0.0801717,-0.0020487
0.0736728,0.0180387
0.0130954,0.00362529
-0.021091,-0.0365658
0.00399007,-0.03625
-0.0207847,0.0323137
0.032602,0.0358867
0.0823071,-0.00143169
0.0496221,0.00139897
0.0254406,0.0322874
-0.00192784,-0.0176212
-0.035847,-0.0511976
-0.00877224,0.0127261
0.00270604,0.0329791
-0.0331762,-0.0106045
-0.0600556,0.0145617
-0.0663363,0.0157683
-0.0465301,-0.0339649
0.000762368,-0.0359347
0.037654,-0.0147601
0.0328119,0.0001668
0.00767109,-0.00195425
-0.00884836,0.0292256
-0.0283552,0.0749342
-0.0479044,-0.0129924
-0.0417489,-0.0571131
-0.0335889,-0.0398173
-0.00139491,-0.0523085
0.0155308,-0.0211787
0.0242947,0.000180261
0.0516954,0.000825257
0.0936296,0.0250882
0.0941823,0.00783943
0.030985,0.0535029
-0.0280968,0.0462883
-0.0669356,0.0113829
-0.0499281,-0.0536437
0.000784196,-0.0382929
0.00173083,0.01069
-0.0134349,0.048653
0.00365439,0.016671
0.0020968,-0.0510887
-0.0182098,-0.0508915
-0.00251089,-0.0164942
0.0598832,-0.00270902
0.0430218,0.00130015
0.0105109,0.0192037
0.0114123,0.0559025
0.024888,0.0735666
0.0214869,0.0670232
0.0329315,0.0446
0.0261901,-0.0477155
-0.0569506,-0.0740702
-0.166587,-0.0244095
-0.196855,-0.0311108
-0.10693,-0.0291883
-0.0191639,-0.0254398
0.00417029,-0.0273228
0.0210204,-0.00413938
0.0378387,0.0193942
0.0405259,0.0123097
0.0649883,0.0174081
0.125751,0.0375372
0.116994,0.0116761
0.0871523,0.00270604
0.0562144,0.0337809
-0.00337613,0.0681226
-0.074677,0.0354561
-0.137206,-0.0276776
-0.106032,-0.0729201
-0.067685,-0.0492172
-0.0224683,-0.000687889
0.0455459,-0.0234755
0.0309004,-0.0445659
0.0105875,-0.0140011
0.0589995,-0.0107789
0.0951372,-0.0207637
0.0733151,-0.00853227
0.0137434,0.031128
-0.0189308,0.036495
-0.0186619,0.0477995
-0.0295016,0.0680711
-0.0224205,0.0270738
0.0145458,0.00544504
0.0210766,0.00910919
0.0162226,-0.0612164
0.0318962,-0.0185006
0.0434373,0.0149108
0.0255725,0.0289825
-0.0130918,0.0313276
-0.0322527,-0.00336855
-0.0290055,-0.00130432
-0.026123,0.0143928
-0.0370555,-0.0362495
-0.0767956,-0.0649562
-0.108966,-0.0337495
-0.0539441,-0.00545543
0.00802075,-0.00235232
0.0669372,-0.00945669
0.0992386,-0.00644424
0.0954194,0.00298173
0.0715457,0.00136582
0.0101695,-0.00900871
-0.00791194,-0.0198547
-0.0266855,-0.010171
-0.0782226,0.0218792
-0.0668847,0.0294862
-0.0224875,0.0258512
-0.0174058,0.0386515
-0.0407462,0.0598992
-0.0344345,-0.0103722
-0.0366237,-0.0562181
-0.0751166,-0.0426952
-0.0675851,-0.0304595
-0.0228905,-0.0101177
0.00442834,0.0270252
0.0808688,0.0197561
0.143672,-0.0118242
0.119255,-0.00737503
0.0409575,0.00481673
-0.0306815,0.015666
-0.0251776,0.0271733
0.0170231,0.00648552
0.0527491,-0.00117924
0.0406976,0.00695003
-0.0450892,0.0300946
-0.0910085,0.0573406
-0.048397,0.0264236
-0.0474897,-0.0115773
-0.0645149,-0.0398925
-0.0159767,-0.0683133
0.0568475,-0.0794339
0.102926,-0.0934575
0.102109,-0.0166818
0.0686388,0.0862781
0.0529284,0.0777288
0.0528257,0.0264744
0.0436453,0.014095
0.00737452,0.0167639
-0.0434123,-0.0138573
-0.0657237,-0.0267781
-0.0536041,-0.016411
-0.0772655,-0.0234914
-0.134419,-0.0138929
-0.123712,0.0360259
-0.0217073,0.0194777
0.0309972,4.63e-05
0.0414283,0.0648752
0.0567433,0.0896186
0.0306276,0.0829846
-0.0154713,-0.0616131
-0.0242008,-0.14572
0.00998232,-0.0632687
0.0454214,-0.0278488
0.0602589,-0.0237748
0.0374594,0.0214256
0.00330936,0.000692546
0.0101032,-0.0307444
0.025168,-0.0130394
0.00586349,0.0035008
-0.0351924,0.0200633
-0.0476012,0.0182775
-0.0143096,0.0147894
0.00590492,0.0227464
-0.00297697,0.016237
-0.0149441,-0.00716188
-0.0130287,-0.0137104
0.0174309,-0.00728132
0.0583364,-0.0145233
0.047456,-0.0266683
0.00673476,-0.0179013
-0.0247418,0.000997463
-0.0491362,0.018009
-0.0665855,0.0333393
-0.0524065,0.0448226
-0.0387542,0.051014
-0.0117172,0.0317677
0.0326022,-0.0452034
0.0387742,-0.0594266
0.0206723,-0.0172267
0.0340029,0.0102732
0.0735073,0.0176784
0.0527157,0.0320632
0.0156827,0.0533234
-0.0136571,0.0189327
-0.0609221,-0.0399167
-0.115623,-0.0526231
-0.111869,-0.0269819
-0.0310721,0.0107118
0.00892484,0.0157115
0.039646,0.0135003
0.0654947,-0.00302041
0.0825463,-0.0534298
0.0607059,-0.0305667
0.052468,0.0343307
0.0445766,0.0238243
0.0400751,-0.00425976
0.0288963,0.0154001
-0.00145534,0.0218372
-0.0593205,0.00107805
-0.0776114,-0.0121513
-0.0467926,-0.0111449
-0.0252446,0.0151276
-0.00780263,-0.00214523
0.0204668,-0.0303294
0.026876,-0.0254598
0.0025483,-0.0182816
0.00128434,-0.00380897
0.0129986,0.0143777
0.0065458,0.0254521
-0.00948877,0.0314588
-0.0553745,0.0456492
-0.0880478,0.0161121
-0.0603865,-0.0282278
-0.00621771,-0.0241704
0.0142669,-0.023049
0.0179285,-0.0148266
-0.000320535,0.0140453
-0.00491846,0.00783447
0.0242101,-0.015241
0.059316,-0.00404804
0.0828613,0.0070303
0.0630199,0.0124852
0.0174802,0.00685947
-0.000319325,-0.00614912
-0.0296286,-0.014567
-0.0251353,-0.00693805
0.0200833,-0.00364638
0.0520308,-0.0170702
0.00609397,-0.0146016
-0.09169,0.0212957
-0.103218,0.0158215
-0.0453293,-0.00423334
-0.0156893,-0.00738396
-0.0109373,0.0345842
0.0113695,0.034451
-0.0039838,-0.0254982
0.000199564,-0.01496
0.00939083,0.0617549
-0.0128217,0.0585326
-0.0127679,-0.0597997
-0.0364512,-0.0495419
-0.0307243,0.00097141
0.0340951,0.0292077
0.109174,0.0122307
0.117752,-0.0206832
0.0804698,-0.0186112
0.0241217,0.00430646
-0.0244994,-0.0122929
-0.0267924,-0.0205095
-0.00136324,-0.00935184
-0.00730529,0.00268547
-0.0168483,0.00772545
-0.0100642,0.0168465
-0.0052115,0.003992
-0.0111916,-0.0266563
-0.0289931,-0.0289702
-0.0339967,-0.000265415
0.00904899,0.0152447
0.0243465,-0.0109317
0.000127979,-0.0117385
0.0154152,-0.0181335
0.025926,-0.0208841
-0.00442575,0.0094974
-0.0661578,0.0414434
-0.0942403,0.0286668
-0.0491545,0.0315096
-0.0351436,0.0278114
-0.0629977,0.0391972
-0.0978263,0.00796153
-0.0470407,-0.0361131
0.0711545,-0.0401215
0.142323,-0.0231224
0.132843,-0.00720809
0.108284,0.00454403
0.0451545,-0.00288585
-0.00944735,-0.030748
-0.0368547,-0.0297311
-0.0487673,-0.00779227
-0.0330926,0.00888381
0.0169255,0.00740883
0.0579312,-0.0136433
0.0620435,-0.012829
0.0300404,0.0225822
0.00859255,0.0439365
0.00955621,0.0568861
0.0188358,0.0115916
0.0229869,-0.0248313
0.00193034,0.0116635
-0.0309272,0.0417623
-0.0402077,0.023165
-0.0861621,-0.00813247
-0.114442,-0.0195103
-0.0939028,-0.033373
-0.0647649,-0.0397452
-0.0350179,-0.017246
0.00609424,-9.29e-05
0.0389629,0.0127414
0.0482222,0.0116662
0.0570446,-0.0100017
0.0915935,-0.00754965
0.083143,-0.00612912
0.0492887,-0.00695018
0.00978808,0.00650849
-0.0173491,0.0465641
-0.0326634,0.0112327
-0.0332133,-0.0410556
-0.02697,-0.0189268
-0.00513066,-0.00152513
0.0064377,-0.00440417
-0.0323998,-0.00517973
-0.0538882,-0.00667208
-0.0296818,0.000605098
0.0287677,0.00711276
0.074718,0.00698413
0.0486902,0.0107169
0.0051171,0.0153481
-0.00725314,0.0113487
-0.0196934,-0.0122441
-0.0332274,-0.0373679
-0.0160358,-0.00333841
0.000401602,0.0181562
-0.0415333,0.00318215
-0.0632899,-0.0103443
-0.0326693,0.00468381
-0.0118235,0.0440845
-0.00297724,0.00822856
-0.00783531,0.00799929
-0.00545774,0.0598453
0.00197137,-0.0225022
0.0225293,0.00433088
0.042014,0.0385302
0.0576554,0.0306592
0.0648146,0.0125674
0.0271392,-0.0268418
0.0443766,-0.0742436
0.0309596,-0.0668849
-0.0165628,-0.0253993
-0.0155177,-0.0175683
-0.0277352,-0.00920209
-0.0263691,0.0216356
-0.0473676,0.0131267
-0.0712333,-0.0146574
-0.0434839,-0.0203692
0.00312717,-0.00910335
0.0398451,0.00316461
0.0812982,0.027188
0.097486,0.0302307
0.0613073,0.0112726
0.00578462,0.00158838
-0.0293174,0.00276506
-0.0291863,0.0232564
-0.0298656,0.0326123
-0.0236057,0.0102511
0.0142589,0.00209264
0.0366681,-0.0295179
0.0539756,-0.0507165
0.048048,-0.0188386
0.0102934,-0.00299942
-0.0758504,-0.00371218
-0.116618,-0.0161838
-0.0719719,-0.0205069
-0.00885918,-0.0103862
0.018113,-0.00126884
-0.0156039,0.00325008
-0.0394144,0.0133532
-0.035051,0.00839973
0.00453108,-0.00487247
0.0317507,0.00520158
0.0231222,0.0162326
0.0271949,0.0210442
0.0221968,0.0218206
-0.0270931,0.0143975
-0.036109,0.0128793
0.0309406,0.0207154
0.0713008,0.00274879
0.0504323,-0.0327143
0.00518095,-0.0271553
-0.0227847,-0.0137523
-0.032618,0.000259646
0.00373515,0.0158908
0.0258926,0.0081361
0.0198419,-0.00365217
-0.00282878,0.00656873
-0.0221085,0.0175841
-0.0476424,-0.011679
-0.0637516,-0.0188153
-0.0459639,-0.0110908
-0.00203089,-0.0279462
0.0435655,-0.0162171
0.0511702,0.0262904
0.0141495,0.0854655
-0.0152108,0.0830991
-0.0296202,0.0129529
-0.0181513,-0.0540602
0.0166308,-0.0654194
0.0262275,-0.0236141
0.0121517,-0.012562
0.0114327,-0.0177784
0.00729744,-0.000475035
0.013084,0.0190572
0.0386692,-0.0169627
0.0190953,-0.0278746
0.00166785,-0.00475567
-0.00708559,0.00824085
-0.0177306,-0.0161336
-0.0135259,-0.00975274
-0.0397717,0.0431528
-0.0870802,0.0735534
-0.0878255,0.00754709
-0.0695029,-0.0342907
-0.0422534,-0.00944488
0.0252022,0.0249191
0.0748346,0.00896155
0.0933068,-0.0137015
0.0837248,-0.0132322
0.0319774,0.00191719
0.0190578,0.012298
0.0190461,0.00136509
0.0167037,-0.0178987
0.0445444,-0.0181084
0.0656634,-0.00506111
0.0525454,-0.00898018
0.00541244,0.0118157
-0.0322104,0.0387656
-0.0482141,0.000374127
-0.0588018,-0.0246158
-0.0585342,-0.0263303
-0.0300731,-0.0217124
-0.0300976,0.0016149
-0.0639216,-0.000988243
-0.0265583,-0.00641252
0.0332513,0.00344965
0.0821284,0.00121633
0.0761445,0.0133174
0.0234564,0.016194
-0.0188582,0.00263402
-0.0365266,0.00717354
-0.0412583,0.0424224
-0.0336498,0.0383323
-0.0307083,0.0261165
-0.0147842,-0.0186705
0.004457,-0.0602405
-0.00355213,-0.0600966
-0.032994,-0.0370608
-0.0256549,8.93e-05
0.0187524,0.0716288
0.0554494,0.0764073
0.0745386,-0.0417712
0.0486775,-0.0403779
0.0295895,0.00650623
0.0207801,0.0303244
-0.00424164,0.0141936
-0.00655006,-0.0391742
0.0086043,-0.0234264
-0.0049112,0.0377775
-0.035564,0.0451466
-0.0687488,0.0146511
-0.0915006,-0.0243084
-0.0484127,-0.0400099
0.00596294,-0.0240589
0.0211667,0.0129925
0.00882069,0.0052049
0.00677238,-0.0352796
0.0287216,-0.00945861
0.0198595,0.0111674
-0.00571878,0.0038204
-0.0289587,-0.00219104
-0.0283513,-0.0235812
0.00246624,-0.0248598
0.0236552,0.0199085
0.026089,0.0210822
0.0210381,-0.0142236
0.0501319,-0.0141206
0.0698936,0.0171958
0.047758,0.0215859
0.011453,-0.00322302
-0.00554076,-0.0057407
-0.0168643,-0.00441133
-0.0383652,0.00243193
-0.0320558,0.0233748
-0.00661328,0.0255972
-0.0199478,0.0308435
-0.0480358,0.0163489
-0.0551044,-0.0111637
-0.0186101,-0.0268025
0.003163,-0.0393051
0.0094326,-0.0163961
0.0423429,0.0122129
0.0399979,0.0182724
0.0248617,0.00295535
0.0621182,-0.00156057
0.0746669,0.0350632
0.0123813,0.0405102
-0.0610949,-0.0117092
-0.0904658,-0.00846158
-0.0961693,0.00721284
-0.0852472,-0.0217746
-0.0873254,-0.0255583
-0.038893,-0.0246899
0.0329642,-0.0415866
0.0205094,-0.0216827
0.0134252,-0.0017204
0.0327108,0.008225
0.0823553,0.0188345
0.108069,0.0126148
0.0688266,0.00644754
0.0458989,0.00597629
0.0494852,0.00375735
0.0192308,-0.00163186
-0.0286993,-0.0122197
-0.048905,-0.00646068
-0.0290954,0.0103358
-0.0214334,-0.00615522
-0.0465057,-0.0137076
-0.0240197,0.0268377
0.0212535,0.063536
0.0547748,0.0410085
0.0608317,-0.00302257
0.012391,-0.0258692
-0.0222841,-0.0157368
-0.0117976,-0.0197987
-0.0213047,-0.00293785
-0.0260055,0.00290556
-0.0211387,-0.0137635
-0.0232812,-0.0138802
-0.0416147,0.00551932
-0.0543462,-0.0164847
0.00438925,-0.0322422
0.0456058,-0.01627
0.0277633,0.0327396
0.0260438,0.0527673
0.0206912,0.0366062
-0.00263002,0.0178178
-0.0387399,-0.000188019
-0.066957,-0.0202017
-0.0706418,-0.0358942
-0.0675343,-0.0197485
-0.0565277,0.00148271
-0.0419774,0.000982636
0.0286265,-0.0157328
0.102838,-0.0187401
0.139411,-0.01599
0.0597774,-0.0029627
-0.0323188,0.00918632
-0.0510584,0.0115111
0.0148202,0.0339209
0.0469671,0.0293452
-0.00600279,-0.0190374
-0.0290087,-0.0570461
0.0198273,-0.0275555
0.0466205,-0.00248367
0.0543865,0.0105007
0.0534473,0.0419926
0.0135935,0.0545911
-0.0436894,0.0278309
-0.0963401,0.019892
-0.107011,0.00126942
-0.0509858,-0.0333707
0.0114499,-0.0426346
0.0761582,-0.023691
0.030019,0.004125
-0.0400756,0.0133714
-0.00479884,0.0108838
0.0338022,0.00306413
0.0566429,-0.00384175
0.0532618,-0.00801888
0.00403561,-0.0176372
-0.0298663,-0.0153854
-0.029927,0.00134772
0.00290855,0.0133817
0.0292041,0.0120619
0.0394718,0.00690678
0.0380018,0.00565738
0.0154384,-0.00684882
-0.010125,-0.0147079
-0.0544097,0.0258522
-0.0765069,0.0290787
-0.0331195,-0.0041909
0.0166479,-0.0290203
0.01614,-0.0129091
-0.000415492,0.023568
-0.00039003,0.00639974
-0.00480633,-0.0111983
-0.0216519,-0.0107724
-0.030194,-0.00853171
-0.0141273,-0.017828
0.0296983,-0.0218641
0.0565104,0.0289217
0.0404441,0.108536
0.012901,0.0438655
-0.00860823,-0.0627904
-0.0228188,-0.0747469
-0.0354197,-0.0407112
-0.0351567,0.00657833
-0.032147,0.032096
-0.0155089,0.00269449
-0.012557,-0.0155706
-0.0493732,-0.0105836
-0.0634124,-0.00203666
-0.0412875,-0.00296408
-0.0153362,-0.0278714
-0.00288519,-0.0263675
0.0390895,-0.00352498
0.0814798,0.021358
0.0778633,0.0206354
0.0773028,0.0217359
0.0757312,0.0253335
0.0620166,0.00658644
0.0408478,-0.0111656
0.00384244,-0.00575672
0.000187714,-0.000400326
-0.0112154,0.00113175
-0.0429283,0.0135536
-0.061992,0.0192414
-0.071113,0.00689103
-0.0553819,-0.00598412
-0.0166925,-0.0156748
0.00243093,-0.0247753
0.00607052,-0.0121819
0.0397474,0.01203
0.0852003,0.010158
0.0803411,0.00291669
0.0414959,0.01315
0.0153952,0.0115509
-0.043315,0.0194363
-0.0997834,0.027011
-0.0602744,0.00849981
0.0026032,-0.0187929
0.0282958,-0.00459757
0.0283465,0.0116713
-0.0185822,0.00878745
-0.0958786,0.0043541
-0.121425,0.00296517
-0.0714072,-0.00525955
-0.00124362,-0.0183311
0.0574095,-0.0348523
0.10575,-0.0218102
0.0883738,-0.0265983
0.00247974,-0.0267559
-0.0595905,-0.00214993
-0.0563623,-0.00814177
-0.0226326,-0.00573377
-0.00499835,-0.00246334
0.0172208,-0.00822054
0.00665026,-0.00526809
-0.0281972,0.0252781
-0.0308448,0.0206794
0.00785958,-0.0141683
0.0638578,-0.0124448
0.0878209,0.00981549
0.0583367,0.00882196
0.0241078,-0.00054948
0.0194088,0.0220585
0.0188957,0.04569
-0.00083657,0.0526044
-0.00235637,0.0827798
-0.00325358,0.0387772
-0.0172284,-0.0643905
-0.0216818,-0.0950276
-0.0436873,-0.0353817
-0.0571736,-0.00401769
-0.0249755,-0.0396591
0.0157538,-0.0180748
0.0182556,0.000669019
-0.0040298,-0.00461214
-0.00518119,-0.000552123
0.0309447,0.00808766
0.0488787,0.0271143
0.00370763,0.0365076
-0.00397435,-0.00549069
0.000468461,-0.00788414
-0.0039758,0.00672922
0.017886,-0.00385052
0.0401813,-0.0109272
0.0363529,0.00412042
0.000544671,0.0110107
-0.0280706,0.0236281
-0.0384828,0.0605347
-0.0464945,0.0715042
-0.0444255,-0.0348879
-0.0445787,-0.0976439
-0.0468084,-0.0654709
-0.0454818,-0.0511095
-0.0055531,-0.000276672
0.0222646,0.0529894
0.0231251,0.050517
0.0275441,0.0318271
0.0367096,-0.0112346
0.0161408,-0.0237193
0.0159599,-0.00574219
0.0160712,-0.0053561
-0.000772205,-0.0133008
0.0121526,-0.00401629
0.0329374,0.00434996
0.0514798,0.0012971
0.0543828,0.00920172
0.00656943,0.0173228
-0.0316751,0.0123245
-0.0387937,0.00861982
-0.025428,0.00331764
-0.0324856,-0.00364014
-0.0746276,0.00289822
-0.0626826,-0.000196611
0.0171619,-0.0161283
0.0863856,-0.0204358
0.0780426,-0.0178536
0.0218269,-0.012642
-0.0147631,0.00371726
-0.0330096,0.00845587
-0.0354746,0.00356782
-0.0467042,-0.000973143
-0.0412153,-0.00657666
-0.00201817,0.00699401
0.00844823,0.028461
-0.0175288,0.0310893
-0.040874,-0.00273077
-0.0117487,-0.0154764
0.0114276,-0.00521501
0.0122615,-0.00423088
0.0673623,-0.00205078
0.116512,0.00878623
0.103616,-0.00386066
0.0637539,-0.00684474
0.010289,0.0106681
-0.0257221,0.0064225
-0.0380542,-0.023963
-0.0645284,-0.0416579
-0.100525,-0.0266356
-0.0896956,0.0190863
-0.0293091,0.0263415
0.00437627,0.0108411
0.015187,0.000961264
0.0183415,-0.0112358
-0.00308741,-0.0210019
-0.0377424,-0.0338315
-0.0286146,-0.0321518
-0.00875215,-0.00647337
-0.0320887,0.0425056
-0.0451412,0.0752582
-0.0177148,0.0906047
0.0595304,0.0417307
0.0947523,-0.0679843
0.0535927,-0.0358168
0.0455757,0.00901257
0.0506015,0.0145337
0.0547674,0.0575869
0.0598528,0.0381779
0.0328089,-0.00616377
-0.0191628,-0.0202838
-0.0585918,-0.03191
-0.0610263,-0.0780824
-0.0471604,-0.0548342
-0.0286849,-0.0149968
-0.00241605,0.00289382
0.0106892,-0.00876346
-0.0264363,-0.0221194
-0.035659,-0.0212446
-0.024185,0.00332749
-0.0128467,0.028811
-0.0029385,0.0362172
0.00250955,0.0207945
0.017239,-0.00722168
0.0550823,-0.000755471
0.0600358,0.0155577
0.0472213,0.0189723
0.0423653,0.0122247
0.00324149,-0.00763936
-0.0349764,-0.022021
-0.0372475,-0.0150535
-0.0379703,0.00778176
-0.035231,0.0225236
-0.0205206,0.0110483
0.0102594,0.000604456
0.0150922,-0.00111494
0.0105233,0.00796807
0.00560864,-0.0249843
-0.0329283,-0.0426923
-0.061297,0.00219758
-0.0218587,0.076243
0.0383138,0.0540202
0.0103433,-0.0416591
-0.044015,-0.0459487
-0.0158729,-0.0116846
0.0336098,-0.0180062
0.0538582,-0.0177758
0.0496284,-0.00309268
0.0656381,0.0107151
0.0602422,0.014393
0.0251484,0.0032569
0.000972013,0.00266218
-0.0125248,0.00848301
-0.0496003,0.00630529
-0.0783318,0.00184778
-0.0588744,0.00687352
-0.0437572,0.00133818
-0.0212839,0.0121169
0.0289081,0.0269135
0.0501644,0.00180128
0.0826807,-0.0085644
0.0931016,-0.0192285
0.0240132,-0.0292893
-0.0417488,-0.0182442
-0.0931524,0.0264653
-0.0901935,0.0468191
-0.0766896,0.00182887
-0.071017,-0.0391249
0.00133061,-0.0237861
0.0576562,-0.0244094
0.0507766,-0.00911329
0.0283506,0.0288642
0.0292265,-0.00170181
0.0398756,-0.0193585
0.0369098,0.00771721
0.0234246,0.00216114
0.00633014,0.0123166
0.000998821,0.00908089
-0.00243888,-0.00860263
-0.0101245,0.00369205
-0.0270864,0.00474878
-0.0360162,0.0261971
-0.0236135,0.0237252
-0.00265673,-0.0109701
0.00942338,-0.0128287
-0.000263264,-0.00256559
-0.00281412,0.00129217
0.00775349,-0.0118829
0.0127196,-0.028473
0.0179308,-0.0121104
0.0243368,0.0150741
0.0322262,0.021391
0.0253294,0.00720632
-0.0515802,-0.00639623
-0.0891165,-0.00957796
-0.0532645,-0.00741863
-0.0229361,-0.00674522
0.000169582,-0.00483839
0.00425241,0.00221275
-0.00838813,0.0045508
0.0196833,-0.00317203
0.0472581,-0.010084
0.0207145,-0.00757849
-0.0103663,0.00412344
-0.0288805,0.0328799
-0.0317043,0.0365594
-0.000321338,-0.00263134
0.0342926,0.00534892
0.0426656,0.00677657
0.0354116,-0.0150468
0.0285453,-0.0116237
0.0275197,-0.00544547
0.0100623,-0.00376786
-0.0185699,0.00367635
-0.0352267,-0.00583109
-0.0192927,0.0064191
0.00491586,0.0131109
0.0191963,-0.00569978
0.0290526,-0.0146915
0.0157055,-0.00872373
-0.0132622,0.0187438
-0.0199539,0.0290553
-0.0175249,-0.00117771
-0.0303642,-0.0202162
-0.0141827,-0.0012225
-0.00578237,-0.00752672
-0.0277738,-0.0096877
-0.042288,-0.00123536
-0.0214387,-0.0146164
0.0128704,-0.025971
-0.0118537,-0.0121789
-0.0237688,0.0154307
0.0144617,0.0283709
0.0276261,-0.00844261
0.0360019,-0.0319995
0.037433,-0.0131374
0.0138422,-0.00309155
0.0108561,-0.00458385
0.0318512,0.00318481
0.0286713,0.0114025
0.0230587,0.0186698
0.026909,0.0201591
0.0221734,0.0137708
0.0133321,0.0051818
-0.00839574,0.00992579
-0.0469506,0.0133415
-0.0579182,0.0113235
-0.0507896,0.00208675
-0.0132424,-0.0113733
0.0299349,-0.0166501
0.020815,-0.00606784
-0.0161544,0.00464022
-0.0376002,0.00408905
-0.0378776,-0.0027092
-0.00666284,-0.00587525
0.0231617,0.00365593
0.0220168,0.00123473
0.026569,-0.00704824
0.0420999,0.00204057
0.0416857,0.0112907
0.0231323,0.012508
-0.00866943,0.00561514
-0.0317014,-0.00505813
-0.051446,-0.013998
-0.0578231,-0.00889681
-0.0275959,0.00168681
-0.0034695,0.00919957
0.0112029,0.00991622
0.036345,0.00627628
0.0239772,-0.00779255
0.00364064,-0.0132219
0.0138498,-0.0124066
0.0241663,-0.00578228
0.0135584,0.00205179
0.0196696,0.0141989
0.0163048,0.014245
-0.00668576,-0.000382904
-0.0251519,-0.00976137
-0.0175374,-0.00655658
-0.0094534,-0.0128963
-0.033423,-0.0180379
-0.0408268,-0.0123726
-0.0213366,0.00393185
-0.0251115,0.0136893
-0.031902,0.00776827
-0.013963,-0.000285061
-0.00315458,-0.0108739
-0.0137093,-0.0178911
0.00305375,-0.0158911
0.0334768,-0.0108841
0.0663979,-0.00415514
0.0707467,0.0186351
0.0480885,0.0267812
0.0267837,0.00801583
0.0156463,-0.0107237
-0.00441899,-0.00886676
-0.0339262,-0.0133722
-0.0464742,-0.0137214
-0.0168274,0.0108732
0.00649709,0.0443508
0.00543765,0.0478374
-0.000451244,0.0269779
-0.022155,0.0143866
-0.0316435,-0.00669634
-0.0381082,-0.0273432
-0.0387033,-0.032812
-0.0192788,-0.0227645
-0.00594931,0.000936068
0.0120927,-0.00195714
0.025975,-0.00132049
0.0620908,0.0264735
0.0804534,0.0496612
0.0409685,0.0151424
0.0148061,-0.0447922
-0.00384127,-0.0432925
-0.0150422,-0.0118005
-0.0061824,0.0111614
0.0116002,0.00838115
0.0397561,-0.00605672
0.0173279,-0.00914486
-0.022303,-0.000609294
-0.0282488,-0.000554385
-0.0124234,-0.00203219
-0.0072476,-0.00348999
0.000142114,0.0128123
-0.0101607,0.0173794
-0.037628,0.010865
-0.0515826,-5.36e-05
-0.064942,-0.00483477
-0.0624621,-0.00813492
-0.0629105,-0.00979387
-0.0385475,-0.00329663
0.014095,0.00643741
0.0395474,0.003359
0.0550243,-0.00193558
0.0771101,-0.00605952
0.0734658,-0.00200403
0.0687909,-0.0082315
0.0653145,-0.00767455
0.0237908,0.0175005
0.00679286,0.0348872
0.0287255,0.0219405
0.0293829,0.00520371
-0.0113253,-0.00788301
-0.0399278,-0.0185225
-0.0427729,-0.0132337
-0.045217,0.00168743
-0.0388113,-0.00775176
-0.0404138,-0.0116013
-0.0704127,-0.000853514
-0.0686689,-0.0179988
-0.029113,-0.0376432
0.00756422,-0.0105741
0.0221611,0.0128578
0.0134451,-0.0150038
0.00554248,-0.0235396
0.00916552,-0.00945431
0.0194299,0.0100487
0.0326781,0.0212518
0.0272186,0.0218225
0.0199911,0.00814527
0.0128576,-0.00677793
0.0042906,-0.00437259
-0.011707,0.00226445
-0.00314953,-3.6e-05
0.0228919,0.0336486
0.0149507,0.0324745
-0.0162196,0.00752524
-0.026269,0.00551185
-0.0145754,-6.63e-05
0.0105629,0.0282273
0.0289296,0.0361702
0.0192369,-0.00844046
-0.0258206,-0.026018
-0.0370769,0.0010822
0.00782799,0.00551866
0.0209249,-0.0193818
0.00893218,-0.0236009
0.0329979,-0.0093606
0.0314205,-0.00923082
-0.00649319,-0.0174298
-0.0459082,-0.013929
-0.0413075,-0.0117104
-0.0310641,-0.00154288
0.00147561,0.0082402
