Comp Ch 3,Comp Ch 4
0.0304325,0.00686267
0.00115271,0.013297
-0.0174972,-0.0178876
-0.00884727,-0.0296113
-0.0108807,-0.0241057
-0.00610078,-0.0068116
0.00748142,0.00320781
-0.0120307,-0.00352942
-0.0319863,-0.0101569
-0.011694,-0.0153638
0.0124684,-0.0113894
0.00992827,0.0203255
-0.00270296,0.0383186
0.00971697,0.00501355
0.0150968,-0.0161553
0.00417609,0.00568147
-0.00622365,0.0288523
-0.0195219,-0.0078907
-0.0393454,-0.0443336
-0.0668446,0.026971
-0.0694021,0.0424216
-0.0504483,-0.0299156
-0.0176827,0.0289173
0.0174562,-0.0190689
0.0262523,-0.0443711
0.0402647,-0.00948577
0.0655358,0.00977359
0.0705666,0.0208846
0.0581293,0.00307211
0.0441209,0.00353616
0.0271517,0.0160792
-0.00193201,0.017198
-0.0249192,0.00846888
-0.0182408,-0.0128008
-0.0129892,-0.0229987
-0.0312553,-0.0245667
-0.050003,-0.0211443
-0.0658004,-0.0169528
-0.0647588,-0.00884964
-0.0412856,0.00342037
-0.01476,0.0185211
0.0190986,0.0188819
0.0531296,0.00547113
0.0854402,0.00266443
0.107665,0.0106059
0.0990713,0.0149299
0.0659663,0.031387
0.0279972,0.0398553
-0.0207688,0.00668552
-0.0389056,-0.00833374
-0.0420306,-0.0121594
-0.0484582,0.0110718
-0.0485739,-0.0171334
-0.0390078,-0.0698179
-0.0596424,-0.0415205
-0.0696267,0.000957586
-0.0425256,0.0226726
-0.0349024,0.0225253
-0.0363774,0.0180221
-0.00881164,0.0072722
0.00989227,0.00534664
0.0107764,0.00429195
0.0153762,0.000798076
0.0319282,0.00936676
0.0353848,-0.000697628
0.0296687,-0.0164934
0.0248217,-0.012901
0.0352963,-0.0133557
0.0508892,-0.0234592
0.0450272,-0.0298269
0.0358709,-0.0179088
0.0100601,0.0203609
-0.0163154,0.029171
-0.0205156,0.0165776
-0.0150025,0.00584903
-0.0160022,0.00794881
-0.0242471,0.0223203
-0.0330458,0.005629
-0.045798,0.0396444
-0.0386893,0.112059
0.0100338,0.0180991
0.0384425,-0.0705895
0.0341349,-0.0596373
0.0135693,-0.0433396
-0.029151,-0.036374
-0.0583417,-0.033441
-0.0445503,-0.0235285
-0.0226495,-0.0127297
-0.0128423,-0.00522704
0.0221575,0.00768087
0.05868,0.0103421
0.0576917,-0.0048269
0.0440687,0.0121099
0.0337715,0.016738
0.0222325,0.000497349
0.00862243,-0.00228906
0.0157478,0.00490877
0.0329775,0.0060495
0.0287364,0.0117772
0.00258004,0.00910989
-0.0350866,0.00914713
-0.0592694,0.0321791
-0.055567,-0.00112891
-0.0345683,-0.0370734
-0.0176398,-0.0183121
-0.00302913,0.00207192
0.0148564,0.012852
-0.000295014,0.000869407
-0.0288175,-0.0082602
-0.0351094,0.00802878
-0.0230918,0.0210748
0.00481311,0.00281503
0.0275229,-0.00990647
0.0469173,-0.00249807
0.0530454,0.00568407
0.0312529,0.00336204
0.00234048,0.00208465
-0.0168113,0.00236807
-0.0231127,-0.000532864
-0.0230038,-0.000648067
-0.0168022,-0.00550483
-0.0166809,-0.019748
-0.005254,0.00135068
0.00167735,0.0305639
-0.0130615,0.0392756
-0.00641685,0.00620956
0.0128874,-0.0172735
0.0121443,-0.0143788
0.00363217,-0.0254291
0.00351318,-0.0261859
0.0155256,0.00183756
0.0181012,0.0260383
0.0112143,0.00581233
0.0046048,-0.0185857
-0.00684159,-0.0240829
-0.0224536,-0.00097521
-0.034199,0.0292257
-0.0281475,0.0134737
-0.0138998,-0.0105629
0.016985,-0.014194
0.0321775,-0.0100445
0.0222629,-0.0118176
0.0114167,0.0107458
0.00960938,0.0530171
0.00712252,0.0666592
0.00600999,-0.0236964
0.0139167,-0.0301056
0.026913,-0.0320025
0.0192458,-0.0328522
0.00391871,-0.015183
-0.00836974,-0.0123447
-0.0245669,-0.00660653
-0.04273,0.0358545
-0.0444747,0.0820424
-0.0280133,0.00153307
-0.00187312,-0.0507608
0.0288961,-0.0232482
0.0297683,0.00275973
0.0104218,0.0222931
0.00210415,0.0255713
-0.00279677,0.00256216
-0.00948425,-0.0280233
-0.0128339,-0.0307128
0.00194539,-9.95e-05
0.0121982,0.00674864
0.00447769,-0.00441997
-0.00314172,-0.00806548
-0.0159712,-0.00398438
-0.0281927,-0.00995513
-0.0330189,-0.0244058
-0.0259907,0.00456513
-0.0171198,0.0365967
0.024247,0.00939967
0.0546859,0.000592256
0.0580033,0.00611934
0.0721918,0.0260674
0.104649,0.0336359
0.0920854,-0.00363027
0.050143,-0.0257559
0.00572877,-0.0195412
-0.02925,-0.0135348
-0.069422,-0.0121124
-0.0938944,-0.00757899
-0.092155,-0.00212569
-0.0793295,-0.00660673
-0.0659964,-0.0188647
-0.0556238,-0.0121535
-0.0377122,0.010573
-0.0175697,0.0107874
0.0108518,0.026776
0.0229625,0.0353061
0.00889851,0.0282952
0.00332991,-0.00239148
0.00810049,-0.0239079
0.00449244,-0.00797954
-0.0026534,-0.00271493
0.00705741,-0.00579738
0.0298183,-0.00399943
0.0342834,-0.00145615
0.0319727,0.00197235
0.0378821,-0.00337665
0.0351394,-0.00901625
0.0214151,-0.00972358
0.00244273,-0.00705299
-0.0153084,0.002156
-0.00290878,-0.00349194
0.0104609,0.0230338
0.0153943,0.0167356
0.0110125,0.00681137
0.00993014,0.0210001
0.00180305,0.0203795
-0.0201366,-0.000202457
-0.0467589,-0.0378864
-0.0555935,-0.0210597
-0.0461075,0.00336745
-0.0354153,0.00490557
-0.00687211,0.0106649
0.0391858,0.0097039
0.0844151,-0.00175863
0.103413,-0.0135246
0.0803172,-0.0115155
0.0189918,0.0115289
-0.0201751,0.0330503
-0.0388791,-0.0110273
-0.0790289,0.0304332
-0.0853132,0.0224058
-0.0506703,-0.0179412
-0.0109681,-0.0531694
0.000718084,-0.0527734
0.0135738,-0.013478
0.0463642,0.00420667
0.0599015,-0.00880528
0.0300696,0.00749883
-0.0175393,0.0381984
-0.0671289,0.0309338
-0.0505148,-0.028077
-0.0153152,-0.0368647
-0.00162768,-0.0148854
0.0131412,0.000746851
0.0525042,0.0114568
0.0657652,0.0107266
0.0292753,0.00241116
-0.00956689,0.00495145
-0.0145725,0.0182953
-0.031823,0.0237439
-0.0373369,0.0187228
-0.0303634,0.0539046
-0.0130405,-0.0201379
-0.000721239,-0.0838808
0.00844541,-0.0135652
0.00930943,0.0567028
0.0031745,0.00348239
-0.00455681,-0.0384006
-0.00688189,-0.0152241
-0.000583286,-0.0106251
0.0136732,-0.0149307
0.0325616,-0.00478903
0.0307231,0.00567858
0.00674441,0.0077829
-0.00465438,0.0136615
-0.00483304,0.0134057
-0.0159996,0.00229111
-0.0402493,-0.0041853
-0.0360188,0.000505266
3.86e-05,0.0128663
0.0235629,0.0278376
0.0391277,0.0172296
0.0329608,-0.00437538
0.0150226,-0.0189891
-0.00206913,-0.0100015
-0.0136045,0.0117782
-0.0155297,0.0034159
0.0066613,-0.00250191
0.0226213,0.0167882
0.0149437,-0.00533419
-0.00324685,-0.0255809
-0.00598913,-0.00858756
-0.0150575,-0.00254983
-0.031685,-0.00721967
-0.0363169,0.0143486
-0.00127528,0.0398169
0.0275768,0.0168146
0.0257182,-0.0216834
0.0165332,-0.0173998
-0.000111407,-0.0126606
-0.0117071,-0.0196922
-0.0161865,-0.0100528
-0.0145276,0.0107621
-0.0045176,0.0067505
0.0174636,-0.00352247
0.0239102,0.000587801
0.00665176,-0.000545587
-0.00468949,-0.00428857
-0.00900462,-0.00275016
-0.0209708,-0.00311787
-0.0290296,-0.0112022
-0.013808,-0.0109369
0.0154868,0.00105647
0.0265708,0.00828202
0.0268572,0.00732571
0.0260848,0.0196771
0.00679818,0.0108953
-0.0145461,-0.0059222
-0.0188231,0.00394852
-0.0226227,0.0323381
-0.00871995,0.0279399
0.0233057,-0.0125581
0.0289239,-0.024293
0.00256491,-0.0250358
-0.0119973,-0.0106235
-0.00589117,-0.0109454
-0.00762295,-0.0188911
-0.0220892,-0.00148228
-0.0197137,0.0388387
0.00384653,0.027801
0.0128979,-0.0388517
0.00682845,-0.0447457
-0.0044373,0.0062177
-0.0128346,0.0247949
-0.0236279,-0.002565
-0.0176557,-0.00260714
-0.0160071,0.0420799
-0.00128318,0.0674354
0.0289984,0.0137167
0.0242549,-0.0377475
0.0119832,-0.0247599
0.0082337,-0.0165476
-0.00385889,0.00472832
-0.0116578,0.0221753
0.00562389,0.00210438
0.0314914,-0.0325889
0.0350934,-0.0262106
0.0181083,-0.00509435
0.0102027,0.00210207
-0.00168852,-0.0135637
-0.031349,-0.0196778
-0.0431194,-0.010582
-0.043044,0.00250812
-0.0340532,-0.00943878
-0.00496007,-0.00379153
0.0135077,0.0154429
0.00699716,0.0141887
-0.00459813,0.00672047
-0.0114992,-0.000988801
-0.0338812,-0.00131645
-0.050775,0.01477
-0.0192562,0.0223992
0.046641,0.0167764
0.0829847,0.0157171
0.0617946,0.0156158
0.0324285,0.0158767
0.00215401,-0.0151577
-0.0164188,-0.0221878
-0.0148582,-0.0124103
-0.0128766,-0.00621264
-0.00486919,-0.00311292
0.0186848,-0.002809
0.0259075,-0.00167106
0.0168998,0.00346764
0.0117878,0.0161482
-0.00251974,0.0114092
-0.0343069,-0.00128687
-0.047123,-0.0150749
-0.0221089,-0.0250403
0.00535776,-0.00192613
0.0095856,0.00777038
0.0178965,0.00898549
0.0343762,0.00537003
0.0308856,-0.0026731
0.0112243,-0.00487698
-0.0144442,0.00096504
-0.0394122,-0.00183476
-0.032993,-0.00529104
0.0182618,-0.000676108
0.0472971,0.00462965
0.0377721,0.016922
0.0185531,0.0312803
-0.0129133,4.22e-05
-0.0451752,-0.0322702
-0.0467129,-0.0171073
-0.0277005,-0.0146872
-0.0122516,-0.00825312
-0.0120122,0.000988397
-0.00420687,0.0225283
0.00149742,-0.0103754
-0.00446848,-0.024448
-0.00811935,0.00766753
-0.00523705,0.0299903
-0.00808766,0.0581414
0.0161336,0.0259743
0.0312337,-0.0350626
0.0104727,-0.0199643
-0.0155487,-0.000323874
-0.013436,-0.0333875
-0.0163209,-0.0359574
-0.0431589,-0.0172318
-0.0284981,0.00989957
0.0251694,0.0295353
0.0462938,0.0231534
0.0467821,0.000766538
0.0451156,-0.0108301
0.0401316,-0.0122148
0.0182861,-0.0108439
-0.015248,-0.00647072
-0.0224292,0.00399283
-0.0114409,0.0171284
0.00722827,0.0164462
0.0049095,0.00508746
-0.015223,-0.0133376
-0.0167765,-0.00683619
-0.01483,-0.0114293
-0.0364185,-0.0134629
-0.0487747,0.0094907
-0.0170141,0.00463606
0.0267013,-0.00842568
0.033516,-0.000580491
0.0317124,0.0110543
0.0232052,0.0111834
0.00112572,0.00331057
-0.0157791,0.0140652
-0.0122225,0.00020207
-0.00795842,-0.00695598
0.0093939,-0.0011479
0.0323029,0.00337018
0.0247284,-0.00450054
0.00305092,-0.0127854
0.00445294,-0.00318843
-0.00906735,-0.00391718
-0.035745,-0.0218379
-0.0474514,0.0187424
-0.0246253,0.0337006
0.00538739,-0.00398191
0.0215987,0.0125523
0.0387179,0.0138336
0.0266796,0.0195006
0.00597459,0.0280284
-0.00832065,-0.00238636
-0.0131632,-0.0179653
-0.00970739,-0.0112292
0.00740902,-0.00466889
0.0248951,-0.011418
0.0176234,-0.0155776
0.00695724,-0.0140756
-0.00379522,-0.0106435
-0.021214,-0.0187561
-0.0390143,0.00289357
-0.0393286,0.0440717
-0.0123322,0.0491811
0.00212572,-0.0222639
0.00155133,-0.0450643
0.0172429,-0.0317726
0.0272027,-0.0209557
0.00436065,-0.00778025
-0.0210212,-0.00111706
-0.00531819,-0.0151482
-0.000502279,-0.00851029
-0.00028721,0.0619512
0.018778,0.127355
0.0286587,0.00124282
0.0140844,-0.0560829
-0.0119293,-0.0556904
-0.0319366,-0.0384625
-0.0208431,-0.00913402
0.000157328,-0.00109351
0.00440319,0.000168307
-0.000739835,-0.00223522
0.00150031,0.00213325
0.000588383,0.0135314
-0.0198177,0.018172
-0.0503116,0.0219614
-0.033367,0.0453615
0.00193543,0.0518081
0.0361733,0.0452933
0.0665293,-0.0289337
0.0628235,-0.0812215
0.016112,-0.0515285
-0.00911396,-0.0194998
-0.0154175,-0.00165511
-0.0322596,-0.00768784
-0.03693,-0.0225413
-0.0227833,0.0124008
0.00578913,0.0355188
0.0168079,0.0369742
0.0236865,0.0233712
0.0248781,-0.0216342
0.0158584,-0.0334969
0.0140222,-0.0294482
0.0199038,-0.0228621
-0.00464148,0.0061306
-0.010526,0.0341111
-0.00253528,0.0231244
-0.0128917,0.00557588
-0.0238865,0.00377239
-0.0197647,0.0149916
-0.0176997,-0.00526679
-0.0118373,-0.0303474
-0.0104511,-0.0032069
0.0227341,0.000580329
0.0449378,0.00100428
0.0380878,0.0301407
0.0265695,0.0291234
0.0134646,-0.0122064
-0.0132975,-0.0136227
-0.0215017,-0.000170171
-0.0114525,0.00149432
-0.0025502,0.000909844
0.027866,-0.00644542
0.0364647,0.00100642
0.00432862,0.0012099
-0.0389954,-0.00267
-0.0713309,-0.0115866
-0.0894744,-0.0236812
-0.0827815,-0.0257896
-0.0389478,-0.00586628
0.0131042,0.0233477
0.0348635,0.0237051
0.054944,0.00865006
0.059183,0.00308963
0.0291225,0.000534382
-0.00681756,-0.00788141
-0.0211632,-0.0138241
-0.0262216,-0.019047
0.0102677,-0.0167233
0.0429296,0.0167745
0.0276102,0.0391188
-0.00251862,0.0503201
0.00701912,0.0391438
0.0143739,-0.0206635
0.00582077,-0.0324349
-0.00725107,0.0161653
0.0103082,0.0168604
0.0133263,0.00539249
-0.00292927,0.0178644
0.0045357,-0.0229579
-0.0119343,-0.0386174
-0.0193283,-0.0315704
-0.018844,-0.0346173
-0.0158967,-0.0472898
-0.0168544,-0.00712941
-0.00730642,0.0965901
0.0192583,0.0835681
0.0237876,-0.0122968
0.016468,-0.0648925
0.0100465,-0.0455322
0.0027944,-0.0140435
-0.00461345,-0.00185481
-0.00802124,-0.00720802
0.00781616,-0.00128214
0.0173935,0.0049154
0.0161926,-0.00049662
0.0202974,-0.00446795
0.00702682,-0.00221708
-0.0200796,0.00448177
-0.0412286,0.00194404
-0.0314548,0.00635473
-0.00707729,0.0171496
0.00605929,0.0141937
-0.00295468,0.0294615
-0.0105946,0.0212623
-0.00663875,-0.030711
-0.0157116,-0.0270771
-0.0496947,-0.00190848
-0.0776637,-0.00782551
-0.0196101,-0.00967829
0.0438501,0.0572621
0.0605873,0.124537
0.0565726,-0.00352869
0.0171234,-0.0964497
-0.0183914,-0.0393499
-0.00609068,-6.13e-05
0.0188997,-0.00467264
0.0178675,0.0052714
0.0152794,0.0262681
0.0173037,0.0304248
0.0308968,-0.00577385
0.0259694,-0.0244746
0.00290922,-0.0353228
-0.0202433,-0.0400424
-0.0423344,-0.0274051
-0.0444003,-0.0168085
-0.0281615,0.00142312
-0.0280057,0.0120532
-6.88e-05,0.00302592
0.0465564,0.0135565
0.0222302,0.0551469
-0.0200694,0.0428973
-0.0266821,0.00847482
0.00922084,-0.0105773
0.0238143,0.00136888
0.0207982,0.0427005
0.0178746,0.0593171
-0.00601906,-0.0383178
-0.0372845,-0.0821924
-0.0291407,-0.0426178
-0.00821577,-0.027607
-0.00961496,-0.0311276
-0.013003,-0.0121014
0.0323949,0.00283112
0.0719197,0.0172512
0.0351151,0.0627563
0.023064,0.0386109
0.022453,-0.0133048
-0.000805286,-0.0191504
-0.0173774,-0.0194474
-0.0148051,0.000746081
-0.0234822,0.00460021
-0.0206392,-0.000669626
-0.0130319,-0.00335086
-0.0166962,-0.0274104
-0.0338882,0.0143401
-0.0373286,0.0846773
-0.0168935,0.0482939
-0.0128065,-0.0407727
-0.0159379,-0.015814
0.0100109,-0.00420271
0.0649234,-0.00917052
0.0866116,0.0686307
0.0500995,0.0603085
-0.0213984,-0.041506
-0.067783,-0.0704384
-0.0506122,-0.041315
0.00334258,-0.0298955
0.043637,-0.0290557
0.0585882,-0.0225493
0.0385384,-0.0057308
-0.00965215,0.00406101
-0.024669,-0.00362045
-0.0148433,0.0222466
-0.027372,0.0732972
-0.0489663,0.114133
-0.0604189,0.0212211
-0.0455868,-0.085336
-0.0267233,-0.0783199
0.00765212,-0.0375616
0.0287557,0.0435648
0.0481707,0.0525554
0.0696836,-0.00279842
0.0624314,-0.00705018
-0.0189225,-0.00193172
-0.0640074,-0.0174372
-0.0383319,-0.00576778
-0.00951545,0.0202363
0.00894605,-0.0148758
0.0383186,-0.0500437
0.0230331,-0.0612123
-0.00408507,-0.0372518
0.0137507,-0.00204328
0.0389502,0.0399861
0.0136404,0.0310395
-0.0518914,0.00100283
-0.0529995,0.0141586
-0.0211017,0.0181856
0.00366793,0.0199038
0.0283753,0.0408846
0.0309857,0.0327353
0.00549048,0.0149427
0.0130134,0.00847844
0.0412791,-0.0154294
0.027856,-0.0323067
-0.00632639,-0.0239929
-0.00690677,0.00641184
-0.00863099,0.0081539
-0.0144417,-0.04037
-0.0126453,-0.0477132
0.00266778,0.00601997
0.0108967,0.0370527
0.0345368,0.00127079
0.0455785,-0.0340409
0.0229871,-0.0129081
-0.00998188,-0.00488574
-0.0441168,0.0106959
-0.0805072,0.0458675
-0.0775084,0.0502205
-0.0306833,0.00228068
-0.0106737,-0.00123934
-0.0119546,-0.00637861
-0.00592277,0.061279
-0.0494076,0.015364
-0.0687441,-0.00911317
-0.0624138,0.109813
-0.0183529,0.0120812
0.050278,-0.0203858
0.110053,-0.0805712
0.117869,-0.114411
0.110545,-0.0658096
0.0579607,-0.00715659
-0.00476294,-0.0202407
-0.00770535,-0.066889
0.0102536,-0.0344971
0.0302265,0.00586491
0.057365,0.032532
0.0311282,0.0474488
-0.0229115,0.0844713
-0.0380162,0.0353246
-0.0633852,-0.0721558
-0.111932,0.0286153
-0.132357,0.0453777
-0.0558368,0.039658
0.0192838,0.125967
0.0465082,-0.00994819
0.0227226,-0.0735175
-0.0126045,-0.03747
-0.0121678,-0.0526272
-0.0131108,-0.032932
-0.00688755,-0.00992035
-0.000526885,0.030198
0.036624,0.0533587
0.0855161,0.0881879
0.0867395,-0.0329248
0.0475558,-0.128334
0.0110361,-0.0570557
-0.0197688,-0.0319168
-0.0571692,-0.0779955
-0.054799,-0.0183034
0.0100639,0.0732615
0.0365177,0.0302254
0.025666,-0.0050715
0.0220743,0.00745902
0.015455,0.00323818
-0.0033657,0.00826841
-0.013221,0.0312113
-0.0138738,0.0392179
-0.0215131,0.0325739
-0.0283439,0.0397392
-0.0626427,0.0234388
-0.104177,0.0537445
-0.0902811,0.0752944
-0.0194584,0.0339511
0.0202649,-0.0162303
0.00991897,-0.128734
0.0445781,-0.144672
0.092259,-0.0483999
0.0912313,0.00893507
0.0664295,-0.000496484
0.0273296,0.024494
0.010115,0.0191721
-0.00912235,-0.0199153
-0.00080149,0.00616014
0.0276276,0.0401682
0.0127857,0.0112941
-0.0454145,0.0117267
-0.0784811,-0.0155037
-0.106905,-0.0426514
-0.0698351,0.108838
0.0471492,0.0263444
0.0757051,-0.0806317
0.0112252,-0.0272094
0.0124299,0.0363542
0.0101213,0.120807
-0.0184617,0.0366803
0.0022341,0.0213213
0.0245906,-0.0278059
-0.00521879,-0.0704379
-0.0279976,-0.0475668
-0.0234743,-0.0992084
-0.0378769,-0.0554709
0.0194348,-0.0268754
0.102288,-0.0103106
0.0841743,0.0321107
0.0301366,0.0489879
-0.0172727,0.051979
-0.0682676,0.0420789
-0.0943402,0.059563
-0.03517,0.0194219
0.0523177,-0.0420417
0.0774043,-0.020188
0.0258881,-0.0361416
-0.0294502,-0.0283307
-0.041249,-0.0072548
-0.0504211,-0.00150553
-0.0158101,-0.0175985
0.0253206,-0.0182697
0.0276554,0.0301595
0.0621289,0.0182541
0.0557493,0.00884244
-0.032301,0.0879269
-0.0450848,0.0377647
-0.0116043,-0.0755662
-0.016133,-0.0774096
-0.0625751,-0.0461188
-0.0535534,-0.0137059
-0.00502409,0.00532974
0.00635439,-0.0200748
-0.0105523,-0.0312155
-0.0969918,0.0400439
-0.191314,0.086533
-0.178771,0.133866
-0.0636085,0.0548404
0.105233,-0.0713757
0.205982,-0.0344101
0.261124,-0.0239617
0.236708,-0.0247339
0.12612,0.00132696
0.0269834,0.0645839
-0.0253613,-0.00775394
-0.0638159,-0.0893517
-0.0376091,-0.0962091
-0.00816693,-0.00944794
-0.0269243,0.102272
-0.0547568,0.0427648
-0.029109,-0.00350537
0.0411547,-0.0403391
0.037618,-0.0275003
-0.0180704,-0.0491006
-0.113489,-0.0170391
-0.179857,0.159305
-0.126785,0.228431
0.0225008,0.0430034
0.181545,-0.148126
0.207692,-0.121096
0.142804,-0.0488775
0.0642181,-0.0753529
0.0357265,-0.0835946
0.00566652,0.015094
-0.0291895,0.0451054
-0.101204,0.00688995
-0.137674,0.033103
-0.138897,0.121987
-0.117466,0.0605115
-0.0634079,-0.0966976
-0.0747343,-0.0227814
-0.034287,-0.0125341
-0.0040071,-0.0423261
-0.00973865,0.0171512
-0.0103106,0.0286197
0.0274007,-0.0131877
0.0596833,0.0191438
0.0490465,0.0467426
0.075547,-0.0594575
0.0960756,-0.0188837
0.0633258,0.0579656
0.0873814,-0.00675746
0.123525,-0.0191939
0.115948,-0.00107464
0.0579959,-0.0183502
-0.0298396,-0.00883383
-0.122165,-0.0181558
-0.109721,-0.0244051
-0.0814713,-0.00691204
-0.037934,0.109905
-0.0657915,0.0881574
-0.101731,-0.0427546
-0.0230586,-0.0347109
0.0180033,0.01578
-0.00501468,-0.014119
-0.0281982,-0.0419684
-0.0280785,-0.0340666
-0.0189139,-0.00611856
-0.0819841,-0.0627679
-0.0232595,-0.00016163
0.115822,0.116629
0.178651,0.053577
0.106062,-0.0494591
-0.0291691,-0.0508496
-0.121885,-0.0345364
-0.113552,-0.0379521
-0.0215924,-0.015779
0.071323,0.0406886
0.0897056,0.0283801
0.0170901,-0.0178475
0.00710129,0.00244849
0.0622139,0.0478849
0.107969,0.0165537
0.119898,0.0169857
0.075313,0.0285995
-0.0282937,0.012239
-0.112842,-0.00520144
-0.109984,-0.0346372
-0.074948,0.0117902
-0.0268804,0.0822729
-0.0398093,0.048475
-0.0182287,-0.00820819
0.0265731,-0.080647
0.0646099,-0.143913
0.0762543,0.0104735
0.0277624,0.131848
0.0137487,-0.0130408
0.0111899,-0.0914227
-0.0985853,-0.0409594
-0.161468,-0.017174
-0.122755,0.0118141
0.0255554,0.0316572
0.140433,-0.00116267
0.117756,-0.00694356
0.0241192,0.0683154
-0.00383864,0.0280528
0.0220117,-0.00231212
0.0737301,0.0141988
0.0515138,0.00497615
-0.00902975,-0.0461424
-0.0297227,-0.0683726
0.00459176,0.0161925
0.00970183,0.111997
-0.0471192,-0.0430938
-0.136223,-0.0811234
-0.191204,-0.0440127
-0.0868506,-0.0526754
0.0749559,-0.022531
0.0306804,0.0674991
-0.0888717,0.105893
-0.0809181,0.132688
-0.0252293,0.115481
0.0315693,-0.0158782
0.0468413,-0.158406
0.0377412,-0.0848212
0.0778004,-0.0215966
0.110335,-0.0264334
0.0607923,-0.038714
-0.00638754,-0.036494
-0.0293621,0.00185399
0.0602889,0.0624381
0.0618351,0.0303548
-0.00387263,0.0727286
-0.017254,0.181669
-0.0190726,-0.0108717
0.0110408,-0.00637298
-0.000169134,-0.115772
-0.029938,-0.103055
-0.0416376,-0.0129213
-0.00408605,0.0476098
0.0180192,0.0894408
0.0484535,-0.0389499
0.068482,-0.100593
0.00900056,-0.0712405
-0.128728,-0.0197337
-0.18181,0.0295855
-0.151882,0.103116
-0.0667557,0.0517779
0.0669962,-0.0396376
0.0940718,-0.0738269
0.0557225,0.00999688
0.101153,0.0792881
0.183288,-0.0360192
0.167691,-0.0271222
0.0657155,-0.00208666
-0.00585134,-0.0244213
-0.0430053,-0.0320113
-0.0853432,-0.031487
-0.0608651,-0.0219379
0.0383131,0.0168159
0.0705872,0.0312924
0.0102501,0.0185894
-0.060308,0.0270716
-0.100784,0.0243817
-0.0670464,0.0213165
-0.0220299,0.0640855
0.0257899,0.0213445
0.0131586,0.038637
-0.0702135,-0.036607
-0.095067,-0.049765
-0.0735042,-0.00202453
0.0221919,0.00282092
0.0642597,-0.0221828
0.049656,-0.0376775
0.0010342,-0.0405262
0.0354014,0.0304901
0.127699,0.0679373
0.0827632,0.0853063
-0.0601564,0.189487
-0.110594,0.00610145
-0.0897434,-0.137344
-0.0232443,-0.0410459
0.0219118,-0.127309
0.00433874,-0.053631
0.0357829,-0.0310853
0.061857,-0.00682748
0.0182944,0.0152431
-0.0841785,-0.00515677
-0.195549,-0.0132072
-0.126346,-0.00238909
0.0150901,-0.0239576
0.0161106,0.0175749
-0.0768829,0.0807675
-0.0753573,0.0139936
0.07958,-0.0591196
0.237958,-0.0368559
0.273249,-0.0177758
0.166337,0.0113712
0.041327,0.0391548
-0.037051,0.0172638
-0.0191066,0.021711
0.0209797,0.147262
0.00694008,0.0875287
-0.0244324,-0.0781554
-0.0805804,-0.0657205
-0.0539216,-0.0261382
-0.00443261,-0.0303845
-0.0517038,-0.0441089
-0.0949559,-0.020494
-0.0623887,0.0482969
-0.0391897,0.139713
-0.0141656,-0.000834559
-0.0145622,-0.0798369
-0.0160226,-0.0991981
5.6e-05,-0.0289049
-0.0359526,0.0460237
-0.027525,-0.0324427
0.0429502,-0.0585401
0.0784278,-0.0183039
0.0570529,0.0182281
0.0415746,0.0503714
0.051975,0.0691646
-0.0328325,0.0746371
-0.100247,-0.0503348
-0.0636235,-0.0487305
0.0461042,-0.0107851
0.18562,0.0120935
0.216888,0.0529277
0.10593,0.0475681
0.0173617,-0.0172246
-0.0177897,-0.0488084
-0.077813,-0.0161449
-0.116511,0.00109618
-0.112094,0.00840772
-0.0917463,0.0500575
-0.102826,0.0219845
-0.0887689,-0.0420854
-0.0640217,-0.0371833
-0.0572145,0.0479353
-0.00943286,0.0409798
0.0507544,-0.117012
0.049014,-0.178224
0.00915784,-0.0305315
0.00127986,0.167205
0.0378703,0.0970241
0.0758929,0.079769
0.098272,-0.0115878
0.0410152,-0.0722253
-0.0350178,-0.0320893
-0.0127449,-0.00096181
-0.00743354,0.105089
-0.0585976,0.111909
-0.0687681,-0.0566236
0.0171281,-0.0842876
0.0474087,-0.088492
0.0157466,-0.092525
0.061089,-0.0818601
0.0925175,-0.00529466
0.0274097,0.0489812
-0.0686033,0.0536832
-0.0961907,0.0440673
-0.0783672,-0.00577631
-0.0139451,-0.0338828
0.0714317,0.0106972
0.0641064,0.0426001
0.030788,0.0227986
0.0329086,0.0581003
0.0781307,0.0675227
0.0924488,0.0105055
0.0613619,0.0215074
0.00212057,0.00228847
-0.0648322,-0.0351884
-0.108269,-0.0692036
-0.103513,-0.0363936
-0.0949382,0.111905
-0.0561369,0.132137
-0.00375654,-0.0722386
0.022617,-0.13125
-0.0148912,-0.0228296
-0.0566512,0.027295
-0.0553357,-0.0397839
-0.00309986,-0.0646705
0.0810367,-0.038744
0.0882075,0.0201452
0.0198839,0.0496313
-0.000456756,-0.0278453
0.0235813,-0.0231102
0.0479278,0.0261517
0.0256443,0.0122131
-0.0301821,-0.00652771
-0.0769123,-0.00281779
-0.0551343,0.0386616
0.0424923,0.0208923
0.150694,-0.0462579
0.143862,-0.0248743
0.0789303,-0.0283073
0.00265846,0.0136974
-0.0261179,0.072326
-0.0688535,0.0471689
-0.0888311,0.033615
-0.0784325,0.0480892
-0.035328,0.0460302
0.0571635,-0.0107775
0.0654307,-0.072612
-0.0433752,-0.0826484
-0.0993534,-0.0861238
-0.109639,-0.0527688
-0.0573507,0.00113807
0.00145399,0.0308172
0.0213766,0.0249812
0.0471787,0.0181841
0.0402965,-0.0177321
0.0234525,-0.0230213
0.0263902,0.0204818
0.00701012,0.0430361
-0.023013,0.00768336
-0.0426062,0.00721452
-0.0265257,0.0129511
-0.0275139,0.00822119
-0.0140858,0.10437
-0.0170486,0.117623
-0.0218838,0.0327659
-0.0116268,-0.0564291
-0.00955308,-0.123867
0.00219583,-0.0473434
0.0559161,0.0611537
0.0710424,0.00806571
0.0948821,-0.0201006
0.107575,-0.050401
0.0380718,-0.0792393
-0.0339757,-0.0347028
-0.0618405,-0.0243499
-0.0551138,0.00175575
-0.0117465,0.0464011
0.00801938,0.0772033
0.00838732,0.017262
0.0296418,0.0104787
0.0493689,0.0139133
0.0535266,-0.0351863
0.0244197,-0.0520118
-0.0106067,-0.00265236
-0.045651,0.00639773
-0.0718286,0.00524424
-0.0571079,0.0115246
-0.0267282,0.0275183
-0.0353821,0.0104232
-0.0345062,-0.0187965
0.0234575,-0.0460843
0.0616609,-0.0538039
0.0474964,-0.0391372
0.00428579,-0.0129816
-0.028337,-0.00530996
-0.0129932,0.00862711
-0.0135477,0.0496762
-0.0459463,0.0555241
-0.021127,-0.0190001
-0.0182566,0.0464206
-0.00866752,0.0954795
-0.0206906,0.0223936
0.0117322,-0.0171884
0.0796938,-0.0183628
0.0633321,-0.00271187
0.0274737,0.0180315
0.0402293,0.00528382
0.0579851,-0.0293313
0.0265936,-0.030368
-0.0071675,0.0140128
-0.00636783,0.0198261
0.011272,-0.0422228
-0.0185121,-0.00591601
-0.0685457,0.0273893
-0.10229,-0.0371914
-0.0770442,-0.0721402
-0.039828,-0.0401901
0.00120298,-0.00814421
0.0246919,0.00370628
0.024943,0.0340783
0.0163275,0.101434
0.0180155,0.0737777
0.0220055,-0.0247685
0.0362587,0.0304716
0.0242311,0.0789703
0.0138904,-0.0304827
0.0190908,-0.102085
-0.0252819,-0.0580208
-0.0585101,-0.0173679
-0.0438845,0.0114087
-0.0377056,0.00996651
-0.0124339,-0.0176877
0.0123634,0.0383
-0.00751439,-0.0482605
-0.019178,-0.0751953
0.032212,-0.0289358
0.0753442,-0.0190538
0.048045,0.0238143
-0.00477463,0.0817894
-0.0310161,0.0884424
-0.0075174,0.0122675
-0.00820633,-0.0219236
-0.00102154,-0.00746781
0.0614236,0.0710614
0.071638,-0.00927049
0.0701175,-0.0161911
0.0685499,0.00973358
-0.00245089,-0.026565
-0.0592763,-0.0635371
-0.0678608,-0.0827597
-0.0807042,-0.048985
-0.0965508,0.00475812
-0.0896219,0.0468235
-0.0584307,0.0978352
-0.00146982,0.0376936
0.0418771,-0.0311242
0.0499874,-0.024075
0.0489338,-0.0303478
0.0109687,-0.0380416
-0.00203091,0.018245
0.0283738,0.0186775
0.0509791,0.0439529
0.0138935,0.0401026
-0.0460639,-0.00216341
-0.00673367,-0.0312441
0.0463707,-0.000794402
0.0553022,0.0583582
0.00717778,0.00829976
-0.0889157,0.00383802
-0.0859407,0.013716
-0.0165439,-0.0124523
0.0147033,-0.0303381
0.0145376,-0.0322167
-0.000829945,-0.0149205
0.0180639,0.0220391
0.0423523,-0.00306755
0.0490349,-0.0571914
0.0452308,-0.0323801
0.0326385,0.0144903
0.023347,0.0438874
-0.00415696,0.00959901
-0.0396301,-0.0794981
-0.0815367,-0.0514808
-0.0804068,0.011569
-0.0464301,0.0154185
0.0035096,0.00848811
0.00696412,0.0457228
0.0391423,0.0181421
0.0624414,-0.0127459
0.0515671,0.00459844
0.0332472,0.0222844
0.0168485,0.00361224
-0.0188772,0.0246509
-0.0370896,0.117649
-0.00159852,0.110911
0.0214045,-0.0268209
-0.00985612,0.000503039
-0.0295095,-0.00415611
-0.0279186,-0.120565
-0.0257981,-0.106498
-0.0253444,-0.0223325
-0.0112108,-0.00895017
0.00848993,-0.0124629
0.0264443,-0.0104149
0.0291859,0.0084156
0.0221366,0.0498394
0.0138203,0.0257056
0.0107959,0.00944575
-0.00385072,-0.0290291
-0.0140804,-0.0324002
0.00501011,0.0335743
0.0577864,0.0704151
0.0729913,-0.0107422
0.02261,-0.0586893
-0.0583486,-0.0404756
-0.186263,-0.00553509
-0.232581,0.0177488
-0.102709,0.00132645
0.0613804,-0.0252908
0.12816,-0.0167869
0.0911579,-0.0119237
0.084499,0.00313358
0.0579668,0.0297209
0.0150878,0.0375033
0.00769192,0.0190243
0.0061495,0.0118603
-0.00849109,-0.0245025
-0.0219996,-0.0825272
-0.0443641,-0.0254652
-0.032105,0.0334616
0.00547017,0.00778699
0.0275551,-0.000387634
0.0347029,0.0101597
0.0242644,0.0522661
0.0231107,0.0604889
0.0522435,0.0103462
0.0594458,-0.0113356
0.0162856,0.0336707
-0.0413355,0.0795729
-0.0625289,0.00355861
-0.0714062,-0.0318911
-0.0555886,-0.0518404
-0.0341888,-0.0547497
-0.021378,-0.0113104
-0.0146443,-0.00968753
-0.00730335,-0.040402
0.0271676,-0.013727
0.0482695,0.0233436
0.0624599,0.00878859
0.0628231,-0.00246892
0.0255411,0.0139893
0.00379385,0.0109797
0.010969,-0.00320478
-0.00436778,-0.0113385
-0.054065,-0.022375
-0.0598357,-0.00974629
-0.0294435,0.00976098
-0.00885648,0.0126073
-0.0164689,-0.00553792
-0.0259212,0.0590021
-0.0280731,0.0863627
-0.048811,-0.0349981
-0.0612958,-0.0516659
0.00155976,-0.0256531
0.0308122,-0.00988982
-0.00402065,-0.0176968
0.0323854,-0.0373894
0.0551348,-0.000656802
0.0502534,0.041969
0.0634086,0.069775
0.0687068,0.0171001
0.0479026,-0.0352651
0.0218029,-0.0217932
-0.0299823,0.0099023
-0.0531033,0.0391603
-0.0411802,0.0745589
0.00387872,-0.0257329
0.0425834,-0.0589475
0.039168,-0.0242261
0.0102974,-0.0264103
-0.0232422,-0.0225272
-0.0466584,-0.00993418
-0.0423864,0.00179381
-0.039694,0.0148899
-0.0646402,0.00637747
-0.0578582,-0.0321441
-0.0162267,-0.0674091
-0.0171902,-0.0367746
-0.0211407,0.00462393
0.0958731,-0.00912957
0.183177,-0.0207816
0.128037,-0.00702065
0.0412467,0.0916002
0.0133307,0.112191
-0.0253245,0.0135933
-0.0846185,-0.0178906
-0.129148,0.00494863
-0.138158,0.00644635
-0.127139,0.00818344
-0.0897648,0.0087702
-0.0261859,0.0148719
0.0430337,0.0293283
0.0994902,0.0490019
0.12145,0.0181966
0.0900329,-0.0385221
0.0893682,0.0264052
0.0626414,0.0305278
0.000420198,-0.0710805
-0.0237749,-0.0958056
-0.029779,-0.0550377
-0.0390711,-0.000789095
-0.026406,0.0387905
-0.0216474,0.0315639
0.00117356,0.0405044
0.0144072,-0.0731287
0.017238,-0.056477
0.0104548,-0.0265403
-0.0271819,-0.00949895
-0.0438256,0.00919612
-0.00500749,0.0325374
0.0380715,0.0335788
0.0367537,0.00303138
0.00362364,-0.0104042
-0.0248622,-0.0246434
-0.029794,-0.0414608
-0.0395059,-0.0273926
-0.0431017,0.0147239
-0.0206037,0.0335007
0.000490842,0.0207764
0.0458907,-0.00800805
0.0605025,0.0140021
0.0186205,0.0702413
-0.000866403,0.0818712
-0.00214119,0.0371338
0.0197901,-0.0171839
0.0246317,-0.0468697
0.0335753,-0.0630681
0.00930103,-0.0493243
-0.0245065,-0.0352242
-0.0365854,-0.0225003
-0.0737266,-0.00765434
-0.0907593,0.0474773
-0.0659618,0.0741407
-0.00639129,-0.00674758
0.0420806,-0.00895212
0.0541303,0.0151769
0.0485328,-0.0159219
0.0460525,-0.0347907
0.0185281,-0.0247371
0.0110238,0.00230191
0.0163128,0.0834026
0.0178549,0.118981
0.0324025,-0.00180917
0.0302049,-0.01755
0.0133021,-0.0469395
-0.0279544,-0.0514974
-0.0660362,-0.0218242
-0.0853304,0.00586976
-0.0759978,-0.00412913
-0.0560158,-0.0401569
-0.00146218,-0.0314222
0.0686136,-0.00495874
0.0881565,-0.0221083
0.0600146,-0.00970381
0.0689203,0.00998923
0.0785986,0.0162389
0.0568517,0.0129923
0.0170681,0.0117816
-0.0343534,0.0205858
-0.0565458,0.04254
-0.0548868,0.0614739
-0.0380344,0.0436953
-0.0126196,-0.0144323
-0.0569908,-0.0411519
-0.0860137,-0.0341182
-0.052537,-0.0297642
-0.0228351,-0.0119517
0.00585129,0.00258043
0.00949978,-0.00956111
-0.0264254,0.0164361
-0.0607998,0.0090905
-0.0220483,-0.0293862
0.0532339,-0.0125849
0.0981646,0.00270735
0.0767841,0.0651172
0.0644651,0.0401241
0.0725577,-0.0177225
0.0322772,-0.0337357
-0.037047,-0.00669975
-0.0708192,0.0203768
-0.0732184,0.00222711
-0.0749855,-0.0165217
-0.0209047,-0.0333894
0.0484319,-0.0258644
0.059553,-0.00996466
0.0522231,0.0125697
0.0239391,0.0290397
-0.0318903,0.0410677
-0.0694093,-0.0150604
-0.0576634,-0.0374357
0.0387733,0.0125931
0.10271,0.0321018
0.0898783,-0.0312547
0.0312718,-0.0273455
-0.0253173,-0.0112459
-0.0806712,-0.0245762
-0.10303,-0.00998453
-0.0596525,0.00266104
0.0225848,0.00617318
0.0719294,-0.00387284
0.0655731,0.00105557
0.0193109,-0.0185014
-0.0387921,-0.0187869
-0.0568569,0.0187487
-0.0498,0.101997
-0.0802491,0.0361806
-0.0766383,-0.0400024
-0.0118206,-0.00711708
0.0646221,0.0160553
0.12892,-0.0187503
0.0921549,-0.0256664
0.0434213,-0.0125338
0.0103084,0.144112
-0.00539752,0.138897
-0.00884069,-0.0769785
-0.0195456,-0.00800493
-0.0299798,0.0034492
0.0160975,-0.0655288
0.0696385,-0.0685851
0.0630268,-0.0525596
0.0286701,-0.0471658
-0.0400951,-0.0250114
-0.0597478,0.00664565
-0.0455355,0.0520172
-0.0504562,-0.00448884
-0.0495199,0.0112048
-0.00327321,0.0210899
0.0404546,0.00100486
0.00218683,0.0182192
-0.0496338,-0.036062
-0.0756147,-0.0421016
-0.0556454,-0.0314525
-0.00678492,0.0240361
0.0153522,0.0781484
0.0534644,0.0807706
0.0654215,-0.015213
0.00921271,-0.00744952
-0.0443829,0.00153567
-0.0129904,-0.0341748
0.0412467,-0.0471898
0.0507398,-0.0584356
0.0276839,-0.0359515
0.01931,0.0160442
0.038644,0.0429324
0.0125136,0.0223492
-0.0429883,0.0167032
-0.0567554,0.0172731
-0.0318884,0.0137952
-0.0135775,-0.00657292
-0.00649165,-0.0229412
0.00737366,-0.00794407
0.022353,-0.000317141
0.00246588,0.0116341
0.0270951,0.0230428
0.0714886,0.0118341
0.072181,-0.00426237
0.0307637,-0.00858797
-0.0279893,-0.0110558
-0.0754708,-0.00180868
-0.0469812,0.0154237
0.0221199,0.00167488
0.049291,-0.0149542
0.00675638,-0.022977
-0.0550818,-0.0363367
-0.0912506,-0.0345631
-0.0924499,0.00978845
-0.0513745,0.067102
-0.0129954,0.0501156
0.018326,0.00691404
0.0357846,0.0460876
0.0280958,0.0504652
0.0194626,-0.0392669
0.00815137,-0.0572272
0.0129576,-0.0333771
0.0274237,0.00472267
0.0405905,0.0536977
0.0350244,0.020435
0.0372893,-0.0411537
0.0279332,-0.0132309
-0.00568993,0.0394818
-0.0563832,0.00876977
-0.0651699,-0.0585078
-0.0442343,-0.0472951
-0.0195503,-0.0265556
0.0214586,0.00668325
0.0722196,-0.00867351
0.101295,-0.0242345
0.0576737,0.00069694
0.00675451,0.0188358
-0.0102882,0.0264903
-0.0140384,0.0167473
-0.0201503,0.0149238
-0.0158822,0.0250154
-0.0326478,0.0246924
-0.0690304,-0.0159598
-0.0455084,-0.0484491
-0.0372687,-0.0348756
-0.049862,-0.0209138
0.0173821,-0.0132984
0.088501,0.00142512
0.146415,0.000125305
0.13427,-0.012935
0.011231,0.0710934
-0.0488018,0.0824889
-0.0768714,-0.0275376
-0.0597988,-0.0142168
-0.0162896,0.0144471
-0.0763577,0.0331081
-0.0910463,0.00371471
-0.0774625,-0.0398682
-0.0839333,-0.0212524
-0.0705153,-0.00497318
-0.0203072,0.00131081
0.0667188,-0.0275725
0.102638,-0.0508211
0.0635398,-0.0110969
0.0467903,0.0192769
0.0511264,0.0121761
0.0366232,0.0142481
0.0234204,0.0618147
0.041434,0.0952492
0.0464116,0.070718
0.0325478,0.00344508
-0.0105152,-0.0822608
-0.0435964,-0.0716793
-0.0438927,-0.0623788
0.0134555,-0.00880773
0.0171807,0.0421185
-0.0321924,0.0184868
-0.0211078,-0.0308378
-0.0177052,-0.0495586
-0.0443611,-0.0140649
-0.0281053,-0.000277329
-0.0242861,0.00396706
-0.0147381,0.0106042
0.0388423,0.00741282
0.0278224,-0.0190213
-0.0266409,0.00436389
-0.0187685,0.0592188
0.0160651,0.0130741
0.0213534,0.0072955
0.00780447,-0.00737019
0.00258994,0.0107961
0.0341364,0.0565843
0.0341779,0.0317018
0.0223907,-0.0140602
0.0347441,-0.0242335
0.0284076,-0.0377764
-0.0112748,-0.0424594
-0.0391018,-0.0360006
-0.0254457,-0.0120243
-0.00106871,0.0112023
-0.0024652,0.00783405
0.014019,-0.00526639
0.0237274,-0.00645196
-0.0323671,-0.0152302
-0.0616098,-0.0243947
-0.0470318,-0.016001
-0.0369341,0.0446245
-0.0341475,0.0843301
-0.0167387,0.0481935
0.00129583,-0.00359601
0.0278565,-0.031951
0.0590053,-0.040596
0.0453818,-0.0341551
-0.0121122,-0.0206309
-0.0520293,0.000400085
0.0025248,0.0207099
0.0441594,0.0209347
0.0204433,0.0190474
0.0309314,0.00375398
0.0566249,0.0421608
0.047762,0.101742
0.0101082,0.052915
-0.0296097,0.00729761
-0.0919706,0.0287109
-0.087003,-0.0802487
-0.0371618,-0.113897
0.00705959,-0.0645272
0.0661162,-0.0400237
0.0334167,-0.0340863
-0.0263657,-0.030392
-0.0280753,-0.00305116
-0.0104885,0.0401966
0.015296,0.0414994
0.0146738,0.0687347
0.011242,0.0591246
0.0304014,0.000266086
0.035744,-0.0541331
-0.00831333,-0.0775977
-0.0372186,-0.0736018
-0.0054756,-0.0337905
0.0480353,0.0306861
0.0523383,0.0458966
0.0216106,0.0233444
-0.00846009,0.0111432
-0.00565695,0.0238555
-0.0142489,-0.000996901
-0.039304,-0.0286228
-0.0535387,-0.015038
-0.0357213,0.00548849
-0.0223655,0.0150767
-0.0181467,-0.00288984
0.00471197,0.0228523
0.0290255,0.0926306
0.0428406,0.031701
0.0266704,-0.0247117
0.00209055,-0.0027181
0.0139736,-0.0181
0.048476,-0.00750362
0.0362016,5.27e-05
-0.0374488,-0.00598882
-0.0736491,-0.0038308
-0.0433413,0.00280499
-0.0217641,-0.00228571
0.0307411,-0.0431102
0.065661,-0.0214145
0.0641082,0.00874866
0.0230071,0.0163709
-0.0265648,0.0118312
-0.0602842,-0.0209408
-0.0759134,-0.0157533
-0.0745845,-0.00691821
-0.0422181,0.000164122
-0.00146901,0.00448289
0.0187885,0.0239335
0.0334367,0.0793798
0.0430252,0.0515534
0.0222232,-0.0715024
0.011171,-0.0874895
0.0219465,-0.0252445
0.0376891,-0.0167545
0.0232355,-0.0282452
0.00616104,0.00223361
-0.00846502,0.0368177
-0.039505,0.0463707
-0.0508508,0.0363855
-0.0448977,-0.000964476
-0.0248207,0.00487692
-0.0114919,0.0526955
-0.0182601,0.0198516
-0.00909873,-0.0255801
0.0222358,-0.0220167
0.0612966,-0.0093262
0.0816591,-0.0131014
0.0138313,-0.00655302
-0.0233593,0.00166857
-9.15e-06,0.027969
0.0217655,0.0134617
0.0208103,-0.0468862
-0.000471436,-0.0216179
-0.016086,-0.00637319
-0.0377032,-0.0220623
0.00257037,-0.000864337
0.0406473,0.00769471
0.0285719,-0.0093943
0.0255605,-0.0239652
0.0144559,-0.00742223
0.00580446,0.00748526
0.00348003,0.0432146
0.0105339,0.0961174
0.0117942,0.0599391
-0.011785,-0.0427166
-0.0237273,-0.0530252
-0.0358935,-0.0354467
-0.0569867,-0.0309469
-0.0529556,-0.0101099
-0.0355491,0.00577656
-0.0427463,0.00092654
-0.0440979,-0.0160131
-0.0239139,-0.0101695
-0.0015087,0.014162
-0.0130024,0.0505405
-0.00725569,0.0442956
0.0560821,-0.0481844
0.0644389,-0.0685025
0.0242295,-0.0111139
0.00929817,0.0166821
0.016498,0.0101399
0.0137626,0.0127328
0.0141873,0.00398783
-0.00578716,0.0188709
-0.0340336,0.0272293
-0.0258404,0.0243227
0.0172003,0.0151342
0.0577887,7.19e-05
0.0696623,-0.0125317
0.0485139,-0.0193557
0.0375883,-0.028017
0.020546,-0.0261067
0.00814844,-0.00918673
0.000583198,0.0267046
0.00264329,0.0300726
-0.0115575,-0.00748608
-0.0409248,-0.0282323
-0.0424832,-0.0339675
-0.0194856,-0.00057992
-0.0161034,0.0228626
-0.0388404,0.0157488
-0.0562185,0.0359962
-0.0326791,0.0458816
0.00736108,0.0260453
0.0275354,0.0039321
0.01824,-0.0225392
-0.00556468,-0.0425798
-0.0170407,-0.0487784
-0.026882,-0.0376005
-0.0483796,-0.00241702
-0.03794,0.0134989
0.016574,-0.00361084
0.0578639,-0.00675336
0.0620808,0.0302718
0.0566562,0.0598006
0.00934887,0.104388
-0.0222229,0.0643822
-0.00936598,-0.109882
-0.0100944,-0.071774
-0.00431233,0.0743821
0.00791725,0.0793908
0.0077426,-0.0491985
0.034752,-0.0871644
0.0165095,-0.0530994
-0.0429057,-0.0384699
-0.0739774,-0.031986
-0.054442,-0.0185801
-0.0252322,-0.00112317
-0.00371387,0.0146101
-0.00476243,0.00716845
-0.0216949,-0.0052304
-0.0111171,0.00505606
0.0436475,0.0270557
0.0612171,-0.00186044
0.0240063,-0.027882
0.0317349,-0.012091
0.0755405,0.0115489
0.0798294,0.0193477
0.0454112,0.0258372
-0.0220996,0.0293666
-0.0597806,0.0196592
-0.0345314,0.00891649
-0.0282378,0.0122267
-0.0541864,0.0161374
-0.0834096,0.022484
-0.0420709,0.0269327
0.0424904,-0.0037642
0.0474478,-0.0396406
0.0055403,-0.0357195
-0.0171614,-0.0261317
-0.0158025,-0.00371203
-0.00661005,0.0129066
0.014901,0.0135189
0.0320429,-0.00208018
0.0376225,-0.00811223
0.0245034,-0.00858254
-0.00499822,-0.0123881
-0.0184824,-0.00632061
-0.00901177,0.00260085
0.0023693,0.0163216
-0.00414901,0.0165125
-0.0055094,-0.00220526
0.0273363,-0.0157264
0.0440105,-0.0178295
0.0136169,0.00584636
-0.0363755,0.0149755
-0.0497349,-0.011095
-0.0340114,-0.0308233
-0.0188686,-0.0103126
-0.000150772,0.0546925
0.00814787,0.0625263
0.0533074,-0.0170109
0.0528473,-0.0160648
0.0297455,-0.00186945
0.00418836,-0.0229781
-0.0165475,-0.0305017
-0.0351581,-0.0303104
-0.00815578,0.00785478
0.0159044,0.0574666
-0.00405678,0.0338135
-0.0306964,-0.0169054
-0.0115455,-0.00940105
0.00870989,0.0230642
0.00178887,-0.0219076
-0.0114893,-0.039931
-0.0239608,-0.00258171
-0.015266,0.00494853
0.00931291,0.00963335
0.0278092,0.0147018
0.0206204,6.5e-06
0.00465782,-0.015387
0.00632506,-0.0158409
0.00769385,-0.00938897
0.00871403,-0.00990307
0.00981927,-0.00866686
0.0191919,-0.00790705
-0.0041701,0.00497455
-0.0398902,0.0131113
-0.0529415,0.00847291
-0.0504758,0.00711431
-0.042915,0.0144747
-0.0340939,0.0449179
-0.0245495,0.0756785
-0.0312939,0.056027
-0.0246695,-0.0248143
0.0348109,-0.0672705
0.0878473,-0.0556344
0.0720551,-0.047504
0.0519786,-0.0411426
0.00363386,-0.0299918
-0.0332512,0.0043808
-0.0145205,0.0383771
0.0140579,0.0397453
0.0356398,0.0181218
0.0479131,0.0124483
0.0224931,0.0227646
-0.0130602,0.0199804
-0.0180791,0.00843716
-0.016672,0.00879815
0.00975212,0.00415921
0.0150103,-0.00414452
0.00700347,-0.0309868
0.0167551,-0.0486055
-0.0150766,-0.0270308
-0.0395855,0.018091
-0.0299525,0.0473474
-0.00958833,0.00792525
0.0169632,-0.0229366
0.0208999,-0.00925906
0.00691504,-8.93e-05
0.00440661,-0.00192846
0.00733152,-0.0205267
0.00578799,-0.0177241
-0.00114543,-0.00575064
-0.0187241,0.00378621
-0.0127052,0.00480936
0.0135482,-0.0018609
0.0100921,0.00449426
-0.00937113,0.0236898
-0.0308375,0.063523
-0.0718224,0.0943306
-0.0777439,0.042264
-0.0270648,-0.043816
0.0268805,-0.120666
0.0450871,-0.0788882
0.0454391,0.0380834
0.0290835,0.0204292
0.0231447,-0.0357665
0.0275921,-0.0276235
-0.0163218,0.0330328
-0.0687803,0.0568774
-0.0325722,-0.0203404
0.0200438,-0.056974
-0.00414948,-0.00788615
-0.00564815,0.0262809
0.0294531,0.0275304
0.0132496,0.0286678
-0.0112511,0.012813
-0.00490701,0.00892751
0.020763,-0.0215993
0.0393949,-0.0317416
0.0488713,0.00429018
0.0443123,-0.0286654
-0.0046273,-0.0218899
-0.0680115,0.023128
-0.102896,0.0135024
-0.0620996,-0.00965033
0.00175138,-0.0189414
0.0257797,-0.0187078
0.0366513,-0.007504
0.0503395,0.00450105
0.0907628,0.0185699
0.0887263,0.012616
0.0151184,-0.021279
-0.00591392,-0.0370322
-0.0173966,-0.0171898
-0.0559194,0.0056925
-0.0431763,0.0205954
-0.00658975,0.026162
-0.00484191,0.0136052
-0.00782701,0.00795155
-0.0140645,0.0155569
0.00461861,0.0172494
0.0113433,0.0216012
-0.0152381,0.0152002
-0.00201111,0.0400595
0.0259863,0.0594508
0.0264845,-0.0194822
0.0224082,-0.0507777
-0.0402427,0.00247913
-0.0771666,0.0231845
-0.0552799,-0.00381955
-0.0599112,-0.00701599
-0.0488982,-0.0547626
-0.00585104,-0.0776352
0.0418334,-0.0387685
0.0406688,0.00170148
0.0194693,0.0169464
0.0140984,0.0126481
0.0197191,0.0328529
0.0301832,0.0142402
0.0171801,-0.017582
-0.00914206,0.0215364
-0.0217538,0.0507073
0.0164313,0.0185565
0.0162899,-0.030659
-0.0139547,-0.0385824
-0.0191385,-0.0228449
0.00445611,0.000437625
0.0289296,-0.0130473
0.0514827,0.00152585
0.062294,0.0203931
0.0302031,0.0208495
-0.0214809,0.00808607
-0.0479369,0.004986
-0.0828925,0.0109336
-0.0791292,0.0108604
-0.00718201,0.0038497
0.0290479,-0.0257991
0.0362467,-0.0131716
0.0380363,0.037139
0.0305766,-0.00196905
0.0230716,-0.0285052
0.00631409,-0.0171792
-0.0381285,-0.0108372
-0.0268823,-0.00311908
-0.021601,0.00673397
-0.0166239,0.0192176
0.00882416,0.0163158
0.0301479,-0.000683819
0.0173151,-0.0129698
0.028589,0.00259686
0.044548,-0.00175974
0.0329371,-0.028012
0.0147684,-0.010558
0.0341424,5.62e-06
0.0442118,-0.00339628
0.0144688,0.00803176
-0.058424,0.032997
-0.148308,0.0285046
-0.17643,0.0170507
-0.129777,0.0299378
-0.0653125,-0.0250492
-0.00771585,-0.0688471
0.0313561,-0.0169254
0.0686433,0.00101143
0.0714834,-0.0396927
0.0824947,0.00412645
0.0787641,0.123605
0.0587546,0.07545
0.0290293,-0.00894627
-0.0110167,-0.0107667
-0.00408249,-0.0634376
0.0304915,-0.0589334
0.0284737,-0.011348
0.0146539,0.00199915
0.00974217,0.00289602
0.020561,-0.0340512
-0.00526376,-0.0712338
-0.0653057,-0.0308546
-0.0845872,0.0201206
-0.0230105,0.04285
0.017622,0.0440841
0.0265369,0.0271173
0.0334902,0.0246538
0.0248371,0.0262535
-0.0229944,0.00672689
-0.0539457,-0.0168278
-0.027823,-0.0114919
0.0138332,-0.0100967
0.0232629,-0.0122594
0.0151787,-0.0120623
0.00635907,-0.0143717
0.00691887,-0.00833523
0.000530965,-0.000309233
0.000614286,0.00671991
0.00832707,0.0129312
0.0139078,0.029321
0.0283261,0.0510906
0.0234576,0.055418
0.00475668,0.00273471
-0.00713093,-0.04966
-0.00667004,-0.039966
-0.00989943,-0.0245521
-0.0289114,-0.0145619
-0.0156783,0.00705659
0.0128839,0.0297055
-0.000737944,0.00752916
-0.0188805,-0.0162837
-0.0250906,-0.0131172
-0.0724551,-0.0262792
-0.0900513,-0.0335024
-0.0772198,0.01473
-0.10792,0.0464785
-0.0894955,0.0187826
-0.00323392,0.00735718
0.00793411,-0.0185052
0.0234714,-0.0116562
0.0486963,-0.0111639
0.117217,0.002958
0.149343,0.0387032
0.118076,0.046137
0.105748,-0.00432164
0.0512926,-0.0360339
0.00475382,-0.0294178
-0.0217133,-0.0258352
-0.0583547,-0.0175224
-0.0637281,-0.0150805
-0.0367433,-0.00743586
-0.0125047,-0.00928265
-0.00274514,-0.0162119
0.0184616,0.0093996
0.0234323,0.026708
0.0155675,0.0227284
0.00574111,0.0164338
-0.0108029,0.00872915
-0.0232511,0.0073265
-0.0238246,-0.00163202
0.00119933,0.00313082
0.0177104,0.0129713
0.0141849,0.00609544
0.0115431,0.00134508
0.00954425,0.00106271
0.00483119,-0.000812613
0.0104179,-0.00593009
0.0151112,-0.00516482
-0.00655511,-0.00366768
-0.000618337,0.00479261
0.0198506,0.0132019
0.0256534,0.0082768
0.0171326,-0.00456509
-0.00929992,-0.00446099
-0.0503326,-0.00142672
-0.0740273,-0.0101288
-0.0619172,-0.00347012
-0.0226568,0.00409219
0.00456005,-0.00296633
0.0198325,-0.014134
0.0266027,-0.0108525
-0.00182716,0.00176448
-0.0280041,-0.00616276
-0.043266,-0.0236464
-0.0222494,-0.0237532
-0.00519913,-0.0217459
0.0106464,0.0108471
0.0258251,0.0431444
0.0291289,0.0294339
0.00902358,0.0171852
-0.0176792,0.0233023
-0.0339705,0.00556312
-0.0380447,0.00583454
-0.0243302,0.000515891
0.0185289,0.00411639
0.0410834,-0.0312656
0.0248743,-0.0474385
0.0255732,-0.0197738
0.0411216,0.00505021
0.0479551,0.00612688
0.0532506,0.00228998
0.0416665,0.00910647
0.0320997,0.0362766
-0.00209085,0.0502833
-0.0965481,0.0105184
-0.144634,-0.0381324
-0.0912989,-0.0345691
-0.0154345,-0.0308412
0.0391156,-0.0339689
0.0502434,-0.0195959
0.0485492,0.023154
0.0452672,0.0817242
0.0370117,0.042783
0.0296508,-0.0332649
0.0109373,-0.0423619
-0.000431087,-0.0137226
0.00101873,0.00521654
-0.0184683,0.0215263
-0.0354713,0.00531815
-0.013675,0.00398154
0.0282829,0.0170392
0.034164,-0.0033137
-0.00544808,-0.0337064
-0.0158404,-0.0149851
-0.00127992,0.00428305
-0.0184249,0.00321355
-0.0749604,-0.0114033
-0.0763486,-0.0131738
-0.0199771,-0.0114156
0.0321049,-0.00423152
0.0663481,0.0150638
0.0532682,0.00131053
-0.00163808,-0.00995093
-0.00165986,-0.00715286
0.0262919,0.0183901
0.0124547,0.028906
-0.00206386,0.0176633
-0.0190447,0.00564122
-0.0200117,-0.00311968
-0.0104981,0.00196937
0.00773879,0.00750141
0.0373558,-0.00276182
0.0314458,-0.00730208
0.0205358,-0.00782597
0.0148645,-0.00632508
-0.0191681,0.00164958
-0.0821168,0.0109983
-0.0817494,0.00303426
-0.0336317,-0.0264036
0.0083818,-0.0138772
0.0146321,0.0325241
-0.0262869,0.0244544
-0.00358673,-0.0198327
0.0764543,-0.0142076
0.0982723,0.0111483
0.0640303,0.00533668
0.00488986,0.007207
-0.0418274,-0.0126081
-0.0684778,-0.0320589
-0.0829013,-0.0305241
-0.0325694,-0.00102058
0.0252768,0.0211002
-0.00424373,0.0426279
-0.0333283,0.0487762
-0.00511767,0.0389811
0.0137506,0.0193061
0.0318824,-0.042036
0.0509648,-0.0524642
0.0325164,0.00505496
0.0167682,0.0553657
0.0373248,0.00669872
0.0125063,-0.0509711
-0.00485038,-0.056137
-0.00247958,-0.0206529
-0.0211843,0.0187637
-0.0460213,-0.0035823
-0.0512306,-0.0144297
-0.0347735,0.00512977
-0.0289842,-0.00668782
0.00192246,-0.0164866
0.031744,-0.0105941
0.0254843,0.00844237
0.0310065,0.0222243
0.0275352,0.022729
0.0149383,0.0219493
0.00514241,0.0122238
0.0216226,0.00708881
0.0345593,0.0123266
0.00222248,0.00298348
-0.0349261,-0.0117359
-0.0297549,-0.0146109
0.00222515,-0.0106144
0.00328972,-0.0122304
-0.0229154,-0.014192
-0.00159999,-0.000210304
0.018876,0.0122388
-0.00356007,0.00552151
-0.0251551,-0.00277504
-0.00542109,-0.00750119
0.00903002,-0.00499708
-0.0217413,-0.00705265
-0.0540079,-0.00665552
-0.0393272,-0.00327581
-0.0152192,0.0126635
0.00888907,0.0256358
0.0495462,0.00254443
0.0570472,-0.0105783
0.042021,-0.009655
0.0368592,-0.0131472
0.0290936,-0.00624094
0.0044647,0.0058315
-0.0198658,0.0254485
-0.0145804,0.0307494
0.00791933,0.0162755
0.00492987,-0.0213106
-0.0321102,-0.0345914
-0.0721138,-0.00840626
-0.0450709,0.0172309
0.00637366,0.013878
0.0315296,-0.0107507
0.0275713,-0.0141544
0.00332288,-5.5e-05
-0.0229459,0.0103408
-0.0364531,0.0272943
-0.0360209,0.0257494
-0.00205664,-0.0111236
0.00318081,-0.0312222
0.00356361,-0.0209519
0.0400471,-0.00845423
0.0434081,-0.00298199
0.0316957,0.00547822
0.0234366,0.0103395
0.0184355,0.00528054
0.0140314,-0.000481355
0.00977038,0.00308263
-0.00214228,0.0113681
-0.00148617,0.015927
0.0178682,-0.000919366
0.0135231,-0.00834902
-0.0118932,-0.00499996
-0.0264204,-0.0110142
-0.0572291,-0.0150272
-0.0804847,-0.0148402
-0.0540691,-0.0118105
0.00082205,-0.0102978
0.00545872,-0.00291574
0.000181134,-0.00782221
0.0239348,0.00328238
0.0335213,0.0374355
0.0264235,0.075232
0.00862937,0.0573246
0.00754022,-0.0229682
0.0114996,-0.040241
0.00832392,0.0133143
0.00304979,0.0104643
-0.0168131,-0.0335562
-0.024223,-0.0354448
-0.0248338,-0.00361084
-0.0367444,0.0105473
-0.0313696,-0.0321374
0.0015443,-0.0543696
0.0275654,-0.0216765
0.0339828,0.00232248
0.0372965,0.0180579
0.0207796,0.0427957
-0.00319859,0.0372758
-0.0144282,0.00955682
-0.00830582,-0.0137689
0.0207566,-0.0170575
0.0698173,-0.00290412
0.0961787,0.0300774
0.0797345,0.0489519
0.0241399,0.0122143
-0.0290966,-0.023883
-0.0617528,0.0241513
-0.0959033,0.0458694
-0.0895093,-0.04482
-0.0761138,-0.071875
-0.0424567,-0.00911784
0.0284725,0.0188039
0.04244,-0.0212864
0.0317082,-0.0183193
0.0255408,0.0140262
0.00157121,-0.0142017
-0.0277184,-0.0157157
-0.0537738,-0.00641137
-0.0344062,0.00850068
0.00284067,0.0255221
0.020048,0.0233584
0.0209103,0.00809695
0.0303492,0.00549447
0.0478256,0.00139747
0.0341399,-0.000739958
0.0350732,0.00252781
0.0546235,-0.000612002
0.0629406,-0.00972658
0.0265419,-0.00982352
-0.0550407,-0.00132408
-0.11553,0.0115275
-0.105005,0.00942821
-0.0479365,-0.0185997
0.010377,-0.0291162
0.0095132,-0.0156803
-0.0216235,-0.00232657
-0.0101876,0.010168
0.0349743,0.023775
0.0692462,0.0413404
0.0476784,0.0212916
0.0118529,-0.0200497
-0.0175472,-0.0178384
-0.020965,0.0114769
-0.0201607,0.00878269
4.25e-05,-0.0119842
0.00372189,-0.0042967
-0.0206777,0.00166169
-0.0261782,0.00259919
-0.00380022,0.00798071
-0.0145666,0.0307843
-0.0150636,0.0021789
0.031141,-0.0536446
0.0713126,-0.0319084
0.0359114,0.000331845
-0.0217733,0.0108297
-0.04808,0.0267516
-0.0362825,0.00144934
0.0106898,-0.00921676
0.000735734,-0.00784368
-0.0241531,-0.00813232
-0.0255724,0.0126883
-0.0388599,-0.00768543
0.00708726,-0.0270116
0.0406464,-0.0206758
0.0552571,-0.0157686
0.0797725,-0.00476602
0.067173,0.0280031
0.0329987,0.0222343
0.0293557,-0.0216345
0.0502111,-0.0210091
0.00677906,0.0126139
-0.0678829,0.0483765
-0.0807974,0.0714297
-0.0467804,0.0570578
-0.0274166,-0.0381366
-0.0387909,-0.070314
-0.00199714,-0.0419886
0.0133897,-0.00638264
-0.00749893,0.0195274
0.0224851,0.01725
0.0343559,-0.00229858
0.000227608,-0.0170079
-0.0278247,-0.0148632
-0.0514406,-0.0166628
-0.0631929,-0.0131962
-0.0104981,0.0134485
0.0462504,0.0302245
0.0566914,0.00333111
0.044773,-0.0230932
0.0133218,-0.0236942
-0.0251705,-0.0107272
-0.037423,0.0119382
-0.0355791,0.0112214
-0.00828337,0.00845193
0.0253937,0.0172608
0.0325133,0.0174654
0.0191373,0.0136875
-0.0128084,0.00908806
-0.0344327,0.00174555
-0.00708097,-0.00606312
0.0259866,0.000839849
0.0174418,0.0143443
0.00506637,0.0319869
-0.00592328,0.0170013
-0.0274273,-0.0214632
-0.0160872,-0.0377493
0.00328744,-0.012862
-9.99e-05,0.0494757
-0.0178563,0.0101815
0.0156518,-0.0424697
0.0620459,-0.0280017
0.0466189,-0.00897874
0.0130263,0.00804006
-0.0214732,0.0115948
-0.0346327,0.00254696
-0.0240904,-0.0111484
-0.0153179,-0.00482027
-0.0315917,0.00677306
-0.0126292,0.0182678
0.0277868,0.00700224
-0.0212011,-0.0194652
-0.0765318,0.00111616
-0.0414104,0.0374142
0.0349917,0.00672709
0.0547281,-0.0222815
0.0764078,-0.0587377
0.0860179,-0.0619088
0.0521685,-0.0182788
0.0257618,0.0523019
0.0306595,0.0784009
0.0368301,0.0297152
0.0299641,-0.0138279
0.00947402,-0.00626079
-0.0518434,0.0221546
-0.0910877,0.00151231
-0.0591373,-0.0183399
-0.0547164,-0.0326683
-0.118478,0.019985
-0.166126,0.0374419
-0.136263,-0.0285958
-0.0749889,-0.0888756
-0.00580375,-0.0478273
0.00146149,0.0132752
-0.00256568,0.0370247
0.0849278,0.021331
0.138817,0.000558185
0.106323,0.0106687
0.0940492,0.0178191
0.123971,0.00614881
0.146383,-0.00457006
0.139495,-0.0253231
0.0880841,-0.0241924
0.0263862,0.00469938
0.00379019,0.0396971
-0.00809615,0.0304596
-0.0265036,-0.00245286
-0.0657368,-0.00748606
-0.0938416,-0.0107783
-0.104961,0.0105287
-0.0909856,0.0474385
-0.0642014,0.0631581
-0.0363442,-0.00811801
-0.0402232,-0.0479268
-0.0651779,-0.0163806
-0.0524537,0.0184681
-0.0325546,0.000844142
0.00293633,-0.0321208
0.00514425,-0.0448879
0.0310784,-0.0280305
0.0437167,-0.000964782
0.0470678,0.00264361
0.0471675,-0.00602178
0.0257904,-0.00278013
0.0180267,0.00729062
0.0226235,0.00488979
0.0308991,0.0021828
0.0396945,0.0011817
0.0327968,-0.00872244
0.00875883,-0.00275902
-0.0148602,0.0189548
-0.0296239,0.0141954
-0.0417057,-0.00090361
-0.0443549,-0.0021721
-0.0277329,0.00118306
-0.0208265,-0.00164724
-0.00691171,0.0135212
0.00607005,-0.0070205
-0.0322504,-0.0320601
-0.0703903,-0.00676405
-0.0687294,0.00871743
-0.0508914,0.0219779
-0.0170423,0.0208958
0.00458204,-0.00622396
0.0458411,-0.0155029
0.0989619,-0.00980089
0.10279,0.0184165
0.0731273,0.0314454
0.0317857,-0.0022451
-0.00163659,-0.0132901
-0.0127149,-0.011584
-0.0122814,-0.0103474
0.0249211,0.00182383
0.0899169,0.018004
0.0995022,0.0163533
0.0495643,0.0209307
-0.00721621,0.00710817
-0.0521559,-0.0200894
-0.0728035,-0.0215088
-0.0740191,-0.0332588
-0.0476782,-0.00168581
-0.0142312,0.023824
-0.00333528,0.00406086
-0.0251081,0.00643284
-0.055378,-0.00134162
-0.0616849,-0.0119395
-0.0328356,-0.0220294
-0.00841701,-0.0228269
-0.0363602,-0.0105369
-0.0172492,-0.0150522
0.0565585,-0.00354671
0.110147,0.0139591
0.0963875,0.0385784
0.0751609,0.092353
0.0511327,0.0760259
-0.0164229,0.00433789
-0.096583,-0.0468464
-0.116798,-0.0805103
-0.0707589,-0.0364317
-0.0153253,-0.0197205
-0.0239765,-0.00450424
-0.0311018,0.0140247
-0.0183553,9.39e-05
0.0166037,-0.0200543
0.0431094,-0.0111265
0.0393693,0.000464144
0.0518514,-0.00602732
0.0567612,0.00995742
0.0460766,0.00799306
0.0257929,0.00829045
0.0101765,0.0206605
-0.0154939,0.0144847
-0.0350523,0.00255416
-0.0458249,-0.00696826
-0.0213096,0.013494
0.019058,0.0215016
0.00544755,-0.0268272
-0.048873,-0.0361752
-0.0603281,-0.0054726
-0.024446,0.00843216
-0.0181277,0.0156309
-0.0160101,0.00970836
0.0155282,0.00990408
0.0726053,0.0141607
0.0849773,0.0117112
0.0647116,-0.000509475
0.0502063,-0.0132784
0.024883,-0.0185136
0.0126165,-0.0199693
0.0162268,-0.00950713
0.0221028,0.00475939
0.0147173,0.0129637
0.00252525,0.0102229
-0.0160207,0.0136553
-0.037516,0.00786546
-0.0653197,-0.00716291
-0.0832137,-0.00961017
-0.0891406,0.0086558
-0.0661727,0.00526154
-0.0153629,-0.0123245
0.0380108,-0.00982409
0.0512973,-0.00458611
0.0696115,-0.00879269
0.0688519,0.000518032
0.0334321,0.00618621
-0.0377925,0.0114086
-0.114432,0.0290161
-0.0860244,0.0195117
-0.00812388,0.0118573
0.0253527,0.0236586
0.0457891,-0.0273869
0.0642658,-0.0542182
0.054612,-0.0328079
0.0164727,-0.0128321
-0.022077,0.015171
-0.0314916,0.039093
-0.000185949,0.0423098
0.0259394,0.0250269
0.0265965,0.00099737
0.00957766,-0.0228969
-0.0139961,-0.029932
-0.0327684,-0.0288403
-0.0295195,-0.0248139
-0.0132431,-0.0230938
0.0143172,-0.007104
0.0213674,0.0227025
0.000828541,0.0320379
-0.0056629,0.000752411
-0.00441401,-0.0175684
-0.0252034,-0.0118381
-0.028788,0.0094981
-0.0254179,0.0134779
-0.0447935,0.00321165
-0.0275894,0.0258726
0.0105301,0.0089945
0.0329697,-0.0193999
0.0414564,-0.018393
0.0525242,-0.00767939
0.0797517,-0.00641089
0.0831042,-0.00476038
0.0505545,0.0338383
0.0290634,0.0452174
0.0122913,-0.00854625
-0.00391039,-0.0254385
-0.029018,-0.0107758
-0.0784329,-0.0180037
-0.165899,-0.0234687
-0.194614,-0.0174359
-0.110615,-0.00497825
-0.0362142,0.00948137
0.00944598,0.00449441
0.0526094,-0.0313038
0.0203501,-0.0144399
0.0252418,-0.00529261
0.0646934,-0.00580241
0.0712666,0.0234408
0.0667212,0.0270547
0.0682585,0.0292118
0.057152,0.0209949
0.0383036,0.0135648
0.0109656,0.0400536
0.008593,0.0266431
0.0106274,0.00387445
-0.0121364,0.00299819
-0.0207373,0.0108307
-0.000143938,0.00230662
0.033756,-0.00932055
0.0570719,-0.0122534
0.0373326,-0.0205845
-0.0143333,-0.0362587
-0.0291978,-0.0441499
-0.0564605,-0.0340251
-0.104778,-0.013408
-0.0945063,0.000334379
-0.0325946,0.00751672
0.010857,0.0116252
0.0351502,0.0100024
0.0408232,0.00554455
0.0311417,0.0121525
0.0213392,0.0113323
0.0236789,0.00505251
0.0217061,0.00531273
0.00394659,0.00903664
-0.0207699,0.0188605
-0.0111098,0.0131157
0.00263323,0.000156877
-0.000861166,0.00116682
-0.0279345,-0.0141126
-0.0831307,-0.0560156
-0.128747,-0.0433589
-0.0954689,0.0151255
0.00458637,0.0482808
0.046961,0.0222161
-0.00101122,-0.0314624
-0.011007,-0.0526934
0.0400476,-0.027517
0.0846828,-0.013245
0.108768,0.00602991
0.0889347,0.036301
0.0540766,0.0558865
0.0424811,0.070225
0.0291004,0.0547171
-0.000561544,-0.00164911
-0.025916,-0.0407674
-0.0860833,-0.0299195
-0.106382,-0.0106938
-0.0625338,-0.0189425
0.0220174,0.00182589
0.0706153,0.00773077
0.0493105,0.00385581
0.0212561,0.0161546
-0.00998152,0.012453
-0.0429433,-0.00326765
-0.0644998,-0.00384687
-0.055974,-0.0191872
-0.0459224,-0.0447855
-0.0391852,-0.0128887
-0.0154602,0.0185612
0.0328049,-0.0180935
0.0726163,-0.0331143
0.0721185,-0.00409792
0.0368529,0.0171748
0.00397281,-0.00468551
0.00201984,-0.0145327
0.0376354,0.00878103
0.0399513,0.0292937
0.0209765,0.0273761
0.0183629,0.0211709
0.000596784,0.0116599
-0.017297,-0.00071972
-0.033751,-0.0074124
-0.0334436,-0.00797689
-0.0375695,-0.00355978
-0.0394998,0.00725368
-0.0257464,0.00644939
-0.0267042,-0.014403
-0.0933685,-0.0194218
0.00547612,-0.00466819
0.0665483,-0.00492358
0.0248472,0.0104323
-0.0444896,0.0357542
-0.0319038,0.0300101
0.0348183,0.0129157
0.0609953,0.00448408
0.052105,-0.00181876
0.0125795,-0.0194713
0.00710522,-0.0282875
0.0215452,-0.0348942
0.0261654,-0.0402923
0.0120225,-0.0281199
-0.0182928,-0.00876535
-0.0380567,0.0052438
-0.0197155,0.0169614
0.0135683,0.0112979
0.0311039,0.00741754
0.0330007,0.0191383
0.0366707,0.0432149
0.0217933,0.029801
-0.0316952,-0.00519201
-0.0525936,-0.014768
-0.0396389,0.00921415
-0.0427911,0.042451
-0.0440656,0.00625311
-0.0472305,-0.059155
-0.0679996,-0.0549124
-0.047071,0.0217609
0.0041172,0.0684329
0.0191571,0.039772
0.0352075,-0.0303177
0.0415885,-0.0441634
0.0182494,-0.0395544
-0.0114536,-0.0294289
-0.0043818,-0.0205913
0.0335431,-0.0081781
0.0334256,0.00830092
0.0342783,0.0217962
0.0715099,0.022454
0.0974455,0.0119574
0.0697539,-0.00342457
0.0162803,-0.00548738
-0.0387425,-0.0075954
-0.0724374,-0.00868574
-0.0599114,-0.000958218
-0.0341578,0.00688098
-0.0371487,0.0020491
-0.0364181,0.000136649
0.0245404,-0.00446358
0.00995666,-0.00348349
-0.0531397,-0.00142856
-0.0456781,0.0112433
0.000520771,0.031392
0.0269086,0.0280574
0.000351139,0.0057174
-0.0243828,-0.0125067
-0.0132508,-0.018648
0.00915706,-0.0147625
0.0188244,0.00281514
0.0143206,0.0105756
0.0236788,0.00335106
0.0513607,0.0103385
0.0738895,0.0161959
0.043091,-0.00450685
0.00185596,-0.00909661
-0.023964,-0.00852615
-0.0405942,-0.0189033
-0.0425974,-0.0294581
-0.0172717,-0.00694963
0.00454099,0.0111913
0.0172691,0.0107017
0.0265154,0.0130294
0.0438073,0.00530847
0.0417386,-0.0021276
0.00413837,-0.00593028
-0.0325083,-0.00749755
-0.0303627,-0.00700507
0.00365171,0.00560227
0.0337036,0.0190169
0.0136861,0.0198526
-0.0527714,-0.00164758
-0.0759908,-0.00744285
-0.0596123,-0.000222089
-0.02457,1.25e-05
0.0126508,0.00355769
0.0539496,0.0211378
0.0643607,0.00724993
0.0239007,0.000318521
-0.0137468,-0.00621094
-0.0272663,-0.0155254
-0.0268097,-0.0121711
-0.034114,-0.00595701
-0.0505475,-0.00231771
-0.0380438,-0.00750158
0.00513542,-0.00327755
0.0286127,0.00887802
0.0401175,0.00230195
0.0496145,-0.0226766
0.0113035,-0.0267886
-0.0406902,-0.0231118
-0.0695059,-0.0168282
-0.0553352,0.0022992
-0.00226171,0.026993
0.0322687,0.0138274
0.0360329,0.0164427
0.0447125,0.0510741
0.0424927,0.0486805
0.0275694,0.0028221
0.0169059,-0.0304343
0.0162998,-0.039729
0.012705,-0.0126852
0.0209683,0.0105023
0.0281294,0.0100973
0.0174449,-0.0056364
-0.0135491,-0.0140551
-0.0574209,-0.0117773
-0.116149,0.0011824
-0.147852,0.0107896
-0.0959065,0.0211439
-0.00151696,0.0117386
0.0613372,-0.0322914
0.0939758,-0.0219194
0.0664314,-0.0377613
0.0205371,-0.0250292
0.0111228,0.00488348
0.0118356,0.0227667
0.0200378,0.0275892
0.0406072,0.0182198
0.0504846,0.0262801
0.033979,0.0230772
0.0179923,0.00992665
0.0108339,0.00593277
0.00157469,-0.000125722
-0.00244889,0.00746726
-0.0076273,-0.00697289
0.0085408,-0.00544302
0.0228197,0.0136069
0.00412692,0.00852918
-0.0176818,-0.00194362
-0.0159118,-0.0217014
-0.0320175,-0.0327522
-0.0617394,-0.0168484
-0.064517,-0.00100474
-0.0692339,-0.00188311
-0.051637,-0.00981924
-0.0063951,-0.00944303
0.0108418,-0.00206291
-0.0221027,-0.00326159
0.0108095,0.00308632
0.0708732,0.000823195
0.0435356,-0.00855024
0.0128102,-0.000728086
0.0729886,0.015317
0.0892447,0.0243361
0.0805081,0.0357221
0.0740175,0.0464346
0.0262778,0.000720753
-0.0445231,-0.0391945
-0.104709,-0.029907
-0.125662,-0.0142334
-0.124365,-0.00732462
-0.117533,0.00108832
-0.0668163,-0.00392431
-0.00395853,-0.030236
0.00735382,-0.049528
-0.000265126,-0.0152138
0.019741,0.015744
0.0435474,-0.00586229
0.0428133,0.0213587
0.0470223,0.0378451
0.0473051,0.0215775
0.03675,0.0267026
0.040825,0.0060779
0.0246821,-2.59e-05
0.00371754,-0.0097671
-0.00567148,-0.0183412
-0.0175924,-0.0178966
-0.0132262,-0.0149544
0.0169756,0.0197147
0.0226684,0.0371141
0.00522305,0.00533416
0.000828159,-0.00295107
0.00250245,0.0102857
-0.00736795,0.00977258
-0.0140476,-0.014453
0.00240171,-0.0174405
0.0239395,0.000577741
0.0291443,0.00610873
0.0268547,0.00639435
0.00924361,0.00302277
-0.0311699,-0.000863825
-0.0504838,-0.00260877
-0.0317517,0.000902595
-0.0190268,0.00288208
-0.0277187,0.00853905
-0.0278919,0.00209526
-0.00947061,-9.69e-05
0.00940221,0.0110003
0.000884996,-0.0111566
-0.00639069,-0.0432668
-0.0103383,-0.0464058
-0.00492634,-0.016202
0.00840746,0.0359498
0.0198914,0.0582458
0.0154675,0.0078933
0.0116562,-0.0157466
0.0151351,-0.00757475
0.0084105,-0.00732809
0.000282749,-0.00512824
0.00374104,-0.00408287
0.00232702,-0.000819869
0.0154183,0.00994844
0.0319584,0.00935975
0.0205188,0.00435852
0.00468642,0.00484675
0.000792504,0.000715292
-0.00566774,-0.0086812
-0.0204046,-0.0157017
-0.0197418,-0.0123579
-0.00409756,0.00344469
-0.00568833,0.00743667
-0.00572688,0.00341793
0.00973596,-0.00383297
-0.00297418,-0.00787629
-0.0570388,-0.00533278
-0.100974,-0.00505375
-0.111888,-0.00489179
-0.108058,0.0124399
-0.0540261,0.0271371
0.0376796,0.0117717
0.109,-0.0130062
0.138245,0.0154157
0.101151,0.0261066
0.0364681,-0.0224126
0.0142801,-0.0473363
0.029798,-0.0183827
0.052142,0.0108902
0.0430926,0.010468
0.017317,0.0461877
0.00418297,0.0296406
-0.0194582,-0.022985
-0.0465364,-0.0291465
-0.042875,-0.0210005
-0.0256175,-0.0127127
0.00572855,0.00367647
0.030481,0.015496
0.016439,0.0157232
-0.0140186,0.00403339
-0.0275072,-0.00421769
-0.0336886,-0.00701711
-0.0398443,-0.00968023
-0.0317545,-0.0064418
-0.00416865,0.00765356
0.0335718,0.00701994
0.0584125,0.011285
0.0725101,0.0118572
0.0461261,-0.0048427
0.0051117,-0.0108925
-0.00501882,-0.00487881
0.0185727,-0.00206352
0.0358787,-0.000220435
0.0380123,0.0254894
0.0136888,0.0295958
-0.0362498,-0.000896685
-0.0724291,-0.0173486
-0.102436,-0.018182
-0.124165,-0.0236172
-0.116363,-0.0193373
-0.0608981,-0.000149971
-0.00925741,0.00949719
0.00947221,0.00851779
0.00536201,-0.00362366
0.0103294,-0.00918087
0.0208423,-0.00630218
0.0134911,-0.00117987
0.00826672,0.00269546
0.0181503,0.00518985
0.0346986,0.000739641
0.0548931,0.0098105
0.0590115,0.0268057
0.0374183,0.0301037
0.025328,0.0171849
0.0207788,-0.0142447
-0.00458892,-0.0277675
-0.0198273,-0.0190701
-0.00473408,-0.00410243
-0.00179628,0.00434059
-0.039824,-0.0133531
-0.0344949,-0.0258353
-0.00611062,-0.00295173
-0.0141152,0.023872
-0.0151458,0.02364
-0.0113853,-0.0200176
-0.0102773,-0.0536448
0.0233972,-0.0124956
0.0582164,0.0318042
0.0544921,0.0308784
0.0312779,0.0308426
0.0241851,0.0418124
0.0141269,0.0261596
-0.0026513,-0.00149019
-0.0150867,-0.00337788
-0.00875941,-0.00193695
0.00300701,-0.0197004
0.00165378,-0.0302626
-0.00306035,-0.0138972
-0.00801989,-0.00424594
-0.0176955,-0.00958337
-0.0250913,-0.0096545
-0.0170586,-0.0029145
-0.0101801,0.000493442
0.0103678,0.00366004
0.0268335,0.00485165
0.0181906,0.00140285
0.00263334,-0.00210725
-0.00484475,-0.00179173
-0.0124684,-0.00825235
-0.0257598,-0.0184015
-0.0307318,-0.0125362
-0.0177183,-0.000885295
0.00228503,0.00352659
0.0198524,0.0141129
