Comp Ch 3,Comp Ch 4
-0.0592578,-0.00926003
-0.0695512,-0.0293667
-0.0586103,-0.0094995
-0.0433234,-0.0427221
-0.0162103,-0.0189402
0.0190965,0.0124464
0.0197005,-0.00473047
-0.00976993,-0.0187725
-0.0156283,-0.00462126
0.0102329,0.00538062
0.077604,0.0173155
0.127401,0.0275074
0.0945591,0.0154775
-0.00300049,-0.00706586
-0.0704344,-0.00937739
-0.0901489,-0.00177047
-0.0818247,-0.00844755
-0.0600954,-0.0174834
-0.0250449,0.00184708
-0.00256472,0.00872177
0.00127465,-0.000323605
0.00157597,0.000170786
-0.00351164,0.00109762
-0.0130713,-0.000768908
-0.000915338,-0.00351056
0.0297832,-0.00357892
0.0429401,0.000521533
0.0506826,0.0108806
0.0389536,0.0133269
-0.00346901,0.00448797
-0.0230965,0.00395359
-0.00464895,0.0133584
-0.00137726,-0.00791869
-0.0109459,-0.0263556
-0.0043365,-0.0207116
0.0223298,0.00575376
0.0350385,0.016173
0.0256669,0.0105
0.0116398,0.00665946
-0.0126927,-0.00411966
-0.0383925,-0.0139386
-0.0397567,-0.0133225
-0.0332451,0.00445545
-0.0236407,0.0260494
0.00712423,0.00867498
0.0162243,-0.00241252
0.000490404,-0.0151649
0.000737625,0.0115768
0.0111743,0.0430253
0.00103713,0.101331
-0.0083187,-0.0188828
0.0142771,-0.106231
0.0382988,-0.0456201
0.0262973,0.0127513
0.00800657,0.0215835
-0.00720477,-0.0270457
-0.0238041,-0.0315942
-0.00812592,-0.0176068
0.0528609,-0.0138506
0.103446,-0.00963552
0.1161,-0.00582627
0.0689962,0.00538025
-0.023961,0.0142311
-0.0959065,0.00615242
-0.116328,-0.00232237
-0.118152,-0.00308852
-0.0832799,-0.00278981
-0.0275013,0.00511791
0.0144714,0.0241174
0.0329592,0.0252525
0.00976557,0.0112859
-0.00718747,0.00720325
-0.0216965,0.00841591
-0.0429273,0.00212896
-0.0481331,-0.0105444
-0.0371349,-0.0106632
-0.0206625,-0.0143806
0.0748245,0.00302138
0.195589,0.0222237
0.209563,0.0150788
0.121612,0.00585674
-0.00948743,0.00434538
-0.13606,0.0235149
-0.171209,0.0233059
-0.119341,-0.0283941
-0.0296221,-0.0199745
0.0375768,-0.0163807
0.0525742,-0.0160788
0.0285866,0.00154393
-0.00493668,0.00260345
-0.02255,-0.0166347
-0.0271891,-0.0134822
-0.0369803,0.00199484
-0.0208628,0.000857886
0.00600157,0.0226177
0.0119293,0.0373386
-0.0167985,-0.0128995
-0.0114167,-0.0409851
0.0115498,0.0089853
-0.00749228,0.0160913
-0.0138415,-0.0456809
0.034834,-0.029607
0.0848643,0.0437969
0.086313,0.0528948
0.0714679,-0.0023053
0.0446405,-0.0283316
0.00544757,-0.00757573
-0.0194009,0.0040492
-0.0416364,-0.00101211
-0.0711524,-0.0133248
-0.0766271,0.00682005
-0.0611094,0.0328861
-0.0543016,0.0185566
-0.0517805,-0.00418766
-0.0331449,-0.00703725
-0.0175387,-0.00169585
0.0229004,-0.00417661
0.0748137,-0.0109977
0.0989271,-0.00238865
0.101839,-0.000701658
0.0564832,-0.00593349
-0.00285597,-0.00181391
-0.058071,0.00545806
-0.0874422,0.00292144
-0.0831171,-0.00904844
-0.0515248,-0.0141951
-0.0160259,-0.0146162
0.0151273,0.00159584
0.0327324,0.0126965
0.0590039,0.00746473
0.094348,-0.00159468
0.094325,-0.00761333
0.0517607,-0.00899897
-0.0138275,-0.00694627
-0.0602434,-0.000463784
-0.0429619,0.00377317
-0.0197497,0.00448868
0.00491666,-0.000469789
0.0284334,0.00756614
0.0178528,0.0248877
-0.0197545,-0.00440074
-0.0624518,-0.0254044
-0.0726068,-0.0276102
-0.071882,-0.00283428
-0.0264887,0.01921
0.0125483,0.0228617
0.0261483,0.0135689
0.0351861,-0.00826705
0.0382094,-0.00967635
0.0267315,-0.0115852
0.00275458,-0.0121173
-0.00490237,0.0056035
0.00740328,0.0330387
0.0116686,0.0207592
0.0164599,-0.0161485
0.0162216,-0.00544778
0.0151216,-0.003896
0.0258916,0.0090682
0.0329456,-0.0128205
0.0162491,-0.0144422
-0.0094936,0.0230078
-0.0207613,0.0176245
-0.0349584,0.00227491
-0.0177221,0.0392655
0.00484319,0.038056
0.00103366,-0.0258098
-0.0224907,-0.0457941
-0.0485902,-0.0226925
-0.0492104,0.00356915
-0.0306688,0.00717005
-0.0146449,-0.000148764
0.00517901,0.0180405
0.00489227,0.0402693
8.23e-05,-0.0206233
-0.0112733,-0.0315195
-0.00408612,-0.0228657
0.00170482,-0.0179322
0.01886,-0.000799354
0.0544103,0.0106261
0.0683853,0.0110526
0.0589583,-0.00194186
0.0490923,-0.00640026
0.022543,0.0159781
-0.0190253,0.0138884
-0.0491128,-0.037837
-0.0381793,-0.0265278
-0.0124151,-0.0154282
-0.00750876,-0.0104425
0.00094987,0.0110092
-0.00836762,0.021023
-0.0402199,0.0153121
-0.0622994,-0.00399198
-0.0284096,-0.0210433
0.0200627,-0.014161
0.046138,0.0157827
0.0472618,0.0310072
0.0261087,0.0231887
0.0103094,0.011505
0.0109151,-0.00349651
-0.00101208,0.0230153
-0.00249899,0.00435432
0.0106765,-0.0359646
0.0299896,-0.006114
0.0109408,0.0276855
0.00196172,0.00730782
0.00559081,-0.0329291
-0.0374261,-0.0294306
-0.0738659,0.00729804
-0.070854,0.0275427
-0.0480194,-0.00234066
-0.010077,-0.00238977
0.0377733,0.0165578
0.0477313,-0.00260177
0.0295614,-0.0181534
0.0128604,-0.0135214
-0.00366254,-0.00752102
-0.0298077,-0.00916799
-0.0400157,-0.00454576
-0.0288896,0.0112648
-0.00317245,0.0388286
0.00896831,0.0419588
0.0297734,0.00464493
0.0399001,-0.0129561
0.0404199,-0.00966429
0.0514524,-0.00898123
0.0658173,-0.0274026
0.0328416,-0.0533461
-0.0201279,0.0033315
-0.0568308,0.0354604
-0.071888,0.012147
-0.043753,0.00334878
-0.0110289,-0.00432482
-0.00555147,-0.0106061
-0.0207782,-0.012247
-0.00837027,-0.00795353
0.0511617,0.00285818
0.0895381,0.00274242
0.0895589,4.24e-05
0.0661501,-0.00121816
0.0104467,-0.00241241
-0.0433468,-0.0013774
-0.0590303,0.00251584
-0.0480305,0.0154329
-0.0131562,-0.000124203
-0.00320293,-0.00483774
-0.0146555,0.0115738
-0.0342317,0.000742541
-0.062344,-0.0178342
-0.0731728,0.0113586
-0.053779,0.0242922
-0.0323847,0.0141612
0.00112153,-0.008197
0.051303,0.0146092
0.0707564,0.0136742
0.0462866,-0.034311
0.0371846,-0.0248239
0.0528407,-0.0158249
0.0248691,-0.00195963
-0.027202,0.038793
-0.0225256,-0.00738619
-0.0113446,-0.0256288
0.00100933,0.0205401
-0.00239757,0.0154844
-0.0293364,-0.00160948
-0.0506127,-0.00891552
-0.0412934,-0.0109448
-0.0111717,0.0197375
0.0358073,0.00203332
0.0627819,-0.0188063
0.0472552,-0.000884651
0.00922184,-0.000157032
-0.0125498,0.00361813
-0.0214155,0.00910915
-0.0282505,0.00773359
-0.030653,-0.00463206
-0.0227276,-0.0144296
-0.0145823,-0.0267041
0.00918871,0.00724845
0.0379122,0.0520599
0.0390431,0.00171231
0.0244134,-0.00122186
0.0192103,0.0270807
0.0158981,-0.0149152
0.00916607,-0.00552795
0.0256892,-0.00684519
0.0694655,-0.0378844
0.061303,-0.0251743
-0.00546535,0.00567112
-0.0531898,0.010279
-0.078172,0.000971373
-0.0787038,-0.000409232
-0.0513568,-0.00335931
-0.0126914,-9.83e-05
0.0100286,-0.000986327
0.0451377,0.00768295
0.0560198,0.0120667
0.0242678,-0.0046839
-0.00862794,-0.0185079
-0.0280354,-0.0129725
-0.0381712,0.00693486
-0.0476082,0.00231976
-0.0359642,-0.0277438
0.000718713,-0.00436168
0.0227198,0.0224581
0.0225464,0.0128337
0.022635,-0.00116501
0.0138313,0.0116289
-0.00584155,0.0285807
-0.00610116,0.023311
-0.000212858,-0.00803971
0.00133242,-0.0119061
0.0234849,0.0163413
0.0194066,0.0182377
-0.00286665,0.0098306
-0.0182527,0.0343154
-0.0204122,0.0284112
-0.0135848,-0.0354838
-0.00663963,-0.0390504
0.0165495,-0.0110254
0.0369599,-0.00336601
0.0204671,-0.00820946
-0.00161091,-0.00773932
-0.0245965,0.00280201
-0.0268768,-0.0238611
-0.0270503,-0.048616
-0.0242719,-0.0291015
-0.00774627,-0.00658588
0.0322624,0.00811266
0.0544139,0.0122793
0.0329879,0.0127331
0.00235057,0.0173897
-0.0109979,0.00557749
-0.0329111,-0.010249
-0.0233631,-0.0187554
-0.00946547,-0.0164274
-0.0059298,0.00670879
0.00679107,0.0268899
-0.0049802,0.032161
0.00796366,0.0333306
0.022016,0.0162584
-0.00202034,0.00389183
-0.0145096,0.00289047
0.00175442,-0.0196556
0.00490293,-0.0261651
0.028222,0.0150234
0.049653,0.0601863
0.0487368,0.0336438
0.0494012,-0.0213655
0.0472687,-0.0425511
0.0144988,-0.0354816
-0.042595,-0.0120072
-0.0792629,-0.00463871
-0.0727664,-0.00736462
-0.0543639,0.0260418
-0.014315,0.0166425
0.0112693,-0.0151916
0.00204931,-0.0136089
-0.017295,-0.0107697
-0.0286721,-0.00582249
-0.0110946,-0.00237238
-0.00294391,-0.00191134
5.99e-05,0.00956578
0.0185801,0.00400873
0.0149527,-0.00945408
-0.00258025,-0.0128524
-0.0199762,-0.015534
-0.0357165,0.0112829
-0.0316587,0.0167082
0.00324264,0.00526688
0.0406567,0.025752
0.0858159,0.0410757
0.0617986,0.0282038
0.0315199,-0.0127626
-0.00214858,-0.0288997
-0.0253946,-0.0224053
-0.0443762,-0.0242723
-0.0430506,-0.0226537
-0.0141034,-0.0134278
0.0001495,-0.00102421
-0.0063404,-0.00261946
-0.0100111,-0.00419935
-0.00086033,-0.00724614
0.00547323,-0.0075926
0.0151189,-0.0017268
0.027413,0.0209835
0.036371,0.0339438
0.034727,0.022939
0.0450324,0.0112743
0.0491582,0.00724076
0.0214715,0.00411831
-0.0194296,-0.00642335
-0.0354666,-0.0128994
-0.0642087,-0.0105961
-0.0696611,-0.00450072
-0.0459371,-0.00261864
-0.0365661,-0.00130668
-0.0308953,-0.00992801
-0.00664894,-0.0113266
0.00152213,-0.00637422
0.0122864,-0.0192495
0.0331927,-0.0137386
0.0618699,0.0103935
0.0807234,0.0282492
0.0749003,0.0304664
0.0622383,0.0204824
0.0440995,0.0139463
-0.00131749,0.0220451
-0.0472598,0.00314839
-0.075301,-0.0172861
-0.0817984,-0.0226352
-0.0482409,-0.00900627
-0.0170844,-0.000677718
-0.0158423,-0.00737235
-0.00723672,-0.0156072
-0.000340765,-0.0179983
-0.00190955,-0.00738869
-0.00555963,0.00453749
0.00285628,0.0131033
0.0225898,0.0339469
0.0224537,0.014897
0.00231471,0.00394884
-0.00541475,-0.00192627
0.00581494,-0.0104923
0.0119677,0.00161948
0.00627758,-0.0171685
-0.00754316,-0.0442563
-0.0153517,-0.0143072
0.00668865,0.0167886
0.0132776,0.021114
-0.00891061,0.0127338
-0.0103805,0.00813237
0.00757602,-0.00184395
0.0116227,-0.017808
0.00177102,-0.00208915
0.013308,0.0302585
0.0356574,0.0110399
0.0215711,-0.0107716
0.00892931,-0.00544994
-0.00549101,-0.00134353
-0.0232531,-0.00444612
-0.0434632,-0.0148397
-0.0452843,-0.0129782
-0.0374147,-0.00240277
-0.00428453,0.00877234
0.0307338,0.00998008
0.033441,-0.0043677
0.0301482,-0.00428219
0.0334472,0.0206606
0.0121918,0.0280406
-0.0167212,-0.00538716
-0.0343468,-0.0177761
-0.00796749,-0.00903203
0.021459,0.0102964
0.0222879,0.00931033
0.0166171,0.00634825
-0.000378095,-0.000732666
-0.0290931,-0.0111494
-0.043073,0.00324017
-0.0406426,0.000537857
-0.0326102,-0.0199284
-0.00156403,-0.0132883
0.0319193,-0.0114157
0.0245085,-0.00664632
0.0235539,-0.00474189
0.0377033,-0.0108698
0.00543865,-0.0133587
-0.03825,-0.00794131
-0.00746711,0.00346362
0.0254811,0.0338371
0.0372793,0.051817
0.0249261,0.0335714
-0.00320147,0.0163012
-0.0193352,0.0025378
-0.0332901,-0.053669
-0.0564733,-0.0269968
-0.0546366,0.0286063
-0.02858,0.0219039
0.0223153,-0.0169055
0.0380118,-0.0151137
0.0159326,0.00830542
0.00305409,0.00338514
-0.00332426,-0.0128019
-0.000889613,-0.0109627
-0.00112259,-0.0260559
0.0161312,-0.0348952
0.0328224,-0.00780821
0.024716,0.0137668
0.0109659,0.0314416
0.00129094,0.0230859
-0.0100983,-0.0176535
-0.0200372,-0.0292674
-0.0192866,-0.00483543
-0.0233621,0.00484754
-0.0046605,0.0169779
0.0187243,0.0354763
0.00999783,0.0521745
0.00457359,0.010515
0.0150572,-0.031257
0.0107535,-0.0255492
-0.00506445,-0.0195877
-0.0164377,-0.00680478
0.0167949,0.00943766
0.039276,0.00514265
0.0144942,0.0146344
-0.00509772,0.0251312
-0.0263736,0.0216238
-0.0400802,-0.0136354
-0.0416185,-0.0268117
-0.0277583,-0.0134475
-0.0170905,-0.0120055
0.0177224,-0.00493923
0.0510759,0.0169902
0.0459262,0.0136153
0.0386095,-0.015553
0.0338817,-0.0172963
0.00818561,-0.021191
-0.0244554,-0.0141472
-0.0245682,0.00646809
0.000347768,0.0180731
-0.00223649,0.0149797
-0.0112757,0.0186421
-0.00830703,0.0118641
-0.00347631,-0.00582143
-0.0163867,-0.00226999
-0.0308001,-0.00861054
-0.0348806,-0.0187565
-0.00827109,-0.0106857
0.0237739,0.00428726
0.0184241,0.0108107
-0.00849161,0.00585685
-0.00976084,0.00372692
0.00177109,0.000954892
-0.0150302,-0.0152317
-0.0157195,-0.0314097
0.000190795,0.00602339
0.0158574,0.0312608
0.0192487,0.00346549
0.0162577,0.00214261
0.00600808,0.00530544
-0.00962572,-0.00966274
-0.027144,0.00870499
-0.0181183,-0.00674412
-0.00822996,-0.0245468
0.00974775,0.00383432
0.0296594,0.0296801
0.0269115,0.0110274
0.00538164,-0.00600333
-0.00782758,-0.00987859
0.00828043,-0.0147348
0.00415627,-0.00765405
-0.018097,0.0107684
0.00018215,0.0107347
0.0245858,0.00167308
0.0177094,0.00717453
0.0182509,-0.00554194
0.00925461,-0.00423676
-0.00505381,0.0023573
-0.0135906,-0.00866764
-0.0192385,0.000442385
-0.0220323,0.0123625
-0.00322585,0.0225325
0.0102601,0.0208898
0.00345314,0.0101463
0.00316417,-0.00751007
0.00260555,-0.00760835
-0.00976487,-0.00373167
-0.0214235,-0.00416522
-0.0164813,-0.0047809
0.00694561,-0.0107303
0.0140379,-0.0161014
0.00986882,-0.00243853
0.00529112,0.0124915
-0.00532274,-0.00204803
-0.0235059,-0.0130596
-0.0275726,-0.0171571
-0.0202174,-0.0166113
-0.00418685,-0.0106893
0.0259874,0.00167811
0.0375477,0.00365764
0.0180332,-0.00108335
0.00367251,0.00439931
-0.000945394,0.000736475
-0.00379032,-0.00698669
-0.00642177,0.00336436
0.00292246,0.0285492
0.0196874,0.0281778
0.0158723,0.0205141
0.00556537,0.0128188
0.00124235,-0.00602338
-0.00962998,-0.0278282
-0.0233074,-0.0151883
-0.0289037,-0.012451
-0.0254856,-0.0149791
-0.00532942,0.00186216
0.0280623,0.0126687
0.0361875,0.00914054
0.0137059,0.0017339
-0.00297767,0.00247299
-0.0179614,0.0296251
-0.0263549,0.0355454
-0.0231879,-0.00642506
0.00619961,-0.0112355
0.0312486,0.0183358
0.0164081,-0.0370036
0.0152822,-0.0470475
0.00901646,-0.0233499
-0.020186,-0.0118388
-0.0398929,0.0303924
-0.0153349,0.0417174
-0.0327317,-0.0181883
-0.0261029,-0.017689
0.00775587,0.00303686
0.0153132,0.00282026
0.010348,0.00153339
0.00590224,0.0145028
0.00945905,-0.00774476
0.0112087,-0.0197932
0.0218454,-0.0092661
0.0292581,0.0180899
0.022062,0.0358185
0.016376,0.00298152
0.00724403,-0.00383806
-0.00879801,-0.00611219
-0.0175611,-0.0132155
-0.017732,-0.0124107
-0.010496,0.0068665
0.0012406,0.0134382
0.0259641,-0.000238616
0.0307872,0.00357517
0.0106357,0.00549123
-0.00186186,-0.0176874
-0.0048639,-0.0334105
-0.0105301,-0.0125199
-0.0162186,0.00247488
-0.00813707,0.00578619
0.00792093,0.0112701
0.00930602,-0.00367657
0.00487738,-0.00255471
-0.00953529,0.0124743
-0.02143,-0.00260858
-0.0294448,-0.00810125
-0.0280622,0.0224165
-0.0200737,-0.00653884
-0.000840423,-0.00836448
0.02078,0.0267261
0.0272782,0.0167846
0.00702911,-0.00804696
-0.0176808,0.00242286
-0.024483,0.0158321
-0.0204559,-3.84e-05
-0.020467,-0.00738071
0.00348538,-0.00228138
0.0264463,0.00266671
0.0224373,-0.00384647
0.0182074,-0.00946658
0.0088382,0.00967284
-0.00336704,0.0140895
-0.0117118,-0.0367061
-0.00431321,-0.053837
-0.00411474,0.00662323
0.0102095,0.0391955
0.0281315,0.0294028
0.0301876,0.00609607
0.00878895,0.00124829
-0.0206617,0.0141528
-0.0275392,-0.00496088
-0.0147569,-0.0207974
-0.0105712,-0.00864683
0.00435902,-0.00240117
0.0154588,0.003794
0.00941723,0.00446226
0.00263573,-0.00883885
-0.0123626,-0.0220352
-0.0252321,-0.00153854
-0.0253534,0.0111623
-0.00300189,0.00577405
0.0171237,0.00341407
0.0370378,0.0133106
0.038219,0.00450588
0.0241251,-0.00501087
0.0223628,-0.00258635
0.017226,-0.00277278
0.00403647,-0.00728677
-0.027952,-0.00995175
-0.0381656,-0.0064676
-0.00974171,0.000869373
-0.0201976,-0.000785907
-0.0324565,0.00313933
-0.0286463,0.0205925
-0.00842067,-0.00867224
0.018376,-0.0357078
0.0435811,-0.0165956
0.0468541,-0.00567994
0.0498435,0.00700856
0.0543753,0.00636745
0.0251278,0.00619937
-0.00462831,0.0393983
-0.0243763,0.0395636
-0.0570776,-0.00413132
-0.0741568,-0.0377274
-0.0742038,-0.0223638
-0.0553278,0.00289023
-0.0322471,0.0111685
-0.00913263,-0.00474193
0.0151014,-0.00724585
0.0174615,0.00208973
0.00279346,-0.00198911
-0.00934252,-0.00445551
-0.010757,-0.00415008
-0.017495,-0.0044151
-0.00245781,0.0129536
0.0315965,0.0178913
0.0354745,0.0212765
0.0248503,0.0211395
0.0233045,0.00773708
0.0181296,0.00649718
0.00667878,-0.00677618
-0.000397274,-0.0161098
0.0116023,0.00536484
0.028935,0.0253106
0.0242469,-0.00298426
0.0218695,-0.0453856
0.00977838,-0.0358274
-0.0171407,-0.000267073
-0.0182667,0.0175595
-0.00970033,-0.00978357
-0.0185454,-0.0200296
0.000840374,-0.00659898
0.0105447,0.0229658
0.000394514,0.0871846
0.0055777,0.0670274
0.0183022,-0.0488639
0.00477086,-0.0453814
-0.0120266,-0.0173541
-0.0178739,-0.00795403
-0.0106972,-0.023837
-0.00321621,-0.0265209
0.0049295,0.0275297
0.0109495,0.0269086
-0.000997453,-0.025626
-0.0296884,-0.0392813
-0.0313346,-0.00575009
-0.0120723,0.0117287
0.00612997,0.0130305
0.0307844,0.0119099
0.0323224,0.0123898
0.0148554,0.00277009
0.0165524,-0.00887139
0.0139929,-0.00741526
-0.013294,-0.00471414
-0.0330004,-0.0176241
-0.0100838,0.00446143
0.0182275,0.0223851
0.0204744,-0.0204614
0.00845259,0.0342286
-0.0028629,0.0808236
-0.0128523,-0.0179097
-0.0287491,-0.0679254
-0.0415905,-0.0276545
-0.0383375,-0.0147749
-0.00856021,0.00590341
0.0170129,0.0286754
0.0173093,0.0196527
0.0151017,0.00158699
0.0383,0.00194647
0.0694475,0.00940641
0.0564894,-0.00293862
0.0140846,-0.0115182
-0.00576778,0.000720714
-0.0152597,-0.00269418
-0.0443315,-0.0176954
-0.0510775,-0.0105051
-0.0504176,-0.00119913
-0.0540263,-0.00353839
-0.0448745,0.00241164
-0.0249311,0.00949444
-0.00939187,0.00894533
0.0117193,0.0129019
0.0275287,0.00773628
0.0260363,-0.00132394
0.0195097,-0.00252898
0.0179805,-0.0172684
0.00933862,-0.00177877
0.00520977,-0.00382007
0.00415348,-0.0187819
0.00341595,0.00968072
0.00907426,0.00589639
0.0287573,-0.00915382
0.0216595,-0.0099422
-0.00829779,0.0361687
-0.0366097,0.0412682
-0.0390698,0.00723393
-0.0277927,0.00314067
0.00165719,0.0137425
0.0398112,0.00635178
0.053549,0.0148327
0.0418016,-0.0194797
0.0297234,-0.0414567
-0.000800471,-0.0432949
-0.0233374,-0.0283572
-0.0214322,-0.0132566
-0.000882958,-0.0021205
0.0222566,0.0202063
0.00694574,0.0298736
-0.0361272,0.0275993
-0.0496452,0.016546
-0.0367798,0.0112758
-0.0252888,-0.0157055
-0.0214872,-0.037415
-0.00883646,-0.0242594
0.0182988,-0.0266271
0.0307561,-0.0188755
0.00651855,0.0161775
0.0083683,0.0456582
0.0540535,0.0218927
0.0561345,0.00235655
0.013823,0.00546186
-0.0202016,0.0035464
-0.0210189,-0.0147904
0.0209208,-0.021639
0.0145542,-0.0146743
-0.0218762,-0.00559327
-0.0505389,0.00825658
-0.0453925,-0.019576
-0.0177735,-0.0377967
0.000493218,-0.0101919
0.015922,0.00586984
0.00525069,0.0703534
-0.0246247,0.0966602
-0.0147274,0.012204
0.00333781,-0.0319181
0.00430371,-0.0390831
0.00530037,-0.0299505
0.0316574,-0.0009707
0.0688997,0.0141965
0.0695907,-0.00275179
-0.025973,-0.00410352
-0.0874063,0.0246535
-0.0274541,0.0669925
0.0162446,0.0861921
0.0143429,0.0073872
0.0488254,-0.0636805
0.0529972,-0.0485635
0.0249029,-0.0339186
0.00512215,-0.0220193
-0.0026703,-0.0165659
-0.0254096,-0.00826761
-0.0305486,0.0180687
-0.0157246,0.0154325
-0.0169088,-0.0135353
-0.0473313,-0.039388
-0.0604561,-0.0231737
-0.0372061,-0.00378164
-0.00893835,0.0155168
-0.0296058,0.037234
-0.0364631,-0.0448585
0.0375229,-0.063415
0.0798617,0.0699163
0.0553709,0.0559857
0.00109698,-0.0233312
-0.00258431,-0.00961869
0.0287527,-0.0127304
0.0147761,0.00607845
-0.034941,0.0506226
-0.0353673,0.0435864
-0.0191315,0.0300041
0.00425891,-0.00731713
0.0112444,-0.0678756
0.0128844,-0.031888
0.00989432,0.0199317
0.0302945,0.0168385
0.0852719,0.021476
0.0826011,0.0331796
-0.0072988,-0.00789427
-0.0566204,-0.0744121
-0.0646115,-0.0502362
-0.052791,0.0175158
0.0121734,0.0398815
-0.00182405,-0.014239
-0.0339113,-0.0575752
0.00221753,-0.00907711
0.0252922,0.0136578
0.0326807,0.00615711
0.0537799,-0.000398277
0.0388259,0.0129809
0.000842664,0.0456222
-0.0333155,0.0271922
-0.0414846,-0.0119946
-0.0207452,-0.0371147
-0.0464687,0.0104035
-0.0670995,0.0200557
-0.0284239,-0.0472881
0.0324795,-0.00804581
0.0137767,0.0157023
-0.00168728,-0.0220407
0.0310651,0.0331985
0.0347163,0.037895
0.0683422,0.00250423
0.0710528,0.0198695
0.00736957,0.0114038
-0.0631435,0.0521857
-0.101743,0.0386793
-0.0533342,-0.0715274
-0.00444478,-0.0373234
0.0149275,-0.0178019
0.0194613,-0.0564054
-0.00103486,-0.0401002
-0.0423323,0.0154208
-0.0701056,-0.000903985
-0.047301,0.00441961
0.0197896,0.0401345
0.0623729,-0.0084798
0.0404048,-0.0139812
0.0182728,0.0117335
0.0419446,0.0247054
0.023258,0.0209494
-0.010672,-0.0125195
0.00621166,-0.0047362
0.034346,0.0177002
0.0414782,0.0294174
0.0304415,0.0302127
-0.0308281,-0.000437681
-0.0901918,-0.0104095
-0.0395447,-0.0378837
0.0449561,-0.0663276
0.0696401,-0.00600693
0.0254846,0.026647
0.00593906,0.0082828
0.00086474,0.0287747
-0.0414627,0.100792
-0.0242114,0.0533266
0.0447968,-0.0728479
0.0646498,-0.0772075
0.00518463,0.00412819
-0.0556362,-0.0100532
-0.0802885,0.00522683
-0.0699292,0.0515968
-0.0340162,-0.047229
-0.00553421,-0.109026
0.0304126,-0.0364929
0.00249316,0.0644427
-0.0318296,0.0388501
-0.0250396,-0.00324005
-0.00950025,-0.0021915
0.03297,-0.00916029
0.05068,0.0196995
0.0117095,0.0512552
0.0117776,-0.0216235
0.0203756,-0.0250724
0.0232389,0.0130886
0.0190681,-0.00341886
0.0089183,-0.0260158
-0.00316478,0.0102786
-0.0108936,0.0433455
0.0154524,-0.0186177
0.0330565,-0.0251474
0.0106475,-0.0116312
-0.00673329,0.00192385
-0.00942561,-0.0132102
-0.00654244,-0.00951549
0.00172054,-0.00918826
-0.000747974,-0.0061908
-0.029661,0.057117
-0.0238133,0.0577267
0.0053768,-0.0304101
-0.0245808,0.040735
-0.0495946,0.0738594
-0.0559343,-0.0783155
-0.0233283,-0.0627291
0.0242061,-0.012998
-0.00264707,0.00681049
-0.0234621,-0.00361978
0.0170384,-0.017602
0.0494621,-0.050438
0.0482807,-0.0394918
0.0310673,0.0276413
0.0299009,0.0411932
0.0547863,0.0148101
0.0801856,0.018908
0.0366428,0.0649404
-0.0686983,0.130397
-0.0741508,-0.0264213
-0.0880646,-0.0761959
-0.0836089,-0.0586478
-0.0671505,-0.0382676
-0.039601,-0.026058
-0.00963664,-0.0164085
0.0118183,-0.0108486
0.0479196,0.0126974
0.048499,0.0356497
0.0659669,0.0224328
0.056408,0.0127334
0.0254346,0.0402444
0.0627799,0.0575267
0.163997,-0.0206768
0.14476,-0.0825764
0.0276037,-0.0566035
-0.0767384,-0.0305716
-0.125854,0.0214458
-0.108569,0.0219549
-0.0777911,0.00324387
-0.0220897,0.0137313
0.0714771,0.044878
0.118591,0.0977981
0.128353,0.090634
0.0836078,0.00723923
-0.00746612,-0.0485236
-0.100615,-0.0890245
-0.165743,-0.0860761
-0.234816,-0.0689681
-0.202381,-0.040468
-0.122215,0.00527249
-0.0930633,0.0694439
-0.0632735,0.0480373
0.0359977,-0.0296784
0.111539,-0.0173316
0.0963952,0.00194872
0.0387934,-0.00522736
0.0525903,-0.00221382
0.0587071,-0.00510501
0.0230671,0.00962038
-0.0170828,0.0386344
-0.0263153,0.0225498
0.0132619,-0.0229125
0.0844146,-0.0205074
0.0944849,0.0100322
-0.0129222,0.0191855
-0.0127409,0.0412165
0.0688332,0.044947
0.085323,0.0427018
0.0708331,-0.0761167
0.00557668,-0.0705196
-0.0495205,-0.0282241
-0.0524536,-0.0359441
-0.0333507,-0.0243012
-0.00930013,-0.0174764
-0.00102733,0.00973118
-0.00141808,0.037369
-0.0228564,0.0452876
-0.0351994,0.0112079
-0.0346864,-0.0220304
-0.0337106,0.0124414
-0.0141001,0.0781723
0.0169496,0.0483951
0.0256691,-0.00831636
0.0263986,-0.0320651
0.0647858,-0.0340111
0.0910656,0.00692831
0.0612327,0.0124474
0.014518,-0.0153645
-0.0316134,-0.0310107
-0.0502287,0.0207698
-0.0316348,0.0281516
-0.0430826,-0.0151391
-0.0574624,-0.0440127
-0.0333239,-0.0287888
-0.0115779,-0.00914104
-0.0141517,0.0253073
-0.00132414,0.0804748
0.0180798,0.081195
0.0174883,-0.0227773
0.0249522,-0.0505361
0.0258767,-0.0227359
0.0165187,-0.0157119
-0.00446635,-0.00651662
-0.0172683,-0.0316986
-0.0317976,-0.0412949
-0.0427903,-0.008492
-0.0298055,0.0311968
-0.00392439,0.0166732
-0.0098975,-0.00884685
-0.00451184,-0.0146458
0.0331832,-0.00740415
0.0531556,-5.69e-05
0.0350102,-0.00235512
0.00659586,0.0591298
-0.0109594,0.0558509
-0.0068247,-0.0109374
-0.00597306,-0.00893686
-0.00518711,0.0166438
0.0105081,-0.00730369
0.028611,-0.03226
0.0241654,-0.0300253
0.00790939,0.0173876
0.0152188,0.0438279
0.0358387,0.00157101
0.037386,-0.031757
0.0237551,-0.0399427
9.77e-05,0.00380875
-0.0389598,0.0148847
-0.0510554,-0.0133947
-0.0419631,-0.0330483
-0.0505651,-0.033721
-0.0679273,-0.0333929
-0.0273784,-0.0216246
0.0282118,0.00322473
0.0527885,0.0111478
0.0583467,0.0325874
-0.00265116,0.0396674
-0.0425802,0.0147145
-0.045447,0.0578465
-0.0698523,0.0477673
-0.0939466,-0.0470233
-0.0807587,-0.00703345
-0.043731,0.000195355
0.0222553,-0.0319801
0.0687685,-0.00649552
0.108861,0.00940335
0.123072,-0.010427
0.105947,-0.010901
0.0711016,0.0848137
0.0212165,0.0851424
-0.0265737,-0.067852
-0.069494,-0.0730711
-0.0882597,-0.0215916
-0.0832189,-0.00110499
-0.0547907,0.0108266
0.0455127,-0.0102385
0.132469,-0.00555523
0.166746,0.0191265
0.0982432,0.0325792
-0.0176386,0.0337685
-0.0660369,0.0265629
-0.0712826,0.00770065
-0.0813616,-0.00701148
-0.0893876,-0.0105686
-0.0914268,-0.031345
-0.0451968,-0.0357843
-0.00842476,-0.0208782
-0.0306452,-0.027507
-0.0391735,-0.0197139
0.0156919,-0.0052857
0.0489253,0.00335357
0.0296665,0.00380179
0.00365575,0.00867903
0.0192441,0.00345527
0.0350537,0.0067881
0.0531895,0.00612225
0.0679713,0.00367436
0.0241707,0.004597
-0.0284855,-0.0112635
-0.0280626,-0.0263369
-0.0180736,-0.0156971
-0.0374363,-0.00177798
-0.00749387,-0.0143304
0.0286124,0.0106764
0.0322056,0.086802
0.0217897,0.0708183
0.0219937,0.00842303
0.00478411,0.0234872
-0.037695,0.03833
-0.0580219,0.00464087
-0.0198561,-0.0490426
0.0117472,-0.0660708
0.0121743,-0.00104967
0.0181813,-0.00278079
0.0308168,-0.010228
0.0171434,0.00680105
0.00611358,-0.00686057
0.0106163,-0.00855714
0.0121381,-0.0123923
0.0153246,0.017512
0.00728097,0.0404386
-0.00837696,0.0142389
-0.0320925,-0.0415887
-0.0299466,-0.012476
0.00864833,0.0050132
0.0129213,-0.0131754
0.0121318,-0.0285698
0.0325145,-0.01867
0.0329065,-0.00341488
0.00860247,0.0274366
-0.0112112,0.0115305
-0.0308032,-0.0115258
-0.0548411,0.00627148
-0.0574168,0.00485667
-0.0275196,-0.042861
0.016983,-0.0459043
0.046884,-0.00259737
0.021821,0.0156588
-0.0398354,0.011825
-0.0568015,0.0262682
-0.030956,0.103738
-0.019708,-0.0133511
-0.0315486,-0.11747
0.00311457,-0.0421336
0.045062,0.0278188
0.0457541,0.0466553
0.0271519,0.0424026
0.0128725,0.0164535
0.0142421,-0.0126904
0.018412,-0.000163568
0.0281265,0.0121265
0.0273574,0.0126363
0.039102,-0.000194021
0.0383961,-0.0194918
0.00414823,-0.00388437
-0.028176,0.00979699
-0.043568,0.0186114
-0.0489053,-0.00666614
-0.0542368,-0.0642228
-0.0350119,-0.0394563
0.000962098,0.0328867
0.0501308,0.014256
0.080894,-0.00759776
0.067112,0.0352465
0.0315464,0.0387956
-0.00454376,0.00954937
-0.0178554,0.0026265
-0.0465819,0.00345704
-0.0716702,-0.00131212
-0.0421049,0.00961812
0.00129214,0.0536368
0.00378462,0.00223633
-0.000841982,-0.0489321
-0.00630932,-0.0455571
-0.0364576,-0.0354725
-0.0545909,-0.0192606
-0.0659405,-0.00493384
-0.0341292,-0.0137131
0.00432054,0.00394723
0.0264584,-0.000771726
0.046756,-0.00316505
0.0381338,0.0197997
0.0164053,-0.0135898
0.000797647,-0.00362918
-0.0125546,0.0321007
0.0250739,0.0131831
0.0790128,0.0024147
0.101337,-0.0083625
0.0494691,-0.018792
-0.0202297,-0.0286123
-0.0390457,-0.0098872
-0.0430622,0.0054494
-0.0584562,0.0273081
-0.0354048,0.0269448
0.000248315,0.00762969
-0.00735294,-0.000397566
0.0107667,-0.0050054
0.0418318,-0.00192638
0.0376981,-0.00740424
0.0116474,-0.040633
-0.018641,-0.0239658
-0.0207778,0.00676808
-0.00055675,0.020785
-0.011597,0.0364803
-0.0291031,0.00825311
-0.0257213,-0.00271875
-0.0096297,0.0248079
0.000151677,0.023032
-0.0125724,-0.00449549
-0.0177335,-0.0289304
0.00162313,0.0066051
0.0309599,0.0489273
0.0307672,0.0146838
0.00657322,-0.026677
-0.0199284,-0.0183272
-0.00660355,-0.0102751
0.00119907,-0.00176288
-0.00381739,0.000898822
-0.00641397,-0.0156117
0.0056415,-0.00426521
0.0122609,0.014458
0.0271406,0.00546166
0.0328173,-0.0143054
0.0260818,-0.0262334
-0.000617321,-0.0226878
-0.0458816,-0.0146829
-0.0474827,0.0196568
-0.00144398,0.0425339
0.0341123,0.00341089
0.0318491,-0.0169217
-0.00707566,0.00304162
-0.0227137,-0.0153666
0.00396432,-0.0264691
0.020198,5.91e-05
0.0121377,0.0185944
0.017444,0.0338854
0.0365156,0.0296441
0.0375269,0.00417559
0.0162757,0.00726066
-0.00357435,0.0263331
-0.0159983,-0.0223577
-0.0257395,-0.0422778
-0.0351011,-0.0159253
-0.0391824,0.00226245
-0.0370595,0.0152517
-0.0167128,0.007095
-0.00060838,0.0156415
-0.00971538,-0.0214551
-0.0218888,-0.0457418
-0.0257767,-0.00121998
0.00596186,0.00911647
0.0202422,-0.00208521
0.01114,0.0100861
0.0107363,0.0131923
0.0199702,-0.0135295
0.0278381,-0.0108559
0.0363088,0.0218996
0.019152,0.0300103
-0.00852066,-0.00589747
-0.0155005,-0.00970301
-2.71e-05,0.0129631
0.00670266,0.0113119
-0.0365943,-0.00874996
-0.0621327,-0.0482082
-0.0700975,-0.0293803
-0.00979721,-0.00936141
0.0289531,-0.0102272
-0.0338352,-0.0364637
-0.0581272,-0.0116376
-0.0091069,0.0348238
0.0370408,0.0325353
0.0360916,-0.0105464
0.027463,-0.0294891
0.0403746,0.00319265
0.0554013,0.0240629
0.033609,0.075303
0.0156609,0.0412707
0.0124591,0.0306259
0.00407582,0.0557507
0.0118072,0.0140363
0.0155048,-0.0313935
0.0107136,-0.0729897
0.00839532,-0.0324408
0.0217356,-0.0147764
0.0203395,0.0210054
0.00385509,0.0202863
0.0115143,-0.0193848
0.00236927,-0.00458842
-0.0238253,0.0133678
-0.0108405,-0.00351729
-0.0200711,-0.0290037
-0.0627644,0.0148318
-0.080506,0.0323506
-0.0692662,-0.00668157
-0.0390336,-0.00834335
-0.00410659,0.014773
0.0447422,7.04e-05
0.0517766,-0.0291346
0.00497514,-0.0332496
-0.0143289,-0.0290718
0.0027204,-0.0208567
0.00915651,-0.0249025
-0.0167463,-0.0187136
-0.0240149,0.0292204
-0.015604,0.0590634
-0.0138551,-0.00372987
0.0121099,-0.0137645
0.0456282,-0.00999036
0.0258787,-0.0133238
-0.0053994,0.00210899
0.0197382,0.0249323
0.0391049,0.0250786
0.0510655,-0.00306501
0.0632067,-0.00516826
0.0367015,0.0241614
-0.0182208,0.0500564
-0.0425419,0.0107546
-0.0499717,-0.0265122
-0.0441982,-0.0227577
-0.00533666,0.0411036
0.0236883,0.0420672
0.0260532,-0.0550564
0.0148708,-0.0346345
0.0170934,0.00496154
-0.0209112,-0.00178596
-0.0663909,0.0092263
-0.0747245,-0.0135451
-0.0209058,0.0334836
0.0112886,0.0145767
-0.00127046,-0.0256805
0.0151495,-0.0540252
0.0219018,-0.0157547
0.0358236,0.00498858
0.0323061,-0.0094573
-0.00792372,-0.0154929
-0.00832639,-0.00198665
0.0274317,0.0400618
0.023606,0.00885889
-0.0127871,-0.00759749
-0.0378551,-0.00599294
-0.0419139,0.0146529
-0.0393692,0.0383274
-0.0255767,0.0183007
-0.00645535,-0.0437045
0.00991401,-0.0273244
0.0275523,0.0030186
0.0389215,-0.00127894
0.0328701,-0.0151238
0.0230928,-0.0172082
0.0147411,-0.00440918
-0.0104901,0.00832072
-0.00130411,0.0093772
0.0294545,0.0226748
0.0295145,0.0105277
-0.0207056,-0.0100904
-0.0413065,0.0199515
-0.0351044,0.0350228
-0.0350922,0.0451624
-0.00966917,0.0299475
0.0271338,-0.0190212
0.0308004,-0.0508055
0.0110122,-0.0247406
0.013814,0.0110583
0.0354531,-0.0127706
0.0324349,-0.0360091
-0.0180007,-0.0343175
-0.0821123,-0.00328454
-0.0940169,0.0177531
-0.0870407,0.0289366
-0.0606633,0.0544669
0.0294156,0.0202958
0.0897432,-0.0188791
0.0826571,0.00684634
0.0586749,0.0055126
0.0265885,-0.0308751
0.0140856,-0.0273094
0.0184429,0.0184192
0.0148611,0.0235178
-0.00945967,-0.00206007
-0.0367276,0.0152518
-0.00658566,0.00862666
0.0482856,-0.00986258
0.0390847,0.00356206
0.000765353,-0.00510401
-0.0194339,-0.0466603
0.00500079,-0.0489997
0.0153898,-0.0245954
-0.0271292,-0.0154515
-0.0687506,-0.00341762
-0.0714253,-0.00331766
-0.0491062,0.0034397
-0.0381894,0.00372409
-0.0218364,0.00860564
0.00771716,0.0258087
0.0329784,0.0239834
0.0465229,0.0207982
0.039378,0.0271029
0.0251708,0.0206045
0.0164241,-0.000273471
0.000375369,-0.0119395
-0.0155665,-0.0236521
-0.00817208,-0.0178361
0.0124033,-0.00322142
0.0076002,0.00870401
-0.00666613,-0.00512358
-0.0111056,-0.00231645
0.000355724,0.00068731
-0.00197114,-0.0225957
-0.0258126,-0.0341169
-0.0261559,-0.0149166
-0.013162,0.0186319
0.00478913,0.0195596
0.0202896,0.0304762
0.0314435,0.0276657
0.0473618,0.0492197
0.025783,0.0637432
-0.0228633,0.0198528
-0.0528555,-0.0174502
-0.0557886,-0.0691392
-0.0379644,-0.0387376
-0.0119758,-0.0281047
0.0097298,-0.0349983
0.0357916,-0.00873848
0.0568232,0.0154756
0.0384972,0.0259222
0.0126723,0.0289265
0.0398351,0.00835833
0.0614374,-0.00876396
0.0443761,-0.00664316
0.0121654,0.0119181
-0.027862,-0.0119217
-0.0407304,-0.0260266
-0.0463491,-0.0184118
-0.0435584,-0.00298711
-0.0349513,0.00402018
-0.0207424,0.0059116
-0.0281824,0.0349721
-0.0433436,0.0721996
-0.0163571,0.0626944
0.00785442,-0.00672274
0.00486867,-0.0910246
0.0114479,-0.0539772
0.0356325,-0.018563
0.0598161,-0.00922941
0.0446546,-0.0176457
0.0135208,-0.00728954
0.00582719,0.00736445
-0.0109951,0.00707816
-0.0469764,-0.00509149
-0.0506181,-0.00601328
-0.0315766,-0.00115254
-0.0117564,-0.00173828
0.0234552,0.00153883
0.0395145,0.0166222
0.0270389,0.0250043
0.0185962,0.00972622
-0.0034242,0.0118694
-0.0328524,0.0194152
-0.0349647,-0.00669186
-0.0216615,-0.00878806
-0.00357932,-0.0122587
0.0142146,-0.00523624
0.0186402,0.00384697
0.0279026,0.0136308
0.0372667,-0.00918191
-0.00882011,-0.0242731
-0.0347296,-0.0138092
-0.0361876,0.00834673
0.00310254,0.0283795
0.0268097,0.0295038
0.0131646,-0.0042005
0.0183454,-0.00871131
0.0542585,0.00758233
0.0616207,0.0233154
0.0235867,0.00133558
-0.0207486,-0.0202994
-0.0241451,-0.00765592
-0.0183249,-0.00283116
-0.0144514,-0.00569565
-0.00192936,-0.00683986
-0.00518656,-0.00833263
-0.0236493,0.0188328
-0.0362646,0.0573208
-0.0460198,0.024724
-0.0414476,-0.026882
-0.00562361,-0.0228494
0.0151812,-0.0283265
0.0163816,-0.0150537
0.0290123,0.0135373
0.0273354,-0.00530163
-0.00951557,0.00809516
-0.0264471,0.0325621
0.0046088,-0.0316201
0.0341165,-0.0590131
0.019817,-0.0204028
-0.0219258,0.00426219
-0.0419397,0.0069062
-0.0335329,0.0161577
-0.0179513,0.0194555
0.00905955,-0.00478791
0.0290459,-0.0164098
0.0307738,-0.0187604
0.0277608,-0.0150211
0.0160901,0.0061772
-0.00693675,0.0222642
-0.0139856,0.0449366
0.00261676,0.0309082
0.00222272,-0.0212503
-0.0127671,-0.0195198
-0.00349989,0.00970346
0.0264921,-0.00122601
0.025519,-0.0129773
-0.00718627,0.0129671
-0.0102444,0.0170742
-0.0238802,0.00332052
-0.0469601,-0.00385207
-0.0484917,-0.00640317
-0.0345532,-0.0120535
0.0288695,-0.0100395
0.0559878,-0.0043724
0.0402635,-0.00627615
0.0283723,-0.00282212
0.0316465,0.00716264
0.0376633,0.0187928
0.0359484,0.00482647
0.0380131,-0.0262864
0.0187553,-0.0295594
-0.0429414,-0.0114987
-0.0662193,-0.0104013
-0.0564832,0.0291503
-0.0429459,0.0792092
-0.0263304,0.064721
-0.0127104,-0.0116338
-0.00652659,-0.0463691
-0.00715504,-0.014556
0.0107411,-0.00554976
0.0278177,0.00101195
0.0311183,0.00147225
0.0256171,-0.0024784
0.00296319,-0.0151912
-0.0174021,-0.0247349
-0.0213275,-0.0123384
-0.00902591,0.00247038
0.0143373,0.00627819
0.0133263,0.00516449
-0.0184319,0.0188433
-0.0325192,0.0204655
-0.0237481,-0.00670934
0.00591796,-0.0182303
0.0229946,-0.00735279
0.0269534,-0.0138216
0.036928,-0.0146931
0.0437799,0.00541955
0.0270244,0.00696371
-0.0154223,-0.00640737
-0.0438704,-0.018153
-0.048103,-0.0134479
-0.0396389,0.00346209
-0.0341602,0.00204268
-0.00928838,-0.0136716
0.0164347,0.0151913
0.0299456,0.0311376
0.0274917,0.023996
0.00850506,0.0156818
-0.0209437,0.015446
-0.0338605,0.0344092
-0.000841482,0.0315334
0.0328977,-0.0358042
0.0338621,-0.0343032
0.058572,-0.00200265
0.0618367,0.0138991
0.040826,-0.0170648
0.0179162,-0.0258043
-0.0151267,-0.0186578
-0.0600523,-0.00341956
-0.0801764,8.46e-05
-0.0454396,0.00985901
-0.00504381,0.015575
0.0046739,-0.00736782
0.00589545,-0.00805924
0.000959984,0.0121995
0.00231626,0.00812712
-0.0117633,0.00488074
-0.007983,0.00823977
-0.0124368,-0.00735794
0.00151391,-0.00751682
0.0166511,0.0168569
0.0150088,-0.00106271
0.0103215,-0.0166533
0.015463,-0.0107616
0.016736,0.00610716
0.00913804,-0.0135185
0.0132607,-0.0337522
0.0147666,0.0059979
0.0191054,0.0512595
0.0332373,0.0189451
0.036494,0.024431
0.0176513,0.0209631
-0.0273078,-0.00330849
-0.0796864,0.00554228
-0.0798408,0.00579874
-0.0481637,-0.0282701
-0.00693138,-0.0332567
0.0258421,-0.0135276
-0.00446498,-0.0158001
-0.0289593,-0.0144422
-0.00238364,-0.0222692
0.0194027,-0.0133949
-0.00698667,0.0359024
-0.0112545,0.0246013
0.0237465,-0.0295182
0.0339631,-0.00308566
0.0219044,0.0171182
0.0167451,-0.0237253
0.0054181,-0.0279698
-0.00243746,-0.0146146
-0.0232151,-0.00138981
-0.0382409,0.010353
-0.0219403,0.00378756
0.00394322,-0.0290121
0.0164852,-0.0121143
0.0156919,0.0253957
0.0145514,0.0495584
-0.00807884,0.0538983
-0.032994,0.00597954
-0.0301221,-0.0258097
-0.00242893,-0.00635489
0.038854,0.0123415
0.0666512,-0.00308115
0.0566358,-0.0096234
0.0139982,0.00750575
-0.0322761,0.0189102
-0.042596,0.00295875
-0.0184705,0.0063705
0.00112717,0.0103981
0.0202425,-0.00759543
0.00848304,-0.0292759
-0.00942553,-0.0157313
0.00627305,0.0214814
0.014214,0.0213733
0.00133133,0.00521599
-0.00447305,0.000336127
0.00115472,-0.00189222
-0.0132614,-0.00393445
-0.0477467,-0.0134191
-0.0425529,-0.0173389
0.00724928,0.0053019
0.0188356,0.0202481
-0.0222831,-0.00165104
-0.00589647,-0.00773908
0.00506772,-0.000948462
0.00645505,0.000536706
0.011893,0.00581072
0.0135839,0.00453906
0.0240013,0.0212336
0.0344548,0.0237772
0.0378176,-0.00230089
0.0335474,-0.0142922
0.00998152,-0.0268192
-0.0104211,-0.028814
-0.0148725,-0.02255
-0.0102691,-0.0197547
-0.011806,-0.00586476
-0.0167897,0.0109503
-0.0238665,0.012617
-0.0341927,0.00520992
-0.0250863,-0.0071494
-0.00199447,-0.00261926
0.00653608,0.00778349
0.014957,0.014614
0.0358897,-0.00621665
0.0378256,-0.0195796
0.0248571,0.0020002
-0.00367478,0.053931
-0.0365096,0.0546597
-0.040105,0.00662171
-0.0174588,-0.0263302
0.00488086,-0.0297646
0.0140875,-0.0175306
0.0225655,-0.00621106
0.0212807,-0.00998207
0.00917055,-0.0107946
-0.0079114,-0.0134562
-0.0218469,-0.00995601
-0.0341001,-0.00328958
-0.0202825,0.0144283
0.00405567,0.0196849
-0.00848497,-0.012413
-0.0161005,-0.00930815
-0.000909278,0.00387993
-0.00405814,0.0066999
-0.0108278,-0.00501566
-0.010959,0.00279721
0.0024779,0.00892294
0.0152444,0.00445043
0.017678,-0.00224334
0.0179967,-0.00890104
0.014186,-0.0014781
0.00444079,0.00815373
0.00460225,-0.00486718
-0.00284294,-0.0117192
0.00364633,-0.00832256
0.0401302,0.0117302
0.0690116,0.0153776
0.0410766,0.00137635
-0.014998,0.0115409
-0.0402515,0.0195153
-0.0462459,0.000536284
-0.0487115,0.00748077
-0.0535533,-0.00864497
-0.00275198,0.00606093
0.0693721,0.0177695
0.0760394,-0.0139811
0.0498845,-0.0152468
0.019381,-0.00272557
-0.0126576,-0.000439955
-0.0404134,-0.00180675
-0.0609179,-0.0197874
-0.0586485,-0.0205749
-0.0316443,0.011708
0.00283639,0.0157475
0.022975,-0.00082329
0.017621,-0.00978714
-0.00801446,-0.00742189
-0.0428372,0.0127317
-0.0411995,-0.00626238
0.00349324,-0.017793
0.0154824,-0.00918813
-0.0118804,0.00393282
-0.0122692,0.0305186
-0.000797197,0.0154095
0.00147939,0.0147924
0.0294686,0.0130879
0.0368471,0.00312093
0.0137249,0.00607111
-0.00583135,0.00892629
-0.00150072,-0.000225511
0.014782,0.00276337
0.0241489,-0.000545046
0.0239977,-0.00703957
0.0131785,-0.0178154
-0.00575197,-0.0314589
-0.0179493,-0.0190627
-0.00436367,0.00434579
0.00618456,0.00892379
-0.00130532,0.00546274
-0.00141118,0.0408956
-0.0117478,0.0461273
-0.0229477,-0.0175704
-0.0264316,-0.0474814
-0.0222703,-0.0110317
-0.0175719,0.0214942
0.0285042,0.00304392
0.0648947,-0.0218559
0.0602653,-0.016703
0.0463299,-0.0127461
0.0245685,-0.0123651
-0.0106417,-0.0249844
-0.0524521,-0.00647047
-0.0784675,0.00223857
-0.030805,0.00430512
0.00481809,-0.00367206
0.00620558,-0.00727406
0.00634308,0.0407963
0.0182753,0.0225712
0.0110791,-0.00617125
-0.000638936,0.00366494
-0.00683201,0.00424101
-0.000289837,-0.00669236
0.0140845,-0.00881952
0.0016726,0.00481547
-0.0214739,0.0167126
-0.0192245,0.019616
-0.0114336,-0.00397996
-0.00957319,-0.0294263
-0.0230438,-0.0147816
-0.011017,0.00896053
0.0103075,0.0149944
0.0149833,0.000769056
0.0262411,-0.00300504
0.0161652,-0.0034567
-0.00432774,0.00364871
-0.0149601,0.0302062
-0.00636824,0.0103909
-0.00348955,-0.0120644
0.0112382,-0.00920581
0.0317669,-0.00721104
0.0254445,0.00242722
0.0122615,0.0129878
0.016712,-0.0182191
0.00386058,-0.0328404
-0.0232958,-0.0243149
-0.0258889,-0.015164
6.55e-05,-0.0166632
-0.00368378,-0.0106135
-0.03209,-0.000618889
-0.0334194,0.0247937
-0.00427655,0.0349621
0.00779967,0.0283965
0.00590264,0.0145142
0.0257152,-0.00398471
0.046663,-0.00764731
0.0584475,0.0115286
0.0314691,0.033128
-0.00721681,0.0224495
-0.0171298,-0.0083927
-0.0300257,-0.0226119
-0.048607,-0.0170197
-0.0681888,-0.0100289
-0.061114,-0.0183015
-0.00351317,-0.0210443
0.0306141,0.00858623
0.0283715,0.0257357
0.01957,0.0204685
0.0152308,-0.00633059
0.00871093,-0.00316942
0.00565068,-0.00495647
0.0155595,-0.0228724
0.00465732,-0.00640077
0.00763022,0.00394008
0.00926269,0.012025
-0.00870477,0.0136112
-0.0145227,0.0374747
-0.00103556,0.0180975
-0.00204418,-0.0365716
-0.0264694,-0.0282099
-0.0297114,0.0366686
-0.0209721,0.0230337
-0.0184806,-0.0326554
0.00102272,-0.0364461
0.0333541,-0.017116
0.0260321,-0.0122179
-0.00891518,-0.00993044
-0.00514069,0.00366023
-0.0016925,0.0161752
0.00784641,0.0198486
0.0084592,0.0331495
0.00848096,0.0221484
0.00785874,-0.00688074
-0.00356081,0.00617277
0.00157924,0.0164211
0.0173051,-0.0235854
0.0155625,-0.034062
0.0132501,-0.00370378
0.0202663,0.00585444
0.00431645,-0.00688117
-0.00293919,-0.011404
0.0151379,-0.0128423
0.0329527,-0.0263372
0.0281284,0.00523394
0.0222017,0.048616
-0.0105406,-0.00103371
-0.0324521,-0.0257633
-0.0347746,-0.00161273
-0.0290626,0.0106627
-0.0314841,0.0025739
-0.044328,-0.0033161
-0.0543888,0.00145912
-0.0461557,0.00261156
0.00455111,-0.00210953
0.0358428,0.00488842
0.014304,0.00774061
-0.00495356,0.00722135
0.00619511,0.000268795
0.0166426,-0.00464603
0.0112676,-0.026647
0.0155092,-0.0322502
0.0301,-0.00808705
0.0258705,0.0203522
0.00177478,0.0294988
-0.00893061,0.013939
-0.0138313,0.0112692
-0.00598305,0.017437
0.00367673,0.0180564
-0.00910107,-0.00329795
-0.021203,-0.0242306
-0.0127467,0.00265169
0.0065913,0.013961
0.0186824,-0.00889659
0.0114426,0.000123542
0.00244418,-0.0139384
-0.00434313,-0.0232535
-0.0149389,-0.00697289
-0.0218567,-0.0186098
-0.0106906,-0.0276871
0.0145409,0.0280381
0.0336132,0.0247137
0.00976978,-0.031362
-0.026426,-0.0158293
-0.0187362,0.0326543
0.0028229,0.0351694
0.016547,-0.0023042
0.0215243,0.0164138
0.0495907,0.0588718
0.0721877,0.0346856
0.0508921,-0.0174448
0.0337784,-0.046657
0.0061246,-0.0268953
-0.0298279,-0.00801104
-0.0584598,-0.0076908
-0.057599,-0.00518963
-0.0482696,-0.00294981
-0.0222688,-0.00583766
0.0125677,0.00391782
0.0126292,0.00586005
-0.00390405,-0.00813873
-0.0034777,-0.014182
-0.0126237,-0.0120423
-0.0440212,-0.00200394
-0.0476307,0.00925825
-0.00844307,0.00395432
0.0123747,-0.00327559
0.0181119,0.0107395
0.0340232,0.0179681
0.0404109,-0.00213223
0.0248594,0.00284376
-0.00267671,0.0142571
-0.0198265,0.00381206
-0.00760075,-0.0163935
0.00773878,-0.0132304
-4.6e-05,-0.0159844
-0.0178374,-0.0158578
-0.0107139,-0.00274391
0.00718321,-0.0152008
-0.00452313,-0.0240426
-0.0413333,-0.00588107
-0.00721792,0.00371673
0.0149971,-0.00269801
-0.0333756,0.00291268
-0.0527745,0.0151363
-0.0349946,0.0196202
-0.0156025,0.00339077
-0.00224298,0.0067611
0.0222981,0.00979905
0.0401408,0.0312601
0.0501799,0.0469655
0.0733532,0.0374812
0.0807906,0.0298969
0.0427122,-0.0298091
1.13e-05,-0.0355503
-0.0121912,-0.00385374
-0.0161785,-0.0100351
-0.0253144,-0.038243
-0.0242362,0.00738687
0.00824014,0.0102941
0.0230377,-0.034829
0.026813,-0.0316739
0.00636478,0.000393131
-0.0289907,0.00748582
-0.0670404,0.0125547
-0.0449735,0.0274672
-0.0162953,0.0377953
0.0140276,0.0202911
0.0430542,-0.00839099
0.0223529,-0.00219841
0.00269972,-0.009572
0.00446538,-0.0080223
-0.0101761,-0.00186161
-0.0199709,-0.00865279
-0.017746,-0.00502904
0.00635993,-0.00266215
0.0245117,-0.0114957
0.00651638,-0.00619618
0.000733449,0.000323242
0.013414,-0.00761774
0.0213607,-0.0126016
0.00902937,-0.00840089
-0.00313916,0.000172379
-0.0140327,0.00905732
-0.0321075,-0.000369738
-0.055784,-0.0171463
-0.0298453,0.000286277
0.0211798,0.00593115
0.0230471,0.00903476
0.000906795,-0.00999844
-0.0157103,-0.0132329
-0.00893898,-0.00292317
0.0176243,0.0223628
0.0234198,0.0481608
0.0203675,0.0131312
0.00106244,0.00869861
-0.0318248,0.0166175
-0.0312671,-0.00640817
-0.0065261,-0.0221301
-0.0100796,-0.0211451
-0.00105194,-0.00167745
0.027101,-0.000479012
0.0306819,-0.0115503
0.0166328,-0.0095064
0.014786,-0.00508514
0.00118486,0.00503606
-0.0101355,0.0205464
-0.0153867,0.0255578
-0.00645183,0.00922855
0.00389509,-0.00816998
0.00556568,-0.0212187
0.0130055,-0.0228242
0.00248772,-0.00769186
-0.0392621,0.00554678
-0.044715,-0.00242163
0.0161013,-0.00352895
0.0499164,-0.00125711
0.0633187,0.00195392
0.0716388,0.0125299
0.0488666,0.015077
0.0259863,0.00927228
-0.0141706,1.61e-07
-0.0550745,0.00588973
-0.0803807,0.0201586
-0.0815094,0.00705547
-0.0513776,-0.0205259
-0.0101825,-0.00806554
0.0338704,-0.01107
0.0408803,-0.00530212
0.0141625,-0.00588764
-0.034108,-0.0405805
-0.062147,-0.0509739
-0.0263728,-0.028474
0.00202981,0.00292598
0.00485365,0.0279477
0.0162914,0.0303053
0.0272911,0.0338649
0.038273,0.0482979
0.0304814,0.00399113
-0.000506957,-0.0279953
-0.0151796,-0.0235984
0.00067377,-0.0131274
0.023281,0.0130569
0.028093,0.027664
0.0116395,0.0115671
-0.000696034,-0.00127926
-0.0166716,-0.0032758
-0.0325734,-0.00278058
-0.0444049,-6.5e-05
-0.0508025,0.0108901
-0.0274361,0.0264624
0.0238055,0.0116918
0.0420467,-0.0130083
0.0247517,-0.0289017
0.00216389,-0.0243077
-0.0217603,0.00460422
-0.00304718,0.00635242
0.0332883,-0.00791589
0.0466604,0.0195089
0.042763,0.00941942
0.00888362,-0.0127988
-0.0375772,0.00742558
-0.0538003,0.012508
-0.045699,0.0220037
-0.0302229,0.00925587
0.00385494,-0.0275253
0.0125486,0.014824
0.0179877,0.0179505
0.0377293,-0.0659079
0.0306076,-0.0513475
0.0132879,-0.00467866
0.0301144,-0.00209731
0.0206489,0.0135289
-0.0128783,0.0200581
-0.0435562,0.00010392
-0.0389481,-0.00337322
0.00848631,-0.00362055
0.0138944,-0.00552212
0.0200868,0.00216155
0.0447947,0.00999249
0.0243217,0.00324789
-0.015359,0.00745126
-0.0282605,0.00395686
-0.0326987,-0.00127711
-0.0194264,0.00421765
-0.00873702,0.00118841
-0.0199462,-0.0162497
-0.0073307,-0.0113419
0.0213395,0.0127587
0.0334793,-0.00259465
0.0318166,0.00493995
0.020865,0.0168765
0.00993194,0.00790136
-0.00253039,-0.00192497
-0.0234705,0.0105625
-0.0282928,0.0238209
-0.00914122,0.0246572
-0.00375428,0.00938278
-0.00306242,-0.0313269
-0.00454597,-0.0291775
-0.00828134,-0.00153589
-0.00521093,-0.00670373
-0.00818381,0.00125775
-0.023741,0.00843115
-0.0302952,0.00190297
-0.0267321,-0.0117694
-0.0236544,-0.0164489
-0.0118862,-0.0261422
0.0218543,-0.020025
0.0464454,0.00864009
0.0379565,0.0205921
0.0290779,0.0218928
0.0172826,0.0465473
0.0166067,0.0131721
0.025171,-0.0226718
0.0324769,-0.0145205
0.000782159,-0.00532174
-0.0293044,-0.00514141
-0.0214474,-0.00809474
-0.0106929,0.0125008
-0.019965,0.0183668
-0.0206694,-0.00977498
-0.0310969,-0.0278372
-0.0269493,-0.0171111
0.00476932,-0.0123081
0.0423941,0.000960459
0.0439718,0.0146554
0.0198928,0.010037
0.00151691,0.00664724
-0.017871,0.00751096
-0.0327449,0.0117748
-0.0388178,0.00576859
-0.0219578,-0.0162466
-0.00844959,-0.00961649
0.0258586,-0.0043662
0.0501952,-0.00186775
0.0448964,-0.00279414
0.0129214,-0.0153954
-0.0233301,-0.014507
-0.0449932,0.0017067
-0.0528574,0.0156441
-0.0285002,0.0109297
0.0093,0.0109826
0.0184116,0.0100908
0.009843,0.00680228
0.00648756,0.00724048
0.00304907,0.0014546
-0.00922164,-0.00244209
0.00144844,0.00280062
0.0273715,0.00932839
0.0266739,-0.0101101
0.0258401,0.0258459
0.0127259,0.0466867
-0.0186046,0.0183287
-0.0222911,-0.0240507
0.0331214,-0.053825
0.0597096,-0.0427024
0.00508141,-0.0280645
-0.0417038,-0.0158692
-0.0654602,-0.0260754
-0.0607592,-0.00663573
-0.0382749,0.0296906
-0.00415524,0.0166725
0.0294809,-0.00804937
0.0225256,0.0111567
0.0126981,0.0483031
0.0160805,0.0378868
0.0297125,-0.00385878
0.0545472,-0.0150131
0.045617,-0.0122433
0.0147408,-0.00526115
-0.00140853,0.00607683
-0.00398955,0.00557733
-0.00938564,-0.00117106
-0.0288292,-0.000323
-0.0244776,-0.00125318
0.000453238,0.00191519
-0.0169404,-0.0057235
-0.0132923,-0.00816554
0.0222341,-0.00214316
0.0417843,-0.00705518
0.0230195,-0.024424
-0.0339473,-0.015363
-0.0500851,-0.00419207
-0.0363427,0.0111575
-0.0360468,0.0664908
-0.0250226,0.0571522
0.00899869,-0.0178441
0.018951,-0.0221717
0.0130977,-0.0159012
0.004084,-0.0264116
0.00273776,-0.0108721
0.0252101,0.00942735
0.0316539,0.0283305
0.0150308,0.0107216
-0.00323166,-0.0382165
-0.0233859,-0.0361972
-0.0438563,-0.0191164
-0.0316127,-0.00691856
-0.00246806,-0.00217104
0.00932383,0.00335996
0.0217524,0.0221471
0.0158845,0.0352468
-0.00832509,0.00901726
-0.0174785,-0.0079681
-0.0237295,-0.0113708
-0.0428033,-0.020353
-0.0326044,-0.0324688
0.0131267,-0.0282176
0.0238946,-0.00438734
0.00966159,0.0407428
0.0132582,0.0416385
0.0210483,0.0125558
0.0164134,0.0119193
0.0133235,0.00823441
0.0232563,-0.0155693
0.0255348,-0.0101092
0.0373201,-0.0106872
0.056852,-0.00813508
0.036742,2.45e-05
-0.0163036,0.00158159
-0.0303395,0.00319282
-0.0132252,-0.000148566
-0.0274203,0.0223747
-0.0379711,0.0152031
-0.0130091,0.00102205
0.00169695,0.0204449
0.0138044,0.00270307
0.0172399,-0.0114184
-0.00876838,-0.0299415
-0.0413174,-0.0258879
-0.0437171,-0.00846807
-0.0180663,0.014033
0.00311064,-0.00259907
0.0172712,-0.00143492
0.0425204,0.0347684
0.0426511,0.0453392
0.0164506,0.0152942
0.0110519,-0.0180188
-0.0136772,-0.0213902
-0.0558618,-0.0310294
-0.0589667,-0.0150783
-0.026502,0.018386
0.0124487,0.0219959
0.0265913,0.00725771
0.0163935,0.00938833
0.00182264,-0.000411886
-0.0062559,-0.0132603
-0.00901307,-0.0105245
-0.00265976,-0.0057419
0.00274095,-0.00293602
0.00755833,0.0094432
0.00967602,0.020467
0.016666,-0.00102683
0.0371664,-0.00693502
0.0325477,-0.00319208
0.0205011,-0.00838269
0.00276658,-0.0061338
0.00868467,-0.0161508
0.016076,-0.0092153
-0.0128395,-0.00129943
-0.0325602,-0.00443255
-0.0236993,-0.009393
-0.0247684,-0.0201301
-0.0230873,-0.024315
0.00363473,-0.0115075
0.0128125,-0.0056978
0.00302696,-0.00747869
-0.0156522,-0.00184578
-0.023121,0.0222588
-0.0162814,0.0458355
-0.00710236,0.0244796
-0.00705673,0.00396859
-0.00485434,0.00869298
0.000929482,-0.00496103
0.0190069,-0.0100052
0.0296362,0.00105431
0.0114751,-0.00360856
0.0223013,-0.00141149
0.0345537,-0.00694138
0.00368001,-0.0101402
-0.0293165,-0.00640518
-0.0169916,0.000824646
-0.00983008,0.00687522
-0.00100874,0.0143492
0.00938408,0.00568119
-0.000145645,0.000780486
-0.0107742,0.0101836
-0.014937,0.0077668
-0.022144,0.00109259
-0.0154069,-0.00526317
-0.00455782,0.00142408
0.00854661,-0.0125097
0.0140115,-0.0177591
0.00296389,0.0230874
0.0125985,0.0362306
0.0303042,-0.00722286
0.0211547,-0.0180849
-0.00286089,-0.00399706
-0.0133983,0.0111711
-0.017228,-0.0109524
0.00115721,-0.00437043
0.0228543,0.0209937
0.0183093,0.00717425
0.0107451,-0.000742314
-0.0043992,0.000695633
-0.0328867,-0.00906031
-0.0434196,-0.0238765
-0.0318753,-0.00891684
0.00415579,0.0038903
0.0142002,-0.00512778
5e-05,-0.00371855
0.0112663,-0.00719645
0.026809,0.00382438
0.0232664,0.0238023
0.0152577,-0.00227262
0.0145966,-0.0284863
0.0129126,0.00455085
0.0198667,0.0193628
0.0120244,-0.00207079
-0.000454009,-0.00603704
-0.00552219,0.00271555
-0.0217987,0.00322429
-0.0393063,-0.00485722
-0.0468907,-0.0124255
-0.0368563,-0.00841859
-0.0185034,-0.00313209
-0.0236863,-0.00770417
-0.0112135,-0.00311153
0.00937092,0.0146368
0.0226933,0.0182021
0.0225816,0.019365
0.0349552,-0.00177268
0.0519608,-0.0139208
0.0602999,0.000535875
0.0473475,0.00108194
0.00729609,-0.00644733
-0.00252138,0.0101682
-0.00098331,0.0390974
-0.0166798,0.0150672
-0.047294,-0.0142461
-0.0623301,0.0238904
-0.0324046,0.0285165
-0.0166302,-0.0125092
-0.0108074,-0.043573
-0.000381458,-0.0458537
0.00438251,-0.0237232
-0.00282856,-0.00506792
-0.0111502,0.00693668
-0.0109004,0.0170782
-0.0188821,0.0166849
-0.00933379,0.019861
0.0161026,-0.00403275
0.0261033,-0.0252075
0.0189047,-0.00971172
0.00522329,0.0107622
-0.00582506,0.00387156
-0.0228815,-0.00417089
-0.0360589,-0.00569105
-0.0151702,0.00181186
0.0137089,0.00751951
0.0324315,-0.00190245
0.0436659,-0.0138924
0.0438548,-0.0143366
0.0209431,-0.00527093
0.00331897,0.0105585
0.00338618,0.0129244
0.010748,0.0110471
0.0193328,0.00931794
0.0107988,0.00632025
-0.0111445,-0.00199739
-0.0118061,-0.00227285
-0.0208721,0.00654071
-0.0215392,0.00741626
-0.0118141,-0.00453499
0.0119934,-0.0103936
0.0345608,-0.00118467
0.0214493,-1.99e-05
0.00119177,0.00511458
-0.00523,0.0034853
-0.00790677,0.000574901
-0.0396469,-0.0108404
-0.0607869,-0.0210131
-0.0520526,-0.0156954
-0.0271786,-0.00336497
-0.0120572,-0.00395608
-0.00741384,-0.00801257
0.00888705,-0.00282679
0.0368893,-0.00582947
0.0399228,-0.0048072
0.0337429,0.0241711
0.0499195,0.049297
0.0634205,0.0192222
0.0362191,0.0054514
0.0149292,0.00735381
-0.00324938,-0.0142005
-0.0317784,-0.014511
-0.0620854,-0.0179367
-0.0797902,-0.0241522
-0.0721571,-0.016702
-0.0274582,0.0191126
0.00190518,0.0251213
-0.00780131,-0.0128483
-0.0107613,-0.0355799
-0.00159195,-0.0123702
0.0116276,0.00659843
0.0217063,0.00124895
0.0231814,-0.00543153
0.0292545,0.00762659
0.0303157,0.0256762
0.0167428,0.022223
0.0121737,0.00722056
0.00787944,0.00841111
0.00196401,0.00533027
-0.00238362,0.0126028
0.000510099,0.00859957
-0.00615837,-0.0228584
-0.0104943,-0.0173898
0.000213996,-0.00638947
-0.00684701,-0.00795094
-0.0165295,0.00420968
-0.0133277,0.00626376
-0.00862059,0.00170673
-0.00151358,8.64e-06
0.0252634,0.00232882
0.0492396,0.00270059
0.0359957,0.00119623
0.0145111,0.0163413
0.0124707,0.0119775
0.00341612,-0.00577187
-0.0179727,-0.00336168
-0.022873,-0.00906311
-0.0304696,-0.00254446
-0.0144116,0.0131953
0.0223623,0.00539755
0.0341001,-0.00504165
0.018396,-0.00337058
0.00211908,0.00726274
-0.0172576,0.0110452
-0.0204874,-0.0127222
-0.0251858,-0.0221285
-0.00944362,-0.00394946
0.0199743,0.0211626
0.0151757,0.0262403
0.00578717,0.00452347
-0.0121126,-0.0131129
-0.0263556,-0.0124963
-0.025826,-0.0150031
-0.0195941,-0.0131289
-0.0222557,-0.0104965
-0.00661664,-0.000302995
0.00788082,0.00142594
-0.00137182,-0.00729582
-0.00793012,-0.0161152
-0.0130017,-0.0110388
-0.0181217,-0.00177782
-0.017325,-0.00182918
0.00126919,0.00263397
0.0318695,0.00663213
0.0489168,0.00853733
0.0389111,0.0165576
0.0198767,0.0331357
0.0193895,0.00705165
0.00593645,-0.0145837
-0.0132518,-0.00845703
-0.0198055,0.00573578
-0.00553917,0.0110245
0.0239617,-0.00147021
0.0274581,-0.0116663
0.00683535,-0.0116325
-0.00745916,-0.0112693
-0.0171904,-0.000556752
-0.0290004,-0.00569059
-0.0332036,-0.000412277
-0.0245309,0.0102475
0.00329438,0.00355963
0.0284496,-0.0012009
0.0207145,0.00124309
-0.00157347,0.00428663
-0.0304433,0.0173412
-0.0439435,0.00468042
-0.0242828,-0.0211471
-0.00559137,-0.0309121
0.0139152,-0.0286415
0.0327754,0.00115752
0.0246403,0.0132285
0.00612557,0.00271738
1.93e-05,-0.0119009
0.0054083,-0.0211367
0.00228203,-0.00293663
-0.00996418,0.0285506
0.00280034,0.0359604
0.0264532,0.0371747
0.0275873,0.00917292
0.0181712,-0.00496446
0.0131998,0.000309011
-0.00355812,0.0160131
-0.0209119,0.00827339
-0.0261503,-0.0207628
-0.0284028,-0.013891
-0.0115483,-0.0036937
0.0111855,-0.00160818
0.00711522,-0.00293985
-0.00549448,0.00227894
-0.00876823,0.000435851
-0.011843,-0.00869903
-0.017197,-0.0147831
-0.0108658,-0.0106284
0.0164548,-0.0036624
0.0321069,0.023914
0.0243342,0.0187488
0.0202529,-0.0165714
0.00950515,-0.0142627
-0.00890709,-0.00354732
-0.0267452,0.00978624
-0.0301211,0.0118187
-0.0199334,0.0159152
0.0058874,0.0233952
0.022902,0.00865084
0.0121383,-0.0050313
-0.00973915,-0.00867047
-0.0152895,-0.0192019
-0.00619526,-0.0159093
-0.003897,0.00766286
0.00620235,0.00821227
0.0236732,0.00236774
0.0166898,0.00099805
0.00334181,0.000352178
-0.000134212,-0.00069221
-0.00260556,-0.00407606
-0.0112316,-0.00712821
-0.0199364,-0.00592436
-0.0133634,-0.00392531
0.0130755,-4.99e-05
0.0388902,0.00759075
0.036269,0.00381807
0.00755722,-0.00650529
-0.0108358,-0.00603914
-0.0201518,-0.00810309
-0.031934,-0.0169585
-0.035368,-0.0247535
-0.00986208,-0.0142577
0.0139444,0.00459955
0.0208418,0.00771727
0.0155385,0.00830172
-0.00717799,0.00369338
-0.0330297,0.0018674
-0.0363262,0.00217538
-0.0268782,0.00450316
-0.0259803,0.0022334
-0.00825611,0.00797152
0.0296616,0.0159399
0.0492163,0.0125303
0.0489965,0.00481006
0.0588395,0.00642663
0.0480956,0.00812285
0.025787,0.00317063
0.0047029,-0.0104793
-0.014824,-0.00672283
-0.0418066,0.00189145
-0.0619573,-0.00163638
-0.0400509,-0.000397293
-0.00602721,0.00595436
0.00389433,-0.00196076
0.000233277,-0.0120688
-0.0168545,-0.0137135
-0.00519798,-0.008127
0.0318216,0.01675
0.0404176,0.0028762
0.0106375,-0.016709
-0.011876,-0.00206089
-0.0193295,0.0195449
-0.0421762,0.0224351
-0.0514642,-0.000117129
-0.0286653,-0.0146104
0.00555041,-0.00629669
0.0212378,-0.000315463
0.0276734,0.00242268
0.027027,0.00314123
0.0154975,0.00324423
0.000364634,-0.00133345
-0.00857974,0.0120232
-0.0162399,0.045017
-0.0133168,0.00955713
0.0201879,-0.0505312
0.0367725,-0.00994138
0.0223775,0.0208715
0.014814,0.00662696
0.00643156,-0.000720007
-0.0107282,-0.0191146
-0.0215982,-0.0353755
-0.00648173,-0.0133706
0.00943289,0.0237583
0.00781966,0.0158585
0.0107504,-0.000512451
0.00537771,-0.00107797
-0.0103841,-0.00910477
-0.0193435,-0.0156425
-0.0148823,-0.0162561
-0.0155421,-0.0155269
-0.00446966,-0.000551832
0.00894626,0.0174709
0.00269021,0.0210134
-0.0132863,0.0151665
-0.01442,-0.0155267
-0.00645227,-0.0259303
-0.0032743,-0.00684156
0.00880044,0.00150656
0.0577334,-0.00135093
0.0787247,0.00459473
0.0536925,0.0113553
0.0255573,0.00478349
-0.00525911,-0.0272426
-0.034589,-0.0139569
-0.0423439,0.0172026
-0.0313867,0.0171978
-0.0207398,0.00676224
0.00100496,0.0157903
0.00822109,0.0227658
-0.0106884,0.0125305
-0.0277742,0.00200844
-0.0329194,-0.00344482
-0.0429058,-0.0071121
-0.0429119,-0.0124215
-0.0239233,-0.00346093
0.00855603,0.004643
0.0329433,-0.0050833
0.030696,-0.00850248
0.0200366,-0.00663366
0.00368148,0.0153621
-0.0108091,0.0390545
-0.00618204,0.0154828
-0.00243088,-0.0374959
-0.00142629,-0.0363786
0.0193216,-0.0164451
0.0291726,-0.00967009
0.0135696,-0.00555502
0.00359502,0.00745655
-0.00461719,0.0100727
-0.0158946,0.00758458
-0.0222919,0.00303536
-0.00740587,0.00276129
0.0158182,0.00651237
0.0201036,0.00461711
0.0208511,0.0137619
0.0172482,0.0052549
0.0049482,-0.00978991
-0.00610765,-0.0083724
0.00039268,-0.00276955
0.00126943,-0.0021415
0.0103586,-0.00781535
0.023617,0.00363021
0.0179465,0.0216402
-0.00305276,-0.00231582
-0.0159369,-0.0199342
-0.0300052,-0.00384745
-0.0417109,0.00387249
-0.0329196,8e-05
-0.0047016,0.00146563
0.0183943,0.00712729
0.0173726,0.00958512
0.0116989,0.0196625
0.00453867,0.0209611
-0.00774714,0.00236316
-0.0117797,-0.0251764
-0.0128032,-0.0185162
-0.0101626,-0.000699656
0.00763806,0.0269065
0.0174266,0.0156657
0.00899147,-0.0134589
-0.00239963,-0.0136444
-0.00216883,-0.010597
-0.00531929,-0.00959523
-0.0163215,-0.0108336
-0.0103849,-0.0107728
0.015576,-0.0058589
0.0196503,-0.00164996
0.0108814,-0.00447834
0.0139659,-0.000481844
0.00807848,0.000197458
-0.0120712,-0.00274316
-0.0170614,-0.00854797
-0.0115489,-0.0138815
-0.00196591,-0.00129196
0.0160274,0.0193505
0.0157358,0.0178832
0.00107565,0.00715927
-0.00511819,0.00723581
-0.00447572,0.00489841
-0.0129214,0.00708058
-0.01464,0.0152269
0.00274586,0.00546059
0.0161478,-0.00789155
0.0120174,-0.00493536
0.00342778,-0.00296126
-0.00530138,0.00135534
-0.0169551,-0.00226841
-0.0250914,-0.0131834
-0.0191674,-0.00601292
-0.0104743,-0.000512333
0.00582847,-0.00482981
0.0205815,0.00539681
0.0167307,-0.000336268
0.00576698,-0.0154494
0.00615126,-0.0176959
-0.00765719,-0.00151366
-0.0327723,0.00416486
-0.0382287,-0.00652615
-0.0151902,0.00659255
0.026074,0.0184345
0.0554071,0.0216817
0.0625313,0.0265606
0.0465453,0.0123311
0.0156529,-0.00868384
-0.01983,-0.00890789
-0.0450445,-0.00834722
-0.0464532,-0.0172173
-0.0090484,-0.0057774
0.0392407,0.027168
0.0717023,0.0552115
0.0764878,0.0254269
0.0566251,-0.0198507
0.00303288,-0.0312224
-0.0650024,-0.0243363
-0.0970617,-0.0123422
-0.0762675,-0.00263856
-0.0286133,0.00162093
-0.00105275,0.000702259
0.0144061,-0.00119989
0.0100685,-0.00663545
-0.0115983,-0.0113526
-0.0405909,-0.00960709
-0.0643267,-0.00759429
-0.0589725,-0.00385159
-0.00859187,0.00509663
0.0381187,0.00803943
0.0424996,0.000730734
0.0362867,0.00128124
0.0205315,0.000742711
-0.0073625,-0.00365704
-0.0257166,-0.009324
-0.019706,-0.00588777
0.00575633,0.0109898
0.0208,0.0295337
0.0222204,0.0231526
0.01495,0.00813863
0.00508746,-0.0092333
0.0109501,-0.0121937
0.0187208,-0.0176432
0.0212774,-0.0120112
0.0218491,0.0232639
0.0249278,0.00382944
0.00615119,-0.0213499
-0.0375728,-0.00776656
-0.0584185,0.000565556
-0.0486212,-0.00219148
-0.0259564,-0.00902511
-0.018309,-0.0125116
0.00772661,-0.00967142
0.0364886,0.00344105
0.0343751,0.00892946
0.0221274,0.00933729
0.0355638,0.00879171
0.0576979,0.00721848
0.0670244,0.00709665
0.0617081,0.0108929
0.0262097,0.0137081
-0.0129569,0.0192462
-0.0410101,0.0156997
-0.0541463,0.00587515
-0.0390533,-0.00411837
-0.0219688,-0.011311
-0.0189585,-0.0128437
0.0296605,-0.0138819
0.101443,-0.00974002
0.141548,-0.000904882
0.116121,-0.00124461
0.0240199,-0.0118242
-0.106647,-0.0196162
-0.201267,-0.0202945
-0.208527,-0.00809588
-0.175514,0.0106418
-0.114565,-0.000974935
-0.00708037,-0.0047322
0.065444,0.00919854
0.0623056,0.00923329
0.0417039,0.00563798
0.0472223,0.00922878
0.0405333,0.0110145
0.0220148,0.00328626
-0.00386043,0.00284252
-0.0266841,0.0191228
-0.0310096,0.00323312
-0.00426473,-0.0081192
0.018829,-0.00497586
0.0361533,-0.00116225
0.0878171,-0.00268675
0.117764,-0.00429547
0.0836183,-0.00551084
0.0167655,-0.00488638
-0.0496807,0.0012438
-0.0660686,0.0113483
-0.00386151,0.0131731
0.0445719,0.000347096
0.0566735,-0.00295469
0.0220669,-0.0135908
-0.0441216,-0.0184434
-0.105618,-0.004872
-0.136749,0.00434926
-0.151724,0.011047
-0.140899,-0.00236108
-0.0981376,-0.010174
-0.0387951,-0.00549957
0.00706596,0.0181575
0.0457544,0.00681658
0.0911702,-0.00621858
0.100801,0.0164762
0.0939351,0.037756
0.0798932,0.00867363
0.0913903,-0.0232326
0.107195,-0.0219656
0.110531,-0.0115386
0.107967,-0.00993303
0.0834237,-0.00398035
0.00805772,0.00581403
-0.0510288,0.0191352
-0.0714924,0.0165083
-0.071009,0.00495975
-0.0561571,-0.00687857
-0.0783079,-0.00795426
-0.076014,-0.00692294
-0.0549517,-0.00991866
-0.0514903,-0.0153074
-0.018214,-0.0220945
0.0876217,-0.00628741
0.226941,0.0118608
0.219259,0.0271795
0.100772,0.028299
-0.0355113,-0.0088417
-0.163411,-0.0215646
-0.242552,-0.0126387
-0.244427,0.0031926
-0.151639,0.0130824
-0.0403786,0.0103214
-0.00307669,0.00442337
-2.94e-05,-0.00123753
-0.0193508,-0.0106094
-0.043887,-0.0152692
-0.0307001,-0.00942976
0.0232785,-0.00574865
0.0673595,-0.00390746
0.147671,0.0022799
0.201963,0.00252624
0.214187,-0.00319595
0.176397,-0.0083685
0.0849385,-0.0157806
-0.0120632,-0.0227207
-0.123451,-0.0244426
-0.167387,-0.0208833
-0.121682,0.00147982
-0.0778489,0.0283279
-0.0426605,0.0332569
-0.033888,0.0239254
-0.0624775,0.0159156
-0.0885426,0.0181422
-0.0748431,0.0213045
-0.0286124,0.0203209
0.033614,0.0250301
0.0939404,0.0319938
0.0796356,0.0200776
0.0702855,0.00406398
0.12406,0.00112122
0.154684,-0.00420319
0.11141,-0.0154747
0.0224765,-0.0192574
-0.0446797,-0.014234
-0.0795237,-0.0137477
-0.117314,-0.0109607
-0.0860161,-0.00998197
0.0148592,-0.0124411
0.0715038,-0.0194511
0.056674,-0.0259791
-0.00462289,-0.0207561
-0.0919338,-0.0147033
-0.134917,-0.00448193
-0.101338,-8.06e-05
-0.0417727,0.0161892
-0.0229887,0.0219884
-0.00899852,-0.00809327
0.0382192,-0.00921574
0.1072,0.00334038
0.181646,0.0253413
0.273289,0.0174273
0.228698,0.00204096
0.0688035,0.0150331
-0.102628,0.00575203
-0.191454,-0.0265705
-0.218251,-0.0269055
-0.194616,-0.00845123
-0.109479,-0.00176925
-0.02971,0.000783946
0.000735889,0.0106195
-0.0168623,0.0161097
-0.0536682,0.00861882
-0.0507793,-0.000935701
-0.0251798,-0.00997933
-0.00985143,-0.0140363
0.000599899,-0.0146953
0.0113557,-0.00657786
0.0446974,0.000402508
0.0674399,-0.00697316
0.0628317,-0.00984292
0.0525481,0.000753914
0.0830697,0.0121421
0.120761,0.0305717
0.138413,0.0237443
0.14739,0.00197157
0.0991684,0.00685671
0.00559046,0.00247276
-0.0861257,-0.00617991
-0.135117,-0.0108129
-0.0898671,-0.0038655
-0.031314,-0.00262534
0.00299796,-0.016687
0.0549398,-0.0106446
0.136181,0.0123213
0.129934,0.0267818
0.0171204,0.017492
-0.128332,0.0165188
-0.20127,-0.00110462
-0.176438,-0.0110746
-0.115057,-0.00844402
-0.0540373,-0.00584505
-0.0314919,-0.00555429
-0.015919,0.00755846
-0.0307946,0.0127734
-0.0539335,0.00166417
-0.0609362,-0.0096543
-0.0431904,-0.0110347
-0.0227228,-0.0131441
-0.00896386,-0.0159889
0.00511841,-0.00503202
0.032311,0.00680441
0.05414,0.0107304
0.0784029,0.00906597
0.110535,0.00724963
0.146538,0.00611956
0.177643,0.00899991
0.180213,0.0151096
0.146937,-0.000785429
0.0830013,-0.00689085
0.0377225,0.0101229
0.00520716,-0.0212123
-0.0262912,-0.0376505
-0.0535111,-0.0198396
-0.134049,-0.00664991
-0.222102,-0.00175853
-0.24462,-0.00341177
-0.157347,-0.00175807
-0.0272459,0.0185173
0.0714389,0.0374794
0.119069,0.0147902
0.111318,0.00120692
0.0477994,0.00912624
-0.0218295,0.0038815
-0.0642056,-0.000842128
-0.0600221,6.13e-05
-0.0510512,-0.000592568
-0.0351874,-0.000397883
-0.00787985,-0.00458217
1.05e-06,-0.0139605
0.00987104,-0.0124027
0.0684507,-0.00857507
