Comp Ch 3,Comp Ch 4
-0.0414002,-0.0169084
-0.0366835,0.0219515
-0.011251,0.0827696
0.00227677,0.111758
0.00528203,-0.0605584
0.00336634,-0.0511354
0.0192255,0.036071
0.0303238,0.014841
0.0236372,-0.00852206
0.00953154,0.0451662
0.000290085,0.05053
-0.0111044,-0.0215916
-0.018334,-0.0523972
-0.0276598,-0.0314575
-0.0192653,-0.0104204
-0.000232201,0.0118298
-0.0146515,0.0624015
-0.0304596,-0.00639994
-4.02e-05,-0.0740543
0.0441912,-0.0602512
0.0620476,0.00678823
0.0659052,0.0370312
0.05478,0.0535456
0.0353146,1.79e-05
8e-05,-0.0303553
-0.0248634,0.0411227
0.014704,0.0261567
0.085623,-0.0400642
0.127857,-0.0253499
0.110046,-0.0025514
0.0285847,0.0017565
-0.0381855,0.0124014
-0.116414,0.0117907
-0.174,-0.00297425
-0.230066,-0.0197304
-0.212698,-0.00768677
-0.122687,-0.0236796
-0.0381143,-0.0172255
0.0226337,0.0375948
0.0596128,0.015373
0.0764349,0.00680825
0.075284,0.0068215
0.0508903,-0.00511704
0.0115935,0.0091611
-0.0161531,0.0319569
-0.0139499,-0.00579407
0.0034627,-0.0757672
0.00473643,-0.0150674
0.0216879,0.032266
0.0416607,-0.0800846
0.0442327,-0.00508354
0.0505622,0.146497
0.0661139,0.000553938
0.0439723,-0.0502357
-0.00370862,-0.00209805
-0.0317531,0.0130296
-0.00517494,-0.0351539
0.00563684,-0.0293804
-0.0100983,0.0125886
-0.00466747,0.00764189
0.000533506,-0.0105572
0.0126854,-0.0166234
0.0194374,0.063139
-0.00391039,0.0742178
-0.00393706,-0.0571753
0.00441569,-0.0392881
-0.00772911,0.00810145
-0.0222148,0.0791589
-0.0182241,0.0604908
-0.0264996,-0.0694339
-0.0431262,-0.0535235
-0.0302375,-0.0352328
0.0284781,-0.0293951
0.0938793,0.0057809
0.110992,0.00676573
0.0834745,0.0405463
0.0104524,0.0667011
-0.0414448,0.0225447
-0.0597113,-0.0313809
-0.0564108,0.0174625
-0.045726,-0.0363797
-0.0320792,-0.0224406
-0.00150079,-0.00113161
0.00723868,-0.00996822
0.0232693,-0.00852439
0.0448474,-0.00651339
0.023907,-0.0234133
-0.0118031,-0.0146323
-0.0254366,0.0212252
-0.0299214,0.0348196
-0.0429053,-0.0446921
-0.055634,-0.0196218
-0.0452963,0.0359905
-0.0769502,0.0453664
-0.0881378,0.0383424
-0.0207577,0.0881151
0.0400821,0.0470204
0.0529327,0.00344463
0.0694443,-0.0701741
0.071284,-0.0734387
0.0648392,-0.0512683
0.0660079,-0.0617122
0.0508831,-0.0372938
0.00776488,-0.00112778
-0.0246551,0.0108533
-0.0656398,0.00478914
-0.106094,0.00411865
-0.0993744,-0.000880652
-0.0525943,0.0128683
-0.0049581,0.026296
0.0460368,-0.00552444
0.044447,-0.0104744
0.0412489,-0.00277433
0.0391672,-0.00688544
0.0270981,0.0331516
0.032388,0.0434935
0.0352197,0.00549301
0.0283094,-0.00602102
0.0167924,0.000654083
-0.0091386,0.00634258
-0.0217551,0.000240645
-0.0254597,0.0114491
0.0120065,-0.000928089
0.0336742,-0.00410327
0.00803888,-0.000142728
-0.0103375,-0.0125566
-0.011895,-0.0260611
0.000661555,-0.0179829
0.00319188,-0.0466365
-0.0117543,-0.0259637
-0.039496,0.0557423
-0.029979,0.0492475
0.0113229,0.0115763
0.0222508,0.0169548
0.00501888,-0.00905779
0.000184984,-0.0327094
0.00588646,0.00464201
0.030677,0.0135011
0.0231901,0.00372578
-0.019219,0.00424096
-0.074511,0.083288
-0.126804,0.107848
-0.139042,-0.0273585
-0.081212,-0.105148
-0.028577,-0.0459642
-0.0371414,-0.0237558
0.00242503,-0.0450801
0.0784989,0.0805474
0.147169,0.064795
0.125589,-0.0495053
0.0776813,-0.021126
0.0543442,-0.00441798
0.0413967,-0.04947
-0.00142857,-0.0109124
-0.00987118,-0.0195045
0.0419748,-0.0259299
0.0628699,-0.0112798
0.0387016,-0.011723
0.0339216,0.0162055
0.018224,0.089451
0.00376425,0.00950984
-0.0346874,-0.0219384
-0.0735856,-0.0198377
-0.0986735,-0.082883
-0.0641962,-0.0373107
-0.0303441,0.0883533
0.00560979,0.106365
0.0263659,0.00374669
0.00143463,-0.0706483
-0.0479138,-0.0103978
-0.0947111,0.00825902
-0.0820458,-0.0511364
-0.00104584,0.0196576
0.0788888,0.0613256
0.0869063,0.0265173
0.0646836,-0.00873649
0.0274293,0.0607958
-0.00692437,0.0432869
-0.0373674,-0.037816
-0.0461269,-0.0543567
-0.0566312,-0.0560289
-0.0288084,0.0690401
0.0172752,0.0472676
0.000784502,-0.0345882
-0.0247546,-0.0458038
-0.0190521,-0.039054
-0.0193163,0.0184092
-0.00296789,0.0361301
0.016126,0.00553262
0.0374401,-0.0233674
0.056254,0.0325685
0.0578887,0.0428101
0.0560367,-0.045826
0.0424884,-0.0405323
0.0213319,-0.0440761
-0.00769309,-0.0374104
-0.0372867,0.0186916
-0.0473715,-0.0148758
-0.0275875,-0.0136152
-0.0104964,0.00781699
0.0154788,0.0250804
0.0584038,0.0408909
0.0569531,0.0275184
0.00775142,0.010218
-0.0538001,0.00299457
-0.069141,0.0151034
-0.0521494,0.0697796
-0.0314068,0.0593328
0.0164365,-0.0701292
0.0314411,-0.068828
0.0178083,-0.0330091
0.0132778,-0.037093
0.0261405,-0.013806
0.0345467,0.0178526
0.0475692,-0.00303345
0.0338261,0.00490699
-0.0011434,0.00828555
-0.0722527,0.000257871
-0.138383,-0.00109298
-0.160978,-0.0342615
-0.134677,-0.0525929
-0.0594719,-0.00189481
0.0433792,0.0607605
0.102609,0.0939525
0.123191,-0.0333949
0.104206,-0.0393028
0.0741182,0.00878489
0.0480642,-0.0120166
0.0042651,0.00777105
-0.0207682,0.0174922
-0.0086122,-0.00661555
0.00810001,0.0321068
0.0256611,0.0250805
0.0299499,-0.0158839
-0.00730976,0.0169278
-0.039432,0.00741897
-0.048142,0.0364406
-0.0547857,0.0497909
-0.0605297,0.0504064
-0.0335544,-0.00718797
-0.00763065,-0.0524972
0.0164151,-0.039862
0.0407031,0.0158554
0.0399323,-0.0610754
0.0298189,-0.125948
0.0546763,-0.0464566
0.0786062,-0.0124462
0.0656377,0.00230601
0.0616541,0.0211268
0.0520958,0.0278802
-0.021107,0.0462245
-0.0960261,0.0574247
-0.113084,0.0191305
-0.0940378,-0.0187821
-0.0557499,-0.0403589
-0.0103662,0.00121472
0.0329584,0.0435043
0.0224249,0.0185146
-0.0196942,0.00184615
-0.0228606,0.000947651
-0.00267384,-0.0164557
-0.0130689,-0.033406
-0.0343023,-0.0175373
-0.0326477,-0.0080317
0.00016451,0.00301044
0.0482459,0.0189803
0.0737791,-0.0092118
0.0532,0.0116332
0.0279236,0.0158677
0.00952901,-0.0133834
-0.0227044,-0.0235573
-0.0643142,0.0711747
-0.0478132,0.0524532
-0.00382626,-0.0372279
0.0219644,-0.0709598
0.0354633,0.0126971
0.00552372,0.0485521
-0.0414711,-0.019658
-0.0524791,-0.0304623
-0.0390159,0.000116346
-0.0260307,-0.00670325
-0.0179981,-0.00401025
0.0180232,0.0111713
0.0172338,0.00919243
0.00475515,0.061123
0.0370866,0.0260803
0.0617507,-0.0667108
0.0399517,-0.000742324
0.0447365,0.00137298
0.0610843,-0.0281169
0.0511572,-0.0243417
0.0418592,-0.00526255
0.034969,0.00151161
0.0140057,0.00375905
-0.0105197,0.00569143
-0.0250907,-0.0090011
-0.0320448,-0.0188675
-0.0288946,0.00281997
0.0135117,0.0134986
0.0401833,0.0172666
0.0175135,-0.000104575
-0.0118025,0.000429604
-0.0430121,-0.0028936
-0.0816703,-0.0188026
-0.0827004,-0.0163343
-0.0479784,-0.0132209
-0.0263171,0.0275233
-0.00543101,0.0453555
0.0152725,0.0282455
0.026349,-0.00369515
-0.00320122,-0.0139355
-0.025853,-0.000792871
-0.00173477,0.00435301
0.0217947,-0.00760136
0.0312494,-0.0102253
0.0325985,0.00963076
0.011206,0.0200352
-0.0191806,-0.00829168
-0.026454,-0.0241993
-0.0294829,9.32e-06
-0.0195283,-0.00728318
-0.0102856,-0.0125114
0.00558811,0.0421899
0.0118494,0.0797449
0.0172545,0.0380595
0.0442881,-0.0734303
0.0277834,-0.0406223
-0.015122,0.0389465
-0.0253234,0.0124254
-0.00497944,-0.0244273
0.00963693,0.0033097
0.0291781,0.00356877
0.0243033,-0.00225203
-0.00902072,-0.00524824
-0.0207209,-0.0131297
-0.0163403,-0.0155303
-0.0315954,-0.0270349
-0.0474138,-0.0265111
-0.0453923,-0.0289386
-0.0161245,-0.0154633
0.0242289,-0.0124262
0.0415516,-0.00446544
0.0468885,0.0246838
0.0261331,0.024544
0.00668388,0.00665573
0.00590166,-0.0109247
0.00870207,-1.51e-05
-0.000656784,0.0156382
0.00763771,0.0271081
0.0176576,0.0375667
-0.0200732,0.0294277
-0.0247595,0.0147698
0.00398004,0.0298265
0.00432511,0.00808155
-0.022123,-0.0553156
-0.0367583,-0.0358963
0.00788344,-0.00504484
0.050743,-0.0238828
0.04588,-0.0393346
0.0282151,-0.0114446
0.01607,0.00482164
-0.0022572,0.0269655
-0.012928,0.0429557
-0.0230943,-0.0193478
-0.0225722,-0.0288425
0.00456369,-0.00245371
0.010765,0.0346403
-0.00491313,0.0903803
-0.00109875,0.0284149
-0.00498251,0.0285602
-0.0234929,0.0171444
-0.0392323,-0.107465
-0.0732587,-0.115113
-0.0882262,-0.0386492
-0.0372017,-0.00802927
0.0180439,0.0061777
0.0303159,0.0159704
0.0351729,0.0293648
0.0209002,0.0193446
0.0174181,-0.00480703
0.0361572,0.00339384
0.0730336,0.025442
0.102123,0.0195103
0.0764892,0.00313482
0.014006,-0.00456094
-0.0321564,-0.0124598
-0.0537356,-0.0269476
-0.0677905,-0.00591412
-0.0583442,0.0299721
-0.00761396,0.0196506
0.038336,-0.0132326
0.0341081,-0.00203849
0.0278429,-0.000443836
0.0366688,-0.0216546
0.022833,-0.00843226
0.00106841,-0.000870994
-0.0136621,0.000471803
-0.0568951,0.0126117
-0.0617242,-0.00293781
-0.0197151,0.00148287
0.00049887,0.0107398
-0.00333962,-0.0280177
-0.0244932,0.00110055
-0.0560369,0.0351426
-0.0499988,0.00101313
-0.018262,0.0130313
0.0238586,0.00662649
0.0372649,-0.0163005
0.0452922,0.0143004
0.0794748,-0.000880067
0.084507,-0.0254219
0.0102318,-0.0149859
-0.114952,-0.00221363
-0.174218,0.0221307
-0.110745,0.0476983
-0.0140892,0.0341817
0.0886734,0.0241192
0.173513,0.0185605
0.213563,-0.0409934
0.160929,-0.0464171
0.0635551,0.00806072
-0.00879588,-0.00069943
-0.0276339,-0.0132257
-0.0256286,0.0176216
-0.0733597,-0.0240279
-0.11387,-0.0307342
-0.111008,-0.0164466
-0.102444,0.000258394
-0.0901684,0.0165234
-0.0608726,0.0242019
-0.0217148,0.0258918
0.0266872,-0.0539742
0.0202085,-0.0452957
-0.00295993,-0.0113738
-0.0032073,0.0322468
0.0180428,0.0791878
0.0101285,-0.0154936
-0.0100987,-0.067776
0.00904761,-0.0485244
0.0476631,0.00970427
0.0616784,0.0356045
0.0593669,0.0561616
0.0581031,0.0106102
0.0330962,0.009479
-0.00504466,0.0146826
-0.0235057,-0.0110395
-0.0130146,-0.0205262
0.00109691,-0.0158858
0.0199565,0.0139682
0.010351,0.0580813
-0.00913755,0.0183757
-0.0185024,-0.026624
-0.0153868,-0.0229943
-0.0205522,-0.0622505
-0.0388001,-0.0341967
-0.0276868,0.0287044
0.00731754,0.0359279
0.0348675,0.0146807
0.0442765,-0.0214234
0.0428277,-0.01338
0.0291202,0.00185465
0.0112831,0.016524
0.00176429,-0.00314888
-0.00196004,-0.0482466
-0.0155406,-0.00457951
-0.0264277,0.0611203
-0.0231657,0.0280698
-0.0320744,-0.0346482
-0.0266999,0.0142127
-0.0169898,0.0462074
-0.0458763,0.0353105
-0.0679043,-0.0415718
-0.0468877,-0.0567579
0.0385862,-0.0405414
0.070476,-0.0365883
0.0840961,-0.0369831
0.0951098,-0.0409103
0.0596713,0.0385442
-0.0376996,0.0935233
-0.0987896,0.0293117
-0.158751,0.0385914
-0.142337,0.0289836
-0.0482148,0.00766396
0.00714664,-0.0215911
0.0473283,-0.0476526
0.060434,-0.0376431
0.06786,0.00182594
0.0791704,0.0104371
0.065288,-0.00422051
0.0834713,0.0542403
0.0909605,0.0550875
0.0260183,-0.0483231
-0.0170547,-0.0288328
-0.0465665,0.0145572
-0.0898354,-0.0359474
-0.0735204,-0.0572728
-0.0339796,-0.013321
-0.00863181,0.0110065
0.0387017,0.021021
0.0639871,0.0385543
0.0689866,-0.00917429
0.0604642,-0.0528441
0.00337109,0.00964187
-0.0335804,0.0695748
-0.0765607,0.0345219
-0.101842,0.0584032
-0.0552775,0.0139057
-0.00394957,-0.0724557
0.00604927,0.00197039
0.0281407,0.0280333
0.0383153,-0.0213707
0.00552332,-0.0667243
-0.0131975,-0.0459894
-0.0146116,0.0181401
0.0143383,0.0487025
0.0478231,0.00773714
0.0482269,-0.0228613
0.0274626,-0.0161507
-0.00345701,-0.0237425
-0.0120272,0.0605666
-0.0256141,0.0350814
-0.0321562,-0.0937622
0.0202104,-0.00252525
0.067944,0.0912189
0.0551641,-0.0087149
0.0305622,-0.0318644
0.0249123,-0.0071704
0.016965,-0.010237
-0.024257,0.0684
-0.133017,0.118857
-0.22862,-0.0355622
-0.22288,-0.0126
-0.0715374,-0.031403
0.0637415,-0.109824
0.0629064,-0.0723561
0.0271647,-0.0424742
0.0448368,-0.00324391
0.0942315,0.0361392
0.0889636,0.0022438
0.0518119,0.000960495
-0.0222589,0.0481754
-0.0301973,-0.0166435
0.0150853,-0.0758045
-0.00123881,0.00413885
-0.0744191,0.0996992
-0.0385266,0.0036453
0.0806712,-0.0576926
0.0834367,0.00740781
0.0374276,0.0307204
0.0327013,0.0710825
0.0322325,0.0500685
0.0577984,0.0392185
0.109443,0.0262308
0.0977185,-0.0255506
-0.0369269,-0.0416709
-0.11369,-0.0207975
-0.109745,0.0651828
-0.143181,0.0470058
-0.160386,-0.0543238
-0.159202,-0.0455804
-0.110454,-0.00905567
-0.0649888,0.00778285
0.0114181,0.0111994
0.143298,-0.04501
0.265761,-0.0375007
0.178464,-0.00817226
0.0212254,0.0519654
-0.0420151,0.0266741
-0.073836,-0.0801413
-0.0478475,-0.0381118
0.0404067,0.00437273
0.161999,-0.0260916
0.284107,-0.0855951
0.246631,0.0387587
0.0908509,0.120631
-0.0698427,0.0163368
-0.196485,0.0146339
-0.216168,-0.00897777
-0.185696,-0.0760524
-0.112263,-0.0365677
0.00472166,0.0355817
0.0712506,0.0354289
0.0717372,-0.00422541
0.0452753,-0.0276284
-0.0344236,-0.0585827
-0.0988096,-0.00637807
-0.0798034,0.112369
-0.0352582,0.0604929
-0.0352683,-0.0116065
-0.0799501,-0.00482762
-0.162761,0.0248753
-0.120048,0.0608414
0.034446,0.0168889
0.144907,-0.0543913
0.208885,-0.0330488
0.190051,-0.00263368
0.0431036,0.027087
-0.0315049,0.0263391
0.0194096,-0.00166691
0.00483887,-0.0871354
-0.0544311,-0.0698094
0.00119333,-0.0437351
0.110116,-0.00357667
0.0536161,0.0584069
-0.0585546,0.00283903
-0.115271,0.0281076
-0.156087,0.0157482
-0.171422,-0.0028844
-0.177947,0.0478087
-0.178726,0.0121039
-0.148248,-0.00577899
0.0203004,-0.096773
0.252487,-0.0533306
0.347447,0.0462893
0.126158,0.102783
-0.070851,0.0990955
-0.0388894,-0.0176478
0.107152,-0.0546216
0.172483,-0.041856
0.096544,0.00960362
-0.0251552,0.00453649
-0.0561128,-0.0288611
-0.07441,-0.0145019
-0.0253151,0.0152679
0.0321696,-0.0654605
0.0257468,-0.0210968
0.0919003,-0.0316156
0.136271,-0.0590047
0.0565038,-0.00386136
-0.134071,0.0553694
-0.349829,0.0355675
-0.266977,0.0509692
0.00702599,0.0931814
0.188746,0.00509435
0.264471,-0.0488918
0.177627,-0.0490903
0.104771,-0.046926
0.0532343,0.0644464
-0.0107606,0.139745
0.0080174,-0.0260031
0.0420311,-0.0584218
-0.0264766,0.00889894
-0.110185,0.0384042
-0.201569,-0.0586971
-0.204332,-0.0668807
-0.192769,-0.0377103
-0.188555,-0.0273162
-0.123152,-0.00764725
0.0425919,0.0526139
0.0616704,0.0544967
0.0422204,-0.0115825
0.0444429,0.140146
0.170202,0.0632534
0.294561,-0.0248501
0.248105,0.00443248
0.131608,-0.050373
0.0306532,-0.0300404
-0.0532736,-0.0649505
-0.133325,-0.0801484
-0.168919,-0.0316773
-0.132107,-3e-05
-0.111111,-0.0154251
-0.093011,0.0273398
-0.0416893,0.00985806
-0.0307324,-0.00433141
-0.0217565,-0.0346683
-0.0477218,0.0119916
-0.072347,0.0451573
0.0470017,-0.0288373
0.229556,-0.0397197
0.249452,-0.0171278
0.154945,0.00670102
0.00298903,0.0370818
-0.103674,0.0818636
-0.1947,0.105579
-0.243497,0.0723347
-0.195754,-0.0351682
-0.0813171,-0.0601509
0.0414451,0.0114071
0.0463221,-0.0293765
-0.0546521,-0.0630664
-0.0453146,-0.00242851
0.128523,-0.00173665
0.254623,-0.0373206
0.0426045,0.0196658
-0.0369829,0.0600484
0.150716,0.00618853
0.249508,-0.0862084
0.284175,-0.023806
0.146901,0.0140245
-0.132829,0.00917219
-0.121576,-0.0434616
-0.000580901,-0.0126444
0.0641225,0.0651895
0.035122,0.0647939
-0.0324546,0.040222
-0.100516,0.0145632
-0.205476,0.0295632
-0.231924,0.0193899
-0.157676,-0.00689601
-0.0684536,-0.0143676
0.00353235,-0.124989
0.0122868,-0.0884245
-0.0320301,-0.014016
-0.11957,0.0754262
-0.156882,-0.0205784
0.0171602,-0.0583187
0.251017,-0.0459905
0.298965,0.00942698
0.252104,0.0323026
0.103226,0.057308
0.0254333,0.0661358
0.0326917,0.0159431
0.0494684,0.00975584
-0.0375578,0.0101634
-0.0236083,0.0140701
-0.0171118,0.0193899
0.0405269,-0.0957324
0.105492,-0.0452585
-0.103315,0.0540707
-0.337997,0.0671197
-0.349784,0.0255674
-0.243511,0.0638005
-0.11774,0.0357179
-0.145816,-0.0510133
-0.0299744,-0.109087
0.177932,-0.0309419
0.260774,0.00501146
0.342073,0.00828244
0.279178,-0.0399752
0.0820717,-0.0516546
-0.0160615,-0.0401165
-0.0127702,0.0131536
0.00268887,0.0427104
-0.0611568,0.0383565
-0.114861,0.0342805
-0.118872,0.0365799
-0.180425,0.00537398
-0.332782,0.00567092
-0.320066,-0.0333163
-0.071303,-0.026277
0.079285,-0.0165425
0.108906,-0.00398489
0.314104,0.0131584
0.394719,0.0452792
0.316794,0.0245301
0.189638,-0.00404341
0.0135364,0.00191414
-0.1113,-0.0068255
-0.0785974,0.0112374
0.0749324,0.0451211
0.0866497,0.0588411
-0.0384985,-0.129169
-0.0984902,-0.101302
-0.135668,-0.0788725
-0.14949,-0.00249919
-0.102923,0.0889541
-0.0451326,0.138653
0.027148,0.0413882
0.092686,-0.061122
0.0933181,-0.0105549
0.0134201,0.0415779
-0.0882878,-0.0264955
-0.145305,-0.122409
-0.114983,-0.0742746
-0.074636,-0.108058
-0.119599,-0.0228456
-0.164651,0.10044
-0.104163,0.103221
0.0944226,0.125121
0.168693,0.0330705
0.114027,-0.0546883
0.121666,-0.098592
0.131558,0.217404
0.0611857,0.183136
0.0686958,-0.0243052
0.0858423,-0.140697
0.043988,-0.136934
0.0711126,-0.138737
0.191321,0.00345874
0.18255,0.111826
0.0356229,0.00681395
-0.282907,-0.00126932
-0.5417,0.0336524
-0.535177,0.0959111
-0.31219,-0.000711442
0.0332656,-0.138976
0.149936,-0.09332
0.00704906,0.0298552
0.0781699,0.0230075
0.156478,0.0498849
0.228677,-0.0167584
0.257886,-0.119176
0.125269,-0.0857075
0.0176572,0.00113249
-0.067563,0.0570164
-0.0354061,0.0295403
0.117604,0.0522339
0.203386,0.101721
0.149746,0.0600644
-0.0256013,-0.0135742
-0.128795,-0.148722
-0.0835955,-0.220104
-0.0437792,0.0134644
0.0745908,0.0664867
0.235702,0.0532338
0.252772,0.0749858
0.104799,0.133006
-0.0512258,0.194505
-0.196797,0.0723656
-0.261651,-0.0465063
-0.223544,-0.0457804
-0.213595,-0.108965
-0.0877813,-0.118199
0.033216,0.0229653
0.00430467,0.131747
-0.0503165,0.0411535
0.0340406,-0.0135381
0.0682971,-0.051896
-0.0114392,0.00884749
-0.0500174,0.0082868
-0.0480754,-0.152617
-0.0495156,-0.150926
0.0407366,-0.0863708
-0.0793237,-0.000793308
-0.348075,0.059209
-0.238647,0.0739659
0.160352,0.0349446
0.570997,-0.0267742
0.530407,-0.0281688
0.163844,0.0257602
-0.0432898,-0.0172547
-0.191975,-0.00722705
-0.33142,0.0571006
-0.290071,0.211561
-0.0856309,0.14703
0.154612,-0.138217
0.236844,-0.126031
0.158716,-0.0384498
0.100467,0.00656014
0.066878,0.00170976
0.0349696,0.00137862
0.0263605,0.0121468
0.00698826,0.0507006
-0.06959,-0.0304521
-0.170809,-0.0855393
-0.177832,0.00444854
-0.11296,0.0529981
-0.015258,0.00354254
0.00714868,-0.0468509
-0.023582,0.00800923
0.0380924,0.0391628
-0.0289968,0.0158537
-0.110311,0.0321443
0.0499952,-0.0615704
0.129464,-0.0277451
-0.0439425,-0.0368162
-0.233421,-0.0120634
-0.0896661,-0.0398819
0.0598349,0.0664547
0.0421426,0.0728318
-0.0172881,0.00137415
-0.0685701,0.0837681
0.0386735,-0.0676678
0.0523868,-0.0728697
0.064744,0.0515379
0.0872755,0.0811043
0.117586,0.090793
0.138079,0.0656585
0.172175,-0.0644918
0.271204,-0.0983775
0.188915,-0.0357917
-0.00447048,-0.0212286
0.0119241,-0.0303648
0.0304502,0.0277457
0.0168137,0.0143398
-0.0889691,-0.0906464
-0.248808,-0.0517023
-0.272806,0.039924
-0.238825,0.0405012
-0.163726,-0.0571534
-0.064401,-0.090483
-0.190617,-0.0251596
-0.210914,-0.0256883
0.0892151,0.0472908
0.364862,0.0268489
0.407436,0.0400141
0.265011,0.205885
-0.0172484,0.0721685
-0.282218,-0.0640066
-0.221049,0.0295475
-0.0594465,-0.0246722
0.0669041,-0.0717083
0.210595,-0.0950564
0.165146,-0.0378307
-0.0294171,0.0939023
-0.122228,0.139745
-0.153741,0.0701353
-0.131265,0.0357536
0.084148,-0.0247147
0.206544,-0.0778012
0.112717,-0.175822
-0.0809229,-0.0986118
-0.117594,-0.0064168
-0.0557339,0.0271176
-0.00502023,-0.0307284
-0.0434224,0.0123808
-0.00679721,0.0684138
0.072403,0.0413167
0.0539171,0.0404331
-0.00488719,0.0725725
-0.0636169,-0.0346566
-0.0362866,-0.023313
-0.0113328,-0.0139647
-0.0343984,-0.0520794
-0.0451836,-0.0208962
0.0432236,-0.0642292
0.179103,-0.0491362
0.123803,0.00782456
-0.0520589,0.0353791
-0.144147,0.0838822
-0.0987524,0.12094
-0.037337,0.015805
-0.12275,0.0226089
-0.177366,-0.0398169
-0.0854618,-0.0768143
0.130513,-0.082062
0.233735,-0.130988
0.141281,0.0375323
0.129137,0.0566494
0.191331,-0.0282693
0.197513,0.0371808
0.100752,0.126751
-0.0217793,0.146726
-0.107482,-0.0301649
-0.118898,-0.0460191
-0.173557,-0.0381777
-0.210749,-0.0576869
-0.189953,-0.0507702
-0.220058,0.0538262
-0.161577,0.0482517
0.028649,-0.0387219
0.111643,0.0488794
0.0976321,0.0987469
0.0400278,-0.0771488
0.037741,-0.101751
-0.002228,-0.0764532
0.0101669,0.0481598
0.00892197,0.142
-0.0145081,0.0913849
0.0426698,-0.0521445
0.099785,-0.13111
0.0832357,-0.0543012
0.0988352,0.0464157
0.107356,0.0486361
0.0901723,-0.0711661
0.0519658,-0.0654951
-0.0202294,0.0469391
0.00985411,0.0205704
0.0569324,0.0162736
0.0110828,-0.0169899
-0.0498228,0.0225239
-0.0722297,0.0322643
-0.212183,0.0375595
-0.160149,0.0403222
0.0665182,-0.0398298
0.0578794,-0.0241573
0.0312561,-0.0455129
0.0293105,-0.0454922
-0.00412704,0.0254423
-0.0166915,0.0263803
-0.098806,0.00894383
0.0229562,-0.0641028
0.182285,0.0597353
0.205433,0.0287424
0.11748,0.106238
-0.100573,0.0782962
-0.118971,0.0483973
-0.0400571,-0.0945721
-0.0263284,-0.168293
0.0134146,-0.0791624
0.0270433,-0.080896
0.0145794,-0.0393387
0.0214876,-0.0015335
0.0163135,0.0145941
-0.0397057,0.0152054
-0.0906462,0.0743461
-0.119242,0.118592
-0.0928067,0.0146714
-0.0949072,-0.0325866
-0.0927701,-0.0428066
-0.0594432,-0.0503559
-0.0518461,-0.0481526
-0.036006,-0.0104537
0.0720678,0.040449
0.0331602,0.00188581
-0.0230005,-0.0262305
0.00289464,-0.0516387
0.0942705,0.144033
0.31053,0.254373
0.356567,-0.025436
0.203267,-0.193066
-0.0263862,-0.0996411
-0.386698,0.0120931
-0.532911,0.082102
-0.104748,0.0242495
0.276369,0.0544567
0.152884,0.051217
-0.010658,0.0513073
0.0903096,0.0285175
0.0863991,0.00577673
-0.0534501,0.0542825
-0.108122,-0.0228458
-0.0733692,-0.127007
0.0452773,-0.105089
0.102012,-0.0730207
0.0422076,-0.0382494
-0.0298555,0.0575345
-0.0326722,0.0315158
-0.0365736,-0.0381572
-0.143666,-0.0764684
-0.170695,-0.0418205
-0.11759,-0.00717105
-0.00973104,0.114249
0.11107,0.0873611
0.223476,-0.0261288
0.194814,-0.0110979
0.099751,0.0029442
-0.00164168,0.0110578
-0.125253,-0.0038592
-0.181206,-0.0331134
-0.171399,-0.0508762
-0.078896,0.0155317
0.045936,0.0903366
0.12342,-0.0171716
0.154802,-0.0680885
0.0906237,-0.0415408
0.0227219,0.0155832
-0.0728726,0.103737
-0.164852,0.204284
-0.0783324,0.184537
0.170088,-0.104484
0.301536,-0.196725
0.197201,-0.106197
0.0700259,-0.103206
-0.093997,-0.0752524
-0.257912,-0.0131589
-0.203077,0.0362786
-0.155632,0.0679004
-0.0859611,0.0317274
0.0627398,0.0172366
0.156529,0.0166434
0.199904,0.00941515
0.127993,0.0284871
0.0135747,-0.0352573
-0.170257,0.015055
-0.144787,0.163532
-0.0588321,-0.00662733
-0.119071,-0.11492
-0.0684043,0.0708085
0.0958127,-0.0133144
0.224309,-0.16155
0.0466918,-0.0702106
-0.235777,0.0276196
-0.303895,0.0651564
-0.19802,0.00369857
-0.000889102,-0.111171
0.205566,-0.0466915
0.299995,0.157378
0.313917,0.144811
0.170669,-0.00458875
-0.0455967,0.0195094
-0.157533,-0.0536229
-0.163598,-0.0404506
-0.130124,0.141485
-0.0431708,0.0708258
0.102357,-0.110597
0.220169,-0.0718567
0.208127,-0.0836592
0.0890634,-0.0362962
0.0279492,0.0250085
0.00194043,0.0116585
-0.0282987,0.0217647
-0.0462746,0.0711818
0.0040809,-0.0204049
-0.0364501,-0.0411602
-0.115735,0.0378232
-0.125195,-0.0165958
-0.0892703,-0.0807612
-0.0657932,0.0707343
-0.0200738,-0.01235
0.0465099,-0.0901354
0.0651544,0.0252883
3.5e-06,0.0877266
-0.0144952,-0.0185712
0.0374361,-0.000267979
0.0359148,0.0775279
0.0915924,-0.0527934
0.062705,-0.150653
-0.0728316,-0.046998
-0.129983,0.0785744
-0.143523,0.0688131
-0.210778,0.0683584
-0.187538,0.0174512
-0.0026851,-0.0276417
0.144983,-0.0170028
0.185473,0.017377
0.17259,-0.0162727
0.0283575,0.00256489
-0.135453,-0.0445262
-0.121208,-0.0253382
-0.0576082,0.0599923
0.000591439,0.0126076
0.0200177,-0.00800439
0.0525474,0.024305
0.0654321,0.0123071
0.0846642,-0.0332091
0.167728,-0.0399365
0.21008,0.0512725
0.126227,0.0578793
-0.100008,-0.0898559
-0.237747,-0.101998
-0.212966,-0.0153126
-0.0970739,0.0757028
0.0664508,0.0843254
0.164568,0.0165964
0.146598,-0.0683638
-0.0629435,-0.0133242
-0.244499,0.0461624
-0.219962,0.0146758
-0.0313685,-0.0189179
0.115754,-0.00291857
0.0878609,0.0302859
0.0163106,0.0306182
0.0078201,-0.0700228
0.0461325,-0.0811506
0.115298,-0.0196111
0.143545,-0.00628192
0.176674,0.00261154
0.127889,-0.0054601
-0.0382042,0.0929735
-0.0726873,0.0461087
-0.0509392,0.075049
-0.00621318,-0.0095708
-0.0021078,-0.130721
-0.0771188,-0.0892704
-0.100457,0.00809398
-0.0649201,0.0468823
-0.0578657,0.0745139
-0.0276031,0.0601163
-0.0221301,-0.00712784
-0.0220285,-0.0267743
0.0209931,-0.0174651
-0.0169448,0.00126646
-0.104783,-0.00717246
-0.220356,-0.0189609
-0.239622,-0.0685883
-0.0224887,-0.116639
0.206781,-0.0624331
0.259487,0.0645798
0.157081,0.180032
0.108848,0.181021
0.126827,0.0698124
0.111758,-0.0698948
0.0455529,-0.0548164
0.0127119,-0.0773993
0.0819113,-0.0118266
0.104789,-0.0123445
0.00112678,-0.0306908
-0.121302,0.0669036
-0.154446,0.0500615
-0.0409407,-0.0261638
0.000902097,-0.0193987
-0.116919,-0.0234426
-0.180804,-0.0476216
-0.110781,0.0166715
-0.0982719,0.000464899
-0.111365,-0.016702
-0.147455,0.00865228
-0.0744983,0.0546746
0.0682654,-0.00681454
0.105209,-0.0206282
0.161898,-0.0194883
0.104539,-0.0315909
0.0213012,-0.0169288
0.0846296,-0.0326706
0.110724,-0.0185104
0.070317,0.0430229
0.0225408,-0.0338195
0.036384,0.032321
0.0753923,0.0771645
0.046565,0.00947198
-0.0106335,-0.0429393
-0.0845473,-0.0181369
-0.256594,0.00114607
-0.331774,0.0643988
-0.15203,0.124044
0.181511,-0.0562089
0.289138,-0.0856743
0.187291,-0.00308177
0.0355942,-0.0132603
0.0460846,0.00537265
0.00326733,0.0548504
-0.0998572,0.00793832
-0.152,-0.0383076
-0.107725,-0.0646004
-0.0126384,-0.0504477
0.062116,0.0636502
0.0755167,0.037078
0.0596393,0.00532757
0.0205224,0.0126756
-0.00805177,-0.0387799
-0.0173607,-0.0401386
-0.0420724,-0.076813
-0.0277296,-0.0222615
0.0411919,0.0128304
0.0580454,0.103779
0.0339436,0.015368
-0.00106798,-0.102638
0.000453701,0.0554523
0.0616672,0.101094
0.0782319,0.0253114
0.0571497,-0.0677658
-0.0179536,-0.0422748
-0.0444606,0.0179882
0.0882607,0.0519797
0.104296,-0.0222554
0.0144088,-0.0135309
-0.105052,0.0213243
-0.168527,-0.0222169
-0.188569,-0.0361562
-0.129751,0.0203566
0.0280243,0.0639764
0.102402,0.050247
0.0263147,0.0108301
-0.116239,-0.00581627
-0.264635,-0.0289587
-0.342699,0.00679659
-0.197468,0.0549812
0.0966325,-0.0163561
0.356964,-0.118483
0.388809,-0.0720657
0.244708,-0.00729079
0.0917476,0.0590375
0.0338916,-0.0458083
0.0500279,-0.0393605
0.0940134,0.0261727
0.0580638,0.00938674
-0.114396,-0.0234494
-0.233693,-0.00709064
-0.238538,0.0370034
-0.148097,0.0374373
-0.0876574,-0.023114
-0.0851598,0.00744828
-0.121034,0.151891
-0.0387205,0.116157
0.155966,-0.0330906
0.265426,-0.112082
0.196211,0.0126865
0.0611581,0.0293661
0.0180444,-0.0709293
0.00263072,-0.0967513
-0.131133,-0.0476554
-0.123509,-0.0385928
0.0204921,0.0990732
0.156184,0.238517
0.179571,0.0833644
0.0827197,-0.0856978
-0.0157311,-0.0857785
-0.0272527,-0.0912826
-0.0223476,-0.0956388
0.0110508,-0.0828977
0.105392,-0.047897
0.125314,0.0125436
0.0168342,0.092241
-0.0932934,0.0609317
-0.107581,0.0745072
-0.104629,-0.00743473
-0.173631,-0.0477693
-0.23857,0.0165478
-0.227555,0.036744
-0.0682392,-0.012119
0.0897254,0.00655261
0.17302,0.0228432
0.181593,-0.0139254
0.19467,-0.00493655
0.118357,0.0101985
-0.0249697,-0.0280723
-0.0786571,-0.0939118
-0.0735056,-0.0497454
-0.0770961,0.0173062
-0.0397782,0.0384215
-0.0106508,0.000136061
-0.0362002,0.00520368
0.0259737,0.0489231
0.100495,0.0459436
0.140701,0.0665616
0.102082,0.0512067
-0.0189312,-0.0309
-0.114689,-0.0216677
-0.152286,-0.0300493
-0.168298,0.036892
-0.0865722,0.0259327
0.00146468,-0.0471397
0.0234659,-0.057676
-0.00707161,-0.0610582
-0.0315008,-0.0605177
-0.0220441,-0.0133336
0.0195998,0.0361659
0.0282986,0.0643109
-0.0117591,-0.0302294
0.0171577,-0.0378069
0.0569598,0.0315577
0.0923021,0.0845705
0.0888862,0.0598378
0.0651934,-0.0231392
0.0784093,-0.0389746
0.0926918,0.0694141
0.0645146,-0.0133725
-0.0413464,-0.0638946
-0.0737016,-0.0301014
-0.0305516,-0.0361329
-0.00942076,-0.0478568
-0.0352922,-0.0139872
-0.0380418,0.0324904
-0.0243307,0.027199
-0.0993406,-0.024348
-0.178066,-0.0115498
-0.147083,0.0131972
-0.00285375,0.00433347
0.0958358,0.00228802
0.12101,0.0307716
0.202578,0.0503807
0.271416,0.0423881
0.221382,-0.00998739
0.0594385,-0.0413075
-0.092511,0.0118653
-0.178368,-0.0215337
-0.210316,-0.0446885
-0.164095,0.0168593
-0.102623,0.0131974
-0.0175917,0.00274029
0.0965698,0.0592176
0.243704,0.089804
0.315378,-0.0316565
0.139542,-0.105608
-0.0552288,-0.0652556
-0.137759,0.0344498
-0.19745,0.079201
-0.230209,0.0324735
-0.230851,0.0383656
-0.197194,0.0109549
-0.12048,0.00446747
-0.0313639,-0.0230008
0.0201573,-0.0615287
0.0487813,-0.0412619
0.084268,0.017213
0.105063,0.0254884
0.130851,-0.0197827
0.144289,-0.0177675
0.15743,0.0523239
0.154136,0.0320377
0.0189441,-0.0105079
-0.176833,-0.00864499
-0.108842,0.0988102
0.0485913,0.0306846
0.149324,-0.130119
0.148693,-0.100626
0.0273899,-0.0854755
-0.0710265,-0.0913827
-0.0850421,-0.0452714
-0.0713354,-0.0136638
-0.0631157,0.0188298
-0.0685658,0.0642949
-0.114955,0.23033
-0.0958407,0.0641931
-0.0804224,-0.0622083
-0.102302,0.0413483
-0.14198,-0.107863
-0.0892738,-0.138745
0.0380338,-0.0571354
0.1379,0.00671133
0.196742,0.0370505
0.26582,0.0583039
0.250074,0.0790796
0.12948,0.0469142
-0.00534647,-0.0240183
-0.078531,-0.0363891
-0.0498524,0.0200379
0.0212105,0.0113624
-0.0251876,-0.0299339
-0.1991,-0.0388728
-0.205537,0.0354008
-0.00949348,0.0514117
0.245489,-0.0334
0.306729,-0.0107173
0.149155,-0.0331818
-0.0185978,0.0373739
-0.0959363,0.0683963
-0.116631,-0.00761255
-0.152483,-0.0107895
-0.0282659,-0.000216076
-0.0584548,-0.00745583
-0.268871,0.0155467
-0.186517,0.0279323
0.00181383,-0.017631
0.10844,-0.0300288
0.106923,-0.0541361
0.022205,-0.00194577
-0.0096877,0.0913255
-0.0324553,0.0122321
-0.0581675,0.0130374
-0.00800156,0.0839991
-0.0345918,-0.0146639
-0.0584923,-0.0778219
0.0189044,-0.00801789
0.0781011,0.0518049
0.0480226,0.0294541
0.0634993,0.0707575
0.134058,-0.07927
0.0884594,-0.114182
-0.0463418,0.0152504
-0.0713484,0.0062731
-0.023509,-0.0529778
0.0904187,-0.0548829
0.314587,-0.0273109
0.309699,0.0181486
0.0211037,0.0618636
-0.156045,-0.0274044
-0.185663,-0.0129297
-0.189653,-0.00507199
-0.135323,-0.0274369
-0.0759517,-0.0135483
-0.0114433,0.0369665
-0.0463988,0.0678235
-0.112659,0.0277018
-0.0693877,-0.0400344
0.014964,-0.0124398
0.0739613,0.0209787
0.0626094,0.0781915
0.078618,0.0252896
0.111558,-0.0308287
0.129519,-0.0479137
0.0860795,-0.0540614
0.0169717,-0.0333511
-0.0712473,0.00464555
-0.110742,0.061495
-0.0957016,0.0852214
-0.0219824,-0.0219739
-0.00569143,-0.0598983
0.0195349,0.00430898
0.107576,0.113081
0.0876105,0.0594053
0.0477295,-0.0612472
0.00381045,-0.105992
-0.0194759,-0.0213998
-0.0305942,-0.0234915
-0.00284451,-0.0668131
-0.0128108,-0.0205966
-0.05235,0.0159969
-0.0987542,0.016054
-0.152953,0.024745
-0.15667,-0.0064138
-0.0761533,-0.0405672
-0.0114539,0.0168276
0.0488456,0.0862382
0.130737,0.0543423
0.143977,0.0112248
0.061309,0.00402336
-0.028722,-0.0296414
-0.0585666,-0.0383906
-0.191505,-0.0209474
-0.262293,0.00129982
-0.163555,0.0440951
-0.00296001,0.0363492
0.141126,0.020144
0.298688,0.0175254
0.282723,-0.051013
0.0970448,-0.0372193
0.0523427,0.00342329
0.100882,0.0137248
0.0960209,0.00746277
0.0693656,0.00474657
-0.00223294,-0.0330823
-0.138107,-0.0401526
-0.187363,-0.0184847
-0.0904735,-7.3e-05
-0.0163862,0.0482176
0.0839735,-0.00494404
0.109423,-0.00298773
0.044094,0.054766
-0.0190498,0.0425619
-0.00872471,0.000851482
-0.0369271,-0.0666618
-0.143675,-0.012626
-0.144595,0.051022
-0.0115439,0.034485
0.0308555,0.00900654
0.0785003,-0.101786
0.191201,-0.0689346
0.21025,-0.0205591
0.113992,-0.0195638
-0.038068,-0.0273024
-0.157972,0.0118717
-0.147944,0.0115301
-0.0683942,0.0108446
-0.0564464,0.0678683
-0.160066,0.0877444
-0.158728,0.0353519
-0.0896773,0.119377
-0.0316699,0.0321328
0.0342271,-0.186922
-0.0252821,-0.111793
-0.0209541,-0.000995934
0.0251793,0.0173033
0.0399108,0.0164452
0.0869683,0.0317931
0.140973,0.000244221
0.139972,0.0142499
0.0738364,0.00205389
-0.0074375,-0.0281953
-0.071081,0.0115443
-0.0186327,0.0232848
0.0649647,-0.00134746
0.107722,-0.0271396
0.103307,-0.0211831
0.034096,0.0342388
-0.0940338,0.0632031
-0.179468,0.0125705
-0.198133,-0.0226055
-0.210328,-0.0502947
-0.122567,0.0972814
0.0767194,0.104958
0.231331,-0.0242079
0.350241,-0.0494033
0.279879,-0.0786937
0.0691142,-0.0812142
-0.0665806,-0.0668786
-0.115593,-0.0215465
-0.109073,0.043418
-0.0343189,0.0557851
-0.00588978,-0.0371866
-0.0409946,-0.0558591
-0.0365702,-0.0209654
0.0117174,0.0378491
0.0320126,0.0266773
0.0626993,-0.0221987
0.0152979,0.0069094
-0.0430544,0.0242272
-0.113339,0.0421778
-0.171285,0.0920588
-0.165291,0.096262
-0.241376,-0.0358973
-0.193424,-0.0971018
0.0855341,-0.0735664
0.275472,-0.0239825
0.322884,-0.00487778
0.243527,0.00398456
0.10362,0.0164831
-0.0270616,-0.00239231
-0.0722068,-0.00877109
-0.0844413,0.0189915
-0.0810532,0.00532626
-0.120152,-0.0584466
-0.124465,-0.0182909
-0.0811748,0.0431865
-0.0223783,0.041454
0.0374799,0.00509385
0.0692779,0.0461981
0.151778,0.0915755
0.18711,-0.0371321
0.072623,-0.0989096
-0.067559,-0.0498655
-0.100744,0.00358241
-0.0939637,0.0675886
0.0173414,0.0585173
0.11149,-0.0479372
0.143742,0.0260478
0.101843,0.0464703
-0.0590925,0.0201573
-0.114173,-0.0636117
-0.12167,-0.0583162
-0.112019,-0.00669536
-0.0322368,0.00727323
0.0492873,0.0338451
0.0855006,0.00189035
0.00286047,-0.0336162
0.00919975,-0.0173677
0.0182602,0.0208577
-0.0291345,0.00397405
-0.0152185,-0.00635202
0.0275041,0.00333904
0.00631545,-0.0124575
-0.0539448,-0.00149322
-0.102161,0.0226111
-0.131788,-0.0133096
-0.077982,-0.0514897
0.0246959,-0.0483126
0.121908,0.0303449
0.0118162,0.00165632
-0.0656239,-0.00704089
-0.0236258,0.0313636
0.0425878,0.0501042
0.0518469,0.0891258
0.0250432,0.0222738
0.0407595,-0.0474195
0.0739925,-0.0192284
0.0739757,-0.00856364
0.0844523,-0.0129423
0.0305098,-0.000747167
-0.0710173,-0.00706277
-0.078202,-0.0363412
-0.0138905,-0.0137878
0.0782333,-0.0431857
0.0749181,-0.0359784
-0.00259965,-0.0112194
-0.0281038,-0.00801952
-0.0317576,0.00649996
-0.0103481,0.00718444
0.0166725,0.0149252
0.00912824,0.0669582
-0.0087426,0.0833315
-0.0179786,0.0593669
-0.034093,0.00494497
-0.0257982,-0.0170092
0.0229389,-0.0174836
0.0416582,-0.00494474
0.0186081,0.0264003
0.000229483,0.0187961
-0.0191474,-0.0539886
-0.0262182,-0.0192414
-0.0305984,0.00458971
-0.058761,-0.0806167
-0.0815616,0.0187223
-0.059946,0.0778598
-0.0125135,0.0342469
0.0322851,-0.041914
0.0207369,-0.022641
0.00300749,0.0544939
-0.00343436,0.016899
-0.00180671,-0.031196
0.0870349,-0.0386872
0.16525,-0.0362961
0.113823,-0.0149166
0.00418807,-0.0233848
-0.0468444,-0.0379363
-0.022628,-0.0507067
0.00940398,-0.00500745
0.0556031,0.0222023
-0.0364956,-0.0100427
-0.140623,-0.0244941
-0.0937507,0.02225
-0.0276947,0.0791868
-0.0350384,0.0530793
-0.0177367,-0.0245713
0.00415544,0.0166285
-0.00390443,0.0312351
0.00255717,0.023397
0.012158,0.000117166
0.00515918,0.0201131
-0.0183582,0.0706332
-0.0420208,0.0893559
-0.0445984,-0.0717049
-0.0528086,-0.0826185
-0.0210122,-0.0383903
0.0351032,-0.0545992
0.0335722,-0.0398226
0.050606,-0.0289257
0.109897,-0.0304463
0.112458,-0.0243101
0.144531,-0.00539928
0.120306,0.000802456
-0.00585436,0.0595244
-0.0744597,0.0940493
-0.0844236,0.00505041
-0.0702124,-0.0432504
-0.0981694,-0.0449888
-0.112466,-0.0380896
-0.106411,-0.0215258
-0.124266,-0.0147464
-0.143271,0.0247101
-0.0521444,0.0683024
0.114485,0.0455436
0.282413,0.102869
0.278633,0.00676899
0.0954287,-0.0072532
-0.0238843,-0.0136196
-0.0453189,-0.0614371
0.00650835,-0.016115
0.0916205,0.024471
0.106931,0.0382708
-0.0146694,0.0373397
-0.10612,-0.0180253
-0.174031,-0.0452721
-0.133029,-0.0276845
-0.0450527,-0.035525
-0.0212275,0.0115016
0.0403547,-0.0173341
0.0353747,-0.0117626
-0.0681115,0.0293607
-0.108811,0.00960245
-0.042127,-0.0237805
0.0584966,-0.0395224
0.0545888,-0.0318393
-0.00228784,0.0248058
0.0192542,0.0609697
0.0194793,0.0589668
0.014772,0.0448
0.0863714,-0.0453896
0.111158,-0.0381459
0.0614436,-0.0113106
-0.0180338,-0.0156
-0.0264546,0.0132484
-0.00879937,0.00970118
0.0544214,-0.0245033
0.0894151,0.01042
0.050477,0.0324074
-0.0388511,0.000280927
-0.112208,-0.00689901
-0.129574,0.0548739
-0.0739791,0.0831611
-0.019169,0.0144544
0.0299956,-0.0677128
0.000405971,-0.0655286
-0.00642722,-0.00306282
0.0468232,0.0350056
0.0181986,-0.0367894
0.00800858,-0.0568521
0.0740738,-0.0335288
0.0770833,-0.00683974
0.0569863,0.0236368
0.0557495,-0.0350313
-0.0174192,-0.0247332
-0.0551,0.000737416
0.0203918,-0.0107845
0.0488561,-0.0234393
-0.0115143,-0.00160666
-0.115326,0.0155185
-0.223948,0.0106558
-0.264781,0.0159575
-0.236683,0.0159588
-0.126211,0.017691
-0.0254077,0.099453
0.0225592,0.036552
0.109781,-0.0562817
0.207379,-0.021842
0.219703,-0.0465675
0.167584,0.0142929
0.106874,0.0500465
0.0713448,0.0131741
0.0439094,0.02626
0.0258317,0.00840833
-0.00368062,0.00684277
-0.0455572,0.00132587
-0.0624331,-0.024138
-0.0527816,-0.0303847
-0.0368495,-0.0163891
-0.0217762,-0.00823024
-0.0398151,0.00966465
-0.0521977,-0.0222283
-0.0258078,-0.0211063
-0.0148119,0.0108383
-0.0720332,0.0337696
-0.16668,0.182718
-0.0912028,0.102307
0.105151,-0.106383
0.190404,-0.131334
0.180448,-0.0632758
0.10372,-0.0207015
0.0629805,0.0128194
2.17e-05,0.0226629
-0.0768311,0.00227459
-0.0654684,-0.0130114
-0.021773,-0.0329856
-0.00636697,-0.0143776
0.0869964,0.00816078
0.155889,0.00575567
0.108591,-0.0171437
0.0200377,-0.00410659
-0.0637064,-0.00693801
-0.101738,-0.0290386
-0.132434,0.059999
-0.123664,0.133448
-0.0795593,-0.0390063
-0.0285464,-0.0722775
-0.0349485,-0.022707
-0.0475034,0.0131585
-0.0347503,0.00808331
0.00473013,0.0032788
0.0657974,0.0208274
0.0834205,0.0285258
0.0819019,-0.0144474
0.062528,-0.0615524
0.0523927,-0.0521786
0.0302387,0.00272986
0.0025396,0.0507496
-0.0742735,-0.00619038
-0.165475,-0.0397365
-0.162333,-0.0131791
-0.142166,0.0667509
-0.0814497,0.0403967
0.0144556,-0.0196412
0.148874,-0.003708
0.201379,-0.0183858
0.166066,-0.00530893
0.111464,0.0689822
0.081773,0.0403337
0.0559719,0.0229028
0.0304466,0.0377971
0.00789254,-0.0639648
-0.048587,-0.0214532
-0.0958242,-0.00258708
-0.118942,-0.0459564
-0.118004,-0.0315247
-0.109321,0.0598156
-0.0548377,0.0787823
-0.0239118,-0.00251588
0.00180494,0.0218674
0.0669847,-0.00419499
0.0533225,-0.0550768
0.0152729,-0.101963
0.0449265,-0.0463047
0.154935,0.00566386
0.221915,0.00613596
0.146171,0.0170412
-0.0149593,0.0183839
-0.164794,0.00376838
-0.216625,-0.0185
-0.207664,-0.0278369
-0.161729,-0.010913
-0.0306869,0.00572788
0.113325,-0.0024353
0.155255,0.00933874
0.118005,0.0216269
0.0641598,0.033259
-0.0227125,0.0295794
-0.0754627,0.00449976
-0.132759,-0.00920283
-0.0950521,-0.00905007
-0.0531466,0.00630763
-0.0263194,0.0402054
0.0459818,0.0670335
0.0845497,0.0221138
0.0466418,-0.0623527
0.00398448,-0.0569458
-0.02322,-0.0324906
0.00356992,-0.022132
0.0623848,-0.000155546
0.119631,0.01105
0.110727,0.0377537
0.0625797,0.0218567
0.000760765,-0.0294938
-0.0477241,-0.0258033
-0.0897297,-0.0156096
-0.0787758,-0.0164498
-0.0424402,-0.011699
-0.0289063,0.00716734
0.00621375,0.0220503
0.0120093,0.0157248
-0.00290267,0.0119142
-0.00392456,0.0128135
0.00458419,0.00484132
0.00699492,-0.00262807
0.0135872,-0.0256041
0.0195764,0.0289429
-0.00924371,0.0804029
-0.0107451,0.0162731
-0.00655702,-0.0236088
-0.0183179,-0.00564271
-0.00485258,-0.0409499
0.00780585,-0.0397404
0.0389987,-0.00871107
0.0734658,0.0109761
0.0684162,0.0196679
0.0271273,0.0264888
0.00285714,0.00883781
-0.0332554,-0.0121876
-0.0591101,0.0151774
-0.0605941,0.0507706
-0.0560314,-0.0343943
-0.0387274,-0.0293163
-0.0261396,-0.0134833
-0.0691545,-0.0139885
-0.0838102,-0.00725851
-0.0336498,-0.00678448
0.0526239,-0.0224416
0.117933,-0.0247907
0.107545,-0.0170404
0.0619841,0.00823703
0.00947606,0.045089
-0.0167077,0.0306074
0.0427962,-0.0218545
0.0846445,0.0121116
0.0322033,0.051543
0.0194332,-0.0159871
0.000859526,-0.0302529
-0.036588,0.00248011
-0.111842,0.0198892
-0.15433,-0.0386718
-0.0996507,-0.0527773
-0.0609576,-0.0112082
-0.0120202,0.0194467
0.0410056,0.0475802
0.0753481,0.0668017
0.0884473,0.0577186
0.0677365,0.00575051
0.0112213,-0.102871
-0.0571637,-0.0774107
-0.0687081,-0.0272674
-0.050294,-0.0202458
-0.0053725,0.0187226
-0.00515594,0.0392863
0.038536,0.0297151
0.128141,-0.00149134
0.16554,-0.0103524
0.187759,-0.00172576
0.12404,-0.0120186
-0.00415153,-0.0250073
-0.118229,-0.0195501
-0.233449,-0.0214075
-0.224265,-0.0164746
-0.139263,0.0205541
-0.0897932,0.0234586
-0.0666366,0.0270054
0.0289657,0.038088
0.144078,0.0006561
0.172138,-0.0130218
0.125072,0.0168569
0.0485577,0.0745454
0.00279359,0.0886719
-0.0284561,0.0133101
-0.0359285,-0.0623991
-0.0633101,-0.0345051
-0.0646031,0.0464324
0.0102782,0.0147758
0.0549399,-0.0829492
0.0143707,-0.0557782
-0.0675337,0.0659898
-0.105155,0.069125
-0.0704536,-0.0136191
-0.0140243,-0.0538839
0.0598182,-0.0290566
0.100116,0.0160702
0.0793003,-0.0222176
0.0030605,-0.0570659
-0.00251243,-0.0241997
0.0521471,-0.0182634
0.0338467,-0.0428309
-0.0844012,-0.0434682
-0.158366,-0.0227174
-0.0616948,0.0642771
0.0931317,0.142506
0.192447,0.067305
0.163067,-0.06528
0.0445497,-0.0351036
-0.0107714,-0.0221841
-0.0382862,-0.0237961
-0.0177454,-0.0108174
0.0032826,0.0221123
0.00470106,0.0237293
-0.0467005,-0.0258763
-0.0941296,-0.0407087
-0.123123,-0.0259911
-0.160476,-0.00112364
-0.106234,0.0321509
-0.00403607,0.0555874
0.0163137,0.0268263
0.0348213,0.021103
0.0795337,0.0176423
0.0421749,0.000467662
-0.00349988,-0.0137923
0.0055162,-0.032617
-0.00618682,-0.0296596
-0.0215037,-0.0121428
-0.00323001,0.0100043
0.0349433,0.0120729
0.0589362,0.0267645
0.062458,0.0284142
0.0698985,-0.0232221
0.067493,0.00387836
0.0513056,0.0203816
0.0764525,0.00574089
0.028459,0.0311085
-0.0549929,0.0388403
-0.0907254,0.00543845
-0.114984,-0.0330478
-0.102571,0.0160494
-0.0272092,-0.0028686
0.076664,-0.0522316
0.116029,-0.078931
0.0577749,0.0233124
-0.0158152,0.148238
-0.0817516,0.0235217
-0.094484,-0.0643151
-0.0618481,-0.00660216
-0.0179867,-0.0742103
-0.00956311,-0.0646344
0.0115931,-0.0184937
0.0522626,-0.00373409
0.0642594,0.00865059
0.0441149,0.00112218
0.0303187,-0.00887992
-0.013185,-0.0239152
-0.144904,-0.00802244
-0.129276,0.0137202
-0.0472494,0.0375007
0.00126494,0.0475912
0.0516269,0.0265263
0.108607,0.0111892
0.110488,0.0474565
0.079402,0.00814922
0.0549452,-0.0643911
-0.00592753,-0.0367754
-0.034655,0.00075309
-0.0317038,0.00335926
-0.00562528,0.00507575
0.0243848,0.0114521
0.026364,-0.00166754
0.0268491,-0.0138064
-0.038206,0.00787718
-0.0949764,-0.0126608
-0.111474,-0.0432507
-0.0914529,-0.034245
-0.0734287,-0.00940776
0.0269398,0.0095061
0.114904,0.018453
0.143765,0.0109506
0.0890533,0.0199357
-0.0659675,0.0129179
-0.0775774,0.0119451
0.0231246,0.0331502
0.109765,0.0424917
0.10798,0.0455306
0.0108023,0.0635662
-0.0483498,0.0220304
-0.0640309,-0.120471
-0.0672497,-0.0356854
-0.0465741,-0.0418288
-0.0118116,-0.0112644
-0.000876007,-0.00241998
-0.026205,-0.0325607
-0.0540094,-0.00936635
-0.0597692,0.0226047
-0.0223752,-0.0035855
0.0565334,0.00673196
0.02145,0.0554666
-0.0649318,0.0317353
0.00019016,0.0241509
0.0985758,-0.0200057
0.0705901,0.0115108
-0.00237124,-0.0113463
-0.00772587,-0.0405123
0.0546148,0.00193132
0.112849,-0.0185871
0.0764732,-0.00186088
0.0493306,0.0295753
0.0181851,0.0129074
-0.121887,-0.0138287
-0.192367,-0.0370106
-0.151302,-0.0282351
-0.0748205,-0.0145227
0.0164001,-0.00783711
0.0574485,-0.0384923
0.0284657,-0.0375846
0.00982836,-0.00123888
0.0454292,0.0307519
0.0970016,0.0274984
0.108182,0.0122514
0.109758,0.0250006
0.0847693,0.0802659
0.0288413,0.0520492
-0.0474729,-0.0340619
-0.0928872,-0.0246801
-0.074365,0.00151154
-0.0473895,0.012864
-0.0255742,0.0280933
-0.0417041,0.00782155
-0.0797933,0.00112737
-0.0800954,0.0200366
-0.0324932,-0.0119323
-0.044024,-0.0199319
-0.0580978,-0.0167556
-0.00895128,-0.062356
0.0389635,-0.00191878
0.0795561,0.0559344
0.0743238,-0.0370585
0.030262,-0.0838334
0.00237075,0.0161298
0.0527304,0.0494602
0.115461,-0.0105872
0.104173,-0.021514
0.067325,0.0162332
0.0369581,0.0211077
-0.0104492,-0.00331998
-0.0677667,-0.013013
-0.122847,-0.000331285
-0.147443,-0.00298452
-0.0849141,0.00639154
-0.00389678,0.0219075
0.0811129,0.0380608
0.0871038,0.00547128
0.03134,-0.0579589
-0.0316249,0.00512085
-0.0838064,0.0193365
-0.0823644,-0.0148496
-0.038899,-0.00483871
-0.00996012,0.0212069
-0.00174291,0.00287921
0.0260263,-0.00714337
0.0546672,-0.00116217
0.0506149,0.0260686
0.0621421,0.0140533
0.0470167,-0.0321517
-0.0307315,0.00406688
-0.0684763,-0.00705354
-0.0241224,-0.0329323
-0.0252885,0.0216483
-0.0387071,-0.0176564
-0.0450222,-0.0341621
-0.0356366,-0.0033638
0.00471967,0.00242258
0.0237119,0.00882105
0.0123792,0.0317592
0.0443084,0.00224929
0.111634,-0.0329745
0.102806,0.00125201
0.0251567,0.00607294
-0.0170839,-0.00874841
-0.0402218,0.011894
-0.0375293,0.0222503
-0.0129449,0.0205883
0.0209074,0.0152363
0.0511528,0.00714975
0.0309848,-0.0134053
-0.0125346,-0.00221727
-0.0416321,0.0401506
-0.0645081,0.035264
-0.0761571,-0.0292256
0.0212733,-0.0488014
0.223813,0.0323117
0.28948,0.056461
0.169712,0.0164187
-0.00952747,-0.0548799
-0.180413,-0.0581731
-0.270735,-0.0318805
-0.232074,0.00783618
-0.122224,0.0399992
0.0185909,0.0227333
0.111763,0.00923045
0.0994989,-0.032592
0.00299054,-0.0248443
-0.0848536,-0.0165181
-0.130484,-0.028554
-0.132046,-0.0169923
-0.0839093,-0.0084458
0.00883982,-0.006658
0.104395,-0.00715411
0.15206,-0.000797822
0.111018,0.0177303
0.0327326,0.0269953
-0.019743,0.0206844
-0.0516602,0.0119849
-0.0232327,-0.0086795
-0.000769088,-0.00501929
-0.0237007,0.0195648
-0.0426354,0.019329
-8.08e-05,0.010091
0.0521981,0.00357816
0.0598323,-0.00358044
-0.00923584,-0.0116522
-0.0493445,-0.0106559
-0.0290785,-0.0149734
-0.00309134,-0.0100666
-0.00793863,0.00890034
-0.0122389,0.0199622
-0.0338402,0.0165793
-0.0152364,-0.011476
0.0423975,-0.00352261
0.0855331,0.0112597
0.0862612,0.00976079
0.0582134,0.00647955
0.0597746,0.0100441
0.0254875,0.000880213
-0.015892,-0.0133193
0.056932,-0.021276
0.118365,-0.0142293
0.0735873,-0.00590995
0.0011051,-0.00138895
-0.0858964,-0.00182956
-0.116971,-0.00693292
-0.0637327,0.00455725
-0.007257,0.012905
-0.00388376,0.00391996
-0.0551658,-0.0046638
-0.141127,-0.0187971
-0.153602,-0.0323616
-0.108436,-0.01402
-0.0226358,0.0782829
0.0575218,-0.00275783
0.0421978,-0.0807519
0.0434085,-0.0337142
0.108562,0.00262386
0.0973249,0.0196059
0.0501478,0.0320001
0.0179201,0.0370598
0.0220513,0.056955
0.0502428,0.0341755
0.0412534,0.00137228
0.0277922,0.0113598
0.0496886,0.0215918
0.0402204,0.000750007
-0.0554794,-0.0432234
-0.113957,-0.0302564
-0.103737,-0.00123542
-0.0573585,-0.0130205
-0.0275042,-0.000413813
-0.00878461,0.0144539
0.0268113,0.00315355
0.0389913,-0.0199836
-0.016725,-0.0169903
-0.0422331,-0.00227359
-0.0723417,-0.0283449
-0.0897586,-0.0143671
-0.0495912,0.0175683
-0.000336849,0.0105644
0.0318617,-0.0167963
0.0327334,0.00865167
0.0425286,-0.0269015
0.0620476,0.00791884
0.0615274,0.0474518
0.0732744,-0.00266565
0.0780782,-0.0164332
0.0328905,0.0155732
0.00706194,-0.00543361
-0.00575084,-0.0128359
-0.0423361,0.00842968
-0.0675887,0.0268792
-0.0472974,-0.0347871
0.0299561,-0.0778197
0.0446962,-0.0105696
0.00956141,0.0215881
-0.0234294,0.0442288
-0.0195275,0.0606531
0.0337524,0.018059
0.0960242,0.0274497
0.104343,0.00663771
0.0266463,-0.0300692
-0.0432921,-0.0271824
-0.041166,-0.0154574
-0.0721806,0.00397247
-0.109155,0.00139945
-0.0971369,-0.013817
-0.0527422,-0.0199198
-0.00940133,-0.0144192
-0.0262395,-0.00912243
-0.0222059,0.0193395
-0.00675292,0.0290255
-0.0284951,0.00733047
-0.0283157,-0.0103421
-0.0125252,0.0225443
0.0151084,0.0236407
0.0476506,-0.0450215
0.0572037,-0.0287789
0.065785,-0.00567954
0.0935829,0.00222228
0.0749001,0.00319504
0.032716,0.0235071
0.0170024,0.0260728
-0.0162047,-0.0289105
-0.0375755,-0.0279428
-0.027749,-0.00880022
-0.0746186,0.0804096
-0.0444424,0.0533577
0.01901,-0.0193629
0.0240486,-0.0183819
-0.0122657,-0.0166887
-0.0534465,-0.0402001
-0.0586978,-0.0478433
-0.0221103,0.00445377
0.0213709,0.0221349
0.0407674,0.00801492
0.0468615,0.0646618
0.0463626,0.042455
0.0402275,-0.0523959
0.0222722,-0.0316068
0.00325152,-0.00366733
-0.0191352,-0.00108558
-0.0590402,-0.00083276
-0.116473,0.00623173
-0.0896699,-0.0111982
-0.0168984,-0.0155283
0.0611087,0.0107603
0.158687,-0.000289742
0.172904,-0.003872
0.142565,-0.00682245
0.0864353,-0.0340358
0.0294491,-0.0410524
-0.0291676,0.0199586
-0.0639507,0.0838876
-0.0454802,0.0307988
-0.0367231,-0.0139277
-0.0792531,0.015009
-0.0742259,0.00546216
-0.0506642,-0.0250365
-0.0523578,-0.00776173
-0.0479253,0.0261158
-0.0229976,-0.0049902
-0.0303235,-0.0212573
-0.000581659,-0.0114917
-0.000521122,0.0228911
-0.0480876,0.0320677
-0.0730856,-0.00174637
-0.0216055,-0.0147047
0.0772144,-0.0274268
0.0883591,0.0405729
0.0821793,0.0172346
0.114262,-0.0425342
0.0761838,-0.0525773
0.03073,-0.0329055
0.0179172,0.0244649
-0.00919157,0.0413798
-0.0706412,0.00911717
-0.0664707,-0.0100557
-0.0377453,0.00108109
-0.0286637,0.006104
-0.0186927,-0.0122817
-0.0291512,-0.0188589
-0.0354091,-0.00278815
-0.0304745,0.0154449
-0.0176974,0.0179217
-0.0215567,-0.00129283
0.0103928,-0.0127109
0.0562892,-0.0163527
0.0559639,-0.0165118
0.0672947,0.0225854
0.048451,0.030539
-0.0244328,-0.00501836
-0.0738607,-0.0215487
-0.0754056,-0.0194622
-0.017767,-0.0032427
0.0321569,0.0121324
0.0359609,0.00865742
0.0395498,-0.00392186
0.0399741,-0.0127678
0.00169045,-0.0245997
-0.0281402,-0.0234805
-0.0377148,-0.00221851
-0.0286559,0.0255585
-0.00240151,0.0187722
0.0158149,0.00368127
0.0115297,-0.0131957
-0.0161289,0.0682183
-0.0625804,0.0738711
-0.0684788,-0.0525101
-0.00621891,-0.0869544
0.0452121,-0.0436051
0.059875,0.0263896
0.0355097,0.0959712
0.0183102,0.0623213
0.035982,0.00858879
0.0700724,0.000795033
0.11129,-0.0320726
0.0885104,-0.0567913
0.00274602,-0.0371209
-0.065128,0.00359504
-0.0893177,0.0144647
-0.0978725,0.0243504
-0.0900576,0.0293626
-0.0719866,0.000308376
-0.00211437,-0.0403208
0.0743109,-0.0303545
0.0663423,0.0183687
0.0485234,0.00821036
0.0326116,-0.0112106
-0.00782039,-0.0129268
-0.049085,-0.0214684
-0.0808489,-0.00448513
-0.0758345,0.0126134
-0.0499943,0.0153575
-0.00294511,9.88e-05
0.0177934,-0.0137422
0.0354785,-0.00210659
0.0613868,0.016962
0.0470101,0.0179004
0.0071606,0.0095671
-0.0316343,0.0061522
-0.0243776,-0.0113401
-0.00886198,-0.0252417
0.00472769,0.0185361
0.0549826,0.00795708
0.119529,-0.0280086
0.086433,0.000668529
0.031531,0.0340656
0.0043986,0.0480551
-0.0374959,-0.0132933
-0.0619149,-0.0265577
-0.0608295,0.00723033
-0.0656307,-0.0204236
-0.0368699,-0.0378761
-0.0124842,-0.0140899
-0.0275043,0.00226031
-0.0296485,-0.00866096
-0.0288945,-0.00515358
-0.0236001,-0.00030897
-0.0142126,-0.0295686
-0.00626038,0.00181145
0.00270386,0.0259118
-0.00106048,0.0233484
0.00941277,0.0292608
0.0349343,0.0185425
0.0379738,0.00256027
0.017838,-0.0148299
0.0132136,-0.0301153
0.0223327,-0.00874625
0.0287477,0.022859
0.0338594,0.0356072
0.0286907,0.0294701
0.0044549,0.0272231
-0.00558007,-0.011521
-0.0129756,-0.0207368
-0.0071864,-0.0237456
-0.0103953,-0.0269372
-0.0176852,-0.0066873
-0.0099267,0.00742931
0.0137141,3.45e-05
0.0103875,-0.00268362
-0.0101185,0.00366739
-0.0134645,0.00553795
-0.00198454,0.00525476
0.0253833,0.00101289
0.0476521,-0.0124313
0.0458847,-0.0164467
0.028443,-0.00371098
-0.0127782,0.00666264
-0.0510827,0.00969659
-0.039737,0.00230747
-0.0191589,-0.01778
-0.0254502,-0.0221017
-0.0383839,0.00863776
-0.0189937,0.0317929
-0.00216234,0.000730255
-0.00401,-0.00610165
-0.000671293,0.022438
0.0508965,0.00975816
0.038053,0.0137467
0.0332711,0.00451911
0.0524156,-0.0243051
0.0740097,-0.0228662
0.0550831,-0.0143418
0.00267419,-0.0128475
-0.0534922,-0.00818222
-0.0962532,-0.00388246
-0.123623,-0.0045395
-0.122826,-0.000996905
-0.0668225,0.0101348
-0.00432324,0.0222562
0.0333952,0.0168585
0.0442552,0.00386789
0.0575944,-0.00473776
0.0231017,-0.00447902
0.0254167,-0.0108258
0.0297767,-0.0120154
-0.00695331,0.00233924
-0.0204809,0.00278034
-0.019031,0.00795907
-0.024405,0.00304772
0.0136023,-0.00569487
0.0438802,0.00902136
0.0152904,0.00662516
-0.00214349,-0.0100879
-0.00109213,-0.0038651
0.0377059,0.00952169
0.0649314,0.0196873
0.0457756,0.014794
0.023657,0.00897438
0.0159709,0.00515892
0.00163094,0.00134354
-0.0381847,-0.00621744
-0.0681111,-0.0148612
-0.0865905,-0.0215221
-0.0781065,-0.0133314
-0.0397595,-0.0088757
-0.0129378,-0.00538231
-0.00713406,0.00478207
-0.00116796,0.000838546
0.0198023,-0.0104277
0.0390698,-0.00735973
0.0430997,-0.00495229
0.0424553,0.0132518
0.0396483,0.0249576
0.026093,0.00329027
-0.00390903,0.00420653
-0.0404701,0.0273707
-0.0102472,0.0150565
0.0467917,-0.00596483
0.069609,0.00722459
0.0564405,-0.00965651
0.0281725,-0.018062
-0.000894027,-0.00523588
-0.0816855,-0.00378489
-0.149506,0.000811901
-0.146133,0.00015078
-0.116714,-0.00663732
-0.0415991,-0.0198556
0.109326,-0.00307236
0.254625,0.0196368
0.245919,0.0162965
0.17494,0.00193669
0.0799792,-0.00470391
-0.0488493,-0.0110654
-0.179096,-0.00933738
-0.213582,-0.00568184
-0.191576,-0.00887854
-0.141636,-0.0089779
-0.069898,0.000868978
0.00059427,-0.00477753
0.0548561,-0.0159242
0.0461919,0.00489222
0.0022783,0.0258084
0.0217351,0.00385076
0.0548526,-0.0264162
0.0857615,0.0114803
0.0868592,0.0370724
0.0342318,0.000319067
0.0190571,-0.0203998
0.0406042,-0.00789484
-0.00286929,0.00601104
-0.0687949,0.00274569
-0.101644,-0.00978983
-0.0873219,-0.00500307
-0.0445498,0.000714724
0.0067628,0.00328675
0.0356421,0.00949975
0.0530074,0.000513636
0.0696803,0.000711869
0.0567079,0.00266296
0.0271146,0.005353
0.00117596,0.0114495
-0.00388818,0.00660136
-0.0172,-0.00855064
-0.0287679,0.015784
-0.00704321,0.0268897
0.0213968,0.0068044
0.0109251,-0.0128338
-0.0267583,-0.0126161
-0.0383586,-0.0147213
-0.0348225,-0.0141583
-0.0258555,-0.00753793
-0.0155631,-0.00115611
-0.000666378,0.00243385
0.00223005,0.00284714
0.0139433,-0.00160151
0.0343405,-0.00925668
0.0171961,0.0124058
0.00777019,0.00999196
0.0116896,-0.0120922
0.00531698,-0.00023575
0.00545682,0.000682522
0.00395468,-0.00595203
-0.00558705,-0.00862234
-0.0197199,-0.0157692
-0.020526,-0.0145041
-0.000884262,-0.00309613
0.0214317,0.00755998
0.0445736,0.0197373
0.026582,0.0275393
0.00467038,-0.000203255
0.0186078,0.000130697
-0.00165739,0.0218525
-0.0262587,0.0108105
-0.0332039,-0.0131879
-0.00411133,-0.0109362
0.013901,-0.00299913
0.00077987,-0.00196086
-0.00721237,-2.42e-05
0.00384382,0.00268146
0.0161383,0.00513691
0.048909,0.0274832
0.0799699,-0.000444851
0.0442884,-0.022213
0.00711151,-0.0187634
-0.0262887,-0.00342212
-0.0739261,-0.00248642
-0.0913562,-0.00946898
-0.0781571,0.00171148
-0.0533312,0.0174663
-0.0268623,-0.000809979
-0.0105505,-0.0126981
0.00686365,0.00307442
0.0154123,0.0118972
0.00993235,0.00491213
0.0080004,-0.00554637
-0.000670529,-0.0104385
-0.0126581,-0.00830701
-0.0148736,-0.000876859
-0.00280972,0.00166245
0.0104973,0.00265534
0.0353402,0.00307694
0.0550136,-0.00122553
0.0391793,0.00484722
0.0264868,-8.41e-05
0.0225429,-0.00333462
0.00335774,-0.00180474
-0.0180671,-0.0108333
-0.0154449,-0.0167611
0.000826121,-0.00387752
-0.00568253,0.0107276
-0.00789073,0.0187363
0.00193939,0.00766544
-0.0121243,0.0170983
-0.0341561,0.000286717
-0.0432978,-0.0247755
-0.0359208,-0.0269384
-0.00663073,-0.0226944
0.0433721,0.000461416
0.0596756,0.0181604
0.0490761,0.0046996
0.0356107,0.00602756
0.0218881,0.00542209
0.0210121,0.00169053
0.00266955,0.00174361
0.00893088,0.0107262
0.0238823,0.0162265
0.0050767,0.0083252
-0.0286422,0.00374133
-0.0437805,0.000233817
-0.0419793,-0.00257125
-0.0525251,-0.00708127
-0.0455709,-0.0101239
-0.0132099,0.00676638
0.0166441,0.0234358
0.0454394,-0.000992685
0.0376357,-0.0262895
-0.0039401,-0.021406
-0.0257462,-0.0171575
-0.0293543,-0.0201933
-0.0411531,0.0416629
-0.0436365,0.0775027
-0.00637228,-0.0234767
0.02203,-0.0352479
0.0164554,-0.00278096
0.0011532,-0.0101038
-0.0122466,-0.0139451
-0.0245134,1.34e-06
-0.0273707,0.00298987
-0.0160696,0.00211806
-0.00255771,0.000680038
0.0317915,0.00444421
0.076472,0.0112577
0.103738,0.00906404
0.090224,0.00636134
0.0542018,0.00419882
0.00591121,-0.00200402
-0.0339778,-0.0021453
-0.0514549,-0.00318296
-0.0520889,-0.00348549
-0.0663958,0.00947023
-0.043346,0.0116728
-0.00242037,-0.00713712
0.0136127,0.0034643
0.0123888,0.00700491
0.00444081,-0.0224944
-0.0190222,-0.0278068
-0.0293186,-0.0192484
-0.00963031,-0.00514293
-0.000662419,0.010831
-0.00716775,0.0120043
0.003138,0.00749117
0.012119,-0.00121258
0.0117518,-0.0107964
0.0155153,-0.011178
0.0286558,0.000253879
0.0395451,0.0131014
0.027762,0.0110723
0.0225256,0.00572482
0.010615,0.00318601
-0.0113503,0.00139078
-0.0106731,-0.00194506
0.014901,0.000578519
0.0132068,0.00137945
-0.0030476,0.00383013
-0.0146034,0.00853413
-0.0320501,0.00832342
-0.0230241,0.00753432
0.0182228,0.00575706
0.0461196,-0.000839543
0.0221557,-0.00907633
-0.0186802,-0.0107952
-0.0224122,-0.00300268
-0.0276851,0.00241492
-0.0414536,-0.00399499
-0.0390783,-0.00683431
-0.0406767,-0.00814349
-0.0431707,-0.00487341
-0.0322114,0.0012014
-0.0172681,-0.000458098
0.00129222,-0.00246643
0.0225482,0.00547577
0.0323507,0.0112252
0.0323122,0.0113664
0.0340608,0.00919852
0.0322697,0.00491997
0.0188956,-0.00288257
0.0105247,-0.00860566
0.0216507,-0.00551952
0.0317166,0.00451219
0.0183589,0.00666221
-0.00737438,-0.000141229
-0.0270924,-0.00320794
-0.0413345,-0.00588977
-0.0478869,-0.0083493
-0.0273763,-0.00389053
-0.0055302,-0.00487849
0.00777054,-0.00698261
0.0236993,0.00547364
0.0363299,0.0081213
0.0325982,5.23e-05
0.0308775,-0.000443549
0.0272348,-0.00663909
0.00921405,-0.01657
-0.00305175,-0.0157634
0.00753498,0.000200795
0.00913932,0.0127853
-0.00696384,0.00934142
-0.0105707,0.00239978
-0.0206523,-0.00319054
-0.0419651,-0.00465872
-0.0501765,-0.00593235
-0.0413272,-0.00703477
-0.0203513,-0.0095452
0.0150475,-0.00311961
0.0387624,0.00326675
0.0241185,0.007806
-0.016468,0.0148022
-0.0354909,0.0193296
-0.0142964,-0.00887205
0.00887199,-0.0384105
0.0192931,-0.0197172
0.0329017,0.00263987
0.037792,0.0109252
0.0455736,0.00559598
0.0577667,0.0129907
0.0351413,0.0289165
-0.00203695,0.00497377
-0.0205191,-0.00391301
-0.0507777,0.0041567
-0.0676617,0.00502398
-0.0470727,0.0100273
-0.021917,0.0133701
-0.0137324,0.00586066
-0.00206979,-0.00663745
0.0129698,-0.00662029
-0.00133972,0.0063022
-0.00786911,0.000102247
0.0090474,-0.0109809
-0.000387177,0.00396588
-0.0211442,0.0260591
-0.0282838,0.0241835
-0.0196978,-0.0121716
-0.00915119,-0.0151633
0.0141249,-0.0125279
0.0333863,-0.0125058
0.0380758,-0.00744792
0.0345688,-0.005492
0.0370081,0.00105439
0.0390983,0.00267595
0.0428204,-1.72e-05
0.0513064,0.00225059
0.0311309,-0.00323327
-0.0107177,-0.00931245
-0.0559948,-0.0128617
-0.0771242,-0.000613527
-0.0694665,0.00510283
-0.0507637,0.0107389
-0.0257122,0.00901874
-0.014728,-0.0143534
-0.0102628,-0.0134471
-0.00431612,-0.0083114
-0.00117351,-0.00845
-0.000574517,-0.0130039
0.0115355,-0.00201967
0.024871,0.00918111
0.021709,0.00843862
0.00761749,0.0040263
0.00732069,0.00645439
0.00905462,0.0041326
0.0252831,-0.00163092
0.0369501,0.00333492
0.0635237,0.0122925
0.0783207,0.013058
0.0594327,0.00778207
0.0320897,0.00871712
-0.00833945,0.00589415
-0.0621134,0.00349533
-0.0936661,-0.000904099
-0.0850781,-0.00692663
-0.0680517,-0.00943235
-0.0414733,-0.00226163
-0.0194779,0.00207361
-0.0135858,-0.000477779
-0.00870864,-0.00179103
0.000223648,-0.00309258
0.011953,-0.00554463
0.0293034,-0.00804696
0.0496512,-0.0140612
0.0642572,-0.0146263
0.0509482,0.000226606
0.0181813,-0.00169562
-0.00838367,-0.00673412
-0.0384226,-0.00872585
-0.0493709,-0.0106256
-0.0426822,-0.00203249
-0.0283892,0.0019295
-0.0131118,-0.0106889
0.013649,0.00270077
0.0595714,0.0250927
0.124945,0.0217892
0.145454,0.011536
0.0914806,0.0111482
0.0126488,0.00945253
-0.0753813,0.00370465
-0.117051,0.0099835
-0.0992449,0.0155738
-0.0721214,0.0060737
-0.0430353,-0.00238772
-0.0291161,0.000714943
-0.0340708,0.00180466
-0.0307674,-0.00203896
-0.0151619,0.0155608
0.00380678,0.00701079
0.0170091,-0.0156724
0.0355605,-0.00454712
0.05013,0.0034396
0.0503175,-0.00320625
0.0578699,-0.0107268
0.0560696,-0.0179812
0.0320186,-0.0236867
-0.0046329,-0.0253663
-0.0389833,-0.0152526
-0.0573844,-0.00360031
-0.0550304,-0.000201887
-0.0276606,0.00112365
-0.00372062,0.00350007
0.00361055,0.00862202
0.00346511,0.00542799
0.00407057,0.00277924
0.00245572,0.00231623
0.0101355,0.00997997
0.0217145,0.0143978
0.0181242,0.00462918
0.00606434,-0.00439074
-0.000251922,-0.00592157
-0.0231106,-0.009383
-0.0522799,-0.0110821
-0.055876,-0.000244417
0.0186433,0.00737088
0.0892554,0.00508856
0.11332,0.00379824
0.0992466,-0.000273995
0.0503776,-0.00794775
0.01355,-0.00199806
-0.00598556,0.020183
-0.0189415,0.00943231
-0.0315973,0.000488983
-0.0500882,0.00247157
-0.103047,0.00127627
-0.136051,-0.00458658
-0.124407,-0.00721648
-0.0840489,-0.00291193
-0.0213222,-0.00651062
0.0336284,-0.0117163
0.0727373,-0.0106205
0.0815455,-0.000169442
0.0585824,0.00365025
0.0339936,0.00296019
0.016978,0.00955525
0.0111082,0.00809145
0.0107822,-0.00517196
0.0106706,-0.00560317
-0.00514722,-0.00653022
-0.0282043,-0.00299272
-0.0275566,0.0121818
-0.0170993,0.0173649
-0.0145494,-0.00108447
-0.00395963,-0.00404557
0.00423076,0.0010522
0.00435679,-0.00304672
0.00346729,-0.00635802
0.0037085,0.0134705
0.00573023,0.0219641
-0.000679052,0.011588
0.000223695,0.0125065
0.0521395,0.00593174
0.106858,-0.00579687
0.100286,-0.00446415
0.0603331,0.00191266
-0.0130843,0.000424489
-0.0793171,-0.00464163
-0.102491,-0.00678292
-0.088514,-0.010991
-0.0513501,-0.0131874
0.00705586,-0.011278
0.0525558,-0.00929785
0.0547373,-0.013273
0.0455569,-0.00887092
0.0351709,0.00326019
0.0134371,0.00473792
-0.02065,-0.00044637
-0.0220705,-0.00138957
-0.0189525,-0.00952156
-0.0454597,-0.0130966
-0.0619048,-0.00882482
-0.0526985,-0.00534584
-0.0371178,0.00605608
0.0210278,0.0268229
0.0574684,0.0327523
0.042557,0.0104901
0.0155463,-0.0041469
-0.0154531,-0.00837156
-0.048995,-0.0151487
-0.0650199,-0.0191978
-0.0544121,-0.0130387
-0.0295329,0.00331185
-0.00939546,0.0195885
0.0308271,0.0245444
0.0647723,0.0138724
0.0599859,0.00144493
0.0277432,-0.00300897
-0.0098921,-0.00139804
-0.0233509,-0.00272766
-0.00706539,0.00103094
0.025432,0.0134187
0.0500285,0.0198435
0.0510827,-0.0201695
0.0275922,-0.0316356
0.0141176,-0.0197399
0.0133231,-0.0160004
0.00216517,-0.0117283
0.00431291,0.00526321
0.00798224,0.022236
-0.00860676,0.0207969
-0.0190074,0.0181211
-0.00302482,0.00988256
0.00785516,0.00108721
0.00736894,-0.00350432
-0.00279525,-0.0037889
-0.0199185,-0.00607128
-0.0198456,-0.00363543
-0.0183237,0.000544249
-0.030904,-0.00280782
-0.0468495,-0.00814329
-0.0506115,-0.00993012
-0.0506578,-0.0134779
-0.0424063,-0.0152047
-0.0168107,-0.00506253
0.0192723,0.00991851
0.0424021,0.0155067
0.0405814,0.0129828
0.0253729,0.0110938
0.0112277,0.00767752
0.0047519,0.0046748
-0.00319547,0.00222992
0.00166538,-0.00275918
0.0118657,-0.00305156
0.0276362,0.00368525
0.0243662,0.00338948
0.0120037,-0.010893
0.0381035,-0.0163449
0.0703392,-0.0151484
0.0611245,-0.0133244
0.011531,-0.013037
-0.041079,-0.00793988
-0.0788344,0.00291815
-0.0961843,0.00427041
-0.0742803,0.00648231
-0.0304784,0.0113626
0.00426351,0.0112325
0.0194246,0.0113575
0.0225505,0.00945519
0.0180594,0.020221
0.0173515,0.0261672
0.022743,0.00396093
0.0112327,-0.00698858
-0.0121178,-0.0130454
-0.0218916,-0.0114837
-0.0283988,-0.0114792
-0.0385161,-0.0114554
-0.0426413,0.00120583
0.00135511,0.0155973
0.0642674,0.0233148
0.107433,0.0149304
0.133413,0.0176749
0.0952021,0.0110043
0.0204064,-0.00507419
-0.0411477,-0.0129636
-0.0754749,-0.010518
-0.086903,-0.0213639
-0.0517537,-0.0161855
0.00640192,0.00116591
0.0151434,-0.00421378
