Comp Ch 3,Comp Ch 4
-0.00645676,-0.0279614
-0.0124572,-0.0138265
-0.0283666,0.00435125
-0.0392405,-0.00505999
-0.000494039,-0.00851682
0.0728281,0.0106188
0.128015,0.0276394
0.165713,0.0260895
0.176786,0.0223086
0.132005,0.0127987
0.0231381,-0.00132841
-0.0612331,-0.010857
-0.0649421,-0.008908
-0.0680291,-0.00256309
-0.0341922,0.01177
-0.0550501,0.0139479
-0.0970373,0.00367212
-0.0728924,0.00792136
-0.0396832,0.00274839
-0.0160194,-0.0142518
0.0171647,-0.0342636
0.0862475,-0.0241845
0.115501,-0.00522046
0.0562478,-0.00387404
-0.011225,0.00325595
-0.0715608,0.00503761
-0.115495,-0.00198991
-0.093721,-0.00163865
0.0104454,0.00294853
0.148,0.00288693
0.210984,0.012078
0.179076,0.0228777
0.0538823,0.0308871
-0.0807948,0.0243032
-0.0987098,-0.00593194
-0.0635241,-0.0171046
-0.0671632,-0.0131014
-0.0710156,-0.0112595
-0.022123,0.00276646
0.0556008,0.0142657
0.0688395,0.0153544
0.011038,0.0217068
-0.036784,0.00673643
-0.0868666,0.00247503
-0.131081,-0.0121828
-0.112767,-0.0289995
-0.0707596,-0.0304625
-0.0238035,-0.00973306
0.0236343,0.00472809
0.0318898,-0.0052647
0.0172011,-0.0166749
0.00253523,-0.00569256
-0.00886003,0.0282876
0.00603019,0.0113001
0.0432437,-0.0211884
0.103055,-0.00033579
0.183347,0.0149843
0.216024,0.0054461
0.213811,-0.00173894
0.124376,-0.00353956
-0.0437122,-0.0110439
-0.184798,-0.0116848
-0.242982,-0.00461079
-0.214613,-0.00357246
-0.098303,0.00700905
0.00179991,0.0281713
0.0583589,0.0145542
0.085185,-0.0126719
0.0840888,-0.0209289
0.0362061,-0.0245733
-0.0470027,-0.0225872
-0.0818206,0.000367052
-0.073933,0.0245028
-0.0431125,0.0184785
-0.00335095,-0.00806195
0.0309424,-0.027481
0.0648385,-0.0124996
0.0542301,0.0105605
0.00737096,0.0178234
-0.00577135,0.0130062
-0.0170159,0.00736119
-0.0492801,0.0203404
-0.0392452,0.0165456
-0.0204202,-0.00636691
-0.0240795,-0.00296416
-0.0261511,-0.00316715
0.0156356,-0.0131003
0.0677612,-0.0103509
0.103546,0.0112508
0.100801,0.0141531
0.0554852,0.00907072
-0.0291952,0.025066
-0.0989423,0.00560208
-0.104628,-0.0299328
-0.0750781,-0.0337789
-0.0183538,-0.0218624
0.0153934,-0.015515
0.0542196,0.0039231
0.103343,0.0168404
0.101816,0.00690325
0.0741158,-0.00353874
0.0330253,0.0112519
-0.0552834,0.0134588
-0.122838,-0.0182312
-0.148183,-0.0183337
-0.113723,0.00353077
-0.0749955,0.00474063
-0.0534554,-0.00156933
-0.0206638,0.00193114
0.0289667,0.0225614
0.0777242,0.0237915
0.0941258,-0.0133028
0.0726237,-0.0180221
0.0501402,-0.006055
0.0836541,-0.00117656
0.146977,0.0116423
0.16947,0.0109808
0.123328,0.00376642
0.0484385,0.00451583
-0.0559334,0.00160313
-0.141195,-0.00837599
-0.145868,-0.00467375
-0.0794471,0.0122793
-0.0134512,0.0131682
-0.00257415,0.00418808
-0.0354481,-0.00369537
-0.0909053,-0.011463
-0.119668,-0.00883853
-0.0730854,-0.00536225
0.0434834,-0.00668307
0.122643,0.00187299
0.113158,0.0171967
0.0207327,0.0117191
-0.0920359,-0.00914655
-0.122068,-0.0127369
-0.0985295,-0.0158661
-0.0710782,-0.0223521
-0.0282932,-0.0144188
0.0163184,0.00730921
0.0454049,0.0287324
0.0486149,0.0333158
0.047783,0.00748805
0.0305058,-0.00906945
0.0111744,-0.00735803
0.0487493,-0.0125763
0.115868,-0.0135544
0.107204,-0.00550042
0.0521482,0.00716283
0.00225192,0.0116502
-0.0433247,0.0092616
-0.0687367,0.00462906
-0.0493203,0.0030287
0.00993367,-0.00285324
0.0648188,-0.00420842
0.10045,0.00215209
0.0683984,0.0113582
-0.0202399,0.00774909
-0.126218,-0.00404689
-0.182052,0.00904588
-0.139526,0.00248139
-0.068311,-0.0214109
-0.0129133,-0.00452002
0.0288025,-0.00936562
0.0430879,-0.0133273
0.0651728,0.0105596
0.0807691,0.00938942
0.0646447,-0.00704732
0.0658589,-0.0220217
0.0746838,-0.0199952
0.0378267,0.00946529
-0.0168627,0.00536713
-0.0529372,-0.00575278
-0.0849059,0.00723217
-0.0824304,0.00559472
-0.0605604,-0.00509675
-0.0176136,-0.00599952
0.0165812,-0.00255136
0.0302838,0.00310082
0.0160117,0.0166593
0.00495675,0.00482333
0.0291368,-0.00819326
0.0936948,0.00709953
0.125194,0.0149343
0.076506,0.00983205
-0.00877666,0.0079177
-0.096151,0.00769312
-0.14851,-0.00576676
-0.121663,-0.0195302
-0.0659374,-0.0167238
-0.0143648,-0.0083013
0.00308961,-0.00388623
0.0151866,-0.00129061
0.0528089,-0.00299704
0.0951,0.0076983
0.0909872,-0.0116188
0.0423746,-0.0200212
-0.0376949,-0.00914438
-0.0532535,0.0104767
-0.00591586,0.0321135
0.00836968,0.0252064
0.00946217,0.0101201
0.039663,0.00227283
0.0416627,-0.0019418
0.00657829,-0.0107631
-0.0136477,-0.0175226
-0.023871,-0.00971427
-0.0433461,0.00853905
-0.065995,0.0155088
-0.0633541,0.00443455
-0.0432266,-0.00498086
-0.0378523,-0.000759572
-0.0200751,-0.0114513
0.0155788,-0.0280258
0.0556123,-0.0164479
0.0953976,0.0211115
0.0826666,0.0216287
0.0189737,0.00778509
-0.0370847,0.0113824
-0.0607021,0.0249712
-0.0603023,0.0238021
-0.0609705,0.0072508
-0.0369839,-0.00555074
0.0337365,-0.00479063
0.0925566,-0.00626309
0.115293,-0.00796541
0.096221,-0.0121039
0.0268018,-0.0281277
-0.017181,-0.0403062
-0.0154219,-0.0144525
-0.0270292,0.0179007
-0.0604828,0.00762865
-0.041679,-0.00795415
-0.0277228,0.00514838
-0.0505267,0.0323408
-0.0106085,0.0145955
0.0628642,-0.00686604
0.0581953,0.0251522
0.0174223,0.0111283
-0.0256824,-0.00530807
-0.0430013,-0.00447847
-0.0525886,0.00247293
-0.04082,0.00422635
-0.0187382,-0.0178105
-0.0137715,-0.0214015
-0.00858036,-0.0165599
-0.00195332,-0.0125638
-0.0100192,-0.00143949
0.00515627,0.0115323
0.0327417,0.0132307
0.0363019,0.000893661
0.0321118,-0.0130937
0.0377161,-0.00904814
0.0240456,0.0130084
-0.0160263,0.0244951
-0.0431734,0.0131304
-0.030554,0.0025666
-0.00526576,-0.00708449
0.0224087,-0.00823465
0.0444083,-0.00827486
0.0384225,-0.0116685
0.0357041,-0.0153346
0.0443843,-0.0147389
0.0372262,-0.012553
0.0100673,-0.0102771
-0.00423882,0.00561429
-0.0107939,0.0213162
-0.0166516,0.0185949
-0.018091,0.0121153
-0.0176735,0.00821585
-0.0401451,0.00124095
-0.0534064,-0.00474541
-0.0247489,-0.00801887
0.0329688,-0.00256306
0.0552344,-0.000495014
0.0107191,-0.0107672
-0.0234097,-0.0189379
-0.0380848,-0.0173826
-0.0578394,0.00335665
-0.0370341,0.0158549
-0.00948815,0.0119946
0.00765323,0.00879432
0.0224564,0.00687932
0.0134404,0.00406087
-0.0240301,-0.00475699
-0.0368234,0.0122326
-0.0260757,0.0275102
-0.0088002,0.00297569
0.0186965,-0.0191997
0.058675,-0.0061995
0.0772913,0.00278405
0.043109,-0.00574001
-0.0076728,-0.0105219
-0.0313651,0.0069103
-0.0424416,0.0165197
-0.042498,-6.85e-05
-0.0284098,-0.0137199
-0.0247564,-0.0104961
-0.00484781,0.000614289
0.0287999,0.0170213
0.0320037,0.0256276
0.0135868,0.00629537
-0.00236834,-0.00654904
-0.0155162,-0.00716933
-0.025059,-0.0146456
-0.020082,-0.0158394
0.00553652,0.0126783
0.0228456,0.0385845
0.0239423,0.00661325
0.0512202,-0.0200098
0.122732,-0.0150412
0.175686,-0.0163913
0.127556,-0.022482
0.0163533,-0.016699
-0.0743404,-0.00932526
-0.106707,0.00488513
-0.0947557,0.0149177
-0.0916018,0.00599945
-0.0810882,-0.00320062
-0.0749111,-0.00389344
-0.0582971,-0.00714984
-0.0051426,-0.00478906
0.0710751,0.00512898
0.118872,0.00330265
0.0726833,-0.00149934
-0.0353099,0.0100083
-0.104466,0.0165201
-0.119498,0.00535829
-0.0796515,-0.00228608
0.0235011,-0.00253644
0.0992227,-0.00472429
0.116429,0.000339204
0.108863,0.0128962
0.0485858,0.0132901
-0.0393886,0.00384475
-0.0654575,-0.00189662
-0.0374215,-0.00528257
-0.030679,0.00103004
-0.0301286,-0.000244047
0.00100185,-0.0141816
0.0430525,-0.0066227
0.0207542,-0.00596201
-0.0238968,-0.0165313
-0.0520686,-0.0123381
-0.0648282,0.0338479
-0.0488274,0.0371904
-0.0202826,-0.00921371
-0.00424124,-0.029868
0.0210743,-0.0188392
0.0533978,-0.00589359
0.0465312,0.00140014
0.0111408,0.00430119
0.000479153,0.0120529
0.00016422,0.00527571
-0.00695814,-0.00540373
-0.00993628,-0.00529455
0.0120126,-0.000474659
0.0337633,0.00949717
0.0279244,0.00199071
0.0238596,-0.00881966
0.0163183,-0.0106016
-0.0011985,0.0172389
-0.0120202,0.0208131
-0.00752786,-0.00620427
-0.00479767,-0.0136447
0.0129605,0.00975303
0.0319145,0.0270025
0.0161326,0.00996872
-0.00532345,0.00154495
-0.00218433,0.00401309
0.00749813,-0.00876254
0.000925209,-0.0213287
-0.00490099,-0.0161938
-0.012553,0.0130031
-0.032529,0.0239076
-0.0404655,-0.00362515
-0.0146706,-0.0112582
-0.00267722,-0.0139841
-0.0158407,-0.0180459
-0.0243224,-0.00532929
-0.0196368,0.00482099
-0.00770679,-0.0154996
0.0161513,-0.0105801
0.0256916,0.0133813
0.0106518,-0.0050065
0.00318074,-0.0194815
0.011926,0.00256504
0.0246786,0.00532279
0.0423553,0.000595452
0.0577872,0.00326679
0.0472588,0.00760146
0.00254874,0.0042558
0.000850681,0.00799501
0.0319521,0.0179502
0.0314091,0.00265457
-0.0201577,-0.0138787
-0.0687482,-0.0146378
-0.0744137,-0.00722824
-0.0611805,0.0311516
-0.0443478,0.0462519
-0.0430979,0.0140602
-0.0488054,-0.018343
-0.0280248,-0.0163261
0.00190827,-0.0149657
0.00914734,-0.0028576
0.0153203,0.00997541
0.0544478,0.00501108
0.0847556,0.00744597
0.0755168,0.00127954
0.0778965,-0.0114171
0.0563458,-0.0207785
0.00274375,-3.03e-05
-0.0441266,0.0181353
-0.081881,0.00212324
-0.107702,-0.00617842
-0.0624481,0.00509838
-0.00918029,0.00815839
-0.000342512,-0.00294811
-0.0111282,-0.00408942
-0.0141083,0.00695989
-0.0245369,-0.00183395
-0.0424236,-0.018637
-0.0339607,-0.0100351
0.00366326,0.00793876
0.0353522,0.016741
0.0433502,-0.00919403
0.0496213,-0.0198824
0.0612992,-0.00639256
0.069725,0.00479551
0.0711304,0.00203161
0.0598037,0.00849702
0.0242959,0.014997
0.00949924,0.00144501
0.00368712,-0.0036798
-0.00851355,-0.0061769
-0.0161612,-0.00380256
-0.0265745,0.0014924
-0.0661682,0.00619038
-0.0968546,-0.0108441
-0.0705119,-0.0132764
-0.0144649,0.00482124
0.00557744,0.0136195
0.0012645,0.00902794
-0.00336122,0.000860896
-0.0120764,4.3e-05
-0.0120104,-0.000387585
0.0087576,-0.016421
0.0136979,-0.0243164
0.0243433,-0.0104849
0.0460783,0.00409279
0.0332612,0.00526059
0.00312815,-0.00422213
-0.00279663,0.0116177
0.00736507,0.00699507
0.00736097,-0.0125484
-0.00662053,-0.0185264
-0.000494663,-0.00182389
0.00544601,0.0165357
-0.0164609,0.0145276
-0.0325608,0.0108211
-0.0334698,0.00459043
-0.0179735,-0.00527845
0.0338348,-0.00492597
0.110651,0.00404584
0.136624,0.00659838
0.11518,0.0102123
0.0367207,0.00713026
-0.0379524,0.000597583
-0.0792386,-0.00474294
-0.0751517,0.00255588
-0.0508563,0.0116008
-0.0353995,-0.0178288
-0.0407302,-0.0281558
-0.0373216,0.00152788
-0.0304691,0.0297771
-0.0153445,0.0325406
0.0109496,0.00452481
0.0141326,0.00303554
0.00282862,0.00266939
-0.0233544,-0.0101374
-0.0474783,-0.0206324
-0.0578028,-0.0227691
-0.0178837,-0.0150556
0.00974871,-0.00403152
0.000438279,0.00652216
-0.0009896,-0.00564343
0.00056933,-0.010404
-0.00910468,-0.0109466
-0.0184468,-0.0057252
0.000721038,0.0016769
0.0348383,0.01259
0.0366972,0.0367735
0.0245321,0.0261299
0.0241245,-0.0242102
0.013445,-0.0344433
0.000915617,-0.0240757
0.00890984,0.00960917
0.0157969,0.00348467
0.0295188,0.00509315
0.0542062,0.0463722
0.0559595,0.0287186
0.0328956,-0.0103261
0.0226385,-0.00843342
0.00149602,7.28e-06
-0.0377297,-0.00516901
-0.0674839,-0.012538
-0.0524706,-0.00420479
-0.018044,0.00668177
-0.00800875,0.00475386
-0.00345919,0.00645318
-0.0077396,0.00217402
-0.0191066,-0.00606468
-0.0291115,-0.0156072
-0.0193051,-0.0156416
-0.0100545,-0.0136741
0.0161821,0.00381324
0.0423373,0.0185875
0.0298269,0.00824848
0.00693351,-0.00511049
-0.00100944,-0.00867928
-0.0109959,-0.0099105
-0.0254293,-0.0164603
-0.0212888,-0.0166892
0.0158332,-0.00632702
0.044405,0.00577138
0.0400877,0.00958681
0.0347143,0.00314109
0.019587,-0.00810069
-0.0176227,-0.00408
-0.0515422,0.00970088
-0.0492644,0.0169934
-0.0275343,0.0133896
0.0164998,0.0156427
0.0518665,0.0152767
0.0426001,0.00090124
0.0182145,0.00845156
0.00435366,0.0367789
-0.0198382,0.0221198
-0.0527079,-0.000500844
-0.0597628,-0.00490753
-0.0241873,-0.0263794
-0.011119,-0.0164508
-0.00280437,-0.00602134
0.0355509,-0.00891107
0.0716182,-0.0125645
0.0820071,-0.0139363
0.0792449,-0.00116134
0.0410885,0.000880512
-0.00190878,-0.00824481
-0.00619599,0.00544077
-0.0239629,0.00518844
-0.0598651,-0.0111659
-0.0664847,-0.0179469
-0.0506858,-0.0174022
-0.0480167,-0.024332
-0.0400152,-0.0229668
-0.00673552,0.0232976
0.0553315,0.0528648
0.095688,0.0235249
0.0919322,0.00831577
0.0545067,-7.99e-05
-0.00753003,-0.010452
-0.0787558,-0.00703437
-0.0787331,0.0023907
-0.0813866,0.00925429
-0.0733958,0.0262291
-0.0439643,0.0153814
-0.0189654,-0.00697224
-0.00633789,-0.0114261
0.0033722,0.00535568
-0.00387327,-0.00279127
-0.0147475,-0.0338872
-0.00824586,-0.0236907
0.0248949,0.00702392
0.042089,0.0176824
0.0253955,0.016345
0.0144922,0.0102149
0.00819143,-0.00360836
-0.00179567,-0.00723003
-0.00281153,-0.00141594
0.00693354,0.0014151
0.0124251,0.00431618
0.0435003,0.0154656
0.0644527,0.0156819
0.049351,0.00314849
0.0257199,-0.00753354
0.00885531,-0.0164976
-0.0149355,-0.0202595
-0.0326072,-0.0267604
-0.0219776,-0.0202697
0.00589811,-0.0062736
0.0089586,0.00194472
-0.00331967,0.0146921
-0.00989956,0.0180389
-0.0218337,0.00776991
-0.0282444,0.00786878
-0.0148753,0.0155709
-0.00976396,0.011397
-0.00240264,-0.0133362
0.0224199,0.00172723
0.027207,0.0339207
0.0153667,-0.000919679
0.0104894,-0.0391576
0.00214196,-0.0170368
-0.0195335,0.00121291
-0.0336423,-0.00487152
-0.0172022,-0.00882228
0.00387119,-0.00519598
-3.28e-05,0.00390911
-0.00454097,0.0147259
-0.0125883,-0.00594486
-0.0260166,-0.0194849
-0.0300619,-0.0227725
-0.0152593,-0.0317256
0.00577989,-0.028419
0.0379412,-0.000912645
0.0707705,0.0148396
0.0646951,0.0243715
0.0321869,0.060091
0.0135542,0.0335825
-0.00905109,-0.0105204
-0.0361936,-0.0155085
-0.0491545,-0.0157269
-0.0318262,-0.00950014
-0.0106476,0.0121383
-0.0132726,0.0215651
-0.0128837,-0.0130195
-0.0200472,-0.00784918
-0.036252,0.00142166
-0.0391594,0.0219109
-0.022167,0.0197359
-0.00611947,0.004461
0.0233308,0.0240962
0.0508108,0.0200107
0.0597214,-0.0195609
0.0760493,-0.0226574
0.10049,-0.00696479
0.0929125,-0.0137131
0.0431146,-0.0250495
-0.0182794,-0.0137756
-0.063591,0.00651326
-0.0969828,0.0131776
-0.0903827,-0.00265079
-0.0427987,-0.0135891
-0.00536628,-0.00329696
0.0261466,0.0148052
0.04937,0.0164588
0.0321501,0.00314407
0.0101835,-0.00146828
0.0137688,0.00663845
0.00255564,-0.00252943
-0.0430256,-0.0145167
-0.067842,-0.00819196
-0.0622754,-0.00558622
-0.0484576,0.0213223
-0.033167,0.0178532
-0.00146137,-0.0216146
0.0247658,-0.0159207
0.0174925,-0.00192103
0.013777,-0.000611888
-0.00183631,-3.85e-05
-0.0204978,-0.00676387
-0.0269723,0.0150316
-0.00886941,0.012499
0.00663636,-0.0237993
0.0262259,0.00106417
0.0513441,0.023835
0.0479803,0.00833165
0.0286957,-0.0050992
0.0153593,-0.00103889
0.00386515,0.00560864
-0.0191349,0.0430537
-0.0194236,0.0253884
0.0166014,-0.0405936
0.0294342,-0.0226119
0.0116006,0.0117271
0.00455994,0.0264628
0.00394312,0.00841874
-0.0107701,-0.0308747
-0.0191138,-0.0376404
-0.0233944,-0.01522
-0.0195704,-0.00381335
0.0186787,-0.0136205
0.0403151,-0.0306912
0.0216572,-0.00784341
0.00472733,0.00934483
0.00314388,-0.00230764
-0.00527064,-0.00135144
-0.0204541,0.012117
-0.0184301,0.0365598
0.0114095,0.038301
0.0166459,0.0189273
0.00564937,-0.00182039
-0.00267495,-0.00858133
-0.012071,-0.0158335
-0.0228105,-0.0140235
-0.0194457,-0.0028952
-0.0167077,0.00574585
-0.0106348,0.0260321
0.022861,0.0165454
0.0404297,-0.00784278
0.016604,-0.00753511
-0.011702,-0.00138687
-0.0412906,0.0226348
-0.0512992,0.00973627
-0.0490405,-0.0103762
-0.018102,-0.0113747
0.0165535,-0.0116175
0.0201505,-0.029262
0.0215434,-0.00764849
0.0307143,0.00832114
0.0222755,-0.00438746
-0.00353476,-0.0116315
-0.0108208,-0.00931393
-0.00726999,-0.0123552
0.00992095,-0.00180554
0.031384,0.0238697
0.0337565,0.0134711
0.0181129,-0.0113318
0.0138196,-0.0113565
0.00578689,0.00982513
-0.0146434,0.00652997
-0.0198844,-0.00539562
0.00548773,-8.96e-05
0.0216844,0.0394234
0.0126786,0.040054
0.00310211,0.00572312
-0.0138334,-0.0319295
-0.0343034,-0.0031661
-0.0463323,0.0181316
-0.0364772,-0.0146186
-0.0169819,-0.0400218
0.0123259,-0.0117677
0.0374644,0.013113
0.0340435,-0.00450671
0.0206701,-0.0244247
0.00794066,0.00302286
-0.00548105,0.0127974
-0.0213906,0.00501257
-0.0191097,0.00145471
0.00207371,-0.00554629
0.0135529,-0.0108141
0.00956169,-0.00670062
-0.00257497,0.00538023
-0.0344195,0.0168851
-0.0609419,0.010569
-0.0421362,-0.00994996
-0.0190958,-0.018589
-0.00986848,-0.0026726
0.021757,0.00775614
0.0655175,0.00900545
0.0560783,0.0118959
0.00394533,0.0108798
-0.0230414,-0.00142559
-0.0225201,-0.029863
-0.017673,-0.0159372
0.00741459,0.0537296
0.0286429,0.0488091
0.0240515,-0.00648567
0.0129369,-0.0104488
-0.00612464,0.00208964
-0.00837754,-0.0172694
-0.00415091,-0.00713682
0.00646994,0.0282177
0.0098581,-0.0100248
0.0226895,0.0135904
0.0451708,0.0150451
0.0238888,0.00192152
-0.0131777,-0.0231781
-0.0196574,-0.0572422
-0.0111532,-0.0510171
-0.0128663,-0.00830122
-0.0296678,-0.0493067
-0.0181575,-0.066828
-0.00140739,0.00943263
-0.0102998,0.0396898
-0.0224447,0.045156
-0.030059,0.0368406
-0.0492537,0.0393438
-0.0455266,0.0354725
-0.0138475,0.00186897
0.00295612,-0.0174465
0.0214259,-0.00227174
0.0258878,0.0224549
0.0290453,0.02282
0.0488188,0.00499633
0.042873,0.0107554
0.0127537,0.023372
-0.0102457,0.00984342
-0.0114666,-0.0189647
0.00660422,-0.0316112
0.0190822,-0.0232963
0.0161957,-0.0195089
0.0204069,-0.0235276
0.0158757,-2.67e-05
-0.0135244,0.000964477
-0.0232011,-0.0430635
-0.0280803,-0.0261358
-0.0113817,0.044592
0.0345994,0.0450614
0.0478519,-0.00758232
0.00880944,-0.00885953
-0.0253872,0.0155438
-0.0143488,0.0291797
-0.00871325,0.0131451
-0.0230272,-0.00841317
-0.00144081,0.022713
0.0309677,0.0298904
0.00255679,-0.019337
-0.0321337,-0.0565591
-0.0381581,-0.0447546
-0.019811,-0.00909956
-0.033859,-0.00721472
-0.0379044,-0.00931205
-0.0126228,-0.000798561
0.0243748,0.0395551
0.0674895,0.0517198
0.067947,0.00773287
0.012603,-0.0186161
-0.0360314,-0.00704903
-0.0698877,-0.00288463
-0.0709759,-0.0624256
-0.00225249,-0.0995165
0.059602,-0.0128888
0.0751244,0.0662927
0.0710693,0.0441112
0.0221197,0.0834073
-0.0402508,0.0283977
-0.0288422,-0.0258294
-0.0128339,0.00205521
-0.0330948,-0.0224739
-0.0105116,-0.0380408
0.0351949,0.00555302
0.0479915,0.0290371
0.0189582,0.0298614
-0.0126921,0.0107141
-0.0208426,0.000990442
-0.0511726,0.0249765
-0.052117,0.011201
0.0167955,-0.00621059
0.0972267,-0.0422297
0.0517812,-0.00738945
-0.0515596,0.0179877
-0.0785816,-0.0205963
-0.027063,0.00731812
0.0339267,0.00984573
0.0525121,-0.0542881
0.0157544,-0.0746038
0.0198744,0.00275629
0.0351453,0.0080026
-0.0202609,-0.0518906
-0.106089,-0.0362621
-0.102581,-0.0123976
0.057291,0.0854983
0.120506,0.152904
0.0471398,0.0949442
-0.0674198,-0.0882616
-0.0532105,-0.0645193
0.0787081,-0.020946
0.171259,-0.0132732
0.0936206,0.00304371
-0.0394417,-0.0151339
-0.0344361,-0.0550275
-0.094662,-0.0199636
-0.172767,0.0302921
-0.154005,0.0422094
-0.0733333,0.0792614
-0.0800186,0.0693491
-0.092246,0.0319432
-0.00322698,0.00164729
0.0772343,0.0128481
0.0686714,0.0643361
-0.0305251,-0.0645322
-0.0149284,-0.14447
0.131295,-0.0871007
0.131878,-0.0830869
0.0436061,-0.0238754
-0.0189673,0.0779591
0.0106773,0.134001
0.0553558,0.0195524
0.0621122,-0.0718781
0.0248448,0.0368076
0.0752119,0.112736
0.101549,-0.00720872
0.0294037,-0.0591201
0.0192834,-0.0115961
0.0707633,0.029421
0.00743224,-0.0166183
-0.108554,0.0227672
-0.221713,0.12279
-0.224532,-0.0447908
-0.127593,-0.202371
-0.0543392,-0.191724
-0.0380064,-0.0665184
-0.0595549,0.105601
-0.0619489,0.113458
0.0705207,0.0317892
0.161821,0.065338
0.179618,0.0912798
0.162363,-0.01961
0.109343,-0.0055228
0.00731029,-0.0368887
-0.0652734,-0.0841116
-0.0531175,-0.0760363
0.0322456,-0.0551936
0.10028,0.00013343
0.109315,0.0605227
0.0613605,0.0919222
-0.0114444,0.109985
-0.10024,0.0229358
-0.185931,-0.0469432
-0.181053,0.00653321
-0.0359845,0.024299
0.0118834,0.000772537
-0.098131,-0.0201387
-0.117002,-0.0585194
0.00599102,-0.0857341
0.11936,-0.0712893
0.133113,-0.00247234
0.0129347,0.0231544
-0.102115,-0.0300928
-0.0959546,-0.0152852
0.0299328,0.00819519
0.109415,0.0191253
0.126856,0.0544438
0.167163,0.106451
0.128196,0.0669372
0.0249824,-0.00995646
-0.0637359,0.0852378
-0.0957567,0.155558
-0.0641167,-0.102737
-0.0642447,-0.124296
-0.032097,-0.0777906
0.0159075,-0.118787
0.0076034,-0.0497675
-0.0179965,0.0783904
-0.00393577,0.0754433
0.0395481,-0.0217194
0.0895964,-0.0160132
0.111548,0.0136116
0.0734582,0.0685746
-0.0233866,0.0754206
-0.108341,-0.00283673
-0.115252,-0.0338199
-0.0927673,-0.047403
-0.158647,-0.0233538
-0.192203,-0.0729884
-0.123561,-0.0778415
0.0685016,-0.0348327
0.201933,0.018019
0.172417,0.0291868
0.0248848,0.036917
-0.0517757,0.0519021
-0.100662,0.0215173
-0.0965033,-0.0171662
-0.0270595,-0.0198637
0.0541042,0.0235505
0.123503,0.0609777
0.131925,0.0368336
0.0854168,-0.00364488
0.0361678,-0.0253702
-0.0201215,-0.0399654
-0.0327218,-0.0306708
-0.032791,-0.014354
-0.0438896,0.00964655
-0.0175348,-0.0146169
0.0512636,-0.0503445
0.0682843,0.0659994
0.0424443,0.211831
-0.0490306,0.0184963
-0.0867475,-0.181476
-0.0325339,-0.101391
0.0586111,-0.0200973
0.0659301,0.0331435
0.0189632,0.0493826
-0.00252819,0.0439586
-0.0793719,0.0406638
-0.147402,0.0227039
-0.0745697,-0.0439256
0.0337107,-0.0524705
0.0292992,0.0650615
-0.00507323,0.0907667
-0.0251445,0.0257902
-0.103371,0.00888472
-0.141103,-0.112663
-0.0801596,-0.0800597
-0.073103,-0.00291228
0.0248659,-0.0048144
0.166246,0.0170408
0.15115,0.013518
0.0930172,-0.0212111
0.122002,-0.0173739
0.176659,0.00730194
0.13429,0.0577676
-0.00155677,-0.00818934
-0.0681288,-0.0281409
-0.084791,0.0147666
-0.122037,0.015741
-0.0261587,-0.0479799
0.0369535,-0.026648
0.0131617,-0.0220565
0.0294299,-0.0681262
0.143146,-0.118941
0.0812188,-0.027493
-0.0994638,0.0906289
-0.0731121,0.0621848
0.0263714,0.0258782
0.0155197,0.0712757
-0.00465113,0.117825
-0.0229866,0.0262548
-0.0732756,-0.0438278
-0.164538,0.0176311
-0.148749,-0.0158266
-0.00271332,-0.123146
0.0655275,-0.105952
-0.0105263,-0.0451945
-0.0833903,-0.00425031
-0.1193,0.0468335
-0.0794766,0.129625
0.0763735,0.152937
0.216489,0.209516
0.245624,-0.066228
0.165149,-0.0521594
0.0509994,-0.0242072
-0.0871231,-0.0521977
-0.0619224,-0.0520145
-0.0284959,-0.0684038
-0.0464406,-0.0457155
-0.00252881,-0.033419
0.0651266,-0.0492315
0.0305617,0.0258609
-0.00796421,0.0622269
0.0107675,0.00876443
0.0182367,-0.0254598
-0.0195596,-0.031183
-0.0418367,0.0399304
-0.039078,0.0345864
-0.0371347,-0.00679531
-0.0631199,-0.00598182
-0.113899,-0.00993241
-0.0959448,-0.0269666
0.00133316,-0.054401
0.0353082,-0.0357722
-0.0118054,0.00800543
-0.0543441,0.0562489
0.0190574,0.122761
0.110089,0.0545947
0.115737,-0.0702592
0.0893259,-0.0274842
0.0303309,0.0509176
-0.0171735,0.0512259
-0.0645561,-0.0580359
-0.0682218,-0.045098
-0.093633,-0.00820635
-0.0796039,-0.0388059
-0.0130193,0.035565
0.0617037,0.0950587
0.0828202,0.0959507
0.0587853,-0.0108138
-0.0135196,-0.078548
-0.146065,-0.0993506
-0.155605,-0.0518209
-0.0795298,0.0478209
-0.0245943,-0.0131963
0.00778703,-0.0112382
0.00991965,0.0344023
0.0903775,-0.0174184
0.152538,-0.0674076
0.118459,0.0291491
0.063328,0.173025
0.0693313,0.0512819
0.0890797,-0.126719
0.0852999,-0.0819063
0.0389891,0.0737881
0.00744821,0.044506
0.0128612,-0.0111716
0.0632231,-0.00405435
0.11162,-0.0597766
0.0488237,-0.0672986
-0.0845939,-0.0678492
-0.244859,-0.0302835
-0.381794,0.0449525
-0.285796,0.0396138
-0.0792185,-0.0387918
0.0732014,-0.0269973
0.161066,-0.036276
0.105112,0.0422264
0.0459868,0.0554833
0.0200849,0.0255777
-0.00463699,-0.00964768
0.0182329,-0.0107856
0.0178868,0.0382191
0.0242646,0.0151946
0.090332,0.0372504
0.107346,0.0661008
0.104061,0.0955396
0.0748324,0.0476274
0.0155855,-0.0725105
0.0020551,-0.157181
-0.0220226,-0.0355644
-0.0721618,0.0260281
-0.0854229,-0.00666776
-0.0372016,0.0012307
-0.0349757,-0.0322924
-0.114939,0.00116303
-0.170235,-0.00626844
-0.137355,0.00882455
-0.0860807,-0.00616254
-0.0307528,-0.0477979
0.0513752,0.00533738
0.189132,-0.00324003
0.22804,0.018723
0.170999,0.0328184
0.096152,0.141102
0.0865395,0.16474
0.118827,-0.0852453
0.0748763,-0.0715849
0.0143753,-0.0326212
0.0126286,-0.0619858
-0.0253234,-0.0698889
-0.124822,-0.0237233
-0.226005,0.00580713
-0.207826,0.0666476
-0.156282,0.0164239
-0.189588,-0.00653589
-0.102098,-0.00800518
0.00822973,0.0472001
0.0278004,-0.0388356
0.0405279,-0.12309
-0.00246825,0.0315378
-0.0847245,0.0387226
-0.0496122,-0.127756
0.0361083,-0.0819721
0.0826127,0.230354
0.156721,0.131646
0.185049,-0.0306255
0.150329,-0.00635212
0.0930787,-0.00324768
-0.0147738,0.0248208
0.0077077,0.0660711
0.089473,0.00199009
0.13523,0.0287254
0.0529186,0.0946399
-0.108048,-0.0737456
-0.136711,-0.122462
-0.014606,-0.0471562
0.0333277,0.00372728
0.0197155,0.0302816
-0.0297937,-0.0273918
-0.0361681,-0.0486272
-0.0560946,-0.0290385
-0.0320439,0.0249215
-0.0654683,-0.094046
-0.186049,-0.0402881
-0.229112,0.0226578
-0.136496,0.0357642
-0.0512183,0.0104589
-0.046055,0.0693739
0.0163468,0.0188567
0.220128,-0.0608505
0.276486,0.014604
0.139635,0.0684911
0.00139367,-0.0433042
-0.0321069,-0.117753
-0.00395494,-0.00617214
0.0817639,0.05758
0.0779467,0.0738203
0.0164683,0.065749
-0.0143788,0.0324331
-0.00429374,0.00162876
0.0355099,-0.010554
0.0809403,0.00852538
0.109987,-0.0236615
0.0816519,-0.0680332
-0.00526581,-0.00648669
-0.0903952,0.0093041
-0.142279,-0.0203523
-0.151739,-0.0274226
-0.140269,-0.0187105
-0.144738,0.0393821
-0.0944471,0.0551618
0.0114855,-0.0145349
0.0385696,0.000249485
0.033461,0.00670402
-0.00789272,0.0113005
0.0327087,-0.0171925
0.148546,-0.0434404
0.105711,-0.0134812
0.0502384,0.0132158
0.0340013,0.0183208
0.024431,-0.0293298
-0.0287815,-0.0598137
-0.093416,0.0286331
-0.0947566,0.0140839
-0.0719334,-0.0253475
-0.060787,0.067454
0.0310192,0.153218
0.0408752,0.00943177
0.0238384,-0.0247303
0.0346476,-0.0352916
0.00635336,-0.0520151
-0.0566969,-0.031284
-0.060289,-0.015101
-0.0251079,0.0114513
-0.00345749,0.0385799
0.0124364,-0.0299709
0.0237936,-0.115034
-0.0242303,-0.083161
-0.00992185,-0.0172003
0.0957289,0.0145249
0.0893608,0.0457472
0.0281837,0.0321715
-0.00961187,0.0746265
-0.028123,0.0650363
-0.00969799,-0.00672788
0.00840431,0.0135975
0.0303789,0.00162007
0.0201551,-0.0388202
-0.0189632,-0.0382966
-0.0325404,-0.0213609
0.0115898,0.0181712
0.082436,0.0131134
0.114751,0.0114156
0.0714751,0.103845
0.00671265,0.0857885
-0.0161616,-0.045484
-0.0296236,-0.00958217
-0.0604793,-0.0496679
-0.115985,-0.0855353
-0.0966697,-0.0488351
-0.0519096,-0.0129787
0.00801178,-0.000916717
0.030981,0.0622123
0.0142948,0.0632561
0.015935,-0.0205645
0.0361099,-0.00718124
0.00795037,0.0717255
-0.0103221,0.0484129
0.00786355,-0.0245586
0.0546901,-0.0419913
0.0843592,-0.0456187
0.0425035,-0.0134469
-0.0119453,0.044022
-0.012748,0.0274262
-0.0156947,-0.0455925
-0.096058,-0.0621994
-0.18864,-0.0424757
-0.152184,-0.0578989
-0.00639294,-0.0161874
0.0641508,0.0396873
0.0754273,0.0716904
0.119533,0.0549648
0.119832,0.0555479
0.00972276,0.0700043
-0.101317,0.000797001
-0.129736,0.0795211
-0.0390418,0.0184729
0.0482035,-0.0736638
0.0440988,-0.103738
0.0449699,-0.0557782
0.0618957,-0.0450183
0.0566249,-0.0256702
0.0093303,-0.0167012
-0.0429069,-0.02654
-0.109036,0.00295508
-0.0700493,0.0421061
0.051154,0.0021691
0.136105,-0.0102232
0.121227,-0.0321125
0.0234332,-0.0241958
-0.0177169,0.0158988
-0.00655964,0.0388901
0.00153379,0.0636371
-0.00807875,-0.0209819
-0.0715225,-0.0433034
-0.0842173,0.0158167
-0.0287254,0.0939988
-0.00712301,0.00348449
-0.0688454,-0.0733696
-0.0942372,0.00214959
-0.0816826,0.0703241
-0.0397764,-0.0516062
0.0184286,-0.0514367
0.0426142,0.0633226
0.0400953,0.125546
0.0501014,0.0760931
0.0508134,0.00606667
0.0357565,-0.0496062
-0.00192718,-0.128012
-0.0116591,-0.0770757
0.00102464,-0.0337589
-0.0118336,0.00361404
-0.00472609,0.00554747
0.0545145,-0.0687554
0.0853767,-0.0691942
0.0600384,-0.0258132
-0.00565616,0.0808182
-0.0204707,0.136601
-0.0291578,0.0219298
-0.0151658,-0.0118626
-0.00211162,-0.022263
-0.0298854,-0.102484
-0.0191923,-0.0325836
-0.00933522,0.0582943
-0.020983,0.0614906
-0.0251085,0.0311034
0.00706358,0.0118147
0.0455114,0.060113
0.0154108,0.0242456
0.0270127,-0.0181818
0.0195223,-0.010755
-0.0103558,-0.0098389
0.0049373,-0.0135562
0.0259269,-0.0299861
0.0443593,-0.0114673
0.0364632,0.0451573
-0.00301556,0.00233416
-0.0413277,-0.0310767
-0.0570582,-0.047482
-0.0385564,-0.0480985
-0.0325854,0.00638455
-0.0130103,0.0138963
0.0214916,-0.00727201
0.0394573,-0.0129927
0.0487421,0.0337471
0.0608408,0.0806202
0.0618695,0.0195838
-0.0198528,0.0274547
-0.0709687,-0.000987286
0.00466049,-0.0572349
0.0179274,-0.0195448
-0.0406334,0.00512274
-0.0614052,-0.0111588
-0.0635472,-0.029158
-0.0436962,-0.00807704
-0.00710144,0.0503441
-0.0120419,0.0677652
-0.0352104,0.0109162
-0.0519349,-0.0210808
-0.0497883,-0.0469203
-0.0246822,-0.0664595
0.0161877,-0.0350097
0.078067,0.052718
0.0605501,0.141339
0.032706,0.10316
0.0797865,-0.0763541
0.0721495,-0.100929
-0.00354736,0.047937
-0.0289483,0.027162
-0.0176199,-0.0261865
-0.038998,-0.00034069
-0.0679529,0.00202811
-0.0299362,-0.0253511
0.0956422,-0.0900382
0.170276,-0.0820092
0.0755327,-0.0305051
0.0319634,0.0288522
-0.0319101,0.0585662
-0.130968,0.0921213
-0.105319,0.0385275
0.00419262,-0.0253329
0.031143,-0.0457106
0.0010954,-0.0334448
-0.0074588,0.0415323
0.00424068,0.0265225
0.00409868,-0.0394821
-0.0248225,-0.017415
-0.0669581,-0.00291473
-0.0740195,-0.0217588
-0.0760249,-0.0522122
-0.0635386,-0.0659323
0.0107645,-0.0450366
0.0615393,-0.0181484
0.0649773,0.0180921
0.0797215,0.0488297
0.0569017,0.0513778
0.000267262,0.0959611
0.0102144,0.0843724
-0.0109044,0.0196152
-0.0545773,-0.0253152
-0.049746,0.00494447
0.0310068,0.0058895
0.0963162,0.0276028
0.0758641,0.0299249
0.0271222,-0.0287233
0.0058922,-0.0267006
-0.0117521,-0.026385
-0.0201963,-0.040486
-0.00859438,-0.0405788
0.0216607,-0.0061365
0.0176814,0.100646
0.00679676,0.0384908
-0.0347628,-0.0616503
-0.0934227,-0.0506206
-0.0718938,-0.0236988
-0.0334123,-0.0204283
-0.00811913,-0.0887398
0.0156449,-0.0284973
0.04585,0.065009
0.0560058,0.126445
0.0231262,0.0272531
-0.00224895,-0.0446043
-0.00450267,-0.0155971
-0.0485647,0.0203584
-0.0780698,0.0462174
-0.0595626,-0.0301681
-0.00140094,-0.0377346
0.0867878,-0.00632432
0.128534,0.0320723
0.106912,0.0378729
0.036811,-0.0125432
-0.0367382,-0.0293535
-0.0335747,-0.0692931
-0.0413467,-0.055171
-0.0459594,0.0168613
-0.0128414,0.0396886
-0.00355304,0.0402644
0.0072852,0.00497906
0.0033782,0.0109708
0.0144253,0.00308955
0.00987828,-0.0071746
-0.0318319,-0.0115848
-0.0390385,-0.00584293
-0.0385688,-0.0139035
-0.0228461,-0.0267559
-0.00404943,-0.00877742
-0.0177994,0.00524444
-0.0343169,-0.0115233
-0.0166816,0.000507255
0.00962381,0.00971178
0.0123393,0.0108563
0.0438014,0.0177626
0.108629,0.0750523
0.0939689,0.140857
0.0164431,0.0546332
0.00375136,-0.104606
-0.00861236,-0.123626
-0.0769972,-0.0280981
-0.106837,0.0581786
-0.0548571,-0.00142786
-0.0116823,0.0260148
-0.0082024,0.0398029
0.0511685,-0.0525966
0.0917074,-0.0757813
0.0458594,-0.0412253
-0.000225736,-0.0342176
0.0315815,-0.0303561
-0.0139153,0.0143743
-0.0904291,0.056266
-0.0965848,0.0589989
-0.0974083,0.0631914
0.00188857,0.016328
0.0813399,-0.0364123
0.0384428,-0.0271591
-0.00934071,-0.0252752
0.0153416,0.0712585
0.0441561,0.0703282
-0.0113535,-0.0455981
-0.0475798,-0.0517073
-0.0257281,-0.0266699
0.0612377,-0.070444
0.0542874,-0.0501297
-0.0166388,0.00438077
-0.0164992,0.0232292
0.0346893,-0.0212562
0.0465665,-0.038265
0.0373251,0.109031
0.0478555,0.0830297
0.0108849,0.00998087
-0.0555482,0.00300534
-0.0701936,-0.0218045
-0.0611577,-0.0221679
-0.023861,0.0534082
-0.003932,0.121604
0.0137251,-0.0732505
0.042831,-0.108118
0.0219763,-0.0956087
-0.0164182,-0.0367564
-0.0256227,-0.00174072
0.0448375,0.0532531
0.11499,0.0616511
0.140168,-0.0183758
0.119923,0.00902597
0.0407969,-0.0122601
-0.0289385,0.00314576
-0.0640133,0.00645201
-0.130671,0.0430376
-0.202137,0.0473832
-0.232716,0.101006
-0.109811,0.0808359
0.064963,-0.0807666
0.109579,-0.0681934
0.0603849,-0.0617723
-0.0280675,-0.051077
-0.120946,0.000869173
-0.146319,0.0154861
-0.0630524,0.0106367
0.059119,-0.0424488
0.134152,-0.0385602
0.175888,-0.0295051
0.143102,-0.0187911
0.0594474,0.0347844
0.0070938,0.0254805
0.0262718,0.0187694
0.00618605,0.00556761
-0.0385332,-0.0327593
-0.0149648,-0.0307136
-0.0117491,0.0864782
-0.0197415,0.0730339
-0.00188626,-0.034086
-0.0374183,-0.0801589
-0.0670244,-0.0646067
0.000112472,-0.00574011
0.0588884,0.046784
-0.000973596,0.0253521
-0.0296391,0.115116
-0.0919393,0.0873502
-0.157722,-0.0241961
-0.102144,-0.0607889
0.0118215,-0.0111443
0.109556,-0.00213078
0.112196,0.00941995
0.171436,-0.00400089
0.242247,-0.0147187
0.131862,-0.0159373
-0.00942289,-0.0437682
-0.0180797,-0.0446733
0.00763998,-0.0394097
-0.022092,-0.0367786
-0.0853955,-0.0078554
-0.116884,0.0146536
-0.0579514,0.0213109
-0.0238485,0.0858339
-0.0797717,0.121388
-0.129205,0.00733788
-0.0606622,-0.109537
-0.0732188,0.0385041
-0.105472,0.0927929
-0.0220515,-0.0142376
0.0788027,0.0147051
0.134507,0.015551
0.103919,-0.0391361
0.0424327,-0.0289575
0.0197295,-0.0195764
0.0119489,-0.034924
0.00813208,-0.0509956
0.0186048,-0.0185015
-0.0119241,-0.0041394
0.0167653,0.00755562
0.0876261,0.0673066
0.0545279,-0.022709
0.0223131,-0.0963191
0.00488035,-0.0111729
-0.016333,0.00406754
-0.0470402,-0.0510969
-0.0821659,-0.0451472
-0.0438541,0.0191746
-0.0164214,0.0820959
0.0224701,0.0555085
0.102278,0.0359095
0.0786027,0.0319212
0.0060574,0.0368705
-0.0849477,0.0255827
-0.145696,-0.00262185
-0.145528,-0.0542359
-0.0588696,-0.0490354
0.0676258,-0.0256432
0.0772974,-0.0288871
0.041107,-0.0289017
0.0290768,-0.00342193
-0.0429178,0.0382865
-0.0828841,0.0380378
-0.035885,0.021348
0.0123037,0.0762511
0.0516644,-0.000442088
0.0267078,-0.0403186
-0.0334101,0.0398566
-0.00968539,0.0178032
0.0561237,-0.0216117
0.0217303,-0.00524065
-0.0147095,0.0199825
0.0491558,0.0438264
0.0959852,0.0358653
0.0618585,-0.0182381
-0.0105361,-0.0380669
-0.0297236,-0.00638643
-0.0156849,0.0138884
0.00754368,-0.0494292
0.00908677,-0.0915423
0.0139584,-0.0839533
0.00882058,-0.0683199
-0.0609189,-0.013908
-0.0816753,0.0601666
-0.0548197,0.0409499
-0.0421945,0.00651412
-0.0433167,0.0807142
0.0420071,0.0438469
0.0604588,-0.0146332
-0.00282475,-0.00977467
0.00555123,-0.0446125
-0.00824522,-0.0377361
-0.0559546,0.00921994
-0.0989214,0.0178204
-0.0776507,-0.0268643
0.0138173,0.0272375
0.101486,0.0897097
0.10887,-0.0567146
0.0863886,-0.0476497
0.017404,0.0273695
0.00623543,0.0266097
0.0485753,0.04758
0.0927738,0.0147336
0.00520235,-0.0236006
-0.0391768,-0.0136142
-0.0454926,0.0164313
-0.0136164,0.0311288
0.0268654,0.027668
0.0137307,0.0157028
0.0200028,-0.025587
-0.00574063,-0.0577745
-0.0499077,-0.0309786
-0.0765516,0.0113275
-0.0898367,-0.0559303
-0.0776069,-0.0709788
-0.0658747,-0.0120618
-0.0408302,0.0282839
-0.0438309,0.0232559
-0.0414407,-0.00668989
0.0309738,0.000817654
0.0818333,0.0354379
0.107687,0.03995
0.141268,0.0119861
0.0780188,-0.0475622
-0.0115316,0.0282816
-0.0380721,0.0970389
-0.00579181,0.0230714
0.0586223,-0.0186547
0.0606525,0.00461029
-0.00258899,-0.0356136
-0.0269314,-0.0370094
0.00378913,-0.0117829
0.0110976,0.0143998
-0.0247941,-0.029669
-0.0816973,-0.0539
-0.116172,0.0637709
-0.0996956,0.0919749
-0.0211555,-0.0801723
0.0226415,-0.0702058
0.0622464,-0.0235415
0.08294,-0.00807542
0.0668948,0.00821723
0.0676471,0.0206981
0.0577912,0.030554
0.00286181,-0.00135626
-0.0126168,-0.0370322
-0.0237035,0.0111366
-0.027187,0.0472466
-0.0266144,0.0422991
-0.0277575,0.0473538
-0.0232949,0.0154662
-0.0308818,-0.0264505
-0.0308727,-0.0242911
-0.0251215,-0.0283543
-0.000553499,-0.051117
0.00599852,-0.0271684
-0.0389927,0.0839372
-0.0786707,0.0701548
-0.0208756,-0.0576643
0.101905,-0.0515342
0.0719473,0.00728639
-0.0565004,0.00342749
-0.0772101,-0.0545999
-0.00325515,-0.0291239
0.0251551,0.0392567
0.0648234,0.065665
0.0758777,0.0271982
0.0771034,-0.0115422
0.019803,-0.0234091
-0.0362861,-0.00780623
-0.0282287,0.0145372
-0.00509436,0.00938088
0.0312371,-0.0096238
0.0590566,-0.0159026
0.0260075,0.0176269
0.00403999,0.0270725
0.00339209,0.0741527
-0.0314738,0.00417377
-0.0743636,-0.0603609
-0.0808652,-0.0149738
-0.0114031,-0.0310627
0.00620338,-0.0238697
-0.0361047,-0.01216
-0.0307948,-0.0303459
-0.0134784,-0.0315341
0.00610643,-0.0190063
-0.044308,-0.00596266
-0.0691566,0.0612415
0.00962471,0.0314795
0.0577441,-0.0393958
0.0515034,0.0499612
0.0398655,0.112431
0.0790224,-0.0466848
0.101427,-0.0650566
0.0243557,-0.050632
-0.0561258,-0.027711
-0.112637,-0.00272415
-0.113706,0.019925
-0.0308932,0.0383794
0.0636753,0.027
0.0629102,0.0624097
0.0510027,0.0219807
0.0402194,0.0269155
0.0325862,0.0134817
0.0164181,-0.0440705
-0.0408624,-0.0479616
-0.070487,-0.0153618
-0.00964143,-0.0244868
0.0303907,-0.0705738
0.0128516,-0.0424318
0.015316,-0.00606107
-0.005262,0.0236867
-0.0414041,0.0253696
-0.0524539,0.0330491
-0.00641315,0.0324941
0.031895,0.00431214
0.0397471,-0.000927247
0.0653152,0.00177305
0.0628597,0.00959078
0.0746055,0.0125447
0.0619375,0.0161596
0.0247013,0.0244628
-0.0190608,0.0133571
-0.0590942,-0.00660793
-0.127826,-0.0239245
-0.10702,-0.0340544
-0.036815,-0.0268456
-0.028936,-0.0322919
-0.0205165,-0.0279046
-0.000559065,-0.0152668
0.0443392,0.0106303
-0.0234464,0.0316597
-0.0861156,0.00835416
-0.0939763,0.0373382
-0.0800606,0.0126342
-0.0242406,0.0114019
0.0257016,0.0687446
0.073122,0.0192868
0.0801445,-0.0178654
0.0933824,-0.039936
0.118134,-0.0519049
0.0865279,-0.0256988
0.0262741,-0.000206021
-0.00818944,0.00768322
0.00747036,-0.0145992
0.0257708,-0.000921985
-0.00203581,0.0399373
-0.0418357,0.0538044
-0.0485628,0.0654628
-0.0207613,0.0102825
0.0361223,-0.0428839
0.00825393,-0.000449483
-0.0734949,0.0281954
-0.0695779,0.00958083
-0.0354684,-0.0224517
0.00534231,-0.0501087
0.0421537,-0.0386057
0.0577607,-0.0440212
0.00477531,-0.0477604
-0.0611362,-0.0389085
-0.0241181,0.00835203
-0.00745122,0.032621
-0.0275059,0.00861055
-0.0104068,-0.00465951
0.049602,0.00390973
0.0525576,0.00364697
0.00461048,0.00218315
-0.0232606,0.0274537
-0.0189957,0.024113
-0.00374093,0.0305814
0.0145484,0.0278198
0.00918953,-0.00486107
0.0102847,-0.0235073
0.0489707,-0.0173835
0.0726108,-0.0314701
0.0582171,-0.0302307
0.0256171,0.0291315
-0.0159783,0.0561064
-0.0188335,0.0316516
-0.023669,-0.0409934
-0.0217255,-0.0531979
0.012416,0.0073165
0.000368491,0.0121778
-0.0209341,-0.0118639
-0.045433,0.00333582
-0.0944928,0.00366949
-0.105794,0.0052758
-0.0660434,0.00324409
-0.0399949,-0.00143759
-0.00541337,-0.0151002
0.0484356,-0.0165337
0.0290871,0.0051738
0.0140258,-0.0157372
0.0439494,-0.0109093
0.0309515,0.0945894
0.0424878,0.0922688
0.0348083,0.0252499
0.0224583,0.0292556
0.0169751,-0.0581736
0.0186501,-0.0545821
0.0433365,-0.0338807
0.0311787,-0.0158187
-0.0170304,0.0282468
-0.0126562,-0.013556
0.00723791,-0.0484119
0.00603891,-0.037434
0.00053262,0.0468236
0.00527412,0.0494324
-0.0230379,0.00933364
-0.061537,0.00939985
-0.0250878,0.0049369
-0.0059671,-0.0222423
-0.07448,-0.049828
-0.124701,-0.0232004
-0.0644657,-0.00222697
0.0184611,0.0149824
0.0717706,-0.00867118
0.0546521,-0.029431
0.0456093,-0.0384198
0.0404881,0.000278485
0.0546618,-0.0177032
0.0193293,0.0266668
-0.0110484,0.046845
0.0255014,0.0237499
0.00816582,0.022986
-0.0759891,0.0121738
0.00511652,-0.0326593
0.0865388,-0.0340946
0.0604628,-0.029048
0.00196338,-0.0236265
-0.00392632,0.0591804
0.153295,0.0672678
0.179697,0.0368852
0.0226668,0.00207856
-0.173484,-0.0351239
-0.21101,-0.0252788
-0.150318,0.0396005
-0.0911463,0.0359567
-0.0183002,-0.027435
0.0451926,-0.00161645
0.0572793,-0.0242698
0.0159823,-0.0219166
-0.0399008,0.0537701
-0.0925266,0.041857
-0.106795,-0.0429996
-0.0784957,-0.0453561
-0.0334807,-0.043345
0.0434947,-0.0271952
0.0978832,0.00883761
0.107693,0.0325501
0.106561,0.0563002
0.0945282,0.0428718
0.0390434,-0.0037014
-0.0241816,-0.0337977
-0.0685905,-0.0157094
-0.0240248,-0.0130196
0.0870456,-0.0198264
0.0755795,0.00158901
-0.0081305,-0.00637931
-0.0564428,-0.0425299
-0.0561829,-0.0293426
-0.050138,-0.00605593
-0.0658107,0.0789972
-0.0565773,0.132803
-0.00484794,0.00384311
0.0135192,-0.0504608
0.00136437,0.0177734
0.0459531,-0.0390344
0.0996423,-0.0735752
0.074875,-0.0341925
0.0318874,0.0129647
-0.0189599,0.0279329
-0.0300454,0.0149505
0.0138109,0.00831591
0.0487533,0.00352141
0.0387647,-0.0154612
0.00820362,-0.0135883
-0.0157218,0.00850518
-0.0395702,0.00121612
-0.0543801,-0.0337694
-0.0732847,-0.0487432
-0.0559682,-0.0204932
-0.0382219,-0.00232567
-0.0605665,0.010105
-0.0371826,0.0315704
0.0222788,-0.00235805
0.0517091,0.000249243
0.0543609,0.0656246
0.0506613,0.051234
0.0279988,0.0271426
0.00756562,0.0226676
0.00656463,-0.0414885
-0.00722095,-0.0610326
-0.00312616,-0.0281232
-0.0119786,-0.00343446
0.0192164,-0.00459319
0.0562554,-0.00867752
0.0501231,0.00936605
-0.0414951,0.0325237
-0.166617,0.0580629
-0.0729072,-0.00333279
0.0382682,-0.0055631
0.0762154,0.0207572
0.0767686,0.00371947
-0.00200418,-0.00381294
-0.0571625,-0.00282263
-0.0179353,0.0133105
0.0423677,-0.0115146
0.0676363,-0.0300674
0.0467666,-0.0158795
0.0606267,-0.0364686
0.0388092,-0.0506209
-0.0141745,-0.00864082
-0.0795308,0.0236826
-0.132358,0.0170037
-0.0774369,-0.00481883
-0.00506968,-0.0215525
0.00476111,-0.0199434
-0.0209229,0.0318789
-0.0109654,0.0905351
0.00652896,-0.000490648
-0.0091229,-0.0486089
-0.0358509,-0.0122363
0.0137463,0.017253
0.0391853,0.0317978
0.0400332,0.0474537
0.0675373,0.0144559
0.0385714,-0.00643017
0.0299207,-0.00122887
-0.0173055,-0.0301156
-0.0335353,-0.0599147
-0.0284853,0.0311773
-0.011952,0.0449392
0.0430277,-0.0120505
0.0177728,0.0266174
-0.0282409,-0.0128045
-0.0274312,-0.00340982
-0.0198558,-0.0330019
-0.0279693,-0.0385142
-0.0116588,0.00531132
0.0565671,0.0227809
0.0506224,-0.00661961
-0.00366635,-0.0216658
-0.0126829,0.00100232
-0.0332515,0.0119402
-0.0505222,-0.00211342
-0.0163093,-0.00793349
0.0341544,-0.0141051
0.044175,0.0123532
0.00545755,-0.0138211
0.00478343,-0.0462541
0.00805301,-0.0188662
-0.0160875,-0.00195224
-0.00783997,-0.0137992
-0.0255413,-0.0254385
-0.0629195,-0.00402279
-0.0301013,0.0214219
0.0212935,0.0367565
0.0661265,0.0184071
0.0424034,0.0233659
-0.00171764,0.0616025
0.00746647,0.071534
0.0302739,0.029788
0.0143563,-0.0259508
-0.0320541,0.00386899
0.0152343,0.0211295
0.046186,0.0187813
0.00467787,-0.0396512
0.0479352,-0.0955241
0.155234,-0.0502295
0.130858,-0.0231391
0.0126166,-0.0147312
-0.0904565,0.031208
-0.105395,0.0887044
-0.123185,-0.0257938
-0.145302,0.0106307
-0.182367,0.0944324
-0.151311,-0.0278473
-0.0377297,-0.0696834
0.0676758,-0.000373355
0.138042,-0.00264462
0.146507,-0.0467252
0.0782013,-0.00544338
-0.0174128,0.0468025
-0.0331038,0.0194827
-0.0222807,-0.0135995
-0.0239775,0.000597346
-0.00303784,-0.0424845
0.0141547,-0.0865511
0.0111289,-0.068614
0.00130102,-0.0145723
-0.00298506,0.0105804
-0.001342,0.037312
0.0185103,0.0589029
0.00255363,0.0883449
0.00266168,0.0399741
0.0189988,-0.0242087
0.0388039,0.0067176
0.0128309,-0.00490069
0.00282171,0.027268
0.039982,0.0531921
0.0440025,-0.0138317
-0.0547174,-0.0476807
-0.062255,-0.0427489
0.00976984,-0.0248824
0.0650859,-0.00657678
0.0553939,-0.0137464
-0.0396191,0.0498934
-0.046829,0.0631491
-0.0485605,0.0107084
-0.062475,-0.022325
-0.054527,-0.00746639
-0.0365784,-0.0379542
-0.00488845,0.00139993
0.0190815,-0.0127996
0.0727032,-0.0314349
0.0826074,0.015695
0.0369681,-0.0103278
-0.0365543,-0.0340831
-0.0560156,-0.0135046
-0.0392551,0.0216089
-0.0193083,0.0311231
0.047662,0.116588
0.0656385,0.0971278
0.0346425,-0.0846029
0.0059247,-0.097354
-0.0263734,-0.0244342
-0.0439828,-0.00653572
-0.0454461,-0.0122507
-0.0346776,0.0121809
0.0347484,0.00576707
0.0732451,-0.0158779
0.031582,0.00743589
0.0420513,0.0271815
0.0225667,0.0260401
-0.0195855,-0.00151651
-0.0469899,-0.0268932
-0.0720189,-0.0313704
-0.106584,-0.0235825
-0.0801018,-0.0337453
0.00823369,-0.064449
0.0621675,-0.0419938
0.0880722,0.0764458
0.0318641,0.102326
-0.00105632,0.0432485
0.00750207,-0.0118555
-0.00452285,0.00201486
-0.00758813,0.0175416
0.019318,0.0195062
0.0285364,0.0222353
0.000866075,0.0395893
-0.0290687,0.0898275
-0.0152628,0.0448174
-0.0373376,-0.0542378
-0.0743644,-0.0758007
-0.0213742,-0.0698951
0.0509356,-0.0531412
0.0974072,-0.0392609
0.124591,-0.033488
0.117506,-0.00943444
0.0871598,-0.0107658
0.0154825,0.00224665
-0.0449724,0.00797988
-0.0781637,0.0295026
-0.0618006,-0.0198039
0.0547241,0.041197
0.0621412,0.00780791
-0.0892353,-0.02933
-0.153595,0.0385405
-0.12942,0.0821462
-0.0810721,0.0203466
-0.0405497,-0.00693076
-0.00187132,-0.0377796
0.00838333,-0.0460628
-0.0256441,-0.0171993
-0.0158985,0.00568162
0.0183942,0.0451089
-0.0116559,-0.0524269
-0.0254252,-0.071261
0.0302956,-0.0198994
0.0753148,0.0507134
0.0630741,0.0554621
0.066751,0.00747356
0.0766089,-0.0418353
0.0469199,-0.0286936
0.00266047,0.0080833
0.0362493,0.0153662
-0.0268332,0.0180927
-0.112821,0.0333166
-0.0677738,0.00851511
-0.00659325,0.0179444
-0.00780423,0.0204079
0.0805638,0.0135557
0.0873519,0.0151429
0.0280144,0.038026
-0.02326,0.00525402
-0.0397843,-0.0464867
0.0208367,-0.0419325
0.0868107,-0.0208236
0.0872492,0.00965043
0.0539049,0.0241938
-0.0049616,-0.0126915
-0.0558038,-0.0304115
-0.0729608,-0.0397656
-0.0947926,-0.0417264
-0.0858048,0.00406733
-0.0531633,0.0157997
-0.0361705,-0.00251957
-0.033035,-0.0128106
-0.0213137,0.0441036
0.0337055,0.072233
0.0322003,0.00392919
0.0158872,-0.0497901
0.056811,-0.0593928
0.0536887,-0.0275537
-0.0139653,-0.00081392
-0.0471763,0.0179279
0.0169831,0.0394683
0.0413611,0.0192049
-0.0154333,-0.00705285
-0.0604644,0.00234199
-0.0154756,0.0332632
0.0534426,0.0864971
0.0828969,0.0271986
0.0877916,-0.041152
0.0391785,-0.0612793
-0.0284089,-0.0161411
-0.0846321,0.0750496
-0.0826321,-0.0138225
-0.0362024,-0.0606612
-0.00724,0.0288633
-0.0326973,0.00983033
-0.059857,-0.0224932
0.0191196,0.00662765
0.117956,-0.0438513
0.0440486,-0.0201274
-0.0736266,-0.0137399
-0.0341728,-0.0502621
0.00582415,-0.0673209
-0.000925304,0.00249351
0.0272616,0.105674
0.0480325,0.145979
0.0428472,0.0455166
0.0262506,-0.0372111
-0.0123471,-0.0125922
-0.0538178,-0.0138459
-0.0283749,-0.0311969
0.0235616,-0.0400323
-0.00489336,-0.0147308
0.0025916,0.0666244
0.0576705,0.0227917
0.0583954,-0.0365055
-0.0252584,-0.0415787
-0.118364,0.00549449
-0.101228,-0.00581602
-0.0271244,-0.0483554
-0.0116458,0.00550432
0.0131184,0.0626564
0.0526259,0.0166634
0.0603822,-0.0355159
0.105327,-0.0294248
0.133091,-0.0126173
0.0855336,0.00459334
-0.0608198,0.01426
-0.13663,-0.000807714
-0.141743,-0.00789106
-0.102177,0.00548044
-0.0588134,0.0168571
0.0429425,0.00324572
0.0537574,-0.0170982
-0.0087055,-0.0155129
-0.00251677,0.0189919
0.0596687,0.0393846
0.0783037,-0.000156931
-0.0121703,-0.0442216
-0.0640414,-0.0283016
-0.0389185,0.0552008
0.0548617,0.0258562
0.126985,-0.0543068
0.119202,-0.0437763
0.0838382,-0.0646694
-0.0121477,0.0135459
-0.102015,0.0984343
-0.118721,0.0908645
-0.0586525,0.0464394
-0.0602609,0.00913912
-0.0884319,-0.0279687
-0.0318764,-0.0672648
0.053477,-0.0620467
0.0562611,-0.022814
0.0489291,0.0090663
0.0132349,0.0324155
-0.0159741,0.0512757
0.0166823,0.0249643
0.00226907,-0.0253777
-0.0155042,-0.0140344
0.0108078,0.0392865
0.0340238,0.0530772
0.0150693,-0.0116488
0.0341037,-0.0473762
0.0217703,-0.0272443
-0.0377108,-0.00834995
-0.0685584,-0.0192866
-0.0389845,-0.0287752
-0.00337551,-0.0423165
0.035736,-0.0250165
0.10573,0.0266945
0.0840259,0.0275731
0.0336848,-0.0340165
0.011967,-0.0677182
-0.0382494,0.0148598
-0.105256,0.031199
-0.127236,0.0468475
-0.108324,0.0340046
0.0257108,0.0314504
0.122774,0.00628556
0.0531897,-0.0464856
-0.0509721,0.00776349
-0.0549692,0.0295874
-0.0297462,0.0127515
-0.00986874,-0.00103963
0.0526995,0.00470268
0.0626095,0.00244655
0.0385584,-0.0202228
0.00189266,0.00164005
-0.0269612,0.0184824
-0.0356643,0.039838
-0.0253019,0.0148875
-0.0137116,-0.0893008
-0.0128873,-0.0579927
-0.0548191,0.0131291
-0.0801358,0.0250678
-0.0319111,-0.0287199
0.0340404,-0.00413207
0.0696149,0.0513291
0.125136,0.0279422
0.120706,0.0148788
0.0234464,0.0101108
-0.0429962,0.0530275
-0.00225442,-0.0091611
0.0192546,-0.0392781
0.00584138,0.010345
-0.0613493,-0.00884003
-0.147359,-0.0339759
-0.110318,-0.0428761
0.0590805,-0.0182734
0.209982,0.0303607
0.195126,0.0595784
0.140504,0.0445599
-0.000468487,-0.00739205
-0.0771316,-0.0538031
-0.0239415,-0.0328912
-0.0635957,-0.00220997
-0.119118,-0.0142618
-0.102542,-0.0384559
-0.0990601,0.00694482
-0.0631504,0.0450456
0.00940996,0.0571306
0.0168807,0.00180914
-0.0103524,-0.0314774
-0.0120428,-0.040933
0.0194777,-0.0736794
0.0161319,-0.0688619
-0.0241297,0.00927203
0.024789,0.0828187
0.0479963,0.04646
0.0422406,0.00092401
0.0353341,-0.0146292
0.00741617,0.0297468
0.0133865,0.0210296
0.0116359,-0.0144173
-0.0518581,0.0112091
-0.120303,0.0537309
-0.105391,0.0286885
-0.0475788,-0.00940321
0.0358479,-0.0766483
0.071438,-0.0113758
-0.0361988,0.113605
-0.0883768,0.0269654
0.0143206,-0.0278976
0.1445,-0.0114819
0.213686,-0.0379271
0.193335,-0.0477627
0.165109,-0.0144239
0.0597921,-0.0395357
-0.102278,-0.00619351
-0.165836,0.0190471
-0.130165,-0.00867803
-0.0873333,-0.0436102
-0.00691311,-0.0217645
0.075109,0.0230181
0.0866161,0.0308647
0.0587284,-0.000594769
-0.0137391,-0.0245083
-0.0824957,0.035816
-0.129692,0.0392919
-0.124196,-0.00658155
0.0109415,-0.042171
0.0987319,-0.0381148
0.102602,0.0047566
0.0148771,0.0599956
-0.0904179,0.0736418
-0.146892,0.0298076
-0.0972959,-0.0378583
-0.00441582,-0.0277846
0.105764,-0.00370864
0.124243,0.0151889
0.03563,-0.00481064
-0.0421438,-0.00559381
-0.0461537,0.0163625
-0.00172493,0.0180112
0.0427563,0.00586453
0.0299869,-0.025636
-0.00375756,-0.0333804
-0.0252681,-0.0374923
-0.0659662,-0.0223239
-0.0673077,-0.00748347
0.00196384,-0.0155828
0.0434875,-0.0134701
0.0346841,0.0271898
0.00993428,0.0295035
0.0181405,-0.010868
0.0697013,0.00228014
0.0476186,0.0396643
-0.00729463,0.034225
0.00612051,-0.00361174
0.00962347,-0.00971645
-0.00381843,-0.0191337
-0.0485315,0.0145102
-0.0665737,0.107223
-0.00565719,0.0339471
0.00537402,-0.0257901
-0.00781092,-0.0155884
-0.0058051,-0.0222943
-0.011592,-0.055895
0.0341058,-0.0413872
0.0818854,-0.0207587
0.06818,-0.0296471
-0.0167806,-0.0314949
-0.108033,-0.000695004
-0.101438,0.0119344
-0.0527613,0.0203743
0.0127189,0.0296316
0.0609787,0.0347734
0.0628007,0.0275188
0.0683453,0.00202828
0.0421061,-0.0293799
0.0368744,-0.00822817
0.0676614,-0.0139082
0.0814784,0.0192092
0.0195323,0.045777
-0.0884288,0.0393601
-0.122557,0.00260806
-0.0612384,-0.0208519
-0.00933038,-0.0260734
0.0312071,-0.0319429
0.0385818,0.0227234
-0.0160696,0.0499798
-0.057761,0.0264741
-0.0674559,-0.0205839
-0.10672,-0.108044
-0.0896748,-0.0685161
-0.127709,-0.067116
-0.116883,-0.0392226
-0.0194924,0.0623207
0.0473076,0.0919595
0.140662,0.0380255
0.224545,0.00476041
0.191807,0.00452057
0.119874,0.0308867
0.064797,0.037285
0.0352955,0.0146734
0.0446433,-0.0235268
0.0268545,-0.0294249
0.00101604,-0.0297815
-0.028559,-0.0335604
-0.0906764,-4.34e-05
-0.122784,0.0333448
-0.0994166,0.0120868
-0.0622564,-0.000542814
-0.0203836,-0.0131128
-0.00432973,-0.00479232
-0.0123481,0.0134021
-0.0297073,0.0162664
-0.0536032,-0.0108295
-0.0403743,-0.0290366
0.0223,-0.0169519
0.0425163,-0.00687219
0.0691323,0.0124451
0.0569458,0.0552518
-0.0498117,-0.0295392
-0.0328236,-0.0887526
0.00435982,-0.0124398
0.0142006,0.0542447
0.0029845,0.0331801
0.0170906,0.00312003
0.0398303,0.0190437
0.0446505,0.0228151
0.00948308,-0.00755491
-0.0147259,0.00153077
-0.0150613,0.012206
-0.0334241,-0.00731795
-0.0234081,-0.0208321
0.00708054,-0.0342826
-0.00693523,-0.044795
-0.0477756,-0.0252205
-0.0416022,0.00417257
-0.00240668,0.0335137
0.0312809,0.124451
0.0569199,0.0828555
0.034451,-0.0771334
-0.00582011,-0.0461908
0.0112259,0.0189386
-0.00156057,0.00585636
-0.0379234,-0.0367322
-0.00832321,-0.0140265
0.0657973,0.0114711
0.0896263,-0.00662762
0.0267923,-0.0182498
-0.0031858,-0.00895823
-0.0189541,-0.00319982
-0.0540351,-0.00312477
-0.0495436,0.0125665
0.000801562,0.0154952
0.0305525,0.00623562
0.056382,-0.00359277
0.0488956,0.00327501
0.0317584,0.0104107
0.0217694,0.0281124
0.0074915,-0.0107394
-0.0240966,-0.0411001
-0.0794342,-0.0212463
-0.111019,-0.000411976
-0.101521,0.0304777
-0.0563928,0.0373145
-0.0124894,0.0771488
-0.00514554,-0.0573973
-0.012431,-0.0912848
0.000327318,-0.0149658
0.0173215,0.0068521
0.0210317,0.00271145
0.0357765,-0.0102126
0.0432426,-0.0148253
0.0291027,0.0508657
0.0141936,0.0715678
0.00731924,-0.0273425
6.27e-05,-0.0512716
0.0279278,-0.0216261
0.0599571,-0.0120398
0.0285822,0.00186381
0.0189896,0.0408034
0.0259514,0.0595972
0.000671362,-0.0216643
-0.0147613,-0.0260356
-0.00177265,-0.0227177
0.0198451,-0.0500226
0.0318154,-0.0354507
0.0114039,-0.00662817
-0.0400349,0.0530683
-0.0829816,0.0477564
-0.0960265,0.0152629
-0.0808612,0.0239136
-0.0990046,-0.00409946
-0.0094117,-0.0521723
0.0535898,0.0217104
0.0545866,0.0325097
0.0602265,-0.0616808
0.0209867,-0.0543047
-0.0423905,0.0193589
-0.0153708,0.0473372
0.0262762,-0.0024596
0.0282993,0.0466308
0.0559951,0.0394876
-0.00728592,-0.0415648
-0.048888,0.00059569
-0.0696692,0.0338662
-0.109409,-0.0111418
-0.0733815,-0.00598952
0.0161374,-0.00460116
0.0372822,-0.011888
0.108281,0.00298175
0.185087,0.00689014
0.114464,-0.0107408
0.0332875,0.00549372
-0.0399533,0.0248703
-0.0783006,-0.0189964
-0.0809105,-0.0420845
-0.0705692,0.00143074
-0.0289449,0.0434759
0.038945,0.0565847
0.0850023,0.0194356
0.0593839,-0.0519795
0.049688,-0.0054609
0.0469824,-0.0210473
-0.0113449,-0.0487292
-0.0364558,0.00361486
-0.0533465,0.0485195
-0.0637717,-0.0122021
-0.01992,-0.0279896
0.00286013,-0.00517555
0.0137917,-0.0066821
0.00539011,-0.0166779
-0.075042,-0.0308448
-0.113256,-0.0423732
-0.0274793,-0.00717474
0.0817751,0.0316676
0.149602,0.0258849
0.149244,0.0372506
0.0932826,0.0380753
0.00242149,0.0126187
-0.0485692,0.0220014
-0.0770003,-0.00689672
-0.101172,-0.0437771
-0.0849052,-0.0216972
-0.00519401,0.00183526
0.0338957,0.00392083
0.0225492,-8.64e-05
-0.015178,-0.0117206
-0.104138,-0.0023937
-0.145987,0.000928486
-0.0720301,-0.00566164
0.00513286,-0.0131308
0.0664842,0.00890269
0.120885,0.0415777
0.15856,0.0234854
0.150021,-0.00891816
0.12215,0.002386
0.0724808,-0.00016303
-0.0159042,-0.03039
-0.064765,-0.0206922
-0.0596723,0.0279987
-0.0789534,0.0498725
-0.12314,0.00568988
-0.124759,-0.0172649
-0.0845634,-0.00168137
-0.0197831,0.00897553
-0.0018392,-0.011641
-0.0357664,-0.0204862
-0.0446335,-0.0252635
-0.0265428,-0.0206132
0.00859623,-0.00423148
0.0219151,0.0143719
0.0153996,0.0163037
0.0198353,-0.00679836
0.0429364,-0.0138739
0.0613464,-0.017598
0.0702259,0.0018042
0.0822516,0.0218817
0.0572679,0.0239381
0.00874004,0.00882526
-0.0091835,-0.0104847
0.0197479,-0.00621298
0.0535566,-0.00755613
0.0645427,0.00696007
0.0103043,0.0286977
-0.0547027,0.0393382
-0.0500434,-0.0102933
-0.0170133,-0.0472976
0.0171483,-0.0260176
0.0299221,0.00982624
-0.00967049,0.0141566
-0.0693643,-0.0305159
-0.0979639,-0.00416013
-0.087114,-0.0103992
-0.064888,-0.0414068
-0.0606801,0.00766993
-0.0397607,0.106879
0.0330783,0.0179793
0.0897672,-0.0253582
0.11058,0.0218475
0.0806002,0.00425965
0.0319741,-0.0224254
0.0251079,-0.0150807
0.000220184,0.00392063
-0.0468094,0.00500984
-0.0523038,0.0074542
-0.0067729,-7.52e-05
0.0331803,-0.0310782
0.0159932,-0.00849101
-0.0227629,0.014575
-0.0123053,-0.0155512
0.0534913,0.0104202
0.0299924,0.0198218
-0.0311839,0.0427939
0.0140635,-0.00807029
0.0524675,-0.0569619
0.0100423,-0.0183269
-0.0356518,0.00341636
-0.0402051,0.0102173
-0.0078992,0.0156941
-0.0478396,0.0247615
-0.0964815,-0.0121112
-0.108368,-0.0229186
-0.0563993,-0.00345941
0.0260511,-0.0356864
0.00512637,-0.034286
-0.004548,0.00175777
0.0605031,0.0554121
0.102032,0.042699
0.0901605,0.0121852
0.0708228,-0.00531664
0.0671748,-0.00749419
-0.00410768,-0.000211321
-0.0838127,-0.00432629
-0.0498488,-0.00838188
-0.00314757,0.0257273
0.00264733,0.0294964
0.00886048,-0.0222999
0.0162296,-0.040184
-0.00115153,-0.00056409
0.00410793,0.0275924
-0.00742534,-0.0118301
-0.0111612,-0.0134814
0.00257055,0.0374568
-0.00278491,-0.0340518
-0.0105599,-0.0426041
0.0452953,0.0182788
0.0747224,0.0337056
0.0164493,-0.0209342
-0.109432,-0.021566
-0.101803,-0.0152271
-0.0363256,-0.0160984
-0.0245092,-0.00220317
0.00728819,0.0171357
0.013804,0.0105803
0.0112151,0.0168091
-0.00754819,-0.017187
-0.0546131,-0.0450675
-0.0736653,-0.0324845
-0.077554,0.0025214
-0.0143724,0.0351294
0.0525712,0.0679974
0.096432,0.107742
0.111316,0.0198441
0.0841662,-0.0408541
0.0809553,-0.0195681
0.0723618,-0.0128169
0.0257687,-0.0198484
-0.0342502,-0.0263299
-0.0245234,-0.0069079
-0.0149523,0.0305638
0.0182233,0.0200201
0.0473885,-0.0387286
0.0516947,-0.0474656
0.0500571,-0.00951364
0.00770919,0.0190124
0.00250152,0.00238738
-0.0250442,-0.00884434
-0.0940118,-0.00835309
-0.140124,-0.0345731
-0.086485,-0.0186222
-0.0251352,0.0125364
0.00195298,0.02209
0.0183318,0.0311869
-0.00705525,0.0560902
-0.0278165,0.0445246
-0.0171064,-0.00720702
0.0149032,-0.00649939
0.0108594,0.0420246
-0.0267424,0.0626552
-0.0249823,-0.00995117
-0.0322123,-0.0550001
-0.0501296,-0.0583227
-0.025169,-0.00118851
0.0283316,0.0269436
0.0398587,-0.00359961
0.0571132,-0.0454389
0.0853542,-0.0572274
0.115869,-0.0222544
0.0760622,0.040365
0.0372812,0.0281651
0.000374045,0.0116143
-0.0263638,0.00111575
0.000284944,-0.00898604
-0.0122899,-0.0117929
-0.0487905,-0.0256004
-0.0335355,-0.0229687
-0.0717775,0.0477708
-0.136749,-0.00861951
-0.132619,-0.0234714
-0.0824184,0.0219334
-0.0346957,-0.0122881
0.042603,-0.0623183
0.0923219,-0.0182993
0.0715266,0.0195837
0.0390817,0.0155759
0.00230618,0.00140932
-0.0208876,0.0250542
-0.029162,0.0422069
0.00719521,0.00486577
0.0663588,-0.0168878
0.0770831,0.0208508
0.0330573,0.0362724
0.000667951,0.0010391
-0.0326088,-0.0129044
-0.0817648,-0.0250605
-0.0718518,-0.026394
0.0551104,0.00658502
0.133971,0.0747712
0.100692,0.110057
0.0790927,-0.0530702
0.0450458,-0.0797458
-0.0145872,-0.024797
-0.0514231,-0.0167898
-0.0997631,-0.0187325
-0.118052,0.000180222
-0.0470645,0.0145221
0.0219599,0.000483918
0.0425834,0.00267625
0.0567106,-0.0240817
0.0341125,-0.0452752
-0.0129724,-0.0243872
-0.00612172,-0.00368415
0.0610467,0.00404931
0.0875335,0.00876074
0.051929,0.0414631
0.00877106,0.051662
-0.0725626,0.0216096
-0.143247,-0.00262002
-0.180964,0.0215751
-0.131415,0.0390099
-0.0377297,0.00552301
0.0603716,-0.00542411
0.0830501,-0.0071715
0.0326897,0.00437756
-0.00695334,-0.0140101
0.012639,-0.0360819
0.0355113,-0.0496514
0.0051285,-0.0402402
-0.0156866,-0.0106157
-0.0134615,0.00121614
0.0379679,-0.0240775
0.0504888,-0.00165643
0.0343507,0.110874
0.0101083,0.111901
-0.00216076,0.00176802
0.00657995,-0.0370352
0.0117991,-0.0301437
0.0310105,-0.0328613
0.0828028,-0.00438788
0.0950433,0.0215639
0.0361932,0.0203721
-0.0120455,0.00626685
-0.0360953,-0.0268149
-0.0906835,-0.0256536
-0.116155,-0.00767002
-0.0712494,-0.0117299
-0.00499215,-0.010277
0.00912246,0.0248572
0.0141887,0.00449885
0.0456611,0.0237069
0.040788,0.0106748
0.0103276,-0.067711
-0.00626461,-0.0490356
-0.0226533,-0.00436069
-0.0243916,0.0238341
0.0117112,0.0264675
0.0156282,0.0127694
-0.0369546,0.00514107
-0.0817585,0.00591797
-0.0862021,-0.00388152
-0.0780842,-0.00463879
-0.045988,-0.00244527
0.0153449,-0.00578642
0.0581719,-0.0113733
0.0823622,-0.0035369
0.0752949,0.0127982
0.0554971,0.0195258
0.0295898,0.00223927
0.0145048,-0.0260992
0.0343689,-0.015154
0.0490609,-0.0250549
0.042939,-0.0240196
0.0343496,0.00306429
0.0137246,0.0241658
0.0106938,0.0299252
-0.0361407,0.0265207
-0.0891184,-0.00841073
-0.114735,-0.0112959
-0.0999462,-0.0196078
-0.048168,-0.0172343
-0.0105679,0.0708295
0.0181406,0.0705115
0.0478018,-0.0456841
0.0227111,0.00610622
-0.0113665,0.0393492
-0.0248757,-0.0381858
-0.00950159,-0.0611438
0.00362086,-0.0271479
0.0212609,0.00516638
0.0410098,0.0183777
0.0345824,0.0160553
0.017824,0.00291806
0.00678618,-0.00799184
-0.0125619,-0.00853966
-0.0190716,0.00544078
-0.0129912,0.0352927
0.00976249,0.0222884
0.017126,-0.0122876
0.00163272,-0.0162327
-0.000451629,-0.00949738
0.0185764,-0.00645208
0.0251418,-0.00851075
0.029068,-0.00993088
0.0252958,-0.00573562
0.0190314,-0.00465787
0.010693,0.000527274
-0.0172876,0.022848
-0.04936,0.0319934
-0.0553912,0.008302
-0.0399411,-0.00922891
-0.00834194,-0.0113441
-0.00968854,-0.00773946
-0.00519821,-0.0056967
0.00327338,-0.00183237
0.00239723,-0.010224
0.00849232,-0.0135669
0.0277841,-7.36e-05
0.0245455,0.0040174
0.00219779,-0.00334219
-0.00958348,-0.00548769
-0.0237635,0.00712653
-0.012043,0.0100552
0.0391317,0.00109135
0.0645617,-0.0182932
0.0260989,-0.011329
-0.0133546,0.00932767
-0.025767,0.0181232
-0.0305034,0.0375342
-0.0288643,0.0284711
-0.00849597,-0.0141529
0.00868834,-0.012189
0.00995637,-0.00697066
0.00575753,-5.71e-05
-0.00268828,-0.00577494
-0.0139698,-0.00830373
-0.0229486,-0.00805144
-0.0165765,-0.0137835
-0.00651332,-0.00287352
0.0281719,0.00811399
0.0494494,0.0133205
0.0330448,-0.000855359
0.0128518,-0.00881123
0.00392713,-0.00681694
-0.007182,-0.00873665
-0.0242087,-0.0133724
-0.0237953,-0.00959144
-7.01e-06,0.00202677
0.00880428,0.00740232
0.000538991,0.00427448
-0.0051795,0.00469038
-0.0173235,0.00193824
-0.0318496,2.6e-05
-0.0316433,0.0020393
-0.018124,0.00424474
-0.00238494,0.00618823
0.0284255,0.0123369
0.0424201,0.015364
0.0224546,0.00997436
0.00656644,0.00325058
0.000305889,-0.00143571
-0.00920648,-0.00864618
-0.00696719,-0.0112533
0.0283845,-0.0044352
0.0795469,0.00507771
0.0847238,0.00468482
0.0593948,0.00216948
0.00764314,0.00174238
-0.0544704,-0.000695452
-0.0959909,-0.00666623
-0.105514,-0.00754305
-0.0931602,-0.000988957
-0.0476181,0.00274784
0.018741,0.00157099
0.0410739,0.00522442
0.0239719,0.00586964
0.0101804,-0.00541011
-9.39e-05,-0.0108445
-0.0159699,-0.0085259
-0.0304281,0.00673711
-0.0142401,-0.0104658
0.00661198,-0.0138322
0.00313383,-0.00256631
0.00408761,0.00335397
0.00409619,0.000854487
-0.00455944,-0.00413651
-0.0105991,-0.00468361
-0.00403292,-0.000689539
0.000690665,0.000519915
0.022351,0.00832472
0.0442546,0.0257065
0.0367435,0.022464
0.018373,-0.000707093
0.00423592,-0.0014637
-0.0112911,-0.00504186
-0.0289636,-0.0130138
-0.0334872,-0.00669604
-0.000859173,-0.00147616
0.0528241,-0.00547684
0.0706278,-0.000951421
0.0647373,0.00946609
0.0471447,0.00903434
0.00520293,-0.00770319
-0.044546,-0.00639707
-0.0732366,0.0244837
-0.0635285,0.0191121
-0.018696,-0.00910129
0.0130077,-0.0140588
0.015822,-0.000423022
0.0410286,0.00128416
0.0628715,-0.0172785
0.042359,-0.0179992
0.0278079,-0.0185137
0.023826,-0.0149308
0.024939,-6.47e-05
-0.0262149,0.0230262
-0.0947629,0.0245793
-0.114971,0.0172215
-0.104804,0.0193345
-0.102887,0.0265988
-0.0901135,-0.0023734
-0.0587671,-0.0324708
0.0110996,-0.0258734
0.102346,-0.00800684
0.134876,0.00336178
0.125876,-0.00227988
0.112558,-0.00551252
0.0656659,-0.00127036
-0.0202679,0.000981339
-0.10074,-0.00201328
-0.0987268,-0.000134254
-0.0627595,0.0108548
-0.0594866,0.0388727
-0.0426534,0.00967115
-0.016327,-0.0139862
0.00825721,-0.00923578
0.0424377,-0.00706174
0.0676813,-0.00640143
0.0771215,-0.00922137
0.0925836,0.00389284
0.0797449,0.0051749
0.00749591,-0.00336787
-0.0704106,-0.00679511
-0.089518,-0.00497743
-0.0842131,0.00456373
-0.074992,-0.00383639
-0.0387374,-0.00343687
0.0360501,0.00161557
0.0954284,0.0026879
0.0821807,-0.00295761
0.0565904,0.00575828
0.00961405,0.00152546
-0.0451724,-0.00577914
-0.0739323,-0.00798954
-0.0590013,0.00396424
0.0117982,0.018122
0.0951651,0.000995467
0.125171,-0.0133851
0.0872031,0.00531813
0.0175079,0.0260805
-0.061534,0.0257864
-0.115962,-0.00289649
-0.105841,-0.0264369
-0.0330159,-0.0109654
0.0497694,0.0117962
0.0824232,0.0134818
0.0562935,-0.012765
-0.00982181,-0.0157524
-0.0702317,-0.0103012
-0.100461,-0.0043887
-0.0799087,5.04e-05
-0.0383937,-0.000373021
0.0090776,0.00133657
0.0533884,0.00610876
0.0451863,0.000174039
0.00880701,-0.0109762
-0.0109101,-0.0112501
-0.0281388,-0.00162557
-0.0448176,-0.00263061
-0.0452795,-0.00646698
-0.0218069,-0.00486228
0.000627493,0.00433342
-0.000330582,0.0130317
0.0131603,0.00889425
0.0442623,0.0180844
0.0582887,0.00718895
0.0468792,-0.00755197
0.0819942,0.0015096
0.154967,-0.00225069
0.174941,-0.00111229
0.168141,0.00643835
0.104234,0.00397581
