Comp Ch 3,Comp Ch 4
0.110357,-0.0010888
0.111487,-0.0080297
0.0916447,-0.0043153
0.0560552,-0.00786959
-0.0011283,-0.0117521
-0.0553106,-0.0233909
-0.106411,-0.0226898
-0.127242,-0.0179855
-0.08523,0.00390725
-0.0428727,0.0828668
-0.037263,0.0475096
-0.0334266,-0.041593
-0.0374769,-0.034862
-0.059279,-0.0264054
-0.0781028,-0.0281916
-0.0404304,-0.0150655
0.0387942,0.00239686
0.0770657,0.00232401
0.0753033,2.68e-05
0.0312934,0.0156917
-0.0251173,0.0338553
-0.0504273,0.00365603
-0.0285966,-0.0185089
0.00136065,-0.0172815
0.0487747,-0.00751072
0.102238,0.00581327
0.0934244,0.0290883
0.0335744,0.0403014
-0.0119414,0.0188822
-0.04309,-0.00415974
-0.0563987,-0.0333515
-0.0629097,-0.0548774
-0.0423285,-0.0114442
-0.00691933,0.0187103
0.00572545,0.00504485
0.00695776,0.0118037
0.0019292,0.0148574
0.00624895,0.017257
0.00627465,0.0144043
0.0201846,0.00991264
0.0283143,0.0105045
0.0719045,0.0166085
0.114747,0.0146588
0.105611,0.00512912
0.0779828,-0.00108779
0.0618856,-0.00441788
0.0575446,-0.0153521
0.0228105,-0.0294197
-0.0282357,-0.0200288
-0.0655939,0.0172008
-0.122591,0.0236524
-0.142369,-0.000670971
-0.127151,0.00666242
-0.0946403,-0.0041341
-0.0650368,-0.0205972
-0.0339939,-0.0222799
-0.00271324,-0.0140357
0.021481,1.07e-05
0.0535432,0.0129376
0.0588487,0.0255287
0.0307646,0.0126773
0.0172553,-0.0456499
0.0109347,-0.0320954
-0.01623,-0.0276803
-0.0460256,-0.0357424
-0.0258117,-0.00694868
0.0798202,0.03691
0.160307,0.0486511
0.160647,0.0534623
0.0967763,0.0295132
-0.0204699,-0.0228112
-0.106732,-0.0377916
-0.108106,-0.0271835
-0.041205,-0.00421109
0.0472808,0.0429635
0.0929442,0.0487546
0.0403598,-0.0217337
-0.0550107,-0.0101755
-0.0864249,-0.0151631
-0.0862807,-0.0212895
-0.0949614,-0.0143719
-0.103448,-0.00319134
-0.0805049,-0.00389741
-0.0577475,-0.00855954
-0.0265118,-0.00192769
0.00282352,-0.00515393
0.0140171,-0.00283095
0.0143227,0.0124347
0.0231902,-0.00417884
0.0410221,-0.0033115
0.0574683,0.00153656
0.0841808,0.00556546
0.101881,0.0193053
0.0789337,0.051801
0.038741,0.00902846
0.0108108,-0.0599585
-0.0269338,-0.0151999
-0.053124,0.0509867
-0.0483944,-0.00090851
-0.0155386,-0.0555269
0.00102629,-0.0309495
-0.00635969,-0.00296048
-0.00984756,0.00072032
-0.0207035,0.00105122
-0.0298399,0.00444601
-0.0233377,0.0135894
-0.00873535,0.0140483
0.00437916,-0.00132584
0.0298031,0.00300774
0.0534028,0.00447281
0.046141,0.0133326
0.0358458,0.0423336
0.025326,0.0185402
-0.00655194,-0.0270325
-0.0172317,-0.0112472
-0.00368724,0.0100749
0.0168635,0.0125942
0.0141414,0.00582498
-0.0121844,0.100204
-0.0399818,0.0369353
-0.0595866,-0.0685543
-0.062361,-0.05201
-0.0455713,-0.0245602
-0.0233705,-0.0221818
0.00698531,-0.016194
0.046599,0.00203427
0.0560962,0.00328794
0.0346476,0.0129912
0.0206748,0.0143525
0.0139499,-0.000207504
-0.00917185,-0.00672317
-0.0292302,-0.0082572
-0.0199837,-0.00378934
-0.00252362,0.00152357
-0.0136592,0.0187844
-0.0253888,0.0085873
-0.029939,-0.0116813
-0.0338325,-0.056564
-0.0324454,-0.0377712
-0.0108366,0.0537096
0.0236223,0.0137431
0.064635,-0.0311425
0.119431,-0.0141673
0.149771,0.0122705
0.127169,0.0128087
0.0572271,0.00862407
-0.0374466,0.00311699
-0.120257,-0.00541694
-0.131614,-0.00325138
-0.0939901,0.00770049
-0.0441724,0.00624067
-0.0132641,-0.000111177
0.0106166,0.000947856
0.0160093,-0.00218375
0.000595217,-0.00465757
-0.0270068,-0.0067993
-0.047304,-0.00060306
-0.0333757,0.0296334
0.00375483,0.0297058
0.025747,0.00323976
0.0175727,0.0034898
0.0154714,-0.000537425
0.0201568,-0.00489768
0.0122225,-0.0056021
-0.00702131,0.00504625
-0.00303494,-0.00794494
0.0246773,-0.0252473
0.0264338,-0.0104605
0.0157497,0.0056029
0.0172242,0.0193472
0.00866053,0.00653836
-0.0027187,-0.00531678
0.00247504,0.00940839
0.0021447,-0.00931169
-0.00517594,-0.0324872
-0.0109661,-0.0102913
-0.0172404,0.00770911
-0.0170905,-0.013276
-0.00950602,-0.0142414
-0.00430537,0.00120176
-0.000638796,-0.00149305
-0.00640444,0.00489204
0.000890311,0.0189809
0.0123988,0.00549271
-0.00023907,-0.00803044
-0.00437968,-0.0163291
-0.0188687,-0.00740934
-0.0268998,-0.00734131
-0.00925345,0.00772117
0.0226662,0.040043
0.0365812,0.0233245
0.0519421,-0.000214065
0.0519232,-0.00825237
0.0234579,-0.0163892
0.00179467,-0.0224315
0.00962739,-0.0206717
0.0204867,-0.0161159
0.0159771,-0.00883932
0.00206124,0.010226
0.00132258,0.0250807
-0.00678824,0.00928084
-0.0336367,-0.00469373
-0.0560838,0.0255682
-0.0641036,0.0188746
-0.0552881,-0.0202774
-0.0397524,-0.0158176
-0.019737,1.37e-05
-0.00673091,-0.00673768
0.0204164,0.0119612
0.0391653,0.0478037
0.0278847,0.023155
0.0117217,-0.0186012
-0.00425698,-0.000965203
-0.0257811,0.0370789
-0.0358011,0.0206479
-0.0110643,-0.0473682
0.0181649,-0.0474193
0.0230294,-0.0277369
0.016733,-0.0201938
0.0134426,0.0158609
0.0049354,0.0295333
-0.00670879,0.0234414
-0.00205196,0.00609851
0.009716,-0.00593109
0.0207027,-0.00168757
0.0413789,0.0377992
0.0539788,0.0286992
0.0428192,-0.0111686
0.03512,0.000761655
0.0300093,0.0279185
0.000567493,0.0121254
-0.0426045,-0.0418354
-0.0698411,-0.0307123
-0.0816432,0.0488804
-0.0685248,0.0483662
-0.00483785,-0.0571147
0.0499791,-0.0529067
0.0399856,-0.0199826
-0.0111,-0.00966838
-0.0366059,-0.017868
-0.0474626,-0.019931
-0.035463,0.0122619
0.00564344,0.0218337
0.0112884,-0.0108533
0.00895525,-0.0279608
0.0303796,-0.0178091
0.0372697,0.00674307
0.0409588,-0.00284217
0.0343967,-0.0126102
0.0426183,0.000345584
0.0546748,0.00770912
0.0293383,0.00393118
0.0141504,-0.00164789
-0.00858807,0.000266029
-0.0625629,0.020237
-0.10161,0.0273063
-0.102767,0.00581093
-0.0721971,-0.0165893
-0.0260634,0.00438791
0.0167987,0.017339
0.0372836,-0.00142555
0.0424011,-0.00712746
0.0436692,0.0106649
0.0175948,0.0154732
-0.0338759,-0.00718333
-0.0554163,-0.0179099
-0.0347972,-0.00896245
0.00127124,-0.00323425
0.0266274,0.0156599
0.0343002,0.0123036
0.0367469,-0.0120808
0.042856,-0.0363991
0.0356165,-0.0194541
0.0135333,0.0210143
0.00257653,0.0193974
0.0199126,0.0257222
0.0289423,0.0320911
0.0176383,0.0175207
0.000646851,0.00168734
-0.00970083,-0.009894
-0.0284895,-0.0184142
-0.0549972,-0.0305044
-0.0600903,-0.01898
-0.0427494,0.0493483
-0.0186524,0.0592408
0.0092045,-0.0133493
0.0319916,-0.0267781
0.0227617,-0.0110259
0.000708282,-0.0215423
-0.00514702,-0.0285659
-0.0133472,-0.0196588
-0.0101933,0.0323852
0.0201446,0.0329205
0.018102,-0.00646666
0.00163457,-0.0185286
-0.00588541,-0.0125241
-0.0211862,-0.0141751
-0.0411493,-0.0175455
-0.0418213,-0.0147014
-0.0122539,-0.00091761
0.0154018,0.00962714
0.0220791,0.00577347
0.0379193,0.00816634
0.0272966,0.00917699
0.0154975,0.0161546
0.026916,0.0126296
0.0315467,0.00403723
0.0124914,-0.00233599
0.0160122,0.00384944
0.026155,0.00742336
0.0117802,0.0158079
0.0103835,-0.000970183
0.0249424,-0.0129135
0.0216253,-0.00561325
0.00903523,-0.00750744
-0.00580317,-0.00514793
-0.0214264,0.00790702
-0.0449407,0.0118662
-0.0506722,0.0130201
-0.0389058,0.0118205
-0.0292045,-0.00167933
-0.0222452,-0.00624567
-0.00905285,-0.00138939
0.000523472,-0.0046972
0.00551789,-0.00990685
0.0378921,-0.00174959
0.0588422,-0.00205667
0.0288306,-0.00544886
-0.0197219,-0.0039234
-0.0478007,-0.0166661
-0.073026,-0.0179395
-0.0963028,-0.00138729
-0.0658774,0.0022037
0.000420783,0.0100781
0.0450748,0.0230822
0.0926229,0.0319695
0.126615,0.00371646
0.104882,-0.0104914
0.0555269,-0.0256392
-0.00223269,-0.00622547
-0.0553685,-0.0174618
-0.0540704,-0.0237233
-0.0104177,0.0449733
0.0370779,0.0129299
0.0699897,-0.0494226
0.0674884,-0.0210028
0.0190643,-0.00683695
-0.0529787,-0.00536789
-0.104411,-0.00536016
-0.109724,7.58e-05
-0.094037,0.0310453
-0.0731926,0.0453229
-0.0385786,0.0117408
-0.00414206,-0.0133267
0.0118918,-0.0111608
0.018354,-0.00475782
0.0172951,0.000470999
-0.000925292,0.011471
0.0030984,0.0271153
0.0233448,0.022028
0.0107674,0.0119974
-0.00434064,-0.0182772
-0.00583062,-0.0275747
-0.0176389,-0.0241554
-0.0362905,-0.0260448
-0.0268049,-0.0185223
0.0243402,-0.00531059
0.0643266,0.00724094
0.0758111,0.0126729
0.0739212,0.0118466
0.0498482,0.0125746
0.0218907,0.00707366
0.00628626,-0.00940062
0.00487745,-0.00882972
0.00793042,0.0143015
0.0282597,0.00377921
0.0251411,-0.0109355
-0.00976436,-0.0257591
-0.040208,-0.0113615
-0.0607169,0.0039737
-0.0774871,-0.00574953
-0.0695553,-0.0100161
-0.0153122,0.0228389
0.0495545,0.0406492
0.062851,0.0677344
0.0491639,0.0685043
0.0333038,-0.0264526
0.00471305,-0.0278287
-0.0312591,0.0056018
-0.0422305,0.00683113
-0.0329696,0.00659663
-0.00623161,-0.025291
0.0278128,-0.0379461
0.0304722,-0.0132606
0.0019984,0.00480152
-0.0241984,-0.00911021
-0.036129,-0.0255735
-0.0508675,-0.021604
-0.0503567,-0.0127382
-0.00408571,0.00443212
0.0428563,0.00942256
0.0566196,0.000883041
0.0784563,-0.00304107
0.0778377,-0.0066519
0.0480817,-0.0060244
0.00936266,-0.013544
-0.0200065,0.00681336
-0.0532252,0.0243026
-0.0415472,-0.00580139
-0.0209951,-0.00550338
-0.0291425,0.0167028
-0.041567,0.0131948
-0.0367024,-0.011817
-0.0414966,-0.00837223
-0.0496133,0.0069293
-0.0304852,0.0172792
0.0124416,0.024005
0.029964,0.0186984
0.0287616,0.00630424
0.0539679,0.00101551
0.0742229,-0.00632119
0.0599609,-0.0121157
0.060206,-0.00599284
0.0429219,0.00656938
-0.00478009,0.00245201
-0.0157072,0.00203742
-0.019558,0.00292338
-0.0358355,-0.0139621
-0.0490518,-0.0230773
-0.0644164,-0.0299379
-0.0978734,-0.0301128
-0.102993,-0.00619791
-0.0422048,0.0116906
0.0322621,0.0179656
0.0576134,0.0172701
0.0546142,0.0351204
0.0418228,0.0233916
0.0137377,-0.0137137
-0.00944127,-0.00956299
-0.0101667,0.0139749
-0.0109053,0.0297893
0.00296936,0.00774449
0.0284103,-0.0297239
0.0163033,-0.0160349
-0.0136376,-0.00535544
-0.0227821,-0.0129172
-0.0374833,-0.0211199
-0.0582457,0.000867829
-0.0438015,0.0125964
0.0174635,-0.0100203
0.0691833,-0.00485651
0.0753903,-0.000241442
0.0666471,-0.00674919
0.0590085,-0.0115332
0.0467037,-0.0253369
0.0229752,-0.029361
0.010234,2.01e-06
0.017566,0.09706
0.0652368,0.127426
0.088153,-0.0320255
0.0298889,-0.055623
-0.0527777,-0.0222452
-0.0974359,0.000315208
-0.124266,0.0166047
-0.144678,-0.0214602
-0.116178,-0.0360002
-0.022055,-0.0144569
0.0357079,0.00609934
0.0393667,0.0138267
0.0328436,0.00721642
0.0187226,-0.00178085
-0.00311712,-0.00750849
-0.00918002,-0.0116269
-0.00370343,-0.0189738
-0.00922446,-0.0203223
0.0134672,0.00422704
0.0246337,0.0307412
0.00170078,0.0395177
-0.00131424,-0.00876431
0.00843814,-0.0564442
-0.00782987,0.016626
-0.0328504,0.066564
-0.0173458,0.0365781
0.0228501,-0.0173118
0.0336086,-0.0339765
0.0352843,-0.018534
0.0332721,-0.0126533
0.00456735,-0.00571903
-0.02016,0.00176955
-0.0106914,-0.0104299
0.00561824,-0.0253547
0.0199092,-0.00766098
0.0470867,0.0312526
0.0475417,0.0450272
0.0162396,0.00504105
0.00565576,-0.0132498
-0.000110977,-0.000286297
-0.0270937,0.000694224
-0.037481,-0.0389795
-0.00202938,-0.0172361
0.0263998,0.0228671
0.0326148,0.0305885
0.0232203,0.0383254
-0.0117042,0.0235054
-0.0527354,-0.011324
-0.0665623,-0.0210673
-0.0578324,-0.018104
-0.0545531,-0.0243346
-0.0128471,-0.0088439
0.0261957,0.0149592
0.0201593,0.026464
0.00696617,0.0258112
0.0135269,0.0160804
-4.63e-05,-0.00342323
-0.0323729,-0.00996277
-0.0366303,0.00097978
0.0122525,0.00649502
0.0650789,-0.00382406
0.0723485,-0.0126813
0.0547179,0.00148551
0.020899,0.00120092
-0.00236622,-0.0163944
-0.0240822,-0.0361952
-0.0270749,-0.0376682
-0.0350484,-0.000709018
-0.00239361,0.0220524
0.0318697,0.0201931
-0.00935076,0.0176501
-0.0563498,-0.00464534
-0.0454085,-0.0220374
-0.0587502,-0.0126427
-0.0695509,-0.00974341
-0.0380947,-0.0146413
0.0103713,0.0106266
0.0239494,0.021191
0.0450101,0.04071
0.0546995,0.0235158
0.0392668,0.021515
-0.00185655,0.0131344
-0.0357553,-0.0543572
-0.0470337,-0.0705611
-0.0115612,-0.0209842
0.062104,0.0207561
0.0888703,0.0178991
0.048132,0.0127553
0.0029272,0.0269062
-0.0360853,0.0330321
-0.06183,-0.0172825
-0.0557529,-0.0554435
-0.0124088,-0.0204336
0.0289491,0.0193897
0.0436434,0.0346315
0.0740386,0.0206326
0.0699096,-0.0168504
0.0210651,-0.0191626
-0.0223073,-0.0083258
-0.0474603,-0.0194392
-0.0653647,-0.0275064
-0.0793772,0.0216764
-0.0652193,0.00548723
-0.0502458,-0.00361378
-0.000250965,-0.00961097
0.0247651,0.000552786
0.0147138,0.00904528
0.0223832,-0.00541312
0.0708817,0.0455184
0.102655,0.0947425
0.0830483,0.0576108
0.0649178,-0.0193725
0.0211396,-0.0463189
-0.0202228,-0.0562465
-0.0445704,-0.0336611
-0.0726744,0.00247788
-0.0901332,-0.00171566
-0.0481382,0.00109094
-0.00758001,0.0123046
-0.00510528,-0.00974098
-0.00681755,-0.0381203
-0.00576078,0.0157069
0.010522,0.0701651
0.0555254,-0.000319231
0.117538,-0.021692
0.13714,-0.00784027
0.0535515,0.00248795
-0.0439059,0.0408624
-0.0582136,0.0253597
-0.0284605,-0.0256145
-0.0175431,-0.0276291
-0.00997991,-0.00938967
-0.00658935,-0.00772308
-0.00595979,-0.0196115
-0.0175412,0.00461266
-0.0576367,0.0159656
-0.0954207,0.00588193
-0.0747218,-0.0290947
-0.0452305,-0.0261448
-0.0421523,0.0245669
-0.0137543,-0.00871994
0.0524321,-0.00592589
0.114667,0.0108341
0.129306,-0.00239732
0.120369,-0.012099
0.0733059,-0.00196291
-0.00639503,-0.00896493
-0.0514558,-0.0280535
-0.0784429,-0.00747377
-0.100027,-0.00822769
-0.0916304,0.0115148
-0.0364564,0.00722983
-0.000988401,0.0130907
0.019663,0.0251469
0.055802,0.00722133
0.045555,0.00391966
-0.0277443,0.0355419
-0.0628741,0.0348218
-0.0359671,-0.0531225
-0.00146959,-0.0808347
-0.00221297,-0.00687715
0.00318357,0.0647221
0.00745686,0.0680933
-0.044656,0.0266765
-0.135183,-0.0280938
-0.159635,-0.0400099
-0.148318,-0.0222586
-0.0446472,0.0248212
0.100532,0.0478359
0.188416,0.0114257
0.23145,0.0367049
0.21527,0.0320389
0.158297,-0.054182
0.0858061,-0.051488
0.0517511,0.00478982
0.0406946,-0.00258649
0.0151514,0.024965
0.00292466,0.0143147
0.0212936,-0.0175966
0.0652072,-0.00760318
0.0776995,-0.00611762
0.0347352,-0.029057
-0.0525861,-0.0292969
-0.133004,-0.0291442
-0.153985,-0.0253616
-0.122486,-0.0114601
-0.156948,0.0337374
-0.344819,0.0835871
-0.367829,0.0164247
-0.251823,-0.0576724
-0.0898191,-0.0551537
0.109297,0.0247922
0.253316,0.0457692
0.308065,-0.000742882
0.329633,0.00454235
0.248294,-0.0274997
0.0902935,-0.00516916
-0.0233849,0.0266482
-0.0685649,-0.00678403
-0.0989235,0.010165
-0.0623879,-0.00757722
-0.0134428,-0.0108833
-0.0445672,0.0663093
-0.0705197,-0.00357854
-0.0563037,-0.0742692
-0.00716584,-0.0435875
0.0296335,-0.0298357
0.0355225,-0.00817079
0.0758956,0.0202383
0.115152,0.0213291
0.0746503,0.0197207
0.0251031,0.00700283
0.00293549,-0.0154151
-0.0090737,-0.00911526
-0.00981236,0.00795899
0.0011219,-0.0124015
0.00500979,-0.0115476
0.017801,0.0269553
0.0711321,0.0660957
0.102748,0.0153528
0.0518301,-0.026256
-0.05171,-0.0270784
-0.161262,-0.0202947
-0.220807,0.000395112
-0.194105,0.0263791
-0.104911,0.0396208
-0.0406386,0.0502518
-0.0247629,0.030469
-0.0343056,-0.0244177
-0.0175284,-0.0409685
-0.00661664,-0.0148127
0.0244236,-0.0188565
0.0714086,-0.00295373
0.119173,0.00807965
0.128545,0.0121295
0.0716921,0.0181954
-0.0729068,-0.0159756
-0.151975,-0.0382308
-0.14144,0.00598351
-0.0410648,0.0527304
0.0568384,-0.00187671
0.140494,-0.0214674
0.161861,-0.0147189
0.0663367,0.0142748
0.0141498,0.0336951
-0.0297912,-0.0097807
-0.085916,-0.0236784
-0.0598959,-0.0167311
0.020789,-0.0137297
0.0828698,-0.0193964
0.0813952,-0.024988
0.0584679,-0.016963
0.013883,-0.0136159
0.00113836,-0.0125226
0.0571094,-0.0221207
0.0880176,-0.0479672
0.0651578,-0.0130515
0.029368,0.04098
-0.00903934,0.0589528
-0.0730326,0.0663959
-0.123551,0.0838046
-0.188082,0.038625
-0.255345,-0.0101307
-0.202186,-0.00969828
-0.0604211,-0.0203647
0.0965419,-0.0284562
0.165128,-0.0254433
0.228844,0.0222228
0.199128,-0.0195742
0.0889661,-0.0240422
0.0635194,0.00501103
0.0537996,0.0219985
-0.000863815,0.00710673
-0.0677144,-0.00667663
-0.0715486,-0.00826606
-0.0108079,0.00436954
-0.00443527,0.00618815
-0.0218295,-0.00515644
0.0118439,-0.0018952
0.0323752,-0.00507138
-0.0466137,0.0107008
-0.127157,-0.00586322
-0.0989244,-0.0797893
-0.0523452,-0.0444844
-0.0435968,0.0253284
-0.0558089,0.0406229
-0.107681,0.0644062
-0.113887,0.0263615
-0.0259843,-0.0304582
0.088475,0.0588872
0.156894,0.0993925
0.168567,0.072988
0.0935022,-0.0516867
0.0418295,-0.0862672
0.088125,-0.0683379
0.0186997,-0.073179
-0.0613044,-0.0503959
-0.0444101,-0.0289506
-0.00501606,-0.000810367
-0.0182295,-0.00332912
-0.014147,-0.0219172
-0.0288606,-0.0298213
-0.179432,0.0162007
-0.295646,0.0561809
-0.197478,0.0632702
-0.0582326,0.0552941
0.105019,0.0331195
0.232196,-0.0371701
0.269236,-0.0432545
0.286446,-0.0367029
0.204021,0.0171664
0.0370096,0.111325
-0.0566517,0.0248571
-0.10555,-0.0271011
-0.140467,-0.0462066
-0.119739,-0.00933632
-0.0574974,0.0213256
0.0383759,0.0235051
0.124295,0.00232307
0.160164,-0.0115455
0.139643,-0.0205912
0.0688017,-0.0152454
-0.0427335,-0.0183086
-0.10085,-0.0252013
-0.101224,-0.0189486
-0.0592612,-0.00956734
-0.0473901,0.00177081
-0.0728731,0.00336593
-0.112022,0.0161359
-0.160706,0.0366016
-0.175461,0.0386756
-0.17231,-0.00592641
-0.116244,-0.0111418
-0.0315579,-0.025551
0.118625,-0.0144725
0.158298,0.0272139
0.102452,-0.0122163
0.090064,-0.0437558
0.117397,-0.0172537
0.0986141,0.0416711
0.0665312,0.024692
0.0733678,-0.0219538
0.0483245,-0.00553476
0.00175134,0.0100609
-0.0607606,-0.0132166
-0.0389223,-0.0383524
-0.0293196,-0.0212662
-0.0536938,0.00949156
-0.0156125,0.0281107
0.0166812,0.0239889
0.0559089,0.00416801
0.100399,0.00959214
0.086882,0.0110912
0.0820674,-0.0501353
0.0466075,-0.000987512
-0.0322108,0.0477865
-0.0831364,-0.0195454
-0.0659619,-0.0127585
-0.0335614,0.0210676
-0.0168713,0.0452061
-0.0292764,0.0485642
-0.024877,0.0135274
-0.0390114,-0.0390136
-0.101867,-0.0242284
-0.164123,0.0656622
-0.143605,0.0412549
-0.0991407,-0.0380051
-0.0220263,-0.0461386
0.123628,-0.0159242
0.235243,0.000543108
0.194233,0.00210809
0.109831,-0.0148843
0.0261268,-0.0149764
-0.0287612,-0.0107401
-0.0744708,-0.0244832
-0.0651929,-0.0328827
0.0232811,-0.00565349
0.0396365,0.0454403
0.0150393,0.0971949
-0.0485371,0.0741679
-0.106109,0.00779822
-0.101418,-0.0560282
-0.0391945,-0.094006
0.0410557,-0.105485
0.0832986,-0.0173691
0.0778583,0.0494655
0.0563559,0.0542585
0.0290374,0.0528785
0.0495453,0.0102392
0.0276523,-0.0261876
0.020449,-0.0341141
-0.022127,-0.017887
-0.0565802,-0.00339308
-0.0768486,-0.0135262
-0.0432784,-0.0229981
0.00236101,-0.0197921
0.0181113,-0.00911433
-0.0455357,0.0370195
-0.0571514,0.0249114
-0.0376075,-0.0384018
-0.0137252,-0.042654
-0.0181122,0.0270857
-0.0391055,0.0415609
-0.0414276,0.0197911
-0.034373,0.0220709
-0.0181179,0.00561387
0.0227371,-0.0326005
0.0546083,-0.022987
0.0978106,0.0128686
0.12235,0.0366548
0.102802,0.0280405
0.0463934,0.0231138
-0.0293797,0.0256491
-0.0438857,0.00312102
0.00470079,-0.00382756
0.0174477,0.0318351
0.00522646,-0.0592326
0.0663226,-0.0110412
0.105282,0.0196056
0.085288,0.0177313
0.0550945,0.0185011
-0.00648626,-0.0248584
-0.0761154,-0.0581915
-0.133425,-0.065218
-0.163807,-0.0324006
-0.172518,0.0151144
-0.116275,0.0253895
-0.040672,0.00325776
0.0125107,0.0145114
0.0439449,0.0223588
0.00446208,-0.0081295
-0.0275386,-0.0325115
0.00690632,0.0226522
-0.00569204,0.0351382
0.0037004,-0.0163455
0.0669876,-0.0181043
0.0860148,0.000838884
0.0620593,0.041791
0.0519639,0.0201003
0.0239356,-0.0103746
-0.0234175,0.0151479
-0.0329123,0.0452568
0.00297073,-0.00547149
0.0142411,-0.0310427
0.0331983,-0.00584961
0.0449195,-0.0187617
0.0115491,-0.0297735
-0.0190368,-0.0222326
-0.028425,-0.000370649
-0.0343617,0.00678939
-0.0109836,-0.019858
0.0275431,0.0130458
0.0362198,0.0488944
0.0135049,0.0186517
0.00381607,-0.0288954
0.0277133,-0.0453417
0.0187197,0.0508506
-0.0110292,-0.0124752
-0.0255512,-0.0443073
-0.0544077,0.0275632
-0.0625337,-0.00950761
-0.0294115,-0.0502561
0.00913437,0.0284761
0.0774923,0.0921716
0.122091,-0.000154866
0.10267,-0.0329616
0.00292984,0.0342091
-0.0913189,-0.0321566
-0.13285,-0.0758085
-0.110537,-0.0476587
-0.064125,-0.0147885
-0.0457398,0.0197367
-0.0599229,0.0578105
-0.0617198,0.101277
-0.042837,0.0828882
0.0361536,-0.0348138
0.0946468,-0.02923
0.0963668,-0.026279
0.0846438,-0.0405707
0.0720526,-0.0581023
0.0329656,-0.011889
0.0107578,0.00503508
-0.0257615,0.0223206
-0.0429725,0.015411
-0.0182727,0.00158452
-0.00293195,0.0244823
-0.000239958,0.0150129
0.0283145,-0.00812994
0.0483411,-0.006708
0.0164387,0.0139502
-0.0352129,0.00463501
-0.0777022,-0.0415265
-0.0949289,-0.00751837
-0.0224095,1.2e-05
0.0463103,-0.00666494
0.0646865,0.00705622
0.0577435,-0.022379
0.058222,-0.0666191
0.0422284,-0.0233954
0.000336987,0.0173668
-0.0343347,0.0178504
-0.0434974,0.0529742
-0.0418021,0.11045
-0.00551676,0.101688
0.0396496,-0.0284936
0.0346003,-0.0510793
0.0208397,-0.0412908
-0.011279,-0.017854
-0.0340242,0.0342001
-0.036684,0.0568705
-0.0536213,0.00344848
-0.0417301,-0.0160503
-0.018648,-0.0390778
-0.0257218,-0.0411182
-0.0550786,0.00220139
-0.031693,-0.0443739
-0.0386469,-0.00324683
-0.0419251,0.0858715
0.0471637,0.0632698
0.156319,-0.050183
0.18909,-0.0618806
0.152373,-0.0159475
0.0896479,-0.00944124
0.0356478,-0.020747
-0.0144649,-0.0378199
-0.0294054,-0.0248278
-0.042562,0.00573894
-0.0420354,0.010915
-0.029308,-0.00545344
-0.0480152,-0.0200699
-0.0806829,0.019871
-0.102019,0.06503
-0.110258,-0.0128073
-0.13197,-0.0262987
-0.104217,-0.00805712
-0.0137968,0.00134375
0.103348,0.0251594
0.15928,0.00525465
0.167914,-0.0100141
0.14971,-0.0343445
0.0896416,-0.0141733
-0.0114374,0.0434957
-0.0978748,0.0727125
-0.126261,0.0246764
-0.117651,0.00585406
-0.085868,-0.0230574
-0.0722417,-0.0420768
-0.0614372,-0.0103421
-0.0286872,0.0111352
0.0367438,0.053024
0.0981752,0.0432868
0.114135,-0.033028
0.082382,0.00881861
0.0457271,-0.0181195
0.0269124,-0.0382113
-0.0029326,-0.00966697
-0.0582635,-0.0147012
-0.104169,0.0823897
-0.0593247,-0.00876202
0.0196422,0.0307008
0.0120246,0.0357982
-0.0121553,-0.113873
-0.016613,-0.0758454
-0.0389176,-0.0188165
-0.058807,-0.00474977
-0.062816,0.00398554
-0.00219765,-0.00159347
0.0489348,-0.00160387
-0.0210481,0.0338976
-0.0470554,0.0377239
0.0369497,0.0400059
0.169454,0.0318561
0.231593,-0.0168603
0.230631,-0.036266
0.238406,-0.0132955
0.153361,0.0367108
0.0766813,0.0407287
0.0107397,-0.0259234
-0.0649442,-0.0442831
-0.132821,-0.0366198
-0.169473,0.0036934
-0.192851,0.0535944
-0.226711,0.0387895
-0.239238,0.024244
-0.2364,-0.00027575
-0.188039,-0.0995931
-0.09445,-0.119564
0.00119198,-0.0516733
0.0648888,0.028443
0.0668453,0.0944664
0.0651237,0.0812014
0.11415,0.0188211
0.150044,-0.0134429
0.136977,-0.0183362
0.0818883,0.0410808
0.0458261,0.0528585
0.0659711,-0.0463386
0.0812582,-0.0823174
0.0570042,-0.0360305
0.000729112,-0.0118455
-0.0423982,0.0491767
-0.0446814,0.0610014
-0.011534,0.0382149
0.012491,0.0219942
-0.0115943,0.00217142
-0.0315076,0.0636111
-0.0186883,0.00382515
-0.0231409,-0.0883123
-0.0196822,-0.0342691
0.00564446,-0.0142976
0.01934,0.0686868
0.0198454,0.065543
-0.0006969,-0.102412
0.00561819,-0.091151
-0.0108901,-0.0258675
-0.0177154,0.0378556
0.0126677,0.0247654
0.0393349,-0.0699973
-0.0130548,-0.0393748
-0.0429585,0.0245323
-0.0660682,0.039078
-0.0820258,0.00487328
-0.0843294,-0.0115735
-0.0804976,0.0150541
-0.119887,0.0499825
-0.104297,0.0310063
-0.00496497,-0.011418
0.057272,-0.0453237
0.118062,-0.0289953
0.142096,0.0280833
0.16114,0.0103879
0.173139,-0.0241004
0.0884207,-0.0121025
-0.0279977,0.00809597
0.0154647,0.027778
0.130302,0.0626205
0.194336,-0.033733
0.229273,-0.0438525
0.216991,0.0238468
0.0556273,0.0157003
-0.181204,0.00447516
-0.309584,-0.0015746
-0.340637,-0.0668247
-0.316233,-0.0663909
-0.248597,-0.00569321
-0.0806246,0.0410391
0.00843078,0.0482635
0.0311529,0.0161023
0.068128,0.0512079
-0.0146144,0.0231212
-0.0448864,-0.0108734
0.0289208,-0.00045256
0.027613,0.0202866
-0.0197543,-0.0264194
-0.0098384,-0.0467261
0.0318156,-0.0209494
0.0498035,0.0187228
0.0391013,-0.0429622
0.0253471,-0.0876093
0.0219218,-0.00871384
0.00625772,0.0623545
0.0163091,0.0896152
0.0258378,0.00167985
0.00194369,-0.0221703
-0.0149841,-0.0106843
0.00661248,-0.0146828
0.0431362,-0.00818901
0.0501868,0.0342086
0.0776229,0.076844
0.0616194,0.00105791
-0.0537358,0.00654214
-0.0898051,-0.00482365
-0.0431457,0.00322261
0.00266482,0.00805274
-0.00741117,-0.0321424
-0.00567248,-0.0307683
0.0408976,-0.0240613
0.0370576,-0.00889136
-0.00480331,0.0190446
-0.0179214,0.00675303
-0.00163834,0.0079509
0.0264433,-0.00442943
0.0961913,-0.0256611
0.0906669,0.0025769
0.0335913,0.020855
0.0108764,-0.00708795
-0.0133702,-0.00200181
-0.0372074,0.0195606
-0.036478,-0.0169069
-0.0430788,-0.0656696
-0.0431123,0.0157918
-0.0374736,0.0829856
-0.0170662,0.0331048
0.00705374,-0.00253012
0.0154693,-0.0294053
0.0386583,-0.00549867
0.0407456,0.0131839
-0.000650566,0.00967225
-0.0149978,0.0252353
-0.0464157,0.0149344
-0.081691,0.00138797
-0.065686,-0.0464815
-0.00167054,-0.0644569
0.0911523,-0.058287
0.112328,-0.0503364
0.0597893,-0.0388429
0.0163113,-0.00639969
0.0212785,0.018742
0.0635578,0.0243845
0.0471203,0.0204375
-0.0111347,0.0307147
-0.0192979,0.0524634
-0.0993973,-0.0147184
-0.216971,-0.0166921
-0.189093,0.00797819
-0.13061,-0.00269343
-0.079287,0.0265565
-0.0451326,0.08162
0.0230806,0.115237
0.100084,-0.00774992
0.158938,-0.0902453
0.119403,-0.0524308
0.0553128,0.00306381
0.0343835,0.013643
0.019807,-0.0517663
-0.000302525,-0.0181484
-0.0185,0.00377104
-0.0170022,0.00648892
0.000138263,0.00444059
0.0382147,-0.0191014
0.0533901,-0.0268561
0.0103729,-0.0143677
0.025496,0.0070476
0.070789,0.0176632
0.0813995,0.041795
0.0657056,0.103064
0.0342095,0.0524741
-0.0280029,-0.0017834
-0.0885969,-0.0158313
-0.120692,-0.0379105
-0.123069,-0.0334386
-0.0742697,-0.0107882
0.0288208,-0.00913691
0.0968978,-0.0206794
0.0934959,-0.037452
0.0371687,-0.0276069
-0.0487143,-0.0114331
-0.0709952,-0.0298386
-0.0614736,-0.0147873
-0.0781132,-0.000111384
-0.0268504,0.00680019
0.0472567,0.0143258
0.0282661,-0.00664334
-0.0228202,0.021353
-0.0329011,0.0499994
-0.0227897,0.0119043
-0.0086785,-0.0119338
-0.0188998,-0.00720828
0.000172031,0.0118488
0.0298667,0.00869418
-0.0227756,-0.0158621
-0.042968,-0.032417
0.0105116,0.000809547
0.0310987,0.0334612
0.0233086,0.0308194
0.0357511,0.0502782
0.0671302,-0.0101565
0.0846017,-0.045676
0.0431146,0.00804623
-0.00345553,0.0677566
-0.0432414,0.0471022
-0.0331521,-0.0430517
-0.0231625,-0.0641877
-0.0959065,-0.03759
-0.125529,-0.00184972
-0.0466039,0.0270025
0.0421873,0.0865656
0.0939615,0.0394942
0.152488,-0.130595
0.163983,-0.135057
0.100519,-0.0176467
0.0629195,0.078045
0.0762395,0.0749928
0.0569425,0.0319338
-0.0786223,0.0423677
-0.274835,0.0258004
-0.336496,0.00146933
-0.248224,-0.0526081
-0.087035,-0.0791118
0.0018144,-0.0291044
0.088186,-0.0163512
0.128304,-0.0102034
0.114689,0.0120824
0.0776287,-0.000757038
0.0339588,-0.0073215
0.0215321,0.0126421
0.0197581,0.00711099
0.00169652,0.0112681
-0.0139,0.0247594
-0.0445103,-0.00885161
-0.0514474,-0.00541152
0.0339297,0.0289109
0.0849206,0.0203476
0.0396299,-0.0611779
-0.00599143,-0.0695038
-0.0305936,0.0603517
-0.039659,0.0331106
-0.0594834,0.0171733
-0.0301312,0.00192542
0.0373074,0.0106362
0.0635181,0.0168371
0.0219775,0.0223304
0.0161233,0.0293978
0.029055,-0.0271398
0.029673,-0.0170422
0.0272369,0.0793396
0.022221,0.0213764
0.0338733,-0.042159
0.054688,-0.032445
0.0302911,-0.0315082
-0.00401498,-0.0328063
0.00515647,0.00132158
0.0422468,0.0231944
0.0426381,0.00403424
0.00090988,-0.0349533
-0.0537725,-0.00268841
-0.0871545,0.0190468
-0.104218,-0.000659435
-0.0595078,-0.00689953
-0.00297587,-0.00452832
0.00497339,-0.0134244
-0.0194052,-0.0106973
-0.037932,0.0271668
-0.0353851,0.0193434
-0.0121427,-0.0227499
0.0241729,-0.0259311
0.0644261,0.0438845
0.0758869,0.0260145
0.0432297,0.0165023
-0.0182322,0.0784414
-0.0678743,-0.00875011
-0.0797745,-0.100199
-0.0625595,-0.0686809
-0.027488,0.00381055
0.00931508,-0.0247739
0.00278843,-0.0400804
-0.0327276,0.015417
-0.0506898,0.0338713
0.0152129,0.0278723
0.0736884,-0.0381039
0.0630332,-0.0279733
0.0396332,0.017804
0.0358743,0.0346125
0.0134091,0.0207494
-0.0377324,-0.00846389
-0.0614233,-0.00648769
-0.0409144,-0.00028781
0.0306002,0.0255724
0.112642,0.042639
0.127679,0.0178969
0.081168,0.0102039
0.0437264,-0.0323409
-0.00893886,-0.0266282
-0.0423873,0.00785087
-0.0613731,0.0016855
-0.0608778,-0.00757462
-0.0531229,-0.00913679
-0.0516323,0.00962125
-0.022964,0.0185504
-0.0093466,-0.00602552
-0.0438874,-0.0304071
-0.0716289,-0.0346645
-0.0478578,-0.0316719
-0.0293376,0.037699
-0.00509156,0.060162
0.0388527,-0.0124235
0.066,-0.00182546
0.0518061,0.0120998
0.0398858,0.00772141
0.043457,0.00590089
0.0278986,-0.0134492
-0.0129092,-0.0257437
-0.0379307,0.0282567
-0.0409752,0.0786331
0.00811071,0.0119764
0.0490765,-0.0565906
0.0617315,-0.0744166
0.0441023,-0.0439746
0.0347716,-0.00717283
0.0366566,-0.00837975
0.0322544,-0.0259054
-0.0126129,0.0142378
-0.0518292,0.0288752
-0.05988,0.0260379
-0.0691252,0.029531
-0.068882,0.0534304
-0.0302934,0.0195934
0.0363301,-0.0314748
0.0413466,-0.00327544
0.0203178,0.000503965
7.21e-05,-0.0175175
0.00608301,0.00701079
0.0135862,0.0348393
-0.0319061,0.0793641
-0.0464185,0.00245094
-0.0151042,-0.0846292
-0.00131126,-0.0416701
-0.0193187,-0.0233206
-0.0108346,-0.00987795
0.0490515,-0.0024232
0.0681703,0.00239822
0.059421,0.00699748
0.0249647,0.0139957
-0.0172146,-0.00775156
-0.029271,-0.0220982
-0.0126213,-0.0070142
-0.0111608,0.0088237
-0.00936417,0.0145983
0.0318819,0.0227124
0.0476008,0.00706061
-0.0150058,-0.00380044
-0.051812,-0.00469747
-0.0410726,-0.0276702
-0.0226741,-0.0295057
-0.0106175,0.00738613
-0.025135,0.0402859
-0.0437358,0.0269598
-0.100594,0.0189102
-0.0835526,0.0265962
-0.0371281,0.00994038
0.00281025,0.0116639
0.049913,0.000318368
0.0448984,-0.0266725
0.0761481,-0.0454047
0.13416,-0.0257375
0.172586,-0.00138754
0.129908,0.0025844
0.0420167,-0.00602749
0.00526641,-0.00626855
-0.0260306,-0.000648993
-0.0809468,-0.00181476
-0.101875,-0.0213492
-0.0780116,-0.018084
-0.077786,0.0230922
-0.0697373,0.0389753
-0.0209167,0.0351295
0.0323885,-0.00709928
0.0455875,-0.0379524
0.0301936,-0.0214005
0.0232584,-0.015839
0.0157593,-0.0239593
0.0128232,0.00627133
0.00579158,0.0201189
-0.0157297,0.0100851
-0.0074105,-0.00871271
-0.0153296,-0.0147843
-0.0668687,-0.00590817
-0.102436,-0.020281
-0.0965659,0.0437832
-0.0164089,0.175174
0.060005,0.102065
0.1102,-0.0519053
0.169241,-0.0743878
0.151064,-0.0545904
0.0822001,-0.0223877
0.0475039,-0.0053335
-0.00809376,-0.00621003
-0.0443124,-0.00081223
-0.00741108,-0.00122334
-0.00275336,-0.00856867
-0.0379896,-0.0322318
-0.021938,-0.0185142
-0.0106699,0.0291362
-0.0867389,0.0407673
-0.128453,-0.0391213
-0.0938063,-0.0425236
-0.062885,0.0325426
-0.0786612,0.0273029
-0.0628052,-0.0429634
-0.0477411,-0.0693904
-0.053889,-0.0340132
-0.0355874,0.00232943
0.0186457,0.0305966
0.0765214,0.0427094
0.0912996,0.0330933
0.0912634,0.0164607
0.0543901,0.0105954
-0.000973011,-0.001717
0.00898922,0.0292525
0.0478131,0.035699
0.0307414,-0.0225168
0.0256539,-0.0227426
0.0608828,-0.0174156
0.0726216,-0.0232726
0.0701205,-0.00799349
0.00199451,0.0215486
-0.0795138,0.036839
-0.0977428,0.0188457
-0.0724619,-0.00755351
-0.029638,-0.0161206
0.0456736,-0.0214374
0.138172,-0.010473
0.138598,0.00186857
0.0282734,-0.00209536
-0.0416497,-0.0220778
-0.0561581,-0.0440299
-0.0697619,-0.00693543
-0.0730812,0.0475742
-0.0555001,0.0670168
-0.0274474,0.000456446
-0.0427109,-0.0310727
-0.0609215,0.0446028
-0.0336087,0.0440184
0.0154831,-0.0514984
0.0471925,-0.0294049
0.0455887,-0.00827233
0.0132806,-0.0111153
-0.00666511,0.025533
0.00921292,0.0454608
0.0103064,0.0211249
-0.0263649,0.0262918
-0.0658033,-0.00850907
-0.0539877,-0.0555995
0.00547552,-0.0774368
0.0231861,-0.0379983
0.0686093,-7.08e-05
0.106293,0.0121718
0.0971269,0.000683141
0.0655385,-0.000277788
0.0243249,-0.00960858
-0.0289748,-0.0129773
-0.0616947,0.000746654
-0.0252571,0.00749288
0.0197943,0.0148676
0.0263132,0.0290031
0.0381807,0.043104
0.00416622,0.0339163
-0.0361785,-0.00384601
-0.0697804,-0.0123752
-0.0519648,-0.0124763
-0.0605041,-0.0129889
-0.0843179,0.00452082
-0.0120362,0.0260245
0.0683363,0.00366287
0.0732232,-0.0140881
0.0474508,0.0139425
0.0115735,0.0512591
-0.0274512,-0.0535307
-0.017256,-0.0838072
0.0119317,-0.0187752
-0.00848665,0.0161141
-0.00248906,0.0279427
0.0319769,0.0360532
-0.0106875,0.0205135
-0.0404007,0.000211552
-0.0362005,0.0106376
-0.0158873,-0.0110313
-0.0239707,0.00560585
-0.00961972,0.0186314
0.0277045,0.00794161
0.0187231,-0.0186244
-0.00250438,-0.0130382
-0.0157905,0.00914024
-0.0354935,0.0108985
-0.0162588,-0.0100969
0.0125226,0.00436617
0.00221585,0.00934956
-0.0228555,-0.0564974
-0.00783183,-0.0391381
0.0424871,0.0156256
0.0447624,0.0243887
0.00541986,0.021237
0.0296023,0.00651691
0.0432254,-0.0341854
-0.000852389,-0.0371201
-0.0120623,0.0147335
0.0363014,0.0224283
0.0547666,0.0044426
0.0461632,-0.00223541
0.0110582,0.00245003
0.00414682,-0.0396769
0.00101948,-0.0449916
0.0016062,0.000981834
-0.0315095,0.00707305
-0.0286489,0.020875
0.00704523,0.0274104
0.00190695,0.0131045
-0.0209359,0.00123378
-0.0400021,0.00834448
-0.0964329,0.0130393
-0.160955,-0.0127644
-0.152599,-0.0262182
-0.080589,0.00431888
0.0153209,-0.0226516
0.0925699,-0.0235577
0.127984,0.0188884
0.145197,0.029881
0.0968956,0.0365957
0.0190474,0.0322458
-0.0313758,-0.0109166
-0.0526725,-0.0112545
-0.00281179,0.00960648
0.041335,0.0252592
0.0424264,0.015603
0.0174956,-0.0140784
-0.0188268,-0.0324996
-0.0132241,-0.00786057
0.0313159,-0.0111873
0.0464523,-0.0530113
0.0255483,-0.0150197
0.0271806,0.0241952
0.0271761,0.0154598
0.0394507,0.00161097
0.0159291,-0.00242929
-0.0119406,0.00659771
-0.0670259,-0.00903133
-0.180762,-0.0359195
-0.189022,-0.0312081
-0.0826721,0.0490682
-0.0205054,0.0796403
-0.0125155,0.0370109
0.062354,0.0438266
0.120646,0.0705464
0.0960412,-0.0219097
0.0299836,-0.0830138
0.00203987,-0.0719213
0.02109,-0.0167022
0.00535926,0.00711207
-0.0208239,0.00603727
-0.0235482,-0.00185535
-0.0296734,-0.0315895
-0.0558377,-0.0302987
-0.0676813,-0.0189469
-0.0368352,-0.0289533
0.0226188,-0.0166143
0.0759358,0.0350685
0.0916198,0.0585974
0.12586,-0.0088664
0.126641,-0.0383482
0.0413508,-0.0085511
-0.0582608,0.0212725
-0.0942965,0.00540261
-0.0946823,0.00450734
-0.0714005,0.00907593
-0.0425481,-0.00784405
-0.0080815,-0.0377531
0.00796345,0.041044
-0.0145611,0.112539
-0.0348634,0.0357158
-0.0170961,0.030374
0.00301658,0.00471694
0.0339627,-0.0470716
0.084011,-0.034916
0.0715492,-0.0186091
0.0221884,-0.0224041
-0.0243291,-0.0158951
-0.0480611,0.00451925
-0.0390335,-0.000764937
-0.0105994,0.0213031
-0.0099134,0.0255949
-0.0137026,-0.00013607
0.00391735,0.00768889
0.0222112,0.00493799
0.0244942,-0.0251781
0.023113,-0.0423209
0.0201637,-0.0292933
0.00732351,0.01358
0.00809124,0.0196188
0.0483908,0.0196647
0.0787929,0.00989436
0.0644103,-0.0267302
0.0240865,-0.0358691
-0.0397162,-0.0217218
-0.106007,-0.0213232
-0.13246,-0.0254003
-0.093164,-0.0127868
-0.0392108,0.00432374
-0.0080169,0.0236713
0.042339,0.0303368
0.0688827,0.0568464
0.0617046,0.0288778
0.0362611,-0.0104412
0.00451315,0.00820599
-0.0227584,0.0114218
-0.0155091,0.0120078
-0.00926587,0.0132504
-0.0284453,-0.0286658
-0.0393352,-0.0240685
-0.0207956,-0.00488049
0.00806071,-0.0138792
0.00660264,-0.024315
-0.0225287,-0.0191922
-0.00175906,0.0183888
0.0384359,0.0390708
0.0114006,0.00248752
-0.0391327,-0.0197786
-0.048947,-0.0296462
-0.0332899,-0.008682
-0.0529845,0.028939
-0.0141969,0.0328449
0.030326,0.013283
0.0821234,-0.00679916
0.13722,-0.00507333
0.148832,0.00670435
0.122905,0.0110568
0.0816795,0.000496599
0.0169358,-0.0161155
-0.0425445,-0.00304279
-0.0805051,-0.0081382
-0.0787694,-0.00837535
-0.0470117,0.0129283
-0.0508069,0.0260101
-0.062301,0.0450642
-0.0358207,0.0346457
-0.0230208,-0.0306512
-0.0103179,-0.0121222
0.0111131,-0.044722
-0.0169702,-0.0553076
-0.0158501,-0.00203667
-0.0332873,-0.00364036
-0.0332374,-0.0314206
-0.0427708,-0.00571688
-0.0281495,0.019946
-0.0102919,0.0144876
0.00473295,0.016296
0.0492016,0.0360654
0.0595151,0.0495894
0.0410282,0.00464934
0.0356441,-0.0178307
0.0250972,-0.00810552
0.0286228,-0.0123147
0.023443,-0.035292
0.0089052,-0.039596
-0.0166419,0.0256833
-0.0161883,0.0451522
-0.0304086,-0.00387821
-0.0503834,-0.0289093
-0.0374932,7.09e-05
-0.00272588,0.00215751
0.0141369,-5.42e-06
0.00328397,0.0297469
0.00320349,0.00342481
0.0282919,0.00507327
0.0747462,0.0243298
0.12729,0.0220002
0.132818,-0.0668791
0.0888068,-0.0996848
0.0133055,-0.0664111
-0.053106,-0.00696833
-0.0739686,0.0417711
-0.107311,0.0699458
-0.127167,0.0404774
-0.0921776,0.0330832
-0.0201052,0.0233353
-0.00124563,-0.00299591
-0.0231685,-0.00868863
-0.0406589,-0.00877103
-0.0309278,-0.000299616
0.0203521,0.00433096
0.028568,0.00192497
0.0111341,0.0280036
0.0260922,0.0463178
0.051414,-0.0112796
0.0229609,-0.050203
-0.0224413,-0.0361737
-0.0311552,-0.0192535
-0.0299158,-0.0166448
-0.00565132,-0.0129126
0.026126,-0.0116023
0.0208454,-0.0150922
0.00536429,-0.0285811
0.0148403,-0.046442
0.010296,0.00213801
-0.0154016,0.0662508
-0.0150237,0.0608726
0.0275514,-0.00023335
0.0427222,-0.0325584
0.0474466,-0.00372049
0.0628665,0.0622744
0.0199465,0.0848649
-0.0227476,0.0111979
-0.0398689,-0.0247323
-0.0523889,-0.0224036
-0.034508,-0.0229686
-0.00550231,-0.0473099
-0.00542875,-0.0338583
-0.0161828,-0.0237943
-0.0248678,-0.0190705
-0.0264254,0.0105015
-0.0317129,0.0265737
-0.0471678,0.00559691
-0.0299879,0.00377856
0.0383122,0.0165208
0.0855653,0.0149401
0.0800109,0.0154326
0.0742624,0.0106851
0.0545133,-0.0200532
0.0223946,-0.0327487
0.00567785,0.0110473
0.0015596,0.00566815
0.00495102,-0.0230457
-0.005521,-0.0141885
-0.0233823,0.0156071
-0.0379421,-0.00551088
-0.0546711,-0.00887197
-0.0612963,0.0178113
-0.0514451,0.0225447
-0.0301205,0.0180584
0.0129793,0.0159986
0.0392566,-0.0019142
0.0200679,0.0191188
-0.0035843,0.0841733
-0.0263251,0.0271325
-0.0382965,-0.074332
-0.0450642,-0.0190547
-0.074883,0.030499
-0.05718,0.0200241
0.0501018,-0.0388022
0.175429,-0.0478057
0.18552,-0.00179452
0.137734,-0.00120245
0.0895596,-0.0174867
0.0109334,-0.0259242
-0.0874641,-0.0373839
-0.10232,-0.00441993
-0.0416168,0.0203173
-0.00335152,0.0163908
-0.00291282,0.0189241
-0.0247489,0.0173951
-0.0490245,-0.0186678
-0.0725688,-0.0305392
-0.0931723,-0.0199594
-0.0986699,-0.013898
-0.0836946,0.00350306
-0.0536576,0.00612989
-0.0274834,0.0176975
-0.0247142,0.0358971
-0.00455589,0.0197766
0.0447543,-0.0103969
0.0468931,-0.00689316
0.0473305,0.0149233
0.0723982,0.012195
0.0983486,0.0009754
0.0921248,-0.0252485
0.0785062,-0.00154696
0.0586942,0.0222853
0.0321515,0.0114207
-0.0104555,-0.00698439
-0.0490106,-0.00950658
-0.0708387,-0.00942867
-0.0473252,-0.000317541
-0.0146234,0.0197775
0.00228715,0.0175444
-0.00783125,-0.0127968
-0.0473795,-0.014932
-0.0535745,0.00205466
-0.0277532,0.0123403
0.0340933,-0.023329
0.0985526,-0.0197577
0.0837082,0.0113791
0.0406096,0.00964504
0.0488626,0.023185
0.0439589,0.0436133
0.0206706,-0.0141373
-0.0254157,-0.0401668
-0.0567049,0.00106736
-0.0556901,0.0119357
-0.0184779,-0.00389374
-0.0182117,0.0357162
-0.0439332,0.0269833
-0.0671491,-0.0221822
-0.082737,-0.0317189
-0.0624673,-0.0436584
-0.0138345,-0.06531
0.0271962,-0.0360192
0.0576459,0.0299393
0.077079,0.0427235
0.0973171,0.0210547
0.0680751,0.0126972
0.0347744,0.0133413
0.0100339,0.00766173
-0.0136275,0.021054
-0.0180486,0.000899852
-0.00539541,-0.0222848
-0.00517357,-0.00314009
-0.0434881,0.0109113
-0.0912858,-0.00181296
-0.0845858,-0.0136508
-0.0403391,-0.0248583
-0.0444648,-0.0311019
-0.0473566,-0.0342845
0.0195427,-0.0333052
0.0673286,-0.00528294
0.0722237,0.0557341
0.047246,0.0814911
0.0112502,0.00468946
-0.00382254,-0.00371306
-0.0183129,0.0969145
-0.0208163,0.0672719
0.0175526,-0.0926749
0.0577139,-0.0668396
0.0949112,0.00133447
0.0593615,0.0108971
0.00479508,-0.0191413
0.00535184,-0.0332906
0.00754432,-0.0199185
0.0125123,-0.0254762
-0.0193132,-0.0205764
-0.0562787,0.0306793
-0.0453857,0.0439761
0.000909814,0.00215032
0.00404471,-0.0354285
-0.0318615,-0.0411812
-0.0619729,-0.00538933
-0.0709806,0.0180302
-0.0542702,0.0320772
-0.0288116,0.023017
0.0093959,0.00146102
0.0422633,-0.00445446
0.0420684,-0.0106872
0.0215758,0.0110804
-0.0061161,0.0318504
-0.036899,0.0322502
-0.0462559,-0.0184157
-0.00668664,-0.0117825
0.0585473,-0.0129465
0.049749,-0.0047283
0.0113241,0.0407486
-0.0230636,0.00732388
-0.0312291,-0.0129256
-0.00315083,-0.0122769
0.0145852,-0.0270636
-0.00631929,0.019546
0.0271232,0.00652273
0.0897094,-0.0093013
0.0762344,0.0255334
0.0379332,0.0411593
0.0192369,9.67e-05
-0.0116881,-0.0431049
-0.0589893,-0.000186389
-0.0609756,0.015599
-0.0383835,0.0110377
-0.00434065,-0.00292685
0.010379,-0.0305776
0.019872,-0.0421333
-0.00757277,-0.0481835
-0.0382434,-0.0542003
-0.0760705,-0.023924
-0.0652072,-0.00112901
-0.0360014,0.0160798
-0.0149768,0.0554651
0.0455065,0.054345
0.0784639,0.0290464
0.051325,0.0329765
0.0419352,0.0339233
0.0172941,0.0095064
-0.00947422,-0.0170759
-0.00988572,-0.0276254
0.0133735,-0.0159206
0.0389211,-0.0065314
0.0412423,0.0270353
0.0533534,0.0231006
0.0350826,-0.0187582
-0.0281911,-0.0175638
-0.0883789,-0.0151657
-0.104465,-0.0265698
-0.0710142,-0.0385713
0.0059351,-0.0142813
0.0609454,0.0259563
0.0795673,0.046878
0.0800496,0.0373574
0.0460024,0.00982393
-0.00272688,-0.00697157
-0.0411741,-0.00912029
-0.0501547,-0.00316443
-0.043752,-0.0103509
-0.0571683,-0.0227068
-0.0569708,-0.00784949
-0.0145347,-0.00341369
-0.00151465,-0.00964734
-0.00131752,-0.0177046
0.0123704,-0.0202651
0.0079509,-0.0401995
-0.00286514,-0.0287671
0.0176123,0.0226317
0.0344598,0.0419625
0.0144037,0.0304176
0.00186231,0.000800413
0.00160123,-0.0157968
-0.00754899,-0.0115226
-0.0275868,0.00922737
-0.0352551,0.0679247
0.00308758,0.0576233
0.0317314,-0.0194359
0.0540689,-0.0417474
0.0582514,-0.0166676
0.0395606,0.00557688
-0.00832786,0.00740853
-0.0424155,-0.00427949
-0.0424886,-0.021189
-0.0378529,-0.0210258
-0.0132276,-0.0018919
0.0130652,0.0162294
0.0110812,0.0105291
0.0242223,0.00048393
0.0290327,0.00834967
0.00253867,0.0253465
-0.0235465,0.0138852
-0.0126828,-0.00728171
-0.00856258,-0.0256064
-0.0141365,-0.00606323
-0.0128192,0.0242887
-0.0155995,0.000487709
-0.0386122,-0.0161969
-0.0440862,-0.0176893
-0.00946557,-0.0187076
0.0405456,6.99e-05
0.0796688,0.00866188
0.0723046,0.0125044
0.0230732,0.0149888
-0.0163259,0.0210002
-0.0257102,0.0203151
-0.0387766,-0.00855055
-0.0227338,-0.0278816
0.0213953,-0.0176657
0.0481629,0.00754376
0.0505664,0.0124725
0.0477947,0.00220027
0.0207205,-0.00305912
-0.038784,-0.00906768
-0.0939488,-0.0288724
-0.0814144,-0.0202657
-0.0402757,0.0244016
-0.00233283,0.00896531
0.0293761,-0.00662306
0.0573689,-0.00487282
0.0674163,0.00157086
0.0469433,0.0223731
0.0192149,0.0161077
-0.0196831,-0.00285729
-0.0524888,-0.0103417
-0.0455914,-0.0143057
-0.0032552,-0.0264071
-0.00782463,-0.0196011
-0.0740731,0.00737153
-0.113004,0.0267364
-0.0686368,0.00947232
-0.0219582,-0.0135948
-0.0215355,-0.00101086
-0.0370032,-0.0193236
0.0340262,-0.028871
0.138122,-0.00388614
0.16861,0.0260313
0.138626,0.0346578
0.119404,0.0149228
0.0748599,0.0156327
-0.00466722,0.0533907
-0.0372924,0.0068886
-0.0347137,-0.0295345
-0.0200708,-0.0153043
-0.029741,-0.00217946
-0.0477481,-0.00520032
-0.0585915,-0.0151081
-0.0723823,-0.0115567
-0.0716258,-0.0071798
-0.0542827,-0.007882
-0.041346,-0.00614725
-0.00634846,0.00329291
0.00641498,0.0122307
-0.0181234,0.0089871
-0.00578421,0.0177141
0.0013014,0.0131428
-0.0327838,-0.0262824
-0.0488524,-0.0277705
-0.0149799,-0.0113402
0.0646747,0.0229086
0.0743156,0.0326668
0.064494,-0.00760104
0.0658362,-0.0120093
0.0398961,0.00216175
0.00509536,-0.0160294
-0.0111315,-0.0320481
-0.000281278,-0.0289259
0.014384,-0.00540976
0.0154549,0.0274889
0.00178932,0.0541241
-0.0114238,0.0263133
-0.00999337,-0.00083376
-0.00851097,-0.0135415
-0.0141051,-0.0212531
-0.0320674,-0.0129937
-0.0451651,0.0146692
-0.00625905,0.0371452
0.0497832,0.0200906
0.0557442,-0.00578223
0.0227164,-0.00438466
-0.00318919,-0.0202675
-0.0208225,-0.0377126
-0.0279538,-0.0276867
-0.0269876,-0.014493
-0.0160117,0.00880633
0.0144357,0.0237881
0.0281236,0.0174354
0.0146162,-0.00312354
0.0139546,-0.00486752
0.0290664,-0.00333893
0.0219464,0.0106862
-0.0250288,0.00681492
-0.026244,0.00619802
-0.0150936,0.00779974
-0.0359327,-0.0156508
-0.0203684,-0.00924573
0.0359139,0.0057875
0.0474457,0.00932736
0.00902493,0.0178016
-0.034211,0.00379335
-0.0408475,-0.00239384
-0.0112001,0.011236
0.00317056,0.00675947
-0.024553,-0.00708756
-0.0270844,-0.0134264
0.00715169,0.00423842
0.00191933,0.0356238
-0.0201059,0.0167968
-0.0373282,-0.0168008
-0.0351821,-0.0195681
-0.0244464,-0.0184486
-0.018935,-0.0151545
0.0024827,0.003498
0.0295884,0.00280509
0.0219622,-0.0288593
0.00713474,0.0037267
0.0298127,0.0396692
0.0280088,0.00333932
0.0182845,-0.0343504
0.00666697,-0.0369806
-0.000654686,-0.0314438
0.033126,-0.0151371
0.0981523,0.0217903
0.127714,0.00744874
0.0821549,-0.00511117
0.00439834,0.031396
-0.0241919,0.0136002
-0.0263188,0.0397784
-0.0510767,0.0191922
-0.0733606,-0.00880174
-0.0720843,-0.0144549
-0.0842464,-0.0248691
-0.0706381,-0.0128244
-0.0185015,-0.0034549
0.00639291,0.00570657
0.0166708,0.00135704
0.0401985,-0.0129781
0.0361831,-0.00801332
-0.00676467,-0.000354968
-0.0225002,-0.00711461
-0.0410364,-0.0186233
-0.0345669,-0.0172679
0.0155718,-0.00103488
0.0501018,0.0149199
0.0433955,0.026372
0.0311116,0.0138255
0.0202835,-0.00381717
0.019399,0.00958321
0.0249493,0.00892085
0.00604241,-0.000454402
-0.0402081,0.0122297
-0.0299928,0.0758821
0.0116152,0.0328421
0.0195613,-0.0359802
-0.0080136,-0.0176645
-0.00227277,-0.0206644
0.0101263,-0.00686439
0.0027886,-0.00635922
-0.000875094,-0.0219677
0.0107059,-0.00113331
0.0257067,0.00237687
0.0302041,-0.00583353
-0.00114192,0.00396926
-0.0444221,0.023372
-0.0648432,0.0219212
-0.0870198,-0.0254258
-0.0901599,-0.0173649
-0.0666524,-0.000243309
-0.0138433,0.0181526
0.0303718,0.019225
0.0586066,-0.00656014
0.0511787,-0.0253019
0.0471362,-0.0139977
0.0519045,0.0113156
0.0220297,0.0124962
0.0179958,-0.0124257
0.0396994,-0.00912349
0.00887991,0.0123102
-0.0385632,0.0110866
-0.0684055,-0.0166603
-0.0839919,-0.00577342
-0.0228831,-0.00994116
0.0460044,-0.0176869
0.0527727,-0.0116805
0.0510405,0.0112604
0.058133,0.0038562
0.0581617,-0.00366654
0.0248437,-0.0123625
-0.0346162,-0.0451899
-0.0952915,0.0205155
-0.0778355,0.0423071
-0.0347382,-0.0136951
-0.0161182,-0.0162174
-0.0160354,0.00490478
-0.0144102,0.0126547
0.0303717,0.0241745
0.0869929,0.02726
0.0729963,0.0142757
0.0514579,0.0154922
0.0409063,0.011998
0.012834,0.0228399
-0.00292945,0.0201303
-0.00732587,-0.00396904
-0.0297672,-0.02165
-0.0595296,-0.0184795
-0.0684638,-0.0143972
-0.0534506,-0.0159005
-0.0382697,-0.0268711
-0.0194139,-0.0251985
0.0207993,-0.00554163
0.0464175,0.000703219
0.0346938,0.0101147
0.0178162,-0.0041594
-0.00408941,-0.00878533
-0.0196794,0.0402408
-0.0066857,0.0369844
0.0243343,0.018681
0.0180003,-0.0155791
-0.0186478,-0.0243746
-0.0307833,-0.00831862
-0.036424,-0.0141867
-0.0438296,-0.0096595
-0.0125434,-0.00752305
0.049547,-0.00996656
0.0832204,-0.000476814
0.0843251,0.0208543
0.0659423,0.0411693
0.040389,0.0188675
0.0214239,-0.0224389
-0.00285304,-0.025448
-0.0358673,-0.019819
-0.054878,-0.0206526
-0.0523452,-0.000581445
-0.0549258,0.00422922
-0.0455094,0.00485607
-0.0281827,0.0167483
-0.00618989,0.0118106
-0.00652989,0.00514386
-0.0103519,-0.00696448
-0.0100055,-0.0066427
-0.0103065,-0.000524806
-0.009609,0.0157117
0.0152091,0.047283
0.0548926,0.00122717
0.0676023,-0.0122869
0.0419238,-0.000552829
0.0067863,-0.0303446
-0.0150164,0.00353308
-0.0340256,0.0093341
-0.0286912,-0.0292408
-0.0266863,-0.0282591
-0.0294357,-0.0180291
-0.00541721,-0.00563165
0.0160972,0.0105738
0.0179103,0.0154522
0.0115647,0.0102704
0.00340967,-0.00875558
-0.0184556,-0.0291614
-0.0419582,-0.0130493
-0.0357989,0.00940384
-0.0126772,0.0150984
0.0231659,0.0110528
0.0558477,0.00888503
0.0410819,0.00325229
0.000841027,0.00716541
-0.0197696,0.0344401
-0.0311501,0.0480076
-0.024868,0.0054445
0.00555276,-0.0260361
0.0198221,-0.0248163
0.0331493,-0.0316454
0.0447138,-0.0073413
0.0398361,0.00686364
0.0111096,-0.0181107
-0.0462935,-0.0285662
-0.0830808,-0.00784521
-0.028747,0.00778963
0.0442449,0.029869
0.112898,0.0197678
0.101614,0.0217483
0.0495052,0.0337739
0.0269691,-0.0125214
0.00204922,-0.0323317
-0.0331917,-0.0208495
-0.0530611,0.012114
-0.0595141,0.0311159
-0.0356074,0.0163252
-0.031086,0.00137473
-0.0419112,0.000937393
-0.0313737,0.00597611
-0.0224523,-0.00153494
-0.0450663,-0.00224386
-0.0360816,0.0030104
-0.00573718,0.00651542
0.00549492,-0.00386474
0.0252637,-0.00786332
0.031616,-0.0184154
0.000826255,-0.0227858
-0.0304712,-0.0134007
-0.0254514,-0.00639901
-0.009051,-0.00596333
0.0466964,-0.00410772
0.0741993,0.0405462
0.0600886,0.0482014
0.0231363,-0.00213582
-0.0192651,-0.0343656
-0.031754,-0.017473
-0.0109956,-0.019439
0.00891971,-0.0108832
0.0252148,0.0131243
0.0208138,0.00492597
-0.00420769,-0.0119558
-0.0303515,-0.000767481
-0.0156965,-0.018344
0.017191,-0.0161221
0.0160627,-0.00784987
6.03e-05,-0.00860675
-0.0165603,0.00272345
0.00814898,0.0230119
0.0198411,0.0247106
0.00203561,0.00772963
-0.0116545,-0.00114252
-0.0250494,-0.00358636
-0.0285011,-0.00351566
-0.0295896,0.00111197
-0.0202537,0.00693157
-0.00463281,0.0188744
0.000864489,0.0149942
-0.0132595,0.0120195
-0.0202688,0.0111522
-0.00905135,0.00173772
-0.00199678,-0.00632464
0.0166574,-0.00696733
0.0308166,-0.0117443
0.0413843,-0.00678892
0.0597119,0.00362358
0.0548389,0.00566542
0.0209166,0.00541037
-0.016496,0.00757073
-0.0406893,-0.0138411
-0.0206806,-0.0364574
0.0061724,-0.0347417
0.04016,-0.0134235
0.0590313,0.00115707
0.032653,0.00477672
0.00773152,0.00493187
-0.00605985,-0.000965237
-0.0373414,0.00144091
-0.0548588,0.00795162
-0.0593193,0.0119546
-0.0563074,0.00787203
-0.0264566,0.015039
0.0311264,0.0124475
0.0454445,0.008159
-0.0100836,0.00778491
-0.056372,0.0283877
-0.0499254,0.0288647
-0.0398762,-0.0257136
-0.0369606,-0.0337816
-0.010111,-0.00163715
0.0207122,-0.00942714
0.036857,-0.0177543
0.0181361,-0.00505224
-0.0117424,-0.000581095
-0.0034259,0.000132286
0.0134564,0.0316244
0.0267685,0.0474836
0.0410767,0.00528837
0.0612028,-0.0246053
0.0462789,-0.0257851
-0.00150404,-0.0103128
-0.00298546,-0.00188138
0.0126204,-0.000640678
0.0113752,-0.00373721
-0.0127435,-0.00433245
-0.00915906,-0.00225006
0.00285691,0.00227494
0.000982414,-0.00121977
-0.00621241,-0.000103415
-0.0172963,0.00797285
-0.0264859,0.00450313
-0.0289764,-0.0051577
-0.0229206,-0.0036043
-0.0251196,0.00373416
-0.0107319,0.0033184
0.0246205,0.00765151
0.0403322,0.00309566
0.030734,-0.00872504
0.0263831,-0.0141928
0.00908827,-0.0105345
-0.0221885,-0.00912443
-0.0387383,-0.0129186
-0.0209084,-0.00769758
0.0154276,-0.00413756
0.036571,-0.00417181
0.0444111,0.000212581
0.0342489,0.00158708
0.0115391,-0.000832107
0.00522287,-0.00757021
0.00307032,-0.00825445
-0.027435,-0.00126568
-0.0370434,0.0138249
-0.0279938,0.0231562
-0.0334033,0.017413
-0.0433161,0.0169673
-0.0400765,0.0177315
-0.0350556,0.00704529
-0.0352345,-0.0012793
-0.0309038,0.0106925
0.00419583,0.00695134
0.0300341,-0.00745362
0.0347387,-0.0129364
0.0389959,-0.00550894
0.0311068,-0.00539777
0.0235717,-0.00516866
0.0251397,-0.00713305
0.030369,-0.0139261
0.0217526,-0.0230368
0.0264248,-0.00924901
0.0268806,0.0166918
0.0103782,0.0208272
-0.00438912,0.0157496
-0.00512049,-0.00479801
-0.0152419,-0.0141297
-0.0355968,0.00115301
-0.0371195,0.0202472
-0.0131241,0.029753
0.010096,0.0193918
0.0105992,0.00124499
0.00243932,-0.00162789
0.00156752,-0.021248
-0.0140815,-0.0238569
-0.0297301,0.00340487
-0.02173,0.02055
-0.022231,0.014753
0.00427859,0.00555627
0.0216648,-0.0128885
-0.0127515,-0.0313709
-0.0202243,-0.0123008
-0.0122447,0.0015142
-0.0110438,-0.0132094
-0.010031,-0.0144457
-0.0084354,-0.022578
-0.00550749,0.000576642
0.0072026,0.0117557
0.0112544,0.000801605
0.00500078,-0.00027537
0.0249314,-0.00921273
0.0684045,0.00783433
0.101604,0.048969
0.0817954,0.0212716
0.0566289,-0.0184072
0.0161531,-0.000222081
-0.057992,0.0164356
-0.0721862,-0.0071458
-0.0550118,-0.00422936
-0.0478641,0.00247973
-0.0438991,-5e-05
-0.0151432,-0.00486893
0.0141713,-0.0037964
-0.0068258,-0.0086279
-0.0254535,-0.0220597
-0.0293349,-0.004588
-0.0205513,0.00190611
-0.0181712,-0.0121764
-0.0196065,-0.00489015
0.00621791,0.00185689
0.0132249,0.0192395
0.0204815,0.0401371
0.0385344,0.00383019
0.0282559,-0.022223
0.00611789,-0.00672257
-0.00132921,-0.000755405
-0.0179078,0.00472298
-0.0556499,0.00857612
-0.0379355,-0.00154716
0.0136074,-0.00919263
0.0383372,-0.000857152
0.0439998,0.00383688
0.0562956,0.00428021
0.0556209,0.0015622
0.0117974,-0.00472765
-0.00982777,-0.0176762
-0.0143412,-0.0231227
-0.0352834,-0.00566524
-0.0162934,0.01357
0.0148032,0.01616
0.0191511,0.00182072
0.0254609,-0.0206106
0.0245791,-0.027822
0.00792307,-0.0108011
-0.013886,-0.000600649
-0.0017721,0.0157751
0.00780987,0.0448895
-0.0125047,0.0174999
-0.0237002,-0.000890325
-0.0197529,0.0164676
-0.0206456,0.0277345
-0.0448008,0.00666993
-0.0305478,-0.00364838
-0.00197833,-0.0204778
0.0239327,-0.00492691
0.0462343,0.0294656
0.0292096,0.028893
0.00185596,-0.0183078
0.0172662,-0.0372765
0.0126745,-0.032667
-0.0400485,-0.0380238
-0.0734432,-0.0228084
-0.0449942,0.00307
-0.00449264,0.0141303
0.000104891,0.0171947
-0.00548196,0.0176716
0.000443623,0.000135288
0.00151954,-0.00848932
0.0127241,0.00959774
0.0322082,0.0246687
0.0223978,0.00858631
0.0315947,-0.00590769
0.0596197,-0.0083507
0.0496579,-0.0117253
0.025651,-0.0200234
0.0106447,-0.00951382
-0.0079188,0.00261731
-0.0350603,0.0148543
-0.0467593,0.0336235
-0.0293889,0.028072
-0.0208376,-0.0131479
-0.0366469,-0.0192444
-0.0334662,0.000154452
-0.012597,0.0019225
-0.0110171,-0.0136423
-0.0149537,-0.0181728
-0.0293244,-0.0105946
-0.0110695,-0.00960318
0.029996,0.000635065
0.0260438,-0.00388137
-0.0165069,-0.0179871
-0.0132689,0.00435163
0.0175166,0.0250844
0.022469,0.023996
0.00013349,0.00922629
0.0139728,-0.0149699
0.0372873,0.00436011
0.0378349,0.0335825
0.0353109,0.0231083
0.0363492,-0.0237525
0.013501,-0.018383
-0.00951335,-0.0116616
-0.0297641,-0.0146314
-0.0470602,-0.0330646
-0.0313821,-0.00986895
0.00469142,0.0275459
0.0206994,0.024124
0.0172991,-0.0016516
0.0157627,-0.0138813
0.00465504,-0.000835009
-0.0118177,0.0320827
-0.0140867,0.0206471
0.0124051,-0.0195271
0.0246313,-0.00768774
0.00881544,0.00760869
-0.00367338,-0.0097074
-0.0113836,-0.0139896
-0.00802182,0.000716004
-0.0209463,0.000556597
-0.0382216,-0.00664841
-0.0134285,-0.0182691
0.00997535,-0.00784522
0.00749257,0.0290624
0.011394,0.0257025
-0.00268184,0.0169221
-0.00152784,0.00677052
0.0062137,0.0169459
-0.0123779,0.00581486
-0.0237924,-0.0303599
0.00544493,-0.0236525
0.0337483,0.00574416
0.0266267,0.016873
0.00806133,0.0238753
-0.0114129,0.0186219
-0.0122817,-0.0157699
-0.0160723,-0.00476815
-0.0207874,-0.0102159
-0.0148234,-0.0285016
0.0131205,-0.00464783
0.0446702,-0.00690255
0.0445818,-0.00912596
0.00161996,-0.00625311
-0.0185562,-0.0106146
-0.0358037,-0.0162354
-0.0597895,-0.016584
-0.0477119,-0.0025168
-9.01e-05,0.0132774
0.0282752,0.0130907
0.0386259,0.00284595
0.0282229,0.0346752
0.0084683,0.0423331
-0.00432218,0.00841913
0.00235842,-0.0357431
-0.00272493,-0.0339402
-0.00299486,0.00375279
0.020993,0.00532968
0.0201096,-0.00804637
-0.00418841,-0.00417096
-0.0269788,0.0166904
-0.0433624,0.00526631
-0.0675517,-0.0046483
-0.0556142,-0.0113374
0.00118556,-0.00336882
0.0292298,0.0483172
0.0281539,0.0301272
0.0349979,-0.0273392
0.0239387,-0.0255199
0.0240998,-0.00753691
0.0371551,0.000535158
0.0454723,-0.00362356
0.025194,0.00294499
0.0336366,0.0172418
0.0445511,0.00430991
0.0353798,-0.00953052
0.0269176,-0.00391648
0.0192487,-0.00224428
0.000499081,-0.00667649
-0.0582135,-0.0139559
-0.0936423,-0.0129602
-0.0753678,-0.0163399
-0.0597699,-0.00989759
-0.0574926,0.00967355
-0.0508997,0.0129712
-0.0474647,0.00310856
-0.0333535,-0.00514255
-0.0113379,-0.00168798
0.0277068,0.00403653
0.0512205,0.0116373
0.0777927,0.0214236
0.0837552,0.0150355
0.0362851,0.00561629
0.00175181,-0.00840558
-0.018791,-0.0186693
-0.0114199,-0.0184549
-0.0186548,0.00325752
-0.0237543,0.0150592
0.00335188,-0.00436348
0.0191585,0.000737418
0.019065,-0.0115863
0.0174571,-0.00977616
0.0115702,-0.00663378
-0.0139277,0.00132853
-0.0405635,0.0352105
-0.0419031,0.0621239
-0.0179188,0.0246784
0.0196969,-0.0104401
0.0146383,0.00816589
-0.030039,0.0179728
-0.0441807,0.00544257
-0.0264079,-0.026477
-0.0263382,-0.0444228
-0.0198686,-0.0359325
0.0400616,-0.0334891
0.0817185,-0.00722654
0.0830662,0.00642727
0.0677544,0.0102622
0.0354806,0.0149144
0.0126092,-0.0010384
-0.0093139,-0.00329066
-0.0288142,0.00291402
-0.0259726,0.000378595
-0.00522878,-0.0018964
0.00904501,0.0150907
-0.000614154,0.0118481
-0.0186011,-0.00381882
-0.0164066,-0.00727762
-0.0170854,-0.0128039
-0.0226353,-0.0115664
-0.0211611,-0.00259677
0.0128206,-0.000279947
0.0238751,0.00440321
0.00907254,0.00627948
0.00298508,0.00755509
0.00509082,0.00409022
-0.00876604,-0.00771825
-0.0263655,-0.011575
-0.0249292,-0.000680818
-0.00943301,0.00792852
0.0261504,0.0181334
0.0405217,0.0199649
0.00237355,-0.00320921
-0.0405656,-0.0143432
-0.0479736,-0.00790867
-0.0371049,-0.0130226
0.00493264,-0.0193067
0.0300884,-0.00727736
0.0486605,0.0104477
0.0375851,0.0042249
0.0246723,0.00331682
0.0127258,0.00950048
-0.0143899,0.00974563
-0.0268513,0.00105818
-0.0282044,0.000954567
-0.0323784,0.00322512
-0.015228,0.00380816
0.0130801,0.0129796
0.0107893,0.0157341
-0.0087238,0.00654877
-0.00661151,-3.64e-05
0.00203052,0.00802472
-0.0112557,0.0068776
0.000989771,-0.0167952
0.0402669,-0.0160237
0.059323,-0.00731769
0.0426191,-0.00722771
0.0164753,-0.0107007
-0.011264,-0.0136693
-0.0257332,-0.00334676
-0.0270821,-0.000225102
-0.0151005,0.000993827
-0.00905085,-0.0091033
0.00522273,-0.0043217
0.0198461,0.00786871
0.0124593,0.00477957
-0.00641154,-0.00228811
-0.013063,-0.000445906
-0.020203,0.00125886
-0.0359602,-0.00227926
-0.0400739,-0.00310112
-0.0136313,0.00622738
0.0116609,0.0137873
0.0159612,0.00916489
0.0142901,0.005369
0.00189327,0.000179973
-0.0130244,-0.00551266
-0.0130929,-0.00718387
-0.00387842,-0.00616048
-0.00186686,-0.00441406
0.0171856,0.00819034
0.0284112,0.0118755
0.01351,0.00290442
0.00306524,-0.00256944
-0.000283056,-0.00132488
-0.0145278,-0.00164416
-0.0298738,-0.00425188
-0.0211405,-0.00279872
0.00852583,0.00479684
0.0228918,0.00627912
0.0207799,0.000541787
0.0190473,-0.0046932
0.00880149,-0.00826427
-0.00472669,-0.0131036
-0.00780268,-0.00812274
-0.0006074,-0.0081866
0.0102114,-0.00452092
0.0235804,0.0101065
0.0151354,0.0131557
-0.010294,0.00286663
-0.022367,0.0188551
-0.0257738,0.0237408
-0.0315838,-0.0177967
-0.0336044,-0.0312951
-0.0242018,-0.00361247
0.0106028,0.011392
0.0275824,0.00697797
0.0310955,0.0122612
0.0149324,0.0361566
-0.013212,0.038205
-0.0241456,-0.00257149
-0.00284091,-0.0361094
0.0134301,-0.0308425
0.0340307,-0.011551
0.0479994,0.00427044
0.0363238,0.00711283
0.0105595,0.00481886
-0.00529641,0.00534541
-0.0201259,-0.00836344
-0.0371899,-0.0159451
-0.0416367,-0.0170381
-0.0111952,-0.00778441
0.0178183,0.0139273
0.0233928,0.0245681
0.0230835,0.00967119
0.0175748,-0.010393
-0.00221045,-0.00631452
-0.026638,-0.0141585
-0.0346771,-0.0181837
-0.0182189,-0.00784545
0.00656928,0.00744762
0.0209855,0.0146757
0.0131179,0.0177944
0.00500035,0.00449977
0.00193358,-0.0142484
-0.0101068,-0.00371401
-0.0233287,-0.00917392
-0.0195545,-0.00707121
0.000433651,0.00392704
0.00680548,0.00606079
0.00344448,0.0066301
0.0044029,0.00551189
-0.000562134,-0.00899697
-0.00834684,-0.000495082
-0.00585278,0.0138191
0.00691908,0.00256048
0.0162991,-0.00176313
0.0362458,0.0105854
0.0472523,0.0118962
0.0346081,-0.00115069
-0.00122296,-0.00528548
-0.0250653,-0.00326602
-0.0408951,-0.0060132
-0.0519161,-0.0124033
-0.0361232,-0.00673168
-0.0153144,0.00321497
-0.0134855,0.00729674
-0.0124365,0.00703955
5.94e-06,0.00295106
0.00214455,-0.00897193
-0.00202475,-0.0162597
0.00646326,-0.0159878
0.000555849,0.00882909
0.00610338,0.033023
0.0277417,0.00603167
0.0257259,-0.0100301
0.00982448,-0.00726665
0.00487422,-0.00831255
-0.00109035,-0.0167939
-0.0191653,-0.00783785
-0.0263014,0.00744027
0.00148996,0.0101128
0.0253436,0.00651971
0.0245345,0.00550213
0.0202995,0.00823677
0.0107758,-0.00206258
-0.00425125,-0.0117658
-0.0133707,-0.0125165
-0.00907905,0.0018644
-0.00519484,0.00486285
0.0134081,0.0113495
0.0266655,0.0224067
0.0154548,0.014686
0.0010963,0.00150356
-0.00494499,-0.00322651
-0.0171402,-0.00862265
-0.0288019,-0.0160854
-0.0221953,-0.00942244
0.00749648,0.00298322
0.0206342,0.00765166
0.0168804,0.00978711
0.0344623,-0.00200316
-0.00343432,-0.0137187
-0.0244204,-0.0230208
-0.0375432,-0.0260346
-0.0353356,-0.015694
-0.00910533,0.00248912
-0.00247461,0.021186
-0.0137463,0.0188333
-0.00627885,0.0087785
0.00278998,0.00149582
0.00259,-0.00252055
0.00379228,0.00633491
0.0369975,0.0131256
0.0686078,0.0173432
0.0623942,0.0179342
0.043361,0.0120812
0.0174459,-0.00102183
-0.0140249,-0.00760652
-0.0383929,-0.00568057
-0.0468044,-0.0131756
-0.0578704,-0.00797671
-0.0480542,-0.00344324
-0.0185484,-0.0175321
-0.0133613,-0.0155874
-0.0208087,-0.0119635
-0.0137193,-0.00887595
-0.0053842,0.0144818
-0.000589539,0.0230906
0.0107569,0.0017302
0.042533,0.00681037
0.069711,0.0159381
0.0609774,0.0114887
0.0508529,0.00197997
0.0301846,-0.0121853
-0.00557323,-0.00609495
-0.035601,-0.0077046
-0.0489504,-0.0218017
-0.0508774,-0.040265
-0.0363461,-0.0151094
-0.0237804,0.0182789
-0.0208662,0.0124223
-0.0121101,0.00115425
0.00895578,-6.55e-05
0.0162663,0.000969671
0.00489802,0.00307029
0.00576375,0.00771083
0.0286738,0.011011
0.0352041,0.0252777
0.0202572,0.0406224
0.0124602,0.0134392
-0.0046423,-0.0160557
-0.0285441,-0.0163923
-0.0411116,-0.0111583
-0.0411063,-0.0187057
-0.0309234,-0.0247862
0.00246154,-0.0127971
0.0230177,8e-05
0.011578,0.0118672
-0.00493286,0.0127685
-0.00505982,-0.00674833
-0.000771994,-0.00760078
-0.00357802,-0.00149245
0.0182562,0.00970726
0.0411046,0.0196694
0.037073,0.016281
0.0256223,0.00974847
0.0130616,0.00504181
-0.00686751,-0.00398335
-0.0260768,-0.0125668
-0.0315589,-0.0157235
-0.0358716,-0.0177782
-0.0247988,-0.0103201
0.00217127,0.00262133
0.0105406,0.00234465
0.00111638,-0.00276698
-0.000942006,-0.00216426
0.000338535,0.00230447
0.00132111,0.0053663
0.00291546,0.00918426
0.0225885,0.0179012
0.0430434,0.0154461
0.0358448,0.001007
0.0231606,0.00695319
0.00457895,0.00978816
-0.0159825,-0.00333191
-0.0327372,-0.0180254
-0.0391354,-0.0181426
-0.0447367,-0.0137035
-0.0247799,-0.0081068
-0.00271089,-0.00263465
-0.00471089,-0.00446651
-0.0115022,-0.00589752
-0.00771135,-0.00304419
-0.0043577,-0.00163772
0.000517569,-0.00250392
0.0161961,0.00170633
0.0515454,0.00959647
0.0642957,0.00984867
0.0482031,0.0070924
0.0530546,0.00499629
0.0614951,7.21e-05
0.0346834,-0.00657176
0.00904828,-0.00814974
-0.0121884,-0.006047
-0.0293851,0.00148135
-0.0302563,0.0133912
-0.0402002,0.0153148
-0.0561809,0.0056677
-0.0574321,-0.00161046
-0.0351044,-0.00402256
-0.0283873,-0.00633176
-0.0375372,-0.00778828
-0.0231807,-0.000590433
0.00470794,0.00826667
0.0125492,0.00908743
0.0122899,0.00594017
0.00945919,0.0030786
-5.5e-05,-0.00478042
-0.0114776,-0.0109816
-0.0126509,-0.0105237
-0.0148906,-0.0101948
-0.00426811,0.000473641
0.021914,0.0113646
0.0289616,0.011548
0.0167183,0.00379753
0.013047,-0.000643626
0.0130354,-0.0011569
0.00597111,-0.00230224
-0.00134328,0.000241875
0.0129616,0.0059479
0.0281442,0.0110548
0.0191623,0.00583468
0.00870266,0.00221767
-0.00551799,-0.00195986
-0.0221497,-0.00781545
-0.033045,-0.011589
-0.0279205,-0.0086785
-0.0272368,-0.00834909
-0.00758663,-0.000514788
0.0157987,0.00598539
0.013141,-0.00031707
-0.000266197,-0.00531569
-0.00425275,-0.00522951
-0.0121033,-0.00542574
-0.0243539,-0.00702394
-0.0224796,-0.00127975
0.00066478,0.00665669
0.0121307,0.00652106
0.0143038,0.00228836
0.0381113,0.00275687
0.0674497,0.00156857
0.096841,-0.00046993
0.119918,0.00165213
0.102969,0.00515218
0.0447999,0.00592172
-0.00858745,0.015252
-0.0652227,0.0152529
-0.122794,0.00683118
-0.152274,0.00453312
-0.117165,0.00178837
-0.00765083,-0.00332224
0.0891054,-0.00570749
0.126527,-0.000923959
0.103986,0.00795058
0.0163915,0.0054159
-0.0817363,-0.00291403
-0.159419,-0.0110917
-0.188398,-0.0147961
-0.1691,-0.0178921
-0.127316,-0.0158878
-0.0610511,-0.0135937
0.004971,-0.00602686
0.0764531,0.00681839
0.0985529,0.00930416
0.0966657,0.00177693
0.144996,-0.000592529
0.2321,-6.62e-05
0.234646,-0.00346765
0.163516,-0.00714136
0.0682113,0.00297872
-0.0115633,0.00940271
