Comp Ch 3,Comp Ch 4
-0.0125307,0.0157779
-0.000966035,-0.00779087
0.0564771,-0.0159951
0.100513,-0.0121279
0.10065,-0.00144144
0.0716998,0.00492264
0.0239372,0.00121229
-0.0321761,0.00159662
-0.071874,-0.00334302
-0.0714621,-0.0146483
-0.0463415,-0.0155696
-0.0224498,-0.00936675
0.00855945,-0.00077611
0.0691453,0.00850512
0.095168,0.019209
0.0630935,0.0335938
0.0239235,0.00641052
-0.0625706,-0.015379
-0.0452975,-0.00659132
0.0103204,0.00465595
0.0766529,0.0136087
0.0876429,0.0162551
0.0628967,0.0285111
0.0302785,0.0216412
-0.0131033,-0.00570978
-0.0585046,-0.0229249
-0.072607,-0.0264556
-0.0726321,-0.0274531
-0.0611094,-0.0190319
-0.029137,-0.00377845
-0.0165815,-0.00532731
-0.0335139,-0.00843903
-0.0343117,-0.0116186
-0.0123314,-0.0147554
0.0165402,-0.00883492
0.0510715,-0.0038102
0.0915716,0.0129613
0.122632,0.0263177
0.11771,0.0191731
0.0914863,0.0171849
0.0672585,0.0138597
0.0155543,0.00340661
-0.0643356,-0.023671
-0.130207,-0.042257
-0.132255,-0.0435137
-0.055996,0.0130387
0.00385114,0.0459378
-0.00303027,0.0395865
-0.036966,-0.0213428
-0.0734937,-0.0377898
-0.0742351,-0.000122726
-0.0460288,0.017942
-0.00659299,0.00561023
0.0606691,0.012349
0.10663,0.0259297
0.0844052,0.0206723
0.0365387,0.0149477
-0.0138858,-0.000205752
-0.0484398,-0.0115589
-0.0331311,-0.00208814
0.0201281,-0.00354684
0.0529147,-0.0250778
0.0611217,-0.00730359
0.0269567,0.0149338
-0.0556804,-0.0265521
-0.103158,-0.0487573
-0.0904546,-0.0391111
-0.0593811,-0.00993838
-0.0242339,0.0105522
0.000790788,0.00602911
0.0345938,0.00903268
0.0755561,0.0179901
0.0751903,0.0168846
0.0479856,0.019675
0.00691761,0.017829
-0.0160559,0.023806
-0.0200516,0.0360168
-0.0186064,0.00923706
-0.0127879,-0.013048
0.00458544,-0.0137641
0.00325014,-0.00906977
-0.0349655,-0.0166705
-0.0317829,-0.0168884
-0.00586734,-0.0104895
-0.00658623,-0.00751523
-0.0113177,-0.0112784
0.00410248,0.00713785
0.0213673,0.0454823
0.0155946,0.0311106
0.0283577,0.00972045
0.0475515,0.00950028
0.0567332,-0.00049233
0.0560175,-0.00958039
0.0481004,-0.013231
-0.00107514,-0.0190543
-0.0501903,-0.0137011
-0.0650084,-0.00460373
-0.0689353,-0.000598066
-0.0526041,-0.00923923
-0.0169799,-0.0268581
0.00626344,-0.0188076
0.00993351,-0.00266631
0.02047,-0.0140401
0.033207,-0.00921298
0.0232537,0.0136315
0.00239492,0.0324721
0.0142765,0.0302903
0.0269325,0.012763
0.0151005,0.00866863
0.0151934,0.0033419
0.0258444,-0.0125715
0.00194335,-0.0157248
0.00351023,0.0211529
-0.00622203,0.00795016
-0.061719,-0.0386232
-0.0770958,0.00262154
-0.0582887,0.027937
-0.0319736,-0.000186198
-0.0153125,-0.00903458
0.00273471,-0.00465115
0.030409,0.0116533
0.0308385,0.0254086
0.00766819,-0.000959837
-0.0114155,-0.00763397
-0.0165966,-0.0111849
-0.0194958,-0.018739
-0.0181144,-0.00914099
-0.00184217,-0.00877224
0.022898,-0.0291948
0.0694022,-0.0097922
0.0771547,0.0340773
0.0393732,0.00957762
-0.000976816,0.0149557
-0.0262907,-0.0106716
-0.0302456,-0.0530643
-0.0234859,0.00725078
0.0103627,0.053141
0.0482838,-0.030547
0.0343183,-0.00246601
0.00187463,0.0528204
-0.0163908,0.0122619
-0.0382963,-0.0185167
-0.0487915,-0.0140184
-0.0433742,-0.0251498
-0.0337503,-0.0301309
-0.00736419,0.0364156
0.0236218,0.0298228
0.0311048,-0.0294523
0.0129663,-0.0181054
0.00375864,-0.0015308
-0.00511314,0.00402684
-0.0158748,0.0106094
-0.0163653,0.00910935
0.00829853,0.0113138
0.0299569,0.0177488
0.0358934,0.0426037
0.0437551,0.00231928
0.0269401,-0.0386592
0.000105887,-0.009341
-0.0138732,-0.0174442
-0.0250953,-0.0342056
-0.0525905,-0.0195461
-0.0379267,0.0142006
0.0244597,0.0262689
0.0546838,0.00722881
0.0497299,-0.00117825
0.0441733,0.0117629
0.0209856,0.00543151
-0.0200351,-0.00896371
-0.0406625,-0.00811141
-0.0190683,0.0016225
0.00406841,0.0246661
0.016828,0.0262592
0.0388663,0.00368577
0.0336736,-0.0170689
-0.0093013,-0.0306501
-0.0629317,-0.0228086
-0.106217,-0.00416036
-0.11167,0.00278964
-0.0669372,0.0132458
-0.0222409,0.015398
-0.0152098,-0.012015
-0.00536846,-0.0107601
0.0119925,-0.0123554
-0.00283527,-0.0285528
-0.00252557,-0.00611013
0.051085,0.0858804
0.127218,0.0525849
0.141954,-0.00929028
0.0912445,-0.0197706
0.0156348,-0.0082755
-0.064664,-0.000843418
-0.106211,-0.00452365
-0.0806451,-0.0185726
-0.0055583,-0.0133964
0.0704725,0.00104015
0.102962,-0.00725165
0.0704408,0.000616579
-0.0135189,0.0035355
-0.0721964,-0.00176133
-0.0803542,-0.0177893
-0.0806911,-0.0174872
-0.0581811,-0.0174825
-0.0151017,-0.00330227
0.0190528,0.0135097
0.0199824,0.0202381
0.0183035,0.0359764
0.0131415,0.0143929
-0.000356175,-0.0120276
-0.00503402,-0.0145985
-0.00399802,-0.0225813
-0.00429587,-0.0264306
0.0216869,0.0079285
0.0406582,0.0410243
0.0235467,0.00611628
0.000577939,-0.0467309
-0.0032936,-0.0149999
-0.0232195,0.0560306
-0.0409693,0.00842964
-0.0266304,-0.00282141
0.0158156,0.00075331
0.0375013,0.00479133
0.0308799,0.00165141
0.0269187,0.0120397
0.0154937,0.0105467
0.00100494,-0.0106079
-0.00274243,-0.0169049
-0.00815032,-0.0112748
-0.0112092,0.00539514
0.0153885,0.0238186
0.0299974,0.013472
0.00792563,-0.00366406
-0.0102169,-0.00303049
-0.0210092,-0.00616122
-0.044928,-0.0167886
-0.0586813,-0.0205535
-0.035662,-0.00912295
0.00976848,0.0173109
0.0233516,0.0175095
0.0250048,0.00927699
0.0204304,0.0066165
0.0107336,0.00194275
0.0184784,-0.00688457
0.040624,-0.0111192
0.0450916,0.000415856
0.0540798,0.00364845
0.0586248,0.00836429
0.0258271,0.0110393
-0.02957,-0.00563459
-0.0678697,-0.0118702
-0.0858197,-0.0178362
-0.0875957,-0.0216613
-0.0724611,-0.00579175
-0.0274972,0.0164162
0.0174316,0.032468
0.0271234,0.0268415
0.0278989,-0.00733683
0.0195259,-0.0127422
0.00515022,-0.00577538
-0.00668913,-0.00282349
-0.00730709,0.000673002
-0.0105547,-0.00179114
0.0149385,0.00362099
0.0392926,0.00276515
0.023477,-0.00414108
-0.00482283,0.0032326
-0.00980117,0.00623641
-0.0152612,-0.0298768
-0.0298644,-0.0478314
-0.0211043,-0.0140716
0.0159776,0.0187199
0.0340447,0.0273294
0.0244618,0.0151779
0.0162181,0.00957439
0.0054724,-0.00829808
-0.00407009,-0.0282253
-0.0031938,-0.0172605
-0.00583809,0.0209027
-0.00107078,-0.00417627
0.0245629,-0.0382848
0.0284992,0.0258143
0.00209118,0.0358342
-0.0181684,-0.00575946
-0.0231386,-0.00772889
-0.0325109,-0.0143229
-0.0365619,-0.0313339
-0.0130392,-0.0197036
0.0240036,0.0200817
0.0198217,0.0426476
0.00597358,0.0208483
0.01585,0.027654
0.00546962,0.00886524
-0.0165613,-0.0334166
-0.0114636,-0.0249016
-0.00353144,-0.0133291
0.00477544,-0.000187383
0.0264164,0.0115015
0.0213055,0.00852585
-0.00986681,-0.00329309
-0.0241798,0.00253947
-0.0318253,0.00504985
-0.032579,-0.00156171
-0.00756237,-0.00673097
0.0383365,0.00270561
0.0751945,0.00975252
0.0619441,0.00566527
0.0276574,0.0258225
-0.0212891,0.0510679
-0.074559,0.0284156
-0.0822326,-0.0259521
-0.0436984,-0.052347
-0.0241103,-0.0308052
0.00954378,-0.00872283
0.0421158,0.00312205
0.0311716,0.00261229
-0.00154915,0.000831962
-0.0121085,0.000416838
-0.0233814,-0.0058125
-0.0369255,-0.00507854
-0.029685,-0.00366813
0.0100444,-0.00042579
0.0388685,0.0146859
0.0345265,0.0281647
0.0293426,0.0112618
0.0238256,-0.0138884
0.0187755,-0.0109269
0.0170943,-0.00929523
0.0154588,-0.00477086
0.00776739,0.00781075
0.0243803,0.0142378
0.0210701,0.00588897
-0.0145546,0.0191774
-0.0325038,0.0220858
-0.014981,-0.00401713
-0.00609578,-0.0126709
-0.0146594,-0.0128344
-0.0121656,-0.00616685
0.00518452,0.00356455
0.00433316,-0.00553189
-0.00472695,-0.0128076
-0.00944434,-0.0126183
-0.0208889,-0.010228
-0.0268753,-0.00596973
-0.0226421,0.00198747
-0.0224206,-0.010246
-0.00836745,-0.00548253
0.0261539,0.0106493
0.0338418,0.0138267
0.00993758,0.00779618
-0.00130084,0.00574344
-0.0093659,-0.00108334
-0.0288438,-0.0077833
-0.0366873,-0.0139519
-0.00470583,-0.0138602
0.0347144,-0.00376691
0.0339685,-0.000277785
0.0288343,0.00380012
0.0198948,0.00510519
0.00219188,-0.00450032
-0.0116611,-0.00562015
-0.0110028,0.0134272
-0.0153126,0.00741323
0.00621307,0.00767268
0.0316811,0.0176097
0.025197,0.00972718
0.000156948,0.00147238
-0.010985,-0.000131008
-0.0301751,-0.00776535
-0.0475509,-0.0148867
-0.0337938,-0.0190264
0.0065769,-0.00337361
0.0297482,0.0126681
0.0252773,0.00278492
0.0303557,-0.00338594
0.0221533,0.0124119
0.00151056,0.00528201
-0.00584781,-0.0123687
-0.00714139,-0.00479303
-0.00573124,0.00415579
0.0269371,0.0101214
0.0364195,0.0153261
0.00339096,0.00569516
-0.0178556,-0.00672294
-0.0193523,-0.00366984
-0.0318211,-0.00882137
-0.0443936,-0.0181115
-0.0249972,0.0145462
0.0169314,0.0471225
0.0302869,0.00710522
0.0183329,-0.0247447
0.013922,-0.0164396
0.00300452,-0.00729416
-0.0166966,0.00146091
-0.0108967,-0.0126776
-0.00697261,-0.016365
0.000869849,-0.00273472
0.0270377,0.0125163
0.0280265,0.00709638
-0.000454552,-0.00742343
-0.0103742,0.000609735
-0.0112678,0.0261763
-0.0283556,0.0223908
-0.0384001,-0.0136492
-0.00779871,-0.0175739
0.032525,-0.00949961
0.035845,-0.00241439
0.029442,0.000718456
0.0130176,-0.00151551
-0.0144638,-0.00653953
-0.0365659,-0.0135706
-0.0421792,-0.014517
-0.0275491,-0.0135898
0.0105611,0.00597664
0.0452684,0.0245646
0.0367071,0.0318513
0.00701309,0.0239563
-0.00498382,0.00968577
-0.0207735,-0.0077576
-0.0424506,-0.0149341
-0.0432456,-0.0128348
-0.00955732,-0.00695463
0.0158907,-0.000306681
0.0139657,-0.00470385
0.0118288,-0.00968173
-0.000995045,-0.0142663
-0.0149037,-0.0117249
-0.013739,-0.00471711
-0.00589175,0.0045257
-0.00293477,0.00983624
0.0190554,0.0105765
0.0337403,0.00421606
0.0146062,-0.0107827
-0.00222139,-0.0120019
-0.00732186,0.00267349
-0.0218213,0.00148067
-0.0383833,-0.0084253
-0.0232641,0.00178052
0.0173967,0.0241242
0.0304349,0.0353553
0.02409,0.0156273
0.0219706,-0.0071464
0.0179157,-0.0158749
-0.000310993,-0.016696
-0.00874628,-0.0121912
-0.0150086,-0.00481942
-0.00295274,0.00843748
0.0306463,0.0320755
0.0350176,0.0172822
0.00919261,-0.0122442
-0.0157549,-0.00742586
-0.0399518,0.00102639
-0.044973,-0.0161178
-0.0303564,-0.00551204
0.00185358,0.0251273
0.0439823,-0.0151267
0.0411406,-0.0211897
0.0237821,-0.00147025
0.00260666,-0.0024628
-0.0130408,0.00262133
-0.0144541,0.00108558
-0.00607349,-0.00112325
-0.00490188,0.00189879
0.0230891,0.0141674
0.0507247,0.0251578
0.035562,0.0201208
0.0043348,0.0040214
-0.0163587,-0.00176639
-0.0367646,0.00496331
-0.0518897,-0.0080818
-0.0473671,-0.0156881
-0.000590687,0.000882877
0.0363163,0.00997024
0.0274859,-0.00810311
0.0205567,-0.0237982
0.00588714,-0.0114642
-0.017941,0.0150113
-0.0249867,0.000581975
-0.019479,-0.0164044
-0.0151081,-0.0077121
0.0189171,0.0106706
0.0392404,0.0161946
0.0141562,0.00318591
-0.00999803,-0.00282957
-0.0119028,-0.0113779
-0.0268035,-0.030371
-0.0462584,-0.0307676
-0.0268259,-0.00457586
0.0185161,0.0236965
0.0307261,0.022221
0.0222364,0.010337
0.0134345,-0.00513817
-0.00364375,-0.0187546
-0.0205506,-0.0182749
-0.0213548,-0.00541769
-0.0199593,-0.000247839
-0.00336381,0.00619083
0.030145,0.030064
0.0367178,0.0360399
0.0116162,0.0147456
-0.000371208,0.0135483
-0.00566666,0.024488
-0.0229063,0.00849026
-0.0318872,-0.0416234
-0.00895346,-0.0123774
0.0202233,0.0309311
0.0211839,-0.00912719
0.0184411,-0.0307186
0.0104389,-0.0169175
-0.00939173,-0.0147866
-0.0244223,-0.0207557
-0.0251645,0.00621771
-0.0270707,0.0463849
-0.00263489,0.0405135
0.0305072,-0.00436893
0.0319601,-0.0122471
0.0228265,-0.0175364
0.0170395,-0.0161586
0.00157895,-0.00727348
-0.0243207,-0.0176121
-0.0343883,-0.0203217
-0.00650386,-0.00615098
0.0210782,0.00621964
0.0208126,0.00846091
0.0172731,0.00471552
0.0046927,-0.00820655
-0.0157966,-0.0184474
-0.024769,-0.0161223
-0.017856,-0.0091081
-0.0132081,0.00559206
0.0185575,0.0313362
0.0375619,0.0314219
0.0166323,0.00759179
-0.00275048,0.00357578
-0.0030183,0.019578
-0.0187376,0.0168965
-0.039524,-0.00166505
-0.0325049,-0.0139515
0.00254602,-0.00808139
0.0209088,0.00682159
0.0164273,0.00989715
0.00509343,0.00652428
-0.00982005,-0.00665825
-0.0228926,-0.0122925
-0.0192576,-0.0122211
-0.0142632,-0.0109148
-0.00248533,0.00384432
0.0276848,0.0312527
0.0390718,0.0208934
0.0214496,-0.00254714
0.0126957,-0.0102774
0.0117467,-0.0168474
-0.00430009,-0.0187867
-0.0234571,-0.0227181
-0.0105854,-0.0172792
0.0147983,-0.000189026
0.0102954,0.00447281
0.00248471,0.0100746
-0.00826382,0.0120746
-0.0173925,-0.016723
-0.024978,-0.013837
-0.0210463,0.0272752
-0.00857687,0.00066241
0.0175361,0.00659199
0.048297,0.029977
0.048518,0.000887454
0.024708,-0.0325694
0.0127592,-0.0297611
-0.000673876,-0.00526484
-0.0284009,0.0257626
-0.0389203,0.0216613
-0.00943585,0.0322273
0.0127813,0.0160514
0.00793454,-0.0327056
0.00525339,-0.0197297
-0.00887118,0.00078035
-0.028923,-0.00618174
-0.0319331,-0.0082664
-0.0215028,-0.00707528
-0.0204562,-0.00127587
0.00723522,0.00710574
0.0366267,0.00042984
0.0301564,0.00306494
0.0106575,0.0176675
0.00665952,-0.00166753
-0.00828814,-0.0334161
-0.0348539,-0.0225451
-0.0353984,0.0609261
0.00372057,0.0722005
0.0322795,-0.0327323
0.0234566,-0.0262304
0.00973609,0.0002862
-0.00753725,-0.0229545
-0.0298018,-0.038239
-0.0283511,-0.0225539
-0.0293317,0.0725369
-0.017603,0.0976253
0.031127,-0.0268908
0.0638642,-0.0486212
0.0400383,-0.0171993
0.0156461,-0.00291969
0.0105654,-0.0143237
-0.00343998,-0.0202088
-0.0221685,-0.00391451
-0.0134373,0.00886051
0.0136297,0.0114272
0.0138572,-0.0015618
0.0065671,-0.00324331
-0.00384424,-0.00468559
-0.0213807,-0.0149215
-0.0345639,-0.0167798
-0.0288819,-0.012279
-0.0198877,-0.017555
0.00926393,-0.0173718
0.0424037,0.0104544
0.0329995,0.0367766
0.00862748,0.0215652
0.00143962,0.00750993
-0.00245404,-0.000109941
-0.0232975,-0.00372595
-0.0332673,0.00389253
-0.00408322,0.0104593
0.0232847,0.0149762
0.015419,0.00679744
0.00519363,0.0153308
-0.00570789,0.029263
-0.0227796,-0.0113115
-0.033009,-0.00279857
-0.0277432,-0.00141673
-0.0176247,-0.0241234
0.0182891,-0.0101988
0.0397226,0.00881338
0.0241287,-0.000349986
0.00948712,-0.00858501
0.0164138,-0.00462509
0.0143932,-0.00364953
-0.00643979,-0.00539236
-0.0139007,-0.00249667
0.00405523,0.00726994
0.0101491,0.00342518
0.00383743,-0.00196284
-0.003127,0.0234389
-0.0128139,0.00830869
-0.0234023,-0.0230858
-0.0237197,-0.010597
-0.0194454,-0.0135862
-0.00710115,-0.00864642
0.025719,0.00278716
0.0344212,-0.00320683
0.01504,-0.0113449
0.00968887,-0.00456156
0.00813923,0.0322578
-0.0136923,0.0824851
-0.026822,0.0243447
-0.00668544,-0.0325685
0.0143709,-0.046048
0.00703,-0.0246337
-0.00503248,-0.00127393
-0.00716634,-0.00156888
-0.0205321,-0.00806146
-0.0372863,-0.00991787
-0.0297058,-0.0131869
-0.02073,-0.0181961
0.00365393,0.00248223
0.0477077,0.021725
0.0503037,0.0173605
0.024873,0.0258697
0.0139933,0.0241992
0.00369668,-0.00413151
-0.012391,-0.0101087
-0.0228609,-0.0185475
-0.0036545,-0.019655
0.0199078,-0.00328835
0.0144736,0.000356558
-0.00034967,0.00939391
-0.0153781,0.015649
-0.0267168,0.00598624
-0.0243441,-0.00847446
-0.0163614,-0.00113088
-0.0165711,-0.0122497
0.0095886,0.00527365
0.0436464,0.0199579
0.0339581,-0.00210118
0.00724342,-0.013626
0.00721441,-0.016603
0.00502108,-0.0205268
-0.0147329,-0.0128511
-0.0219162,0.000396437
0.00220574,0.0196999
0.0167161,0.018903
0.00775906,0.00962545
-0.00104462,-0.000377271
-0.0121297,-0.00710638
-0.0305692,0.016381
-0.0330608,0.0388135
-0.0163601,0.00831377
-0.00371907,-0.0195875
0.0204493,-0.00748486
0.0334545,0.00150807
0.0194631,0.0220304
0.0157919,0.000159268
0.0173691,-0.0347088
0.00762969,-0.0360278
-0.013863,-0.0307343
-0.0106315,-0.0142007
0.00730158,0.031756
0.00130824,0.0559457
-0.00863525,0.00157412
-0.017052,-0.0261453
-0.0331213,-0.0220976
-0.0339785,-0.0362778
-0.0119115,-0.0259834
0.00382358,-0.000144528
0.0182115,0.0227153
0.0459354,0.0276213
0.0491985,0.0120459
0.0225662,-0.00209151
0.0105585,-0.00046811
0.00127903,-0.000657403
-0.0194243,0.0105857
-0.0295726,0.0612447
-0.00750333,0.0702546
0.0169811,-0.0178294
0.014458,-0.0423276
0.00979185,-0.0283224
-0.0073703,-0.0257776
-0.0295264,-0.0186831
-0.0362056,-0.00591575
-0.0226252,0.00191239
-0.014862,0.00292401
0.0148931,0.00142557
0.0446311,-0.00660557
0.0327808,0.00378813
0.0127284,0.00251619
0.00493709,-0.00389161
-0.0157294,-0.0186606
-0.0410526,-0.0275226
-0.0398452,-0.0177302
-0.00757574,0.00924386
0.0141156,0.0229725
0.00927593,0.0342852
0.00838927,0.0436188
0.000821191,0.0180548
-0.0195599,-0.00331185
-0.0304778,-0.00701715
-0.0275905,-0.000896912
-0.00578193,0.0352689
0.0386449,0.0432608
0.0513724,0.0122508
0.0215305,-0.0212901
0.00748575,-0.0441872
0.00743097,-0.0401907
-0.00924353,-0.0277435
-0.0226692,-0.0177492
-0.0240803,0.00608191
-0.00624079,0.00636532
0.00351172,0.0170606
0.00429899,0.0220354
0.00327936,-0.0240116
-0.00893763,-0.0504688
-0.0248275,-0.009404
-0.024318,0.0459466
-0.0160536,0.0459974
0.00331598,-0.0156135
0.027424,-0.0246968
0.0282287,0.0224961
0.0195015,0.0293565
0.0168965,-0.0137768
-0.000884076,-0.0213339
-0.0173092,-0.0192314
-0.0201411,-0.017402
0.0149267,-0.0145356
0.0450398,-0.005029
0.0430823,-0.00147085
0.0283927,0.00858724
0.00660351,0.0187483
-0.0167416,0.0108012
-0.022576,-0.00220916
-0.0279493,0.00404686
-0.0235361,-0.0105099
0.00806553,-0.00680949
0.0259555,0.0290472
0.0184075,0.0349846
0.0118301,0.0183708
0.00666397,0.00766246
-0.0104196,-0.0304909
-0.037416,-0.0424037
-0.039223,-0.0155405
0.00350071,-0.00753571
0.0158036,-0.00908251
-0.0149038,-0.0183528
-0.0235776,-0.0126375
-0.049244,0.0519851
-0.0642313,0.0578748
-0.0356526,-0.0185856
-0.00892592,-0.0297192
0.00382731,-0.0141614
0.054467,0.00684161
0.046054,0.0192954
-0.000656922,0.0210025
0.0190616,0.0196274
0.05283,-0.00973001
0.046979,-0.030044
-0.000983686,-0.0140718
-0.0122645,0.00669821
0.0263732,0.0279464
0.0375557,0.0480083
0.022684,0.019503
0.00301904,-0.0408418
-0.0081686,-0.0461461
-0.0237803,-0.0219613
-0.0307548,0.00795445
-0.0167212,-0.0173179
0.00789475,-0.055945
0.0451662,-0.0228453
0.0269602,0.0207594
-0.0437586,0.0454552
-0.0703629,0.025364
-0.0550512,0.0234366
-0.0370237,-0.0016582
-0.0383895,-0.0267589
0.00640039,-0.0127599
0.0606398,0.0108784
0.0436887,0.00550024
0.0221136,0.0193342
0.000910159,0.0194161
-0.0236023,-0.0260077
-0.0247745,-0.0520697
-0.0149859,0.0300782
-0.0157982,0.0284549
0.00548307,0.0459764
0.0375941,0.0967662
0.0413546,-0.0219669
0.0240451,-0.0612247
-0.0068613,-0.00502796
-0.0290074,0.00890748
-0.0372085,-0.0158092
-0.0285265,-0.0275793
0.0084549,-0.0260576
0.0380153,-0.0134906
0.0344332,-0.00301101
0.0176427,0.0191071
0.00937097,0.0255453
0.00261073,-0.022004
-0.00906923,-0.0334164
-0.0101744,0.0113793
-0.00452369,0.000962419
0.0320347,0.00956309
0.0481246,0.0230847
0.00783083,0.00920881
-0.0242855,-0.0158277
-0.0183425,-0.0124148
-0.0133774,-0.00059067
-0.0338486,-0.0048872
-0.0309963,0.0231699
0.00160311,0.0457607
0.0380658,-0.0264015
0.0362259,-0.0550652
0.0148405,-0.00513357
-0.0146163,0.0100622
-0.0303923,0.0103965
-0.0312621,-0.00320596
-0.0352348,-0.041212
-0.0902027,-0.0112227
-0.121802,0.0107477
-0.0898898,-0.00576866
-0.0501951,-0.0188064
-0.0310775,0.00683666
-0.00447944,0.0318678
0.0321541,0.0391149
0.0761189,0.0147126
0.147465,-0.0137522
0.145211,-0.00510412
0.0625321,0.012597
0.0500835,0.0183103
0.0218682,-0.0204492
-0.051399,-0.0317376
-0.0289679,-0.00547751
0.0684825,0.000734035
0.0973947,-0.0482871
0.0646078,-0.00187539
0.0884893,0.107518
0.141433,0.0510168
0.0853377,-0.0310595
-0.0230837,-0.0276218
-0.113085,0.0136818
-0.16289,0.00529504
-0.15385,-0.0201083
-0.0985457,0.00157684
-0.0282632,0.0217536
0.00116882,0.0288454
-0.00349013,0.0185902
-0.00296096,-0.0311719
-0.0185232,-0.036087
-0.0323656,-0.0118401
-0.0454763,-0.0126392
-0.0564095,-0.0181843
-0.0359956,0.00654157
-0.0229332,0.0306746
0.0114097,0.0146265
0.0750083,-0.0176519
0.092328,-0.0278608
0.0454961,-0.0381649
-0.0386939,-0.0163613
-0.047734,0.0172299
-0.0488246,0.0147694
-0.0498248,0.00647804
-0.0434531,-0.0127487
-0.0196059,-0.0458351
0.00259769,-0.0487456
0.0301775,0.00298467
0.0458557,0.0291755
0.0776743,0.0271046
0.116026,0.0390151
0.114768,0.0307786
0.0282689,0.0166794
-0.0407637,-0.0176886
-0.0393013,0.000133807
-0.033744,0.0727104
-0.0220745,0.0579896
-0.0189076,-0.00838305
-0.0253943,-0.0349704
-0.0109529,-0.0235766
-0.00203913,0.0205502
0.00739225,0.0220344
0.0219215,0.0219725
0.0260451,0.0200157
0.0296536,-0.0686871
0.0175971,-0.0562668
-0.0214902,0.0211532
-0.046936,0.0306445
-0.0230962,-0.0598647
-0.0142598,-0.0598421
-0.0730719,-0.0227186
-0.102942,0.0215088
-0.0471603,0.0321533
0.0459732,-0.0123133
0.121057,-0.0216156
0.146273,0.00722151
0.0725463,0.0547713
0.00592503,0.00721571
-0.0632643,-0.0599693
-0.110807,-0.0218222
-0.076732,-0.0188683
-0.0177492,0.023681
0.00949931,0.0437298
-0.0357684,0.0112813
-0.0465916,0.0197661
0.00921344,0.042569
-0.0162237,-0.00442987
-0.0235357,-0.0187688
0.0320202,0.0608925
0.0489837,0.00562495
0.0534223,-0.108393
0.14817,-0.0505787
0.184757,0.0449902
0.0622026,0.0120167
-0.081299,-0.00858353
-0.0877275,-0.0240024
-0.0185649,0.0130216
0.120687,0.0280595
0.125086,0.0268468
-0.023893,0.0170985
-0.0926123,-0.0203887
-0.00548718,-0.0161687
0.0417159,-0.0173006
0.01555,-0.015138
-0.0106566,0.0957719
0.00476914,0.0485242
0.0185462,-0.0952406
-0.0185303,-0.00720605
-0.112639,-0.0109884
-0.143158,-0.0506646
-0.0843561,-0.00281964
0.00443689,0.0146752
-0.048167,0.0316669
-0.142922,-0.0349605
-0.147416,-0.0384063
-0.121776,0.0192703
-0.047628,-0.0295223
0.0371488,-0.0846288
0.142413,-0.0339777
0.204086,-0.00111802
0.165739,0.0237301
0.132975,0.0520895
0.0823854,0.0377913
-0.0160839,0.0898003
-0.0622455,0.0355917
-0.122431,0.0517784
-0.184485,0.0558595
-0.138154,0.0541319
-0.027487,-0.0235071
0.0704093,-0.0493579
0.0945543,-0.0288775
0.0860696,-0.0331906
0.0414375,0.0162066
0.0408192,0.0444124
0.0748907,0.0643508
0.0437833,-0.00909726
-0.0105769,-0.0497996
-0.0714445,-0.0695081
-0.12589,-0.0421595
-0.149776,-0.0646083
-0.140495,-0.0690653
-0.153099,0.0357822
-0.0916281,-0.0147418
0.0886375,-0.061843
0.297369,0.0160171
0.435752,0.0281915
0.360142,0.0347273
0.257302,0.0263031
0.210702,-0.00597072
0.11078,0.00604829
-0.0703454,0.0285292
-0.184245,0.0431847
-0.189496,0.0364085
-0.198568,0.019515
-0.261737,0.00884453
-0.306928,-0.0272628
-0.289984,-0.00582076
-0.113333,0.0278585
0.0700791,-0.0241217
0.105859,-0.0315371
0.0628768,-0.0288907
0.00448371,-0.034026
-0.0145652,-0.0208789
-0.0556929,-0.0019956
-0.0401624,0.00317015
-0.0137117,0.0143235
-0.0257486,0.0232829
0.0178487,-0.00722925
0.0361335,0.00492192
0.0305985,-0.0242374
0.0348585,-0.0601978
0.0611852,-0.0248368
0.0930556,0.0285639
0.0636545,0.0375741
0.018241,0.0367944
0.0306445,0.0246342
0.0533754,0.0415187
0.0577201,0.0400954
0.0531382,0.0287183
0.00900268,0.0134056
-0.0305577,-0.0122692
-0.0504882,-0.0368884
-0.040836,-0.0333022
0.0364155,-0.0201115
0.107698,-0.00644756
0.10516,-0.00539059
0.062308,-0.0281746
0.022898,-0.0361213
0.00550921,-0.00597104
-0.0371665,0.00308751
-0.105042,0.00419295
-0.139004,-0.0159339
-0.140343,0.0254953
-0.162019,0.0360996
-0.0260544,0.00504609
0.0928751,0.0250808
0.080517,0.0185256
-0.0189466,-0.0284689
-0.0862829,-0.00420723
-0.0732035,-0.0171389
-0.0723977,0.0108399
-0.000187989,0.0228145
0.0562421,-0.00810642
0.072709,-0.048809
0.103311,-0.0195044
0.0715639,0.0318697
-0.0486201,0.043793
-0.077595,-0.0345828
-0.0123447,-0.0345998
0.0569562,0.011441
0.0707336,0.0223125
0.0849942,0.0751561
0.074449,0.0292128
-0.00100176,-0.00419796
-0.0252673,-0.00485697
-0.00498694,-0.00355465
-0.0471992,-0.00410458
-0.0838971,-0.00225468
-0.0750069,0.00503337
-0.0493203,0.0111912
0.0270904,0.00777487
0.0880575,-0.0188001
0.095603,-0.0530122
0.0462235,-0.0375859
0.035476,-0.00485185
0.0288688,0.010738
-0.027984,0.0123519
-0.0705472,-0.00968304
-0.0578357,-0.0146698
-0.0109542,-0.0213947
0.00082922,-0.0229355
-0.029525,-0.0252297
-0.0238215,-0.0085304
0.0201313,-0.0163693
0.0205284,-0.0109671
-0.0581566,0.0881947
-0.128886,0.0796836
-0.149375,0.0106062
-0.0253035,0.0177158
0.00790593,0.0258068
0.0445714,0.0102851
0.156185,-0.0663471
0.179862,-0.0762406
0.058298,-0.0404768
-0.0809996,-0.0347086
-0.118798,0.0218503
-0.166938,0.0809874
-0.0967431,0.0595613
0.129725,0.0064114
0.271979,-0.00191239
0.209425,0.0198343
0.13579,0.0985156
0.0815539,0.0177062
0.02087,-0.11645
0.00578178,-0.0857724
-0.00291449,-0.0474909
-0.0333456,-0.037504
-0.0604576,-0.0322287
-0.0572584,0.0301016
-0.0593845,0.0450425
-0.040344,0.00670461
0.013368,-0.00197555
-0.00770264,0.0456629
-0.0789068,-0.0308492
-0.0926603,0.00189161
-0.152399,0.0561377
-0.164092,-0.0541272
-0.144938,-0.101216
-0.148875,-0.0511713
-0.0508608,0.0494819
0.0945687,0.0976976
0.19254,0.0532082
0.168962,-0.0312322
0.0840267,-0.0388561
0.0582282,0.080069
0.105638,0.0675162
0.114406,-0.0127783
0.0885894,0.0625772
0.00127118,0.0623362
-0.0795059,-0.0667355
-0.0923208,-0.0968275
-0.117864,-0.0361915
-0.0880271,-0.0180683
-0.0209678,-0.0394243
0.0205484,-0.0290991
0.0235662,0.0121568
-0.00252653,0.0320579
-0.040169,0.00304058
-0.0626971,-0.0219745
-0.072711,-0.0203373
-0.0419981,0.0128009
0.0361972,0.0504536
0.0633679,0.0466845
0.0242865,0.055355
-0.00745421,0.0224046
-0.00351408,-0.057128
0.00567858,-0.0396724
-0.00689441,0.0172769
-0.0378319,-0.0310839
-0.0785438,-0.0645358
-0.0451544,-0.000239124
0.0617482,0.0346287
0.0975032,0.0289626
0.107564,0.0149427
0.103934,0.0300303
0.0849825,0.0342106
0.0477631,-0.0211152
0.038352,-0.0612475
0.0198935,-0.0354484
-0.0548322,0.0788226
-0.0515435,0.0935226
0.0217996,-0.0277947
0.0700635,-0.0477075
0.06183,-0.034744
-0.0217638,-0.0520048
-0.138087,-0.00127211
-0.162469,-0.00118035
-0.105793,-0.0421889
-0.0347467,-0.0580584
-0.0220448,0.00478519
-0.0235427,0.0205682
-0.0257615,-0.0236617
-0.0285516,-0.00780533
0.056971,0.00956724
0.115923,0.0365959
0.112391,0.0236234
0.0874459,0.00344199
0.0288712,0.047386
-0.00792312,0.109591
-0.00710911,0.0643435
-0.0293248,-0.0265207
-0.0779256,-0.0360985
-0.0694168,-0.0146036
0.0133457,-0.0326619
0.0533125,-0.0382228
0.0316046,-0.013258
0.0177825,-0.0040594
0.0284856,-0.015311
0.0134515,-0.00282327
-0.0206278,-0.0287707
-0.0320859,-0.0099604
-0.0195079,0.0298098
-0.000849656,0.019865
0.022721,-0.0164921
0.0336192,-0.0044225
0.032418,0.0235671
0.00209333,0.0510411
-0.04948,0.0109812
-0.0663367,-0.0282215
-0.068447,0.00589218
-0.0427227,0.0543798
-0.0151348,0.0124837
-0.0189439,-0.0341306
0.0134552,-0.0362421
0.0734561,-0.0491644
0.0770042,-0.0193125
0.02155,0.0497315
0.0147772,0.0565276
0.0913772,-0.0322583
0.093832,-0.0376627
0.0170335,-0.0169145
-0.012106,-0.0132201
-0.0189243,-0.0340255
-0.0732454,-0.00672529
-0.125502,0.0311742
-0.111323,0.0107681
-0.0495341,0.0252995
0.00535662,0.0333196
-0.000857183,0.0256142
-0.00653559,0.0194511
0.0136127,0.0581713
0.0386547,-0.0114376
0.0525137,-0.10624
0.0591614,-0.0443905
0.0477147,0.00335651
0.0272135,-0.00976836
-0.00157696,-0.0238883
-0.0212251,-0.0341515
-0.0451778,0.0339353
-0.0623881,0.0435937
-0.0895705,0.0131177
-0.0907628,0.00924204
-0.0500194,-0.00606563
0.0406637,0.0046712
0.105837,0.028679
0.064525,0.0347334
0.0131574,-0.00505546
0.00525993,0.0069782
-0.000540261,-0.00850866
-0.010486,-0.020727
-0.0173985,-0.016788
0.00290859,-0.0285306
0.0337323,-0.0379918
0.039522,0.0228688
0.017297,0.0384859
-0.0160715,-0.00514302
-0.0450488,0.00530622
-0.0424338,-0.00176181
-0.0196323,-0.013831
0.00117282,-0.0224194
0.00742598,-0.0149352
0.0205114,-0.0121161
0.040029,-0.00862384
0.0237601,-0.0066217
-0.0150411,-0.000596617
-0.0127366,0.00222717
-0.00648751,0.0118941
-0.0102651,0.0336882
0.00945206,0.0399877
0.0321779,0.0157159
0.018913,0.0458659
-0.0150868,0.037217
-0.0339252,0.00817033
-0.0500791,-0.0368565
-0.013246,-0.0458157
0.023532,-0.0469532
0.0449344,-0.0267412
0.0650216,0.00938103
0.0639146,0.0116031
0.0451518,-0.0122208
0.00246334,0.0141554
-0.00939371,-0.00263244
-0.00141462,-0.0191242
-0.00780083,0.00946823
-0.0180148,0.0225953
-0.0217712,-0.0172412
-0.0428935,-0.0186625
-0.0639584,0.00890776
-0.0648935,0.00156668
-0.0413765,-0.0125118
-0.0373256,0.0500253
-0.0146462,0.035874
-0.00438232,-0.00575769
0.0282723,-0.0310503
0.0706657,0.0449991
0.0574619,0.101506
0.00257549,0.0208477
-0.0226841,-0.0903112
-0.0163843,-0.0896477
-0.0373248,-0.0462917
-0.0567969,-0.0160139
-0.015884,0.00717406
0.0518834,0.00999492
0.0647812,-0.0029907
0.0638237,-0.00012145
0.0437497,0.00427165
0.00976921,0.0100036
-0.0125613,0.00914727
-0.0171567,0.00401543
-0.010994,-0.01042
-0.00402999,-0.0218318
-0.0116179,-0.00912326
-0.0120209,0.00674283
-0.00930733,0.00179848
0.00332878,0.00907104
0.00680146,0.0206053
-0.00355252,0.00891401
-0.0130271,0.0116314
-0.00561577,0.0250206
0.00528441,0.0187674
-0.00796266,-0.00918663
-0.0121617,-0.0170552
-0.0129596,-0.0174741
-0.0315791,-0.0279102
-0.0112944,0.000515305
0.0132248,0.021837
0.0272146,0.00129797
0.0600677,-0.0139197
0.0460099,-0.0150365
0.00654453,-0.0141303
-0.00315532,-0.0147859
0.00797717,-0.010418
0.00562027,-0.007862
-0.00249294,0.0126443
0.00524236,0.030147
-0.0110853,0.0459154
-0.0380422,0.0414113
-0.0519824,0.0272983
-0.0208251,0.0205306
0.0244949,-0.0235346
0.0443602,-0.0529795
0.0313378,-0.0172623
0.0153217,0.00288836
0.0277885,0.0146817
0.0301414,0.0270745
0.01963,-8.98e-05
-0.0105364,0.0105788
-0.0458779,0.05775
-0.0604851,0.0803188
-0.0548382,0.0175487
-0.039323,-0.0945434
-0.0100785,-0.0764697
0.0198968,-0.0366359
0.0428889,-0.031154
0.0423674,-0.0308971
-7.24e-05,-0.0500931
-0.0460966,-0.0275147
-0.0283392,0.0242844
-0.00348365,0.0464963
0.00591626,0.0233442
0.0248359,0.00696369
0.030386,0.011753
0.00838402,0.0322346
-0.0129716,0.0307269
-0.00954945,-0.00474818
-0.0207182,-0.0167941
-0.0407672,0.0130215
-0.0264953,-0.00943799
0.00791366,-0.0305433
-0.0141721,-0.00716347
-0.0392054,0.0201414
-0.0390648,0.00687997
-0.00795977,-0.0268416
0.0185996,-0.0199327
0.0107375,0.0187919
0.0200704,0.0119314
0.0280272,-0.0392766
0.0309603,-0.0488047
0.0222999,-0.018684
0.00485964,0.00808358
0.0286845,0.0188034
0.0249668,0.00697588
0.00344615,0.00365902
0.00561731,-0.0118611
0.0259194,0.0037785
0.0298751,0.0247613
0.00432909,0.0169177
-0.00969045,0.0657394
-0.00923703,0.0409229
-0.0181772,-0.0234858
-0.0345511,0.0073207
-0.043831,0.0189455
-0.0355035,0.00765629
0.00232634,0.00951011
0.0334737,0.00447947
0.0185558,-0.0186662
-0.0142828,-0.0400857
-0.0198025,-0.0355398
-0.00136802,0.065128
0.00983119,0.125244
0.00991396,0.0187074
0.0219175,-0.100657
0.0331285,-0.0645443
0.0313655,-0.0439492
0.0157028,-0.0426708
0.00447199,-0.0260444
-0.0260604,-0.000873153
-0.0346095,0.0109786
0.0030069,0.0151216
0.00845263,0.00687807
0.0276673,-0.00605511
0.0373262,-0.00640033
0.010537,-0.000440705
-0.00833944,-0.00108879
-0.0299211,-0.00256224
-0.0577459,-0.000527596
-0.0515465,0.00256074
-0.0427339,0.0286603
-0.0152922,0.0496115
0.0289741,0.00654793
0.0630492,0.0111452
0.04881,-0.0154819
-0.00264168,0.0177131
-0.0430848,0.0294237
-0.0178925,-0.0444094
0.00191762,-0.0427284
0.0146088,-0.0183542
0.0319123,-0.000756261
0.0215126,0.0195744
-0.0173882,0.0180738
-0.0297345,0.00395995
0.00721221,-0.0146597
0.0176663,-0.0326569
-0.000999263,-0.0253238
-0.002501,0.0287949
0.00974658,0.069268
0.0115241,0.0252995
0.0105483,-0.0217151
0.00688908,-0.0184988
-0.0111695,-0.00125434
-0.0239669,0.00776802
-0.0214361,-0.00233153
-0.023849,-0.0151167
0.00779552,-0.0118694
0.0288796,-0.00611884
-0.0300127,0.00767948
-0.0775251,0.0105258
-0.0515602,-0.00792354
-0.0118838,-0.0127009
0.00201213,0.0195209
0.0191228,0.00657862
0.0537249,-0.0104614
0.0843639,0.00137769
0.0764689,-0.0220491
0.0502781,-0.00282919
0.0278183,0.00295872
-0.0048254,-0.0325655
-0.0452614,-0.0387824
-0.0545449,-0.0277422
-0.0437266,0.00375566
-0.0116718,0.0487985
0.0175066,0.0830069
0.00793082,0.0522617
-0.00370999,-0.0186806
0.000278596,-0.0269327
-0.00541961,-0.0235999
-0.0206511,-0.0150525
-0.00937978,-0.0121708
0.0193926,-0.0113937
0.0186013,-0.00909786
-0.00301191,0.0431143
-0.0262398,0.0792364
-0.0613885,0.00922302
-0.0926402,-0.0521352
-0.0528125,-0.0262696
-0.0168503,0.0111793
0.0186584,0.000807407
0.0744447,0.0218061
0.100634,0.0357697
0.0899257,0.00141906
0.0676311,-0.041918
0.025237,-0.0298526
-0.0249694,-0.0154177
-0.0538741,-0.00420825
-0.0223638,-0.0083389
0.0224488,-0.0178286
0.00839996,-0.0122717
-0.00878373,-5.49e-05
-0.0191982,0.0192437
-0.0352462,0.0434621
-0.037692,0.0806915
-0.0184072,0.0320191
-0.0230764,-0.0818318
-0.0299429,-0.0323053
0.0207527,-0.0234122
0.048361,-0.0351708
0.0306252,-0.00242241
0.0153457,0.0211988
-0.00209499,0.000339063
-0.0178508,-0.018144
-0.0147611,-0.000234244
0.005022,0.0762075
0.000985632,0.0557454
-0.00965967,-0.0357667
-0.00510742,-0.0427707
-0.0212459,-0.0151945
-0.0287622,-0.0274513
-0.031228,-0.0345961
-0.0191668,-0.00951691
-0.00369657,0.0274222
0.032706,0.0252287
0.0596685,0.0112612
0.0463504,0.000391343
0.0233309,-0.0126621
0.0242191,0.0109274
0.0199231,0.0152411
0.000603893,0.0135821
0.00258937,0.0141004
-0.00511533,-0.00855219
-0.0454569,-0.000851966
-0.0470018,-0.00196709
-0.00533828,-0.0160192
0.0183327,-0.0113778
0.0277933,-0.00858968
0.0180195,-0.00366409
-0.0207804,0.00489387
-0.0447714,-0.000703325
-0.0138332,-0.000331849
0.0303121,-0.0028007
0.0285957,-0.0130225
0.00342162,-0.0079418
-0.00807155,0.00484118
-0.0637749,0.0269235
-0.0683399,0.0122327
0.0080359,0.0165183
0.0598417,0.0358214
0.060267,0.00381445
0.0625493,-0.0236696
0.0343312,-0.0189005
-0.030888,-0.00705613
-0.0585603,-0.00143661
-0.0506953,-0.00863441
-0.0393668,0.0048221
-0.00449769,0.0293478
0.0417147,0.0112204
0.0545172,-0.0137413
0.0174977,0.00194309
-0.0309295,0.0657891
-0.0451665,-0.00417828
-0.0517896,-0.0609897
-0.0472238,-0.0479517
-0.00840046,-0.027791
0.028717,0.00170211
0.0367794,0.00954309
0.0602656,0.0432443
0.0767075,0.0244548
0.0475388,-0.0185602
0.0175021,-0.0254369
-0.00271263,-0.0229119
-0.0284346,-0.00686521
-0.0191822,0.00409577
0.00449201,0.0129688
0.000662877,0.0274539
-0.0128483,0.0108323
-0.0150636,0.0042017
-0.0171056,-0.0043301
-0.0164402,-0.0211288
-0.00535389,-0.0151999
0.0271943,0.000762959
0.0316861,0.0100736
0.0100972,0.0225949
-0.00976764,-0.00188907
-0.0309389,-0.00928552
-0.0661101,-0.003693
-0.0542744,-0.00787499
-0.0169031,-0.00511561
0.0185899,-0.00336566
0.0449428,0.00646486
0.0415926,0.0191108
0.0085358,0.0114468
-0.0159557,-0.00282552
-0.0250446,0.0116917
-0.024581,-0.011229
-0.0192545,-0.0255197
0.00625474,0.00305307
0.0440284,0.00339179
0.0493116,-0.0290304
0.0302263,-0.0321093
-0.00253359,0.00383487
-0.0174934,-0.00497219
-0.0151616,-0.018218
-0.0162664,0.0855617
-0.0183512,0.10918
-0.017069,0.00695786
0.0140795,-0.034377
0.0125673,-0.00718677
-0.0021145,0.0178525
0.00632891,-0.0102417
0.0114291,-0.00777011
-0.0229559,-0.0209974
-0.0571846,-0.0387031
-0.0307063,-0.025054
0.0296293,-0.0121508
0.0445155,-0.0116654
0.0293259,-0.0215601
0.00626766,-0.0158568
-0.00629235,-0.00461376
-0.0172614,-0.00826243
0.00231892,0.0178242
-0.00440637,0.110725
0.0224291,0.0315326
0.0410012,-0.0585961
-0.0138938,-0.033719
-0.0427088,-0.00953889
-0.030081,0.0102732
-0.00545179,0.00794377
-0.00172219,-0.00705192
-0.0117857,0.00259552
-0.020106,0.0173973
-0.0370076,0.070862
-0.0162634,0.0545949
0.033357,-0.0493575
0.0476971,-0.00777417
0.0363458,-0.00409815
0.0232953,-0.0397153
0.00633994,-0.0426113
-0.00226419,-0.0290994
0.0266911,-0.00634891
0.0350221,0.00121382
-0.0111782,0.00327649
-0.0323436,-0.00684344
-0.0192755,-0.0206429
-0.0240321,-0.00286015
-0.0226792,0.000717081
0.0309312,-0.00137794
0.0660426,0.0448009
0.0579212,0.0335727
0.0408682,0.0117741
-0.0021947,-0.0109548
-0.0493001,-0.0110726
-0.0746954,0.0198292
-0.059313,0.0066225
-0.0363473,-0.029872
-0.0154399,-0.0119607
0.00461079,0.012168
0.0212949,0.0165804
-0.031622,0.0226995
-0.0639166,0.0158153
-0.046846,-0.00830924
-0.0397967,-0.0154763
-0.0128878,0.00314523
0.0542465,0.00384354
0.105631,0.00116492
0.0938749,-0.0136797
0.0593487,-0.0247912
0.0197144,-0.020439
-0.0137348,-0.0126188
-0.021369,-0.0258408
-0.00909477,-0.0328318
0.00963052,-0.00181115
0.0178577,0.0391736
0.0138002,0.0155566
-0.0077714,-0.00934647
-0.0177133,0.019265
-0.0135941,0.0308043
-0.0161098,-0.00146042
-0.0246662,-0.00469815
-0.0151352,0.0120084
-0.0011193,0.0230483
-0.00589434,0.0047566
-0.0166332,-0.0173076
-0.00534233,-0.00417973
0.00340803,0.0121441
0.00943569,0.00461013
0.0135629,-0.0129752
0.00421338,-0.0122911
-0.0125303,0.00381327
-0.0166012,0.0271878
-0.00908415,0.00791919
0.0211738,-0.0203926
0.0436184,-0.00611756
0.030603,0.0161237
-0.00495201,0.0237169
-0.035874,0.00812544
-0.0324429,-0.000830816
-0.0200424,-0.000850671
-0.0108351,-0.0118856
0.000872991,-0.0196011
0.000744688,-0.0113312
-0.0118595,-0.00246877
-0.00373567,-0.0197863
0.00993099,-0.0162824
0.00562507,6.93e-05
0.0241211,0.00672531
0.0667739,0.0113153
0.056394,0.0160235
0.0049579,0.00511648
-0.0158708,0.00650218
-0.0147877,0.00164206
-0.0197468,0.00314101
-0.0209333,-0.00451885
-0.00658898,0.0230229
-0.00621351,0.0185566
0.00396451,-0.0128736
0.0180207,-0.0341926
0.0216179,-0.0205453
0.0108051,-0.00408131
-0.0271027,-0.00557874
-0.0692617,-0.0205461
-0.0829202,-0.0152333
-0.0251187,0.0118333
0.0398667,0.0125542
0.0323355,-0.000146102
0.00235612,0.0142414
0.0074131,0.00634653
0.00541374,-0.0116885
0.00334723,-0.0340035
0.023511,-0.0426943
0.0162536,0.010544
-0.00464168,0.0523204
-0.0196511,0.0307828
-0.0153539,0.00845496
-0.0218887,0.00746192
-0.0128092,-0.00661442
0.0187351,-0.0124751
0.0262435,-0.00653989
0.0231966,0.0043046
0.0455515,0.0228592
0.05168,0.0247018
0.0122033,0.00605049
-0.0242398,-0.00972535
-0.0359338,0.000186122
-0.0527307,0.00383965
-0.0701682,-0.0294863
-0.0668645,-0.0271192
-0.0299289,-0.00952966
-0.00364208,0.0420627
0.0241936,0.112007
0.0572721,-0.038446
0.0604594,-0.0804564
0.0589856,-0.0317957
0.0603781,0.000104818
0.0542131,0.0323896
0.0546868,0.0140461
0.061455,0.00668317
0.0490591,0.00118886
0.00260906,0.003637
-0.0306808,-0.0141263
-0.0511262,-0.0459138
-0.0791117,-0.0302144
-0.100204,-0.0129263
-0.0782996,0.0063004
-0.0251686,0.0151962
0.0200093,-0.000987548
0.0318802,-0.00334794
-0.0024707,0.00245671
-0.0413261,0.00775507
-0.0380659,0.00551439
-0.0359499,-0.00035987
-0.0661884,-6.81e-05
-0.0239628,0.0235871
0.026606,0.033927
0.0410351,0.0133214
0.0363879,-0.0130453
0.00988513,-0.0149351
-0.0155603,0.000472051
-0.0244887,-0.00608488
-0.00744738,-0.0302431
0.0227101,-0.0119485
0.0531701,0.0258358
0.0472111,0.0215413
0.0381331,0.00878973
0.0273698,0.012765
0.00651354,0.00504492
0.00571056,-0.00467852
0.0199433,-0.0165802
0.0163297,-0.0178714
0.0183411,-0.00466556
0.0206304,0.0149362
-0.00466043,0.00608826
-0.0256223,-0.0105163
-0.0265047,-0.0125993
-0.0274029,-0.0161037
-0.0443207,-0.00845812
-0.0424222,0.00456131
-0.0160637,0.0515077
0.00486147,0.0203251
-0.000530798,-0.0228764
-0.00954048,0.00242947
-0.00991682,-0.00413077
0.000564242,-0.0192846
0.00222712,-0.0221282
-0.0104784,-0.0145164
0.011861,0.00327208
0.0638581,0.0348115
0.0761202,0.0417717
0.0495564,0.0152293
0.0252229,-0.00331275
0.0201241,-0.0055471
-0.00517763,0.00837685
-0.0333631,0.00124856
-0.0293814,-0.0171585
-0.017282,-0.00158387
-0.0176899,-0.00340622
-0.0104917,-0.0303023
-0.00715688,-0.022644
-0.0196452,0.00155478
-0.0287378,-0.00191585
-0.0106813,-0.0218878
-0.0133245,-0.021351
-0.0114008,-0.000149532
0.00150319,0.00767467
-0.0123736,0.0079931
-0.0101774,0.00163716
-0.000171204,0.00798831
-0.0272023,0.0101514
-0.0431256,0.00464808
-0.0356663,-0.00273008
0.0221946,-0.00693052
0.0557776,0.0151459
0.0507656,0.0015958
0.0582653,0.00248421
0.047162,-0.00179543
0.0277208,0.00717104
0.0152729,0.00267975
-0.00797629,-0.0198268
-0.066806,0.00216764
-0.0694005,0.0240261
-0.0274573,0.0279575
0.00588007,0.0116316
0.0112071,-0.000693921
0.0212677,-0.0138051
0.00511911,-0.0282707
-0.00435092,0.0114395
0.023644,0.00882998
0.05058,-0.0163829
0.0369311,-0.00532076
0.00719755,-0.00178672
-0.00653226,-0.00095737
-0.0131785,0.00325559
-0.027547,0.0105903
-0.0277037,0.0234436
-0.0146926,0.0127008
-0.000743802,-0.00336005
0.0193459,-0.0156467
0.0111939,-0.0111598
-0.00724342,-0.0020269
0.0038024,-0.0117786
0.00493524,-0.00618448
-0.03037,0.00839175
-0.0586957,-0.0188867
-0.0377465,-0.0176492
-0.000431815,0.00468621
0.0112731,0.0215037
0.0144541,0.00903311
0.00772724,-0.00430108
-0.0052633,-0.00729808
-0.00822469,-0.00509902
0.0155517,0.00286621
0.0340092,0.0332058
0.0557571,0.0249314
0.0558454,-0.00370975
0.00842876,-0.0126238
-0.0223392,-0.0357313
-0.0255128,-0.016805
-0.0305534,0.0556829
-0.0466569,0.0466144
-0.0338808,-0.0299703
0.0148603,-0.0315932
0.0323704,0.00816145
0.0389122,0.0116796
0.0493106,0.00717937
0.0222471,-0.00942004
-0.0227488,-0.0402002
-0.0430621,-0.0266212
-0.0500515,-0.0123854
-0.0479368,-0.00329122
-0.00568818,0.0117377
0.0158057,0.0229526
-0.0253948,0.0161767
-0.0310208,-6.05e-06
0.0193998,-0.0185275
0.0280047,-0.0190815
-0.00551039,-0.0108655
-0.00634884,0.0118891
0.012747,0.0218246
0.00316876,-0.00120631
0.0144919,-0.0099949
0.0168631,0.00704972
0.00433211,0.0187235
0.00734383,0.0117467
0.0132396,-0.000747886
0.00953529,0.000462403
0.00832242,-0.00520903
0.0280372,0.00561517
0.0159329,0.0243821
-0.0112391,0.00746335
-0.00328068,-0.0196857
0.00531832,-0.0233563
-0.0123419,-0.0154942
-0.0318154,-0.0337991
-0.0238698,-0.0228054
-0.0124991,-0.00527421
-0.0278332,-8.09e-05
-0.00822777,0.00101252
0.0229873,0.00746866
0.0241975,-0.00114695
0.0123009,0.00315988
0.0256207,0.0258159
0.0268508,0.0296576
0.0303981,0.0300385
0.0378964,0.0240997
0.0324589,0.00607614
0.011464,-0.00396199
-0.013939,0.00414987
-0.0291907,-0.0149783
-0.0501608,-0.0142673
-0.0598657,0.041931
-0.0373376,0.0236321
-0.0175448,-0.0544508
-0.0062888,-0.0450878
0.0120716,-0.00563575
0.0169513,0.0101336
-0.00478439,-0.00482639
-0.0207694,0.0154286
-0.0247829,-0.0127202
-0.0625396,-0.0399806
-0.0423455,-0.0324568
0.0332645,0.0142176
0.0701488,0.0617026
0.0731228,0.04801
0.0513243,0.00203243
0.0177874,-0.0115277
0.00169991,-0.00883234
0.00767473,-0.0130443
0.0338333,-0.0206988
0.0301469,-0.0149433
0.000867116,-0.00284307
-0.0170819,0.00486526
-0.0269721,-0.0127263
-0.036301,-0.00354962
-0.0424982,0.0383531
-0.0417738,0.0665312
-0.0231572,0.0582173
0.0182525,0.00979756
0.0372619,-0.046836
0.00734473,-0.0275771
-0.00515382,-0.0149894
0.000949714,-0.0119568
-0.0131288,-0.00785702
-0.0163396,-0.0214522
-0.00206598,-0.0187074
0.0141791,-0.00209244
0.0158918,-0.00888033
0.00946416,-0.0144964
-0.0139117,-0.00936937
-0.0423531,0.00478559
-0.0391011,0.00558029
-0.0310057,-9.58e-05
-0.0117449,-0.00670761
0.0264115,-0.0023304
0.0581917,0.0032232
0.0569899,0.00567502
0.0266324,0.00652658
0.00798537,0.010156
0.0152425,0.0126428
0.0136445,0.0225522
-0.000723658,0.0168047
0.00445038,0.0147485
0.0232673,0.00907125
0.027923,-0.0211468
0.0282364,-0.0222538
0.000240747,-0.0109717
-0.0429333,-0.0078462
-0.0553568,-0.0172387
-0.0570306,-0.0275129
-0.05907,-0.0218161
-0.0325858,0.0194365
0.00170223,0.0270881
0.0202589,0.0244118
0.0261707,0.0342835
0.0232571,0.00398655
-0.00168882,-0.0276354
-0.0375713,-0.0205956
-0.0430719,-0.014424
-0.00506588,-0.000300135
0.0263521,0.027108
0.02213,-0.00366763
0.0122387,-0.0107479
-0.00958463,-0.00752484
-0.0482338,0.00670405
-0.0296693,0.00950059
0.0120024,-0.00380977
0.0236241,0.028659
0.0307534,0.0375405
0.0457392,0.00869127
0.0435699,0.00283925
0.0257835,-0.00440976
0.0121755,-0.0296889
-0.0167399,-0.00877022
-0.0420965,0.0128139
-0.0277312,-0.000867105
0.0151497,-0.000926884
0.0422865,-0.00483527
0.0363756,0.00382553
0.0298242,0.0111034
0.0169343,-0.0217983
-0.0193778,-0.0321112
-0.0468579,-0.0101213
-0.0542529,0.00324057
-0.0589042,0.00684799
-0.0642068,0.00496924
-0.0344948,-0.00167637
-0.0126395,-0.0181994
-0.000664274,-0.0253457
0.00202621,0.000947239
0.00015677,0.00719614
0.0066169,0.00233623
0.0139878,-0.00351932
0.0217174,-0.00114024
0.0207841,0.00495029
0.0200814,0.0184718
0.0170519,0.0150617
0.00667975,-0.00501816
-0.00569995,0.00720976
0.0100352,0.00764985
0.0263683,-0.0154395
0.0584289,-0.0259889
0.0696969,-0.00228153
0.0425518,0.0180326
0.0160695,0.0211341
-0.0025881,0.00785193
-0.0330803,-0.00447473
-0.057451,-0.00559492
-0.0389365,0.00429426
0.0218556,0.0123279
0.0597803,0.00706265
0.0571262,0.0050023
0.0349829,0.00536101
0.0177608,-0.0149007
-0.0229305,-0.0250417
-0.0542603,-0.0155454
-0.0574291,0.00538284
-0.0411426,0.00124745
-0.00340629,0.00746416
0.00922036,0.0418171
-0.00283241,0.0131052
-0.016573,-0.0286394
-0.0273618,0.00554592
-0.0299335,0.0235616
-0.0197379,-0.0139835
-0.00629008,-0.00511749
-0.00882107,-0.0161938
-0.0359866,-0.0203993
-0.0247352,0.00270172
-0.0183394,0.0543008
-0.019185,0.0311617
-0.0112821,-0.0387312
0.00452856,-0.0435084
0.0219405,-0.0127817
0.0511784,0.00822439
0.0919772,0.016218
0.0915684,-0.0111647
0.022744,-0.0301421
-0.0206497,-0.0289129
-0.0208776,-0.0128198
-0.0215335,0.0108476
-0.0166598,0.0279004
0.0106119,0.0634211
0.0285804,0.0440095
0.0229348,-0.00820361
0.0151503,-0.00788108
-0.00406482,-0.0186714
-0.0151156,-0.0285623
-0.0225248,-0.0272238
-0.017114,0.00231921
-0.0139825,0.0125408
0.010601,0.0114997
0.0304305,0.0076205
-0.00170722,0.00523598
-0.0324409,0.00159674
-0.01781,-0.00586959
-0.0111337,-0.0112301
-0.0230942,-0.0198511
-0.0246861,-0.0100786
0.0051601,0.00749505
0.0163517,0.00162346
-0.00478427,-0.00540636
-0.00641937,-0.00485664
-0.0126285,0.00897431
-0.010676,0.0123266
0.000114622,0.00680169
0.00139243,0.0141402
-0.0091448,-0.0103743
0.00232814,-0.0153594
0.00469842,-0.00494409
-0.0032931,0.00906948
0.0016076,0.00595072
0.0115997,-0.0182034
0.000307403,0.00346844
-0.0284647,0.0457251
-0.0361952,0.0101399
-0.0130346,-0.0284358
-0.000879347,-0.0149027
0.0131119,-0.00185573
0.0372813,-0.00536149
0.0361739,-0.012029
0.0198622,-0.00566619
0.010149,0.00597625
-0.00671805,0.00308472
-0.00266138,0.00847902
0.0269651,0.0133098
0.038477,0.00675655
0.0241123,0.0027571
0.0137217,0.0068278
-0.00484202,0.00288558
-0.0405725,-0.00503258
-0.061181,-0.0110544
-0.0333413,0.00915546
0.00892282,0.00893362
0.0147478,-0.0142652
0.00596144,-0.0109998
0.00130674,-0.0076962
-0.00353573,-0.0095081
-0.00565743,0.000156097
-0.00102224,-0.00398527
-0.0035924,-0.0288026
0.0285289,-0.0332855
0.0614081,-0.00463325
0.0323773,0.0260764
-0.00465524,0.0306464
-0.0209441,0.0246675
-0.036302,0.0135169
-0.0372186,0.0154499
-0.0142767,0.0134616
0.0199725,-0.00972231
0.0289284,-0.0169577
0.0214343,-0.00238101
0.00756653,0.00303623
-0.0140443,-0.00770195
-0.0380493,0.0123753
-0.0381509,0.0281465
-0.00706578,0.0161053
0.0153138,0.00164994
0.0424812,-0.00984525
0.0491629,-0.0071498
0.017155,-0.0181877
-0.00920131,-0.0160122
-0.0188973,-5.93e-05
-0.0277272,-0.007336
-0.0491164,-0.0218536
-0.0422922,-0.012111
-0.0066471,-0.00410394
0.0120182,0.00837597
-0.00216239,0.0148037
-0.0199284,0.00277024
-0.0334961,-0.00876766
-0.0335972,-0.0198154
-0.0141733,0.0127555
-0.0056836,0.0299042
0.0156476,-0.0155849
0.0603835,-0.0231792
0.0621827,-0.00180222
0.0341524,0.0107796
0.0205366,0.0337476
0.00436958,0.0302619
-0.00915564,-0.00709655
0.00698851,-0.0218075
0.0481975,-0.00924315
0.0612922,0.00510433
0.0452539,0.00718298
0.0224799,0.00666681
-0.00576342,0.0134484
-0.0376824,0.0201067
-0.0584754,-0.00687052
-0.0643389,0.0142371
-0.0619269,0.0406587
-0.0225141,0.0177552
0.0262967,-0.017976
0.0311766,-0.0378528
0.0221948,-0.0477368
0.0252619,-0.037809
0.00895547,-0.031414
-0.0381767,-0.0221083
-0.0896143,0.00287271
-0.0775436,0.02586
-0.0417572,0.0315802
-0.0108639,0.0211885
0.0077825,0.0110028
0.0139777,0.00111944
0.0266836,-0.00430114
0.0477505,-0.00939627
0.0489091,-0.0134544
0.0324756,-0.00862725
0.0433853,0.000399266
0.0588104,0.0389646
0.0367008,0.0177665
0.0068103,-0.0321722
0.00163922,-0.0296398
-0.006897,-0.0152926
-0.0360577,-0.00989023
-0.0452726,-0.0016943
-0.0141919,0.00787683
0.00619363,0.0077608
0.0118424,0.00466873
0.00992678,0.00337489
-0.0115636,-4.55e-05
-0.0464925,0.00398083
-0.0491117,0.0187405
-0.0403379,0.00537802
-0.0278667,-0.0119509
0.00489349,-0.0117638
0.0263476,-0.00243725
0.0252287,0.0272106
0.028318,0.0187081
0.0251099,0.00136153
0.00273284,-0.000972583
-0.0154977,-0.024757
-0.00686997,-0.0267353
0.00816352,-0.0124619
0.00390542,0.0100502
0.00906646,0.0220261
0.0171411,0.00820853
0.00607084,0.00855328
-0.0161414,0.0173835
-0.0168031,0.0161053
-0.00109523,-0.011805
0.022037,-0.0174611
0.0339732,-0.00442122
0.0171155,0.00425584
0.00573434,0.00100598
0.00368288,0.00949035
-0.0105563,0.00445124
-0.0280541,-0.00787528
-0.0233369,-0.00627242
0.00288134,0.0169748
0.00866865,-0.00223264
-0.00259178,-0.00037346
-0.0168072,-0.00121419
-0.0175591,-0.0082248
-0.0228514,-0.0252963
-0.034137,-0.0480326
-0.0391754,-0.0401874
-0.00608862,0.000240654
-0.00208376,0.0235575
-0.0299991,0.0148221
-0.00899351,0.00229591
0.0182205,0.00326698
0.0229784,0.035598
0.0313845,0.0547094
0.0602271,0.0352053
0.0705213,0.0197873
0.0468672,-0.00530404
0.0231053,-0.0144242
0.0266353,0.000450265
0.0190838,0.00145956
0.00804996,-0.0165367
0.00118355,-0.0315899
-0.0330381,-0.0483396
-0.055986,-0.0229443
-0.0457219,0.0110117
-0.0398704,0.0127546
-0.0397235,-0.00833239
-0.0111719,0.00377709
0.021413,0.00682525
0.0352426,-0.0229696
0.0404393,-0.0207708
0.0495309,0.0302522
0.0612483,0.0622083
0.040742,0.0367398
0.00960566,0.00994315
-0.0254468,-0.00250139
-0.0599451,-0.0182168
-0.0896726,-0.0212514
-0.0855405,-0.00942386
-0.0651529,-0.00616944
-0.0421952,0.00948562
-0.00788348,0.00570001
-0.00769105,-0.00274885
-0.0321985,-0.00701041
-0.0100241,-0.0448666
0.0115805,-0.0487128
-0.00104214,-0.00718506
0.012936,0.0123378
0.068613,0.0110482
0.120377,0.013489
0.123985,0.0185054
0.104169,0.0236853
0.05474,0.0245758
-0.00323728,0.0197926
-0.0491163,-0.00899128
-0.0716165,-0.0199187
-0.0817497,-0.0453457
-0.0673771,-0.0280507
-0.0359523,0.0108238
-0.0257028,0.0200789
-0.0416589,0.00883936
-0.0457712,0.0060632
-0.0350213,0.00540608
-0.0136042,-0.00540485
0.0277034,0.00264569
0.0601202,0.00551929
0.0688726,0.0132556
0.0455543,0.0492052
0.0274325,0.0207871
0.0290271,-0.0292691
0.0427847,-0.027947
0.0499638,-0.012468
0.0271777,-0.00663707
0.00204684,-0.0100244
0.00472756,-0.00508442
-0.00343457,-0.000337001
-0.0378775,-0.00759672
-0.0545179,-0.00812451
-0.055047,-0.00908931
-0.0676708,0.000749237
-0.0628522,0.00670147
-0.0249341,0.00873445
0.00773579,0.0246531
0.0189087,0.026403
0.0322489,0.00386442
0.0259395,-0.00844905
0.0127306,-0.0082962
-0.00241771,-0.00828585
-0.0174501,-0.00867491
-0.028918,-0.0258731
-0.00415229,-0.0266052
0.0293245,0.00479249
0.0328014,0.0321009
0.00906983,0.015344
-0.00221643,0.0022005
0.000377186,-0.00258127
-0.00402951,-0.00634172
-0.0124099,-4.24e-05
0.00507209,0.0176946
0.0197901,0.0107088
0.00807719,-0.000310821
0.00138048,-0.00668982
-0.00890153,-0.0139948
-0.0211133,-0.00300186
-0.0283963,0.00381711
-0.0276082,-0.00352847
-0.0212202,-0.000736803
-0.000940509,0.010806
0.00947527,-0.00247217
0.0023523,-0.0112715
0.00633416,0.00121522
0.0191641,0.00705913
0.0250974,-0.00332744
0.0193955,-0.00607105
0.0223276,0.00700772
0.0460995,0.0332192
0.05242,0.0321209
0.0412187,-0.00581216
0.0323675,-0.024105
0.0299993,-0.0166686
0.00809843,-0.0184333
-0.0214029,-0.0088082
-0.0271811,-0.0121977
-0.0181109,-0.00986596
-0.00677312,0.0110024
-0.0197541,0.0161672
-0.0508935,-0.00596483
-0.0577891,-0.040921
-0.0497702,-0.0251835
-0.0324464,0.0124536
-0.021969,0.013236
0.00679178,0.0183749
0.0336888,0.0153417
0.0326741,-0.0111329
0.0158734,0.00623677
-0.0116045,0.0377023
-0.0229314,0.00908617
-0.0225485,-0.013597
-0.0146548,-0.00960922
-0.0217902,0.0134031
-0.0106436,0.0139395
0.034877,-0.00437628
0.0445781,0.00325805
0.0307437,0.00640631
0.0153401,-0.00731001
-0.0102889,-0.0107977
-0.0298164,-0.00998205
-0.0379734,0.0121994
-0.017709,0.0264716
0.00903235,-0.0047409
0.0152676,-0.0144322
0.0270969,-0.00678766
0.0184516,-0.0066222
0.00268694,-0.00860577
-0.00810626,-0.00415381
0.00430772,-0.00786006
0.00930164,-0.00933052
0.0243067,-0.00126013
0.0304979,-0.00230557
0.00931754,-0.00475424
-0.0119042,-0.0050044
-0.0167148,-0.00685913
-0.0172754,-0.00966774
-0.0225458,-0.0133115
-0.0111292,-0.0138674
0.014109,-0.00974448
0.0151588,0.0100327
0.0115875,0.0405586
0.0229027,0.0281981
0.0199883,-0.00660673
0.00709099,-0.0152852
-0.000758813,-0.00978629
-0.0103813,-0.00908516
-0.0107396,0.00301354
0.00631822,0.01937
0.00148931,0.018199
-0.0358651,0.0100136
-0.0518388,0.0162245
-0.0451385,0.0277134
-0.041361,-0.00251402
-0.0390892,-0.019831
-0.00361203,-0.0117494
0.0381778,0.0063311
0.0550667,0.00573615
0.0586368,-0.00953984
0.0476417,-0.00465832
0.0240382,0.0125762
-0.00079024,0.00904557
-0.00838107,-0.00851168
-0.0238973,-0.0230523
-0.0177121,-0.00181156
-0.00479921,0.0124689
-0.0136994,0.00625655
-0.0254619,-0.0096727
-0.00689797,-0.00933318
0.0110222,0.00250722
-0.00345645,0.0028924
-0.0104248,-0.0160198
0.0295373,-0.0189401
0.0513295,-0.000497369
0.0154843,0.00784281
-0.0300115,0.0154591
-0.0588537,0.00807582
-0.0571798,-0.00817186
-0.0391495,0.00131035
-0.0131602,0.00814762
0.000952571,0.000459918
0.0192307,0.010651
0.0321403,0.0154294
0.0143402,0.00944856
0.0145492,-0.0186698
0.0195745,-0.0279724
0.0101877,-0.019205
-0.00861648,-0.0161112
-0.0195783,-0.00259479
0.00484278,0.0123245
0.0203369,0.0127519
0.0285478,0.0135571
0.0255602,0.0199199
-0.00489993,0.00681762
-0.0468189,-0.00714669
-0.0628598,-0.00178774
-0.0620297,0.0106678
-0.0366729,0.00426125
0.0549589,-0.0123727
0.155128,0.00207626
0.175336,0.018104
0.140677,-0.00511295
0.079376,-0.0236191
-0.00937644,-0.00924778
-0.0945365,-0.00231316
-0.129323,-0.00308764
-0.108143,0.00120161
-0.069148,0.0058926
-0.0269105,0.0133583
-0.00545619,-0.00434025
-0.00831217,-0.0161814
-0.0162387,-0.00825974
-0.0243336,0.00371465
-0.0113592,0.00236717
0.0335987,-0.00154678
0.0694035,0.0028051
0.0660437,-0.000666062
0.0490778,-0.0143883
0.0354813,-0.0174204
0.00781556,-0.00711741
-0.0331995,0.00662363
-0.0665653,0.00247609
-0.0777366,0.0056023
-0.0862238,0.00838151
-0.0709349,0.010345
-0.0437623,0.0246663
-0.0280229,0.0303789
-0.0157841,0.00670185
0.014527,-0.0245207
0.0458143,-0.0136019
0.0392661,0.00257398
0.0456745,0.0125959
0.0384474,0.0188061
-0.00610863,-0.000770782
-0.0453738,-0.0113989
-0.0523245,-0.00844083
-0.0459119,-0.00598012
-0.0369069,0.00668243
0.0426175,0.00622358
0.139283,-0.00129432
0.159613,-0.0025227
0.126622,0.000558686
0.0817643,-0.00169535
0.0549855,0.00265743
0.0295705,0.0147364
-0.00362948,-0.00999507
-0.03845,-0.0361625
-0.057908,-0.0218875
-0.052882,0.00231942
-0.0492425,0.00596836
-0.0470816,0.000920558
-0.0476905,0.00937614
-0.061559,0.00179894
-0.0818909,-0.0200068
-0.0872244,-0.0289017
-0.0584407,-0.0185803
-0.0281713,0.00505379
-0.000514338,0.0346402
0.0332408,0.0267067
0.0353215,-0.00960457
0.0139023,-0.0154987
-0.00594616,-0.0211821
-0.00538277,-0.0054957
0.00229318,0.0157136
0.0138398,0.0242031
0.0264091,0.0241758
0.0225648,0.0154987
0.0107263,-0.00578732
0.00615292,-0.00646797
0.00104578,-5.22e-05
-0.00555175,-0.0101547
-0.00837504,-0.0165029
0.0164978,-0.00616257
0.0419254,0.00893414
0.0379136,0.00544499
0.0379908,0.0109275
0.0553595,0.0220763
0.0598635,0.0125839
0.0418174,0.00563171
0.0329355,0.0263693
0.0154607,-0.0027164
0.010814,-0.0298944
-0.002976,-0.00956649
-0.0461593,0.000476815
-0.0760963,0.000757918
-0.0627104,-0.00475284
-0.0367285,-0.0190729
-0.0196012,-0.0189414
-0.0200043,-0.0100253
-0.00463364,0.00772203
0.00246137,0.0112491
-0.0211324,0.00535243
-0.0186703,-0.00650367
-0.0164372,-0.0111271
-0.0273888,0.000501507
-0.0332009,0.00378916
-0.0264748,-0.00631073
-0.00769666,0.0145888
0.0317872,0.0488606
0.0429652,0.0117745
0.0131794,-0.0426202
0.00747757,-0.0191473
0.0181319,0.00713272
0.0102404,-0.000229685
-0.00314932,-0.0108762
0.00470239,-0.0061112
0.0282972,0.000225303
0.0215706,0.00969676
0.0128613,0.0122725
0.00397509,0.00290304
-0.0122507,-0.00873133
-0.0276625,-0.00893168
-0.0157967,0.0037571
-0.00118833,0.00117468
0.0105124,-0.00499935
0.0254522,-0.0030798
0.0225229,-0.000322838
0.00664739,0.00326504
0.00608177,0.0081108
0.00347742,0.00814423
-0.00437714,-0.00439146
-0.0134561,-0.0104526
-0.0072998,0.0253094
0.00605109,0.0218569
-0.00514083,-0.0224637
-0.0165071,-0.0154363
-0.0364832,0.00585508
-0.0462695,-0.0142485
-0.0384672,-0.029434
-0.0193252,-0.00198946
-0.0126919,0.0379348
0.0215199,0.0527331
0.0704821,0.00534662
0.105415,-0.022199
0.117838,-0.0207607
0.087488,-0.0109322
0.0530002,-0.0107117
0.0170604,-0.0144416
-0.0241899,-0.0126672
-0.0527139,0.00130298
-0.0791332,0.0112398
-0.104057,0.00416173
-0.0977116,0.00235124
-0.0650122,0.0108821
-0.0314762,0.0167685
-0.0116431,0.00233845
-0.00833127,-0.0177852
-0.0138382,-0.0184659
0.00795229,-0.010611
0.00914549,0.0155406
-0.0142369,0.020986
-0.0240496,0.0100511
-0.0100642,-0.00530797
-0.0107352,-0.00651473
-0.0161439,-0.00469701
0.00788298,0.00345115
0.0418709,0.0119679
0.0516692,0.00332998
0.0479856,-0.00578059
0.0364116,-0.0161945
0.0127255,-0.0333676
-0.0166456,0.0019564
-0.00151085,0.0308388
0.0394246,0.0152191
0.0749126,0.0168827
0.112593,0.0238105
0.100918,0.0129959
0.0332701,-0.00204235
-0.0212303,-0.00873894
-0.0540471,-0.0206822
-0.0925158,-0.0204007
-0.114381,-0.00553669
-0.0764297,0.00513078
-0.0209816,0.00924533
-0.00152303,0.0063453
0.00680431,-0.0031776
0.00364806,-0.0167306
-0.0122075,-0.0232028
-0.0271682,-0.0130324
-0.0234415,0.000386395
-0.0174512,-0.00287333
0.00429356,0.00413029
0.0299809,0.0115452
0.0257133,0.00528443
0.0105925,0.00371639
0.0133842,0.0189396
0.0186969,0.0167771
0.00221284,-0.018017
0.00369586,-0.0250728
0.0329202,0.00331223
0.0405022,0.0166128
0.0324312,-0.0180446
0.0176597,-0.00620087
-0.00753924,0.0471713
-0.0350158,0.032553
-0.0380234,-0.03024
-0.029885,-0.028179
-0.0190401,-0.0117427
0.00820321,0.000552946
0.0200082,0.000707729
-0.0038229,-0.00214479
-0.0219807,-0.009871
-0.0262217,-0.0108479
-0.0448057,0.0406731
-0.0482032,0.0313627
-0.0196791,-0.0118285
0.0250212,-0.0180632
0.0433657,-0.0240372
0.0427668,-0.0268781
0.0302215,-0.0192108
0.00674665,0.00882455
-0.0108645,0.0237886
-0.0046741,0.00186007
0.0161171,0.00960853
0.043312,0.0278946
0.0755987,0.0226194
0.0736177,0.0370986
0.0273425,0.044329
-0.0128732,-0.00685728
-0.0434588,-0.065581
-0.071284,-0.0612883
-0.0941597,-0.0279222
-0.068374,-0.000490484
-0.0208764,0.020134
0.00194676,0.0210092
0.0302691,0.00966
0.0426723,0.000184943
0.0326451,-0.0123029
0.0304925,-0.0153549
0.0181189,-0.00546338
-0.00705084,-0.00648707
-0.0134208,0.00190258
-0.0153168,0.00433051
-0.0341837,0.000942572
-0.0470056,0.000636987
-0.0391184,0.0029824
-0.0212325,0.00229917
0.000323815,0.00858152
0.0278865,0.0268957
0.065826,0.0239472
0.080976,-0.0196809
0.0625027,-0.0080402
0.0442425,0.00260794
0.0105385,-0.0188557
-0.0409073,-0.010544
-0.0673534,-0.00448868
-0.0566969,0.000530052
-0.0391809,0.0329015
-0.00113707,0.0318221
0.0140909,-0.0150033
-0.00949783,-0.0273297
-0.0310038,-0.0131976
-0.0393373,0.00368926
-0.0491021,0.00567527
-0.0453618,-0.00654163
-0.00361814,-0.00359324
0.0792017,0.00968081
0.125192,0.0147023
0.103381,0.00927124
0.0612351,0.00283893
0.0134321,-0.00277423
-0.0263785,-0.00487286
-0.0458362,-0.00384214
-0.0477734,-0.00975587
-0.0344861,-0.00802034
0.011902,0.0174826
0.0136112,0.0194344
-0.00907624,-0.00992873
0.0328422,-0.0117214
0.0518395,0.00700673
0.0273294,-0.00503141
0.00448877,-0.0198036
-0.014864,-0.00174734
-0.0439992,0.00979264
-0.0878461,0.000601183
-0.0993884,-0.00868865
-0.0830373,-0.0120627
-0.071108,-0.00365536
-0.0501533,0.0056215
-0.0271151,-0.0117845
-0.0170795,-0.0159701
0.00828141,-0.0133617
0.0407283,-0.0108186
0.0417456,0.0149203
0.0352881,0.0528419
0.0491755,0.0391316
0.0542173,-0.0134405
0.0447512,-0.00685863
0.0679876,-0.00795294
0.106792,-0.00565408
0.0937278,0.00122474
0.0436358,-0.010732
0.0180717,-0.0113224
0.0111443,0.00024111
-0.0190465,0.00444049
-0.0376839,0.0134506
-0.0285566,0.0238218
-0.0269096,0.0441201
-0.0289649,0.0352793
-0.0457414,-0.0137298
-0.0839073,-0.0284192
-0.103181,-0.0240133
-0.0860104,-0.02138
-0.0675523,-0.0141788
-0.0499865,-0.00686102
-0.0166852,0.00874716
0.0300835,0.0144435
0.0565913,-0.00190246
0.05896,0.00640207
0.0488511,0.0187732
0.0249469,-0.00786299
-0.00748282,-0.0291551
0.00120316,-0.0180707
0.0753199,-0.0101831
0.137588,0.00823943
0.172904,0.0284307
0.148834,0.0146915
0.0841006,-0.0105678
-0.0073633,-0.0125083
-0.112663,-0.0149744
-0.202365,-0.0195475
-0.212483,-0.0200227
-0.1561,-0.00817598
-0.0890958,0.00635865
-0.0195806,0.00991225
0.079733,0.00521537
0.14473,-0.00507888
0.121201,-0.00456264
0.0684268,0.00298778
0.0487074,0.0166314
0.0106768,0.00570081
-0.00131939,-0.00208229
0.0103793,0.000118442
-0.0210461,0.00249909
-0.0698582,0.00373025
-0.0919561,0.00803278
-0.0630809,0.00541067
-0.040731,0.00502347
-0.00596862,0.0159294
0.0296045,0.00976549
0.025759,0.00231454
-0.0183555,-0.00658846
-0.0631255,-0.0168979
-0.0905622,-0.00959713
-0.0937552,0.0165334
-0.0763339,0.00576593
-0.0407997,-0.0210944
-0.00791425,-0.0159109
0.0283162,0.00410864
0.0524192,0.0268468
0.0521165,0.0291428
0.0540183,-0.00980716
0.0532333,-0.0230673
0.0440571,-0.0116127
0.0583368,-0.00698778
0.0845626,0.000763174
0.112851,0.0236521
0.16661,0.0296645
0.191467,-0.000245235
0.138985,-0.0117655
0.0617482,-0.012728
-0.0357691,-0.0177717
-0.127849,-0.0198818
-0.206608,-0.0149802
-0.236322,-0.00968643
-0.20116,-0.000331975
-0.154923,0.0184477
-0.10771,0.0305594
-0.0516238,0.0190112
0.0115404,-0.00834824
0.0724821,-0.0140243
0.0966917,-0.00942932
0.115229,-0.00535256
0.152042,0.00937689
0.136103,0.00997487
0.0897392,0.0189535
0.0636317,0.0159369
0.0361964,-0.0159738
0.0037856,-0.0174864
-0.0393807,-0.00490378
-0.0849854,0.00320764
-0.0495165,0.0244508
0.058015,0.0127027
0.121358,-0.000902922
0.0806025,-0.00323311
-0.00906909,-0.0018952
-0.0999441,-0.00548966
-0.199338,-0.0204397
-0.265361,-0.0283348
-0.246971,-0.0165412
-0.193822,0.00687229
-0.167412,0.0182539
-0.128052,0.00304463
-0.0509518,-0.0128477
0.0472415,-0.0283904
0.0819194,-0.0278534
0.126844,0.0122137
0.293788,0.0308885
0.512395,-0.00600739
0.554999,-0.0150137
0.438869,-0.00125257
0.241019,0.0116679
0.0374565,0.0143497
-0.124964,0.0322609
-0.221863,0.0507921
-0.25001,0.0241038
-0.301179,0.0148002
-0.312801,-0.018782
-0.285083,-0.0310625
-0.210611,-0.0146676
-0.145109,-0.0151167
-0.109412,-0.00500091
-0.0731805,-0.00760619
-0.0714466,-0.000822391
-0.0760707,0.0408751
-0.0785855,0.0683069
-0.0276846,-0.0101673
0.158799,-0.0576039
0.306047,-0.0205596
0.284981,-0.0330954
0.146068,-0.0463513
-0.0447294,-0.0323911
-0.207539,-0.0119882
-0.240892,0.00722856
-0.135195,0.0132168
0.0472129,0.0200766
0.214978,0.0194154
0.386545,0.0181125
0.5765,0.0189123
0.633539,0.0169924
0.454044,0.0173015
0.133527,0.00657564
-0.247511,-0.023471
-0.550631,-0.0186999
-0.663993,-0.0115476
-0.574656,-0.0098453
-0.307125,-0.00916999
0.00682986,-0.00798213
0.124958,-0.00318398
0.0942196,0.0110514
0.0348691,0.0135321
-0.0919756,0.00214012
-0.165948,0.00366913
-0.153489,0.0200099
-0.0988794,0.00115372
-0.0499825,-0.0142003
-0.00563412,-0.00700626
0.062415,-0.0025738
0.167894,0.012598
0.26014,0.0174691
0.320814,0.00144712
0.342518,-0.0139771
0.300321,0.000834195
0.152652,0.0232591
-0.0885624,0.000489949
-0.194117,-0.0146302
-0.0965317,-0.00371978
-0.0529259,-0.00386798
-0.066473,0.00469145
-0.0377556,0.0217854
0.0559782,0.070831
0.100093,0.0590495
0.0786044,-0.0593844
0.0132747,-0.0599639
-0.125534,-0.0280753
-0.232574,-0.0156546
-0.270184,-0.00628372
-0.231879,-0.00319368
-0.121444,0.0024858
-0.0369079,-0.0061409
0.0651643,-0.0228329
0.152189,-0.0055331
0.200679,0.0237985
0.201614,0.0188514
0.11038,0.0126819
0.00305735,0.00188113
-0.0540182,-0.0117378
-0.0820006,-0.0102481
-0.129521,-0.0154388
-0.12529,-0.00190111
-0.0680416,0.00206946
0.0315924,0.0013583
0.130331,0.00696511
0.139576,0.0119967
0.087038,0.0134127
0.0416694,0.0118971
0.0637313,-0.000294389
0.116968,-0.00726673
0.16316,-0.00653417
0.121957,0.00841402
0.00762344,0.030813
-0.133062,-0.0119507
-0.295469,-0.0239348
-0.32902,-0.0219264
-0.215628,-0.0237922
-0.093152,-0.0116123
0.0111334,0.00520534
0.0585844,0.0145914
0.0643027,0.0143181
0.0179903,0.00476132
-0.000596032,-0.00597273
0.00570183,-0.00398629
0.0254419,0.00711342
0.0130623,0.00601042
-0.0407768,-0.00171207
-0.0519604,-0.00347308
-0.0194083,0.00722988
0.0137971,0.0152945
0.030251,0.00541478
0.0351179,-0.00619633
0.0297868,-0.0143045
-0.0011653,-0.0209452
-0.05092,0.022419
-0.0756783,0.0583679
0.0366083,0.00313841
0.171236,-0.0222241
0.258461,-0.00692539
0.310891,-0.00331669
0.337082,-0.00599799
0.281536,-0.0032295
0.112477,-0.00961806
-0.0758064,-0.0161927
-0.173733,-0.0023721
-0.175407,0.0149043
-0.167178,0.0137005
-0.172524,-0.000197566
-0.151261,-0.00525028
-0.112467,-0.00359762
-0.116324,-0.00626887
-0.123163,0.000838591
-0.163606,0.0112494
-0.183378,0.00547525
-0.134841,0.0139509
-0.0848663,0.00982093
-0.0549887,0.00729551
-0.0164765,-0.000166869
