Comp Ch 3,Comp Ch 4
0.137787,-0.0335527
0.11847,-0.038425
0.0572142,-0.0258837
-0.0142901,0.00439189
-0.077985,-0.00838126
-0.124152,-0.0187061
-0.132108,-0.00460999
-0.119734,0.0180047
-0.0876874,0.0338532
-0.059393,0.00437664
-0.0571427,-0.00323166
-0.03537,0.0192646
-0.00291076,-0.00214411
0.00206507,-0.0379391
0.00524174,-0.0200497
0.0229434,-0.0191339
0.0337695,-0.0153102
0.0194357,0.00696662
0.00615484,0.0196216
0.0154469,-0.000158144
0.0185518,0.0103424
0.0139942,0.0277999
0.011721,0.0230206
0.0097906,0.00383589
0.0167068,-0.0170467
0.036769,-0.00729522
0.0419531,0.00862046
0.0249809,-0.00325931
0.0104436,-0.00851149
-0.00197522,-0.0104665
-0.0122769,-0.0135509
-0.0163756,-0.0133134
-0.00493602,0.000312212
0.0300978,0.0115206
0.0648931,0.0051103
0.0693811,0.0506464
0.0419729,0.100486
0.0122222,-0.031455
-0.0465126,-0.0912933
-0.0887714,-0.0520899
-0.0755265,-0.0238236
-0.0203849,0.0233442
0.0289235,0.0663508
0.0305742,0.0319361
-0.00318258,-0.0204466
-0.0343007,-0.0184692
-0.0510856,-0.0229832
-0.0586316,-0.0280728
-0.0426136,-0.0175823
-0.0101312,0.0073236
-0.00596053,0.0205569
0.00566177,0.0120835
0.0412442,-0.00125991
0.041842,-0.00507057
0.0392512,0.0111739
0.066557,0.0136037
0.106527,-0.00598645
0.108348,-0.00923605
0.0742694,0.00751743
0.00719425,0.0408917
-0.0369439,0.0202446
-0.0524165,0.0126772
-0.0518713,0.0279198
-0.0511433,-0.0254235
-0.0720173,-0.0130692
-0.0813396,-0.0543189
-0.0870154,-0.0265476
-0.091444,0.00168528
-0.063829,-0.000928543
-0.0270315,-0.00235877
-0.0137168,0.00479286
-0.0128564,0.0110805
-0.0126835,0.00966195
0.00542876,-0.00477261
0.0383323,-0.0173006
0.0763126,-0.0109545
0.107344,0.00668843
0.100576,0.00992571
0.0742296,0.00563864
0.0362648,-0.00532789
-0.00374699,-0.0195011
-0.0308803,-0.0175822
-0.0321407,0.0104457
-0.0243887,0.0281007
-0.0151316,0.0255648
-0.0123949,0.0246235
-0.0166448,0.00208528
-0.0259208,-0.001247
-0.023697,0.00437055
-0.019826,-0.00801161
-0.0166537,-0.0257029
0.0058169,0.000108315
0.0389868,0.0343335
0.0571547,0.00038287
0.0434867,-0.0244642
0.0191621,-0.0197728
-0.0191456,-0.0165918
-0.0426778,-0.0063534
-0.0266151,-0.00430733
0.00878413,-0.0090827
0.0053451,0.0228569
-0.0079274,0.0287585
-0.0175731,-0.000125559
-0.0412782,-0.0167684
-0.0372755,-0.0262214
0.0156553,-0.0209347
0.0768718,0.0894872
0.145951,0.0324397
0.195128,-0.0555019
0.157561,-0.0253255
0.026366,-0.00613958
-0.144443,0.0243317
-0.226331,0.0994404
-0.158031,-0.02652
-0.0375522,-0.0380952
0.0687642,-0.0541115
0.101419,-0.0365538
0.0523835,-0.00852529
-0.0424825,0.00705967
-0.125619,0.0403215
-0.134003,0.0217199
-0.0890692,-0.00614203
-0.0437486,-0.0232672
0.000700949,-0.0269889
0.0258439,0.0165039
0.0352224,0.0724751
0.0389258,0.0142476
0.0165726,-0.0212497
0.00789055,0.0117397
0.0365355,-0.0472124
0.0599146,-0.032001
0.0806808,-0.00566501
0.0885035,-0.00358308
0.0584849,0.00723231
-0.000721063,-0.000559235
-0.0466316,0.0264918
-0.0642631,0.0249392
-0.0666962,-0.0162955
-0.0567327,-0.0211296
-0.0391829,-0.00772059
-0.0253361,-0.00309206
-0.0104994,-0.00700408
0.00612094,0.0101161
0.010348,0.0388467
0.0105075,0.00805386
0.0191049,-0.0317752
0.0138171,-0.0203079
0.00281246,-0.0100441
-0.00251963,-0.00528999
0.0131053,0.0311715
0.0309858,0.0558851
0.0303362,-0.00110314
0.0192798,-0.0305455
0.00573064,-0.0150414
-0.00152033,-0.00409174
-0.00126987,0.0109137
0.00571836,0.0215762
0.0150741,0.0160841
0.0279236,-0.00329827
0.0498104,-0.0239727
0.0514029,-0.0242845
0.0177833,-0.0243527
-0.0266176,-0.015692
-0.0248866,-0.0153215
-0.000190853,0.0178052
0.00243939,0.0358202
-6.56e-05,0.0012841
-0.0250541,-0.0209609
-0.0570056,0.0534094
-0.0344389,0.052212
0.00850643,-0.0400882
0.000681049,-0.0279753
-0.00870593,-0.0159935
-0.0128745,-0.0255637
-0.0288121,-0.0167496
-0.0402165,0.0129639
-0.0449834,0.0292492
-0.0561453,-0.00222725
-0.0411754,-0.00528478
-0.00895346,0.0115148
0.0169177,0.0150281
0.0401289,0.00810681
0.0696625,-0.0111908
0.0851355,0.00157698
0.0728963,0.0435519
0.0535145,0.0141515
0.0194143,-0.00410591
-0.023705,0.0400346
-0.0523734,-0.0175902
-0.0589583,-0.078742
-0.0544092,-0.0584029
-0.0622489,0.00841661
-0.0548914,0.0227025
-0.0401444,0.0535988
-0.0126656,0.0389749
0.0254365,0.00582986
0.0354198,-0.03238
0.0133702,0.0351068
-0.00888901,-0.0314188
0.0160101,-0.0670859
0.0582449,-0.0134662
0.0736981,0.0123472
0.0778837,-0.00737582
0.0528971,0.0049335
0.0239153,0.0107424
-0.0144997,0.00219924
-0.0426538,-0.00836314
-0.057187,-0.0181473
-0.0512274,-0.00744174
-0.0228932,0.0126995
-0.0158449,0.0222657
-0.00174449,-0.00220389
0.0411455,-0.0313111
0.0536962,-0.0258791
0.015041,-0.00107269
-0.0266464,0.0141462
-0.0301899,0.0295593
-0.00190026,0.0257662
0.0199617,-0.00716002
0.0131288,-0.0255736
-0.00363673,-0.0086974
-0.0154703,0.0415359
0.0205336,0.0504583
0.0439111,-0.00349832
0.0305063,-0.0104447
0.00225995,0.0146221
-0.0316106,0.0771668
-0.0488175,-0.00419585
-0.0470132,-0.0939869
-0.0243299,-0.0504059
-0.0287563,-0.00895034
-0.0198143,-0.0457668
0.00693776,0.00535493
0.0667153,0.0591804
0.0949844,0.0261436
0.0833206,-0.00914648
0.0342112,-0.00121212
-0.0418096,0.0124084
-0.0991873,0.013618
-0.0886535,-0.00661414
-0.0328877,-0.012371
0.0287663,-0.00739892
0.0581127,0.0135074
0.0362099,0.00354402
-0.0298622,-0.00750356
-0.0706375,-0.00225232
-0.0768173,-0.00403831
-0.0808922,-0.0134603
-0.0601269,-0.00541134
0.00104795,0.0177255
0.0409325,0.0181446
0.0364325,-0.00850919
0.0227004,-0.0178794
0.0144579,-0.0120271
0.0188162,0.00179898
0.0227949,0.0155445
0.0259015,-0.0263699
0.00985706,-0.0094566
0.0137494,0.00529092
0.0290094,0.000757616
0.0201436,0.0307934
0.0144878,0.0274523
0.00954893,0.0119551
0.00291015,-0.0298848
-0.00760255,-0.0468335
-0.00691026,-0.0237203
0.0187658,0.000515102
0.0295452,0.0128573
0.0259567,0.0319155
0.0290131,0.0442607
0.0191918,-0.00449312
-0.00634302,-0.0321867
-0.0324234,-0.0284478
-0.0342004,-0.00518548
-0.00664822,0.0347326
0.0378017,0.03999
0.0488651,0.00502047
0.013122,0.00156469
-0.0378569,0.0226165
-0.074051,-0.00627937
-0.0749701,0.001039
-0.0520812,-0.0456584
0.00531545,-0.0745731
0.0511727,-0.00973029
0.0406968,0.0405899
0.0122767,0.0283905
-0.00817277,0.0101153
-0.0303461,0.0143707
-0.0301127,0.00387522
-0.00407602,-0.0157725
0.00895718,-0.0256305
0.000314952,-0.0146501
-0.00278578,0.0293004
-0.00635926,0.0862883
0.0130836,-0.0116512
0.0382891,-0.0601029
0.0462559,-0.0411349
0.021435,-0.0268656
-0.0189934,-0.0118253
-0.035907,0.00759065
-0.0126892,0.0191443
0.00704331,0.0248219
0.0155892,0.0344954
0.00430308,0.0075899
-0.023765,-0.0140975
-0.044588,-0.0145367
-0.0405203,-0.00298383
-0.0303275,-0.0153014
-0.00235215,-0.00593051
0.0217412,0.00467836
0.0304062,0.0170131
0.0286658,0.0278766
0.0219098,-0.0187542
0.00492445,-0.0386353
-0.00981636,-0.0398329
-0.0154859,-0.0149643
-0.00801304,0.0291476
-0.00738347,0.0616365
-0.0136162,0.0775838
-0.00196452,0.00059054
0.0172823,-0.0486281
0.0290554,-0.0228762
0.0259812,-0.0289716
0.0221501,-0.0369682
0.00318408,-0.007566
-0.00327422,0.0411122
0.00202807,0.0393162
-0.00280011,-0.0030908
-0.00828671,-0.0128713
-0.00821706,0.000708777
-0.00847683,0.00175855
-0.00808537,0.00111868
0.00903864,0.00254249
0.0214457,0.00905111
0.000451327,0.000424268
-0.0259509,-0.014873
-0.0300944,-0.00614644
-0.0122997,0.00184434
-0.00661117,0.00278543
0.00450368,0.00753224
0.014437,0.000880393
0.0267324,-0.00299761
0.0425751,0.012704
0.0379131,0.0166611
0.0108267,-0.000418854
-0.0169553,-0.0151013
-0.0249318,-0.0235945
-0.0228382,-0.0246204
-0.0231451,-0.0240651
-0.00961099,-0.000456005
-0.00465198,0.0354545
-0.0169012,0.0356617
-0.0200472,0.00658388
-0.0230028,-0.0136789
-0.0219975,-0.0201323
-0.00403815,0.00525539
0.0109686,0.0154595
0.00118173,-0.0111578
-0.0068212,0.000827636
0.00433981,0.0244896
0.0164921,0.014075
0.00745433,-0.00656671
0.0050579,0.0160094
0.0125742,0.00282959
0.0166539,-0.0372602
0.00976161,-0.0265695
0.0199696,-0.00589756
0.0648095,0.00819777
0.112469,-0.0111738
0.118245,-0.0147604
0.0613179,-0.00631977
-0.0236578,-0.0126579
-0.112553,-0.0353
-0.152764,-0.0257064
-0.146069,0.0892337
-0.098622,0.0955719
-0.0411937,-0.0303449
-0.0205824,-0.0177376
0.0238884,-0.0246157
0.0604886,0.0234686
0.0811587,0.0431814
0.0839099,-0.00989574
0.0568182,-0.00812556
0.0295513,-0.0234629
0.000727403,-0.00436609
-0.0253871,-0.00901172
-0.0353942,-0.0260318
-0.0293861,-0.0142076
-0.0280454,0.0137515
-0.0309862,0.0165407
-0.0372943,0.00307754
-0.0336041,-0.000567438
0.00155231,0.00338847
0.0191105,0.00455595
0.0104181,-0.00688305
-0.000596656,-0.0182262
-0.0249382,-0.000215469
-0.0500879,0.0381075
-0.0488598,0.03345
0.000992663,0.0094042
0.0651141,-0.020046
0.0929908,-0.0273628
0.0981101,-0.0179063
0.0746392,-0.00768935
0.0352836,0.00497791
-0.00448265,-0.0272265
-0.0224035,-0.0478832
-0.000734131,-0.0601485
0.0260555,-0.0306968
0.0292537,0.0522603
0.004201,0.0938368
-0.0389831,0.0486827
-0.0528831,-0.00218519
-0.0531803,-0.0196388
-0.0362053,-0.0381292
-0.0113984,-0.0245805
0.017214,0.0103979
0.0230008,0.03532
-0.00936566,0.0270602
-0.0562443,0.000730376
-0.0655638,-0.0240191
-0.0475398,-0.0197435
-0.0135033,0.00434475
0.0285826,0.00745414
0.0402853,0.0191147
0.0363301,0.0898783
0.0240835,0.0515863
0.00153614,-0.0516274
-0.035171,-0.0515187
-0.0223157,-0.0406591
-0.0352359,-0.00300691
-0.00820617,0.0212208
0.0484245,0.0447516
0.0623627,0.128838
0.0706931,0.0871961
0.0715088,-0.099921
0.0363102,-0.0842352
0.0147132,-0.0522133
-0.00897608,-0.0419477
-0.0402554,-0.028442
-0.0586281,0.00790951
-0.0541362,-0.00473744
-0.0453279,-0.04376
-0.0470153,-0.0399226
-0.0365299,-0.0124704
-0.0116208,-0.000154923
0.0151983,0.0015855
0.0522327,0.00337156
0.0821433,0.0431801
0.100723,0.0475545
0.0770808,-0.00168557
0.0132064,0.0148231
-0.0396769,0.0274013
-0.065915,0.00554452
-0.0772498,-0.0517712
-0.0895984,-0.0447019
-0.0837932,-0.0316296
-0.059287,0.00744506
0.0129238,0.0613161
0.0697057,0.0331392
0.083593,-0.00234862
0.0871084,0.00501753
0.0393027,0.00659705
-0.0141002,-0.00791937
-0.0359231,-0.0295853
-0.0243037,-0.0110183
0.00122815,0.0491761
-0.0108886,0.0938152
-0.0206383,-0.00501216
-0.0164882,-0.0102954
-0.0188595,-0.0111629
-0.0510595,-0.0246063
-0.0364404,-0.0463968
0.00367243,-0.0403359
0.0300994,0.0526813
0.052214,0.0655929
0.0385786,-0.0527169
0.00349337,-0.0455338
-0.0293573,0.00901272
-0.0386153,0.0012625
-0.0178065,-0.0309881
-0.00663332,-0.0220433
0.0319295,0.0084982
0.0493989,0.0111451
0.035885,0.00925223
0.0213695,0.0222445
0.00286815,0.0444405
-0.0175312,-0.0103865
-0.0135441,-0.0290426
0.0113392,0.000987466
0.0219155,0.000403629
0.0219092,0.00388586
0.00411966,0.011273
-0.0135127,0.0167597
-0.0103277,-0.0150877
-0.0197279,-0.0134687
-0.0464836,0.00621003
-0.0410938,-0.0347316
-0.0161259,0.0192988
0.0363778,0.109686
0.0571632,0.000700766
0.0459279,-0.0666839
0.0390599,-0.0366342
0.0182288,-0.0135984
-0.0150929,-0.00219899
-0.0305277,0.00994536
-0.0406915,0.0320088
-0.0260521,-0.00716776
0.00603122,-0.048018
0.00375055,-0.00991104
-0.0327042,0.0126502
-0.0440946,-0.0022336
-0.0265248,0.0136814
-0.0112264,0.0269153
-0.0164344,-0.013734
0.00965128,-0.0242818
0.0510034,0.00485202
0.0536292,0.0166285
0.0378227,0.0199223
0.0117285,0.0122417
-0.0176665,0.0108468
-0.0108382,0.0170748
0.0225356,-0.0217111
0.0238755,-0.0454167
0.00493096,-0.00969245
-0.0299191,-0.00153593
-0.0600132,0.00106804
-0.0670009,0.0270785
-0.0384919,0.011305
-0.0160564,-0.00364397
0.00252887,-0.0155721
0.0501407,-0.014286
0.0810005,0.000696528
0.0846445,0.0122372
0.0598722,0.0311634
0.0325418,0.00200105
0.010794,-0.0601384
-0.0260312,-0.026509
-0.0649084,0.0242425
-0.073818,0.0339742
-0.0760303,0.0405025
-0.0591508,0.0390147
0.00255898,0.000191899
0.0257686,-0.0256714
0.0239052,0.00149911
0.0189051,-0.0200806
-0.0105132,-0.0451457
-0.0383797,-0.0131494
-0.0143518,0.0254971
0.0321859,0.0258083
0.031562,0.00737106
0.0175605,0.00651373
0.0050996,0.0162998
-0.0123945,0.0129792
-0.00112073,-0.0213176
0.0265156,-0.0334784
0.0584886,-0.0221418
0.0731539,0.0116768
0.0879482,-0.00375549
0.0630129,-0.0325851
-0.00478767,-0.0195055
-0.0600075,-0.0037548
-0.0873,0.00310354
-0.0947898,-0.0050739
-0.090995,0.000847556
-0.0623795,0.0129359
-0.0151428,-0.00403638
0.0161782,-0.0256684
0.0256762,0.00440621
0.00138425,0.0432378
-0.0147678,0.0418828
-0.000960242,0.00494587
0.0268857,-0.00898782
0.0590496,-0.0160435
0.0711834,-0.0141087
0.0594622,-0.000119884
0.00220294,0.0177593
-0.0484555,0.00847305
-0.0577855,-0.00390571
-0.0481898,0.00271292
-0.0329946,0.0187569
-0.0223744,0.00699519
0.00451683,-0.000332873
0.0334357,-0.0178804
0.0276239,-0.0259873
0.00613195,0.00807239
0.00886668,0.0117805
0.00906378,0.0228486
-0.00260417,0.0281121
-0.00215586,-0.0263926
-0.000318237,-0.0420918
0.0130394,-0.013595
0.0226225,0.00198577
-0.000481458,0.00656494
-0.0298699,0.00833695
-0.0278343,-0.000801009
-0.021866,-0.0046659
-0.0289215,0.015132
-0.0187105,0.0204086
0.0107469,0.0218699
0.0264881,-0.00305789
0.0534383,-0.00759078
0.0821986,-0.0132097
0.0980253,-0.0115835
0.0596628,0.0514943
0.00141826,0.0257252
-0.036853,-0.0671175
-0.0555351,-0.0458725
-0.0410467,-0.016087
-0.0262498,0.0002802
-0.0221348,0.0404703
-0.0147211,0.0165167
-0.0202819,-0.090828
-0.0398693,-0.0391284
-0.0474262,0.0390944
-0.0110546,0.0522829
0.0279648,0.00501446
0.0255573,0.0185876
0.0109339,0.0326706
-0.0194803,0.0237775
-0.0395078,0.00599452
-0.0374868,-0.0387467
0.0108033,-0.0746234
0.0409853,-0.00250977
0.0628866,0.0359306
0.0824687,-0.00871467
0.0582133,0.020026
0.00446588,-0.00121955
-0.0357052,0.00275253
-0.0405514,0.0213684
-0.0107013,-0.0197853
0.0130736,-0.0458446
0.0387842,-0.00297725
0.0669302,0.0180956
0.0378801,0.0120361
-0.0144088,0.00681817
-0.0393609,0.0270316
-0.0414858,0.0104404
-0.0605672,-0.0140974
-0.0721353,-0.0291058
-0.0571034,-0.0102234
-0.00382619,0.019768
0.00583372,0.00228699
-0.0247988,-0.0111257
-0.0475407,-0.000334503
-0.0636428,0.0321616
-0.0642089,0.00982668
-0.0401216,-0.0190022
0.00533161,-0.0356608
0.0406795,0.0516465
0.0441694,0.0476576
0.0499994,-0.00336915
0.0751395,-0.00377975
0.0752098,-0.0214754
0.0430225,-0.0257968
-0.0116539,-0.00404612
-0.0210913,-0.0110721
0.00638102,-0.00650407
0.0488158,0.0126569
0.0438405,0.01577
0.0142577,0.0186836
0.0113247,0.0219062
-0.00977341,-0.00449845
0.0124905,-0.0430812
0.0489176,-0.0451449
0.0416567,-0.0217529
0.00976314,0.00668098
0.0180073,0.0161448
0.0323003,0.0237458
0.00220085,0.00103709
-0.0359164,-0.0405711
-0.0498795,-0.0347079
-0.0422697,-0.023722
-0.0581853,0.0252423
-0.0639806,0.0201265
-0.0354506,0.00210737
-0.00922584,0.00905137
0.0349098,0.014078
0.0648839,0.0292006
0.0446113,0.0332383
-0.0315166,-0.0373306
-0.117883,-0.0282899
-0.138236,0.0722509
-0.100411,0.0859385
-0.0348297,-0.0163853
0.0111009,-0.000644964
0.0449921,-0.0272523
0.0537304,-0.0394835
0.041667,-0.00365951
0.0526784,-0.0013455
0.0485752,-0.0172187
0.0364158,0.00288699
0.0392009,0.0150114
0.0280284,-0.000638869
0.0246638,-0.0175355
0.0268552,0.0293032
0.0163228,0.0634651
-0.021962,0.0015937
-0.0346623,-0.0686624
-0.00646831,-0.0509789
-0.00378333,-0.0266965
-0.0192874,-0.0167159
-0.0361155,-0.0353796
-0.0676466,-0.0341684
-0.0865129,-0.0187593
0.00979452,0.0361705
0.123772,0.084538
0.158947,-0.0120948
0.124816,0.00514634
0.0292421,0.0383618
-0.0729605,0.0718226
-0.105794,-0.0465676
-0.0872134,-0.12354
-0.0752684,-0.0024588
-0.0440285,0.055256
0.0149231,0.0162954
0.0498346,0.0268163
0.0334927,0.00261029
-0.0049309,-0.0172664
-0.0268723,0.0777721
-0.0214119,0.0851973
-0.0125594,-0.0855859
-0.00701037,-0.0429392
-0.00372193,0.0221354
0.0402152,0.0133522
0.0798323,-0.0848337
0.0490473,-0.0594469
0.00270012,0.00920514
-0.00166543,0.0261067
-0.00200114,0.0152581
-0.002736,0.0360176
0.011944,0.0756819
-0.00984908,-0.00154081
-0.0658029,-0.0584738
-0.107067,-0.0215798
-0.0845837,0.0398168
-0.0259875,0.0421925
0.0177952,-0.0549092
0.0647873,-0.116059
0.0823016,-0.039009
0.0373115,0.0412679
0.0326909,0.0405902
0.0401778,0.0202379
0.0241342,0.0141661
0.00346009,0.0253811
-0.00883187,0.00513278
-0.0493317,-0.0316666
-0.0714153,-0.0194531
-0.018674,0.02152
0.039349,0.0699001
0.0625294,0.0453502
0.0483399,-0.00367859
0.0245049,-0.0654495
-0.0069523,-0.0534552
-0.0589741,-0.00687163
-0.13553,0.0368548
-0.193433,0.0583069
-0.192081,0.0361517
-0.071975,0.0465659
0.0863822,-0.071548
0.149204,-0.132685
0.12279,0.0309771
0.0177079,0.0938454
-0.0245099,0.0723919
0.0524248,-0.0836398
0.123154,-0.0668859
0.162332,-0.0169082
0.121335,-0.00237504
-0.0149035,0.000989984
-0.10247,-0.051422
-0.0726391,-0.0299474
-0.0648529,0.0454497
-0.0239915,0.0448894
0.0277039,-0.0117228
0.0443024,0.0811162
0.0865035,-0.0262286
0.0837863,-0.105578
0.0271574,-0.0412353
-0.0737765,0.00145913
-0.128199,-0.0631756
-0.170758,-0.0436323
-0.120323,0.0941274
0.0253532,0.0850811
0.126533,0.033165
0.128997,0.0155348
0.0411441,0.0119042
0.0213875,0.0438625
0.00284558,0.0284575
0.00907756,-0.0144959
0.013573,0.0157692
-0.038805,-0.0348636
-0.0159753,-0.0460523
0.0367135,-0.0116444
0.0221475,0.0374073
-0.0178853,0.0348716
-0.0119947,-0.0185004
-0.0268712,-0.0519387
-0.0442904,-0.0274216
-0.00214615,0.00982937
0.03553,0.0109594
0.0353841,0.00529215
-0.0364469,0.0604224
-0.114073,0.0417361
-0.135009,-0.109531
-0.139392,-0.0825179
-0.117431,0.0127719
-0.0108354,0.0629721
0.0380094,0.0453178
0.0714674,0.0367249
0.102516,-0.0135239
0.109939,-0.0676971
0.123617,-0.0189035
0.144391,-0.0170083
0.1253,-0.02215
0.077263,-0.0116656
-0.0102188,0.0197981
-0.0879137,0.073956
-0.115113,0.0816078
-0.120718,0.0114335
-0.142659,-0.049924
-0.129721,-0.0282684
-0.0616901,-0.011253
0.0284136,-0.013907
0.0541439,-0.0104823
0.0571906,0.0272301
0.0866057,0.0350761
0.0825912,0.017206
0.045544,0.0273585
0.0132449,-0.0240004
0.049451,-0.0365531
0.165411,0.0147116
0.181763,0.0232646
0.0938498,-0.00682959
-0.0475675,0.0197245
-0.161543,-0.038653
-0.151601,-0.107319
-0.129652,-0.0485785
-0.0900147,-0.0547475
-0.0675826,-0.0798912
-0.10914,0.0460974
-0.174707,0.152395
-0.0649534,-0.0106712
0.0161032,-0.016806
-0.0586668,0.0764917
-0.114585,0.0302984
-0.09059,0.0229927
0.0186385,0.0366469
0.126615,0.061413
0.190039,-0.0782553
0.155945,-0.06841
0.121244,0.0160606
0.2703,-0.0217172
0.342692,-0.00188329
0.240898,0.0344247
0.087166,0.000151453
-0.0862958,-0.00598672
-0.216453,0.0237368
-0.24158,0.00299649
-0.198744,-0.0481148
-0.18253,-0.0542331
-0.164779,0.00527994
-0.00662179,0.0367235
0.177269,-0.00557995
0.173832,-0.0540431
0.00350068,-0.0379455
-0.127847,0.0711192
-0.0903039,0.0257336
-0.106902,-0.120528
-0.152945,-0.0605706
-0.245182,0.0305104
-0.159713,0.0408136
0.100446,0.141616
0.344082,0.125024
0.412428,0.0396695
0.334242,-0.0766658
0.100694,-0.0923277
-0.0432804,-0.00527325
-0.0398385,0.00999565
-0.089259,-0.0539572
-0.0934776,-0.0563426
-0.0274513,0.0521683
0.0122197,0.0899019
0.0552828,0.0136238
0.121701,-0.0248783
0.0782238,-0.0436119
-0.0775224,-0.0151324
-0.185657,0.015159
-0.283723,-0.010517
-0.276201,-0.0173934
-0.109683,0.0319781
0.0347216,0.0559737
0.100776,0.0593275
0.122949,-0.0195032
0.00326909,-0.00589435
-0.0112431,0.126966
0.0486029,0.0575768
0.0144787,-0.196192
-0.0242706,-0.155028
-0.0185228,-0.0874361
-0.000999484,-0.00209277
-0.0400115,0.0184983
-0.0513188,0.0353147
-0.0237572,0.00286297
-0.00748913,0.0300054
0.0151125,-0.00824028
0.0587086,-0.0535899
0.0919676,-0.00534555
0.070043,0.0788207
0.0417931,0.0799152
0.0651928,0.0689403
0.0315882,0.0325226
0.0816283,0.0106551
0.184661,-0.100101
0.133539,-0.101476
-0.0559229,-0.0106067
-0.191731,0.0290476
-0.204908,0.05042
-0.154911,0.0727508
-0.114199,0.0385927
-0.0290733,-0.0520206
0.0807664,-0.0485857
0.0968938,-0.0411995
0.00791566,0.00440772
-0.0257791,0.0304506
0.0314707,-0.0706548
0.0371803,0.00395668
0.0727224,0.150941
0.0998755,-0.0147376
0.102967,-0.111475
0.120462,0.00100297
0.0486823,0.0665772
-0.031347,-0.036207
-0.102539,-0.0590227
-0.152639,-0.0397067
-0.132208,0.0305824
0.00595879,0.10668
0.110377,0.0789004
0.156813,-0.0476928
0.112942,-0.0830205
-0.0387971,-0.0591172
-0.128151,-0.00635135
-0.12712,0.0400448
-0.108742,0.0468203
-0.0669307,0.00461589
-0.0329194,-0.0412302
-0.0834944,-0.0249052
-0.162343,0.00918999
-0.105278,0.0214755
-0.0288242,0.0713063
0.057403,0.0312939
0.150087,-0.00842635
0.155511,-0.0280331
0.124698,-0.0305708
0.067773,-0.0447508
-0.0315999,-0.0396089
-0.0247163,0.102687
0.0622612,0.190422
0.0139041,-0.0391844
0.0778669,-0.140082
0.0638771,-0.035209
-0.00447341,0.0411717
-0.0382058,0.0165902
-0.0667344,-0.0351273
-0.0888197,-0.0106094
-0.0979786,0.0552685
-0.0482289,0.0349934
0.0393261,-0.00176167
0.0274548,-0.0459731
-0.0408803,-0.0916583
-0.100731,0.00821717
-0.0907268,0.0679629
-0.0417678,-0.00585701
0.0355868,-0.0864471
0.0951104,-0.0497871
0.138998,0.00901786
0.165342,0.0348652
0.09997,0.0639275
0.0575476,0.0297464
0.0051061,-0.0821556
-0.0272509,-0.0324509
0.0695994,0.00817991
0.149733,-0.036212
0.130512,0.0741523
0.0850111,0.0388916
-0.0632854,0.00567445
-0.279076,0.0446265
-0.359846,0.0194698
-0.346883,0.0240986
-0.17414,-0.0709924
0.0106699,-0.129933
0.121879,-0.0487635
0.142771,-0.00240061
0.0417801,0.0295615
-0.0576528,0.062621
-0.0225093,0.0647373
0.0323296,0.0346155
0.0125357,0.147137
-0.0025381,0.0154753
0.0345013,-0.14175
0.0241886,-0.058366
-0.0518322,0.0730241
-0.0803192,0.0184546
0.0526109,-0.104252
0.131551,-0.0631489
0.150701,-0.00556577
0.160582,-0.0341531
0.121973,-0.0227795
0.0372597,0.061481
-0.00106628,0.0694733
0.00353793,0.0517047
-0.0253752,0.0105548
-0.0202209,0.0388019
-0.0362721,0.126631
-0.039529,-0.0240731
-0.0418907,-0.117498
-0.046609,-0.0723537
-0.0777007,-0.0415608
-0.0527323,-0.0315121
0.00361678,0.0576532
0.00422826,0.024682
0.0410077,-0.0179651
0.0506597,-0.0403393
0.0303442,-0.0497359
0.00405575,-0.00386367
0.00931929,0.00851941
-0.00630816,0.0100046
-0.0575398,0.0103539
-0.11253,-0.0340377
-0.106055,-0.0128322
-0.0650239,0.0627907
-0.0356149,0.117327
-0.000407419,0.0720123
0.102041,-0.105104
0.159544,-0.0851641
0.133011,-0.00462856
0.0736008,0.108797
0.0607145,0.0657947
0.0759161,-0.0182307
0.0823618,-0.0211811
0.0113735,-0.000860934
-0.0818499,-0.0297335
-0.0872029,0.000493079
-0.0221448,-0.00708593
0.014291,-0.105336
0.0246252,0.00353721
0.0542157,0.0544057
-0.00706078,0.00350376
-0.106659,0.0679254
-0.179413,0.0114229
-0.18143,-0.0396039
-0.121551,-0.0303081
0.00584739,-0.025454
0.125513,-0.0280323
0.104399,0.0633015
-0.0208343,0.00432785
-0.120782,-0.118197
-0.106995,-0.0892398
-0.0256217,0.0339267
0.0620938,0.110051
0.105187,0.054305
0.0915763,-0.03425
0.0398087,-0.0470144
-0.0353521,0.0247227
-0.043718,0.029053
-0.0422993,0.0767574
-0.0470314,0.155408
-0.0122527,-0.0475413
-0.0532625,-0.119625
-0.0832039,-0.0083997
-0.0882114,0.0135435
-0.0389906,-0.0607292
-0.0194658,-0.027388
-0.0446288,-0.0181231
0.0340814,-0.0349888
0.199975,-0.0108038
0.269335,0.0184233
0.216841,0.0277521
0.122828,0.0550083
0.0740825,0.0561993
-0.0181282,0.027842
-0.111349,-0.0758882
-0.131646,-0.0648513
-0.166275,-0.0139556
-0.171663,0.0324357
-0.0674506,0.103785
0.0188346,0.059382
0.0551852,-0.0241767
0.117876,0.0123983
0.10013,-0.0426712
0.0289493,-0.039471
-0.0139292,-0.0756139
0.00511272,-0.0800762
0.046738,-0.0767761
0.105204,-0.00751195
0.080692,0.0732421
0.00286855,0.106379
-0.0232392,0.0968585
0.000126897,0.0271987
-0.00958932,-0.0919068
-0.0389405,-0.00440556
-0.102055,0.0663294
-0.112794,-0.0599989
-0.0537992,-0.099323
0.00925851,-0.0195707
0.0158506,0.0463578
0.0194553,0.0208147
0.0340811,-0.02523
0.00960275,-0.020562
-0.0110037,0.0801217
-0.0428798,0.0993024
-0.0621286,0.000398977
-0.0684488,-0.0379535
0.0409504,0.0582678
0.149849,-0.0276091
0.185469,0.014985
0.145542,0.0679653
0.118263,-0.0455003
0.0679815,-0.0561558
-0.0356712,-0.016343
-0.170329,-0.0624427
-0.250425,-0.00459947
-0.208511,0.0120244
-0.122295,-0.0255323
-0.0573199,-0.0430439
-0.0200623,0.0126953
0.0716556,0.0300077
0.181202,-0.0117033
0.172471,0.00189023
0.0793725,-0.00397711
-0.0455209,0.0232351
-0.110007,0.029913
-0.11847,-0.0249263
-0.0912159,0.0775891
-0.03645,-0.00704558
-0.0467072,-0.0598481
-0.0140259,0.0194503
0.0401022,-0.00715309
0.0658786,-0.0528814
0.113419,-0.0220952
0.0870515,0.0609202
0.00479126,0.0240963
0.00596412,-0.0213235
-0.0300006,-0.0296223
-0.117775,0.0259478
-0.124868,0.0997716
-0.0328369,-0.00560211
0.0615669,-0.101421
0.105995,0.12106
0.118613,0.14347
0.0852193,-0.0949319
0.0297903,-0.082845
0.0200513,0.0469467
-0.00357238,-0.0205216
-0.0012603,-0.1024
0.0116149,-0.0371529
0.018002,-0.012884
-0.0688646,-0.008009
-0.123332,-0.0136881
-0.128499,-0.00402342
-0.139066,0.00659956
-0.0803701,-0.00546111
-0.00695987,-0.00737092
0.0224478,-0.0103385
0.0919768,-0.0323084
0.151156,-0.0599188
0.168021,0.00755026
0.164179,0.131554
0.0954238,0.0823168
0.0336181,-0.0265502
-0.0112027,-0.0469762
-0.0507003,-0.000383238
-0.0803548,0.0469534
-0.0745844,0.00796969
0.00554691,-0.0212978
0.0203427,0.0340917
-0.0639549,0.0501308
-0.0791433,-0.0282408
-0.0124797,-0.00337838
-0.00442918,0.00637078
-0.0173817,-0.0491258
-0.064193,-0.0875541
-0.11478,-0.0458079
-0.113233,0.03146
-0.0828726,0.150293
-0.0238695,0.126024
0.0914298,-0.111867
0.151208,-0.0608248
0.144094,0.00591896
0.0688288,0.0826455
-0.00608636,0.0895613
-0.0185043,-0.00904753
-0.0369587,-0.0208783
-0.0167072,-0.0265823
-0.0118251,-0.0146665
-0.006847,-0.0654239
-0.0232733,-0.0513468
-0.0789998,0.136203
-0.082013,0.0844629
-0.0337607,-0.112721
0.0209421,-0.138183
0.0827811,-0.108254
0.179682,-0.0161082
0.258093,0.00803633
0.129059,-0.0316505
-0.0414631,0.0366174
-0.111352,0.0884298
-0.107538,0.112727
-0.115165,-0.0143502
-0.0760564,-0.112503
0.00844392,-0.105317
0.0454378,-0.0668641
0.0455815,0.00399
-0.0152595,0.0801432
-0.0421387,0.0539087
-0.0425751,0.00693257
-0.0129163,0.0117473
0.0302046,0.0849662
0.0648321,0.0557466
0.0592032,0.000897509
0.0272806,0.107841
-0.0358764,0.2526
-0.051239,0.0245034
0.00595375,-0.225297
0.051046,-0.0817555
0.0589029,0.0115669
0.00767925,-0.0158594
-0.0622377,0.00316166
-0.112401,0.0158668
-0.0805427,-0.0359671
-0.0852328,-0.0583817
-0.124322,-0.0746163
-0.114509,-0.0402896
-0.00573174,-0.0300176
0.11185,-0.0481137
0.0627075,0.0167644
0.0999403,0.0677071
0.215233,-0.00326876
0.260716,0.00359314
0.198756,-0.0162784
0.0722043,-0.00535021
-0.136188,-0.0192173
-0.333331,-0.0384829
-0.340803,0.0124515
-0.201745,0.0561859
-0.0348236,0.0492875
0.139066,0.0552079
0.230189,-0.0363303
0.0699959,-0.081379
-0.0207913,-0.0536965
0.0431793,0.00244601
0.0683739,0.0376107
0.0509006,0.0386953
0.0754577,-0.0547905
0.070712,-0.029387
0.0265689,0.078473
-0.00358613,0.0427744
-0.0470173,-0.0055052
-0.0819479,0.0266313
-0.0569445,0.132825
-0.0163572,0.101066
-0.019632,-0.0595887
-0.0626174,-0.030898
-0.0822255,0.0541862
-0.0932751,0.148904
-0.0655613,-0.0966845
-0.0716413,-0.134164
-0.025851,-0.0953119
-0.0161147,-0.120166
0.0108661,-0.0336089
0.017249,0.0363656
-0.00640004,0.0713234
0.0226246,0.014084
-0.0191535,-0.0276509
-0.0514792,-0.0290866
-0.057431,-0.00500617
-0.0274999,0.024341
0.105742,0.0726953
0.229715,0.122851
0.261047,-0.0140723
0.253955,-0.109356
0.215332,-0.0924421
0.0485049,0.00196128
-0.120909,0.0389969
-0.133234,-0.0413999
-0.0645785,0.0198935
-0.0246379,0.013084
-0.0474432,0.0337764
-0.0647623,0.00376073
-0.0665036,-0.0270768
-0.0462969,-0.0143747
-0.0351939,0.0099421
-0.00832719,0.00320169
-0.0240838,-0.00933242
-0.0356933,0.0448751
-0.0148112,0.065451
0.0206132,0.0262618
-0.0100533,0.119807
-0.0186598,0.0927506
-0.00870599,-0.201831
-0.030699,-0.16261
-0.0662151,-0.0171461
-0.179478,0.0230611
-0.23455,-0.00398608
-0.135878,0.00590868
0.00251111,0.0412341
0.241792,-0.0125692
0.382687,-0.0469294
0.257763,-0.0372892
0.132723,-0.0216415
-0.00474594,0.00626228
-0.0377745,0.0145825
-0.0145302,-0.00465782
-0.0348805,-0.0136736
-0.0655845,0.0133778
-0.0658259,0.0335864
-0.0857181,-0.00522985
-0.0699669,-0.0208088
-0.0324378,0.105158
-0.0235616,0.171851
0.0226975,-0.0250918
0.045776,-0.0366091
0.0243933,0.010547
0.0128772,0.000143709
0.00479002,-0.0234294
0.0145372,-0.0331863
0.118101,-0.017019
0.0738818,-0.0334415
-0.107104,-0.045265
-0.205389,-0.00310392
-0.221233,-0.0232526
-0.137263,-0.0129068
0.0473907,0.0472739
0.211357,0.00901266
0.167205,-0.0609231
0.0638408,0.0107994
0.0979055,0.0807321
0.11201,0.186241
-0.0418292,0.0465428
-0.133743,-0.173543
-0.0578078,-0.103692
0.0723867,-0.0701177
0.0703822,-0.0336751
-0.0197318,-0.0108987
-0.0595039,0.0678633
-0.126191,0.0240187
-0.0372587,0.00830742
-0.0403796,0.0605478
-0.0126275,0.00705364
0.0113801,-0.0222303
0.0549808,0.0108745
0.053785,-0.00643268
0.0531258,-0.0101383
0.0817086,0.0180668
0.134827,0.0160085
0.117652,-0.0341538
0.0251507,0.0333695
-0.061816,0.0248208
-0.147992,-0.0900357
-0.206319,-0.100172
-0.165452,0.0594822
-0.0566552,0.0850227
-0.00399779,-0.0316135
0.0102904,-0.0235904
0.0420199,0.042659
0.0500075,0.0146578
0.0183911,-0.0428183
0.0132376,-0.0335196
-0.0685784,0.052196
-0.0192754,0.0873699
0.0855538,0.0577572
0.0697137,-0.0756058
5.44e-05,-0.0421084
-0.0360049,0.0198479
-0.0149902,-0.0297787
0.00641975,-0.0341707
-0.00433191,-0.0475955
0.0118251,0.0222524
0.0646649,0.0144083
0.0355976,0.021271
-0.0187689,0.0739472
0.00222203,-0.0391953
0.0125351,-0.0391819
0.0493159,-0.00783723
0.0669552,0.0412944
0.0659674,0.0244213
0.0433034,-0.0585051
0.00448588,-0.00681071
-0.0446238,0.0698471
-0.0712667,0.0267831
-0.0874614,-0.0436934
-0.0919367,-0.053339
-0.05765,-0.020188
-0.0113928,0.0423954
0.0237412,-0.00111196
0.00891055,-0.0604707
0.0187747,-0.0317351
0.0877282,-0.0211476
0.100829,0.0234555
0.0491416,0.0390969
0.0209469,0.0235436
0.0411389,0.012978
0.0813984,0.0125105
0.130733,0.0270598
0.125313,0.00929527
-0.0255643,-0.0111251
-0.26162,0.012458
-0.369554,0.0451727
-0.298815,0.0204832
-0.0967911,0.0274462
0.0807479,-0.0260923
0.151566,-0.0753889
0.11403,-0.0486055
0.0533904,-0.0186429
0.0305571,0.0707493
0.0964434,0.0503853
0.140523,-0.00805957
0.117624,-0.0283338
0.062556,-0.0873307
-0.0516892,-0.0622285
-0.15087,0.0286617
-0.188407,0.0651551
-0.150477,0.021606
-0.0942618,0.0240201
-0.0671363,-0.0534714
-0.0501635,-0.0461263
-0.0257367,0.0129096
-0.00738731,0.0590016
-0.000808247,0.0166884
-0.00333384,0.0323328
0.124894,-0.0744991
0.182301,-0.114439
0.0866559,-0.0116339
0.0210312,0.0711636
0.017056,0.0184771
0.0292504,-0.0118289
0.00964711,0.0173602
-0.0604193,0.0242231
-0.111129,0.0590869
-0.0414633,0.0980104
0.0303327,-0.0165278
-0.00346477,-0.0417235
0.0620827,-0.0558291
0.187535,0.00233089
0.186149,0.0554668
0.13343,-0.00847548
-0.000508922,-0.0442159
-0.0462324,-0.0263947
-0.0721653,0.0314697
-0.053954,-0.00256184
-0.0328828,-0.0157483
-0.0547661,-0.0262885
-0.0320581,-0.0558684
-0.0272287,0.00816317
-0.078216,0.0367209
-0.0779817,0.00598904
-0.0113039,0.020908
0.0307819,-0.0168042
0.0844515,-0.0275019
0.138155,-0.034176
0.0967761,0.0332343
-0.00112564,0.180269
-0.0423973,0.0767595
-0.0684834,-0.0755933
-0.124186,0.000659668
-0.15097,0.0313346
-0.0936484,-0.0887943
-0.0218791,-0.0113505
0.0550587,0.0203658
0.0713254,-0.0413554
0.0343744,-0.0357212
0.0237148,-0.0311114
0.0725082,-0.0165884
0.129103,0.00836204
0.118844,-0.0128072
0.0518356,-0.0159099
0.00770289,-0.0216387
-0.0681842,-0.0223442
-0.150783,0.01016
-0.199388,0.00487895
-0.187051,-0.0118188
-0.156706,-0.0267344
-0.0916782,0.0590231
0.0119603,0.116353
0.0403587,0.0651394
0.0231336,0.0842476
0.0482727,0.0243742
0.0355387,-0.0688194
0.0488646,-0.119786
0.0434119,-0.0707483
0.0427319,0.00468148
0.0773673,-0.0395465
0.0806059,-0.0235717
0.0921574,0.0407627
0.106257,0.0108204
0.063752,-0.0356094
0.0436503,0.00288069
0.044741,0.015574
-0.00568144,-0.0296423
-0.0361217,-0.0245164
-0.0409497,0.00401115
-0.0471693,0.0273336
-0.0638984,0.0378928
-0.0669987,0.00563657
-0.0377314,0.0535305
-0.00668489,0.0287329
-0.0433612,-0.0355408
-0.0235081,0.001536
0.0561879,-0.0177646
0.0792711,0.0126415
0.0835279,0.0157144
0.102005,0.0640961
0.0602104,0.0803726
-0.023156,-0.0456559
-0.0946321,-0.112107
-0.117031,-0.0808849
-0.199376,0.00922244
-0.166565,0.046868
0.00290552,0.0776396
0.0969492,0.0800508
0.0356635,0.0152335
-0.0807047,-0.0744973
0.00386859,-0.10288
0.152136,-0.00125323
0.13965,0.0608115
0.0556793,0.0595587
-0.0102028,-0.017322
-0.0599494,-0.0689366
-0.114227,-0.0449906
-0.090763,-0.0171242
-0.0174635,0.0364086
0.0257149,0.00306926
0.0675817,-0.0203352
0.0499957,-0.0217046
-0.0214573,-0.0414966
-0.0184996,0.0480851
0.0737178,0.093434
0.0643491,0.073133
0.0218202,-0.0260463
-0.0149961,-0.0596043
-0.043027,-0.0267989
-0.0539727,-0.00920063
-0.0833989,0.024945
-0.0757779,0.0165501
-0.00797119,-0.00663398
0.0726669,-0.0262233
0.0473811,-0.0202467
-0.0152023,-0.0176253
-0.0222839,-0.0267781
-0.0340635,0.0477482
0.0159542,-0.00710695
0.144754,-0.110508
0.168615,0.000558239
0.095774,0.0729267
-0.00468047,0.0672664
-0.0719743,0.0453906
-0.0499119,-0.0149253
-0.00568499,-0.0693759
0.0393513,-0.0157088
0.063659,0.0467512
0.0413646,0.0792686
-0.0187618,0.00749551
-0.0565504,-0.0556742
-0.0819453,-0.0346203
-0.0723534,0.0226092
0.000997394,0.0443661
0.0427734,0.00316198
0.000755001,0.00559944
-0.0286319,-0.0179328
-0.0284792,-0.0192856
-0.0724831,-0.0180139
-0.0700515,-0.0393151
-0.0859729,-0.0466097
-0.0932378,-0.00858837
-0.0294451,0.000122806
0.0356348,-0.0104542
0.0279524,-0.0195184
0.0162092,-0.00614975
0.0292024,0.0271182
0.0588223,0.0311667
0.065937,0.0106817
0.0495501,-0.00311711
0.0286616,0.00134514
0.0284758,0.0468029
0.0212362,0.0133263
-0.00301451,-0.0292752
-0.0205418,0.0232037
0.00949383,-0.0412746
0.0421273,0.0102138
0.060712,0.0710309
0.00896405,0.0176931
-0.0722481,0.002037
-0.0520546,-0.00189377
-0.0113358,-0.0132571
-0.0215693,-0.0238392
-0.0182145,-0.04955
0.00795804,0.0257551
0.0612147,0.0966096
0.070142,0.0263111
0.0591831,-0.0260079
0.0352414,-0.0166413
0.00612071,-0.0272756
-0.0117055,-0.0144084
-0.071785,-0.0295525
-0.126468,-0.028251
-0.134573,-0.0312393
-0.108696,-0.034538
-0.0688159,-0.00841994
0.0328101,0.0191744
0.120574,0.058918
0.0774653,0.0747447
0.0181092,0.0477959
0.0146082,-0.0143322
0.0358713,-0.087795
0.0118746,-0.0652504
-0.0424882,-0.0219113
-0.0680658,0.00613059
-0.0598585,0.0209763
-0.0497302,0.0378197
0.0287746,-0.0175249
0.133509,0.0237444
0.164413,0.0735585
0.158878,-0.00339912
0.12493,0.012105
0.0054048,-0.0158659
-0.132312,0.0197977
-0.160877,-0.0365117
-0.113876,-0.0725221
-0.060559,-0.0444497
-0.00888096,0.00209704
0.0262579,0.0170759
0.0367659,-0.00616602
0.0174739,-0.0139277
0.00474593,0.00839055
-0.015375,0.0215814
-0.0573571,-0.00197297
-0.102045,-0.0111662
-0.0749955,-0.00942559
-0.00743876,-0.0160295
0.028537,-0.00967522
0.0476027,0.00809869
0.0154156,0.012782
-0.027531,0.0332731
0.0352959,0.10049
0.0887915,0.0445553
0.127018,-0.0387338
0.14176,-0.00282751
0.108202,-0.00551692
0.0244847,-0.0247409
-0.0246687,-0.0208862
-0.0507471,0.0199714
-0.0789058,0.00161008
-0.131766,0.00797322
-0.159584,0.0445274
-0.0900827,0.0107993
0.000825005,-0.0749355
0.0356983,-0.0364347
0.0161386,-0.016827
-0.0151528,-0.0479054
0.0115441,-0.0182874
0.0503548,0.0204006
0.0353418,0.0238376
-0.00262419,0.013475
0.010764,-0.00248863
0.0278894,-0.00261124
0.0362278,-0.0407035
0.0534048,-0.054834
0.0425278,0.04003
0.0142901,0.0727682
-0.0208109,0.0700181
-0.0404205,0.0518711
-0.0412493,-0.00512892
-0.0398037,-0.0435661
-0.0225835,-0.0150925
0.00166399,0.0398763
0.0430035,0.0492029
0.0600492,-0.00672548
0.0135978,-0.00644946
-0.036772,-0.00497966
-0.0563628,-0.0143491
-0.0743107,-0.0335296
-0.0397623,-0.0607071
0.0165494,0.0634881
0.0476547,0.0852957
0.0366187,0.00950706
0.0111203,-0.112062
0.00702539,-0.0936844
0.0595365,-0.0697804
0.0971652,-0.0200848
0.078841,0.0345345
0.037145,0.0580637
0.00439903,0.00906373
-0.0481943,-0.0277021
-0.0993066,-0.024983
-0.123078,0.0184179
-0.105672,0.0324106
-0.0508746,0.0232325
0.00475874,0.00345452
0.0272869,-0.0257392
0.0241843,-0.0215375
0.00871588,0.0142325
0.0134778,0.0407129
0.025638,0.0296771
0.0132096,0.018301
-0.027029,-0.041267
-0.0690449,-0.0358004
-0.0442688,0.00921759
0.0180791,0.0416832
0.0616143,0.035931
0.102177,0.0129448
0.0933946,-0.0260859
0.00950101,-0.0267588
-0.0244855,-0.0131952
-0.0424222,-0.00408965
-0.0505633,0.0154254
-0.0437858,0.0158495
-0.00868265,-0.0196926
0.047545,-0.0142895
0.0711578,-0.000328639
0.0112892,-0.0155854
-0.0466043,0.00209556
-0.010176,0.0483409
0.0221529,0.0576879
0.00115034,0.110114
-0.017358,0.00374626
-0.00272798,-0.10542
0.00696333,-0.0773162
0.00696155,0.00372447
-0.0325357,0.00889048
-0.0473846,-0.0474795
-0.0116593,-0.0583777
0.0653187,-0.0208469
0.131131,0.00179891
0.117265,0.0278661
0.0403115,0.0673388
-0.0481989,0.0056347
-0.0821414,-0.0518072
-0.156223,0.0180928
-0.232676,-0.00742532
-0.151915,-0.0307713
0.00137734,-0.00436749
0.0972788,0.0403809
0.149359,0.099155
0.110875,-0.0350078
0.0282443,-0.0684285
0.0425843,-0.0263084
-0.00299888,0.0185875
-0.0440707,0.0512516
-0.0308798,0.0809083
0.0257777,0.0357589
0.0783999,-0.10356
0.0505405,-0.106125
0.00361117,-0.0270152
0.00529172,0.0698778
0.00681045,0.0393662
-0.0324349,0.0259409
-0.0603981,0.030385
-0.096597,-0.057802
-0.101356,0.000104732
-0.0146811,0.0172583
0.0636856,-0.0221979
0.0728195,-0.00299354
0.0683765,0.00124817
-0.00814834,0.0132049
-0.0482373,0.00876838
-0.0530882,-0.0236678
-0.0869871,-0.0490186
-0.051712,-0.0147863
0.0110254,0.0978871
0.0376228,0.117334
0.0417211,-0.0577317
0.0473045,-0.0656388
0.0957627,-0.00898412
0.129147,-0.00208292
0.0398581,0.0162211
-0.0211113,0.0472545
0.0640858,-0.0310446
0.0641623,-0.0430905
0.0109337,0.0202662
-0.0562449,0.0245138
-0.11161,0.00168843
-0.0637354,-0.0154125
-0.0477554,0.00244651
-0.0715707,-0.00347371
-0.0484677,-0.0243512
-0.0315666,-0.0112421
-0.0117168,-0.00126791
0.0188625,-0.0100715
0.0227416,0.0220273
0.0827554,0.0139265
0.114493,-0.0275033
0.0381215,0.00389138
0.0150395,0.078494
-0.011759,0.00190399
-0.0956637,-0.0616156
-0.110764,-0.0543075
-0.0549407,0.00357667
0.0012122,0.0244904
0.0108941,0.0362594
0.0236705,0.00576218
0.0481959,-0.028613
0.0912253,-0.00412636
0.118678,-0.00394339
0.0872363,-0.00735724
0.0264624,-0.0221574
-0.0408535,-0.0261413
-0.0912045,-0.0175394
-0.137792,-0.0305987
-0.154323,0.0881922
-0.0594145,0.0853752
0.0209267,0.0171707
0.0249438,-0.0147949
-0.00300433,-0.0450395
-0.0258683,-0.0402114
-0.00363634,-0.00973961
0.024579,0.0375769
0.0261997,0.0120259
0.0331267,-0.0455015
0.0503381,-0.0172373
0.0782864,-0.0267581
0.0807792,-0.00866226
0.0021842,0.0653441
-0.0928101,0.0810174
-0.145201,0.0103448
-0.0977779,-0.0916799
-0.067491,-0.0386999
0.0168412,0.024295
0.111747,0.0311041
0.104166,0.0203364
0.103736,0.00858676
0.0438748,0.0205829
-0.0317782,0.0310138
-0.0665536,-0.00187378
-0.0433928,0.0201159
0.00622841,0.0104269
-0.00249279,0.00988789
-0.00145248,-0.0125694
-0.0514343,0.0286097
-0.067715,-0.0364624
0.0586194,-0.103739
0.114677,-0.0379284
0.0962786,0.0134545
0.0922004,0.0341389
0.0375735,-0.00658293
-0.0174029,-0.0514402
-0.0496329,-0.00690047
-0.0670681,0.00510297
-0.0595641,-0.00404821
-0.00590887,0.000623499
0.0625558,-0.000799484
0.0762216,0.0183832
0.0626791,0.0334038
0.00220315,-0.0305494
-0.0889807,-0.0114029
-0.124989,0.00685536
-0.0942229,-0.00365288
-0.053644,0.0516225
-0.0415214,0.0585501
-0.00596974,-0.00598894
0.00878255,-0.0188806
-0.019146,0.00222426
-0.0101093,0.00395539
-0.00878945,0.0295285
0.0090648,-0.0431974
0.0588663,-0.0282868
0.10558,0.0132038
0.111016,-0.00444162
0.0867387,-0.0115098
0.0510647,-0.00262569
0.04348,-0.0241008
-0.00601699,-0.0478671
-0.068443,0.0551383
-0.0400859,0.139711
-0.0439846,-0.0150936
-0.0313409,-0.0961974
-0.00101875,-0.0431571
0.00990521,-0.0268528
-0.0365257,-0.0174794
-0.075346,0.0105763
-0.0574362,0.0314949
-0.0489687,0.0157525
-0.0697975,-0.0165327
-0.129668,0.0130603
-0.112213,0.0242019
0.0245162,-0.00611592
0.156956,-0.0155973
0.219055,0.0104274
0.145207,0.0230803
0.0397224,-0.00806643
0.0185655,-0.0175273
0.00149695,0.0359018
-0.0211504,0.0535822
-0.0234058,-0.0347596
-0.014883,0.0111631
-0.00235411,0.0161493
-0.00371519,-0.0101782
-0.00727165,0.00273261
-0.0236831,-0.0113561
-0.0938271,-0.0278638
-0.152798,-0.0145899
-0.113531,0.00784427
0.0158137,0.0565136
0.117076,-0.0327044
0.129903,-0.0707605
0.0879447,-0.0169443
0.0384549,-0.0189864
6.59e-05,0.000937908
-0.0305761,0.0368611
-0.00715372,0.0199677
0.00219307,0.0217327
-0.0119184,0.0320746
0.0188633,0.0280468
0.0704831,-0.0121844
0.0578814,-0.00953348
0.0106274,-0.0290853
-0.0238913,-0.0301983
-0.0427633,-0.00196578
-0.0972711,0.0254107
-0.18136,0.0170783
-0.204756,-0.0365047
-0.0616874,-0.0849767
0.0601649,-0.0141715
0.153431,0.0484299
0.157737,0.0663496
0.0740198,0.0418827
0.0256518,0.0130443
-0.0235722,0.0111809
-0.0704189,6.64e-05
-0.15634,0.00566562
-0.134113,-0.0122189
0.0434963,-0.034708
0.19364,-0.0666
0.148211,-0.0710496
0.0710083,-0.0134421
0.127159,0.0195379
0.0790033,0.0336601
-0.00717264,-0.00716967
-0.0372414,-0.0221229
-0.053576,0.017586
-0.0942202,0.0290322
-0.0777978,0.00308043
-0.0557146,0.0313797
-0.0415405,0.0959449
0.00612193,0.0207001
0.0409405,-0.0400951
-0.00377893,-0.0466392
-0.0338339,0.0171394
0.00174386,0.0847534
0.0205728,0.046748
-0.0861264,0.00878554
-0.17295,-0.0850386
-0.102424,-0.0806764
0.0208209,-0.0165299
0.0997511,-0.0026071
0.113129,-0.0188004
0.0990622,0.0493277
0.145796,-0.0479463
0.0647655,-0.0819674
-0.0524619,-0.0022582
-0.0889977,0.0502212
-0.0474529,0.0425825
-0.0289974,0.0189133
-0.0365529,0.0576881
-0.00987008,-0.0161635
-0.0019519,-0.0556795
-0.0212432,0.0146986
0.00763598,0.0031168
-0.0625021,-0.000872386
-0.107927,0.0224246
-0.0224506,-0.0511427
0.204739,-0.0571813
0.296669,-0.017586
0.176229,0.0383472
0.0380995,0.0584632
-0.048363,0.065485
-0.0410876,0.000430867
-0.0201521,-0.0261055
-0.0388979,0.0379359
-0.0809912,0.0324499
-0.105541,-0.00199614
-0.0851547,-0.0509946
-0.0552948,-0.0240452
-0.0368905,-0.010176
-0.0052672,-0.0134888
0.0350959,-0.00775745
0.0286711,0.00433349
-0.0231598,0.0183588
-0.0577202,0.00283429
-0.0880369,-0.0107658
-0.0514141,-0.00647302
0.0298605,-0.00085093
0.0697472,-0.0117544
0.108393,-0.0207548
0.128232,-0.00493245
0.0717174,-0.00749118
-0.00295051,-0.0232664
-0.00121389,-0.0153188
0.0191788,-0.00359194
-0.019205,0.0349442
-0.134781,0.0477339
-0.239537,0.0161034
-0.191289,-0.00264797
-0.0095792,-0.00858931
0.0947227,-0.0145426
0.0271219,-0.0110766
0.0147281,-0.0113393
0.0505706,-0.00303722
0.0715784,0.00986589
-0.0140671,0.0281674
0.0254001,0.0307169
0.150144,0.00299727
0.159486,-0.016558
0.0734261,0.0177481
0.00527485,0.0115553
-0.0275284,-0.0574194
-0.0371654,-0.0383909
0.0223863,0.00501041
0.0539263,-0.0278767
0.0154081,-0.0352019
-0.0251655,-0.00152829
-0.0248284,0.0136439
-0.0340523,0.0256681
-0.0634847,0.0558001
-0.0509026,0.0262596
-0.0595419,0.0397022
-0.0828271,0.0755537
-0.0746877,0.0893845
-0.0448703,0.0207624
-0.00744592,-0.117878
0.0307472,-0.0801137
0.0421079,-0.0847741
-0.00498317,-0.0630621
-0.0246192,0.0157566
0.0261824,0.0397933
0.0988722,0.00851077
0.112645,-0.0380269
0.0450233,-0.00226227
-0.0231723,0.0696106
-0.0937344,-0.00139136
-0.0928454,-0.00319204
-0.0969527,0.0250827
-0.104194,0.00386783
-0.0495692,-0.0223984
0.0257473,-0.0122514
0.0859514,0.0364452
0.0963622,0.0355081
0.0405084,0.0201665
0.0422596,0.0523639
0.0343197,0.0596097
0.0603051,0.000191166
0.160306,-0.0419461
0.153879,-0.0596853
0.0520307,-0.00564656
-0.0220383,-0.0487053
-0.109169,-0.0715899
-0.169018,-0.00814719
-0.143582,0.0379579
-0.118251,-0.0565679
-0.116674,-0.045774
-0.022461,0.0380336
0.120325,0.00900793
0.187635,-0.0136796
0.165009,0.0502104
0.0827123,0.121894
0.000290958,0.0264503
-0.0681173,-0.0446352
-0.0929837,-0.0518046
-0.0882937,-0.0395162
-0.0648166,-0.025934
-0.0144437,-0.0052059
-0.0131932,0.0367581
0.00139282,0.051134
0.0208264,-0.00684667
0.0190493,-0.0253232
0.0430996,-0.00707909
0.0568271,0.0441805
0.0300562,0.0377827
-0.00623544,-0.0657262
-0.0319019,-0.0479467
-0.0897001,-0.00882317
-0.0862627,0.0242869
-0.010707,-0.00145892
0.0573642,-0.0197192
0.0995012,0.00540617
0.0964018,0.0352508
0.0267704,0.0461839
-0.0774497,0.0155105
-0.158153,-0.0346733
-0.154825,-0.0346852
-0.0946546,-0.00741144
-0.00496536,-0.00156439
0.0674942,-0.009743
0.180373,-0.0248308
0.241708,-0.0286076
0.198261,-0.0100755
0.0831431,0.0248302
-0.0268127,0.0396846
-0.129185,0.0393433
-0.196907,0.005294
-0.185368,-0.0109355
-0.181715,0.0295709
-0.135048,0.0324149
-0.0301061,0.0261132
0.0801362,-0.0666557
0.0889124,-0.0661121
0.0188463,-0.0206916
-0.00080032,0.013724
0.0453889,0.0327851
0.0989915,0.0025298
0.0722735,0.0158345
0.0592616,0.0130716
0.0731736,-0.0313276
0.0533744,-0.0311022
-0.00952625,0.0243795
-0.0504709,0.0002803
-0.0626072,-0.01684
-0.0263404,-0.0261999
0.0575632,-0.0443895
0.0783467,-0.00548648
0.0389855,0.0721411
-0.0455643,0.0980426
-0.0870572,0.0547631
-0.0788461,-0.00490587
-0.024036,-0.0471775
0.0705576,-0.0446434
0.0790938,0.00848817
-0.013292,0.0810831
0.00797707,0.00497566
0.0909721,-0.0675098
0.115806,-0.0412043
0.0742086,-0.0294662
-0.0364124,-0.00201456
-0.0734803,0.00149092
-0.0374069,-0.0125538
-0.0115844,-0.0102837
-0.0319152,0.0233486
-0.0335719,0.10953
-0.0338955,0.0454728
-0.035488,-0.0941298
-0.0863476,-0.0147458
-0.111324,0.000854163
-0.0963197,-0.0362289
-0.0560741,0.0106789
-0.0588877,0.0426296
-0.0739076,0.0693054
0.0293667,-0.0549207
0.0250755,-0.0755755
0.00996344,-0.037818
0.0633792,-0.000750958
0.0757968,0.0153796
0.0563008,0.0275144
0.0439734,0.0437866
0.0535746,0.0175833
0.0591903,-0.0317144
0.0943368,-0.0296873
0.0624283,-0.0102796
0.0466839,-0.00592412
0.0895778,-0.0231344
0.0711068,-0.00426721
0.0201356,0.00133112
-0.0893673,0.0399113
-0.177557,0.0564667
-0.15209,0.0350777
-0.0985067,-0.0272983
-0.0221769,-0.0555024
-0.0123534,-0.0312349
-0.00137202,0.0059007
0.0165305,0.0283557
-0.0363571,0.00858457
-0.0434239,-0.00951089
-0.00878843,0.0223219
0.043177,0.0620618
0.0312177,0.103752
0.044207,0.0358687
0.0708178,-0.0492203
0.0953244,-0.0958811
0.117458,-0.0909254
0.0810966,-0.0292702
-0.0589379,0.0147529
-0.1228,0.00463974
-0.102418,-0.00732129
-0.0526008,0.0248871
-0.0025135,0.0250377
0.00847831,-0.00961856
0.000265498,0.0507039
0.0834758,0.00669468
0.134353,-0.0562074
0.00276865,-0.0493439
-0.117413,0.0788204
-0.0110743,-0.0702007
-0.00250144,-0.120537
-0.0188377,-0.00889148
0.044306,0.050377
0.113283,0.0675656
0.0795043,0.0278203
0.00114418,0.00836494
-0.0194059,0.00594247
0.0260139,-0.0189075
0.0178201,-0.00485879
-0.0605956,0.0183493
-0.0795105,0.0195767
0.0321107,-0.00442866
0.0951413,0.0108844
0.0370707,0.00880728
-0.0266208,-0.00200565
-0.0740184,0.00562249
-0.101842,-0.0197538
-0.166158,0.0401123
-0.161051,0.03842
-0.105873,-0.0324766
-0.0331035,-0.042933
0.0261108,-0.03012
0.130305,-0.00225588
0.217984,0.0195363
0.25691,0.00709824
0.15617,-0.00208732
0.00176476,0.00751901
-0.128107,0.041578
-0.186779,0.0282794
-0.148861,-0.00295404
-0.0720632,-0.0192746
-0.0160776,-0.0313609
-0.0115973,-0.0103723
-0.0213064,-0.0190849
0.00953204,-0.0384325
0.0673662,-0.00384822
0.0829319,0.00159152
-0.0256298,0.000106286
-0.164207,0.0310072
-0.180936,0.0223041
-0.175221,0.00946781
-0.0877224,0.00849418
0.0923496,-0.0131822
0.204598,-0.03689
0.215964,-0.0223447
0.20793,-0.00415139
0.17838,-0.00591523
0.0782347,0.0139508
0.0275925,0.0440813
0.0316547,-0.00503262
-0.0268316,-0.0170675
-0.108197,0.000375081
-0.078737,0.0362728
-0.0093192,0.0335855
0.0138941,-0.0476602
-0.0430509,-0.0414579
-0.0500894,0.00370524
0.00459365,0.00498732
-0.0527536,0.0600853
-0.0520912,0.0626746
-0.017264,0.0779683
-0.0413492,0.0587632
-0.0629055,-0.0414606
-0.00650948,-0.126733
0.0215009,-0.127338
0.0570092,-0.0182157
0.105944,0.0458562
0.0591636,-0.000721141
-0.0134183,0.000989706
-0.0108632,0.00849146
-0.00416886,-0.0100091
-0.00329378,0.0206185
-0.000341097,0.0168606
-0.00661132,-0.0275831
-0.00927584,0.0138819
0.0186768,0.0218528
0.0842359,0.0114125
0.144218,0.00728963
0.1212,0.00117858
0.033815,0.0206373
-0.103022,0.0136418
-0.139762,-0.00728727
-0.111664,-0.017295
-0.11433,-0.0159413
-0.081868,-0.00982318
-0.00470914,-0.0344945
0.00625722,-0.0366763
-0.0636108,-0.045007
-0.0987261,-0.0132762
-0.0551955,0.0502899
-0.0297783,0.127671
-0.0217025,0.0354638
0.0262293,-0.0741246
-0.00159836,-0.0225301
-0.0698295,0.0290159
-0.010102,0.0206278
0.0981226,-0.009514
0.144187,-0.0378093
0.111616,-0.0409073
0.0673187,-0.00773366
0.0394114,0.0154228
0.080308,0.0107882
0.0648736,0.00483984
0.0330584,0.0421079
0.00963924,0.0326802
-0.0240971,-0.0416291
-0.0525668,-0.0525159
-0.0355825,-0.015275
-0.0261212,0.0070152
0.0368957,0.0295973
0.122233,0.0333592
0.104906,0.0794255
0.0515044,0.0408387
0.00268133,-0.0531837
-0.0782841,-0.0393567
-0.118628,-0.031848
-0.0993222,-0.0427386
-0.0982137,-0.000771242
-0.0479356,0.01171
-0.0212981,0.0420555
-0.0451754,0.0330411
0.0171186,-0.0421008
0.0796209,-0.0514913
0.0366458,-0.0652491
-0.0361398,-0.0183764
-0.048123,0.0235357
-0.00582746,0.0142929
0.0580865,0.0307733
0.0697909,0.0505432
0.0310726,0.039297
-0.0400318,0.0340576
-0.0817718,0.00411825
-0.0417492,-0.0274207
-0.002506,-0.0100026
0.000726424,0.000964066
-0.0117953,-0.014582
-0.0186496,-0.000522001
-0.00517195,0.0168312
0.011966,-0.00914512
0.0385968,0.00243766
0.0773541,-0.010676
0.107436,-0.0263375
0.0697216,0.0306889
0.0222412,0.0160881
-0.0437896,-0.0162849
-0.115673,0.00270442
-0.155011,0.0109981
-0.129203,-0.00123715
-0.0599113,-0.021388
-0.005689,-0.0154398
0.00910665,-0.0216436
-0.00857296,-0.0453736
0.0243652,-0.0160787
0.0885753,0.00693778
0.1218,-0.0156895
0.127146,0.0168911
0.0925432,0.0367265
0.000117202,0.0237317
-0.0790072,0.0224543
-0.0649595,0.00142725
-0.00730163,-0.0450621
0.0146332,0.000523672
0.00240996,0.050068
0.0411376,0.0384662
0.107914,0.00778232
0.0945466,0.00109755
0.0330092,0.0320895
-0.0513819,0.0212198
-0.100077,-0.0257701
-0.0896012,-0.0382304
-0.0713567,-0.0576582
-0.0516971,-0.0282672
-0.0193844,0.00352598
0.0039329,-0.018699
-0.0195419,0.0145498
-0.0327883,0.0654973
0.0189731,0.0193602
0.0584974,-0.00817462
0.0454813,-0.0249487
0.0193734,-0.0425485
0.0273929,-0.0275882
0.0360504,-0.0227278
0.00646949,-0.00989839
-0.00622356,0.0397722
0.0011767,0.0573152
0.00800028,0.0214694
0.00230768,-0.00358092
-0.0689189,-0.0358085
-0.15099,-0.00188308
-0.116142,0.0306434
-0.0128864,-0.0183098
0.0115246,-0.0260191
0.00772943,0.0136602
0.0737313,-0.00287121
0.0994664,-0.0311886
0.104435,-0.0486101
0.0653638,-0.00110722
0.0491378,0.0163795
0.0370446,0.0438551
0.0310187,0.0376757
0.0360231,0.0867011
0.00421075,0.0647298
-0.0479754,-0.0935269
-0.0871171,-0.0427929
-0.08401,0.014336
-0.0598333,-0.0118508
-0.0291474,-0.0216122
0.0128402,-0.0134144
0.014805,-0.0129068
0.0122117,-0.00794663
0.0164772,0.0097771
-0.00308314,0.0231117
-0.021656,0.0202574
-0.0200225,-0.00678611
-0.00417391,-0.0106809
-0.0233182,0.00674859
-0.0351991,0.00871382
-0.0203416,-0.00586299
0.00122426,-0.0201209
0.0205744,-0.00376677
0.022115,0.00596757
0.0135707,-0.000128363
0.0185913,0.00242182
0.00774693,0.00132362
0.034863,0.00840717
0.0631414,0.00603092
0.05075,-0.0165293
0.0273988,-0.0241556
-0.00404868,0.00569695
-0.0397384,0.032931
-0.0499407,0.011584
-0.0378922,-0.0173722
0.000771978,-0.039066
0.0229374,-0.0337716
0.0426137,-0.0131266
0.0553703,0.0187675
0.0296239,0.0133544
0.00161822,-0.000872499
-0.0147836,0.00623542
-0.0607536,0.0103596
-0.135695,0.00924952
-0.152597,0.016254
-0.108165,0.0730446
-0.0365513,0.0621197
0.0284697,-0.0219094
0.0835061,-0.0122738
0.0927662,-0.0342816
0.0804981,-0.024731
0.0809445,0.00155008
0.0483574,-0.0263335
-0.0380278,-0.0256665
-0.0595515,0.0612346
-0.0338491,0.048974
-0.025145,-0.0632883
0.0099878,-0.0468008
0.0547893,0.00366616
0.0945057,0.00496301
0.0517043,-0.000106524
-0.0245671,0.000298657
-0.0167137,-0.0182352
-0.00513942,-0.0153414
-0.0265336,0.00479874
-0.00993088,0.00597879
0.0213555,0.00790241
0.0190293,0.0218375
0.00899343,0.0135485
0.00116704,0.0120899
-0.00187682,0.0129103
0.0250106,-0.0162435
0.0131502,-0.00554396
0.00871204,-0.00420699
0.0114999,-0.00156585
-0.00277166,-0.00500615
-0.0485152,-0.00775396
-0.0679835,-0.00684955
-0.036966,0.0718379
0.0318135,0.0700914
0.0644579,-0.0550526
0.024317,-0.0445913
-0.0289584,-0.0282307
-0.0691195,-0.0331015
-0.0991447,-0.00791653
-0.0698782,-0.00318827
-0.0358356,-0.0184952
-0.00906314,-0.0264069
0.0318906,0.00875436
0.0315566,0.01983
0.0285679,-0.0219201
0.0601017,0.00389001
0.0406851,0.0681394
0.0203976,0.0178641
0.0114375,-0.0329259
0.0134737,-0.0257267
0.00472348,-0.0170278
-0.0145503,-0.00209651
-0.0163457,0.0312965
-0.0130584,0.0582488
0.0030829,-0.00513307
0.0374891,-0.02431
0.00303424,0.0107192
-0.0591546,-0.0131026
-0.0730349,-0.00628763
-0.0424945,0.0454002
-0.000170526,-0.0220605
-0.0291083,-0.00300426
-0.0432292,0.0834109
0.00825904,-0.019162
0.0246174,-0.0763573
0.00109983,-0.023631
0.0186625,0.00937321
0.0226458,-0.00929761
0.0414263,0.0335308
0.0490472,0.0560607
0.0632199,0.0632574
0.111587,0.0113354
0.114134,-0.0485463
0.0282812,-0.0123697
-0.041698,-0.0757882
-0.0527025,-0.0648701
-0.0302571,0.00558258
-0.0187114,0.0294656
-0.0201758,0.0290838
0.0291898,0.0173247
0.0411986,-0.0111394
-0.0388729,-0.012916
-0.0909229,-0.00901706
-0.0491646,-0.00666428
0.0352036,-0.0288013
0.0118397,-0.0211356
-0.0657813,0.0370738
-0.0515015,0.0617106
0.00110908,-0.012869
0.00895723,-0.03325
0.0270745,0.00695886
0.0252835,0.0250108
0.0408697,0.019135
0.0197079,0.00726653
-0.0291802,-0.0204785
-0.059216,-0.00893806
-0.0382923,0.0167353
0.0537158,-0.0152468
0.0485912,-0.0449511
-0.0308744,-0.0228101
-0.0452215,0.0210815
-0.0805716,0.00865041
-0.0766686,0.00834224
-0.0269,0.0155275
-0.00533925,-0.000937421
0.0296925,0.00298569
0.122967,0.0121663
0.13168,0.00300463
0.0562588,-0.00575284
0.00413712,-0.0232678
-0.00819985,0.0222085
0.0298578,0.0823487
0.0452404,-0.01832
0.0612587,-0.0121414
0.0415214,0.0108381
-0.060668,-0.0483756
-0.104712,-0.0323582
-0.0650927,0.0110678
-0.0349925,0.0226887
-0.00996676,0.0293341
-0.00761832,-0.00574505
-0.0177531,-0.0239554
-0.0159955,-0.0135989
-0.0106092,-0.008229
-0.02074,-0.00740983
0.0136645,0.0301734
0.0663549,0.0419751
0.0577663,-0.0198543
0.0269572,-0.0536894
-0.0223259,-0.040573
-0.0777744,-0.0215891
-0.0815409,-0.0159593
-0.0851728,-0.00829308
-0.0937865,0.0471448
-0.0175864,0.0527481
0.0871621,-0.00900194
0.110822,-0.0341446
0.0411508,0.00884297
0.00940825,0.0430394
-0.0176146,0.0147182
-0.0707924,-0.0192915
-0.0767643,0.00425875
0.00394027,0.047635
0.0678544,0.0161757
0.0868125,-0.06103
0.0628499,-0.0322929
0.0494327,0.001658
0.0470732,0.039486
0.00200185,0.00585331
-0.0219156,-0.0312209
0.00773894,-0.011793
0.0466893,0.0117044
0.0606676,0.00788485
0.0421709,-0.000583541
0.0304727,-0.0104014
-0.00181608,-0.0150683
-0.106766,-0.00452564
-0.127469,-0.0137467
-0.0908812,-0.0252238
-0.0181603,-0.01358
0.0289228,0.00282388
-0.0358001,0.0169709
-0.0504931,0.0101863
-0.0401045,0.0163089
-0.0808806,0.0233556
-0.062481,0.00689549
0.0235874,-0.0250772
0.0968582,0.00674389
0.11924,0.0470782
0.0940606,0.00446423
0.0464772,0.00663371
-0.010423,0.0819732
-0.0446979,0.0174586
-0.0417607,-0.0641166
-0.011329,-0.0617018
0.0466703,-0.0581551
0.0817259,-0.00943037
0.0566338,0.0316521
0.0189441,0.0188151
0.00060702,0.00994319
-0.0272526,-0.00853214
-0.0493777,-0.0147636
-0.0816839,-0.0145797
-0.0973948,0.000780988
-0.0782347,0.0113022
0.0204496,-0.00741796
0.10484,0.00143764
0.085645,0.0536295
0.0454037,0.0599018
0.00738623,-0.0225299
-0.0416708,-0.0218294
-0.0812399,0.0275906
-0.0706499,0.0241972
-0.0460523,-0.0434298
-0.00799869,-0.0530585
0.0194167,-0.00439354
0.0424426,0.0474637
0.0874065,0.0249349
0.0632929,-0.029564
-0.0122399,-0.0227553
-0.010161,-0.010165
-0.0196288,-0.010934
-0.0250356,0.00719384
0.0152445,0.00919889
0.0306509,0.0467799
0.00986127,0.0483067
0.0120435,-0.0891123
0.019216,-0.0630636
-0.0122847,0.0427946
-0.00272063,0.0447327
-0.0111541,0.00042202
-0.0298813,-0.0188805
-0.0387357,-0.0140556
-0.0352233,-0.00270981
-0.0046443,-0.0290866
-0.00851209,-0.0410371
-0.0465911,-0.0212149
-0.0447343,0.00765061
0.00588127,-0.00439851
0.0428341,-0.0166754
0.0424903,-0.00445543
0.0381952,0.0109963
0.0365253,0.0400759
0.0241112,0.0333516
0.00701218,-0.0146868
-0.0103198,-0.0326986
-0.00286352,-0.00209575
0.0218045,0.0297471
0.0199071,0.0400008
0.0090821,0.0251927
-0.0232239,-0.0138639
-0.0513429,-0.0173482
-0.0514625,0.00272552
-0.0769221,0.0132708
-0.0592969,0.0102136
0.00417944,-0.00513745
0.0797954,-0.019132
0.0819759,-0.0207956
0.00318584,0.000829281
-0.0240517,0.0203288
0.0202236,0.0171915
0.0365542,0.0186031
0.0032828,0.0129241
-0.0173346,-0.0105292
-0.00720116,-0.0227398
0.010771,-0.0334116
0.011398,-7.19e-05
-0.00315774,0.10036
-0.0229928,0.0893087
-0.0109342,-0.0546785
0.0141549,-0.0455968
0.025001,-0.0115058
-0.00152664,-0.00387413
-0.0168222,-0.0405088
-0.00923263,-0.0413827
-0.0104324,0.0102553
-0.0307302,0.0323947
-0.0525495,-0.00467719
-0.0431436,-0.0228374
-0.0034074,-0.00358464
0.0488926,0.00796769
0.0887944,0.00486817
0.0555338,0.00954704
0.00943592,0.00928361
0.0510809,-0.0114657
0.0840931,-0.0240948
0.0801021,-0.00838012
0.0696637,0.00814712
-0.00571354,0.0201305
-0.105887,0.0226115
-0.15581,0.000294252
-0.170528,-0.00925916
-0.162525,0.0354566
-0.144459,0.0240066
-0.117008,-0.0143691
-0.0409018,-0.0335082
0.121953,-0.0409251
0.190208,-0.0136713
0.135282,0.00598497
0.067181,-0.00387556
0.041238,-0.00622156
0.0224394,-0.00717068
0.00541705,-0.0038872
0.022175,0.00558995
0.0402316,0.0188351
0.0428341,0.0131613
0.0500018,-0.00546254
0.0274349,-0.0126606
-0.00221441,-6.75e-05
-0.017042,0.00591649
-0.0198336,0.00667969
-0.0367639,0.00455189
-0.0300944,0.0039892
0.00827622,0.0101531
0.0166552,0.0121619
-0.000445131,0.00750908
-0.0199641,0.00309897
-0.0530749,-0.00775133
-0.0821754,-0.0275854
-0.083451,-0.0105832
-0.0488873,0.0112553
-0.0144286,0.00904045
-0.00063408,-0.000319257
0.0263099,0.000316138
0.0533405,-3.34e-05
0.055119,0.00038685
0.0387807,0.00575254
0.0185412,0.00773457
-0.00659951,0.00229611
-0.0141123,0.00450682
-0.00820087,0.0107619
-0.00258302,0.0082079
0.00340712,0.00337273
0.00324238,-0.00183104
-0.0141468,-0.0128991
-0.030244,-0.0207222
-0.0246962,-0.017413
-0.00270437,-0.00240997
0.0067871,0.00688862
0.00198466,0.00542355
-0.00113906,-0.00194055
-0.00280351,-0.00793644
-0.000345478,-0.0029839
0.00801393,0.00535591
0.0117401,0.000803423
0.0146335,-0.00497191
0.0237536,-0.00598971
0.0254032,0.000251759
0.00617289,0.0311152
0.000405313,0.0426133
-0.00192374,-0.0176755
-0.0174018,-0.0454586
-0.0268609,-0.00709493
-0.00854376,0.0226066
0.0208556,-8.54e-05
0.0248008,-0.0206038
0.0134317,0.0178541
0.0028975,0.0577127
-0.00403089,-0.0206498
-0.00587077,-0.0704285
-0.00122112,-0.0361831
-0.0054915,0.00259579
0.00399125,0.0157537
0.0270208,0.0207858
0.0321047,0.0179213
0.0229305,-0.00543483
0.00710914,-0.00420183
-0.0178041,0.000954598
-0.0359302,-0.00746067
-0.029806,-0.0016433
-0.00261655,0.0121004
0.00173108,0.00260643
-0.0270653,-0.00707093
-0.0406902,0.00638733
-0.0202931,0.0139976
0.00773185,-0.0123638
0.0234067,-0.0174682
0.0173109,0.00537413
0.00739807,0.0214872
0.00175699,0.00479804
0.00741439,0.00717266
0.00619721,0.0522365
0.0071639,0.0301921
0.00540802,-0.0481948
-0.00378829,-0.0437542
-0.00753771,-0.0166717
0.0212594,-0.00424905
0.067729,0.00841849
0.0711442,0.016229
0.0265957,0.00987186
-0.0321606,-0.00374975
-0.0781448,-0.00856743
-0.0943263,-0.00838421
-0.0824581,-0.000740702
-0.0548726,-0.00441597
-0.0140549,-0.00572853
0.0459153,0.00940584
0.064439,0.0105098
0.0416004,0.00652786
0.0281048,-0.00190311
0.0159764,0.0261387
-0.0189278,0.00878215
-0.0464597,-0.0274813
-0.0328424,-0.0250766
0.000890363,-0.00478825
0.0115732,0.00138593
0.0128163,4.71e-05
0.00232462,-0.000250018
-0.0201261,-0.000953652
-0.0260198,-0.000486382
-0.0218361,-0.000803779
-0.0132535,-0.00272362
0.00924641,-1.09e-05
0.0293487,0.00272029
0.0296242,-0.00508447
0.0218057,-0.0115844
0.0150131,0.000947744
0.00431379,-0.000591987
-0.00588206,-7.81e-05
-0.0227591,0.0202121
-0.0129404,-0.000164454
0.00651843,-0.00448154
-0.0190146,0.0537644
-0.0201519,0.021652
0.00107211,-0.0220564
-0.00135405,-0.0202575
-0.00759221,-0.0192047
0.00334215,0.00271447
0.0386005,-0.00680044
0.0646436,-0.00139137
0.0609705,0.0125478
0.0370685,0.010862
0.018449,0.00673631
0.00483046,0.00373001
-0.012115,-0.00730936
-0.0266323,-0.012841
-0.0242031,-0.00639479
-0.000950582,0.00755517
0.0205485,0.00916371
0.0157645,0.000861268
0.00247225,-0.00348397
-0.00992274,-0.00826242
-0.0114162,-0.00886868
-0.00324206,-0.00552803
0.00249237,-0.00474628
0.00487701,0.000579941
0.0241522,0.009298
0.0050176,0.00750384
-0.0289479,0.00175761
-0.0316076,-0.0131338
-0.0380977,-0.0205408
-0.0455391,-0.0279472
-0.0476258,-0.0107361
-0.0338752,0.0231087
-0.00432345,0.0451936
0.0148439,0.0334108
0.0195123,-0.0187859
0.0196523,-0.0245192
0.0206043,-0.0095418
0.0181878,0.00296406
0.0159619,0.00651237
0.00526756,-0.0107043
-0.0153719,0.0189323
-0.0290476,0.0368626
-0.0273511,0.00257672
-0.0162414,-0.013603
-0.0116704,-0.0102533
-0.0031191,0.0149062
0.0109068,-0.00391285
0.0268538,-0.0378767
0.0329442,-0.0262632
0.0228084,-0.00344831
0.0141711,0.00779292
0.0259939,0.030061
0.0157058,0.0292951
0.00291638,-0.00346966
0.0295647,-0.0104243
0.0842734,0.0124988
0.0792047,0.0132556
0.0429884,-0.00867215
-0.0041812,-0.00505918
-0.0715672,0.000610205
-0.113567,-0.00500326
-0.113321,-0.00618518
-0.0962104,-0.0017577
-0.0611373,-0.0108499
-0.019741,-0.0249204
0.0101785,-0.0102581
0.0456439,-0.00507451
0.0499714,-0.00454743
0.0269406,0.0111083
0.0025653,0.00625376
-0.0152362,-0.00502433
-0.0373991,-0.00364207
-0.0511669,0.00254187
-0.0189329,0.00930133
0.0404117,0.0229149
0.0584049,0.0277923
0.0380314,0.0125534
0.0488649,-0.00482287
0.0428117,-0.0116602
0.00341026,-0.0101193
-0.023485,-0.012572
-0.0209505,-0.00741721
-0.00748333,0.00211332
-0.00704767,0.00171299
-0.0110824,-0.00209801
-0.0130429,-0.00426978
-0.013615,-0.0025655
-0.0146623,0.00379676
-0.0109956,0.00893441
-0.00931039,0.00324509
0.00226563,0.012045
0.0257242,0.0251561
0.0289518,0.00312976
0.0212166,0.0033015
0.0146334,-0.000315078
0.00367039,-0.0224114
-0.00908919,-0.0193358
0.00146685,-0.0134409
0.0460988,0.00877382
0.0557569,0.0119148
0.0205586,-0.0131972
0.00251025,-0.033489
-0.0120896,-0.0310139
-0.0298699,-0.00381912
-0.042921,0.00487242
-0.0488241,-0.00251856
-0.0521088,-0.00418993
-0.0340815,0.0294534
-0.00813729,0.0365272
0.00803471,-0.00173266
0.0103642,-0.00104377
0.00675882,-0.00684031
0.00853616,-0.0185763
0.0341939,-0.00706106
0.0494881,0.00681942
0.0674943,0.0182138
0.0570565,0.0171111
0.0131586,0.00932826
-0.0298665,0.00435086
-0.0722298,-0.00515121
-0.106291,-0.0114668
-0.114063,0.0249096
-0.0959285,0.0393469
-0.0464656,-0.0188106
0.0288865,-0.0302731
0.110447,-0.00706079
0.13935,-0.00223284
0.156282,0.000800814
0.170842,0.00440242
0.118008,0.00288454
0.0171484,0.00687649
-0.0754586,0.00274173
-0.139603,0.000973226
-0.157501,-0.000641406
-0.125306,-0.00684556
-0.0740978,-0.00834171
-0.0110576,-0.00982193
0.0187791,-0.00930669
0.0110898,-0.00352498
-0.00660223,-0.0075526
-0.011896,-0.00632231
-0.00297364,0.00482933
-0.0101653,0.0197977
-0.000910475,0.00900809
0.0143947,-0.00163338
0.0138669,-0.00224489
0.00324931,0.0073744
-0.0015171,0.0106922
0.00837518,0.00133973
0.0172403,0.0101507
0.00586871,0.00966401
0.00188765,-0.010817
0.0192573,-0.0117619
0.0228198,-0.0082039
-0.00665157,-0.00956391
-0.0158434,-0.00752166
-0.00603724,-0.00348035
0.0200962,0.00870938
0.0434839,0.00747998
0.04523,-0.001325
0.0308973,-0.0129343
0.0196779,-0.00994825
-0.00373184,0.00379021
-0.018588,-0.00399522
-0.0197173,0.00261541
-0.00326891,0.00743264
