Comp Ch 3,Comp Ch 4
0.00240916,0.0227571
-0.00305908,0.0136584
-0.00228749,-0.00108457
0.00193061,0.0319581
0.00603977,0.0372923
0.0210121,-0.00705482
0.0555083,-0.00973308
0.0642728,-0.0161084
0.0369055,-0.0328392
-0.0250384,-0.0129629
-0.0625865,0.00440723
-0.0741445,-0.017134
-0.0339279,-0.0250598
-0.0035883,0.0072085
0.0142649,0.0232574
0.00381056,0.00701265
-0.00927523,0.00816379
-0.00582195,0.00596756
-0.00518098,0.00193205
-0.00607935,1.03e-05
0.0010389,-0.00189928
-0.00265858,-0.00298072
-0.00152557,0.0115264
0.00288288,0.0155959
7.58e-05,-0.000412609
-0.00522813,-0.00515517
0.00436568,-0.0164645
0.0143751,-0.0281087
0.012964,-0.0221756
0.0075391,0.00261555
0.00740897,0.0208277
0.0111266,0.0119582
0.0106759,0.000945506
0.011861,0.0126429
0.010898,0.016317
-0.00167332,-0.00177163
-0.0240032,-0.00236773
-0.0337978,-0.0387534
-0.0227082,0.0229966
-0.0111569,0.102135
0.00127482,-0.0381502
0.00437379,-0.0469712
0.00644605,-0.0534696
0.00908349,-0.0317177
0.00263485,-0.000759602
-0.000837728,0.012415
0.00634095,0.0224942
0.0095043,0.0312178
0.00195476,0.0258199
0.000763529,0.0211504
0.000499773,0.0114112
-0.00876171,0.00569389
-0.0134961,0.0164389
-0.0169525,-0.00693984
-0.0149345,0.0018496
-0.0143557,-0.0104175
0.00741873,-0.0504888
0.0434444,-0.0244987
0.0531887,-0.00686796
0.057736,-0.0212945
0.0482441,-0.00547095
-0.00294315,0.000405577
-0.0794752,0.0020304
-0.0619884,0.0338414
-0.0459673,0.0357765
-0.00391322,0.00851841
0.0225122,0.000993383
0.0234796,-0.0051071
0.00925961,-0.00962693
-0.00431892,-0.0141043
-0.00942071,-0.0117986
-0.00519309,-0.00509463
0.00328268,0.00194291
0.00257651,0.00824012
-0.00958195,0.0108259
-0.0172743,-0.00146163
-0.0044709,-0.015204
0.00794147,-0.0233584
0.00918729,0.0165213
0.00987622,0.0491688
0.0161553,0.015406
0.0266915,0.0078052
0.0389644,0.0156873
0.0344132,0.00663783
0.00580547,-0.00978147
-0.0122177,-0.0120836
-0.0186084,-0.0173008
-0.0354423,-0.0209351
-0.0378685,0.00735073
-0.0198511,0.0138245
-0.00805129,-0.0229701
-0.0108292,-0.0441161
-0.00640196,-0.0142567
-0.00236525,0.00861933
0.00610289,0.00743154
0.0198705,0.0233683
0.0253086,0.039266
0.0268916,0.0123637
0.0269916,0.0170534
0.0123344,0.008182
-0.00807604,-0.0272754
-0.0609301,-0.0301906
-0.114757,-0.00852821
-0.122136,0.0339744
-0.0554219,0.0403433
-0.010879,-0.0514406
0.0226577,-0.0739265
0.109221,-0.0226985
0.160602,-0.0326736
0.089006,-0.0349367
-0.00724823,0.0178246
-0.011855,0.103125
0.0313582,0.0616336
0.0341912,-0.0618406
0.0162142,-0.0389785
0.00514004,0.00309346
-0.00124241,0.00625506
-0.00183513,-0.0162244
-0.00477859,-0.0124978
-0.0170358,0.0166355
-0.0160148,0.000465353
-0.01331,-0.00935785
-0.0151404,0.0121822
-0.00929691,0.00205489
0.00778453,0.00304738
-0.00810749,0.0167439
-0.0237417,0.0213194
-0.0242673,0.0225798
-0.0433288,0.0401028
-0.0438109,0.0577496
-0.0200922,0.0439704
0.00493529,-0.00118301
0.0327737,-0.0360325
0.0457108,-0.044671
0.0307294,-0.0482513
0.0111564,-0.0481164
-0.00344395,-0.0320407
-0.0129099,-0.014682
-0.0133402,-0.00410945
-0.015758,0.000832597
-0.0175346,-0.0151737
-0.0197629,-0.0201172
-0.0113186,-0.013695
-0.00160106,-0.00846206
0.00180834,-0.00458515
0.00423715,0.0204859
0.0101358,0.0368005
0.00353326,0.0394585
0.00807706,0.0237566
0.012849,0.00187097
0.00500054,0.0241011
-0.000961087,0.035366
0.00950333,-0.00364985
0.0160074,-0.0345902
0.0161586,-0.00768302
0.0129014,-0.0136138
-0.00189489,-0.0236474
-0.0292291,-0.0171306
-0.0394987,-0.00996554
-0.0243031,0.00553533
-0.00464369,0.0285357
0.00592493,-0.0017995
0.0103671,-0.00338534
0.0114382,0.0109181
0.0087686,0.0254349
0.00203341,0.0367632
0.00182859,0.0244657
0.00416043,-0.0162841
-0.0050735,-0.0197359
-0.0073233,0.00527732
-0.00463215,0.0046588
0.00131308,-0.0177626
0.0124175,0.0133493
0.0229446,0.00274767
0.0186573,-0.00611697
0.00560267,-0.00126311
0.00735208,-0.00188107
-0.00681649,0.0107841
-0.0349821,0.0144456
-0.0542296,0.0241391
-0.0352761,0.00986357
-0.00503552,-0.021614
0.00712399,-0.0112367
-0.0126862,0.0193868
-0.0507774,0.0160609
-0.0769004,-0.0319866
-0.0256483,-0.0354958
0.00969125,-0.0382857
0.0112133,-0.0242032
0.0717126,0.0236062
0.0975625,-0.00358764
0.0576062,-0.0133285
0.0137256,0.0119791
-0.0149656,0.023759
0.00539671,-0.0126651
0.046031,-0.0099377
0.0223684,0.0567132
-0.00290501,0.0463532
0.0290688,0.0075105
0.0692846,0.0132153
0.0884566,-0.000199039
0.0637395,-0.0138358
-0.0443012,-0.0255168
-0.142309,-0.0217209
-0.108869,-0.0330063
-0.0327561,-0.0132198
-0.0207702,0.00304847
-0.0085407,-0.00594409
0.00692744,-0.00991756
0.0127008,-0.0210973
0.0160685,-0.0447625
0.0177561,-0.0403035
0.0137221,0.00881586
0.0267758,0.0482461
0.0265844,0.00853526
0.00831182,-0.000976596
-0.0190613,0.0101496
-0.0370987,0.0290581
-0.0225722,-0.00192947
-0.00733193,-0.0145342
0.00829113,0.0214938
0.0212878,0.0336066
0.00214032,0.0283582
-0.0256706,-0.00675332
-0.0266126,-0.0166936
-0.0154229,0.00637961
-0.00644797,0.00158245
-0.00520398,-0.0145541
-0.00411169,-0.0129561
0.00504552,0.00511834
0.0144522,0.0103847
0.0168307,-0.00134874
0.0130951,-0.0126308
0.00701786,-0.00989498
0.00353873,-0.00710469
0.00520759,-0.00786946
0.0116787,0.00296293
0.012787,0.00380125
0.00523398,0.0144834
0.00119087,0.0191712
-0.00337436,-0.000662309
-0.0127696,0.00852788
-0.0119504,0.0225593
-0.00669065,-0.0278781
-0.013485,-0.0439988
-0.020744,0.0311468
-0.0112251,0.0135363
0.00406736,-0.000645342
0.00806027,-0.00397053
0.000854165,-0.0066825
0.00109328,-0.0378283
0.00824989,-0.0463422
0.00742776,0.0238194
0.00840097,0.0216159
0.00731981,0.00967988
0.00646132,0.0106505
0.0067492,0.00444775
0.00516799,-0.00227075
0.00168237,0.00231739
0.00371209,0.000452241
-0.00633363,-0.00177423
-0.0195278,-0.00651511
-0.0255987,0.0287274
-0.00850461,0.0347355
0.0107049,-0.0139456
0.00445218,-0.0429814
-0.00316576,-0.0253849
-0.00188025,-0.0113089
0.00586356,-0.00769368
0.0168595,-0.00578341
0.0238514,-0.0129069
0.0234238,-0.00137238
0.0130143,0.017728
-0.015663,0.0165352
-0.0439306,0.00930593
-0.0463797,0.0140198
-0.0311091,0.0224582
-0.00739428,0.00192741
0.0177432,-0.00487963
0.0254243,-0.0277945
0.0208117,0.00250932
0.00905123,0.0199293
0.00179719,0.00127102
-0.00411779,-0.0187929
-0.00274436,-0.0198616
0.00284957,-0.00888567
0.00786334,0.010571
0.00961745,0.00976877
-0.00173213,0.0248277
-0.0112867,0.031681
-0.00907376,0.00909285
0.000329245,-0.0104124
0.0039372,-0.000502191
-0.00313517,-0.00370929
-0.00723823,-0.0224044
-0.0135002,-0.0174754
-0.00784673,0.00143578
0.00126989,0.00365148
0.00372851,0.00124483
-0.00138899,0.0050924
-0.00475176,0.00266772
0.00592594,0.000950703
0.0162687,-0.000253874
-0.00193294,0.00557094
-0.0148832,0.0163589
0.0240344,0.0185056
0.0805288,0.00565088
0.0855561,-0.00970255
0.0559261,-0.00105143
0.00954234,-0.0486636
-0.0473152,-0.0464563
-0.0730011,-0.00247884
-0.0390038,0.0164049
0.0165555,0.0132719
0.027969,0.00903445
0.0238076,0.0170709
-0.0173581,0.0217985
-0.0602436,0.00690614
-0.0844788,-0.0117953
-0.0874966,-0.0134104
-0.0523285,-0.00893653
-0.00341823,0.00290061
0.0354451,0.0379183
0.0568124,0.00765716
0.0491324,-0.0173231
0.0234062,-0.0222182
-0.00560704,-0.0120622
-0.0319331,-0.0114138
-0.0547372,-0.0352039
-0.0420682,0.0124284
-0.00177733,0.0124246
0.0151109,-0.0117155
0.0283369,0.00787884
0.0353987,0.0099609
0.0313256,0.00247309
0.0191478,0.00149698
0.00589994,-0.00659348
-0.00538913,0.00570899
-0.0137245,0.0309646
-0.00486981,0.0235677
-0.00126609,0.00725942
-0.00909933,-0.00644117
0.00463666,0.0106329
0.025175,-0.0180368
0.029998,-0.0545859
0.0131253,-0.0235605
0.00572023,0.0146549
0.00888122,0.0149485
-0.00174761,-0.0014177
-0.0190449,0.0116554
-0.0302245,0.0030043
-0.0371913,-0.00349757
-0.033422,0.0486959
0.00225659,0.0409539
0.0487559,-0.0194117
0.0429381,-0.0136571
0.0156967,-0.00654616
0.0190421,-0.0209067
0.0160606,-0.0306267
0.00887611,-0.0103765
0.00751349,-0.0130182
0.00397088,-0.0236605
0.00170201,-0.00798619
0.00528259,0.0111146
0.0038787,0.0104292
-0.00235356,0.0127494
0.00244966,0.0150101
0.000656486,0.00599895
-0.00178976,0.000296695
-0.00589823,0.00327088
-0.0144209,0.00224325
-0.0175039,0.0139499
-0.0158077,0.0267987
-0.017809,0.0196725
-0.0240017,0.00177916
-0.0277164,-0.0026025
-0.0208441,-0.00900232
-0.0115707,-0.0209856
-0.00317664,-0.0211109
0.0109647,0.00420948
0.0196827,0.0182648
0.0205184,0.0117462
0.0204817,0.00329086
0.017785,0.00916832
0.013747,-0.00176787
0.011236,-0.0269892
0.0028329,-0.0131781
-0.0111028,-0.0014342
-0.0215054,0.0110991
-0.0250009,0.0192344
-0.0237202,-0.000627268
-0.0280762,-0.0112466
-0.0265313,-0.0003546
-0.0120817,-0.0096717
-0.00251368,-0.0262154
0.00377963,-0.0170478
0.010456,0.00879507
0.0166975,0.0194182
0.022161,0.0158558
0.0314774,0.0123322
0.0368159,-0.00462751
0.0293677,-0.0187117
0.00441816,-0.0129847
-0.011269,0.000646037
-0.00611752,0.00409266
-0.00091043,0.0138752
-0.00865808,0.0335512
-0.0104174,0.0208851
-0.0119221,-0.015166
-0.0167281,-0.0400652
-0.0192714,-0.0224439
-0.0180606,-0.0155718
-0.0102927,-0.0419002
0.002862,0.00295584
0.0199167,0.0234268
0.027103,0.0369897
0.0165741,0.032101
-0.000953815,0.0168553
-0.02864,-0.0185478
-0.0373407,-0.0266578
-0.0219611,-0.0177919
0.0106067,0.0112434
0.0450391,0.0406575
0.0555195,0.0195088
0.038951,0.00982597
0.00784426,-0.0113397
-0.00826484,-0.0207772
-0.0291997,-0.0372068
-0.0463356,-0.0505441
-0.0323838,0.014453
-0.00379657,0.0272736
0.0141632,0.0107603
0.0204751,0.00690511
0.0161285,-0.0143216
0.00722585,-0.00999878
0.00515971,-0.00758886
-0.00363446,0.00284439
-0.00813534,0.00409072
-0.0128985,0.0117985
-0.000410014,0.0360013
0.00555275,0.0131285
-0.00721895,-0.0224486
-0.0168651,-0.0171393
-0.0183476,-0.0160144
-0.0107726,-0.0177627
0.00176447,-0.0224554
0.0167518,-0.00173829
0.0253706,0.0177585
0.0179271,0.0108394
0.00345645,0.00621075
0.000173506,0.00896487
-0.000847934,0.00303228
0.00225965,0.000480728
0.00830161,0.00631837
0.00322973,0.00489687
0.000871923,0.0143601
0.00388117,0.0172401
0.000954495,-0.00302281
-0.00353135,-0.0205368
-0.00573647,-0.0186444
-0.0092423,-0.0145799
-0.0108272,-0.0129739
-0.00594148,-0.00385128
0.00242782,0.0160411
0.00279829,0.0300995
0.0019321,0.0144491
0.0015343,0.00790123
-0.00213794,0.00818668
-0.000865083,-0.00624559
0.00054746,-0.0101782
0.000461776,-0.00221772
-0.00459033,0.000497288
-0.00380535,0.0156638
0.0032239,0.00948666
0.00461779,-0.00942264
0.00380442,-0.0124107
-0.00429027,-0.00439236
-0.00841771,-0.011407
-0.00954664,-0.00692923
-0.00526154,0.0320812
0.00522296,0.026094
0.00765991,0.00159008
0.0121586,-0.00314844
0.0141451,-0.0177302
0.0113534,-0.0265148
0.0110107,-0.0194305
0.00563137,-0.00287993
-0.00550666,0.000530979
-0.0292877,0.00611106
-0.043626,0.0187032
-0.0226215,0.00451616
0.00684024,-0.0115188
0.0227187,0.000542784
0.00660735,0.00329361
-0.0129185,-0.0188551
-0.00447605,-0.0202968
-0.00111817,0.0117603
-0.012155,0.0291594
-0.0201553,0.011829
-0.0176952,0.015425
0.00475284,5.07e-05
0.0103346,-0.0204128
-0.00352207,-0.0215861
-0.00540205,-0.0149148
0.00262297,-0.0062703
0.00679459,0.0143086
0.013127,0.0284889
0.0300146,0.0382438
0.0557997,0.0152244
0.0657136,-0.00567988
0.0595516,-0.0415511
0.0308943,-0.0381592
-0.00310063,-0.0167271
-0.00218934,0.00839246
0.0153704,0.0271192
0.000567056,0.00223205
-0.021654,-0.00986475
-0.0451089,0.00735669
-0.0680863,0.00257909
-0.0700586,0.0103734
-0.0606698,0.0232964
-0.0344043,-0.00349655
0.00288786,0.00347111
0.0087069,0.00880955
-0.0014393,-0.0150518
-0.0116637,-0.0154555
-0.0178417,-0.00225155
-0.00883963,-0.0146763
0.010104,-0.0345074
0.0124492,-0.00847911
0.0144586,0.0130985
0.0128012,0.0282703
0.00245444,0.0130034
0.00311449,0.00388011
0.00838282,-0.00724382
0.0126201,-0.0305716
0.0121522,-0.0222186
0.00952715,0.00450488
0.00556872,0.0132104
0.00924428,0.0200901
0.00796502,0.0128665
-0.0022499,-0.00470232
0.0062143,-0.0153485
0.0113059,-0.0139031
0.00647941,-0.00260213
0.00197209,-0.00413063
0.00337332,0.0151486
0.00684711,0.0532232
0.0120102,0.0163079
0.0119697,-0.00267229
0.0138136,-0.029027
0.0129629,-0.0382037
0.000618646,-0.0104219
-0.00241636,0.0138154
-0.00174503,0.0192015
-0.00296885,0.0247993
-0.00020303,0.0247667
-0.00264219,0.00795081
-0.0148616,0.00149987
-0.017445,0.00152493
-0.00938133,-0.0135531
-0.00518508,-0.0252743
-0.00464491,-0.01814
-0.00208783,-0.00284462
-0.00452539,0.00383092
-0.00584291,-0.00310939
-0.00432354,-0.00314968
-0.00436581,-0.00527455
-0.00656977,-0.00766136
-0.00386649,-0.000279803
0.00576526,0.00637505
0.010286,0.0107118
0.0117995,0.0272674
0.0206645,0.0303538
0.0137252,0.00818908
0.000320766,-0.00567859
-0.00793859,-0.00895403
-0.0232796,-0.0187719
-0.0325947,-0.0302694
-0.0159936,-0.0186432
0.00782583,-0.00340071
0.0105079,-0.00914894
0.0052895,-0.00575754
-0.0014085,-0.000249505
-0.0109095,-0.00480214
-0.0130357,-0.00532685
-0.0140362,0.000282752
-0.00934101,-0.00394417
0.00476639,0.00940282
0.0154199,0.0345718
0.0196407,0.0159372
0.0232852,-0.00995914
0.0195852,0.00259567
0.0272007,0.0098064
0.0248699,-0.00591311
-0.0054381,-0.0390657
-0.0396312,-0.0332165
-0.0313474,-0.000966223
-0.00685844,-0.00636869
-0.00108288,-0.000625888
-0.011982,0.00580718
-0.0219473,0.00491696
0.00198512,0.00600879
0.0384885,0.00163529
0.048861,-0.00222331
0.0404658,0.0249675
-0.000733685,0.0629252
-0.0408648,0.0240068
-0.0556579,-0.0187129
-0.0547084,-0.0280307
-0.0457467,-0.0214518
-0.0289477,-0.0217476
-0.00929694,-0.0208683
0.00586402,-1.91e-05
0.0122049,0.0223214
0.0389712,0.0165461
0.0765481,0.0111073
0.0984201,0.00837064
0.0902063,-0.00237876
0.0551431,-0.00585035
0.00652429,0.00469228
-0.0248813,0.01171
-0.0472218,0.0201495
-0.0706227,0.0174014
-0.0712226,0.0210754
-0.0568733,0.00633353
-0.0376637,-0.0225884
-0.0103512,-0.0353406
-0.00233179,-0.0227199
0.00228322,0.00896254
0.00842898,0.0558106
0.0160139,0.0265897
0.0133284,-0.027667
0.00271962,-0.0249929
-0.00320069,-0.0202665
-0.0106979,-0.0186212
-0.0161006,-0.00331714
-0.0136633,0.00684844
-0.00993783,0.00975568
-0.00361853,0.018999
0.00876876,0.00922685
0.0169944,-0.0106996
0.0193108,-0.00459373
0.0267431,-0.00108946
0.0393239,-0.0146036
0.0377049,-0.0272043
0.0390086,0.00431583
0.0309341,0.0265158
0.00728926,0.00855972
-0.0263015,0.000125568
-0.0517074,0.00468398
-0.0609708,-0.0010457
-0.0471892,-0.0138423
0.0298855,-0.00643087
0.114895,0.00838569
0.132703,0.0238576
0.088301,0.0433528
0.0173481,0.0195304
-0.0557958,-0.0314731
-0.109048,-0.0302407
-0.0846304,-0.0251644
-0.0334629,-0.0179745
-0.055335,-0.00883853
-0.0203387,-0.00256177
0.0104866,0.00665505
-0.0493367,0.00302572
-0.0403268,0.0049865
-0.0203634,-0.0123886
-0.00826095,-0.0236895
0.00561299,-0.0216737
0.00634662,-0.0186352
-0.00486988,0.000398913
-0.0216996,0.0151723
-0.0188929,0.00230402
-0.00490207,-0.0100072
0.000977015,0.000959362
0.014291,0.0105454
0.0483865,0.033256
0.0814967,0.00901456
0.0994902,0.0157959
0.0819659,0.0263024
0.0332185,0.0238565
0.0154,0.0306339
0.00441715,0.0134041
-0.0203982,-0.0190082
-0.0501651,-0.0483538
-0.0709889,-0.0363034
-0.0739551,0.00160949
-0.0515914,0.00356437
0.00127409,-0.0119926
0.0443171,-0.0210288
0.0548779,-0.003724
0.0601766,0.00495651
0.0430545,0.0100327
-0.0155575,0.0056897
-0.0599561,0.0128248
-0.0502821,0.0269468
-0.0244947,0.0196048
-0.0496193,0.000939734
-0.0486455,-0.0107923
-0.00757202,-0.00815759
0.000858984,-0.0137714
-0.00679744,-0.0132973
-0.0096714,-0.0153915
-0.0103033,-0.0147708
0.00110925,-0.00219863
0.0114205,0.00360073
0.0149915,-0.00513797
0.0336836,-0.00241154
0.102887,-0.00170009
0.135434,-0.00420453
0.0994799,0.0122171
0.02478,0.0489946
-0.0632072,0.050996
-0.089246,0.0205887
-0.0563185,-0.0161427
-0.0272314,-0.0226657
-0.0151315,-0.0235047
-0.0131992,-0.0289572
-0.0234542,-0.00982346
-0.0281886,-0.00165271
-0.00898579,0.0085396
-0.00609104,0.0130938
0.00384556,-0.00442401
0.0224838,-0.00729576
0.0133596,0.0125019
-0.00184007,0.0071316
-0.0145628,-0.0206749
0.00649088,-0.00498987
0.0261644,0.0183371
0.0230211,0.0170552
0.00770047,0.00418223
0.00783917,0.00418041
0.0290221,0.0011825
0.0182063,-0.0373021
-0.0400251,-0.0316126
-0.030647,-0.0194371
-0.00757662,-0.0114633
-0.0279563,0.0157692
-0.015758,0.0372247
-0.00322068,0.0153854
0.00445099,0.00145385
0.00382981,-0.00248463
-0.00213818,0.000266106
0.00584491,-0.0152438
0.0223504,-0.00622013
0.0393482,0.0398897
0.0385478,0.0345621
0.0184957,0.0204559
-0.0116078,-0.000292219
-0.0520149,-0.0168237
-0.0634607,-0.00578556
-0.0578775,-0.00556425
-0.0114992,-0.0104367
0.0261525,-0.000729962
0.0190426,0.00841491
0.0118592,0.00227692
0.0111988,-0.0168549
0.000729388,0.00606603
-0.00376806,0.0127522
-0.00548061,-0.01272
-0.00990214,0.00608581
-0.00137623,0.0278269
0.0235524,0.00704091
0.0208222,-0.00515178
-0.00205404,-0.0103772
-0.00932643,-0.0149952
0.00221252,-0.0180144
0.0204306,-0.0240178
0.0226413,-0.0125738
0.0141799,0.000893468
0.0112384,0.00383496
0.0334069,-0.00369672
0.0417667,-0.0184109
0.018809,-0.0216084
-0.0125819,-0.0145118
-0.0537558,0.000297547
-0.0753571,0.000284052
-0.0688216,0.0277807
-0.0324451,0.037298
0.00282012,0.0290078
0.0208979,-0.0111607
0.0262663,-0.0125959
0.0322352,-0.00748418
0.0449362,-0.0273216
0.0425167,-0.0309087
0.0242666,-0.0218785
0.00314166,-4.26e-05
-0.0227282,0.0202448
-0.0437294,0.0206888
-0.0489623,0.0116343
-0.0336333,0.0253178
-0.0301055,0.0211722
-0.0290536,-0.0323696
-0.0141662,-0.0205971
0.0134918,0.0290981
0.0602107,0.0466137
0.0795853,-0.00769749
0.0853371,-0.0322585
0.0704375,-0.00324158
0.038797,0.00279577
0.00658894,-0.0240804
-0.0230181,-0.0210776
-0.0314064,0.0100715
-0.0467928,0.0321072
-0.070182,0.0272724
-0.0543809,-0.0010864
-0.0401247,-0.016832
-0.0205066,-0.00429648
-0.0053769,-0.000138638
-0.005532,-0.00264621
-0.00127743,-0.00191291
0.00283383,0.00114347
0.00124672,0.003882
-0.00346645,0.0212645
-0.0167096,0.0231423
-0.0118352,-0.00374267
0.000576768,0.00721747
0.00348979,0.0292756
0.0044137,-0.000365752
0.0118207,-0.0393591
0.0160238,-0.0294564
0.0161513,0.0303659
0.0173798,0.00999986
0.0173049,-0.0051242
0.0138507,-0.00147251
0.00580592,-0.00550817
0.00224573,-0.0184174
0.00428615,-0.0235365
0.0132147,0.00428602
0.0144561,0.0115353
0.00200115,-0.000603868
-0.0127606,-0.00396367
-0.00326686,-0.0271919
-0.00208807,-0.0436677
-0.0100326,-0.0120649
-0.00631784,0.0449548
0.0170098,0.01662
0.0168632,0.00604675
-0.0163203,0.0116199
-0.0353177,0.0019404
-0.0248863,0.0114747
0.0150932,0.00395586
0.0439221,-0.00338282
0.0421144,-0.0099398
-0.000768059,-0.00108432
-0.0276547,0.0403991
-0.0249911,0.0137631
-0.0380452,-0.013902
-0.0398258,-0.00129526
-0.0261112,-0.00701827
0.00242142,-0.00627783
0.0231221,-0.00501174
0.0323211,-0.049358
0.0283448,-0.0481798
0.0302762,0.0226698
0.0206215,0.0355682
0.0114281,0.0224544
0.00108398,-0.0101017
-0.0132938,-0.0166708
-0.0142975,-0.0108466
-0.00302365,-0.0208597
-0.00424534,0.0201975
0.00613534,0.00138896
0.0107256,-0.00587569
-0.00577975,0.00358697
-0.0197629,0.00877932
-0.0153364,-0.00398022
-0.0102307,-0.00790263
-0.0135888,-0.0068704
0.0216631,-0.0234972
0.0318449,0.00368594
0.0158091,0.0417564
0.0108971,0.0477429
0.00573547,-0.00314989
-0.00770573,-0.00481972
-0.0303277,0.00588842
-0.0467587,-0.0152207
-0.0378446,-0.0208488
-0.0269214,-0.00525079
-0.0271328,0.0163266
-0.0159451,0.0466669
0.0306188,0.0101771
0.0590645,-0.0217381
0.033945,-0.0341893
0.0107356,-0.015607
0.0017818,0.0153379
0.00603334,0.016613
0.0123804,-0.00352098
-0.00290469,0.00189874
-0.0213065,0.00345565
-0.0192166,-0.0132135
-0.0224012,-0.0206994
-0.0339536,-0.0365642
0.0012574,-0.0139826
0.0381266,0.0295769
0.0315737,0.0281957
0.0206479,0.037784
0.020631,0.040139
0.0342141,-0.0118968
0.0264081,-0.0259698
0.000243017,-0.0360435
-0.000733087,-0.0312141
-0.0162126,-0.00990431
-0.0310696,0.00695498
-0.0412567,0.0222511
-0.0200232,0.0187018
0.0316155,-0.00265391
0.0297442,-0.0103804
0.00895463,-0.00412903
-0.0205418,0.00889146
-0.0646633,0.0107387
-0.0590553,-0.00687639
-0.0152012,-0.00933427
0.0162301,0.0120124
0.0338791,0.0125128
0.0517281,0.00932423
0.0339218,0.00113379
0.0141651,-0.00796463
-0.00132198,0.00266407
-0.0135245,0.0155335
-0.0403576,0.0189129
-0.103961,0.0214308
-0.0848276,0.0152119
0.0393597,-0.0189005
0.0742213,-0.0383533
0.0169758,-0.0221373
0.0093323,-0.00845664
0.022341,0.011033
0.0280795,0.00187178
0.0224351,0.00409986
0.00878394,-0.00238577
-0.00234023,-0.00835983
0.00546325,-0.010158
0.00180569,-0.0226458
0.0339851,-0.0213988
0.026899,0.00567038
-0.0086173,0.025031
0.00695972,0.0265957
0.0438219,0.00227189
0.0443643,-0.0044978
-0.0192712,-0.0139444
-0.00490514,-0.0204351
-0.0386035,-0.0186067
-0.140879,-0.0189909
-0.135829,0.00203522
-0.046864,-0.0152331
-0.024252,-0.0140398
-0.0138715,0.0194037
0.0179665,0.0440514
0.0119962,0.0828403
0.010402,0.0426832
0.0467261,-0.0309177
0.0659359,-0.0387487
0.10904,-0.021562
0.0835357,-0.00567813
0.0696451,0.0194696
0.0473061,0.000403234
-0.00907652,0.00510083
-0.0405781,-0.0150278
-0.0621163,-0.032013
-0.10113,-0.00925025
-0.0938193,-0.0101375
0.0346639,-0.0231944
0.0778519,-0.0108789
0.0634607,0.0530049
0.0519591,0.0512246
0.0281225,-0.0134666
-0.0417327,-0.0457298
-0.0663021,-0.0199338
-0.00421357,0.0153959
0.032787,-0.00909609
0.0871576,-0.0547667
0.108798,-0.0327718
0.0499745,0.0546063
-0.0574636,0.0705608
-0.210314,0.0372934
-0.129064,-0.0370853
0.0178175,0.0531358
0.088291,0.078894
0.0332604,0.00930485
-0.122005,-0.0400896
-0.226495,-0.0616021
-0.0781323,-0.0216655
0.0870025,0.00373918
-0.0750135,0.0126461
-0.0828952,0.0672048
-0.0304298,0.000388337
-0.0108647,-0.0925903
0.0241801,0.0883884
0.0529042,0.0710868
0.0684412,-0.108122
0.0134556,-0.0574176
-0.0819187,0.066676
-0.0286685,-0.0313539
0.142158,-0.0872911
0.247819,-0.0665399
0.272714,0.016806
0.130096,0.0573801
0.030484,0.00634461
-0.0215734,-0.0311172
0.0250977,-0.0287687
-0.0092321,-0.043775
-0.106079,-0.0186757
-0.1558,0.0168309
-0.0942607,0.036685
-0.0286117,-0.00342338
-0.0107823,-0.0340751
-0.0724817,0.0392966
-0.00950458,0.093214
0.00490027,0.101138
0.0582443,0.0126598
0.130401,-0.0678946
0.201977,0.0026859
0.1552,0.141642
0.113977,0.0133572
0.0647682,-0.118527
-0.0638012,-0.100673
-0.173353,-0.0361382
-0.254813,0.0563154
-0.152854,0.0199718
-0.0255606,-0.0514166
-0.00990892,0.0286315
-0.123408,0.0879871
-0.0940971,0.00472698
0.114383,-0.0992047
0.172237,-0.0619711
0.107637,-0.00856406
-0.0411085,0.0498312
-0.201564,0.012263
-0.0969712,0.0123822
0.169171,0.0134353
0.219983,0.0151468
-0.181144,-0.0213113
-0.430408,0.0517292
-0.393038,0.0430424
-0.176543,-0.0721311
0.123436,0.00903503
0.265331,0.00236729
0.241819,0.00776866
0.110693,0.00870081
0.129337,0.0332375
0.29862,0.0799397
0.333607,-0.0725885
0.150668,-0.0813968
-0.166827,-0.00119505
-0.416524,0.0595672
-0.411123,0.00567587
-0.0976707,0.00347929
0.174074,0.0218995
0.0966356,-0.0455728
0.107397,-0.00396794
0.1246,-0.0650512
-0.0364756,-0.113758
-0.0428025,0.00703985
0.0634224,0.085693
0.127633,0.00554967
0.132823,-0.0680835
0.0682163,-0.00681144
-0.0284982,0.0709628
-0.063215,0.00747579
-0.0426911,-0.0317897
-0.0177024,-0.048147
-0.014623,0.0185187
-0.0742853,0.100688
-0.133548,-0.00890209
-0.141093,-0.00925687
-0.102685,0.0165353
0.0153095,-0.0286084
0.0723015,0.00396371
0.0339472,-0.0170261
-0.0300612,-0.0552568
0.116377,-0.0808432
0.199283,0.0197758
0.149891,0.0317635
-0.000204978,0.0145017
-0.0679957,-0.0014542
-0.0647913,-0.0147823
-0.0752109,-0.0110748
-0.11072,0.0393075
-0.0844834,0.0275749
0.00298698,-0.0301578
-0.0361235,0.0756564
-0.0014145,0.103471
0.0602183,0.0655034
0.0872121,0.0153872
0.108622,-0.0280817
0.0548687,-0.00666972
-0.139514,0.0304243
-0.181528,0.0337209
-0.0653428,0.00737348
-0.0285289,0.0320319
-0.0280649,-0.0245217
-0.0197121,-0.0661177
-0.0512067,-0.0498761
-0.0746837,-0.046792
-0.0260791,-0.0254988
0.164092,-0.0169367
0.23423,-0.00589031
0.229269,-0.0272043
0.195207,-0.0228859
0.0601211,0.0275157
-0.0653455,0.0162646
-0.0665969,-0.0263632
-0.072995,-0.0087744
-0.29633,-0.0144298
-0.404794,-0.00429543
-0.230238,-0.017804
0.014212,0.0180071
0.159918,0.0803266
0.232071,0.076066
0.204616,0.068492
0.113168,-0.0195795
-0.00167489,-0.0276541
-0.0466275,-0.0260088
-0.0458899,-0.0707693
0.0585118,-0.00374406
0.293877,0.0344564
0.392419,0.0733408
0.146154,0.0583152
-0.218746,-0.0407144
-0.386148,-0.0473133
-0.327267,0.0258601
-0.211605,0.029646
-0.100566,0.0498134
-0.0357665,-0.0225814
-0.0268709,-0.0473237
0.00579978,-0.0223807
0.0655977,-0.0860441
0.0368753,-0.0591424
-0.000990541,-0.0464656
0.00994662,-0.0337287
0.0509964,0.00504168
0.180813,0.0144336
0.218126,-0.0434541
0.0778537,-0.0865913
-0.0564729,-0.0688704
-0.102084,-0.0223214
-0.0535523,0.0215589
0.0274369,0.0445833
0.0548817,0.0362583
0.0173799,0.024599
-0.0187819,0.0289999
0.0153765,0.0436768
0.00273879,0.03889
-0.0816098,0.0217529
-0.138005,0.023866
-0.165752,0.00834599
-0.0985555,-0.0029704
0.0161716,0.00307906
0.0778557,0.000122716
0.1255,-0.0101864
0.101971,0.00183047
0.0739165,0.0243534
0.0974806,0.0354285
0.0703256,0.0407801
0.041202,0.0500127
0.0260784,0.0514136
0.0147768,0.0298497
-0.0791557,-0.0029283
-0.0995405,-0.04403
-0.0198224,-0.0544843
0.0288763,-0.0468637
0.0225968,-0.0438651
0.0276832,-0.016153
-0.0269541,0.0317513
-0.132995,-0.00559264
-0.103938,-0.0377161
-0.00768424,-0.0282102
0.0279261,0.00725785
0.0129857,0.0335407
0.0594389,0.0350494
0.114159,0.0280537
0.108002,-0.00783089
0.0331455,0.0131674
-0.0167232,0.0225417
-0.0277346,0.0444768
-0.0269774,0.0380283
-0.0419132,-0.002236
-0.0403684,0.00401019
-0.0061186,-0.0546351
0.0448041,-0.0595754
0.0519467,-0.0404912
0.00476239,-0.0277541
0.0382547,0.0138838
0.235424,0.0113288
0.348358,-0.0089373
0.184536,-0.00856983
-0.160927,-0.00950523
-0.359253,-0.0225377
-0.299407,-0.0296365
-0.186637,0.00158629
-0.103215,0.0469801
-0.074617,0.0450118
-0.0159668,0.00743604
0.035043,-0.0415843
0.0419117,-0.0482373
0.0105203,-0.000829133
-0.0289904,-0.0353588
-0.0500634,-0.010066
-0.0500872,0.00707408
-0.0360842,-0.00126284
-0.0388289,0.00488278
-0.0348788,0.0152946
0.0467142,0.0163548
0.106868,0.00237471
0.104281,0.0204121
0.0759061,0.0322396
0.057555,0.0197219
0.048456,0.0124635
0.0291381,0.0107244
-0.00854926,0.000959926
-0.0427197,-0.0173024
-0.0618068,-0.0055839
-0.0544541,0.0255571
-0.032065,0.017661
-0.0395186,0.00705749
-0.048367,-0.00330728
0.0204736,-0.0194495
0.0460335,-0.0338472
0.0364978,-0.00329284
0.0489955,0.00963438
0.0519521,0.0194566
0.0478584,-0.00612994
0.0351987,-0.00419364
0.0162025,0.0011965
0.00389627,-0.0166225
-0.00539136,-0.0341451
-0.0148723,-0.0442488
-0.0319148,0.0221647
-0.036499,0.0609793
-0.0224251,-0.0258249
-0.00958238,-0.0688404
0.00708343,-0.0427858
0.0232018,-0.0317562
0.0270975,0.0205693
0.0189003,0.0181529
0.0056355,-0.00809125
0.0181138,0.0229106
0.0224375,0.0423327
0.0562208,0.0425109
0.0876632,0.0468512
0.145284,0.03375
0.18962,0.0283972
0.0436446,-0.00455561
-0.159811,-0.0516979
-0.294778,-0.0457365
-0.281209,0.0172398
-0.1608,0.0942699
-0.0100061,0.00523195
0.0444813,-0.0624308
-0.00675755,-0.0225598
-0.0620677,0.0169342
-0.0748431,0.0264414
-0.0123924,0.0357567
0.0465037,0.0199343
0.0506751,-0.0277855
0.0452574,-0.0308165
0.0542433,-0.0115426
0.0946228,-0.00960169
0.107367,-0.0120304
0.111435,0.0303143
0.0699778,0.0343444
0.0250732,-0.0153021
-0.0353508,-0.0757046
-0.0312698,-0.062847
-0.0851619,-0.0261249
-0.0973038,-0.0136727
-0.0501193,0.0161589
-0.00524748,0.0138555
9.71e-05,0.0161044
-0.000990602,0.00886576
0.0365409,0.0178746
0.0419215,0.0184195
-0.0054822,-0.00237514
-0.023032,-0.000915775
0.0194482,0.00525062
0.0290624,0.00923627
0.0233663,0.0077431
0.00377228,0.0326282
0.0100533,0.0189258
0.00074615,0.00901473
-0.00561102,0.0113317
-0.00218574,0.0112297
0.0110408,0.00182103
0.0100453,-0.0088344
-0.00728018,-0.00825443
-0.0113651,0.00732296
0.051307,0.017887
0.132466,0.0170103
0.141846,0.0110385
0.0352242,-0.00880649
-0.0997363,-0.00492207
-0.184894,0.00124031
-0.158788,-0.00257853
-0.0822227,0.00893665
-0.0433038,0.0087915
-0.0209298,-0.00368639
-0.0195832,-0.0420126
-0.0241084,-0.0289979
-0.00772011,-0.00581152
-0.0082559,0.00337073
0.00442928,-0.0187283
0.030879,-0.0134124
0.0552446,-0.00300983
0.04603,-0.0180641
0.0273101,-0.0191362
-0.0171453,0.0154561
0.0156548,-0.0336968
0.088165,-0.0171255
0.0817359,0.000537715
0.0646325,0.0165888
0.0049488,0.0301807
-0.025743,-0.00518882
0.0346085,-0.00317265
0.0256521,-0.0458953
-0.0415589,-0.0597347
-0.0617331,0.0491062
-0.0609141,0.0364399
0.0102657,-0.0327524
0.0706742,-0.0487449
0.0222686,-0.0194281
-0.0547197,0.0781367
-0.0122681,0.035068
0.0347054,-0.0157982
-0.0238092,0.0467457
-0.133033,0.0387315
-0.0286399,-0.0132532
0.0920811,-0.0409612
0.145031,-0.0213605
0.112724,-0.0168778
-0.0534105,-0.0230146
-0.114717,0.00732914
-0.0750881,0.0155951
0.0110098,-0.0175538
0.0560782,-0.0329001
0.0208998,-0.0239732
-0.030852,0.00676384
-0.0689252,0.0360796
-0.0589563,0.0167165
-0.0532253,-0.0108017
-0.0239796,-0.0256899
0.0016589,-0.00312697
0.00992217,0.0095308
0.00834796,0.00108927
0.00134301,0.0225434
-0.00125053,0.0317102
0.0153218,0.0317486
0.00773669,-0.0107209
0.0302656,0.00393422
0.0253249,0.0111976
0.00770119,-0.00661987
-0.0150956,-0.00681057
-0.00519946,0.00647663
0.0022856,0.0133191
0.00661888,0.0164653
0.0269278,0.0164716
0.0132255,0.00101378
-0.0146931,0.015895
0.0037086,0.0220852
0.0269692,0.00787765
0.0155829,0.0129675
-0.00853055,0.00711925
-0.0225326,-0.00446362
-0.0177725,-0.00226362
0.0121158,0.0052329
0.0483407,0.0102109
0.091984,-0.00340442
0.161912,-0.0153257
0.105103,-0.00862493
-0.083368,-0.00169636
-0.138508,-0.0261432
-0.0806668,-0.0234478
-0.0453888,0.0273071
-0.0577466,-0.00629475
-0.0589892,-0.025504
-0.0428664,-0.0201065
-0.0877311,-0.00226622
-0.0770472,0.0374844
0.0082008,-0.0277846
0.0403462,-0.000120161
0.0335931,-0.0111559
0.00921924,-0.0330478
0.015333,-0.0292374
0.0262025,-0.00839702
0.0352011,-0.0157087
0.0639027,-0.0157517
0.0700124,0.00307147
0.0390684,0.0314759
0.0154029,0.0451894
0.00432888,0.0122544
0.066099,-0.0119515
0.116429,0.00355836
-0.000986833,-0.0143432
-0.137109,0.0264549
-0.112987,-0.0118459
-0.0672088,-0.0212446
0.00122549,-0.0360934
0.0889149,-0.00344458
0.128278,0.0319584
0.0766125,0.0185064
-0.0726289,0.0083953
-0.149488,0.000334556
-0.118541,-0.0375998
-0.0324017,-0.0207193
0.0247226,0.0116758
0.0298623,0.00836492
0.011719,-0.00100178
0.0133268,0.016827
0.0156161,0.0373229
0.0176023,0.0121905
0.0312065,-0.0212319
0.0292813,-0.00587981
-0.0038535,0.0117406
-0.0106193,0.037128
-0.0243294,0.0255331
-0.0186771,-0.0363313
0.01143,-0.0522801
-0.00430033,-0.0165694
-0.0272665,0.0447006
-0.0346701,0.0416404
-0.00987075,-0.0148108
0.0186556,0.0188211
0.0781929,0.00226392
0.116642,-0.0258066
0.00480055,-0.0247828
-0.0640913,0.0136497
-0.0605724,0.0264164
-0.0255987,-0.0187355
0.00319282,0.00398464
0.0518179,0.0387099
0.0160227,-0.00607278
-0.0424865,-0.0282667
-0.0402397,0.00162354
-0.0138868,-0.00747421
-0.0295302,-0.00606977
-0.0328967,0.0153454
0.000330784,0.0436939
0.0111299,0.0208994
-0.00331681,-0.0135849
-0.0200861,-0.00801426
-0.00739061,-0.0274094
0.0354182,-0.0128607
0.0167104,0.00607068
0.0228212,0.0126428
0.0507648,-0.00663241
0.0601459,-0.0108783
0.0111882,0.0129423
-0.0286545,-0.0180027
-0.0545853,-0.0402371
-0.0424423,-0.0404876
-0.054509,-0.0392478
-0.0545168,-0.01135
0.0130918,0.0324963
0.0850343,0.016105
0.116824,-0.00716839
0.14524,0.00089078
0.0913859,0.00506697
-0.0671015,0.00885568
-0.195016,-0.00820971
-0.095223,0.0208564
0.013937,0.0231191
0.066859,0.0384635
0.0880079,0.0434919
0.0369459,0.016526
0.0119361,-0.019241
-0.0073593,-0.0304433
-0.076983,-0.0111972
-0.0527887,-0.00979526
-0.0114763,0.00130339
-0.0288125,-0.00595998
-0.049389,-0.0124011
-0.0342796,0.011107
-0.0273711,0.0061065
-0.0445303,-0.016056
-0.040502,-0.0168743
-0.0108238,-0.00557713
0.0317839,0.00604325
0.03867,-0.00557646
0.0393305,-0.00226276
0.0372995,0.00978271
0.0412801,0.00500927
0.0398517,0.00628877
0.0276352,0.0307226
0.0125415,-0.0209693
-0.00776528,-0.0217608
-0.0128076,-0.0049994
-0.0114624,0.0004573
0.00861069,0.0051018
0.0659861,0.00117514
0.018065,0.0150591
-0.0161775,0.000109864
-0.00694974,-0.00754332
-0.003153,0.0127147
-0.0229241,-0.0357364
-0.056537,-0.0333927
-0.0415341,-0.00503776
-0.0142125,0.0224209
0.00390841,0.0389774
-6.71e-05,0.0429277
-0.0141991,0.0333653
-0.0191361,-0.0171766
-0.00519,-0.0179672
0.0129038,0.00780104
0.0244898,0.000985154
0.0551738,-0.0269191
0.0708,-0.0157613
0.0186483,0.0357904
-0.0545905,0.0253231
-0.0610276,-0.0698456
-0.00702113,-0.0140117
-0.0199513,0.0263098
-0.017916,9.69e-05
0.0350774,0.0125878
0.101114,0.043831
0.130034,-0.0138632
0.0613805,-0.06414
-0.0486503,0.0297055
-0.0502023,0.00568166
-0.043846,-0.0101243
-0.0643076,0.00424724
-0.0569676,-0.0215585
-0.0270143,-0.00340671
-0.011408,0.00570025
-0.0084246,-0.00830532
0.000745843,-0.0172749
0.0134067,-0.0159963
0.0106627,-0.00529083
0.00123604,-0.00526845
-0.00138583,0.00434285
0.00459938,0.0140378
0.0097739,0.0166085
0.00674013,0.0172789
-0.000559347,0.0163502
-0.00800372,0.00542625
-0.0126943,-0.00442271
-0.00408586,-0.00348323
0.0103873,-0.00739953
0.00959289,-0.00809355
0.00557543,0.0141784
0.00268579,0.00872846
-0.00173853,-0.0161588
-0.0065008,-0.0256929
-0.0311731,-0.0289562
-0.0493517,-0.003782
-0.00844551,-0.0030831
0.00412787,-6.31e-05
0.0429722,0.021594
0.0646479,-0.00375006
0.0334604,-0.00169969
-0.0400212,0.00548149
-0.0449261,0.0101772
0.00430581,0.0153095
0.0922309,0.0263643
0.195718,0.0183089
0.171729,0.0102495
0.0320913,0.0219815
-0.105713,-0.0111171
-0.146692,-0.0377056
-0.135043,-0.030387
-0.106925,-0.0580661
-0.0820706,-0.0358872
-0.0437391,-0.0146683
0.0373924,0.0204803
0.0708684,0.0717819
0.00735905,0.0608622
-0.0458249,-0.0147096
-0.0470301,0.0281853
-0.0224397,0.090929
-0.000357337,0.0106614
-0.00636629,-0.0520531
0.006397,-0.0295167
0.0233011,-0.0187447
0.048245,-0.0100051
0.064656,-0.0241157
9.83e-05,-0.0345547
-0.0390026,-0.00346194
-0.000793433,0.0305056
0.0196682,0.0164376
0.0489851,-0.0271437
0.0780339,-0.0207471
0.0368642,0.00983793
-0.0385747,0.0300312
-0.0542552,-0.00413638
-0.0450637,-0.00752576
-0.0372327,-0.00787163
-0.0179338,-0.00219507
0.0116598,0.0171197
0.0238097,0.0206889
0.0153588,0.0183105
0.00640243,-0.000619351
0.00048722,-0.0179508
0.00645044,-0.0117348
0.0300928,-0.00821231
0.0362953,0.000636048
0.0292791,-0.00808984
0.013887,-0.00219256
-0.00912357,0.0141741
-0.00560556,0.0127159
0.0087462,0.0160035
-0.0100763,0.00532362
-0.0331278,-0.00303007
-0.0388688,0.0245216
-0.0276558,-0.00843176
-0.00677264,-0.00323312
0.014776,0.0149608
0.029456,-0.00983387
0.0264405,-0.0271106
0.00824228,-0.0253061
3.93e-06,-0.0177284
0.00212684,-0.016104
0.00224279,-0.019991
6.53e-05,-0.0169769
-0.00843101,-0.00510648
-0.0293042,0.00257901
-0.0238971,0.00383358
0.000459364,0.00531612
0.00364761,0.000716233
-0.0107939,-0.00688574
-0.0120162,-0.00677875
-0.00315824,0.00509319
0.00587617,0.0171973
-0.00643231,0.0357679
-0.0238212,0.0116403
0.0249228,0.011695
0.114972,0.0951099
0.252376,0.0675151
0.291263,-0.0265536
0.0839881,-0.015487
-0.257749,-0.0340916
-0.312702,-0.0321309
-0.217306,-0.0168061
-0.21034,-0.011056
-0.141005,-0.0247104
-0.00238822,-0.0577173
0.0221065,0.0131774
0.0130622,0.0559452
0.0583793,0.0449748
0.129282,-0.0329811
0.0919983,-0.00318118
0.0433693,0.0120356
0.119315,-0.0351047
0.0606513,-0.0398924
-0.121762,-0.0228775
-0.175314,-0.000245598
-0.0735096,-0.00577334
0.0160504,-0.0170557
0.0655592,0.0304996
0.0915347,0.0288908
0.0892454,-0.0106778
0.0526346,0.0121015
0.0124635,-0.000115108
-0.00130676,-0.0106086
-0.0110671,-0.0032697
-0.0172721,0.00473816
-0.0163281,0.00995852
-0.0064337,0.0106982
-0.000840597,-0.00440013
-0.00488737,-0.0159976
-0.0106295,-0.0134094
-0.00208798,-0.00904429
0.0132811,-0.00839276
0.0227075,-0.00574387
0.0273318,0.00619864
0.0237005,0.0138313
0.0155169,0.011374
0.0127912,0.0142905
0.0124093,0.00927796
0.00442957,-0.00234518
-0.0133588,-0.0137056
-0.0269009,-0.00773748
-0.0374015,0.0100417
-0.0373502,0.0141106
-0.0221328,0.0105222
-0.00935552,-0.0047015
-0.00337037,-0.0144645
-0.00977517,-0.00931513
-0.00389108,-0.00819877
0.0217629,-0.0113577
0.0294477,-0.0101894
0.0237573,0.00197691
0.0128164,0.0126132
-0.000238415,0.0111764
-0.00264908,-0.0136613
0.00978182,-0.00886939
0.00614283,-0.00403877
-0.0240161,0.032192
-0.0393979,0.027385
-0.0428967,0.00292442
-0.0564852,0.0300843
-0.0804571,0.0374934
-0.0538524,0.0539684
-0.00343199,0.10987
0.0532886,-0.00110496
0.0797277,-0.0834678
0.110101,-0.0687079
0.0616762,-0.0553966
-0.0174675,0.00330178
-0.0707422,-0.0173635
-0.0497408,-0.0427015
0.0203798,-0.0305137
0.0609152,0.0344495
0.129138,0.0277786
0.112998,-0.00319504
0.0333368,0.00600756
0.0220959,0.0511985
0.017605,0.024142
-0.0979315,-0.115388
-0.158892,-0.030811
-0.123317,0.00922589
-0.0863114,0.00547355
-0.0549127,0.0144969
-0.0345531,0.00722354
0.0116351,0.00312846
0.0332772,0.0190114
0.0461015,0.00292062
0.0474318,-0.0138115
0.0412384,0.0081362
0.0240501,0.00531079
0.0208502,-0.0175333
0.0320654,-0.0249228
0.0159446,0.00575435
-0.00834973,0.0232422
-0.00546533,0.0203096
0.0059887,0.00741004
-0.0250017,0.0330152
-0.0315041,0.0367731
-0.012325,-0.0163263
-0.00498061,-0.064701
0.00411305,-0.0172487
0.0236501,-0.026503
0.0209488,-0.0147987
-0.0169732,0.0164495
-0.0239858,0.0122783
-0.0240916,0.0179024
-0.020366,0.0509524
0.00564472,0.0140506
0.0144911,-0.0473985
0.0170373,-0.0109989
0.0447667,0.032141
0.0844508,0.0235385
0.124694,-0.0210605
0.0963276,-0.0293317
0.0261211,-0.0243558
-0.0817554,-0.0179352
-0.145541,-0.00364157
-0.127845,-0.000825984
-0.0736148,0.00227911
-0.0523924,0.0185162
-0.0241643,0.00232675
-0.00408565,0.00544568
0.00051361,0.0113733
0.0222357,0.0329923
-0.0112104,0.0163524
-0.014638,0.00151689
0.0245152,0.0266787
0.0497191,-0.0469467
0.0569518,-0.033029
0.0137406,-0.0351152
0.00233988,-0.0123041
0.0206127,0.0437037
0.00874668,0.0532637
-0.00479641,0.0263474
-0.00151106,-0.0283867
0.0040227,-0.0123742
0.0305102,-0.0181116
0.0210955,-0.0071659
-0.0135745,0.00749074
-0.0149501,-0.00773255
0.032283,-0.0344768
-0.0105682,0.0228576
-0.0698324,0.0779634
-0.0451243,-0.0150475
0.0223613,-0.078242
0.0389468,-0.0458878
0.0140263,0.0134944
0.067108,0.0384701
0.105715,0.0376766
0.0490558,0.0048035
-0.0532386,-0.000905545
-0.0828427,-0.0118632
-0.0492682,-0.0240784
-0.00263526,0.00342131
0.0372181,0.0290673
0.0479533,-0.00266685
0.0477394,-0.0159226
-0.0342439,-0.0114438
-0.091422,-0.0122494
-0.0960476,-0.00429699
-0.0781704,0.050208
-0.0418648,0.0393657
0.0102952,-0.000431123
0.0333771,-0.0279519
0.0119903,-0.023084
-0.0430101,-0.0160416
-0.0351857,-0.0263984
-0.034541,-0.00721773
0.0241286,0.0615287
0.13073,0.0353595
0.171146,-0.0153656
0.104561,-0.0334093
0.032933,-0.0226154
-0.0107507,-0.00727984
-0.0370109,0.00738747
-0.0361973,-0.0398101
-0.0421238,-0.0310754
-0.0636759,0.0190027
-0.0667442,-0.0196024
-0.0639246,-0.0229215
-0.0411657,0.0562533
-0.0278413,0.0228656
-0.0206969,-0.0116807
-0.00241008,0.0352664
0.0371535,0.0691938
0.0834664,0.0406495
0.0975922,0.0113387
0.0744736,0.00367365
0.019463,-0.0127004
-0.0677475,-0.0564532
-0.0945269,-0.0798003
-0.0640846,-0.0645071
-0.0311297,0.0125809
-0.0305673,0.0145574
-0.0177175,-0.0115053
0.0125683,0.0170044
0.0185012,0.0288249
0.0223464,0.0287556
0.0448671,0.000325745
0.0405115,-0.0151681
0.0279591,-0.00657166
0.0130467,-0.0204772
-0.000269493,-0.00316875
-0.00883198,0.0302341
0.0105367,0.0337633
0.0211801,-0.0134762
0.00527634,-0.0196037
0.00958794,0.0153421
0.0266219,-0.00547644
0.0363604,0.025523
0.0152257,0.0219656
-0.0355975,-0.00483249
-0.0723449,0.0115826
-0.0549356,-0.0221031
-0.00812686,-0.0235105
0.00988906,-0.00760136
-0.00488958,0.00707236
0.0286822,0.0193794
0.0465422,-0.0130066
0.0252464,-0.0345487
-0.00233232,-0.0155464
-0.0290901,-0.000914111
-0.0267696,0.0197486
0.00767334,0.0185915
0.0399686,0.033559
0.0442187,0.00364865
0.0536802,-0.0248392
0.0744853,0.0484908
0.0457557,0.0202878
-0.0248456,-0.0502474
-0.129218,-0.0441323
-0.155151,-0.00828148
-0.0983437,0.00452442
-0.0319868,0.00834943
0.0235137,0.012229
0.027826,0.0322479
0.00731365,0.00388475
0.00772788,-0.0507858
0.0131133,-0.0278103
0.0159492,0.00797939
0.0327043,0.0251157
0.0312597,0.0129579
0.0115101,-0.00158498
-0.00227509,-0.00979316
0.00664922,0.0138559
0.00501346,0.00569867
0.00664484,0.0125901
0.00276536,0.0328648
0.0119871,-0.00580765
-0.00650527,0.00391922
-0.0644679,-0.00922028
-0.0429858,-0.0243531
0.0647672,0.0501698
0.0612236,0.0244155
0.0339085,-0.0126827
0.0657895,-0.050604
0.000879458,-0.0365979
-0.100915,-0.00713697
-0.118391,-0.00578271
-0.0940109,-0.00272634
-0.0466955,0.0414662
0.0163088,0.00488675
0.0565193,-0.031165
0.0399386,-0.00372446
-0.0156803,0.00470547
0.00557504,0.00662464
0.0404064,-0.00402652
0.051865,-0.0108608
0.0261922,0.00774132
0.0484533,-0.00559789
0.0472018,3.14e-05
0.0363966,0.0141389
0.00265751,0.0126905
-0.060248,-0.0149805
-0.0589032,-0.0485572
-0.0397598,-0.0325072
-0.0139749,0.00693959
-0.00468436,0.0190424
0.00572146,-0.0033817
0.0082605,0.00412759
0.0107599,0.017554
0.0075633,0.00204843
0.00994382,0.00817004
0.0143374,0.0199841
0.0162369,0.0164052
0.0043817,0.00643243
-0.0273829,-0.00288033
-0.0557251,0.0185718
-0.039131,0.0342366
0.00952704,0.0448174
0.0109092,-0.0376198
0.0233442,-0.0635068
0.0306084,-0.039191
0.041625,0.0312308
0.0841671,0.071503
0.0925033,0.00947898
0.0744602,-0.0193287
0.0598234,-0.0142628
-0.0050537,-0.0277244
-0.0820872,-0.0258707
-0.0851988,-0.0149164
-0.115271,0.0124041
-0.115882,-0.0147986
-0.0285031,0.00285988
-0.0189248,0.0130505
-0.0480798,-0.00609338
-0.0430907,-0.0146113
0.006975,-0.0151082
-0.00511142,-0.0174333
-0.0365626,-0.00268144
0.000985539,0.0131957
0.0418196,0.0196459
0.0557175,-9.59e-05
0.051905,-0.0170338
0.0312785,-0.00932615
0.0126621,0.00821817
0.021141,0.0124807
0.0286741,0.0180919
0.0206602,0.0165668
0.0111391,0.0108564
0.00963353,0.0234045
0.0135059,0.0114388
0.012351,-0.0332132
-0.00703141,-0.0168291
-0.0307587,0.007045
-0.0327103,-0.0149596
-0.0245703,-0.00341644
-0.0111675,0.00927308
-0.0188184,0.0278051
-0.015946,-0.00505811
-0.0115264,-0.0200729
-0.00335785,0.000509005
0.00130903,0.0253678
0.00493163,0.0154403
0.00943685,-0.0189201
0.0161042,0.00701229
0.0158305,0.0203695
0.0032998,0.0176076
-0.0182688,-0.023208
-0.0119989,-0.019941
0.0700847,0.0167541
0.174101,-0.000946427
0.228777,-0.00724592
0.12171,0.0499022
-0.101705,0.0108499
-0.177111,-0.017296
-0.111688,-0.056781
-0.0213905,0.00154104
-0.00852679,0.0193898
-0.0257044,-0.0157498
-0.0545639,-0.023216
-0.0876339,-0.0189849
-0.0876838,-0.0330648
-0.0421414,-0.0127445
-0.0382381,0.0179273
-0.0458755,0.0147422
-0.00237762,-0.0157242
0.0235112,-0.0390992
0.0191661,-0.0137408
0.0471207,0.0404073
0.0368019,0.0881618
-0.0218422,0.0314174
-0.0444437,-0.0261545
0.0222019,-0.028029
0.0672218,-0.0264324
0.0785234,-0.0245716
0.0600086,0.000330164
0.0406307,0.00432285
0.0133623,0.00736348
-0.00682074,0.00600451
-0.025871,0.00941248
-0.0251344,-0.00299624
-0.00366329,-0.0121196
0.0222428,-0.0112818
-0.00843417,-0.0117295
-0.0331476,-0.00873226
-0.0253324,-0.00198073
-0.00126281,0.0122283
0.0157081,0.0159532
0.00971341,0.0156117
0.000118778,0.0123458
-0.0063709,-0.000687898
0.0175494,-0.0104357
0.038867,0.00110843
0.0352334,0.0210022
0.0170062,0.0146742
-0.00613242,-0.00225095
-0.0158923,-0.0122148
-0.0126078,-0.0155964
-0.0148552,-0.0128564
-0.0255198,-0.00310085
-0.0357305,-0.00180819
-0.0415597,-0.0024304
-0.0218012,0.0172128
-0.00308306,0.0293452
-0.0184031,0.0087062
0.00505376,0.0134654
0.0849588,0.00307578
0.170265,0.0107896
0.221403,0.034197
0.150314,0.032823
0.0653782,0.0316005
-0.0650338,-0.0318397
-0.258146,-0.0523365
-0.319019,-0.0428909
-0.224439,-0.00672023
-0.0324124,-0.00337916
0.0377918,0.014057
0.0286846,0.0205451
0.0289231,-0.00966369
0.026339,-0.0238639
0.00271058,-0.0164358
-0.0198752,-0.00644453
-0.000472108,0.0120338
0.0139266,0.0282906
0.0178799,0.0326843
0.0151603,-0.0405689
0.0173951,0.0197461
0.0399225,0.0231833
0.0531837,-0.0241492
0.0543478,-0.0116716
0.042374,-0.0211184
0.0209512,-0.0114929
0.0137513,0.00468494
0.00626279,0.00443904
-0.0207066,-0.0128122
-0.0354858,-0.00703868
-0.0154457,0.00444854
-0.00213279,0.00797077
0.0123239,0.01123
0.0103054,0.00210174
-0.0247986,-0.0134863
-0.0336555,-0.0109161
-0.00980109,-0.00337335
0.010249,0.0124251
0.00920744,0.0173137
0.00834101,0.0197681
0.0132282,0.0317029
0.0259923,-0.0256549
0.0257572,-0.0473213
0.00859687,-0.0204852
-0.0069491,-0.00390395
-0.0109762,-0.000952754
-0.00515779,-0.00549939
-0.0126864,0.00369339
-0.0294961,0.00193295
-0.0472811,0.00203396
-0.0461394,-0.000342665
-0.0153568,-0.00732599
0.0201592,-0.00903494
0.0276487,0.00835256
0.0299913,0.0249942
0.0069487,0.0203983
-0.0260082,0.011797
-0.0173905,0.0114305
-0.0040944,0.00366503
0.00968886,-0.00391116
0.0206602,-0.0162097
0.011343,-0.00196063
0.00624943,0.0764536
0.035725,0.0426957
0.118653,-0.0694342
0.17388,-0.0433457
0.102008,0.00939026
-0.0988877,-0.00926361
-0.212837,-0.0528092
-0.170508,-0.0346522
-0.0719656,0.0290884
-0.0159461,0.029603
0.0134329,0.0206192
0.0141106,0.0141011
0.00110688,-0.00816454
-0.00380495,-0.0164919
-0.020796,0.0173926
-0.00790777,0.014987
0.0218932,0.00632228
0.0404774,0.0126603
0.0341058,-0.000702764
-0.0147497,-0.0233662
-0.0327882,0.0253874
-0.0235375,0.00212221
-0.00738846,-0.0357218
0.0286384,-0.012503
0.0956437,-0.00690166
0.13649,0.0148937
0.0567593,0.0350495
0.00316224,-0.0231454
0.00218984,-0.0415626
0.0127964,-0.0161576
-0.00704116,-0.0130181
-0.056424,-0.0187045
-0.097726,-0.0153273
-0.0705218,0.00297084
-0.0177657,0.0130944
0.00941936,0.0159711
-0.00814978,0.0281655
-0.0481046,0.025295
-0.0464903,-0.0223722
-0.0111209,-0.0138577
-0.0087768,0.0156687
0.0190989,0.0430778
0.0314554,0.039552
0.0245731,-0.0149397
0.0311173,-0.0302241
0.0631984,-0.0355624
0.107371,-0.0323405
0.0329455,0.00219182
-0.0132051,0.0271091
-0.0282167,0.00294534
-0.0266132,-0.0436171
-0.049242,0.00164527
-0.0662322,0.0173281
-0.026345,0.0102121
-0.0175095,0.0289016
-0.0350462,0.0395937
-0.0123342,-0.0259326
0.0399731,-0.0423314
0.0465263,0.00236923
0.0279207,0.0118868
0.0124356,0.00638825
0.0225047,0.00993524
-0.00931014,0.00667455
-0.0329259,0.0204543
0.00791464,0.0133311
0.0357597,-0.00877891
0.0220195,0.000552012
-0.0314899,-0.0112897
-0.068434,0.0304347
-0.0117392,-0.034566
0.0450244,-0.00768519
0.0513867,0.025968
0.142032,0.0337353
0.179289,-0.0187776
0.0194293,-0.0201734
-0.136737,0.00532062
-0.0887981,0.0134868
-0.00234038,0.0234178
-0.0285774,0.0211328
-0.0903724,-0.00836582
-0.0941468,0.0322532
-0.0488152,0.0241813
-0.0379411,-0.0572562
-0.026964,-0.0726428
0.0335046,-0.0454512
0.0546134,-0.0097911
0.00916753,0.0148058
-0.0122401,-0.0124012
-0.031493,-0.0143244
-0.0487166,0.0078388
-0.048524,0.0120269
0.0146008,-0.0282399
0.0691638,-0.0201529
0.0702738,0.00384344
0.0563671,0.0153656
0.030355,0.034208
0.0145806,0.0370878
0.0199911,0.0127763
-0.012561,-0.0180207
-0.0383937,-0.0125639
-0.0267136,-0.00398536
0.0119092,-0.0134201
0.0177307,0.0254634
0.0127839,0.00727407
0.0473728,-0.0151895
0.0397549,-0.0196868
-0.00125965,-0.0294385
-0.00384132,-0.0338119
0.0124336,0.00611312
0.00645818,0.0246978
0.00342302,0.0420337
-0.0066507,0.0309419
-0.0144148,0.0966343
-0.0496976,0.0981519
-0.039383,-0.0452396
0.0449459,-0.147967
0.0994199,-0.0617884
0.0527651,0.0321807
-0.0359158,0.0345537
-0.106437,0.0531973
-0.141228,-0.0395062
-0.108224,-0.0255181
-0.0447584,0.00924219
-0.0215876,-0.037412
0.00218138,-0.000136203
0.00759962,0.0058808
0.0227461,0.000283442
0.0570673,0.0136884
0.0862388,-0.00508525
0.0737355,-0.0163478
0.0425171,-0.0163952
-0.000377362,0.00866563
-0.0414934,0.029196
-0.0422718,-0.00744058
-0.016832,0.0219535
0.0228946,0.0218825
0.0323368,-0.0229149
0.0229687,-0.0196587
0.0130172,0.0195797
0.00340259,-0.0060389
0.00473066,-0.0365821
-0.0113761,0.0147761
-0.0313528,0.0230472
-0.026298,-0.0380407
-0.0189648,-0.0140519
0.00739616,0.00818862
0.0472183,0.0167351
0.104068,-0.0167976
0.137395,0.0226789
0.092279,0.107238
0.0202681,0.0720963
-0.0687083,0.00186562
-0.115624,-0.0462178
-0.0669286,-0.0534358
0.000741937,-0.0355092
-0.00798941,-0.0280591
-0.0630639,-0.0502617
-0.071768,-0.032238
-0.0373745,-0.0149285
-0.0202828,0.00493207
-0.0206429,0.0254957
-0.00566941,0.0467311
-0.00194944,0.0524735
0.000428465,-0.018114
0.0295082,-0.0465829
0.0102993,-0.0035919
-0.0256928,0.0115288
-0.0316805,0.00332736
0.00388885,0.0098704
0.00719326,0.0228532
-0.00898069,0.0141648
0.0103176,0.0179502
0.0167876,0.00664851
0.0164305,-0.0220146
0.0111957,-0.0219289
0.0233411,-0.00663144
0.0223367,-0.0100762
0.00742586,-0.0150214
0.000914182,0.055866
0.0124908,-0.00355807
0.0223904,-0.045164
0.0672687,0.000351681
0.139512,0.0139775
0.130653,0.0101365
0.00964325,0.0324962
-0.13544,0.0251291
-0.160515,0.0585264
-0.106801,-0.00166544
0.00293137,-0.0298143
0.0755285,-0.0211472
0.0361026,-0.0311257
-0.0304188,-0.0504766
-0.057221,0.00606536
-0.0423284,0.00662952
-0.0302929,-0.0413988
-0.0188412,-0.0413433
-0.0376204,0.0282569
-0.0289188,0.0225751
-0.0037356,0.000616548
0.00222621,0.00684998
0.0226275,0.00974134
0.0648587,0.00715263
0.0771164,0.0173517
0.0548137,0.00172731
0.0289824,-0.018535
-0.00192996,-0.00973583
-0.0216784,-0.0102233
-0.0176463,-0.0111636
-0.00764406,-0.00287629
-0.0103596,0.0081323
-0.0182564,-0.000114183
-0.00853579,0.00561068
0.00882868,-0.000274575
0.0403944,-0.00237753
0.045463,0.01603
0.0071773,0.0246063
-0.0462773,-0.00630982
-0.0613667,-0.0197288
-0.0148826,0.00585106
0.0363511,0.0227396
-0.0112347,0.0140256
-0.0406497,-0.00571763
0.0185543,-0.00494235
0.0397041,-0.0283243
0.00241149,-0.038923
-0.0176998,-0.00364105
-0.0128988,0.0255914
0.0113622,0.0412624
0.0895732,-0.00253083
0.124414,-0.00631551
0.0436319,-0.0122849
-0.11628,0.0380607
-0.105206,0.0517663
0.0264851,-0.00988772
0.0842356,0.00472724
0.0433592,0.00318331
-0.0544788,-0.0215189
-0.0844883,-0.0426528
-0.0751039,-0.0311184
-0.0721743,-0.010986
-0.0253698,0.00108461
0.0159802,-0.00653988
0.0233121,0.000967417
0.00663666,0.0198283
-0.0125606,0.0135167
-0.00702309,0.0200581
0.00596702,0.00610687
0.00910571,-0.0810609
-0.00193944,-0.0302559
-0.00450047,0.0111116
5.46e-05,0.00188221
0.0156994,0.0121504
0.0345908,0.0196708
0.0382924,0.0166171
0.0243814,0.0153117
0.00908057,0.00948225
0.0028495,-0.0127426
0.0110905,-0.0291736
0.0143663,0.0146567
0.0115631,0.0273635
-0.00494174,0.0112557
-0.0257771,0.0149502
-0.035604,0.019605
-0.0430354,0.0169074
-0.0344711,-0.0346085
0.00121972,-0.00475325
0.0499489,0.0265539
0.0987347,-0.000258967
0.0493137,0.0191865
-0.0471599,0.00412311
-0.0501364,0.0027869
0.0337878,0.00322191
0.148461,0.00416784
0.171633,-0.00882269
0.0822171,-0.0302793
-0.0690072,0.00731195
-0.225592,0.0204705
-0.212023,-0.0179923
-0.140856,-0.0184934
-0.0659088,-0.0302454
0.0215769,-0.0277261
0.0778127,-0.0138673
0.0531891,0.0211566
0.011064,0.025948
-0.0382211,-0.0456354
-0.0501767,-0.022205
-0.0197889,0.0158741
0.0330185,0.022656
0.0821429,0.0252557
0.0609812,-0.0105746
-0.00252959,-0.0279324
-0.00360776,-0.020712
0.00766438,-0.0115658
-0.0165221,-0.0113289
-0.0362768,-0.0129629
-0.014274,-0.00174977
0.0162583,-0.00199612
0.0268785,-0.00499525
0.0178517,-0.0100846
0.0012791,-0.00708601
-0.00721635,0.0031282
-0.00145872,0.0259026
0.0189031,0.0376132
0.0291476,0.00951299
0.0109183,0.0013958
-0.00300322,0.003753
-0.00885339,0.00700378
-0.00384007,0.0101725
0.0141155,0.00467349
0.0291458,0.0201614
0.0206874,0.0436894
0.0213835,0.033818
0.0173064,-0.0510066
-0.00107041,-0.0579621
-0.0211138,-0.0416306
-0.0355016,-0.01572
-0.0139714,0.0479026
-0.0110276,0.0032525
0.0182516,-0.00206927
0.0736382,0.043051
0.107826,0.0217684
0.0240765,0.0458025
-0.129163,0.0748639
-0.126916,-0.0268747
-0.0612731,-0.0275754
0.00892187,-0.0629484
0.0285167,-0.0507039
0.0213146,-0.0286538
0.0167624,0.0151945
0.00307428,0.0371746
0.00733135,0.0213455
0.000443339,-0.0107446
-0.0242529,-0.020899
-0.0298861,-0.00211189
-0.0116035,0.0133027
-0.0137216,0.0113013
-0.0129947,0.0059208
-0.0138459,-0.00120143
-0.00943047,0.0016631
-0.00350169,-0.00206684
0.0149963,-0.0210408
0.024665,-0.0178076
0.0222585,0.00242191
0.0141504,0.0223356
-0.000425236,-0.00878754
-0.00381127,-0.0203071
0.0297641,0.0140521
0.0615275,0.0326335
0.0452722,-0.0182504
-0.0355115,-0.0293166
-0.078872,0.00895313
-0.0395772,0.0370251
-0.0052203,0.0178068
0.000954562,-0.0118596
0.00753218,-0.0139476
0.0110401,-0.0268902
0.0036457,-0.0125241
-0.00263514,-0.00566475
-0.00100587,0.000518315
0.00292365,0.015397
0.00443703,0.00463003
0.0045065,-0.0215446
-0.0169487,-0.00197548
-0.0329865,0.0221607
-0.0130298,0.000581305
0.0456922,0.0288245
0.13661,-0.000809933
0.183115,-0.000349065
0.08382,0.029771
-0.0489305,-0.00483791
-0.158466,-0.00836036
-0.201854,-0.0081575
-0.145094,-0.00970962
-0.0663731,-0.00211162
-0.00302636,-0.00549121
0.0253027,0.000708011
0.0728826,0.00273304
0.0784775,-0.00517842
0.0103481,-0.00337325
-0.00787164,-0.00946991
0.0258273,0.016024
0.0344499,-0.0209313
0.0420118,-0.0226037
0.0308029,-0.0033536
-0.00727002,-0.00999001
-0.0334724,-0.0190113
-0.0199569,-0.00356772
0.000472557,-0.00232088
-0.00312744,0.00752544
0.000317787,0.00156231
0.0490355,0.0055714
0.105021,0.0159887
0.0918235,0.0216786
0.0302983,0.0200147
0.0177599,0.00863798
-0.0454529,-0.0247147
-0.156826,-0.0152573
-0.15571,0.0117424
-0.0990812,-0.00827636
-0.0406725,-0.0528683
-0.00879809,-0.00850306
0.00436785,-0.00462179
0.0389338,-0.0304144
0.029067,0.039911
0.0300744,0.0441513
0.0354125,0.00951189
0.0152843,0.0121511
0.064824,0.0334136
0.118573,0.0277453
0.0963811,-0.00327063
-0.0357322,-0.0449732
-0.108909,-0.00208026
-0.0560086,0.0553023
-0.0153704,-0.0175569
-0.0130002,-0.0400284
-0.0117197,-0.00720453
-0.0190249,-0.00608119
-0.0251248,0.00963565
-0.0130598,0.0333965
0.00689308,-0.0134128
0.00886955,0.00740503
0.0193844,0.0101404
0.0289478,-0.0317617
0.0276138,0.000217064
0.0415432,0.0419334
0.0384824,0.0110275
0.0122878,-0.0162181
-0.0152915,-0.00363638
-0.0325034,0.00330659
-0.0233118,-0.0154806
-0.0222571,-0.0137486
-0.0285602,-0.00225693
-0.0164019,-0.00134638
0.00926232,0.00117765
0.0326056,0.0116144
0.0564888,-0.0179147
0.0478654,-0.0272142
-0.010167,-0.0122284
-0.0163997,-0.0269463
0.0465114,0.00639673
0.0748512,0.0531848
0.0328124,0.0305202
-0.0500299,0.00602786
-0.0988879,0.0224198
-0.0842546,-0.0193938
-0.0446636,-0.0151615
0.0159677,-0.00713996
0.0500303,-0.0142921
-0.00096429,0.0267833
-0.0577641,-0.00999387
-0.0739975,-0.0449025
-0.0658151,-0.0115059
-0.0440171,0.0236387
-0.0024664,-0.00354627
0.0194425,-0.0012503
0.0389299,0.055332
0.0631256,0.0713432
0.0711048,-0.0203055
0.0327172,-0.0698642
-0.0141736,-0.0254074
-0.00519899,-0.00235392
0.0414677,0.000339769
0.0544104,0.0194291
0.00972494,0.0100742
-0.0281975,-0.00355953
-0.0576535,-0.0194035
-0.0689174,-0.00359466
-0.0394318,0.0130379
-0.0312313,0.00255456
-0.0310063,-0.0170439
-0.00829544,-0.0148199
0.00801617,-0.00444902
-0.00283599,0.0101659
-0.0124408,-0.0114772
0.0126937,0.000643377
0.0843725,0.0398601
0.155654,0.029831
0.171521,0.0375204
0.122402,-0.0222282
-0.019672,-0.0365371
-0.160763,-0.0272984
-0.161477,-0.0177489
-0.0681802,-0.00222247
0.0113566,0.0170939
0.0105752,0.00706533
0.0221847,-0.00262236
0.0630339,0.00208527
0.0565871,0.0101746
-0.0270776,-0.00041866
-0.0576478,0.00151776
-0.0129635,-0.00680189
0.00215162,0.00237779
-0.0148046,0.0135511
-0.0550378,0.00251923
-0.0454983,-0.016906
-0.00583726,0.00171204
0.0283701,-0.0105463
0.027261,0.0160673
0.0251281,0.00948363
0.0092418,-0.00779367
0.0117854,-0.00517447
0.00783839,0.00870452
0.00707637,0.0285975
0.0179404,0.0409241
0.00792436,-0.0633668
-0.0172554,-0.0568557
-0.0315608,-0.0382164
-0.045465,0.0149232
-0.00994685,0.0918048
0.0341303,0.207621
0.0570987,-0.0142362
0.0353189,-0.127596
-0.00495074,-0.0889543
0.000656353,-0.0841605
-0.011044,-0.0306739
-0.0379078,0.0268572
-0.0164608,-0.0216326
0.0123504,-0.010301
0.0160434,0.0135795
-0.0101874,0.0179663
-0.0122288,0.0236394
0.0341788,0.0566007
0.102998,0.0665124
0.107892,0.0407225
0.0463247,-0.0245673
-0.0237485,-0.0407548
-0.0719282,-0.0126833
-0.0587006,-0.0097886
-0.0768868,-0.0326642
-0.100953,-0.0319627
-0.0666866,-0.0238124
-0.0470831,0.0234492
-0.00629615,0.0121563
-0.015917,0.0125047
-0.0220874,0.0191578
0.00248945,-0.01027
0.0122835,-0.0218202
-0.0125844,-0.0430579
-0.0119808,-0.0140419
-0.022106,0.0185235
-0.00585842,0.00303515
0.0252995,-0.00593511
0.0417811,0.0389915
0.0472674,0.0629047
0.0740736,-0.00385095
0.111685,-0.0125099
0.0788026,0.00524293
0.0298172,0.0157455
-0.00902379,-0.00910401
-0.0445953,-0.0061071
-0.049539,0.00843226
-0.026581,-0.00389859
-0.0240042,0.0494232
-0.0271151,0.00662426
-0.00418772,0.0339734
0.00605988,-0.00312536
-0.0206146,-0.036329
-0.0564684,-0.0322912
-0.0726527,-0.0426304
0.00128274,-0.0213749
0.089273,-0.00754832
0.107051,0.0108209
0.0446558,0.0544327
-0.0073958,-0.00500284
-0.0102421,-0.0271928
-0.00994625,-0.0261004
0.00319237,0.0105451
-0.0117106,0.0713525
0.00232631,0.0148657
0.0323128,0.0176765
0.0314774,0.019749
0.00435222,-0.0297431
-0.0390954,-0.0712549
-0.0491542,-0.0292185
0.00268664,-0.00324586
0.0203425,-0.00535341
-0.00800611,0.00315326
-0.0732494,-0.00370832
-0.0601588,0.00761884
0.00235404,0.0172559
0.0593167,0.00335053
0.0393603,0.00803579
-0.0478977,-0.0137492
-0.0623631,-0.000621378
-0.0296024,0.0802776
-0.00923497,0.0642592
0.0232532,0.00253163
0.0400419,-0.0296887
0.0352434,-0.0577768
0.0292103,-0.034253
0.0435119,-0.0258147
0.0998108,-0.00401251
0.133281,0.00874678
-0.00339994,-0.0178898
-0.195084,-0.0218069
-0.190865,-0.00288176
-0.0884482,0.0150292
-0.0178913,0.0037722
0.00780462,0.0164877
0.0865428,0.0401459
0.172851,-0.0136929
0.147355,-0.0210869
0.0790899,-0.0159274
-0.0146814,-0.0372594
-0.0765943,-0.025021
-0.0933847,-0.0236381
-0.116431,0.0049705
-0.108401,0.0747253
-0.0537718,0.0490916
0.0281973,0.00871288
0.0921151,0.00300755
0.0793417,-0.0153079
-0.00346111,-0.00614589
-0.066097,-0.0260414
-0.066182,-0.0193633
-0.007957,-0.00223093
0.0455051,0.0231211
0.0366388,0.0295969
0.0147147,0.042963
0.0161726,0.00518384
0.0192274,-0.0507038
0.0150254,-0.0401702
0.00117133,-0.0250366
-0.00574215,-0.0214592
-0.00648073,0.00897673
-0.0207943,0.0257318
-0.0270033,0.0198723
0.00998174,0.0651494
0.0701232,0.0767886
0.113749,-0.0392335
0.0735122,-0.0754111
0.0213857,-0.0275257
-0.0336894,0.0317916
-0.0672767,0.0405454
-0.102148,-0.0390145
-0.0848764,-0.00756082
-0.0347899,0.0203815
0.00451322,0.0152699
0.00597394,0.0442305
0.00602173,-0.00341764
0.0162523,-0.0922819
0.00160506,-0.0387766
0.0138342,0.0223266
0.0298813,0.0478655
0.0221479,0.0076155
-0.00640321,-0.0289703
-0.031104,-0.00230396
-0.0149148,-0.00188293
0.0254777,-0.0110152
0.0600127,-0.00374261
0.0848154,0.0191652
0.0635864,0.0473724
-0.0636079,-0.00432505
-0.113477,-0.045106
-0.0818462,-0.018857
-0.0414127,0.0305275
-0.0452882,-0.0227173
-0.0713752,-0.0152714
-0.0106016,0.00339505
0.0657873,0.0143148
0.0895438,-0.0134859
0.048974,0.0150889
0.0129024,0.00978611
-0.00902101,-0.00180453
0.0157485,-0.00417687
0.0612984,-0.0129511
0.0158232,-0.00211223
-0.033276,-0.0104681
-0.0476119,0.0125261
-0.0204726,0.0340157
0.0069008,0.0187491
0.0309054,-0.0309893
0.0567282,-0.026268
0.0842957,0.0298587
0.111276,0.0498213
0.0778802,0.0550616
-0.0263377,-0.0321215
-0.142587,-0.0441911
-0.184721,0.0199701
-0.118126,-0.0280725
-0.03282,-0.0387789
0.0258656,-0.0228107
0.0732179,-0.00968813
0.093654,-0.00494394
0.0835142,0.0124432
0.0398926,0.0179972
-0.0493319,-0.0084588
-0.121886,-0.0145037
-0.0951261,0.00830625
-0.0379855,0.00578082
0.00345302,0.0321843
0.0461362,0.0233501
0.0864579,0.0445861
0.0863566,-0.0138274
0.0370412,-0.0691607
-0.046072,-0.00196885
-0.110642,-0.00660674
-0.0766759,0.0261179
0.0229039,0.0164862
0.0877966,0.0323526
0.0672868,-0.0107303
-0.015223,-0.035686
-0.0766612,-0.0102891
-0.0663214,0.0115217
-0.0262356,-0.00980118
0.0108473,-0.0151467
0.0665483,-0.0203614
0.0563557,-0.0200963
-0.0100637,0.0152163
-0.0173226,0.0261536
0.00194763,0.0147361
-0.00162858,0.0159022
-0.0332927,-0.00328389
-0.0349198,0.00168774
-0.00460479,-0.00908944
0.0107643,-0.0133324
0.0201784,-0.0119256
0.0295478,-0.00487589
0.0418025,0.0192792
0.0412405,0.0166349
0.0172788,-0.0144295
-0.00336659,-0.0162667
-0.00470022,-0.0213434
-0.0109296,-0.021901
-0.00755164,-0.0103533
0.0136044,0.00303784
0.0390896,0.0190569
0.0723558,0.0242903
0.0760057,0.0343661
0.0189839,0.0188035
-0.0456596,0.0238997
-0.0622807,0.0361868
-0.0642601,-0.0171495
-0.0813361,-0.0113474
-0.0365735,0.0295419
0.0276151,-0.00209789
0.0258628,-0.0185916
-0.0138223,-0.0348975
-0.055971,0.0159508
-0.0573246,-0.00690703
-0.0387964,-0.0477615
-0.0240452,-0.0200029
-0.00818163,0.00386105
-0.00444912,0.0175946
0.00734155,0.0121422
0.0212629,0.0007518
0.0252763,0.00973459
0.0238591,0.00608666
0.0207548,-0.00631074
0.0215403,-0.00489254
0.0208564,0.0130494
0.030626,0.0141358
0.0372757,-0.00361624
0.0255581,-0.0148584
0.00716602,-0.0179897
-0.00816608,-0.0124741
-0.0159067,-0.00676391
-0.0100871,-0.00802998
0.00268331,0.00309357
0.0101689,0.0122245
-0.00201256,0.010013
-0.02509,0.00371058
-0.0145829,0.00349528
0.00193073,0.00593152
0.0051539,0.00020422
0.00749458,-0.000131658
0.0136289,0.00152526
0.0157741,-0.0016029
0.0123158,-0.000525839
0.0132299,-0.00522989
0.00741252,-0.0165522
0.00320246,-0.0160788
0.00632481,-0.00999209
0.0167543,-0.00846411
0.032579,-0.00667006
0.0296614,-0.0065653
0.0134924,0.0117725
0.00313617,0.0130025
-0.0216002,0.0255442
-0.0474292,0.00825324
-0.0719704,-0.0185262
-0.0658259,-0.00556927
-0.0318005,0.00309621
-0.00464618,0.00790314
0.00781968,0.0117561
0.0118318,0.0155981
0.00863645,0.00794296
-0.00540401,-0.00266761
-0.0172119,-0.00751832
-0.0245142,0.00612306
-0.0231529,-0.00362977
-0.0142144,-0.0205014
-0.00186181,-0.0085945
0.00369278,0.00649928
0.00879145,0.00263539
0.0162124,-0.00235566
0.0261816,-0.00467786
0.0276177,0.00606457
0.0295609,-0.0185103
0.0282209,0.0102557
0.023646,-0.000654952
0.0202174,-0.00529084
0.00560303,0.0227054
-0.00890244,0.0382167
-0.0163763,-0.00640111
-0.0166761,-0.0478641
-0.0184634,-0.0128284
-0.015202,0.00631032
-0.00516332,-0.00333724
0.00197475,0.00510593
-0.00106116,0.00182334
-0.0142377,-0.00551487
-0.0162128,0.012898
0.00151773,-0.00558932
0.0167774,0.00585459
0.0282113,-0.000589207
0.0375961,-0.00653279
0.0224811,0.0055647
-0.00550463,0.014471
-0.009879,-0.0180576
-0.00705123,-0.00886167
-0.0100728,0.0277383
-0.0104456,0.0121543
-0.00996968,-0.0184401
-0.0150119,-0.0158401
-0.0124638,0.0079751
-0.01221,0.0316669
-0.0215929,-0.00245659
-0.00749385,-0.0285347
0.0264729,0.017771
0.0429455,0.00917398
0.0371491,-0.0162275
0.0527102,0.0127158
0.0640008,0.038816
0.0402317,0.046543
0.0426542,-0.0080629
0.0263163,-0.0636024
-0.0626532,-0.0418892
-0.117523,0.00514609
-0.0927175,0.00612621
-0.0702836,-0.0189081
-0.0500782,-0.00204467
-0.02707,0.0216322
-0.0119124,0.0219277
-0.00612833,-0.0302983
-0.00379237,-0.0159599
0.00375656,-0.00424536
0.0062934,-0.00359915
0.00793981,-0.00187479
0.00782157,0.005167
0.0062732,0.0199955
0.015096,0.0207553
0.0340278,0.0162093
0.0435387,-0.00191183
0.0143004,0.0123017
-0.00848311,0.0127293
-0.00182703,-0.0381802
0.00230969,-0.0131858
0.0119025,0.000286683
0.0524017,0.00495687
0.108134,0.0176546
0.0976438,0.0214017
-0.0116061,-0.0206832
-0.0923578,-0.0196311
-0.0944431,-0.0160001
-0.0484711,-0.00494677
-0.0117945,0.00749459
0.00831614,0.00595492
0.0267097,0.0146482
0.0499421,-0.0111853
0.0264035,0.00697143
-0.0270712,-0.00545098
-0.0352642,-0.0134012
-0.0140396,0.0067613
0.00995943,0.0161015
0.00659952,0.0061474
-0.0116045,-0.0050525
-0.0159301,-0.0178967
-0.0177672,-0.0132608
-0.0153465,0.0143588
-0.00185013,-0.0328806
0.00314452,-0.0330556
0.000920688,-0.00726901
0.00417386,0.011244
0.00677436,0.0261368
0.00788648,0.0394325
0.00797531,0.00567168
-0.0015883,-0.0064362
-0.0045493,-0.00374931
-0.0040718,0.00315172
-0.000592385,0.00660665
-0.00528228,0.00710743
-0.00876131,0.0223386
-0.00681432,-0.00134027
-0.00122177,-0.00844142
0.00496987,-0.00281776
0.0140154,-0.00457823
0.016513,-0.00947761
0.0144116,-0.0133658
0.0164664,-0.0065701
0.018242,-2.69e-05
0.0165025,0.00696112
0.0137676,0.0150123
0.00412719,0.00523002
-0.00811914,-0.00485166
-0.0224666,-0.00284056
-0.0269909,-0.00164619
-0.0269029,-0.0074362
-0.023782,-0.00783037
-0.0187714,-0.000894061
-0.0120923,0.00147719
-0.00986198,-0.00187989
