Comp Ch 3,Comp Ch 4
0.00903286,-0.0399062
0.00706871,-0.0246073
0.00945375,-0.0334378
0.0102974,-0.0149002
0.0108478,0.0039802
0.00620682,0.0116765
0.00687922,0.0212226
0.0103157,0.0222516
-0.000432617,0.0206171
-0.0147415,0.0101186
-0.0201936,0.0107971
-0.0254003,0.0112954
-0.0204862,0.00755512
-0.00390371,0.0128036
0.00315353,0.00369756
0.00740796,0.00072545
0.00963596,-0.00916371
-0.003386,-0.0257743
-0.00828268,-0.0257886
-0.0055897,-0.0218169
-0.00102337,-0.00457126
0.00848731,0.00176407
0.00835075,0.0234984
0.000942493,0.0431678
-0.00501918,0.0131514
-0.00988748,-0.00951264
-0.0126261,-0.00851058
-0.0115437,0.0217257
-0.00248222,0.0024021
0.0103895,-0.0163118
0.0235519,0.00200495
0.0262811,-0.00121375
0.0285825,-0.0190725
0.0297852,0.0127619
0.0202868,-0.0393775
-0.00140641,-0.0429582
-0.013168,-0.0229928
-0.00851226,0.00343535
-0.00307884,0.0236395
-0.000232421,0.0172363
-0.0035094,0.014943
-0.0104097,0.00927797
-0.0126277,0.000797914
-0.0152283,0.0292012
-0.0123501,0.00213568
-0.0116472,-0.0141017
-0.00964949,0.00421483
-0.00497838,0.0124911
0.00482658,-0.00635485
0.0123627,-0.0178503
0.0176233,-0.0184414
0.0133439,-0.0216064
0.00449529,-0.0200687
-0.00470666,-0.0153559
0.00434687,0.0173379
0.00708624,0.0471275
0.000793188,0.0173364
-0.00348156,0.00297887
-0.000636039,0.000993565
0.00793959,-0.00241768
0.006665,0.00062329
0.00876466,0.000473036
-0.00653123,0.0124088
-0.067333,-0.00209703
-0.0772574,-0.0438016
-0.0539705,-0.0378129
0.00329704,0.0124537
0.0317353,-0.00938742
0.0321093,-0.0211552
0.0214884,0.0281168
0.0306577,0.0606154
0.0387796,0.0383525
0.0247561,0.0285685
0.0233503,0.00393813
0.0129844,-0.0037616
-0.00273195,-0.00861102
-0.0107372,-0.0304618
-0.0261693,-0.0267395
-0.0388591,0.0109265
-0.0324373,-0.0163343
-0.0155797,0.0278675
-0.00723985,0.0339136
-0.0058285,-0.00118466
0.0223867,-0.0778389
0.052046,-0.0929255
0.0474634,-0.0303847
0.0158871,0.0339597
-0.0125055,0.0355805
-0.0233045,0.0124703
-0.0192951,0.0302288
0.0104368,0.0498178
0.072251,0.0248415
0.112841,0.0428635
0.0912539,0.00908271
-0.00293866,-0.0564501
-0.101022,-0.026102
-0.143331,-0.017629
-0.136508,-0.0537611
-0.12289,-0.00242984
-0.114362,0.0338296
-0.0316751,-0.0149864
0.0377507,-0.0327895
0.0948093,-0.00440907
0.117307,0.0437421
0.0742774,0.0623911
0.020683,0.0582444
0.0498038,0.000208692
0.0167847,0.00959008
-0.0500672,-0.0301288
-0.0256144,-0.0560371
0.041312,-0.0633267
0.0889256,-0.0656173
0.0447919,-0.00841955
-0.00298034,0.0231656
-0.0105603,0.0128442
-0.0391402,-0.0134208
-0.0674795,0.0190913
-0.0598167,0.0580508
0.0148889,0.05007
0.113671,0.0111008
0.0851763,0.0395058
-0.00608432,0.0485619
-0.00750628,0.00963331
-0.041417,-0.000222417
-0.0858328,0.0025819
-0.0991628,-0.0297682
-0.0858047,-0.043301
-0.0736579,-0.032894
-0.0670186,-0.0320734
-0.00129043,-0.0124639
0.0692441,-0.00895645
0.0927154,-0.0294364
0.0778264,-0.0214156
0.0449116,-0.0116368
0.0281383,-0.00663758
0.00425651,-0.00163317
-0.0178423,0.0137319
-0.00914485,0.0204611
-0.0119091,0.0195363
-0.0128363,0.0189898
-0.000638804,0.0106472
0.0106993,-0.00595208
0.0123825,-0.0196105
-0.00666765,-0.0149252
-0.0155431,-0.00901563
-0.0148937,0.0100937
-0.00943613,0.024449
-0.00862205,0.0110925
-0.0214186,-0.00225775
-0.0230151,-0.00238403
-0.0140123,-0.00260579
-0.0321431,-7.21e-05
-0.0254635,0.00524281
-0.050438,0.0185261
-0.0404214,0.0228696
-0.014348,0.00778886
-0.0133607,-0.00214048
-0.00661791,-0.0161293
0.0168144,-0.0200934
0.0155636,-0.0177903
0.029305,-0.0245843
0.0741674,-0.00894955
0.138784,0.0254002
0.311566,0.0428039
0.737315,0.036141
0.97967,0.0162126
0.60324,0.0179112
-0.0913937,0.0119859
-0.692913,-0.013146
-0.963412,-0.034296
-0.953358,0.0149748
-0.606073,0.00252065
-0.233448,-0.0332717
-0.0153864,-0.0179569
0.0586689,-0.0147075
0.0584661,-0.0275188
0.0513394,-0.0148832
0.0642723,-0.00784737
0.0787967,-0.00180215
0.0625826,0.000546405
0.0281057,-0.000721886
0.0143739,-0.0112567
0.0174246,-0.0101221
0.016116,0.00913306
-0.00135735,0.0120062
0.0355186,0.00766121
0.0664244,0.0143923
0.115659,0.0243543
0.124364,0.0206478
0.11735,0.016625
0.140804,0.0126611
0.087596,-0.0175869
-0.0072424,-0.053182
-0.064275,-0.0252571
-0.0853048,0.0229127
-0.0420851,0.0290433
-0.0208611,-0.0154793
0.00660169,-0.0149765
-0.00114692,-0.00654139
-0.0375261,0.0118147
-0.0251317,0.0266851
0.0214546,0.0211571
0.0833966,-0.0116066
0.0793601,-0.000191831
0.0515146,0.0150095
0.0857641,-0.00420291
0.0858963,0.0130959
0.0136525,0.0175402
-0.0465313,0.0107454
-0.0433196,-0.00869238
-0.0289234,-0.021013
-0.073823,-0.00414413
-0.082433,0.00985007
-0.0481885,0.00293884
-0.0466084,-0.0052858
-0.0606409,-0.0147967
-0.0241829,-0.0124094
0.0289869,-0.00652092
0.0679044,-0.00882844
0.0620066,1.59e-05
0.0348865,0.018887
0.0318489,0.0558097
0.0328775,0.0123602
0.040825,-0.0280577
0.0395637,-0.0192092
0.0238435,-0.0275416
-0.028006,-0.028467
-0.0780794,-0.0134927
-0.0799958,0.00510734
-0.0602092,0.0283202
-0.0553893,0.0414715
-0.0631809,-0.0177995
-0.0583409,-0.050299
-0.0300932,-0.0175562
0.00772192,-0.0100973
0.0322904,-0.0149501
0.0296113,-0.00363438
0.023937,0.0133433
0.0614359,0.0140406
0.0783788,0.00463418
0.0604213,0.00263891
0.0512763,-0.00726219
0.0384144,-0.00542963
0.011906,0.00059384
-0.0484682,-0.0177122
-0.102976,-0.00221737
-0.0772605,0.0460835
-0.0345983,0.0433609
-0.0215306,-0.0135159
-0.0201057,-0.00849626
-0.00809028,-0.000375988
0.0178439,-0.00154824
0.0131457,-0.00639772
0.0187595,0.026838
0.0163652,0.0197376
0.032104,-0.00441803
0.0577708,-0.0119356
0.0788526,-0.012914
0.051056,-0.0310384
-0.0274507,-0.0288161
-0.0787645,-0.00770385
-0.0672797,-0.0059371
-0.0350017,0.0109053
-0.0220809,0.028524
-0.023489,0.0186915
-0.0286822,0.0124353
-0.0167493,0.0221011
0.0123244,0.00200015
0.0391493,-0.0347752
0.0356008,-0.0208567
0.0371366,0.0121124
0.0367518,0.0180844
0.0279504,0.0122877
0.0192389,0.0013633
0.00165909,-0.00484994
-0.031574,-0.0266466
-0.0489796,-0.032608
-0.0421119,-0.0120033
-0.0205018,0.00975467
0.00908724,0.032252
0.017568,0.0153339
-0.022961,0.0054177
-0.025937,0.00205136
0.00484708,0.00956587
0.0521755,-0.00108519
0.0710016,-0.0202204
0.0402977,-0.00588006
0.0539929,0.0136258
0.0275591,0.00268534
-0.00729923,-0.00439549
-0.0113314,-0.0017181
-0.0378074,0.0183039
-0.0653404,0.0147224
-0.0522453,0.0216483
0.00528738,0.0310654
0.0114815,0.00273446
-0.0383412,-0.0241994
-0.0522625,-0.0119179
-0.0321693,-0.00185414
-0.0124852,-0.0231438
0.00548218,-0.029599
0.0315418,-0.00983216
0.0260115,-0.0106537
0.00914621,0.0201705
0.0156412,0.033299
0.0380411,-0.0198463
0.0701432,-0.000959847
0.0690324,0.00942683
0.024355,-0.00446859
-0.0427096,-0.010877
-0.0756943,-0.000989531
-0.0808703,0.0126026
-0.0643861,0.0228891
-0.051735,0.0191698
-0.0349536,-0.00481691
-0.00603506,-0.00461719
0.03312,0.00755898
0.072266,-0.0163229
0.101867,-0.0345132
0.0827042,-0.0209872
0.0429917,0.00225708
-0.00145915,0.00653845
-0.0127622,0.00199013
-0.00754537,0.00580831
-0.00705331,-0.00208072
-0.00648948,-0.0170609
-0.0306997,-0.0135398
-0.0523493,-0.00328283
-0.0399601,0.00158384
-0.0341144,0.0155852
-0.0135309,0.0238973
0.00392713,0.00252299
0.00230572,-0.00250497
0.0053892,-0.0231836
0.00709332,-0.0199073
-0.000362669,-0.0138285
0.00997758,-0.0133192
0.0297181,0.00678241
0.0258557,0.011688
0.0139249,0.00828806
0.0131309,0.00812751
0.0185675,-0.00195405
0.0213132,-0.00612847
0.0107908,-0.000234983
-0.00447863,0.00730167
-0.0189986,0.0169633
-0.0199875,0.0276351
-0.017728,0.0159557
-0.024507,0.00366749
-0.0282505,0.00148541
-0.0150044,-0.00067633
-0.00215423,-0.00929207
0.00183255,-0.0217349
-0.008278,-0.0179361
-0.00886926,0.000441293
0.0129521,-0.000465743
0.0325799,-0.00246681
0.0322486,0.00312655
0.0279154,-0.00162202
0.0228433,-0.0101842
0.0128825,0.00510767
-0.000671737,0.0204678
-0.0115521,0.0361216
-0.0283277,0.0357577
-0.0339804,-0.0136199
-0.0274498,-0.0356017
-0.0484727,-0.00902709
-0.0497165,0.00955974
-0.010314,-0.0100547
0.0338435,-0.0143818
0.0410195,0.00232635
0.0207688,0.00887151
-0.00404976,0.00611351
0.00906853,0.00355156
0.0258839,-0.00163135
0.0364482,-0.0177867
0.0337194,-0.0119624
0.0112708,0.000238416
-0.00717104,0.00930877
-0.0313481,0.0250296
-0.0266756,0.000919664
-0.0019556,0.0150845
-0.0228593,0.0138539
-0.0715917,-0.00490757
-0.0520878,-0.00622622
-0.0107038,0.00299021
0.0187607,-0.0112483
0.0396275,0.0081562
0.0424175,0.0163551
0.0358832,0.0302578
0.0268017,0.0138625
0.0296727,-0.0439049
0.035817,-0.0454546
0.0320958,-0.0190589
0.0217408,-0.00648367
-0.0038259,0.00951912
-0.0363343,0.0240115
-0.0341003,0.00165835
-0.0257766,-0.0175637
-0.0244405,-0.0267296
-0.02794,0.00226469
-0.00965226,-0.00220825
0.00992229,-0.0271646
0.00873421,-0.011772
-0.0202851,0.0140656
-0.0202948,0.00676261
0.00368282,0.0023549
0.00886496,0.0172527
0.00476939,0.0161857
0.0110279,0.0019719
0.00461551,-0.000942226
-0.0092018,0.003027
0.000437871,0.00389704
0.0182059,0.0129933
0.0242862,0.00489117
0.0122224,-0.0119637
-0.00882427,-0.027392
-0.0202999,-0.0291906
-0.0141589,-0.0223359
-0.00707408,-0.018379
0.0104911,0.011539
0.0123558,0.0335969
0.0150759,0.00124861
-0.00685649,-0.00459284
-0.0440956,0.00904517
-0.0322349,0.00348329
-0.0108817,0.00612192
0.000989182,0.0134247
0.0161862,0.0155208
0.0282201,0.013318
0.0339374,0.0115585
-0.00532248,0.00597526
-0.0308507,-0.00777217
-0.00812544,-0.0227266
0.00787774,-0.0214691
-0.000965225,-0.00460948
0.00269925,0.00722924
0.015427,0.0174955
0.0122747,0.0181753
0.00303046,0.00164174
-0.00248522,0.00499614
-0.0010829,0.0151927
0.00985209,0.000613602
0.0259042,-0.0147685
0.00528925,0.00397906
-0.0131286,-5.51e-06
-0.00865855,-0.00187846
-0.0237073,-0.00165312
-0.0193577,0.00471467
0.0128071,-0.0192521
0.0241629,-0.00216952
0.00952023,0.00414452
0.00542261,-0.0359875
0.0126404,-0.0212335
0.00803085,0.014573
-0.0134723,0.0256757
-0.0223521,0.0126792
-0.0312305,0.0152464
-0.0384536,0.0440388
-0.00455986,0.0321321
0.0182492,-0.0218085
0.0114616,-0.0293193
0.00333582,-0.0176902
0.00734057,0.00418035
-0.00281191,0.0232622
-0.00260706,0.00938701
0.0094975,-0.0455734
0.0188613,-0.0623701
0.0193412,-0.0362894
0.00198113,-0.0125241
-0.00735874,0.0190893
-0.0123432,0.0121345
0.0104563,-0.000775817
0.0260923,0.0179752
-0.0103971,0.0230957
-0.00584459,-0.00425791
0.00816976,-0.00743353
0.0112661,0.00391874
0.0175932,0.00693107
-0.0125821,0.00722936
-0.025262,0.00782985
-0.023959,0.00674446
-0.0256998,-0.000187803
-0.00903111,-0.0192277
0.0175608,-0.0313892
0.0297866,-0.0235095
0.00924998,-0.0151264
0.00048621,0.0147032
-0.0175684,0.0305813
-0.0409297,0.0205277
-0.0203431,0.020822
0.0143012,0.0170325
0.0392444,-0.00145635
0.0474683,-0.00422636
0.0351701,0.0086043
0.0224891,0.0100822
0.0166318,0.0210576
-0.0121894,0.0237674
-0.0451579,0.0019275
-0.0425414,-0.0129014
-0.022256,-0.0227086
-0.047288,-0.0202312
-0.0655199,-0.0220119
-0.026042,-0.0243242
0.010796,0.00177892
0.0263872,0.0259424
0.0217401,0.0331878
0.0229262,0.0208741
-0.00124947,-0.000402039
-0.00477694,-0.0127485
0.016114,-0.00785546
0.0094135,-0.00656187
0.00803975,-0.0160063
0.0300285,-0.00131074
0.0180923,0.00306244
0.00756671,-0.019365
0.00366486,-0.0100584
-0.0046007,0.00768386
-0.00254737,-0.0143876
0.00441246,-0.0210333
0.0186168,0.00368991
0.030535,0.00877187
0.0116338,0.00306312
-0.00970119,0.00694787
-0.0149288,0.00815979
-0.0197961,0.00606928
-0.0213428,0.00271321
-0.0255046,0.0273653
-0.0119585,0.0121521
0.0237312,-0.0375152
0.0278622,0.00817434
-0.00272679,0.0164507
-0.0226081,-7.19e-05
-0.0245521,-0.00363912
-0.0186879,-0.0183725
-0.00105997,-0.0208216
-0.00192295,-0.0181854
-0.00987598,0.00170874
-0.00439142,0.0181366
0.0030979,0.00725697
0.00850808,-0.00407467
0.045963,-0.0122734
0.0494031,-0.0101847
-0.00763938,-0.00091236
-0.0208601,0.00729912
0.0102033,0.00293252
0.0241815,0.0158828
0.0029274,0.0241881
-0.0279007,0.0230549
-0.0430598,0.0059923
-0.0353316,0.00147946
-0.0365582,-0.0156863
-0.0124982,-0.0330318
0.0105704,-0.00295047
0.0182755,0.0100531
0.0499535,0.00892406
0.0578243,0.011345
0.0223052,0.00125152
-0.0133119,-0.000351068
-0.0204585,-0.00739459
-0.0142383,-0.0166651
-0.00386972,-0.0139305
0.00319122,0.000528802
-0.00363098,0.0184196
-0.00916974,0.0161112
-0.0134023,0.00375142
-0.00635227,-0.0160787
0.00335303,-0.021142
-0.0055606,-0.00658113
-0.0179462,-0.000611264
-0.0147395,0.0190712
-0.00843628,0.036436
0.00754033,-0.00668108
0.0114584,-0.0324937
-0.000483586,-0.0150817
0.00655144,-0.0173165
0.00623799,-0.00882809
0.0092978,0.00730208
0.0140402,0.0168577
0.0062064,0.0110782
0.00460642,0.0060214
-0.00517882,0.0162489
-0.00820786,0.0132565
-0.0120619,0.00373375
-0.00201805,-0.0216788
0.0235379,-0.030966
0.0124774,-0.019598
-0.00237549,-0.0108118
-0.0143843,8.18e-05
-0.0382325,0.017895
-0.0308966,0.0337281
0.0167968,0.00925337
0.0199139,-0.00839583
0.00460298,-0.0117432
0.010873,0.00534571
0.0226033,0.00583467
0.0102269,0.0168895
-0.000365046,0.0540307
-7.43e-05,0.00936296
0.00902422,-0.0266843
0.0263046,-0.00162361
0.0196838,-0.00381584
0.0059905,-0.0194936
0.00367459,0.00534123
0.0149221,-0.0183937
0.0135473,-0.0317198
-0.00128593,-0.0266485
-0.0102753,-0.0124817
-0.0125868,-3.55e-05
-0.0156279,0.00578708
-0.0216948,0.00414556
-0.0269953,0.0107281
-0.0263386,0.00132386
-0.0244715,0.019993
-0.0239904,0.0312924
-0.0056239,0.0301171
0.0249006,-0.0016947
0.0380677,-0.00506179
0.0256371,-0.00372984
-0.0201495,-0.03308
-0.055594,-0.0191458
-0.0474014,-0.000677165
-0.0233524,-0.00436532
-0.0217496,-0.00151268
0.0121954,0.00231426
0.054059,0.00488954
0.0411902,0.0016101
-0.00207671,-0.00794327
0.0125526,-0.00381073
0.0205473,0.0100296
0.00758069,0.0247112
-0.00644415,0.0219538
-0.00678008,0.0116299
0.0399067,-0.0101192
0.0738185,-0.015049
0.0443734,0.0050744
0.00496467,-8.94e-05
0.000627308,-0.00596959
-0.0213758,0.00638472
-0.0484929,0.00486508
-0.0568501,-0.00559972
-0.0348602,-0.0158419
-0.00557237,-0.0222663
0.00968263,-0.0149166
-0.00397126,0.00340986
-0.0228631,0.00530875
-0.0270026,0.00990251
-0.0139986,0.0260866
-0.00102426,0.0203967
-0.00997303,-0.00351706
-0.0151537,-0.00317691
-0.00575935,0.00504043
-0.00299725,0.0334196
-0.00457876,0.0064143
0.0514421,-0.0112679
0.0530435,0.00318665
0.0383158,-0.00450152
0.00956019,-0.0166501
-0.0124459,-0.0307072
-0.0154155,-0.0346628
-0.0156806,-0.0185578
-0.000664471,-0.00377166
0.00997103,0.0149923
-0.00684273,0.0123223
-0.00621346,-0.0104094
0.00554294,-0.00105791
0.011664,0.0138736
0.0184732,0.0100678
0.0158577,0.0057415
0.00456749,0.00507035
0.000471763,0.018179
-0.00056035,0.0195622
-0.00789621,-0.00229849
-0.0233554,-0.0152234
-0.0241228,-0.0244495
-0.0365045,-0.033287
-0.0236749,-0.0331966
0.000262063,-0.0257606
0.0279763,-0.0141723
0.023876,0.00845465
0.000894252,0.0201879
-0.00101946,0.011793
0.00200406,0.0107417
-0.00969086,0.0176762
-0.00614324,0.0154521
0.0166657,0.0104279
0.0234122,0.0196119
0.0388223,0.0271665
0.0268743,0.0187047
-0.0177682,0.0112406
-0.0422213,0.000599792
-0.0193496,-0.0152704
0.0057211,-0.0301641
-0.0218657,-0.0325927
-0.0488971,-0.0228669
-0.0557645,0.000283465
0.0203191,0.00792579
0.0744175,-0.00189118
0.0601678,-0.00697347
0.00173732,0.00617377
-0.0364828,0.0111356
-0.0384862,-0.00679863
-0.0383495,-0.0034307
-0.0040538,0.0265533
0.0266997,0.0285056
0.0223101,0.032783
0.0109239,0.0356782
-0.00949112,-0.0189934
-0.00966631,-0.0389406
-0.00682982,-0.0308681
-0.00783904,-0.0210822
0.00418574,-0.0137762
0.0115851,0.00663699
0.0381003,0.0131469
0.0571338,-0.00104895
0.0512077,-0.0103501
0.00624768,-0.0112156
-0.0251275,-0.00505289
-0.0189807,-0.00887774
0.000428288,-0.00021174
-0.000926402,0.0190576
-0.0108437,0.0256564
-0.0120011,0.0238404
-0.011929,0.0141413
-0.00531727,-0.00119427
0.0109497,-0.00932068
0.0170856,-0.0256566
0.0146315,-0.0172548
0.0138642,-0.00529123
-0.000478022,0.00740148
-0.0268185,0.0140185
-0.0235196,-0.000654796
-0.0165983,-0.00480335
-0.0291324,-0.000675272
-0.0011418,-0.00613585
-0.0165062,-0.0138467
-0.0582924,0.00408975
-0.023033,0.0213249
0.0337664,0.0122238
0.037797,0.0113761
0.0199032,0.0140721
0.00427106,0.00243503
0.00429825,-0.0134495
-0.00150839,-0.0241816
0.000634608,-0.0207785
0.00777161,0.0125012
-0.00379643,0.0403314
-0.0217327,0.0343255
-0.0155209,-0.0205306
-0.00308381,-0.0303378
0.010008,-0.0224407
0.00801452,-0.014549
0.0128712,-0.0150129
0.00894563,0.00831015
0.00846036,0.0250569
0.0240202,0.0162377
-0.00497966,0.0120231
-0.0270226,0.00578889
-0.0556641,-0.00480683
-0.062898,-0.00946739
-0.0072371,-0.00928871
0.0400055,-0.00856185
0.0676248,0.003449
0.0527161,0.0135416
0.00160142,0.00891162
-9.02e-05,-0.00330095
0.0196758,-0.00721932
0.00646278,-0.00693666
0.00418144,-0.0139603
0.0310476,-0.0115201
0.0287054,0.0190723
0.00798617,0.0279759
-0.0151374,0.0128751
-0.0374287,0.00599616
-0.0553426,-0.00667176
-0.0673432,-0.0100777
-0.0625148,-0.0145709
-0.00892317,-0.02271
0.0586132,-0.0292039
0.0378882,-0.00240441
0.00751672,0.0158902
0.0164196,0.00781042
0.0183551,-0.0035199
0.00734084,-0.00891375
0.00646665,-0.0127319
-0.00664121,-0.0116289
-0.013504,0.00245423
-0.00715673,0.0247839
-7.43e-05,0.0191397
0.00237906,0.00169942
-0.0170483,-0.0026248
-0.0167781,-0.0013579
-0.00435102,-0.00775806
0.00418804,0.00650402
0.0234522,-0.00714902
0.0273333,-0.00711955
0.0169187,0.00729712
-0.0207137,0.00958112
-0.0610798,-0.00354475
-0.0538917,-0.00254836
0.00836319,-0.00385021
0.0402433,-0.0104973
0.0138037,-0.012853
-0.0045441,0.00746358
-0.000817312,0.0201902
0.0149758,-0.00707815
0.0210106,-0.00481683
0.0106849,0.021297
-0.00666792,-0.0031949
-0.00595319,-0.04273
-0.0187254,-0.0148478
-0.0247995,0.0176588
0.00667153,0.0221739
0.0401502,0.0285636
0.0335189,0.0347937
-0.00877343,0.0106231
-0.0290838,0.00412333
-0.0154457,-0.0119159
0.00595018,-0.0419173
0.0171895,-0.0324345
0.0185435,0.0324637
0.00236415,0.0378321
-0.000644125,-0.00185749
-0.00197795,-0.00210059
0.00583471,0.00299656
0.0109549,-0.0139197
-0.002056,-0.0192254
-0.0104734,-0.00206416
-0.0109715,0.00345545
-0.00429826,0.0126585
0.0107979,-0.00410553
0.00810703,-0.00809958
-0.00580192,-0.000517423
-0.0131888,-0.000642297
-0.0159348,-0.0109504
-0.0140088,-0.015022
-0.00567532,-0.0182736
0.0160265,-0.018421
0.0130712,0.0145151
-0.0134315,0.0357647
0.00457262,0.0334095
0.0206127,-0.020774
0.00608446,-0.0245988
0.01748,0.000730831
0.0144381,-0.00664711
-0.00940037,-0.0128508
-0.0105669,0.0139993
-0.00856622,0.00567143
-0.0131324,-0.0330965
-0.0231284,-0.0341834
-0.041109,0.0405619
-0.0207103,0.0343862
0.00731527,0.0114789
0.0198928,0.00517176
0.00290305,0.015125
-0.00533741,0.00600455
0.00699588,0.00591375
0.0284652,-0.0215838
0.0370559,-0.0324666
0.0175553,0.020151
0.000350134,0.0141923
-0.0116062,-0.00148294
-0.0173718,0.000215871
-0.00609685,0.0118332
0.00787768,0.00976365
0.00453981,-0.00618596
-0.00127609,-0.00606677
-0.000633973,-0.00179051
0.00624434,0.00749284
-0.0146126,-0.00059853
-0.0276236,-0.0196017
-0.0219445,-0.00809727
-0.0385612,-0.00623816
-0.0407807,0.00247496
0.00629407,0.0210883
0.06679,0.00312697
0.0671696,-0.039888
0.0120064,-0.00665045
-0.00545175,0.0182493
-0.00511372,0.0182921
-0.0207523,0.0097242
-0.0158453,-6.49e-05
0.0251663,-0.0199751
0.028508,-0.0043287
0.0096282,-0.0168338
-0.0141725,-0.0344712
-0.040317,0.0224973
-0.000637298,0.0306215
0.0268795,-0.00369912
-0.0137492,-0.0268745
0.0206762,-0.025513
0.0164333,-0.0117982
-0.00368801,0.00981172
0.0287348,0.0248575
-0.00728296,0.0227776
-0.0335362,-0.0185996
-0.0303326,-0.0160778
-0.0536234,0.0429728
-0.0379816,0.0225289
-0.0323026,0.00431814
-0.0617313,0.00696602
-0.04794,-0.00420649
0.00409857,-0.0117242
0.0204269,0.00635174
-0.061773,0.0207688
-0.0530968,-0.0161513
0.0419459,-0.0534275
0.124296,0.00130036
0.188176,0.0202629
0.171531,-0.0206777
0.0901356,-0.00792039
0.0476572,0.056965
0.0394533,0.029544
-0.00625787,0.0247228
-0.0382348,-0.00616033
-0.0503342,-0.0321606
-0.0672722,-0.0068488
-0.060932,-0.00364955
-0.0630689,-0.0170538
-0.109152,-0.0179493
-0.0835783,-0.0049677
-0.0516327,0.0114795
-0.0740734,0.00862659
-0.0390629,-0.00504327
0.0733611,-0.0180338
0.105864,-0.021886
0.0672046,-0.0224663
0.00250304,-0.012385
-0.0201313,-0.00167789
-0.0156943,0.0181223
-0.0213032,0.040689
0.0244877,0.0439232
0.15824,0.0102466
0.203814,-0.0264279
0.0780104,-0.0176127
-0.0247571,-0.0117618
-0.060502,-0.0197498
-0.0604572,0.00666682
-0.097428,0.0301993
-0.086295,0.0145378
-0.0503987,0.000251723
-0.052138,-0.0143677
-0.0491648,-0.0217654
0.00680516,-0.0103624
0.00209398,-0.002293
-0.0426548,-0.00136909
-0.0576937,0.0169864
-0.0303377,0.0145758
-0.0312708,0.012458
-0.0638886,0.01846
-0.0299061,0.0166985
0.0339069,-0.00880595
0.0504121,-0.010829
0.05516,-0.000752078
0.0924486,-0.00855434
0.0679534,0.000145138
0.039216,0.00226852
0.0361412,0.00553067
-0.0154034,-0.000661587
-0.0196068,-0.0272426
-0.00557927,0.0152856
0.0093895,-0.00409228
0.087886,-0.0155589
0.124139,0.0610389
0.117839,0.0184294
0.0319116,0.00100202
-0.0505172,-0.0571041
0.021861,-0.0399428
0.0966258,0.0307767
0.0678736,-0.0288955
-0.0347913,-0.0333505
-0.248789,0.0333203
-0.383861,0.0513425
-0.124173,-0.00522937
-0.0352302,-0.0278212
-0.162905,-0.00636782
-0.118401,0.00625979
-0.164241,0.0449337
-0.201333,0.0957424
0.00204382,0.0431085
0.225058,-0.0497695
0.382823,-0.0546939
0.315344,0.00314526
0.296732,0.028702
0.257505,0.00527748
0.206967,-0.00332076
0.0530231,-0.0581125
-0.119753,-0.0781746
-0.201036,-0.0666149
-0.217054,-0.0244842
-0.271344,0.0287646
-0.267477,0.0283249
-0.0776218,-0.00908544
0.0459195,-0.00290606
0.0287085,0.0291081
0.222283,0.0189369
0.33642,-0.0165012
-0.0178014,-0.0276785
-0.310618,-0.0240435
-0.218895,0.0009755
0.154045,-0.0527187
0.276294,-0.00966141
0.224943,0.0221503
0.0342041,0.035253
-0.170191,0.0556414
-0.274538,0.0203091
-0.396625,-0.00996389
-0.226412,-0.0265857
0.207191,-0.0113665
0.441319,0.00937656
0.48209,-0.00224317
0.247397,-0.021355
-0.0282494,-0.0490538
-0.111893,0.0385688
0.154052,0.0990652
0.340958,0.0453848
0.235756,0.0263451
-0.179762,0.0238149
-0.602676,-0.0218609
-0.713527,-0.0263217
-0.522377,-0.0109577
-0.244409,0.00330924
-0.05382,-0.015825
0.161528,0.0195342
0.357449,0.0261394
0.26412,-0.00189375
0.16203,0.00250415
0.16331,0.0185565
0.1386,0.0440522
-0.000839487,-0.115493
-0.13028,-0.0899347
-0.178706,0.0159777
-0.0787933,0.00481535
0.0842146,0.0179161
0.0561579,0.0356796
-0.0895841,-0.0105318
-0.178811,-0.0676145
-0.242387,0.00229023
-0.253501,0.143765
-0.266352,0.134565
-0.249512,0.0116427
-0.015675,-0.0309946
0.299979,-0.0163918
0.577633,-0.0144001
0.644925,-0.0706631
0.410927,-0.0419777
0.177898,-0.0198988
-0.074026,-0.0505213
-0.276183,-0.0773466
-0.216192,-0.0473935
-0.132896,0.0510115
-0.072108,0.0924315
0.0287137,0.0422428
0.18237,-0.0049457
0.262744,0.0290348
0.243058,-0.0364309
0.224449,-0.0134763
0.225517,-0.0219801
0.0672818,-0.11406
-0.209564,-0.0263025
-0.491897,0.0632607
-0.564217,0.0362301
-0.304091,-0.0369106
-0.067053,-0.0106552
0.0270126,0.0433205
-0.0196859,0.0898819
-0.0513458,0.0822392
0.0195194,-0.144421
0.0875664,-0.182988
0.0990951,0.0484836
0.0767069,0.0786725
0.0729973,0.0498596
0.168515,0.0600401
0.167971,0.0640492
0.0272913,0.0568387
-0.102094,-0.0502978
-0.148548,-0.17394
-0.147085,-0.127692
-0.157934,-0.0729014
-0.155167,-0.144872
-0.0442604,-0.0374049
0.0503066,0.10368
0.134261,0.210734
0.152228,0.147031
0.0997546,0.191701
0.0755252,0.0950034
0.0836103,-0.0872668
0.101054,-0.0574019
0.0080809,-0.0441849
-0.0691143,-0.0203506
-0.03568,-0.00224677
-0.0219932,0.0355984
0.0198305,0.0210179
0.0219501,0.0230146
0.013263,0.0292029
-0.0220191,0.0278476
-0.0816952,-0.00531562
-0.0882683,0.0430329
-0.123079,0.0570886
-0.0915558,-0.0981272
-0.08425,-0.106262
-0.159862,-0.0921658
-0.156072,-0.0136813
0.145359,0.0263695
0.447475,0.0097651
0.371553,0.00380809
0.124914,-0.0422735
0.0181258,-0.0460071
-0.0640595,-0.00310263
-0.101609,-0.0459611
-0.108907,-0.0606323
-0.160705,0.0270876
-0.157895,0.0442131
-0.110968,0.066032
-0.0547159,0.00264695
-0.0370855,-0.0183656
0.0425646,-0.0250476
0.097801,-0.00113774
0.0850469,0.0107495
0.0731436,0.0430844
0.0775995,0.00773481
0.10475,-0.0460703
0.0474845,-0.0209019
-0.0230418,0.022597
-0.119368,0.0360554
-0.274053,0.0233592
-0.221613,-0.0074887
0.0860631,-0.0174507
0.148617,-0.000224027
0.0322327,0.0464394
-0.0160792,0.0856376
-0.0144515,0.0476655
0.0561917,-0.00627413
0.0817448,-0.027499
0.0423006,-0.0338091
0.0471536,-0.0203069
0.010635,-0.0297681
-0.0831025,-0.0127615
-0.103643,-0.00467878
-0.0355764,-0.0281191
0.118327,-0.033477
0.241287,-0.0384178
0.196467,-0.0152341
0.0804071,0.00347997
-7.92e-05,-0.0341852
-0.0224734,-0.00413515
0.03515,0.105549
0.187751,0.073486
0.135724,-0.0153095
-0.203493,-0.0385843
-0.374241,-0.0282047
-0.338364,0.00644096
-0.26408,-0.0464001
-0.169643,-0.0167996
0.103318,-0.0305584
0.258106,-0.0237353
0.150944,0.045898
0.00677803,0.0750742
-0.0381813,0.00465431
-0.00269532,-0.0323832
0.0379096,-0.0251444
-0.0247878,-0.0607163
-0.0567784,-0.0423149
-0.0587976,0.0726344
-0.0660338,0.0897457
-0.0424221,0.0668378
0.0397864,0.0397798
0.0960241,0.0273163
0.136119,-0.0108672
0.101345,-0.0366233
0.0568557,-0.0297123
0.0531911,-0.0193551
0.0289528,-0.0134717
0.000505136,-0.0250439
-0.0183036,-0.00636355
-0.0543539,0.00441454
-0.104216,-0.0157781
-0.0898171,0.00759722
-0.0645194,0.0084274
-0.0467308,-0.00523813
-0.0171065,0.0205582
-0.00477861,0.0117822
0.0203532,0.0220622
0.0613699,0.0325218
0.101402,0.000705997
0.125653,0.0163843
0.135792,-0.0243008
0.026485,-0.0328503
0.00423732,-0.0150351
-0.00185703,-0.0156038
-0.10713,-0.0249879
-0.120313,-0.0273442
-0.172961,-0.0232681
-0.177645,-0.0163267
-0.0315195,-0.0052534
0.0219179,0.00984005
0.0115094,-0.00695366
0.0373418,0.0109292
0.0280935,0.0183608
0.0303064,0.0197035
0.00233597,0.0358069
-0.0126866,0.0326633
0.0589291,0.029032
0.132685,0.00628089
0.247775,-0.0216006
0.280981,-0.0208922
0.223329,-0.0141374
0.0430947,-0.00637646
-0.184043,-0.0163889
-0.365479,-0.0437061
-0.353761,-0.0377498
-0.148428,0.0220039
-0.0146078,0.0248288
0.0341006,0.0170952
0.0790998,0.029728
0.0353649,0.0146415
-0.0132682,0.00250755
-0.00564253,0.022885
0.023938,0.0158506
0.0361739,-0.0014559
0.057056,0.0004119
0.105431,0.000881321
0.115267,0.0114268
0.0641515,-0.0277172
-0.0639986,0.0023053
-0.132268,0.0490189
-0.0988572,-0.0524134
-0.0376794,-0.0322767
0.000410597,-0.0434226
0.031052,-0.0461818
0.0418862,0.0451815
0.0251135,0.0426574
-0.0209826,0.00718304
-0.0535927,0.0299133
-0.0232872,0.0247417
-0.0163963,0.0136879
-0.0389092,0.01541
-0.0951819,0.0460202
-0.0246158,-0.0325371
0.0809522,-0.0271264
0.0974312,-0.0233527
0.119248,-0.0381435
0.182778,-0.060878
-0.00997964,-0.0102014
-0.233052,-6.7e-05
-0.187491,-0.00665813
-0.0276113,0.0158843
0.115235,0.0441334
0.144786,-0.00450062
0.161015,-0.0101688
0.0541119,-0.0167345
-0.0228345,-0.0130025
-0.0365616,-0.00707398
-0.0741237,0.0118358
-0.0760563,0.0271134
-0.0362681,0.0230929
-0.0120498,-0.00527099
-0.0517455,-0.0322206
-0.0189111,-0.000172345
0.0542636,0.0100402
0.0504654,-0.0181311
0.0296637,0.00464269
-0.0322368,0.0251228
-0.100045,0.0307477
-0.0563448,0.0174468
-0.0182261,-0.00252801
-0.0491369,-0.0029765
-0.0296235,0.00166759
0.0241526,-0.0133509
0.102292,-0.0429813
0.103464,-0.0276429
0.0178929,0.0539847
0.000815659,0.0365497
0.0203049,0.0117643
0.0282744,-0.00993403
-0.00137274,-0.0183326
-0.00897436,-0.0184241
-0.00514199,-0.00418259
0.0189895,0.00557628
0.0222843,0.018095
-0.0319551,0.0357936
0.011019,0.0303108
0.0933014,0.00552738
0.100593,-0.043634
-0.0226225,-0.06059
-0.127429,-0.0146076
-0.0851027,-0.0158768
-0.0219163,-0.000159533
0.00943797,-0.00383116
0.027766,-0.0105615
0.0305167,-0.0116208
-0.00223889,-0.0187235
-0.0373786,-0.0185514
-0.0321928,-0.0144965
-0.0120568,0.0327735
0.0479547,0.0323727
0.104392,0.0221084
0.057215,0.0236466
-0.0533984,-0.0080913
-0.111511,0.00211024
-0.0908942,0.0254734
-0.0465872,-0.00451115
-0.0138459,0.00629728
-0.0096404,0.0113738
0.0405548,-0.00258959
0.0912868,-0.0153801
0.00250597,0.00628155
-0.104463,0.00826638
-0.107131,0.03971
-0.0388341,0.0167998
0.0562279,-0.0209756
0.140901,0.029599
0.093535,0.0480969
0.0394439,-0.00696589
-0.119151,-0.0475614
-0.181324,-0.0461532
-0.0750104,0.00276677
-0.0306743,0.00690372
0.0149842,-0.028878
0.0555849,-0.0257786
0.0680415,-0.00785944
0.0605835,0.00385618
0.0476132,0.00625245
0.0411002,-0.00276836
0.108532,0.00312392
0.188872,-0.0115245
0.117518,-0.0164047
-0.0376427,-0.00572369
-0.0928297,-0.0131947
-0.0476534,-0.00557752
0.00656963,0.0566989
-0.0705971,0.0632323
-0.157694,-0.0245201
-0.0713469,-0.0151025
0.0612834,-0.00608874
0.066208,-0.0370238
0.0178932,-0.0417754
0.00624944,0.0305846
0.0117005,0.042034
-0.0455919,0.0109803
-0.102834,0.0356901
-0.11272,0.013198
-0.0527893,-0.0273655
-0.00682692,-0.0300526
0.0396175,0.0122478
0.0436261,0.00100291
0.0454055,-0.00420751
0.0402367,-0.00725787
0.0132484,-0.0148126
-0.000706867,0.00947699
0.0313123,0.0131458
0.103981,0.00908908
0.175747,-0.00792398
0.182459,-3.78e-05
0.0787262,-0.00349937
-0.050327,-0.0428033
-0.195562,-0.0520616
-0.244847,0.000941407
-0.183068,0.0154687
-0.0674536,0.0172744
0.0235488,0.0139282
0.0281643,-0.0428662
0.0475059,-0.0198532
0.0763722,0.00378713
0.0773518,0.0098129
0.0466834,0.00828997
0.0190262,0.00169013
0.00596681,0.00855289
-0.0160327,-0.0278517
-0.0394945,-0.0196569
-0.0456524,0.0247114
-0.0377976,0.0188877
0.00700267,0.0315589
0.0178347,0.0683148
-0.0372529,0.00863456
-0.0549597,0.0175559
0.0162757,0.0115965
0.0553723,-0.0341446
0.0396099,-0.00934063
0.0343391,0.0736215
0.0152305,0.0152974
0.000828594,-0.103318
0.0165355,-0.0601926
-0.0227921,-0.00896201
-0.0486329,0.00346269
-0.0474106,0.0201713
-0.0563611,0.0219673
-0.03453,0.0110641
0.0136127,0.0028197
0.0183132,-0.00210973
0.00233869,-0.0100645
0.0155657,-0.0191584
0.0615735,-0.0269349
0.0512981,-0.00825615
0.0786921,0.0067304
0.0877053,0.00954643
0.0284739,0.0220189
0.000946444,0.0324196
-0.0134015,0.0138074
-0.0719499,0.0149874
-0.0671622,-0.0176026
-0.0306827,-0.0770355
0.0351468,-0.0202677
0.0443762,0.0437882
-0.0169283,0.030702
-0.0575666,0.0105037
-0.0317575,-0.00236078
-0.0577375,0.00103723
0.026204,-0.0226841
0.0924247,-0.0228548
0.0454733,-0.00113825
-0.0127644,0.0186922
-0.0313816,0.0220406
0.0039748,0.00741349
-0.0103477,0.0240873
-0.0823658,0.0200574
-0.0564692,-0.00102683
-0.0680848,-0.015101
-0.0467872,-0.0204573
0.0245775,-0.00158939
0.025497,0.0102756
0.000993499,0.0445285
0.00730126,-0.00680903
0.0529247,-0.0351731
0.0580339,-0.0207082
-0.108603,-0.028427
-0.161139,-0.00564089
0.068013,-0.00373382
0.15599,-0.0171785
0.0946336,0.0395869
0.0551548,0.0269143
0.0259293,0.0174957
0.0302358,0.00351367
-0.0432606,-0.0124547
-0.104757,-0.0230885
-0.0561054,-0.0209045
0.00727958,-0.0102525
0.0492347,0.000413984
0.0318611,0.00506087
0.0347527,0.00535454
0.099393,0.00767894
0.0636268,-0.00503497
-0.000560121,-0.0264234
-0.0385507,-0.00497234
-0.0850403,0.0550837
-0.0786345,-0.0143198
-0.0182048,0.00852524
-0.0196577,0.0222291
-0.00961146,-0.0228882
0.0553794,-0.000230608
0.153103,0.0272494
0.155888,0.0109223
-0.0147689,-0.0153347
-0.160308,-0.0560729
-0.167932,-0.0108645
-0.0477877,0.00900267
0.0105978,0.031157
-0.0673363,0.0331651
-0.0524722,0.00546069
0.0177535,-0.0214869
0.0258269,-0.0150972
-0.0716789,-0.0148727
-0.0834627,0.00434177
0.0891401,0.0131755
0.0711299,0.00186212
-0.0120834,0.022801
0.00447247,0.00324395
0.0415707,0.00492753
0.0576383,0.00155378
0.0296605,-0.0247876
-0.0156828,0.00373013
0.0267697,0.00471665
0.0466937,-0.0135587
0.0596542,0.000338288
0.0418472,0.00419133
-0.0136038,0.017082
-0.0250935,0.00704728
0.00056563,-0.0318263
-0.0165498,-0.0132124
-0.0557564,0.0223489
-0.0743049,-0.00153513
-0.0833575,-0.00612566
-0.0719092,0.0218338
-0.0381685,0.0101966
-0.0070056,-0.00927518
-0.0494894,0.00828069
-0.0745573,-0.0134035
0.0277224,-0.0391396
0.128161,-0.0167277
0.108905,-0.00863464
0.0716413,0.00555461
0.0424983,0.0174101
0.106215,0.00173068
0.162409,0.00221492
0.194613,0.0172534
0.135051,0.0632717
-0.0638146,-0.0127414
-0.201322,-0.0688232
-0.135913,-0.0497488
-0.0948998,-0.00600696
-0.0816903,0.0026143
-0.0106448,-0.00144005
-0.0164158,0.0123413
-0.148275,0.00455074
-0.16514,0.0230544
-0.0442868,0.0165884
0.0932093,0.033744
0.0899147,0.0265342
0.0416819,0.0346557
0.0378596,-0.0194799
0.0599687,-0.101569
0.036924,-0.101167
-0.0807276,-0.0322661
-0.0898387,0.0923899
0.0144603,0.062357
0.0589376,0.0453011
-0.00502081,0.0182571
-0.0360005,-0.0354096
0.0450782,-0.0125506
0.0879946,0.0806105
0.0770965,-0.0340434
0.0430696,-0.0451703
0.0192356,-0.0207852
-0.0202321,-0.0219173
-0.0269063,-0.00452631
-0.00861041,-0.0179761
-0.0279436,-0.00522322
-0.0882538,0.0106862
-0.0664365,0.00704533
0.0109287,0.00449271
0.0638119,0.0275052
0.122502,0.0269599
0.106605,0.024828
0.0119972,0.00551906
-0.0186863,-0.0451961
-0.00236287,-0.0498156
-0.00232127,-0.0322793
-0.0811349,0.0141068
-0.115185,0.0253257
-0.0652989,0.0188854
-0.0350922,0.0029798
-0.0298511,0.00757231
-0.0502531,0.0257003
-0.0305593,0.0251826
-0.025389,0.0174037
-0.0394938,0.0408598
-0.02347,0.0447416
0.0345819,-0.00943366
-0.00569194,-0.0398811
-0.000275119,-0.0400191
-0.00815756,-0.0243539
-0.0340969,-0.0206934
0.0789806,-0.0261649
0.207388,-0.021527
0.108569,0.0133868
0.0176309,0.046519
0.058235,0.0236748
0.0331904,-0.0177736
-0.0287212,-0.0142513
-0.0608099,-0.000694296
-0.0341539,0.0443687
0.0291482,0.00711942
0.0241468,-0.0248549
-0.00155704,-0.00218691
-0.0101974,0.00423899
-0.0268385,-0.00968326
-0.0348388,-0.0221934
0.0089439,-0.0224633
0.0351065,-0.0202047
0.0152265,-0.0156048
-0.0199004,-0.000575196
-0.0523347,0.0160073
-0.0622988,0.0121472
-0.0145124,0.00493689
0.0139378,0.0292632
-0.0178114,-0.0137366
-0.029862,-0.0291161
-0.00782366,0.00274404
0.00986462,0.00443961
0.0197537,-0.00812026
0.0158643,0.0114174
-0.00820826,0.013981
0.025456,-0.00809241
0.0804921,0.0151955
0.0291838,0.0505324
-0.076497,0.0105511
-0.0142648,0.00957544
0.0982629,0.039985
0.0643083,0.0322273
-0.0813038,-0.0593515
-0.19774,-0.0655288
-0.127376,-0.0379457
0.042977,-0.018724
0.141102,0.0234648
0.120185,0.0109462
0.0603334,-0.00730052
-0.0502255,0.00503045
-0.112511,-0.000239482
-0.0783363,0.0118718
-0.0732768,0.0467392
-0.104399,0.0309829
-0.0225369,-0.00989952
0.101473,-0.0637086
0.0889971,-0.0377816
0.0587107,0.00152895
0.059967,0.0167112
0.0426649,0.0339075
0.0368519,0.00501257
0.0327731,-0.00648976
0.00542923,0.00964662
-0.00987306,-0.00808911
-0.00691855,-0.00313589
-0.00219559,-0.00680886
0.0091457,0.00263436
-0.0147569,0.00784534
-0.0535297,-0.00128053
-0.0539568,-0.00537562
-0.0425312,-0.0107296
-0.0101016,-0.0267131
0.0414926,-0.0272088
0.0341875,-0.0101587
0.0119309,0.00830269
0.00908062,0.00112716
0.0309968,0.000402229
0.00944163,0.0100749
-0.0708583,0.0228798
-0.125084,0.0221612
-0.079729,0.0239068
0.0005623,0.0557871
0.118273,0.0820801
0.24135,0.00746751
0.252516,-0.0857632
-0.00349576,-0.0907418
-0.154652,-0.0727241
-0.223379,-0.0515317
-0.161103,0.0211263
-0.017387,0.00278106
0.0314031,0.02075
0.0439036,0.0529037
0.00987191,0.0601512
0.0280322,0.0517278
0.0318548,-0.0500365
-0.0724517,-0.0342323
-0.0993839,-0.0128559
-0.00398334,-0.0142065
0.0415281,0.00720383
0.026079,-0.00320317
0.020666,0.0132919
0.016274,0.0186382
0.00725284,0.0141466
0.0173797,0.0138361
0.0313505,0.00243121
0.0237011,-0.022598
0.0170842,-0.0202465
0.0336622,0.00409667
0.0302884,0.0122952
0.0160443,0.00190119
0.00693141,0.000690925
-0.00338487,0.00142831
-0.011741,-0.00148473
-0.0132541,-0.00400897
-0.0095414,-0.00245792
-0.00324601,-0.00357725
-0.00221654,0.00521267
-0.00104134,0.0120251
-0.00282491,0.00193706
-0.0022452,-0.010563
0.0011399,-0.014651
-0.000403639,-0.0203294
-0.00142563,-0.0218659
-0.0159779,-0.00858856
-0.0265283,0.0114857
-0.0237656,0.0184161
-0.0238601,0.0156651
-0.0362106,0.00707954
-0.0399001,0.015639
-0.036974,0.000697197
-0.0205699,-0.0174186
-0.0167685,0.00144592
-0.000120797,0.0136505
0.0852245,0.0560401
0.107831,0.060863
0.0952381,0.00870121
0.0967454,-0.0219448
0.0819646,-0.0499458
-0.0197983,-0.0509513
-0.110869,-0.0490726
-0.104369,0.00535803
-0.071589,0.031421
-0.0129567,0.00890368
0.0143677,-0.0293712
-0.037888,-0.0192223
-0.0455668,-0.00835612
-0.0100894,-0.0141554
0.025306,-0.00360842
0.0592402,0.0126274
0.0736317,0.0473896
0.0340699,0.0975545
0.0014593,0.0387648
0.0245253,-0.0157595
0.0207641,-0.0589448
-0.0906114,-0.0585457
-0.184887,-0.050352
-0.0778253,0.00427655
0.0461341,0.0260319
0.0547257,0.0231304
0.0526048,0.00795379
0.0244917,-0.0246678
0.000409325,-0.0334945
-0.000926513,-0.0226187
-0.00283826,-0.0158345
-0.00482789,-0.00298312
-0.00116618,0.00400216
0.0102524,0.0158892
0.0200628,0.0203307
0.0118955,0.0136566
0.00345769,0.00786419
0.0106835,0.00746366
0.0235976,0.00488917
0.0303111,-0.000108485
0.0259,0.00164816
0.0188084,0.0136448
0.0170489,0.0158025
0.0199241,0.00942977
0.0197172,0.00347732
0.0124414,-0.00384036
-0.00593795,-0.0118185
-0.0209638,-0.0119521
-0.0276963,-0.00735773
-0.0257809,-0.00626797
0.00820524,0.002134
0.0252707,0.0041004
-0.00491903,-0.00220684
-0.0433023,-0.00221972
-0.0273664,-0.0058298
0.00410426,-0.00887436
-0.00233715,-0.00739824
-0.0541591,0.00417373
-0.138233,0.0169417
-0.165523,0.0230205
-0.127223,0.0144524
-0.0240179,0.0302424
0.0389189,0.0402691
0.0138917,0.00697701
0.0212662,-0.0167583
0.124969,-0.0428901
0.140679,-0.049972
0.127329,0.00377383
0.11149,0.0473411
0.067291,0.0224355
0.0154504,0.00310222
-0.010914,0.0148339
0.0204089,0.0210919
0.093793,-0.0184303
0.0668345,-0.0230855
-0.0128702,-0.00248228
-0.0114507,0.00838309
-0.00449681,-0.0212615
-0.0221366,-0.0503065
-0.0332712,-0.0130676
-0.100893,-0.0118439
-0.137806,-0.0199829
-0.0975255,-0.0107535
-0.0756732,0.0171589
-0.0559739,0.0324523
-0.0502412,0.0298518
-0.0344194,0.00494562
-0.00728767,-0.0214264
0.0257334,0.00686197
0.042111,0.00933427
0.0646143,-0.017674
0.0636234,-0.0125568
0.056202,-0.00302729
0.0486849,-0.0134319
0.0358753,-0.0189791
0.0228953,-0.0313532
0.014765,6.39e-05
0.00563395,0.0385343
-0.00604674,0.0204769
-0.0321704,0.0130362
-0.0474206,-0.00587244
-0.0232975,0.00763143
-0.000181108,0.0133502
0.0068923,-0.00525264
0.00865229,-0.014794
0.0129066,-0.00546946
0.0184992,-0.00723787
0.004751,0.0201146
0.015901,-0.00916243
0.0402655,-0.0102383
0.0170478,-0.00203277
0.00369029,0.0241607
-0.0563111,-0.00465975
-0.0866785,0.000770305
-0.0155634,0.0302624
0.0529954,-0.03143
-0.00411821,-0.0331529
-0.0465245,0.00459457
-0.0950541,0.0135306
-0.072668,0.0122554
0.00172216,0.000697392
0.000884738,0.00864448
-0.0390221,0.018805
0.0571461,-0.000401455
0.102022,-0.0123336
0.067862,0.00247439
0.0174961,-0.00477668
-0.0119196,-0.00770139
-0.0291794,-0.0104568
-0.00794204,-0.0182897
0.0347065,0.00997177
0.0691222,0.0204336
0.0676419,0.00940725
0.0624136,-0.00134047
0.00924061,0.00410096
-0.0499559,-0.00371568
-0.0285752,-0.00980275
-0.00245982,0.0126037
-0.0289055,0.0209036
-0.0601732,-0.00219785
-0.0430479,-0.0206171
-0.00639177,-0.0257881
0.0432544,0.0133571
0.0632149,0.0249567
0.0351554,-0.000345528
0.0580136,-0.0294127
0.0446107,-0.0443303
-0.0607478,-0.0177163
-0.118695,0.0121527
-0.12668,-0.0122622
-0.0665091,-0.00641947
0.00711597,0.0310647
0.0580932,0.0255323
0.0241173,-0.0107351
-0.05138,0.0458806
-0.097184,0.0166224
-0.0592021,0.00407258
0.0555417,0.0227182
0.0886689,0.0208085
0.117401,-0.01073
0.0826815,-0.00918016
-0.0548889,-0.0191721
-0.0762338,-0.010731
-0.0176721,-0.0104895
0.0116894,-0.00896392
0.0117642,-0.0293772
0.00472222,-0.00499108
-0.00309733,0.00388021
-0.0117381,-0.011847
-0.00369,0.00640152
-0.00183734,0.00935782
0.028822,0.00290051
0.0332409,0.0114996
0.0347978,0.00557148
0.0366757,0.00932467
0.0204113,0.00428116
0.0170744,-0.00147186
0.0197887,0.0266061
0.0154658,-0.0199747
0.00513123,-0.033012
-0.0252269,-0.0195238
-0.0374985,0.000266417
-0.0481735,0.0172231
-0.062115,0.0136145
-0.038226,0.004384
0.00740262,0.0125156
0.039204,0.012834
-0.0222098,-0.0245519
-0.0204899,-0.0242114
0.0397618,0.00160708
0.0565202,0.0240352
0.00373024,0.0362175
0.0229817,0.0184041
0.0691873,-0.00906437
0.0420038,-0.0273153
-0.0453472,-0.0154035
-0.0945465,-0.0313207
-0.0844121,-0.00614331
-0.023149,0.00862244
0.0276337,-0.00496955
0.0108821,0.0574426
-0.0187709,0.0518368
-0.0497099,0.0418187
-0.0279414,-0.0271406
0.0274303,-0.0995543
0.0634354,-0.0398592
0.10871,0.00419485
0.0353962,0.0234187
-0.0838872,0.0394745
-0.0556819,0.0220954
0.0342829,0.0226389
0.0468431,-0.0133563
-0.0234807,-0.0421034
-0.0862929,-0.0423467
-0.0491624,-0.0304489
0.0654809,-0.014182
0.0912568,-0.0392576
0.0884798,0.00798762
0.0246243,0.0378026
-0.0455212,-0.0122703
-0.0563996,0.0164274
-0.0609532,0.0207493
-0.0418554,0.0124139
0.00525831,0.0151317
0.0387507,0.0118427
0.0214935,0.00828957
-0.00435446,0.0128679
-0.0159421,0.0294389
-0.00710539,-0.0352572
0.00376261,-0.02963
0.0159133,0.000692014
-0.00467741,0.000259637
-0.0159294,0.00814686
-4.48e-05,0.0216502
0.0270308,-0.0245007
0.00818295,-0.0307431
-0.015914,0.0111504
0.0309096,0.0419233
0.0240907,-0.0225565
-0.0273796,-0.043905
-0.0566354,0.0372455
-0.0092482,-0.0198457
0.0234554,-0.0467824
-0.000744557,0.00360753
-0.0116477,0.0183561
-0.0119633,0.0182024
-0.0222424,0.0177964
-0.00652667,0.0174772
0.0367293,0.00969553
0.0146705,0.0109911
-0.0509503,0.0237689
-0.00736046,-0.0081654
0.0694504,-0.0279272
-0.0135967,-0.00448443
-0.0591168,0.00863774
-0.0368468,-0.000249155
0.0834358,0.00459909
0.109179,0.0145258
0.0338636,-0.0143572
0.0165703,0.0494201
-0.0246129,0.0445774
-0.086021,-0.0255424
-0.115235,-0.0324791
-0.113927,-0.0150917
-0.0147286,0.000881472
0.059473,-0.021441
0.059141,0.0429364
0.0690155,0.00710179
0.0432275,-0.0188316
0.00518352,-0.0338246
0.0116331,-0.00993169
0.0385823,0.0230567
0.0476973,0.0111917
0.0121698,0.028056
-0.0442759,-0.00344915
-0.0419751,-0.0433667
-0.0396179,-0.0194513
-0.0246041,0.00768149
-0.000152621,0.00769925
0.0179126,0.029957
0.0324319,-0.0400919
0.0270316,-0.0472146
0.00293987,-0.0169284
-0.00861756,0.0163927
0.0196598,0.0205167
0.0216229,-0.00702622
-0.0181651,0.0206767
-0.0299458,0.0469869
-0.0463103,-0.0430413
-0.0529356,-0.0619808
-0.0214374,-0.0123036
0.0158439,0.0263658
0.0168989,0.0258886
-0.00880487,-0.00732864
0.0226417,0.0242105
0.0451757,0.0218296
0.0682173,-0.0385967
-0.00534797,-0.0193884
-0.0550881,0.00192883
-0.0571188,0.0121556
-0.0323513,0.0240282
0.0087451,0.0138144
-0.0284767,-0.000640102
-0.00807979,0.00291586
0.00216412,0.0125398
0.0125704,-0.00319539
-0.00924918,-0.0240911
-0.0176406,0.00368062
0.032078,0.0219827
0.0550738,0.0127119
0.0498165,0.000623331
0.0863786,-0.00587809
0.0858608,-0.022174
-0.00880168,-0.0259286
-0.0342855,-0.00860938
-0.0147095,-0.00427571
-0.0349789,-0.0235497
-0.0759396,-0.0144211
-0.0613955,0.0318105
-0.0286739,0.0355754
0.0251557,0.0236412
0.0478289,0.00604358
0.0227262,0.00392431
-0.0101427,-0.00198128
-0.00506045,0.0374992
0.00695121,-0.0114872
-0.0422438,-0.00241502
-0.091027,0.0277202
-0.0774719,-0.00721369
0.000793045,-0.0630022
0.0536096,-0.0213119
0.0670413,0.0274744
0.04716,0.0312119
0.0129836,0.0180525
0.0171565,0.00473401
0.0409096,-0.00965441
0.0527787,-0.0312196
0.045107,-0.046587
0.00866021,-0.0133611
-0.0469534,-0.00332784
-0.0692501,-0.0119547
-0.0478887,-0.0118179
-3.08e-05,0.0215193
0.0508111,0.0111722
0.0229073,0.00364111
-0.0805883,-0.00398655
-0.0823868,0.0137125
-0.051585,0.0119888
0.00541975,-0.00874192
0.0725997,0.0145767
0.0666183,0.04396
0.0480535,0.019684
0.0353575,-0.0150739
0.0155134,-0.0324739
-0.0242663,-0.0370488
-0.0517039,-0.0183446
-0.0511369,0.0130597
-0.0269642,0.0206432
0.0196261,-0.0131183
-0.0115492,0.0167117
-0.0298544,0.0162918
0.024788,-0.0221564
0.0213914,-0.0105763
-0.00419811,-0.00737966
0.0333736,0.00542302
0.0580342,-0.0076532
0.00276751,0.0276734
-0.0305765,0.0722797
-0.0472566,0.0408982
-0.0702177,0.0341989
-0.0476347,-0.0533558
0.0560203,-0.0794119
0.115087,-0.00545524
0.046992,0.00307271
-0.070053,0.010325
-0.0688142,-0.0144826
0.0212842,-0.0341628
0.0911357,-0.0134066
0.0821944,0.00900201
-0.00203845,0.00858207
-0.110254,-0.0175022
-0.138253,0.0302326
-0.031412,-0.00849675
0.0498912,-0.00231205
0.070878,0.00737513
0.0478054,0.0109972
0.0606029,0.00334925
0.0432708,0.0112719
-0.0103455,-0.00390366
-0.0318999,-0.0302248
-0.030326,-0.00767673
-0.0544511,0.0105471
-0.07851,0.00259213
-0.0800949,-0.00193776
-0.0248695,-0.0020902
0.0354177,0.00714905
0.0428486,-0.0017295
0.0159163,-0.00353364
0.000677166,0.00926997
-0.0105022,-0.00117121
-0.0128186,-0.00842143
0.00243357,-0.000986802
0.0364452,-0.0330265
0.0690119,0.0199282
0.0788565,0.060151
0.0348072,-0.0165996
-0.0106677,-0.0187137
0.00658461,-0.00814989
0.0433173,0.012303
0.012051,0.0388761
-0.018279,0.0234031
-0.0430673,0.0238583
-0.0314643,-0.0202004
0.0156317,-0.0401894
0.0236018,-0.0535294
-0.0528199,-0.000784055
-0.0833639,0.0154565
-0.049651,0.0473564
-0.0251466,0.0103696
-0.00232521,-0.0268355
0.0188218,-0.0171524
0.0289006,-0.023599
0.0395619,-0.0212404
0.0287079,-0.00350752
0.00446828,0.0176746
-0.0287031,0.0283213
-0.0346369,0.0206279
0.0243373,0.0126216
0.0800928,0.00218461
0.0386026,-0.00822429
-0.0325027,-0.00682565
-0.0339116,-0.00579551
-0.033195,-0.000278974
-0.0188334,0.00033313
-0.0207559,0.0160729
-0.0859047,-0.000227745
-0.0719369,-0.0242943
0.02516,-0.00990423
0.0256632,-0.0139823
0.00726797,-0.0242734
-0.0121151,0.00531324
-0.00907631,0.041245
0.0062069,0.0445354
0.0140396,-0.00351579
0.0736703,-0.018001
0.0904281,-0.0313635
0.0705997,-0.0218218
0.0322971,0.035676
0.0409701,0.0121583
0.0815764,-0.0291211
0.0882596,0.0170208
0.0604077,0.0260753
-0.0495195,-0.0209535
-0.206313,-0.0186728
-0.205363,-0.0116
-0.0925766,-0.015333
0.0348471,0.0447949
0.149068,0.0664619
0.16245,0.00727667
0.0199966,-0.0417342
-0.110023,-0.012206
-0.11814,0.00780943
-0.0676291,-0.0148336
-0.0236016,-0.0451629
0.00639825,-0.0223997
0.00736662,0.0110621
-0.00405939,0.0194805
0.00327186,0.0197757
-0.00430155,0.0288365
0.00430076,-0.0107079
0.0311687,-0.0566449
0.0290191,-0.011748
0.00688627,-0.00237628
-0.0114156,-0.00874302
0.0169871,0.00387477
0.0280517,0.022307
0.00605575,0.0319734
0.0141072,-0.0097307
-0.0185844,-0.017355
-0.0154938,-0.00128757
0.00406248,0.00924478
-0.000239373,0.0142491
-0.0218422,0.00642181
-0.000586171,1.39e-05
0.0170926,-0.00332485
0.0119498,-0.0101188
0.00624032,0.00593981
-0.0047988,-0.00426188
-0.0468343,0.00714293
-0.0535908,-0.0196334
0.00328609,-0.0205421
0.10113,0.0415722
0.147027,0.124377
0.171755,-0.00826693
0.13979,-0.0557747
-0.00870936,-0.0387298
-0.141249,-0.0282947
-0.210219,-0.00191625
-0.137145,0.034628
0.0288419,0.0221693
0.0907367,0.0160221
-0.00123657,0.00687994
-0.112232,-0.0337342
-0.141089,-0.0335684
-0.123379,0.000905331
-0.0190868,-0.0028039
0.0165794,-0.0309874
0.0163002,-0.0153909
0.0626128,0.00321684
0.041924,0.0033144
0.00342263,-0.0011236
0.00948493,-0.00127725
0.017481,-0.00698707
-0.00508935,0.00300578
0.021743,0.0181602
0.0601522,-0.0261522
0.0607587,-0.0116083
0.0206839,0.0110195
0.0179059,0.0207171
0.0434446,0.0195486
0.0418515,-0.0108906
0.0168475,0.00675871
-0.00355534,-0.015827
-0.0186615,-0.0475103
-0.0302076,-0.0118072
-0.0122627,0.01635
-0.0180324,0.030431
-0.0505441,0.0512918
-0.0716183,0.0401243
-0.0414173,-0.000320155
-0.0323639,-0.02415
-0.0510025,-0.00715648
-0.0299575,0.0184929
0.0163434,0.0192105
0.192192,0.0740736
0.301109,0.0275795
0.311451,-0.0251977
0.160935,-0.0512914
-0.0976578,-0.0472189
-0.27983,-0.0466618
-0.32137,-0.0260334
-0.249501,-0.0146704
-0.0895787,-0.023293
-0.00187535,-0.0167346
0.0132946,0.00439594
0.0117963,0.0439409
0.00897514,0.0246567
0.0374466,0.00410957
0.0735197,0.0150268
0.0595791,0.016095
0.0253456,0.0129907
0.036363,-0.0090973
0.0482481,-0.00642188
0.0255708,0.0124183
0.0162021,-6.45e-05
-0.00152142,-0.0175155
-0.00776356,-0.0140889
0.00266064,0.00137956
0.0178475,0.0153744
0.0239667,0.0259228
0.0226259,0.0225814
0.0275964,0.0276486
-0.00780545,-0.0116139
-0.0568651,-0.0255123
-0.0404775,-0.0149937
-0.0306977,-0.0131123
-0.0689859,-0.00988918
-0.0755433,-0.000702526
-0.0395094,-0.00327708
-0.0220157,-0.0153813
-0.0169678,-0.0204569
4.72e-05,-0.0102227
0.0237415,-0.0119826
0.0255568,-0.0138427
0.0271877,0.00638945
0.0402825,0.0135353
0.029193,0.00280618
-0.000877906,0.00710405
0.0372816,0.0148031
0.0777133,0.00157304
0.0657197,0.0421586
0.0693743,0.0641022
0.0589085,0.0229626
0.0317254,-0.0463353
0.0796549,-0.025469
-0.0204207,0.0469881
-0.17978,0.0582602
-0.185144,-0.00673091
-0.0923536,-0.0703655
-0.0293732,-0.0714235
-0.0221047,0.0136466
-0.0177761,0.0269816
0.0116848,0.00433183
0.0215435,-0.0316191
0.0284415,0.00496889
0.0418787,0.0305614
0.0202899,-0.0113594
0.00536156,-0.0246299
0.0096427,0.0118009
0.00909034,-0.00508231
0.00501004,0.00118329
0.0158395,-0.00533099
0.0263526,-0.0296762
0.0224197,-0.0216386
0.0137523,-0.0151035
0.00399925,-0.0124968
-0.00283482,-0.00785121
0.00576141,-0.00999092
0.0159601,0.000963068
0.00434262,0.0309698
-0.0133472,0.0134223
-0.0181232,0.00394069
-0.00935177,0.00314594
-0.00346766,-0.0103276
-0.00987594,-0.0109816
-0.0249164,0.00360558
-0.0358172,0.00998226
-0.0266325,0.0172739
-0.0258493,0.0079335
-0.0444243,-0.00250414
-0.045388,0.00675598
-0.0131465,0.0265359
0.0109811,0.0358253
0.0735817,-0.00614617
0.12347,0.0273247
0.157923,0.0148214
0.199672,0.0351418
0.161003,0.0467928
-0.000334342,-0.0530075
-0.148241,-0.0995877
-0.185523,-0.0486009
-0.247921,0.0190156
-0.234866,0.00910632
-0.111915,-0.00310425
0.049836,0.0198161
0.148383,-0.00437693
0.132864,-0.0291996
0.0663775,0.0100826
-0.00064176,-0.000870674
-0.0182277,-0.017638
-0.0233558,-0.0324078
-0.0237731,-0.021726
0.0186702,0.0155748
0.0364589,0.0332408
-0.00050149,0.0319011
-0.0372638,0.0118594
-0.0188725,-0.00454805
0.00321976,-0.00615348
0.0129847,-0.00260678
-0.00177557,-0.00173652
-0.00417143,0.00890921
0.0281242,0.0149245
0.0275386,0.00187179
0.00119423,-0.0112941
-0.0127367,-0.00735171
-0.0251738,-0.00432623
-0.0387465,-0.00908697
-0.0183191,0.00414172
-0.00546343,0.0249355
0.00735429,0.0295774
0.0725753,-0.00369332
0.0587214,-0.0263526
0.038213,-0.0239015
-0.0285359,0.0176217
-0.0954468,0.00592035
-0.0503578,-0.00577215
0.0151269,0.00543196
0.0698062,0.0138868
0.0822428,0.0119789
0.0821287,-0.0134959
0.103391,-0.015198
0.018565,-0.0158496
-0.0685848,-0.0235698
-0.104397,-0.024079
-0.0782028,-0.0113899
-0.0149008,0.00735052
-0.00248009,0.0172
-0.00188866,0.00973126
-0.00410902,0.0295028
0.00049463,0.0417819
0.0184283,0.00500568
0.0223768,-0.0381393
0.0128526,-0.00851672
-0.000696897,0.00029696
-0.0135305,0.00259897
-0.0252186,-0.00270359
-0.048277,0.00291697
-0.0710353,0.00905485
-0.0258671,0.0111792
0.0730747,0.00937975
0.0406412,0.00800097
-0.0686583,-0.00190094
-0.0637905,0.0131911
0.0114733,0.0143379
0.0366196,-0.0228258
0.0242954,-0.0274605
0.0144906,-0.00558402
0.0543154,-0.00249373
0.040192,-0.00404085
0.0238952,-0.00914893
0.0211197,-0.002581
0.00397289,0.0156772
0.0306162,0.0093236
0.0824668,0.0161694
0.0576301,0.025225
-0.0168671,-0.0246964
-0.0725495,0.019103
-0.0550829,0.00734204
-0.0501317,-0.0190889
-0.082429,-0.0132572
-0.0521734,-0.000813963
-0.0552072,-0.00057188
-0.0222346,-0.0162731
0.0588257,-0.0164366
0.10152,0.00606151
0.0578975,0.0229583
-0.00690072,0.0129245
-0.0547832,-0.021691
-0.0484166,-0.0310936
-0.028132,-0.00976264
0.00180382,0.00419654
-0.00184436,-0.0124688
-0.0205088,-0.00674151
-0.0223774,-0.00558019
-0.0135175,-0.000556452
-0.00444572,0.00172866
0.00314103,0.0167203
0.016695,-0.00391621
0.0353057,-0.0240071
0.0435506,-0.0152925
0.0423502,-0.0118288
0.01175,-0.0187267
-0.0262602,0.0170959
-0.0288509,0.0227601
-0.0307201,0.0365079
-0.0327474,0.0313969
0.000982755,0.0206378
-0.0361052,0.0204336
-0.0108665,0.0181555
0.0405265,-0.00796765
0.0388555,-0.0126237
0.0614534,0.0068255
0.0906908,0.0543602
0.0676494,0.00954124
0.011243,-0.0716823
-0.00562931,-0.0464067
-0.0848267,-0.041023
-0.0663144,-0.0179175
-0.0135301,-0.0211901
-0.010159,-0.00354256
-0.0108472,0.0177544
0.020808,0.00901571
0.0548674,0.00377189
0.106461,0.0367865
0.185508,0.0103498
0.0964402,0.0290848
-0.0873903,0.0133017
-0.194697,-0.0160209
-0.142996,0.00156319
-0.0440373,0.0152976
0.00907205,-0.000928104
0.0079695,0.0203148
0.00492071,0.0101211
-0.00127675,-0.0443068
-0.0251232,-0.0321494
-0.0762345,-0.0160149
-0.0799503,0.00452639
-0.0245091,0.00916259
0.00378155,-0.00769405
0.0323744,-0.000253033
0.0349708,0.00857313
0.00261863,0.00492087
0.0184425,0.0290913
0.116887,0.00607798
0.161148,-0.0308925
0.120123,0.00862458
0.0367329,0.0432788
-0.0613418,0.0102044
-0.112301,-0.0196104
-0.0836061,0.0224426
-0.0295153,0.0218296
-0.0187699,-0.0385935
-0.00835922,-0.0450655
0.0237479,-0.0143382
0.0175829,0.0263358
-0.0237461,0.00405475
-0.0532018,-0.0155581
-0.0642163,-0.00793336
-0.0433064,-0.00416432
-0.0131492,0.00513675
0.00252384,0.0145173
0.026285,0.00973212
0.0259654,0.00986134
0.00691451,-0.000141883
0.00889085,-0.00939691
0.014766,-0.00119867
0.0174033,0.00288785
0.0323783,-0.00177541
0.029262,-0.00235389
0.0156966,-0.00462813
0.0104649,0.00601066
-0.00891152,0.00978227
-0.0179045,-0.00169683
-0.0249852,-0.0154961
-0.0284857,-0.00155862
0.00518983,0.0145348
0.0829878,0.00399896
0.126533,0.0019632
0.0967818,0.000964417
0.0176862,-0.0165713
-0.0827883,-0.0231006
-0.0933921,-0.0142057
-0.0548668,-0.00537174
-0.056155,-0.00893775
0.000791158,-0.020499
0.0425687,0.00665166
6.22e-05,0.0377602
-0.00980407,0.0340415
0.00986679,0.0125971
-0.0276358,-0.0185636
-0.0813712,-0.0348768
-0.084935,-0.00830519
-0.0286693,0.00616037
0.0140491,-0.00305639
0.0230414,0.0205185
0.0204174,0.0188374
0.0110733,-0.0153501
0.0324945,0.0172469
0.0508114,0.0153099
0.033756,-0.022863
0.0161923,-0.000286468
0.0215395,0.00660848
0.0404056,-0.028901
0.0274497,-0.00299961
0.00947525,0.0408901
-0.0120555,0.0116718
-0.026335,-0.00703108
-0.0383838,0.00798033
-0.03801,0.00279749
-0.0388537,0.0264386
-0.0501145,0.0151629
-0.0221471,0.0139832
0.0546598,-0.0022116
0.0697861,-0.0428505
-0.00150447,-0.0209814
-0.0182357,-0.0295372
-0.016772,-0.0244529
-0.0182118,0.00230732
-0.0105553,0.0222321
0.0126415,0.000666148
0.030759,-0.040498
0.0592402,-0.0122405
0.0722565,0.0375579
0.0513952,0.00446688
-0.036504,0.024344
-0.0816653,0.00250255
-0.0793132,-0.0347114
-0.0737804,-0.0313127
-0.0603912,-0.0136475
-0.0362417,0.0420931
0.00454093,0.0537628
0.0691567,-0.0456303
0.0911731,-0.0971891
0.0607635,0.0178371
0.0141638,0.0970506
0.00376554,0.0370544
0.00650497,-0.0137701
0.0133367,0.0118139
0.0180647,0.0303594
-0.0243412,-0.00167051
-0.0461503,-0.057482
-0.0128351,-0.0445299
0.0138443,0.0308918
0.0566986,0.0254394
0.0792052,0.0204247
0.0232206,0.00225019
-0.0277615,-0.0279781
-0.0508205,-0.00463679
-0.0518268,0.007645
-0.0402179,0.0198819
-0.0495162,-0.0067642
-0.0365655,-0.0163644
-0.00683071,-0.0103595
0.0443322,0.00826752
-0.00765321,-0.000915271
-0.0646539,0.00461762
-0.0296991,0.00769485
-0.0105798,-0.0176617
0.0222434,-0.0112529
0.0523379,0.0358192
0.081766,0.0122293
0.0917891,-0.0497454
0.095085,-0.0266158
0.0456114,0.0339849
-0.0681285,0.0296634
-0.103909,0.0295741
-0.0561878,0.00133918
0.010213,-0.0188281
0.0292467,-0.0159369
-0.00327654,-0.0126043
-0.00768689,0.00242545
-0.00118731,-0.00340174
-0.0522863,-0.0181531
-0.062775,-0.0263179
-0.0132975,-0.023615
0.00437571,-0.00121932
-0.00962147,0.00273369
0.00150554,0.0058901
5.72e-05,0.0014431
-0.0710102,-0.0146262
-0.0370414,0.00403443
0.0424208,0.0281293
0.065689,0.0010811
0.0581856,-0.00538839
0.0532393,-0.00374703
0.0205668,-0.00464382
0.0185602,0.013219
0.0393377,0.017744
0.0668957,0.0101947
0.0620074,0.0201274
0.0241712,0.00785619
-0.0568052,-0.0118767
-0.0828857,-0.0360648
-0.0943,-0.00873775
-0.0711885,-0.00346426
-0.0246883,-0.00556829
-0.015017,0.0155335
-0.0020568,0.0314099
0.0128051,0.0389609
0.0134301,-0.00819725
0.00477688,-0.0121641
-0.00303608,-0.00165029
0.00223375,-0.000493966
0.0205607,0.0105236
0.0390817,0.0406668
0.0944258,0.0532675
0.130034,0.030384
0.141738,-0.00197941
0.0316936,-0.0814468
-0.170245,-0.0820454
-0.2163,-0.0468767
-0.112033,-0.00862317
-0.0280945,-0.0037338
-0.00400262,-0.0246471
0.0169051,-0.0128366
0.0203772,0.049887
0.0205111,0.0516288
-0.00675684,0.0241607
-0.0275635,0.0308269
-0.0468842,0.0181373
-0.00941837,-0.0229376
0.0372066,-0.0177989
0.0207065,0.00592513
0.022598,0.00867345
0.0267442,0.0109224
0.0237942,0.0030164
-0.0156134,-0.0182124
0.00632307,-0.0131255
0.0999413,-0.0194807
0.145795,0.0101001
0.126283,0.0104746
0.0429753,0.00337871
0.0179883,0.00557585
0.00172925,-0.00492018
-0.0788078,-0.0314561
-0.111634,-0.0465267
-0.118291,-0.0170748
-0.0966432,0.0115184
-0.0318429,-0.00575815
-0.0150282,-0.0159526
-0.0290891,0.0137604
-0.018376,0.0158914
0.00293677,0.0103206
0.00587833,-0.00368915
0.00780053,-0.0058376
-0.00404231,0.0407602
0.00896972,0.0234463
0.0308647,-0.0191162
0.0390548,0.00643613
0.0183734,0.0168476
-0.00782472,0.00457166
0.010426,0.00284439
0.0430128,-0.0136199
0.038789,-0.0103611
0.00733117,0.00841561
-0.0312673,0.00107279
-0.0405858,-0.00847845
-0.00826353,-0.0577809
0.0299977,-0.0348383
0.0166104,0.023118
-0.0365815,0.0346928
-0.0545651,0.0106245
-0.046666,0.00839084
-0.0771357,0.0334959
-0.0621139,0.0483376
-0.026099,0.0330165
0.0100283,-0.00616571
0.0457518,-0.0324654
0.0558789,-0.0417979
0.0910081,-0.0251176
0.0614458,0.016125
0.0328497,0.0445895
0.00531698,0.037846
-0.000950321,-0.0468171
-0.00438825,-0.0267867
-0.014518,-0.00297029
0.0418221,-0.0272864
0.0405033,-0.0378427
0.0275779,-0.00771827
0.00147572,0.0316156
-0.0118493,0.0261039
0.00247018,-0.00913424
0.0172102,0.00667708
0.00452656,-0.00498038
-0.00930079,-0.0122927
-0.0102987,-0.00501369
-0.0126284,-0.00243818
-0.0148891,-0.00521049
-0.017414,-0.00663374
-0.037528,0.0131686
-0.0591497,-0.0137529
-0.0701681,0.0055727
-0.0613001,0.0163182
-0.0267821,0.00118489
-0.0294331,0.0259209
-0.02676,0.0130681
0.0231124,-0.00972984
0.0517514,-0.0112046
0.059064,-0.0184776
0.0746607,-0.0296931
0.0458836,0.000532296
0.00439137,0.0195887
0.00261053,-0.0193037
0.031522,-0.00289901
0.0598656,0.00727039
0.0596464,-0.0145954
0.0164603,0.00661676
-0.0232503,0.0177088
-0.0373232,-0.00328864
-0.054357,-0.00961876
-0.0324099,-0.0141219
0.0220025,0.00294503
0.0207123,0.0485353
-0.0372748,0.0454952
-0.0376705,0.0261718
-0.0365371,0.0141319
-0.0585967,-0.0185935
-0.0729872,-0.0527431
-0.0576489,-0.012121
0.00224817,0.0225667
0.0740394,0.00583831
0.114515,0.0206429
0.0932758,0.0075312
0.0508861,-0.00487683
-0.0553199,-0.0231528
-0.0809012,-0.0688794
-0.0459127,-0.051634
-0.0269957,0.00783154
0.0140379,0.00412007
0.0589932,0.0201213
0.0444334,0.0263661
-0.000643483,0.0166359
-0.0315083,-0.00392735
-0.0646251,-0.00322616
-0.0935723,0.0130542
-0.091835,0.0248052
-0.0080329,0.0183643
0.0561064,0.012001
0.0854706,0.00101163
0.0795716,-0.00524065
0.0259626,-0.00637836
-0.00253127,-0.0135134
0.029174,-0.0248756
0.0432757,-0.0251736
0.03074,-0.0138172
0.0313985,0.0398136
0.0256666,0.0471085
-0.0334249,0.0234883
-0.0733213,-0.0409409
-0.0557363,-0.0268113
-0.0113567,-0.00238772
0.0169609,0.00378173
-0.00448444,-0.0130379
0.0105634,-0.00327436
-0.00877006,0.0173845
-0.0202338,0.00181131
0.021333,0.0121223
0.0916578,0.0064642
0.135896,-0.0188959
0.0939377,-0.0132743
-0.0139829,-0.0310935
-0.104247,-0.000465175
-0.123652,0.00579752
-0.103727,-0.00193952
-0.0698416,0.00438042
-0.0420787,0.00628154
-0.00924852,-0.00977825
0.02894,-0.0130727
0.0421088,0.00922854
0.0434336,0.0142537
0.0373016,0.0368101
0.0357421,0.0195039
0.00714012,-0.0187946
-0.0503456,-0.0191557
-0.083221,-0.0082164
-0.085282,0.0100918
-0.0067564,-0.0207651
0.0277523,-0.019854
0.0239108,0.0104941
0.0298329,0.0113398
0.0348798,0.00394545
0.0459196,0.0249673
0.0357852,0.0197944
0.0256305,0.00816342
0.0272211,0.0066304
0.0794263,0.0704799
0.120699,9.9e-05
-0.0017315,-0.014719
-0.117366,-0.00431146
-0.13551,-0.0124189
-0.114745,-0.0240709
-0.0615614,-0.0327484
-0.00717205,-0.0174398
0.0331749,0.00567622
0.0521854,-0.0171828
0.0619559,-0.0486516
0.0262533,-0.0327437
-0.0164576,0.0467462
-0.0231564,0.0287769
0.00387825,-0.00872898
0.0345667,0.0119885
0.058637,0.0185496
0.0274275,0.00278519
0.00688427,-0.0117663
-0.0301672,0.000134046
-0.0692351,0.0128846
-0.0752502,0.00523607
-0.0277265,-0.00246756
0.000482405,-0.00508764
0.00938856,-0.00693389
0.021151,-0.0113857
0.0141739,-0.00813387
0.03384,-0.00147567
0.0449942,-0.00478331
0.029902,-0.000958707
0.0286748,0.00541489
0.017988,0.00106543
-0.00532794,-0.00789003
-0.0268032,-0.0118475
-0.0551318,-0.00457074
-0.0670532,0.0100692
-0.0137887,0.0198348
0.0122172,0.0156734
0.00748084,-0.0065387
0.0189532,0.00683137
0.0544314,0.0143531
0.0284418,0.00464582
-0.0314706,0.0216185
-0.0336171,0.0232376
-0.0220279,-0.0139001
-0.016577,-0.0294109
0.0140823,-0.0200317
0.0397682,-0.0332228
0.0213883,-0.0138429
0.0215132,-0.00254338
0.0561985,0.0146376
0.04606,0.0241988
0.0101167,0.017956
-0.0134256,0.00648903
-0.0618971,-0.0217192
-0.0741644,-0.0186696
-0.0571266,0.0436456
-0.0288427,0.0113578
-0.00685207,-0.0327751
-0.0038248,-0.0054236
0.00988365,-0.00217537
0.016044,0.000272297
0.00341521,-0.00168112
0.0054826,-0.00965084
0.0136284,0.00192357
0.0223345,-0.00440929
0.0199751,-0.0130865
0.0133256,-0.0105713
-0.0011171,0.00073443
-0.000374442,0.0135523
0.0195041,0.0125221
0.0160124,0.00572457
0.00461719,-0.00352338
-0.00970662,-0.00715008
0.016461,-0.00748081
0.070901,-0.00262622
0.0577403,0.0035254
0.0243604,0.0197387
0.00730338,0.0179129
-0.0162352,-0.00116717
-0.0861807,-0.00058892
-0.119369,0.00182631
-0.0852223,-0.00151294
-0.0464175,-0.00827728
-0.0238674,-0.000311387
-0.00488517,0.011585
0.00600882,0.0217615
0.0197219,0.0138443
0.0294036,-0.00751112
0.0195875,-0.0149211
0.0275441,-0.0142147
0.0392195,-0.0118723
0.0213579,-0.00359594
-0.0076789,-0.00395854
-0.0122984,-0.000496158
-0.0260043,0.00140401
0.0152818,0.00407561
0.0407492,0.00340069
0.0144642,-0.00864083
-0.0151035,-0.0174963
-0.0129726,-0.0104437
0.0171767,-0.00650961
-0.0110636,0.00943904
-0.0281391,0.0249581
-0.00201515,0.00702732
0.0168601,0.011155
0.0466131,0.0303122
0.0473471,0.0137423
0.0154309,-0.00462249
-0.0229117,0.00528105
-0.0602536,0.0259052
-0.0363418,0.0199351
-0.0736571,-9.19e-05
-0.0402549,-0.0178134
0.0826277,-0.0364675
0.110547,-0.0407046
0.0861393,-0.0329438
0.0127625,-0.0128319
-0.0767173,0.00191172
-0.0767434,0.0196383
-0.0401175,0.0236012
-0.0295523,0.0118737
-0.01157,-0.00932174
0.00126691,-0.0138179
0.0111532,-0.011319
0.0111484,-0.0162485
0.00739674,-0.0164474
0.00775169,-0.00215795
0.00955292,0.00468497
0.00948825,0.00631084
0.00609581,0.00411849
0.00655404,-0.0057541
0.00761537,0.0041795
0.029127,0.014895
0.0476147,0.00547196
0.0326901,0.0220894
-0.0182838,0.0482219
-0.0346535,0.00878961
-0.0453554,-0.0200293
-0.0305601,-0.0286969
-0.0160683,-0.0187819
-0.0270563,-0.00142038
-0.0102077,0.00135661
0.0295161,-0.0101822
0.0568379,0.00296435
0.0747224,0.0235146
0.0388095,0.0102909
-0.00238097,-0.014204
-0.0133865,-0.0198264
-0.0398068,-0.00945155
-0.0628492,0.0013452
-0.0398121,0.000395832
-0.0170949,0.018515
-0.00471758,0.0290302
0.00287861,0.0114623
0.00537227,-0.00183537
0.00381008,-0.00179531
0.00354277,-0.0187491
-2.41e-05,-0.0129333
-0.00166882,-0.0042305
-0.000785435,0.00910212
0.00203141,0.0119196
0.00273886,0.00390209
0.00209296,0.00246089
0.00198926,-0.00131544
0.00309556,-0.00711276
0.00763426,-0.00852668
0.0138522,-0.00306003
0.0139813,0.00115566
0.010655,0.012563
0.00837275,0.010076
0.00400899,-0.0041507
-0.00855547,-0.0153666
-0.0161732,-0.0139967
-0.0142948,-0.0141137
-0.00522827,-0.0163109
0.00979354,-0.01802
0.0245723,0.00210328
0.0431291,0.015707
0.0407359,0.0120448
-0.0129885,0.00246838
-0.0594335,-0.0118261
-0.0626166,-0.0148089
-0.0266703,-0.00168032
0.00838765,0.00501666
0.0220516,0.00483186
0.0179082,0.0216768
0.0111113,0.0232557
-0.00296328,0.00794792
-0.015474,0.00190866
-0.0207576,-2.76e-05
-0.0202955,-0.00160929
-0.0162332,-0.00520755
-0.015025,0.00150248
-0.00989433,0.0162419
0.0142236,0.0128018
0.0479165,0.0131399
0.0657816,0.00684672
0.031225,-0.00370996
0.00351753,-0.0135825
-0.0128124,-0.0172614
-0.0405505,-0.0140811
-0.0246817,-0.00843216
0.0133177,0.000524658
0.0164826,-0.00435931
