Comp Ch 3,Comp Ch 4
0.000181291,-0.000799435
0.00115933,0.012003
-0.00211285,0.00782132
-0.0092161,0.0112715
-0.013712,0.0150484
-0.0140875,0.00557887
-0.0117995,-0.00654246
-0.00784992,0.0192798
-8.18e-05,0.0113694
0.010312,0.000588704
0.0187151,0.0161102
0.0141868,0.0157468
0.00914702,0.00120385
0.00991806,-0.00585912
0.012913,-0.000417071
0.00475751,-0.00806842
-0.024801,-0.0246109
-0.0285679,-0.0197678
-0.0161882,-0.0118061
-0.00962422,-0.0115792
-0.00503189,-0.0056176
0.0140059,-0.00947961
0.0255331,0.0172396
0.00135056,0.0269395
-0.0130146,-0.00452985
-0.0196802,-0.0226659
-0.0396234,-0.00401968
-0.0355139,0.012844
-0.0184302,0.0101907
-0.0110318,0.0158611
0.0153404,0.0534753
0.0519377,0.0400258
0.0732276,-0.0178359
0.0576673,-0.0162096
0.0305537,-0.0184203
-0.00970831,-0.0607391
-0.0165937,-0.0330344
0.00562745,0.0123505
0.0084098,0.0273667
-0.00587045,0.0496323
-0.0200942,0.0156707
-0.0310105,-0.0212897
-0.00832151,0.0109635
0.0517763,0.000460903
0.0657511,-0.0277841
0.0521464,-0.0223137
-0.011979,0.00168287
-0.0482468,0.0483796
-0.0652932,0.0810302
-0.139323,-0.0298189
-0.109107,-0.0438631
-0.0631468,-0.00361949
-0.112224,0.00419058
-0.0272233,-0.0012064
0.106703,0.020374
0.17076,-0.000209894
0.120272,-0.0431164
0.00725787,-0.0785302
-0.0515847,-0.0201326
-0.0542089,0.0361605
-0.0665521,0.0119057
0.0351,-0.013322
0.120694,-0.0228074
0.153545,-0.016907
0.113401,-0.0116346
-0.0247298,0.0160451
-0.0762898,0.042358
-0.0312829,0.0670225
0.00554466,0.043166
-0.00254266,0.0387426
-0.0244745,-0.0269586
-0.0390018,-0.0712706
-0.0438518,-0.0534822
-0.0398346,-0.0202495
-0.0196358,0.042418
0.0150679,0.0497361
0.0209826,-0.047002
-0.00867488,0.00389456
-0.0341095,0.00911192
-0.0558496,-0.0305171
-0.0392849,-0.0232352
-0.0172568,9.12e-05
0.00842949,-0.0152409
0.0351003,-0.0211321
0.0447393,0.00284996
0.0551944,0.0208114
0.0913896,0.0172345
0.0798411,0.01513
0.0172189,0.0113171
-0.0218499,0.00257704
-0.0612189,0.00206549
-0.103497,-0.0109617
-0.0943832,-0.0157354
-0.0526194,0.0468588
-0.00617607,0.0510456
0.102336,-0.0140576
0.169994,0.00147755
0.205583,0.0464118
0.209822,-0.02568
0.0581443,0.159275
-0.12045,0.0148339
-0.238805,-0.17905
-0.308412,-0.107979
-0.191124,-0.00782962
-0.0669255,0.0143159
0.0545403,0.0060963
0.0759577,0.00815942
-0.020118,0.0137862
-0.119989,0.000507622
-0.102364,0.000238611
-0.00489549,0.0070814
0.0861187,0.0153063
0.063467,0.0220857
-0.0058653,0.0162651
-0.027136,0.00599578
0.0175758,-0.0391917
0.115608,-0.0625044
0.384601,0.0012461
0.614112,0.0425484
0.583202,0.0468196
0.298905,0.0130457
-0.211394,-0.0303651
-0.570531,-0.0351904
-0.638994,-0.0248955
-0.477626,-0.0212264
-0.236659,0.0020902
-0.0826078,0.01899
0.0146745,0.01613
0.0431202,0.00605851
0.0331695,-0.00837017
0.0160922,-0.0151148
0.00405295,-0.0217213
0.00931817,-0.0203707
0.0289997,-0.00559035
0.0349593,0.0275807
0.0304214,0.0403632
0.034385,0.0228839
0.0551746,0.00623764
0.0676719,0.00423181
0.071203,0.0104621
0.0843843,0.0109991
0.0902396,0.00929954
0.0555097,0.0190216
0.0270732,0.0215864
0.018849,-0.0144231
0.00593935,-0.0213301
-0.0220463,-0.0445119
-0.0509127,-0.0304086
-0.07863,-0.0260012
-0.0964237,-0.00910522
-0.0780829,0.0246008
-0.0364784,0.0576779
-0.00438312,0.0638367
-0.00980098,0.00967971
0.0286636,-0.0323174
0.0360395,-0.0393956
0.000810596,-0.00165738
0.0379241,0.028531
0.0803091,-0.0205907
0.130267,-0.0502835
0.105777,-0.0191535
0.031881,0.0299104
-0.0111849,0.0271542
-0.0107342,0.0118318
-0.0194363,-0.0576735
-0.0591648,-0.0632055
-0.0994385,-0.0193143
-0.109202,0.0270243
-0.0665929,0.0299307
-0.0367246,0.0284622
-0.00172736,-0.00925345
0.0729581,0.0130868
0.0641579,-0.0016013
0.0424432,-0.00791091
0.0709836,0.00469392
0.078863,0.0109135
0.0414767,0.0205281
-0.0162241,0.0373834
-0.0345666,0.00191976
-0.0401926,-0.0320587
-0.0209288,-0.0267599
-0.0123672,-0.0247796
-0.036749,0.00240282
-0.0338348,0.00885337
-0.0110053,0.0225094
-0.0133957,0.0358335
-0.0315671,0.0341306
-0.0274699,0.0585274
-0.00495154,-0.00773686
0.00245991,-0.0687272
-0.00575022,-0.0154101
0.0228677,0.00120148
0.0344194,-0.0051369
0.0245247,0.0210452
0.0219605,0.0110111
0.00819194,-0.0160922
-0.00635114,-0.0254552
-0.0168358,-0.0408057
-0.0210735,-0.0519423
-0.0332051,-0.01145
-0.00168927,0.00153627
0.0387174,0.0247315
0.0100603,0.0378974
0.00573562,0.0224633
0.0455845,0.0369166
0.0433935,-0.00689683
-0.0173091,-0.0267112
-0.0447034,-0.0333855
-0.0272956,0.0475044
-0.0184925,0.0701429
-0.0171363,0.0172439
0.00525843,-0.00763018
0.0396119,-0.0876472
-0.0193105,-0.0444847
-0.0717808,-0.0349399
-0.0838298,-0.030789
-0.0623665,-0.0160499
-0.0259353,0.0167355
-0.00544525,0.0596354
0.0312099,0.0398968
0.0596761,-0.024714
0.0572222,-0.0142546
0.0541625,0.00124127
0.0486869,-0.00404941
0.0377161,0.0145615
0.0425816,0.0364063
0.0474318,-0.00707114
0.0466487,-0.0060884
0.0352087,0.00354162
0.0109503,-0.027303
-0.0127514,-0.044424
-0.0310891,-0.0475555
-0.0327336,-0.0263762
-0.0221226,0.00482984
-0.0138948,0.0224333
-0.0409879,0.0248586
-0.0581714,0.0103517
-0.0274118,0.0351375
-0.00711519,0.0964284
0.0117621,0.0385368
-0.000188769,-0.0168864
-0.00146339,-0.0128865
0.00302155,-0.0397775
-0.0328899,-0.00923508
-0.0373902,0.0240219
-0.00971113,8.3e-05
-0.00856542,-0.000317493
-0.00296528,0.0125749
0.0165882,0.00204679
0.0203887,0.00703897
-0.00932786,-0.0178874
-0.0159653,-0.0509192
0.00047177,-0.00313452
0.0111222,0.0371702
0.0171119,0.0286091
0.00441632,0.0144411
-0.0145032,0.0142593
-0.0274736,0.0140586
-0.0229334,-4.67e-05
-0.0135771,0.0059459
-0.000347384,0.0345241
0.0120963,0.0188566
0.00939048,0.0154498
0.00279923,-0.0331018
-0.00653024,-0.0378017
-0.0218955,-0.030547
-0.00573239,-0.0209563
0.0373347,-0.0114272
0.0667922,-0.0165448
0.0475583,-0.0316975
-0.0178168,-0.031975
-0.00254877,-0.0292845
0.035499,-0.010513
0.0700914,-0.00542805
0.0502047,0.00431561
0.0219667,0.00320161
0.0318564,0.0276389
0.0255132,0.0355654
0.0124188,0.0116541
-0.0264288,0.00348356
-0.063909,0.0211217
-0.0326652,0.00919325
-0.0244507,-0.0402258
-0.0513438,-0.0307426
-0.0484169,-0.00294546
-0.0441111,0.0143237
-0.0248097,0.000109361
0.015935,-0.000557708
0.0505314,-0.00212635
0.0474579,-0.00670391
0.0195238,-0.00454314
-0.00698179,0.0105171
-0.0253833,0.0143998
-0.0391483,0.0179452
0.00591711,0.0286309
0.041815,0.00603578
0.0103013,-0.0261007
-0.0230434,-0.0242128
-0.0328494,-0.028891
-0.0234622,-0.0254647
-0.0173847,0.00131542
0.0158824,0.0236124
0.0281985,0.0205477
0.00712671,0.0197364
-0.00480093,0.0194049
-0.00236578,0.00670986
-0.0334796,0.0133176
-0.0378539,0.053527
-0.00771783,0.0268694
0.0126494,0.0387832
0.0230633,-0.0325477
0.00772475,-0.0837552
-0.00590625,-0.0311856
0.00525712,-0.0220867
0.00670899,-0.016041
-0.0092414,0.0323723
-0.0223484,0.0060878
-0.0321661,-0.0229372
-0.00796431,-0.0144272
0.00677502,-0.0174266
0.0326278,0.0119103
0.110722,0.0244694
0.141612,0.0127135
0.110801,-0.00667742
0.0333631,0.00610247
-0.0398183,0.00516696
-0.0991125,0.0028907
-0.124647,0.0155639
-0.0876815,0.00458177
-0.0240891,-0.0168691
-0.000328603,-0.0151994
0.0040439,0.00554808
-5.9e-05,-0.0411943
-0.010618,0.0948016
-0.00690822,0.114191
-0.000717079,0.00619641
0.000782053,-0.0642535
0.00216278,-0.042516
0.00923602,-0.0564893
0.014694,-0.0404725
0.019886,0.00300009
0.0182572,0.0083662
0.0269056,0.00874711
0.023153,0.045883
-0.00198216,-0.0341813
-0.0612864,-0.0330044
-0.0684037,-0.0140464
-0.0437164,-0.0149223
-0.013817,-0.00426324
0.0308104,0.0121791
0.0267021,0.0463866
-0.0147299,0.0475872
-0.0130948,0.0298301
0.0178473,0.00943919
0.0171805,-0.00384934
0.0200592,-0.0298124
0.0246654,-0.0365953
0.0178784,-0.0274763
0.00135844,-0.0256944
0.00740858,0.00855255
0.0222834,0.0519765
0.0236461,-0.00523042
0.0196114,-0.0582358
0.0235825,-0.0287547
0.0219074,-0.0204786
0.00920921,0.0118882
0.0123335,0.00947527
0.00779129,0.0282039
0.00397453,0.0347385
-0.00073812,0.0137507
-0.0290769,0.00540636
-0.0495437,-0.00991118
-0.0483234,0.0148227
-0.0273432,0.00723765
0.00983264,-0.0209868
0.0220031,-0.0313766
0.0137015,0.00080933
0.0104526,0.00665234
0.00626001,0.016155
6.27e-05,0.0348743
-0.00390552,0.0146842
-0.00783835,-0.0300109
-0.0119907,-0.0370067
-0.0152254,0.00794125
-0.0245344,0.0336575
-0.0252575,0.0290595
-0.0165991,0.0267422
-0.0177512,0.0293335
-0.00902104,-0.0203643
0.0041241,-0.0405205
0.0210245,-0.0393943
0.0109521,-0.0168274
0.00863543,0.00995387
0.0249126,0.0177755
0.0237283,-0.0039888
0.0341726,-0.0130092
0.046479,-0.00453694
0.0330106,-0.0078094
-0.00277972,-0.0170122
-0.0434172,-0.00511071
-0.0462668,0.0202536
-0.0145681,0.0329371
-0.00826756,0.0192806
-0.0296622,-0.0045718
-0.0547766,0.00995995
-0.0566249,0.0197015
-0.0416119,-0.0271293
-0.0161949,-0.0302024
-0.00404792,-0.00576607
-0.00610647,0.00497044
-0.00160974,0.0138886
0.0137242,0.0154814
0.0395335,0.000398162
0.0567006,-0.0300014
0.0525536,0.00822448
0.0384833,0.0262721
0.0584191,-0.0199975
0.0450601,-0.00058626
0.0436885,0.0850805
0.0748564,0.00174637
0.0544452,-0.0436429
-0.00941053,-0.0322694
-0.0611901,-0.0224388
-0.094641,-0.00420651
-0.0814749,-0.00903036
-0.039037,-0.0141934
-0.0142948,0.0128085
-0.00285044,0.014802
0.00546283,-0.0197482
0.025754,-0.0174905
0.0175637,-0.00361452
-0.0437692,-0.00208546
-0.0584808,0.011437
-0.0123107,0.0418941
0.0409287,0.0187688
0.0286057,-0.00978309
0.0164686,-0.0086893
0.0134143,-0.0144234
-0.00712641,-0.0336163
-0.0178741,-0.0244182
-0.0138395,-0.00844242
0.00231621,0.000108922
0.00237953,0.0157087
-0.00188633,0.0493384
0.0240394,0.0545415
0.0231065,-0.0184079
0.00681248,-0.0614039
-0.00689534,0.00156402
-0.0162896,0.0047788
-0.0243368,0.0104702
-0.00699156,0.042913
0.0103479,0.0586737
-0.00184802,-0.0169669
-0.00664885,-0.0356713
0.00732197,0.00254451
0.0102799,-0.0211848
-0.000832844,-0.0148327
-0.00968884,-0.00373646
-0.0254752,0.0317518
-0.00353298,-0.00738816
0.0245252,0.022228
0.0141193,0.0337173
0.013483,-0.0581615
0.0216518,-0.0481948
0.0208651,-0.0101233
-0.00616857,0.00176116
-0.00666667,-0.00142264
-0.00389451,-0.00398463
-0.031141,0.0177578
-0.0157127,0.00690531
0.000836419,-0.00841466
-0.00141019,-0.0251509
-0.0244289,-0.0115842
-0.0170231,0.00955367
0.0303959,0.035146
0.04191,0.0584456
0.0072558,0.0873177
-0.0101607,0.0174462
0.00459852,-0.0411449
-0.012076,-0.0355049
-0.020198,-0.0195401
-0.0340136,-0.0126848
-0.0222915,-0.0177417
0.0141252,-0.0156323
0.037464,1.55e-05
0.0323098,0.00218994
0.0220408,0.0116503
0.00398679,0.0100342
-0.00146746,-0.0145138
0.00482549,-0.0230934
0.0015369,-0.0124075
0.013831,-0.0074823
0.0115924,-0.00396842
-0.00477985,0.00573408
-0.0154159,-0.00310337
-0.0328494,-0.00552053
-0.0572279,0.00334064
-0.0563882,-0.000232355
-0.0496953,-0.0123716
-0.0551205,-0.00610428
-0.0728684,0.0157291
-0.0389319,0.0227793
0.0455147,0.00767276
0.101546,0.00832925
0.172095,0.0124679
0.286203,0.00791026
0.462526,-0.016881
0.375621,-0.0104412
0.141281,0.0033293
-0.12507,-0.0017195
-0.434167,0.00921982
-0.585317,0.00901316
-0.474255,0.0116663
-0.214655,0.0426533
-0.0734942,0.038053
-0.0109664,-0.0354382
0.0621308,-0.0574168
0.233034,0.0101185
0.378049,0.0360581
0.338808,0.02215
0.182578,-0.0347843
-0.0740359,-0.0703503
-0.264769,-0.0582946
-0.263147,-0.0384315
-0.202441,-0.0106451
-0.088682,0.00196006
-0.0173892,0.0299157
0.00582728,0.0142832
0.0074548,0.00947006
0.0165481,0.00612923
0.0141048,0.0138966
0.00348076,0.0248148
0.0274024,0.026632
0.0309021,0.0262439
0.0424793,0.0290075
0.0661471,0.0202933
0.049398,0.00887933
-0.00847174,0.00330884
-0.0301958,-0.0080073
-0.0427435,-0.0208057
-0.0540766,-0.00975289
-0.0545219,0.00534889
-0.0198623,0.0147956
0.0731077,0.0032649
0.127797,0.0113892
0.0488108,0.058073
0.137027,0.0327606
0.387592,-0.0680352
0.500188,-0.0756186
0.363907,-0.0341895
0.0561016,-0.00242037
-0.324557,0.0137558
-0.53836,-0.00604764
-0.454088,-0.0192236
-0.34061,-0.00330752
-0.174201,-0.0115939
-0.00718023,-0.0160436
0.0865306,-0.000514959
0.08995,-0.0138304
0.0544651,0.0104064
0.0593493,0.0303832
0.063903,0.021919
0.0124006,-0.00230002
-0.0321797,-0.00315118
-0.0419378,-0.0100181
-0.0382283,-0.0152628
-0.0150546,-0.0201863
-0.00114538,0.00417034
0.0134939,0.000776434
0.0347962,0.0117316
0.0226946,0.024184
0.0425533,0.00629226
0.0285006,-0.00346839
-0.0170136,-0.00575419
-0.0367166,-0.00215212
-0.0159926,0.0130099
0.00267449,-0.0035028
0.00691216,-0.00829696
0.0118203,-0.00278279
0.0180468,0.00589032
0.0752758,-0.0016759
0.166881,-0.00803275
0.221719,0.00360224
0.178022,-0.00359154
0.139805,-0.0022765
0.0922652,0.0115794
-0.00883317,0.0242378
-0.118634,0.0348158
-0.142386,0.00647322
-0.0819458,-0.00723851
-0.0379962,0.00564116
-0.0418626,-0.060347
-0.119975,-0.0390726
-0.227425,0.00684231
-0.277358,0.0218728
-0.155491,0.0138801
0.0206776,0.00128173
0.111467,0.00793719
0.267874,0.0227958
0.283509,0.00420301
0.102156,-0.0105208
-0.178146,-0.00465058
-0.325558,-0.0153312
-0.24473,-0.00423279
-0.0587062,0.00469044
0.0916352,-0.00436534
0.16973,0.00379755
0.103195,0.0263734
-0.00895586,0.044289
-0.0504826,0.041182
-0.0673614,-0.00203571
-0.0569208,-0.0376408
-0.00602401,-0.0389477
0.00557923,-0.0288643
-0.0206959,-0.0208461
-0.0351474,-0.0137868
0.0398534,-0.00967662
0.190444,0.0120135
0.234317,0.00998386
0.150394,-0.0087884
0.0519984,-0.00613442
-0.0331263,0.00388349
-0.0795123,-0.00207981
-0.0697126,-0.0112607
-0.0530446,-0.00726427
-0.0277019,0.00137687
-0.0155306,0.0236459
-0.0303693,0.0352362
-0.030381,0.0202306
0.00241147,0.00742751
0.099504,0.0103486
0.121412,-0.0149904
0.0573107,-0.0243053
-0.0636669,-0.0121575
-0.205937,0.0059024
-0.232562,0.0205813
-0.128604,0.00139883
-0.0380758,-0.00818615
0.0298548,0.00274032
0.0760688,-0.00830574
0.0969309,-0.0101462
0.106688,0.00476884
0.109044,0.00666417
0.11864,0.0140037
0.101842,0.0141993
0.0514264,-0.00402499
-0.0225946,-0.0130107
-0.0623486,0.000734525
-0.0900239,0.00048259
-0.102116,-0.011058
-0.0983243,-0.0205248
-0.0860368,-0.0100771
-0.0392975,0.00857826
0.0185497,0.00182878
0.0413716,-0.005694
0.0519139,0.0125925
0.0532792,0.00907715
0.0636771,0.00515304
0.0667629,0.019174
0.0660522,0.0106054
0.0583073,0.00794256
0.0404828,0.0170724
0.000162369,-0.00164621
-0.0404768,-0.0129874
-0.102851,-0.00523595
-0.113733,-0.00175014
-0.039284,0.00989999
0.0228274,0.0280775
-0.0198453,0.0358995
-0.0662844,0.0180271
-0.00686783,0.0108213
0.0397179,0.0114472
0.0358874,0.0174871
0.0633887,0.00997698
0.0564856,-0.0408978
0.0169001,-0.144827
0.0304788,-0.297391
0.0548914,-0.288326
0.0193688,-0.193561
-0.0411965,-0.0872805
-0.0825853,0.06305
-0.0629335,0.229327
-0.0551321,0.357248
-0.040015,0.294898
-0.0455018,0.105438
-0.0731126,-0.0244901
-0.0351224,-0.0863186
0.0929787,-0.087421
0.11129,-0.067423
0.105883,-0.0151793
0.164763,0.0913234
0.170728,0.16159
0.132499,0.12424
0.0224404,0.0776121
-0.116385,0.0458866
-0.180302,0.016075
-0.23385,-0.0179535
-0.246365,-0.067417
-0.198171,-0.0863406
-0.0587514,-0.079515
0.073616,-0.0613989
0.0851127,-0.0248395
0.0387009,-0.0420055
0.0124804,-0.0276808
0.0401484,-0.00560787
0.0546585,-0.00624378
0.0563472,-0.0403109
0.0412519,-0.0632946
0.023952,-0.0346967
0.0205613,-0.0129717
0.0267992,0.0108862
0.0491187,0.0357667
0.0259746,0.0657501
0.00578538,0.0782291
-0.0073158,0.0373932
-0.0245808,0.000548241
-0.0386051,-0.00675869
-0.0348131,-0.00286945
-0.0290514,-0.0283861
-0.0220172,-0.0349304
-0.016421,-0.00651395
-0.01333,-0.0040044
-0.0263576,-0.00358785
-0.0336193,0.0121271
0.000267908,0.0310325
0.0567674,0.0134408
0.060557,-0.0284035
0.0299164,0.0141164
0.0880925,0.00500755
0.195314,-0.0217484
0.195702,-0.0205231
0.0850042,-0.0252242
-0.0819433,-0.0389762
-0.233953,-0.0460531
-0.199165,-0.0149195
-0.015625,0.00687204
0.044417,0.00219058
0.0276419,0.018142
-0.0201973,0.0195642
-0.0576174,0.0193179
-0.065814,0.0421411
-0.0478109,0.0247719
0.0177365,0.0208706
0.0369448,-0.00751367
0.0173732,-8.62e-05
-0.0172573,0.0134679
-0.0686217,0.00625202
-0.0653708,-0.0260014
-0.0305749,-0.0351442
0.00340421,-0.0135283
0.0483599,-0.0118819
0.0620363,-0.0133902
0.0369558,-0.011136
0.0452311,0.00463952
0.0634555,0.0162812
0.0348151,0.00873952
-0.037436,0.00956684
-0.0742427,0.0164781
-0.0701359,0.0233324
-0.037035,0.0334008
0.0440294,0.0312793
0.0947898,0.0205174
0.0816381,0.00348497
0.0326008,-0.0174007
-0.0153739,-0.0205019
-0.0447704,-0.0217572
-0.028209,-0.0284285
-0.00845608,-0.0242579
0.0300798,-0.011348
0.0826502,-0.00650909
0.085221,0.00658003
-0.014609,0.0221359
-0.136445,-0.01417
-0.152726,-0.0110574
-0.117046,0.00793959
-0.0757862,0.031245
0.0144891,-0.0219637
0.0990101,0.0155401
0.0952923,0.0228268
0.0861318,0.0201617
0.101138,0.000783518
0.0489981,-0.0329577
-0.0182345,-0.0334707
-0.0536824,-0.0312472
-0.032697,-0.0303815
-0.0468046,0.00502939
-0.0566982,0.016959
-0.0327795,0.018128
0.00930905,0.0253962
0.031179,0.0158699
-0.00864272,0.00927562
-0.0449253,0.0158003
0.0139385,0.0170566
0.0858108,0.0245692
0.0572096,0.0269662
0.0113776,0.000745714
0.0198162,-0.00987236
0.0246135,-0.0111812
0.00706137,-0.0256267
0.0366242,-0.0224403
0.0269702,-0.0159323
0.012693,0.00304184
-0.00127819,0.0035401
-0.0944813,0.00686908
-0.128265,0.000648927
-0.0757944,-0.01928
-0.00117485,-0.0384118
-0.00103827,-0.00454919
-0.0409354,0.0295298
-0.0266027,0.0237198
0.00663795,0.0187797
0.00886824,0.0178761
0.0336211,-0.00877788
0.0564547,-0.00613476
0.0464513,0.00536055
0.033817,-0.00926912
0.0219518,-0.0297701
0.00803903,-0.0169909
-0.0207029,0.00591395
-0.0385304,-0.00335528
-0.0643491,-0.00438886
-0.126989,-0.00106733
-0.0883058,-0.00477886
-0.0123519,-0.0116486
0.0901934,-0.00059908
0.194957,0.0113913
0.179537,0.0143057
0.108022,0.031988
0.00432263,0.0303099
-0.124647,-0.00913798
-0.161004,-0.0198342
-0.102377,-0.0126305
-0.076287,-0.00703665
-0.0117165,-0.0151339
0.0254943,-0.00710313
0.060585,0.00904269
0.0892876,-0.00441142
0.0641011,-0.0173106
0.0697941,-0.0150191
0.048949,-0.00705934
0.0305701,-0.00493773
0.00121409,0.00271011
-0.0169196,-0.00259278
-0.012637,0.00840628
-0.0276858,0.026793
-0.0589556,0.0108502
-0.029007,-0.00764847
-0.0252059,0.0350745
-0.0540851,0.0335283
-0.0519091,-0.0153473
-0.0927379,-0.0247637
-0.133767,0.0102091
-0.0922052,0.0160903
-0.0668437,0.0157061
-0.0373986,0.0248458
0.0907828,0.0389967
0.292684,0.00944874
0.35081,-0.031307
0.137061,-0.0360618
-0.0361229,-0.0241349
-0.0325206,0.0368608
-0.0174549,0.0348928
-0.0521088,0.0203554
-0.0748596,-0.026561
-0.101067,-0.0415444
-0.154297,-0.00206598
-0.0374273,-0.00537677
0.15439,-0.0213872
0.170875,-0.032517
0.0991901,-0.066663
-0.0261374,-0.0348367
-0.108329,-0.00502785
-0.132018,0.00862115
-0.0856508,-0.00100157
-0.0537487,0.00272619
-0.0746769,0.0230097
-0.0789883,0.0243247
-0.00425524,0.00549379
0.0633726,-0.00606663
0.048744,0.0173324
0.0702992,0.00172792
0.192998,-0.0260481
0.23505,-0.0133663
0.15699,-0.00825715
0.0527444,0.0160777
-0.072517,0.0206897
-0.200917,0.00395895
-0.270541,0.0754319
-0.241152,0.0732779
-0.137894,-0.025325
-0.0546197,-0.0478511
0.0342303,-0.0150112
0.0905111,-0.00180187
0.112654,0.0205389
0.147005,0.0292721
0.115846,0.0140268
0.0317262,0.00229867
-0.0341091,-0.0240146
-0.0528166,-0.046927
-0.138512,-0.0445981
-0.124756,-0.036995
-0.0116271,-0.0107807
0.117845,0.00905223
0.307362,0.00899437
0.428883,-0.00632033
0.246937,-0.00457645
0.00737355,-0.00663098
-0.310746,0.00345062
-0.509519,0.0320708
-0.350895,0.0362992
-0.0821185,0.0130387
0.0371653,0.0078153
0.0295545,0.011344
0.148895,-0.0092848
0.224208,-0.0434808
0.1888,-0.0258367
0.041426,0.0227242
-0.0546603,0.0378997
-0.0318391,0.0168251
-0.0757707,0.0107448
-0.212463,0.0538782
-0.270755,0.0440706
-0.137929,0.0157398
0.0476807,-0.0453831
0.111643,-0.0823845
0.230211,-0.0874357
0.258378,-0.0314667
0.0768558,0.0348117
-0.0646519,0.00610111
-0.155916,-0.0129841
-0.112474,0.00548375
0.0243513,0.0224588
0.0939297,0.0154684
0.0497537,0.0120001
-0.0282425,0.0250671
-0.107485,0.0453509
0.031504,0.0323179
0.194751,-0.020348
0.224534,-0.0536884
0.13643,-0.0280491
-0.102016,-0.0217293
-0.160918,-0.0532461
-0.143268,0.00405533
-0.0978086,0.0700526
-0.0254918,0.0736806
-0.0440766,0.0829282
-0.162354,0.0429745
-0.245629,-0.0191745
-0.144072,-0.0801991
0.0114972,-0.0648642
0.0717414,-0.0287919
0.25712,-0.033681
0.31957,-0.00751054
0.120625,0.00659138
0.0658126,-0.0015925
0.148027,0.0246747
0.170758,0.0362843
0.0994484,0.0678928
0.0684957,-0.0555105
-0.0661569,-0.0708433
-0.239484,0.0220887
-0.326949,0.0404177
-0.238425,0.0258343
-0.102774,-0.0094009
0.0279178,-0.0470475
0.184681,-0.0422871
0.0397164,-0.0108643
-0.163654,0.100778
-0.129015,0.124075
0.0277281,-0.0301895
0.018001,-0.0695751
-0.0862426,-0.0442622
-0.0239867,-0.0810799
-0.0238486,-0.0193773
-0.0196003,0.0121506
-0.0445488,0.00611668
0.0200664,0.0451511
0.089867,0.00223578
0.117176,-0.0596485
0.105215,-0.022632
0.185968,0.029329
0.224191,0.0558452
0.0921735,0.0751072
0.136273,0.0232067
0.0679687,-0.0436344
-0.0361697,0.000137444
0.122553,0.00961169
0.27386,0.132149
0.248398,-0.00956096
0.138631,-0.157937
-0.202634,-0.0718142
-0.560392,-0.018197
-0.224332,0.0754602
0.0662018,0.069758
0.0579297,-0.0608013
0.0611615,-0.0395149
-0.167343,-0.0291213
-0.411589,-0.0185295
-0.50298,-0.00561705
-0.491947,0.0141977
-0.380676,0.0271655
-0.0881867,0.00773379
0.132614,-0.0175774
0.14862,0.028238
0.193591,0.021456
0.325345,0.0330874
0.427777,0.0240744
0.441619,0.0363703
0.371523,-0.023548
0.0713656,-0.0286269
-0.256642,-0.000377675
-0.255539,0.0105247
-0.262416,0.0229755
-0.168939,0.0902258
0.146794,0.0410776
0.31765,-0.0931174
0.347492,-0.0761863
0.224633,0.0100917
0.122401,-0.0119
-0.124373,-0.0278593
-0.41344,-0.0336424
-0.486364,-0.0450422
-0.311989,-0.0316866
-0.0431249,-0.0270958
0.111556,-0.0241303
0.153179,0.0224371
0.164017,0.0584813
0.209756,-0.0141865
-0.00549288,0.00916549
-0.13224,0.058222
0.109195,0.0739086
0.182609,0.0220827
0.0557386,-0.0339853
0.120276,-0.0646336
0.0775082,0.00569457
-0.0430278,0.0408729
-0.115217,0.0622901
-0.0729094,0.0427818
-0.0322673,-0.0464516
-0.094792,-0.120218
-0.131784,-0.0217069
-0.0385551,0.0473865
0.0530256,0.0226389
-0.0672828,0.0134005
-0.128363,0.00375461
-0.0351162,0.0744683
0.108104,0.0467153
0.146216,0.00819233
0.0404711,-0.0421236
-0.127539,-0.0178448
-0.138089,-0.0538071
-0.188863,0.0248806
-0.102438,0.0236035
-0.0510216,-0.103214
0.0395362,0.0166284
0.139815,0.0717637
0.148254,-0.0347272
0.14476,-0.0836378
0.219111,-0.0782773
0.258429,-0.0127762
0.0963901,0.0204237
-0.0754543,0.00146691
-0.0471995,0.00902188
0.0263679,0.0503074
-0.00755285,0.0629286
-0.141522,0.0356197
-0.16685,-0.0148548
-0.0206774,-0.00389887
0.073323,0.0277203
0.00224258,-0.013934
-0.117464,-0.031127
-0.160671,-0.01728
-0.114714,-0.0141627
-0.00585985,-0.0019594
0.0345356,0.00576001
0.0337644,-0.0133714
0.0910663,-0.00191825
0.115478,0.0276638
-0.0321827,0.0700196
-0.176423,0.11128
-0.0656376,0.0217701
0.0261804,0.024043
0.0474176,-0.0202836
0.119326,-0.0207265
0.140553,-0.0107328
0.0446338,-0.0761589
-0.0418224,-0.136853
-0.0489545,-0.0775119
-0.0028017,-0.0350935
0.0478766,-0.0247651
0.0430553,-0.0290889
-0.0414893,-0.00861783
-0.00752082,0.0197497
0.0180298,0.041584
-0.0854021,0.0461016
-0.0738349,0.0384541
0.0879622,0.0272375
0.114982,0.0261096
0.0557761,0.00721171
0.0632731,0.00364904
0.138856,0.0022434
0.15598,0.0340232
0.00416622,0.0592226
-0.136625,-0.0174286
-0.257988,-0.0561611
-0.347105,-0.0456895
-0.193521,-0.0434953
-0.0628471,-0.0122886
0.0653832,-0.00696022
0.0489585,-0.0260341
0.0330798,-0.023098
0.0528898,0.0169496
0.0945878,0.0358923
0.174001,0.0201565
0.242574,0.0738347
0.152103,0.100133
0.0776287,0.0393762
-0.0355926,-0.0586859
-0.251209,-0.0415691
-0.253396,-0.00598776
-0.111019,-0.00739782
0.0324962,-0.0224329
0.0558618,-0.0108333
0.0600995,-0.0142569
0.0789879,0.0449713
0.110968,0.0341233
0.130776,-0.000958875
0.0506538,-0.00963513
-0.155324,-0.0170113
-0.208757,-0.0189568
-0.0667757,-0.00152694
-0.0331246,-0.000378549
-0.112835,-0.023623
-0.102544,0.00589631
-0.00393906,0.00329342
0.0801495,-0.0131248
0.0905206,-0.00379294
0.106019,0.0247882
0.0610833,0.0448107
0.0263101,-0.00407971
-0.092877,-0.0263665
-0.174279,-0.0237078
-0.122968,0.00840959
0.0242442,0.0990666
0.172529,0.141061
0.23386,-0.055315
0.0218944,-0.0825858
-0.161896,-0.0424546
-0.0207298,-0.0509389
0.0978151,-0.0132512
0.0690999,-0.00934633
0.017167,-0.00906675
0.003336,-0.0299004
-0.0285771,-0.0148088
-0.115062,0.0240936
-0.128548,-0.00903241
0.0141219,-0.0150994
0.124681,0.0358151
0.131315,-0.00570754
0.125023,0.0125289
0.127621,0.0207957
0.0327771,-0.0122458
-0.104701,-0.00762241
-0.163896,-0.00768872
-0.151755,-0.0138973
-0.110809,0.0950652
-0.0210544,-0.0353968
0.0555755,-0.0787094
0.0649659,-0.00126481
0.0309247,-0.00100133
-0.0321892,-0.0205449
-0.0311596,-0.0112766
0.0113717,0.00933371
0.098551,0.0389575
0.0460609,0.0151147
-0.101896,-0.002447
-0.110948,0.000730864
-0.0400244,0.0152976
0.0584804,0.0188025
0.0832404,0.0348045
-0.00244814,0.0413867
-0.032861,0.0115639
0.0467374,-0.06718
0.0411191,-0.0239938
-0.00484006,0.0516254
-0.0167517,0.0252562
0.0159718,-0.0111857
0.0858185,-0.019609
0.10337,0.0193504
-0.0366093,0.00753448
-0.0978739,-0.0866713
-0.0961795,-0.0972871
-0.059103,-0.0116905
-0.00967279,0.0434693
0.00569378,0.0356734
0.0628394,0.0196269
0.0745095,0.00265874
0.0555083,-0.0016068
0.00460949,0.0170731
-0.0270705,-0.00689336
0.0600491,-0.0184356
0.0612152,0.0315974
-0.0547656,0.0236484
-0.121523,-0.0131164
-0.0585664,-0.00417909
0.0176301,0.010333
0.0752076,0.0100704
0.0981092,0.0310788
0.0926648,0.0234864
0.0563156,0.0163572
-0.00915539,0.0169439
-0.119401,0.00926661
-0.147591,-0.0336097
-0.0671547,-0.0609679
-0.0474182,0.018839
-0.0266724,0.0452222
0.00815014,0.00675089
0.0369493,-0.0303634
0.0168381,0.0214548
0.0342571,0.0364442
-0.052852,-0.0162817
-0.189854,-0.0347388
-0.0899858,-0.0336765
0.065374,-0.030534
0.0617615,-0.0138453
0.013455,0.0163332
-0.0244075,0.0838292
-0.001148,0.0287442
0.0211002,-0.0976276
0.101539,-0.0793628
0.0460053,0.00465093
-0.0345385,0.00730001
-0.0418429,0.0129059
0.0502815,0.0228643
0.104698,0.00928548
0.0995902,0.0123532
0.111365,-0.0372116
0.0491074,-0.0361737
-0.0217281,0.0118764
-0.0808879,0.00622679
-0.0931733,-0.0154023
-0.097333,0.00819526
-0.0399412,0.0124815
0.0347619,0.00856169
0.120316,-0.00433935
0.105996,0.00296642
0.0173009,0.0378917
-0.0255261,0.0210591
-0.0296208,0.00473726
-0.0835991,0.0146734
-0.210752,0.00806952
-0.23123,-0.00274273
-0.076148,-0.00920499
0.118965,-0.0115467
0.245948,-0.0160979
0.137642,-0.0239112
-0.0083948,-0.0192973
-0.0197673,-0.0159768
-0.0309153,-0.00329968
-0.024281,0.0602232
-0.00926242,0.0606436
-0.0277289,0.00489253
-0.0341002,-0.0157628
0.0358562,-0.00376291
0.0178744,-0.0160545
-0.00363044,-0.0291036
0.114451,-0.0278853
0.158848,0.0506703
0.16479,0.0235998
0.0932346,-0.0338726
-0.118258,0.00196546
-0.178568,0.0042326
-0.235583,-0.0054741
-0.270798,-0.0286124
-0.123483,-0.035277
0.0615519,0.00546193
0.117518,0.0107667
0.0983343,0.0142843
0.141004,-0.0258308
0.135383,-0.0407961
0.0887583,-0.0186436
0.019642,-0.00994826
0.00917755,-0.0335505
-0.00567308,-0.0179902
-0.133437,0.0465648
-0.0751307,0.0200062
-0.0327772,-0.00212941
-0.0513121,-0.0136305
0.0364601,0.0157885
0.00213652,0.0322076
-0.0544266,0.0112911
-0.0998657,0.0173494
-0.0848216,0.022732
-0.00834874,-0.019014
0.11781,-0.0428891
0.125258,-0.0236303
0.0741608,0.0348826
0.0692252,0.000471986
0.0246659,-0.00246213
-0.0643618,0.0189189
-0.057247,0.00379666
0.00361062,0.0230657
-0.0890949,0.0588884
-0.156255,0.0333834
0.0148033,0.0664805
0.156152,0.0438812
0.215782,-0.0651643
0.0845094,-0.0662503
-0.167394,-0.0283552
-0.152566,-0.0198335
0.0165946,0.0263884
0.010899,0.018039
-0.0367395,-0.000740184
0.0231873,0.0348915
0.0342407,0.0150413
-0.027014,0.0134896
0.00645663,-0.0184146
0.0457535,-0.0869633
0.0157426,-0.05982
-0.0312117,-0.0158878
-0.0282146,-0.0283569
0.0283762,-0.0489712
0.0847354,-0.0253917
0.13562,0.0341877
0.163878,0.0335019
0.0303964,0.00879463
-0.125901,0.0217101
-0.112496,0.0126826
-0.135243,0.0229356
-0.164444,0.029824
-0.0279775,-0.000910878
0.133276,-0.0141909
0.13579,-0.0295478
0.0177675,-0.00835317
-0.106968,-0.0182157
-0.107801,-0.0264046
-0.0126031,-0.0156449
0.0376471,-0.00856059
0.0297976,-0.00488561
0.00654125,0.000652845
0.0124709,0.0648921
0.0260643,0.0687492
0.0116513,-0.070163
-0.033747,-0.00633979
-0.0262122,0.0580863
-0.0263957,0.0311196
-0.0132872,0.0421639
0.0584512,-0.0118939
0.0652531,-0.0365451
0.0241782,-0.00450705
-0.036262,0.0133714
-0.0194753,0.0140621
-0.00385541,0.0218822
-0.024425,-0.0269689
-0.0287483,-0.00508796
0.0387081,0.0292747
0.11016,0.0272481
0.189498,0.015132
0.217957,-0.0133231
-0.0211586,-0.0371489
-0.27591,-0.0244123
-0.271501,-0.0122069
-0.0723339,-0.0051276
0.00621721,-0.0145716
-0.0607145,-0.0143835
-0.0756828,0.00857322
0.0104634,0.00405044
0.0757092,-0.0157468
0.0998874,-0.000768423
0.127004,0.0219221
0.094222,0.0217609
0.0126397,0.0259353
-0.0445694,0.0524706
-0.0874087,0.0250342
-0.077271,-0.0862548
-0.0448075,-0.0352063
0.00246848,0.0116892
-0.0343116,0.0149739
-0.0402372,-0.013703
0.0377475,-0.00527827
0.0383012,-0.020159
-0.0863765,-0.011681
-0.139458,0.0156212
-0.0561434,-0.00114368
0.0823978,0.0114503
0.178887,0.0640694
0.22451,0.0175943
0.153029,-0.0193905
0.0200443,-0.0307777
-0.075423,-0.000243714
-0.170766,0.0150166
-0.153079,-0.0186368
-0.0493035,-0.0193435
0.0089607,0.0141747
0.106376,0.0319245
0.0361452,0.0151047
0.00865703,-0.013183
0.0061453,-0.0123125
-0.019255,-0.00411389
-0.0373064,0.00910193
0.00429858,0.010773
0.0647444,-0.0163095
0.0613563,-0.0207815
0.0079098,3.11e-05
-0.0500643,-0.0317114
-0.0517858,-0.0429806
0.0461586,-0.0100345
0.0482811,-0.0192347
-0.00614432,0.0273893
0.0104373,-0.000528682
0.0260842,0.00902207
0.047298,0.0220872
0.0134175,-0.0111146
-0.0687597,-0.00731233
-0.083056,0.0172615
-0.0640268,-0.0252125
-0.0310763,-0.0246392
0.0139889,0.00290007
0.0192072,0.0424934
0.00203244,0.0493011
-0.0350868,-0.00498764
-0.0582737,-0.0303074
-0.0401924,-0.0174281
0.0464535,-0.0419746
0.0404608,0.0533952
0.0101505,0.0879257
0.0659296,0.0655807
0.083374,-0.0644424
0.0933056,-0.041941
0.0256888,0.0338139
-0.036188,0.00226487
0.0635285,-0.00981913
0.139763,-0.0145749
0.0853375,-0.0108546
-0.182742,-0.0208622
-0.406439,0.0240565
-0.190627,-0.0114654
0.0385909,-0.0218795
0.0581423,0.0220659
-0.0113282,-0.0202844
0.00910995,-0.0189336
0.0599157,-0.0168983
0.0347718,0.0110764
-0.00587037,0.00745044
-0.00304833,0.00506428
0.0691103,0.0058002
0.0712803,-0.0159093
0.0799411,-0.0184053
0.0967627,-0.0103345
0.0240899,-0.0108279
-0.0346463,-0.022263
-0.0317898,-0.009571
-0.0247753,0.00905092
-0.0364602,0.0169425
-0.041818,0.00864692
-0.0290395,0.0130509
-0.00858194,0.0275677
-0.0109314,0.00203729
-0.0278008,-6.53e-06
-0.0510969,-0.017606
-0.0611748,0.026688
0.0771411,0.0352118
0.193918,0.0168696
0.177334,-0.0424619
0.103974,-0.0333106
-0.0136791,-0.0143621
-0.0573458,-0.0300534
-0.0273449,-0.0188697
-0.0232254,0.00728581
-0.0694578,0.010598
-0.126671,0.00831116
-0.0591177,0.0254359
0.0348676,0.0123642
-0.0293858,-0.00171866
-0.109207,0.00778453
-0.0324115,0.012586
0.00859693,-0.0195443
-0.0442368,0.000850297
-0.0031698,0.0028116
0.0300406,-0.0102194
0.0382871,0.00272119
0.0271045,-0.00479855
0.0157896,-0.00517057
0.0139436,-0.000285989
0.0173312,8.79e-05
0.0240266,0.00686132
-0.00902436,0.0345125
0.00732112,0.016167
0.0221799,-0.0159435
0.0188724,-0.00409229
0.0217331,-0.0122007
0.025974,0.0175911
0.0185067,0.0723312
0.0112707,0.012665
0.00661915,-0.0549455
-0.0251073,-0.0099538
-0.0819344,0.0421709
-0.114059,-0.010391
-0.123254,-0.0158827
-0.121974,0.0479326
-0.0701144,0.0337661
-0.00271022,0.0659153
0.121987,0.0806758
0.344462,-0.0152978
0.325799,-0.00652961
0.0565909,-0.056012
-0.306619,-0.0967601
-0.292059,-0.0301067
-0.0367547,-0.00536449
0.16668,0.0117945
0.183291,-0.00690787
0.114069,-0.0463723
-0.0563872,-0.0471288
-0.180319,-0.0252088
-0.111887,-0.0100595
-0.0232298,-0.00417965
0.00351041,0.00547896
0.0153207,0.0258544
0.0124581,0.0228952
0.0335369,0.00187031
0.0276783,-0.000417234
-0.00927003,0.0025595
-0.0161064,0.00457107
0.00227081,-4.95e-05
0.0224081,-0.00876782
0.0191704,-0.0208002
-0.00646073,-0.0145502
-0.0041998,0.00293234
0.0279861,-0.00171018
0.0434324,-0.0162272
0.0224682,-0.0176739
-0.00826244,-0.0135596
-0.0173893,-0.00135207
0.00355384,0.0277282
0.0261223,0.0290634
0.0192935,0.0229927
-0.00444896,-0.0138227
-0.0176115,-0.036882
-0.015999,-0.00520414
0.00326831,0.0177137
0.0205047,0.0234894
0.00752605,0.00317133
-0.00952929,-0.0403592
-0.017955,-0.0168417
-0.0331489,0.0413245
-0.0415826,0.0250048
-0.0663881,0.0173404
-0.0651121,-0.0198956
0.00329434,0.0407051
0.0175824,0.110947
0.0440863,0.0832581
0.14886,0.0993806
0.223218,0.0551478
0.0521929,-0.0418218
-0.195558,-0.0860664
-0.150381,-0.106661
0.039127,-0.0824806
0.171473,-0.0300896
0.00106376,-0.0307304
-0.145887,-0.0275936
-0.0992168,-0.00395796
-0.0215373,-0.0086952
-0.0199228,-0.0123663
-0.0511099,-0.021378
-0.0626428,-0.0329242
-0.0541701,-0.0154979
-0.00126308,0.000738265
0.0310856,0.0207847
0.0257199,0.0202654
0.0227846,0.0090715
0.0202896,0.0132837
0.0129736,0.0208996
0.0104673,0.0196711
0.0209872,0.0109784
0.0283042,0.00538528
0.0172358,0.00588194
0.0189104,0.0168143
0.019846,0.0254045
0.00410399,0.0438924
0.000713265,-0.0150338
0.0408223,-0.0323874
0.0251243,-0.0269034
-0.016618,-0.0352998
-0.0319193,-0.00593524
-0.0291702,0.0322224
0.0100618,0.024236
0.0394585,-0.00315207
0.0360034,-0.00295889
0.00660197,0.00171369
-0.0374366,0.0176118
-0.0160052,-0.0567667
-0.0370255,-0.0560857
-0.100937,0.0545316
-0.0534809,0.0780101
0.123811,0.0146804
0.183144,-0.022524
0.100935,-0.0262791
0.0588769,0.0210554
0.0226794,-0.0103167
-0.0896751,-0.0344212
-0.0722967,0.0111209
-0.0200889,0.0391058
-0.040693,-0.0144301
-0.0550987,-0.0632025
-0.0588528,0.0121709
-0.0663827,0.036378
-0.0200586,-1.97e-05
0.0103355,-0.00184367
0.0026131,0.00465516
0.0202772,0.00296378
0.0555502,-0.00991488
0.011373,0.00889717
-0.0163866,0.00502687
0.0113231,-0.00138769
0.0115665,-0.0184514
-0.0126123,-0.0176848
-0.0160792,-0.0200093
0.0089728,-0.0142523
0.0126901,0.00136779
-0.00757325,0.00321987
-0.00359061,0.00238039
0.00380715,-0.00116136
-0.00195394,-0.00613007
0.0102422,-0.00595924
0.00825858,0.00316925
-0.00703515,0.00165096
-0.0152249,0.00669842
0.00880447,0.0205774
0.0291819,0.0191383
0.00059586,0.0119227
-0.00148921,0.0222308
-0.0154525,0.00661829
-0.0391834,-0.0375877
-0.0311466,-0.0213119
0.0625336,0.0412273
0.096683,0.0699841
0.0247143,-0.0497324
-0.0486483,-0.0309666
-0.0984937,0.00377756
-0.0597803,0.000403177
0.0787827,-0.0059098
0.0798186,0.015435
-0.0284077,0.0215439
-0.0102614,0.0237542
0.084877,-0.0106119
0.0732084,0.00802641
-0.0195787,0.043498
-0.0414036,-0.0126364
0.0622419,-0.0326206
0.0210794,-0.0473988
-0.112282,-0.0325317
-0.207585,0.00992914
-0.183788,0.0173157
-0.0616583,-0.0040793
0.0290139,-0.00365858
0.0562113,-0.0084245
0.0537877,-0.0178573
0.0435558,-0.00902454
0.0242119,0.00585059
0.0277255,0.0118394
0.0472944,0.0176511
0.0380341,0.00199409
0.00672801,-0.0103047
-0.00578584,-0.00388027
0.0131637,-0.000899757
0.0281965,-0.00411966
0.0290147,-0.00907376
0.0244076,0.000507083
0.0223696,0.00657589
0.0138315,0.00205414
0.00744591,0.00388041
0.00588984,-0.000691312
0.00443158,-0.0114186
0.00437807,-0.0193417
-0.00620983,-0.0101661
-0.013112,-0.00135779
-0.00383185,0.0130539
0.00253829,0.035243
0.0010255,0.0285455
0.00706907,-0.0265391
0.0107918,-0.0231224
0.00587303,-0.00673534
-0.0225439,0.00668584
-0.0639122,0.0302859
-0.0237333,-0.00185258
0.0141507,0.00484389
-0.0278547,0.0117129
-0.0357796,0.0170646
-0.0175606,-0.00475461
0.00814522,-0.0179791
0.0123832,-0.00382451
0.0188818,-0.00845025
-0.00906872,0.0741126
-0.0650809,0.0781555
0.0107658,-0.0227385
0.0517469,-0.0695786
-0.0333563,-0.0541521
0.00460388,0.03905
0.101711,0.0330581
0.0669379,-0.00697243
-0.0536857,-0.0189865
-0.143685,0.026724
-0.0742512,-0.00576668
-0.0542759,-0.00953857
-0.0185605,-0.0491241
0.050395,-0.0536886
0.090067,-0.0271658
0.0612497,0.0132259
0.0113508,-0.0149943
0.00731744,-0.0187749
0.00801864,0.0126504
-0.00297251,0.0249821
-0.00943179,0.0082561
-0.00662274,-0.00968702
0.00273393,-0.00928384
0.0110652,0.0053174
0.0210919,0.00516854
0.0296957,0.00910423
0.0353758,0.0135776
0.0323043,0.0081998
0.0179301,0.00602328
0.00541298,-0.00419737
-0.0105938,-0.0109878
-0.0298119,-0.00554852
-0.038989,0.00853742
-0.0449064,0.012426
-0.0262931,0.0224777
-0.0213635,0.0258602
0.00835508,0.0212695
0.0697919,0.0167778
0.0596695,0.00846511
0.0238289,-0.00182895
-0.0695184,-0.00813555
-0.0883216,-0.0115795
-0.0746169,-0.0250649
-0.0855829,-0.0402172
-0.021866,-0.0227691
0.0592322,0.0209784
0.139439,0.00867688
0.109388,-0.0286142
0.0465936,-0.015737
0.0220511,0.0216961
0.018639,0.00385421
0.0699186,-0.0147233
0.085067,0.029158
-0.0192887,0.058244
-0.140906,-0.00808788
-0.155049,-0.0308405
-0.075549,-0.0261235
-0.0577557,-0.00163353
-0.0501637,0.00929529
-0.046523,0.0145029
-0.0404146,0.0152017
-0.0116931,0.0091787
0.0476858,0.00475277
0.112162,-0.0142411
0.101642,-0.0148803
0.0403275,-0.00450753
-0.048703,-0.0290239
-0.0622562,-0.0337886
-0.0403349,0.000427978
-0.043475,0.0227608
-0.0214015,0.00398937
0.0470387,-0.00711441
0.0332828,0.00383782
-0.0187855,0.0207004
0.022094,0.0345626
0.0920853,0.0334858
0.0938446,-0.00991743
0.0757903,-0.0472697
0.0635647,-1.89e-05
0.0183624,-0.00819696
-0.0606157,-0.0248895
-0.088868,-0.0252857
-0.0922763,-0.00563421
-0.112342,-0.00836121
-0.103995,-0.0159893
-0.0285483,0.000449653
0.0772799,0.035761
0.111838,0.024551
0.0809103,0.0101899
0.00570561,0.0135668
0.0227613,-0.0365625
0.0142821,-0.0545339
0.00415348,0.0248388
-0.00161621,0.0687678
0.00608682,0.0407048
0.0431875,0.0385346
0.0665411,0.0156776
0.0608916,-0.00672821
0.102082,0.000981837
-0.0357501,-0.014433
-0.180918,-0.0599317
-0.129647,-0.0529238
-0.110614,0.0594859
-0.12987,0.040295
-0.0523905,-0.0248551
0.0365372,-0.02881
0.107925,-0.00819128
0.0999393,-0.0140216
0.0364407,-0.00554307
0.0372122,0.00636489
0.0660501,0.0227773
0.0772043,0.0219928
0.0370568,0.00177829
-0.063765,-0.0388969
-0.143248,-0.0285806
-0.0569399,0.0102144
0.0361389,0.00763955
0.0227354,0.0350509
0.000921003,0.0353401
-0.0267022,-0.0299131
-0.0266525,-0.0119918
-0.00202612,0.00333776
0.0229189,-0.0174171
0.02079,0.0309835
-0.0474003,-0.000147273
-0.0815725,-0.0369854
0.0423745,-0.0289288
0.018097,0.00931856
-0.0746366,0.0527162
-0.0424458,0.0409023
0.0185113,0.0207366
0.00676009,-0.00807615
0.00829352,-0.0217812
0.0471039,-0.0302186
0.0824815,-0.0120492
0.103966,0.00656975
0.118985,0.0191311
0.081521,-0.00579252
0.0294566,-0.0306948
0.00110677,-0.0187332
-0.0298303,-0.0138956
-0.0853552,-0.029877
-0.18133,-0.0100619
-0.146763,0.00821836
-0.0176319,-0.014555
0.0149703,-0.00273817
-0.00834287,0.0124675
0.0101579,-0.0035628
0.0614028,0.003756
0.0503437,0.0231266
0.0402843,0.00925025
0.00401437,-0.00802672
-0.0461491,-0.0140908
-0.0589291,0.00179518
-0.0228295,0.0348665
0.0265741,0.0434395
0.0707968,0.0129055
0.0483922,-0.0139675
-0.0582122,0.0152228
-0.0996074,0.039177
0.0537705,-0.00367515
0.171369,-0.0255024
0.12665,0.016755
0.021727,0.0154079
-0.0895241,-0.00103747
-0.0653877,-0.0306403
-0.0429349,-0.00113749
-0.0742873,0.0220394
-0.0396524,-0.0392549
-0.0255446,-0.0291905
-0.00943224,0.00241848
0.00457296,-0.00107254
-0.00315964,-0.0130847
-0.00828992,-0.0284156
0.00546606,-0.0385259
0.0134806,0.0206879
-0.00855315,0.0582163
-0.0348719,0.0155891
-0.0257191,-0.0338135
0.026007,-0.0280858
0.0269636,-0.013049
0.0202795,-0.00531075
0.0322614,-0.0107098
-0.0154541,-0.00115526
-0.00330661,0.0144279
0.0356567,0.0425026
0.0460567,0.0212157
0.0281838,-0.00657234
0.00556989,0.00160673
-0.00910631,0.0122672
-0.0213128,0.00156558
-0.00738466,-0.0293693
0.0223837,-0.0417722
0.0260823,-0.00440303
0.000320556,0.0204906
-0.0449845,-0.00649616
-0.093349,-0.0372407
0.0469357,0.0470296
0.233798,0.118059
0.288968,0.0567754
0.17483,0.00600337
0.0373046,-0.011035
-0.222712,-0.00147734
-0.362979,-0.0580637
-0.245628,-0.0885256
-0.132636,0.024756
-0.0446586,0.0681692
0.0521431,0.0462712
0.0798831,0.0264095
0.123571,-0.0208137
0.0707788,-0.0459273
-0.121494,-0.0500379
-0.148398,-0.0316024
-0.0388197,-0.0144589
-0.0275024,-0.0142272
-0.0329906,-0.00508097
0.0192548,-0.000931043
0.0561772,-0.00195641
0.0669732,0.00980384
0.0728966,0.00912848
0.0703106,-0.00592364
0.0445747,-0.0105456
0.0299645,-0.008718
0.0328535,-0.0104847
0.0406147,-0.00972244
0.0384647,-0.00406256
0.0189326,0.00764741
-0.00227007,0.00924364
-0.0118912,0.00545827
-0.0106582,0.00365811
-0.00706068,0.000139988
-0.0155561,-0.00385364
-0.0294507,-0.000840874
-0.0355629,0.0132342
-0.0230968,0.0204619
0.00541055,0.00680009
0.0179207,-0.00874193
0.0170051,-0.00946826
0.00895383,-0.00864649
-0.00336535,-0.000363729
-0.0190035,0.0196456
-0.0362665,0.00221734
-0.0433465,-0.068421
-0.0602049,-0.109282
-0.063367,0.000559779
-0.0427631,0.150539
0.0295039,0.113026
0.136353,0.0647305
0.186505,0.0614224
0.195171,-7.65e-05
0.18521,-0.00769875
0.0043275,-0.0276953
-0.216471,-0.0599708
-0.276598,-0.0340067
-0.14379,0.0376834
0.0117964,0.0501932
0.090109,-0.0710467
0.0804777,-0.0247642
0.0481261,0.0143939
-0.0016408,-0.00152392
-0.106946,-0.0117325
-0.135704,-0.0397498
-0.0874043,-0.040645
-0.0975882,-0.0425997
-0.0970371,-0.0255505
0.0168503,-0.00793408
0.0946443,0.00691655
0.0732035,0.0110691
0.0775146,0.0156682
0.0617127,0.0105725
0.0170003,-0.00974968
-0.0229316,-0.00979381
-0.0401845,-0.00115625
0.0182325,-0.00736214
0.0773754,-0.0120539
0.0716403,-0.00548595
0.0343056,0.0130492
0.00827463,0.0171338
-0.0107952,0.0113817
-0.00864377,0.00912096
0.00395453,0.00141922
0.00661354,-0.00269951
-0.00976352,-0.00343806
-0.0242083,-0.0115507
-0.025089,-0.00564703
-0.0216806,0.024572
-0.00113892,0.02674
0.0283273,0.00768708
0.0293804,-0.00295986
-0.0151404,0.00465137
-0.0418389,0.0147503
-0.00283531,0.0269513
0.0689179,0.0373778
0.0419371,0.0166202
-0.0621606,-0.025827
-0.084278,-0.0329667
-0.0167175,-0.0202296
0.051045,-0.0175834
0.0443784,0.0522569
0.0379453,0.0331667
0.0528798,-0.0171163
0.0247826,-0.0148878
-0.031903,-0.0151282
-0.0479593,-0.0155118
-0.0190279,-0.0101822
0.0172766,-0.00518568
-0.000854073,-0.0234359
-0.0329682,-0.0389165
-0.0337481,-0.00873345
0.00241256,0.0549221
-0.00902508,0.0197877
-0.0235349,-0.0104417
-0.0119407,0.0116243
-0.0455033,0.0179633
-0.0466861,-0.0139717
0.0217706,-0.0194549
-0.00689515,0.0162588
-0.00961962,0.0232813
0.0245382,0.0218404
0.0612779,0.024798
0.0851279,0.00472008
0.0152103,-0.0293852
-0.0423063,-0.0199578
-0.03528,-0.0120726
0.0243279,-0.00448623
0.0833488,-0.00667037
0.0477361,-0.0130981
-0.0306617,-0.00151478
-0.0901515,-0.0198517
-0.0736217,-0.0102285
-0.0482448,-0.00957888
-0.0510757,-0.0168803
-0.0438755,-0.0160675
0.0333679,-0.0191622
0.0814117,0.0342053
0.0497127,0.0616155
0.0228141,0.0511313
-0.016182,-0.00646533
-0.0361741,-0.0280276
-0.00143538,0.00221491
0.00863892,-0.0288849
0.000897713,-0.0242281
0.00891326,-0.00137144
-0.00636817,0.0429057
0.0118926,0.0274458
0.090313,-0.0314294
0.158859,-0.0138341
0.153278,0.011456
0.0454539,0.0180636
-0.106642,-0.00701404
-0.160225,-0.071976
-0.136939,-0.0812984
-0.084929,0.0393601
-0.0410979,0.0685877
-0.0214389,0.0550283
-0.011041,0.0437931
0.00113229,0.0302153
0.044921,0.0358816
0.0746155,-0.0140312
0.0628226,-0.0386893
0.0272416,0.0103011
0.00912999,-0.00596656
-0.0306588,0.00120341
-0.0530955,-0.0471777
-0.0661581,-0.0569049
-0.056252,0.021284
-0.0174532,0.0233396
0.0403619,0.0146215
0.0666623,-0.0110765
0.0716989,-0.00784724
0.111861,-0.00183864
0.129862,0.011955
0.118303,0.0355803
0.0500997,0.0147064
-0.0260069,-0.0453542
-0.052441,-0.00764303
-0.0848238,0.0333999
-0.0921273,0.021454
-0.127432,0.0187831
-0.104208,0.0117785
0.0119566,-0.0328814
0.0622431,-0.0111807
-0.0306454,-0.0344675
-0.105819,-0.0411369
-0.0235612,-0.0236717
-0.0128115,-0.0293443
-0.0598695,-0.0266027
-0.0137396,-0.0407242
-0.0204566,-0.0445933
-0.0457696,-0.021633
-0.0067139,-0.0104242
0.0692746,0.00864215
0.112895,0.0117473
0.102196,-0.010538
0.0185334,0.0072266
-0.0279084,0.0355452
-0.0518321,0.0177477
-0.000370443,-0.0265638
-0.0341929,-0.0402045
-0.0568393,-0.00715652
-0.0234934,0.0665763
0.0450812,0.0911318
0.0510485,0.0417399
0.0723354,-0.000763991
0.0788512,-0.029317
0.0229986,-0.0122117
0.0029194,0.0320872
0.0185599,0.0734937
0.0569207,0.0298919
0.0707055,-0.0157722
0.0319101,-0.0100228
-0.0351713,-0.0255506
-0.105152,-0.0293476
-0.091287,0.00759574
-0.0322096,0.0149237
-0.0371408,-0.0101538
-0.067569,-0.00768834
-0.0453561,0.0211747
0.0154536,0.00492553
0.0135068,0.00895361
0.0456332,0.037857
0.0858318,0.0111182
0.0472748,-0.0372549
-0.0106348,-0.0252994
-0.0239624,-0.0270634
-0.0300794,0.00121117
-0.0153175,0.0386337
0.00916766,0.0120892
0.0318815,0.0148073
0.0522306,0.0467807
0.085357,0.0293752
0.0766234,-0.0151768
0.0141956,-0.0188701
-0.0104446,-0.0235541
-0.0166797,-0.0283164
-0.102671,-0.0144746
-0.135337,-0.0225883
-0.103631,-0.00987164
-0.0150176,0.00279122
0.0653372,-0.0177388
0.0976978,-0.00913536
0.092344,0.0324261
0.0212303,0.0001711
-0.0814967,0.00885782
-0.0838089,0.0118389
-0.0722389,0.00510661
-0.0465471,-0.0162893
-0.0498799,-0.0123357
-0.0934684,0.0252405
-0.00242415,0.0168396
0.143653,-0.0283514
0.159904,-0.0244238
0.0888563,0.02845
0.035532,-0.0199713
0.0441961,-0.0162815
0.111934,-0.00723651
0.117879,-0.0205278
0.044813,0.0026326
-0.0925209,0.0500454
-0.20884,-0.008652
-0.193824,-0.00766694
-0.0891971,0.0237433
-0.0358775,-0.0288457
0.0242525,-0.0394491
0.0375272,-0.025966
-0.0306751,-0.0136369
-0.0236307,-0.0138486
0.0147788,-0.0122749
0.0312327,0.0118966
0.0329807,0.0173777
0.00426264,0.0027536
-0.0215752,0.00148557
-0.0277953,-0.00294234
-0.0136745,-0.00739749
-0.000331418,0.00866312
0.0333611,0.0157517
0.04764,0.0308568
0.0557942,0.0270076
0.0723518,0.0127972
0.0353228,0.0118394
-0.00786591,0.0129515
0.00586184,-0.00884946
0.0494946,-0.0102356
0.0141206,0.0119743
-0.056585,0.00879503
-0.0649461,-0.0251626
-0.0284984,0.0138377
0.0392079,0.0333233
0.0907334,-0.0572061
0.0265384,-0.0271364
-0.0731791,0.00668042
-0.127932,-0.00952238
-0.046732,0.00460533
0.0314331,0.0179794
0.00833042,0.0162046
-0.0388111,0.0158353
-0.00674404,0.0176099
0.107847,-0.0182054
0.084942,-0.0471785
0.0117383,-0.0168145
-0.0220498,0.0347303
-0.0471504,0.0247351
-0.0432806,0.0210352
-0.039021,-0.000287119
-0.0704943,-0.0136595
-0.0898978,-0.0234044
-0.055445,0.00928793
0.0194371,-0.00931591
0.0357485,-0.0050256
0.0224693,0.0269466
0.0326821,0.0114237
0.0472947,-0.00845547
0.0411439,-0.0198123
0.053548,-0.0329516
0.0596332,-0.0154386
0.0310511,0.00249689
-0.00403641,0.00309894
-0.0158712,-0.00420145
0.00188219,-0.00451422
0.0092361,-0.0144923
-0.00147445,-0.00925808
-0.018747,0.000879371
-0.034303,-0.00584699
-0.0392576,-0.00890712
0.0175428,-0.0109534
0.0363437,-0.00111947
-0.00544144,0.00840801
-0.0199787,0.0230256
-0.0171731,0.00713293
-0.0126139,0.0262251
-0.00288184,0.0383709
0.03723,-0.00658588
0.0506197,0.0257744
0.101924,0.0573488
0.134473,0.0038535
0.0221553,-0.0257307
-0.117478,-0.0206624
-0.112943,-0.0304454
-0.0766716,-0.0426003
-0.10166,-0.0362633
-0.109963,-0.0258163
-0.0419292,-0.00209399
0.0401962,0.0176791
0.0886256,0.014927
-0.00531669,0.0199612
-0.0982661,0.0274632
0.0030631,0.00990117
0.0371032,-0.0196828
-0.0421304,-0.00887098
-0.00936148,0.00819507
0.0949979,0.00243152
0.0880601,-0.0256915
0.00785783,0.0215056
-0.0939516,0.099426
-0.088387,0.0223475
-0.0040178,-0.0435771
0.0530877,-0.0452969
0.111083,-0.035473
0.153811,-0.0149994
0.142509,0.0146516
0.0813456,0.0145249
0.000259931,0.0219223
-0.0860265,0.00741733
-0.11958,-0.0308923
-0.0836988,0.0342468
0.027032,0.0287375
0.149343,0.014735
0.191351,0.026378
0.0617328,-0.0105964
-0.0428946,-0.0401002
-0.0607427,-0.0037746
-0.168372,0.0197979
-0.240599,0.0106894
-0.192377,-0.0236365
-0.122975,-0.018885
-0.0499419,-0.012454
0.027193,-0.0408579
0.0461527,-0.000677653
0.046502,0.0319002
0.0391929,0.00816294
0.0163366,-0.0272862
0.015679,-0.0258446
0.0420008,-0.0210463
0.0420379,-0.0176498
0.0325002,0.00265314
0.0275296,0.0281053
0.0341595,-0.00594304
0.0449586,-0.0629617
0.0498631,0.0247239
0.0621689,0.0455842
0.03695,-0.00120155
-0.0356155,6.45e-05
-0.0707457,0.00881511
-0.0561126,0.0148845
-0.032835,0.0128341
-0.0137529,-0.0058561
0.00913238,-0.0196573
0.0266371,0.0333599
0.0395311,0.047714
0.0806365,0.0339457
0.117563,0.0185074
0.0644935,0.005367
0.031216,-0.0158127
-0.0674819,-0.03754
-0.15828,-0.0169793
-0.10061,-0.020574
-0.0338229,-0.0254274
-0.0286631,-0.00483852
0.0186834,0.00408868
0.0430004,0.00789262
0.0164127,0.0344424
-0.0543626,0.018667
-0.107832,-0.00501474
0.0171017,-0.0168091
0.0789744,-0.0262178
-0.0123432,-0.0332525
-0.052097,-0.0159935
-0.0179938,0.00603553
0.033429,0.0164102
0.0395093,0.0159427
0.0152814,0.00165119
0.0136125,-0.00904163
0.0265797,-0.00195744
0.0292207,0.00898505
0.0265783,0.00983395
0.0192562,-0.0148073
0.00311412,-0.0125681
-0.00424795,0.00247102
0.0313593,0.00716266
0.0394506,-0.0192872
-0.0117407,-0.00678931
-0.0344249,0.0260891
-0.0583035,0.0120318
-0.0395882,0.0123672
-0.0413844,0.0134195
-0.0548817,-0.0131142
-0.0853509,0.00469476
-0.0811799,0.0195697
0.0128714,0.0208368
0.107245,-0.00460722
0.144321,-0.0210807
0.126175,-0.0289802
0.0635259,-0.0198961
-0.0296173,-0.0137069
-0.055654,-0.0166726
-0.0391496,0.000736322
-0.0610622,0.00374836
0.0052756,-0.0014675
0.0259744,-0.0124597
0.0157454,-0.00534949
0.0114207,0.0134506
0.0171661,-0.0225598
0.0181382,0.00150703
0.0121307,0.0414184
-0.0246332,0.0336847
-0.0359677,0.0260182
0.0147679,0.0174152
0.0436408,0.0265648
0.0110449,-0.0410353
-0.00726352,-0.0394984
0.0221951,0.033067
0.0496053,0.0249703
0.0146072,0.0170611
-0.046821,-0.00292117
-0.0883544,-0.0183439
-0.0902618,-0.00448566
-0.0682123,0.00414386
-0.0510926,-0.0303806
-0.0371041,-0.0278937
0.0116931,0.0211402
-0.0178294,0.00261165
-0.0390325,-0.0356019
-0.00781688,-0.0132954
0.0104744,0.0328723
0.0160009,0.0399684
0.0501496,-0.000918434
0.1055,-0.0294258
0.105733,0.038626
0.0792559,0.0299758
0.062266,-0.00165049
0.0394664,-0.0185607
-0.0293487,-0.012329
-0.115914,-0.0286732
-0.106251,0.00468127
-0.0421584,0.00368711
-0.0299687,-0.0156543
-0.0454489,0.0294801
-0.0160935,0.0066318
0.0128627,-0.0118653
-0.00483025,-0.0373625
-0.0364952,-0.00230237
-5.7e-06,0.0103989
0.079991,-0.0148731
0.167041,-0.010025
0.193629,-0.0187931
0.163343,-0.00700976
0.00426973,0.0121931
-0.119362,-0.0284862
-0.127385,-0.0258112
-0.111263,0.0186567
-0.0675836,0.0257262
-0.0356523,0.00605448
-0.0651706,0.0241118
-0.0709906,0.0335218
-0.0341602,-0.000906044
-0.0102586,-0.0123503
-0.00386083,0.0236703
0.0313182,-0.0123774
0.0588912,-0.0233982
0.0444322,0.00212389
0.0275371,0.00874617
0.0267684,7.65e-05
0.0561874,-0.00628825
0.0658851,-0.013117
0.0367614,-0.00668938
-0.033053,0.00293044
-0.058721,-0.0150698
-0.0284961,-0.0200499
-0.0118627,0.0379021
0.0438567,-0.01007
0.0854706,0.0456719
0.119776,0.0643705
0.119696,-0.0277592
0.0678228,-0.0562668
-0.0683931,-0.0391426
-0.213339,0.0255243
-0.228935,0.0570431
-0.130307,0.0302999
0.0311196,-0.0228612
0.0715421,-0.00133325
0.0225287,-0.00241433
-0.00123735,-0.00758417
-0.0412305,-0.00349729
-0.0428007,0.0283732
0.00140022,0.0149876
0.0128979,0.0187128
0.0687214,0.00669168
0.104538,-0.0322481
0.0140772,-0.0559899
-0.038789,-0.0340019
-0.0211426,-0.0290044
0.00554524,-0.0254964
0.0190949,-0.0542259
0.0175504,0.0261785
0.000273886,0.0608126
0.016436,0.0113891
0.0647309,0.0128403
0.0604504,0.00863276
-0.0269167,-0.0095906
-0.096052,-0.00924652
-0.066078,0.00616742
0.0106627,0.0188183
0.071145,0.0527332
0.122377,0.019849
0.13817,-0.0217844
0.0685031,-0.021423
-0.0389637,-0.0435093
-0.0841564,-0.031853
-0.0702882,-0.0164102
-0.0805469,-0.00719835
-0.10376,0.00456022
-0.102949,0.0108904
-0.0603169,0.0211194
-0.0313228,0.038636
-0.00857888,0.00217599
0.00419027,-0.0370674
-0.00581544,-0.00754152
-0.00394437,0.0356528
0.0112881,0.0356825
0.0307853,0.0162588
0.0350653,-5.13e-05
0.0378032,-0.0138866
-0.000360384,-0.0242319
-0.0585567,0.0210761
-0.0621064,0.080947
-0.00541476,0.0423353
0.101417,-0.0390167
0.170915,-0.0171892
0.15405,-0.00974211
0.0958951,-0.0325954
-0.057763,-0.0522981
-0.150361,-0.0314026
-0.083831,-0.0105943
-0.0232516,-0.00615017
-0.0385316,0.00901346
-0.0191338,0.0131797
0.0527755,-0.0186029
0.0674174,0.0219498
0.0631251,0.0383971
0.0671361,0.0139137
0.0554613,-0.00556125
-0.0122151,-0.0139339
-0.0990676,-0.0178939
-0.120983,-0.0284433
-0.0660626,-0.0174485
-0.0260957,-0.00294817
-0.00920176,0.00636178
-0.00944082,0.0135158
0.00752181,-0.00323732
0.0594892,-0.0305975
0.0580072,0.0122154
0.046292,0.0451286
0.0328999,0.0462995
0.0146977,0.0312621
-0.0211115,-0.0262471
-0.0495504,0.000575477
-0.0497356,0.0301803
-0.0574493,-0.00554762
-0.0390814,-0.0386394
-0.00649319,-0.0127301
-0.0342956,0.0445672
-0.046178,-0.0153529
-0.0480356,-0.0351809
0.00204749,0.0129564
0.0805765,-0.003207
0.121399,-0.0301436
0.144959,-0.0374987
0.126662,0.0372484
0.125903,0.0261127
0.117422,-0.0236678
0.0973087,0.0259088
-0.0346128,0.0272219
-0.242711,-0.0391072
-0.264303,-0.0522069
-0.166151,-0.0135176
-0.079505,0.0101447
-0.0218349,0.0182416
0.0217292,0.00292303
0.0340891,0.0112563
0.0363766,0.0132993
0.0401579,-0.00142614
0.0208988,-0.00624952
-0.00537418,0.00158745
-0.00699935,0.005602
0.00198686,0.000992561
-0.00124687,0.000415461
0.00619869,-0.00432974
0.0475464,0.00889464
0.0622009,0.0309634
0.0517841,0.0106619
0.0229715,0.00367663
-0.054457,-0.00495016
-0.10963,-0.0391829
-0.0974904,-0.00946753
-0.0269777,0.00481286
0.0750203,-0.00249084
0.116058,-0.00687154
0.0659494,0.0159889
-0.00563659,0.0220723
-0.0433562,-0.00778922
-0.0508188,-0.018561
-0.0173874,-0.0135262
0.0504706,0.00260106
0.0845683,0.0286677
0.0779197,-0.00743704
0.0460953,-0.0556755
-0.00913907,-0.0625798
-0.0301618,0.00827317
-0.0350315,0.0391503
-0.0282145,0.0230144
-0.0336752,0.0195792
-0.0492202,0.0180554
-0.0477516,-0.00680817
-0.022793,-0.0148017
0.0212325,0.00577859
0.081257,0.0370829
0.0785845,0.0357028
-0.000728886,-0.0250148
-0.127177,-0.00550749
-0.12804,0.0496221
-0.0445683,0.0142243
0.0339156,-0.0285368
0.0457712,-0.0381485
-0.0119832,-0.0179132
-0.051508,-0.0241525
-0.054239,-0.0160713
-0.0145186,0.0438371
0.0704179,0.0432741
0.211629,-0.00126672
0.299753,-0.0281869
0.0957836,0.019173
-0.156011,0.0434677
-0.250829,-0.0540211
-0.078502,-0.0461222
0.0861205,0.0161496
0.0793661,0.0469452
-0.0144044,0.0220718
-0.0898599,-0.0178851
-0.0769744,-0.0419753
-0.0046491,-0.0392206
0.0473469,-0.0287756
0.0057453,0.0149836
-0.0626689,-0.0128781
-0.0479506,0.00489244
-0.00943321,0.034784
0.00740454,0.00399219
0.0115144,0.000995588
0.0179601,-0.0265067
0.014796,-0.0266742
-0.000101939,0.00904689
-0.0125449,0.0118317
-0.0116392,-0.0125528
-0.00992691,0.0134587
0.00729772,0.0314072
0.00459206,0.0249796
-0.00949796,0.0163603
0.00774658,0.00556547
0.010012,0.0113902
0.0303812,-0.0252329
0.0898933,0.0205375
0.0490783,0.0323985
-0.0211324,-0.0222156
-0.0554291,-0.0357085
-0.0437033,0.0084604
0.0256358,-0.00495826
0.0282732,-0.0170156
-0.0127325,-0.00493791
-0.00451549,-0.0101032
0.0353851,0.0131375
0.0813815,0.0170838
0.0562937,0.00963988
0.00748089,0.00956278
0.0246188,-0.00780704
0.0250574,-0.025764
-0.00868442,-0.0332741
-0.00452508,-0.0261794
0.0385199,-0.00651741
0.00767084,0.00397259
-0.111148,0.0172368
-0.16151,0.0130979
-0.125646,0.0345494
-0.051446,0.0156028
-0.0129581,-0.0038662
-0.00529615,-0.00614058
-0.0240648,-0.0146254
0.00144343,-0.0123468
0.0120094,0.00944145
0.0123093,0.0130331
0.0582857,0.0117718
0.101981,0.00925094
0.057355,-0.0326705
0.0236431,-0.0733824
0.0450318,-0.0131551
0.0627758,0.0533373
0.0386234,0.0552836
-0.0230091,0.0287807
-0.0528869,-0.000595547
-0.0798873,-0.0434042
-0.0959958,0.00745879
-0.0911656,-0.00793224
-0.0675933,-0.011703
-0.00705676,0.0191735
0.0787557,0.014371
0.154379,0.0152462
0.194104,-0.00591086
0.0772851,-0.00743609
-0.0915629,0.0294935
-0.11002,0.0274788
-0.0784571,0.00144863
-0.0631662,-0.0298709
-0.0129669,-0.0313143
0.093709,-0.0699056
0.0697429,-0.00110446
-0.0167447,0.0229998
-0.0237726,0.010834
-0.0494792,-0.0109929
-0.0593683,-0.0257397
-0.0562372,0.00969054
-0.0484639,0.0236996
-0.0188546,0.0196272
0.0371474,0.0352859
0.138421,0.0193928
0.118302,-0.043158
-0.0426892,-0.0207623
-0.0450803,-0.00901548
-0.0816581,0.00598674
-0.0710538,-0.00486555
0.00483171,-0.00936874
0.0278914,0.0484705
0.0144413,0.0305749
-0.00440947,0.00759098
-0.0472562,0.00795339
-0.0128958,0.00837743
0.0325934,-0.0240012
0.0882599,-0.0193019
0.0919012,-0.0151995
0.066236,-0.0256907
0.0499928,-0.0463431
0.00700322,-0.0189848
0.0266085,0.0095039
0.0246884,-0.000391728
-0.0285371,-0.00741993
-0.0462479,0.0288074
-0.0205265,0.033725
-0.0148514,0.00736547
-0.0331282,0.0118094
-0.024203,0.0039247
-0.00889451,-0.00927937
-0.0277722,-0.0145748
-0.0457762,-0.0153463
-0.0581731,0.00255187
-0.0743941,0.00656464
0.0102982,-0.0308246
0.0517143,-0.0312901
0.00104069,0.0151168
-0.0128217,0.0272924
0.0176336,-0.0409157
0.0352981,-0.0154246
0.0563677,0.0450618
0.0358054,0.0583935
0.0103675,0.0403619
0.000176725,0.0075455
0.0201281,0.0330591
0.0293547,-0.0167255
-0.0100926,-0.0646563
-0.0486839,-0.0567183
-0.0554697,-0.00122533
-0.0434011,-0.0236783
-0.000967622,-0.0336184
-0.0349024,0.0334704
-0.075986,0.0518587
-0.0125127,0.0395063
0.0500018,0.0413776
0.0425619,0.0714202
0.0649819,0.037243
0.0807201,0.0250209
0.0605618,0.0158928
0.0278941,-0.0199145
-0.000909657,-0.0437856
0.00850885,-0.0633934
0.00424956,-0.0535742
0.0107557,-0.0343481
0.0347271,-0.0303134
0.0386504,-0.0591577
-0.0481974,0.0073278
-0.15085,0.026696
-0.156777,-0.0213239
-0.116897,-0.0236695
-0.0577208,0.0113311
0.00592891,0.0204818
0.0690817,0.0290248
0.0679586,0.0671647
0.117947,0.0931889
0.225639,-0.00200585
0.214355,-0.0298083
0.058576,-0.0427737
-0.146841,-0.0642432
-0.223074,-0.0462921
-0.162799,-0.0241769
-0.0957951,-0.00742399
-0.0376347,-0.00531119
-0.0129579,-0.00027031
0.0093896,0.0147284
0.0137985,-0.00105764
-0.0126845,-0.00813719
-0.0332425,0.0112243
-0.0189589,-0.0247015
-0.00566161,0.0141618
0.0144959,0.0397465
0.0340349,0.0151081
0.0358587,0.0233785
0.0530767,0.0347064
0.0746155,0.0336957
0.123858,0.0403917
0.163655,0.00823631
0.0927591,-0.0119566
-0.0531091,0.00715051
-0.083453,-0.0293489
-0.0223414,-0.023873
-0.00406019,0.00834015
-0.0225223,0.0669729
-0.0269882,0.0271108
-0.0523198,-0.0638401
-0.139066,-0.0473496
-0.110354,-0.0248376
-0.012521,-0.0113089
0.0259512,0.00461879
0.0671697,-0.00525508
0.0609233,-0.0163044
0.0245662,-0.0359729
0.00585987,0.00814718
-0.0144177,0.038996
-0.00764053,0.00562948
-0.00919869,0.007048
-0.0132565,0.0153502
-0.0266328,0.0111059
0.0156816,-0.00487374
0.0429004,-0.0286776
0.0478204,-0.0185323
0.0130093,0.019471
-0.0477247,-0.00860284
-0.0537886,-0.0228636
-0.0357425,-0.00603562
-0.032068,0.0165959
-0.0312529,0.0265564
0.00654066,0.016195
0.0439676,-0.00266789
0.0666186,-0.0275817
0.0603743,-0.0124382
0.0496389,0.0115797
0.0288223,0.0180396
-0.0165776,8.3e-05
0.00778023,-0.00779525
0.0675978,0.00948586
0.109005,-0.00165522
0.0466679,-0.00150796
-0.0922374,-0.0046745
-0.112544,-0.013925
-0.0579075,-0.0400824
-0.0404292,-0.00527335
-0.0322412,0.0287895
-0.025127,0.0230522
-0.00196484,0.0174175
0.0228439,0.00522546
0.010512,-0.014861
-0.0222503,-0.000860523
-0.0289971,0.00619718
-0.00936305,0.00467007
0.01199,0.015998
0.0179044,0.00711782
0.00225588,-0.00385802
-0.0179846,-0.00540407
-0.0228241,-0.0149419
-0.014424,-0.00800734
-0.000772102,-0.00395413
0.00108954,0.00421744
-0.00528889,-0.00415851
0.00132091,0.00261414
0.0209051,0.0180444
0.0484887,0.0207014
0.0654506,-0.00365033
0.0560598,-0.0195212
0.051471,-0.0122356
0.0242278,-0.000122881
-0.0226886,0.00211193
-0.0500343,0.00291137
-0.0595114,-0.00792465
-0.0370134,-0.0108252
-0.0131075,-0.00524829
0.0143518,-0.0138767
0.055251,-0.0180052
0.0719814,-0.00605142
0.0438349,0.00826172
0.0234537,0.0307552
-0.0258391,0.0386676
-0.0883931,0.0169961
-0.112075,-0.0208841
-0.0793948,0.00384334
-0.0251171,-0.00786673
0.00980037,-0.0162641
0.00570851,-0.00220572
0.0161138,0.0146596
0.0456498,0.011993
0.0536632,-0.00316027
0.030365,-0.0109099
-0.0251632,-0.000891627
-0.0657225,0.00512792
-0.014793,-0.000809406
0.0182615,-0.00250455
0.0127319,-0.0174498
0.00500222,0.00623199
-0.000386808,0.0227777
0.0164045,0.0147311
0.0148782,0.00959827
0.0101355,-0.00106535
0.014345,-0.0261278
0.00135442,-0.0166595
-0.00839143,0.0185881
0.0296529,0.0147045
0.0362057,-0.0556833
-0.015977,0.000893953
-0.0667386,0.0301785
-0.050849,0.0212489
-0.0205199,0.00354214
0.00268595,-0.0197748
0.00519065,-0.0139267
0.00402456,0.00193482
0.0123152,-0.00916066
0.018979,-0.0203377
0.0274243,-0.00609306
0.0259989,-0.00873879
0.0133092,-0.0128197
0.00439911,0.00187068
0.010631,0.0112494
0.0301025,0.0295383
0.0457423,0.0218074
0.0353519,0.00230216
0.00173713,-0.013418
-0.0187423,-0.017242
-0.0227856,-0.00254141
-0.0252725,-0.00599847
-0.0333656,-0.0129485
-0.0308936,-0.000669557
-0.0241774,0.0127915
-0.0214118,0.00866503
-0.00748615,0.00209777
0.00403985,0.00735646
8.9e-05,0.00440057
-0.011974,0.00105208
-0.0218092,0.00611541
-0.0211512,0.013707
-0.0126281,0.0197955
-0.00372753,0.0211008
-0.00585635,0.00774532
-0.0170004,-0.0104844
-0.0229633,-0.0153806
-0.0182123,-0.014328
-0.00422807,-0.0225807
0.013806,-0.0260596
0.0235549,-0.012629
0.0439736,-9.97e-05
0.0908119,0.00512176
0.123735,0.00548929
0.147139,-0.00068184
0.143639,-0.00582315
0.0957015,-0.00345744
0.0107576,0.0103228
-0.132723,0.0136574
-0.181951,0.0170919
-0.10737,0.0125326
-0.0447023,-0.000984998
-0.0131266,-0.00612848
-0.0249468,-0.00405307
-0.0520897,-0.0089976
-0.0816654,-0.0134376
-0.0614668,-0.0087794
0.00488286,0.00132891
0.0133943,0.00487461
-0.0222949,0.00192629
-0.0642706,0.000189994
-0.0858265,0.000287456
-0.0813054,0.000308983
-0.0613253,0.00802085
-0.0014555,0.0150275
0.0883415,0.0180933
0.146878,0.021996
0.127134,0.0157327
0.0740163,-0.000392822
0.0580453,-0.00597181
0.104822,-0.00509685
0.185579,-0.00550107
0.215357,-0.0113863
0.172085,-0.0076076
0.0957874,-0.00181521
0.0203607,-0.00907648
-0.0333171,-0.00430987
-0.122943,0.00630447
-0.1934,-0.00488092
-0.249576,-0.0424001
-0.314878,-0.0307676
-0.239188,0.00196038
-0.056984,0.0160759
-0.0161613,0.0165482
-0.0479031,0.00375958
-0.0581642,-0.00792667
-0.00916226,-0.00556635
0.0214522,0.00364496
0.0186992,0.00270337
0.0532389,0.00332105
0.117223,0.0141722
0.0950212,0.0215551
0.0524922,0.0161114
0.0151397,0.0133277
-0.0241094,0.00335742
-0.0506693,-0.0144894
0.0111032,-0.00937252
0.188272,0.00477901
0.288021,0.0110149
0.241994,0.0119545
0.122641,0.00791483
-0.0829018,-0.00201904
-0.248938,-0.0125041
-0.215969,-0.0155802
-0.101093,-0.0144312
-0.0214267,-0.0145304
0.0342302,-0.00738545
0.0300327,0.00503526
-0.0187809,0.0170839
-0.0913634,0.0117527
-0.0920802,0.00882345
-0.0416939,0.00521962
0.0122233,0.00905273
0.0411287,0.016066
0.0221605,0.0230473
-0.0389277,0.0219415
-0.0936887,0.0180145
-0.0971444,0.0119835
-0.0488039,-0.0114841
0.0687796,-0.0264436
0.172176,-0.0301211
0.316239,-0.0304586
0.293824,-0.0359204
0.148587,-0.0364776
0.15583,-0.0269492
0.179381,-0.0298101
0.0236289,-0.0342549
-0.0358601,-0.0220462
-0.101184,-0.0259891
-0.291869,-0.0213564
-0.405112,0.00181515
-0.252932,0.0148136
-0.0843397,0.0183974
-0.0259751,0.0222006
0.023903,0.0233268
0.0889525,0.0184484
0.136198,0.0190547
0.075789,0.0215767
-0.0717176,0.0205002
