Comp Ch 3,Comp Ch 4
-0.000458842,0.0223814
0.000684983,0.0452872
0.00840255,0.0865774
0.0125699,0.0974753
0.0134513,0.0440186
0.0138963,-0.225971
0.00507637,-0.506317
-0.00210636,-0.627399
-0.0101471,-0.607878
-0.0156733,-0.363085
-0.0127202,-0.00127047
-0.00274375,0.363001
0.00499413,0.691695
-0.000818018,0.695378
-0.0127514,0.412377
-0.0121096,-0.0516684
-4.27e-06,-0.30214
0.0131402,-0.304861
0.0172088,-0.263622
0.0194593,-0.0795658
0.0140896,0.167625
0.0107744,0.269655
0.001228,0.231269
-0.0125568,0.131847
-0.0168768,0.00947922
-0.0161935,0.0156509
-0.0119484,0.052104
-0.00884331,-0.031233
0.00136465,-0.235296
0.0113441,-0.425582
0.0095782,-0.485465
0.0111297,-0.423393
0.0124108,-0.105596
0.0010352,0.373987
-0.0185107,0.704151
-0.020566,0.727379
-0.0134738,0.482073
-0.0154797,0.152234
-0.0225311,-0.015735
-0.0109519,-0.138903
-0.00316422,-0.148432
-0.00398894,-0.118342
-0.0168727,-0.0285922
-0.0295915,0.0500054
-0.0231602,0.0959834
0.00561537,0.0662996
0.038389,-0.0317157
0.0484726,-0.0937349
0.0648777,-0.111549
0.135776,-0.156717
0.179083,-0.159857
0.119514,-0.163177
-0.0348369,-0.120517
-0.188502,-0.0340733
-0.212521,0.0180401
-0.162671,0.0496516
-0.0724238,-0.0241076
0.0304137,-0.0396134
0.115108,0.0298848
0.162374,0.0676396
0.12909,-0.0405387
0.0365731,0.00289938
-0.0612335,0.00373772
-0.143372,-0.0798335
-0.179612,-0.119538
-0.144336,-0.128654
-0.0835693,-0.0824881
-0.0445427,-0.0458605
0.00442804,0.00500703
0.055304,0.0710447
0.082727,0.104122
0.098083,0.0697769
0.113828,0.0390742
0.102514,0.0760362
0.0423713,0.0475138
-0.0164824,-0.00232562
-0.047986,-0.0158552
-0.0591032,0.00298576
-0.025203,0.0136058
-0.00462126,0.00510018
0.00628879,-0.00430634
0.0145485,-0.00492968
0.0183532,-0.0191122
0.0142423,-0.0255257
0.0226362,-0.047511
0.0233135,-0.0111806
0.0285453,0.0170181
0.0156738,0.0487726
-0.0327176,0.0666141
-0.0573893,0.0551228
-0.0533078,0.0250771
-0.0547171,0.0434025
-0.0385335,0.0647687
0.0207113,-0.0209063
0.0498391,-0.00561405
0.0681863,-0.00977637
0.0674785,-0.00547531
0.0559947,-0.00391456
0.0587412,-0.026134
0.0345757,-0.0438184
-0.0280774,-0.0627542
-0.03395,-0.0513198
0.00275669,-0.00397099
0.0170571,0.0324604
0.0517608,0.0451919
0.040517,0.0491714
0.00122071,0.036999
0.0108894,-0.0174144
0.0197995,-0.0249956
-0.0551,0.0107127
-0.112596,0.0133889
-0.106022,0.0144943
-0.0550073,0.0114427
-0.0214799,-0.0042954
0.00829956,-0.0223948
0.0283675,-0.0171771
0.0347728,-0.0223962
0.0239934,-0.0620269
0.015361,-0.0340699
0.0103158,0.0340552
0.00549925,0.0412499
-0.0184306,0.018224
-0.0328883,9.97e-05
-0.0272323,-0.0049818
-0.0192002,-0.00689266
-0.0283063,0.00663167
-0.0430393,0.022006
-0.0332925,0.00570239
-0.00902177,0.00543278
0.00937914,-0.00259166
0.0207771,-0.0231714
0.0206019,-0.027347
0.0150278,-0.0318264
0.0107794,-0.0340184
0.0115752,-0.0329647
0.0213844,-0.0118052
0.0209619,0.00771963
0.0054641,0.00480924
0.00241614,0.00880964
0.00769163,0.0401647
-0.00334707,0.0964305
-0.0124921,-0.0135191
-0.0190495,-0.0879657
-0.0288055,0.0221983
-0.0279521,0.114297
-0.0358985,-0.00744214
-0.00785779,-0.0946041
0.0467569,-0.0736988
0.0108918,-0.0478885
-0.0455349,-0.064658
-0.0575154,-0.0511535
-0.0340446,-0.0320254
0.0717634,0.0178449
0.127262,0.0277834
0.0782274,0.00915732
0.0602492,0.0378371
0.0302463,0.0305165
0.00826226,0.0150805
0.00171093,0.0272938
0.00431815,0.0364078
0.00960526,-0.0155181
-0.0166945,-0.00305342
-0.0529935,0.0339596
-0.0644835,0.0337304
-0.0486515,0.0231824
-0.0338843,0.0175177
-0.00506851,-0.000492045
0.0439365,-0.0146497
0.0565223,-0.00469246
0.0360217,0.0116322
0.00700741,0.0112277
-0.00762301,0.00247845
0.000968942,0.000107156
-0.0212541,0.00129911
-0.0487243,-0.0104747
-0.0221298,0.00228506
-0.0217086,0.0151648
-0.0251974,0.00559074
-0.000874796,0.00442669
0.0163024,0.0220978
0.0108495,0.0277488
0.00710784,0.00462646
-0.0127771,-0.0181158
-0.0324028,-0.0269843
-0.0215969,-0.0255681
-0.00208745,0.0051115
0.0128004,0.0151781
0.0340922,-0.0066861
0.0409885,-0.0141313
0.0461833,-0.00823207
0.0250162,-0.00361388
-0.00772037,-0.00622564
-0.00206095,0.0111736
-0.00074235,0.0160267
-0.00319012,0.012529
-0.00360995,0.0106565
0.00115724,-0.00624967
-0.00577928,0.00722235
-0.0106174,0.0125509
-0.0127017,-0.0117669
-0.0126082,-0.0254119
-0.0174297,-0.020326
-0.0180048,-0.00103899
-0.0140289,0.0064092
-0.009761,-0.00687012
-0.00757136,-0.0131768
-0.00749079,-0.00613691
-0.00463423,-0.00752641
0.000142318,-0.0106508
0.00968052,-0.0057972
0.0174349,0.0105543
0.0165466,0.0302486
0.00684954,0.0243533
0.00396885,0.0113285
0.000743693,0.00800915
-0.000618732,0.0193276
0.0139713,-0.0173758
0.0421108,-0.0315128
0.0101763,-0.0214737
-0.0141838,0.0012238
-0.0108823,-0.0175328
-0.00843113,-0.0225044
0.00285702,-0.00743632
0.00973491,-0.0124953
-0.00599653,-0.00890947
-0.0243271,-0.00267042
-0.0572641,0.00252678
-0.0893114,0.0128327
-0.0317597,0.0224931
0.0437381,0.0162006
0.000874456,0.0105882
0.00116837,0.00712848
0.0573157,-2.72e-05
0.0385542,-0.00889485
0.00104124,-0.0144189
0.0446392,-0.00898914
0.0223532,0.0106176
0.00766641,0.00948185
0.0344555,-0.0140109
0.0291501,-0.00370777
0.0179323,0.0052931
0.0159406,-0.00961915
-0.00332163,-0.00444115
-0.0216485,0.000733362
-0.0250132,-0.0124852
-0.0404516,0.00551577
-0.0631164,0.0702922
-0.0505025,0.0423297
-0.00621957,-0.0345278
0.0228958,-0.0321513
0.0183038,-0.0127991
0.0287387,-0.0224627
0.0190758,-0.0163712
0.0038996,-0.00657805
-0.00219493,0.00138722
-0.000543041,0.0212435
-0.00868232,0.00414242
-0.00665539,-0.0200736
-0.00542538,-0.0118016
-0.0086745,0.0152804
-0.0030704,0.0414853
-0.00833603,0.0376933
0.00354493,0.0393265
0.0137789,0.0203421
0.00735649,0.0218141
0.0123213,-0.00879892
-0.00183176,-0.0376447
-0.0222152,-0.0365667
-0.00920571,-0.0209752
0.0240248,-0.00719699
0.019948,-0.0137104
0.0109487,-0.0151403
0.00097762,-0.0122139
-0.0223073,-0.00682569
-0.0249138,0.00250756
-0.013558,0.00944928
0.00381628,0.0191075
0.0160414,-0.00821477
0.0180793,-0.03546
-0.00409226,0.0188878
-0.0246853,0.0498177
-0.0193157,0.00493862
-0.00189508,0.0279265
-0.0030357,0.0493628
-0.00532568,0.00995788
0.00048206,-0.0429568
0.012797,-0.0312557
0.0186138,-0.0132872
-0.00091343,-0.00894344
-0.0196271,-0.00371713
-0.0153656,-0.000213433
-0.00743009,-0.00571044
0.002827,0.0267004
0.0110068,0.0297758
0.0160396,0.00291921
0.00884895,0.00343209
0.00385371,0.012525
0.00317523,0.00428468
0.0167699,-0.00212603
0.0201888,-0.0303239
0.0111925,-0.0493371
-0.0051943,-0.032006
-0.0171538,-0.0252776
-0.0168787,0.00576573
-0.0174426,0.0312662
-0.0153326,0.0304012
0.00611003,0.0170195
0.0210694,-0.00417184
0.0162987,0.00951278
0.01536,0.0214333
0.0281844,0.0238797
0.0314617,-0.00501579
0.026721,-0.0566139
0.0090142,-0.035834
-0.00382636,-0.0259334
-0.0241129,-0.00396218
-0.0323493,0.0590793
-0.0276911,0.0426888
-0.0111868,-0.0294849
-0.00061769,-0.0529385
-0.0111144,-0.0191739
-0.0255192,0.00351569
-0.0243148,0.0343073
-0.0187793,0.0166008
-0.0134895,-0.0017385
-0.00865021,0.0252361
-0.00406801,0.0510753
0.0162661,0.0331683
0.0330344,-0.00568853
0.035214,-0.0232842
0.0321217,-0.0512324
0.0290864,-0.0492422
0.0336374,-0.0355911
0.0298581,-0.0238278
0.0167249,-0.0514193
0.00620485,-0.0171985
-0.00819356,0.0310571
-0.0125942,0.0320146
-0.0193625,-0.015505
-0.039641,-0.0172093
-0.0729025,0.0485978
-0.0682692,0.0469417
-0.0389781,0.00876102
-0.0231975,0.0476055
-0.0469127,0.0387578
-0.0774883,0.0975699
-0.0770409,0.0798575
-0.057338,-0.0412876
-0.0333684,-0.0716295
-0.00209271,-0.0565957
0.0178822,-0.0205743
0.034794,0.00650833
0.05929,0.0615599
0.0976343,0.0624385
0.116624,-0.0844086
0.107278,-0.0915402
0.0993532,-0.0689715
0.0867589,-0.0555058
0.0693255,-0.0363279
0.0540016,-0.00102863
0.044404,0.0100246
0.019945,0.0792121
-0.0107387,0.116343
-0.0329951,0.00194996
-0.0439927,-0.0562658
-0.0432677,-0.0776139
-0.0337425,-0.110598
-0.0485836,-0.0374835
-0.046897,0.0342601
-0.0281754,0.0448394
-0.01987,0.0599973
-0.0193447,0.019368
-0.0217324,0.0201956
-0.0234071,0.0214265
-0.020516,0.00942969
-0.0124223,-0.00791794
-0.00294329,0.0134224
0.00339447,0.0032407
0.0154403,-0.00284499
0.0209188,0.0110084
0.0186119,-0.0127832
-0.00102159,-0.0240951
-0.0196764,-0.000635085
-0.0172345,-0.0335209
-0.016231,-0.0344151
-0.0172609,0.0193628
-0.0168422,0.0371246
-0.00802548,0.0272021
0.00115184,0.0349968
0.00812888,0.0342465
0.00179801,0.0222424
-0.00533536,0.034342
0.00226601,0.055427
0.00895126,0.000133227
0.00514109,-0.0317729
0.00661131,-0.00743686
0.0109578,0.03199
0.00890742,0.0189363
-0.00278745,-0.0141007
-0.00770412,-0.0731514
-0.00848662,-0.0634435
-0.0187708,-0.0257218
-0.0194774,0.0286997
0.000215463,-0.000681779
0.00538564,-0.00633123
-0.00123649,0.0135211
0.00639955,0.0109863
0.019845,-0.00793299
0.0227332,-0.0189268
0.0133523,-0.00616251
0.00662,0.000224784
0.000535433,-0.000326117
-0.00687049,0.00100449
0.00290516,-0.00469843
0.0159854,-0.0116482
0.00409527,-0.00779835
0.00396547,-0.0158412
0.00332495,-0.0249859
-0.00470814,-0.0248164
-0.00923883,0.00719328
-0.00237125,0.0453911
-0.0105076,0.0349694
-0.0144205,0.0244894
-0.00658375,0.012969
0.00452604,0.00645232
0.0229606,-0.0180132
0.0361423,-0.0560032
0.00509681,-0.0176751
-0.00761758,0.0291997
-0.00963771,0.0371845
-0.0414312,-0.0246093
-0.0523226,-0.0480168
-0.0244443,-0.0223629
-0.0125599,-0.0185364
-0.00643246,-0.0233058
-0.0177572,-0.00312795
0.00212408,0.0202606
0.0170165,0.0211337
0.0134583,0.0363496
0.0440715,0.0381944
0.0511594,-0.00154353
0.037267,-0.0128326
0.0259626,-0.00559479
0.0140511,0.0053852
0.0118047,0.00342752
0.0235253,0.000273576
0.0234944,0.0115226
0.016562,-0.00320497
0.00535957,-0.0231674
-0.00505645,-0.0203619
-0.0227605,-0.0230705
-0.041515,-0.0263376
-0.0415233,-0.00208876
-0.0304977,0.0423206
-0.0238748,0.0561613
-0.0206717,0.0323519
-0.0172138,0.00504397
-0.0116046,-0.00710052
-0.019689,0.021391
-0.0149866,0.00523381
0.0140821,-0.0167698
0.0419753,-0.0135626
0.0464073,-0.0082946
0.0236567,-0.0166302
0.0217284,-0.0277455
0.0194153,-0.0162296
0.0189812,-0.0135038
0.00792943,-0.0234856
-0.0027054,-0.0249669
-0.011284,0.00225411
-0.0193147,0.0372792
-0.0188176,0.0363776
-0.00496367,0.0285891
0.00273691,0.0197408
-0.0091056,0.0119065
-0.0193529,0.0159847
-0.0137934,-0.0123379
-0.00957669,-0.0401474
-0.000853133,-0.0263074
0.0112754,0.00423658
0.0103427,-0.00614829
-0.0041099,0.00330146
-0.0148774,0.0321268
-0.0139888,0.0377942
-0.00305334,-0.0590452
-0.00640693,-0.0609631
-0.00524843,-0.0111932
-0.00030098,0.0125678
-0.000416148,0.0219494
-0.00583612,0.04029
0.00488134,0.0177866
0.0110968,-0.00408467
0.0131098,0.0253524
0.00837085,0.0222673
0.00220377,-0.0356149
-0.00527212,0.00300614
0.0100214,0.0100204
0.0135452,0.00169467
-0.00292044,0.00322309
-0.0176351,-0.000463515
-0.011382,-0.0079984
-0.00577767,-0.0200279
-0.0103546,-0.0133485
-0.0092162,0.00905276
-0.00796949,0.0133642
-0.0117305,0.0101946
-0.0234901,0.0053805
-0.016253,-0.00678487
-0.00119769,-0.0133748
0.00251969,-0.00543687
0.0128911,0.00379059
0.0317017,0.00651649
0.0322634,0.0220777
0.0250763,0.0235351
0.00326008,0.00719423
-0.0217245,-0.0157107
-0.00354909,-0.0237598
0.0143151,-0.0315256
0.00758718,-0.0353005
-0.0131593,-0.0175389
-0.0166785,-0.0048928
0.00810576,-0.00591049
0.0159157,0.00850953
0.0196129,0.013199
0.0209885,0.00709911
0.0122535,-0.00803325
0.00262628,-0.00944275
0.000613063,0.00605651
0.0115414,0.016094
0.00439932,0.0287735
-0.00719728,0.0277515
-0.0128452,0.0109616
-0.0159637,-0.00260912
-0.0161415,-0.00656513
-0.0183,-0.00756922
-0.0218709,-0.0138775
-0.0187765,-0.00220628
-0.0129631,0.00711048
-0.000808306,0.00287205
0.00889027,0.000421019
0.0120041,-0.010618
0.0255291,-0.0225053
0.031134,-0.0215515
0.00482569,-0.00410039
-0.0166213,0.0102377
-0.0240225,0.0158526
-0.000728463,0.0143964
0.00522236,0.0208854
-0.00604221,0.0499327
-0.00661845,0.0177938
0.00849009,-0.0252528
0.0204396,0.00952689
0.0169925,0.0198583
0.00520486,0.0141919
-0.00488197,0.00593858
-0.0117416,-0.0208545
0.00347977,-0.0350023
0.0309125,-0.032766
0.0100344,-0.0136173
-0.0162527,-0.00182901
-0.026395,0.0140437
-0.0222673,-0.034438
-0.0120794,-0.042583
-0.0151958,-0.0302559
-0.00872121,0.0182236
0.026697,0.040719
0.0249485,0.000432423
0.0188242,-0.0221877
-0.00223271,0.0221334
-0.0215386,0.0330171
-0.0128286,0.0229528
-0.00467984,0.0173895
-0.00848697,0.00337616
-0.00956415,-0.0146972
-0.0205957,-0.0301892
-0.0350338,-0.0393086
-0.0342827,-0.0350309
0.0242338,-0.0236535
0.0540886,0.00496219
0.0339388,0.0206847
0.0301774,0.0126582
0.0341306,0.00552925
0.0247807,0.0150002
0.00177165,0.0267566
-0.0183843,0.0122072
-0.0270704,0.020669
-0.0181955,0.0357565
0.00895979,0.0109107
0.0236982,-0.0247972
0.00302725,-0.0105954
-0.0124513,-0.00857832
-0.00803599,-0.0239722
-0.00288663,-0.0286608
-0.00965156,-0.030276
-0.0139391,-0.0112886
-0.00945594,0.0211442
-0.00521936,0.0183508
-0.00283249,0.000988885
-0.00392751,-0.00341743
-0.00531379,-0.000562284
-0.00604666,0.0171987
-0.000851357,0.0184303
0.00789271,0.0215651
0.00998352,0.0219442
0.00801543,0.0157525
0.000538721,0.0124047
-0.0143236,0.00153042
-0.00916033,-0.00102463
0.00816813,-0.0248236
0.00401461,-0.0560384
-0.0148535,-0.0113308
-0.00932609,0.0023369
-0.00013996,0.00718813
0.00660538,0.00386425
0.00584932,-0.00935894
0.00789654,0.00429829
0.00886566,0.00547509
0.00516966,0.00341688
0.016704,0.0183403
0.0269478,0.0058171
0.0197213,-0.0145383
0.00708476,-0.017525
-0.00726611,-0.0201153
-0.0340776,0.0333048
-0.0571845,0.0415289
-0.0501838,0.031929
-0.00821229,-0.00195957
0.017751,-0.0509322
0.0148169,-0.0415429
0.0213117,-0.0151598
0.0292569,0.00988525
0.0174935,0.0150691
0.00622031,0.0158596
-0.00979502,0.0176964
-0.02734,0.0119432
0.00386988,0.0115052
0.0470912,0.0122308
0.0412824,0.00587954
0.020853,-0.000204742
-0.0144097,0.00282262
-0.0453123,-0.0385857
-0.049458,-0.0594027
-0.0288918,-0.0421343
-0.0115099,-0.0154145
-0.000777534,0.00736234
0.000829723,0.0268637
-0.000630145,0.0340309
0.00367298,0.0120574
-0.00380033,0.00630325
-0.0189972,0.00658592
-0.0273831,0.00174226
-0.012844,-0.00490013
-0.0183207,0.00059146
-0.0250613,0.00410538
0.0075348,-0.00306574
0.0392717,-0.00330014
0.0365508,-0.00817758
0.0537312,-0.0242041
0.0734725,-0.0238496
0.0411726,-0.00865279
0.0260112,0.00075464
0.0122109,0.0192075
0.00990306,0.0210406
0.00449989,0.00853314
-0.0146186,-0.00414908
-0.024708,-0.00549986
-0.0134349,0.00597472
-0.0156651,0.00853667
-0.0214195,0.0151548
-0.00515466,-0.00696581
0.00204961,0.00250711
0.00445721,0.00311864
-0.00297525,0.00153425
-0.00586783,-0.0100102
-0.0102137,-0.00414689
-0.0260134,-0.00791778
-0.0176423,-0.0185286
0.0206839,-0.0115164
0.0135712,0.0205463
0.000879234,0.0301485
-0.000825682,0.0101337
0.000908962,0.00121172
0.00132622,0.0038153
-0.001824,-0.0143915
-5.09e-05,-0.00617438
0.00833778,0.0034062
0.00150257,0.00438132
-0.0188043,-0.00258355
-0.0243519,0.0200062
-0.00966017,0.0289832
0.00363126,-0.0146317
-0.0203348,-0.0106856
-0.0235575,-0.0105791
0.00464223,-0.0135719
0.010193,-0.00155928
0.0123085,0.0136832
0.024442,0.010597
0.0176172,0.0152184
-0.00785065,0.000935832
-0.027763,-0.00935226
-0.0273852,-0.0109242
0.00474559,-0.0174062
0.00622965,0.00363377
-0.00339625,-0.00172541
-0.00767234,-0.0231929
-0.0115669,-0.0302352
-0.00228922,-0.00180576
0.00733914,0.0257108
0.0218432,-0.0175642
0.00923801,-0.0385522
-0.00540091,-0.00489891
0.00771408,0.0274211
0.00763551,0.0423613
-0.000460544,0.0458708
0.00490212,-0.0099092
-0.0163632,-0.0191843
-0.0273848,0.0107797
0.00925899,-0.00475588
0.00651083,0.0076098
-0.0148725,0.00137038
-0.000491934,0.0380343
0.0004045,0.0124015
0.0131815,-0.0360698
0.0189653,-0.0311239
-0.0050072,-0.0227558
-0.0106894,-0.0216295
0.00962916,-0.00636952
0.0306999,0.00905824
0.0173356,0.0190284
-0.0206846,0.0244388
-0.0291653,0.00531545
-0.0433244,0.0020579
-0.0854691,0.0101513
-0.05045,-0.00183481
0.0113845,-0.0227798
0.0638372,-0.0168035
0.111923,0.00847874
0.107814,0.0182608
0.0852805,0.0117134
0.0384008,-0.00243527
-0.0244227,-0.0142147
-0.0735298,-0.00993038
-0.0446232,0.00765415
-0.00201834,-0.0029468
-0.00283675,-0.0203392
-0.0134228,0.0033136
-0.022969,0.00673314
-0.0152447,-0.00749832
0.00331792,-0.00701715
0.00120827,-0.0029831
0.00463005,-0.00517959
0.000158862,-0.0116984
-0.0256669,-0.00150088
-0.0230581,0.0161192
0.0161901,0.0177872
0.0452915,0.0186024
0.0243064,0.0211997
-0.0057632,-0.00897741
-0.0110659,-0.0312853
-0.0125846,-0.0105381
-0.013774,0.0031505
-0.0137905,0.0157071
-0.00945921,0.0150712
0.0122736,0.0106074
0.0134715,-0.000112962
0.00534737,-0.00576204
0.000309158,-0.0053104
0.00687044,-0.0145627
0.00820403,-0.018085
0.00140034,0.000572744
0.00100581,0.0117787
-0.00759987,0.0101655
-0.0137866,0.0132814
-0.00755813,0.00294547
0.00030692,-0.00551318
0.00795115,-0.00406459
0.00462308,0.00703603
0.00101496,0.00896321
0.00815231,0.015275
0.0155825,0.0147875
0.00126612,0.000174482
-0.0338597,-0.00313202
-0.0539007,-0.00283816
-0.0472489,-0.0196451
-0.0269987,-0.0279731
-0.00226152,-0.0203923
0.00887177,0.0065309
-0.00973793,0.0128602
-0.00483386,0.00547692
0.0166553,0.00210235
0.015772,-0.0192785
0.00740845,-0.0250936
-0.0164778,-0.0113424
-0.0207571,0.00747115
0.00776585,0.010156
0.0270715,0.0161061
0.0371181,0.0208526
0.0715775,0.00300076
0.0912958,-0.00845151
0.0308391,-0.00401263
-0.0200346,0.00812266
-0.0228029,0.010392
-0.0256832,0.0127488
-0.025398,-0.0016046
-0.0087306,-0.00696131
-0.0150002,0.00710253
-0.021876,0.00745558
0.00618291,-0.0270638
0.0349211,-0.0162427
-0.00903676,0.00891114
-0.0293879,0.00153983
-0.0139008,0.00150314
-0.0107698,0.0187592
-0.0120928,0.0148384
0.0048995,-0.00258511
0.000870109,-0.00334685
0.00358231,-0.00867231
-0.00240727,-0.0180317
-0.0297801,-0.0195177
-0.0143283,0.00238149
-0.00815575,0.015774
-0.0230531,0.00477867
-0.00969811,-0.000134494
0.00757802,-0.00398961
0.0581193,-0.00766886
0.0522879,-0.00528083
0.0147093,0.00436066
-0.0246927,0.00665985
-0.0418027,0.0092039
-0.00165399,0.00839615
0.0266481,-0.00872553
0.024313,-0.0201106
0.00166557,-0.0113712
-0.00913458,-0.000608425
0.0133972,0.00745832
0.0238019,0.00330139
0.0190801,-0.00543381
0.017034,0.0101598
0.000399687,0.0158908
-0.0166112,0.00317293
-0.0248586,-0.0154137
-0.0399186,0.00415312
-0.0367706,0.0265606
0.00377237,0.00774928
0.0489044,-0.0189263
0.0197901,-0.001329
-0.0288605,0.0213708
-0.00335699,0.00546242
0.0189889,-0.0122887
0.0130789,-0.0150339
0.00058204,-0.023559
0.00478504,-0.0271166
0.0108821,-0.0130362
0.0121692,0.0104032
0.00406659,0.0197984
0.0153279,0.0153244
0.0430585,0.0127771
0.0481881,0.00636804
0.00316702,-0.00865597
-0.0741601,0.00276742
-0.0522732,0.00993879
-0.0410531,-0.0130965
-0.0509465,0.00407524
-0.0454602,0.0207029
-0.0622675,-0.00590083
-0.0716721,-0.0130677
-0.040737,-0.00817484
-0.0528449,-0.0109073
-0.0989741,-0.0137363
-0.0378137,-0.00721379
0.0971244,-0.00640264
0.166213,0.0037861
0.130523,0.0212241
0.124725,0.0108652
0.100317,0.00645765
0.0536024,0.020892
-0.0124821,0.0104752
-0.0828538,-0.041075
-0.118888,-0.0259285
-0.00349444,0.011754
0.0657088,0.0181541
0.000959102,-0.00368338
-0.0105777,-0.00343334
0.012947,-0.00189707
0.0132735,-0.0200749
-0.0443162,-0.0448654
-0.0247828,-0.0187862
0.00184228,0.0235061
-0.0472653,0.0124783
-0.0705004,0.0058243
-0.0564199,0.0265966
-0.0279433,0.0300566
-0.00355919,0.0232768
0.0580747,0.0405312
0.0760479,0.0158491
0.0721043,0.0089935
0.0971307,0.0335505
0.116877,-0.00559894
0.0543192,-0.0488978
0.00396856,-0.0629476
-0.0337879,-0.0259616
-0.0581239,-0.0225484
-0.0770138,-0.0333587
-0.0843011,-0.0115325
-0.0533453,-0.000811924
-0.0270149,0.0282132
0.0145811,0.0204506
0.0657482,-0.00679461
0.0323525,-0.00989994
-0.0436542,-0.0167118
-0.0542854,-0.0144287
-0.047871,-0.00268042
-0.0577274,0.0182751
0.0207813,0.0400522
0.0433473,0.0348899
-0.00265709,-0.0254332
-0.0539952,-0.00958938
-0.0369217,0.0800464
-0.0140856,-0.00594418
0.035592,0.00626561
0.148623,-0.00105939
0.143309,-0.0431591
0.0784895,0.000844485
0.0332005,0.0459495
0.00893303,0.0039742
0.0439912,-0.00749475
0.0582148,0.0618471
0.0581972,0.00674584
0.0683976,-0.0639102
0.0101868,-0.0140206
-0.162963,-0.0046806
-0.244117,-0.0223103
-0.169157,0.00419867
-0.233803,0.0488408
-0.287364,0.00727195
-0.180949,-0.00820991
-0.0543545,-0.00193586
0.050711,0.00865299
0.16572,-0.0101913
0.235161,-0.0310592
0.204086,-0.0366307
-0.00531059,-0.0265106
-0.151749,-0.019824
-0.0146298,-0.000629659
-0.0404114,0.0112948
-0.222151,0.0521341
0.0241632,0.0186705
0.330088,-0.00864149
0.308523,0.0109399
0.158758,-0.0684333
0.0889775,-0.0664016
0.0158375,-0.0131936
0.0943967,0.025209
0.147977,0.0610272
0.213347,0.0752206
0.238539,0.0518243
0.0545005,-0.0140683
-0.210216,-0.0639656
-0.322475,-0.135548
-0.410869,-0.0507379
-0.344689,0.0808955
-0.192009,0.0948541
0.0350655,0.0839622
0.195105,-0.00138524
0.246247,-0.0912389
0.138148,-0.056656
0.00890509,-0.0377303
-0.112639,-0.0173507
-0.0878313,0.0273739
-0.104954,0.015814
-0.179137,0.0123755
-0.21081,-0.0248422
-0.220092,0.047008
-0.0497195,0.0396143
0.0557697,0.00360394
0.208604,-0.00863917
0.230566,-0.00701187
0.199301,0.00935457
0.146553,-0.0139549
0.178326,0.0377672
0.130821,0.0286514
0.00211529,0.00212647
0.00358411,-0.038981
-0.103135,-0.0377178
-0.202438,0.0231039
-0.0897597,-0.0214237
-0.0646752,-0.0492194
-0.0352042,-0.0200506
0.0820425,0.0227688
0.111098,0.067786
0.0206815,0.0200265
-0.109879,-0.0035727
-0.0912455,-0.0268678
-0.207347,-0.0285958
-0.206984,-0.00950683
-0.0268218,0.0249978
0.13414,0.0777679
0.136559,0.0725531
0.0554037,0.0158884
0.155512,-0.0267228
0.250468,-0.056483
0.228017,-0.0556571
0.134646,-0.0208486
0.0721303,-0.00593394
-0.0682557,-0.0147717
-0.187666,0.0489595
-0.0918157,0.0198659
0.0696921,-0.0164888
0.0825171,-0.029901
-0.015518,-0.00268967
-0.324276,0.0919598
-0.333984,0.0345575
-0.0524779,-0.0672266
0.080927,-0.0230753
-0.0117926,0.00428307
-0.147094,0.017537
-0.0407917,0.014177
0.019215,0.0304866
0.0357233,0.0334585
0.0489966,-0.0463014
0.0416906,0.00873916
0.0050606,0.0304771
-0.00664012,0.0433185
-0.0203423,-0.118653
-0.0148625,-0.160116
0.0549369,-0.0414087
0.0237832,0.0414796
0.0813875,-0.0746951
0.126418,-0.0603537
0.187926,0.0323162
0.275785,0.0826891
0.210382,0.0860544
0.141388,0.0528741
0.0937428,-0.0131389
-0.0964558,-0.0334804
-0.276029,0.00125011
-0.316595,-0.00282031
-0.21863,0.0236575
-0.178448,0.0875232
-0.12247,-0.0693766
0.0207885,-0.0735901
0.0461037,0.0202513
-0.156159,0.0373388
-0.0886591,-0.0506608
0.138317,-0.0784184
0.148479,0.000969624
-0.00408909,0.0430473
-0.119983,0.0315014
-0.122961,0.026229
-0.0321512,0.0105338
0.0993966,0.0143068
0.13217,0.0524427
0.121319,0.0374231
0.151767,-0.0243322
0.157332,-0.0110493
-0.00870382,0.111036
-0.0556606,0.0130839
-0.0969997,-0.00837038
0.00546935,0.00922497
0.0907675,0.0411303
0.0359252,-0.00666686
0.0377208,-0.0273168
0.199669,0.00166713
0.256123,0.0636605
0.196014,-0.0227768
0.0380623,-0.0920222
-0.191301,0.00627843
-0.35201,0.0403676
-0.425385,-0.0669511
-0.353307,-0.1551
-0.179026,-0.0511105
0.0412285,-0.0206245
0.153811,-0.0330814
0.0918884,0.0310688
0.0277967,0.0682548
0.0323956,0.000452574
0.0765562,0.00367261
0.130718,0.0020016
0.153536,0.0486475
0.0384146,0.0989801
-0.192189,0.0307964
-0.202093,0.0754876
-0.0834878,-0.00889812
-0.0231231,-0.0689895
-0.0176155,-0.037043
0.0244907,-0.0156282
0.134359,0.000743283
0.166353,-0.0534795
0.0526244,0.00171821
0.0136795,-0.0132691
0.0581731,-0.0837412
0.0676179,-0.0373025
0.00172709,0.0203035
-0.0704577,0.0717353
-0.0438619,0.0540404
0.0231947,0.0101336
0.0296951,-0.0132099
-0.0690318,-0.0266424
-0.0561276,-0.0281979
0.0540203,0.0206465
0.0675449,0.0465186
0.04314,-0.0344709
0.00581006,-0.00358918
0.0142538,-0.0206491
0.0268083,-0.0405413
0.00326344,-0.0588651
-0.0320639,-0.0329724
-0.0530046,-0.0218967
-0.074221,-0.0125584
-0.0771719,-0.00414974
-0.0691034,0.00919264
0.00287077,-0.0156559
-0.022248,0.0360064
-0.113266,0.0557715
-0.0478283,0.0206273
0.0766817,0.0182166
0.0903271,0.00055935
0.100221,0.0362054
0.0701297,0.0489643
0.000533399,-3.02e-05
-0.00548363,-0.00729484
-0.00259979,-0.0237581
-0.0105517,-0.0389157
-0.0196033,-0.0203051
-0.00325458,-0.0293872
0.0305995,-0.0456777
0.0312238,-0.0586399
0.0550229,0.0261285
0.03366,0.0756912
0.0274757,0.0461443
0.0479842,0.025301
-0.000329454,0.0357116
-0.0541724,0.0419259
-0.0402455,0.0156853
-0.0564317,-0.00998902
-0.0550382,0.00922649
-0.00125662,0.0677953
0.07495,0.0370912
0.0655875,0.00861448
0.108534,0.0160204
0.121273,0.0114291
-0.0519601,0.0113661
-0.110653,-0.00088255
-0.113351,-0.0810491
-0.0930251,-0.0427778
-0.049765,-0.00979608
-0.0570828,-0.0081957
0.00872074,0.0205995
0.0413348,-0.00885009
-0.00671383,-0.0117653
-0.164777,-0.0148965
-0.14039,-0.0186468
0.0048758,0.0524427
0.0539125,0.0749506
0.0891806,0.0443811
0.21133,-0.0280628
0.173026,-0.0553597
0.0249832,-0.0200564
-0.0273886,-0.012799
-0.074168,-0.100664
-0.159502,-0.0633048
-0.115008,0.022496
0.00706143,-0.0211899
0.0336616,-0.0558871
0.0575498,0.0189532
0.108596,0.0412731
0.121731,0.0364845
0.0746986,0.048079
-0.0568727,0.077472
-0.120415,-0.00216047
-0.0988469,-0.0523262
-0.0928355,0.0472716
-0.0651171,0.0281164
-0.0376077,-0.0528454
0.0316767,-0.079415
0.11483,-0.0660074
0.109236,-0.021999
0.056813,0.0192966
-0.0275347,0.0521014
-0.0797641,0.0247091
-0.0915832,0.0109073
-0.0471016,0.0129325
-0.00738467,-0.0179127
0.086491,-0.0536356
0.120342,0.0191111
0.0599584,0.034817
0.0342556,0.0486255
0.0321203,0.0391173
0.0214507,-0.0350076
0.00891999,-0.057242
0.0290519,-0.0131367
0.0690235,-0.00252151
0.0553558,-0.000464763
0.0290107,-0.00663971
-0.00532173,-0.0193068
-0.0227599,0.0128491
0.00146777,0.0546733
-0.00966195,0.00442001
-0.100397,-0.0216337
-0.119432,0.0147417
-0.0809912,0.000972318
-0.105325,-0.0284641
-0.0927079,-0.0414273
-0.000565289,-0.00607923
0.0460595,-0.0191129
0.0136537,0.00880302
0.0672675,0.0185323
0.11887,-0.0141601
0.0965207,-0.0213426
0.0925105,0.0175078
0.0455377,0.0021257
-0.11556,-0.0255602
-0.202304,0.0179149
-0.186834,-0.00361649
-0.0919914,-0.0223451
0.00903111,-0.0203194
0.0238322,-0.013437
0.0596235,-0.0137178
0.0715853,-0.00404739
0.0257099,0.010368
0.0305619,0.0343064
0.0712051,0.0398611
0.149288,0.0302085
0.110266,0.0342215
-0.056338,0.0879698
-0.197138,0.00990189
-0.172971,-0.02133
-0.0496238,0.0178993
0.00893334,-0.00472303
0.0200663,-0.0366826
0.0417765,-0.0129439
0.0116301,0.00434216
0.00497299,0.0486227
0.0203063,0.0173007
0.0279046,-0.0301835
0.0398899,-0.0262018
0.0553282,-0.0107389
0.0368964,-0.0110061
-0.00276577,-0.0256284
-0.0137751,-0.0239857
0.020149,-0.0136833
0.0108889,-0.00800157
-0.0101694,-0.00207629
-0.0401849,0.0467652
-0.0600207,0.0317781
-0.0245784,0.0689517
0.0534814,0.0680191
0.0512876,0.0483804
-0.0547821,0.00777919
-0.0598439,-0.0740611
-0.0359109,0.0313433
-0.0145993,0.0516027
-0.02404,0.00248911
-0.0255294,-0.0500555
-0.0281406,-0.034328
0.0220969,-0.0110689
0.0924536,-0.0311361
0.142652,-0.0573492
0.137362,-0.0400614
0.0315196,-0.0109704
-0.0381276,-0.00234111
-0.0605431,0.0108702
-0.0310988,0.0359422
-0.0144751,-0.00848442
-0.0275586,0.00451128
0.12708,-0.0221782
0.10161,-0.0375348
-0.01941,-0.0263416
-0.0385582,-0.0219598
-0.0544918,-0.00185266
-0.054727,0.00576165
-0.0228301,-0.00438981
-0.0439114,-0.000733594
-0.0399912,-0.00571072
-0.0104949,-0.0100649
0.0258583,-0.00391468
-0.0161037,0.0129523
-0.0505342,0.0209973
-0.0436502,0.0285824
-0.0557913,0.0122192
-0.0785419,-0.00910003
-0.026947,0.0155464
0.0697525,0.029461
0.126987,0.027824
0.136927,0.0142206
0.139858,-0.0212989
0.100276,0.000686438
0.0112116,-0.0124663
-0.0616538,-0.0234646
-0.13912,0.0375431
-0.148872,-0.0132151
-0.119636,-0.0393018
-0.0835463,-0.0148257
-0.00311253,0.010913
0.0660826,0.0966234
0.0808481,0.10562
0.0670076,-0.0184974
0.0721855,-0.0452509
0.000130135,-0.0657662
-0.0732351,-0.0443447
-0.0644923,-0.059521
-0.0314468,-0.0802291
-7.48e-06,-0.0217767
0.0244829,0.0223473
0.0212715,-0.0021972
0.0230812,-0.019202
0.00169672,-0.0058606
0.000354729,0.0271976
0.0241819,-0.025572
0.0335493,-0.00985356
0.0228193,-0.0103861
-0.00490282,-0.015578
0.0240833,0.0243235
0.0388895,0.0164653
0.0510712,0.0114243
0.0218816,0.0440597
-0.037053,0.0229406
-0.0554495,0.002644
-0.0765246,0.00272916
-0.0440767,0.0353274
-0.033024,0.0448272
-0.0076839,0.0105879
0.0531396,-0.0231204
0.06049,-0.0209667
0.0198224,0.00893029
-0.0188667,0.012453
-0.0181135,0.00523998
0.0195892,-0.00745555
0.046966,-0.00640959
-0.00692041,0.040727
-0.0489444,0.0336738
-0.0128914,0.0294837
0.0241585,0.0720418
-0.00606629,0.022831
-0.022041,0.000574675
-0.0309067,0.0106653
0.0048678,0.0207821
0.0759017,0.00539907
0.0311256,-0.0132934
-0.0404611,-0.0479975
-0.0865955,-0.0426646
-0.0542274,-0.0456757
0.00452332,-0.0474674
-0.0219935,-0.0305231
-0.056983,-0.0300641
-0.0576471,-0.011216
-0.0473034,0.0226307
0.054169,-0.0361669
0.191646,-0.0300364
0.228726,-0.00290721
0.16358,-0.0139976
0.0527208,-0.0193207
-0.0521152,0.0147629
-0.0814293,0.0440973
-0.0158207,0.0630142
0.096941,0.0665502
0.062699,-0.0310438
-0.0211875,-0.0601381
-0.115836,-0.0501308
-0.30577,-0.00609577
-0.315182,0.00522251
-0.118142,-0.0132694
0.0355663,0.00339987
0.107924,0.0367517
0.181161,-0.0123835
0.0992789,-0.0636042
-0.0397514,-0.0137261
-0.067034,-0.00421772
-0.024503,0.00126646
0.0033665,0.0296553
0.0591503,0.0378263
0.153658,0.0258932
0.184796,0.0126747
-0.0202735,0.00781194
-0.205259,-0.0157303
-0.141367,0.00688915
-0.061347,0.0130244
-0.0841992,-0.00126604
-0.0768537,0.00591474
-0.00989152,0.036876
0.0947082,-0.0344009
0.125149,0.0146633
0.0589786,0.0302356
0.0184422,-0.0176716
-0.00935821,-0.0211612
-0.0295951,-0.0113391
-0.0111783,0.0107784
0.0286341,0.0121837
0.0589888,-0.00167062
0.0983645,-0.00433366
0.100397,0.00118651
0.0484213,-0.000291031
-0.00281575,-0.012802
-0.00588917,-0.00983159
0.00918056,0.00119563
0.034681,0.0241311
0.101059,0.0267168
0.0946542,0.0192499
-0.00438856,-0.00624911
0.0113766,-0.0322452
-0.029814,-0.028315
-0.174926,-0.0119024
-0.184869,0.00316125
-0.0778517,0.0217619
-0.0499524,0.0398431
-0.10067,0.0535109
-0.0453629,0.00762562
0.117335,-0.0292282
0.177533,-0.0344809
0.0402493,0.00748857
-0.0898973,0.0432927
-0.102159,0.0414094
-0.0239539,-0.019422
-0.00621708,-0.0136511
-0.0792689,-0.0307162
-0.112811,-0.0455642
-0.0518102,-0.0311672
-0.0146956,-0.0222397
0.0270421,-0.00937953
0.0414699,0.0132552
0.0574297,0.0257601
0.0539293,0.0265024
0.0474544,0.013134
0.0332342,-0.000323137
0.0147502,-0.0153346
0.0312808,-0.00351899
0.0609245,-0.00747612
0.0582667,-0.00799568
0.024709,0.00188675
0.00373323,0.0128968
-0.026267,0.0257751
-0.0668676,0.0305259
-0.0694775,0.0152824
-0.0194555,-0.0548619
0.00840618,-0.0545277
-0.0627823,-0.0324682
-0.0614481,-0.00451629
0.0280837,0.0129095
0.0753814,0.00214186
0.11399,0.00307308
0.134032,-0.00297449
0.0550572,-0.00851313
-0.0388124,0.00498739
-0.0730547,0.0116859
-0.0727459,0.0141738
-0.0339617,0.0177998
0.0259615,0.0138861
0.0929765,0.0219707
0.126905,0.0642276
0.0738253,0.0301711
-0.018251,-0.0176978
-0.183115,-0.0345484
-0.200642,0.000746027
-0.0173296,0.0149865
0.0502286,0.00284361
-0.0115441,-0.0180333
0.0144925,-0.019499
-0.0365071,-0.0234624
-0.106069,0.0107484
-0.0899946,0.0287412
0.0226685,0.0020861
0.100149,-0.0266743
0.0799305,-0.0350153
0.0429949,-0.0340956
-0.00960201,-0.0321107
-0.0114113,-0.0081249
0.0264754,0.00256385
0.0219977,-0.00861924
0.00599624,-0.00561349
-0.00946171,0.0514105
-0.00382703,0.0358879
0.00491063,-0.0202282
0.00223395,-0.0358246
0.00387469,0.00988124
0.00126277,-0.020676
0.00425046,-0.0200628
0.0446118,-0.000501053
0.0595479,0.00516806
0.053334,0.00887389
0.0366407,-0.00937886
-0.00367106,-0.0139244
-0.0356211,-0.00296983
-0.0443341,0.0109201
-0.0248122,0.0167711
-0.017088,0.0072227
-0.0165669,0.00434045
0.0187598,0.0306036
0.0935325,0.0633051
0.229953,0.0398653
0.197592,-0.00384932
0.0310255,-0.0386921
-0.165059,-0.00595112
-0.305782,-0.00445129
-0.329254,-0.0464095
-0.220905,0.000217121
-0.0956611,0.0287912
0.0106319,0.0174432
0.010705,0.00726254
0.0424103,-0.019789
0.0694471,-0.0521992
0.0781491,-0.0272808
0.0833595,0.0144539
0.108026,-0.00114547
0.114613,-0.0083422
0.0223334,-0.00862107
-0.0351624,0.0147994
-0.0234341,0.0139809
-0.0379948,-0.00286435
-0.012453,-0.00820053
0.0543782,-0.0081642
0.0565454,-0.00346828
0.0447536,0.00466365
0.0344256,0.013758
0.0305888,0.0256209
0.0311195,0.0335213
0.00495224,-0.0211344
-0.0301781,-0.00228041
-0.0452433,-0.0160659
-0.0459363,-0.0198594
-0.0374026,0.0275273
-0.0249055,0.0211158
-0.0230088,8.12e-06
-0.0270816,-0.00265886
-0.0202984,0.00138234
0.00672364,-0.000316934
0.0382259,-0.00973865
0.0483493,-0.00532287
0.0405646,-0.00900586
0.0313295,-0.000578021
0.0169047,0.0339341
-0.00186183,0.0413835
-0.0116425,0.0195873
-0.0213805,-0.0296231
-0.0203401,-0.00538749
-0.0202258,-0.0278861
-0.028078,-0.0341583
-0.0492132,0.00285443
-0.0559852,0.0148683
-0.0513941,-0.00949583
-0.0305643,-0.01056
0.00889073,-0.00346699
0.045173,0.00212094
0.0525516,0.00766147
0.0462478,0.0266972
0.0970968,0.028474
0.170725,0.0137758
0.0710097,0.0399579
-0.10764,0.0124994
-0.190301,-0.0392305
0.0485764,-0.0369728
0.0948545,-0.00238429
-0.0780904,0.0114901
-0.22325,0.0343691
-0.169479,-0.0345743
-0.0204731,-0.0435869
0.0436132,0.00187185
0.0547383,0.0156215
0.0504826,0.0341615
0.0304998,0.0398058
0.0334633,-0.0646359
0.0255703,-0.0304628
0.00393574,0.0175023
0.00725935,-0.00383102
0.0388733,0.000947779
0.0529405,-0.00336785
0.0476772,-0.0280103
-0.00292637,-0.0208182
-0.0352193,-0.00448227
-0.0154584,-0.00851403
0.00923423,-0.00333339
-0.00606886,0.0149669
-0.0307328,0.0204522
-0.0162458,0.0116349
0.0169884,0.00575577
0.00615678,0.00427493
-0.0184407,-0.00398181
-0.041912,0.0115353
-0.0310043,0.0248608
0.0193971,0.0094911
0.0680179,0.0140854
0.0937754,0.0178805
-0.000706956,-0.0282225
-0.112748,-0.0139174
-0.0256151,-0.0240543
0.0216854,-0.0642689
0.0340368,-0.0641389
0.0614019,0.00218768
0.0350264,0.0702294
0.00535641,0.0538313
-0.0178777,0.0212033
-0.0497894,-0.0160855
-0.065607,0.00863735
-0.0227714,0.016192
0.0999509,-0.00344214
0.0908372,0.00966344
-0.0239246,-0.00852925
-0.0105728,0.0136385
0.0511791,0.0571781
0.023386,-0.0293096
-0.0294161,-0.0300005
-0.0742795,-0.000239993
-0.066795,-0.0246624
-0.0491391,-0.0242198
-0.0403227,0.0097823
-0.0358124,0.00877113
-0.0107538,0.00675643
0.0239157,0.00311796
0.0307844,-0.0112149
0.023919,-0.0195521
0.017875,-0.019677
0.00433668,-0.0110967
-0.0197724,-0.00554086
-0.0133626,0.00196399
0.0152229,0.000632878
0.0291595,-0.00128824
0.0188245,0.00670324
-0.00205117,0.0212788
-0.0155895,0.0383888
-0.00408075,-0.0126021
0.0132426,-0.0208941
0.0108723,0.0125859
0.00862706,0.0303455
0.0051058,0.0265261
0.037666,-0.02143
0.141552,0.00265911
0.125183,0.0118395
0.0188812,0.00377244
-0.0800357,0.0204025
-0.104189,0.0284475
-0.0521402,-0.00146716
0.032245,-0.0417956
-0.0339018,-0.040398
-0.0961054,-0.0288062
-0.0757161,-0.0139664
-0.113992,-0.00233281
-0.103456,-0.000743866
-0.00875643,0.00583638
0.0977078,0.00551863
0.0685702,-0.0136445
0.0279762,-0.027228
0.0315434,-0.0215277
-0.0175196,-0.0114254
-0.0570158,0.00273305
-0.0218777,0.00795846
0.0216799,-0.0345335
0.0283326,-0.0331455
0.0373361,0.0464131
0.0449811,0.0419074
0.038917,0.0138871
0.0390694,0.00829118
0.0344047,0.0157139
0.0151268,0.0183001
0.00823876,0.0118638
0.00585437,-0.00781657
-0.000602287,-0.000437946
-0.0209595,-0.0202413
-0.0341301,-0.0300126
-0.0156005,0.0211567
0.0172955,0.00636827
0.0299533,-0.03212
0.0131069,-0.00770259
-0.0283448,0.0479491
-0.0427175,0.0169581
-0.022273,0.00487816
-0.0326498,0.00393903
-0.050119,-0.0256204
-0.0317867,-6.06e-05
0.00913331,0.0339919
0.0106276,0.00235572
-0.00449793,0.0106647
0.0613606,0.0120504
0.0787555,-0.0134702
0.0332802,-0.0112241
0.0109769,0.021644
0.0266116,-0.010515
0.0433052,-0.0325995
0.0559046,0.00106495
0.0999645,0.00594816
0.0925598,0.0148797
-0.0225767,0.0383046
-0.104469,0.0285762
-0.113885,-0.00569624
-0.100959,-0.0124879
-0.0783835,-0.0179239
-0.0764611,-0.0350915
-0.0640417,-0.0275252
-0.0202409,-0.0048021
0.0144728,-0.00333616
0.0176156,-0.000483708
0.00415204,0.0179842
0.0183928,0.0156867
0.0279355,-0.0638764
-0.0246498,-0.00938319
-0.0492524,0.0429328
-0.0244825,0.00975529
-0.0173708,-0.0232706
0.0016405,0.0104968
0.025963,0.0231996
0.0536081,0.0125209
0.0767241,0.0117201
0.0530834,0.0182971
-0.0106743,-0.00692244
-0.0221346,-0.0189246
0.0232476,0.00287098
0.0316425,0.0237619
0.00601741,0.0634177
-0.0221402,-0.0336526
-0.0125886,-0.046633
-0.00993332,-0.0179287
-0.0236834,-0.0243422
-0.0454945,-0.0246786
-0.041362,0.000880098
-0.0189307,0.01769
0.0126745,0.00396716
0.0214708,-0.00477878
0.0526716,0.0108707
0.0979724,0.00992018
0.0724795,0.0129728
0.0347018,-0.00815799
0.0190011,0.0193993
-0.00345234,0.0112024
0.0189568,-0.00916348
0.00475553,-0.0160749
-0.0583291,-0.0137727
-0.0763846,-0.0202962
-0.0549853,-0.0183178
-0.00059936,-0.0164057
0.0246234,-0.0197699
-0.0182087,-0.00892215
-0.0251457,0.0150781
-0.0102883,0.0157583
0.0167636,0.00512723
0.0597102,0.00547615
0.0826572,0.0145296
0.0769603,0.0151538
0.0262393,-0.0150207
-0.0822083,-0.00959701
-0.120508,0.00511779
-0.0801241,0.000492383
-0.0364829,0.0173469
0.00302473,0.02097
0.0238234,0.0517405
0.0441585,0.0177665
0.0426164,-0.0230666
-0.0104793,-0.0236515
-0.0264578,-0.0115354
-0.00784109,0.00761498
0.0108796,-0.0675361
0.000524183,-0.0169343
-0.0297573,0.0310836
-0.0292114,0.0227372
0.00369643,0.0150038
0.0154636,0.0576154
0.0170366,0.0228361
0.016031,-0.0137652
-0.000469882,-0.0209608
-0.0615999,0.00769152
-0.069165,0.0295404
0.0756927,0.0182842
0.125092,0.0171943
0.048079,0.0233081
-0.0372912,0.0135075
-0.118167,-0.0337505
-0.0852237,-0.0579304
-0.00611231,-0.0547259
0.0122979,-0.0102643
0.0241865,0.000775916
0.139293,0.0171015
0.240675,0.00823449
0.183686,-0.00714661
-0.000798548,-0.018066
-0.134135,-0.0509105
-0.206399,-0.0335991
-0.190847,-0.0144655
-0.0515719,-0.0125832
-0.00208067,-0.00786429
-0.00724243,-0.000325535
-0.00987516,0.000217444
0.000805336,0.00710075
0.00927421,0.0143602
0.0110206,0.0126636
0.0436451,0.0146882
0.0177028,0.0218273
-0.0317601,0.00787798
-0.0153458,-0.011161
0.0235292,-0.00614751
0.0252668,0.0139006
0.0167757,0.0304993
0.0151709,0.012843
0.0167934,-0.00213281
0.0155832,-0.00635012
0.00978759,-0.0143326
0.0178147,-0.0182473
0.0282904,-0.0308021
0.0341384,-0.0224339
0.0438808,0.0130861
0.0126625,0.0171632
-0.0452061,0.0112346
-0.0712162,0.010256
-0.0838725,0.0129076
-0.0536686,0.029327
-0.0203309,0.00998541
-0.0034983,0.011695
-0.0096913,0.000429474
-0.0150991,0.0111673
0.00546277,0.0088011
0.0615411,-8.34e-05
0.108638,0.0100015
0.128326,0.0379442
0.106823,0.0424719
0.0766709,-0.0255852
0.0514697,-0.0542655
0.00611201,-0.0401752
-0.0736076,-0.0453304
-0.130178,-0.0319414
-0.0956452,-0.0132768
-0.0461723,0.00758732
-0.0235217,0.00532997
-0.0287957,0.00953702
-0.0687317,0.0476564
-0.073463,0.0328879
-0.00606272,0.016133
-0.00570647,-0.00178122
-0.0320495,-0.0183243
-0.0491438,-0.0224817
-0.0645725,-0.00396172
-0.00796739,-0.00148948
0.0438466,0.0111496
0.0107078,0.00964634
-0.00584715,0.0239157
0.026964,0.0288872
0.0983245,0.00132804
0.188191,0.00350483
0.12956,-0.0271132
0.0189055,-0.092165
0.00148943,-0.0168088
0.00475221,0.0523385
0.0500492,0.0283008
0.044988,-0.0299499
-0.0366394,0.0428741
-0.0560632,-0.0218106
0.0180331,-0.0237721
0.0384994,-0.0338062
-0.0121165,-0.021431
-0.0538627,0.00244388
-0.0965528,0.0197527
-0.0979548,0.0297106
-0.0732327,0.0228743
-0.0582437,0.0139532
0.00499204,0.00251106
0.0701314,-0.00422587
0.00401887,-0.0160034
-0.0828043,-0.0474542
-0.0443104,-0.00598664
6.39e-05,0.0357583
0.0278496,0.0029773
0.035281,-0.00502356
0.041021,-0.013
0.0288912,-0.0202938
0.00235039,-0.00116129
-0.00926683,0.0163607
-0.00899262,0.011543
0.0225651,-0.000402362
0.0573086,0.0456446
0.0471368,0.0181832
-0.00436717,-0.0138716
-0.036214,-0.0154383
-0.0213425,-0.00816081
0.00490786,0.0119118
-6.52e-05,0.0364884
-0.0359947,0.0647547
-0.0337362,0.0174316
0.0112862,-0.0518082
0.0225248,-0.0476358
0.0517155,-0.00963054
0.0661037,0.0140348
0.00670428,-0.0267991
-0.0499123,-0.0545348
-0.0473989,0.00165348
-0.0175584,0.0783907
0.0825362,0.022859
0.112521,0.0233387
0.0805258,0.0112003
-0.0469418,-0.0235995
-0.148909,-0.0427295
-0.117821,-0.0353739
-0.0917319,-0.0186809
-0.0456406,-0.013714
-0.0176025,-0.00622487
0.00528932,-4.9e-05
0.0559351,0.000538997
0.038394,-0.0169482
-0.0314898,-0.00145317
-0.0461951,-0.00335046
0.00357073,-0.00781934
0.0559478,0.00687443
0.0871153,0.0116912
0.0759389,-0.00449254
0.0235181,-0.0114881
0.000490589,0.00173329
0.0193513,0.00554199
0.0416973,-0.00667936
0.0407551,-0.0105259
0.00540576,-0.00365975
-0.039658,0.0033987
-0.0775176,0.00801054
-0.0570081,0.0100574
-0.0305454,0.00243643
0.00349185,0.00935214
0.0728011,0.0288521
0.0356534,0.0233046
-0.0309983,0.0192328
0.0111676,0.0474101
0.0545994,0.0381857
0.00195699,0.00130823
-0.0533174,-0.00637593
0.00202128,-0.00566114
0.112601,-0.0477426
0.155959,0.00601421
-0.0138569,0.0366491
-0.174695,-0.0371299
-0.130433,-0.0728143
-0.0468175,0.00937278
-0.000859861,0.0171809
0.0010013,-0.0147566
-0.0165855,0.0344566
0.0145907,0.032157
0.0985293,-0.00223378
0.0625032,-0.0341772
-0.0690275,-0.021408
-0.132846,-0.0170147
-0.100239,-0.00842976
-0.077598,0.00454817
-0.061102,-0.0107667
-0.00392849,-0.0208131
0.0619048,-0.0029606
0.0811798,0.00929626
0.0568317,0.0184314
0.0439149,0.0413266
0.0269124,0.0154878
0.0112665,0.00646763
0.00612386,-0.0147108
0.00865554,-0.0326351
0.0101213,-0.0115925
0.0169409,0.0015701
0.0118245,0.00637205
0.0128127,0.00782163
0.0314335,-0.00711812
0.0327908,-0.0058788
0.0157277,0.000488093
0.00589887,0.00348095
0.00524568,-0.00592226
-0.0178733,-0.0195918
-0.044406,-0.00205325
-0.0429366,0.0144334
-0.0689816,0.0191457
-0.052374,0.0270736
0.0100932,0.0199642
0.0733769,-0.00476365
0.122368,-0.0242156
0.0809902,-0.00678128
0.0194599,0.0131396
-0.0943349,0.0079453
-0.0784604,0.00438426
0.0465037,0.0148069
0.0707655,-0.000974277
0.0466143,-0.0336461
-0.029969,0.0109739
-0.0648102,0.00580615
-0.0192473,0.0222997
-0.0270819,0.020214
-0.0146948,-0.0288911
0.0127913,-0.0196792
0.0063903,-0.0227462
-0.0871303,-0.000202675
-0.082692,-0.00337383
0.0426503,0.00358954
0.103868,-0.00978461
0.0356463,-0.00143329
-0.0656077,0.0128203
-0.0508428,0.00442487
-0.019015,0.00265273
-0.0109982,0.0220198
0.0139891,0.0419392
0.000677607,-0.020361
-0.0197415,-0.0646631
-0.0136008,-0.0121543
-0.00963656,0.0140052
0.00732367,-0.0171574
0.0301705,-0.00996851
0.0322548,-0.0140502
-0.0164267,-0.00954408
-0.0310814,-0.0118783
0.00448304,-0.00267589
0.00898429,0.0171239
0.0162117,0.0262016
0.0430499,0.031042
0.0329253,0.00286543
0.00616028,-0.0289888
0.00597635,-0.00998536
0.0326688,0.00662781
0.0235925,0.00692578
0.0162944,0.000276724
0.0241844,0.00281677
0.000615688,0.0117698
-0.031335,0.0234864
-0.0390105,0.0113555
-0.0166488,-0.0118908
0.0033702,-0.0180728
0.000496853,-0.00046577
-0.00795,0.0179737
-0.0176255,0.00851771
-0.0204277,0.00230131
-0.0264525,0.00680553
-0.0556127,0.0013407
-0.0638889,0.00686161
-0.0120285,0.0186375
0.0343309,0.00528076
0.0749918,-0.0120608
0.0987211,-0.00238319
0.100552,0.0334629
0.0994706,0.0154025
0.0783012,0.00423118
0.0556926,0.00128245
-0.0398539,-0.0626118
-0.167231,-0.0222008
-0.198768,0.0427799
-0.107876,-0.012829
0.00349292,-0.058148
0.0310867,-0.00161139
0.0159817,0.0279827
-0.00517513,-0.0121187
-0.0120118,-0.0231892
0.00256468,0.00251518
-0.00729321,0.00666433
-0.0221276,-0.0112774
0.004764,-0.0106442
0.0407914,-0.00134338
0.017718,0.00165932
-0.00370888,0.00872452
-0.00124891,0.0227613
-0.00874166,0.0248359
0.00285463,0.00442264
0.0542442,-0.00609618
0.0774795,0.0107177
0.0297279,0.0301392
0.00122297,0.0337293
0.0672444,0.00697625
0.00972173,-0.0239265
-0.0670356,-0.0362376
-0.0493339,-0.0474937
-0.0424602,-0.0321856
-0.0200447,-0.024917
0.0151573,-0.0140847
0.0219816,-0.000983238
-0.0143465,-0.00500466
-0.0670024,3.14e-05
-0.0303233,-0.00112395
0.0217377,0.00478016
0.026496,0.0274063
0.00701904,-0.00884557
-0.0254059,0.00864005
-0.011763,0.0194839
0.025247,0.0133892
0.0549432,0.00859231
0.0647201,0.0300566
-0.00457377,0.0180342
-0.0323913,-0.0279309
-0.00750006,-0.0362585
-0.0234897,-0.0190779
-0.00282014,-0.0108172
0.038956,-0.006634
0.00745075,0.00302388
-0.0316494,0.0184885
-0.0389845,-0.000167938
-0.0345262,-0.0231202
-0.0114992,-0.0183411
0.0066922,0.00750074
0.00773179,0.0100519
-0.00742801,0.00957717
-0.012742,0.0116378
0.00203228,0.00845979
0.010451,0.0463348
0.00546043,0.0550861
0.0113097,-0.033621
0.0252093,-0.0482467
0.0330269,-0.0386222
0.0164908,0.0421767
0.00414517,0.023651
0.00881855,0.00447054
0.0127384,0.00898038
0.005974,-0.0180426
0.00798938,-0.0117864
-0.00817614,-0.00401625
-0.0231061,0.00424098
-0.00459509,0.00554662
0.0403905,0.0229605
0.0223783,0.0259161
-0.0478486,-0.0028233
-0.0704537,0.00772025
-0.0485575,0.026249
-0.0395777,0.030894
-0.0275603,0.013382
-0.00365284,0.000606185
0.0561268,-0.0130643
0.0388098,-0.0104878
0.00553174,-0.0260547
0.0351178,-0.0169383
0.0433133,-0.00818252
0.0388002,0.000498488
0.0860334,-0.00516303
0.017168,-0.0177002
-0.0141859,-0.00866989
-0.00105934,0.00447494
-0.0088795,-0.00100457
-0.0368826,-0.0243969
-0.0116433,-0.0194729
-0.0161438,-0.0030484
-0.0307411,-0.00389783
-0.0202148,-0.00590583
-0.0548088,0.00550778
-0.0679898,0.011997
-0.0286342,0.00154201
0.0166681,-0.0140101
0.0212607,0.00709827
0.0084647,0.00888822
-0.00423831,-0.00739815
-0.00364168,0.00545584
0.0378327,0.00752033
0.058494,0.00672628
0.0376255,-0.00523053
0.0342721,-0.0106537
0.0310486,0.004339
-0.0262034,0.00405495
-0.0659229,0.00181651
-0.0270116,0.00199487
0.00926028,-0.00727001
-0.00759376,0.00507654
-0.026096,0.0127639
-0.0239511,-0.00237231
-0.0331034,0.0101146
-0.0546844,0.0113766
-0.0415785,0.021809
0.0191415,-0.0141759
0.0634096,-0.0179608
0.0364646,0.0205511
0.0141078,0.0117416
-0.000452267,0.0199235
0.00534014,-0.00857192
0.00181542,-0.0402185
-0.0192515,0.00382252
-0.0257699,-0.00526812
0.0206815,-0.0489807
0.0219551,-0.0239243
0.0173737,0.00300235
0.0389421,0.0222862
0.0207049,0.0666356
0.0178661,0.0593373
0.00742901,0.0258009
-0.026641,-0.0493586
-0.0336732,-0.0681325
-0.00444529,-0.0415181
0.0713719,-0.000173769
0.124677,0.00794798
0.113371,0.00694796
0.0548919,0.00314797
-0.0651309,-0.0304165
-0.158828,-0.030821
-0.127132,-0.00697154
-0.0678439,0.00883836
-0.0443515,0.0217049
-0.0247798,0.0134538
0.0123218,0.00964264
-0.00645672,0.0222571
-0.0400651,0.00902944
-0.0162925,-0.0229682
-0.0187664,-0.0115735
0.046926,0.0327387
0.133353,0.0191222
0.110105,0.0160451
0.0950138,0.018578
0.0652484,-0.00349195
-0.079041,-0.00815679
-0.117092,-0.0129787
-0.0887782,-0.0324513
-0.0651532,-0.0150488
-0.00973266,-0.00934579
0.0177941,0.0052829
0.0240798,0.00752184
0.0220207,0.00893209
0.0153568,0.0288441
0.0311692,0.02661
-0.024288,-0.0260796
-0.0748029,0.0014773
-0.027925,0.0261775
-0.0337975,-0.000730673
-0.0601759,0.00284974
-0.0146238,-0.00287919
0.0546488,-0.02494
0.063486,-0.0196948
0.0538838,-0.0148187
0.0654327,-0.0174434
0.055094,0.0134138
0.0480247,0.00306827
0.0138246,-0.00391506
-0.015413,-0.0155603
-0.020951,-0.0126443
-0.0311496,0.0056602
0.00823866,-0.0180916
0.0477274,0.00740603
0.0142987,0.0367421
-0.00413145,-0.00105522
0.0149529,-0.0414057
-0.0503487,0.0155215
-0.111842,0.0609757
-0.106273,0.0261461
-0.0459275,-0.0131564
-0.00849153,0.00685833
0.00400417,-0.0226487
0.0501024,-0.0370381
0.0940796,-0.00790749
0.0466518,0.0332775
0.062457,0.0341832
0.141728,0.00750299
0.142154,-0.0171625
0.00293636,-0.00767548
-0.11096,0.0103194
-0.164114,0.0189392
-0.148129,-0.00692444
-0.0814645,-0.0167602
-0.0116166,0.0156468
0.0421213,0.0165044
0.0635882,-0.0159698
0.0236909,-0.00440913
-0.0354816,-0.00631975
-0.0980937,-0.0306211
-0.0543051,-0.0374207
0.00383853,-0.0210108
0.043938,-0.0106488
0.0301894,-9.32e-05
0.0220398,0.0190259
0.0214277,0.0179126
0.00367519,-0.0108288
0.0173913,-0.0283352
0.0616705,0.0126708
0.0538028,-0.00448108
0.0147849,0.00704792
-0.0313683,0.0157232
-0.0518257,0.00783459
-0.00934984,-0.00306328
0.031158,-0.00359513
0.0174527,-0.00339678
-0.00599612,-0.00797181
0.00922003,0.00459718
0.0821276,0.00678822
0.152895,0.0386148
0.0968314,0.0544
-0.0073233,0.0121882
-0.0706725,-0.0284891
-0.122997,-0.0191447
-0.171666,-0.00893077
-0.12696,0.000717091
-0.0525889,-0.000971246
-0.00297331,0.00518151
0.0387561,0.00521911
0.0716572,0.046403
0.137338,0.0388194
0.114441,0.00779774
0.00802074,-0.0360267
-0.0249862,-0.0489662
-0.0367295,-0.0050679
-0.0638321,0.0280818
-0.0980888,-0.00598585
-0.0542899,-0.0130519
0.0160923,4.95e-05
-0.00234672,-0.0023334
-0.0238989,-0.0371627
0.00151679,0.00173094
0.0141156,-0.000635258
0.0213042,-0.00462322
0.0218578,0.0325444
0.0155241,0.0373982
0.00946565,-0.0294149
0.0111192,-0.0388851
0.0154292,-0.0145646
0.0147057,-0.0141116
-0.00259498,-0.0158551
-0.0082321,-0.00338995
-0.00149171,0.00328213
0.00388639,0.00192016
0.00615792,0.00298142
0.00524373,-0.00233913
0.00578618,-0.0130091
0.00891865,-0.0120673
0.00730535,0.0134618
0.0053812,0.031095
0.000223662,0.0386555
-0.0212055,0.0267399
-0.019022,0.0161208
0.00955456,0.0681736
0.132014,-0.0230524
0.203327,-0.043957
0.0087478,0.00693407
-0.193631,0.000257234
-0.189343,0.00824551
-0.0851811,0.0265587
0.0341015,0.0126994
0.112487,-0.0169402
0.0922221,-0.039967
-0.0408038,-0.0389902
-0.0570642,-0.0236504
0.00201434,-0.0390458
-0.00962403,-0.0196162
-0.0365129,0.00864065
-0.0363636,0.00494986
-0.0542046,0.0076562
-0.0279833,0.0175815
-0.0144975,-0.0104089
-0.0343706,-0.00843079
-0.0346296,0.0292431
0.0132796,0.0353053
0.0520308,0.0190126
0.0421785,0.021835
0.0155905,0.0172513
0.0146378,-0.00405208
0.0194507,-0.0221815
0.0132858,-0.0303279
0.00299026,-0.0394267
-0.0116845,-0.0239609
0.0072721,-0.00574774
0.0316798,0.0037746
0.0366561,0.00367144
0.0290221,-0.000358005
0.0149599,0.0038554
0.00420114,0.00642434
0.00296321,0.00354278
0.0124014,0.00699233
0.0189261,0.00623598
0.00449704,-0.00587281
-0.015523,-0.00592208
-0.0260278,0.0067007
-0.0231136,-0.00147443
-0.0148442,-0.0208077
-0.0326608,-0.0155997
-0.0718048,0.0113048
-0.0299308,0.0271971
0.0811755,0.0227479
0.0682404,0.027419
0.0173034,0.0238499
0.0316651,0.0280941
0.0719748,0.0324372
0.0315852,0.0440677
-0.0214433,0.0111122
-0.0727321,-0.0923732
0.00161712,-0.0780543
0.0443476,0.00158927
-0.0041555,0.0475522
-0.0357648,-0.0104349
-0.0353685,-0.0422996
-0.0410694,-0.0459671
-0.060559,-0.026644
-0.0615039,0.011002
-0.0453298,0.0246405
-0.0124564,0.0164328
0.0123762,0.00645982
0.0103578,0.0155924
0.00686084,0.0108574
0.0128108,-0.00255738
0.0114512,-0.0150218
0.0143855,0.00437348
0.0252452,0.019245
0.0265059,0.0126343
0.0113269,0.00222939
0.00224509,-0.00539626
0.0126003,-0.00943381
0.0305402,0.0105689
0.0240124,-0.00455298
-0.00481427,-0.0182409
-0.0121493,-0.0101292
-0.00713007,0.0088656
0.00872428,0.0113487
0.0183093,0.00223242
0.0106527,0.0147157
-0.000524873,-0.000466389
-0.0109027,-0.0187723
-0.0184385,-0.00974044
-0.00827295,0.0017682
-0.00462878,0.00482753
-0.0195318,0.00501141
-0.0327298,0.0060579
-0.0424854,0.0106823
-0.0385939,0.00188373
0.00319467,-0.00896456
-0.00779383,-9.77e-05
-0.000633725,0.00360404
0.0675735,0.00880786
0.0746798,0.0165985
0.0027194,-0.0313018
-0.0276245,-0.00817656
0.0122057,0.000183981
0.100886,-0.0362322
0.187499,-0.00201067
0.197094,0.0246576
0.122019,0.040352
-0.0424402,0.0187134
-0.1927,-0.0425219
-0.246182,-0.0343206
-0.167103,-0.00230696
-0.0722812,-0.00888304
-0.0194658,-0.0213556
-0.0291151,-0.00928339
-0.0437649,-0.0048407
-0.0379603,0.006125
-0.0255053,0.0176031
0.0150969,0.0128543
0.0316855,0.00921252
0.0303229,0.00945191
0.0170865,0.00970481
0.0043462,0.0102144
0.0100216,0.00573273
0.0298456,0.0316191
0.0546941,0.0243423
0.0519915,-0.0307594
0.0289949,-0.0323327
0.0207401,-0.0208809
-0.0135298,-0.0141748
-0.0388766,0.0203201
-0.0387318,0.0291683
-0.0296683,0.00879508
-0.000693704,0.0109738
0.00736179,-0.00374193
-0.0279231,-0.0145095
-0.0937078,-0.00271979
-0.069736,0.0239988
0.0667852,0.00498745
0.130635,-0.0348647
0.110071,-0.0606916
-0.0124546,-0.0156075
-0.028289,0.0272189
0.0412702,0.0305843
0.0921931,0.0321677
0.179361,0.0250247
0.221101,0.0193839
0.137578,-0.00263537
-0.0560441,-0.0105539
-0.123727,0.00777807
-0.0366536,0.0215567
-0.0620522,-0.0407428
-0.165821,-0.0351787
-0.160217,-0.0199727
-0.128726,-0.0224856
-0.121529,-0.000590229
-0.113163,-0.00607752
-0.0776074,0.0209338
-0.00744951,0.0248249
0.0380546,-0.00900245
0.0510493,-0.00677757
0.0313933,-0.00755266
0.0152686,-0.014792
0.0128347,-0.0165655
0.0168581,-0.00748753
0.0320517,-0.0103116
0.0394313,0.0093831
0.0318836,0.0203474
0.0403459,0.00209732
0.0308638,0.0134337
-0.000674679,0.0455549
0.041717,0.031755
0.0779391,-0.0265456
0.0212663,-0.0207405
0.0237439,-0.00518483
0.0159883,0.0106648
0.00766367,0.0397188
0.0412559,0.0221924
0.118202,-0.0184304
0.141527,-0.038408
0.0497776,-0.0208795
-0.0102718,-0.00596949
-0.0242273,0.00360783
-0.118882,0.0269259
-0.143799,0.00511276
-0.142013,-0.00492429
-0.117441,-0.0177249
-0.055622,-0.021136
-0.0524789,-0.0118237
-0.080549,-0.00689318
-0.0900622,0.0117747
-0.056667,0.0326756
0.0191758,0.0247059
0.11598,0.00160938
0.14382,-0.00531907
0.0315881,0.00889899
-0.0504042,-0.0284995
-0.0397467,-0.0487883
-0.0414414,-0.0309359
-0.0417605,0.0118135
-0.0428681,0.0295987
0.0660145,0.0210278
0.225027,-0.00121915
0.200745,-0.00842454
0.0415326,0.00942178
0.00749829,0.0123581
-0.0110899,-0.00953745
-0.0651014,-0.0237809
0.000652441,-0.00205886
0.045206,0.0454341
-0.0185029,0.00263986
-0.128216,-0.00229465
-0.208927,0.0314872
-0.188271,-0.0423941
-0.0555439,-0.031378
0.0493994,0.0115044
0.0867292,0.0595738
0.0901822,0.0653685
0.165114,0.0292052
0.230315,-0.0323866
0.122614,-0.0418732
0.0313374,-0.0275441
0.0406318,-0.0694287
0.119771,-0.0514229
0.104451,0.0517824
-0.115522,0.0610985
-0.296236,-0.00975595
-0.263302,-0.0298044
-0.0922076,-0.0103305
0.0204915,0.00774352
0.0711965,0.00207306
0.072157,0.0145455
-0.0326883,-0.0175622
-0.171438,-0.0218199
-0.18554,-0.00120175
-0.127005,0.00816726
-0.0320741,0.00132523
0.0226804,-0.00500594
0.0332095,-0.00658234
0.119068,0.0517361
0.200106,-0.0167708
0.171026,-0.0378649
0.0965649,0.030754
0.052477,0.0385587
-0.00178469,0.00903429
-0.0765043,-0.00072309
-0.117801,-0.00609303
-0.0485453,-0.00649728
0.0389888,-0.013561
0.0263261,-0.00425875
-0.0250917,0.0204682
-0.0161294,0.0454379
0.0102358,0.00677273
-0.00901334,-0.0612983
-0.0222612,-0.0568112
0.0139493,-0.0175467
0.0313291,0.0147182
0.0225544,0.00561103
-0.0389512,-0.00161349
-0.0611795,0.00120756
-0.0307619,0.0103273
0.0271976,0.0266121
0.054027,0.042594
0.06676,0.0112408
0.0634312,0.0327217
0.0210564,-0.0113728
0.00669984,-0.0785852
0.0839184,-0.0241481
0.0505695,0.010026
-0.005607,0.0211792
-0.0302983,0.0185148
-0.0778732,5.53e-05
-0.0991219,-0.0288609
-0.0709968,-0.0237193
-0.0502024,-0.0221706
-0.0037718,-0.0213051
0.0441541,-0.0227064
-0.00083783,0.0357687
-0.0376133,0.0608922
0.0136225,0.0429102
0.0618361,0.0435327
0.0466657,0.00372275
0.0351424,-0.0132195
0.0209326,-0.00440356
0.0233817,0.0196218
0.0554153,-0.00747858
0.126479,-0.0175955
0.0374376,-0.0314535
-0.145199,-0.0448705
-0.211068,-0.0230815
-0.193403,-0.0041726
-0.0921044,-0.00628304
0.0262196,0.00305692
-0.0201535,0.00460152
-0.0621342,0.0131646
0.0665913,0.0233544
0.205424,0.0544859
0.237482,0.0077134
0.183565,-0.0199638
0.0359076,0.0167036
-0.130533,0.00665501
-0.127496,-0.0370053
-0.0539183,-0.0230285
-0.0361971,-0.0222191
-0.0674409,-0.0313493
-0.064531,-0.00735036
-0.0596841,5.93e-05
-0.0436624,0.00852023
0.0186941,-0.00940768
0.0602948,-0.00208831
0.0271007,0.0469692
-0.0024316,0.0496287
0.0219657,-0.0160726
0.0372378,-0.0354658
0.0158399,-0.0143706
0.120678,-0.0153125
0.15149,-0.010609
0.0219243,0.0104066
-0.108948,0.0374489
-0.147136,0.0206234
-0.0555289,-0.00781981
0.0178545,-0.024866
-0.00416827,-0.0411285
-0.0285613,-0.0228755
-0.0530711,0.00941912
-0.0418279,0.0549984
0.0302496,0.036044
0.103964,0.0334859
0.0706659,0.0267148
-0.0287594,-0.0451284
-0.0681859,-0.0384793
-0.0312895,0.0190298
0.0242959,-0.00379304
0.0948334,-0.00423021
0.164592,-0.00931919
0.138048,-0.0079815
0.00384058,-0.00881958
-0.0921499,-0.0342959
-0.127334,-0.0268207
-0.0966974,-0.00363356
-0.0628946,0.00689842
-0.0250152,0.0230405
-0.00283099,0.0268997
-0.00352674,0.0252225
-0.0274291,0.0304777
-0.0191771,0.0249891
0.00941075,0.0129088
-0.0434715,0.0255711
-0.0676255,0.0424107
-0.0049388,-0.0364854
0.0292828,-0.0594597
-0.00553002,-0.00309147
-0.0154295,0.00112662
0.0328041,-0.0107471
0.103457,-0.010422
0.0807663,-0.00883177
0.00693959,-0.0165148
-0.0245253,-0.00762817
0.0221064,0.00968766
0.0468797,0.0132692
0.0170125,-0.000652075
0.0320273,-0.0174685
0.065397,-0.020409
0.0338676,0.0223765
-0.029163,0.0482064
-0.0196605,0.0231734
-0.0264366,0.00529568
-0.110694,0.010761
-0.055651,-0.00747335
-0.0327312,-0.0209107
-0.0609452,-0.00164113
-0.047144,-0.0171745
0.0150048,-0.0152048
0.051183,-0.00539659
0.0390821,-0.00205683
0.031713,0.0062659
0.0474144,0.00775441
0.0947426,-0.00998322
0.0987889,-0.0164685
-0.00876504,-0.0282378
-0.0647902,-0.0358783
-0.0459387,-0.0153471
-0.0420384,-0.0159727
-0.0407679,-0.0032185
-0.0237789,0.0197553
-0.0641822,0.0398519
-0.0497376,0.00247715
0.0139521,0.0113566
0.0448112,0.00302155
0.041553,-0.0153108
0.0161979,0.0313759
-0.023093,0.027916
-0.0208102,0.0246971
0.0361881,0.0344656
0.078993,0.0112727
0.0950306,-0.0159194
-0.00177227,-0.0368515
-0.0550309,-0.0339017
-0.038515,-0.0112583
-0.0140456,2.38e-06
-0.000414641,0.0116467
-0.0207402,0.0224685
-0.028946,0.0126144
0.0208792,6.43e-05
0.0398484,0.000111903
0.018218,0.000288145
-0.0125481,-0.0251276
-0.0339158,-0.0134874
-0.0277159,0.0105161
-0.0205327,0.0261274
-0.0500465,0.00498452
-0.056608,-0.0694951
-0.0335144,-0.0354107
0.033404,0.008479
0.0707002,-0.012722
0.0434055,-0.0117142
0.00686599,0.0161076
0.0460031,0.0462026
0.0450265,0.0229343
0.000123037,-0.00657148
-0.0365742,0.00704216
-0.0154358,-0.00178075
-0.00118824,-0.00036503
-0.0165837,0.0275599
-0.0205319,0.0422641
-0.0232705,-0.0129426
-0.0453496,-0.0350344
-0.0575505,-0.00682093
-0.0225503,0.00874263
0.0763118,-0.00345531
0.123648,-0.0113979
0.0692759,0.0194935
-0.00293214,-0.00275326
-0.0252633,-0.00597952
-0.00831198,-0.00164171
-0.0186168,-0.00801706
-0.0239196,-0.00645581
-0.0168613,4.22e-05
0.0107848,-0.00958527
0.012074,-0.020197
-0.0226471,-0.0115015
-0.026848,0.00399139
-0.0054256,0.0139137
0.012002,0.00780435
-0.0233174,0.00699883
-0.0417902,0.0232954
-0.00988038,0.00387685
0.00467915,-0.0256857
0.00787366,-0.0124778
0.00519518,0.00330982
0.00791271,0.015354
0.0300007,0.0195546
0.0422123,0.00283274
0.0296937,-0.00503985
0.0034915,-0.00785894
-0.00481524,-0.012527
-0.00534243,-0.021566
-0.00630082,-0.0205393
-0.00920297,-0.000450446
-0.0102044,0.0102026
-0.0166648,0.00952232
-0.0172154,0.00749064
-0.0430809,-0.00231421
-0.0541152,-0.00642598
-0.0335501,0.0154396
0.0130024,0.0406729
0.118037,0.0367582
0.19873,0.0286211
0.214795,0.0391775
0.214226,0.0428589
0.0477173,-0.0315093
-0.157422,-0.0906042
-0.253775,-0.0628727
-0.215464,-0.029605
-0.125025,-0.0152028
-0.0438451,0.0130864
-0.0243809,0.00958223
0.00963294,0.00185249
0.0590079,-0.0058469
0.028115,-0.0194829
-0.0538152,-0.0245918
-0.0708662,-0.026741
-0.037128,0.00167672
-0.0194522,0.054568
-0.00375825,0.039755
0.0257392,0.00226772
0.0455578,-0.00669315
0.0530125,0.00903581
0.0626773,0.0147804
0.04443,-0.00157603
0.0100244,-0.0169102
0.00927528,-0.012475
0.0238057,0.00446078
0.0369856,0.0171587
0.0347554,0.0079867
0.00572954,-0.0119227
-0.0141413,-0.0234881
-0.00922911,-0.0221351
-0.0133423,-0.00175273
-0.0190842,0.0138976
-0.0120808,0.0197361
-0.00227716,0.0184834
-0.0286615,0.0161762
-0.0603148,0.00190833
-0.0647382,-0.000522332
-0.0254417,0.00670823
0.0249592,-0.0143265
0.0803825,-0.00597961
0.102658,0.00446885
0.033436,-0.00281205
-0.0180677,-0.00905248
-0.0352053,0.00962718
-0.0309286,0.00870696
-0.0076322,-0.00713994
0.0284388,0.00730455
0.0633216,0.0022404
0.0647749,0.00318032
0.0306041,0.0114691
-0.0249685,0.00259294
-0.0627005,-0.0189357
-0.0704039,-0.0162717
-0.0404568,0.000137376
-0.0169203,-0.000979679
-0.00208039,-0.00329685
0.00628116,-0.00933864
0.00700497,-0.0118523
0.00581242,0.0183827
-0.00137347,0.00671979
-0.0106049,-0.0140647
-0.00859768,-0.00913995
-0.000107807,-0.0111447
0.000540496,-0.00812359
-0.00695619,-0.00251404
-0.0241688,0.00299699
-0.0173666,0.0121785
-0.0142901,0.0200516
-0.013093,0.0267588
0.0106424,0.0358905
0.106578,0.0186668
0.151486,-0.00634933
0.0646122,-0.00529208
0.0545616,-0.0253127
0.0322272,-0.0335761
-0.0704905,-0.0200867
-0.14107,-0.0214325
-0.128048,-0.0177246
-0.0731784,-0.000953691
-0.0395916,-0.0016235
-0.0115616,0.012764
0.00103038,0.0209257
0.0111453,0.0149618
0.0622936,0.0169058
0.0489701,0.0145064
-0.00334257,0.01487
-0.0100297,0.0129799
-0.0108115,-0.00904065
0.000721539,-0.0297241
0.00668641,-0.0268542
0.0231962,0.00422924
0.0274662,0.0244647
0.0083985,-0.00193656
-0.00180593,0.0107962
-0.0193916,-0.00598463
-0.0220847,-0.0220023
-0.00573787,-0.0132737
0.00393829,-0.00176508
0.00595412,0.00277033
0.00430695,0.00181995
0.00146401,0.0143656
0.00416137,0.0132186
0.00286244,0.0055492
-0.00579398,0.00302589
0.00130938,-0.0104175
0.00931426,-0.0151206
0.0055242,-0.00141985
0.0114811,0.0120712
0.0282187,0.0107872
0.0137853,0.0120019
-0.0151972,0.00675799
-0.0143302,0.0105362
0.0212722,0.0155422
0.0652167,-0.0297382
0.0636818,-0.01652
0.0062135,0.0163202
-0.042558,0.00334658
-0.0572792,-0.00465514
-0.0610042,-0.00393389
-0.0530185,-0.00294303
-0.0229145,-0.0075626
-0.012829,-0.0149186
-0.0138382,-0.0157917
0.00154535,-0.00328765
0.0227945,0.00432465
0.0242822,-0.00192428
0.0123157,-0.000196445
-0.00448968,-0.000337524
-0.0153659,-0.010848
-0.0100926,-0.0136991
0.00149794,-0.0151578
0.00485116,-0.0112417
0.00614431,0.00191085
0.0150355,0.00305661
0.0125931,0.000441231
0.0119109,0.00597842
0.0178717,0.0113885
0.0204472,0.0130277
0.00911409,0.0158712
0.00655929,0.0290435
0.0100775,0.0309704
0.00361942,0.014148
-0.00386855,0.000352568
-0.00565269,-0.0043702
-0.0138081,-0.00766516
-0.0186634,-0.0142663
-0.0187585,-0.0136902
-0.0157509,-0.0203138
-0.00555066,-0.0187991
0.00435305,-0.00423833
0.00327661,0.00446334
-0.00558497,0.0144843
-0.00436786,0.00980517
0.0137476,-0.00879284
0.0121622,0.00107063
-0.00374632,-0.00505819
-0.0029289,0.0147003
-0.00338391,0.0314561
-0.00960323,0.00486897
-0.0157526,0.000172766
-0.0207334,0.00538253
-0.0152133,-0.00692208
-0.00872705,-0.0208641
-0.00781052,-0.018655
-0.00364918,-0.0157394
0.0127828,-0.00661674
0.0341623,0.0115238
0.0588653,0.0171372
0.0779725,0.0145356
0.0841071,-0.011444
0.0257753,-0.0309133
-0.0741541,-0.0249258
-0.092011,0.00885344
-0.0283429,0.0291569
0.0608113,0.0165422
0.11157,-0.00246293
0.0571294,-0.00858441
-0.022334,-0.0138994
-0.0914996,-0.022335
-0.101504,-0.0247595
-0.0753588,-0.0107691
-0.0438035,0.00504662
-0.0195556,0.00603569
-0.0053149,0.00851951
-0.00641956,-0.0026384
-0.0170258,0.00253028
-0.0288419,0.0152863
-0.025053,0.0180388
-0.00524803,0.0183602
0.0490763,0.0255672
0.10409,0.0264448
0.103204,0.0168568
0.0555926,0.0150168
-0.00102393,0.00606823
-0.0192334,-0.00984337
0.023575,-0.0157168
0.0572608,-0.0072128
0.0555416,0.00192569
0.00408425,0.0137011
-0.0865105,0.0154876
-0.16313,0.0128084
-0.177798,0.00428833
-0.17223,0.00235596
-0.102497,0.00496633
-0.0101247,-0.00188371
0.0381114,-0.0110293
0.0945234,-0.0058285
0.136997,-0.00225633
0.148986,-0.0152155
0.142448,-0.0302388
0.0856861,-0.0442977
-0.0421674,-0.0488623
-0.0682162,-0.0435936
-0.00685346,-0.0350909
-0.00982455,-0.0213138
-0.00775392,0.00288344
0.0179787,0.0150565
0.0240933,0.0101373
0.0301163,0.00840626
0.0236471,0.01156
0.00664366,0.00763388
0.0134182,0.00390347
0.0359585,0.0120681
0.0481506,0.0257636
0.0663938,0.0259846
0.0521085,0.0220486
-0.0443575,0.0124322
-0.141026,-0.00253319
-0.0710831,-0.0074378
0.0818854,-0.00418394
0.112639,0.00328721
0.10045,0.00989628
0.0391699,0.0132957
-0.125671,0.00233384
-0.254054,-0.0103519
-0.308829,-0.0113297
