Comp Ch 3,Comp Ch 4
-0.0198138,0.0754713
-0.00241442,0.0816852
-0.0122629,0.0526252
-0.0255602,0.0140662
-0.0256169,-0.029389
-0.0263882,-0.0428927
-0.0257427,-0.0196998
0.000139256,-0.0211407
0.00972518,0.00524578
0.0218677,-0.0239711
0.0381958,-0.0635579
0.0376949,-0.0477022
0.0261178,-0.0262302
0.00852218,-0.0133324
0.00425493,-0.00745057
-0.00186203,0.0052785
-0.0117554,0.0313228
0.00990647,0.0429397
0.0194445,0.0389784
0.00876598,0.0358052
0.00880432,0.0346102
0.0188529,0.0105023
0.0016822,-0.00668971
-0.0265292,-0.00340492
-0.0275111,-0.00329925
0.00567475,0.016319
0.017023,-0.00678013
0.0116166,-0.0459544
-0.0248615,-0.0470217
-0.0365811,-0.0324335
-0.0245784,-0.0262437
-0.0212915,0.0129163
-0.0130943,0.0581978
0.0315158,0.0463935
0.0612927,0.00341133
0.0455439,-0.0121816
0.0147883,0.0288434
0.0016727,0.0592564
-0.0300356,0.0278006
-0.0744238,-0.00102957
-0.0359337,-0.0229933
0.00338681,-0.00367779
-0.0426075,0.0271105
-0.0307558,-0.00670724
-0.0397978,-0.0429742
-0.016717,-0.0086908
0.0231656,-0.06493
-0.028148,-0.0850224
-0.0174818,0.0185296
-0.00426877,0.0550051
-0.0643976,0.136505
-0.120216,0.0581601
-0.0728459,-0.114685
0.023439,-0.0342246
0.0863459,0.0502564
0.0946678,-0.0496435
0.142804,-0.0714508
0.157739,-0.0491462
0.042022,-0.0465116
-0.0584376,-0.0050993
-0.0452546,0.0148341
0.0365711,0.018692
0.103161,0.0272488
0.114556,0.0108782
0.0894907,0.00849135
0.15143,0.0178269
0.281257,0.0450907
0.361841,0.100086
0.322552,0.037908
0.105251,-0.0773506
-0.278069,-0.0522408
-0.60525,-0.0394372
-0.604608,-0.0407082
-0.390953,-0.0230649
-0.210947,-0.0011878
-0.091994,0.0259541
0.0134132,0.0173786
0.0546285,-0.00581102
0.0500278,-0.00824101
0.039194,0.00290823
0.0179986,0.00929995
0.0186508,0.00109354
0.0313555,0.00161796
0.0443207,0.00935852
0.0404178,-0.00131105
0.0362231,0.00583852
0.0615095,0.0144192
0.0868735,-0.00280053
0.0755856,-0.021445
0.0451693,-0.00753629
0.0206237,0.0252273
0.0119539,-0.00544651
0.000967409,0.00243431
-0.0309732,0.0154526
-0.0851038,0.0300691
-0.0921753,0.00494233
-0.0508044,-0.00142385
-0.0102465,-0.0380416
0.0315554,-0.00469228
0.118203,0.0432618
0.187711,0.0312516
0.23401,-0.0174775
0.153485,-0.012457
0.0479624,0.007436
-0.105741,-0.00950935
-0.183938,-0.0275186
-0.126908,-0.0377339
-0.0290317,-0.00151678
0.0450318,0.0487698
0.0900623,0.0149675
0.0892393,-0.0633063
0.0172386,-0.0462921
-0.0875977,-0.010904
-0.147015,0.00502982
-0.147306,-0.00256725
-0.110036,-0.00105196
-0.0806114,0.0274143
-0.089995,0.0336396
-0.0520599,0.019797
0.0723437,0.00469978
0.146296,-0.0252423
0.10384,-0.0194546
0.0662124,0.0240557
0.0479402,0.0429276
0.0196701,0.0239407
0.0181538,-0.0114473
0.0264975,-0.0416509
0.0240367,-0.0378986
-0.0222425,-0.01293
-0.0948993,0.0135479
-0.124272,0.0418777
-0.092465,0.047433
-0.0137984,0.0327414
0.0698458,0.0201053
0.0743418,-0.0222825
0.0540843,-0.0161656
0.0459578,0.0145188
0.032628,-0.0169304
0.0162861,-0.00583092
0.0091197,-0.000161631
-0.00684043,-0.0277934
-0.0526799,-0.00970338
0.0123705,-0.000708657
0.0838789,-0.00745944
0.0498502,0.0115244
-0.0079582,-0.0153341
-0.035973,-0.0123543
-0.0389199,-0.00628121
-0.0396821,-0.0122389
-0.0111816,-0.00611191
-0.0203222,0.0098051
-0.0891512,0.00591685
-0.0894353,0.00110599
-0.0471998,0.000617708
-0.0199694,-0.00542436
0.000764511,-0.0159309
0.0442069,-0.00304876
0.127472,0.0147738
0.185719,0.022031
0.160942,0.0270196
0.135358,0.0113197
0.0191737,-0.00504662
-0.123737,-0.000566933
-0.138117,-0.00869767
-0.114088,-0.0252022
-0.0823323,0.0113107
-0.0401638,0.0430954
-0.0247597,0.0132048
-0.00863834,-0.0224596
-0.00900899,-0.00172595
-0.0105928,-0.0133596
0.00281352,-0.0244457
0.0152882,-0.0112857
0.0204872,-0.00827714
0.0230065,0.0127109
0.0098922,0.0571667
-0.0173964,0.0753859
-0.041542,0.0533791
0.00230964,-0.00146736
0.0810279,-0.0548835
0.0621012,-0.0583103
-0.00535788,-0.0159897
-0.0168801,-0.0303019
-0.0378785,-0.0319387
-0.0628291,-0.0222446
-0.0711845,-0.00975095
-0.0180882,-0.0178943
0.0625309,-0.0521047
0.0713889,-0.0597165
0.0536686,-0.0113094
0.0278175,0.0141121
0.00512022,0.0228523
0.011807,0.0329497
0.00608103,0.0259352
0.00260347,0.0154955
0.033666,0.0170665
-0.0364762,0.0311829
-0.0798028,-0.00960461
-0.0142502,-0.0520322
0.0401309,-0.0277999
0.0581662,0.0149626
0.0340731,0.0493654
-0.0167713,0.0505084
-0.0604981,0.0140699
-0.0215345,-0.00495013
-0.0163439,-0.0214185
-0.0133316,-0.0169188
0.000636265,0.0169099
0.0187886,0.0249498
0.0335467,0.0297588
-0.00757401,0.0244625
-0.0850134,0.00822313
-0.0750429,0.00418101
-0.0230782,0.0117301
0.0203886,-0.0153993
0.0638119,-0.0365913
0.0502892,-0.0152846
0.0154898,0.0127662
-0.00927844,0.0393716
-0.0237884,0.00298121
-0.0159364,-0.0188533
-0.0106451,0.00129375
0.00606257,-0.0334455
0.0208117,-0.0320507
0.0257027,-0.0190189
0.0207423,0.00613612
0.0214919,0.0169638
0.0160363,0.00889179
0.00116746,0.0102616
-0.00600311,0.0207146
-0.0155999,-0.0057584
-0.0232072,-0.00437693
-0.0301373,0.0163246
-0.00421216,0.0310051
0.0275497,-0.0115819
0.00306738,-0.0253747
-0.0190028,-0.00749126
-0.011689,0.00140085
-0.0120695,0.0138822
-0.00612611,0.0476011
0.0199422,-0.0366442
0.0374044,-0.0386934
0.0270693,0.0208391
0.0126265,0.0194768
0.00270132,-0.000636926
-0.0150603,-0.00995489
-0.034688,-0.00288142
-0.0349612,-0.017549
-0.0259701,-0.0236961
-0.00636336,-0.0190206
0.00465695,-0.0138352
-0.000278873,0.00252034
0.0066848,0.0035087
0.0218748,0.0105403
0.011617,-0.00421899
0.00133417,-0.00862158
0.00399716,0.00191414
0.00620132,0.0160122
0.0135609,0.0144618
0.045454,0.0121026
0.0368128,0.0263529
-0.0182969,0.00445806
-0.0293255,-0.00788489
0.0187766,-0.028813
0.0231093,-0.0328827
0.0165878,-0.0432114
-0.000279905,-0.0214529
-0.0273896,0.0109878
-0.0301423,0.0121318
-0.0160684,0.0147859
-0.0101024,0.0106049
0.0101735,-0.0113707
0.0118793,-0.00667228
-0.00145659,0.0146699
0.00467617,0.0115394
-0.0097887,0.0107792
-0.0353193,0.0267683
0.000924482,0.0105452
0.0286757,-0.00782547
0.0295222,-0.0165547
0.00120132,-0.0186187
-0.0464913,-0.023385
-0.0818371,-0.0218715
-0.0570262,0.014355
-0.0313175,0.0343806
-0.00990685,0.0189665
0.00195624,0.0508256
0.00516332,0.0349397
0.0281073,-0.0405321
0.0483835,-0.0850741
0.0712839,-0.0251425
0.0405153,0.00861004
0.0118585,0.0257608
0.0238279,0.024449
0.0190612,-0.0231218
0.00928443,-0.0277114
-0.00225806,-0.0121097
-0.0097551,-0.0152429
-0.0102595,-0.0131315
-0.0193345,-0.00982435
-0.0246454,0.0331451
-0.00466641,0.0332055
-0.00657399,0.0149358
-0.0225019,0.0372078
-0.00442833,0.0278025
0.00541779,0.00202428
0.0204719,0.0113257
0.0284222,0.0083022
-0.00315492,0.00778641
-0.0131127,0.0185848
-0.00364383,0.0343592
0.00260996,0.0211044
0.00980798,-0.0658541
0.00369955,-0.0651222
-0.00577293,-0.0461876
-0.0157753,-0.0341937
-0.00569414,0.000145032
0.0185875,0.0579856
0.0311467,0.0581911
0.00891141,0.0199878
-0.0108755,-0.00987244
-0.014498,-0.0062442
-0.0181699,-0.00684437
-0.0167421,-0.00736317
-0.0156815,0.00109461
-0.0139931,0.0192647
-0.00264285,0.0460862
0.00659364,-0.0362667
0.00596258,-0.0426894
0.00242349,-0.0283895
-0.00249311,-0.0549186
-0.00495386,-0.0658381
-0.00107736,-0.0388865
0.00671832,0.0279409
0.0128108,0.0598919
0.00865719,0.0346374
-0.0042956,0.034724
-0.0111779,0.0235746
-0.0176133,0.00681672
-0.00779715,0.00393921
0.0110574,0.0112119
0.000251658,0.00490844
0.0101305,0.0118911
0.0107253,0.0323955
-0.00498996,-0.0148069
-0.0284172,0.00715417
-0.0386371,0.0289808
-0.027567,-0.0239577
-0.00946222,-0.0596606
0.0263226,-0.0651773
0.0396065,-0.0213354
0.0262419,0.0236854
0.0128053,0.0358763
-0.000374004,0.0314355
0.0237116,0.0177309
0.027069,-0.00735351
0.00518453,-0.000904491
-0.000140484,0.0181259
-0.00123046,0.0107969
-0.00382833,-0.0112454
-0.00346875,-0.00164168
-0.00108684,-0.0211251
-0.0098782,-0.0327623
-0.00387557,-0.0304015
0.00845135,-0.0453468
0.00521404,-0.0397174
-0.00371054,0.00511229
-0.000557362,0.0404388
0.0047185,0.0530844
0.00240202,0.0403479
-0.000322603,0.00881957
-0.00696308,0.0288638
-0.022279,-0.0156894
-0.0239981,-0.0342016
-0.0110171,-0.0105368
-0.00425174,-0.000579318
0.00154164,0.0105055
0.00617391,0.015243
0.00453796,-0.00519693
0.00079786,-0.00485671
-0.0055839,-0.0183291
-0.0170262,-0.0704242
-0.0213272,-0.0451893
-0.00981642,0.00441025
0.00901662,0.0270749
0.0196774,-0.00673604
0.0303852,0.00957223
0.0253948,0.0603728
0.00782648,0.0266863
-0.000580021,0.00319993
-0.00240947,0.00914571
0.00217357,0.0104473
0.0036203,0.0263831
-0.00173552,0.0274917
0.00112536,-0.0454455
0.000934888,-0.0828017
-0.0228242,-0.0118874
-0.020397,0.0302954
-0.0101514,-0.00465006
-0.00925191,-0.0202791
0.00396508,0.0024649
0.00892967,0.0373726
-0.000714789,0.0301351
0.00717047,0.035069
0.0339061,0.0244267
0.0252064,-0.00127772
0.0217796,-0.0216688
0.0355163,-0.015925
0.0113878,-0.010594
-0.0218982,0.00694226
-0.0415079,0.0269121
-0.0448253,0.005141
-0.0361536,-0.0251908
-0.0164289,-0.0344857
0.00490178,-0.0326083
0.0069539,-0.0413965
0.00536419,-0.0169796
0.00775521,0.0367537
-0.00465567,0.0402631
0.00632429,-0.000691374
0.0174888,-0.00393782
-0.0122266,-0.00499551
-0.0552231,0.00110203
-0.0536823,-0.000557484
0.0078923,0.0169145
0.0288266,0.0158795
0.0215515,0.0240031
0.0134243,0.0133487
0.00759407,-0.00648716
0.0246006,-0.00956179
0.0184693,-0.011435
-0.00205559,-0.0136115
-0.00805488,-0.0291212
-0.0145715,-0.0242042
-0.009371,0.0207261
0.0165601,0.0136961
0.0365938,0.0249508
0.0418962,0.00272999
0.0272792,-0.0190226
-0.00589095,-0.0056114
-0.0102362,0.00936206
-0.00868553,0.00530716
-0.0229054,0.0109481
-0.00250146,-0.00659125
0.00746893,-0.0153098
-0.0142318,0.00567665
-0.024312,0.0170024
-0.00457488,-0.000177599
-0.0312626,-0.0167396
-0.0375956,-0.0275053
0.0161544,-0.0224713
0.0264999,0.0404561
0.00662437,0.0368479
0.00276833,0.000390041
-0.00330111,-0.046449
-0.00983434,-0.0545384
-0.0137771,-0.0236573
-0.0102248,0.0296321
0.00551042,0.0299212
0.0300915,0.0243245
0.0456826,0.0241275
0.0338076,0.0205212
0.0136277,-0.000571748
0.00503234,0.0127529
-0.0107741,-0.0159313
-0.0153992,-0.0260982
-0.00988838,-0.00761258
-0.00328532,-0.00964395
-0.0181294,0.00736211
-0.0126922,-0.00426322
-0.00626298,-0.00550303
-0.00843203,-0.00130491
-0.0215448,-0.000650377
-0.0227936,0.0084277
-0.0123333,-0.00101833
0.00612585,0.0254188
0.0252383,0.0292931
0.0385179,-0.00675314
0.0321806,-0.00698293
0.00953295,0.0102123
0.0065144,-0.00810259
0.00818742,-0.0288207
0.00552179,-0.0251298
0.0107643,-0.000213411
-0.00311666,0.0368964
-0.0154437,-0.00280903
-0.00987425,-0.0525203
-0.0042121,-0.0130882
-0.0155164,0.0165308
-0.0234267,0.0177271
-0.0188926,0.0165688
-0.00683471,-0.00719058
-0.00408742,-0.0292295
0.000535626,0.0131219
0.00665898,0.0385959
0.00214064,0.0121378
-0.000823141,0.0143684
-0.00458756,-0.00851285
-0.00335012,-0.0261774
0.000484102,-0.023932
0.00320313,-0.0274453
0.0169062,-0.00824736
0.012953,0.0303692
-1.34e-05,0.022255
-0.00551603,0.00741238
-0.013798,0.00858424
-0.0120802,-0.021254
-0.0147112,-0.0184411
-0.0140341,-0.00456621
-0.00612805,0.0362768
0.00415388,0.0345484
-0.000210311,0.0409613
-0.0106142,0.0417444
-0.000426214,0.0352691
0.0102407,-0.0512559
0.0154833,-0.0692673
0.0177707,-0.0286872
0.00903482,-0.00490866
0.003388,-0.01159
0.011155,-0.0133642
0.00487056,-0.00325302
-0.0178682,-0.00701155
-0.0214944,-0.0509041
-0.0163084,-0.0285958
-0.00123634,-0.00756348
0.0122194,0.00852128
0.0216091,0.0394519
0.0273343,0.0437605
0.0137394,0.0190009
0.000963428,-0.00926341
0.021023,-0.0438028
0.016068,0.0167467
-0.00637331,0.0240197
-0.0181076,0.00908844
-0.0253837,0.0109213
-0.0262442,0.00396114
-0.0263651,-0.000683721
-0.0127424,-0.0314913
0.00855485,-0.0227165
0.00926693,-0.00631937
0.016124,-0.0103978
0.015531,0.0161732
0.00609831,0.0331836
0.000737488,0.0687549
-0.00520161,0.0354604
0.0121968,0.00241934
0.02339,-0.00241553
0.00835759,-0.000701828
-0.00972824,-0.00804755
-0.028203,-0.0117478
-0.00150995,-0.0139384
0.020532,-0.00906007
0.00299441,-0.0172549
-0.0223167,-0.0191223
-0.0307035,0.0123616
-0.0364734,0.0227001
-0.0424916,-0.04125
-0.0131259,-0.0747785
0.015156,-0.00965945
0.0343051,0.0488891
0.0409751,0.0476685
0.035605,0.00248169
0.0301686,-0.0228205
0.00359435,0.00404296
-0.0145435,0.0224256
-0.0233691,0.00631507
-0.022974,-0.0102112
-0.00356562,-0.00606305
0.0227974,0.0224673
0.0318104,-0.00367548
0.0264223,-0.0328702
0.0331905,-0.0268698
0.0251159,-0.0231141
-0.0318165,-0.0129498
-0.060681,0.000554241
-0.0367081,0.0136318
-0.00803705,0.0265857
0.00801173,0.0345487
0.00844453,0.0321786
0.0143821,0.0158015
0.0226972,0.0107461
0.0163153,0.0135329
0.00995537,0.00631805
0.0138263,0.0401924
0.00651727,0.0131111
-0.0143735,-0.0243795
-0.0279213,-0.0506937
-0.0285872,-0.0433817
-0.0308783,-0.0130598
-0.0238994,-0.0400122
-0.016698,-0.0562309
-0.00460336,-0.0155951
0.0132185,-0.00430153
0.0147519,-0.0375523
0.00084084,-0.000429126
-0.00257741,0.0197495
0.00224364,0.00891423
0.00498517,0.0191392
0.00238886,0.0287833
0.00818484,0.0175335
0.0105165,0.0332173
0.00900586,0.0151716
-0.00423692,0.00433245
-0.0137964,-0.0188506
-0.0048252,-0.0707734
-0.0111879,-0.0303354
-0.00633734,0.0347028
-0.00442886,-0.00254727
-0.00977897,0.00668245
0.00967795,0.0450563
0.0195706,0.030291
0.000942594,0.00221885
0.000974657,0.00288038
0.00250843,0.0058037
-0.00526412,0.00359006
-0.01179,0.0433555
-0.000864277,0.0622621
0.00826685,0.0194297
0.0114013,-0.0106816
0.00823911,-0.00500766
0.00187574,-0.00930822
-0.00179516,-0.0245917
0.00112877,-0.0243596
0.00669898,-0.0544306
0.00678461,-0.0403692
0.00292599,0.0152065
0.00464787,0.00709141
0.0166538,0.00669582
0.0230533,0.000681459
0.0149697,-0.0010728
-4.98e-05,0.00631528
-0.00565326,0.00987398
-0.00973788,0.0271348
-0.0165659,0.0465896
0.00972729,-0.0085073
0.00509666,-0.00706463
-0.0031417,-0.0211672
-0.00183713,-0.0289977
-0.00993424,-0.0190099
-0.0181829,0.0186506
-0.0172739,-0.00409674
-0.00510834,-0.0312426
0.00483108,-0.00973875
-0.0086134,0.00572364
-0.0263285,0.00599082
-0.0371379,0.00323312
-0.0198363,0.0022789
-0.0008046,0.00304979
0.0156064,-0.000918692
0.0236562,-0.0127561
0.00361697,0.00736917
0.00483728,0.00228573
0.0256348,0.011481
0.0274365,0.0178834
0.0290492,-0.010614
0.0208342,-0.0326113
0.0086379,-0.0469576
0.00363876,-0.0303724
-0.00604286,0.031939
-0.0100563,0.036319
-0.0132811,0.0151511
-0.00998414,0.000846356
0.00902114,0.00414448
0.00406005,-0.00634372
-0.0283874,-0.00645955
-0.0239057,0.000976195
0.00217669,0.0211511
0.019971,0.0271332
0.00729375,0.0166916
-0.020736,0.00589502
-0.033152,-0.00541647
-0.0333508,-0.0137019
-0.0174758,-0.0192527
-0.00313751,-0.0197629
0.0154109,-0.023431
0.0265772,0.0188535
0.0306842,0.0345736
0.0574386,0.0141506
0.0397825,-0.0365367
0.0010012,-0.028272
-0.0090859,0.0139175
-0.0177122,0.0284829
-0.0204916,0.0190352
-0.02734,0.0192008
-0.0228699,-0.00515738
-0.00458453,2.22e-05
-0.00373496,0.056842
-0.00341465,0.00849059
0.0211125,-0.0694435
0.0201119,-0.0418685
0.00343731,-0.0209082
-0.0134012,-0.0197218
-0.0100453,0.0339672
-0.00345633,0.0284424
-0.00160956,-0.0271698
0.00260133,-0.00354419
0.0106916,0.00532161
0.000797365,-0.0230046
-0.00535802,-0.0270842
-0.000723312,0.00217154
0.000145962,0.019272
0.00296191,0.00140767
0.00527495,0.00335339
0.00466349,0.0334176
0.000920781,0.0154944
-0.00432389,-0.0057393
-0.0115916,0.00552359
-0.0118042,0.00251444
-0.00678699,-0.00332888
-0.00133196,0.0161274
-0.000130719,0.00273705
0.00777187,-0.023758
0.002214,-0.00355596
0.000206098,-0.0171275
-0.0040675,-0.013027
-0.00943749,0.00128652
0.0088428,0.00979661
0.014755,0.0211777
0.00870536,0.0138936
0.0228135,0.00282644
0.0140246,-0.00712528
0.0158735,-0.0155745
0.0114565,-0.0149261
0.00852868,-0.0122497
0.0197555,-0.0124978
-0.00588295,-0.00299333
-0.0358645,0.00784284
-0.0556782,-0.000184965
-0.074756,-0.00360049
-0.0814117,-0.00377377
-0.0909384,-0.0159756
-0.0528256,-0.0210631
0.0310805,-0.00452946
0.137797,0.0071544
0.115806,0.0144555
0.051666,0.0446586
0.0124698,0.0269683
-0.0202188,-0.00726798
-0.0323682,-0.0033314
0.000408996,-0.00661851
0.0198182,-0.0230195
0.00546259,0.00791212
0.0141118,0.0241186
0.0272923,0.0155627
0.0392796,0.00477075
0.0246927,0.0039146
-0.0189858,0.00336983
-0.0256234,-0.0143066
-0.0252331,-0.00739302
-0.00322295,0.00121727
-0.00122342,0.0246373
-0.0210592,0.0208546
-0.0221269,0.00471396
-0.0123601,0.0143639
-0.00333621,-0.00329157
-0.0175545,-0.0207243
-0.0232521,-0.00864054
-0.0128252,-0.00284451
0.0144832,-0.0091732
0.0328344,-0.010198
0.0108926,0.000751324
-0.00223886,-0.00927914
0.00308368,-0.0137314
0.00563704,-0.0144174
0.00323172,-0.0176893
-0.00267546,-0.0119844
-0.00117364,0.00897808
-0.00146425,0.0145553
0.000774755,0.0162426
0.0131091,-0.0141411
0.00441991,0.000550994
-0.0123448,0.00472574
-0.00746657,-0.00184796
0.0223518,-0.00672526
0.0560505,-0.00717305
0.0591587,0.00459124
0.0365925,0.0150209
-0.00842866,0.00834937
-0.0421379,-0.0226674
-0.0500839,-0.0373049
-0.0210947,-0.00246522
-0.00941714,0.0221454
0.00114954,0.0128238
-0.00564404,0.0202101
-0.0379043,0.0283231
-0.05927,0.0146334
-0.0762631,-0.00632059
-0.0736766,-0.0132422
-0.0469954,-0.0173834
-0.0255538,-0.0127513
0.0320528,-0.00013269
0.052736,0.0054132
0.0740365,0.00504166
0.0700317,0.000496091
0.0459201,-0.0133102
0.0248885,-0.0105083
0.0123878,-0.00525795
0.00212004,-0.00764589
-0.0287826,0.00250162
-0.0246801,0.0619947
0.022362,0.0396311
0.000230085,-0.012803
-0.0463792,0.00477893
-0.00490343,-0.0333423
0.0617709,-0.0472126
0.0570076,-0.0299177
0.0145684,-0.00112177
-0.00390746,0.0136351
-0.00238274,0.0118395
-0.00674851,0.00856818
-0.00428596,0.0249516
-0.00550932,0.0435383
-0.0101732,0.0145161
-0.0215893,0.0045679
-0.0408862,-0.00809134
-0.0243506,-0.0333917
0.0131715,-0.0151573
0.0311583,0.0180608
0.0477627,-0.00678397
0.0380782,-0.0109081
0.00641006,-0.0146598
-0.038859,-0.0133285
-0.0403303,-0.00030732
-0.0305242,0.00755252
-0.0199661,0.00330829
-0.0169345,0.00268696
-0.0145257,0.00392153
-0.0166046,0.00684128
-0.00397305,-0.0163702
0.00203297,-0.00419166
0.00258528,0.00795181
0.0349561,-0.0164436
0.0530843,-4.31e-05
0.0426716,-0.0052641
-0.00159377,0.00414451
-0.0371562,-0.00553284
-0.0280563,-0.00255503
-0.00192845,-0.00132344
0.030027,-0.00511628
0.0111835,0.00149503
-0.0207365,0.00626852
-0.0325262,0.00671915
-0.00797391,0.0134874
0.0121806,0.0210245
0.00715401,0.0181955
-0.0171044,0.00411902
-0.0252678,-0.0329139
-0.00563722,-0.045557
0.0117216,-0.00328381
0.0485922,0.00177561
0.050124,0.0183547
-0.0029259,0.0282956
-0.0252636,0.00349494
-0.00981559,0.00973325
-0.0365696,0.020927
-0.0665549,0.0103685
0.00173128,-0.0130165
0.063679,-0.0105417
0.0352197,0.00775134
0.00360675,0.0220148
0.0201049,0.00139756
-0.0148408,-0.0323368
-0.0295176,0.000488469
-0.0378411,0.0338239
-0.0308827,-0.00221774
0.0132671,-0.0315918
0.0498717,-0.0223749
0.0479954,0.00267069
0.0335673,0.00602192
0.0141311,0.00593175
-0.0113589,-0.000237248
-0.0170924,-0.00383435
-0.00662485,-0.00139831
0.016945,-0.00512231
0.015183,0.00116627
-0.00441485,0.016853
-0.00260479,0.0274388
0.0115969,0.0140886
0.0145704,-0.00468412
0.0101038,-0.00740046
0.00455465,-0.0154286
-0.0239662,-0.0204083
-0.0292508,-0.0229805
-0.0285756,-0.00566728
-0.0329522,0.010716
-0.0122541,-0.000326957
0.0239241,-0.00956992
-0.0328416,-0.00835128
-0.0851666,-0.00673961
-0.0358945,0.00555741
0.0168851,0.0162477
0.0393355,0.0391105
0.0671039,0.0394491
0.0462208,-0.0198949
-0.00354616,-0.0364922
0.00412281,0.00159572
0.000355148,-0.0142461
-0.0297508,-0.0169344
-0.0314138,-0.0102136
-0.0493412,0.00023317
-0.0818044,0.0365301
-0.0380696,0.0273992
0.0625058,-0.0411023
0.0796053,-0.0411466
0.0331976,-0.00131174
-0.0482845,0.0236307
-0.00938772,0.0250434
0.0527046,0.0277991
0.000907982,0.0388309
-0.0132421,0.0410377
-0.0204161,0.0619796
0.0219928,0.0225568
0.067471,0.0252575
0.0736416,0.0653467
0.0223852,0.0384405
-0.0556576,-0.00011219
-0.0434355,-0.0273054
0.0726364,-0.100251
0.0922538,-0.106318
0.0729396,-0.0700543
0.0691765,-0.153934
0.0279208,-0.218913
-0.0393845,-0.169549
-0.0949829,-0.227968
-0.0967092,-0.214655
-0.070361,-0.120513
-0.0756137,-0.0297451
-0.0859843,0.0380383
-0.0267369,0.162407
0.00138264,0.39255
-0.0360647,0.335942
-0.036402,0.204226
0.0424477,0.113073
0.0956751,0.0996094
0.118763,0.0725931
0.0660472,0.0522465
-0.0350638,0.0986541
-0.0174105,0.0936918
0.00456861,0.00330753
-0.0506044,-0.0323854
-0.0889409,0.0151448
-0.0302643,0.0534501
0.0351529,-0.017902
0.0372297,-0.0580018
-0.0261727,-0.0578256
-0.112368,-0.0971378
-0.0889958,-0.106636
0.00846561,-0.114357
0.0436474,-0.0581141
0.0246788,-0.05497
0.0449537,-0.0712289
0.0731463,-0.0610194
0.000658894,0.0118755
-0.0563232,0.0171366
0.0691161,0.0381428
0.204039,0.00658649
0.160849,-0.000822938
0.100441,-0.0180187
0.018295,-0.0175
-0.123794,0.0582137
-0.184632,0.0952986
-0.127419,0.00732527
-0.0528883,-2.4e-06
-0.0511713,-0.0500208
-0.0223862,-0.0875433
-0.00454617,-0.0443763
-0.00835234,-0.0548006
0.10656,-0.0106922
0.137929,0.0609026
0.101783,0.0403182
0.000335895,-0.0640535
-0.091091,-0.0582912
-0.155384,0.0473206
-0.0564776,0.0994654
0.19638,0.00676846
0.227411,0.00112558
0.117823,0.0929052
-0.0166401,0.0580357
-0.231571,-0.057817
-0.311897,-0.0250908
-0.0913926,0.0111758
0.0127767,-0.0564898
-0.151381,-0.0831097
-0.115384,-0.0374536
-0.0461956,0.00804602
0.0290861,0.0285663
0.0933623,0.00621385
0.0151696,0.0155242
-0.0111888,0.0283849
0.0334839,0.0527721
-0.0568704,0.0591366
-0.0134959,-0.00705949
0.0967113,-0.0511671
0.084978,-0.043143
0.0213218,0.00684803
0.0937375,0.00419618
0.133045,-0.0355127
0.0935264,-0.0647687
0.121977,-0.011986
0.11448,0.0133946
0.107745,0.00552227
0.0709866,0.00900328
0.0378935,-0.0244927
-0.023717,0.031183
0.00965364,0.0373444
-0.0402272,0.0205726
-0.206834,0.0293189
-0.140888,0.0245627
0.102256,0.0212076
0.239223,0.0010685
0.124822,0.0272632
-0.123464,0.0145289
-0.259617,0.0182813
-0.291765,0.0321883
-0.18581,0.0707401
-0.000830319,-0.0256888
0.158543,-0.144298
0.205832,-0.126659
0.217637,-0.0657746
0.0928897,0.0143533
-0.0648507,0.0256972
-0.187565,0.011222
-0.170112,-0.039732
-0.0745522,0.00871196
-0.124469,-0.00752823
-0.196367,0.0623024
-0.177543,0.0755033
-0.214654,0.0290649
-0.249759,0.0808346
-0.124625,0.0884974
-0.0593728,0.0294817
0.0816375,-0.159385
0.246763,-0.137075
0.317921,-0.0613981
0.215244,-0.0144011
0.177233,-0.00935116
0.221613,0.00331657
0.301873,0.034035
0.427141,0.0771659
0.458184,0.0916797
0.297904,0.0945712
0.0636268,0.0315344
-0.184553,0.00401004
-0.306465,0.067504
-0.298597,0.0616178
-0.369718,-0.0716044
-0.213351,-0.0886343
0.0141,-0.0822999
-0.0762601,-0.0817723
-0.277896,-0.0365607
-0.182279,0.031391
-0.0297126,0.0138216
-0.0527913,-0.0334712
-0.0645603,0.000977622
-0.169502,0.0313059
-0.202871,-0.0170109
-0.168763,-0.0358163
-0.0411573,-0.00523957
0.0981588,-0.0065606
0.253696,-0.0048434
0.363178,0.00916065
0.275291,0.0438787
0.185867,0.146501
0.269239,0.00300463
0.19753,-0.0510916
-0.0147202,0.0327774
-0.0797116,0.0281518
-0.166547,0.00871346
-0.270991,-0.0448771
-0.276886,-0.0275477
-0.167121,-0.0161315
-0.0686711,-0.0299878
-0.0339252,-0.0532056
-0.00863788,-0.0215284
0.00870774,-0.00465872
0.0552585,0.0667254
0.0821343,0.0468913
0.0955993,-0.0228063
0.127517,0.0436135
0.165495,0.0562205
0.18156,0.063406
0.167917,0.0565858
0.245949,0.0457837
0.270491,-0.0153877
-0.0738875,-0.026416
-0.412716,-0.0961318
-0.440324,-0.0836616
-0.244503,-0.0552285
-0.114156,-0.0323783
-0.0493351,0.0119936
0.0415743,-0.0718664
0.0977925,-0.0930037
0.0602128,-0.0418157
-0.00516013,0.0490182
-0.0132757,-0.0181038
0.0244278,-0.0321107
0.0214704,0.0409998
0.0253588,-0.011097
0.0433364,-0.152943
0.0885529,-0.0061833
0.136434,0.0944828
0.0780417,0.0626658
-0.0148189,0.0388315
-0.0853076,0.055961
-0.0772887,0.0474444
-0.0117603,0.0216597
-0.0205476,-0.0109357
0.0203268,-0.0166098
0.0430166,-0.00864709
0.0621862,0.0335202
0.0867211,0.0417527
0.0656844,0.0357184
0.012705,-0.0155956
-0.00770986,-0.0206381
-0.0833339,0.0148933
-0.136826,0.000834686
-0.111949,-0.0225782
-0.016797,-0.0225586
0.0705164,-0.00397704
-0.0173904,0.0230053
-0.0620151,0.0296377
0.0764792,-0.0104069
0.140128,-0.0395434
0.00460936,-0.0474719
-0.0768822,-0.0589097
-0.115951,-0.0102186
-0.0987558,-0.00650487
-0.0286677,-0.0377538
0.111865,0.00209329
0.103619,0.0716617
0.0167153,0.0568331
-0.0226693,0.05249
-0.0270205,0.0233439
0.00593845,-0.0282613
0.0321011,0.0306445
0.0526019,0.0699126
0.00863377,0.0193162
0.0884979,0.0523896
0.235008,0.0145034
0.179718,-0.0755312
-0.128431,-0.0660603
-0.342557,-0.0406622
-0.245713,-0.0222984
0.0105987,0.0164149
0.0737701,0.018531
-0.0049447,0.0414797
0.0111859,-0.0755372
-0.0431707,-0.00699622
-0.0711217,0.0664559
-0.0258521,0.0537573
0.023616,-0.00489382
-0.0252282,-0.0884967
-0.0308872,-0.0150882
0.0232362,0.0456278
-0.0189367,0.0196709
-0.041634,-0.0104816
-0.0112283,-0.00480313
0.0496993,-0.00624664
-0.0105841,-0.022765
0.0241068,-0.033378
0.0712629,0.0327807
0.0183365,0.0405414
-0.000336744,-0.0256054
0.00505563,0.00150226
0.0626602,0.0624415
0.147391,0.0338499
0.274531,-0.0452628
0.379735,-0.0148417
0.155427,-0.0205277
-0.292362,-0.0668555
-0.473375,-0.0687931
-0.340612,-0.0769287
-0.191552,-0.0375515
-0.0436422,0.00313583
0.0368111,0.018439
0.0576995,0.0417069
0.0500172,0.0412277
0.0299973,0.00291608
0.0220462,-0.0183494
0.102159,-0.0319804
0.118888,0.0475204
0.0374953,0.0486585
-0.0189104,0.0184185
-0.0343421,0.00282112
-0.0150176,0.0087703
0.035494,0.0142292
0.141569,0.0164936
0.144875,0.0346201
0.0248774,0.0260211
-0.00483382,-0.036335
0.0420482,-0.0379927
-0.00349941,0.0186049
-0.116211,0.0125582
-0.170604,0.00221155
-0.109731,-0.000118092
-0.0638116,-0.0514532
-0.0320497,0.0145413
0.018791,-0.0270124
0.0391528,-0.015835
0.0246545,0.010343
0.0157052,0.0720821
0.0863899,0.0719304
0.122852,-0.013268
-0.0464188,-0.0393774
-0.188021,-0.0141936
-0.165481,0.0671697
-0.0444624,0.00395426
0.077704,-0.0761288
0.103433,-0.0665251
0.0484047,-0.0216738
0.00600784,0.00647899
-0.00387441,0.0424275
0.00167872,0.00035749
-0.00450164,-0.0523561
0.0117119,0.0406248
0.069148,0.0395076
0.0184007,-0.0571591
-0.0301407,-0.0230095
-0.0324248,-0.00573698
-0.0876931,-0.00330524
-0.0293773,0.0128133
0.019855,0.0330578
0.00976483,0.00831538
0.0562411,-0.0189935
0.0324915,-0.0185567
-0.0292596,0.0145901
-0.0191772,0.0214486
0.0913351,-0.00391083
0.243596,0.00409482
0.2178,0.0320644
0.0692977,0.0163354
-0.06737,-0.0125704
-0.259155,-0.0784036
-0.351873,-0.070427
-0.300108,0.0542705
-0.0855096,0.0693493
0.0881922,0.00598858
0.137729,-0.0142876
0.110048,-0.0129785
0.0825698,-0.00343511
0.0543475,0.00578426
0.0680191,0.00162992
0.0701313,-0.00213901
0.0319571,0.0109464
-0.0167435,0.0177276
-0.0801991,0.00603906
-0.0334741,-0.0109851
0.0064618,-0.00542595
-0.0234751,-0.00362605
-0.0154903,0.0199443
0.0163302,0.033434
0.0301674,0.0158643
0.0186491,0.0192597
-0.0200189,0.0484985
-0.0191705,0.0128907
0.0631278,0.00626397
0.0714045,-0.0122738
0.0511695,-0.0160833
-0.003535,-0.0127997
-0.171178,0.00479845
-0.343417,0.0220059
-0.249188,0.0231938
-0.052493,0.010303
0.173677,0.0279111
0.361772,0.0329738
0.202895,-0.0266299
0.0532184,-0.0111852
0.0352053,-0.0154366
-0.0534651,-0.0555421
-0.0878985,-0.0521526
-0.0678112,-0.035868
-0.00788417,-0.0330566
-0.00641982,-0.0190716
0.00534595,-0.0174977
0.0873138,-0.0283048
0.16032,3.35e-05
0.155638,-0.0183628
0.00903878,-0.061296
-0.125003,-0.0554658
-0.159754,0.0488558
-0.0983764,0.0850136
-0.0479229,0.0201567
-0.0377376,-0.0315035
-0.0225805,-0.0073676
-0.0286449,0.00113971
-0.00700903,0.0121945
0.00328994,0.0239288
0.0155538,0.0134485
0.048069,-0.0088041
0.0296156,0.0104128
-0.0182096,0.0343941
-0.0269824,-0.00721065
-0.00175418,-0.0489419
0.0391286,-0.0239405
0.0153596,-0.0174282
-0.0264669,0.0186944
-0.0400425,-0.0209821
-0.0814747,-0.0171521
-0.0619387,0.0289559
-0.0334656,0.0467576
0.0209691,0.0081423
0.158856,-0.0370324
0.234126,-0.0165202
0.196532,0.000257518
0.046788,-0.00359611
-0.0141025,0.00262276
0.0750541,0.0125122
0.112998,0.00937101
-0.0125295,-0.00374905
-0.193748,-0.038479
-0.238276,0.0530853
-0.155203,0.0510788
-0.0887325,0.037505
-0.0747319,0.00617094
0.0133213,-0.0147584
0.014319,0.0121428
-0.0505748,0.00160956
-0.0619365,0.00243426
-0.00170306,0.00256991
0.0367684,-0.00376938
0.108006,-0.0431659
0.140614,-0.0285458
0.0700321,0.0148311
-0.0431773,0.0477235
-0.0767402,0.0099567
-0.0190773,0.00505899
0.042409,0.0143035
0.0593708,0.00712853
0.0171664,-0.00781998
-0.000274611,-0.022832
-0.0120563,-0.0254268
-0.0012644,-0.0148873
0.00608039,0.000737303
-0.0164434,0.0107817
-0.0499934,0.0138731
-0.075613,-0.00681361
-0.0825118,-0.00347093
-0.0328287,-0.0124087
-0.0152811,-0.0205414
0.0353762,-0.0183923
0.0692876,-0.00408269
0.0692692,0.00939299
0.122442,0.0139408
0.170518,0.0157737
0.194954,0.0458592
0.111721,0.0477694
0.049836,-0.0291189
-0.0650998,-0.0683759
-0.283932,0.000483941
-0.282088,0.00891375
-0.133114,-0.0592099
0.0228217,-0.0419222
0.0968377,0.00129573
0.00893197,0.0305703
-0.0914222,0.00609365
-0.0563949,0.00335352
0.0494551,-0.0177219
0.0285159,0.0262233
-0.0100948,0.21993
0.0938127,-0.00972509
0.125722,-0.153225
-0.00835445,-0.0654393
-0.0717656,-0.0249518
-0.0262532,-0.0158913
0.0203788,-0.033379
0.039153,0.00102993
0.0290354,0.0208742
0.00245009,0.0259966
-0.0209093,0.00106105
-0.0339889,-0.0126746
-0.0123586,0.00809256
-0.0469336,0.0269083
-0.0889107,0.0502626
0.0234431,0.00667587
0.0784572,0.00778266
0.0814456,0.0244557
0.00682318,-0.0115161
-0.0380596,0.0302634
-0.0398788,0.0481921
-0.0724991,0.0175643
-0.0513885,-0.00981358
0.00717187,-0.0274914
0.0287843,-0.0149703
-0.0150957,0.000643762
-0.00400216,0.00362129
0.030975,0.00166278
0.0477444,0.0157004
0.0958185,0.0167379
0.170768,-0.0240198
0.125304,-0.0320073
-0.0759554,-0.0135564
-0.168065,0.0226477
-0.00504619,0.0379737
0.172406,-0.0276549
0.0845385,-0.0696813
-0.121231,-0.0301792
-0.156777,-0.0223623
-0.0763067,-0.0222141
-0.0448557,-0.00386592
-0.0486464,0.0162103
-0.0469488,0.0389524
-0.0289072,0.0507011
-0.00199373,-0.0064787
-0.00135754,-0.0177616
-0.00993925,0.00977304
-0.027752,0.00673766
0.000263889,-0.00345145
0.0262101,0.00100787
0.0262361,0.012465
0.0486218,0.00818266
0.0264742,-0.0239329
0.00691038,-0.029193
0.0636488,0.00583763
0.0631777,0.0168408
0.0374621,0.00501848
0.0311764,0.0162597
0.0622604,0.0187932
-0.0313763,0.0253704
-0.119752,-0.00797574
-0.0960341,-0.0155699
-0.0940241,-0.0384521
-0.0686285,0.0120496
0.00361128,-0.022331
0.071612,-0.0349424
0.0852684,-0.00674929
0.156394,0.0438991
0.212795,0.0479154
0.107304,0.0573506
0.0443039,0.0875654
-0.0384351,-0.0187353
-0.160029,-0.101065
-0.18008,-0.0904684
-0.102365,-0.0484387
-0.058162,0.0136802
-0.0451499,0.0192499
-0.0350477,0.00928513
0.0144906,0.0263236
0.0534015,0.0139752
-0.0361696,-0.0395859
-0.0849947,-0.0198409
-0.0477603,0.0402706
0.00639436,-0.016601
0.0320623,-0.0268131
-0.000447746,0.0160222
-0.0220297,0.0100161
-0.00130224,0.0168186
0.0600994,-0.00590587
0.0944241,-0.00363776
0.133424,-0.0284932
0.0886617,0.034641
0.0289977,0.0630124
0.0253922,0.0116718
-0.00318588,-0.0273671
-0.0543266,-0.041062
-0.0180608,-0.0199077
-0.0235702,-0.00974037
-0.0351171,0.00500296
-0.0299059,-0.0258453
0.000729189,-0.0212429
0.0193454,-0.0115953
-0.0469225,0.0365345
-0.117009,0.0300651
-0.0183912,0.0282591
0.100854,0.0397094
0.0362307,6.11e-05
-0.0134921,-0.012995
-0.00484531,0.00985308
0.0475788,-0.0109012
0.0638939,-0.00152276
0.0205268,0.0110955
-0.0235781,-0.0398921
-0.0393535,-0.0641601
-0.0171329,0.00727934
-0.0198204,0.0558413
-0.00818886,0.00610994
0.0484612,-0.0386067
0.0623937,0.00280491
0.0459902,0.0141208
0.0303486,-0.00364302
-0.0200793,-0.0280472
-0.0531336,-0.00812297
-0.0483855,0.00435184
-0.000889646,-0.00478381
0.0271558,-0.0109542
0.0185644,-0.00460885
-0.0068834,0.00508047
-0.0180696,0.0247873
-0.011253,0.0104288
-0.0116017,-0.0100668
-0.0252758,-0.0277143
-0.0441254,-0.0164654
-0.0623653,-0.0188302
-0.0739241,0.00801979
-0.0428586,0.0400537
0.00320956,0.0716293
0.031642,0.0428935
0.0895128,-0.0415799
0.135748,0.0170035
0.120507,0.0724825
0.0657986,0.0149878
0.00779129,-0.0395291
-0.0118497,-0.0194255
-0.0583408,-0.0193736
-0.0731924,-0.0157898
-0.0378594,0.00496893
0.0127019,0.00863953
0.0647615,-0.0108305
-0.0402328,-0.00564706
-0.140587,-0.0184892
-0.084009,-0.00534767
0.0361234,0.00223285
0.0210229,0.0242963
-0.0837958,-0.0156503
-0.0973451,-0.0226052
-0.0408906,-0.0371036
-0.0148245,-0.0293439
-0.0152218,-0.00890398
-0.014011,0.0725133
0.0376809,0.0812328
0.0063451,-0.00142018
-0.0394458,0.00802021
0.0239608,-0.00479229
0.083982,-0.0515654
0.029419,-0.0317812
0.0221548,0.00698343
0.0557865,0.0226633
0.148039,-0.00379792
0.168547,-0.0322508
0.0605032,-0.0385427
-0.041551,-0.00866541
-0.0979802,0.00918523
-0.0807929,0.00786373
0.0104504,-0.030655
0.0241515,0.0156636
0.00176875,0.0421858
-0.0348122,0.0500365
-0.0417083,0.0127516
0.0192581,-0.0188736
0.0290596,-0.0130877
0.012343,0.00451123
-0.0137639,0.0375767
-0.0268808,0.0270079
0.075364,-0.0190237
0.125291,-0.0243111
-0.0319015,-0.00557583
-0.150902,-0.031715
-0.14726,-0.0392912
-0.0978855,-0.0171824
-0.0445318,0.0296086
0.00231543,0.00930979
0.0739413,-0.0375541
0.0886681,-0.00644054
0.0302712,0.00959812
-0.00397977,0.0107689
-0.0162214,0.0126046
-0.0124527,0.0101491
0.0129606,-0.00503455
0.0293276,-0.00198277
0.00990655,0.0168051
8.77e-05,0.0370309
0.0133826,0.0372998
0.0157908,-0.0284624
0.0103758,-0.0682952
0.0245846,-0.0137444
0.0235294,0.00165882
0.0025218,-0.0114651
-0.0171232,0.0100909
-0.0120803,0.0243915
-0.00443752,0.0207817
-0.00944128,0.0227848
-0.0243966,0.00868342
-0.0466446,-0.00121625
-0.0367366,-0.0193454
-0.00666163,-0.0120702
0.0694664,0.0296926
0.169741,0.0585317
0.148098,0.039623
0.00491934,0.0255337
-0.0404675,0.00801897
-0.0405361,-0.0108677
-0.0230821,-0.0455029
-0.0235549,-0.0505325
-0.0593046,-0.00642117
-0.074053,-0.00948239
-0.0601609,-0.000157682
-0.0404433,-0.0178464
-0.0576704,0.0129377
-0.0497876,-0.0730908
-0.0332669,-0.0141139
-0.0469525,0.0291281
-0.0533601,-0.00758623
0.00764594,-0.0210216
-0.0122116,0.0209551
-0.0419373,0.0377155
0.103651,-0.0109925
0.173448,-0.0630006
0.0481939,-0.0436807
-0.0276798,-0.0160259
-0.0332471,0.0260474
-0.012472,0.0547752
0.0505884,0.043834
0.0951324,-0.0179954
0.121221,0.00572375
0.0963694,-0.00490472
-0.0474321,-0.0176308
-0.157097,-0.0140612
-0.116374,0.0106935
-0.0395008,0.0192947
0.0134471,0.0195093
0.0362991,0.0278493
0.0169935,0.0140798
-0.0233973,-0.0385934
-0.040995,-0.012158
0.00312798,-0.0111293
-0.00988721,-0.0193336
-0.0276364,0.0278655
-0.0139937,0.00892708
-0.0121867,0.00258369
0.0554584,0.0289476
0.139308,0.00943555
0.166128,0.0161799
0.0380296,0.0145287
-0.0963574,0.0120964
-0.0874031,-0.0149083
-0.0392404,0.0110932
0.00394849,0.00725936
0.00664597,-0.0532355
-0.0101519,-0.0690006
0.00391817,-0.022131
-0.0263232,-0.0149756
-0.0437008,0.0182144
-0.0185903,0.0216878
0.0333023,-0.00792104
0.0441507,0.0113028
-0.0046026,0.0151625
-0.0180579,0.0173764
0.0266454,0.0212239
0.0349785,-0.00956263
-0.0283677,-0.026722
-0.0565801,-0.0222561
-0.0294626,0.00648601
0.0135041,0.0345404
0.0657898,-7.01e-05
0.0897645,0.018387
0.0120383,0.0609288
-0.00418355,-0.0174456
-0.0423431,-0.058559
-0.132271,0.00197068
-0.0530735,0.0324536
0.113711,0.0300221
0.188997,-0.0276541
0.0680987,-0.0327963
-0.0971506,0.0247612
-0.148815,-0.0435448
-0.143709,-0.00506405
-0.08637,0.0405612
-0.0238017,-0.0462175
-0.0177566,-0.0294773
0.02363,-0.0286539
0.0913318,0.00360875
0.0917587,0.0483479
0.0545748,0.0512381
0.0681656,0.0687836
0.127421,-0.00297037
0.0564972,-0.0486947
-0.0914618,-0.0366196
-0.140136,-0.014057
-0.057157,0.0131754
0.00271434,0.0183648
-0.00607389,0.00258402
-0.0258761,-0.0239752
-0.0350268,-0.0565532
-0.0378507,-0.0354522
-0.060078,0.00443161
0.0282879,0.0153057
0.0983238,0.0407722
0.0243452,0.0734593
-0.0375568,0.04523
0.0235063,-0.0108652
0.0601937,-0.00701106
-0.000367232,0.0240537
-0.0429322,-0.016938
0.0498442,-0.0214208
0.112524,0.0288768
0.0645915,-0.0307131
-0.00966162,-0.0391332
-0.107803,-0.0300545
-0.157134,-0.00226839
-0.0245878,-0.0407191
0.10165,-0.0233676
0.055702,0.0355996
0.00154406,0.0435467
-0.00472166,0.00156339
-0.0425019,-0.0642786
-0.110179,-0.0140249
-0.0409235,-0.00552581
0.0417742,-0.0108313
0.0787321,0.00424002
0.0807498,0.0215264
0.0419782,0.0277994
0.000208806,0.0323304
-0.0307936,0.0321032
-0.0679802,-0.00884408
-0.0327022,-0.0494295
-0.0465099,-0.0114039
-0.037394,0.0504604
0.0222827,0.0458568
0.120034,-0.00505946
0.126056,-0.0180358
0.0212949,-0.0159678
-0.0778186,-0.0101567
-0.13447,-0.0237259
-0.0780254,-0.00200656
-0.0374998,0.0251482
-0.0452223,0.0280326
0.0453886,-0.00671947
0.0949985,-0.00415014
0.015707,0.0189335
-0.0247207,0.0170716
0.0435343,0.0194563
0.0955795,-0.00217659
0.0857841,-0.0289529
0.09064,-0.0381582
0.0512387,0.00789379
-0.040665,0.012125
-0.161643,-0.0127259
-0.170526,0.00062146
-0.0672117,0.013592
0.00815145,0.00802105
0.0245917,-0.012453
-0.0297329,-0.0252417
-0.0723552,0.0110234
-0.0763984,0.0269605
-0.00632756,0.0315242
0.0984572,0.00447284
0.100756,-0.0120969
0.119495,-0.000844145
0.147506,-0.0304825
0.0377452,-0.0509318
-0.0878689,-0.0180971
-0.104041,-0.00376632
-0.0110188,0.00278051
0.0169959,0.017715
-0.00238767,0.0587776
0.00208759,-0.00868754
-0.0539688,0.0192653
-0.0368785,0.0211676
0.00638296,-0.0530817
-0.0059305,-0.0569677
0.0269261,-0.0356667
0.0477773,0.00352912
0.0317533,0.0139303
-0.0441747,0.0520413
-0.0766909,0.0782861
0.0206117,0.0235352
0.0970223,-0.0380597
0.0963437,-0.0948687
0.0615139,-0.0379254
0.0238037,-0.00513474
-0.00865344,0.00822016
-0.0869538,0.032237
-0.133538,-0.0018264
-0.0975265,-0.0407394
-0.0329738,-0.0230599
0.00969432,0.0500161
2.69e-05,0.0448406
0.0443236,0.0301769
0.171484,0.0351232
0.226135,0.0184259
0.124015,0.0138519
-0.0379737,-0.00720087
-0.170286,-0.0410943
-0.234664,-0.0345189
-0.174877,-0.0154201
-0.0324907,0.0235289
0.02182,-0.00990653
0.0136513,-0.0191566
0.0117778,0.0153449
0.043056,0.0193768
0.0407811,0.0109283
0.0365057,0.00521617
0.0486082,-0.0527315
-0.0162657,-0.0560759
-0.0385313,-0.0280629
0.0172352,0.0130977
0.0757056,0.093338
0.0577263,0.0839069
0.00660848,-0.0266083
-0.00222297,-0.0435179
-0.0653742,-0.000951163
-0.162949,-0.0150179
-0.138541,0.0072017
-0.016437,0.014752
0.135549,-0.00102823
0.134921,0.0256471
0.0354239,-0.0170315
-0.0228183,-0.0220031
-0.045423,-0.0131056
-0.00092761,-0.0245777
-0.000724957,-0.0228528
0.0173261,0.000751769
0.0258109,0.0275341
-0.0538526,0.0212593
-0.0699993,0.00899029
0.00579814,-0.00758975
0.0624587,0.0271891
0.0757143,0.00109547
0.0794694,-0.0186322
-0.0158516,0.00337092
-0.0793809,0.00463883
-0.0668032,-0.0326335
0.0459924,0.0389202
0.0359987,0.00111199
0.0148526,0.0068118
0.040075,0.0202803
0.0872639,0.00950452
0.0475948,-0.00206375
-0.00168105,-0.0116067
-0.087531,-0.0117236
-0.109983,8.16e-05
-0.0244476,0.0139505
0.015482,0.0125379
0.0136549,-0.0232574
0.0213222,-0.00848393
0.0538457,0.0572263
0.10661,0.0494763
0.051152,-0.0656732
-0.0895593,-0.0717643
-0.189237,-0.0198198
-0.150515,-0.0105532
0.0103025,-0.0168777
0.192272,0.0183935
0.206468,0.0412754
0.0152221,0.02
-0.141538,-0.023424
-0.204841,-0.0295577
-0.165424,-0.00958652
-0.0713446,0.011864
-0.0719776,0.0425597
-0.0208061,0.0849259
0.12745,0.0105526
0.173203,-0.0527305
0.127854,-0.0754931
0.0758773,-0.0328727
0.012642,-0.0137388
0.00518135,-0.0204455
0.0225176,-0.00864274
0.0128486,0.00847369
-0.0223605,0.00280962
-0.0562217,0.00861796
-0.0557403,0.0455732
-0.0151301,0.0514032
0.000485825,0.00214178
0.00786982,-0.0126764
0.010965,0.00257728
0.0397937,0.0121019
0.0632372,0.0115981
0.0452985,-0.0272261
-0.0116954,-0.0258461
-0.0532006,0.018183
-0.0268795,0.0162677
0.022707,-0.00442889
0.0196727,-0.0136204
-0.0311956,-0.0230048
-0.0460806,-0.00559951
-0.0387699,-0.00859284
0.00382568,0.0214639
0.024375,0.0332043
0.017764,-0.00370808
-0.0519975,-0.0217811
-0.083236,0.000943775
0.00546854,0.0239159
-0.0288426,0.0112936
-0.00101367,0.005995
0.0937479,-0.00694791
0.0798685,-0.0224361
0.0582701,0.00732226
0.0901153,0.0467851
0.0276852,-0.0126038
-0.0740505,-0.0331781
-0.0859691,-0.0077863
-0.0512115,-0.00324328
-0.0245474,-0.00603668
-0.0270781,-0.00222998
-0.0247684,-0.0140174
-0.0282784,-0.0201759
0.0141748,-0.00939798
0.0427081,0.00720892
0.0172614,-0.00259855
0.0573285,-0.00081217
0.0558322,0.0280555
0.0211998,-0.00622484
-0.0420361,0.00955037
-0.0694166,0.0143049
-0.0340402,-0.0404996
-0.044669,-0.0406559
-0.0799718,0.00484305
-0.060144,0.0455702
0.0256776,0.0115904
0.0833669,-0.0212656
0.044991,0.0069408
-0.039079,0.00377914
-0.0383886,0.00839376
0.0365588,0.0111614
0.0273864,-0.0042539
-0.0049125,0.0110648
-0.0165417,0.0453837
0.0111525,0.0212851
0.0960327,0.0326316
0.177612,0.00739598
0.183076,-0.0644446
0.0942887,-0.0334754
-0.045013,-0.0433833
-0.124857,-0.0257996
-0.206608,-0.00155739
-0.111292,0.0106077
0.0327706,0.00940452
0.0342004,0.0128783
-0.00341561,0.0208745
-0.0390099,0.0159024
-0.0547837,-0.0211459
-0.0580002,0.00359295
-0.0494323,-0.0286783
0.00232999,0.015568
0.0454145,0.0532113
0.0296564,-0.0104233
0.00434276,-0.028699
-0.0222999,-0.00262762
-0.00137897,0.0207959
0.00485578,0.0190229
-0.0184769,-0.0033557
-0.0174264,-0.00183004
0.0304924,0.00373925
0.0756794,1.66e-05
0.0869396,-0.0153537
0.0836089,-0.0162811
0.0256775,-0.0127086
-0.0312439,-0.00663964
-0.0401664,-0.00162238
-0.024245,-0.022726
-0.0107214,-0.0131345
-0.0211953,0.00828247
-0.0438728,0.0216516
-0.0497282,0.0339445
-0.012831,0.021672
-0.00326692,0.0214808
-0.00618525,0.0532614
-0.00354648,0.0286652
0.00379585,-0.00235253
0.00741791,-0.0206929
0.021083,-0.0511859
0.0339852,-0.0329377
0.00745302,-0.000124733
0.0155697,0.0206873
0.11421,0.0261719
0.261023,0.0307599
0.232041,-0.0368802
-0.0182402,-0.04205
-0.205604,-0.0380104
-0.280408,-0.0683486
-0.223401,-0.0601818
-0.103597,0.0531721
0.0338743,0.0962966
0.141413,0.055461
0.11001,0.011525
0.0119418,-0.00188327
-0.0654621,0.00415211
-0.0681275,-0.012136
-0.052286,-0.0329883
0.0278042,-0.0423565
0.0272651,-0.0612146
-0.0403774,-0.0137849
-0.0610392,0.0211942
-0.0140818,0.00191739
0.000914582,-0.0146556
0.00564866,0.00653783
0.0220074,0.0223289
0.0265941,0.00903316
0.0242582,-0.00155452
0.0422557,-0.00830436
0.0514232,0.0245124
0.0405846,0.0506952
0.0301433,-0.0128267
0.022248,-0.0275221
0.0146859,-0.00762003
0.00743823,0.00292664
-0.00692452,0.00780922
-0.0366518,0.0112924
-0.078006,0.00846516
-0.097188,0.0131585
-0.0602222,0.0448198
0.0153654,0.00206221
0.0763894,-0.0308877
0.0484625,-0.00222823
0.0375668,-0.00383313
0.0455602,-0.0173779
0.02493,-0.0219302
0.00475048,-0.0155281
-0.0091211,-0.00250753
-0.0187234,0.00574965
-0.0361118,0.0259378
-0.0256709,0.0132786
-0.0130429,0.00793614
0.0358748,0.0163792
0.0137175,0.0390308
-0.0606784,0.00174368
-0.0360166,-0.0311614
0.0265125,-0.025145
-0.00383688,0.0207517
0.0517099,0.0171085
0.0753974,0.0176787
-0.0109447,-0.0251876
-0.0856614,-0.0605625
-0.085122,-0.029901
0.032391,0.00655274
0.12016,0.031585
0.0818652,-0.0228843
-0.00766406,-0.0119288
-0.0732577,-0.0309256
-0.0722373,-0.0373812
-0.0460908,0.00286004
0.0159432,0.0496929
-0.00993309,0.0575759
-0.0390895,-0.0262061
-0.0262277,-0.0342821
0.0302239,-0.00125166
-0.00755044,0.0170761
-0.0417643,0.00622686
-0.0236993,0.00140522
0.00178822,0.00471041
0.0328259,-0.0204929
0.0298326,-0.0145841
0.0234731,0.0196008
0.0428339,0.0282905
0.0600108,0.0199299
0.0491795,0.00461867
0.0141992,0.00440431
-0.0134265,-0.00235539
-0.0174335,-0.0202859
-0.0198798,-0.0289901
-0.0184695,-0.00404839
0.00203953,0.0049428
0.0474456,0.00683165
0.0626313,0.0146281
-0.016284,0.0412923
-0.10875,0.0414233
-0.118541,-0.0142971
-0.0620396,-0.0291973
-0.0135972,-0.00291733
0.0308838,0.0113897
0.0904846,0.0378624
0.18281,0.0211636
0.166169,0.00153107
-0.0129195,-0.0112809
-0.132521,-0.0468519
-0.103081,-0.058489
-0.0297017,-0.0110484
0.0624728,0.0453756
0.114329,0.0124909
0.0400298,0.0884552
-0.082631,0.0170746
-0.124609,-0.0556506
-0.102087,-0.0241546
-0.045792,-0.039158
-0.0164438,-0.060974
-0.00527092,-0.0411735
0.0332578,0.0198722
0.056532,0.0622838
0.0308293,0.0242595
-0.0164585,-0.0191399
-0.0723754,-0.00691197
0.00343264,-0.015623
0.0291113,-0.00899649
-0.023119,0.0258201
-0.0471694,0.00373825
-0.0438721,0.0143636
0.00347981,0.0172345
0.0430195,-0.00939748
0.0667457,-0.00947108
0.0685045,-0.00118483
0.0611179,0.000681174
0.0499992,0.00339755
0.0343965,-0.00146933
0.000791318,0.000706415
-0.00328739,0.0092664
-0.00439745,0.0165745
-0.0238678,0.0101259
-0.0339166,-0.00975806
-0.0119875,-0.0237641
-0.00351614,-0.0190195
-0.0179195,-0.00975302
-0.0121235,-0.014491
-0.0263298,-0.00139532
0.0424015,-0.0192321
0.0898365,-0.0299539
0.0566142,0.040497
0.00233936,0.0638013
-0.0228955,0.0292176
-0.122452,0.0420154
-0.18807,-0.0313708
-0.114202,-0.0641643
0.0642426,0.000976411
0.152815,0.0077142
0.105909,-0.0556373
0.0494713,-0.0642384
0.0146596,-0.0105762
0.0114353,0.00921021
-0.044376,-0.0322066
-0.107062,-0.0348375
-0.0733742,0.0293174
-0.00308427,0.0379747
0.0106011,0.0401125
-0.004873,0.0325698
0.0105031,0.101991
0.0148658,-0.0147924
-0.0624786,-0.0264016
-0.0869701,-0.0248885
0.0156467,-0.029309
0.0870883,-0.00370772
0.0362909,0.0301323
-0.00800532,0.0324599
0.0266309,0.0161439
0.0161043,-0.0345801
-0.0242136,-0.031938
-0.0197663,-0.00475348
0.0302552,0.0154005
0.035961,0.0327802
-0.00133924,0.0259569
-0.0156051,0.00196811
-0.0140143,-0.00587803
-0.00741039,0.00315587
-0.00485086,0.01821
0.00738812,-0.0151707
0.0365133,-0.0399918
0.0260074,-0.0135309
-0.00062459,0.0170849
-0.0355915,0.0109909
-0.0690275,-0.00280225
-0.105215,0.00606914
-0.111,0.0313869
-0.0656536,0.0131107
0.0559062,-0.0146991
0.198117,-0.0121364
0.349406,0.020148
0.350615,0.0558726
0.187302,0.0175545
-0.0791459,-0.122109
-0.36177,-0.10195
-0.468658,-0.0249472
-0.33824,0.0329821
-0.0956949,0.0617219
0.255651,0.0260502
0.537614,0.00666076
0.605559,0.0200008
0.403469,0.00419845
0.00271187,-0.0284745
-0.244604,-0.0136064
-0.27525,0.00107984
-0.184971,0.0117445
-0.0870527,0.0245061
-0.164708,0.00686023
-0.224102,-0.0156244
-0.114058,-0.00114351
0.121338,0.00649406
0.272886,0.00243147
0.172206,-0.0118136
-0.0378152,-0.0162501
-0.294865,-0.0287974
-0.445275,-0.0111348
-0.355986,0.0178476
-0.183073,0.0280645
-0.126926,0.0119721
-0.142755,0.00781645
-0.0408778,0.0176223
0.0613118,0.00488123
0.0998558,7.28e-05
0.138618,0.0155334
0.163715,-0.0377491
0.164378,-0.044553
0.138353,-0.0344046
0.0995995,0.00536711
0.0887437,-0.00394379
0.0808979,-0.0575966
0.0426998,-0.0182205
0.0380083,0.0424992
0.0371439,0.0479615
0.00626977,0.0260284
-0.034212,0.00955625
-0.00289215,0.0048372
0.0586041,-0.00230184
0.0400915,-0.00516122
-0.0105417,-0.00318896
-0.0154177,0.00376625
0.0367645,0.0101698
0.104286,0.00411417
0.114048,-0.0114856
0.0348035,-0.0132378
-0.0637396,-0.0190267
-0.100464,-0.0200053
-0.0299359,-0.0100234
0.0605155,0.0274924
0.0631668,0.0351775
-0.0220646,0.00201645
-0.0387221,-0.00979201
-0.0584301,-0.00258909
-0.0774724,-0.00801151
-0.0461196,0.00149015
-0.0551895,0.00923346
-0.0590129,-0.0178302
0.00541254,0.0128803
0.0590056,0.0322361
0.0742519,0.00950395
0.093051,0.030363
0.121681,-0.00888741
0.0502892,-0.0595245
-0.115389,-0.0429597
-0.153705,-0.0220078
-0.0956438,0.0189181
0.00226272,0.0463466
0.0261741,0.00316872
-0.0666267,0.018256
-0.102525,0.0225694
-0.0248528,-0.0145676
0.0457241,-0.0455244
-0.0225774,-0.0213487
-0.0147055,0.013043
0.0234611,0.0261341
0.0215842,0.0211505
0.0158574,-0.00233628
0.03195,-0.0152883
0.0207949,-0.00749797
0.00797714,-0.00231413
0.0175063,-0.0175081
0.0455114,-0.00305174
0.0511698,0.00686362
0.0265711,-0.025391
-0.0303838,-0.000523151
-0.0434601,0.0371978
-0.0069809,0.0293949
0.0253826,0.0151604
0.0675214,0.00416934
0.0734662,0.0183701
0.00692664,-0.0111738
-0.0349533,-0.00523543
-0.0162742,0.0449236
0.00103062,0.0505287
-0.0070544,-0.0328068
-0.0469656,-0.0677728
-0.0613728,-0.0464266
-0.0453158,-0.0279609
-0.0151779,0.00220733
-0.00184085,0.0287688
0.0525142,0.0272252
0.0745209,0.0308045
0.0541594,0.038134
0.0340796,-0.0334712
-0.0021458,-0.0635273
-0.031041,-0.0409122
-0.042353,-0.0128544
-0.0438296,0.0219127
-0.0271016,0.0226781
-0.0208216,0.0201701
-0.02253,-0.0101104
-0.0377512,0.00313105
-0.0279334,0.00867122
0.00784501,0.00852121
0.0145193,-0.00311267
0.00354268,-0.000181381
-0.00247196,-0.00665349
-0.00604306,-0.00980299
0.015888,-0.01194
0.0433009,-0.0146545
0.0270801,-0.0131658
0.0143736,-0.00954344
0.0147069,0.0054974
0.000864615,0.00139156
-0.02409,0.00824389
-0.0453815,0.011876
-0.0250077,-0.0106861
-0.0156282,0.0145112
0.0037441,0.0365015
0.0589862,-0.000382357
0.0946565,-0.0163771
0.158741,0.0310395
0.0546018,0.0213556
-0.154795,-0.0231424
-0.118494,-0.0219753
0.0289805,-0.000873607
0.124552,0.0316255
0.127928,0.00172023
0.0128749,-0.0170764
-0.117497,-0.0443948
-0.152942,-0.0131135
-0.165853,0.0188272
-0.124093,0.0307929
-0.0978856,0.0205543
-0.054212,0.0394054
0.0372774,0.0402466
0.109806,-0.0123673
0.0298767,-0.0214801
-0.0569304,0.0087102
-0.0346581,-0.0205092
0.0446366,-0.0187308
0.0996996,-0.0100923
0.12324,-0.029328
0.110287,-0.0219473
0.0535632,-0.0155312
-0.00832759,-0.00634814
-0.0652936,0.0010127
-0.0743866,0.0111642
-0.0365856,0.00850802
-0.0069444,-0.0153865
0.018923,-0.0151183
0.0447557,0.0172188
0.0507882,0.00666973
0.0740914,-0.00446491
0.0431618,-0.0259577
-0.0421257,0.00519897
-0.0505419,0.00782713
-0.0319705,-0.00372521
-0.0343102,0.0102382
-0.0365333,0.0138872
-0.0150006,0.0329183
0.00139661,-0.0281177
0.00359392,-0.0139768
0.0149124,-0.00648877
0.0210319,0.015755
0.0582568,0.0216906
0.106327,0.0261717
0.0879784,0.0390542
0.0281325,0.0163276
-0.00999949,-0.0133442
-0.0114471,-0.0473379
-0.0857902,-0.0563233
-0.144075,-0.0392282
-0.133414,0.0243287
-0.0836985,0.0351851
-0.0210214,0.0149815
0.0552113,-0.00203053
0.0572191,-0.00460424
0.0536781,-0.0120171
0.056502,9.86e-05
0.0483091,0.0100171
0.0369603,0.0110457
0.0201112,0.00454347
-0.0114929,-0.00512603
-0.0146321,-0.00111941
-0.013138,0.00688837
-0.0151225,-0.00144297
-0.0214649,-0.015983
-0.0359238,-0.0134115
-0.0443268,-0.00268366
-0.0368329,0.000199505
-0.0399542,0.00705841
-0.0180667,0.0203402
-0.00800843,0.0299546
0.0165604,0.0256576
0.048689,0.0565975
0.0705637,-0.0164317
0.0179535,-0.055288
-0.0413724,-0.0123779
-0.0375581,0.0139308
0.0228411,0.0139267
0.0581054,-0.0109811
0.0286466,-0.0134602
0.0337881,0.017921
0.0934662,-0.0212207
0.0382243,-0.0407902
-0.03156,0.0253552
-0.0500515,0.00764896
-0.0717693,-0.0221604
-0.0803342,-0.0283159
-0.0607134,-0.00267272
-0.000125494,0.0220867
0.034391,0.0284046
0.0225397,-0.00344222
0.0381301,-0.00973673
0.0779456,0.00869909
0.0367416,0.00800046
-0.0473273,-0.0192678
-0.0243585,-0.0143586
-0.0291774,-0.00352425
-0.0484652,-0.00760189
-0.0553309,-0.0184134
-0.0504999,-0.0134702
-0.00928984,0.000909272
0.0444863,0.0054014
0.021295,0.003652
-0.00895572,-0.0171919
-0.00589785,-0.0193536
-0.0025539,0.0600218
-0.0174979,0.0734132
-0.00283093,0.0208387
0.110393,0.0127296
0.169337,-0.0299911
0.089474,-0.0298744
-0.00103483,-0.0148064
-0.0918503,-0.00930759
-0.102235,-0.0109237
-0.0332503,-0.0117876
0.0341726,-0.0100635
0.0833238,-0.0342493
0.0523432,-0.0353337
-0.0126645,0.0079298
-0.0524981,0.0169206
-0.0490099,0.0266103
-0.0174108,0.0254533
-0.00881969,0.0217691
-0.0280244,0.0228184
-0.0262542,0.0302574
-0.0499062,-0.00395914
-0.101992,-0.0146318
-0.098302,-0.0142343
-0.00317265,0.0295397
0.0692159,0.0316553
0.0506479,0.0111666
0.0333435,-0.0318896
0.0355311,-0.0582852
0.0246774,-0.0354246
0.00921296,-0.00403899
0.0234256,0.0130289
0.017049,0.0127529
0.0232452,0.0158064
-0.00329192,0.00600064
-0.0101583,0.000910888
0.0428829,0.00629774
0.0510307,0.00866849
0.0294772,-0.0108083
-0.0499516,-0.0071598
-0.0860595,-0.0154181
-0.119359,-0.0126153
-0.0955375,0.00112103
-0.0327698,0.034447
0.0315733,0.0294907
0.0588929,0.0331198
0.133425,0.0223201
0.189381,-0.017324
0.165162,-0.0256183
0.0719355,-0.0288473
-0.0892819,-0.0261234
-0.139529,-0.0298845
-0.0953487,-0.0360752
-0.0956503,-0.0140301
-0.072126,0.00257398
-0.00625413,-0.0246731
0.0305122,-0.0234248
0.0331266,0.0288283
0.0189562,0.0355911
0.00536796,0.0126554
-0.00769466,0.00911576
-0.0252259,0.0403398
-0.00257429,0.0200037
-0.000603963,0.000335111
-0.0279363,0.00884568
-0.0457796,0.0043678
-0.0295442,-0.0216477
0.0126949,0.000257327
0.0507904,-0.0264046
0.0466246,-0.0222894
0.0162125,0.00846146
-0.00834904,0.0125553
0.00989863,0.0146272
0.0197162,0.0452535
-0.00916048,0.0515673
-0.0148248,-0.0288648
0.00966933,-0.0397983
0.0367991,0.0252889
0.0494058,0.0411677
0.0511256,0.0066911
0.0213203,-0.0169501
-0.0185096,-0.00507966
-0.0570626,-0.0124684
-0.0664225,-0.00664546
0.019157,-0.0188245
0.115311,-0.0149117
0.0576627,-0.00311365
0.0892739,0.00456862
0.131966,0.00352419
-0.0687854,-0.0646122
-0.253005,-0.0594243
-0.223825,-0.00242227
-0.116575,-0.00088918
-0.0736717,-0.00681494
-0.0307126,0.00534916
0.0610823,0.00995309
0.111005,0.0170981
0.0853192,0.0247768
0.0486486,0.0229245
0.0339493,-0.0100389
-0.00688596,-0.018777
-0.0265282,-0.00597575
0.00332272,0.000427586
0.00916357,0.00193894
-0.0309671,0.0135636
-0.0614825,0.000446576
-0.0310207,0.00186117
0.000585124,0.0179185
-0.0111436,-0.00699968
0.0176253,-0.00667829
0.0582619,0.0147146
0.0494079,0.0309723
0.0523546,0.023114
0.0186106,0.0140564
0.00259658,-0.018817
0.0124184,-0.00390424
0.0191235,-0.0620496
0.0269288,-0.0132487
0.0561623,0.033861
0.182192,0.0419504
0.229359,0.0394175
0.0269019,0.000567541
-0.201069,-0.0520797
-0.239992,-0.035132
-0.18639,-0.00333184
-0.143155,8.87e-05
-0.104676,0.0153456
-0.0136877,0.0522453
0.112575,0.0569724
0.0887253,0.000326994
-0.0356529,-0.0245032
-0.0605388,-0.00529512
0.023959,0.00240994
0.0629164,-0.0125964
0.0262904,-0.03016
-0.0188508,-0.0208781
-0.0477257,-0.0160943
-0.0331738,-0.00847996
-0.0143058,-0.00317728
0.0256557,-0.00811411
0.0527978,-0.00567651
0.0428044,-0.0097686
0.0483569,0.000778415
0.0940682,0.0391398
0.172382,0.0660962
0.164582,-0.0264639
0.0651926,-0.0427265
-0.0407573,0.0210952
-0.131037,0.017873
-0.198519,-0.0172333
-0.198843,-0.0300197
-0.0624069,-0.00950853
0.0847336,0.00296643
0.0918367,0.00188812
0.0594192,0.00811577
0.182949,0.00316175
0.199146,-0.00369046
0.0372823,-0.00693684
-0.121125,-0.0388854
-0.180116,-0.0312007
-0.0296262,0.0023513
0.0803653,0.0317814
0.0581681,0.0307559
-0.0535687,0.020147
-0.227479,0.00929673
-0.368687,0.00272259
-0.305886,-0.0025272
-0.145631,-0.00107581
0.103176,-0.00147422
0.366198,0.000777839
0.421065,0.00994554
0.302658,0.0108019
0.0712715,-0.00509374
-0.158805,-0.0150195
-0.312559,-0.0134942
-0.290394,-0.0194889
-0.151383,-0.00962878
-0.0466384,0.0100502
0.0333324,0.0179347
0.0713962,0.0233222
0.0653933,0.0156848
0.0427126,0.0050548
0.0382536,-0.00248325
0.0649745,-0.00753115
0.080735,-0.0177762
0.0518829,-0.0189772
-0.0139395,0.0090674
-0.0625601,0.0127505
-0.0470556,-0.00678519
0.00427975,-0.0103848
0.159766,-0.00878484
0.378038,-0.0109295
0.337733,-0.00333478
0.0561181,0.00512023
-0.163803,0.0134177
-0.239276,0.021202
-0.286334,0.0239199
-0.196026,0.0194777
-0.0706958,-0.0185043
0.00679793,-0.017961
0.0721382,0.0146721
0.0527201,0.0214028
0.00565021,0.00645459
-0.0319222,-0.00940358
-0.0588517,-0.000444489
-0.0357869,0.0153202
0.0108261,0.0116277
0.0594178,-0.00236203
0.0898909,-0.0427155
0.111493,-0.036848
0.0772505,-0.0251689
-0.00143452,-5.78e-05
-0.0402281,0.00240948
-0.034299,-0.00216684
-0.0415493,0.0185462
-0.0845963,0.022186
-0.0898317,-0.0067475
0.0164259,-0.00650735
0.11687,-0.0171895
0.063595,-0.0347938
0.0220834,-0.0208128
0.0107919,0.0421137
-0.000642702,0.00716251
-0.00806097,-0.039855
-0.0405072,-0.0304635
-0.0550114,-0.0266975
-0.0297414,-0.0155997
-0.00798413,0.0435946
-0.00931627,0.0444305
0.015698,0.0368299
0.0785173,0.0460763
0.135298,0.0579043
0.166634,0.0205185
0.08109,0.00171821
-0.106585,-0.0252294
-0.239091,-0.0438208
-0.224356,-0.0190705
-0.167849,0.00132968
-0.0717487,0.00609255
0.0346022,0.00607761
0.0468565,-0.0141185
0.024614,-0.0197324
0.0822493,-0.0115096
0.0803572,-0.00221998
0.0596996,0.0143796
0.0743494,0.0324267
0.13783,0.00703804
0.132905,-0.0180877
0.0493345,0.0117318
-0.0377192,-0.0613689
-0.0691067,-0.0150258
-0.0446876,0.0232129
-0.069582,-0.0135596
-0.0995969,0.0149425
-0.088086,0.00868253
-0.0207069,-0.0122533
-0.0340692,-0.00483184
-0.0884319,0.000117445
-0.104649,-0.00522775
-0.0451707,-0.00821827
0.0310488,0.015285
0.133463,0.0115106
0.211892,-0.0107977
0.186603,0.000465659
0.0470631,0.0130953
-0.082746,0.00818788
-0.0638547,-0.000404246
-0.0578887,-0.0147592
-0.0953608,-0.00676835
-0.0981081,-0.0150319
-0.0288416,-0.0166892
0.0828518,-0.000637097
0.142007,0.0219512
0.0840461,0.0163042
-0.0519389,-0.00711641
-0.101679,-0.0134922
-0.0516489,-0.00290826
-0.0175675,0.0125809
0.00943854,0.0104886
0.0385959,0.00189526
0.0413742,0.0137605
0.0401228,0.0314035
0.0376692,0.0157124
0.00111132,-0.0186486
-0.0490736,-0.0149109
-0.0586599,-0.00750218
-0.00103974,0.0209153
0.0970096,0.00903885
0.0669434,-0.0251185
-0.0640949,-0.0474151
-0.130818,0.000289376
-0.104456,0.0546438
-0.0805009,0.0361229
-0.0122912,0.00668799
0.0780215,-0.0168452
0.088582,0.00276331
0.132033,-0.00522532
0.183459,0.0097597
0.17494,-0.0203595
0.0222846,-0.019176
-0.118665,-0.0183304
-0.137654,-0.0329695
-0.109087,0.00746622
-0.1354,-0.0168988
-0.0883982,-0.00234673
0.0262198,0.0478044
0.0801466,0.0301995
0.0903402,-0.00659105
0.0436551,-0.0160635
-0.0165985,-0.00498568
-0.028896,-0.00327248
-0.00480556,0.00373798
0.0056394,0.0157359
0.021103,-0.00518774
-0.00817902,-0.0210436
-0.0674283,-0.0168459
-0.105953,-0.00519555
-0.0859505,-0.00271099
-0.0120682,-0.00226556
0.0584715,0.0027956
0.0669554,0.016346
0.0375275,0.0135335
0.0414684,0.011447
0.0825305,0.00502589
0.0679582,-0.011735
-0.0211356,-0.0159664
-0.0932003,-0.0174168
-0.0752518,-0.00664394
-0.0355545,0.0148953
-0.0070914,0.0231083
0.0159538,0.00891028
0.0306384,-0.00501481
0.0150914,-0.0113778
0.0368729,-0.0146207
0.0271163,-0.00396921
-0.0214503,0.0178097
-0.0148101,0.0179143
0.0125491,0.00408146
0.000269277,0.013276
-0.0111863,0.0177852
-0.0123128,0.00921474
0.00189628,-0.00730597
-0.00974714,-0.000283721
-0.0122202,-0.0191263
-0.00752512,-0.0128493
0.0017322,0.0215444
0.0122869,0.0068192
0.0293945,0.0131486
0.0596885,-0.0260073
0.0264865,-0.0398154
-0.0265578,-0.0200208
-0.0426704,0.00269678
-0.026692,0.0302151
0.0187652,0.0251225
0.0784327,0.0287098
0.0823347,-0.0133317
0.0121958,0.0178441
-0.0172279,0.0231515
-0.0265233,0.00591803
-0.00679365,-0.0190756
0.02181,-0.0799819
0.0177575,-0.0542892
-0.0820786,0.00198351
-0.103979,0.0117275
-0.02089,-0.0099544
0.0137286,-0.00212884
0.00793707,-0.00638067
0.0151226,-0.0037833
0.00964531,0.00589357
-0.0238369,0.0068048
-0.0412626,0.0189373
-0.02223,0.0445374
0.030466,0.0268676
0.0479289,0.010364
0.0350873,-0.025845
-0.0197857,-0.0182627
-0.047479,-0.0149646
-0.0816863,0.000873499
-0.0679473,0.0261737
-0.0265993,0.0654353
0.0242162,-0.0255949
0.0443068,-0.0609199
0.0262017,-0.0225553
0.0133357,-0.0192752
-0.00715012,-0.0322394
-0.030682,-0.023266
0.0159474,0.0307471
0.079995,0.0525854
0.116423,0.0346138
0.11955,0.0093654
0.0917098,-0.00503409
0.0500354,0.00138519
-0.0201285,0.00890423
-0.0711918,-0.00431358
-0.0194598,-0.0134385
-0.00406662,-0.00732648
-0.0517627,-0.0028443
-0.102594,0.00131799
-0.0688471,0.0250541
0.0515764,0.0149936
0.174214,0.00873104
0.168143,0.00705052
0.00878397,0.00855421
-0.144154,-0.0131792
-0.228098,-0.0129118
-0.208353,-0.0112726
-0.112554,-0.0160121
-0.0532931,-0.00826774
-0.0148174,-0.0143523
0.0262643,-0.014433
0.0616717,-0.00666049
0.0705286,0.00159196
0.0522986,0.0131543
0.0373654,-0.00414514
0.0207984,-0.0124068
-0.00441429,-0.00799043
6.82e-05,0.000797367
0.023041,-0.00397946
0.0439059,0.0113419
0.0367399,0.0157796
-0.000994185,0.0209425
-0.0207821,-4.19e-05
-0.00354417,0.00462173
0.00538111,0.0129189
0.0202452,-0.0069195
0.045727,0.00081994
0.0397428,0.0088898
-0.00123993,0.00219836
-0.0110005,0.0104989
-0.00188756,0.00453765
-0.00882445,0.00953805
-0.0108356,0.00781247
-0.0149662,-0.0142612
-0.0180026,-0.0156125
-0.0177286,-0.0111333
-0.00587089,-0.00406237
0.00626677,0.00434626
0.0121926,0.0126853
0.00759233,0.0107369
0.00423809,-0.00243625
-0.00558939,-0.00896449
0.00101195,-0.00634669
0.0033013,-0.0149183
-0.0100134,-0.0152606
-0.0180067,0.0022377
-0.0197915,0.00894702
-0.0153452,-0.0083089
-0.00589894,-0.0119131
0.00687585,-0.00385652
0.033818,-0.00316647
0.0629452,0.00341861
0.085139,0.00803549
0.120148,0.0202984
0.0584242,0.0244986
-0.0824512,0.0110935
-0.14016,7.87e-05
-0.0794274,-0.00704921
0.00227284,-0.0245041
0.0318064,-0.0195425
0.0201158,-0.001772
-0.00603342,0.00145485
-0.0512679,-0.00196642
-0.0453827,0.000429979
-0.0479601,-0.000831838
-0.0548709,0.000135023
-0.0313639,-0.00394962
-0.0342383,-0.00942537
-0.0394676,-0.0139374
-0.0179802,-0.00694595
0.00803725,0.00715678
0.0255994,0.0215187
0.0397906,0.0314228
0.0816843,0.0129568
0.14056,-0.0155995
0.150666,-0.0127668
0.133106,0.0027592
0.136656,-0.00360841
0.0592878,-0.0124229
-0.123962,-0.0256378
-0.217543,-0.0312442
-0.193529,-0.0160835
-0.129096,0.0065998
-0.0556395,0.0137017
-0.00712544,0.0171447
0.0119952,0.0245271
0.0130601,0.0235535
0.0202417,0.0197717
0.0321194,0.0226512
0.0057131,0.0130781
-0.0238002,-0.0055766
-0.0209661,-0.0126188
-0.00409844,-0.0109894
0.00934245,-0.0107714
0.0203013,-0.00544177
0.0287333,0.00310591
0.0375951,0.0143069
0.0396251,0.0126024
0.04039,0.007422
0.0355875,0.0092709
0.0293604,0.00390482
0.0212076,-0.00409136
0.0116233,-0.00499535
0.00546431,-0.00360141
-0.0018651,-0.00317023
-0.00510535,0.00547016
-0.0114148,0.00548633
-0.02126,-0.00808543
-0.0228734,-0.0127448
-0.0191341,-0.0135403
-0.0162263,-0.0173241
-0.0144388,-0.0177238
-0.00811685,-0.0055509
0.000699197,0.00341894
0.00842424,0.00096027
0.0156386,0.00202826
0.0214841,0.00700011
0.0185613,0.00092448
0.00807886,-0.00730863
0.00603021,-0.00506306
-0.00237345,-0.0049366
-0.0140912,0.00308089
-0.0148088,0.0129465
-0.0160497,0.00682754
-0.0158316,-0.00768059
-0.00374159,-0.00343
0.0125954,-0.000931179
0.031392,-0.00282527
0.0139995,-0.0172961
-0.0187635,-0.00860295
-0.0225606,0.00791862
-0.00483704,0.00956855
0.00611124,0.00519727
0.00861503,-0.000300028
-0.00142562,-0.00270931
-0.00431985,-0.00107043
-0.00415064,0.00591324
-0.00725795,0.0094927
-0.0104704,0.0215019
-0.0107936,0.027889
-0.0102538,0.0131394
-0.00827599,-0.00819722
-0.0119139,-0.0103958
-0.0155891,-0.015825
-0.0128099,-0.0152272
-0.00521647,-0.00435023
0.00662472,0.00747247
0.0146484,0.00193577
0.0137973,-0.00754627
0.013275,-0.0104709
0.0134028,-0.0122087
0.00824567,-0.00573156
0.00455256,0.00643771
0.00908229,0.0100037
0.00820195,0.00353116
0.00332302,0.0115427
0.000882614,0.0170608
-0.00473513,0.00417425
-0.00880891,-0.0067822
-0.00436557,-0.0115174
0.00528866,-0.0176579
0.0119276,-0.0176736
0.0175474,-0.00609107
0.0128159,0.00663504
0.00173697,0.00705369
0.00108895,0.0113558
0.0110562,0.0127375
0.0106229,0.00562582
0.0145011,-0.00250815
0.00895218,-0.00254118
-0.0228734,-0.00314143
-0.0523669,0.00247461
-0.046585,0.0107408
-0.00835267,0.0067232
0.0159128,0.00102329
0.0151424,0.00388038
0.00328981,0.00615638
-0.00272213,0.00097671
-0.00432428,0.000284537
-0.0194207,0.0142719
-0.0309269,0.0160524
-0.0209782,0.0048464
-0.0150414,-0.00729285
-0.00884543,-0.0175052
-0.00327492,-0.0243391
-0.00494476,-0.0236246
-0.00773129,-0.017031
-0.00567593,-0.0111548
0.00266153,0.000203898
0.00630905,0.00621651
0.00491463,-0.00223853
0.0015128,-0.0102748
0.00380886,-0.00688147
0.00552148,-0.00751332
0.014583,-0.010732
0.0796745,-0.00299686
0.165258,0.0140605
0.191287,0.0220648
0.175555,0.0194949
0.0654647,0.0159627
-0.0816064,0.0145004
-0.166052,0.0126795
-0.183997,0.0129686
-0.184405,0.0107793
-0.129544,0.00558936
-0.0765835,0.00312998
-0.0328594,-0.00399039
0.00397217,-0.0170161
0.00483058,-0.0238452
0.0111294,-0.0213077
0.00982725,-0.0197518
0.00325,-0.0177973
