Comp Ch 3,Comp Ch 4
-0.0214237,0.0119893
-0.046456,0.0351782
-0.14321,0.0632566
-0.188104,0.0247095
-0.136747,0.00891064
-0.0588806,-0.0043224
0.060473,-0.0771973
0.118633,-0.0588712
0.149034,-0.000281618
0.154883,-0.0401251
0.0619875,-0.00119087
0.0579853,0.0380027
0.168523,0.00374456
0.164689,-0.0515856
0.061242,-0.0918652
-0.0752055,-0.0621483
-0.147988,0.00211308
-0.131389,0.067094
-0.105217,0.15022
-0.0852101,0.101419
-0.137145,0.0491459
-0.122287,-0.0232467
-0.0300239,0.0403333
-0.152157,0.0778374
-0.0198018,-0.0561673
0.137882,-0.123371
0.144179,-0.0523131
0.0699882,-0.0640225
0.0543028,-0.0661215
0.0682959,-0.0424369
0.0570264,-0.0411519
-0.0381587,0.0231017
0.0170461,0.107162
0.116514,0.0654775
0.124444,0.0279152
0.0892284,0.0369735
0.0483459,0.017774
0.0100593,0.010997
-0.0197164,0.00483272
-0.0649929,-0.00737682
-0.0842318,-0.0093305
-0.0766802,-0.0595171
-0.100953,-0.0314165
-0.103882,-0.00528836
-0.0481576,-0.00729496
-0.0431128,-0.0291541
-0.0489631,-0.0259854
-0.0384843,-0.00101058
-0.0316726,-0.00341255
-0.00687759,-0.00971134
0.0360463,0.0104511
0.0687353,0.0439386
0.0735965,0.0291328
0.0996278,0.0161961
0.162106,0.00782085
0.160173,0.011575
0.100992,0.00793497
-0.017527,0.0100425
-0.120653,0.0256116
-0.166201,-0.0349251
-0.24214,-0.0228082
-0.232932,-0.00820867
-0.160349,-0.0105814
-0.0608599,0.00483534
0.0914255,0.0120693
0.237493,0.0354914
0.271311,0.0386953
0.231769,-0.00464424
0.0793937,-0.00861172
-0.103519,0.0176801
-0.181549,-0.00695836
0.0307485,-0.0307951
0.453778,-0.0226616
0.625831,0.0167716
0.449356,0.0790339
0.0931368,0.134936
-0.299577,-0.0550986
-0.682894,-0.199296
-0.876175,-0.0893844
-0.643611,-0.0290403
-0.318786,-0.00498466
-0.110336,0.0174642
0.0191622,0.0127836
0.138106,0.00765409
0.19513,0.0205947
0.199571,0.0145545
0.141629,0.00465598
0.151074,0.0033775
0.125973,-0.00499225
0.0411497,-0.0187272
-0.0115229,-0.029548
-0.0195925,-0.0227835
0.0115442,0.00820833
0.0403266,0.0482215
0.0653353,0.0492437
0.0948793,0.0364448
0.107663,-0.034752
0.10185,-0.0132955
0.0696788,0.0410713
0.0481445,-0.0210531
-0.0105809,-0.00365484
-0.0245757,0.0020562
-0.0149714,-0.0157785
-0.0361354,-0.00649983
-0.053735,-0.00166129
-0.0643353,-0.0258157
-0.0827193,-0.0356439
-0.0924855,-0.0199575
-0.0246853,0.0115297
0.0618344,0.0538885
0.058287,0.0770048
0.0294163,0.0383722
0.0233592,0.00158716
0.0393757,0.00170259
0.0180355,-0.0456029
-0.0108334,-0.00181586
0.025489,0.0131012
0.0493396,-0.000414188
-0.000236667,-0.0244845
-0.0777741,-0.00891596
-0.0932611,0.0312419
-0.0540168,0.00216276
-0.0322147,-0.0642676
-0.038678,-0.0241664
-0.0259509,-0.000783099
0.0147255,-0.0206416
0.0591489,-0.00404924
0.0587082,0.0271315
0.0166109,0.0152386
0.0208423,-0.00302043
0.0294086,0.019363
0.0281225,0.0364596
0.0304499,-0.0210655
0.00758216,-0.00446796
-0.0191438,0.0155385
-0.00621937,-0.00600801
-0.0278833,-0.000805816
-0.0673243,-0.0136004
-0.0722043,-0.0182603
-0.0665957,-0.0168085
-0.00914531,-0.0177466
0.0352449,-0.0102416
0.0447874,-0.00281764
0.0376422,0.0281954
0.023329,0.0494186
0.00873887,0.0288486
0.0171356,-0.00745379
0.0367239,-0.0213494
0.0316923,-0.00596494
0.00812227,0.00623642
-0.0210184,0.033052
-0.0336154,0.0378671
-0.0175316,-0.000707644
-0.0110392,-0.0143399
-0.0429331,-0.017453
-0.0539555,-0.0288962
-0.032011,-0.0311908
0.000265177,-0.0192083
0.0234176,-0.0169125
0.077376,-0.0200795
0.0567644,0.0194491
0.0189096,0.0437773
0.0142131,0.0115737
-0.00160697,0.00829407
-0.00781988,0.0412987
0.0029059,0.0356296
0.0324176,-0.01357
0.0413722,-0.0462867
0.00701794,0.00820015
-0.0343078,0.0221497
-0.0706221,-0.00674723
-0.0944699,-0.00656382
-0.0878008,-0.0348495
-0.0402753,-0.0457539
-0.0033306,-0.037385
0.0184904,-0.023466
0.0517998,0.0308504
0.070169,0.0343786
0.0347192,-0.013686
-0.00425631,0.0239068
-0.0056606,0.0482894
-0.0765045,0.00873204
-0.0900403,0.0557361
-0.0536722,0.0537155
-0.0237747,0.00138699
0.0730119,-0.0617677
0.148743,-0.042652
0.139561,-0.0219072
0.0352386,-0.0689366
-0.048065,-0.0396969
-0.0821058,0.00514231
-0.047745,0.0216577
-0.0220928,0.0180393
-0.00975904,0.0176557
0.0112639,0.0150865
0.0346274,0.0264146
0.0199404,0.0444316
-0.00559285,0.00678579
0.00942638,-0.0236894
0.0285707,-0.0473056
0.0358967,-0.0234744
0.00270366,0.0220117
-0.0149696,0.016647
-0.0118911,0.00405355
-0.00448375,-0.00494788
-0.0154737,-0.00652301
-0.0275261,0.00853216
0.00466288,0.0168712
0.0165819,-0.00486779
0.0261084,-0.00334624
0.0127474,-0.00675924
-0.0064787,-0.0112173
-0.00135843,-0.0119265
0.0169176,-0.00349795
0.0351454,-0.0340515
0.0328093,-0.0232346
-0.0191327,-0.0274126
-0.0580193,0.0146559
-0.0665137,0.0483702
-0.0290272,-0.00622257
-0.00650889,0.0289
-0.00143488,0.0294335
0.00988909,-0.0245622
-0.00251078,-0.0286476
-0.0223406,-0.00849156
-0.0309694,0.00596477
-0.00226605,0.0290109
0.0555229,0.0274461
0.0515952,-0.0011834
0.00812034,0.0134179
-0.0122505,0.0547615
0.00598372,-0.00867676
0.0293414,-0.0803891
0.0347347,-0.0346518
0.00359886,0.00740313
-0.00292953,0.00719676
-0.0271264,-0.00227378
-0.0259243,0.00209628
-0.00523639,-1.28e-06
-0.0130369,-0.0064503
-0.0263701,-0.0106416
-0.0221483,-0.00395285
-0.0139862,0.00469098
-0.00967825,0.0189608
-0.00751781,0.0237487
0.00130394,0.00769685
0.0048407,-0.00539279
0.0205172,-0.00729136
0.0264372,-0.00952413
0.0225972,-0.0157645
-0.00165672,-0.000322423
-0.0410453,0.026028
-0.0536586,0.0291368
0.00993848,0.012879
0.043552,0.00201452
0.0340073,-0.00103218
0.0391914,-0.00353736
0.0544449,-0.00138989
0.0143455,0.00851817
-0.0366967,-0.00285293
-0.00492984,-0.00878372
-0.000349434,0.00983023
-0.00568187,0.010368
-0.0179158,-0.0117069
-0.0122516,-0.0255168
0.00594975,-0.0334442
0.0118581,-0.0270816
-0.00196721,-0.0120358
-0.0199765,-0.00653246
-0.0230637,0.00461615
-0.0138859,0.0253649
0.00986474,0.0278355
0.020066,0.0122275
0.00311053,0.00240072
-0.000520046,0.0149454
-0.00394056,0.0357891
-0.0129524,0.130456
-0.00151942,0.0556339
0.0178291,-0.031656
0.0165343,-0.111885
0.0286495,-0.0554821
0.0169612,-0.0295647
-0.0262348,-0.0358931
-0.0519407,-0.0402212
-0.0790548,0.0239125
-0.0585776,0.0528689
-0.000830159,-0.0283905
0.0115894,-0.0263399
0.0239143,-0.00246127
0.0487721,0.000193898
0.0376652,-0.0162663
0.00362202,-0.0255906
-0.0291518,-0.00189072
-0.0510405,-0.00602872
-0.00579391,-0.00168125
0.0599983,-0.0165311
0.0429771,-0.00906884
0.0295938,-0.0040909
0.0228898,-0.0023878
0.01847,-0.00477266
0.0262049,0.00145802
0.0198757,0.0604929
0.00473492,0.0708112
-0.00629305,0.0240937
-0.026148,0.00178912
-0.0343852,-0.00659574
-0.0413745,-0.0130915
-0.0547215,0.0233218
-0.0431505,-0.014723
-0.0195925,-0.0217693
0.00716158,0.0394563
0.00574327,0.123969
0.0026868,0.0980423
0.012342,-0.0635674
0.016185,-0.12938
0.0212408,-0.0691372
0.0158109,-0.0275623
0.00262104,0.00393216
0.000568213,0.0251959
0.0124237,0.0195187
0.0258895,0.0120349
0.00636504,0.027103
0.00255662,-0.0224876
0.00304153,-0.0132037
0.00259226,-0.0128729
-0.00838291,-0.0234909
-0.0119893,-0.00104381
-0.00326372,0.0138494
-0.0262864,0.00483884
-0.0211186,0.000475654
0.0137453,-0.00950232
-0.00116507,-0.00869748
-0.0345078,-0.000948514
-0.0340637,-0.0147092
-0.0311665,-0.00516007
-0.0214883,0.0283732
0.0172505,0.000471912
0.0483211,-0.00384525
0.0599256,-0.00734064
0.0447095,-0.0175466
0.0159724,-0.0112843
-0.0041535,0.0084532
0.00613756,-0.00156626
0.0185376,-0.000765863
0.00971168,0.0116732
0.00240315,0.00486563
-0.00362863,-0.0263
0.0170613,-0.0152029
0.0135248,0.00404575
-0.0112122,-0.0151229
-0.0255883,0.00480862
-0.0586132,0.0352577
-0.0688918,0.0266136
-0.0517639,0.0206483
0.0230047,2.53e-05
0.0550284,-0.0155553
0.0138179,-0.0143731
0.00313908,0.00552688
0.0437481,-0.0160951
0.0355774,-0.00181784
-0.0193415,0.0318431
0.000945361,0.0499406
0.00137461,0.0200836
-0.00522886,-0.036181
-0.00569244,-0.0462787
-0.0202772,-0.0300415
-0.0287033,-0.0205758
0.00749587,0.0270283
0.0413493,0.0648585
0.0272537,0.0367226
0.00708388,0.0150401
-0.0177268,0.0315858
-0.030654,-0.0296371
-0.0254298,-0.0760808
-0.0213036,-0.0432375
-0.030133,-0.0180458
-0.0350122,0.00479818
-0.0187808,0.00873639
0.0230726,0.0040118
0.0276037,-0.00552372
0.00715741,0.00298893
-0.00375875,0.0110558
0.0282902,-0.00730339
0.0217285,-0.01783
0.0163049,0.0041286
0.0181899,0.0295871
0.0121571,0.0255465
-0.00051685,0.0205844
-0.00142777,0.0337503
-0.0106862,-0.037558
-0.0332683,-0.040242
-0.0324656,0.00686869
-0.00608176,-0.00265289
0.00821057,-0.00386096
0.0251269,0.00783453
0.0214821,0.00452411
-0.0102469,0.0157735
-0.0169295,0.0694686
-0.00789091,0.0837756
0.0164438,-0.0474322
0.0157409,-0.0775442
0.0171815,-0.0338829
0.0221247,-0.0330238
0.0119748,-0.0100307
-0.000639714,0.00250202
-0.00601861,-0.0314026
-0.000142786,-0.0351778
0.00247145,0.0177585
0.0038316,0.0401555
0.000735156,0.0404479
-0.000828028,0.0522985
0.00809895,0.0238548
0.0165428,-0.0177591
0.0092465,-0.0482781
-0.0156946,-0.0236178
-0.0333827,0.020656
-0.0223249,-0.0138734
-0.0128963,-0.0288852
-0.0138143,0.0186193
-0.015803,0.00302939
-0.0143059,-0.0282142
-0.00878841,-0.0280835
-0.00161356,0.0220305
0.00223543,0.018911
0.0067592,0.00389076
0.0167034,-0.0197496
0.023021,-0.0231952
0.0265786,0.0143825
0.01765,0.0522615
0.00925368,0.00392104
0.00430105,-0.0192882
-0.00531214,-0.02239
-0.0472931,-0.00163616
-0.0809558,0.00768041
-0.0669623,0.013377
-0.0483294,0.037593
0.0118547,0.0482131
0.0513495,0.0358188
0.029487,0.00886878
0.00172096,-0.00229312
-0.011978,-0.0119477
0.00333776,-0.0171923
0.0294689,-0.0195089
0.0552695,-0.00662096
0.0421632,0.0140487
0.0323901,0.00844008
0.00568765,0.00654941
-0.0131629,-0.0215278
-0.0115327,-0.0257448
-0.0107139,-0.0306618
-0.0125934,-0.025252
-0.0129435,0.00316247
0.0169989,0.0196639
0.0336853,-0.00679417
0.0209769,-0.0255533
-0.00542643,0.0082349
-0.0204679,0.00733185
-0.0199056,-0.00907455
-0.0209895,0.0489951
-0.0176703,0.00140735
-0.00470109,-0.00390516
0.00558519,0.00386721
-0.00244129,0.0129255
-0.0108333,0.025103
-0.00782265,0.0220772
-0.0053306,-0.0233345
-0.00231974,-0.0494927
0.00457149,-0.012757
0.0162339,0.0208264
0.0295422,-0.0151114
0.0250875,-0.0229658
0.00276589,-0.0175139
-0.00489723,-0.0174893
0.00776307,-0.0460915
0.0175949,-0.0468069
-0.01608,0.0426723
-0.0398159,0.0700211
-0.0273014,0.0334842
-0.00251215,0.017726
0.00704177,0.0213194
-0.00696205,0.00182703
-0.0215386,0.00997564
-0.0111766,-0.00563596
0.0174716,-0.0073316
0.0349935,-0.00668661
0.030165,0.00513517
0.00754106,0.00474512
-0.00906208,-0.00140187
-0.0157326,-0.0036027
-0.0167364,-0.0284471
-0.0133839,-0.0429902
-0.0022777,0.0329216
0.00951782,0.0977149
0.0157201,0.06477
0.0480329,-0.0789996
0.0174173,-0.138303
-0.0282499,-0.0406739
-0.0383484,-0.0036062
-0.0432395,0.0307804
-0.0399747,0.0386742
-0.00328187,0.0121653
0.0515844,0.0108383
0.0712418,0.0229556
0.0330404,0.0273719
0.00857935,0.0108766
-0.0238429,-0.0353865
-0.0422376,-0.0330399
-0.0442302,-0.0358517
-0.0176691,-0.0114708
0.0112313,-0.00517255
0.0232855,0.0127516
0.0216799,0.0289769
0.0242939,0.0186964
0.00635118,0.000873343
-0.0158244,0.00118584
-0.020297,0.0242843
-0.00894995,0.0504435
-0.00939831,0.0212739
-0.00805546,-0.0336687
0.0101082,-0.0271376
0.0169906,-0.059667
-0.00380891,-0.0569171
-0.0179442,-0.0239857
-0.0123517,-0.00156699
0.00576346,0.0307454
0.00437741,0.0228724
0.0155935,-0.00921661
0.0338638,0.0229428
0.0283323,0.0559682
0.0269213,0.0287251
0.018671,-0.0206983
0.00963881,0.0200846
0.0140782,0.0016762
0.00347453,-0.0305727
-0.0166118,0.0138931
-0.0116103,0.0204485
-0.0220818,-0.00929601
-0.0486811,-0.00956309
-0.0376476,-0.0531379
-0.0163056,-0.00774192
-0.0130931,-0.00977642
-0.00133753,-0.0501338
0.0158029,0.00130405
0.0302545,0.00612611
0.0360104,0.0169611
0.0359927,0.0399542
0.0242939,0.00285036
-0.0240432,-0.00494796
-0.0306642,0.00877857
-0.0415416,-0.00990563
-0.0656623,0.00111537
-0.0318401,0.00910692
0.00791798,0.013323
0.00454788,0.00597777
0.0196324,0.011021
0.040787,0.0108861
0.0312446,0.00353788
0.0162634,-0.00840436
0.00671639,-0.0548792
-0.0049949,-0.020818
-0.028581,0.0527156
-0.0314662,0.0495045
-0.0277263,0.0103173
-0.0053325,0.0030373
0.0337413,-0.0320943
0.0620584,-0.0249769
0.0261431,-0.0121495
-0.0137951,-0.0212653
-0.0163372,0.00504108
-0.0112406,-0.00412748
0.00414377,-0.0181213
-0.00250247,-0.0113022
-0.0249072,0.00280233
-0.0283145,-0.00346921
-0.0337254,0.0102038
0.0114315,0.0216944
0.043746,0.0425282
0.0138402,0.0599955
-0.0195154,0.0663663
-0.0329136,0.0137577
-0.0428814,0.0154029
-0.0300262,0.0179301
-0.0389179,0.00815525
0.0325019,-0.0700493
0.0842661,-0.0606193
0.017531,-0.0117157
-0.022299,-0.00547725
0.0208873,-0.00927886
0.0458893,-0.00942305
0.0337859,-0.00730127
0.021631,-0.00254891
0.0139781,0.0010088
-0.0163242,0.000121392
-0.0233127,0.00471324
0.0301687,0.0235475
0.0563783,0.0240464
0.0211065,0.00195159
-0.0254189,-0.0060894
-0.0516759,-0.0209933
-0.0573963,-0.0248246
-0.0226259,-0.0230485
-0.0095432,-0.000448186
-0.0259043,0.0169273
-0.0292653,0.0221832
-0.0151907,0.00384198
-0.00585677,-0.0361241
-0.000478694,-0.0247753
0.00834788,0.00909683
0.0119137,-0.0085636
0.00865816,-0.0366055
0.00208659,-0.0189054
-0.00351586,0.0255318
0.00233241,0.0232433
0.0219345,-0.0231884
0.0372034,-0.0172725
0.0387525,0.00306741
0.0319088,0.0267381
0.000280914,0.0377423
-0.0113206,0.0225284
-0.00912892,-0.00696426
0.00518639,0.0277778
0.0214623,0.0176928
-0.0193627,-0.0366041
-0.0493442,-0.0359276
-0.0390165,0.00782127
-0.0268916,-0.00103429
-0.0311642,-0.00844169
-0.0299764,0.0214364
-0.00848396,0.00316364
0.00965761,-0.00463671
0.00630854,0.0333985
0.0327155,0.050577
0.0694599,0.0671823
0.0622392,-0.0424012
0.0155834,-0.105473
-0.0730886,-0.0230685
-0.0834082,-0.00784677
-0.031351,-0.00842487
-0.0017581,-0.000204616
0.00230298,0.00235027
0.0594709,-0.000914252
0.113922,0.0038963
0.119876,0.00519949
0.139373,0.0136818
0.0233273,0.0288877
-0.105553,-0.00423303
-0.16373,-0.0062053
-0.137914,-0.0123817
-0.0720998,0.0211346
-0.0462896,-0.0552277
-0.0504936,-0.0620075
-0.0153707,-0.0248905
0.0519015,0.0229211
0.0832506,0.0259158
0.129587,0.00425713
0.14854,0.00761935
0.0964042,0.0147019
0.14417,-0.00240744
0.329656,-0.00987194
0.267895,0.0130857
0.0809231,0.061144
-0.0705865,0.0672581
-0.269809,-0.0213252
-0.435743,-0.0505398
-0.415531,-0.0153839
-0.22541,-0.0121234
-0.11481,-0.00796088
-0.0495335,0.0583337
0.0215116,0.0407942
0.0338555,-0.014465
0.0164493,-0.0204543
-0.00965565,0.00802016
-0.0275539,-0.040827
-0.0144111,-0.0482448
0.0198128,0.00103291
0.0450114,0.0206234
0.0533941,0.0513133
0.0534014,0.0385438
0.0377353,0.0136964
0.0869146,-0.0898464
0.11343,-0.0646804
0.094952,-0.0201883
0.0581681,-0.00431435
0.0385632,0.030911
0.0155887,0.079271
0.00762882,0.0402818
-0.0144639,0.0346342
-0.0247409,0.0871478
-0.0273024,-0.0349484
0.0119231,-0.0763413
0.0490356,-0.0270416
-0.0479563,-0.042341
-0.129914,-0.0509647
-0.125199,-0.0241501
-0.0508129,-0.00570376
0.0543975,-0.00183357
0.103567,0.0469847
0.0845077,0.0459846
0.0407336,-0.0615113
0.0364262,-0.037286
0.0541613,0.0216263
0.0455757,0.0579188
0.0499584,0.0426617
0.0403139,0.0129686
-0.0269812,0.018504
-0.0615551,0.00786348
-0.0688242,0.0128916
-0.132765,-0.0389321
-0.132803,-0.0612071
-0.0627971,-0.0281673
0.0340019,0.00987372
0.106349,0.0245701
0.122935,-0.00433048
0.0731193,-0.0154847
0.0356353,-0.00893756
0.00759636,-0.0128636
-0.0452587,0.0058664
-0.0696659,0.0410131
-0.0970505,0.0493771
-0.0821657,0.03586
0.0281343,0.018149
0.0806063,0.0097767
0.0405735,0.00550507
-0.0219576,-0.0528603
-0.0794701,-0.0503904
-0.0793364,-0.0351525
-0.0372453,-0.010339
0.016171,0.0189531
0.075345,0.0327665
0.10769,0.0109497
0.0855697,-0.0212429
0.032175,0.00182557
-0.0132783,0.00293858
-0.0477575,-0.00759959
-0.0984953,0.0501753
-0.0747647,0.0284989
-0.065007,-0.0275597
-0.0969598,-0.0629888
-0.0581202,-0.0262821
-0.012706,0.00642945
0.0526098,0.0498722
0.169738,0.0643178
0.261012,0.0510905
0.256976,-0.0192363
0.179557,-0.0537599
-0.0868577,-0.0625746
-0.203124,0.00595874
-0.114175,0.037562
-0.0991512,-0.112049
-0.155372,-0.0281467
-0.101321,0.0264834
-0.0625497,0.0366109
-0.0426453,0.00515748
-0.0324337,0.0203975
0.007394,-0.00437328
0.0198111,-0.0253643
-0.0694563,0.0310449
-0.113781,-0.00182013
-0.0470918,-0.0553732
0.0925554,-0.00383965
0.240802,0.0575452
0.380419,0.0532595
0.444061,-0.0171698
0.249386,-0.00544569
-0.0950291,0.0285164
-0.272703,-0.0224562
-0.230826,-0.0514054
-0.196705,-0.0152232
-0.0874376,0.0468161
0.0325251,0.0398837
0.0370167,0.0117967
-1.18e-05,0.00393315
0.0174435,0.0220569
0.0584027,-0.0731147
0.0424002,-0.0592216
0.0545849,-0.0172882
0.0837391,-0.000428943
-0.0199117,0.0215568
-0.11897,0.0364735
-0.20832,0.0195896
-0.175509,0.0170092
-0.0306961,0.00776705
0.0565606,-0.00849613
0.0264942,-0.0294893
0.00855563,-0.0107581
0.00928675,0.0302983
0.023006,-0.00401452
-0.0286396,-0.00467887
-0.139037,-0.0138688
-0.0809856,-0.0326521
-0.00810191,-0.0318676
-0.0625807,0.0681844
-0.0866873,0.0569326
-0.0250897,-0.0861382
0.000637421,-0.00530022
0.0619563,-0.0316524
0.102948,-0.0328203
0.0988973,0.00765298
0.168775,0.034162
0.319788,0.0279447
0.340193,0.0805931
0.309555,0.097953
0.160319,0.0261685
-0.108178,3.9e-05
-0.321194,0.0140638
-0.313709,-0.0813607
-0.204489,-0.0890137
-0.193128,-0.0418324
-0.104061,-0.00895779
-0.0194188,-0.0193719
-0.0161635,0.000188837
-0.0183656,0.0213004
-0.0786221,0.0178444
-0.0718478,0.0528089
-0.00917369,0.0396863
0.0710041,-0.0694406
0.0642503,-0.066999
0.0402493,-0.0295422
0.0795734,0.00456078
0.0745769,0.01041
0.0612666,-0.0030777
0.104331,-0.0159554
0.0118756,0.00525188
-0.0296228,-0.00811015
-0.0553089,0.0220648
-0.0417921,0.124683
0.033745,0.132846
0.0268259,-0.0728623
-0.0934172,-0.0415779
-0.151561,0.00403596
0.0124231,-0.0761512
0.199518,-0.0374141
0.209869,0.0110934
0.165705,0.0107846
0.0254494,0.0353348
-0.214167,0.0304411
-0.231795,-0.025123
-0.134396,-0.00930129
-0.0227851,0.00806845
0.113169,0.00658616
0.24306,-0.0198538
0.38843,0.00654952
0.387225,0.00411018
0.268807,0.0299095
-0.0404415,-0.00775145
-0.327334,-0.0438842
-0.411261,-0.0575746
-0.410301,-0.019969
-0.245266,-0.00569127
-0.0962106,0.00217726
-0.0318071,0.00625848
-0.0554354,0.0329616
0.0101791,0.0157303
0.0274708,0.00239031
-0.0261593,-0.0142151
-0.00863373,0.0123973
0.0486974,0.0147098
0.0352767,0.00169046
0.0327347,0.0133183
-0.0396149,-0.0224745
-0.169208,-0.0169306
-0.0921312,-0.0119311
0.104378,0.00529527
0.222407,-0.00364899
0.188162,0.000274756
0.129757,0.0326013
0.178123,0.0526183
0.254232,0.121695
0.209111,0.0799232
0.0791969,-0.0384061
-0.104007,-0.0790035
-0.303291,-0.0640187
-0.380093,0.000503581
-0.200544,0.011002
0.0240202,0.00365327
0.128186,0.00468455
0.0983825,-0.0829933
-0.0849469,-0.0373148
-0.109137,0.00197676
-0.024465,-0.0090993
-0.0376431,0.0269931
-0.114325,0.0178512
-0.101984,-0.056624
0.0186057,-0.0432187
0.0640795,0.0160094
0.0810021,0.0223581
0.0681421,0.0291583
0.114372,-0.0484046
0.154844,0.0619633
0.202508,0.0308268
0.200071,-0.0220174
0.0488519,-0.0273767
-0.150963,-0.0275956
-0.294988,0.00712452
-0.308983,0.0145485
-0.154831,0.0169178
0.112876,0.0611082
0.467582,0.103272
0.449679,0.100518
0.340279,-0.0536031
0.0129985,-0.0558045
-0.483107,0.0513494
-0.625236,0.0260421
-0.49122,-0.157752
-0.138192,-0.0987892
0.304058,-0.0220741
0.51791,-0.00469742
0.366058,0.0313359
0.0437783,0.0297717
-0.24267,0.0134734
-0.357508,-0.00204283
-0.183571,-0.0154349
0.0956213,-0.0297328
0.172252,0.00227655
0.114887,-0.00196429
0.0255216,-0.00278433
-0.138355,-0.0262109
-0.235455,-0.0562065
-0.044468,0.0455309
0.103347,0.0436298
0.0922416,-0.0503675
0.144184,0.0169084
0.118797,0.0651388
0.0158597,0.0382307
-0.09105,0.074164
-0.126991,-0.0539806
0.0421408,-0.021397
0.0867675,0.0721536
-0.00218592,-0.0174372
-0.0837312,-0.0724404
-0.10001,0.0090467
0.0152288,0.0476987
0.136466,0.0200435
0.121376,0.055128
0.0220453,0.0819798
-0.0376151,-0.0947933
-0.0022863,-0.137557
-0.0390242,-0.0374162
-0.0526139,0.000829614
0.00312998,-0.00917521
-0.00853009,-0.034357
-0.00410655,-0.0609393
0.00663029,-0.0392436
-0.0672102,0.0436135
-0.0940135,0.0631326
-0.0381169,0.00781066
0.0291255,-0.0272579
0.0901647,-0.00945312
0.0104386,0.0139079
-0.0382566,0.0537996
0.0256213,0.135557
0.175411,0.123329
0.231388,0.0423215
0.118913,-0.0699287
-0.0246082,-0.0860294
-0.0579582,-0.0474814
-0.00223057,0.011591
-0.00850535,0.034804
-0.0943221,0.0160772
-0.180317,-0.0229546
-0.154576,-0.0215561
-0.0300028,-0.0089333
0.0150606,-0.0458322
-0.0457406,-0.0397786
-0.135425,-0.0154459
-0.109816,-0.0125156
-0.0125705,-0.0540557
0.017406,-0.0262661
0.0515293,0.0519802
0.0904245,0.0128994
0.0631471,-0.00107396
0.0268769,0.0409266
-0.0292472,0.0543092
-0.0829161,0.00701683
-0.081097,0.0141292
-0.031796,-0.010501
-0.0009028,-0.00783207
-0.021959,-0.00309871
0.0862197,0.0248576
0.15659,-0.00800617
0.149746,-0.0448087
0.105465,-0.000602288
0.0193921,0.0361908
-0.0639711,-0.0889873
-0.0378618,-0.0278988
0.0574839,-0.00864978
0.0874802,-0.014845
0.0277696,0.0311316
0.0624475,0.0202661
0.120578,0.00801528
0.106432,0.0216647
-0.0311245,0.00511478
-0.162657,0.0282404
-0.163479,0.0816226
-0.158622,0.0400366
-0.155609,-0.00649983
-0.0833516,-0.0272207
0.0338755,-0.0143691
0.0695186,-0.0149911
0.0740715,-0.024192
0.156638,-0.0370623
0.0202035,0.0120883
-0.0935117,0.0619355
-0.0460354,0.0711655
-0.0398489,-0.0510757
-0.00119534,-0.119137
-0.0642616,0.0463243
-0.0799507,0.00372588
-0.00920484,-0.0194681
0.0497844,-0.0138712
0.0639001,-0.0360928
0.0229956,0.0571981
0.00807884,0.0595178
0.0286232,0.066456
-0.0235065,0.0506108
0.0231666,-0.0451376
0.150751,-0.0913913
0.0715608,-0.0375973
-0.031474,-0.00968025
-0.0793821,-0.0554685
-0.119403,0.0222333
-0.0699625,0.139691
0.0981646,-0.0594748
0.0838683,-0.109439
0.00127755,-0.036466
0.0172021,0.00496354
0.0240114,0.0244082
-0.0264484,0.0358137
-0.0488899,0.0221708
-0.0283079,-0.0010792
0.00765183,-0.000885758
0.0103346,0.0251093
-0.0103332,-0.00133059
-0.024173,-0.031365
-0.0453172,-0.0113338
0.00844857,0.0293626
0.0899999,0.0454313
0.108444,0.00392979
-0.0275522,-0.00769457
-0.0911819,-0.0311282
-0.0166572,-0.0399263
0.0259346,-0.0228784
-0.007595,0.00301394
-0.0125223,7.17e-05
0.00655488,-0.0382918
0.0088125,-5.54e-05
0.018128,0.00347928
0.0129895,-0.0408996
0.00354119,-0.0200887
-0.0115463,0.0125456
-0.0416614,0.0384821
-0.0495692,0.0906469
-0.0094364,0.123357
0.0189036,-0.0465689
0.015251,-0.102458
0.00255139,-0.072413
-0.00745405,0.0367945
0.0191737,0.0536004
0.0760776,0.000930528
0.0649145,0.0181867
0.0101825,0.0597571
-0.0652533,0.0426692
-0.0971914,-0.0580821
-0.122177,-0.0628441
-0.0869862,0.0209675
-0.0246816,0.0562079
0.0610699,0.00290829
0.0409883,-0.0417271
0.0106423,-0.025558
0.00900176,-0.00721385
0.0120725,0.00529331
0.0489153,0.00924669
0.053428,0.000542941
0.009136,-0.0127581
0.0216812,-0.00179864
0.090078,0.013368
0.127047,0.0114252
0.116802,0.0294588
0.0270593,-0.0155998
-0.11982,-0.0583173
-0.189916,0.0101534
-0.180649,0.0202532
-0.0974129,0.0107147
0.0443627,-0.00359041
0.131615,-0.0176473
0.130181,0.0147758
0.044983,0.0491656
-0.0329306,-0.0595252
-0.039514,-0.0595021
-0.0301995,0.00222823
-0.0113589,-0.00202089
0.0491419,-0.0059253
0.0704958,0.00724094
-0.0375711,0.046725
-0.15595,0.0705771
-0.108175,0.0586284
-0.0157554,-0.0540371
0.071495,-0.0377328
0.10827,-0.0524036
0.0558943,-0.0351753
0.00643751,-0.0130412
-0.0361842,0.0199093
-0.0463306,0.0325254
-0.0167658,-0.00978148
-0.0251618,0.010227
-0.0583808,0.0422776
-0.028865,-0.0113676
-0.0125741,-0.033275
-0.0620467,0.0176639
-0.0628452,0.0543344
0.0414077,0.056499
0.0507537,-0.0184407
0.0398984,-0.0546807
0.0904502,-0.0270759
0.101527,-0.00596041
0.0914788,-0.0150734
0.0185235,-0.0201578
-0.0308676,-0.0165435
-0.0233749,0.0142325
-0.0371766,0.0144519
-0.054007,-0.0125939
-0.040699,0.0330418
-0.0503729,0.038735
-0.0354391,0.0528402
0.000248003,-0.00542641
0.031203,-0.0312454
0.0202948,-0.0108414
0.00520502,0.0151188
0.021523,-0.019661
0.0622925,-0.024574
0.0334265,0.0271791
0.0204374,0.00496675
0.0200449,-0.0540087
0.0180664,-0.0393813
0.00621481,-0.0144314
-0.00427756,-0.0366436
-0.0231276,-0.00433262
-0.031821,0.0392129
0.000882377,0.00231114
0.0134668,-0.0182857
-0.0106834,-0.0233416
-0.0210971,0.0192862
-0.0157285,0.0421079
-0.0180225,-0.0160985
-0.0361581,-0.0371932
-0.0424079,-0.00312291
0.0327256,0.00417353
0.0909168,-0.0237665
0.0955903,0.00138554
0.0317108,0.016887
0.041865,0.0260377
0.0367737,0.0499302
-0.0369756,0.0440295
-0.0874489,0.0260679
-0.114857,0.0182273
-0.129124,0.0398898
-0.162241,0.0279424
-0.128902,-0.0464939
-0.0484975,-0.0307889
0.0605007,0.0732415
0.129432,0.183746
0.132116,0.13255
0.0520886,-0.141117
-0.0467518,-0.151732
-0.0434067,-0.0387249
0.0109371,-0.0280862
0.00526578,-0.0229761
0.00643951,-0.0382021
0.0560972,-0.00677805
0.0293505,-0.0241034
-0.0155622,-0.0162063
-0.00815579,-0.0299073
0.0238027,-0.044666
0.0600635,-0.00359832
0.0390035,0.0533501
0.00344799,0.0331711
0.00721507,0.0122971
0.0279187,-0.0126941
0.0629435,-0.00134356
0.0444887,-0.0185096
0.00450599,0.00263307
-0.0106167,-0.00856793
0.033082,-0.0345401
0.059234,-0.0352801
-0.0246176,-0.0249294
-0.0975587,-0.00229856
-0.0660942,0.0147893
0.00837142,0.0199324
0.0819959,0.00400147
0.018365,-0.0252964
-0.0359793,-0.0499729
-0.0409455,-0.0141476
-0.0928005,0.0311936
-0.14272,0.0352488
-0.145649,0.0589674
-0.107132,0.0695232
-0.0574091,0.0380769
0.0103902,0.0291916
0.109246,0.024139
0.163725,0.0168471
0.122612,0.00500823
0.0523957,-0.00824009
-0.00729001,0.0273188
-0.0363007,0.0169782
-0.0202497,-0.0353907
0.022895,-0.0580206
0.0296599,-0.0513653
0.0261639,-0.0468402
0.0185765,-0.0200223
0.016076,0.00764691
-0.0015616,0.0372982
-0.0100894,0.0280096
-0.00616536,0.0384859
0.0110553,0.075118
0.00649907,0.0449747
-0.0150428,-0.0255396
-0.0356832,-0.0471604
-0.0365045,0.00225402
-0.00308534,0.00682268
-0.00386897,-0.0140385
-0.000205216,-0.00677614
-0.0271471,-0.031325
-0.0236155,-0.0203669
0.0287255,-0.0115228
0.0185402,-0.0240444
-0.00308702,-0.0369827
0.0215914,0.0272527
0.0367917,0.0256402
-0.017402,0.044367
-0.0341335,0.101967
0.0220897,0.0420976
0.0516365,-0.0549375
-0.0351462,-0.0147594
-0.137367,0.00635227
-0.15041,-0.0231577
-0.0639356,-0.0281604
0.0351736,-0.0218543
0.0381228,-0.0224388
0.0297552,-0.0208877
0.0572379,-0.0280753
0.0667098,-0.0425409
0.0660608,-0.044905
0.0809777,-0.0614844
0.070699,-0.00507565
0.0100035,0.00852701
-0.0340009,-0.00728399
-0.0142485,0.00359921
-0.00396493,0.00556077
0.00110683,0.0238716
-0.0180812,0.0358197
-0.0140184,-0.0183745
-0.0126635,-0.0478499
-0.109588,-0.0180802
-0.151261,-0.0494886
-0.0523202,0.00947116
0.0283418,0.147886
0.0568685,0.0897206
0.0924962,-0.0528103
0.147104,-0.0442343
0.0918623,-0.0120048
0.0159101,-0.000312603
-0.00818993,0.00697917
0.00614688,0.0113974
-0.027056,0.0507376
-0.0064778,-0.0075486
0.0066115,-0.0321058
0.0241137,-0.00211229
0.188799,0.0777068
0.284533,0.110865
0.140491,0.00341241
-0.11968,-0.0419854
-0.308642,-0.0450904
-0.258997,-0.0537313
-0.139082,-0.0221781
-0.0702386,0.0408656
-0.0832967,0.00991554
-0.0528793,-0.0403878
0.0242797,-0.0236323
0.0407937,0.0189972
-0.00178797,0.00582597
0.00541925,0.00995742
-0.000877422,0.0458759
0.00539437,0.0330666
0.0276361,0.00844343
0.0194817,-0.0176748
0.0114682,-0.0340757
0.0411779,-0.0228752
0.0366149,-0.0127351
0.032942,-0.015115
0.0270183,-0.0299592
0.0273375,-0.038114
0.0248375,-0.0227672
0.0137493,0.0185875
0.00368644,0.0912866
-0.0105224,0.0797856
-0.00660494,0.0307288
0.0166019,-0.0154852
0.0199013,-0.0550911
0.019312,0.00225182
-0.0354252,-0.0359286
-0.0716104,-0.0261861
-0.0390477,-0.00683943
-0.0306447,-0.0328093
-0.0505244,-0.0186686
-0.0510791,0.0268252
-0.0248533,0.0107697
0.0153797,-0.0260846
0.07078,-0.0066938
0.104699,0.0212104
0.0369624,0.050362
-0.0469539,0.0157009
-0.0358716,0.0528764
0.0770081,0.00168957
0.0779501,-0.0069067
-0.0761425,-0.03206
-0.0879832,-0.0159043
0.0785862,0.0348196
0.0848997,-0.0470343
0.00757467,0.00465023
-0.0528683,0.0392133
-0.053232,-0.00689384
-0.0273565,-0.0306107
-0.00349434,-0.0315867
0.00802885,-0.000405212
0.00814679,-0.0107173
0.0244619,-0.0257653
0.0134908,0.0116046
-0.00492546,0.0515768
-0.0197913,0.0815686
-0.0273044,-0.00295017
-0.0133869,-0.0755196
-0.00481211,-0.0358285
-0.000104879,-0.00827305
-0.00566119,0.011156
-0.0292519,0.0319938
-0.0204609,0.0336146
0.0183066,0.0393721
0.0237252,0.0949622
0.0341137,0.0510201
0.000370628,-0.0268189
0.00637557,-0.119776
0.06638,-0.0893949
0.0286453,-0.00641823
-0.126111,-0.0239458
-0.107003,-0.0108924
0.0307188,0.0122862
0.129834,0.00576436
0.0945828,0.00476181
0.0719933,-0.005768
0.00415356,0.0409087
-0.0951972,0.00699295
-0.0886363,0.00435245
0.014661,0.0454662
-0.00919875,0.0612075
-0.0180048,-0.0172709
0.00818548,-0.0667547
0.017816,0.0156513
0.013907,-0.0110238
-0.0576248,0.0447122
-0.0906586,0.104297
-0.0196261,-0.0844292
0.0311122,-0.130032
0.021351,-0.050024
-0.0182793,-0.0368364
0.00140678,0.00555398
0.0374623,-0.00697905
0.0308885,-0.0163081
0.0191284,0.0324531
0.0490215,0.0741013
0.0231507,0.0267349
-0.0149013,-0.00322874
0.00786735,0.0101001
0.0143011,-0.00165443
0.00088152,-0.0741156
-0.0126221,-0.0693046
-0.00961662,-0.0203972
0.0049255,0.0133078
0.0117821,0.0185848
0.00590381,-0.00947187
-0.00196225,-0.0130726
-0.000704436,-0.00774712
0.0155972,0.028732
0.0221547,0.0386998
-0.0058815,0.0286085
-0.0380286,0.00300085
-0.0600103,0.00682094
-0.0634918,0.03332
-0.0428202,0.0468157
0.0314823,0.0570367
0.0737968,0.124028
0.0800694,0.0261162
0.0380362,-0.0249368
-0.0300243,-0.0668981
-0.103722,-0.0224614
-0.0672759,0.0116605
0.0204487,-0.046714
0.00430433,-0.0602149
-0.0212264,0.0162641
0.0383937,0.063953
0.029825,0.0346138
-0.0288139,-0.0358399
-0.0988695,-0.00171415
0.0201392,0.0369775
0.151654,-0.0140227
0.0667509,-0.101397
-0.0201626,-0.0588644
-0.0134891,-0.00374072
0.0019237,0.0605541
-0.0412803,0.0534639
-0.0643142,0.0162714
0.0170701,-0.041044
0.035993,-0.0705241
0.00803755,-0.0395357
-0.00939361,-0.0290285
-0.000214378,-0.0343286
0.0182317,-0.0187367
0.0168784,0.00338426
0.0178728,0.0249256
0.0129045,0.0275574
-0.00964021,0.0298298
-0.0659853,0.0127313
-0.0439642,0.0120245
0.0451642,0.0217502
0.0063496,-0.000851685
-0.0467506,-0.00195626
-0.00793689,0.0154427
0.0264278,-0.0066876
0.05389,-0.0374471
0.0536212,-0.00918381
0.0106019,-0.00569112
-0.0481263,0.00185806
-0.0969236,-0.0495015
-0.0836543,-0.00446756
-0.0603701,0.0218786
-0.019398,0.0673892
0.0249,0.0341319
0.0607017,-0.0442632
0.0779917,-0.0514558
0.088664,0.0307784
0.0478918,0.0400041
0.0546158,0.0505827
0.104592,0.0110382
0.0263487,0.0290692
-0.0645094,-0.0417948
-0.083575,-0.069285
-0.0788845,-0.00967242
-0.0479558,0.012503
-0.0227285,-0.00850915
-0.00589311,-0.00375253
-0.0403089,-0.00264657
-0.0581886,0.00116102
-0.0201774,0.0109338
-5.36e-05,0.00383271
0.0298455,-0.0098726
0.0481114,-0.0164164
0.0369772,-0.0136438
0.0198773,-0.00498417
-0.00880292,0.0126255
-0.0173317,0.0263717
-0.0210286,0.0299128
-0.0157774,0.0653558
-0.0180939,0.0711635
-0.00951009,-0.0302273
0.0307179,-0.0891533
0.0670931,-0.0154488
0.0396452,0.0133506
-0.0221709,-0.00843419
-0.0951032,0.0376696
-0.0935129,0.0638745
-0.0108881,0.00283425
0.136117,0.0291637
0.22011,-0.0617142
0.141981,-0.0534421
0.0425478,-0.0447198
-0.0178816,-0.0163967
-0.0110827,-0.00729963
-0.0670229,-0.00830421
-0.0906342,-0.0167246
-0.0885138,-0.0275001
-0.0737878,-0.00991388
-0.024824,0.0264497
0.082209,-0.00923439
0.052804,-0.00652527
-0.0461709,0.0320987
-0.0295631,0.00053753
-0.0201254,0.00799763
-0.0489674,0.0072003
-0.129114,0.0289784
-0.120537,-0.0108589
-0.086112,-0.0148389
0.0395524,-0.0337299
0.0951762,-0.00876351
0.128142,0.00467839
0.129357,0.0121848
0.0495497,0.0100184
0.0362809,0.0175244
0.0150558,-0.0346901
-0.0125879,-0.0337803
0.00266577,-0.0157523
0.00426901,0.00156309
0.00292216,0.013441
-0.0211629,0.0398566
-0.0292484,0.0285634
0.00706906,-0.00118479
0.0301745,-0.00342434
0.00374677,0.0349019
-0.0858699,0.103461
-0.102072,0.0302619
-0.0533284,-0.0124311
-0.0323308,0.00713118
0.0296342,0.0319266
0.0971269,-0.020155
0.108345,-0.020143
-0.0681552,-0.0281619
-0.17542,0.00722377
-0.0808406,0.00860464
-0.0333151,0.0127346
0.0237412,-0.0149671
0.119115,-0.0230523
0.0917421,-0.0517972
0.0200661,-0.0127169
0.00306104,0.019039
0.0417561,0.0374533
0.0194913,0.036701
-0.0202705,-0.015501
-0.0391082,0.0053835
-0.00155644,-0.044759
0.00798804,-0.00231302
0.0223082,0.00599532
0.0444453,-0.0152364
0.00405445,-0.00726354
-0.0138338,-8.86e-05
0.0140248,-0.00551941
0.0297744,-0.0170392
0.0187881,-0.00343948
-0.00431455,0.0115166
-0.0227588,0.0100619
-0.0144071,0.00475632
-0.00543616,-0.00715586
-0.0150486,-0.0161907
-0.0265961,-0.0162285
-0.027569,-0.00321906
-0.0121618,0.0173266
0.0116287,0.0254003
0.0231667,-0.0098493
0.0100404,-0.00724953
-0.00188797,-0.0135669
0.00571481,-0.0108598
0.0195982,0.00337267
0.0285292,-0.0125033
0.0222691,-0.027766
0.00607281,-0.00622252
-0.00067251,0.00653395
-0.0237128,0.00420968
-0.0486834,-0.00203708
-0.0856394,-0.00956709
-0.0815126,-0.0203417
-0.0114554,-0.0120445
0.00125818,0.0561853
0.048493,-0.00544534
0.036953,-0.0180313
0.0264245,0.00692131
0.0231767,0.0205449
0.0234959,0.0573076
0.0802488,0.0321271
0.0671309,-4.25e-05
0.0466114,-0.0191581
-0.0453494,-0.0521054
-0.157859,-0.0119521
-0.106546,0.0303267
0.0112582,0.0435685
0.0940082,0.0169903
0.127943,-0.049205
0.0158113,-0.0169515
-0.0803989,-0.0677493
-0.0534009,-0.0420952
-0.0111284,0.0561828
-0.00426975,0.0369479
-0.00912649,0.0206603
-0.0198174,0.109159
-0.0344095,-0.00335085
-0.0383745,-0.0945526
-0.0252213,-0.0262831
0.0199101,0.00416199
0.0573637,-0.0182443
0.0585252,-0.0132137
0.017781,0.00697928
-0.011674,0.00337405
-0.0139451,-0.00574333
0.00216534,-0.0384306
0.00647369,-0.0403085
-0.0138454,0.0125661
-0.0278603,0.0459373
-0.00197148,0.0160317
0.00810835,0.0443203
0.0112183,0.022601
0.0258018,-0.0317871
0.0324635,-0.0200012
0.035954,0.00330337
0.000205193,0.00546829
-0.0465174,-0.00844084
-0.0689838,0.0118731
-0.0391592,0.0287662
-0.0157844,0.00117754
0.0275649,-0.0180007
0.0913335,-0.01329
0.0955103,-0.00709615
0.0381434,-0.0029458
-0.0227096,-0.00115914
-0.0112027,0.00997449
-0.0150439,0.0292352
-0.0442723,0.0129556
-0.0557533,0.000715495
-0.0488553,0.0102941
-0.046373,0.00315755
-0.0574962,-0.0294815
-0.0116785,-0.002586
0.095471,0.0190608
0.118401,-0.0325
0.0865127,-0.0395771
-0.040456,-0.017675
-0.0368366,0.0263455
-0.0118973,0.0263134
-0.0181042,0.0984805
-0.0140617,0.0577262
0.00208085,-0.0822915
-0.0270473,-0.0419962
-0.0558098,-0.0140089
-0.040527,-0.0497918
-0.0354303,0.0235981
-0.0156336,0.109831
0.0269354,0.0891629
0.016252,0.0213984
0.0267815,-0.147875
0.0322649,-0.123612
-0.0126575,4.85e-05
-0.0163748,0.0226669
0.0177521,0.0102948
0.0474232,-0.00481281
0.0697777,-0.0211056
0.0350848,-0.0213424
-0.0138912,0.0118525
-0.0246324,0.0441783
-0.0024188,0.0177984
0.0126151,0.000410561
-0.00751506,0.00211761
0.00459452,-0.0143447
0.0347318,-0.0188433
-0.000867261,-0.00545816
-0.0183937,-0.00243511
-0.0168897,-0.00581964
-0.0445426,0.0279851
-0.0308324,0.0349257
0.00654585,0.0306178
0.0102171,-0.00254401
-0.0111502,-0.0235054
-0.00264755,-0.0287087
0.0430573,0.00449154
0.0507286,0.0109825
0.0181808,0.0049951
-0.0068125,-0.0334653
-0.0507592,-0.00233964
-0.0976001,0.0664522
-0.0457609,0.0372623
0.0466011,-0.112852
0.0293849,-0.0249218
-0.0176473,0.0241762
-0.0314225,-0.0651931
0.00786911,-0.0198388
0.0413946,0.00961087
0.0653978,0.0280215
0.0147369,0.0244422
-0.0286953,0.0205199
-0.0178076,0.00463596
-0.0362685,0.0662659
-0.0657125,0.0656444
0.00980535,-0.077143
0.0765908,0.00177613
0.064018,0.0355447
0.0227687,-0.0305473
-0.00336438,-0.0641716
-0.0092702,0.0176091
0.00931515,-0.00859576
0.00278872,-0.0198086
-0.0258705,0.027506
-0.00169694,-0.0254379
-0.00987675,-0.0515899
-0.0326176,0.0394305
-0.0118627,0.0269696
0.014264,0.0055414
0.0421906,0.0720978
0.0469857,0.0215869
-0.0298732,-0.032663
-0.0776031,0.0144952
-0.0291964,0.042297
-0.0158024,-0.0502782
-0.0271714,-0.0562603
-0.00198457,-0.00935493
0.0462434,0.055732
0.0898153,0.0378556
0.0381157,0.0690342
-0.0626147,-0.017074
-0.0778784,-0.0788563
-0.0364695,-0.0555342
-0.0134803,-0.0259146
-0.018649,0.0182167
-0.000575293,-0.049826
0.044124,-0.0513835
0.0252828,0.00745428
0.000144901,0.0181971
0.0113109,-0.0150564
0.0359507,0.0124887
0.0238958,0.0686567
0.00060879,0.00206587
-0.0010503,0.00380826
0.0104528,0.00344369
0.00568313,-0.000218712
-0.00252023,0.0016552
0.0153397,0.0134605
0.0270032,0.0468493
-0.0050613,0.0531514
-0.0401531,-0.0105047
-0.035864,-0.0499775
-0.0310781,-0.0211393
-0.0255618,-0.0552312
0.00468091,-0.0589577
0.0120234,0.075795
0.0289785,0.110118
0.0234802,0.00385023
-0.056745,0.0535565
-0.0978506,0.0261648
-0.0623215,-0.0507905
0.0283246,-0.0704777
0.073013,-0.00331152
0.0616388,-0.000291476
0.108665,0.0683728
0.147123,0.103691
0.0877429,-0.00880827
-0.0340235,-0.166852
-0.15814,-0.092908
-0.125523,-0.029821
-0.028729,-0.00263265
-0.00541451,0.0356414
0.0119594,0.00219027
0.0389049,-0.0149306
0.0501067,0.0322617
0.0234953,0.0308387
-0.0129865,-0.0286936
-0.0139954,-0.012291
0.0110944,-0.00185694
0.0267464,-0.0039339
-0.0118358,-0.0105776
-0.0266529,0.00579986
-0.00592033,0.00827975
-0.0113475,0.00509776
-0.0619247,0.0905096
-0.0553198,0.00518954
-0.0162442,-0.0844927
0.00897281,-0.0232982
0.0316828,-0.00939596
0.0243702,0.00704269
0.0411192,0.0802745
0.0737847,-0.00434153
0.0165195,-0.0516486
-0.0294782,0.0197977
-0.0313618,-0.017655
-0.0605193,-0.0177514
-0.0526626,-0.00512109
-0.0453337,-0.000452048
-0.0377481,0.0434099
0.00424351,0.0925034
0.0882694,0.0556902
0.1291,-0.00143836
0.0858892,-0.0465855
-0.0216961,-0.041846
-0.117395,-0.0610257
-0.0169318,-0.0378854
0.050218,0.0354313
0.0177171,0.00425111
-0.0093166,-0.00736263
-0.0391475,0.00223256
-0.0435272,-0.000743429
-0.038542,-0.0208585
-0.0210778,0.0217848
0.0107242,0.00248503
0.0408968,-0.026638
0.0379532,-0.0085267
0.00277724,0.00730044
-0.015509,0.0124239
0.0299261,-0.00655126
0.0269417,-0.0140588
-0.0194436,-0.0086082
0.00456174,-0.00506534
0.0179685,0.00407931
-0.00910914,0.0284872
-0.0083713,0.0241757
0.0202149,0.00322488
0.0258023,0.0050862
0.0239432,-0.0157542
-0.00847888,-0.0131388
-0.0154259,-0.00246469
0.0112674,0.0289273
0.0288651,-0.0280236
0.00339889,-0.0164535
-0.0456321,0.0189543
-0.0944456,-0.00498594
-0.105212,0.0207759
-0.0357755,-0.0013986
0.0308071,0.0383561
0.0487233,0.0142398
0.0361486,-0.0567877
0.0268664,-0.0141402
0.00112375,0.0103538
-0.027819,-0.00222104
-0.0197745,-0.0098182
0.0144507,0.0175638
0.0319466,-0.0181281
0.033068,-0.0482018
0.00551196,0.0242072
0.0107591,0.0781842
0.0446136,0.0451389
0.0768752,-0.041442
0.0690497,0.0108204
0.0346563,-0.00455318
-0.047561,-0.0451163
-0.0526463,-0.0286042
-0.0662365,-0.003543
-0.0569488,-0.00138407
-0.00571485,0.0198286
-0.0167377,0.0244719
-0.0408029,0.0533368
-0.0458304,0.0232415
-0.0632205,-0.0648974
-0.0563083,0.0932987
0.0153043,0.0518477
0.0469367,-0.106731
0.0109269,-0.0742592
-0.00611952,-0.0210843
0.00618617,0.0399346
0.0678208,0.010876
0.133966,0.012551
0.0752291,-0.000782423
-0.0172816,0.0199637
-0.0227057,0.0105028
-0.022614,0.0382738
-0.0584149,-0.0370691
-0.0310906,-0.0661096
-0.0113421,0.0316658
-0.0183744,0.0149422
0.0165784,-0.0170857
-0.00137085,-0.070144
-0.0038234,0.00488123
0.054956,0.0881487
0.0997707,0.0778296
0.058636,-0.0697161
-0.00376757,-0.121145
-0.0137655,-0.0524329
-0.0390241,-0.00545193
-0.0658039,-0.00573542
-0.0767955,0.0113252
-0.0869216,0.0469007
-0.0667867,0.0774895
0.0199514,0.00109433
0.0456744,-0.0177632
0.0169764,0.0467459
0.0201047,0.151901
0.0786874,-0.0382686
0.104732,-0.126631
0.00805695,-0.0482301
-0.0562225,-0.0129012
-0.089853,-0.00556203
-0.100562,0.00981507
-0.0489433,0.053045
0.0260075,0.042001
0.02914,-0.0166025
0.0273815,-0.016696
0.0433538,-0.0249224
0.0354687,-0.0174091
0.0400655,0.00342438
0.0605699,0.0378208
0.0539001,-0.0112713
0.00976427,-0.0385229
-0.0265451,-0.0305973
-0.0550245,0.0418477
-0.0724502,0.0305982
-0.0414335,0.00713578
-0.0233965,-0.0143173
-0.0719304,-0.00738164
-0.0562731,-0.0182758
-0.00514319,0.0137826
-0.00914764,0.0044844
0.0132139,-0.029663
0.0643946,-0.020153
0.0917013,-0.00982158
0.0995608,0.021216
0.0830207,0.0356527
0.0155528,0.0797547
-0.0721174,0.0530027
-0.0721326,-0.0476127
-0.00157414,-0.0660696
0.0178536,-0.00867227
0.0274992,0.0030742
0.0106777,-0.0148432
0.00591532,-0.015213
0.0470379,-0.0278476
-0.0145993,-0.0371827
-0.0416818,0.00204991
-0.0474597,0.0441809
-0.0488711,0.0888574
-0.00709762,0.0330607
0.0471479,-0.023446
0.0426248,-0.00653892
0.040457,0.00488147
0.0539047,-0.0215397
0.0458808,-0.0148139
0.0028035,0.0136088
-0.0485857,-0.0110972
-0.0808639,-0.0441061
-0.0790854,0.0243243
-0.0671721,-0.0290128
-0.015844,-0.0190584
0.0157625,-0.00480147
-0.0146529,0.0177934
-0.0261831,-0.00429035
-0.0160008,-0.0492615
-0.000113304,-0.00615063
0.00490413,0.015818
0.0187927,0.0574515
0.0267002,0.132319
0.0171246,0.0651489
-0.00542957,-0.0681608
0.0735869,-0.0488069
0.0620993,-0.0560494
-0.00461339,-0.0108062
-0.0100931,-0.0233167
0.00935582,-0.00969663
0.0232243,0.0226418
-0.0224323,0.0119878
-0.0415653,0.00279383
-0.0118195,-0.01199
0.00499891,0.0304854
0.0242653,-0.011662
0.0328293,-0.0368537
0.00630614,0.0125481
-0.0361886,0.00542386
-0.044512,-0.00881209
-0.0482674,0.0218875
-0.0800279,0.152268
-0.0203461,-0.014856
0.00956874,-0.144485
0.0446274,-0.0659428
0.045263,-0.0304008
0.000335046,-0.00314748
0.00294464,0.0272775
0.0109167,0.0528034
0.0182435,0.0442106
-0.027618,-0.0162577
-0.0214501,0.0196282
0.03828,-0.0233702
0.0396876,0.0385796
0.0285866,0.0455532
0.0276239,-0.0055608
0.0255645,-0.0611228
0.0222587,0.0138081
-0.0281508,-0.0218333
-0.0573799,-0.0105725
-0.0237553,-0.0168844
-0.00911938,-0.0461061
-0.0267297,0.00254765
-0.0183948,0.0381761
0.0134971,0.0245173
0.00875876,-0.00309324
-0.030455,0.0357992
0.0710571,0.0224688
0.0355359,-0.0244296
0.0524843,-0.046383
0.00498943,-0.069232
-0.0766133,0.00581683
-0.0755812,-0.00746257
-0.0254663,-0.00337364
0.025821,0.00470847
0.0346263,0.00234439
0.0153371,0.00676872
0.0121064,0.0170151
0.0175479,0.0377452
0.024645,0.0465633
0.0414952,0.00352424
0.0297554,0.00235777
-0.00124195,0.013017
0.000949553,-0.0136274
0.000731791,-0.0105748
-0.0455144,0.0362694
-0.0935849,-0.0567732
-0.0525435,-0.0253374
0.0328456,0.0348944
0.0601944,0.0291882
-0.0050659,0.0352983
-0.0243031,0.057554
0.00540847,0.0461129
0.00685058,-0.0646961
-0.0157955,-0.0757997
-0.0367451,-0.0134823
0.00991029,0.0503142
0.03352,-0.0217973
-0.012076,-0.0578847
-0.0246057,0.0145725
0.039092,-0.013243
0.05807,-0.0260753
0.00849108,-0.00750008
-0.0757082,-0.00343125
-0.0814813,0.00412118
-0.0143101,0.00111931
0.027351,-0.0134065
-0.00652489,-0.0121832
0.0352817,-0.0137167
0.0591303,0.0233607
0.00773235,0.0165848
-0.0489432,0.0281686
-0.0450201,0.0537869
0.0071572,0.0057197
0.0254376,-0.0172744
0.0317285,0.0585327
0.0141247,0.0242283
-0.0360014,0.00951902
-0.0665537,-0.0899078
-0.0661428,-0.0248815
-0.0584003,0.00752646
0.00677614,-0.0428711
0.0173964,-0.0139253
0.0737874,0.0199382
0.127295,0.0296426
0.0718021,-0.0799266
0.0131274,-0.042266
-0.0038902,0.0441782
0.00926665,0.0216077
0.0215505,0.0658046
-0.0160787,0.0443287
-0.0240322,0.0101691
-0.000937026,0.0438213
0.0290158,0.0240621
0.0789432,-0.0626578
0.00307301,-0.0412507
-0.0626488,-0.0880359
-0.042175,-0.00560418
-0.00455048,0.00916095
0.0136842,-0.00860506
-0.00855325,-0.00825864
-0.0334476,-0.0311886
-0.031957,-0.018995
0.00212733,-0.00282475
0.0535246,0.000738983
0.0453171,0.0399905
0.0256943,0.0676385
-0.0537008,0.102706
-0.136288,-0.00262649
-0.108984,-0.0377305
-0.0279087,-0.0414671
0.022709,-0.0325668
0.00486354,0.018991
0.017473,0.00371388
0.0399768,0.00621329
0.0569018,-0.0274529
0.0239666,0.00288587
-0.00028376,0.0052553
0.0488207,-0.000975636
0.0659561,0.00821253
0.0646832,0.0034681
-0.0292727,0.00752422
-0.137689,0.0223901
-0.141248,-7.06e-05
-0.0827211,0.0290329
0.00210521,-0.00873978
0.0411826,-0.0159944
0.0679375,0.00354987
0.0767131,0.0170223
0.0444468,0.0206324
0.00609685,-0.0527262
0.0121507,-0.0475796
0.00408095,-0.0184178
0.0183477,-0.0186647
0.0341208,-0.0218698
0.043358,-0.0126358
-0.0414709,0.0154092
-0.0991724,0.035069
-0.091461,0.0576381
-0.0355434,0.0243116
0.0389558,-0.0258484
0.121139,0.0258503
0.119478,-0.0139423
0.0206934,-0.0313173
-0.0539987,-0.00977403
-0.0207939,0.0086889
0.0439311,0.00551225
-0.00362196,0.0079369
-0.0613145,0.00389322
-0.0289915,-0.00321888
-0.0205005,0.0245613
-0.0215186,-0.0728228
-0.0249245,-0.0226318
-0.00344789,0.0823264
-0.00509682,0.0602516
-0.00508118,-0.0802556
0.0203542,-0.0607321
0.00794332,0.0450546
-0.00642528,0.0347043
-0.0121916,0.0320547
0.0126465,0.00565862
0.0182775,-0.0174723
-0.0152938,-0.0625292
0.0048379,-0.00512821
-0.00631512,0.049349
-0.0137921,0.00974705
0.0209829,-0.0387075
0.0351139,-0.0276285
0.044634,0.00516778
0.0558788,0.0665481
0.0578974,0.0304881
0.0426469,-0.0133686
0.00935644,-0.0102171
-0.0523164,-0.0200439
-0.0936416,0.0602848
-0.0680989,0.0240174
-0.0478411,-0.0409362
-0.0519192,-0.0500346
-0.0491005,-0.0279746
-0.0662968,0.00140541
-0.0160629,0.00219899
0.0121587,0.0179274
0.0182208,-0.00241721
0.0656676,-0.0369708
0.0396622,-0.00441349
0.0948885,-0.00661913
0.156589,-0.00859962
0.0616476,-0.0290757
-0.0648575,-0.0222875
-0.119716,0.041482
-0.0559804,0.0674675
-0.00110142,0.00212828
0.00843451,-0.00147227
-0.00929428,0.0150366
0.0113626,-0.0481503
4.74e-05,-0.0159413
-0.0904841,0.136633
-0.0854982,0.0228219
-0.011465,-0.0844598
0.0667849,-0.0149456
0.0889868,0.00787027
0.041172,-0.011271
0.0206428,-0.0124019
-0.00386587,0.0237795
-0.0118425,-0.0282933
0.0136701,-0.00645704
0.0577268,0.01487
0.0403196,-0.00713632
0.00693402,-0.0448822
-0.0113194,0.010703
-0.0204892,0.0534533
0.00569737,0.0247392
0.0157649,-0.072835
-0.0370588,-0.0595804
-0.0831559,0.0140271
-0.0863319,0.0224736
-0.0568744,0.0429087
-0.0201647,0.0194231
0.0354288,-0.0432532
0.0694554,-0.0345785
0.056109,-0.010956
0.0975071,0.0108197
0.0512423,0.0451679
-0.0612246,0.0432265
-0.0949136,-0.0210531
-0.0705105,-0.035029
-0.00919973,-0.015825
0.0652755,0.0296109
0.0282068,0.0191896
0.00757698,-0.00890994
0.0188384,0.0195062
-0.000796249,0.0632935
-0.0144138,0.0157797
-0.0286244,-0.0206176
-0.0362092,-0.00141448
-0.0189637,-0.00187062
0.00384062,-0.0148811
0.00062642,-0.0463857
-0.0172393,-0.00597407
-0.00316504,0.0418072
0.0057818,0.017781
1.66e-05,0.00332175
-0.000480156,-0.0045834
0.0100795,-0.0364181
0.041942,-0.0224466
0.0594242,0.0223983
0.0609323,0.0125159
0.048044,-0.0140545
0.0332881,0.0666357
0.0083188,0.00843389
-0.0379102,-0.0807669
-0.0600209,-0.0570404
-0.0737501,0.00180708
-0.0593825,0.0548601
-0.0458976,0.0438171
0.00966368,-0.0416686
0.0887123,-0.0207894
0.073976,0.0436208
0.00986732,-0.0067305
0.0106091,0.0487574
0.0176478,-0.0238258
-0.051048,-0.0635769
-0.0560648,-0.00715602
-0.0329071,-0.0166466
0.0170095,-0.0167531
0.0336238,-0.00475726
0.0340534,0.0209626
-0.00486291,0.0289516
-0.0396728,0.00107101
-0.0674287,-0.0149402
-0.0969543,-0.0101583
-0.052435,-0.0226954
-0.0022235,0.0820676
0.0122213,0.0753476
0.0372535,-0.0325631
0.0725208,-0.0507883
0.110591,-0.035288
0.085616,-0.0554251
0.00739566,-0.0256658
-0.0416706,0.103771
0.00881074,-0.001282
0.00138707,-0.0477386
-0.0581861,0.00123566
-0.0460041,0.00777415
0.00538597,0.00311165
-0.00433421,-0.00972615
-0.0234018,-0.0100124
-0.00578805,-0.00995762
-0.0287118,0.00738018
-0.0425099,0.023047
0.0360262,-0.0259145
0.0653038,-0.0118768
0.0443139,0.0331769
0.0345054,0.0514456
0.0483997,0.0513066
0.00398929,-0.0527039
-0.06727,-0.0662648
-0.0859538,0.0763878
-0.0311666,0.0888068
-0.0343341,-0.0301545
-0.0279508,-0.0617381
-0.0074358,-0.00744113
0.0567336,0.0103431
0.0795452,-0.0185306
0.0468352,-0.0288706
0.00402734,-0.0142996
-0.00117189,0.00266321
0.0353995,-0.00100871
0.00793791,-0.00311131
-0.0236968,-0.00453104
-0.0125254,0.025049
0.00964448,0.0210027
-0.0219064,-0.00704119
-0.0643943,-0.00436534
-0.0733895,0.0301079
-0.0373405,0.0172209
-0.0114608,0.0317765
0.0321619,-0.0119729
0.0936703,-0.0181324
0.104148,0.00901889
0.0098919,-0.00471822
-0.0708333,-0.0146962
-0.0576584,0.0062842
-0.00252318,0.00107795
0.00712503,-0.00720103
-0.00504686,-0.0290027
0.0195395,-0.0336986
0.0547157,-0.0407332
0.0520399,-0.0284413
0.0114242,0.0166764
-0.0291348,0.045209
-0.0558256,0.0618282
-0.0302075,0.0174046
0.00305974,0.00124158
0.0248504,-0.00242332
0.0484379,-0.0184021
-0.00765599,-0.0378585
-0.0581571,0.00533669
-0.0482196,0.0415912
-0.00283879,0.00286826
0.00215633,-0.0247125
0.00525588,0.0424921
0.0305445,-0.0146181
0.0230302,-0.0805077
0.00961368,-0.0210313
-0.0440541,0.00250733
-0.0230034,0.00527743
0.0522725,0.0454735
0.068947,0.0647717
0.0499646,-0.00558302
-0.0120875,-0.0126673
-0.0835213,-0.00414067
-0.0637335,-0.0214948
0.00846182,-0.0577824
0.00417266,-0.00269175
-0.00757333,0.0249732
0.00184829,0.0225135
0.00406261,-0.000297707
-0.00753101,-0.0310396
-0.0332056,-0.0115888
-0.035538,-0.00201941
0.0108223,0.00954257
0.0732106,0.00151314
0.0887278,0.0307562
-0.0132578,0.00984801
-0.0426119,0.0202806
0.0091365,0.0390803
0.0934783,0.0193774
0.0404183,-0.0154204
-0.115172,0.044757
-0.117657,-0.0109244
-0.081986,-0.0312827
-0.0808595,-0.0202554
-0.0206585,-0.0267825
0.0627798,-0.0323592
0.116311,-0.052007
0.0369303,0.0310701
-0.0417045,0.0286816
-0.0169551,-0.0299455
0.0278287,-0.0505728
0.0330759,-0.0167095
0.0338648,0.037441
0.0280428,0.0796443
0.0126509,0.0775666
0.018854,-0.011901
0.0291197,-0.0735829
0.0316429,-0.00829202
0.03725,-0.0136833
-0.00587731,-0.0344317
-0.056654,0.00848558
-0.0391528,0.00847861
-0.0183471,-0.00567096
-0.0062951,0.00271768
0.00693698,-0.00772673
-0.014539,-0.0036718
-0.0346474,0.0160163
-0.0226603,0.0167626
-0.00594934,0.0209372
0.0108333,0.023144
-0.0179261,0.0214443
-0.0101474,0.0306197
0.0206234,-0.0127491
0.0296058,-0.035953
0.0164845,-0.0526295
0.013461,-0.032112
0.00561776,0.00396248
0.00554925,0.021604
0.00602372,0.0133758
-0.0148178,0.0139992
-0.0330915,0.0323553
0.00920224,-0.0250223
0.0618792,-0.0488506
0.0528192,-0.0148299
-0.0213283,0.00459727
-0.0826529,-0.00605205
-0.0788869,0.0112627
-0.0214986,0.00286335
0.00560136,-0.00226161
-0.0014573,0.000617214
0.00043759,0.0177802
-0.00387568,0.00858106
0.00505446,0.0368612
0.00809908,0.138587
0.0213278,0.00560071
0.0283884,-0.118054
0.0324992,-0.0270908
0.0385887,0.00193715
0.0315109,-0.024523
0.0262402,-0.0222636
0.0134992,0.0155153
-0.0407126,0.0608927
-0.054815,0.025227
-0.000648423,0.0187842
0.0111355,-0.0109181
0.00883444,-0.0617493
0.0394939,-0.0291874
0.0346562,-0.0372806
-0.0019862,-0.00617114
-0.00188232,0.0523132
-0.0620702,0.0173472
-0.133357,0.000305887
-0.04995,0.0357403
0.00487425,-0.0368616
0.011884,-0.0539825
-0.0040686,-0.0147848
-0.00362041,0.00476946
0.029462,0.0100364
0.0477168,0.0146708
0.0335086,0.0218473
0.00229659,0.00854921
0.0126409,-0.0184271
0.0125941,-0.00467579
-0.00147296,0.000380419
-0.0217686,0.00462869
-0.0155574,-0.0215463
0.00599745,-0.0129637
0.0304541,0.0120258
0.041237,0.00789302
0.0268766,0.000397559
0.0244398,0.0273542
0.0211655,-0.0228688
-0.0278806,-0.0384147
-0.0439528,0.0284169
-0.0371977,0.115933
0.0198425,0.0669902
0.0819126,-0.0879518
0.0250817,-0.0899625
-0.126612,-0.0130477
-0.13635,0.00188303
-0.0213894,-0.0190511
0.0284982,-0.00183721
-0.0145852,-0.000146436
-0.0321694,0.0189551
0.00159958,0.0137598
0.0636954,-0.00749882
0.0898544,-0.00695963
0.0449528,0.000254125
-0.0126853,0.0295378
-0.0603933,-0.00427082
-0.015448,-0.0217332
0.014328,0.0277313
0.0146043,0.0426283
0.00424982,0.0240156
0.00735969,-0.0459803
0.0163519,0.00588949
0.0353081,-0.0199463
0.0220744,-0.0372878
0.00429663,-0.0480908
0.00594492,-0.00333435
0.0191732,0.0452877
0.0181305,0.0582591
-0.0274263,0.0354306
-0.0355945,0.0663469
0.00112581,-0.0021269
0.000374849,-0.0607512
-0.00304873,-0.00913406
-0.0354598,0.00922715
-0.0721312,-0.0167024
-0.0553238,-0.0131747
-0.00537859,0.0591827
0.0513572,0.0230083
0.0322591,-0.0441574
0.00922363,-0.0206653
0.00539097,-0.0795452
0.000344761,-0.0293781
-0.0139361,0.0418243
-0.0109579,0.0550305
-0.0071714,-0.0170797
-0.0192276,-0.0337986
-0.00808201,0.00797439
-0.0115405,0.0255453
0.0179145,-0.00563043
0.0536023,-0.0381038
0.0187042,-0.0236295
-0.0174632,0.018541
-0.0156498,-0.00253769
0.0190821,0.0045372
0.0325111,0.0110743
-0.00631204,-0.00217503
-0.00929918,0.00624372
0.0704273,-0.0404379
0.123334,-0.0389282
0.069945,0.0510763
-0.0387857,0.0780841
-0.0789106,0.0382614
-0.0859124,0.00453227
-0.0734619,-0.069165
-0.019468,-0.0279113
-0.0217713,0.00036303
-0.00223633,0.010894
0.0262573,0.00117955
0.0259177,-0.00690457
0.021928,-0.0150915
0.0279404,-0.000764127
0.00499393,0.0218809
-0.026981,-0.0153274
-0.0180214,-0.00391364
-0.0205006,0.0188009
-0.0177469,0.0012915
0.0240128,-0.00441689
0.0571697,-0.00777554
0.034905,0.0214214
-0.0221404,0.0173137
-0.048596,-0.0156226
-0.0651794,-0.0142881
-0.0716306,0.0218439
-0.0170988,-0.00687243
0.044819,-0.023579
0.0577818,0.0125739
0.0335583,0.0173525
0.000912496,0.0507933
-0.0154703,0.0577642
-0.0027812,-0.0535736
-0.00775756,-0.073448
-0.0162806,-0.0212611
0.0289885,0.00699592
0.0349757,0.0345505
0.00875244,0.0168156
0.0157037,-0.026023
-0.021369,-0.031166
-0.0558919,-0.00927899
-0.00839772,0.073334
0.0337817,-0.00817629
0.0114507,-0.0316235
-0.0158456,-0.00767473
-0.00639568,-0.0266288
0.0287304,0.0123125
0.0553776,0.0449384
0.0362121,0.0175585
-0.0258212,0.00985226
-0.0642692,-0.0448673
-0.0472966,-0.00875803
-0.00118954,0.0187476
0.0278846,0.0320364
0.0397399,-0.00130594
0.0528293,-0.0274198
-0.00516958,-0.0246008
-0.0749761,-0.0240208
-0.0593316,-0.0194514
0.0278346,-0.00887416
0.0278854,0.025793
-0.00995943,0.0446767
-0.00476012,0.0159848
-0.00389761,-0.00660535
0.02622,-0.0198645
0.0328473,-0.00838209
-0.0109285,0.00367529
-0.0470977,-0.0112956
-0.0703856,-0.0112479
-0.0174616,0.0390599
0.0379541,0.00924543
0.0262198,0.00524424
0.0319893,-0.000856484
0.0398724,0.00731575
0.0321923,-0.0109263
-0.00380031,-0.0334474
-0.0140658,-0.00245474
-0.004346,0.0317737
-0.00812185,0.0361985
0.00974899,0.0162568
-0.0166005,-0.00828089
-0.0527321,-0.0204104
-0.0239468,-0.0131617
-0.000197693,0.0298539
0.0246415,-0.00459018
0.0190964,-0.0289709
-0.0135423,-0.0300463
0.000495763,-0.00859629
0.0269399,0.00568216
-0.013856,-0.00600695
0.000764498,-0.0240646
0.00963167,-0.0210358
-0.0247079,0.00426504
-0.0256871,-0.0098042
-0.00352381,0.0318077
-0.0124048,0.0521901
-0.0131973,0.029033
0.0252083,-0.0115751
-0.00134471,-0.0374554
-0.022273,-0.0323489
0.00318337,0.00898147
0.0340085,0.00910154
0.0591944,-0.0235354
0.0301577,-0.0039874
0.024287,0.0322242
0.0271467,0.0241294
-0.0297377,0.035503
-0.0512027,0.0218974
-0.023983,-0.0315495
0.0313611,-0.0195501
0.0520849,-0.00477381
0.0232139,0.000367736
0.0218156,0.00756389
0.0267481,0.00457311
0.031029,0.0503923
-0.0205106,-0.0182641
-0.0557504,-0.047495
-0.0672043,0.0158958
-0.0677354,-0.0262489
-0.0526356,-0.0413103
-0.0262566,0.00874945
-0.00536615,-0.00409801
0.00639207,0.0191782
0.03621,-0.0185892
0.0411493,-0.0195695
0.015564,-0.00555744
-0.0101672,0.0233541
-0.0214492,0.036506
0.00800505,0.0463493
0.0145345,0.0887842
0.00154733,0.0306128
0.0135362,-0.0465647
0.00486802,-0.0768654
-0.0298201,-0.0260321
-0.0143875,-0.00345823
-0.0138206,-0.0315445
0.00473223,-0.0296854
0.0672795,0.00592474
0.058831,0.0368668
0.00940619,0.0169638
-0.0268979,-0.0281778
-0.0222791,-0.0311939
-0.00950622,-0.0145897
0.00724181,-0.00145633
0.0291265,0.00462939
0.024254,0.0142967
0.0227385,-0.00373378
-0.00797691,-0.000398472
-0.0339063,0.0115677
-0.0087973,0.0137651
-0.046621,0.00971233
-0.0866404,0.0088492
-0.0224604,0.00945315
-0.0571589,0.0494107
-0.0747554,0.0418032
-0.0175981,0.0078989
0.0570636,-0.0221494
0.0693419,-0.0428153
0.060886,-0.0205159
0.0676387,-0.0308064
0.0471138,-0.0224683
0.0153062,-0.00943691
-0.0363916,-0.0130286
-0.0277026,-0.0114669
0.0113725,-0.00473531
0.0102044,0.0400282
-0.00687406,0.0141311
0.00258638,0.0219259
0.0141939,-0.0294089
0.01209,0.0214161
-0.00639438,0.04938
-0.00946735,0.0236128
-0.00755192,-0.0249994
0.00952897,-0.0184199
0.0250997,0.0081004
0.0199808,0.00928923
-0.0167538,0.023114
0.0048042,-0.0178646
0.0145082,-0.0391132
0.00187841,-0.0570456
-0.013373,-0.0307598
-0.0245907,-0.00431736
-0.0154826,0.0173487
-0.0118841,0.0235034
-0.0367707,0.053556
-0.0346239,0.0698864
0.00282335,0.0480138
0.0546757,-0.0657731
0.0726454,-0.0786033
0.0137803,0.0406951
-0.0612204,0.0628064
-0.0901366,-0.00562905
-0.0835726,-0.0405882
-0.0253479,-0.0157934
-0.00916511,0.00881179
-0.0163138,0.016213
-0.0198856,-0.0263006
0.0416104,-0.0164682
0.079362,0.02716
0.105885,0.0320667
0.12279,0.0119448
0.0290817,-0.040225
-0.0530903,-0.0178144
-0.0112624,-0.00386533
0.0360195,0.0102078
0.022605,-0.0163084
0.0225903,-0.0361033
-0.00595374,-0.0231284
-0.0170365,-0.0160604
-0.0286688,-0.0138511
-0.0644667,-0.0285929
-0.0588165,0.0413823
-0.0279914,0.0467806
-0.0386419,-0.0385467
-0.0541646,0.0256305
-0.0100852,0.0270067
0.0284762,-0.0398136
0.0400846,-0.0174889
0.0381023,0.0488597
0.0472232,0.0279201
0.0507485,-0.0149005
0.00113951,-0.0058228
-0.0348323,0.0156327
-0.037493,0.038902
-0.0123537,-0.0287895
0.0223529,-0.0530956
-0.0140812,-0.0185631
-0.0577065,0.00917877
-0.0369405,0.0554832
0.012202,-0.00690308
0.017119,-0.023435
-0.0205518,0.0110899
-0.0288344,0.0321185
-0.0196693,0.0627615
-0.00103486,-0.0108201
0.0467719,-0.0486947
0.0493293,0.00728826
0.0217663,0.0170837
0.0488845,-0.0036228
0.0843906,-0.017837
0.0838393,-0.0255322
0.007668,-0.0156844
-0.0662188,-0.0103343
-0.079093,-0.000315967
-0.049722,-0.00967426
-0.0112738,-0.00701696
0.0375763,0.000887539
0.00560671,0.0184463
-0.0239171,0.0235695
-0.00912462,-0.0317206
-0.0055446,-0.0145059
-0.0282824,0.0114683
-0.0261748,0.0349527
-0.0117905,0.0315288
-0.0082347,0.0201441
0.00765622,0.027719
0.00885396,-0.0167204
-0.0120896,-0.0393102
0.000793278,0.00389217
0.0216657,-0.0202061
-0.00411359,-0.0360724
0.00161331,0.00545232
0.010401,0.0135901
0.0187153,-0.00255072
0.0100965,-0.0161101
-0.00615127,-0.0157101
-0.00685889,0.00828693
0.00529161,0.0254807
0.0456075,0.0225014
0.0127333,0.0223495
-0.0440367,0.00401912
-0.0207089,0.00256041
-0.00622398,0.0487543
-0.0299613,-0.019842
-0.0189912,-0.0357372
-0.0036577,-0.0190837
0.0196881,0.00476276
0.0653672,0.0270307
0.0586765,0.0234362
-0.0182368,0.00358151
-0.0549827,-0.00818441
-0.0245754,-0.0233511
0.00578976,-0.0341812
0.0272998,-0.0221106
0.0339296,0.0311726
0.0259979,0.0161486
0.00817188,0.0468196
-0.0272058,0.0691475
-0.0238637,-0.0799489
0.00622072,-0.0906419
0.0261499,-0.0284835
0.0197548,-0.0101663
0.00269506,-0.0202671
-0.0181277,-0.0250544
-0.0263442,0.0214748
-0.00802169,0.031371
0.0132352,-0.000139303
-0.0269665,0.0225315
-0.0525926,0.0255914
-0.0293323,0.00713184
-0.0223453,-0.000225103
-0.00163232,-0.0443712
0.00431441,-0.0273302
0.00491512,0.00893612
0.00958438,0.0184218
0.0283074,0.0231511
0.0509169,0.0120291
0.0641197,-0.013785
0.0539753,-0.00958962
0.0197533,0.000208006
-0.0225158,-0.0124992
-0.0365814,-0.018873
-0.0286554,0.0290344
-0.0241406,0.00719299
-0.0132028,0.0345796
0.00066343,0.00121391
-0.0045412,-0.0360941
-0.0101542,-0.0254147
-0.00570089,-0.00134972
-0.0143552,0.0136768
-0.0193496,0.015601
0.00111505,0.0105551
0.00758669,0.00498905
0.003552,0.000664728
0.00462499,0.00944845
0.0204163,0.0100419
0.0386626,0.00371869
0.0124691,0.00547237
-0.034596,0.0105392
-0.0288427,0.0012247
-0.00483374,-0.00967118
0.00410976,-0.0122407
0.00200317,-0.0147409
-0.00395653,-0.0144877
-0.00851037,-0.0108743
-0.00582751,0.00310116
0.00405161,0.00697279
0.0162875,0.00264369
0.0321399,0.0057297
0.0275739,0.0251579
0.0149683,0.0254906
-0.00244664,0.0178971
-0.0126335,-0.00756026
-0.0339121,-0.0555659
-0.0472286,-0.0178674
-0.0195127,0.0191264
0.00850371,-0.0151233
0.00548102,0.0077709
0.00138769,0.052098
0.00511654,0.0408455
0.00200214,-0.0246621
0.003698,-0.00831387
0.00680395,-0.0487506
0.00520082,-0.0453314
-0.00219756,0.014707
-0.0089169,0.0812
0.000496249,-0.0134327
0.0049384,-0.0548878
0.00663614,-0.0117557
0.00454608,0.0190093
0.0163274,0.0254153
0.0243614,-0.00153167
0.0202737,-0.0160054
0.0134694,-0.0132701
0.0113444,-0.0197226
0.00488833,-0.0217058
-0.0104946,-0.00353794
-0.0221842,-0.0156348
-0.0239851,0.0105993
-0.014539,0.0317506
-0.00776824,0.0116534
-0.0138805,0.0148793
-0.0216649,0.0204742
-0.0274543,0.0116264
-0.024622,0.0050281
-0.00995454,0.0541829
0.00840818,-0.023343
0.0135037,-0.0156268
0.00880964,0.0218898
-0.00139616,0.00774404
-0.0027264,-0.00845202
0.00958887,-0.0184128
0.0228396,-0.0252284
0.0327276,-0.00998053
0.0328053,-0.0204726
0.0322473,-0.0183571
0.029679,-0.00142847
0.0183526,-0.00376771
0.00189965,-0.0039332
-0.00860233,-0.00172008
-0.0118129,0.00137898
-0.00768073,-0.00306961
-0.00369181,-0.00941313
-2.66e-05,-0.00590794
0.000450392,0.0170085
0.00235633,0.0235004
0.00540122,0.00489332
0.00413957,-0.00846787
-0.00881016,-0.00534321
-0.0348992,-0.00150399
-0.0542744,0.00233272
-0.0586964,0.0133873
-0.0443544,0.0167998
-0.0293039,0.0136462
-0.0237181,0.00835115
-0.0167108,0.0099207
-0.00555095,0.00511562
0.00780467,-0.00456052
0.0172655,0.034205
0.0285708,0.0683776
0.0421407,0.0330872
0.0563825,-0.085291
0.0556875,-0.0740315
0.0414776,-0.0335454
0.0142928,-0.0406601
-0.0060603,-0.00881433
-0.0126995,0.00129761
-0.0155549,-0.00255559
-0.0174339,-0.000921391
-0.00522005,0.0249616
0.00910135,-0.00346119
0.0077406,-0.0099648
0.00426704,0.0128983
0.0265341,0.0431128
0.0392928,-0.0403743
0.0209583,-0.0256851
-0.00193859,0.0299136
-0.0136687,0.0436595
-0.0473427,0.0123089
-0.0854878,1.47e-05
-0.0506226,0.0207762
0.000882473,-0.0271686
0.0237601,-0.0257408
0.0225437,-0.0110285
-0.00484731,-0.000994562
-0.0269215,0.0131082
-0.0479733,0.0175898
-0.0328104,0.00179577
0.00181549,-0.004913
0.0195195,-0.0085411
0.0166083,-0.0152182
0.0164726,-0.0189944
0.0102168,-0.0103744
-0.00461012,-0.00442674
-0.00703582,0.0121997
0.001581,0.0219774
0.000564158,0.011171
-0.00105804,-0.00483944
-0.0071776,-0.00824893
0.000472662,-0.00786449
0.00455979,-0.0115587
-0.0207533,-0.00852797
-0.0181698,-0.000805259
0.0346837,-0.00392807
0.106527,0.00355715
0.176417,0.020653
0.24796,0.032404
0.206697,0.0399064
0.0236045,0.0361277
-0.133791,0.0283348
-0.232152,0.0259202
-0.299638,0.0295812
-0.297967,0.0120657
-0.193369,-0.0146745
-0.0279964,-0.0237529
0.1111,-0.0263002
0.168282,-0.0337345
0.139981,-0.0295008
0.0248616,-0.0158243
-0.0156388,-0.0148705
0.126904,-0.0323967
0.116462,-0.0258204
0.00985308,-0.0170601
-0.0441353,-0.0187647
0.0702845,-0.0203843
0.154036,-0.011366
0.08171,-0.00416446
-0.0171887,0.0138878
-0.127056,0.0238985
-0.170785,0.0197723
0.198223,0.0129197
0.561899,0.0125275
0.460855,0.00739783
0.122194,0.00220641
-0.215147,0.00291774
-0.518526,0.0208915
-0.680774,0.0264909
-0.537956,0.0208166
-0.295027,0.012252
-0.137794,0.00691341
-0.0310002,0.00373685
0.0352624,-0.00787428
0.0471606,-0.0121288
0.0384335,-0.0121721
0.0630466,-0.000730412
0.0933779,0.00942539
0.136349,-0.00106816
0.120045,-0.0125046
0.0932842,-0.013859
0.107171,-0.0194873
0.0919738,-0.0182293
0.101853,0.00563667
0.0717861,0.0226973
0.0212385,-0.0220886
-0.0694446,-0.00494766
-0.110734,-0.00311986
-0.0350886,-0.0187744
0.0162339,-0.0286998
-0.0207834,-0.0127302
-0.0568741,-0.00113482
-0.0645721,0.00398053
0.0269166,0.0200623
0.159395,0.0172408
0.191892,0.00101822
0.145756,-0.0068824
0.0627747,-0.0101149
-0.0619162,-0.0121562
-0.175641,-0.0140331
-0.139275,0.00515617
-0.0204375,0.0279261
0.0266431,0.0207247
0.0454746,0.0110165
0.034082,0.0112075
0.0012408,0.00696014
-0.0330771,0.00616987
-0.0382433,0.0118815
-0.0371955,0.0106425
-0.0137718,0.0128174
0.0137045,0.0192907
0.0229864,0.0144151
0.00758756,-0.00252261
-0.0107708,-0.00948804
-0.000150898,-0.0104679
0.0268219,-0.0135822
