Comp Ch 3,Comp Ch 4
0.00833035,-0.0256422
0.0137586,0.00846905
0.00934107,0.0374147
-0.00538772,-0.0300681
-0.0176222,-0.0764386
-0.0428987,-0.00844759
-0.042613,0.0061707
-0.0167309,0.0185668
0.00515552,0.000583493
0.0288293,0.00668777
0.0471933,0.00130394
0.0398283,0.00437951
0.00974474,0.000289393
-0.0138253,0.0137282
-0.0210344,0.0251489
-0.0210913,0.0106635
-0.0224932,0.000274577
-0.0320595,-0.00215961
-0.0313508,-0.0150384
-0.0213754,-0.0167635
-0.0111281,-0.00792098
-0.00330856,0.00663963
-0.00142415,0.0156839
0.00167734,0.0098001
0.00779613,0.00473798
0.0223898,-0.00390715
0.0417444,-0.00799203
0.0707326,-0.00164283
0.0863732,0.00762283
0.0643553,0.0103182
0.0184544,0.0212231
-0.0150362,0.0203856
-0.0502726,-0.00352462
-0.0713422,-0.0108737
-0.0716932,-0.00627977
-0.0540848,-0.0151429
-0.0303351,-0.0256452
-0.0164565,-0.0118929
-0.00808462,0.00876629
-0.0147161,0.014603
-0.0112463,0.000182606
-0.00859801,-0.00613361
-0.00146194,-0.0197526
0.0101904,-0.0162991
0.0256591,-0.00123392
0.0365232,0.001534
0.0339544,0.0154659
0.0296974,0.0208662
0.0211408,0.00974721
0.0130066,-0.00392429
0.00379795,-0.00434874
-0.010148,-0.00806549
-0.0206841,-0.0197376
-0.0181426,-0.0206618
-0.00581272,0.00509676
0.00336319,0.021122
0.0158567,0.0123051
0.0269764,0.0113597
0.0105054,0.0195434
-0.0122079,0.0142759
-0.00569516,-0.0296701
-0.00424717,-0.0283228
-0.004119,-0.0101961
-0.00273129,0.00926537
-0.00508401,0.0167256
-0.00233287,0.00416582
0.000681799,-0.00092428
0.00117799,0.0161248
-0.00301792,0.0259734
-0.00157604,-0.0355039
0.00369098,-0.0366577
0.00303929,0.0061156
0.00346447,0.0114934
-0.00113792,0.0127613
-0.0026697,-0.00204029
0.000632032,-0.00466007
0.00606791,-0.0128902
0.00112315,-0.0167023
-0.0032946,-0.00114291
5.23e-05,0.00200002
0.0010692,0.0200571
0.00283905,0.0229944
0.00372836,0.00190253
-0.000873857,-0.0072864
-0.00624455,-0.00702976
-0.00767355,-0.0104024
-0.00463294,-0.0134113
-0.00108668,-0.00338094
0.00189414,0.00560548
0.00149488,0.00667468
0.000134971,0.00657911
0.00119644,0.00606238
-3.67e-05,0.0117235
0.00593423,-0.010995
0.00394179,-0.0151323
-0.00126603,0.00606855
-0.00374225,0.0110769
-0.00184525,0.0275525
0.00223216,0.0267641
0.000337224,0.000205075
-0.0021969,-0.0232586
-0.00556822,-0.0192485
-0.00537663,-0.0238315
-0.00349527,-0.0236056
-0.00327169,0.00247041
-0.00425875,0.0197461
-0.0047699,0.00788366
-0.00698876,0.00726725
-0.0056677,0.00412341
-0.00416217,-0.00605364
-0.00555422,-0.000128319
-0.00445605,0.010486
-0.00133262,0.00463273
0.00451368,0.0153275
0.0103944,0.0335775
0.0163555,0.0176967
0.0189133,-0.00933826
0.0150371,-0.0200059
0.00395368,-0.0250088
-0.00674843,-0.0403019
-0.00894791,-0.025276
-0.00819256,0.00420618
-0.0109383,0.0177177
-0.010371,0.0132557
-0.0056084,0.000905099
0.00291637,-0.00864642
0.00941366,-0.00476953
0.0169224,0.00824221
0.0153938,-0.00133032
0.00563298,-0.00189831
-0.000238229,0.01473
-0.000978279,0.019484
-0.00260387,0.0004713
-0.0012982,-0.00762741
-0.000389714,-0.00329727
-0.0023845,-0.011515
-0.00535579,0.0041537
-0.00646259,-0.00278119
-0.00369606,-0.0134235
-0.00409885,0.00648886
-0.00507323,0.010892
-0.00455202,0.024909
-0.000565988,0.0241979
0.00555845,-0.0320662
0.00236498,-0.00238109
0.00163832,-0.00321887
0.00173757,-0.00547311
0.00150901,0.0117842
0.0018438,0.02574
-0.000467779,-0.00566609
-0.000543285,-0.00931881
0.00197405,-0.0197525
0.00332471,-0.0460339
0.00383192,-0.0396475
0.0015977,-0.00723428
0.00162918,0.0211539
0.000334836,0.0205356
-0.00122051,0.0201
-0.0031705,0.00149527
-0.00476056,-0.0125348
-0.00762154,-0.00952633
-0.0121391,0.00586405
-0.010837,-0.0192019
-0.0128815,0.00749223
0.00364835,0.026919
0.0152685,0.0206421
0.0105173,0.0104788
-0.00306454,0.0106318
-0.00402544,-0.0181219
-0.00723531,-0.0355166
-0.019692,-0.0210918
-0.0115738,0.0060192
-0.00247179,0.0184435
0.00191062,0.00890631
0.0227627,-0.00325567
0.0378069,-0.00510289
0.0208446,-0.00361893
0.0058815,-0.00355584
0.0038666,0.00100994
0.00681088,0.0089002
0.00398925,0.0120409
0.000625478,0.017184
-0.00215642,0.00582607
-0.00568903,-0.00907231
-0.00876493,-0.00730247
-0.0108614,-0.0131452
-0.0114218,-0.00924551
-0.00987341,0.0159634
-0.00271686,0.0361044
-0.00319001,0.0170399
-0.00456345,-0.00454919
-0.00456568,0.0147806
-0.00223386,0.0443347
0.00573638,-0.00631125
0.00914939,-0.0546828
0.00876778,-0.0339378
0.00425597,-0.00464556
1.85e-05,0.0141346
-0.000249517,0.0150471
-0.000845923,0.00103316
0.000685941,-0.00513993
0.00604254,-0.0140236
0.00466941,-0.0174212
-0.00442641,-0.0116513
-0.00157909,-0.00140503
-0.00223166,0.00675416
-0.00440734,0.0138796
-0.00224628,-0.0137704
-0.0034602,-0.0138714
-0.00258747,-0.0136585
-0.00480629,-0.00696944
-0.00548977,0.00866817
0.0046581,0.0128388
0.00492815,0.0168338
0.00114239,0.0231613
0.00238746,0.0137352
0.00407834,-0.00227489
0.00383202,-0.00614252
0.00298487,-0.0159454
0.00239127,-0.0286319
-0.00475385,-0.0223206
-0.00833857,0.00698464
-0.00437974,0.020325
-0.0025151,0.00850449
-0.00801601,0.00649227
-0.01117,-0.00348272
-0.00233539,-0.00917485
0.0015439,-0.00342085
0.0108762,0.00913212
0.00777711,0.00762362
-0.00328782,0.0231334
2.84e-06,0.0287983
0.00180745,0.00395496
0.00306677,-0.00673961
0.00619054,-0.00468217
0.00695061,-0.0131774
0.00766984,-0.020204
0.00139091,-0.0169264
-0.0071887,0.0138074
-0.00846613,0.0083143
-0.00572295,-0.00462309
-0.00931875,-0.0029377
-0.017053,-0.00290802
-0.0114266,-0.00322188
0.00578316,-0.000817297
0.0124671,0.00935786
0.023671,0.0255679
0.0216996,0.0196696
0.00202252,-0.00301343
0.00465995,-0.0292742
0.000597604,-0.0100298
-0.00861518,0.0115362
-0.0107581,0.0063218
-0.0128868,-0.00721102
-0.00426971,-0.0360538
0.000413002,-0.0107465
0.0020161,0.00250242
0.00953685,0.00343668
0.00522654,0.00359062
-0.000375886,0.00797299
0.00232939,0.0351691
0.00206666,0.0102873
0.000941727,-0.0113092
0.000192368,7.01e-05
-0.000368307,-0.00975885
-0.00333462,-0.00476715
0.00294769,-0.00933431
0.00926451,-0.00548458
0.00622287,-0.0111667
0.000698342,-0.024035
-0.000484756,-0.0261674
-0.00160297,0.00154997
-0.00567653,0.0225994
-0.00948293,0.0134415
-0.00906942,0.0119062
-0.00180031,-0.0161094
0.000416085,-0.0197873
-0.0027575,-0.0103558
-0.00624326,0.00669135
-0.00768954,-0.000198827
-0.00188094,0.0112401
-0.00251376,0.061272
-0.00707206,0.0456177
-0.00458069,-0.00737361
-0.00258744,-0.000775372
0.00946565,-0.0191386
0.0176603,-0.0515697
0.0184609,-0.00961605
0.00712288,0.0147087
-0.0102447,-0.00780444
-0.0191693,0.00755852
-0.0174887,0.00788853
-0.0101408,-0.0141829
-0.0134109,-0.0163826
-0.0151252,0.0168194
-0.00761616,0.0484275
0.00998371,0.014958
0.0154447,0.0289921
0.0183699,0.0130865
0.00234797,-0.063663
-0.00474666,0.0667097
-0.00808618,0.0569031
0.00512308,-0.118511
0.0190292,-0.0814596
0.0263356,0.0301251
0.0234214,0.0147387
0.0194505,0.00539314
0.00825565,0.00675704
-0.00632056,-0.00969846
-0.000544208,-0.0734057
0.00750342,-0.0415909
0.00313055,0.000983845
-0.00476499,0.00180956
-0.01048,0.0113084
-0.00914357,0.0218468
-0.0117161,0.0213292
-0.0111245,0.0229778
-0.00615709,0.0370438
-0.00386262,0.0517003
0.00277467,-0.0185766
0.00291884,-0.0306505
-0.00465748,0.0313827
-0.00304651,0.0223031
-0.00281889,0.0061023
-0.00750427,0.0388482
-0.00606709,-0.00151744
-0.00181243,-0.0247552
0.001977,-0.0679458
0.00366152,-0.0581558
-0.00529035,-0.012865
-0.00917489,0.0146899
-0.00483679,0.00975037
-0.00553793,-0.00873899
-0.00702143,0.0206173
0.0107302,0.00993775
0.0116585,-0.00910139
0.0098805,0.0250755
0.0118328,0.0534133
0.00824355,0.0147382
0.00138361,0.00652312
-0.00602486,0.00975989
-0.0073773,0.00260469
-0.00631256,-0.00561869
0.00291731,-0.0198389
0.00881608,-0.0189549
0.00509473,-0.0343517
0.00345771,-0.00669864
0.00661457,-0.0129915
0.00464565,-0.0120321
-0.00297638,-0.016557
0.0064024,-0.00200293
0.00442769,0.00672473
-0.0143248,0.0194388
-0.010889,0.0352602
-0.0117043,0.0385259
-0.0159264,0.0179593
0.00183436,-0.0603399
0.0119922,-0.024874
0.00810501,-0.00770917
-0.003612,-0.01845
-0.00733345,-0.0172004
-0.00340939,-0.000970996
-0.00705072,0.0476629
-0.00434054,0.0740421
0.00208125,0.0160718
-0.00319664,-0.0242309
-0.0206068,0.0265791
-0.0126033,-0.0460534
0.00782507,-0.0809262
0.0165565,-0.0195982
-0.000718679,0.0302119
0.0020533,0.024668
0.0274646,-0.000690041
0.018396,0.00584334
-0.00302032,0.010354
-0.00648295,0.0152136
0.0105905,-0.00424211
0.00961938,-0.0523703
-0.00381327,-0.040637
-0.015391,-0.0155126
-0.0262098,0.0217059
-0.00267117,0.0447985
0.0158692,0.0261318
0.0119254,0.0443143
0.0266054,0.0245654
0.0263131,-0.0422515
-0.00849556,0.00509892
-0.0205077,0.0125518
-0.0153762,-0.0205289
-0.0113778,-0.0047231
0.00311202,0.00136917
0.00588022,-0.00715925
-0.00724912,-0.0195433
-0.0113916,-0.0212835
-0.00572612,-0.020605
-0.00144973,-0.0157152
0.000894344,0.0179339
-0.0022643,0.0896767
-0.0104017,0.0427727
-0.00192524,0.0162447
0.0189611,-0.0337313
0.0160163,-0.0913314
0.00544041,-0.0448355
-0.00295591,0.0384961
-0.00930141,0.0451411
-0.00365859,-0.0105379
-0.0024916,0.00866376
-0.000811846,0.0240363
0.0100728,-0.0160662
0.017601,0.00149541
0.00266678,0.025931
-0.00155691,-0.0263009
-0.00369574,-0.0228505
-0.000816065,-0.0173183
0.0038264,-0.0650697
0.00302143,-0.0539269
-0.004936,0.0230595
-0.00388804,0.0211463
0.00109699,-0.0107838
-0.0116349,0.00692775
-0.0147862,0.0299148
-0.0149702,0.0393148
-0.00773168,0.0330284
-0.00126484,0.0240455
-0.00407083,0.010375
0.00385662,-0.016442
0.0158966,-0.022822
0.0204087,-0.00368609
0.016518,-0.0125589
0.0118488,0.0113849
0.0460051,0.0356258
0.0652234,0.0217181
0.0346318,-0.0315247
-0.0198796,-0.00451481
-0.0708039,-0.00411073
-0.0890811,-0.0258046
-0.0620199,-0.0193166
-0.0330418,0.00980766
0.00521861,0.0274171
0.0374325,0.0377094
0.0104129,0.00865103
-0.00506407,-0.0134267
0.00528948,-0.024179
-0.00615911,-0.0190809
-0.0245675,-0.00508677
-0.00752778,0.000716485
0.0135576,0.0371211
0.0103914,0.00700917
0.00113854,-0.0118713
0.0129979,0.005219
0.0123831,-0.0143467
0.0182306,-0.0189734
0.0320405,-0.0146516
0.0089879,-0.00109501
-0.00761389,0.0214618
0.00361315,0.040844
0.00392621,0.0548922
-0.00262379,-0.00560909
-0.00454059,-0.0593095
-0.00419869,-0.031438
-0.0117099,-0.0182131
-0.0254701,-0.0179805
-0.0230507,-0.00652946
-0.0118491,0.0260975
0.00918576,0.0249995
0.00592755,-0.0151716
0.00226265,-0.0119302
0.00434171,0.00795379
0.0163643,-0.0183756
0.0417703,-0.0224271
0.032696,0.00275808
0.0125033,0.0233823
-0.00122119,0.0606984
-0.0026879,0.0150023
-0.00169583,-0.0137085
0.00472646,-0.0304484
0.00624187,-0.038903
-0.00312151,-0.0192627
-0.0158248,-0.0174079
-0.0243736,0.00112306
-0.0161744,0.0181077
0.000152576,0.0123889
0.00137172,-0.000118814
-0.00624493,-0.00339298
-0.0144682,0.00133931
-0.00898144,0.00271874
-0.00247874,0.00780729
-0.00694419,0.0189928
0.00118746,0.0312398
0.0176375,-0.00347261
0.00848276,-0.0176228
0.00549143,-0.0178252
0.00746614,0.00832317
0.00470343,0.0023357
0.00656729,-0.0176443
0.0014577,-0.00967958
-0.00652006,0.0218331
-0.00827516,0.0209592
-0.00368234,0.00713591
-0.00206482,-0.00780471
-0.00463088,-0.00300301
-0.0121364,0.0277675
-0.00240379,0.000430446
-0.00402843,0.0206863
-0.00233826,0.0234279
-0.01164,0.0392601
-0.0243787,-0.0139461
-0.0218519,-0.0581705
-0.00387308,-0.0381792
0.0077659,-0.0288818
0.00938284,-0.0134611
0.0310148,0.0144094
0.0491041,0.0212304
0.0320111,0.018117
0.0011313,-0.0135547
-0.021353,-0.0369129
-0.0376478,-0.00886032
-0.0159832,0.0036813
-0.0057734,-0.0119011
-0.0279578,-0.00223547
-0.037953,0.0378624
-0.0150262,0.00892381
-0.00743978,-0.0175986
-0.00763483,0.00949151
0.0110099,0.0158021
0.0435588,-0.00475059
0.0633032,-0.0129313
0.0603032,-0.00725375
0.0408599,-0.00277881
0.018796,0.00638926
0.00741759,0.0228716
-0.00670073,0.0173265
-0.0205824,-0.00477046
-0.0262226,-0.0115984
-0.00143272,-0.0234227
0.0134705,-0.0171737
0.00389745,-0.00307904
-0.00734709,0.0297029
-0.00989052,0.00647485
-0.00774109,0.00868636
-0.0086673,0.0152349
-0.00906205,-0.00183264
-0.0250072,-0.00133602
-0.0334916,0.0108162
-0.0174992,-0.00202164
-0.00436374,-0.0231885
-0.0102295,0.00873958
-0.0109116,0.0508592
-0.00392975,0.0368531
0.00941481,-0.0186105
0.0210929,-0.0432509
0.0170553,-0.0512696
0.00812867,-0.0312282
0.00242522,-0.00371969
0.00105184,0.0565985
-0.0027236,0.119021
0.0070329,0.00527326
0.0114018,-0.0926033
-0.00915038,-0.0558333
-0.0172576,-0.024078
-0.00949775,-0.0113394
-4.75e-05,0.0199095
0.0108368,0.00170826
0.010069,-0.00530499
0.00259035,0.00597836
0.00910481,-0.0156201
0.00838794,-0.0280072
-0.000976162,-0.0171273
-0.00276408,0.00408835
-0.00246088,-0.00140576
-0.000661857,0.00427236
-4.91e-05,0.0358429
0.00133106,0.0557989
0.000673617,0.0221189
-0.00469953,0.0495597
-0.00377793,0.0401005
0.00314708,-0.0819865
-0.00190061,-0.06914
-0.00539432,-0.00167336
-0.0139389,0.0177399
-0.0141893,0.0105467
0.000933813,0.0295582
0.0150029,0.0319008
0.011826,-0.0197868
0.000560735,-0.0265515
-0.0107685,0.00404862
0.00657731,-0.0398511
0.0206198,-0.0487265
0.00158355,0.024193
0.000760952,0.0187078
-0.001014,0.0306225
-0.00583897,0.0709471
0.00155091,0.00627683
-0.00599353,0.019327
-0.0095688,0.0352356
-0.001695,-0.0747056
-0.0093282,-0.0224448
-0.0125457,0.061373
-0.000799776,-0.0272407
0.0053841,-0.072223
0.0025797,-0.032214
0.00172656,0.0073805
0.011952,-0.0205468
0.00695359,-0.0317704
-0.00686966,0.0246951
-0.00144907,0.0477248
0.0143727,0.0298238
0.00933051,0.011765
0.00722045,-0.0349575
0.010994,-0.0395384
-0.00423343,-0.00364998
-0.00439603,0.0166853
0.00582005,0.0143101
0.00192274,0.0133019
-0.00602358,0.0108924
-0.0122635,0.0420713
-0.0261061,0.00925869
-0.013602,-0.0568642
0.00649724,-0.0508191
0.021959,-0.0429919
0.0192971,-0.0524409
-0.00344124,0.0168089
-0.0186966,0.0593357
-0.0281531,0.0555942
-0.0291525,0.0673931
-0.0252874,0.0610468
0.000494353,-0.0689228
0.0273874,-0.117426
0.0360562,-0.0157884
0.0248285,0.0292725
-0.0159983,0.0320704
-0.0136348,0.030173
-0.00142296,-0.00630044
0.00574256,-0.0202813
0.0233757,-0.0342677
0.0369668,-0.053826
0.0299242,-0.0387971
0.0121184,0.0170259
0.0123709,0.0399648
-0.00324031,0.0174874
-0.0239819,0.0209735
-0.0254062,0.00723919
-0.0100874,-0.0107623
0.00354204,0.0054798
0.0102528,0.0169055
0.0058513,0.0212431
-0.0014957,0.0258428
-0.0177659,0.0556345
-0.00527819,0.0012172
-1.41e-05,-0.0368652
-0.00997608,-0.00858819
-0.0185493,0.00652211
-0.0206822,0.0170341
-0.000270942,-0.0141108
0.00904296,-0.0346414
0.00945593,-0.00416449
-0.00255035,0.0218906
-0.00709996,-0.0164754
-0.00188832,-0.0150395
-0.00204972,-0.00651801
-0.00236501,-0.00393607
-0.000421827,0.00340037
-0.000616906,0.00895045
-0.00478037,0.0198795
-0.00194382,0.0234638
0.00859828,0.0174988
0.0143979,0.00916522
0.0121306,-0.00565829
0.00725305,-0.0316488
-0.00776873,-0.0352818
-0.022742,-0.0159516
-0.033255,0.0059335
-0.0255472,0.00422302
-0.0196368,0.00331178
-0.0181291,0.0106909
0.0306016,-0.00207626
0.0400862,-0.0117816
0.013252,-0.00105396
0.00113577,0.00706341
-0.000290985,0.0140325
-0.00164949,0.0619481
0.0100815,0.0509453
0.0126793,0.0335023
0.00935133,0.0341665
0.0141436,0.00174163
0.0158753,-0.0949664
0.00703054,-0.130438
-0.0104541,-0.0412496
-0.0215733,0.0124863
-0.0185214,0.0158567
-0.0174465,0.0113892
-0.0231923,0.0185071
0.0132106,0.0221801
0.0392852,0.0206558
0.0336132,-0.0277973
0.00929778,-0.005244
0.00778502,0.000685085
0.00918319,0.00533934
9.01e-05,0.0224926
0.005157,0.00885671
-0.00826834,0.00354314
-0.0174183,-0.00930466
-0.0278432,-0.00479289
-0.0318395,-0.0298537
-0.0198575,0.00683715
-0.015205,-0.0053454
-0.0161902,0.0174684
0.0151068,0.00239456
0.0277772,-0.00391534
0.0340288,0.0142793
0.0107023,0.0483274
-0.0156083,0.121323
-0.00723418,-0.0369309
0.00298695,-0.131293
-0.00481378,-0.0179831
-0.00397896,0.00224447
0.00579294,-0.0227062
0.014158,-0.010088
0.018137,-0.00079737
0.00380007,-0.00943541
-0.0163282,-0.012124
-0.0221803,0.000873495
-0.0189531,-0.00477112
-0.00142301,0.000824094
0.0237288,0.0129591
0.0335586,0.00467748
0.0443233,-0.0103903
0.0246238,-0.00749096
-0.0142256,0.00133071
-0.0406618,0.0173315
-0.0333675,0.0314823
0.020404,0.00317597
0.0520207,-0.0143326
0.0241514,-0.0205463
0.00678489,-0.00575953
-0.000236817,0.00188462
0.0123226,-0.0080875
0.0134609,0.0226245
0.01688,0.031324
0.0341192,-0.0079185
0.0345933,-0.0271737
-0.0824382,-0.0088821
-0.13198,-0.00785223
-0.0826067,-0.00261949
-0.0386002,0.00320176
-0.0519631,0.00155731
-0.0408345,0.0157421
0.0126221,0.0357944
0.0275044,0.0322903
-0.0690294,0.0245729
-0.115109,0.00516157
-0.180384,-9.59e-05
-0.147389,0.0122503
0.0118939,0.0156051
0.0534896,0.0206716
0.171022,0.0131394
0.229693,0.00996342
0.136085,0.0265866
0.0681845,0.0309587
-0.0128685,0.00862734
0.0407829,-0.00671479
0.0860173,0.0135934
0.0647922,0.0273415
0.0519363,0.0425075
0.0811848,0.0201869
0.109473,-0.073656
0.112612,-0.108634
0.0402914,-0.0926015
0.0119824,-0.156631
-0.000518605,-0.220965
-0.048721,-0.208488
-0.120533,-0.19943
-0.199928,-0.154492
-0.260342,0.0253783
-0.14448,0.118449
0.115237,0.103728
0.184579,0.0588123
0.0951246,0.0652796
-0.0389795,0.126785
-0.1636,0.180846
-0.265042,0.231921
-0.291229,0.232342
-0.194161,0.185757
0.0668538,0.1775
0.233488,0.162394
0.259333,0.0721614
0.215875,-0.0629616
0.130494,-0.118831
-0.0210189,-0.151964
-0.040884,-0.250559
0.0236497,-0.308865
0.0615785,-0.245889
0.0634576,-0.141275
0.067109,-0.0503134
-0.0130701,0.0215581
-0.0629868,0.100292
-0.061262,0.154539
-0.0307773,0.161295
-0.062995,0.155854
-0.00887746,0.142644
-0.0207896,0.102749
-0.0718153,0.0289645
0.0059069,-0.011791
0.0306361,-0.0148189
-0.0648362,-0.0141253
-0.062355,0.0144687
-0.0176892,0.0653818
0.0061753,-0.0218383
0.0101788,-0.0975131
-0.0195712,-0.0934235
-0.032182,-0.0482166
-0.040341,-0.0652727
0.00545875,-0.162708
0.027382,-0.18402
-0.00527502,0.00568622
0.0270754,0.131335
0.109988,0.111395
0.192773,0.0273442
0.158783,-0.0170796
0.0561887,-0.0596637
-0.024961,-0.123683
-0.0586468,-0.0447733
-0.0647673,0.0903697
-0.100493,0.116591
-0.12806,0.103015
-0.101071,-0.0160786
-0.105361,-0.027593
-0.0646015,-0.0014717
0.0703275,0.0289755
0.0815261,-0.0512252
0.0246936,-0.0460295
0.040645,-0.0693042
0.0558676,-0.0940981
0.031619,-0.0457095
0.0111312,0.0149651
-0.00335259,-0.00201207
-0.012954,-0.00443968
-0.0142641,0.0724208
-0.0178872,0.140232
0.0458655,0.0264231
0.107925,0.0243208
0.0970512,0.0277852
0.0449193,0.0122982
-0.0757637,0.0149513
-0.238847,-0.00944202
-0.255694,-0.0276441
-0.150205,0.0015685
-0.00956714,0.0172246
0.115573,0.0364202
0.00407474,0.0305953
-0.054102,0.0114293
0.151278,-0.036333
0.29955,-0.0788304
0.259568,-0.0635225
0.0953803,-0.0138269
-0.11745,0.0480207
-0.19903,0.0616151
-0.13349,0.0292121
-0.0148466,0.0417657
0.11566,0.0262818
0.126825,-0.00749425
0.0986536,-0.0848768
0.045835,-0.100353
-0.106276,-0.0281255
-0.144196,0.0205266
-0.0559481,-0.0192373
-0.0480678,-0.00299956
-0.0780791,0.0673966
-0.0274193,-0.0627927
-0.00328456,-0.0558093
0.0333765,0.00148144
0.0509452,0.0174135
0.0461689,0.0115436
-0.0269744,0.00160093
-0.0859037,0.066305
-0.200784,0.0976868
-0.187015,0.0378705
-0.0428885,-0.000659995
0.131052,-0.0625904
0.273876,-0.0652376
0.19993,-0.0235528
0.142733,0.0154656
0.0463591,0.0313555
-0.0732608,0.00170145
-0.100432,0.0216297
0.0256015,-0.0448152
0.171143,0.0437079
0.0904093,-0.0028385
-0.0436788,-0.0686807
-0.0889964,-0.0424335
-0.0739046,-0.0144052
-0.0648344,0.0408656
-0.0462746,0.0338247
-0.0812054,0.00710869
-0.0557553,-0.0238796
-0.055245,-0.0554624
0.0318394,0.0319979
0.163391,0.0626702
0.0165181,0.0413298
-0.125489,0.062072
-0.217989,0.0283268
-0.203648,0.092866
0.0281665,0.0262825
0.32866,-0.047934
0.322712,-0.0788911
0.0847932,-0.0267663
-0.0907316,-0.0796964
-0.0786465,-0.0279822
-0.0169233,0.0469221
-0.0023245,-0.0470047
0.0383543,-0.0671326
0.0625491,-0.00710857
0.0486476,-0.0799674
-0.0156229,-0.0574753
-0.0487264,0.0204462
0.00279094,0.0202482
-0.00636282,0.000210077
-0.0172472,0.101628
-0.0715446,0.152034
-0.18461,0.0244867
-0.240613,-0.0725798
-0.11286,-0.0370205
0.197541,-0.0529015
0.246402,-0.0556946
0.0343156,0.00723
-0.133214,0.125026
-0.202954,0.0929008
-0.120982,-0.0812296
0.0212752,-0.158317
0.0884544,-0.0528051
0.0390444,0.00200394
0.0428698,0.0134529
0.105654,0.0511684
0.157565,0.0498351
0.190298,0.0159128
0.156205,0.0230755
0.10655,0.0450573
0.00789028,0.0468917
-0.0966467,0.0531691
-0.127901,0.0257764
-0.328469,0.00304741
-0.126737,0.00061185
0.0130578,-0.0188439
0.0827769,-0.0436057
0.106753,-0.0125814
0.0863809,-0.0694539
0.0262831,0.00900117
4.18e-05,-0.00934445
0.0467385,-0.0257893
0.0462073,-0.0462532
-0.00444064,0.0375676
-0.11066,0.0587764
-0.247429,-0.0375461
-0.275818,0.00972026
-0.0861237,-0.0208806
0.0561707,0.136544
0.0948084,0.0725062
0.0948382,0.0445074
0.00797872,-0.0279197
-0.0547495,-0.0795381
-0.00175275,-0.119437
0.152005,-0.0561423
0.227651,-0.0236673
0.14702,0.0234138
-0.0600391,0.0652928
-0.0200078,0.0513757
-0.0113522,0.0476
-0.0601488,-0.0640151
-0.123575,-0.0831149
-0.0826839,-0.0316235
-0.00746308,-0.0638267
0.0240944,0.0305614
0.0399516,0.116063
0.0846021,0.077697
0.129694,-0.0384689
0.114226,0.00159535
0.0481145,-0.00041408
0.00974361,-0.0492692
-0.0638959,-0.0675416
-0.203108,-0.0283855
-0.245982,0.0381556
-0.127218,0.0582812
0.0594228,-0.0134969
0.1584,-0.0032598
0.131587,0.0484698
0.0760993,0.0928749
-0.0533404,-0.00761279
-0.136595,-0.0285093
-0.0371238,-0.0591204
0.036845,0.00570117
0.0542442,0.010688
0.0429004,0.0569218
0.0310144,-0.0277969
0.00721112,-0.0815414
0.00225768,-0.0612746
-0.0164846,0.0114966
-0.0396052,0.20145
-0.00594868,0.134604
0.0301146,-0.165875
-0.000592166,-0.262962
-0.0479177,-0.0789313
-0.101604,0.0122588
-0.0769948,0.0179526
0.0452975,0.00992523
0.0803795,0.0733415
0.00999109,0.151379
0.0399443,0.0337866
0.181833,-0.036705
0.187454,-0.0628793
0.12087,0.0429542
0.0489035,0.00142906
0.00320612,-0.105052
-0.102653,-0.0444059
-0.128202,0.0417333
-0.122401,0.0201657
-0.139527,0.014172
-0.110637,0.0265607
-0.00450922,0.0294932
0.027991,0.0929453
0.0447629,-0.0542605
0.033038,0.0108023
-0.0192154,0.101574
-0.00736921,-0.029006
-0.00519483,-0.103611
-0.0586689,-0.108391
-0.0993237,-0.0076765
-0.123144,0.0452227
-0.0898098,0.0540688
0.0286026,0.0271347
0.0751723,-0.0613285
0.0404085,-0.0399163
0.0906195,0.00385517
0.109791,0.00618313
0.140592,0.0081959
0.0952105,0.0125831
0.033243,0.0160534
0.0229697,0.0185524
0.0279059,0.0137231
0.0152499,0.00855904
-0.0302339,0.00449011
-0.141243,-0.00245901
-0.144408,-0.0209073
-0.0257582,-0.0308492
0.0887405,-0.0331995
0.101334,-0.0137798
0.0849582,0.020285
0.0847122,0.0215692
0.0232274,0.0198367
-0.0653863,0.0166498
-0.0869113,0.0214036
-0.142064,0.103231
-0.165898,0.00810069
-0.125071,-0.0403352
-0.0488938,0.0117447
0.0562249,-0.0121314
0.0668371,0.00766719
-0.0541073,0.0219928
-0.068661,0.0484391
0.0113886,0.0407863
0.0100063,-0.00506023
0.0616292,-0.112572
0.138151,-0.0684916
0.123773,-0.0640046
0.0495911,-0.0150418
0.0110267,0.0281796
0.0404367,-0.00758448
0.0912521,-0.023512
0.154141,0.0307004
0.130436,0.053739
0.0595026,0.0584623
-0.0714095,-0.0237284
-0.213041,-0.012719
-0.215006,0.0419608
-0.0635692,-0.0625606
0.000157564,-0.0263521
-0.000409539,0.0260614
-0.00371776,0.00674732
-0.0026769,-0.00714504
-0.020671,-0.0497757
-0.0496095,0.000864082
-0.0588692,-0.00398349
-0.0423744,0.0331512
-0.0393231,0.093046
-0.0120015,0.000781785
0.0791262,-0.11465
0.0107117,-0.0313376
-0.0637672,0.053064
-0.0157198,0.00370119
0.0877332,-0.00698062
0.0976664,0.0487355
0.0423026,0.0343188
-0.00528386,-0.074213
-0.0360533,-0.0520335
-0.0309553,-0.0141914
-0.0354976,-0.0643165
-0.0284872,-0.0665779
0.00192319,0.00382901
0.0357031,0.0285278
0.103247,-0.0078947
0.13132,-0.0179656
0.0380472,0.00607228
-0.0152534,0.00387964
-0.032727,0.0091832
-0.00349898,0.00154162
0.0354733,0.0244753
-0.0371385,0.0335329
-0.0825882,0.0290713
-0.0455629,0.0416332
0.0651876,0.0131977
0.0752122,-0.0139163
-0.0343453,-0.00469177
-0.038367,0.0413803
-0.0781974,0.0629602
-0.0744426,0.018078
-0.00264312,-0.0328153
-0.000842648,-0.00102985
-0.0223457,0.0696969
-0.033905,0.029241
-0.0251441,-0.0789559
0.0348468,-0.00678418
-0.0097932,0.0760076
-0.0446085,0.0287107
0.015155,0.0412894
0.0925039,-0.0217843
0.0880131,-0.0301079
0.097472,-0.022656
0.0809643,0.0086432
0.0155313,0.0886115
-0.0133862,0.0188732
-0.119319,-0.134781
-0.108248,-0.0851597
-0.0350696,-0.0359602
-0.0614684,-0.0753969
-0.0221263,-0.0949811
0.112361,-0.0558908
0.15871,0.0659132
0.0721677,0.0551936
-0.0293101,-0.0412072
-0.0893169,-0.00235399
-0.0573169,0.031138
-0.0107331,0.018777
-0.0206981,0.0183112
-0.0316448,0.0130129
0.000815113,-0.00828757
0.0282886,0.00772552
0.0280005,0.0162127
0.0108104,0.0286025
-0.0127943,0.0349852
-0.0242101,0.0240869
-0.0139768,0.0153631
-0.0590972,0.00271493
-0.094516,-0.0108703
-0.0367566,-0.0103815
0.0158804,-0.0167835
0.0289942,-0.0148911
0.0668283,0.0176707
0.0876528,0.0141082
0.0768078,0.0131935
0.0576531,-0.0321377
0.0200097,-0.02817
0.00337025,-0.00614013
0.0131977,0.00131221
0.0168941,0.0284084
-0.0641702,0.067139
-0.126305,0.0371261
-0.0782466,-0.047327
-0.0545318,-0.0484695
0.0121,0.00688578
0.133068,0.0120986
0.122418,0.014465
0.023103,0.0454985
-0.069121,0.00207448
-0.041064,-0.0162766
-0.0137829,-0.0213652
0.0250813,-0.0323884
0.041568,-0.0605036
0.00321152,0.0247602
0.00449382,0.000222767
-0.0015339,-0.0023701
-0.0183669,0.0335923
-0.0307314,0.0398312
-0.044705,0.0148079
0.0237711,-0.0360008
0.0318322,-0.0153372
-0.0787513,0.00944854
-0.0610886,-0.00640351
-0.00580737,-0.00975637
-0.000932398,8.81e-05
0.0162546,0.0106185
0.0712972,0.026087
0.109704,-0.0149214
0.117607,-0.0245541
0.0667223,-0.0158973
-0.00238186,-0.0284068
-0.0668061,-0.0253569
-0.11644,-0.00517956
-0.06895,0.0131452
-0.00960359,0.00430457
0.0208927,-0.00803125
0.00750826,-0.0178715
-0.00485975,-0.0195152
-0.0165489,-0.0186725
-0.0756859,0.00215843
-0.113232,0.0298059
-0.0916248,0.0145247
0.0115995,0.0152329
0.0579609,0.0412349
0.0360685,-0.0327096
0.0081671,-0.0336109
-0.0643985,-0.0230486
-0.026734,-0.0162333
0.0820304,-0.00701468
0.0730183,0.0415635
0.0622878,0.0655372
0.0775617,-0.00034662
0.0168168,0.0350137
0.0150707,0.0812915
0.0520596,0.000432933
0.0505867,-0.0694305
-0.0289152,-0.117337
-0.105075,-0.0451653
-0.0416049,-0.032142
0.0247305,0.00212256
-0.00202955,0.0552098
-0.011599,0.0628845
0.0141546,0.0194619
0.0387069,-0.028705
0.00373401,-0.00783364
-0.0186505,0.000321379
-0.0112143,0.012627
0.0274364,0.00829087
0.00933123,0.0330642
-0.00176894,0.0315558
-0.0251849,0.0415379
-0.0341174,0.0230063
-0.0139226,-0.019887
-0.0306276,-0.00899923
-0.0605271,-0.00683547
-0.0545028,0.00594279
-0.0148009,0.00186519
0.0121656,-0.00371998
0.0290796,-0.00473293
0.0426651,-0.0047434
0.00730114,-0.0188407
0.00632194,-0.0224867
0.00255295,-0.0158356
-0.009183,-0.0024647
0.000873186,0.0331301
0.0047337,0.0202761
0.0214678,0.00408569
0.0731033,-0.00889606
0.0888749,0.0108333
0.0379312,0.00611181
-0.0115226,-0.0509065
-0.0411731,0.00359318
-0.0666438,0.0690276
-0.0564967,0.00739475
-0.0342791,-0.0286719
-0.0129743,-0.0363154
0.0191866,-0.0365267
0.0318439,-0.0155374
-0.00255572,0.00133058
-0.0237659,0.00786925
0.00168198,0.0436097
0.0105729,0.00498376
0.0304042,-0.026995
0.0544843,-0.0274829
0.0247139,-0.0707982
-0.0404171,-0.0367617
-0.0706113,0.047671
-0.00809236,0.0492375
0.0313613,0.0184369
0.0147218,-0.000216981
0.0114597,0.00228754
-0.034349,0.0366818
-0.0551127,0.0362761
-0.0127527,0.00999326
0.00965971,-0.0340686
-0.0155792,-0.0562522
-0.011303,-0.0199034
0.0195949,-0.00552258
-0.0170437,0.00513119
-0.0101954,0.0238086
0.0115309,0.0126199
-0.0168302,0.00343005
0.0504245,-0.0151467
0.0976253,0.0263185
0.124911,-0.00770553
0.0934732,-0.0152364
-0.0280504,0.00987027
-0.0899788,0.0175082
-0.0383142,0.0210113
-0.000627804,0.00366392
-0.0443502,-0.0257092
-0.03074,-0.00741502
0.0479532,-0.0113926
0.0533468,-0.0211719
-0.0942168,0.016808
-0.164873,0.0459675
-0.119239,0.0176958
-0.0248803,-0.0192696
0.0241509,-0.00472148
0.100474,0.00442979
0.0958185,0.0132804
0.0336338,-0.0347013
-0.0416079,-0.0408391
-0.0405685,0.00592695
0.0776618,0.0109815
0.0672358,0.0539632
-0.0414881,0.085016
-0.127209,-0.0108828
-0.0972838,-0.0531831
-0.0101115,-0.0434338
0.0825003,-0.0353889
0.124269,-0.0139241
0.120118,-0.00350515
0.0733289,0.000202974
-0.00476181,-0.027217
-0.0567979,-0.0138705
-0.113257,0.0163156
-0.110187,0.00639874
-0.0971181,0.0204891
-0.0824651,0.0453899
-0.0246713,0.0385667
0.074437,-0.0579528
0.215946,-0.0476589
0.291618,-0.0223504
0.231413,0.00873276
0.052574,0.0128308
-0.107859,0.0220879
-0.123281,0.0120126
-0.100287,-0.0112145
-0.0870644,0.00839753
-0.0548486,-0.0353017
-0.017472,-0.0488989
-0.0300038,0.0220238
-0.0319536,0.0543862
-0.0420343,0.0259807
0.0233286,0.00622308
0.0757805,0.0160299
0.0860772,0.03478
0.0634659,-0.0431596
-0.0133886,0.00269456
-0.110052,-0.0251723
-0.166948,-0.00185949
-0.104187,0.0042197
-0.0397204,-0.00560854
-0.0143593,0.0312189
0.052938,-0.00243272
0.123903,-0.0113278
0.0816588,0.017226
0.0122339,0.0175116
-0.0249481,-0.025238
0.00178865,-0.0434462
0.0336899,-0.0186581
0.00426022,0.0156763
-0.00711092,0.0293307
-0.00923563,0.0197633
-0.0687399,-0.0185075
-0.0818892,0.0131561
-0.0268212,0.0469074
0.0384597,-0.0351218
0.0300456,-0.000457129
0.017497,0.0228272
0.025185,0.0351989
0.0346163,-0.0316241
0.0236366,-0.0361273
-0.0100604,-0.01731
-0.0252854,-0.00246675
-0.0155046,-0.00628985
-0.00430592,-0.00693189
-0.00381767,0.0304026
-0.00186622,0.0110694
-0.00123813,-0.0012542
0.00180432,0.0065563
-0.000208677,0.0117539
0.00321573,-0.0130408
0.0112472,-0.0107042
0.00966387,0.0184052
0.00557394,0.0372104
0.00794172,0.0667856
0.00694249,-0.0302573
-0.0118473,-0.0702488
0.000526065,-0.0198076
0.051022,0.00759969
0.0598593,0.0194928
0.0160409,-0.0417817
-0.0363911,-0.0401481
-0.0303771,-0.0197967
-0.00511403,0.0214177
0.0484253,0.0310197
0.0708942,0.0180324
0.0123863,-0.0126916
-0.0484736,-0.0135183
-0.0752167,0.0203937
-0.0302667,0.0267319
-0.0392629,-0.0223986
-0.0454018,-0.048015
0.00992105,-0.0159386
0.0471323,0.0168387
0.00450989,-0.00433186
-0.0749197,0.00150453
-0.0703293,0.00295314
-0.0345642,0.00410762
0.0321306,-0.0159573
0.0456223,-0.00920964
-0.0245547,0.00771783
-0.00907222,0.00882024
0.0409108,0.0247291
0.0675471,0.0148483
0.021277,-0.00806582
-0.0539968,-0.00668472
-0.0178294,0.013557
0.0394547,-0.0163498
0.0310532,-0.0188878
0.0377301,-0.00531026
0.0458359,-0.00704317
0.0362525,0.0271452
0.0327947,0.0214031
0.111157,-0.0182216
0.10042,-0.0378213
-0.0570844,-0.00522637
-0.135719,0.0189883
-0.110555,0.0205898
-0.0451805,0.0282032
-0.0378609,0.00396877
-0.00917921,0.00126411
-0.0114407,0.00405247
0.0192414,0.00397452
0.00569107,0.00689188
-0.0513413,-0.0279546
-0.0484303,-0.0337517
-0.0423741,-0.0113019
0.000669121,-0.014459
0.0393875,-0.0103839
0.075988,-0.00875597
0.0578959,-0.0170046
0.0280685,-0.0102789
0.0329544,0.0321252
-0.0049311,0.0595649
-0.079869,0.0911049
-0.0881788,0.00875755
-0.069441,0.0121671
0.0159174,0.0458681
0.0755869,0.019354
0.0901875,-0.0219685
0.036261,-0.0536871
0.012446,-0.0556626
0.00803567,0.0189084
0.0145263,0.0136293
-0.0164486,0.0329448
-0.0344028,0.041398
-0.0208462,-0.0503303
0.0268389,-0.0830365
0.0531811,-0.0132451
-0.0384996,0.0294944
-0.129311,0.0872653
-0.126686,-0.00271632
-0.0200895,-0.025593
0.128264,-0.00872967
0.0978775,0.014798
0.0457888,0.024914
0.0244351,-0.0235315
0.0332136,-0.0750018
0.0177724,-0.0299685
-0.0305222,-0.000290387
-0.00444428,-0.0302021
0.0580808,0.00231803
0.107609,0.0206929
0.0858535,0.00840343
-0.0473449,-0.0214976
-0.16361,-0.0199317
-0.161668,0.000154786
-0.0932493,-0.000465938
-0.0591699,0.0103519
-0.0158043,-0.014552
0.0344856,-0.0397451
0.0598771,0.00401917
0.0496045,0.0501389
0.0348067,0.0246199
0.0158613,0.00959068
-0.030562,0.0300423
-0.0378626,0.0403477
-0.00132933,-0.0273538
-0.00570055,-0.0248017
-0.0066154,-0.00881387
0.00430198,-0.0220311
0.00892222,-0.0111984
0.0670841,-0.0488494
0.127027,0.00320959
0.108661,0.0150802
0.0339151,0.00432735
-0.0605019,0.00480829
-0.0450006,0.00806562
-0.0564343,0.0424401
-0.117959,0.0536275
-0.0698343,0.0503629
-0.0229242,0.00744652
-0.000390141,-0.00426339
-0.0269362,0.00776408
-0.0244969,-0.0402491
0.0200103,-0.0367992
0.0761268,-0.0231914
0.0409818,0.00323699
-0.0320754,0.0116201
-0.0149973,0.0049592
0.0379211,-0.0170152
0.0880547,-0.0214797
0.109801,-0.00127027
0.0978386,0.0128509
0.0335587,0.0189319
-0.03415,-0.0148873
-0.0743255,-0.0252141
-0.0383047,0.0267916
-0.039725,0.0522047
-0.0480844,0.0431108
-0.0777277,0.0343092
-0.0510165,-0.0141684
0.00305597,-0.0762252
-0.00224437,-0.0499237
-0.00636683,-0.00829634
-0.0372149,0.00190324
0.0175943,-0.0160687
0.0497739,-0.0259745
0.0288798,-0.00909519
0.00406307,-0.00104615
0.00858766,-0.00516587
0.034982,-0.0032642
0.0184166,0.0137659
-0.0118884,0.00222156
-0.0122615,0.0132162
-0.0195745,0.0150672
-0.0198251,-0.00281205
-0.0046541,-0.00254864
0.00602912,0.0118557
0.0203541,0.0176953
-0.00896489,-0.0194598
-0.0299168,-0.0379037
-0.0367201,0.0997245
-0.00162588,0.0493745
0.0477765,-0.0502898
0.024246,-0.0312775
-0.0191917,0.0287351
-0.0266321,-0.0249931
-0.0356996,-0.0673181
0.00790929,-0.04969
0.0338003,-0.0137645
0.0188069,0.0671223
0.00372161,0.0713449
-0.0214183,0.00912514
-0.00560595,-0.01039
-0.00404824,-0.00559172
0.00619709,-0.00340057
0.0540877,-0.0149928
0.0821522,-0.0288421
0.0613505,-0.00980927
-0.00597824,0.0253993
-0.046577,0.0244072
-0.0555529,0.0149092
-0.0553092,0.00789491
-0.0646304,-0.00147473
-0.000801056,-0.000195992
0.0189198,0.0171409
0.0159773,0.0337177
-0.022536,0.00818608
0.0411218,-0.0177387
0.0975241,-0.00973577
0.0224707,0.0220324
-0.0709679,-0.0221861
-0.105394,-0.0294821
-0.0815368,-0.0236111
-0.00209173,-0.0184496
0.160331,-0.00551291
0.13755,-0.00849371
0.0388795,0.00776805
-0.00306413,0.0176026
-0.0207942,-0.000236996
-0.0394228,0.00286423
-0.0395443,-0.0524074
-0.0228086,0.0132519
-0.0330979,0.0710288
-0.00212303,0.139464
0.0785214,0.0137233
0.0521077,-0.109118
-0.00866996,-0.0454667
-0.0224296,0.0026843
-0.0556994,-0.0199017
-0.121126,-0.0104408
-0.156942,0.0174275
-0.119672,0.0164666
-0.0564448,-0.00582338
0.0634026,-0.0200143
0.112361,0.000725859
0.140152,-0.0251666
0.119623,-0.028703
0.0640521,-0.0415913
0.0109287,-0.0300071
-0.00999609,-0.00126445
-0.0409413,0.00629144
-0.0592447,0.00139097
-0.0736554,0.00573865
0.0155318,0.0314555
0.00980511,0.0310445
-0.0066934,0.0269844
0.0230882,0.0326019
0.0490636,0.0150993
0.0360541,0.00120011
0.00555759,0.0206349
0.0102508,0.0334413
-0.0149192,-0.0409284
-0.0114078,-0.0222937
0.0376847,-0.0239272
0.0231301,-0.0127759
-0.0215159,0.016625
-0.01416,0.006411
0.0125219,-0.0394852
0.000462108,-0.006819
-0.0224633,-0.0132099
-0.0332734,0.0233669
-0.0418662,0.0646129
-0.0054352,0.0262698
0.0107058,-0.0116862
-0.0112992,0.0142352
-0.00611885,0.000469121
0.00350661,-0.0275481
-0.0530358,0.0107778
-0.0418611,0.0730678
0.0232535,0.0541439
0.105374,-0.071243
0.0671803,-0.0538491
0.0385813,-0.0603859
-0.0313676,-0.0582238
-0.0758739,-0.00300724
-0.0560811,0.0143274
-0.0740756,0.0190372
-0.0776519,0.0166723
-0.0205026,0.0076621
0.05042,0.00884194
0.0256765,0.0158747
0.0538981,0.0348555
0.0987526,0.0158506
0.0769608,0.0147728
0.00886996,-0.0201524
-0.017745,-0.0718922
-0.00625167,-0.0217824
-0.0465661,-0.0138045
-0.0839925,-0.00324946
-0.0164775,0.00951482
0.0828989,-0.00444006
0.117916,0.0352556
0.0503066,0.0303204
-0.0261612,-0.023555
-0.0867634,-0.0250342
-0.0620255,0.000881983
-0.0102208,0.0282574
-0.0303244,0.0696439
-0.0371881,0.0216114
0.0361878,-0.05512
0.0379201,-0.0359297
0.00531753,-0.0154065
0.000583785,-0.00663511
0.0309827,0.0037848
0.0684924,-0.0366478
0.043929,-0.00965669
-0.0126463,-0.0033487
-0.0838144,-0.000125694
-0.0769973,0.0197367
-0.0335855,0.0111017
-0.00736395,0.00288086
0.0125317,0.0126015
0.0324968,0.0189485
0.0308888,0.0244012
0.00897044,0.0246725
0.0115194,-0.00895757
0.0163883,-0.0147342
0.00733729,-0.0122782
-0.0443823,0.00399683
-0.0912267,0.0030896
-0.083565,-0.0503434
-0.0553078,-0.0650302
0.0403597,0.0101367
0.0826237,0.0719929
0.0726015,0.0509026
0.080542,-0.0158787
0.0940577,-0.0360788
0.0824057,-0.00550323
0.0527165,0.013304
-0.0351684,0.0185735
-0.101292,0.0121338
-0.122591,0.0150372
-0.116368,0.027339
-0.0852823,-0.0490182
-0.0399687,-0.0292722
0.0313425,-0.00515402
0.0836878,-0.0205641
0.0674302,-0.0628895
0.0128995,0.0467798
-0.0577702,0.0432808
-0.0463755,0.0203427
0.0556226,0.0086623
0.0684633,0.00541016
0.0174666,-0.000772649
-0.0272482,-0.0139293
-0.025837,-0.00794891
-0.00692231,0.0141033
0.0297258,0.00820014
0.0549839,-0.0229142
-0.010462,0.00192361
-0.0355806,0.0100029
-0.0304456,0.0186003
-0.0300867,0.0266686
-0.0310506,-0.0197497
0.0652877,-0.029185
0.145495,0.0060874
0.125234,0.00889079
0.0830074,-0.00680674
-0.00940731,-0.0277812
-0.0987332,-0.0129453
-0.156112,0.0198115
-0.0859376,0.00575599
-0.0162925,0.00413074
-0.033444,0.0409395
0.0207545,-0.00813175
0.0168427,-0.0646539
-0.0109075,-0.0147299
-0.0103809,-0.0130661
-0.0085312,0.00539087
0.00610963,0.0468606
0.0441869,0.0131814
0.0179391,0.0414893
-0.0346219,-0.00729554
-0.0540082,-0.00617152
-0.00361355,-0.0111646
0.0165717,-0.0435854
-0.0036106,-0.0164345
-0.0426715,0.0220574
0.0148409,0.029416
0.0563347,0.0267397
0.0429402,-0.0256805
0.0227693,-0.00976247
0.0418262,0.0016227
0.0525242,-0.00319406
0.0956745,-0.00838438
0.0536291,-0.0174191
-0.0535276,-0.0288107
-0.1437,-0.0173768
-0.146168,0.0273889
-0.0487167,0.0197804
0.0531765,-0.00672574
0.065169,0.000698876
-0.0139036,0.0250933
-0.0347985,0.0406539
-0.0321788,0.00035918
-0.0081773,-0.0403174
0.0366185,0.00777824
0.0366755,0.0421871
0.0239419,-0.000250614
0.0227572,0.00235816
-0.00130404,-0.00739876
-0.0286174,-0.0276004
-0.0230452,-0.0259577
-0.00353234,-0.0191958
-0.00842815,0.00569062
-0.00852716,0.0251374
0.0424896,0.0102858
0.108101,-0.00337639
0.135828,0.021246
0.0625369,0.0475541
-0.0951822,0.00248616
-0.15102,-0.0446817
-0.0988393,-0.0465759
-0.0258049,-0.0247627
0.00832004,0.0167223
0.0195873,0.0144294
0.0214515,0.0139457
0.014211,-0.0252862
0.00900912,-0.0283638
0.0167796,-0.01314
0.0163611,0.0274904
0.021342,0.0192128
-0.0162215,-0.0134815
-0.0585462,0.0507453
-0.0432966,0.0256524
-0.00505718,-0.0238399
0.0284591,-0.0270539
0.0412899,0.0173892
0.0112706,0.0309753
-0.0556785,-0.0089093
0.00263333,-0.0187483
-0.0133281,-0.022202
0.0149325,0.0117955
0.0188147,0.00105914
-0.0209464,-0.00929695
-0.00661126,-0.0311277
0.0393205,-0.0096625
0.0665466,-0.00178073
0.0479591,0.0223025
-0.00273877,0.0222485
-0.0227566,0.0361466
-0.0225541,-0.00794805
-0.0279654,-0.0547837
-0.0254987,0.0688274
0.00855937,-0.0344116
0.0800285,-0.0596997
0.113835,0.00398804
0.0917367,0.0285995
-0.0348899,-0.00619201
-0.133577,-0.038416
-0.10904,-0.0242294
-0.0657772,0.00574005
-0.0237969,0.0057958
-0.0128517,0.0109041
0.0081941,-0.00452091
0.00205426,0.00416726
-0.021671,0.039405
-0.0246741,0.0364121
0.00250288,0.0259039
0.0303457,0.00679404
0.02928,-0.00999252
0.0702806,0.0148096
0.0674055,-0.0183571
0.00836541,-0.0202736
-0.0954067,-0.00215639
-0.0825609,0.0121244
0.0209855,0.0189181
0.0372807,0.00193669
-0.00522009,-0.0494565
0.00954197,-0.0563299
0.0735867,0.00467491
0.0496295,0.0226895
-0.024162,0.0231217
-0.0584418,0.00739042
-0.0580195,0.0153246
-0.0348726,0.00508976
-0.0130271,-0.0240388
0.0276985,-0.00641388
0.0495414,0.0365197
0.0249878,-0.0148141
-0.00734074,0.000244106
0.00211199,0.0490544
0.0797862,7.16e-05
0.0796242,-0.0483532
-0.0085984,-0.020366
-0.0710836,-0.0100443
-0.0558319,0.00848281
-0.0268854,0.0254545
-0.038544,0.0253418
-0.0406634,0.0397037
0.00169956,-0.014123
0.00446532,-0.0524126
-0.00730135,-0.0253053
0.00860911,-0.0117359
0.0214667,-0.0163701
0.0270231,-0.0199954
0.0198272,-0.00294822
0.0111926,0.0291646
-0.00395074,0.0352752
-0.0200418,0.0219739
-0.0227659,-0.0176397
-0.0210198,-0.0258937
-0.00781565,-0.00179626
-0.00105625,0.00351272
0.0512731,0.0493335
0.0928668,0.00369735
0.0915483,-0.0356894
0.0543302,0.000172392
-0.0317624,-0.0150067
-0.0930532,-0.0157013
-0.0246631,-0.0261684
0.00182106,-0.0316877
-0.0208535,-0.000517235
-0.0169938,0.0474165
-0.0246112,0.0186631
-0.0376715,0.00552977
-0.00906849,0.0322988
-0.0141439,-0.0197449
-0.0153584,-0.00508301
0.0169102,0.0383846
0.0816031,0.0118498
0.111582,0.00547743
0.0438753,-0.0139217
-0.103696,-0.0164935
-0.141861,-0.0191308
-0.0349888,-0.0120501
0.0163569,-0.00981022
-0.0360677,-0.00495799
-0.0332035,-0.0144119
0.0643818,0.00153384
0.0839594,0.029245
0.03076,0.0282273
-0.00543998,0.0196926
-0.0115282,-0.00552513
-0.01358,-0.0208586
-0.0175705,-0.0104158
-0.0193431,0.0173056
-0.0119879,-0.00929611
-0.00755549,-0.00841972
0.0128313,0.0320381
0.0483594,0.0193756
0.0528904,-0.0135231
-0.000897029,-0.0151111
-0.0374569,-0.0123376
-0.0356098,-0.0161004
-0.0162192,-0.0171015
0.00876557,0.00417341
0.0338878,0.0186383
0.059631,0.0191373
0.0349653,0.00791307
-0.0454576,-0.00781099
-0.0459898,0.0354359
-0.000648217,0.0341616
0.0184822,-0.0353498
0.0146075,-0.0100654
-0.0241885,0.00264945
-0.0339894,0.0160496
-7.1e-05,-0.00584422
0.026434,-0.0170823
-0.0459874,-0.0107033
-0.0509781,-0.0209857
0.0310612,-0.0336756
0.0811325,0.0130544
0.0476046,0.00765086
0.0390224,-0.0146072
0.00699138,0.0116462
-0.0340683,0.023407
-0.0727536,0.00968063
-0.0474593,-0.0109618
-0.0407621,-0.0386061
-0.0553499,-0.0162291
-0.0541422,0.0172642
-0.0329175,0.015627
0.00304058,0.00990075
0.0343834,-0.0199636
0.0332629,0.0548445
0.0492597,-0.0105557
0.0369691,-0.0600902
0.0181827,-0.0334839
0.0309714,-0.0125746
0.0643364,0.00913943
0.105519,0.0376322
0.110685,0.0360848
0.067551,0.0170479
0.00784632,0.00160579
-0.073055,-0.0116326
-0.175906,0.00745082
-0.151806,0.00668035
-0.0899813,-0.00118128
-0.0388632,0.0110392
-0.0610219,0.0203699
-0.0249145,5.51e-05
0.0288374,-0.0481879
0.0841232,-0.0209632
0.157258,-0.00621295
0.149689,-0.0246385
0.0456897,-9.61e-05
-0.0381336,0.0133444
-0.0232813,-0.00179333
0.0213241,0.0179966
-0.0171179,0.0142716
-0.0727187,0.000818791
-0.0837401,-0.0191184
-0.00744203,-0.00279774
-0.0074635,0.0160483
-0.0344011,0.0184408
-0.00190004,0.0155166
0.0321037,0.00809409
0.0263082,0.0129913
0.00318026,0.0105205
0.00128735,-0.0292247
-0.0060212,-0.0358815
-0.00555369,-0.0334543
-0.000249273,0.00183257
-0.0122794,0.0326611
-0.0227688,0.0116495
-0.019898,0.00100417
-0.0155292,0.00712094
0.00996251,-0.00683575
0.0345282,-0.0199159
0.0318382,0.0150296
0.0224239,0.0219351
0.0261874,-0.00218261
0.07241,0.0174463
0.0896178,-0.0147073
0.051199,0.000764954
-0.0383622,0.0179774
-0.0762668,-0.0152154
-0.0587888,-0.0298019
-0.0400503,-0.00814053
-0.0239006,0.00890369
-0.0166788,0.00820294
-0.0339195,-0.00955702
-0.0503988,0.000891648
-0.0588171,0.0124622
-0.0605083,-0.0150294
-0.0398476,-0.0183447
-0.021308,-0.0136118
0.0400856,-0.00144179
0.063205,0.0206692
0.0518031,0.0230866
0.0577888,-0.00522892
0.090643,-0.0053665
0.0584126,0.0236204
0.026596,-0.00566327
0.0123682,-0.0155967
-0.0297552,-0.0132809
-0.0134681,0.00912935
-0.0158305,0.0477518
-0.0277985,0.0189739
-0.000726743,-0.0279978
-0.0150544,-0.0249548
-0.0293236,-0.0203034
-0.0331223,-0.00456184
0.010542,0.00064145
0.0342021,-0.00853649
0.00995145,0.0125165
-0.0112443,0.0496571
0.0195236,0.0073835
0.014419,0.0285865
-0.022636,0.00175527
-0.0565271,-0.0635944
-0.0796805,-0.0328584
-0.0317879,0.00776529
0.0702623,0.00972578
0.0836251,0.0392608
0.0535163,0.0920319
0.0278348,0.00365421
0.0270612,-0.0694266
0.00595901,-0.0442102
-0.047025,0.0268883
-0.045705,-0.0281725
-0.0239973,-0.0274865
-0.0201431,0.0561563
-0.0356189,0.000487529
-0.0251567,-0.0385519
-0.0161423,-0.0306215
-0.0333523,0.00413154
-0.0136104,0.0370601
0.018532,-0.00646393
0.0293734,-0.00651069
0.0703821,0.0157052
0.153298,0.0295445
0.173153,0.0132199
0.0843673,-0.0820807
-0.078082,-0.025989
-0.128797,-0.0194583
-0.146231,-0.0105618
-0.14351,0.0292828
-0.0615481,3.17e-05
0.0183483,-0.00478517
0.024993,0.00387337
0.0221583,-0.0096908
0.0147454,-0.0114727
0.00831539,-0.00639278
0.00544968,-0.0104901
0.0080205,0.0123868
0.00355829,0.0157626
-0.0136016,-0.00110911
-0.0367385,-0.00503834
-0.00469047,0.00759274
0.0346682,-0.0142107
0.0282154,-0.00561289
0.0258399,0.018226
0.0261948,0.0171684
0.0105026,0.0329323
0.0205404,0.0569825
-0.00463025,0.0426907
-0.000752792,4.48e-05
0.0447448,-0.0187278
0.0214628,-0.00528987
-0.022236,0.0105275
-0.0327279,-0.00968707
-0.0260671,-0.0474933
-0.0483455,-0.0382365
-0.0726605,0.00543725
-0.00548499,0.0241573
0.171366,0.00571515
0.258532,0.0471312
0.121997,-0.0325989
-0.131591,-0.0486243
-0.197509,0.0160247
-0.0855462,0.0689198
0.00360879,0.0310698
-0.0115909,-0.034185
-0.0310559,-0.0099642
-0.0245653,0.0201748
-0.0399687,-0.0231866
-0.0245665,-0.061742
-0.0218413,-0.0196703
-0.0168263,0.0520749
-0.0319616,0.0315155
-0.0446946,-0.00450073
0.00996976,-0.0443141
0.0423272,0.0104228
0.0575276,-0.0336148
0.0364153,-0.0273205
0.0321336,0.00268542
0.0490042,0.00728444
0.0599329,0.00917409
0.0517793,0.0179606
0.0668599,0.0177919
0.046237,-0.0154842
-0.0517403,-0.0487778
-0.0363611,-0.0479225
0.0644332,0.0169273
0.124865,0.0579348
0.0568413,0.0489838
-0.166784,-0.0260782
-0.247895,-0.0499891
-0.192907,-0.0013757
-0.0509395,0.0244479
0.0551877,0.0139255
0.0691383,0.000660271
0.0762173,-0.0132719
0.0363343,-0.00165329
-0.00236293,0.0330246
-0.0156888,0.0416969
0.00313195,0.00555916
0.0409594,-0.0282435
0.0338786,0.000320839
-0.0132529,0.0239996
-0.0471123,0.00532022
-0.0349889,-0.00130928
0.00541768,-0.0135856
0.0376473,-0.0409823
0.0391083,-0.0126058
-0.00106315,0.00184235
-0.0463817,0.00243205
-0.0444601,0.0228185
-0.033336,0.0130096
0.0334638,-0.020423
0.056334,-0.0190905
0.00496692,0.052487
0.00569506,0.0334384
0.0379768,-0.0164027
0.0398935,-0.0148637
0.0149619,-0.00703112
-0.00610018,0.00366001
-0.0176589,0.00138396
-0.0248897,-0.0292235
-0.0419896,-0.0375198
-0.0239363,0.00986123
0.00250004,0.032252
-0.0320713,0.0126583
-0.0175301,0.0103421
-0.0015756,0.0197848
0.0207344,0.0175828
0.0536566,0.0139597
0.0177292,0.00668529
0.0340864,-0.0110658
0.0840084,-0.0281751
0.0689849,-0.0179889
-0.00480978,0.00751234
-0.103177,0.000130562
-0.141642,-0.0496868
-0.187584,-0.039812
-0.111469,-0.000272747
0.036905,0.0193752
0.121944,0.0231949
0.133948,0.0225873
0.0924125,0.0101273
0.0669592,-0.00704456
-0.00177077,-0.0302187
0.0139971,-0.046198
0.0493518,-0.0382161
0.0815271,-0.0390107
0.0254112,-0.0274446
-0.0540617,-0.0184546
-0.137348,-0.00072352
-0.0962053,0.0530603
-0.0187219,0.0697639
-0.00145695,0.0529557
-0.005298,0.0202558
0.0176827,-0.0001991
0.0820247,-0.00598995
0.0611701,-0.00734945
0.00722336,-0.0515137
-0.00506018,-0.0141631
-0.0257175,0.0301324
-0.0164188,0.0126626
0.00803248,0.0394915
0.0219148,0.0679311
0.00482744,0.0909242
-0.0659809,0.0145885
-0.114783,-0.0516341
-0.0664255,-0.0451221
-0.036172,-0.0277487
-0.0487945,-0.0201978
-0.0191046,-0.0489877
0.0794096,0.0278055
0.121018,0.00872437
0.0870344,-0.0333565
0.0304363,0.00614763
0.00803481,0.0166079
-0.000591724,-0.0501938
-0.0339642,-0.022395
-0.100246,0.0234488
-0.16223,0.0221054
-0.0922467,0.0375293
0.0241487,0.0337185
0.135497,0.000461709
0.257622,-0.042773
0.0751379,-0.0510923
-0.129211,-0.00226026
-0.112817,0.00988114
0.00136644,-0.0163665
0.0346141,-0.00469263
0.0346301,0.034697
0.0546502,-0.0012986
0.0318795,-0.0375413
-0.0326351,-0.0563608
-0.0512153,0.0063625
-0.0441193,0.0213095
-0.0197215,0.048425
-0.00923817,0.0540967
0.0407114,0.0230764
0.0567817,0.00368254
-0.0100125,-0.00206128
-0.0253298,-0.00921823
0.033865,-0.0323047
-0.00543916,0.00356578
-0.041582,0.0445261
-0.0431759,0.0808238
-0.00724184,0.00370856
0.0313989,-0.0665736
0.0070998,-0.0234333
0.0284198,-0.0223915
0.0773996,-0.0176313
0.0326652,-0.0308627
-0.0748229,-0.0708927
-0.0752706,-0.0666715
0.00230061,0.00316732
0.04689,0.0194085
0.0306907,-0.00692888
0.0111995,0.0169812
0.0245821,0.0644144
0.0400026,0.0839104
-0.0187001,0.00372012
-0.127345,-0.0198305
-0.0579367,-0.014571
0.0707065,-0.00778032
0.0702149,-0.0187494
-0.0124501,0.0119469
-0.064297,0.0165907
-0.0482943,-0.00402526
-0.0169537,-0.00191989
-0.0511291,0.00263225
-0.0733011,0.00590068
-0.00146916,0.00968613
0.0251059,0.0110531
0.0401592,0.00355853
0.101226,-0.0305659
0.15519,-0.0192075
0.106437,0.00138378
-0.0322786,-0.00346001
-0.0784526,0.00864626
-0.0748113,0.0422348
-0.0579783,0.0400611
-0.00836005,0.0763433
0.0307498,0.00548879
0.00225636,-0.0216898
-0.0330476,-0.0464173
-0.0343757,-0.0130389
0.0344793,-0.0394396
0.0441056,-0.0328791
0.0332785,0.0143888
-0.0158646,0.00673665
-0.0747681,-0.0343878
-0.0296414,-0.0218998
0.0180309,-0.034636
0.0324619,-0.040943
0.0335045,-0.00714764
-0.00907542,0.0460824
-0.0151845,0.0628683
0.0330215,0.0491216
0.0471406,-0.0239606
0.0103347,-0.0138943
0.017196,-0.0108354
0.00783435,-0.00982578
-0.062638,0.0171732
-0.0748887,0.00082818
-0.0126598,-0.00940329
-0.0309436,-0.0164088
-0.0744164,0.00487024
-0.0490356,0.0221653
-0.0162591,0.0138433
0.0320779,0.00564701
0.111546,-0.0309295
0.0750885,-0.0377408
0.011707,0.0333584
0.0161491,0.0146361
0.0710673,-0.0298039
0.102558,0.021584
0.0890367,0.0343936
0.00217924,-0.0104874
-0.11535,0.00594964
-0.141349,0.0331037
-0.0990121,-0.0197641
-0.0560792,-0.0285559
0.0640302,-0.011687
0.065308,-0.0155616
0.0292549,0.0113287
-0.00676207,-0.0179444
-0.0184472,-0.00709799
-0.0273426,0.00790971
-0.0164821,0.0447705
-0.0425375,0.0514984
-0.0350601,0.105462
-0.0404604,0.099656
-0.0195162,-0.0736761
0.0247819,-0.130085
0.0792051,-0.0454803
0.0626109,-0.0132106
0.00549878,-0.0200199
0.0109601,-0.0272844
0.0531454,0.0267145
0.10006,0.00413465
0.0722773,-0.0326661
-0.036902,-0.0237025
-0.0963195,-0.00223603
-0.0807123,0.00726081
-0.0595786,0.0135603
-0.0603884,0.0364069
-0.0150094,0.0226136
0.064393,0.0380801
0.057069,0.00331074
-0.0183835,-0.00897145
-0.0367826,-0.026656
0.00617671,-0.0111554
0.0439553,-0.018208
0.00389667,-0.00726603
-0.0835316,0.00861752
-0.0630806,0.0100208
-0.052198,0.000186006
-0.0445641,-0.0081915
0.00188644,-0.0175853
0.0626237,-0.0484375
0.129582,-0.0190624
0.0378579,0.0321894
-0.0518967,0.0216089
-0.0254068,-0.000153181
0.0499098,0.0121421
0.0178823,0.0509752
-0.0210937,-0.0134566
-0.00537202,-0.0396199
0.0131397,0.0644669
0.0785768,0.00967495
0.115362,0.0062273
0.0991615,0.0224964
0.0274205,-0.0257956
-0.0331405,-0.0362398
-0.053053,0.0155388
-0.0795888,-0.0193314
-0.0798516,-0.0186573
-0.0410291,-0.0167693
-0.038723,0.0198773
-0.0243797,0.0421415
0.0179348,-0.0119418
0.00479048,0.00894771
0.00731577,-0.023063
0.0322709,-0.0117494
0.00961092,-0.0162705
-0.0280629,-0.00451517
-0.0365304,0.017513
0.011074,0.0315744
0.059535,0.0493658
0.0333631,-0.00148675
-0.00996194,-0.0428137
-0.0473634,-0.0184499
-0.0590245,-0.015534
-0.0400948,-0.0152904
-0.0251193,-0.00485379
0.00264468,-0.00154316
0.0217836,0.00550369
0.0133686,0.00732902
0.0105564,0.00737421
0.0167385,0.00150741
0.0743457,-0.0211659
0.154089,-0.0257558
0.0912306,-0.00379413
-0.069196,0.0255351
-0.181533,0.00195308
-0.12888,-0.00373998
-0.00200194,0.0180807
0.0510763,0.0096531
0.04103,-0.00759036
0.0130722,-0.028993
0.003274,0.0119884
-0.00716502,0.0261435
-0.00136812,-0.0119837
0.0118973,-0.0491906
0.00510089,-0.0157882
-0.0107507,0.0770917
-0.0229432,0.0874735
-0.0175816,0.0471809
0.0343137,-0.0174319
0.0667889,-0.072083
0.00830819,-0.033664
-0.0451818,0.0608674
-0.036968,0.0532027
-0.0145426,-0.043137
-0.020728,-0.0607103
-0.0150567,0.00674993
0.0143036,0.0318064
0.0092651,-0.013116
-0.0173299,-0.0263183
-0.0308207,-0.0271661
-0.00608994,0.0144236
-0.00677698,0.015739
-0.0369298,-0.0222964
-0.00344733,-0.0473305
0.0662617,-0.0123872
0.0806429,0.0122819
0.138268,-0.00787039
0.11932,-0.0136682
0.037682,0.0425523
0.044343,0.0329503
0.00561443,-0.0165406
-0.134183,0.0195618
-0.189165,0.0302843
-0.130804,0.00646909
-0.0163179,-0.0174723
0.0463143,-0.0178469
0.00786299,0.0107821
0.0124332,-0.0126514
0.0286216,-0.0123551
0.0247494,-0.0150122
0.00611535,-0.0146518
-0.0341266,-0.00246789
-0.0385332,0.0197009
-0.00810268,0.00332737
0.00590962,-0.0146557
-0.00121606,0.014464
-0.00452304,-0.00162855
-0.000815305,-0.00457174
0.0142531,0.000632847
0.038637,-0.0140455
0.0395911,-0.0269154
0.0072613,0.000511025
-0.000877276,0.0238954
0.0373505,0.0213465
0.0164753,0.0129829
0.0353142,0.0180188
0.0824723,0.0682577
0.0568725,-0.0162783
-0.096263,0.00362897
-0.188121,-0.0157724
-0.115791,-0.0648836
-0.00356944,-0.025546
0.0443175,0.0283792
-0.00314183,0.0261625
0.00768898,0.0119628
0.0426312,0.00170098
0.0739412,0.00768422
0.0638373,-0.0153908
0.017171,0.0153687
-0.0318356,0.0557189
-0.0491553,0.00546657
-0.0478622,0.00131375
0.00824717,-0.0731231
0.074074,-0.0339879
0.0847093,-0.0499967
0.0293011,-0.0369798
-0.00867322,-0.0063101
-0.0386092,-0.00347717
-0.0903749,0.0239849
-0.0920978,0.0434618
-0.0660015,0.0268941
-0.0181687,-0.00885138
0.0494068,-0.0204095
0.0630512,0.00827161
-0.0162016,-0.0511725
-0.0200739,-0.0321055
-0.0306,0.0220131
-0.0100072,0.036508
0.0555668,0.0316579
0.0870338,0.0171952
0.0783661,0.0503471
0.0311114,0.0370397
0.00517141,-0.0830956
0.0358503,-0.0852305
0.0244886,0.0541593
-0.0615129,0.0832393
-0.0788662,0.065331
-0.0672368,0.0866687
-0.0503453,-0.0274291
-0.0348882,-0.123631
0.00939246,-0.0749851
0.0244299,-0.045001
0.0292907,-0.0113202
0.03861,0.0322406
-0.0027524,0.0272863
-0.0429509,-0.00274356
-0.076807,0.0310118
-0.0337647,-0.00227432
0.0367875,-0.0460539
0.083436,-0.0422874
0.155968,0.0115436
0.0700583,0.0674744
-0.073984,0.0266988
-0.0821255,0.0134794
0.00305795,0.0137229
0.0396932,0.00978103
0.0523098,-0.0358635
0.00554594,-0.0452173
-0.0557212,-0.0185357
-0.049713,-0.00473302
-0.02672,0.0178529
-0.0626446,0.0248695
-0.101379,0.0453346
-0.0752127,0.0131659
-0.0148166,-0.0403306
0.0612758,0.00259893
0.0725334,0.0444294
0.119514,-0.0302803
0.105078,0.0222615
-0.00948051,0.0400298
-0.00716184,-0.00186316
0.106295,-0.0033086
0.127772,-0.00687601
-0.0678828,-0.0700939
-0.16491,-0.0803971
-0.0673271,-0.00778784
-0.00752752,0.0217529
-0.0126629,0.0150916
-0.0434853,-0.00263072
-0.039539,-0.01145
-0.00761798,-0.0303213
-0.023457,0.0194478
-0.0690741,0.0452542
-0.0596262,0.013689
0.00246044,-0.0105697
0.0473693,0.00500068
0.0635509,0.0564192
0.135043,0.0206775
0.178108,0.0103737
0.102465,-0.0322648
-0.00859143,-0.0868436
-0.134652,-0.0228635
-0.0959165,0.0136972
-0.0169389,0.00819876
-0.0280806,-0.010932
-0.0383679,-0.0086193
-0.0103895,0.0181526
-0.0164294,0.00987018
0.0083917,0.00151227
0.0472875,-0.00412936
0.0242098,0.0183129
-0.0222599,-0.0102175
-0.0365624,0.0274011
-0.00660157,-0.00483249
0.0200878,-0.018807
-0.000897331,-0.0352577
-0.000408275,-0.01479
0.0222961,-0.0229577
0.0122357,-0.0149898
-0.0132875,0.012666
-0.00622337,0.0248402
0.0205686,0.0206156
0.0359657,0.116328
0.0381603,0.0918963
-0.0335731,-0.0427158
-0.130732,-0.104303
-0.143092,-0.0781052
0.0128382,-0.00888965
0.131235,0.0584059
0.152958,0.0789805
0.0182706,0.0343594
-0.086629,0.0522638
-0.0753203,0.123198
0.0153241,-0.0662199
0.0575089,-0.158342
0.00421881,-0.0639905
-0.00963716,-0.0153606
-0.00158598,0.0484823
0.00152696,0.051978
0.0571772,0.0338968
0.062681,0.00870267
-0.0016505,0.0418931
-0.0650976,-0.0103379
-0.106021,-0.0324037
-0.102202,-0.0932231
-0.0114313,-0.039449
0.0326394,0.00447385
0.0412773,-0.0343026
0.00972867,-0.011758
0.00123936,-0.0518687
0.0244665,-0.105394
0.0433054,0.0426544
0.0526782,0.0955568
0.0207527,0.0450892
-0.033699,0.0223203
-0.0281217,0.00523099
0.0865294,0.00882626
0.286357,0.0330806
0.299747,-0.0354917
-0.0883884,-0.0610771
-0.353503,-0.0221866
-0.342528,0.0304319
-0.199622,0.0293154
-0.110014,0.0426447
0.0242129,0.0185254
0.227454,0.0393146
0.270258,-0.00716891
0.0885772,-0.0304914
-0.0628691,-0.0204456
-0.0817657,-0.0303584
-0.109953,-0.0223365
-0.137636,0.0463503
-0.119699,0.0158066
0.0198095,-0.0236762
0.0643289,-0.0358106
0.086789,-0.000739498
0.117115,0.00647033
0.0870671,-0.0182306
0.0583774,0.022168
0.0485012,0.0441552
-0.0002473,-0.0138271
-0.0444107,-0.0189746
-0.0388491,-0.0113982
-0.0018497,0.00365812
-0.0133206,0.0190886
-0.00724229,-0.000910224
-0.0128809,0.0219336
0.0216674,0.0563742
0.0309452,-0.0360584
6.64e-05,-0.0402353
0.0173224,-0.010826
0.0870398,0.0429542
0.0286082,0.0542148
-0.133243,-0.026922
-0.209185,-0.0194869
-0.161636,0.0397943
0.069415,-0.0532239
0.176739,-0.0508915
0.0194916,0.0209422
-0.0442173,0.0101849
-0.00109683,0.0256639
0.0145155,-0.0499072
0.012556,-0.011685
0.0273469,-0.00153907
0.0293004,-0.00646375
-0.0763131,0.00219612
-0.0731638,-0.0106381
0.0257096,-0.00306949
0.0603871,0.000450181
0.102038,-0.00569313
0.145566,-0.00677138
0.0641818,0.0299674
-0.0593549,0.0394097
-0.117404,0.0132593
-0.092365,-0.00470307
-0.0397255,0.0253338
0.0271603,-0.0191679
0.0097432,-0.0525915
-0.0159899,0.0216302
0.0167031,0.124251
0.0791189,0.0831236
0.110674,-0.150962
0.0289147,-0.0090348
-0.175968,0.0271656
-0.219229,-0.0386518
-0.0529821,-0.0246657
0.0882805,2.79e-07
0.00339495,0.00293965
0.0408477,0.0221868
0.198494,0.022392
0.127217,-0.0399503
-0.0946244,-0.055396
-0.174243,0.033247
-0.104792,0.0886003
-0.0174446,4.07e-05
0.0274064,-0.139882
0.0680883,-0.0310212
0.0832773,0.029919
0.0343354,0.0336572
-0.00222154,0.00997292
-0.0732822,-0.0279449
-0.111325,-0.0286349
-0.0124516,-0.00633743
0.0400995,0.00969819
0.00235418,0.0354711
0.00119015,0.066107
0.0595006,0.0602463
0.0742062,0.0550507
-0.00656521,-0.0331114
-0.0746841,-0.0657211
-0.0425129,-0.0450496
-0.00951106,-0.0251029
-0.0226937,0.0487912
-0.0365191,0.0448612
0.0471592,-0.121445
0.112463,-0.025152
0.0991885,0.0496352
0.0642129,0.0241915
0.0553135,0.000203119
0.120958,-0.00849986
0.109303,-0.0242843
-0.071312,-0.00630269
-0.185451,0.0236688
-0.11223,0.0334913
-0.0320191,0.0143953
-0.0503834,-0.00323301
-0.0431848,0.0106032
0.0209272,0.00790229
-0.0572814,-0.017848
-0.111615,-0.0271612
-0.00102557,0.00948174
0.0324018,0.0245194
0.0662577,-0.0154241
0.022785,-0.0287693
-0.0084894,-0.030708
0.00721163,-0.0166693
0.0521855,-0.00470507
0.0222976,0.0162476
-0.029915,0.0268999
-0.0188133,0.018075
-0.00463164,0.0325645
0.00712116,-0.0214553
0.0390775,0.0120295
0.0743482,0.0158684
0.0727135,-0.00455178
0.00192282,-0.0435663
-0.0549526,-0.00790716
-0.0251104,0.0349851
0.0401037,0.024127
0.0256807,-0.0134022
-0.0791784,-0.0391215
-0.118212,-0.0420689
-0.0645132,0.0187479
-0.000704167,0.0433652
0.0198002,0.0124617
0.0174379,-0.0585202
0.0342633,-0.0240516
0.0467306,0.0465481
0.0226726,0.0290121
0.00161697,0.0299836
0.00891918,0.0410432
0.00744304,-0.0146175
0.0133054,-0.0742819
0.0264304,0.00183379
0.0389607,0.0320709
0.048576,0.00734191
-0.0463461,-0.0102281
-0.0819992,-0.0142889
0.00547129,-0.0146528
0.0306871,0.0122717
0.0436662,0.00523511
0.140875,0.0456696
0.148319,0.0384803
-0.0317153,0.000801096
-0.0875657,-0.0528643
-0.0787201,-0.0336594
-0.164283,-0.00497218
-0.196236,-0.0333693
-0.0733605,-0.024014
0.000914165,0.0252651
-0.00994031,0.0409973
0.00720008,0.0337786
0.0189284,0.0156269
-0.00598696,-0.0370097
-0.0167051,-0.0714606
-0.012453,-0.0237917
0.00483,-0.00331268
0.0148408,0.00630257
0.0287043,0.0130387
0.0546837,0.0208312
0.0633618,0.0137325
0.0847328,0.0119832
0.143009,0.00905611
0.200199,-0.013741
0.199317,-0.0277054
0.114731,-0.00358157
-0.00692843,0.0177986
-0.11289,0.0252369
-0.196347,0.0158469
-0.218498,-0.0027799
-0.179185,-0.00486243
-0.102833,-0.00925387
-0.0571954,-0.00913122
-0.0386692,0.00903995
-0.0156935,0.0143353
0.00577609,0.0165844
0.0033019,0.00903437
-0.00276901,-0.00883364
-0.00198733,-0.015167
0.00596692,-0.0148686
0.0135833,-0.0224068
0.0113336,-0.0192409
-0.00309851,0.00826204
-0.0121499,0.021006
-0.00379929,0.0102005
0.00940752,0.00447429
0.0235334,0.000859599
0.100848,-0.00043044
0.293028,0.000504982
0.56073,0.00849809
0.514758,0.00756202
0.224646,0.00433849
-0.187064,0.0108654
-0.513553,0.000919277
-0.524389,-0.00553055
-0.354275,0.00991218
-0.109206,0.00213297
0.048599,-0.00139578
0.0902747,-0.00132865
0.0303446,0.00218957
-0.0791066,-0.00285466
-0.145768,-0.0121704
-0.168016,-0.0102356
-0.139184,-0.00704247
-0.0628825,-0.00931743
0.0242195,-0.00897243
0.0492768,5.11e-05
0.0685663,0.00134734
0.0526588,0.00615593
0.0279832,0.0168691
0.122975,0.00722651
0.16762,-0.00344639
0.125009,-0.0119454
0.0862654,-0.0238938
0.145332,-0.031005
0.307613,-0.00930426
0.305811,0.017759
0.15209,0.015033
-0.0483175,0.000656841
-0.258736,-0.00860273
-0.392006,-0.00858759
-0.38835,-0.00729396
-0.243038,0.00527659
-0.118013,0.0128824
-0.0172535,0.0185322
0.08298,0.026115
0.0955756,0.019385
0.0471047,-0.000816993
0.00602127,-0.00887202
-0.00276076,-0.00967765
0.055557,-0.0139134
0.159187,-0.0154337
0.128002,0.00245985
0.01128,0.018122
-0.0546743,0.0110652
-0.0876375,0.00778783
-0.0486829,0.00962394
0.0289762,0.00696678
0.0752157,-0.000905325
0.045827,-0.00124683
0.00838799,-0.00473574
-0.0015322,-0.00471963
0.058103,0.00298402
0.136566,-0.00232311
0.0760561,-0.0142067
0.0090307,-0.0180928
-0.0329031,-0.022079
-0.153575,-0.0158138
-0.22296,-0.0105707
-0.102736,0.00704409
-0.00759407,0.0205337
0.00963609,0.00982336
0.00906422,0.00587072
0.0143035,0.0066593
6.72e-05,0.0103433
0.0356325,0.00081559
0.153356,-0.00945263
0.208715,-0.00208709
0.172341,0.00975836
0.0719181,0.0120925
-0.111126,-0.0248679
-0.311051,-0.0131672
-0.198822,-0.00633281
-0.099832,0.00182117
-0.0398604,0.0113358
-0.0165157,0.0252216
0.0470357,0.0219275
0.102348,0.00383639
0.0657269,-0.00454537
-0.0215363,-0.0140391
-0.0895416,-0.0232855
-0.0214466,-0.0231657
0.0994182,-0.0171481
0.074046,-0.00832698
-0.0233179,0.00303362
-0.0754341,0.00395776
0.102824,0.00711885
0.635872,0.0194547
0.807524,0.0214802
0.501706,0.0161263
0.000781782,-0.00755283
-0.598195,-0.0179091
-0.806389,-0.0162355
-0.616774,-0.0240974
-0.350157,-0.0224225
-0.162893,-0.0187567
-0.0370587,-0.0122909
0.0298755,-0.0102396
-0.0261682,-0.00366302
-0.0827969,0.0125627
-0.0649044,0.0402363
0.00809946,0.0484222
0.0487977,0.0174187
0.0180474,-0.0125639
-0.0252547,-0.00914145
-0.0304261,-0.00607003
0.00877375,-0.00737939
0.0889697,0.00404302
0.131639,0.035117
0.110876,0.0515349
0.0675924,0.0436042
0.0509205,0.0347872
0.0711467,0.0186831
0.0818411,-0.0014887
0.0559596,-0.0193158
0.0195542,-0.0313164
-0.00946739,-0.0472002
-0.014938,-0.0399583
0.0510293,-0.0203547
0.149089,-0.0220976
0.101424,-0.0293285
-0.0322084,-0.0277191
-0.124276,-0.0285237
-0.162209,-0.0269916
-0.0567791,-0.0106252
0.127232,0.0279639
0.213187,0.0515068
0.320056,0.0465249
0.417255,0.0425279
0.266028,0.0265886
0.0129186,0.0103666
-0.201405,-0.00551627
-0.31946,-0.0136505
-0.273057,-0.0153217
-0.138584,0.00113801
-0.0165038,0.00913123
0.00305188,-0.00940162
-0.137398,-0.0173844
-0.271112,-0.0141024
-0.214764,-0.0118865
-0.0712696,-0.00250231
0.0204831,0.0214098
0.0560623,0.0419744
0.0665464,0.0310616
0.0491193,0.0200586
0.0640654,0.00806091
0.121156,-0.00559017
0.131636,-0.0207978
0.0673583,-0.026439
-0.0226666,-0.0243441
-0.0721884,-0.0247834
-0.0393429,-0.00978496
0.0101273,-0.00282072
0.0220557,-0.013877
0.00500856,-0.0176058
-0.00165646,-0.0194077
0.0176835,-0.0138214
0.0433333,-0.00677724
0.0498378,0.0201459
0.0260733,0.0441364
0.00863927,0.0309704
0.00301905,0.0247345
0.0114907,0.0220556
0.0164621,0.013527
-0.000830076,0.00269261
-0.0312025,-0.00357792
-0.0489963,-0.0111564
-0.041985,-0.00695253
-0.0154019,-0.000730181
0.00402435,-0.0145734
0.00831153,-0.035475
-0.0184388,-0.0374926
-0.0529131,-0.0337514
-0.0368859,-0.0296159
0.0238564,-0.0159627
0.0431499,0.0214258
0.00930193,0.0377317
-0.00643887,0.0296853
-0.000740439,0.0267186
0.0100291,0.018637
0.0116632,0.00542528
-0.00781668,-0.00370449
-0.0306143,-0.002829
-0.0344241,-0.00961685
-0.0251388,-0.00119813
-0.0114202,0.000721746
-0.00693041,-0.0207399
-0.0124168,-0.0324121
-0.0150574,-0.0279308
-0.00194314,-0.0249351
0.0194303,-0.0217298
0.0289414,0.00336691
0.0164303,0.0397417
0.00064397,0.0426185
-0.00576154,0.0323488
-0.00151775,0.0290653
0.00935712,0.0221641
0.0106462,0.0148212
0.00267951,0.0148114
-0.00706556,0.0144001
0.0152485,0.00972715
0.0925519,0.0165716
0.127636,0.0100355
0.110551,-0.01555
