Comp Ch 3,Comp Ch 4
0.0732632,0.0666241
0.0696829,0.0432272
0.0369843,0.0066237
-0.0468694,-0.00800822
-0.053576,-0.0321771
0.000325304,-0.0434098
0.0415746,-0.0395293
0.0340446,-0.00961905
0.0291863,0.0159729
0.00915704,0.0298111
-0.00790751,0.0162807
0.0130073,-0.000506537
0.03759,0.0052507
0.0262133,-0.00702447
-0.0196078,-0.0276647
-0.033046,-0.0231956
-0.0123022,0.00189808
0.00704811,0.009408
0.00668419,0.00508797
-0.0121468,-0.003963
-0.0163962,-0.018578
0.00948377,-0.00274364
0.0314647,0.0214974
0.00993336,0.0209587
-0.0280765,-0.0105373
-0.0603269,0.0110087
-0.0565701,0.0357133
-0.0269284,0.000700489
-0.00835465,-0.0234457
-0.00942492,0.00375728
-0.0455014,0.0205482
-0.0243678,0.0210306
0.0644761,-0.0165599
0.0907633,-0.0274561
0.0756054,-0.0210221
0.0229412,-0.0168975
-0.0113647,-0.0193537
-0.0418972,-0.000589242
-0.0242819,0.00749874
-0.00193117,-0.0043999
-0.0204078,0.0041705
-0.0123533,0.00183159
0.0196711,0.00497354
0.0407349,0.0206584
0.0434679,-0.00725582
0.00615168,-0.0030668
-0.0379233,-0.000942851
-0.0575983,0.0228845
-0.025439,0.015385
-0.000862334,0.021572
0.0365621,0.0201664
0.0348553,-0.00194556
-0.0326112,0.0166734
-0.0408229,-0.0133138
0.0253727,-0.0264749
0.0140101,-0.0477634
0.066777,-0.0538013
0.0807285,-0.028514
-0.00706502,-0.00523198
-0.0527442,0.00600904
0.0164,-0.00570512
0.0173766,-0.0115834
0.0287877,-0.00813182
0.0165754,-0.00185914
-0.0221544,0.00749447
-0.0268767,0.014547
0.0067215,0.0491129
0.018765,0.0589522
-0.067553,0.0332242
-0.0999224,0.0264734
-0.0816543,0.00157409
-0.0526951,-0.0624897
-0.0234691,-0.042353
0.0223581,0.00120216
0.0786545,0.0141366
0.0426546,0.00135111
-0.00328999,0.0164451
-0.0029938,0.0260653
0.0395036,0.0237324
0.0185937,0.00378046
-0.0138651,0.0038853
0.0163223,0.0230103
0.0230577,0.00824701
0.0279769,-0.0015288
0.0217152,0.000233479
0.0074807,0.0163118
-0.0283515,-0.0103597
-0.0289187,-0.0372742
0.00716656,-0.0466938
0.0141465,-0.049607
-0.0124426,-0.0336228
-0.052981,-0.0130637
-0.0893059,-0.000618999
-0.066645,-0.0105488
-0.000433022,-0.0131438
0.0348734,-0.00573589
0.0091738,0.00135024
-0.00948732,0.00923016
0.0178708,0.00677331
0.0208916,0.0320487
0.057561,0.0336025
0.0593324,0.0221414
0.0101511,0.023207
-0.00514909,0.0265433
-0.00594083,0.0233759
0.0115568,0.00968747
0.0514469,-0.0216075
0.0297231,-0.0286094
-0.00860967,-0.0124407
-0.0101533,-0.00254575
0.0137563,-0.0160729
-0.00159583,0.000939259
-0.0613276,-0.00437599
-0.0686315,-0.00812596
-0.0210216,0.000763273
0.00941821,0.0762298
0.0432865,0.0518405
0.0316422,-0.0162098
-0.0128371,-0.0255467
-0.0162187,-0.0218685
-0.0065697,-0.0222964
-0.0135148,-0.00371055
0.00976921,0.0188009
0.0244251,-0.0105407
0.0179863,-0.0164093
-0.0993031,0.00421381
-0.109765,0.0104185
-0.0596831,-0.0156878
-0.0307488,-0.0318263
0.0253504,-0.0441124
0.0589321,-0.0393026
0.0756074,-0.00675357
0.0485416,0.0322348
0.0556831,0.05166
0.0732325,0.0445827
0.0320727,0.037
-0.0287473,0.0103823
-0.0239434,-0.0290191
0.0294829,-0.0083346
0.0350741,0.00184723
-0.00897958,-0.0293647
-0.0435722,0.00907332
-0.027706,0.0356448
0.0130027,0.0256015
0.0130813,-0.0491628
-0.00199217,-0.021094
-0.00413189,-0.0292054
0.0109935,-0.0340221
-0.00037272,1.2e-05
-0.0298316,0.0130664
-0.0385261,0.016276
-0.0125121,0.0278312
0.00700629,0.0137819
0.00196707,0.00757262
0.00950851,0.000357243
0.0030041,0.00615549
0.0104611,0.00548572
0.0211729,-0.000160628
0.0302726,0.00114252
0.0384145,-0.0121412
0.019204,-0.0281305
-0.0448199,-0.0323437
-0.0897904,-0.0252881
-0.0462523,-0.00436783
-0.014157,-0.0116829
-0.0504011,0.0205046
-0.0319633,0.0643188
-0.0363057,0.0315608
-0.0235489,0.000296845
0.029224,-0.00298135
0.0561372,-0.0151883
0.112932,-0.0139943
0.111196,-0.00188515
0.0234758,-0.00259844
-0.0307631,0.00890075
-0.0312882,-0.00440098
-0.0153148,-0.0153237
-0.0126533,0.0183181
-0.00702814,-0.0125931
-0.012077,-0.0201229
-0.000895057,-0.0189836
0.0372296,-0.00479423
0.0375013,0.030139
-0.0199226,0.0454331
-0.0563165,0.0358072
0.00488635,0.00595303
0.0336887,-0.0091324
-0.0168463,-0.0135206
-0.0581777,-0.0106937
-0.0614622,0.0115634
-0.0354743,0.00977554
0.02676,0.00208227
0.0510369,0.0207048
0.00320904,0.0124258
-0.0156851,-0.0681689
-0.0215322,-0.057752
-0.0134205,-0.0313357
0.00706368,-0.0419182
0.0203,-0.0095139
-0.0111574,0.016634
0.00526078,0.019049
0.0774347,0.0137264
0.0741028,0.00933471
0.017656,0.00373107
-0.0285061,0.0127521
-0.0400488,0.00454588
0.000981159,0.00459727
0.0213802,0.0171718
0.00872974,0.0227175
-0.00608639,0.0134291
-0.00944355,0.00864703
-0.00121652,0.019245
0.00616493,0.000513121
-0.013656,-0.0225769
-0.0235625,-0.0224474
-0.0178362,0.0122632
-0.0249596,0.0480955
-0.0467059,0.0235908
-0.0690704,-0.00688039
-0.0323953,-0.00898271
0.0425256,-0.0285155
0.0255361,-0.029661
0.0117669,0.0273117
0.0586508,0.0275816
0.0482511,0.0141218
0.0106647,0.0100357
-0.0158124,-0.0335366
-0.0388861,-0.0475653
-0.0277266,-0.0522992
0.00259988,-0.0555218
0.0124045,-0.0370923
0.00346525,0.00549446
0.00603896,0.037221
0.017832,0.00475996
0.0411646,0.00220138
0.0695614,0.00174137
0.00963059,0.0356713
-0.0312288,0.0138781
-0.0125944,-0.000268728
-0.0142393,0.0143368
-0.0160195,0.00815117
0.0127026,0.0545901
0.044831,0.0421349
0.0162801,-0.0254892
-0.0420735,-0.0237483
-0.0576065,0.0185657
-0.0468858,-0.00381012
-0.0145859,-0.0154781
-0.0127101,-0.0110378
0.0391423,-0.0282466
0.0469327,-0.00396611
0.00381758,0.022936
-0.026307,0.0235387
-0.0267594,0.00963454
0.0259168,-0.00571898
0.0520637,-0.00124349
0.0417875,0.00993333
0.0436197,0.0171918
-0.0101248,0.00696602
-0.0831195,-0.00847311
-0.0929444,-0.0192313
-0.044378,-0.013215
-0.0309317,-0.00162113
-0.00539292,-0.00435408
0.0393948,-0.00955164
0.0354336,0.0257076
0.00935037,0.0390261
0.0344152,-0.0125573
0.00851451,-0.0441334
-0.0435384,-0.0254606
-0.00653851,-0.000367821
0.0100035,-0.00722126
0.00201225,-0.0117921
-0.0241907,-0.0298942
0.048081,-0.00376353
0.0403614,0.0240789
-0.0280648,-0.00268691
-0.0224601,0.00857245
0.00373193,0.0526157
0.031827,0.0354697
0.0393038,-0.055547
0.0247395,-0.0340579
0.0104025,-0.00586968
0.00770763,-0.00412679
0.0153637,0.00341759
0.0160012,0.0128274
-0.0160224,-0.0133479
-0.0261521,-0.0294528
-0.0274969,-0.00626435
-0.0200335,0.00598179
-0.0145081,0.00983426
-0.0179179,0.0113387
-0.00232771,0.00636719
0.0216875,0.0103937
0.0248674,0.011795
-0.0426836,0.0179557
-0.0741123,0.0104987
0.00128332,-0.012705
-0.0195621,0.00224557
0.0189876,0.0448243
0.0596098,0.0225726
0.0515834,-0.0482375
0.0570382,-0.0170368
0.0071277,0.00342027
-0.0715844,0.00304973
-0.108549,-0.01868
-0.0258009,-0.0447219
0.0443573,-0.0197791
0.0246786,0.017681
0.00789006,0.0283237
0.0116378,0.0124282
0.0443282,-0.00887047
0.0339335,-0.0156091
-0.00395225,-0.00554093
-0.0348995,0.0012871
-0.0441098,0.0150482
0.0349986,0.00481288
0.0866518,-0.00573405
0.0433353,-0.000323005
0.00122428,0.0026365
-0.0121819,0.00699661
-0.024127,0.00600711
-0.0492416,-0.0200468
-0.0517253,-0.00475434
-0.0276163,0.0205273
-0.0136167,0.0450164
-0.0172659,0.0378555
0.007895,0.0110407
0.00196903,0.00177468
-0.0219533,-0.0183896
-0.0268747,-0.0320902
-0.000750402,-0.039041
0.0639853,-0.00522899
0.056811,0.00711483
-0.0327309,0.012533
-0.0593896,0.0301702
0.013232,0.0154455
0.0267497,-0.00840153
-0.00470816,-0.0570833
-0.0147492,-0.0296614
-0.01539,-0.0031697
0.0111071,0.0164473
0.0524553,0.028178
0.0157113,0.00541798
0.00597712,0.0184649
0.0114117,0.0438434
0.0308235,0.015855
0.0263648,-0.0436808
0.0133622,-0.0613753
-0.0105704,-0.00199934
-0.0405133,0.00702474
-0.0323788,-0.0206226
-0.0211854,-0.0118368
-0.0130291,0.00313348
-0.025374,0.0044653
-0.0330778,-0.0171962
0.00246562,0.00196087
0.0357179,0.0123449
0.0363241,0.0331093
-0.000684786,0.0443493
-0.047568,0.0193829
-0.0600281,0.0342944
-0.0298039,0.0135035
0.0329186,-0.0368606
0.0540254,-0.0366086
0.0236633,-0.021341
0.00216622,0.00420938
-0.0350663,0.0155193
-0.0464131,0.0139809
0.0220351,-0.0237415
0.0952909,-0.0416055
0.0557172,-0.0217534
0.0259137,-0.0124014
0.0332859,-0.00607199
0.00367145,0.0152685
-0.0246591,0.0279835
-0.0397304,0.015431
-0.00975972,-0.000823259
0.0069936,0.000650343
-0.00816621,0.00723244
-0.000115561,-0.000780889
-0.00871328,-0.0116568
-0.0325911,-0.0102006
-0.0515246,0.0181361
-0.0234897,0.0196841
-0.00995789,0.00461751
-0.0163408,-0.00473633
-0.000144091,-0.00565368
0.0106909,0.00156511
0.0158349,0.0141131
-0.0437225,0.0166245
-0.0723215,0.0305713
0.00662416,0.0305731
0.0483516,0.00998215
0.0742978,-0.0279891
0.0521247,-0.0371093
-0.0308733,-0.0189849
-0.0333956,-0.0131729
0.0243663,-0.0215603
0.0592819,-0.000345962
0.0528934,0.0105386
0.00962496,-0.00138479
-0.028074,0.00254384
-0.0456141,-0.0177685
-0.0279865,-0.0123639
0.00977596,-0.021511
0.0384331,-0.0164666
0.0223857,0.00786857
-2.16e-05,0.0269642
-0.00819554,0.0324503
-0.0182218,0.015642
-0.0286987,0.0228128
-0.0137963,0.0344246
-0.0147981,0.00134345
-0.00770965,-0.0298051
0.00172259,-0.0242518
0.0130582,-0.0297057
0.032586,-0.010075
0.0295176,-0.0090478
0.00140231,-0.00505467
-0.00840985,-0.00469841
-0.0243083,-0.00366472
-0.0559925,0.0184795
-0.0264322,0.0505673
-0.00949657,0.0124551
0.0228411,-0.0167724
0.0539061,-0.00890539
0.0648102,-0.00127562
0.0355218,0.000653423
0.00597587,-0.00871281
-0.0171603,-0.0133549
-0.0294884,-0.0175772
-0.0158396,-0.00649867
-0.00637584,0.00678071
0.00465244,0.00135474
0.00878013,0.000257955
0.000503263,-0.0050207
-0.00858033,-0.0141987
-0.0145179,-0.00913034
-0.0212693,0.00447635
-0.0298424,0.00559664
-0.0163314,0.00915093
-0.00458818,0.0162298
-0.00785024,0.00745596
0.0270115,-0.00817747
0.0471736,-0.00811448
0.0254604,-0.0113736
0.00167055,-0.0170048
-0.0139047,-0.011204
-0.020202,0.0112575
-0.0212231,0.0277381
-0.0159732,0.0160848
-0.0144407,0.00549008
-0.0334288,0.000546131
-0.0399042,-0.00959461
-0.0270645,-0.0061046
-0.0018043,0.0192272
0.00986691,0.0137377
-0.00530163,0.0232195
0.00298304,0.0335015
0.0922973,-0.00517742
0.110169,-0.0207255
0.0264015,-0.0125168
0.00370321,-0.0186061
0.0369863,-0.0323767
-0.0226137,-0.015009
-0.0571535,0.0323413
-0.0374323,0.0278645
-0.0263287,0.0300604
-0.00868015,-0.0111104
-0.00535952,-0.0283279
0.0351224,-0.0105834
0.0158143,0.0347314
0.00621522,0.0326301
0.00702291,-0.0330047
-0.0124337,-0.0211746
0.0129701,0.0113922
0.00223017,0.0213184
0.00506467,-0.0188923
-0.013045,-0.0172075
-0.0280359,-0.0152188
-0.0350002,-0.0364875
-0.0476089,-0.0189117
-0.00883612,0.0109972
0.0376255,0.00856423
0.0160344,0.00436739
0.000839967,0.0051022
-0.0151823,-0.00705423
-0.0510257,-0.01936
-0.041529,-0.0205806
0.0237511,0.0125446
0.0711241,0.02253
0.0456594,0.0152888
0.0256313,0.0220043
0.0302419,0.0164505
0.0203679,0.00611971
0.00392926,0.0013297
-0.00805136,-0.0035147
-0.00781808,0.00245487
0.0184787,0.0128541
0.0169593,0.0100486
-0.0361445,0.0039976
-0.0699606,0.0151282
-0.0407015,-0.0127685
-0.0279678,-0.0150239
0.0104671,-0.0305639
0.0291668,-0.0351279
0.00972841,-0.0117198
-0.0177399,0.0151622
-0.0634243,0.0336423
-0.076421,0.0077742
-0.0171867,-0.0178079
0.0683069,-0.0140436
0.0864991,0.0034307
0.0537316,-0.0254222
0.00302952,-0.0260521
-0.0117929,-0.0115018
-0.00777633,0.0243462
-0.00617583,0.0163027
0.00927085,0.016871
0.01387,0.0288403
0.0105895,-0.0133829
0.00497029,-0.0161232
0.0238868,-0.00189661
0.0251089,0.00418311
0.00769971,0.0200515
0.00123105,0.0166807
-0.00998329,-0.00526156
-0.0229465,-0.00781277
-0.0270412,0.000489995
-0.00806513,-0.00416089
0.0189641,-0.0113343
0.0182725,-0.00840946
0.0209618,0.00663578
0.0137729,0.0082996
-0.0055824,0.0113692
-0.025739,0.0258609
-0.0610971,0.0223858
-0.0454499,-0.00567796
-0.00650013,-0.0120651
-0.00773019,-0.00345642
-0.0133858,0.00822209
-0.00375835,-0.00380981
2.89e-05,-0.00324477
0.00106888,-0.010362
0.0338895,-0.0148948
0.0531877,-0.0200306
0.052081,-0.0234725
0.030105,-0.0218766
-0.0366086,0.00532511
-0.0507955,0.0191607
-0.0322328,-0.0016589
-0.0276796,0.00067635
-0.0262378,-0.00484407
-0.0183386,-0.000291118
-0.00234192,0.00885136
0.00334354,-0.000326001
0.022777,-0.00265116
0.0213259,0.0148819
0.0236303,0.0386222
0.00695444,0.0151322
-0.012345,-0.0247924
0.0238021,-0.00524661
0.0923691,-0.00238564
0.0943185,-0.00625663
0.0642483,-0.000186861
0.0534231,0.01897
0.000766289,0.00886609
-0.0804259,-0.00100119
-0.130948,0.0155039
-0.107703,-0.0158443
-0.0376325,-0.0156367
-0.00642584,-0.000783906
0.011329,0.0255774
-0.000432468,0.00227441
-0.0212551,-0.0150083
0.0155841,-0.00714648
0.0195053,-0.0081922
-0.0178096,-0.0095486
-0.0120713,-0.0120945
0.00873108,-0.0189917
0.00189675,-0.0292705
-0.00816624,-0.0154065
-0.00560904,0.0165977
-0.00621606,0.0172703
-0.00948902,0.00636632
0.0167545,-0.00269208
0.0302182,-0.00917793
0.0265501,-0.0126965
0.0240516,-0.00889209
0.0201457,0.00656291
0.00958369,0.0170596
0.00254838,0.0286312
-0.000952456,0.027119
-0.00131848,0.0145385
-0.00280806,0.00552076
-0.00921384,-0.00210887
-0.012049,-0.00905902
-0.00971921,-0.0154403
-0.00856459,-0.00209578
-0.00891742,0.0135721
-0.00587159,0.00527193
-0.00395482,0.000605394
-0.00591997,0.00273648
-0.000873821,0.00457312
0.00722581,0.0021206
0.01714,-0.000422945
0.0293148,-0.00358933
0.0165003,0.00231586
0.000174131,0.0120361
0.00378087,0.0127567
0.0120425,-0.000631726
0.00553618,-0.00823599
-0.0225117,-0.0123737
-0.0410898,-0.0101698
-0.0276717,-0.0121016
0.0002623,-0.00217917
0.0109139,0.00247758
0.00145339,-0.00172684
0.00662135,-0.00400762
0.0046521,-0.00997258
0.00530627,-0.0118004
0.00832464,-0.00714027
0.000844879,0.0035157
0.0059437,0.00229532
0.0159861,0.0121535
0.0147248,0.0255873
0.018437,0.0142669
0.00470965,-0.00386411
-0.0157389,-0.00603647
-0.0327529,-0.010207
-0.0528333,-0.00435644
-0.0638785,-0.00439217
-0.0442707,-0.0175796
0.010659,-0.0108958
0.032247,0.00687508
0.00699058,-0.00359285
-0.0277412,-0.00992262
-0.0165055,-0.0409428
0.00487807,-0.0153385
-0.0210351,0.0402884
-0.00357588,0.0481825
0.0629904,0.0338962
0.123779,0.0323233
0.114114,-0.0297438
0.0801186,-0.0392632
0.00149835,-0.0211826
-0.0268975,0.00948301
-0.0526241,0.0137956
-0.070949,0.0120534
-0.0428864,0.0116905
-0.0253303,-0.0158645
-0.0170091,-0.0166542
0.00308377,-0.0115419
0.00940366,-0.0263374
-0.00678989,-0.028922
-0.0193547,-0.0223146
-0.00085579,-0.0120952
0.0170424,0.00783932
0.0198926,0.0132816
0.0140113,0.0184815
0.00706492,0.00610184
-0.00597859,0.017366
-0.00947276,0.0206357
-0.0104894,-0.0169008
-0.0230701,0.00553021
-0.0366928,0.034641
-0.0215567,0.0467306
-0.0208537,0.00177576
-0.0162672,-0.00537848
0.0418052,-0.00184042
0.0476193,0.0227813
0.0326107,-0.0263265
0.0114691,-0.045309
-0.00598222,0.0177204
0.00242631,0.00011195
-0.00749767,-0.027685
-0.00207665,-0.00691805
0.0105751,0.00259253
0.0501191,0.00845668
0.0578909,0.0161775
0.0168424,0.0134545
0.00611685,0.0266372
-0.0379243,0.0577008
-0.0715183,0.0399329
-0.0455695,-0.0168669
-0.0260252,-0.0253357
-0.00645078,-0.0246534
0.0142488,-0.0245879
-0.0135355,-0.0477419
-0.0116339,-0.0449373
0.0065316,-0.00731161
0.0277979,0.0163346
0.0317832,0.00355176
0.0304834,0.00321089
0.0184311,0.0120175
-0.00420038,-0.00614125
-0.00763388,-0.0146899
-0.00437631,0.0140863
-0.0184019,0.0416657
-0.0105663,0.024182
0.0223796,-0.0024195
0.0307479,-0.00748996
0.0198795,-0.0190187
0.0207641,-0.0280518
0.00370965,-0.023063
-0.0536611,-0.00609523
-0.0514697,-0.00478886
-0.0297124,0.0042465
-0.0438463,9.8e-05
-0.045195,-0.009621
-0.0471981,0.00180565
-0.0438079,0.00983844
-0.00853372,0.0144632
0.0326795,0.0178405
0.0638116,0.0285763
0.0274751,0.0318392
0.00589003,0.00992359
0.04649,-0.00055678
0.0353278,-0.0091919
0.0187005,-0.0275826
0.0263865,-0.0423705
0.00992209,-0.0307778
0.00433896,0.00468872
-0.0076113,0.0118524
-0.0305789,0.00398794
-0.0298371,0.00547726
-0.0430871,0.0363519
-0.0405642,0.0229458
0.00880473,0.00770586
0.0255012,0.0213991
0.010876,0.045126
0.0581199,0.0180074
0.0442234,-0.0187106
0.0112966,-0.00859209
0.011644,-0.0374887
-0.026304,-0.0777166
-0.0292171,-0.0379696
0.0068401,-0.0102268
-0.000107179,-0.00266822
-0.0103833,0.00925634
0.024612,0.0353883
0.000953846,0.0148256
-0.0228774,-0.0429461
-0.0266466,-0.0156703
-0.0142597,0.0178635
-0.00149036,0.00577534
-0.00604517,-0.00103645
-0.0110915,0.0147719
0.00430962,0.0335701
-0.030837,0.0211933
-0.00753889,-0.0246506
0.0486082,-0.0263914
0.0627965,-0.00211955
0.0255534,-0.00978601
-0.00492239,-0.0215986
0.0025581,-0.00410581
-0.00358197,0.0250674
-0.028489,0.0428707
-0.042913,0.0335677
-0.0405109,0.00961026
-0.0584061,0.0129144
-0.0448141,0.0280824
0.00336326,-0.0100011
0.0046227,-0.0352595
0.0147175,-0.0258334
0.0474848,0.0277328
0.00368345,0.0239689
-0.0148027,-0.0207137
0.0138379,-0.0225795
0.0353083,-0.0135053
0.0703606,-0.0199903
0.0355313,0.0116114
0.0182083,-0.0117761
0.03089,-0.019564
0.0192197,0.017596
0.00382771,0.023707
-0.00337671,0.00378816
-0.00952575,-0.00999217
-0.0325969,-0.00978656
-0.0432362,-0.000586972
-0.0226708,-0.00444757
-0.0459861,-0.00180965
-0.0658195,0.00917716
-0.00751467,0.008287
0.0271256,-0.00155917
0.0332962,-0.0087851
0.0737787,0.00656627
0.0439468,0.00823842
0.0190876,-0.00149678
0.029356,-0.0196101
-0.00886733,-0.00357416
-0.0571511,0.00469267
-0.0688179,-0.00772906
-0.0579481,0.00357979
-0.0295455,0.0107833
0.00992789,-0.00663292
-0.0406847,-0.0154295
0.0176149,-0.0166279
0.110881,-0.00609204
0.0803774,-0.00896151
0.0258159,0.00372502
-0.0523251,0.029258
-0.0707449,0.00137267
-0.0591238,-0.0123608
0.00380413,-0.00595834
0.0280874,-0.00319184
0.00988092,-0.000290852
0.032502,0.0130044
0.0578656,0.0203322
0.0547582,0.00105345
-0.0110913,0.000156764
-0.0860699,0.00307741
-0.108902,0.00279151
-0.0524819,-0.0034817
-0.0264205,0.00270193
0.0286819,0.00823788
0.115386,-0.00043813
0.115214,0.00706518
0.0327383,0.00873694
0.0573469,-0.00830854
0.0388963,-0.0182819
0.0236207,-0.0275311
0.0655126,-0.0289621
0.010884,-0.00899755
-0.0940665,0.0270141
-0.114936,0.0387068
-0.153245,0.0232528
-0.227065,0.0184079
-0.318574,0.0187822
-0.346469,-0.00308379
0.000877227,-0.017478
0.145707,0.00249019
0.0779016,0.0209442
-0.0418786,0.0143565
-0.0793595,0.0211944
0.0689684,0.0183133
0.280087,-0.0325477
0.228958,-0.0521143
0.239234,-0.0369869
0.327756,-0.0291886
0.235063,-0.0131652
0.0869706,0.00390725
0.0540209,-0.0028052
0.0710347,-0.0122793
0.146379,-0.0048347
-0.0164494,-0.00300763
-0.118983,-0.0121242
-0.0430622,-0.000878128
-0.114809,0.0474136
-0.316063,0.0618736
-0.270035,0.0344345
-0.145169,-0.0111661
-0.11585,-0.0318548
-0.156914,-0.0020776
-0.201825,0.0186191
-0.0852204,0.00865623
0.0809621,-0.0221139
0.0707041,-0.0484183
0.0452243,-0.0345573
0.20676,0.043699
0.231896,0.00727596
0.204944,-0.0780148
0.133472,-0.0591405
0.0601771,0.023539
0.0414321,0.0988584
0.0737137,0.0698035
0.111751,0.0433871
0.124241,0.00644104
0.0386592,-0.0105507
-0.0744628,-0.0454938
-0.150676,-0.0404623
-0.175245,0.0392768
-0.139838,0.0180089
-0.116843,0.00647356
-0.0991096,-0.000661383
-0.0745468,-0.0488284
-0.0571825,-0.0549149
-0.0466537,0.0507571
-0.000629861,0.0208944
0.0774222,-0.056551
0.0981477,-0.00164575
0.00605776,0.00401282
-0.112901,-0.0345544
-0.0880908,-0.0135469
0.0348013,-0.00118343
0.0800571,0.0242936
0.010915,0.0332192
0.0521205,-0.0333551
0.0618081,-0.0558842
0.00133624,-0.0643049
-0.170472,0.00906955
-0.272718,0.107128
-0.238396,0.0813717
-0.0333889,0.052171
0.178262,0.0400017
0.137534,0.0352672
0.160436,0.0413414
0.0452419,0.142281
0.00336213,-0.0974028
-0.0194595,-0.207375
0.0810413,-0.0937512
0.0221289,0.0588601
-0.0432389,0.0559802
0.0212351,-0.0684093
0.074538,-0.0177927
0.0264257,-0.0316698
0.0289646,-0.0037675
0.0854032,0.0925786
0.0692071,0.0735952
-0.0071503,-0.054931
-0.0552543,-0.0232396
0.0226552,-0.0452741
-0.0137437,-0.0161295
-0.0406187,0.0037826
-0.107411,-0.00683976
-0.13398,0.0116734
0.0116944,0.0129019
0.0825923,0.0114468
0.0202692,-0.00681958
-0.0383125,-0.0539813
-0.0980904,-0.00235914
-0.0630441,0.0520194
0.0672522,0.0152138
0.0549528,-0.0431514
0.0365376,-0.0137823
0.061651,0.0594434
0.097137,0.0555164
0.232212,-0.0515569
0.306761,-0.0409766
0.102942,-0.0144952
-0.142647,-0.0488398
-0.189262,-0.0272426
-0.121372,-0.00156329
-0.149773,0.0535742
-0.146856,0.0410256
-0.109214,0.0182435
-0.0876618,-0.0209218
-0.00593689,-0.0133984
0.0599511,0.00716965
0.114491,-0.015666
0.0296881,-0.000233389
0.019378,0.00995458
0.0612721,0.0110576
-0.00153596,0.0443804
-0.0803241,0.0999517
-0.0699133,0.0801148
-0.00153444,-0.0572175
0.0297628,-0.0683492
-0.0289269,-0.0356241
-0.0692768,-0.00202849
0.0439142,0.0187321
0.0500216,0.00706696
0.032765,0.0166485
0.0510256,0.0390931
0.0922176,0.0220808
0.0798009,-0.0293643
0.0847312,-0.00594251
0.0800794,0.00329671
0.00996995,0.0151509
-0.145241,-0.0102933
-0.257586,-0.0127465
-0.245778,-0.0216987
-0.0970395,-0.0352162
-0.0111859,-0.0441525
0.0971024,-0.0784183
0.143634,-0.0563141
0.0996567,0.0312529
0.00229057,0.0241517
-0.00675741,0.0716228
0.107111,-0.0235296
0.0962986,-0.0368883
-0.0495748,-0.000550723
-0.109041,0.0170366
-0.0685749,0.0275168
-0.0506962,0.0102983
0.0184654,-0.0254235
0.0909447,-0.0510102
0.0453018,0.015381
0.0327826,0.0189231
0.0433378,-0.013249
0.0352281,-0.040638
-0.0724537,0.0322444
-0.130741,0.11108
-0.113289,0.0846089
0.00238354,0.0294669
0.070869,-0.00631322
0.0723342,-0.0380108
0.00554745,-0.0187925
-0.105542,0.00358672
-0.0591364,0.00183729
0.0513473,0.011997
0.0729135,0.0295415
0.0391739,0.0102526
0.0198729,-0.0512265
0.00974898,-0.0711692
0.0108399,-0.0399943
0.0140109,-0.0296327
-0.00115504,-0.0203436
-0.0111292,0.000295963
0.010945,0.000836637
0.0351736,0.0201813
-0.0230393,0.0224881
-0.0346503,-0.00480579
-0.0505356,0.0129659
-0.0438094,0.0144448
-0.0157189,0.0335563
-8.95e-05,0.0239598
0.0103611,0.00574566
0.0272903,0.0201411
0.0469433,0.0153387
0.0621355,-0.00611056
0.101633,-0.0112658
0.0198591,-0.0110983
-0.0235735,0.00108103
-0.00511133,0.0125852
-0.00595135,0.0186885
0.0348059,-0.00640799
0.0267147,-0.0192317
-0.0438633,-0.0106881
-0.0583688,-0.0055314
0.0135091,-0.0320889
0.124029,-0.0274976
0.0198509,-0.0129589
-0.0748783,-0.0055638
-0.0807355,0.0155532
-0.0677299,0.0141995
-0.0420703,-0.00531804
-0.0359069,-0.00808513
-0.0194696,-0.00732384
0.0180927,-0.0132606
0.0223037,-0.00641273
0.0229337,-0.00103259
0.025671,-0.0201691
0.0179392,-0.0343804
0.0370993,0.000165141
0.0285724,0.0324528
0.0172601,0.0472087
0.00782142,-0.00170658
0.0305036,-0.00072625
-0.0185499,-0.0083912
-0.0299923,0.0402972
-0.00634779,-0.0368683
-0.0169283,-0.0177322
-0.0463014,-0.0285424
-0.0500463,-0.015054
-0.107306,0.0352669
-0.107428,0.0428511
-0.0476891,0.0272848
0.0810628,0.0185225
0.0773122,-0.00649241
0.0110059,-0.012595
0.0502688,-0.00998361
0.0566857,0.00105881
0.0269405,0.031332
0.00308269,0.0136937
-0.0458671,0.0206783
-0.0716185,-0.00765302
-0.0273289,-0.0750068
0.00446433,-0.000460868
0.0162665,0.0539716
-0.012066,0.039629
0.0211874,0.021826
0.0199881,-0.00231553
0.0146496,-0.0589117
0.0264014,-0.0664847
0.0489219,-0.0271135
0.0229262,-0.0123158
-0.00816021,-0.0252344
-0.00840355,-0.0310019
0.000923617,-0.0224842
0.0196173,0.0259439
0.0272868,0.0302897
-0.026935,0.0264986
-0.0464409,0.0310556
-0.037664,0.0323781
0.0257164,0.0278194
0.0534957,0.0237451
0.0167848,0.0205831
-0.00648866,0.0177216
-0.0245277,0.00442694
-0.0207413,-0.0234281
-0.015391,-0.0510555
-0.0703482,0.0020954
-0.0835791,0.0076032
0.034713,-0.0189487
0.0975077,-0.0186371
0.0531023,-0.0203997
0.048121,-0.0265997
0.0129462,0.00194461
-0.0627566,0.0381028
-0.0623765,0.00780103
0.00233826,-0.0184484
0.0527996,-0.00657737
-0.0167204,-0.00453883
-0.0670191,-2.77e-05
-0.0153442,0.0314158
0.040838,-0.0132242
0.0355759,-0.0167814
0.0319169,0.00807499
0.0240823,0.00446833
0.0449604,-0.00987126
0.0382941,-0.0375875
0.00788277,-0.0245795
-0.00654494,0.060906
-0.00781056,0.0111791
-0.0082851,-0.0223915
-0.00995712,-0.000847299
-0.0335696,0.0186155
-0.043189,0.0342899
-0.0240069,0.0397978
-0.0087519,0.011918
0.00109237,0.00429487
0.00206799,0.0149086
-0.000555056,0.0340071
-0.00514525,0.0168593
0.00162624,0.00475898
0.0249264,0.00440297
0.0225857,0.009131
-0.0179419,0.0351414
-0.082207,0.0402294
-0.0361255,-0.012142
0.012294,-0.0183538
-0.0504047,-0.0244533
-0.0443804,-0.0802246
-0.121052,-0.0514429
-0.0670319,0.0198776
0.111747,0.010962
0.0873,-0.0467393
0.051459,-0.080302
0.0435595,-0.0700112
0.0924644,-0.0593647
0.0461383,-0.0438092
-0.00692285,-0.0254247
0.0127546,-0.0141807
0.0378162,0.00180175
0.0024597,0.00408916
0.00478469,-0.0118275
0.0305802,0.00340364
0.00848165,-0.016849
-0.0707776,-0.00441882
-0.0489484,0.0319945
0.0277215,0.0523865
0.049044,0.0523119
0.0206432,0.0649486
-0.00690115,0.0575376
-0.0373302,0.0281187
-0.0501586,0.0369386
-0.03689,0.0297177
-0.0252321,0.0274302
0.00181572,0.0312035
0.0149125,0.0228535
0.00955986,0.0142005
0.00217714,0.00647814
-0.00807753,-0.00101751
-0.0140865,-0.00483142
-0.0127667,0.00444263
-0.00747553,0.0130283
-0.000807662,0.0052341
0.000104104,0.00577958
-0.00207186,0.0103519
0.00112779,0.00786777
0.0103648,-0.00431584
0.0174757,-0.0402614
0.0180253,-0.0552743
0.0086741,-0.0147724
0.011267,-0.00655031
0.0255925,0.0233375
0.0343522,-0.00456219
0.0286058,-0.0271188
0.0176535,-0.00823906
0.0108096,-0.0348894
-0.00231061,-0.05182
-0.0185114,-0.0230637
-0.0566177,-0.00545543
-0.106333,0.0169391
-0.132637,0.0320164
-0.102621,0.0389483
-0.0223326,0.023945
0.0383981,0.00912486
0.0106114,-0.0171582
-0.0277351,-0.0402534
-0.0343285,0.00244227
-0.00326106,-0.00990165
0.158262,-0.0307152
0.113028,-0.0384814
0.0208328,-0.034053
-0.0332287,0.0142195
-0.0392616,-0.0221709
-0.00422615,0.00458861
0.0349446,0.0261375
0.052477,0.0176452
0.0448115,0.0259681
0.0442582,0.0105877
0.0376917,0.0181126
0.0551514,0.0165976
0.0404269,0.00595422
-0.0272249,-0.0153378
-0.0303015,-0.0213541
0.00904548,-7.55e-05
0.0127866,0.0010616
-0.0344489,-0.0194215
-0.0393796,-0.0284917
-0.0201993,-0.0231189
0.00400832,-0.0376905
-0.0030051,-0.0264161
-0.0171856,0.00349978
-0.00257043,-0.0014536
0.00372831,0.0692213
0.00321338,0.061147
0.00142693,0.0312699
0.00241919,0.0254716
0.00766301,-0.0123126
0.0262769,-0.00283512
0.0153955,-0.0143801
-0.0357338,-0.016069
-0.0638969,0.0168616
-0.0656961,0.0135134
-0.0370322,0.00620205
0.0118448,0.00738931
0.0314969,-0.0200077
0.0207642,-0.0235418
0.0135245,-0.00729743
0.00445858,0.0137778
-0.00227866,0.0188716
-0.012006,0.0551394
-0.0782258,0.0456821
-0.135583,0.013735
-0.0710661,-0.0102848
0.0259088,-0.026948
0.0800593,-0.0240791
0.0366475,-0.0568559
0.0321469,-0.0413303
0.0168679,-0.0134118
0.053811,0.00216279
0.0515953,0.0158213
0.0307798,0.0148348
0.0323351,-0.0167646
0.0252418,-0.0194188
0.0110735,-0.0263657
-0.0108869,0.000732046
-0.036787,0.0348075
-0.0170112,0.0174558
0.0177727,-0.00629855
-0.00269027,-0.00682121
-0.00675133,-0.000120355
0.000516766,-0.00785946
-0.00716882,-0.0195516
0.00425333,-0.0240199
0.00835271,0.00324979
-0.0163498,0.0392727
-0.0324542,-0.00952512
-0.023775,-0.0228865
0.00759428,-0.00960659
0.0184866,0.0172704
0.0215525,0.0373428
0.00320208,0.0300511
-0.065711,0.00860815
-0.0616054,0.00414147
0.0330844,-0.0083127
0.0655302,-0.0183288
0.00114575,-0.00274685
-0.0210353,-0.0225808
-0.000765314,-0.00267222
0.0117401,0.040193
-0.0765391,0.032782
-0.0776613,0.0243756
-0.00645348,0.0347904
0.0750537,0.0206064
0.0819113,0.0330686
0.0741363,0.0238086
0.0717377,-0.0710262
-0.0271736,-0.0943734
-0.0788892,-0.0317017
-0.071255,-0.00233258
-0.0295885,-0.00975743
0.00254551,-0.000848105
0.00652009,0.011144
0.0136605,0.00260634
0.00962067,-0.00579245
0.0157384,-0.00377638
0.0448349,0.0362482
0.0412105,0.0236147
0.0129213,-0.000442737
-0.0175462,0.00697392
-0.0231927,0.00532472
-0.00353051,0.00615807
0.008072,-0.00309261
0.0103742,-0.0164382
0.018972,-0.0352633
0.0221733,-0.041661
0.0113131,-0.00782865
0.0087275,0.00594608
0.0133431,-0.0219644
-0.00438113,-0.0214967
-0.0287154,0.00824006
-0.0388592,0.0400779
-0.0274903,0.0423002
-0.00879374,-0.0460709
-0.0234189,-0.0401505
-0.0180809,0.0808088
0.0112402,0.060178
-0.000647535,0.0129147
-0.0368253,0.00103637
-0.0547023,0.00538775
-0.0705878,-0.0173158
-0.0544057,0.0164097
0.000633843,-0.0326607
-0.00424003,-0.0205896
0.0107908,0.00475837
0.0835398,0.0306869
0.191394,0.0460673
0.229874,0.00280643
0.0752552,-0.0137728
-0.122904,-0.00425953
-0.101249,0.00930288
-0.050099,0.00483534
-0.0759442,-0.0203269
-0.120278,-0.0182255
-0.0206954,-0.0205544
0.0739577,-0.0393323
0.0465425,-0.0390564
-0.0553521,-0.0219148
-0.0634997,-0.0231569
0.0302188,-0.0208688
0.0775095,-0.00777268
0.0523948,0.00505491
0.0213622,0.00280998
-0.0066995,-0.0239068
-0.0378952,-0.0108199
-0.0107385,0.00097533
0.0187883,0.00360128
0.0160359,0.0201651
0.00382757,0.0310245
0.00966976,0.0307716
0.0146553,0.052356
0.00819151,0.0299316
-0.00999806,0.00273285
-0.0174099,-0.00682746
-0.0159377,0.0259391
0.0147426,0.0119104
0.00648042,-0.014022
-0.0308001,0.00291592
-0.0661857,0.0172085
-0.0328006,-0.0319211
0.0230814,-0.0340159
0.00913216,-0.0106022
0.00623535,-0.00406536
0.0159188,0.0151137
-0.0089121,0.0349007
-0.0338824,0.0425065
-0.0143763,0.0441746
0.0139356,-0.00458964
0.0299391,-0.047636
0.0658341,-0.0234442
0.0565923,-0.0106132
0.0400442,-0.00893698
0.0212363,0.0048553
0.00299676,0.0331888
-0.0127717,0.0267145
-0.0649136,0.0114084
-0.116318,-0.00596374
-0.107138,-0.0132443
-0.0526792,-0.0398126
0.0877004,-0.0470478
0.100438,-0.0194654
0.0545123,0.0157675
0.0460587,0.0123881
0.0496702,-0.000777694
-0.0228185,0.00917347
-0.0575385,0.0176025
-0.0784717,0.00358814
-0.0242905,-0.0106531
0.0270625,-0.0257609
0.0423351,-0.020128
0.0208245,0.00771192
0.00861936,0.00416901
0.0178726,0.0148773
0.0201512,0.000175741
-0.0158082,-0.0334742
-0.0312724,0.00820657
-0.0411909,0.030864
0.0148384,0.0164541
0.0663848,-0.008104
0.00916424,-0.0238798
-0.0509664,0.0146167
-0.0367131,0.0116865
-0.0369196,-0.0127595
-0.0008871,0.00553465
0.0302905,-0.0134913
-0.0164747,-0.0178788
-0.040044,0.0597019
0.0147339,0.0532528
0.0214664,-0.0175121
0.0154791,-0.0694654
0.0179618,-0.0313686
0.0712553,-0.0291547
0.0590018,0.00886786
-0.0136281,0.0234427
-0.044232,0.0286235
-0.0641269,0.034607
-0.0572372,0.00327398
-0.00371263,-0.0150941
0.0166797,-0.0248392
-0.0139374,-0.0075847
-0.0153322,0.00146989
0.0038306,0.00222172
0.00774886,-0.0185223
0.00223009,-0.0283936
0.00922032,-0.00958246
0.00372458,-0.0294325
-0.00588804,-0.0309001
0.000639818,-0.00674809
0.0118911,0.00229563
0.00808986,-0.0024821
0.00217958,0.0119973
0.00740752,0.0378971
0.00163943,0.0372375
-0.00745586,0.0337083
-0.0120728,0.0311539
0.00391961,0.0144583
0.00327648,-0.0282216
0.00123737,-0.036617
0.005551,-0.0154448
0.00113658,0.0102641
0.00450391,0.00319253
0.0356004,-0.0207343
0.0818693,0.012677
0.0398398,0.0124318
-0.0133527,-0.0196247
-0.0302201,-0.00421454
-0.0571737,-0.00858721
-0.0484151,0.00220252
-0.0216164,0.0230898
-0.0171077,-0.0151963
-0.0150414,0.0480123
0.0361044,0.099988
0.0527009,0.0236926
0.018776,-0.0191014
-0.0505881,0.00503498
-0.0667266,0.0134781
-0.0391238,0.0147277
0.00702686,-0.013771
0.0318929,-0.031562
0.0197282,-0.03907
-0.00911958,-0.0420627
0.00117871,-0.00114842
0.0421386,-0.00331763
0.0733222,-0.0134463
0.047083,-0.00199265
0.00139503,-0.00618786
-0.0412682,-0.00308153
-0.0314522,-0.00510068
-0.0248541,-0.0101356
-0.0334742,0.00501629
-0.00493337,0.0078425
0.0588573,-0.0167637
0.0866164,-0.0213419
0.00755328,-0.00209982
-0.047665,0.0058581
-0.0675676,0.00926633
-0.0416032,0.0148271
0.00351703,-0.0275193
0.00194866,-0.0106686
0.000474519,0.00375307
0.0249148,-0.0223073
0.00651001,-0.0229322
-0.0611541,0.0122994
-0.0564905,0.0623729
0.0496414,0.031129
0.0864089,-0.0297191
0.0487052,-0.0236615
-0.0104257,0.0166081
-0.034073,0.0253983
0.0136058,0.0207802
0.0490155,0.0166723
0.0288946,-0.0132057
-0.029436,-0.00259602
-0.0381405,0.00192164
0.0154822,-0.00262269
0.0333776,-0.0121945
0.00545199,-0.0434598
-0.0262176,0.028394
-0.0712836,0.0505334
-0.049749,-0.0302401
-0.0102828,-0.0183754
-0.0234586,0.0174699
-0.018491,-0.00864026
0.0257098,-0.0305543
0.0367851,0.0094043
0.00629463,-0.00973426
-0.0176278,-0.0070737
0.00544542,-0.0100324
0.01301,0.0123889
0.0100587,0.0240413
0.0124028,-0.0178277
0.0194982,0.00226392
-0.00207396,0.0571283
-0.00739452,0.0760242
-0.00142934,0.0126828
0.00129992,-0.0426137
-0.0077929,-0.00726414
-0.0127588,-0.00388925
-0.00683672,-0.0510394
0.00801449,-0.0511659
0.0117931,0.00867555
0.0118266,0.0352148
0.00811261,-0.0107922
-0.0184541,-0.0118429
-0.0452152,0.0266624
-0.0324861,0.016565
-0.00631168,-0.0212316
0.00737725,0.00768973
0.0126461,0.0124169
0.0141689,-0.00272987
-0.00214728,-0.00851204
0.0281824,-0.0170167
0.066049,-0.00933765
0.0622241,0.0110775
-0.0113572,0.0235391
-0.0551821,-0.00249442
-0.00267529,-0.0160313
0.0627633,0.00719034
0.0380704,0.000313815
-0.0307904,-0.0285701
-0.0329998,0.0016052
0.00672487,0.0419833
0.00762673,0.045735
-0.0445434,0.00946262
-0.0814016,-0.0116357
-0.0492452,-0.0277638
0.00309726,-0.0390924
-0.0327646,-0.0237151
-0.0784225,0.0215038
-0.0409371,0.0378745
-0.00202731,0.0199437
0.0554767,-0.045492
0.0634568,-0.0243301
0.107462,-0.0175605
0.0581734,0.00903259
-0.00560996,0.0322108
-0.00709158,0.0253634
-0.00927135,0.0139682
0.013671,0.0155764
0.0572596,-0.00881244
0.0666607,-0.0272857
0.0107917,0.0479532
-0.0658212,0.0030147
-0.0159107,-0.0293632
0.0077279,-0.0291812
-0.00633796,-0.0222175
-0.0609144,-0.0218203
-0.153454,-0.0104844
-0.049701,0.00296099
0.0382408,-0.0184993
-0.0291709,-0.00389378
-0.0538049,0.0171871
-0.0223356,0.00754972
0.0278811,0.00136479
0.02993,0.0203533
0.0766477,-0.00482011
0.0849663,-0.00336884
0.0512469,0.0167766
0.04938,0.0104978
-0.00698466,-0.00420187
-0.0214292,-0.00659062
0.0342728,0.00274729
0.0288287,0.0192829
0.00105751,0.0262785
-0.0138695,-0.00290178
-0.018489,-0.0441176
0.0157989,-0.0371299
0.00900765,-0.0111023
-0.0218884,0.0224414
-0.0147897,0.0429916
-0.014043,0.00822138
-0.00073904,0.00431982
0.0116338,-0.00754875
0.0112304,-0.0108841
0.0236208,-0.0124973
0.0106006,-0.0176914
-0.0319839,-0.0185983
-0.0278876,0.0015685
-0.0256254,0.0155537
-0.0163442,-0.0110702
0.0198222,-0.0387146
0.0223139,-0.00154061
-0.00152302,0.0185801
0.0118166,-0.00510425
-0.00622942,-0.00225208
-0.0301989,0.0248383
-0.0197233,0.022408
-0.0598112,0.010532
-0.116156,0.00354581
-0.0550591,0.00471475
-0.0442348,0.0280358
0.00805571,-0.0286479
0.0875076,-0.055184
0.0490205,-0.00850047
0.0481405,0.0303885
0.0834375,0.0480825
0.0732461,0.0289916
0.125681,0.00961221
0.129872,0.052855
0.000760336,-0.0128003
-0.117621,-0.105528
-0.0914496,-0.052876
-0.0821693,0.011668
-0.0933129,0.00485311
-0.064753,0.0250413
-0.0376627,0.00899441
0.0175898,0.00620242
0.0228103,0.0105935
0.00425571,-0.00344398
0.00813365,-0.00970402
0.00067445,-0.0263335
0.0108096,0.0268986
0.0435185,0.0342656
0.0314723,-0.0189285
-0.00315711,-0.00564669
-0.00615728,0.0005245
-0.00462485,-0.00700955
-0.000833209,0.00134788
0.0141544,-0.00232136
0.0176691,-0.00447337
-0.00286751,0.0230304
0.00288627,0.00962803
0.00695522,0.000929059
-0.00590689,0.0096294
0.0107378,-0.0234197
0.0229188,-0.0351001
0.0201766,-0.00282361
-0.00594321,0.0109953
-0.0172265,0.00349365
-0.00895635,-0.00450987
-0.00531386,0.00913791
-0.0144799,0.014427
-0.00720333,-0.0283824
0.00743561,-0.0299426
-0.00944778,0.0215979
-0.00646711,0.0260408
-0.0227016,0.0179397
-0.0173851,0.00781496
-0.0183076,0.0237379
-0.0389915,-0.00128758
-0.00867316,-0.0438849
0.0228019,-0.050639
0.0161949,-0.0200482
0.0118928,-0.0127886
0.0153166,0.00385262
0.0218537,0.0112408
0.0437325,0.0264102
0.00815181,0.024989
-0.026425,0.0705706
0.00604292,-0.0107263
-0.0072959,-0.0311281
0.0117442,-0.0118478
0.0473921,-0.0137892
0.026886,0.00929275
0.0347857,0.0246826
-0.0196939,0.0115658
-0.0639906,-0.021248
-0.0583739,0.000389875
-0.00208932,-0.00121211
0.0806155,-0.0222411
0.0492933,-0.021164
-0.00801424,0.0123113
-0.0674491,0.0273772
-0.040396,0.00791096
-0.00867701,0.00166785
-0.000159679,0.00974714
0.00523922,0.00289103
0.000291681,-0.0262436
0.00372775,-0.0304257
0.0106532,-0.018247
-0.0171931,0.0190551
-0.0290344,0.0437333
-0.0225074,0.0262195
-0.0214505,-0.00999148
-0.0263197,-0.0186201
-0.0105298,-0.0229557
0.0100226,-0.0258264
0.00231498,0.00250064
0.0166323,0.0237144
0.046228,0.0357407
0.0996376,-0.0142512
0.067648,-0.0312526
-0.00961177,-0.00336728
-0.0111192,-0.000333051
0.00154511,-0.00365939
-0.00962954,-0.0217588
-0.0140521,-0.000851179
-0.0146616,0.0278895
-0.0328391,0.0331395
-0.0537906,0.0135626
-0.0142141,0.0873784
0.0550521,0.0159508
0.0462045,-0.123684
-0.00132911,-0.057981
0.00415514,0.0119504
0.00594816,-0.0065809
-0.029524,-0.00354906
-0.0412635,-0.00423532
-0.0430691,0.00485681
-0.0205671,0.000592399
0.0418861,-0.00529543
0.0401351,0.00193916
-0.00932505,-0.000513468
-0.0228023,0.0206445
0.0145666,0.0373171
0.0226805,0.0221503
0.0441524,-0.000649243
0.0208054,0.00482739
-0.0699971,2.24e-05
-0.0928081,-0.0120789
-0.0497122,-0.00713965
-0.037707,-0.00100193
-0.0173793,-0.00890067
0.0247511,-0.00963179
0.0325805,-0.00184157
0.0755764,0.00311855
0.0819027,0.00232203
0.0561139,-0.0113332
0.00296525,-0.00301711
-0.0108853,0.0151271
-0.0262439,0.049087
-0.0728824,0.0156036
-0.0845411,-0.00176234
-0.0442687,-0.00173955
0.0392571,-0.0233396
0.054972,-0.0146642
0.01957,-0.020083
-0.00130857,0.0287707
0.016472,0.0116287
0.0373963,-0.0488582
0.0297047,-0.0406579
-0.000623219,0.0142972
-0.0222689,0.00219276
-0.0238627,0.00360184
-0.0165814,0.00413308
-0.012956,0.0123429
-0.00108381,0.044404
0.0098488,0.00223755
0.0185498,-0.0132367
0.0237426,-0.0186428
0.00873562,-0.00569844
0.00949313,-0.000654328
0.0282386,-0.0124894
0.00702343,-0.0167793
-0.0132295,-0.00447408
-0.022079,0.0124238
-0.0210123,0.00722707
-0.0246462,-7.15e-06
-0.0148197,0.00284806
0.00194052,-0.00541539
-0.000938147,-0.00776892
-0.0233815,-0.00161562
-0.0157818,0.00653269
-0.00342607,0.011704
0.00440614,0.0210262
0.0292654,0.0184955
0.0534812,0.0106418
0.032214,0.000786614
0.00259539,-0.00331903
-0.0361187,-0.0408286
-0.0908399,-0.0224663
-0.0165917,0.00189179
0.0802159,0.0430595
0.0358974,0.0294294
0.0289032,-0.0153753
0.044761,-0.0278094
0.0265047,-0.0111243
-0.0918951,0.0135408
-0.147512,-0.0155931
-0.0351846,-0.0341806
0.0679637,-0.0137952
0.0755882,0.00730984
0.0456593,0.0020118
0.0237319,0.0239225
-0.0052029,0.0144926
-0.0329808,-0.00809237
-0.00566337,-0.00192379
0.0202871,0.0178673
-0.0236362,0.0229718
-0.070887,0.0375481
-0.0191283,0.00394108
-0.00141961,0.00513912
-0.0240986,-0.0390615
-0.0221939,-0.0849485
-0.00348571,-0.0186948
0.00887377,0.0481568
0.0391197,0.0369675
0.0363877,0.0125247
0.0300972,-0.00740817
0.0315335,-0.0159589
0.0365186,-0.00370904
0.023714,0.00352254
0.0027627,-0.0170111
-0.00738399,-0.0153882
-0.00789705,-0.00554913
-0.00105257,0.00845801
-0.00385389,0.00376503
-0.0139915,-0.00823365
-0.0266828,0.00364393
-0.0431927,0.000580644
-0.0458971,-0.00788725
-0.0334057,-0.00723096
-0.0285844,-0.0024932
0.0241512,0.0180504
0.0306422,0.0384093
0.00584386,0.00692398
0.0159924,0.00687465
0.0385933,-0.016635
0.0300776,-0.0291968
0.0167915,0.0194059
0.00542964,-0.00145538
-0.0115699,0.0228625
-0.0238885,0.0217532
0.0477313,0.000221369
0.0747784,-0.0116526
0.0307093,-0.00727757
-0.00575015,-0.00808674
-0.0633575,-0.00131743
-0.0367518,0.0392039
-0.0106291,0.0295634
-0.0793595,-0.0226853
-0.085571,-0.00939249
-0.0325744,0.00699343
0.0138981,0.034086
-0.00605357,-0.0164839
0.0289766,-0.0206967
0.0799998,-0.000410961
0.0738982,-0.0567062
0.00710639,0.0271105
-0.0319884,-0.00806027
-0.0425767,-0.0576218
-0.0454978,-0.00554056
-0.0200307,-0.000780223
0.0107902,-0.00939919
0.0539358,-0.0151413
0.0431822,-0.00585778
-0.00853598,0.00993075
-0.0261454,0.0263903
-0.00345,0.0245631
0.0336523,-0.00119017
0.0555886,-0.0141721
0.00802097,0.00212946
-0.0379233,-0.0057411
-0.0578653,0.00843553
-0.0653681,0.0183457
-0.0308241,-0.00260838
-0.0221461,-0.0105489
-0.0223276,0.000996202
0.00649898,0.00948187
0.0334382,0.0132173
0.026504,-0.0105415
0.0346676,-0.0108946
0.0367414,0.0135645
0.017467,0.000689878
0.0393452,-0.0107083
0.0427166,0.0098229
0.0125175,0.015445
-0.0331087,0.0231868
0.0109219,0.0273277
0.106701,-0.00997783
0.101076,-0.0383849
-0.0040314,-0.0299089
-0.13914,0.00914295
-0.121435,0.0188833
-0.0276416,-0.0228409
-0.0157809,-0.00296668
-0.0208814,0.0223002
0.0724187,-0.0123428
0.126715,-0.0275549
-0.0146774,-0.0195666
-0.103949,0.00505372
-0.0872759,0.0523531
-0.0209737,0.0337364
0.0113434,0.00369665
0.00646985,-0.0133114
0.0272199,-0.00469285
0.0248074,-0.00854519
-0.0273165,-0.00688408
-0.0394526,0.00164613
-0.0170256,0.00324831
0.00566425,0.00954198
0.0214787,-0.0105101
0.0280283,-0.01364
0.0282757,-0.0102864
0.00705045,-0.0132184
-0.00642587,-0.0167303
-0.0214153,-0.0110592
-0.0070275,0.0076963
0.0154885,-0.000255282
0.00964896,-0.0125863
-0.000253126,-0.0069599
0.0112851,0.00587281
0.0173089,0.0199225
0.0119305,0.0275189
-0.00206481,0.0277478
-0.0276753,0.0452686
-0.0461773,0.0175536
-0.041898,-0.0145197
0.00775346,0.0221572
0.0446399,-0.0116614
0.0637498,0.00655677
0.10045,0.0157755
0.0958478,-0.0369461
-0.00379307,-0.0457091
-0.0929768,-0.0353688
-0.10848,-0.0183301
-0.0702239,-0.00805236
-0.00685708,0.0180836
0.0275438,0.0222899
0.0337913,0.00111863
0.02088,-0.0120314
-0.0255714,0.00348163
-0.0364429,0.00654796
-0.0205395,0.00626008
-0.0185867,0.00167281
-0.0103754,0.0168325
0.0234363,-0.00804207
0.014662,-0.00935926
0.00737068,-0.0120095
0.012788,-0.0110316
0.0123191,0.0058265
-0.0166445,0.030446
-0.0564553,0.0108542
-0.00155061,-0.0201392
0.00147631,-0.0159018
-0.00811458,-0.00100043
0.00571414,0.000173537
0.0392053,0.00482162
0.0600937,0.005371
0.0298113,0.00852065
-0.00668817,0.00671498
-0.0246503,0.00999577
-0.021399,0.0251612
-0.0134933,-0.0119288
0.0125177,-0.00620157
-0.0143907,0.00482327
-0.0248596,-0.0426427
-0.00196632,-0.0353884
0.00274104,-0.0039293
0.0253598,0.00819726
0.0609109,0.0230916
0.0379128,0.0168235
-0.0145195,0.0170694
-0.0313759,0.0117432
0.114158,0.0128634
0.100087,0.0148165
-0.0468085,-0.0212619
-0.0912719,-0.0087568
-0.0594551,-0.00876877
-0.0622857,-0.0184645
-0.0379346,-0.0281688
0.0225593,-0.0247676
0.0752716,-0.0101936
0.0582895,0.00744208
-0.0159073,0.0232523
-0.031405,0.013243
0.0075337,0.00613792
0.0207851,-0.0106436
-0.0310874,-0.0114337
-0.0622481,0.0156147
-0.0278112,0.00316797
-0.00728588,-0.00303921
0.00165282,0.00662568
0.00834637,0.0173214
0.0098765,0.0155978
0.0181289,-0.00117631
0.0231279,-0.0152343
-0.00352883,-0.0178333
0.00300557,-0.00684944
0.0160361,0.0109531
-0.00327629,0.0270463
-0.0102799,0.0080271
-0.00222605,-0.0172387
0.00387562,-0.0234067
0.000533563,-0.00733743
-0.00407756,0.000597227
-0.00315198,0.0026593
-0.0200639,0.00935203
-0.0210921,0.0126518
-0.00249961,0.00896697
0.00696142,0.0182569
0.0030702,0.0237844
0.0030754,-0.00157919
0.0217204,-0.00866245
0.0217109,-4.5e-05
-0.00946521,-0.0275471
-0.0171888,-0.00112893
0.0137259,0.0343558
0.0613327,0.0333008
0.0856553,-0.0690336
-0.0189368,-0.0472821
-0.126712,-0.00835356
-0.0591276,0.00574366
0.0177072,0.0112576
0.0606014,0.0531388
0.0526207,0.0724461
-0.0377704,-0.0725303
-0.080874,-0.0553505
-0.0418714,0.034477
-0.00282755,0.0131144
0.0119444,-0.0298093
-0.0206046,-0.0318489
-0.0356615,-0.000954951
0.0290222,-0.000605275
0.0609252,-0.00085616
0.00894364,0.0117014
-0.0229892,0.0160325
-0.0161197,0.00850893
-0.00748014,-0.00258556
0.0158173,-0.0129152
0.0224073,0.00441719
0.0108584,0.0225891
0.00279591,0.0155788
0.00553584,0.0112209
0.0227778,0.0156237
0.0244645,-0.0143415
0.00834316,-0.0211714
0.00725051,-0.0126864
0.0187758,-0.00239878
0.0197378,0.00804273
0.00648973,0.00752749
-0.00318607,-0.000634401
-0.00422711,-0.00553427
0.00433042,-0.0245936
0.00355082,-0.0103059
-0.0133617,-0.00919664
-0.0361136,-0.0115172
-0.0472248,0.00322464
-0.0188185,0.0202835
-0.00676553,0.0196494
-0.006402,0.0173425
-0.0144628,0.026228
-0.0469125,0.0235721
-0.0140402,0.0055485
0.071232,0.00340436
0.116181,-0.0220638
0.00273518,-0.00468682
-0.158456,-0.00692488
-0.117809,-0.036832
-0.00715908,-0.0283444
0.0585348,-0.00781767
0.0559314,-0.00183251
0.0570353,0.0157597
0.0455764,0.0153853
0.0358638,-0.00394881
0.0270854,0.0219078
0.00613906,0.0114097
0.00716023,0.00943559
-0.0075843,0.0178006
-0.0295994,-0.00944558
-0.0303886,-0.0151213
-0.0160259,-0.0370423
-0.00776488,-0.0467307
0.00061041,0.0619473
0.0270307,0.0308379
0.0172192,-0.00224682
-0.0132918,-0.00146001
-0.0174101,-0.00419937
0.00952308,-0.00506887
0.0376315,-0.00251802
0.0608518,-0.00348955
0.0214652,0.00693901
-0.0316124,0.000487359
-0.0298534,0.025249
-0.0293079,0.00645866
-0.0120857,-0.0523066
-0.000108208,-0.0358439
-0.0303393,-0.0169636
-0.0305356,0.00087792
-0.0138524,0.0177531
-0.00632825,0.0190112
0.00590654,0.0128493
0.0257679,0.000482178
0.0151037,-0.00463343
-0.00926851,-0.0107456
-0.0350027,-0.0300942
-0.0250164,-0.0451237
-0.0146944,-0.0156051
-0.0247271,0.0372108
-0.0144505,0.0226106
0.00882345,0.0131153
0.0727798,0.0115199
0.0814302,-0.0237769
0.0293166,0.0114862
0.0529165,0.0292802
0.0358829,0.0046723
-0.0200086,-0.00164819
-0.0751206,0.0139101
-0.073255,0.0253911
-0.0253705,-0.00208406
0.034252,-0.0302404
0.0506184,0.0199988
0.0146954,0.0265288
-0.0267058,0.00243951
-0.0442806,0.00250739
0.0168017,-0.0107504
0.0520301,-0.0258081
-0.0283049,-0.0176366
-0.092416,-0.0124913
-0.107576,0.00160376
-0.0315624,0.00539707
0.016718,0.0365728
0.00468775,0.00325151
0.0167486,0.0303808
0.0645137,0.0199636
0.0661381,-0.0131414
0.0329933,-0.0223098
0.0251626,-0.0594978
0.00656471,-0.03565
-0.00912107,-0.00047738
-0.00774499,0.000517322
0.00672179,0.0140293
0.0185115,0.0022173
-0.0201849,-0.0120797
-0.0455053,-0.00121784
0.0223525,0.0013401
0.0706754,0.0148657
0.0257386,0.0281986
-0.033718,0.00502993
-0.0307781,0.0104469
0.0414254,0.0127005
0.0714501,-0.0215168
-0.0246451,-0.0388441
-0.0691859,-0.0137607
-0.0555193,0.025507
-0.031265,0.0125925
-0.0130113,-0.00988903
-0.00243392,0.0078147
-0.0176706,0.0138124
-0.0111489,0.0274573
-0.0108852,-0.00243623
0.000607515,-0.0161708
0.0210989,-0.00402343
0.0201933,-0.0142284
0.0214342,-0.00298432
0.0273063,0.0113425
0.0260106,0.0156669
0.0104959,0.0158469
-0.00125355,-0.0117912
-0.00592134,-0.0104583
-0.0140506,0.00485981
0.00346231,0.00573525
0.00755553,-0.0024466
0.00568407,-0.0122793
-0.00618195,-3.9e-05
-0.0124881,0.00902247
-0.0182364,0.000197709
-0.0177871,0.00113342
-0.00276635,-0.0129868
0.000771063,-0.0197022
-0.0047228,-0.0100058
-0.0104301,-0.00305721
-0.00578884,0.00565185
0.00106541,0.00578425
-0.00472831,-0.00518992
0.0152001,0.0585614
0.0580752,0.0785077
0.113885,0.00101781
0.138389,-0.052675
-0.028339,-0.0574361
-0.147161,-0.01117
-0.131378,-0.00867147
-0.0446186,-0.0229491
0.00975852,-0.000193303
-0.00550209,0.0191367
0.00436408,0.010758
0.0821782,-0.00597252
0.04996,-0.0101485
-0.0287816,-0.0115241
-0.0619952,-0.0226866
-0.0333197,-0.00908428
-0.0108772,0.0312827
-0.0192473,0.028784
-0.0219454,0.0103865
0.00381828,-0.00742634
0.014578,-0.0229795
0.0335093,-0.0239072
0.0270556,-0.0103881
0.00902267,0.0212497
0.00707683,0.01906
0.0158731,0.015699
0.0195571,0.012873
0.0148397,-0.00225448
0.00178289,-0.0132885
-0.00600318,-0.00699757
0.0051705,0.000790486
0.0125382,0.00512699
0.0127248,0.0102765
0.00334366,0.00620675
-0.00360577,-0.00783481
-0.00471613,-0.0100172
-0.00202122,-0.00978614
0.00602755,-0.0194572
-0.00171012,-0.0142868
-0.0212317,0.010591
-0.0386345,0.0244775
-0.0309854,0.004728
-0.0106889,0.0281117
-0.0184612,0.0314639
-0.0139344,0.0128825
-0.0330073,0.0453726
-0.0180525,0.0258973
0.064376,-0.0719749
0.0994091,-0.0359394
0.0451557,0.00918678
-0.0276736,-0.0340462
-0.0368429,-0.0348722
-0.0131135,0.0259842
0.014464,0.0136651
-0.0276121,-0.0165651
-0.00205594,-0.00967792
0.0151169,0.0138951
0.0298307,-0.0243549
0.0249934,0.00386902
-0.0759727,0.0194441
-0.0407734,-0.00517857
0.0142078,-0.0203978
0.0094187,-0.0133748
0.00465072,0.00115774
0.00571751,0.00646507
-0.0179757,0.012234
-0.0168445,0.0181347
0.00578592,0.0122566
0.0176531,0.00649153
0.0163455,0.00466005
0.00935134,0.00569259
0.0134549,-0.00723355
0.00621423,-0.0108373
-0.00404933,0.00913829
0.0020026,0.0103048
0.013139,0.0082858
0.0126219,0.014619
0.00716977,0.000751036
-0.00296591,-0.0158543
-0.0170326,-0.0245868
-0.00869107,0.0141391
0.00480108,0.0328051
-0.00520958,0.0185927
-0.0248752,0.000537309
-0.00975559,-0.0137781
0.00395774,-0.0221695
-0.0034096,-0.0266162
-0.000421972,-0.000658271
0.00939433,0.00312014
-0.0014067,-0.000182758
0.0310289,8.41e-05
0.0907842,-0.0109867
0.101267,0.00175144
-0.00779747,-0.00398425
-0.0291738,-0.0146879
0.0430314,-0.0146027
-0.00946767,-0.0125881
-0.0723317,-0.000391754
-0.0802905,0.0250081
-0.0915399,0.0291398
-0.0529578,0.00727702
-0.0435953,-0.00959527
-0.0455221,0.0120898
-0.0226987,0.0343839
0.00973092,-0.0496769
0.0227761,-0.0542662
0.0263958,0.00237436
0.0284656,0.00611326
0.0336332,0.00921689
0.0216353,0.0105247
0.00289802,0.00244164
0.0175455,-0.00668036
0.0172851,0.00779659
-0.00135997,0.0347505
0.0138808,0.0165889
0.0236644,-0.0211787
0.0137931,0.0022475
0.00053258,0.00146087
-0.00514899,-0.00224572
0.00483715,-0.00183104
0.0135642,-0.00435487
0.00949757,-0.0109858
-0.00409186,-0.00685443
-0.0113521,-0.00227833
-0.0053764,-0.00959201
-0.000303785,0.0213204
0.00311299,0.0233325
0.00696216,-0.0127995
-0.00107736,-0.0245033
-0.0154947,-0.0137252
-0.021963,-0.0147917
-0.0252564,-0.00392524
-0.0124853,0.0138362
-0.012992,-0.00153617
-0.00895717,-0.00409194
0.0063931,0.0162755
-0.0013345,0.00607853
0.0175164,-0.0040131
0.0434098,-0.0199759
-0.000979592,-0.00857766
-0.00684513,0.0304945
0.0186229,0.0572501
0.0778656,0.0475939
0.0919117,0.00239793
-0.0144675,-0.0169044
-0.109854,-0.0221743
-0.092852,-0.0175584
-0.0432362,-0.00700085
0.0227156,-0.0185923
0.00655365,0.0250677
-0.0311759,0.0266778
-0.00559173,-0.0089719
0.0492009,-0.0256946
0.0474138,-0.0316642
0.00307732,-0.0291534
-0.0127077,-0.0154616
-0.00950477,0.0101501
-0.0250893,0.0177761
-0.0316133,0.00494379
0.00113897,-0.000581947
0.0335751,-0.00579472
0.0348885,-0.0181878
0.0350423,-0.0177315
0.00975814,0.00471385
-0.0312936,0.0289479
-0.043588,0.0274602
-0.019726,0.00934544
-0.0214012,0.00224185
-0.02233,0.0290002
0.0234209,0.00993602
0.0525704,-0.014259
0.0307349,0.0488796
0.0328153,-0.0165225
0.0186264,-0.0336273
-0.0311588,-0.0227915
-0.0458992,-0.00600414
0.0170959,-0.000820323
0.0424365,-0.00986657
-0.0121295,-0.00658162
-0.0397758,0.00313959
-0.00801605,0.00346964
-0.000351716,0.00423272
-0.000888168,0.0160277
-0.00106408,0.0151234
-0.00426724,0.00101835
-0.000931721,-0.00425489
0.0130745,-0.00757657
0.00497309,-0.0163702
-0.0115076,-0.0162668
0.00115746,-0.00285377
0.00834759,0.00617426
-0.00684431,0.00399156
-0.0123843,-0.00106327
-0.0186862,-0.0152822
-0.00674429,-0.0159631
0.0133428,-0.00422744
0.0220674,0.00748769
0.0178166,0.00622005
-0.00011104,0.00958356
0.000829847,0.0256989
0.0270336,0.0303574
0.00560758,0.0238529
-0.0231879,0.00713488
-0.00724125,0.00174987
-0.00955961,-0.0299433
-0.0381233,-0.0393852
-0.0215285,0.00286338
0.012296,0.0221189
0.0122017,0.00759338
-0.0292258,0.0117483
-0.0135817,-0.0390605
0.0110938,-0.0566156
0.00843891,0.000572585
0.0347032,0.0220232
0.042076,0.0034325
0.0311296,0.0165532
0.0064399,0.0236763
-0.0206996,0.00863359
-0.00784035,-0.00171666
0.0083683,-9.66e-05
-0.00457169,0.0043621
-0.0175731,-0.0160165
-0.0217276,-0.0042748
0.0191083,0.00914752
0.0714994,-0.0148799
0.000901727,-0.0227595
-0.0482494,-0.00473069
-0.0449551,0.00328103
-0.0214026,0.00165096
-0.0260557,0.00266695
-0.0225317,0.00622152
0.00206998,0.0105424
0.0245022,0.0190419
0.00669985,0.00515777
0.00418171,-0.014302
-0.00746169,-0.0146778
-0.00878467,-0.00666147
0.00355813,0.00131819
0.0224992,-0.00915861
0.0158927,-0.00537544
-0.00493794,0.00371888
0.0104191,-0.00179707
-0.000246959,0.0116689
0.0202454,0.023685
0.0471112,0.0204217
0.028375,-0.0151419
-0.0158583,-0.0156185
-0.0258807,-0.0323807
-0.0210688,0.00579572
0.0027856,0.0350288
-0.00326558,0.0350595
-0.0226509,0.0170159
-0.0196645,-0.0401733
0.00495956,-0.0495991
0.0143017,-0.0195048
0.0138705,0.00587823
0.0267074,0.0299582
-0.00698328,0.0260762
-0.0547515,0.0124169
-0.0353848,0.00787481
0.0300819,0.0155879
0.067006,0.00306794
0.00961065,-0.00660497
-0.0744537,-0.000903489
-0.0764591,-0.0111707
-0.0217892,0.00197461
0.0310051,0.00555765
0.0440971,-0.0151912
0.00691165,-0.0172495
-0.0387579,-0.00696785
-0.0509875,-0.0146592
0.00833958,-0.023682
0.0316272,-0.00586394
0.0362415,0.0327701
0.0656653,0.0124835
0.0296339,-0.0134195
-0.00309263,-0.0104946
-0.00938624,0.00626659
-0.029826,0.0185654
-0.0249262,0.00311485
-0.0175921,-0.0246447
0.00836209,-0.0210156
0.0214523,0.0126695
0.022352,0.0318637
0.0208595,0.0160825
0.0132854,-0.0056367
0.058173,-6.81e-05
0.0473635,-0.00322605
-0.0583453,-0.00975093
-0.0978109,-0.00154504
-0.0413256,0.0539212
0.0129236,0.0210522
0.0305775,-0.048689
0.0298318,0.0095978
0.0210695,-0.0213455
0.0101827,-0.0441601
-0.00558457,-0.0132811
0.00504596,0.0218162
0.0205823,0.01713
0.054099,0.0218825
0.00338672,0.0229354
-0.0260813,-0.0199116
-0.0304852,-0.0205115
-0.0408798,-0.0125176
-0.0633284,-0.00681602
-0.079335,-0.00195769
-0.0612963,0.00846957
-0.00457384,0.0274666
0.032332,0.00911334
0.0409469,-0.00779148
0.0265225,-0.00544763
-0.00238142,-0.0129267
0.0202863,-0.015744
0.0276977,-0.0120317
-0.0152217,0.00156121
-0.0371527,0.0242767
0.0313482,0.0163709
0.0702886,-0.00518956
0.046159,-0.0115873
0.0083765,-0.0298127
-0.0300001,-0.00675205
-0.0561141,0.0200896
-0.0424815,3.36e-05
-0.0103891,0.00508736
0.00630841,0.0416532
0.014458,-0.00770154
0.0288346,-0.0149031
0.0254762,-0.015436
0.00275649,-0.00446439
0.011176,-0.00172967
0.0693611,-0.0169726
0.0482533,0.0199931
-0.0293367,0.0353483
-0.0342999,0.023361
-0.00358857,0.00169832
-0.00713718,-0.0223789
-0.0384085,-0.0233277
-0.0306295,-0.0122951
-0.0245478,-0.0165816
-0.0249057,-0.00963937
-0.0344433,0.0354887
-0.0367123,0.0500983
-0.0157778,0.00692444
0.00931241,-0.0330416
0.0137087,-0.0336996
0.0351521,-0.0101856
0.0268709,0.00835697
-0.00103288,0.0131279
-0.00439452,0.0112691
0.0269587,0.0111346
0.0878274,0.00785356
0.0924595,-0.00753572
0.058792,-0.0150378
-0.0344998,-0.0382792
-0.0965142,-0.0277346
-0.0797296,0.0374832
-0.0565985,0.0473176
-0.0212105,0.0152682
0.00608231,-0.0415998
0.0123548,-0.00536227
-0.000534929,-0.00056251
-0.0174413,-0.0288388
-0.0267412,-0.00597662
-0.00402507,0.0407483
0.0202334,0.0349249
0.0224583,0.00999993
-0.000792314,0.0246868
-0.0261737,0.00779825
-0.0192719,-0.026199
0.0297323,-0.0239233
0.0445451,-0.0169124
0.059327,-0.0253811
0.0390706,-0.030357
0.0262104,-0.00135361
-0.000705142,0.0168595
-0.0417105,0.00115366
-0.0280117,-0.00757132
-0.0216666,0.00369833
-0.0226726,0.00744999
0.0221462,0.0106393
0.0742448,0.0267092
0.0919118,0.0367278
0.041292,0.0232403
-0.0398339,-0.0350166
-0.0375299,-0.0197068
-0.00925536,0.0185905
-0.0420733,0.0139976
-0.0692593,-3.34e-05
-0.0235378,-0.0120228
0.0339382,-0.0282066
0.0229923,-0.0113899
-0.0369556,0.00970005
-0.0687936,0.0285114
-0.0325635,0.0164599
0.0120899,-0.0305799
0.0319871,-0.0175972
-0.0194175,-0.00314351
-0.0367896,-0.0202453
0.00862732,-0.00693023
0.0260613,-0.0129828
0.00807479,-0.0147075
0.0113777,-0.00467628
0.0163077,0.0117157
0.0282172,0.0102772
-0.0203571,0.0130001
-0.0114136,0.0106373
0.0175449,0.0227768
0.00734678,0.0251943
-0.0188741,0.0164459
-0.0208589,0.0168912
0.0128573,0.0127959
0.0546402,-0.0423074
0.0485094,-0.0271557
-0.0160603,-0.0236897
-0.0616727,-0.013653
0.0104949,0.00863741
0.115435,0.00657532
0.0676317,0.00209852
-0.0238264,-0.00608246
-0.0772616,-0.0248102
-0.076776,0.00165419
-0.045194,0.0467746
-0.00738744,0.0280381
0.00530365,-0.0139595
0.0165494,-0.0311796
0.0197951,-0.00154331
0.0248288,0.0120323
0.0101207,0.00715047
-0.00767502,-0.00942015
-0.025448,-0.0221985
-0.0365604,-0.00564044
-0.0194147,0.0102321
0.0549591,0.000249812
0.0994581,-0.0168495
0.0107321,-0.0125763
-0.0748051,-0.00468238
-0.0700624,-0.00411962
-0.0278213,0.0170273
-0.0293993,0.0213121
0.00420458,0.0372644
0.028895,0.0320144
0.0179561,0.0132283
0.0842759,-0.0179274
0.114009,-0.0302451
-0.0381088,-0.0219723
-0.110776,-0.00819921
-0.0405665,0.0312668
0.0269733,0.00754546
0.0221785,-0.00500202
-0.0113951,0.00472566
-0.0134446,-0.00592128
0.00150584,-0.00999547
-0.0130124,-0.00631896
-0.00387837,-0.00136674
0.0268177,-0.00418445
0.0306315,-0.0022306
0.0193991,0.010596
0.00295062,0.0100206
-0.0031065,0.0123785
-0.00413591,0.0117592
-0.0142062,-0.00693726
-0.0341461,-0.0201779
0.00040578,0.00808125
0.0277079,-0.0136654
0.0151721,-0.0107782
-0.000698448,-0.0084583
-0.0222398,0.00638306
-0.0247225,0.00224721
-0.0303652,-0.00260709
-0.0250967,0.00629948
0.0394004,-0.00251632
0.0750941,-0.0108161
0.00937435,0.029146
-0.0566884,0.0482525
-0.0184444,-0.00848843
0.0404339,-0.0314274
0.070345,-0.0138664
0.0367727,0.0032869
-0.0456553,-0.0186378
-0.0874874,-0.0178855
-0.0605443,-0.00219557
-0.00368803,0.00589869
0.0120052,0.00809818
0.0123204,0.0186522
0.0274827,0.0030249
0.0576664,-0.0099784
0.0684577,-0.0200132
0.0229419,-0.0453373
-0.0199965,-0.0107975
-0.0617378,0.0312835
-0.0758922,0.0318126
-0.00139963,0.0176171
0.00885331,0.0147487
-0.0277765,0.0186434
-0.0404378,-0.0109541
0.000537249,-0.0295165
0.0223802,-0.0255496
-0.00224339,-0.00867894
-0.0232666,0.0124439
-0.00517232,0.0216347
-0.010326,0.0117671
-0.00663206,0.000557867
0.00890756,0.00343184
0.0194692,0.00647526
0.0401948,-0.0077351
0.0721307,-0.00276214
0.0867128,0.0499223
0.0779326,0.0152382
0.0682393,-0.0160446
-0.0322763,-0.0287881
-0.129579,-0.011399
-0.0977841,-0.0181415
-0.0343099,-0.0197403
-0.021014,-0.000752182
-0.0214175,-0.00734608
-0.0222838,0.00161774
-0.00834004,0.0108026
0.00087313,-0.00227771
-0.0122933,-0.00406281
-0.013287,0.0127237
0.0170286,0.0207598
0.0472496,0.020035
0.09357,0.00030541
0.130089,-0.030286
0.0831299,-0.0203189
-0.0631189,0.016196
-0.130269,0.0359451
-0.0714811,0.00203959
-0.0265682,-0.0225303
-0.0195818,-0.0153827
0.0119891,-0.0101604
0.0627401,0.00403745
0.0051282,0.0047574
-0.0118267,-0.00950014
0.0239884,-0.0100968
-0.00703528,-0.00395432
-0.0372443,0.00118766
-0.0223912,-0.00121516
-0.00594296,-0.0100149
0.000993454,-0.0025669
0.0058553,0.00793997
0.00807138,0.0168931
0.01074,0.025678
0.013537,0.0228067
0.0102978,-0.00581104
0.0455316,-0.0375176
0.0566836,-8.64e-06
-0.00569545,0.00657431
-0.0360135,0.0139764
-0.0324003,0.0459093
-0.0136839,0.0284122
-0.00112711,-0.015887
0.0172628,-0.0117923
0.103622,-0.0295782
0.176089,-0.0406843
0.0681734,-0.0132803
-0.118603,-0.00358207
-0.208589,0.00612237
-0.162454,0.0139678
-0.0376801,-0.015522
0.00432595,-0.0361392
-0.000964527,-0.0244332
0.0246578,0.0300912
0.0387179,0.0452688
0.024183,0.00463042
0.0055138,-0.00268049
-0.00305181,0.0104308
0.00336518,0.00191279
-0.00572037,-0.019578
-0.0196656,0.0149842
-0.0157793,0.00676419
-0.00735416,-0.0113749
0.0243886,0.00326534
0.0506884,0.0270956
0.0548522,0.021883
0.0613106,0.00452775
0.0292577,-0.0271107
-0.03539,-0.0365152
-0.0309834,-0.00511657
-0.00648149,0.0127772
-0.0448935,0.0146287
-0.0197478,0.0194519
0.0333643,0.0195939
0.0311272,0.0112934
0.00965123,0.0190647
-0.00820838,-0.027421
-0.0273071,-0.0349747
-0.0622501,-0.020441
-0.097371,-0.0132536
-0.0498743,0.00880403
0.0258767,0.027096
0.0895097,0.00839607
0.178037,-0.00508835
0.194465,-0.0178389
0.033567,-0.0187569
-0.125301,-0.00467297
-0.113747,-0.0029238
-0.0858981,-5.89e-05
-0.0870426,0.0287513
-0.0401334,0.00980309
0.0227489,-0.0337143
0.0217516,0.00601734
-0.0088366,0.0313132
0.00401332,0.00323766
0.00138395,-0.0114045
-0.0310844,-0.00509731
-0.0233962,0.00762851
-0.00191245,0.00411767
0.00231252,-0.00343781
0.00675704,-0.000953252
0.0229582,-0.00653476
0.0410923,-0.0173135
0.0411723,-0.0154525
0.0407003,-0.00770502
0.0397016,-0.00737616
0.0118507,-0.00199637
-0.00583323,0.00450689
0.015681,-0.00184629
0.0416755,0.0100213
0.0593795,0.015569
0.0082368,-0.0167197
-0.0642944,-0.00484154
-0.039382,0.0250043
0.0158538,0.0152251
-0.0267943,0.00998757
-0.0556863,-0.00669166
-0.0312456,0.00123985
0.00788529,0.0123346
0.0813952,-0.00679253
0.0672807,0.0177278
-0.0266659,-0.00638805
-0.0570196,-0.0302006
-0.0157466,-0.0109453
-0.0530261,-0.00102344
-0.0775494,-0.00198259
-0.0571098,0.00643158
-0.00674674,0.00987219
0.0446644,-0.00593313
0.0953004,-0.000719731
0.111117,0.00182199
-0.0136797,0.0364584
-0.131514,4.04e-05
-0.12735,-0.0357489
-0.0303126,-0.0163515
0.0182868,0.00428255
0.021168,0.0106057
0.0262717,-0.00448155
0.0575607,-0.0233641
0.0405999,0.0128728
0.0194648,-4.9e-05
0.0120732,-0.00635016
-0.00167447,0.00109462
0.0338914,0.011573
0.0545922,-0.0189752
-0.00500437,-0.0501938
-0.0370651,0.0017525
-0.0385022,0.0687993
-0.00276774,0.0489003
0.0643552,0.00764627
0.0941866,-0.0237236
0.00334048,0.00903303
-0.0826813,0.0166462
-0.0565042,-0.00940662
-0.0515512,-0.00430788
-0.0780453,0.0138792
-0.0816747,0.0351885
-0.0219367,0.0552372
0.101744,0.0219537
0.156854,-0.0185549
0.12588,-0.0429256
0.0348659,-0.0311684
-0.0170681,-0.0122477
0.0250129,-0.0185987
0.00811319,-0.0255259
-0.0552613,-0.00785034
-0.129833,0.0134791
-0.124779,-0.00913525
-0.0345604,-0.0128424
0.0236128,-0.0260744
0.0158119,-0.0230509
0.00938023,-0.00278819
-0.00739788,0.0178455
-0.0272033,0.0256113
-0.0312559,0.0146096
-0.0302414,0.019548
-0.00448096,-0.0155969
0.0181846,-0.0260054
0.000487111,0.00107105
-0.0123485,0.0214031
0.00181168,0.00148176
0.0308741,0.0310999
0.0390431,-0.0119753
0.0581819,-0.00619686
0.0745592,-0.0209475
0.0669553,-0.033688
0.0295057,-0.0134253
-0.00440085,0.000391724
0.00955439,-0.000994364
0.0334555,0.00328932
0.0354257,-0.0121256
-0.00928682,-0.0174539
-0.0578428,-0.00932612
-0.06634,0.0190186
-0.0587489,0.049662
0.0984758,0.0639649
0.208027,0.0273516
-0.0260181,-0.0240057
-0.188676,-0.0256198
-0.112551,-0.0389133
-0.0263785,-0.0172941
-0.0125782,0.00500367
0.00712397,-0.00349708
0.0198462,-0.0119414
0.00621112,0.00382216
-0.00553832,0.0218795
-0.0178766,0.0377801
-0.00596347,0.0255664
-0.00398506,-0.0179732
-0.00754957,-0.0164261
-0.00494514,0.00476904
0.00664431,0.0208166
0.0151495,-0.0158764
0.0121392,-0.0229479
0.0244545,0.00293819
0.0332624,0.0100638
0.00990305,0.010399
-0.00327046,-0.00339261
-0.00802726,0.00283479
-0.00498264,0.00651483
0.0113248,0.00613536
-0.0174323,0.0244858
-0.0505177,0.0214303
-0.0703463,0.0139012
-0.0720951,0.00348268
-0.027046,-0.0132881
0.0260267,-0.0113266
0.0520263,-0.033513
0.0265861,-0.0355919
-0.0047607,-0.034242
-0.000776574,-0.0171039
0.00775794,-0.00219015
0.00844794,-0.00751049
0.000105458,-0.0054792
-0.000143335,-0.00236016
0.0187064,-0.00448399
0.0571409,-0.0119656
0.160264,0.00878165
0.383791,0.0263144
0.435564,0.0400711
0.29834,0.0394525
0.106534,0.0179087
-0.16077,-0.00146344
-0.432127,-0.0193066
-0.566039,-0.0148621
-0.415411,-0.00577834
-0.176829,-0.00707618
-0.0482725,-2.23e-05
0.00483705,0.00687946
0.0112162,0.00823352
-0.0150205,0.0137824
-0.0302275,0.0131606
-0.0224851,-0.00210696
-0.00238974,0.00200259
0.00886192,-0.000869274
-0.0208297,0.00265597
-0.032719,0.0178474
-0.0268194,0.0179588
0.0207325,-0.00330815
0.083233,-0.0207753
0.0936811,-0.0176457
0.0848021,-0.0175996
0.0656147,-0.0213689
0.050538,-0.0107977
0.0545924,0.00142098
0.0793296,-0.0169881
0.0719323,-0.0027258
0.0408173,0.0192795
0.0912669,0.0243892
0.218963,0.0105625
0.268963,-0.00750318
0.217006,0.0103864
0.0476881,-0.00178694
-0.179095,-0.0108058
-0.311676,-0.0103927
-0.281564,-0.0059596
-0.195659,0.00160486
-0.118273,0.00883711
-0.0381288,0.00215057
-0.00246102,-0.00785089
0.00576603,-0.00246704
-2.43e-05,0.00879893
-0.00911278,0.00102909
-0.0228596,-0.00464306
-0.03515,-0.00856636
-0.0299504,-0.00763114
0.00106622,-0.00835975
0.0814843,-0.00494743
0.187692,0.0022563
0.166989,0.0114943
0.0686689,0.0104896
-0.0343958,-0.0132345
-0.148799,-0.0260918
-0.173441,-0.0162695
-0.124215,-0.00803269
-0.0657067,-0.0120824
-0.0247701,-0.0100885
0.00297217,0.00763097
-0.00503545,0.0143396
-0.027792,0.00335637
0.00603035,0.00244211
0.0247905,0.00136789
0.0692294,-0.00347639
0.274287,0.00168166
0.381006,0.0164927
0.435213,0.0226475
0.366008,0.0267488
0.167241,0.0249957
-0.148891,0.0125404
-0.356547,0.00893996
-0.45295,0.00726263
-0.48246,-0.00590572
-0.400804,-0.0183395
-0.222253,-0.00138048
-0.0488669,0.0268733
0.0818427,0.0259166
0.105567,0.0133646
0.0373685,0.00584219
-0.0502947,-0.00816755
-0.0678919,-0.0263719
-0.056962,-0.0275449
-0.0314214,-0.0250138
-0.00748341,-0.0191094
0.0169514,-0.00523501
0.0655957,-0.000791996
0.118944,-0.00703443
0.142859,-0.0109043
0.153206,-0.00553887
0.158939,-0.00750647
0.156947,-0.0137455
0.153668,0.00254022
