Comp Ch 3,Comp Ch 4
-0.20555,0.0528347
-0.0729509,0.0541746
-0.0536785,0.0406219
0.0706946,0.0167507
0.29976,-0.058355
0.476172,-0.0991575
0.288678,-0.0558709
0.125423,-0.0634419
0.000383243,-0.012549
-0.0467856,0.00533761
-0.042132,-0.0103987
-0.0487415,0.0125147
0.0351306,0.0225224
0.0752895,0.0251014
0.0452787,0.0216665
0.0120605,0.0152629
-0.0104153,0.00213251
-0.0299505,0.0173377
-0.0315837,0.018649
-0.0280103,0.00585464
-0.0431135,0.0204192
-0.0617056,0.0273186
-0.0714147,-0.00434068
-0.0788647,0.0106551
-0.0674427,0.0326459
-0.0591287,0.0183711
-0.0533557,-0.00898809
-0.0200018,-0.0508164
-0.00461602,-0.0359287
0.00154894,0.0336208
0.0514124,0.0411017
0.0645961,-0.00342326
0.0348008,0.00446435
0.028932,0.00725458
0.00275496,-0.00234328
0.000518664,-0.0027101
0.0151072,-0.0161222
0.0181631,-0.0220065
-0.00620664,-0.0152856
-0.0193745,-0.0120769
-0.0114241,-0.0211983
-0.00721233,-0.00547604
0.00298025,0.00802928
0.00774318,-0.00437724
-0.00595147,-0.00831004
-0.0152482,-0.0153563
-0.00581004,-0.0246484
0.00901909,-0.0161034
0.0225956,0.000703176
0.0183822,0.0217476
0.0183808,0.0118649
0.0291229,-0.00377887
0.0151506,-0.0155579
-0.0201551,-0.00649608
-0.0413201,0.0012593
-0.059813,0.0202491
-0.0238664,-0.0146747
0.0184827,-0.0182738
-0.0211942,0.00187834
-0.045829,-0.000562812
-0.0384486,0.00325818
-0.0217576,0.0104819
-0.014508,0.00417294
0.0545688,0.00334493
0.099796,0.0091372
0.0861145,0.0422342
0.05995,0.0492947
0.00995947,0.0412241
-0.00598454,-0.000173217
0.00132874,-0.0417775
-0.0120482,-0.0311637
-0.0176977,-0.00690124
-0.0222268,-0.013145
-0.0209553,0.0341476
-0.00922621,0.0107853
-0.0187042,0.0101519
-0.0232616,-0.0152609
-0.00164473,-0.040997
-0.0190394,0.000578331
-0.0399341,-0.0114138
0.0250147,-0.0291853
0.0815815,-0.0346859
0.0587316,0.00311126
0.0327119,0.0443539
0.0104608,-0.0153267
-0.0196447,-0.0131199
-0.0355981,0.0222625
-0.0453791,0.0182724
-0.0431047,-0.0123562
-0.0433679,0.00963501
-0.0442206,0.027256
-0.0496044,0.0446371
-0.0387832,0.0287478
-0.0128716,-0.0216947
0.0126632,-0.0482946
0.0262836,-0.043936
0.0403139,0.00595027
0.0466901,0.0406557
0.0260896,0.0254001
-0.00439635,0.0233683
0.00192364,-0.0101741
0.0546365,-0.0501915
0.0468009,-0.0128649
0.0257134,0.00426537
0.0327889,-0.00569473
0.0200213,2.59e-05
0.000739675,0.0156746
-0.0104087,0.0169109
-0.0217112,0.0145065
-0.0320927,0.00872801
-0.0275805,-0.00722097
-0.0257716,-0.0214016
-0.0367808,-0.004153
-0.0215503,-0.00106715
0.0111455,-0.0186057
0.0204422,-0.0160447
0.00159172,0.0142641
-0.00396065,0.00876867
-0.000590664,-0.0155608
-0.00632362,-0.0233295
0.00924517,-0.0188301
-0.0189297,-0.0122633
-0.0465305,0.00554123
0.00350581,0.0091948
0.0375083,0.0130184
0.0235353,0.0239238
0.00466457,0.0259272
-0.00694847,-0.000773884
0.0115514,0.00300845
0.0177211,0.00519707
-0.000198476,-0.0102817
-0.0223726,0.00308068
-0.0188948,0.00645091
-0.0181282,-0.0157897
-0.0134895,-0.0114232
-0.010598,-0.00891949
0.0191337,-0.020463
0.0599598,-0.0142731
0.0367814,0.0218835
0.00333996,0.00420717
-0.0113518,-0.000538565
0.00423007,0.0127417
0.0288412,0.0224536
0.0184353,0.0194217
0.0014728,0.0120556
0.0118008,0.00673092
0.0215107,-0.00408765
0.00181067,-0.0153829
-0.0318896,-0.0180869
-0.0499033,0.00938836
-0.0538631,0.0428433
-0.0629683,0.0378821
-0.0627279,0.00400342
-0.00689836,-0.0238442
0.0532158,-0.0721956
0.0391091,-0.0451779
-0.000108501,0.0167525
-0.017827,0.0213279
-0.0345365,0.024703
-0.0380136,0.00915884
-0.014154,-0.0133695
0.0207245,0.00380979
0.0506569,0.064801
0.0680423,0.0626227
0.074348,-0.0208781
0.0683796,-0.013269
0.0290623,-0.0203208
-0.0344081,-0.0345732
-0.082125,-0.0152499
-0.0850111,-0.0238864
-0.036701,0.00227896
0.054715,-0.0154757
0.0696837,-0.0390305
0.0487526,-0.0298279
0.0326532,-0.0299784
0.00785762,0.0119279
-0.0081982,0.0161356
-0.0294972,0.00960386
-0.0526842,0.00136359
-0.0435445,-0.0151064
-0.0122642,-0.0291475
-0.00878808,-0.00737865
-0.0176538,0.0336442
-0.00676125,0.0536673
0.0122,0.0124328
0.0106743,-0.0119324
0.0242763,-0.00642251
0.0363009,-0.00284286
0.0571273,-0.00348294
0.0184836,-0.00804522
-0.0520479,-0.00416806
-0.0737303,0.0075362
-0.0639322,0.0150988
-0.0152316,0.00918655
0.00920518,-0.000563964
0.0113366,-0.00759224
0.0183272,-0.0106472
0.0143916,0.00340417
0.0108213,-0.0277706
0.0172487,-0.010412
0.0244472,0.00913481
0.0225653,-0.000883619
0.00854663,0.0105882
-0.00146901,0.0253137
-0.026593,-0.000326301
-0.0406467,-0.0148038
-0.0321478,0.00340501
-0.0268974,0.0175506
0.000776478,0.0188946
0.043369,0.0188308
0.0356588,0.00821249
0.0170364,0.00169677
0.0152489,0.000747396
0.0176914,-0.00273483
-0.00285407,-0.0152512
-0.0306936,-0.00531593
-0.0322188,0.000827588
-0.0225324,-0.0139471
-0.0319046,-0.00165348
0.00678614,0.0177085
0.043408,0.00188342
0.0315136,0.0357533
0.0302331,0.0640373
0.0223262,-0.0132514
-0.0123855,-0.0580471
-0.043105,-0.0337782
-0.0519425,-0.0162832
-0.0533393,0.00011472
-0.0374462,-0.00761567
-0.0218781,-0.00465904
-0.0112705,-0.0358953
0.0213246,-0.0271372
0.0493062,0.0197892
0.0511015,0.0308598
0.0577602,0.012966
0.0526706,0.00352827
0.0296101,0.00218416
-0.00589038,0.00226065
-0.0177883,-0.00429976
-0.0113026,0.00317875
0.0020877,0.00840535
-0.00733145,0.0107517
-0.0107582,0.0189974
0.00955746,0.00464002
0.0121763,-0.0128718
0.00682356,-0.0270184
0.0091074,-0.0337978
0.0206844,-0.0197796
-0.00211837,0.0107978
-0.0217878,0.0267494
-0.0151287,0.0206955
-0.00652002,0.00781183
-0.00755606,0.0067152
-0.0578904,0.00621525
-0.0981182,0.00321505
-0.0741367,0.00209607
-0.0609937,0.00554151
0.00236084,0.00679808
0.103756,0.0174471
0.0774424,-0.0075615
0.0745533,-0.0117745
0.0664677,-0.0013071
0.0360327,-0.0228362
-0.000916715,-0.0360157
-0.010142,-0.0297853
-0.00660409,-0.0111736
-0.02479,0.0156339
-0.0334737,0.0162841
-0.0358652,0.0195482
-0.0338498,0.0143976
0.0150087,0.00466001
0.0251074,0.00360824
-0.00261876,0.024426
0.00661392,0.0254393
0.00557304,-0.0134352
-0.0144913,-0.0117651
-0.00933143,-0.00163597
0.00867242,-0.0177522
0.0108421,-0.0174683
0.0257335,-0.0145939
0.00072496,-0.0124019
-0.0102569,-0.0064192
-0.00403805,0.0597718
0.00166313,0.0653161
0.00201854,-0.0196788
-0.0227811,-0.0236805
-0.0257759,0.00213394
-0.0456283,0.00709707
-0.0560283,0.00809598
-0.0563372,0.0251981
-0.0419982,0.0206471
-0.00873194,-0.0236652
0.00881424,-0.0296977
0.0457114,-0.0302889
0.0702177,-0.0318946
0.0561046,-0.0180574
0.0405864,-0.0264665
0.0247501,-0.0158486
0.0216718,-0.0154737
0.0276868,0.00894811
0.0313175,0.0317966
0.0318291,0.0337277
0.0191545,-0.00172991
0.00554686,-0.0110277
-0.0135086,-0.00187921
-0.0281251,0.00140462
-0.0290952,0.0187534
-0.0175013,0.0114729
0.00219866,0.0231361
-0.00679491,0.0273128
-0.0248442,-0.00464859
-0.0378841,-0.0314718
-0.0322845,-0.0378737
-0.0162376,-0.0185473
-0.00568571,-0.0133642
0.00382499,0.00502436
0.0109895,0.00556064
0.00137945,0.00551458
-0.0251401,0.0110351
-0.0305723,0.0128844
-0.0121947,-0.000611022
-0.00574285,0.0217737
0.00550961,0.00279387
0.0247699,0.0327152
0.0772325,0.0204304
0.0896891,-0.0276665
0.0432146,-0.0316115
0.00998969,-0.0348894
-0.0182791,-0.0349015
-0.0480966,-0.0230748
-0.0358288,-0.0195197
-0.0340343,-0.0136093
-0.0359018,0.0207181
-0.0136893,0.0362723
0.000969201,0.0239024
0.0309564,0.0163388
0.0410843,0.0108044
0.0212542,0.00747512
0.00930056,-0.000781921
0.0030588,0.00626494
-0.0209271,0.00504454
-0.0355013,0.0318607
-0.0372456,0.0348064
-0.039366,0.00415329
-0.00617145,-0.0285788
0.0160928,-0.0259713
0.0241295,-0.0213205
0.0207233,-0.0221375
0.0125059,-0.0197816
0.0002521,0.0176579
-0.0184029,0.0330251
-0.00572517,0.00689102
0.0124981,0.00883345
-0.000407801,0.0127842
-0.0119188,0.00333138
-0.00386289,-0.00419365
0.000927968,0.0125861
-0.00890519,0.0235766
-0.01082,-0.0460972
0.020653,-0.0428315
0.022827,-0.0258786
0.0152103,-0.0243738
0.0142128,-0.0111721
0.0103416,-0.0091589
0.0156822,-0.00827127
0.0195705,0.000144422
0.0123669,0.0204928
0.00247973,0.0212723
-0.0075877,0.0194708
-0.0241578,0.0219179
-0.0352451,0.0194038
-0.0297144,0.00611755
-0.00692189,-0.00377541
0.00524177,-0.00618072
-0.012627,0.00515142
-0.0358643,0.0199677
-0.0408162,0.0143282
-0.0230014,-0.00712473
-0.0102141,-0.0129145
-0.00442609,-0.00383399
0.00843188,0.00249853
0.0537074,0.00128559
0.0733102,0.0031261
0.0500181,0.0108621
0.0097636,-0.00473699
-0.024894,-0.0135065
-0.0252106,-0.0106454
0.0163868,-0.0176015
0.0415837,-0.0217063
0.0384985,-0.0161336
0.033561,-0.00354111
0.00590248,0.0325073
-0.0115662,0.0376101
-0.0262919,0.00465861
-0.0251332,-0.0141011
-0.0124764,-0.0215884
-0.00761718,-0.0262213
-0.0302316,-0.0191004
-0.0439049,-0.00438986
-0.0279806,0.0238402
-0.0122991,0.0232454
-0.016194,0.00399293
-0.022686,0.0173855
-0.0174912,0.00289867
-0.0146404,0.0152849
-0.0158207,-0.00829631
-0.00430276,-0.0218957
0.0350338,0.00257213
0.0568256,0.0360005
0.0278232,0.0615742
0.0154909,7.55e-05
0.035803,-0.0301332
0.0342747,-0.0400203
-0.000181679,-0.0405527
-0.00149996,-0.0273458
0.00928355,-0.0150592
0.00941049,0.00638044
-0.0206763,0.00867923
-0.0291593,0.00586138
-0.00905464,-0.00607918
0.00254432,-0.0184461
0.0118326,-0.00688264
0.0182475,0.000895516
0.0164177,0.0202203
0.00808843,0.0583102
-0.0108019,0.0321436
-0.0204666,0.000686276
-0.0140041,-0.0238435
-0.00726384,-0.0140845
0.000610706,0.00454621
0.00675476,0.0174106
0.00147649,0.0130753
-0.00802581,-0.00692386
0.00121016,-0.0221222
0.0187174,-0.0184919
0.0141049,-0.00812308
0.00638977,-0.0173176
-0.0015677,-0.0165497
-0.015071,-0.013768
-0.0200625,-0.00441667
-0.0314782,0.00597448
-0.0211309,0.0159802
-0.00841852,0.0267591
-0.0213316,0.026981
-0.00709081,0.00938135
0.0245795,0.00420656
0.0336393,0.000601557
0.0259226,-0.0201396
-0.0203946,-0.0197076
-0.0568915,0.00945219
-0.0805227,0.025394
-0.0709656,0.00705554
-0.0331901,0.00145382
0.017162,-0.0134292
0.0256232,-0.0184401
0.0444976,-0.0100578
0.0744831,-0.00637974
0.071763,0.00143528
0.0315974,0.0270574
0.0146027,0.0248668
0.021873,-0.00177663
0.0125842,-0.00401002
0.00147274,-0.00321691
0.0046774,-0.0203657
0.0117591,-0.0218474
0.0129101,-0.009461
0.00750851,0.0132296
-0.0142722,0.0167604
-0.0156648,-0.00380043
-0.00760725,-0.0236784
0.00776924,-0.022587
0.0117554,-0.0115968
0.00969947,-0.0084121
0.0038577,-0.00433356
-0.0131381,0.00754961
-0.0287616,0.0339421
-0.0276224,0.0393146
-0.0233644,0.000498872
-0.0248686,0.0102914
-0.0206093,0.0254496
-0.0202943,0.0212798
0.00812172,0.00810369
0.0332958,-0.0267204
-0.00658847,0.00550583
-0.0195071,-0.0028215
0.00532964,-0.0338334
0.00823057,-0.0152138
-0.0115344,-0.00200528
0.00119445,-0.00329289
0.0093442,-0.00627565
-0.0011778,0.00368613
-0.00215338,0.0102491
-0.00877333,0.0201914
-0.00470069,0.0151868
0.0108937,0.00219093
0.0176089,-0.00641033
0.0162427,-0.017021
0.0139356,-0.0195293
0.0125479,-0.0201183
0.00236965,0.00490122
0.00770947,-0.0108587
0.0220065,-0.0162389
0.018454,-0.0119174
0.00514625,0.00155835
-0.00871548,-0.00334194
-0.0237896,0.00389299
-0.0327494,0.0193558
-0.0254,-0.00853722
-0.0131814,0.000295779
-0.00114622,0.0236485
-0.000159588,0.0133219
-0.00869498,0.0289322
-0.0178267,0.00393349
-0.0166136,-0.0222103
-0.00920156,-0.00733387
-0.0334952,-0.0105254
-0.0552547,-0.00616398
-0.0387931,0.00464907
0.0207729,-0.000574283
0.0784698,-0.00494285
0.0505601,-0.0132711
0.031018,-0.00425211
0.0153342,0.00104387
-0.0163116,0.0132197
0.00271653,0.00285242
0.0379059,0.0118906
0.0338748,0.0124721
0.0214445,0.00988468
0.012035,0.0164364
-0.00300938,0.00976205
-0.0272135,-0.00106543
-0.0639477,0.00236771
-0.0461395,-0.0181326
0.0488958,-0.0113834
0.0638686,-0.00530689
0.0381585,-0.00473091
0.0130623,-0.00813312
-0.0126414,-0.00863033
-0.0273835,-0.002763
-0.0314336,0.00639747
-0.0246411,-0.00101765
-0.00638252,0.00355818
0.0327065,0.031753
0.0213882,0.0160953
-0.0040607,-0.00130615
-0.0227523,-0.0022452
-0.0409542,0.000615707
-0.0181198,-0.00294453
0.0105037,-0.0216743
0.00748416,-0.0143806
-0.0136094,0.000550664
-0.0114926,0.0013444
-0.00972673,-0.00209928
-0.0270486,-0.0120032
-0.0282619,-0.0232497
-0.042751,-0.00962337
-0.02632,0.0061286
-0.0155626,0.0107929
-0.00976748,0.032774
0.0369502,0.0378892
0.068172,0.0239197
0.074173,-0.00202231
0.0526248,-0.0390663
0.0475591,-0.0256339
0.0347395,-0.0162096
0.011172,-0.0141702
-0.00239865,0.000459948
-0.0127464,0.00800474
-0.0221512,0.0033482
-0.0187695,-0.00819619
-0.00750357,-0.00929268
-0.0122627,-0.0011953
-0.00533001,-0.0142128
-0.00533757,-0.00820695
-0.022275,0.0161077
-0.0258091,0.0225742
-0.012908,0.0360629
-0.0102901,0.0198249
-0.00823198,-0.0108777
-0.00745969,-0.0035959
-0.00584872,-0.00357803
0.00508659,-0.0123162
0.0224034,-0.00709626
0.0426471,0.00916411
0.0275636,0.00663427
0.00225996,-0.00720109
-0.0192364,-0.00485898
-0.0237977,-0.00764533
-0.0155231,-0.0104511
0.00657741,-0.00665015
0.0224902,-0.000979055
0.0119543,0.00489759
-0.000282054,0.0185933
-0.0135662,0.0229613
-0.0472785,0.0159986
-0.0559877,-0.00227368
-0.0401264,-0.0158955
-0.0230384,-0.0196611
0.0080953,-0.00936446
0.0245658,0.00804032
0.0398768,0.020182
0.0644228,0.0101202
0.0468625,0.00869535
0.00565755,0.0136542
-0.0125551,0.00306049
-0.0229187,-0.0448347
0.0176716,-0.0460722
0.0221895,-0.0209988
0.00872775,-0.00517852
0.0131783,-0.00457791
0.0135687,-0.00673134
0.00626193,0.00417103
-0.00142374,0.0136727
-0.000830071,0.0123006
-0.00536303,0.0169518
-0.0166539,0.0307947
-0.0168812,0.0276742
-0.01261,0.0168074
-0.0209888,0.0159761
-0.0354206,0.00689355
-0.0138986,-0.0222028
-0.00399301,-0.0298049
-0.00423269,-0.0185479
0.000451982,-0.020647
0.00631828,-0.00720281
0.0116906,-0.000834738
-0.00918495,-0.00732325
-0.0305313,-0.00465755
-0.0281071,0.00385719
-0.0157097,0.00665221
0.00105664,0.00710752
0.00690906,0.0143503
0.0121969,0.0267661
0.031438,0.0222348
0.00698663,0.0148343
0.00509793,0.00639151
0.0505808,0.000872849
0.0412469,-0.0318279
0.0312856,-0.0323826
0.0121215,-0.0181796
-0.0296449,-0.0183152
-0.038983,0.0126907
-0.00903014,0.0254772
0.0310948,-0.0159809
0.0451567,0.00969379
0.0315179,-0.00973533
-0.00435848,-0.00750271
-0.0437447,-0.00971314
-0.0701131,0.0072775
-0.0588613,0.0403523
-0.0342761,0.0347407
-0.0162555,0.0114364
0.0318799,-0.00708785
0.0325023,-0.0126318
0.0274876,-0.0219748
0.00404609,-0.0384894
-0.00374753,-0.0239378
0.00474782,-0.00996365
-0.00953416,0.0116792
-0.0290121,0.0115002
-0.037266,0.00540617
-0.031711,0.0137029
0.00762318,-0.00670742
0.035966,-0.0166823
0.024309,-0.00307307
0.00625873,0.0230055
0.0136314,0.0461394
0.0295726,0.0411679
0.00862078,0.00603474
-0.00193646,-0.030714
-0.00609001,-0.0315255
0.00426377,-0.00269063
0.0267123,-0.00997695
0.0275585,-0.0168006
0.00352769,0.000236961
0.00100811,0.0132077
-0.00638776,0.0091859
-0.00819715,-0.0101243
0.0197182,-0.0151455
0.00666895,0.000646052
-0.00711192,0.0106359
-0.0256329,0.030297
-0.0431542,0.0435185
-0.0183399,-0.000275935
0.0134906,-0.0169261
0.00392704,-0.00252109
-0.0141271,-0.00935546
-0.00585986,-0.0202603
0.00354072,-0.0225782
-0.0038734,-0.0137044
-0.0140785,-0.0153935
-0.0192647,-0.00319915
-0.00695578,0.00369645
-0.0089997,0.00236691
-0.00836487,0.0180415
0.00906423,0.00701879
0.0276335,-0.00405938
0.0424674,-0.000691298
0.0204476,-0.00320812
0.0030874,0.0096293
0.0153888,0.0112192
0.0103547,0.00868037
0.00632186,0.00189678
0.00934217,-0.0109129
0.00311663,-0.0216027
-0.0182228,-0.0115828
-0.0480042,0.00102702
-0.0660152,0.00452837
-0.0468913,0.00110013
-0.0411876,0.000264789
0.00823181,-0.00393499
0.0466185,-0.00919493
0.0359146,-0.0126923
0.0324852,-0.0203724
0.0518828,-0.0212996
0.0287622,0.00930717
-0.00153111,0.0278147
-0.00508199,0.0251342
-0.01891,0.0228661
-0.0273895,0.0193463
-0.0244202,-0.00217377
0.00791677,-0.0308191
0.0355612,-0.0106893
0.035827,-0.00289002
0.0121195,0.00585379
0.0142719,0.0107869
0.0169492,-0.0034057
0.00293824,-0.0072303
-0.0202436,0.0012524
-0.0292622,-0.00473803
-0.0256935,-0.00440317
-0.020483,0.0192123
-0.0254691,0.0211079
-0.0248171,0.0214704
-0.00803009,0.0312639
-0.00225773,0.0235985
-0.030138,0.00693331
-0.0193995,-0.00696702
0.0173112,-0.0149706
0.00651823,-0.0145656
-0.0133433,-0.011765
-0.00342877,0.00194204
0.00879525,0.0108249
0.0178927,-0.00481294
0.0258541,-0.0186304
0.0304931,-0.0200146
0.0469358,-0.0259218
0.0469667,-0.0182292
0.0225882,0.00825448
0.0200727,0.022349
0.033366,0.00806951
-0.00107123,-0.014222
-0.0312,-0.00500707
-0.0285499,0.00404419
-0.0167575,-0.022807
-0.0100125,-0.0272019
-0.00624296,-0.00971919
-0.00726392,0.00427119
-0.0109008,0.0156688
0.00109283,0.0111479
0.000864203,-0.00504084
-0.0298084,-0.00329122
-0.0489571,0.0086807
-0.0508407,-0.00693142
-0.0274952,-0.023429
-0.00284334,0.00213086
0.00185812,0.0359278
-0.00810502,0.0175616
-0.034991,0.0717935
-0.038404,0.0700667
-0.00385175,-0.0098845
0.0309914,-0.0473228
0.0653016,-0.0449726
0.0919536,-0.0268455
0.0665205,-0.0260546
0.0443729,0.00967117
0.0205143,0.0151134
-0.0210311,-0.0217945
-0.0799436,-0.014481
-0.0826502,-0.000738431
0.00544771,-0.00530041
0.11808,-0.0114371
0.165747,0.0144318
0.0301566,0.0245905
-0.0512222,0.0161802
-0.0596645,0.00877767
-0.082585,-0.00965236
-0.0767099,-0.0335913
-0.0574329,-0.0345194
-0.0355363,-0.00138597
-0.00404937,-0.00761128
-0.00236732,0.00286405
-0.00725138,0.0377818
-0.00987816,0.0300396
-0.00822575,0.0103158
0.0128438,0.0111604
0.0237556,-0.00277183
0.0369763,0.0129646
0.0424796,0.042452
0.0248085,0.0108414
-0.0159199,-0.0280497
-0.00185432,-0.0438757
0.00844776,-0.0303695
-0.00545376,-2.76e-05
-0.0248535,-0.00878692
-0.0130215,-0.015482
0.0288574,-0.00558509
0.0380705,0.0334212
0.00345765,0.0227785
-0.0205741,-0.0140528
-0.034946,0.00633362
-0.0233861,0.0741492
0.00472097,0.0134273
0.0392967,-0.0654368
0.0180097,-0.0454938
-0.0193075,-0.00503157
-0.0448357,0.0106781
-9.39e-05,0.0253119
0.0588326,0.0166125
0.0708406,-0.0250536
0.0609976,-0.0361134
0.0428321,-0.000226153
-0.00615473,0.00677161
-0.0259927,0.00209366
-0.029803,0.033221
-0.0263263,0.0444495
-0.0623662,-0.00504103
-0.0205072,-0.0245283
0.00594644,-0.0156628
-0.038679,-0.00541654
-0.0245581,-0.009405
0.0424913,-0.0106276
0.0131512,0.0153867
0.0204192,0.015893
0.0456819,-0.00485343
0.0311407,-0.0211162
0.0509286,-0.00707477
0.0493685,0.00568727
-0.0263476,0.00848709
-0.0722162,0.0174786
-0.0547507,0.0463971
-0.103735,0.0601246
-0.0844339,0.0202754
0.00630795,-0.0062032
0.0236496,-0.0319707
-0.0502354,-0.0244804
-0.0478663,-0.0265246
0.0325846,-0.0417141
0.0386913,-0.0361786
0.0127213,-0.0185319
0.0395407,-0.0203064
0.0900968,-0.0258795
0.0772998,-0.00711889
0.0109338,0.0470795
-0.0316043,0.00917637
-0.038414,-0.00895024
-0.0134537,0.0115878
-0.0265981,0.0400037
-0.0377914,0.0574777
0.00892599,-0.00714862
0.0115231,0.00586821
-0.0336045,0.0824104
0.0276164,-0.0179387
0.0809829,-0.0988
0.00864407,-0.0670141
0.00320187,-0.0188126
0.0308273,0.0257895
0.0490391,0.00388379
-0.0202213,-0.00752304
-0.113734,0.0166514
-0.112352,0.0252631
-0.0864902,-0.0232034
-0.0789785,-0.0240654
-0.00627223,-0.00634758
0.094593,0.0177708
0.187684,0.0202708
0.237432,0.000195626
0.129002,0.000416706
-0.0277124,0.00926924
-0.127681,0.0022414
-0.187428,0.00704559
-0.153724,-0.00813921
-0.122112,-0.0107056
0.12696,0.0629035
0.356265,0.0619397
0.356649,0.0424732
0.226535,0.0065814
0.0169528,-0.0401434
-0.21916,-0.00309186
-0.416876,-0.029954
-0.380084,0.0128655
-0.19812,0.046157
-0.0971591,-0.0446138
-0.0826876,-0.0830427
0.0197317,-0.0254351
0.119748,-0.0194933
0.1704,-0.0325336
0.152814,-0.0199563
0.0674229,-0.0166797
0.0177227,-0.00799093
-0.0206442,0.0190804
-0.0665128,0.0186072
-0.0337069,0.0244923
0.0318384,-0.049715
0.0215295,-0.0434858
-0.0123448,-0.0137913
0.000368078,0.0230294
0.0361349,0.047778
0.0681585,0.0977605
0.0902705,0.0514836
0.106682,-0.0310163
0.0353167,0.00807389
-0.116952,0.0111627
-0.18547,0.0358615
-0.150963,0.00643659
-0.0678493,-0.0336193
-0.0169917,-0.0496719
0.0371829,-0.0418543
0.0852502,-0.00719961
0.061557,-0.0115215
0.0457868,-0.00302634
0.0726808,-0.00148656
0.0992232,0.0515059
0.0689948,-0.0125681
-0.00809423,-0.0459353
-0.0158597,-0.0165319
0.0219467,0.0316359
0.0438183,0.0331015
0.0136725,0.0378364
-0.0253443,0.0108353
-0.0653896,-0.00675496
-0.044815,-0.0282218
-0.00816218,-0.0397651
0.0111893,0.0115257
-0.055941,0.0202168
-0.100013,0.0451825
-0.0127742,0.0300075
0.144918,0.0596819
0.190414,-0.0218782
-0.0514937,-0.0687828
-0.16003,-0.0915682
-0.206058,-0.0499816
-0.123322,0.0355453
0.0104339,0.0269909
0.091127,-0.030913
0.0784206,0.0122825
0.0797252,0.0461847
0.0726861,0.0359761
0.02493,0.060115
-0.00485465,0.034541
-0.0258333,-0.0124958
-0.0286155,-0.0615839
-0.0129312,-0.0640139
0.00768578,-0.0465292
-0.0212624,-0.0183673
-0.0386848,0.057735
-0.03942,0.129189
-0.0170886,0.0612861
0.0285719,-0.0111985
0.0732756,0.00412983
0.00588805,-0.0520773
-0.0201179,-0.0754409
-0.0018396,-0.070592
-0.00921191,-0.0306049
-0.0615608,-0.0234484
-0.051149,-0.00642351
0.0829335,0.0105687
0.136473,-0.000862448
0.0870464,0.00107297
0.035727,-0.000135098
-0.0182178,0.0157154
-0.046147,0.0153385
-0.0396876,0.00842709
0.0285274,0.00385386
0.0441965,0.0199134
0.0153686,-0.00285185
0.00268326,-0.00207958
-0.0127169,-0.0204017
-0.0142776,0.0129795
-0.00792891,0.0432727
0.047075,0.0644293
0.0715869,-0.0337467
-0.0613023,-0.0433064
-0.187045,-0.00572893
-0.152658,-0.00223539
-0.100631,-0.0244618
-0.0774387,-0.0542159
-0.0691338,0.016919
-0.0169497,0.0604522
0.0800938,0.0509645
0.0824443,-0.0264633
0.0250681,-0.0342411
0.0255224,0.0181789
0.0635059,0.0617764
0.0805462,0.0177577
0.0700346,-0.0152695
0.0302212,-0.0124666
-0.0136214,-0.0268498
-0.0321575,0.0734608
-0.0280301,0.142674
-0.00998073,-0.00187947
-0.0192358,-0.0450444
-0.0446382,-0.102377
0.000607094,-0.128946
0.0532563,-0.0108394
0.0572379,-0.010545
0.0708097,-0.0408063
0.119214,0.0159798
0.131273,0.0833836
-0.00136405,0.0962536
-0.157263,0.0199477
-0.155892,-0.103641
-0.0532114,-0.124975
-0.0625365,0.0339972
-0.0843451,0.154194
-0.00507076,0.100915
0.134484,0.0661829
0.138528,0.0182538
0.0742692,-0.134294
-0.0593691,-0.131903
-0.166971,-0.0297405
-0.0712121,-0.0261484
0.0431207,0.00328506
0.0371973,0.0348901
0.0203697,0.00552786
0.0177634,0.00837233
-0.0208372,0.030857
-0.078904,0.0424178
-0.102467,-0.0323448
-0.0944877,-0.00586668
-0.0243421,0.0936907
0.0966352,-0.0385165
0.117531,-0.0570234
0.0197681,-0.00238515
-0.0526891,-0.0341255
0.0128454,-0.0161096
0.0434165,0.0245384
-0.00387186,-0.0143091
-0.00344423,-0.0588666
0.0270755,-0.0569778
0.079665,-0.021324
0.174255,0.0190068
0.102394,0.0487312
-0.00645827,0.0644881
-0.0828501,0.0149677
-0.101293,-0.0559422
-0.0430744,-0.0219448
-0.0240171,-0.00297092
-0.020852,-0.00132062
-0.0484631,0.0235558
-0.0385637,0.0411543
0.0595854,0.0225245
0.0891953,0.0221253
0.056301,0.013687
0.0449245,-0.00494024
0.0239224,-0.0117306
-0.0253962,0.00815196
-0.0417053,0.00891223
-0.127444,0.0128163
-0.137965,0.0132258
0.00248533,-0.000655059
0.130817,0.00486228
0.131478,0.0146202
0.0460779,0.0093932
-0.0677976,-0.00278742
-0.143292,-0.00436739
-0.121654,0.00506727
-0.104671,0.0413724
-0.0754974,0.00831177
0.0121899,-0.0291618
-0.0052969,-0.020525
0.00400544,-0.0267124
0.161761,-0.0215001
0.191305,-0.00490874
0.0903364,0.000550741
5.51e-05,5.09e-05
-0.0363762,-0.00893361
-0.0274671,-0.026227
-0.00635372,-0.020718
0.00118324,-0.00299833
0.0339877,-0.00923897
0.0651076,-0.0190458
0.02728,0.0138257
-0.00246705,0.0570955
0.00117355,0.0596393
-0.00840227,0.00920526
-0.064244,-0.0446309
-0.0466705,-0.0849614
-0.000318417,-0.00829963
-0.00894301,0.0618091
-0.0310282,-0.00606743
-0.0344491,-0.0495444
-0.00378053,-0.0182304
0.0259694,-0.0344639
0.00682784,-0.00974329
-0.018886,0.0394529
-0.0130487,0.0341653
0.015514,0.0451149
0.0337444,0.0235333
0.0328994,-0.0579327
0.000575064,0.0182027
-0.0113836,0.0695932
0.00893405,0.0414344
0.0489088,0.0181213
0.011398,-0.0226474
-0.0549912,-0.0378303
-0.0961485,-0.0301795
-0.0532708,-0.0419259
0.0223924,0.0165907
0.0635688,0.0175827
0.0925732,-0.00101026
0.0867294,-0.00373143
-0.0276219,-0.00412616
-0.118268,0.00987136
-0.140559,-0.0201461
-0.0938611,-0.0612527
-0.0688117,-0.0315933
0.0478303,-0.0170306
0.108654,-0.0115092
0.0431625,0.00389441
0.00859245,0.00505016
0.00237285,0.00971407
0.0125549,0.0408908
0.0059469,0.0578287
0.0328474,0.0259988
0.0539024,-0.00463092
0.0271625,0.0087577
0.00650563,0.00361685
0.005331,0.000370627
0.00154074,-0.00312548
-0.038509,7.62e-05
-0.04917,-0.00530238
-0.0104462,0.0100014
-0.000913901,0.0490758
-0.00268762,0.0014829
-0.0267856,-0.0394217
-0.049176,-0.0120329
0.00316617,-0.0178019
0.0207208,-0.0282562
0.030533,-0.0357654
-0.00700483,0.04077
-0.0280121,0.0429699
-0.00665469,-0.0560849
0.0159526,-0.06783
0.0416333,-0.0325801
0.0456826,-0.00112383
0.0332286,0.000380297
0.0684873,-0.0083973
0.0553031,-0.00578072
-0.0535383,0.021624
-0.0215808,0.0343949
-0.0119004,-0.0123196
-0.0803538,-0.00360026
-0.060119,0.0514403
-0.0458153,0.0392148
-0.0233768,0.0545277
0.0417145,0.0427381
0.0827169,0.0303753
0.0496795,0.0242986
0.0262351,0.020997
0.00834768,0.0171975
-0.0249053,-0.012744
-0.030067,-0.014972
-0.015659,-0.0228761
-0.00545681,-0.0147408
-0.00149839,-0.0021123
-0.0124856,0.00264357
-0.0545068,0.00726807
-0.0689599,0.00687624
-0.0114939,0.017278
0.0308816,0.038445
0.0369815,-0.0225999
-0.00137408,-0.0402506
0.0107681,-0.0249809
0.0283028,-0.0149145
-0.0102073,-0.020323
-0.0193858,-0.00768071
0.0397841,-0.0144503
0.0456301,-0.0179146
0.101665,-0.0285652
0.101452,-0.0473073
-0.0681987,-0.0660158
-0.153919,-0.0306314
-0.122321,0.0181274
-0.0314332,0.00365708
0.0050349,-0.0319479
0.048482,-0.0160967
0.104061,-0.00978888
0.0579309,0.00189427
-0.000947048,0.0176466
-0.00160459,0.003038
-0.00835124,0.0220661
-0.0194516,0.0425635
0.0139227,0.0174362
0.0117276,0.0209969
0.0165761,-0.00868638
0.00110511,-0.0134403
-0.0123804,0.00634127
-0.0204482,0.0191988
0.00910817,0.0423252
-0.0187603,0.0357881
-0.0602468,0.021128
-0.0768341,0.0326262
-0.0341506,-0.00301772
-0.00736379,-0.00305122
0.0516547,-0.0195918
0.0375864,-0.000246966
-0.0290763,0.0290529
-0.068443,0.0463421
-0.0434952,0.0268477
0.060016,-0.0156281
0.0896504,-0.0112345
0.0306149,0.0134299
0.0265548,-0.00988099
0.0295262,-0.044945
0.0114309,-0.0235314
-0.014999,0.00975837
-0.0448037,0.0146422
-0.0696264,-0.0193315
-0.0795904,0.0105402
-0.0434365,-0.00440232
0.0423615,-0.00423121
0.0576911,-0.0102677
0.0314928,0.00435791
0.0420696,0.00882692
0.0542927,0.041518
0.0914352,0.0479862
0.0504689,-0.0154463
-0.0104027,-0.0638303
-0.0366908,-0.0574166
-0.0261371,-0.0326479
-0.00266899,-0.0236511
0.0170859,-0.014908
-0.015388,0.0335486
-0.0334729,-0.0265368
-0.00839454,-0.0409979
-0.00422468,0.00471211
-0.0290598,0.0177845
-0.0274137,0.00468003
-0.035033,0.000883045
-0.00606696,-0.00222115
-0.0186639,0.00858219
-0.034391,0.0133404
0.0244842,0.0082552
0.0531013,0.00740032
0.0312994,0.0118891
0.0383809,0.00931222
0.0265756,-0.030672
-0.0166763,-0.0432788
-0.0503923,-0.0146829
-0.00799498,0.00050954
0.0429949,0.000663287
0.042352,0.00140421
0.0204701,0.00359571
-0.0163861,-0.0136379
-0.0525405,-0.00258793
-0.0343024,0.0209272
0.00757247,0.0159593
-0.0346151,0.0183922
-0.0861718,0.0407976
-0.082206,0.0224838
-0.0973439,-0.0187307
-0.054393,-0.00713739
0.111273,-0.00153418
0.168032,0.0256917
0.011742,0.00473196
-0.0259754,0.000261603
0.0504355,0.00442282
0.093551,0.00691385
0.0578777,-0.013977
0.00495905,-0.0204559
-0.0227663,-0.0165869
-0.0422265,0.00288582
-0.0360424,0.0182012
-0.0164183,0.0146051
-0.00718017,0.0214017
0.00266452,-0.0104492
0.0125477,-0.00237517
0.00255532,0.00234149
-0.00927038,0.00908573
-0.00382339,0.0145629
0.0045603,0.0177622
0.0069358,0.0159149
0.00529897,0.00941999
-0.00102758,0.00397695
-0.00171007,-0.0051834
0.00407462,-0.0340938
0.00140793,-0.0373006
-0.0195128,-0.0140293
-0.0475708,-0.0214239
-0.0623311,-0.00562008
-0.0674927,0.0155436
-0.0213863,0.00837511
0.0323176,-0.0165851
-0.00327448,0.0039114
0.00277426,0.0575833
0.0668527,0.0212922
0.0658968,-0.0614373
0.0240529,-0.0379808
-0.00472869,0.00282768
-0.0131597,0.0142511
0.0152834,0.00921014
0.0186713,0.00620696
0.00944898,-0.00955244
0.0230779,-0.0430888
0.0250879,-0.0489252
0.00214646,-0.037109
-0.0200085,-0.0194373
-0.0158127,0.00839721
0.00160114,0.0195693
0.0256307,0.010638
0.0187511,0.00282272
0.0124659,0.0286857
0.0146549,0.0462335
-0.0114249,-0.0060333
-0.0289769,0.0154122
-0.0154614,0.026671
-0.0183723,0.0184406
-0.032631,0.00903021
-0.0281554,-0.000250415
-0.0140184,0.00472997
0.0125331,-0.0219721
0.0299239,-0.0357679
0.00837955,-0.0195676
-0.00970073,0.0104788
-0.00672385,0.046208
0.0108982,-0.00774774
0.0145843,-0.0136449
0.00727917,0.000488064
0.00115102,-0.0197408
-0.0126158,0.00667302
-0.0217636,0.0210609
-0.0123798,0.0272261
-0.0122717,0.0190275
-0.02087,0.00264245
-0.0013425,-0.00215617
0.0391504,-0.00789582
0.0224574,-0.0120894
0.0127767,-0.0121029
0.00200662,-0.00419967
-0.00458925,0.00660679
0.0026461,0.0133185
0.0163534,0.00571709
0.00228728,-0.00559249
-0.0146715,-5.44e-05
-0.028105,0.0128961
-0.0298608,0.00839314
-0.00392442,-0.0034117
0.00950434,0.00282611
-0.0157817,0.00460184
-0.0335455,-0.00688941
0.0148688,-0.0126513
0.00653606,-0.0114707
0.0105348,-0.00959664
0.0299339,0.0041819
-0.0255694,0.0338398
-0.02129,0.035371
0.0043075,0.0177508
0.0221833,0.00987037
0.0118831,-0.000236368
-0.0723542,-0.0392086
-0.0926911,-0.0431222
-0.0290059,-0.0186892
0.0334844,-0.0134709
0.0387704,-0.00743709
0.0492023,0.000930045
0.0703127,0.0123929
0.0540877,0.0141995
0.0220653,0.0230055
-0.00152998,0.0223043
-0.00235651,-0.0469203
0.0058771,-0.0618558
0.0140477,-0.00628642
0.00760969,-0.0309869
-0.00190673,-0.00104811
-0.000662193,0.0288192
0.00808349,0.0187157
0.0041233,0.0210798
-0.00701557,0.000930735
-0.00880877,-0.000373107
-0.0128809,0.0294123
-0.0160268,-0.0113913
-0.0155453,-0.0166434
-0.00886353,0.00970252
-0.00385756,0.015933
0.00519164,-0.00124782
0.00723483,-0.00825191
0.00570042,-0.00978333
0.00674643,-0.00540964
0.00416307,-0.00720427
0.00162832,-0.0217098
-0.0139735,-0.00830513
-0.0143763,0.00956559
0.0140509,0.0277523
0.0222813,-0.037704
0.0193724,-0.0293451
0.00532241,-0.0111681
-0.0395475,-0.00268075
-0.0785387,0.0318432
-0.0503873,0.0336697
-0.0275303,0.0137269
-0.0135503,0.0163046
0.000726801,0.0203139
0.0296864,0.00578268
0.0328475,-0.006934
0.00674796,-0.0117288
0.0134923,-0.0131523
0.0296439,-0.00233919
0.0138578,0.0133406
0.00391451,-0.00358679
-0.00375432,0.00860471
-0.0101978,0.0207322
0.0092611,-0.0283561
0.0239945,-0.0380895
0.0204414,-0.0193822
0.0187252,0.0127596
0.00481973,0.0391269
-0.00608703,0.0473152
0.0105517,0.0431572
-0.0176428,0.0271043
-0.101073,-0.00555768
-0.10122,-0.0178096
-0.0437415,-0.0205543
-0.0327185,0.00791153
-0.0265281,0.00802141
0.0746822,-0.00291103
0.121277,-0.0217398
0.0517367,-0.0246861
-0.0339447,0.0145276
-0.0189408,-0.0290748
0.0507059,-0.0736928
0.0341227,-0.0101552
0.0257578,0.0492696
0.0327903,0.0220726
0.025142,-0.00753139
-0.00348967,0.0118115
-0.018507,0.00361497
-0.0113485,-0.0142508
-0.00205547,-0.0238708
-0.0109808,-0.0206014
-0.0134576,-0.00662619
-0.0150901,0.0370317
-0.0209359,0.0568129
-0.0292594,-0.000939594
-0.0164185,0.0120317
-0.00202707,0.0269025
0.00229876,-0.037007
0.0214794,-0.0586742
0.0329298,-0.0274152
0.0296065,-0.00307185
-0.00647184,0.0119336
-0.0308891,0.0211548
-0.0234637,-0.0221231
-0.025456,-0.0130879
6.74e-06,-0.00204757
-0.000606299,2.73e-05
-0.0108741,-0.0180852
-0.000467504,0.000477667
-0.0221666,0.0298255
-0.0123333,0.0181544
0.00363213,-0.011819
0.0110624,-0.0315328
0.0116717,-0.0210181
0.00497999,0.00683976
0.0469768,0.022025
0.0633242,0.0115053
0.0550089,0.0407845
0.0350403,-0.0114067
0.0044319,-0.0191717
-0.00160936,-0.00157386
-0.00318181,0.00569503
-0.029253,-0.00475782
-0.0916725,-0.00546488
-0.0903732,0.00645589
-0.0138945,0.0164092
-0.00364054,-0.00993812
0.00873231,-0.0363093
0.0294054,-0.0246915
0.0281566,-0.00562131
0.00337779,0.0199666
-0.00948659,0.000547942
0.0112243,5.07e-05
0.0116337,0.0321889
0.00450148,0.0338026
0.000945135,0.0198431
-0.0231465,0.0067121
-0.0340372,-0.00436457
0.027362,-0.0147519
0.0342991,-0.00189113
-0.00703343,0.0159459
0.00164558,0.00638068
-0.00663754,0.0117414
-0.0240996,0.0102585
-0.0132988,-0.0066823
-0.00238302,-0.011169
-0.0111184,-0.00463617
0.000562351,0.0216325
0.00325043,0.00339059
-0.0170671,-0.00634651
-0.00128385,-0.0374215
0.0316535,-0.0448232
0.0277895,-0.0119301
-0.0121607,0.00329578
-0.0126322,-0.00273026
-0.00559725,0.0061476
0.00840602,0.00986047
0.022538,-0.00962077
0.00982094,-0.00576776
0.0303737,0.035409
0.0802021,0.0258578
0.0778817,0.000330589
-0.0295217,-0.00714082
-0.0984178,-0.0102592
-0.0787786,-0.0107068
-0.0589653,0.00375515
-0.0378799,0.0173784
-0.0162302,0.0196095
0.0406381,-5.46e-05
0.0503395,0.00388189
0.0379604,0.010055
0.022956,-0.00095312
0.0229106,-0.00927784
0.0343461,-0.0130476
0.0185851,-0.0181647
-0.0228748,-0.0159151
-0.0420878,0.000499632
-0.0399079,0.0051884
-0.0196682,0.00649051
-0.00158429,0.0187854
0.00432075,-0.0215859
0.00294261,-0.0258503
-0.00862239,0.0245802
-0.00236105,0.0523874
0.0312268,0.017242
0.0377013,-0.0257169
0.013643,-0.0160888
0.000667957,-0.0160511
-0.0201546,-0.0184055
-0.0201532,0.0323235
0.00337553,0.0282076
-0.0045873,-0.000263581
-0.0255595,-0.00870084
-0.0182411,-0.020877
-0.0130287,-0.0156406
-0.0136883,0.000729439
0.0477901,0.00257375
0.0703551,0.00512752
-0.0113034,0.0221834
-0.0941744,-0.00732451
-0.119181,0.0435405
-0.066903,0.0568642
0.038424,-0.0264314
0.0569566,-0.011768
0.0505179,-0.028543
0.0964017,-0.0658919
0.0730031,-0.027178
0.0389852,-0.0110181
0.0141673,0.00474048
0.0508775,0.0168721
0.0413108,-0.0109014
-0.0603242,-0.0228038
-0.10942,-0.0121635
-0.0901679,0.00663513
-0.0352978,0.0129057
-0.0204099,0.00937047
-0.031223,0.0151509
-0.0177329,0.0263682
0.02351,0.0165581
0.0499528,0.00455815
0.022088,-0.00243105
0.00435205,-0.00635791
0.00586856,-0.0108825
0.0248448,-0.00839219
0.0327848,-0.0100165
0.00683819,0.00142567
-0.00241846,0.0128191
-0.00174201,0.00564994
-0.00104758,0.00759857
-0.00150199,0.0274942
-0.00629687,0.0136393
-0.00876447,-0.0322427
-0.0130529,-0.0255343
-0.0186798,-0.000633349
-0.0280422,0.00931829
-0.0393974,0.0147603
-0.0471668,0.0177329
-0.0135159,0.0115833
0.027797,-0.00489827
0.0263495,0.00328167
0.0347162,-0.0195687
0.0237928,-0.0129788
-0.0170711,-0.0125465
-0.0189901,-0.0118404
-0.00228494,-0.00342088
0.00643337,-0.00318175
0.0288027,-0.0148703
0.0290382,-0.0241705
0.0629462,-0.0237358
0.0548804,-0.0201064
-0.0232165,0.00822578
-0.0431854,0.0338461
-0.0350997,0.0367775
-0.0102522,0.000216566
0.0120923,-0.0182451
0.0178655,-0.00696009
0.0179275,0.00797703
0.0192942,0.0120116
0.0082016,-0.00453666
-0.00797629,0.0151632
-0.0191863,0.025014
-0.00914165,0.00327722
0.00776018,0.0107532
-0.00806167,0.00409639
-0.0200764,-0.0259953
-0.0104134,-0.0148626
0.000884846,0.0110051
0.014154,0.00950271
0.0187023,0.00148617
0.0131299,0.00294486
0.00380192,0.00556785
3.62e-05,-0.00227639
0.000712662,-0.000622676
0.000613417,-0.0216903
-0.00541495,-0.0263126
-0.0179005,-0.00435655
-0.02429,0.00904243
-0.0221999,0.00406879
-0.0151483,-0.00725072
-0.00320256,-0.0110974
-0.00483962,0.00725056
-0.013685,0.013368
-0.0192496,0.0186138
-0.0157406,0.0356964
-0.00578947,0.0710914
0.0107623,0.0611979
0.0295114,-0.0237669
0.0290074,-0.051052
-0.000444601,-0.0289696
-0.0285618,-0.0115679
-0.0376281,0.000362965
-0.00714735,0.0104393
0.0262788,-0.00617199
-0.017086,0.00669035
-0.0571655,0.0153291
-0.0434631,0.0143131
-0.00302036,0.0210601
-0.00605689,0.0520188
0.0656707,-0.0578294
0.100215,-0.0891961
0.092576,-0.0368639
0.0175478,-0.0119978
-0.037666,0.0116545
-0.034258,0.0169772
0.00503769,0.00753507
0.00493385,-0.00762716
0.0293553,-0.0322227
0.0342647,0.00320366
0.00207061,0.040805
-0.00583964,-0.00453584
0.00676008,-0.0233
0.0136219,-0.0277171
-0.0155196,-0.0343097
-0.0607344,-0.0216896
-0.0280227,-0.0102374
0.00618691,-0.00146477
-0.00240686,0.0123257
0.00353996,0.0193014
0.0102348,0.00853677
0.00932817,0.00626463
-0.00525148,0.0136752
-0.012039,0.0150377
-0.000722828,0.0092041
0.0128104,0.00507306
0.0156736,0.00782024
0.00517979,0.0217587
-0.0022544,0.0393689
0.00134118,0.0357907
0.00948362,-0.0153616
0.0122847,-0.0422
0.00371992,-0.0107372
-0.011915,0.00369032
-0.0127986,0.00926688
-0.0062797,-0.00357961
-0.020752,0.0115362
-0.0150087,-0.0100116
-0.0168739,-0.00115763
-0.0331138,0.00964348
0.000708472,0.0156082
0.0309449,0.0200765
-0.0244879,-0.00468002
-0.0538123,0.00432497
-0.0372986,0.00305096
-0.0110685,0.00438982
0.02772,-0.010566
0.0575357,-0.0246065
0.0775191,-0.0128171
0.102587,0.00163652
0.011325,-0.0300324
-0.0806292,-0.0498784
-0.0545379,0.0243984
0.00559411,0.0398031
0.00914863,-0.00940589
0.00221624,-0.0412409
-0.00260197,-0.0300125
-0.0143842,-0.010734
-0.00372587,0.00113805
0.0131621,0.0188972
0.0324566,-0.000726501
-0.0015762,-0.00162949
-0.0493239,0.0149003
-0.0318894,0.000126123
-0.0145212,-0.00950353
-0.0100926,-0.00330012
0.00391993,-1.32e-05
0.0135288,0.00128493
0.0196699,0.0127851
0.0334732,0.0183681
0.0347338,0.00738856
0.0160652,0.00204115
-0.000301699,0.00723273
0.0033079,0.00305021
0.0120414,-0.00694597
-0.00183787,-0.00540985
-0.0181338,-0.00344814
-0.0306776,0.00485992
-0.0368075,0.0280062
-0.0320924,0.0431649
-0.00128514,-0.00593243
0.0116023,-0.0174698
-0.0157889,9.63e-05
-0.0449547,-0.00106728
-0.0294351,-0.0090174
-0.00100463,-0.00652893
-0.0197103,0.00404212
-0.0128262,0.02122
0.0227736,0.029025
0.0537275,0.0104428
0.0825675,-0.00859301
0.0893769,-0.020915
0.0182818,-0.0162574
-0.0122975,-0.00878229
-0.0317638,-0.00616121
0.00734942,0.00808162
0.0438925,-0.00290218
0.0272622,-0.0177076
-0.0232698,-0.0166878
-0.0403192,-0.0203157
-0.0183796,0.0158369
-0.011995,0.056557
-0.000511704,0.027242
0.00272861,-0.000177825
0.0172071,-0.0125082
0.0239185,-0.0420185
-0.0193362,-0.0257701
-0.0560765,-0.00758796
-0.0223499,-0.00235397
0.0211011,-0.0002331
0.0141346,0.0143933
-0.00241471,0.0433049
-0.0297827,0.0169773
-0.0301313,-0.0356628
0.00767321,-0.0428192
-0.0206802,0.00458129
-0.0391488,0.0100013
-0.0201216,-0.00191354
-0.0346293,0.0120445
0.0125213,0.0196441
0.078332,0.00890065
0.0554152,-0.0104629
-0.0175081,-0.00603973
-0.0289507,-0.00117212
0.00658655,-0.00220684
0.0191627,0.0109576
0.0112051,-0.000922755
0.00669205,0.00356362
0.0135748,0.0250014
0.0281375,0.028153
0.0171315,0.000411428
-0.0228143,-0.0443241
0.00265629,-0.0273234
0.0441549,-0.0212751
0.00985795,0.0077459
-0.0374258,0.0188789
-0.0550592,0.0212942
-0.012598,0.028845
0.0585548,-0.00123113
0.0581569,-0.0336128
-0.0144322,-0.00673623
-0.0928593,-0.00806589
-0.0714989,-0.0144251
-0.0175455,-0.00444186
0.00564767,0.00571652
0.00685488,0.00208589
0.00959508,-0.00214367
-0.000203845,-0.00709305
0.0105921,-0.000842677
0.0354239,-0.00728795
0.0320802,-0.0133187
0.0190705,-0.00577955
0.0165635,0.00251704
0.0094152,0.0017411
-0.00781792,-0.00757081
-0.0226865,0.00260598
-0.0301952,0.012473
-0.0088598,0.017647
0.0199497,0.0146505
0.00848783,-0.0122584
-0.00976168,0.022344
-0.0181191,0.0589224
-0.00558737,0.0124636
0.0192725,-0.00782171
0.0156275,-0.0616819
-0.0398111,-0.0418798
-0.0811807,-0.0145058
-0.0226802,-0.00495798
0.0213273,-0.00424605
0.00247526,0.0038687
0.0124948,0.0029722
0.0398298,-0.00420415
0.0393821,0.000510593
0.040816,0.00798564
0.0225967,-0.00295265
0.0195391,-2.54e-05
0.0256501,0.0163428
0.037853,0.034619
0.0488065,0.0290482
0.0212932,0.0141736
-0.0200077,-0.0064761
-0.0382463,-0.0177549
0.00389089,-0.00982884
0.024751,-0.0096771
-0.018248,-0.0149844
-0.0347912,0.00943419
-0.0252789,0.0371157
-0.0362588,0.0138447
-0.000724739,-0.0237229
-0.00547746,-0.0284857
-0.0899135,-0.0140437
-0.102757,-0.00443166
-0.0301771,-0.00512621
-0.0226924,-0.0073818
-0.0433631,0.0196905
-0.014692,0.0249044
0.0575927,-0.00219712
0.0732915,-0.000827998
0.0254382,0.00318841
0.00532189,-0.013997
0.0626144,-0.0237078
0.0604367,-0.0203341
0.0319318,-0.00342363
-0.00926532,0.054184
-0.0293182,0.0462289
-0.00116981,0.0344259
0.0566011,-0.0242639
0.0391578,-0.0309105
-0.0395078,-0.0203767
-0.0576604,-0.0392425
-0.0191823,-0.0159841
-0.0063865,0.0235154
-0.0106599,0.0375915
-0.00539474,0.0298716
0.0184942,0.0110148
0.0221872,-0.00709417
0.0310445,0.00466083
0.0243446,-0.0158322
-0.00735405,-0.0364445
-0.0365763,-0.0158238
-0.0531519,0.0258338
-0.0310339,0.00380147
-0.00971257,-0.0197999
0.00374329,-0.0239242
0.00498596,-0.0208534
0.0118949,-0.0185306
0.00902003,-0.0010609
-0.00301253,0.0139825
-0.00420832,0.0144233
-0.00138986,0.0156741
0.00421291,0.0211686
0.0210606,0.00343469
0.0192478,-0.030136
0.00513896,-0.00915806
0.00223533,-0.00391652
0.00938094,0.00154186
0.00937814,0.0259131
0.00653748,0.0327916
-0.00390534,0.000730903
-0.0152658,-0.00361323
-0.0240099,-0.017186
-0.0219056,-0.00333101
0.0168787,-0.00529582
0.0389247,0.00468848
0.012436,0.0184557
-0.00305611,0.0210521
-0.0398854,0.0211825
-0.00811803,0.0112966
0.0339069,0.0111644
0.0488836,0.00801442
-0.0116552,-0.00222897
-0.110212,-0.0217064
-0.072453,-0.0202558
0.0324787,-0.00471963
0.0256211,0.0156128
0.0082294,-0.0342421
0.0335512,-0.0488686
0.0313954,-0.020566
0.00837892,-0.0120679
-0.0172582,-0.00795283
0.00893945,0.00122774
0.00248496,0.0261436
-0.000350138,0.0235388
0.00427427,0.00538916
-0.00105046,0.0184468
-0.0080115,0.0129691
0.000904146,-0.00322137
0.0102363,-0.00174612
0.0083073,0.0174029
0.0139324,0.0173641
0.0188767,0.0337896
0.00699689,0.00289225
-0.0120415,-0.0452408
-0.0301577,-0.025836
-0.0173384,-0.0143111
-0.0239583,-0.0174526
-0.0533088,-0.0125776
-0.0482311,-0.00450353
-0.0189386,0.0419832
0.0310077,0.0525148
0.0807951,-0.0268823
0.0511147,-0.0369231
0.0182865,-0.0194855
0.014863,0.0113492
-0.0103392,-0.00379846
-0.0211731,0.00206273
0.0141059,0.0138235
0.0221999,0.00160508
0.00827381,-0.00891978
0.0108367,-0.0250875
-0.0218741,-0.00404234
-0.0171835,0.0140036
0.0258194,0.00547478
0.00357658,0.0094942
-0.0386904,0.0185275
-0.0330828,0.0162026
-0.00538564,0.0147395
-0.00299316,-0.00182744
-0.018994,0.00995472
-0.0231176,0.0108102
-0.0264409,0.00833516
-0.015845,-0.0213943
0.0110017,-0.0333661
0.0264224,-0.0108095
0.0255675,-0.0150295
0.0054954,-0.0126028
0.000841638,-0.0172143
0.010736,-0.0265508
0.00753287,-0.020141
0.00223181,-0.00595347
0.000621962,0.0165909
0.00691372,0.00903161
0.0218795,-5.8e-05
0.0311584,0.00796701
0.0156837,0.0138268
0.00919744,0.027519
0.0238327,0.0193173
0.029831,0.017951
0.0311108,0.0257611
-0.0120773,0.031036
-0.066072,0.0230321
-0.108286,-0.00690947
-0.0978428,0.00577074
-0.0597625,-0.00867285
0.0281981,-0.04015
0.048236,-0.0461294
-0.000353843,-0.0339226
-0.00771363,-0.0115815
-0.0122231,0.00783919
0.00850872,0.00267466
0.036312,-0.00314456
0.0641302,0.00143695
0.0383411,0.00150666
-0.00158193,-0.00223828
-0.000551988,0.00266868
0.00368128,0.0148853
0.00564554,0.0050526
0.0149295,-0.00702526
0.000152364,0.00177172
-0.0101136,0.025309
0.00257567,0.0124789
0.00358949,-0.0195893
0.00911005,-0.0215807
0.00620979,-0.0106199
-0.00395928,0.01304
-0.00191985,0.0127946
-0.000931038,-0.0029091
-0.00550259,-0.0080174
-0.0149757,-0.00216018
-0.0324736,0.0108696
-0.0184611,0.0120245
0.0223789,0.0155812
0.0126594,0.0177792
-0.00804502,0.0264039
-0.00906892,0.0085726
-0.01461,-0.0214636
-0.0117311,0.0309376
0.000760903,-0.0032808
0.00379472,-0.02397
-0.00237125,-0.00950233
0.00304326,0.000124981
-0.0330512,0.0184206
-0.0303962,0.0139042
0.0210543,-0.00467989
0.0288959,0.000901175
-0.0145047,0.00141208
-0.0479894,-0.0054704
-0.0187439,-0.0173552
0.0180813,-0.00812265
0.0473143,0.00457773
0.030323,-0.00123883
0.0266951,-0.00143898
0.0355796,-0.00965673
0.0338935,-0.0117053
0.0262658,0.0103019
0.0274469,-0.00138831
0.0206381,-0.0342155
-0.0319265,-0.0313983
-0.0507881,-0.010669
-0.027505,-0.01764
-0.0157045,-0.0174296
-0.0184004,-0.00651339
-0.0103127,-0.00170319
-0.00114214,-0.0178099
-0.0102603,-0.00941926
-0.0123947,0.0135519
-0.00897704,0.0301627
-0.00446132,0.00383693
-0.00553149,0.00543704
-0.00790042,0.0136838
-0.00840291,0.0192528
-0.0175199,0.0454818
0.00396466,0.00608645
0.0280717,-0.0498879
0.0415024,-0.00681684
0.0360409,-0.01021
0.0237018,-0.0225847
0.0148355,-0.010108
-0.00693089,0.00568708
-0.0381851,0.00137444
-0.0613985,0.00749822
-0.0568707,0.0407773
-0.0360036,0.0387325
-0.0236061,0.00104501
-0.00867807,0.0105212
0.0731903,0.0166448
0.122814,0.0151523
0.0662874,0.00133512
-0.00847446,0.00162564
-0.0341371,0.0081207
0.0115698,0.00569722
0.0164621,-0.0225133
-0.00499516,-0.0209545
-0.0088257,0.00382257
-0.00280835,0.0201381
0.0123329,-0.0287775
0.0104458,-0.032943
-0.0121892,-0.0108092
-0.0429369,0.00880125
-0.0763205,0.00546075
-0.0490933,-0.0024278
0.00157241,0.0043939
0.0325081,0.00690364
0.05123,-0.0121112
0.0257206,-0.0135902
-0.00120046,-0.00121744
-0.006857,0.0176644
-0.00425429,0.034025
-0.00037405,-0.00705092
0.00221903,-0.017493
0.00208104,-0.022199
0.000269473,-0.0111739
0.00530097,-0.00531553
0.00735459,-0.00538029
0.00433263,0.0012154
0.0067882,0.013354
0.00661812,0.0237901
-0.00328544,0.0254124
-0.0104296,0.0187271
-0.0126696,-0.00431401
-0.0116158,-0.021205
-0.0155089,-0.00790189
-0.0154661,-0.000644575
-0.00945268,-0.00212995
-0.00767528,0.00651553
-0.00549124,0.000933246
0.00724536,-0.01146
0.0173676,-0.0238653
0.0215311,-0.0202568
0.0213756,-0.00381564
0.0184327,-0.0134003
0.00632693,0.00415311
-0.00576399,0.0394817
-0.0107272,0.0362989
0.00951483,0.0285176
0.0273277,0.0196922
-0.00769925,0.00727444
-0.0459425,-0.0139641
-0.0390271,-0.0336585
-0.029605,-0.016433
-0.0157058,0.00437109
0.00855757,0.0308105
0.0390143,0.0355978
0.00406461,-0.0217177
-0.00819391,-0.0188023
0.0122177,0.00343413
0.00701402,-0.0384124
-0.0195539,-0.0290725
-0.0375197,0.0126132
-0.0224443,0.0372209
0.0421543,-0.00718223
0.0779762,-0.0244616
0.0278324,-0.00702559
-0.0214354,-0.00909657
-0.0440416,-0.00826281
-0.0342839,0.0332311
-0.0106765,0.00869396
0.00252323,0.00778665
0.00875323,0.00357481
0.0290871,-0.0214778
0.0372943,-0.0303938
0.0207707,-0.0136045
0.00484534,-0.00910981
-0.000407949,-0.0147272
-0.000418637,0.00408599
-0.00434884,0.0210303
-0.00844678,0.018592
-0.0122409,0.0180943
-0.0138804,0.0109269
-0.0147941,0.014578
-0.00588363,-0.00919524
-0.00907762,-0.0254257
-0.0169048,0.00250083
0.00330627,-0.0193601
-0.00786608,0.00607363
-0.00118369,0.0136045
0.0309368,-0.0108599
0.0437945,-0.0229924
0.0200541,-0.00661432
-0.00583748,-0.00899135
-0.0367943,-0.0224569
-0.0601669,0.00878293
-0.0309095,0.0468749
0.018402,0.0426478
0.0513487,-0.0188295
0.0276083,-0.0157742
0.00319657,0.0152523
-0.00199523,0.0324124
-0.00895036,-0.00677109
-0.00119139,-0.0185611
0.0406218,-0.0196158
0.0469882,0.00974298
0.00596789,0.0324062
-0.0094433,-0.0245398
-0.00788461,-0.0159544
-0.0395055,0.00349273
-0.0573643,-0.0109691
-0.0253044,-0.0185953
0.00595956,0.0238972
0.01046,0.0356914
0.00913782,0.00715447
0.006007,-0.0128323
0.00226039,-0.00663416
0.00156001,-0.0117786
-0.00371115,-0.0238746
-0.00953123,-0.00227643
-0.0128847,0.0130049
-0.0146346,0.0281392
-0.00417287,0.0374077
0.00866142,0.00615567
0.0217122,-0.0258527
0.0107235,-0.0100662
0.0080336,0.00227109
0.0187636,-0.0106717
0.0228042,-0.0165505
0.0189402,-0.00230261
0.0201331,0.00327943
0.0154783,0.00547098
0.0162798,0.0116992
0.025068,-0.00307356
-0.014698,-0.0280651
-0.0584834,-0.0217177
-0.0461663,0.00546447
-0.0298606,0.0134704
-0.0561939,0.0321494
-0.0654744,0.0259389
-0.0274741,0.0095279
0.0548096,-0.0263652
0.0749963,-0.0186631
0.0210765,-0.0156186
-0.00779232,-0.0200436
-0.0150432,0.0130193
-0.00813041,0.03103
0.0251938,0.0137414
0.0228392,0.00153535
-0.0563406,-0.0206468
-0.0434565,-0.0226976
0.0339354,-0.0151371
0.0188802,-0.00747556
0.0125028,-0.00154779
0.0111314,-0.000924244
0.0263644,0.0261516
0.034279,0.0304762
-0.00318508,0.00263932
-0.017885,-0.0226952
-0.0078503,-0.0159335
0.0106193,-0.0175746
0.0435428,-0.0230325
0.0385995,0.013761
-0.00644212,0.0158676
-0.0192351,0.00560756
-0.013509,0.0112171
-0.022791,0.0364268
-0.00953776,-0.00115476
0.00660037,-0.0405179
0.0058309,-0.0146992
-0.00647181,-0.00365363
-0.028166,0.00186644
-0.0287735,0.02426
-0.0110198,0.00959658
-0.0302944,-0.00903306
-0.0379019,0.0128022
-0.0120299,0.017472
0.0199811,0.00212063
0.0278215,-0.00721511
-0.0364239,0.00328809
-0.0575234,0.018075
0.0123496,0.0177161
0.0208125,0.0302422
0.0198818,-0.00548323
0.0208145,-0.0415333
0.0383671,-0.024703
0.0446743,-0.0131801
0.0490605,-0.0154466
0.0329165,0.0217412
0.0281105,0.045039
0.0165079,0.0338679
-0.0355711,-0.0217283
-0.0411708,-0.0395177
-0.0116629,-0.0173571
0.00557816,-0.0204049
-0.0151894,-0.00985736
-0.0315068,0.00706145
-0.00721014,0.00409368
0.00455796,-0.00312161
0.00116515,0.0297979
0.0156439,-0.00549296
0.00888889,-0.0343904
-0.00280429,-0.00475181
-0.00984031,0.00397245
-0.0109236,0.00281205
-0.00870115,0.018868
-0.0100717,0.0260485
6.03e-06,0.00151083
0.00118736,-0.0229795
-0.00303335,-0.0177835
0.00450273,0.00436006
0.00375662,0.0191102
-0.00181846,0.0253
0.00265069,-0.00427033
0.00484101,-0.0173516
0.00674639,-0.00382599
0.0114443,-0.0239444
0.00753935,0.00637208
0.0107688,-0.0100912
0.008325,0.0144963
0.00867759,0.00105581
-0.0336327,-0.00755818
-0.0285,0.0154408
0.0101744,0.00917692
-0.00697143,0.000574499
-0.00342262,0.010427
-0.0178839,0.0115167
-0.0374992,0.00392964
-0.0139122,-0.0134435
0.0489433,-0.00576067
0.070637,0.00111846
0.0236339,-0.000259164
-0.0288369,0.00303904
-0.0302103,-0.00564242
0.00903895,-0.009172
0.018463,-0.0156465
-0.0222186,-0.00029217
-0.0564673,0.00881075
-0.0155688,0.0204629
0.0161969,0.00981768
0.0104409,-0.00570736
0.00663541,-0.0055807
0.0098606,-0.000790877
0.0197881,-0.00849838
0.0117205,-0.0124648
0.0124302,-0.00834944
0.010866,0.0131774
0.00580915,0.00246504
-0.00381977,-0.0160732
-0.00879683,-0.0148669
-0.0100216,-0.00331706
-0.00120689,-0.00793713
0.0138466,-0.0125696
0.0425408,0.0109106
0.0679937,0.0258776
0.021449,0.0081155
-0.0246191,0.0153135
-0.0178731,0.0128989
-0.0490712,-0.00105193
-0.0910147,-0.00628792
-0.102248,-0.0106947
-0.065758,-0.00172544
0.0360843,-0.00971453
0.0590404,-0.000668341
0.010736,0.00480863
-0.00413088,-0.00891943
0.00776585,-0.013718
0.00827917,-0.016135
0.0222901,0.00716315
0.0184893,0.0010535
0.0168452,-0.0159322
0.0295884,0.013929
0.00210136,0.0244117
-0.00192563,0.0106652
-0.00407812,-0.0130145
-0.00868899,-0.0087605
0.0176647,0.0029143
0.0234538,-0.00715635
2.89e-05,-0.0130454
-0.0307408,0.00537574
-0.0403052,0.0187555
-0.00376016,0.00695125
0.0112211,0.00979569
0.0313097,-0.00368956
0.0434048,-0.0228788
0.0232864,-0.0131383
-0.0143799,0.00790678
-0.0280185,0.0156174
0.00109265,0.0164608
0.0287036,0.0152356
0.0324544,0.0241904
-0.0064543,0.0314023
-0.0345645,0.0192984
-0.018723,0.00728839
0.0279411,-0.0411826
0.0174808,-0.045077
-0.0543039,0.00935309
-0.0807313,-0.0255106
-0.0226603,-0.0183818
0.0385718,-0.00281067
0.0194536,0.0195788
-0.0054605,0.0293789
-0.0196832,0.0159919
0.00451891,-0.00541305
0.0271296,-0.0125264
-0.0113475,-0.0165321
-0.0345348,-0.0246313
-0.0238469,0.00491415
-0.00159794,0.015508
-0.0017075,-0.00296494
-0.0120274,-0.0156788
0.00283999,-0.00400564
0.0371216,-0.00413836
0.0390102,0.0304713
0.0313788,0.0187583
0.0232766,-0.00598782
0.0241663,0.000609213
0.0119314,-0.0031179
-0.0129563,-0.000264691
-0.0324849,0.0143809
-0.0134497,0.0108767
0.011973,-0.0290436
0.0267075,0.0174591
0.0214663,0.0262094
-0.0154579,-0.033431
-0.0510297,-0.0203072
-0.0500749,0.00589097
-0.0303301,0.0187683
-0.0160718,0.0103854
-0.000650721,0.00207889
0.0241328,-0.0311762
0.0195795,-0.0341418
-0.019012,-0.0142242
-0.0281875,-0.00994512
-5.67e-05,-0.0100874
0.00538088,-0.00333414
-0.00284048,0.0183306
0.0226539,0.0385136
0.0433209,0.00228342
0.024412,0.00294136
0.0177813,0.00261888
0.0220078,0.000529426
0.0125649,-0.0121538
0.011252,-0.0146406
0.0040205,-0.0040075
0.00346938,0.00186744
0.0281123,0.0422857
0.03716,0.0305745
0.0193478,-0.00808751
-0.000139698,-0.0204374
0.00682155,-0.0207226
0.0140574,-0.0248648
-0.0319091,-0.0111348
-0.0713326,0.00602111
-0.0303553,0.0278601
0.012307,0.0448818
-0.0258725,0.0334291
-0.0695518,0.00797166
-0.0648109,-0.014754
-0.0520595,-0.0173413
-0.0322111,-0.0142399
0.0372282,-0.0130789
0.0391783,-0.00223176
0.00997457,-0.0112497
0.0220573,-0.0117989
0.0330905,-0.00419137
0.0223297,0.00036824
0.00617934,-0.0161041
-0.00874702,-0.00165974
0.000527061,0.0152984
0.019136,-0.0079103
0.0139768,-0.0102191
1.21e-05,0.0133606
-0.00713248,0.0273834
-0.00390881,0.0132308
0.000826745,0.0188274
0.0107287,0.0160183
0.0265627,-0.0363187
0.00908601,-0.0392053
-0.0410453,0.00961972
-0.00283546,0.0152077
0.00745885,0.00116926
0.00692706,0.0186912
-0.022329,-0.000371046
-0.031809,-0.0122608
0.0101887,-0.0178797
0.0242798,-0.00965024
0.0233463,0.0015146
0.0187267,0.0154749
0.0187845,0.0115997
0.00963416,-0.00724372
-0.0126089,-0.00773988
-0.0177828,0.00841026
-0.00713863,0.0364638
0.0196448,0.0026394
0.0206826,-0.0126599
0.00558695,-0.0107591
-0.01043,-0.00173377
0.0140452,-0.0386669
0.0424382,-0.0201734
0.0383059,0.0111349
-0.00201335,-0.00664209
-0.0567968,0.00221863
-0.103142,0.0061356
-0.091098,0.00961334
-0.0489521,0.0151509
-0.0389003,-0.01462
0.01673,-0.0334226
0.0522758,-0.016032
-0.000998937,0.012011
-0.00182746,-0.00125758
0.00533024,-0.0403858
0.00614919,-0.0230412
0.0449189,0.0215477
0.0361871,0.0281915
-0.00166777,0.0372516
-0.0163639,0.0528173
-0.014668,0.0019395
0.00211338,-0.0119246
0.00715853,-0.00423732
0.0058533,0.00515258
0.00272293,0.0326153
0.0180697,0.00523255
0.0416309,-0.0327537
0.0141471,-0.0110233
0.00713,0.0060163
0.0170573,-0.0432625
0.000517258,-0.0287899
-0.0102495,-0.0206192
0.0104294,-0.00121597
0.0419626,0.0110504
-0.00995443,0.00304416
-0.065526,-0.00976715
-0.0402722,0.0095432
-0.00359431,0.0289701
0.00769616,-0.00914292
0.00733668,-0.00256992
-0.00989482,0.0128357
-0.0117865,0.0150888
0.00377759,0.0235818
0.047305,0.0133001
0.0467535,0.0120478
0.0135799,-0.0107156
-0.000594427,-0.0240685
-0.0298696,0.0122083
-0.0328101,0.0232495
0.0219651,0.0237414
0.078483,0.0124117
0.0488854,-0.0023191
-0.039667,0.0354524
-0.0540132,0.00441086
-0.0534895,0.00630968
-0.0265296,0.0130428
0.0178056,-0.0311761
-0.00758978,-0.0271414
-0.060117,0.00173918
-0.0678606,0.000564347
-0.00808956,-0.00188606
0.043561,-0.0027671
0.0277435,0.00751002
0.0257811,-0.0276144
0.0249391,-0.0518696
-0.017893,-0.0126339
-0.0390645,0.0259797
-0.00114668,0.0224213
0.0248298,0.00682587
0.0244252,-0.00470466
0.0103025,-0.0193568
-0.00915045,-0.0245846
-0.0209585,0.00461949
-0.00711385,0.0184173
-0.00884559,0.00814145
-0.0191684,0.00763871
0.0104329,0.00263225
0.0277534,-0.0075078
0.0365801,-0.0119724
0.0193181,-0.00426501
-0.0144847,-0.00884266
-0.0678053,-0.0486417
-0.085957,-0.0388885
-0.0195512,0.0076507
0.0409641,0.0139218
0.043428,0.0089384
0.0423079,0.0152775
0.0336613,0.0152373
0.0203995,0.0152199
0.0270303,0.0109124
0.0449145,0.0174971
0.0264226,-0.00603274
-0.0161905,-0.0133384
-0.0146308,0.0108506
0.0061896,0.00969905
0.00913423,0.0351731
-0.00382063,-0.016163
-0.00872502,-0.047485
-0.00120834,-0.0243933
0.00101646,0.000699211
-0.016379,0.0160772
-0.0265922,0.00836104
-0.0372121,0.00376137
-0.0352867,0.00588417
-0.0296482,0.00161105
-0.0198701,-0.00319713
0.0353654,-0.000712228
0.0775164,0.00305758
0.0751481,0.0119607
0.0160434,-0.00243538
-0.0585102,-0.00722571
-0.0461569,0.00252484
0.00624576,0.0130594
0.0193567,0.0221657
0.0100477,0.00342965
-0.0299639,-0.0264615
-0.0586483,-0.0267547
-0.0332316,-0.0120197
0.00475509,-0.00730381
-0.00709498,-0.00376075
-0.030855,0.0129021
-0.0365431,0.0152931
-0.0160229,-0.0270549
-0.00311682,-0.0236764
-0.018426,0.0198711
-0.0176549,0.0528253
0.0298901,-0.00308866
0.0877503,-0.0311727
0.0808122,-0.00829817
0.0419292,0.00350426
0.0179595,-0.00326786
0.018713,-0.0438564
0.00516754,0.0327888
-0.00206458,0.0917376
-0.018943,0.00934478
-0.0169428,-0.0228566
-0.0365291,-0.00901991
-0.0455139,0.00117747
-0.0155821,0.00288388
0.0154264,-0.00569364
0.034736,0.000801963
0.0681553,0.0109924
0.0674091,0.00736227
-0.000366636,-0.00770501
-0.0704978,-0.0293487
-0.0711994,-0.0230198
-0.037221,-0.0145281
-0.00485572,-0.0101312
0.0157097,-0.00342026
0.000613512,0.000211569
-0.0244157,0.0123869
-0.0161693,0.020487
0.0216991,0.0145961
0.0502133,0.00301356
0.0432864,-0.00464373
0.0308309,0.00454624
0.0054893,0.0220675
-0.0480934,-0.00623905
-0.0433197,0.0101144
-0.0295644,0.0690521
-0.00568068,0.0121067
-0.0286112,-0.058543
-0.0195315,-0.0288947
0.0186197,-0.0437978
0.0193463,-0.0226279
0.00833813,-0.0187798
0.0157764,0.00886662
0.0250143,0.0238094
0.0215634,0.0233128
0.0320478,0.0100923
0.0327294,-0.0118645
-0.0266485,-0.0382556
-0.0435368,-0.0223462
-0.0146694,-0.0185991
-0.00816317,0.0290116
0.00616737,0.0322857
0.0581026,-0.0217179
0.0551568,-0.00561203
-0.0355702,-0.000230801
-0.0562648,-0.00265903
-0.0327345,0.0137652
-0.0117863,0.0213734
-0.00686344,0.0361861
-0.00726021,0.0290186
0.00106483,0.0118079
-0.00370245,0.0216044
0.0217781,0.0118603
0.0456611,-0.0118689
0.0249671,-0.0276827
-0.00551055,-0.026206
-0.026621,-0.000317121
-0.0106459,0.00443613
-0.0171357,-0.0207478
-0.00984449,-0.0356798
0.00754168,-0.00827067
0.0074887,-0.000582538
-0.000977072,-0.0157778
0.000511962,-0.009208
-0.0156314,0.0325128
-0.0325026,0.0354026
-0.0126168,0.0225987
0.0125211,0.0140498
0.025545,0.00220621
0.00601115,-0.0188709
-0.0187959,-0.0204479
-0.0147345,-0.0160639
0.0221674,-0.0328454
0.0647416,-0.0323438
0.0621327,0.0114963
0.00644995,0.0194964
-0.0148954,0.00932365
-0.0185408,0.0064871
-0.0407858,0.00830101
-0.0537469,0.0219389
-0.0247075,0.0246334
0.00347433,0.0336428
0.019303,0.0184924
-0.00463022,0.00211842
-0.0165386,0.00818949
0.0158581,0.0211282
0.00445387,0.00369283
-0.00889236,-0.072525
-0.0381089,-0.0664649
-0.0548112,-0.0413949
-0.024334,-0.00696616
0.0359021,-0.000390778
0.054256,0.00111057
0.0557157,-0.00325265
0.0456358,0.00832324
0.0145654,0.0203452
0.00465785,0.0168761
0.0206658,0.0318502
0.0187719,0.042973
0.0229546,-0.000939737
0.0356824,-0.0131901
0.016243,-0.0126678
-0.011206,-0.020331
-0.0114806,-0.0109131
-0.0327111,-0.00978936
-0.0451854,-0.00943541
-0.0726247,-0.000939302
-0.0993245,0.0036184
-0.0784886,0.0132553
-0.017949,0.00462888
0.0112863,0.00851058
0.016992,0.00645093
0.0434672,-5.26e-05
0.0698717,0.00235551
0.0302469,0.00799263
0.0080269,0.0162522
0.0173858,-0.0120363
0.0196322,-0.00200679
0.00770194,0.0124347
-0.00675563,-0.00799897
0.00959899,-0.0485774
0.0259576,-0.0238183
0.0330974,-0.0283335
0.0196401,-0.0196977
-0.0104197,0.0133652
-0.00678771,0.0278717
0.00733706,0.0548824
0.0296643,0.0498813
0.122441,0.0359575
0.177104,-0.0125321
0.00591172,-0.0310558
-0.189766,-0.0120034
-0.173149,-0.00423469
-0.09225,0.0252049
-0.101306,0.0271622
-0.119895,-0.00930281
-0.0483913,-0.0214301
0.0212591,-0.0131446
0.0397249,-0.00295703
0.0622547,0.00279709
0.0458897,0.00833843
0.0218674,-0.00646333
0.0215731,-0.0105654
0.0219018,-0.0132496
-0.00851833,-0.00861712
-0.0356371,-0.00586399
0.0154155,-0.00894269
0.0340375,0.0100656
0.0404209,0.0141448
0.0104626,-0.0429498
-0.0115856,-0.0228766
-0.00872771,-0.00243872
-0.00789146,-0.00710372
0.0119126,-0.00909988
0.0467677,0.00142119
0.0553573,-0.00245098
0.0155111,0.00247857
-0.0343581,0.0181253
-0.0269523,0.0214242
0.0176731,0.0162903
0.015971,0.0183152
-0.0325422,-0.000358322
-0.0605067,-0.00846415
-0.0239175,0.0144518
0.0266768,0.0197673
0.0207377,0.0052223
-0.0140931,0.000702594
-0.0305702,0.00257973
-0.0173066,-0.00512239
0.0660178,-0.00639241
0.0926301,-0.0200962
0.000593249,-0.0335979
-0.0326555,-0.00744294
-0.0568372,0.0353682
-0.0669337,0.0362114
-0.0410081,0.00240499
-0.0104015,0.00621315
0.00886904,-0.0359329
0.0117946,-0.0366969
0.00587159,-0.0027831
0.00304402,0.00885852
0.0196621,0.012057
0.0331735,0.0121614
0.0672975,0.0239701
0.0529435,0.00367362
0.0237593,-0.0343424
0.0407134,-0.0302655
0.0243108,-0.0156865
-0.0238481,-0.0167426
-0.0513709,-0.0035667
-0.0505549,0.0185488
-0.0295221,0.0256236
-0.011537,0.00967274
-0.00602102,0.0148073
-0.00539093,0.00987802
-0.0051347,-0.00777128
-0.00879137,-0.0164522
-0.0191875,-0.0056988
-0.0234312,0.0156644
-0.016646,0.0279603
0.00868539,0.0105828
0.0339215,-0.0076895
0.0229139,-0.0100507
0.00483049,-0.00106422
0.0062446,-0.00425673
-0.000715686,-0.0162327
0.0279623,-0.00391189
0.0205104,0.0157461
-0.0525229,0.000649739
-0.0268474,-0.0131648
0.00980334,0.000238262
-0.0197531,-0.0012468
-0.0247396,-0.0130648
-0.00510836,-0.0175147
0.00654858,0.00141066
0.0163057,0.0186036
0.0116462,0.0143852
-0.000329432,0.00687811
0.0163976,0.00901731
0.0357068,0.0108568
0.0359932,0.00536112
-0.01289,0.00478265
-0.0194494,-0.00485192
-0.0209864,0.00809455
-0.0185806,0.0169137
-0.0111617,0.00107706
0.00137493,-0.0046196
0.0131422,-0.00212255
0.0119346,-0.0162966
0.00143552,-0.0255363
-0.00311874,-0.0110704
-0.00735813,0.0143448
-0.0136629,0.031171
-0.00188732,0.0238647
0.0160997,-0.00234853
0.0364919,-0.0142395
0.0279328,-0.00542392
0.0190975,-0.00403742
0.00732526,-0.0131913
-0.0749827,-0.0170578
-0.06462,-0.00413229
-0.0114334,0.0062564
0.0637807,0.0101506
0.108155,0.000858942
0.0349477,-0.0254715
-0.0796117,-0.0267664
-0.0977949,0.0324292
-0.0344126,0.0303294
0.0129856,-0.00995152
0.0438989,-0.0340583
0.0605983,0.0096674
0.0693837,0.030618
0.0562146,0.00628708
-0.0276027,-0.0371025
-0.111447,-0.028494
-0.0927852,0.0343325
-0.037521,-0.00135668
-0.003943,0.00870622
0.0209923,0.0048599
0.0355294,-0.0230028
0.0113841,-0.0163394
-0.0127642,-0.00340278
-0.0199029,-0.0201666
-0.0131158,-0.0235272
-0.00511642,0.00100281
-0.00436023,0.00292185
-0.00227612,0.00604878
0.00604454,0.0217149
0.0246715,0.00592193
0.0179156,-0.00893344
0.012119,-0.0273966
0.0230179,-0.00356116
0.0182211,0.0131766
0.0415361,0.0269737
0.108523,0.0650399
0.0614936,0.0160287
-0.0750542,-0.035891
-0.136441,-0.0170129
-0.0869201,-0.000767992
-0.0142601,-0.00562323
0.0102173,-0.0115466
0.00236436,0.00560729
0.00402095,0.0188541
0.0237539,0.00331439
0.0465705,-0.0107024
0.0437491,-0.00224796
-0.0110327,0.0137503
-0.031334,0.00931847
0.0142333,-0.0111471
0.0566207,-0.00313324
0.0448266,0.0060297
-0.0165048,-0.00846124
-0.0501539,-0.00354749
-0.0582759,0.00988495
-0.0280776,0.0319898
0.0355906,0.00365867
0.0324446,-0.0250632
0.00326718,-0.0148271
0.0032623,0.019088
0.0050467,0.0124423
-0.0130761,0.00135483
-0.0491865,-0.0122285
-0.0784427,-0.0165517
-0.0415887,-0.004404
0.00306164,0.0179181
0.0221926,0.00463753
0.00656666,-0.0150298
-0.00381606,-0.00821501
0.0052981,0.0107703
0.0295798,0.0392106
0.0708257,-0.0060752
0.0868416,-0.0286501
0.0415124,-0.0197944
-0.00754859,-0.0252605
-0.0260527,-0.00699434
-0.0084924,0.0207077
0.0354613,0.0187889
0.0511629,0.0261359
-0.0183304,0.0336015
-0.0692536,0.0138814
-0.0397515,-0.0246771
0.0198362,-0.0405772
0.00614457,-0.0349922
-0.0765398,-0.0108558
-0.0823057,0.0106767
-0.0198941,0.0204969
0.00394232,-0.00260955
-0.0179313,0.000466768
-0.0204737,0.0183682
0.00900652,0.0017073
0.0208338,-0.00362975
-0.00108086,-0.0148206
-0.0121589,0.0542935
0.0430729,0.0563111
0.0660141,-0.0278974
0.057503,-0.0741448
0.0682521,-0.0709027
0.0535465,-0.026241
-0.0284391,-0.00738638
-0.0503553,-0.000200478
-0.0264219,0.0182255
0.0113169,0.0330717
0.0152981,0.0215434
0.0145665,0.000115756
0.0144737,-0.00824931
0.00383584,-0.00787301
-0.00891938,-0.00754947
-0.0482418,0.0140375
-0.0763551,0.0394052
-0.0657571,0.0523112
-0.00209819,0.0066807
0.048561,-0.0236042
0.0335578,-0.00959774
-0.0169807,-0.00276393
-0.0232345,0.00881201
-0.0100701,0.020933
-0.028932,0.0149779
-0.00994759,0.00946264
0.0357325,0.00165012
0.056247,0.000674835
0.051305,-0.0109712
0.0167121,-0.0154928
-0.0377867,-0.0272464
-0.0301831,-0.0300804
0.00910535,-0.0160096
0.00547503,-0.00261848
-0.0116009,-0.00245383
-0.00821912,-0.00629943
-0.00875011,-0.003864
-0.00865288,0.000646553
-0.00749653,0.000376114
-0.00676028,0.00609012
-0.0137693,0.00773461
-0.0124947,0.0122772
-0.00565638,0.0281711
0.0167163,0.0263958
0.0693579,0.0043916
0.0856951,0.00150413
0.0510549,-0.0159983
0.00567871,-0.0300944
-0.0272301,-0.0195474
-0.0350047,-0.00114077
-0.0239909,0.010051
0.000344931,0.00400409
-0.0250137,-0.00756842
-0.0536539,-0.0136041
-0.0121976,-0.0117079
0.0618841,-0.00622861
0.0793536,0.00389954
0.0840183,0.0174669
0.0995696,0.0208047
0.115944,0.0174668
0.0753655,0.00840063
-0.050133,-0.0148272
-0.17387,-0.0123232
-0.234539,-0.00893225
-0.258797,-0.00669639
-0.173279,-0.00418616
-0.0417683,0.00181828
0.00493058,0.00744219
0.0488681,0.00686121
0.065434,0.00936937
0.111655,0.0059854
0.140333,-0.00235128
0.112871,-0.00542328
0.00916499,-0.00408862
-0.0758624,-0.0090984
-0.14633,-0.00416602
-0.0884073,0.00159511
0.0884488,0.00672792
0.26241,0.0128147
0.32472,0.0112672
0.245875,0.00475395
0.0421501,0.00784371
-0.164157,0.00710077
-0.223594,0.0108437
