Comp Ch 3,Comp Ch 4
0.0741084,0.035731
0.039776,0.0159523
-0.014718,-0.00753834
-0.00985858,-0.0369433
0.00183465,-0.0402788
-0.0606379,-0.00445061
-0.10893,0.0266198
-0.0737228,0.0337987
-0.0810566,0.0894812
-0.074819,0.017649
0.0553373,-0.0368827
0.134597,0.0597175
0.0859201,-0.0366122
-0.0455328,-0.0937086
-0.0706255,-0.00324691
-0.064325,0.040297
-0.060633,0.0127682
0.0298681,-0.00467897
0.167578,-0.0091676
0.199499,-0.0159768
0.174173,-0.0191141
0.143842,-0.0472159
0.200636,-0.039607
0.132507,-0.00528352
0.0089626,0.00191456
-0.0276866,0.0121235
-0.193365,0.00605418
-0.236811,-0.00237234
-0.0899222,0.0142884
-0.0138268,-0.00780099
0.00395914,-0.00558406
-0.00420992,0.0123345
-0.0122324,0.0152608
-0.108564,-0.00121727
-0.217598,0.0166162
-0.162483,0.0440801
-0.0651323,-0.0174114
0.00896163,-0.0513928
-0.00531746,-0.0174354
-0.0212599,0.0107526
0.0813631,0.0153837
0.155252,0.0299888
0.0889531,0.0269806
0.0359741,-0.00452283
0.069552,-0.0210978
0.0825817,-0.0183218
0.0232902,-0.0249725
0.0279577,-0.019991
0.0978859,-0.0160365
0.069405,0.00824767
0.0111107,-0.0106922
-0.0290815,-0.0145222
-0.0539908,0.0103617
-0.0588631,-0.00561403
-0.0551443,-0.0234087
-0.054698,-0.0217392
-0.0496227,-0.0239807
-0.0330394,0.00623538
-0.027736,0.0363346
-0.0250251,0.030777
-0.0189852,0.00182019
-0.0229825,-0.00147463
-0.0117078,0.0117051
0.0337991,0.000414632
0.0946782,-0.00660694
0.0964362,0.0239513
0.0576001,0.0622947
0.0270941,-0.0106523
-0.0130441,-0.0135066
-0.0382986,0.0170871
-0.0242204,-0.0264513
-0.00904206,-0.0104981
-0.0152755,0.0222389
-0.0127943,-0.0157648
-0.0106915,-0.0182021
-0.000295032,-0.00187141
0.0109714,0.00468305
0.0441798,-0.00675419
0.0975539,0.00102886
0.105095,-0.0118216
0.057436,-0.0403742
0.0133186,-0.032228
-0.0818328,0.0100779
-0.19442,0.0426836
-0.181206,0.0379982
-0.152603,0.0870427
-0.0495755,0.108343
0.0374617,0.0301356
-0.0471112,-0.0520207
-0.0697438,-0.0667036
0.0125035,-0.0486501
0.0141537,0.0292446
-0.0184707,0.0440741
0.0327606,0.0173361
0.0742879,-0.072213
0.0330301,-0.066366
-0.0880305,-0.0283342
-0.0610325,-0.0174612
0.170279,-0.0172986
0.299971,-0.0207924
0.245045,0.0209507
0.152589,0.0189112
0.0370831,-0.00991456
-0.102041,-0.0222944
-0.185756,-0.0162216
-0.131611,-0.0105828
-0.0588348,0.0140794
-0.0294115,0.0423583
-0.0122162,-0.00834116
-0.000497116,-0.0190742
0.019944,0.0182352
0.00199283,0.0773013
-0.00782245,0.0224937
0.00180836,0.0238523
0.0360923,-0.0323676
0.0747508,-0.0553623
0.0464168,-0.0136227
0.000585437,0.00191138
-0.0281128,-0.00409485
-0.045624,-0.0133573
-0.0384529,-0.0156833
-0.0197508,0.00114972
-0.00818609,0.0356486
-0.00889199,0.00518512
-0.029855,-0.00165938
-0.0279426,0.0063268
-0.00378111,0.0218885
0.0329166,0.0266987
0.0379141,0.00985693
-0.0146383,0.0107448
-0.00915824,-0.029717
-0.0149061,-0.0373326
-0.0299792,-0.0346163
-0.0353414,0.0104669
-0.0254771,0.0285444
0.00216809,0.00594737
0.00853226,-0.00747342
-0.0202267,0.000828736
-0.0153098,0.00267316
0.0134775,0.00455066
0.0248071,0.0354858
0.0260207,0.0308395
0.0244158,-0.0378419
0.025382,-0.0485082
0.0354076,-0.0197787
0.0205299,-0.00379877
-0.00535219,0.0264645
-0.00816083,0.090846
-0.00458995,0.0203844
-6.39e-06,-0.0483014
0.0112082,-0.0102624
0.00207091,0.00142697
-0.00719084,0.00589267
-0.00019145,0.0164373
0.00459114,0.0131282
-0.00621832,-0.000695343
-0.0105671,-0.0215274
-0.0133268,-0.0152375
-0.0365284,-0.00135686
-0.0177578,0.00789455
0.00820235,-0.0129616
-0.00979804,-0.00694773
-0.0244552,0.0231601
-0.0110036,0.00438087
-0.0152838,-0.0127481
-0.0272116,-0.0014736
-0.0393255,0.0133197
-0.0187928,0.00341395
0.00312771,-0.00880035
0.039497,-0.0132067
0.040133,-0.00868799
0.0186172,-0.00849504
0.0112897,-0.0046478
-0.00423984,-0.013589
0.0289468,-0.00914119
0.0389061,0.00392572
0.0371617,-0.00558435
0.0397835,-0.0154269
-0.0141212,-0.0131517
-0.0598327,-0.0131858
-0.0249068,-0.0159947
0.0147103,-0.00874733
0.0258386,0.0238347
0.00915146,0.0446146
-0.00706802,0.018728
0.0164122,0.00399505
0.0401412,-0.00208105
0.0086491,-0.00905946
-0.00672941,0.000534436
0.0334548,0.00388618
0.0673446,-0.00483843
0.0333796,0.00488743
-0.0353472,0.010943
-0.097569,-0.024659
-0.0784286,-0.0174402
-0.0285969,-0.00103196
0.019128,-0.0161908
0.0243398,0.00491187
-0.0128296,0.0166828
-0.0334371,0.0252312
-0.0291551,0.00963205
-0.0159945,0.00322265
-0.0122519,0.0291349
-0.0147103,0.0195146
0.0118502,-0.0114366
0.0768891,-0.0140911
0.0929555,-0.023467
-0.00195191,0.00267153
-0.0529897,0.0448324
-0.0606473,0.0492291
-0.0444713,0.0038827
-0.0206473,-0.0156213
0.0378842,-0.0392339
0.0631633,-0.0516559
0.0819556,-0.0458747
0.031377,0.00497492
-0.0533123,0.0382137
-0.0799182,0.0203185
-0.0385884,-0.0152549
0.0267774,-0.0175167
0.0484828,-0.00456971
0.0353325,-0.000133919
0.000467691,0.00738672
-0.00436485,-0.00631853
0.0154687,-0.0037426
0.00261955,0.00526566
-0.0147867,-0.00960373
-0.0136206,-0.0199553
-0.0185506,-0.0079306
-0.0133871,-0.00499722
-0.0100601,0.00190843
-0.0112483,0.0203928
0.0114797,0.0242792
0.0240181,0.0174068
0.00659255,0.0130448
-0.0142593,0.0145378
-0.0249958,0.000547087
-0.0339947,-0.0323753
-0.0236489,-0.0301096
-0.0148866,0.000296757
-0.0120518,0.00403539
-0.00215861,0.00470646
0.00714289,0.0120601
0.0218863,-0.00246488
0.0388021,-0.0153557
0.0229485,-0.00685162
0.0214508,-0.0135528
0.0632631,-0.0274784
0.117595,0.000579609
0.105334,0.0219265
0.0251867,0.0397416
-0.0581783,0.0355652
-0.125019,-0.00914181
-0.170404,-0.00498976
-0.133175,-0.00548323
-0.0416947,-0.0048371
0.0468404,-0.00369483
0.0860158,0.000994209
0.0586999,0.0242592
0.0352157,0.0423675
0.0115428,0.0181337
-0.00736371,-0.00698482
-0.0359587,-0.0196423
-0.0314381,-0.0662103
0.0186157,-0.0677286
-0.000572164,-0.0117634
-0.00651468,0.00688835
0.00656481,0.0100716
0.00703132,0.0177258
-0.00630619,0.0191981
-0.0112474,0.0165152
-0.0140553,0.0109783
-0.0207023,0.00494327
-0.0131179,0.00356415
-0.0181987,0.00454392
-0.00320652,0.0126795
0.0201168,0.0151913
0.0556222,0.00585642
0.0573762,-0.023974
0.027144,-0.0317453
-0.011153,0.00472048
-0.0066389,0.0102451
0.0248648,0.0366795
0.0196367,0.0294144
-0.0184238,-0.00921882
-0.0512588,-0.00252757
-0.0452948,0.0109197
0.00140601,0.0146207
0.0277176,0.0235861
0.032163,-0.0304534
0.0190971,-0.0292396
-0.00898232,0.0114082
-0.0274056,0.000989137
-0.0156643,-0.01933
0.00872214,-0.0257525
0.0124591,-0.00824485
0.0175995,0.0112436
0.0233875,-0.0112738
0.00128932,-0.0267205
-0.0189867,0.00229685
-0.0264139,0.00226363
-0.0312756,0.00795384
-0.0264622,0.0179472
-0.0202889,0.0137518
-0.0176433,0.0113385
0.0096319,0.00711844
0.0337396,-0.00499081
0.0182471,-0.0170325
-0.00238383,0.0121483
-0.00134287,0.0204039
0.0166219,-0.0345662
0.00799423,-0.0354487
0.00303885,-0.00518372
0.0182256,-0.000334659
0.0275747,-0.0416255
0.00330505,-0.0515929
-0.0260744,-0.00422697
-0.030812,0.0129393
-0.0342946,0.00856641
-0.0277184,0.00831733
-0.03587,0.00300014
-0.0255231,-0.00256217
0.0415097,0.00487153
0.0753457,0.0187682
0.0358689,0.0298278
-0.0028414,0.0447762
0.0162007,0.0328593
0.0261456,0.0124235
0.000748842,0.00621606
-0.0234786,-0.00073359
-0.0159592,-0.0197381
-0.0147188,-0.0335868
-0.00636917,-0.0117723
-0.0107794,0.0207825
-0.00210603,0.019644
-0.0012658,0.0262323
0.00113173,0.00997226
0.00119505,0.0183595
-0.0023828,-0.023277
-0.00632352,-0.0256783
0.00596091,-0.00424048
-0.0162074,0.0128539
-0.0321123,0.0123818
-0.0192035,-0.00727129
0.00376441,-0.0115954
0.00456545,-0.0111371
-0.00143481,-0.00238671
0.00604473,-0.0187596
0.00998539,-0.00377497
0.00288447,0.0279753
0.000381341,7.27e-05
0.0201578,-0.0132071
0.0515891,0.00536997
0.0566624,-0.0231497
0.0418779,-0.0326548
-0.000190747,-0.0105123
-0.0170518,0.00288728
-0.00833337,0.0104402
-0.00863762,0.0345298
-0.00644484,-0.00794412
-0.0196112,0.00292749
-0.0281065,0.0148801
-0.0317454,-0.000906137
-0.036868,-0.00781384
-0.0313187,-0.0204744
-0.0162165,-0.0230912
-0.00837152,0.00862575
0.0278771,0.0111173
0.032036,-0.0020918
0.0359239,0.0160103
0.041363,-0.00342509
0.0271581,-0.0393939
0.00572772,-0.0317059
-0.00782519,0.00541455
-0.0068141,0.0212387
-0.00529495,0.0528815
-0.0207994,0.013823
-0.0615898,0.0351943
-0.019996,0.00436487
0.00568056,-0.0401382
-0.0364889,-0.0187803
-0.0458334,-0.000834896
0.000628501,0.0221581
0.0460011,0.0209824
0.0650667,-0.00167171
0.0364916,-0.00377809
0.022635,-0.0130132
0.0249592,-0.0359479
0.00787283,-0.0352894
-0.0221883,-0.0369695
-0.0194916,-0.0251226
-0.00534002,0.0136945
0.0210899,0.051533
0.0263625,0.0586938
0.0085835,0.0198995
-0.000451379,-0.0128036
0.0113143,0.00666586
0.0207513,0.0208053
-0.000620978,0.00859264
-0.0400495,0.00899537
-0.0657312,0.00166493
-0.0654202,-0.00345348
-0.0539093,0.00759143
-0.0223834,-0.00704556
0.011875,-0.0246947
0.00967871,-0.0186619
0.00402195,-0.00158582
0.0194559,-0.00628945
0.024888,-0.000330498
0.0221509,0.0110273
0.00976751,-0.000268997
-0.0012151,-0.00728655
0.000852678,0.000234534
0.00585639,-0.022227
0.00131518,-0.0243325
-0.0130417,0.00990887
-0.0122415,0.0451769
0.010726,-0.0154011
0.0179284,-0.0327892
0.009761,-0.0133974
0.00744101,-0.0122552
0.007761,-0.0152744
0.00870378,0.00400928
0.0131578,0.0205293
0.00727414,0.0162463
-0.0131723,0.0318234
-0.0172326,0.044837
-0.020002,-0.00316908
-0.0283583,0.00230965
-0.0213167,-0.00202466
-0.00340837,-0.0143061
0.0028845,-0.00775799
-0.00271095,-0.000794649
-0.00865604,0.0198323
0.00816605,0.00765453
0.0438172,-0.0292903
0.0321329,-0.0213768
0.0115687,-0.00858969
0.0121527,-0.0115239
0.0100402,-0.0125993
0.0024211,0.0131408
-0.00645024,0.0273745
-0.0161115,0.0212698
-0.00683284,0.00504505
-0.00781996,-0.0298375
0.00211933,-0.024236
0.00669256,-0.00586844
-0.0220469,-0.0136627
-0.0132617,-0.0211269
0.002521,0.00779905
0.00601539,0.0427369
0.0196717,0.0128547
0.0243233,-0.0239171
0.00265839,-0.0283681
-0.00714832,-0.0147096
-0.0128141,-0.00235733
-0.0164788,0.00671451
-0.0128427,0.014561
-0.00850212,0.02944
-0.0114371,0.0407163
0.00764217,0.0338826
0.0175851,0.00311929
-0.00549126,-0.0196776
-0.00919753,-0.0175724
-0.00903612,-0.0219622
-0.0264511,-0.0131666
-0.0175649,0.00176685
0.00355755,0.00457115
0.0153488,0.000565403
0.0171611,-0.00261249
0.0310292,-0.0194251
0.0348903,-0.0158878
0.0276574,-9.65e-05
0.014406,0.014342
0.000198601,0.0221534
-0.011351,0.0361242
-0.00576479,0.0323935
-0.0124205,0.00781459
-0.0273784,0.03329
-0.00992361,0.0493623
-0.0018033,-0.0543787
-0.0138267,-0.0341777
-0.0025842,-0.0273752
0.00304186,-0.0154286
0.00965803,-0.00710896
0.0218069,-0.0137492
0.0228173,-0.0220518
0.0159163,-0.0189602
-0.00432852,-0.016231
-0.0172661,-0.00150807
-0.0216776,0.0142147
-0.0400509,0.00936984
-0.00486852,0.0137424
0.0270661,0.0117863
0.00756117,0.00298127
-0.00158263,0.00629771
-0.000243789,0.00114192
0.00775547,-0.0183827
0.00385262,-0.0192351
-0.00507009,0.0199649
0.00189775,0.0454937
0.0127137,0.0402091
0.0154822,0.0279678
0.0208375,-0.0300167
0.0187558,-0.0569026
-0.00870509,-0.0348782
-0.0372991,-0.0026554
-0.0579279,0.0143788
-0.0794592,0.0153299
-0.0709418,0.0211867
-0.018637,0.00755303
0.0388557,-0.0194118
0.0534505,-0.00828167
0.0285324,0.00979351
0.0210496,0.00363192
0.0294817,0.000195491
0.0179018,-0.0117641
0.00160856,-0.021927
-0.00577583,-0.00251993
0.00668025,-0.000122733
0.012393,-0.00662018
0.00937073,-0.0326419
0.0103248,-0.0432789
0.010043,-0.0135095
0.0143351,0.00738535
0.00103477,0.0348536
-0.0163679,0.0598691
-0.0325789,0.0453649
-0.0394258,0.0223823
-0.0275996,0.0186995
-0.00554101,-0.0296261
0.00185024,-0.0262909
0.0130646,0.00136509
0.0177657,0.00835057
0.00839561,-0.0202698
-0.0186715,-0.00661931
-0.0142099,0.0133997
-0.00330012,0.0114743
-0.00448302,-0.0345755
0.0124344,-0.01478
0.0217456,0.00195693
0.0459713,0.00114733
0.0544391,0.0107434
0.011208,0.00943652
-0.03141,-0.00138378
-0.034294,0.00130648
-0.0258444,-0.00419599
0.00803498,-0.0128849
0.0169485,0.00359945
0.00188513,0.0256087
-0.00982673,0.011652
0.0051802,-0.0235608
0.0154294,-0.0194021
0.00621733,-0.000970885
0.0158828,0.00874222
0.032384,0.00442706
0.0250004,0.00602574
0.0089593,0.0250187
-0.01122,0.0100218
-0.0104342,-0.00280807
-0.0089707,-0.00156838
-0.0106791,-0.00260226
-0.00473229,0.0140605
-0.00626381,-0.00566286
-0.0101605,-0.0352614
-0.0120086,-0.0164283
-0.0187564,0.0146048
-0.030713,0.0389647
-0.0282859,0.000816586
-0.0120214,-0.0309524
-0.00402851,-0.0251149
-0.00739456,-0.0350442
-0.0059908,-0.0145389
-0.00677333,0.0257571
-0.00773552,0.0355541
0.00152674,0.03403
0.00465049,0.00589493
0.00636107,-0.0114287
-0.00136346,0.00243079
0.00392304,0.01885
0.0142594,-0.00328657
0.00995893,-0.0487295
-0.0038725,-0.0296622
-0.000744542,-0.0146401
0.0216454,-0.0253555
0.0179849,0.0225991
0.0152933,0.0418904
0.0408334,0.0123535
0.0492661,0.0115462
0.0269994,0.0174313
-0.00554557,-0.00222829
-0.0297391,-0.0157954
-0.0254818,0.00681845
-0.0259137,0.00989183
-0.0391712,-0.00697929
-0.0452051,-0.0180588
-0.0301696,-0.0268346
-0.00795384,-0.0204901
0.00559706,-0.0142264
0.0316789,-0.0139568
0.0319609,0.00936961
-0.000211005,0.0389388
-0.0132153,0.039817
-0.0274679,0.0126696
-0.0407002,-0.0139673
-0.0425383,-0.0192008
-0.0376435,-0.0128837
-0.0708595,-0.00416024
-0.0362876,0.00402878
0.0224324,-0.0164273
0.0397886,-0.0155521
0.0178769,0.00238046
0.021501,0.0333299
0.0396084,0.041191
0.0669416,-0.00528141
0.0604012,0.0198009
0.049532,0.0221345
0.109339,-0.00256886
0.0954643,0.0234271
0.0350427,0.011399
0.0195575,-0.0197603
0.00462605,-0.0198811
-0.00408598,-0.0178533
-0.0188947,-0.0196701
-0.0292598,-0.0281987
-0.0205102,-0.0419188
-0.020438,-0.000684515
-0.0299685,0.00812618
-0.0420006,-0.00788499
-0.0420407,-0.00817454
-0.0505598,-0.00833455
-0.0694345,0.0110764
-0.0891283,0.052813
-0.0974863,0.0659052
-0.101226,0.071223
-0.0996551,0.0337998
-0.0201098,-0.0060825
0.113112,-0.00479596
0.143863,-0.0526366
0.0826026,-0.0800435
0.0926785,-0.0704115
0.0963835,-0.0337108
0.0332518,-0.000751132
0.0107043,0.00411074
0.0261538,0.011774
0.0444544,0.0302442
0.0137265,0.0169629
-0.0364124,0.023712
-0.0561377,0.062953
-0.0417988,0.0543073
-0.0138739,0.0223022
-0.000843618,0.000496388
8.84e-05,0.00671698
-0.00385044,-0.0496319
-0.0115241,-0.0717464
-0.0201518,-0.0380783
-0.0178821,-0.0253826
-0.0134664,-0.0122369
-0.00763432,0.00663833
0.00844123,-0.00395338
0.0167784,-0.0124638
0.0223009,-0.0115916
0.0224048,-0.0169227
0.0138785,-0.0209064
0.00263737,0.00333091
-0.0177673,0.0193311
-0.034519,0.0277951
-0.0250173,0.0140861
-0.0251266,0.00825306
-0.0307413,0.0224844
-0.0281749,0.0308549
-0.0238746,-0.00745572
-0.0204619,-0.0252971
-0.0109419,-0.0195262
-0.00781068,-0.00128372
-0.0029274,0.0137776
0.0130045,0.00858114
0.016405,-0.0059396
0.019147,-0.0226596
0.0313758,-0.0343216
0.0277153,-0.0250251
0.0212388,0.00554471
0.0150767,0.0379275
0.0103618,0.0458835
-0.00154918,0.0414826
-0.0227601,0.0257554
-0.0262461,0.00548564
-0.0327201,-0.00598729
-0.0282467,-0.0447853
-0.00134935,-0.000733663
0.00287294,0.012443
-0.0063038,0.0341268
-0.00820157,0.0142937
-0.00692011,-0.0376593
-0.00707881,-0.033184
-0.0161301,-0.00189026
-0.0109312,0.0457864
0.0172045,0.0235811
0.0225552,-0.000489426
0.0359898,-0.0221618
0.0373428,-0.0312228
0.0235823,-0.0174234
0.0390688,0.0163021
0.136177,0.0485872
0.18908,-0.0170891
0.156781,-0.0326742
0.104765,-0.00702019
0.000253228,0.00496611
-0.133018,0.0255642
-0.207981,0.002043
-0.146408,-0.0164814
-0.111556,0.000436983
-0.121214,0.0156066
-0.0729027,0.00598011
-0.0382916,-0.0366747
-0.00168915,-0.0218802
0.011171,-0.000703472
-0.0275527,0.0102447
-0.000935535,0.00158816
0.0466193,-0.00737561
0.0225045,-0.0400483
0.0213701,-0.0207212
0.00933241,-0.0181816
-0.000919691,-0.019284
0.0177576,0.0200608
0.0429606,0.0360473
0.0310303,0.0178908
0.0110164,0.0177405
0.0222265,-0.00375132
0.0348464,-0.013251
0.026797,-0.00961608
0.00414339,0.00913768
-0.0117651,0.0181584
-0.0210391,0.0127105
-0.00306091,0.0124654
0.022128,0.00850869
0.00793666,-0.00995368
-0.0092251,-0.00504542
-0.010884,-0.00426071
-0.0142148,0.00172099
-0.0132382,0.00133733
-0.00770156,0.00594743
0.00297717,0.0205524
0.01949,0.0099992
0.00905855,0.00559961
-0.0124076,-0.00264169
0.0291083,-0.0215753
0.071282,-0.0236291
0.0678435,-0.00446457
0.039525,0.0244305
-0.0126906,0.0376766
-0.0633915,0.0186026
-0.0790774,-0.0259852
-0.074865,-0.0220938
-0.0748508,0.00773188
-0.0498411,0.0173639
-0.0111935,-0.0334701
0.00331264,-0.0549654
0.00119022,-0.0319909
-0.00308748,0.00232892
0.0632666,-0.00625704
0.0890239,-0.00482949
0.0523136,0.0198468
0.0338365,-0.00131215
0.0175549,0.00913892
-0.0187492,0.0447275
-0.0181471,0.0469818
0.0192014,0.000909482
0.0494358,-0.0293701
0.0252905,-0.002403
-0.0342735,0.0143377
-0.0896466,-0.00405018
-0.123518,-0.0376406
-0.102661,-0.0353128
-0.0101807,0.0187869
0.0711073,0.0223423
0.054293,0.01916
0.044076,0.0313621
0.0611808,0.0117706
0.0723086,0.0030771
0.0521369,-0.00303922
-0.00499785,-0.0110445
-0.0275224,-0.0562908
-0.0257371,-0.00948829
-0.0107664,0.00803401
0.0161038,0.00927636
0.0201967,0.00547969
-0.036238,0.006264
-0.046558,0.00148958
-6.16e-05,0.00832459
-0.013347,0.00793258
-0.038388,0.00785751
0.0180467,-0.0150874
0.0376616,-0.0203134
-0.0164339,0.0213605
-0.0611525,0.0469119
-0.0305972,0.0165345
0.00535436,-0.00568067
-0.0213008,-0.0233044
0.0270029,-0.023272
0.0426229,-0.0214314
-0.00865894,-0.00293461
-0.0954304,0.0396391
-0.0765485,0.0302286
-0.0207559,-0.0234916
0.0224777,-0.0325911
0.0498339,-0.0160344
0.0340741,-0.0173391
0.00609251,0.0158258
-0.000718391,0.0491844
0.00742363,0.0335135
-0.0193172,0.00836761
-0.0755104,0.00735797
-0.0373514,-0.0263402
0.0643464,-0.0376915
0.0989607,-0.0159266
0.0434097,0.0067867
0.0594146,-0.02701
0.0444604,-0.0452225
0.00767034,-0.0198504
-0.0234041,-0.00831494
-0.0310399,-0.0100327
-0.0218247,0.00923504
-0.0286118,0.0189393
-0.0162397,0.0144253
0.00158531,0.0230214
0.0179531,0.0134863
0.0184915,-0.00533439
0.0144033,0.00245571
0.0329214,-0.00833833
0.0205818,0.00295871
-0.0011707,0.014312
-0.0120481,0.00780212
-0.00556488,-0.0259348
-0.012282,-0.0144626
-0.0164413,0.00983862
-0.00801409,0.0126987
-0.000620143,-0.00824833
-0.00255399,-0.00398157
0.00105592,0.018382
0.0123927,0.0149704
0.021781,0.00530943
-0.00100212,0.0031088
-0.0116787,-0.0328493
-0.0208749,-0.0207907
-0.0312586,0.0823389
-0.0131823,0.0430181
-0.0453652,-0.0455714
-0.0773715,-0.0320949
-0.0386039,-0.00530329
0.0106651,0.00669102
0.0365505,-0.00661785
0.0322193,-0.0040889
0.00714553,0.00662229
-0.00636098,0.00316186
-0.0362129,0.0161182
-0.0555085,0.0246689
-0.0278471,-0.00571784
0.0292036,-0.0211693
0.0611502,0.00763753
0.0785127,0.0102268
0.113881,-0.00637388
0.0737395,-0.0211111
-0.00719486,-0.0303762
0.031408,-0.0375401
0.0577493,0.00163763
0.0343669,0.0520001
0.00686187,0.0603944
0.00154091,-0.0214529
-0.0110175,-0.100703
-0.0339,-0.0250428
-0.0510475,0.0334208
-0.0471615,0.0187351
0.000880638,0.0140395
0.0273946,0.0600002
0.00423651,0.044727
-0.0226112,-0.0531134
-0.0147232,-0.0473129
-0.0220643,-0.021298
-0.0255396,-0.0188589
-0.0284538,-0.0143746
-0.0478088,-0.00729965
-0.0500191,0.0173742
-0.0356455,0.0369817
-0.0184738,0.0079423
0.0152325,-0.0239444
0.0602442,-0.00238775
0.0361372,-0.000535006
-0.062469,-0.0044269
-0.0321119,-0.0236059
0.0190513,-0.00766417
0.00169075,0.0843282
0.00381987,0.0609167
-0.0351417,0.0202181
0.00474513,0.0255248
0.0503781,0.00401443
0.00657545,-0.026499
-0.00726036,-0.0743939
-0.0472125,-0.00770324
-0.0479402,-0.000103585
0.0535767,-0.00590862
0.0566397,0.0135138
-0.00272348,0.0510294
-0.0184375,0.0518397
-0.00889413,0.0367003
0.0129008,-0.0309839
0.0250636,-0.0782978
0.000663414,-0.0964674
-0.0248058,-0.0406841
-0.0159113,0.0142204
-0.0012953,0.00788302
-0.0215541,0.0112469
-0.0205487,0.0271689
0.0281329,0.0233145
0.112597,-0.00523649
0.111158,-0.0376756
-0.00207266,0.0247108
-0.141553,0.0369067
-0.115167,0.0666592
0.0653163,0.0727734
0.177476,-0.0996683
0.235886,-0.0654367
0.119351,0.013621
-0.0546777,-0.0150391
-0.182757,0.0236157
-0.177886,0.0722596
-0.0936738,0.0523988
-0.0838128,-0.00801415
-0.0352254,-0.0465257
0.0112025,-0.0736363
0.106696,-0.057108
0.130194,-0.0421081
0.0463238,-0.00072487
0.00973618,0.035703
0.133957,0.0711117
0.228084,0.0230476
0.150193,-0.0123701
-0.0263663,-0.0338027
-0.250123,-0.0467417
-0.430134,-0.0232424
-0.388959,0.0190085
-0.232775,-0.00655219
-0.163527,0.0807588
-0.113335,0.0278225
0.124371,-0.0507993
0.297413,-0.0583176
0.195127,-0.027032
0.110323,0.00236474
0.138401,0.0777468
-0.0977572,0.0616106
-0.214675,-0.00858145
-0.117805,0.0431359
0.0621774,0.0157272
0.00233095,-0.0148263
0.223893,-0.052456
0.624581,-0.0508302
0.577198,-0.0220174
0.320792,-0.00896472
0.0354021,0.0259439
-0.195566,-0.0140852
-0.3531,-0.0216849
-0.366636,-0.00591276
-0.243095,0.0100927
-0.202434,-0.00950076
-0.172485,0.000307538
-0.134537,0.0492404
-0.071726,0.0284908
-0.0544428,-0.0225497
0.0165504,-0.0139868
0.0681078,0.00594988
0.0371573,-0.0168462
0.028543,-0.00748108
0.0786106,-0.00138485
0.202653,-0.000400895
0.269851,0.0269244
0.298594,0.0365234
0.258834,0.0517888
0.136907,0.0407931
-0.122584,0.00936719
-0.350274,-0.0173144
-0.483672,-0.0122821
-0.373091,-0.0251861
-0.115118,0.021474
0.059708,-0.00382507
0.141853,-0.0242909
0.117071,0.0418718
0.0629109,0.0605204
-0.0298714,-0.108752
-0.0973011,-0.129241
-0.0327391,-0.0318263
0.010093,-0.0108359
-0.0180719,-0.010153
-0.026726,0.0226208
0.0520494,0.105567
0.0403756,0.115548
0.0882421,0.0654722
0.18648,-0.0830907
0.132125,-0.110777
-0.00564487,-0.0605352
-0.050592,-0.000504946
-0.127308,0.0196018
-0.220295,0.00295669
-0.133894,0.015903
-0.0656631,0.0250565
-0.077531,0.0164867
-0.0384858,-0.0126266
-0.0580034,0.00635553
-0.00799115,0.0493215
0.171192,0.0370906
0.397024,-0.0328208
0.542893,-0.0367791
0.395819,0.0691045
0.0966548,0.070593
-0.106159,-0.0514741
0.0380799,-0.0627621
0.331278,-0.0750217
0.335463,0.017584
0.0975501,0.0371484
-0.240122,0.0271614
-0.567614,-0.0307357
-0.711287,-0.0351031
-0.570479,-0.0180187
-0.327446,0.00437988
-0.136598,0.0193674
-0.0447897,0.0477846
-0.0159504,-0.019939
-0.0682448,-0.0385473
-0.0966256,-0.00396984
-0.0766829,0.0175716
-0.0132141,-0.0300516
0.108425,-0.0238621
0.178189,-0.0278577
0.14055,0.00560058
0.200173,0.0405558
0.201062,0.0154906
0.182843,0.0133616
0.136523,0.0205328
0.0267409,0.0308232
-0.0118111,0.0189832
0.00943316,-0.0237973
0.0725819,0.00150784
0.126838,0.0615906
0.196966,0.0466215
0.226726,-0.042308
0.170161,-0.0333148
-0.0292514,-0.0596806
-0.25837,-0.0516251
-0.18832,-0.0666806
-0.147738,-0.0309152
-0.181012,0.0191794
-0.101581,0.0178944
-0.0225605,0.0093471
0.0529977,0.0135551
0.0443535,0.0181828
-0.00132846,0.0052224
-0.0228081,0.0244208
-0.0128124,0.0336332
0.0285977,0.0308107
0.000168412,0.0656905
-0.0504185,0.0579175
0.00495304,0.0242416
0.0370475,-0.0311559
0.054042,-0.0611167
0.0396879,-0.047217
0.0241306,-0.028851
-0.0139035,0.00402961
-0.0261863,0.0148244
0.0128114,-0.00306058
0.0375133,-0.0167369
0.0407607,-0.00893605
0.042323,-0.000312402
-0.00582157,-0.000175301
-0.0417345,-0.00883229
-0.0369523,-0.0150521
-0.0851779,-0.00117774
-0.128181,0.0266452
-0.0984517,0.0101207
0.0115983,-0.0289038
0.100196,-0.00931529
0.0720011,-0.0150223
0.100461,-0.000345491
0.0969863,-0.0213272
0.0535208,0.00528214
0.014243,0.0157344
0.00684958,0.00969164
0.00979561,0.00591915
-0.0420098,0.012455
-0.0695181,0.0137684
-0.101436,0.000909283
-0.197651,-0.00378127
-0.10854,-0.0133028
0.0127308,-0.00671277
-0.0445418,0.0869384
0.017973,0.0880428
0.0419879,0.0402082
0.0740255,-0.0245109
0.206289,-0.0711014
0.190004,0.0123865
0.0361315,0.0280513
-0.009837,0.0121285
0.002715,-0.0652027
0.0245566,-0.0685986
0.0335383,-0.0348775
0.012438,-0.027027
-0.00635145,-0.0306378
-0.0108946,-0.0241583
-0.021259,0.0213244
-0.0171006,0.0306012
0.0261723,0.0772756
0.0408587,0.055346
-0.0985652,0.0929631
-0.133635,-0.0319871
-0.0782387,-0.0573771
-0.0825451,-0.0485079
-0.0240337,-0.0156782
0.00820289,-0.00879967
-0.0122586,0.0167265
-0.0227697,0.044206
0.0119589,0.0142484
0.0750571,-0.0428171
0.102052,-0.0590878
0.0742628,-0.0257286
0.0551617,-0.0239058
0.0738826,-0.00410621
0.0209961,0.0144737
-0.124696,0.0256396
-0.219977,0.0303676
-0.224653,0.0345157
-0.1453,-2.09e-05
-0.00664469,-0.0152925
0.0295616,-0.0409039
0.0341833,0.00460069
0.0813553,0.0227989
0.0858077,0.0252333
0.0652252,0.00607387
0.0303841,-0.00200165
-0.0415418,-0.00598045
-0.00167496,-0.0535178
0.0203534,-0.0467943
0.00971093,0.00603599
0.0526675,0.00379369
0.103377,0.0655321
0.0949656,-0.0283291
0.0108504,-0.0613296
-0.0105106,-0.0133799
0.0128132,0.0460171
-0.0143933,0.0603571
-0.0518969,-0.0266295
-0.0586062,-0.0542538
-0.0552227,0.0153709
-0.0459907,0.0409292
-0.044975,0.026707
-0.010212,0.0189175
-0.00233451,-0.00402665
-0.0402045,-0.0261915
-0.0181989,-0.0211623
0.042281,0.00313985
0.0434152,0.00478922
0.0450121,-0.00182984
0.132104,0.0336182
0.196934,0.0218838
0.0827483,-0.00568766
-0.109972,-0.0143821
-0.185839,0.0191185
-0.0802612,0.0115087
0.0211891,-0.00894337
0.0972237,0.0118679
0.0574735,0.00264729
0.0151464,-0.000923514
0.00136251,-0.0288953
-0.019329,-0.0883723
-0.0256143,-0.0443961
-0.0258094,-0.0314714
-0.0276794,-0.0270459
-0.0178944,0.0205522
-0.0036122,0.0354434
-0.0222912,0.00643169
-0.0515146,-0.00573874
-0.0570388,-0.00508699
-0.0420885,-0.00454312
-0.0280953,0.00222219
-0.0124514,0.0213827
0.0239242,0.0341663
0.0441383,-0.00704629
0.0433181,-0.00220289
0.0273157,0.0493673
0.0386316,0.0671784
0.048045,-0.000414179
-0.00795543,0.0421724
-0.00999347,0.0305798
0.0583312,-0.00825704
0.0556549,0.0294784
-0.00322061,-0.0446836
-0.048234,-0.0355634
-0.091816,0.0123514
-0.15173,0.0531483
-0.12047,0.0482522
-0.0182388,-0.0569252
0.015681,-0.0612288
0.0361926,0.0571288
0.0298533,0.0165328
0.0418863,-0.0504923
0.07082,0.00233905
0.062106,0.0187111
0.0375971,-0.00787649
-0.000116473,-0.00874749
0.0491464,-0.0386671
0.0629256,-0.0431928
-0.00990989,-0.00833134
-0.0114145,0.0147966
-0.0013076,-0.00223639
-0.009084,-0.0307204
-0.00171961,-0.0170693
0.00940256,-0.0420444
0.00430954,-0.0214981
-0.0186689,-0.0129915
-0.0208438,0.000820209
0.0116838,0.00319668
0.0418196,0.00712878
0.0293429,0.0141477
0.0110755,0.00948629
-0.0198531,-0.00710525
-0.044574,0.00248784
-0.0606874,0.0327838
-0.0790048,0.0680164
-0.0419324,0.0312841
0.0132062,-0.0194284
0.0184489,-0.00579219
0.0132539,-0.0113854
0.0227583,-0.0285487
-0.00685468,-0.0132338
-0.0412866,0.0380676
-0.0580127,0.0288312
-0.0182531,0.0647371
0.059982,0.018753
0.104776,-0.0380517
0.0240743,-0.0202408
-0.0885515,0.0244553
-0.0831068,0.021258
-3.73e-05,-0.0216163
0.0119187,-0.00423934
0.0427261,-0.00370185
0.0337472,0.00700618
-0.0418164,0.0389153
-0.0345638,0.0683053
0.00987641,0.063516
0.0861024,-0.0394948
0.0643634,-0.0835433
0.0538625,-0.0296003
0.0722707,0.00956173
0.00961355,-0.0126311
-0.0618777,-0.0330352
-0.0748213,-0.0375828
-0.0308019,-0.0147259
0.0196899,-0.0186758
0.0262364,-0.0182627
0.0140991,-0.00950426
0.0173064,-0.00214222
0.0194009,0.00887339
0.00791873,0.0104309
-0.0051402,-0.00457478
-0.0113523,-0.0171712
-0.0237848,-0.0110019
-0.0492763,-0.00827269
-0.0648932,-0.0142626
-0.0522371,-0.0125785
-0.0164697,0.000676634
0.0128321,0.00772497
0.00247196,0.00543557
-0.015061,0.0213382
-0.0125415,0.011425
0.000161055,-0.0133049
0.000197253,0.0332567
0.0415514,0.0227606
0.108136,-0.016864
0.0448104,0.00796842
-0.0423386,0.00311582
-0.0171042,-0.0368169
-0.0195422,-0.0344544
-0.086927,0.0149129
-0.0278036,0.0327528
0.0436142,0.0350907
0.0295788,0.0400338
0.0587553,0.0609072
0.0772131,-0.0204181
0.0355441,-0.0285914
0.00184567,0.001973
-0.037538,0.00802147
-0.0581243,-0.0249495
-0.0356156,-0.037956
-0.0404248,-0.0113764
-0.0462112,0.00573727
0.0114215,0.00335665
0.0604998,0.00651236
0.0365198,0.0039196
0.00321888,-0.0125689
-0.0238989,0.00140959
-0.00603166,0.015534
0.0339277,-0.00609948
0.030327,-0.00142406
-0.0155075,0.00442839
-0.0344137,0.00596914
-0.0134714,0.00316536
0.00170891,-0.0167466
-0.0120427,-0.0409223
0.00180441,-0.036047
0.0336542,-0.0279693
0.0170477,-0.0122903
0.03439,0.00426939
0.0241772,0.00508422
0.016808,-0.00528147
-0.0257576,0.00215066
-0.0458208,0.014471
-0.0246963,0.0239457
-0.0248962,0.028094
-0.012778,0.0275435
0.0565076,0.0272256
0.0644854,-0.020465
0.0157919,-0.0169999
-0.00227693,0.0014035
0.010203,-0.0168683
0.0343003,-0.00985887
-0.00221115,0.014965
-0.104256,-0.00577014
-0.134389,0.011217
-0.0833461,0.000979174
0.00895429,0.00173965
0.0782221,0.0468569
0.072957,0.0503178
-0.0238932,-0.0266703
-0.104902,-0.00907189
-0.10286,0.000491295
-0.0683731,-0.0112492
-0.0155149,0.0205685
0.0331506,0.0285586
0.0320233,-0.00115004
0.0875442,-0.045391
0.123062,-0.0438849
0.0484747,-0.0107095
0.0733736,-0.0164484
0.113215,-0.0377303
0.0735954,-0.0040336
-0.0163205,0.021882
-0.0277536,0.0251699
-0.00565693,0.0326155
0.0327702,0.0141803
0.0136923,0.0404465
-0.0209013,0.0536307
-0.042152,-0.011285
-0.0556487,-0.0296273
-0.0458562,-0.00641367
0.00385864,0.00951207
-0.0408495,-0.0219861
-0.119608,0.0270481
-0.0761409,0.0433512
-0.0431032,-0.0582517
-0.0271217,-0.071068
0.0854134,-0.028307
0.0697734,0.00460352
0.0209191,0.00914145
-0.0105192,-0.0148398
-0.0097056,-0.0380535
0.028093,-0.0207418
0.01693,0.0329455
-0.00264805,0.0303257
0.0273174,0.0120912
0.0540512,0.00530289
0.0678187,-0.00481423
-0.00526234,0.0204067
-0.0623442,0.0306896
-0.0647845,-0.0129269
-0.0732022,-0.0119856
-0.0806653,0.00426834
-0.0813986,0.00243837
-0.00989552,0.0406579
0.148971,0.0281457
0.115888,0.00588986
0.00792465,-0.000394039
0.00850885,-0.0516068
0.0310881,-0.0481722
0.00440041,0.000825179
0.0014547,-0.023948
-0.0227121,0.00960267
-0.0675745,0.0183735
-0.0850841,0.00621174
-0.111599,0.05476
-0.0065837,0.0564676
0.151599,0.00250733
0.118764,0.0104841
0.0602564,-0.0271064
0.0455263,-0.0549471
-0.0329203,-0.0321428
-0.0561391,-0.0132625
0.0227249,-0.00617576
0.0424844,-0.0152918
0.000519348,-0.00716948
-0.0460356,0.00801553
-0.173848,0.00688109
-0.141049,0.00297735
-0.0836352,-0.00172616
-0.0748428,0.00700058
0.0299642,0.0638219
0.0917594,0.0356577
0.115516,-0.0271135
0.111664,-0.0463495
0.029391,-0.0103167
0.0285552,0.0346979
0.0785003,0.0416718
0.0175208,0.0426916
-0.10802,-0.0245727
-0.0986668,-0.044252
0.020522,-0.0219339
0.0547746,-0.0354025
0.0729292,-0.000749897
0.0848827,-0.00435072
0.036328,-0.00324314
0.0199305,0.00784244
0.0249144,-0.0132818
0.0186803,-0.00761092
-0.0655606,0.0145982
-0.117482,-0.00489415
-0.0723699,-0.00182788
-0.0335915,0.0185061
-0.00412488,0.0614329
0.0222438,0.000548538
0.0204935,-0.0161753
0.0196253,-0.0028239
0.00869303,-0.0449097
-0.0389908,-0.0244323
-0.0163914,-0.0146182
-0.0701584,-0.0154539
-0.0763511,-0.00604704
0.0176409,0.0172034
0.0469412,0.022124
0.0533953,0.0192688
0.0723147,0.0103366
0.0786653,0.00342352
0.053219,0.00580448
-0.0014975,-0.0162864
-0.0392915,-0.0241499
-0.0330032,-0.0227936
-0.0198921,0.0305253
-0.0380691,0.0549759
-0.0206149,0.0145384
-0.00787116,-0.0307069
-0.0679262,-0.0247044
-0.0449633,-0.0138176
0.0293457,-0.0321615
0.014802,-0.0016545
0.045799,0.0194906
0.0655945,0.0302568
0.0376198,0.0340592
0.0343462,0.0615391
0.0363753,0.0319682
-0.000245133,-0.0592826
-0.0199409,-0.0425512
-0.0678554,-0.00292727
-0.0879088,-0.003153
-0.0505799,0.00378711
-0.0308124,0.0197655
-0.0174804,-0.0010394
0.038409,-0.0447645
0.0627301,-0.0283291
0.0361405,-0.0148284
0.0258795,-0.0159989
0.0300238,0.00890492
0.0141879,0.0419769
0.0290164,0.0174901
0.0249383,0.00563491
0.0205554,0.00195734
-0.0436351,-0.0223398
-0.1221,-0.0352776
-0.0891516,0.00320332
-0.00657629,-0.00805775
0.0130991,-0.0237669
0.0227274,0.00106637
0.0492043,0.00607897
0.0512223,-0.0050178
0.0513986,0.0262362
0.052941,0.00562244
0.0217928,-0.0197283
-0.0244114,-0.00672432
-0.0394232,0.0240359
-0.0238519,0.0377353
0.00197701,0.0279296
0.0209853,0.00937034
-0.00444298,-0.0194141
-0.0453545,-0.0199852
-0.0516721,0.0271587
-0.07439,0.013206
-0.0341933,-0.0112161
0.0279393,-0.00208837
0.0531493,0.0204846
0.0805757,0.0167684
0.0646209,0.00916207
0.0273369,0.0455287
-0.0743574,0.0130999
-0.179291,-0.0526
-0.104995,-0.0248473
0.0110886,0.026784
0.0321285,0.0480678
0.0518876,-0.0233862
0.0588458,-0.0388577
0.010414,-0.00410954
-0.0112773,-0.0150167
-0.0581137,0.00788891
-0.0565207,-0.0342277
-0.000644969,-0.0713291
0.0467178,-0.0183729
0.099488,0.0123386
0.0851148,0.00282488
0.0580234,-0.0109535
0.0237844,-0.000397618
0.00220274,0.00684174
0.00916447,0.0261727
-0.00425331,-0.00258126
-0.0231697,0.0161495
0.00789236,-0.0236642
0.0146417,-0.0270886
0.00192457,-0.00813266
0.00692311,0.0037848
-0.00231177,0.00717889
-0.0509837,0.005408
-0.0703828,-0.00108876
-0.0641413,0.0169288
-0.0304977,0.0346296
0.0032406,0.0372916
0.0132425,0.0219429
-0.0379406,-0.0197776
-0.0213935,-0.037193
0.0580883,-0.012678
0.0773639,-0.031377
0.0539597,0.0164255
0.0656449,0.063319
0.0916041,0.0189424
0.0550244,0.00225468
0.0344087,0.0200149
-0.0741323,0.00899198
-0.179705,-0.0273445
-0.079013,-0.0217898
0.0123568,-0.0126252
-0.0139605,0.0552511
-0.0338047,0.11838
-0.0282469,-0.0488682
0.00130996,-0.0690132
0.0990086,0.0021345
0.0961389,0.00111671
0.0226257,-0.012719
-0.0789639,-0.0237276
-0.124099,-0.0161602
-0.111764,-0.00600606
-0.0472437,-0.00519761
0.0192564,0.00793514
0.0211464,0.031663
0.0385642,0.00184027
0.0534466,-0.0292102
0.0384138,-0.00679052
0.030778,-0.0255702
0.0345312,-0.0169695
0.0367043,0.00225388
0.0377675,0.00699452
0.0255468,-7.33e-05
-0.00547555,-0.0101428
-0.0234913,0.0132576
-0.0299178,-0.000379568
-0.0209755,0.00461759
0.00574553,-0.000111525
-0.0358318,0.0572721
-0.0529754,0.0554857
-0.0257021,-0.0257762
0.0315821,-0.0113701
0.0536935,-0.00487845
0.0154333,-0.0117699
-0.0257213,-0.00773471
0.0033776,-0.00925817
0.0425619,-0.0427232
0.0407618,-0.0193441
0.0307295,-0.00708744
-0.00881121,-0.0141854
-0.0500908,-0.00935135
-0.0547332,0.00238306
-0.0415458,-0.00258181
-0.00505419,0.00653809
0.0206616,0.0233184
0.00095818,0.0176528
-0.0344339,0.0179216
-0.0565215,0.0127267
-0.0253373,-0.0108695
0.0249215,-0.020054
0.0619968,-0.00263172
0.0657065,-0.00926747
0.0579756,-0.00869954
0.044159,0.0145678
0.0390252,0.0134418
0.00647671,-0.000142041
-0.0365141,-0.00186887
-0.0525912,-0.00588001
-0.0316271,-0.0166023
-0.0148082,-0.00994009
0.00768967,0.019783
0.0124405,0.0301424
-0.0035678,0.0168398
-0.013116,0.032202
-0.00936502,0.0129789
-0.0107678,-0.0231817
-0.0118074,-0.000835286
-0.00383334,-0.0116592
0.00672548,-0.019298
0.00521917,-0.0114615
0.0285862,0.0147373
0.058924,0.0147902
0.00919631,0.0225031
-0.0289566,0.0431817
-0.0709513,-0.0137396
-0.116298,0.00606021
-0.0763707,0.0329225
0.0401474,-0.000476533
0.0916761,-0.0688476
0.0321144,-0.0549248
-0.00347115,0.0226308
0.0829025,-0.02274
0.0729509,-0.026835
0.00449058,0.00202279
-0.00975233,0.00612121
-0.0334613,-0.0017282
-0.0276653,0.00281593
-0.0616157,0.0344778
-0.061331,0.00795545
0.00616673,-0.00252645
0.0133893,-0.0208605
0.00928977,-0.0269105
0.0379765,0.0596722
0.0614544,0.0441926
-0.00317829,-0.0699921
-0.0664341,-0.0471003
-0.0508019,-0.010139
-0.0186774,-0.0048593
0.00637526,-0.0144558
0.00645867,-0.00631258
0.0165155,0.00712986
0.0307212,0.00435565
0.0174337,0.0164181
0.0467756,0.0182757
0.0209546,0.0094381
-0.0162245,0.0110965
-0.0130238,0.0126234
-0.00718409,-0.0025327
0.017404,-0.0207021
0.0434873,-0.0149761
0.0289315,0.0155724
0.00689749,0.0361567
-0.0156119,0.0142219
-0.0753575,0.00615336
-0.105677,0.0231621
-0.0808123,0.0288674
0.00538616,0.00996502
0.103641,-0.0264628
0.0543254,-0.033551
-0.0161232,0.0155277
-0.0127025,0.00442331
-0.00722295,-0.0150514
0.000630301,-0.00866799
0.0117251,0.0557073
0.0649405,0.0176202
0.0013783,-0.0664577
-0.0120966,-0.0658818
-0.00375469,-0.00778588
-0.0334176,0.00437755
-0.00742262,-0.0282043
0.00781881,-0.0281509
-0.0406898,0.000748431
-0.0509342,0.0082714
-0.0569542,0.00758872
-0.0400014,0.0242803
0.0366864,0.053145
0.0461234,0.0373214
0.0591059,-0.0104652
0.073488,0.00143265
0.0373168,0.0254502
0.0111538,-0.011211
0.0340783,-0.0526699
0.0422197,-0.0512213
0.00483517,-0.00737164
-0.0460497,-0.00490063
-0.0499386,0.0196594
-0.0135059,0.0207358
-0.00896065,-0.00396257
-0.0345699,0.00668267
-0.0159233,0.00566904
-0.0114794,0.0126205
0.0423963,0.00188683
0.0144355,-0.00861643
-0.0226962,-0.0183074
-0.0182531,-0.0150933
-0.0498654,0.0267255
-0.0454901,0.034639
-0.0160061,0.0468619
0.0431227,0.00268836
0.0850793,-0.030558
0.0643844,0.022411
0.078561,0.014368
0.0833527,-0.00315332
-0.00443158,-0.0290923
-0.0900279,-0.0345385
-0.104921,-0.0121958
-0.0654761,-0.00646461
-0.0336517,-0.00937288
0.0197614,-0.0010798
0.0240428,0.016896
0.00283253,0.0153484
-0.0156334,0.0136095
-0.0166172,-0.00232115
-0.00590812,-0.016805
-0.00258894,-0.00836128
0.00904551,-0.00439854
0.00047958,-0.00981548
-0.00617885,0.00849256
0.00784246,0.00802151
0.00291834,-0.00725706
0.00876991,-0.0034354
0.0210804,0.00728165
0.0225879,-0.00465706
0.0201192,-0.0150368
0.0127019,-0.00266515
-0.00869067,0.00820136
-0.0178247,0.0228083
0.00604669,0.0388394
0.00873382,0.0333776
-0.0407995,0.00487676
-0.0593516,-0.0281851
-0.0436281,0.0242835
-0.0187146,0.0405906
0.0611613,-0.0457401
0.0679399,-0.0829974
0.0499387,-0.04418
0.0207959,-1.76e-05
-0.00378436,0.00640026
0.0116894,0.0175971
0.0747557,0.0218344
0.103509,-0.00354129
0.0428102,0.00719424
-0.0764865,0.0272607
-0.199718,0.00681046
-0.161604,0.0188682
-0.096752,0.0500345
-0.0837622,0.0267312
-0.0370382,0.0228464
0.0963694,0.00873643
0.112139,-0.0460501
0.0332138,-0.0396391
-0.024722,-0.0331067
-0.0254887,-0.0555036
-0.00474419,-0.0111712
0.0402513,0.00632342
0.120424,-0.00574231
0.119598,-0.00926145
0.0503766,-0.0010052
-0.0184321,0.000377562
-0.0720327,1.12e-05
-0.0518617,-0.00550779
-0.0151797,-0.00232063
-0.00231957,0.0072928
0.00927945,0.0134919
0.0240421,-0.0198418
0.0194244,-0.0252376
0.00945044,-0.00668216
-0.00145308,0.0146625
-0.00112153,0.0183415
0.00650583,0.0110155
0.0203275,0.004039
0.0266482,0.00368193
0.0163233,0.00329907
-0.00157313,0.00833869
-0.0166848,0.0134066
-0.0138104,0.0119788
-0.0128319,0.0193029
-0.0268181,0.0175085
-0.0357339,-0.00273528
-0.041074,-0.00337452
-0.0402164,0.0187446
-0.0167546,-0.0259857
0.00949876,-0.0304817
0.00921056,-0.00589378
0.00387071,0.0168309
0.00515028,0.0108584
0.0219955,-0.0052152
0.0322263,0.000199717
0.0358381,0.00811025
0.0290894,0.00413431
0.00893621,-0.00771701
-0.00652046,-0.0232583
-0.00749788,-0.0117937
0.00678776,0.010089
0.00755962,0.0167391
0.012856,0.000549586
0.0291323,-0.00377043
0.0142283,-0.0120348
-0.0154569,-0.0188811
-0.0617608,0.00374444
-0.0822815,0.00165261
-0.061482,-0.00653401
-0.0275022,-0.00879741
-0.0361138,-0.0105185
-0.0146941,-0.00730658
-0.00156722,0.00413078
0.0280059,0.0238391
0.0755844,0.00822969
0.0783381,-0.0130195
0.045616,-0.00460186
-0.0209414,-0.00273194
-0.0592979,-0.00685226
-0.0596223,-0.00190179
-0.0688331,0.0121701
-0.0046125,0.013686
0.0258096,0.00632719
-0.0785992,0.0464695
-0.0864994,0.0786793
0.0473303,0.0744333
0.138287,-0.0146726
0.128025,-0.0860707
-0.00577279,-0.0644493
0.0029528,-0.0409299
0.0457379,-0.0175082
-0.0120699,-0.0055893
-0.00686819,-0.00129887
0.0310628,0.0200087
0.0250192,0.0223519
0.0159912,0.0016833
0.0140777,-0.0121774
0.00700545,-0.0230605
-0.0156427,-0.0102625
-0.0156869,0.0192257
-0.010504,0.0106192
-0.00900624,-0.0137018
-0.00895007,-0.000969557
0.0106137,0.0331607
0.00404544,0.0521579
-0.0414751,0.00240213
-0.0605696,-0.0352877
-0.0696316,-0.0242612
-0.0338616,0.0201805
0.016448,0.0147669
0.0359331,-0.00825755
0.00324659,-0.00874689
0.0145018,-0.00627291
0.0324943,-0.00716843
0.0237635,-2.11e-06
0.0223169,-0.00396752
0.0407804,-0.014053
0.0170118,-0.00736953
-0.0332264,0.0174549
-0.0141413,0.00773087
-0.0126871,0.00899252
-0.0539547,0.0260555
-0.0380896,0.0295873
-0.0167944,0.0259327
-0.00444395,-0.0223567
0.0169549,-0.0112668
-0.00629313,-0.0148043
-0.0308438,-0.00712984
-0.0225987,-0.0135559
0.0320215,-0.0173349
0.025442,-0.00858693
0.0279848,-0.0159732
0.0463381,-0.0250668
0.0468623,-0.02486
0.0536941,-0.00262807
0.0374581,0.0173939
0.0490355,0.00529302
0.0308773,-0.00019579
-0.150974,0.0270344
-0.186311,0.0443809
-0.0282322,0.00732174
0.00325532,0.0185505
-0.0437258,-0.0189766
-0.00439052,-0.0378603
0.0952962,-0.000286192
0.116444,0.0192097
0.0409106,-0.038921
-0.0339416,-0.0442494
-0.0317689,0.019931
0.0309387,0.0381031
0.0794037,-0.0321356
0.0593726,-0.0334145
-0.0145297,-0.000766415
-0.0561267,0.0443045
-0.008821,0.030935
0.0241221,-3.17e-05
-0.0177169,0.017797
-0.0625228,-0.0262254
-0.0788856,0.0241545
-0.0446338,-0.00343063
-0.0212121,0.0440187
0.0209056,-0.0163768
0.0391675,-0.029456
-0.00444087,-0.00702178
-0.0351668,-0.00448081
-0.00953977,-0.0198008
0.0275377,-0.00674108
0.0796862,0.0329663
0.0379582,0.041615
-0.0296565,0.00988368
-0.026738,-0.0250118
-0.0176318,-0.0328357
-0.0293118,-0.0295406
-0.0205637,-0.0182929
-0.0142312,0.0108961
0.0125499,0.00476662
0.0601796,-0.0257175
0.0573425,0.0293383
0.0425793,0.0538243
-0.0142987,0.0314185
-0.0522467,0.00549118
-0.028722,0.00430861
0.0158446,-0.050214
0.0171862,-0.0378259
0.0116883,-0.00684315
-0.0267535,-0.00233111
-0.0731394,0.00280971
-0.0356166,0.0078891
0.0135835,-0.0085882
0.055322,-0.023227
0.0356823,-5.04e-05
-0.00896751,0.0138417
0.000458935,0.0204979
-0.0358478,0.0189313
-0.0306183,0.0379668
0.00487591,0.0243937
0.041017,-0.011565
0.104387,-0.0230567
0.0725025,-0.0359617
0.0406236,-0.00661475
-0.0205505,0.0269807
-0.0952731,0.0262586
-0.110596,0.0256741
-0.0559116,0.00947251
0.00343342,-0.0207909
0.0332953,-0.0028556
0.0135861,-0.0192141
0.00212218,-0.0158011
0.00519661,-0.0198681
-0.0215338,0.0311421
0.0246426,0.00764689
0.0419336,-0.0535217
-0.0196358,-0.0284083
0.00630693,0.00640999
0.0495474,0.0162746
0.0296025,0.0385812
0.017664,0.0577065
-0.00137951,0.0531021
-0.0125127,-0.0351793
0.00278376,-0.0677263
0.0537078,-0.0781592
0.0786173,-0.0472269
-0.00634691,0.0206308
-0.122973,0.0472865
-0.182866,0.0173338
-0.120685,0.00652361
-0.0245957,-0.0127003
-0.00773235,0.00460071
0.00615685,-0.01228
0.0466899,0.0117499
0.0188728,0.00548273
0.0374872,0.00826252
0.0741404,0.0672037
0.0356012,0.0145707
0.0360105,-0.0173517
0.0330021,-0.0192549
-0.0703701,0.0069276
-0.088343,-0.0171261
-0.00203137,-0.0155704
0.0614762,-0.00376757
0.0536187,-0.0166759
0.0553518,-0.0247735
0.0832495,0.00915454
0.0828512,0.0251731
-7.24e-05,-0.0148044
-0.0389583,-0.0337329
-0.0276932,-0.0182015
-0.0253596,0.0240896
-0.0213538,0.0361184
-0.0168599,0.0491478
-0.017787,0.0471966
0.0341622,-0.0170543
0.0157993,-0.0396686
-0.0876466,-0.00810471
-0.112,-0.00481076
-0.0165099,-0.0205215
0.0584826,0.0138815
0.0378961,0.0233318
0.0225357,-0.0336276
-0.0036704,-0.0250722
-0.0401675,-0.0240441
-0.0339546,-0.0253286
-0.00706247,0.00568669
0.000487231,0.03341
0.020206,0.0260031
-0.013646,0.0107779
-0.0536898,-0.00265288
-0.0118085,0.0141303
0.0388913,0.0380981
0.0699094,0.00606479
0.0156522,-0.00416345
-0.0226023,0.0203636
-0.0609366,0.0186282
-0.0407008,-0.00647255
0.0641478,-0.0259689
0.0858198,-0.0638305
0.0153805,-0.0302364
0.00209716,-0.0198081
0.0201658,0.00436411
0.00798194,0.00330965
-0.0282162,0.00746942
-0.0106389,0.0117065
-0.0145998,0.00327306
-0.0345285,-0.000626694
-0.0284426,0.0463545
-0.00492284,0.0428159
0.00668989,-0.0385796
0.0324632,-0.0139915
0.0349299,-0.0228056
0.031621,-0.0167598
0.022016,-0.00878546
-0.00543333,0.0217752
-0.0301793,0.0495723
-0.0480565,0.000734674
-0.064801,-0.024248
-0.0545916,0.00151703
-0.00464966,0.0358377
0.0542085,0.0155817
0.0909434,-0.0539725
0.0596359,-0.0313965
-0.0168876,-0.0219686
-0.0660296,-0.026241
-0.0653172,0.00101395
-0.00131082,0.0160907
0.101195,-0.000192085
0.130818,-0.0231259
0.0231333,-0.0118803
-0.0701466,0.011682
-0.0532965,0.0203729
-0.0204608,0.0753543
0.0105138,0.079677
0.0322593,-0.0390304
0.0149188,-0.080598
-0.0158067,-0.0303971
-0.0428062,-0.0144437
-0.0668892,0.00613685
-0.0653528,0.0258396
-0.0133178,0.0363888
0.00608997,0.0300628
0.0119952,0.0182563
0.0166913,-0.00961539
0.0233022,-0.000528585
0.0199997,-0.038693
0.0172379,-0.0465216
0.0119485,-0.0152775
-0.0300279,0.0560599
0.0142262,0.0915398
0.0321266,-0.0324641
0.00803887,-0.0990602
0.00769954,-0.0317067
0.0142899,0.0212359
-0.00963356,0.0136196
-0.0214146,-0.00135881
-0.00922672,0.0427744
-0.0181062,0.0384933
-0.00991448,-0.0184226
0.00254393,-0.00847304
0.023149,0.0100014
0.0414918,0.00979212
0.000919688,0.0109095
-0.0236192,0.012445
0.00342113,-0.0030826
0.000562164,-0.00658587
0.00794622,-0.00327248
0.00826801,-0.0116128
-0.0113811,-0.00174066
-0.0503915,-0.00065844
-0.00970794,0.00523531
-0.00477738,-0.0249713
-0.0167654,-0.036624
0.00526307,-0.000728468
0.0057635,0.00573704
0.00323028,-0.0102015
0.0076696,-0.0160367
0.00473334,0.00314119
0.0196246,0.00386315
-0.00718154,-0.0166978
0.00773414,0.0127676
0.0523981,0.0191625
0.010673,0.00154186
-0.0254027,0.00692903
-0.0164014,0.0210114
-0.033985,0.0146706
-0.0744785,-0.00569359
-0.0455555,-0.0147966
0.0116324,-0.0349071
0.0608451,-0.00118178
-0.00102309,0.0388199
-0.0330551,0.0320569
-0.0206723,-0.0209042
0.0229712,-0.0220681
0.0660705,0.0135062
0.0922856,0.000994383
0.0700351,0.00444274
-0.0136909,0.0241833
-0.0613138,0.0590563
-0.0385229,0.048725
0.0191273,-0.0592351
-0.00141661,-0.0645454
-0.0470752,-0.0294359
-0.0441419,-0.00403973
0.0129343,0.0144694
0.0450645,0.0124696
0.0147141,-0.0387722
-0.0261994,-0.0258287
-0.0390331,0.00659397
0.0133202,0.0259115
0.0379686,0.0312744
-0.00839007,0.0220415
-0.0187028,0.0321325
0.00781616,-0.0268625
0.0338848,-0.0391158
0.0190966,-0.0154767
-0.01447,-0.0181015
-0.0158102,-0.00690518
0.00342846,0.000562847
0.0343742,0.00767124
0.044746,-0.0115664
0.0117174,-0.0301838
-0.0305808,0.00356286
-0.0479621,0.0581777
-0.0161025,0.0790463
0.0581687,0.0344948
0.0627288,-0.00928357
0.000413927,-0.0350919
-0.0531848,-0.0506647
-0.0467439,-0.0215319
-0.0166162,-0.00545053
-0.0128707,0.0176745
-0.0289371,0.0227989
-0.0276506,-0.015823
-0.0138131,-0.0266449
0.00809776,-0.00256793
0.0349602,0.00889963
0.0476056,-0.00605019
0.0155703,-0.0151424
-0.00683777,0.00159469
-0.00746777,0.0104098
-0.0288864,-0.00943417
-0.0595508,-0.0163524
-0.0402666,0.0222578
0.00978202,0.0440594
0.0565728,0.0488245
0.0609736,0.0115294
0.0321557,-0.0553664
-0.0138481,-0.0321909
-0.0332079,0.0119237
-0.0105572,0.0175938
-0.0061002,0.00232649
-0.00333009,-0.0140762
0.0113434,-0.0241021
0.00529363,-0.0190034
-0.0105137,-0.010066
-0.0272538,-0.0022363
-0.000914762,0.00133459
0.0103286,0.00986793
-0.00166206,0.0184596
0.00566308,0.00696075
0.00370733,0.00688153
0.0291962,-0.00292239
0.0317594,-0.000619133
0.00353732,0.0073329
-0.0163297,0.0091666
-0.0309084,0.0161657
0.0146264,0.0210032
-0.00255852,0.0258092
-0.0305695,0.027606
-0.0403501,-0.00622804
-0.035699,-0.0112246
0.0350553,-0.00546817
0.0527086,-0.0084517
0.00171906,-0.00370185
-0.00633747,-0.00768269
0.0221011,0.0105896
0.0406579,0.0109051
0.0232319,-0.0118496
0.0252562,-0.0317462
0.0164306,-0.00448271
-0.0559765,0.00926376
-0.0505199,0.000282497
-0.0309292,0.0258475
-0.00396263,0.00141757
-0.000637389,-0.0843801
-0.0280244,-0.0548846
0.00604055,-0.012769
0.010302,-0.000977619
-0.0068807,0.0126437
0.0482384,0.00423055
0.0909003,0.00908855
0.057034,-0.0152793
-0.0154559,0.0239446
-0.0328539,0.0805871
-0.0107804,-0.0442616
-0.00849851,-0.0207692
-0.00189678,0.0153052
0.0290529,-0.0202593
-0.0581375,0.011319
-0.109719,0.0189309
-0.10121,-0.00161878
-0.0854089,0.0138297
-0.0076261,0.00381358
0.0357973,-0.0263378
0.0190997,-0.0207788
-0.0131568,0.00989766
0.0336052,0.012163
0.0947302,-0.00780333
0.0894935,0.0134455
0.0644647,-0.00888954
0.0284551,-0.0246612
-0.00951367,-0.00222893
-0.0155216,0.0504873
-0.000732917,0.00935662
-0.0037664,-0.0249649
-0.00842655,0.00556214
-0.00102425,0.0180041
0.00176419,-0.00621179
0.00235003,-0.0110048
0.0198749,0.0117514
0.00689414,0.0422401
-0.0280632,-0.0187522
-0.0338981,-0.0390798
-0.0266382,0.00201051
-0.0210475,0.00351726
-0.0195771,-0.00255263
-0.0116269,-0.006713
0.00365889,-0.00866634
0.008777,-0.00380871
0.00921292,0.00599898
0.00999993,0.00312143
0.0224285,0.00277459
0.0433577,0.0110456
0.0340696,0.00479907
0.0249535,-0.0068381
0.0244647,-0.0223053
-0.0018666,-0.0221254
-0.022736,0.0191684
-0.0324762,-0.000328142
-0.0627879,0.0161511
-0.0608268,0.0507593
-0.0822052,0.0403056
-0.0800461,0.0277033
-0.0621713,0.0348592
-0.0305692,0.0275345
0.0560629,-0.00309941
0.13317,-0.0517729
0.14191,-0.0386569
0.0651228,-0.0212077
0.00953347,-0.0140909
-0.0135468,0.0164637
-0.0152466,-0.00589232
0.0325558,-0.00462031
0.0453756,-0.0224366
-0.0339262,-0.0143473
-0.0773902,-0.00122792
-0.0473285,0.00360849
-0.0138416,-0.0182853
-0.020081,-0.0161777
0.0154241,0.00749529
0.0348448,0.00591874
0.00608788,-0.0151832
-0.0315007,-0.00480059
-0.0391173,0.00257354
-0.026404,0.010661
0.00254467,0.0197898
0.024455,0.0116487
0.0247838,-0.00403275
0.0128865,-0.00831093
0.00713838,-0.00238173
0.00796167,-0.00353761
0.0136669,-0.00561765
0.0169034,0.0081312
0.0141034,0.00196174
0.00959622,0.0023525
0.00219919,0.0073876
-0.00227418,0.0142113
0.00889784,0.00365394
0.0086771,-0.0197087
-0.00110312,-0.00920836
-0.0111228,-0.00417897
-0.00899949,0.00806788
-0.00230068,0.0114223
-0.0130739,-0.0044944
-0.0231017,-0.0145267
-0.0139473,0.0089767
-0.00105395,0.00330426
-0.0249839,-0.0132904
-0.0339047,0.00320715
-0.0286023,0.0460338
-0.0323361,0.0920701
-0.00650561,0.000817044
0.0627479,-0.0836852
0.116453,-0.0550489
0.0847828,-0.0187682
-0.00694048,-0.0223341
-0.0493892,-0.0202488
-0.0480671,0.00330991
-0.0300371,0.0256841
0.0136328,0.0212144
0.0170297,0.00878427
0.00258427,0.0267742
-0.000727962,0.0306379
-0.00201173,-0.0188597
-0.0118619,-0.0214558
-0.0239427,0.0236515
-0.0126419,-0.00776668
-0.00647934,-0.0623776
-0.00101598,-0.0253255
-0.00555808,0.0404161
-0.00118955,0.0271202
0.00802916,-0.025178
0.00891702,-0.00445655
0.00393119,0.00611352
-0.00194975,0.00336951
-0.00597491,0.00591943
0.00601613,0.0066494
0.0157153,-0.00112875
0.0129669,-0.00399434
0.00688372,-0.00745732
0.00119472,-0.0208773
-0.00321388,-0.025207
-0.00332149,-0.00538567
0.00314741,0.0180533
0.00113902,0.016507
-0.0141037,0.013805
-0.0157167,0.0122216
-0.0286388,0.00149836
-0.042711,-0.00482515
-0.0262458,-0.00201024
-0.00392079,0.0168892
-0.00913568,0.0272493
-0.00666565,0.0217153
0.0302291,0.0131264
0.0642052,-0.00769161
0.0483754,0.01669
0.00245342,0.0303373
-0.0228991,-0.0456083
0.000942111,-0.0259834
-0.0226014,0.0552119
-0.0252391,-0.0350672
0.0288408,-0.0913523
0.0713823,-0.00801274
0.0178006,0.0220698
-0.0410626,0.0169934
-0.00530991,0.0144748
0.0171715,0.0648392
-0.0131709,0.0423133
-0.00718176,-0.0477201
0.0075074,-0.0396882
0.0121896,-0.0120393
0.00837296,-0.00619073
0.000950408,-0.0200428
-0.00744123,-0.0210101
-0.00570648,-0.0225635
-0.00401287,-0.0206192
-0.00722233,0.0102622
-0.00907188,0.0201256
-0.00689637,0.00309225
-0.00419212,0.00720383
-0.00206959,0.00533256
0.00818677,-0.0165823
0.00327451,-0.00762879
-0.00205656,0.00448448
8.97e-05,0.00145929
0.00730998,0.00606985
0.00916505,0.0258063
0.00464069,0.0136004
0.000613704,0.00243653
0.0051751,-0.000459534
0.0176508,-0.00846826
0.0235514,-0.00910082
0.0108227,0.00168372
-0.0237434,0.0239703
-0.0440655,0.0157752
-0.0321608,-0.0166883
-0.00109768,-0.00769614
0.0103676,-0.00737038
0.0101063,-0.00470624
0.00215774,0.0214592
-0.00859178,0.0255155
-0.0112702,0.0275022
-0.00558598,0.018237
0.00487023,0.0158209
0.00561911,-0.0275303
-0.00860139,-0.0390145
-0.00825548,-0.0176659
0.0115909,-0.0193192
0.0219786,-0.0100467
0.0193178,0.0050822
0.0109966,0.0011185
-0.0193911,0.0254227
-0.0433896,0.0293681
-0.0402599,0.0514649
-0.0151457,0.0012844
-0.00461549,-0.0251915
-0.00435093,-0.0567795
0.00549649,-0.025766
0.0191792,-0.00195619
0.0403621,0.0100413
0.0566004,0.0655712
0.0539715,-0.0152875
0.00227841,-0.0718383
-0.0417255,-0.0371932
-0.0297284,-0.0350774
-0.0037938,-0.020971
-0.00904845,0.0615687
-0.00849282,0.104874
-0.00726588,-0.021657
-0.00326916,-0.0365462
0.00891567,-0.0042148
0.0246138,-0.0158323
0.0455602,-0.00974639
0.0623686,0.00521129
0.052316,0.0216874
-0.0105691,0.00815174
-0.0822937,0.00293902
-0.112946,0.00713015
-0.04922,-0.00386019
0.0272387,0.000630106
0.02959,-0.00455095
0.00752805,-0.0253081
-0.049091,-0.00134012
-0.0761491,0.0182907
-0.0596123,0.0143942
-0.0626164,0.0190982
-0.0257136,-0.00250197
0.0537558,-0.0291406
0.0719905,-0.0218223
0.0236277,-0.00587477
0.0163279,1.25e-05
0.013815,0.00529138
0.0167195,0.00500783
0.0657825,0.0022846
0.0493214,0.0319684
0.0167861,0.0457281
0.00203062,-0.00112736
-0.0178352,-0.0309
0.010457,-0.0198408
0.060294,0.00980645
0.00769217,0.0714982
-0.0548511,0.0426008
-0.0674434,-0.0490452
-0.0183884,-0.0385766
0.0334336,-0.00748339
0.0470671,-0.025225
0.0040197,-0.0147999
-0.0206459,-0.0227235
-0.0113424,0.0168639
-0.00424588,0.0476268
0.0084115,-0.00671368
0.017576,-0.0236594
0.028707,0.0102298
0.0384639,0.00836735
0.0110576,-0.0106731
-0.017266,-0.0191281
-0.00951884,-0.0110274
0.0138972,-0.0162038
0.0189948,-0.00519478
-0.0215807,0.00853837
-0.0413645,-0.0285936
-0.0138574,-0.0273772
0.000913268,0.0390436
0.00765935,0.0426608
0.0307855,0.0319178
0.02954,0.0369802
0.022372,0.02361
-0.0267222,-0.0297301
-0.100078,-0.0366109
-0.0863084,0.0111007
-0.0244854,0.00807095
-0.00151042,-0.00788936
0.00686709,-0.0111753
0.017788,0.00425687
0.00360151,0.00631035
0.000285979,0.00553979
0.0136331,0.00216363
0.0100364,-0.00834006
-0.000177598,-0.010605
-5.27e-05,-0.0161105
0.00690504,-0.0230057
-0.0094733,-0.0205841
-0.0262042,0.0114379
-0.02353,0.0192238
0.0121227,-0.00479059
0.0257047,-0.00638395
0.0426788,0.00574812
0.0463069,0.0162817
0.0121424,-0.0312002
-0.00317326,-0.00886141
0.00472853,0.0278085
0.0224687,-0.00646145
-0.00941633,0.0264654
-0.0179619,0.047782
0.00539894,0.00962958
-7.14e-05,-0.0639223
-0.0354586,-0.0598876
-0.018207,-0.0122166
-0.0431006,0.020288
-0.0299455,0.033627
0.0205124,0.0110986
0.0389266,-0.0116016
0.028426,0.0235285
0.0419788,0.000769428
0.0693058,-0.00992479
0.040848,0.0415349
-0.0405894,0.0140766
-0.0659564,-0.0273398
-0.0393227,-0.0221135
-0.00230028,-0.00689647
0.00220335,0.0179385
0.00436438,0.005106
0.0081916,-0.0107566
-0.00663519,-0.00614869
-0.0234143,-0.00895195
-0.0488483,0.00348551
-0.0451146,0.0191288
-0.0178086,0.0187994
0.00547657,-0.0172381
0.0146287,-0.0325099
0.0176496,-0.0357504
0.0202876,-0.0266615
0.0182922,-0.00161031
0.0197643,0.016763
0.016958,0.021489
-0.0104206,0.0184729
-0.004731,0.024985
0.0319202,0.0136966
0.0350113,-0.030178
0.0142689,-0.00534667
-0.00127341,0.0168898
0.000363875,0.0243019
0.0370179,0.0248114
-0.00966315,0.0157207
-0.0171086,-0.0103269
0.00419484,-0.0294501
-0.0304371,-0.0201163
-0.0368677,-0.00486315
-0.0347886,-0.00514487
-0.0356916,0.00986112
-0.035047,-0.0181733
-0.022246,0.0690078
0.0124018,-0.0256521
0.0252579,-0.0433599
-0.00272339,0.0204071
-0.0135909,0.0292347
-0.0025229,-0.0267502
-0.0158704,-0.0142932
-0.0366225,0.00653556
-0.0245288,0.0180661
0.036045,0.0163917
0.0754835,-0.00468867
0.0610071,-0.0120582
0.0657919,-0.0175899
0.0231274,-0.0287225
-0.0254051,-0.0148198
0.013108,-0.00395785
0.0215375,0.0206508
0.00613313,0.000288586
0.0185948,0.014012
0.0271028,0.0116371
-0.0031654,-0.00531681
-0.0438047,-0.00390369
-0.0528046,-0.0030766
-0.02297,0.0245542
-0.0147648,0.0463786
-0.0107284,0.0322591
0.0391483,0.0191805
0.0751771,-0.00282614
0.0508475,-0.00686797
-0.00593913,-0.0177253
-0.0686302,-0.0505623
-0.100395,-0.0525702
-0.0755294,-0.0124815
-0.0380566,0.00839176
0.0118341,0.00715118
0.0486489,-0.00801788
0.0600837,-0.0115307
0.0497953,0.00149811
-0.00965254,0.0021504
-0.070012,-0.00403901
-0.0559004,0.00636797
-0.0131191,0.0245522
0.0560159,-0.0164182
0.0589257,-0.0238404
0.0829643,0.0305851
0.0436569,0.0238381
-0.0282311,-0.0401678
-0.0349575,0.0123896
-0.0322131,0.0213133
-0.0357001,0.03721
-0.0125546,0.0505453
0.0200568,0.0515631
0.0482594,0.00279652
0.0324837,-0.0602835
-0.0268347,-0.0664442
-0.0489278,-0.0437464
-0.0322378,-0.0213803
0.0042701,-0.0089876
0.00152214,0.0219583
-0.0317018,0.0223705
-0.0474677,0.0130706
-0.0216059,-0.00233688
0.00986147,-0.00724339
0.0277816,-0.00978028
0.00837557,0.0021869
-0.014443,-0.00144888
-0.0047988,-0.000148254
0.0165636,-0.00618527
0.0609226,-0.00419357
0.101271,0.0368012
0.0909845,-0.0122395
0.0158792,-0.00536394
-0.0406941,-0.0251814
-0.0160256,-0.0367535
-0.0206174,0.0352188
-0.0567795,0.0359576
-0.0554722,0.0119903
-0.0301492,0.0585292
-0.019563,-0.0105654
-0.0172027,-0.0628238
-0.0361663,-0.0199083
-0.0452778,0.062748
-0.0248341,0.0300699
0.00596705,-0.0266857
0.0173181,-0.0139613
0.0230547,-0.0095925
0.0187954,-0.0278462
0.0208433,-0.0268806
0.02812,-0.0170725
0.0406424,-0.0116828
0.0604703,0.0176008
0.0552181,0.0253544
0.0492906,0.00274726
0.00937705,0.0776528
-0.0611965,-0.0243876
-0.0721053,-0.0610296
-0.0345742,-0.0346691
-0.019211,-0.00413203
-0.00667495,0.030721
0.0164931,0.0399964
0.0670778,0.0287391
0.0925166,0.0123382
-0.0184047,0.00896107
-0.111022,-0.0674651
-0.0633916,-0.0556154
-0.0177541,0.023507
-0.0296173,0.0279867
-0.0451658,0.0266797
-0.0158702,0.0308358
0.060902,-0.0179631
0.0849429,-0.00208899
0.058649,-0.00477375
0.0196319,0.0316908
-0.00410695,0.000563012
-0.0355268,-0.0116893
-0.0487276,0.0190044
-0.00462032,0.0166741
0.0391573,-0.00977228
0.0387772,-0.0238783
-0.0110717,-0.0185631
-0.0373289,-0.0294097
-0.0220147,-0.0297281
-0.0318756,-0.00172133
-0.0376093,0.0142968
-0.00866192,0.0308658
0.0140275,0.0226202
0.0120115,0.0169423
-0.00937917,-0.00875247
-0.0142591,-0.0474074
-0.0147846,-0.0289305
-0.0158216,0.0188229
0.0457281,0.027487
0.0663894,0.0116034
0.0174825,0.0178008
-0.00603255,0.047089
0.0101913,0.0227163
0.029861,0.0528301
0.0594901,-0.0748697
0.049799,-0.101585
0.0550214,-0.0469105
0.0172096,0.00801544
-0.0438137,0.0231724
-0.0985812,-0.0102973
-0.110257,0.0121731
-0.0870435,0.0206115
-0.00415897,-0.0131623
0.0028755,0.00347437
-0.0129218,0.00223811
0.0080388,0.00758883
0.102023,0.0238238
0.15509,0.0125325
0.131987,-0.00744124
0.0675684,-0.0143828
-0.10849,-0.0211985
-0.20517,-0.0205594
-0.108426,0.0135434
-0.0336677,0.0020624
-0.021138,0.0238432
0.00113376,-0.00171528
0.0267737,0.0213166
0.0431725,-0.00696411
0.0414154,-0.0295835
0.0106652,-0.0174368
-0.00211839,-0.0147799
0.00614373,0.00663382
0.0110231,0.0154644
0.00525621,0.00881796
-0.00549258,0.00465448
-0.00919311,-0.00791891
0.00256805,-0.0183938
0.0184927,-0.0181302
0.0205244,-0.004681
0.0137102,0.00480456
0.00479866,0.0129708
0.00451478,0.0218117
0.0131695,0.0121181
0.0120489,0.00120127
0.00484748,0.00884295
-0.00842861,0.0172596
-0.0201725,0.00213779
-0.0289289,-0.00744649
-0.0325471,0.00704277
-0.0251394,0.0216626
-0.0193503,0.0263451
-0.0342805,0.0261149
-0.0602097,-0.00527026
-0.0538788,-0.0349825
0.00922377,-0.0443104
0.066334,-0.0186386
0.0774181,-2.39e-06
0.0571066,0.0217103
0.037164,0.0400842
0.0153868,0.00863361
-0.0126019,-0.0233237
-0.029347,-0.00655183
-0.0260108,0.0080645
-0.00821543,-0.010514
0.0153008,-0.0349447
0.0456337,0.0317733
0.0809957,0.0318562
0.0624061,-0.0287072
-0.0373578,-0.043278
-0.0938556,-0.0358044
-0.0491757,-0.0137498
-0.000294617,0.0103563
-0.00091478,0.0201175
-0.0310102,0.00892458
-0.0283583,0.0118199
0.0212084,0.0258037
0.0712344,0.0353645
0.0544484,0.0242326
-0.0221765,0.0308609
-0.0856573,-0.0157667
-0.0814829,-0.056504
-0.0097752,-0.00537388
0.0420866,0.032909
0.0273424,0.0277013
-0.00637982,-0.0103419
-0.0226105,-0.0270864
-0.0225803,-0.0251429
0.0270138,-0.0337566
0.0217767,0.00607853
0.00116225,0.0233613
0.00448995,0.0103138
-0.0184194,-0.00583939
-0.00850318,-0.0163917
0.00991068,-0.00211915
0.0397662,-0.0150329
0.0458247,-0.0169628
0.0317833,-0.00816319
0.006434,-0.0048214
-0.00213565,0.0136079
0.0034177,0.0230434
-0.0127529,0.00861745
-0.00360753,0.0015624
-0.00970752,0.00180914
-0.0118364,-0.00857492
-0.0312979,-0.0259628
-0.0425993,-0.0153412
-0.0252903,0.00688649
-0.00414622,0.0176796
0.01179,0.0130045
0.0187337,-0.00811518
0.00772987,-0.0141988
-0.000654971,-0.00629317
0.00134021,-0.00179909
0.0100803,-0.00411751
0.0157733,-0.00101856
0.00884118,0.00915966
0.00138441,0.00920141
-0.00643973,0.00527791
-0.00986037,0.00560559
-0.0105897,-0.00129397
-0.00966626,-0.0128212
-0.0104304,-0.0136768
-0.0143196,0.0172041
-0.00456894,0.00999485
0.00197863,-0.00801039
0.00179737,0.00475095
-0.001751,0.0041181
-0.014894,0.0105376
-0.0140487,0.0642957
0.00348677,0.105774
0.026996,-0.0347945
0.0224358,-0.0718327
0.00837715,-0.0757566
0.0344178,0.0221842
0.122045,0.0292413
0.19351,-0.0119835
0.0515396,-0.0166011
-0.15135,-0.0455243
-0.156316,-0.0382027
-0.0768976,0.00438837
-0.0296058,0.0154003
-0.00345294,0.0134636
0.0171918,0.00617607
0.0183925,-0.00260599
0.00321117,-0.00483639
-0.00546403,-0.0046879
0.0136509,0.00797789
0.0514532,0.0026178
0.0378339,-0.00731868
-0.0156904,0.0172686
-0.0426029,0.0323139
-0.0574005,0.00725756
-0.0717632,-0.0103447
-0.0463274,-0.0117131
0.0118296,0.0379488
0.0228789,0.0252116
-0.00712687,-0.0246694
-0.0114744,0.00745279
0.0293643,0.0175644
0.0438167,0.00182119
0.0126862,-0.0128076
0.00181109,-0.0200727
-0.00844385,-0.01817
-0.016558,-0.0114374
-0.00459281,0.000361892
0.00972765,0.0143005
0.0164558,0.0139571
0.0208684,0.00221964
0.0121154,0.00186316
0.00893923,0.003455
0.0192835,-0.00532601
0.0170554,-0.00799298
0.0143176,-0.00675981
0.0135161,-0.00842456
0.013235,-0.00236097
0.0167744,0.00960861
0.0181257,-0.00138949
0.00907467,-0.0118204
0.00270246,-0.0143159
-0.0055931,-0.00985818
-0.0187059,-0.00764033
-0.0326004,0.000825416
-0.0551982,0.0266972
-0.0829365,0.0304626
-0.0698901,0.0258825
-0.0183593,0.0340184
0.0254192,0.0197306
0.0287731,-0.0276852
0.0156959,-0.0219273
0.0303703,-0.00969845
0.0258766,0.00308897
-0.011654,0.000194443
-0.00505616,-0.007178
0.0513436,-0.0122378
0.0676202,-0.0170773
0.0207323,-0.0161224
-0.0315343,-0.0299646
-0.0448337,-0.0273777
-0.0144873,0.000945341
-0.000807211,0.0130959
-0.00162512,0.00433318
0.0145548,0.00966169
0.0280036,0.0155094
0.00641945,-0.012768
-0.0268794,-0.00644505
-0.0430435,0.00538509
-0.0157147,0.000273477
0.00647353,0.0118064
0.0155346,0.027206
0.00879374,0.00570187
-0.0145195,-0.010482
-0.0186262,-0.00708355
-0.00910884,-0.00935474
-0.00329127,-0.0114561
0.00138927,-0.00213067
0.00529266,0.0136493
0.00623691,0.0143251
0.00339667,0.00417506
0.00288962,0.00321505
0.00824515,0.00419925
0.0119298,-0.00080802
0.0102202,0.00369518
0.00646954,0.00692042
0.00655602,-0.00404612
0.00926762,0.0145243
0.0195395,0.0203192
0.0194736,-0.00490764
-0.00683226,-0.0195271
-0.0182439,-0.0164655
-0.0119926,-0.0127054
-0.00495841,-0.0129531
-0.00430619,-0.000933187
-0.00386531,0.0134653
-0.0029993,0.0080534
-0.00531557,0.00266801
-0.00274321,0.00402246
0.00448728,0.00204466
0.00885128,-0.00249031
0.0048909,-0.00195864
-0.0012666,-0.001952
-0.00532835,0.00452901
-0.00483984,0.0152394
0.00149015,0.00945145
0.0015249,-0.0083865
-0.00572883,-0.0150041
-0.0107562,-0.0151447
-0.0120013,-0.0172419
-0.0119359,-0.012698
-0.00883987,0.00800284
-0.00675492,0.0188933
-0.00475275,0.00433366
-0.00423548,0.000631563
-0.00253898,-0.000307557
0.00372801,-0.00423472
0.0060973,-0.0056648
0.00313976,0.00137926
0.0029151,0.00564751
0.000306291,0.0187056
0.00401579,0.0265641
0.00935188,0.0129901
0.00663748,-0.00280468
0.000950601,-0.00450559
-0.000810842,-0.00890177
-5.73e-06,-0.0123463
0.00125478,-0.00861407
0.0013953,0.00522355
0.00199554,0.010271
0.00122095,0.000324309
-0.00178337,-0.00197567
-0.00341616,-0.000675306
0.00111809,-0.00583323
0.0137873,-0.00886381
0.0190193,-0.000376124
0.0265222,-0.000687494
0.0351744,0.00583974
0.038761,-0.000726381
0.0314429,-0.0134809
0.0138838,-0.0212359
-0.0244138,-0.0193115
-0.0707643,-0.0190963
-0.0676732,-0.0160527
-0.0420358,0.000170814
-0.0151198,0.0229357
-0.00143825,0.0211021
0.00540589,0.00954851
0.0116361,0.00562007
0.0160911,-0.00100125
0.00829895,-0.00649662
0.00269963,-0.0112196
-0.00123649,-0.0126827
-0.0154858,0.00380732
-0.0144308,0.0245857
0.00136815,0.0240114
0.00235016,0.00664056
-0.00819687,0.00251333
-0.0155751,0.00247115
-0.0176329,-0.00145032
-0.0134565,-0.00255661
-0.00912449,0.0161339
0.00428324,0.0319112
0.017826,0.0165854
0.0222857,-0.000474076
0.0238662,-0.0103663
0.0294364,-0.0218056
0.0301354,-0.0294981
0.0235479,-0.0191047
0.0272629,-0.0113478
0.0327042,0.000443055
0.0216105,0.00881929
-0.00574484,-0.00725749
-0.0272941,-0.0256175
-0.00719719,-0.0302186
0.00705862,-0.0291175
0.0101102,-0.0216784
0.0298475,-0.00697591
0.0307557,0.0150984
