Comp Ch 3,Comp Ch 4
-0.0667638,0.0148772
0.0511087,0.00800072
0.200367,-0.00937584
0.117287,-0.0453049
0.0312503,-0.0498673
0.00154139,0.00782203
-0.0514914,0.0450537
-0.1185,0.0389042
-0.137362,0.0351765
-0.109401,0.0146475
-0.0903695,-0.0116502
-0.00539823,-0.064587
0.0359816,-0.0702125
0.0399474,-0.0593856
0.0828406,-0.0276
0.0960768,0.0302923
0.0655695,0.052529
0.0602263,0.0478663
0.0457662,0.0240375
0.0131883,-0.0361388
0.05382,-0.0346567
0.104832,0.0158122
0.0486036,0.048954
-0.057804,0.00502731
-0.11857,0.00435253
-0.108718,0.00759913
-0.0778587,-0.0109529
-0.0444895,-0.0152399
0.00138772,-0.0127319
0.0364599,-0.00101257
0.0415658,0.00502752
0.0128934,0.0343532
-0.00162664,0.0767789
-0.00659758,0.0429028
-0.0169812,-0.0236685
-0.0124809,-0.0214436
-0.0040093,-0.0148529
-0.00828682,-0.0208884
-0.00204806,-0.0206732
-0.0115775,-0.0117086
-0.0346464,0.000114131
-0.00847983,0.0148603
0.0164866,-0.0147327
0.00845956,-0.0169137
-0.0260801,0.0233805
-0.0498048,0.0172704
-0.0371573,0.0411904
0.019298,0.0452447
0.0577569,-0.031343
0.0388535,0.0189693
0.0202193,-0.00546316
0.0445966,-0.0529502
0.0633194,-0.0306842
0.0305056,-0.0246439
-0.0237364,-0.038508
-0.0533645,-0.0170473
-0.0527989,-0.00824088
-0.042472,0.00152296
-0.0451579,0.00567136
-0.0380627,-0.0175878
-0.0106478,-0.00625437
-0.00774308,0.0146218
-0.00285344,0.0118409
0.0224655,0.00585831
0.0173042,-0.038474
0.0120823,-0.0270071
0.0382379,-0.00215274
0.0666147,0.0167509
0.0374407,0.0253719
0.0101471,0.010198
-0.00144591,-7.62e-05
0.00195496,-0.0101762
0.0162561,-0.0194704
0.0313228,-0.00592193
0.0248664,0.0503602
0.0207671,0.0556281
0.0219425,-0.00704593
-0.00654726,-0.0348933
-0.00663373,-0.00862116
-0.0306981,0.0279649
-0.0659905,0.00704714
-0.0520077,0.000254824
-0.0604944,0.0377801
-0.0518583,0.0545854
-0.00451087,0.0355233
-0.01575,-0.003097
-0.0380759,-0.0124897
-0.0337031,-0.0217002
-0.000884102,0.000474322
0.0530748,-0.0187523
0.0751977,-0.0370614
0.0562827,-0.0290043
0.0381653,-0.0161469
0.0330847,-0.018164
0.0221093,-0.0194707
0.0223754,-0.013265
0.0261859,0.00110476
0.0137649,-0.0144368
0.00407674,-0.0378047
-0.0114434,-0.0180593
-0.0290409,0.0311984
-0.0348118,0.0512268
-0.0245629,-0.00355618
-0.0220209,0.012724
-0.0453227,0.0560115
-0.0553087,0.0681024
-0.0383135,-0.0104613
-0.0239002,-0.0318624
0.00667299,-0.00874613
0.0221729,0.0304294
0.0261392,0.032961
0.0540025,-0.0295511
0.0719849,-0.0431914
0.0712347,-0.0210215
0.0397284,-0.0485136
-0.00642171,-0.0128576
-0.0428128,-0.00108062
-0.0473062,0.0109276
-0.0128868,0.000971583
-0.00682579,0.00413342
-0.0219469,0.0263792
-0.016988,0.0255062
0.00740534,-0.0189597
0.015012,-0.0265733
-0.0017073,-0.0075929
-0.00605009,0.0259657
-0.0292229,0.0815975
-0.0411844,0.0983975
0.00176908,-0.0406449
0.0273139,-0.105522
0.0255673,0.0287231
0.0303143,0.0813668
0.0122853,0.0264522
-0.0152048,-0.0286403
-0.033636,-0.0341729
-0.0466083,-0.017488
-0.0322496,-0.00788143
-0.00551013,-0.0428723
0.00547735,-0.0489282
0.00874613,-0.0160311
0.0118315,0.0133014
0.012254,0.00641067
0.0159051,-0.0390571
0.0250711,-0.0487475
0.0305577,-0.00786144
0.0339688,0.00298088
0.0274863,-0.0255646
0.0193352,-0.0253225
0.0142715,0.00489667
0.0038903,0.0214125
-0.00318543,0.017409
-0.0105241,0.0166698
-0.0148116,0.0258459
-0.0182885,0.0179327
-0.013721,-0.00341382
-0.0139424,0.00870613
-0.0167581,0.0239469
-0.0231024,0.0348079
-0.023301,0.0363148
-0.0220197,-0.00475384
-0.0165771,-0.0385598
-0.0233365,0.0108462
-0.0185177,0.0479269
0.025027,0.0307905
0.0363779,-0.0277561
0.0217311,-0.0169101
0.0180851,0.0144362
0.00820079,0.0172856
0.0209114,0.0178301
0.0273652,0.0075701
0.000340568,-0.0195058
-0.0260351,-0.0245708
-0.0165872,-0.00664748
0.000837871,-0.0105698
-0.00415062,0.0265866
-0.0112051,0.0664341
-0.0106523,0.036386
-0.00998147,-0.0616143
-0.028258,-0.0470118
-0.0111471,-0.0525731
0.0350099,-0.0564859
0.0768616,-0.051044
0.0438226,-0.00718432
-0.0027747,0.0271801
-0.0197406,0.0257313
-0.0323344,0.00436814
-0.0275021,-0.00742366
-0.00230991,-0.0129267
0.0605189,-0.0310104
0.0561846,-0.0113506
-0.0115855,0.0155463
-0.0521799,0.0262723
-0.0389126,0.0335432
-0.0131733,0.0291436
0.00191791,0.00248836
0.0014838,0.0150249
0.0156839,0.0135145
0.0411902,-0.0373293
-0.016195,-0.0299817
-0.133071,-0.00354274
-0.133292,0.00446684
-0.0986835,0.0292895
-0.0403363,0.0213219
0.0588079,0.00926029
0.138496,0.00598194
0.142594,0.0298029
0.104064,0.0421408
0.115451,0.0148065
0.0472374,-0.0406347
-0.0179969,-0.0470786
-0.0427263,-0.0122195
-0.0373139,-0.0023162
-0.0677682,0.0103281
-0.0759575,-0.0137271
-0.0463132,0.00624505
-0.026225,0.0230029
0.00207876,0.0247256
0.0125579,0.00108252
0.0248348,0.0316347
0.0270312,0.0322647
-0.02174,-0.0184077
-0.0319423,-0.0778686
-0.0472923,-0.055908
-0.0588749,0.00998519
-0.0430568,0.0540188
-0.00205213,0.0395219
-0.0527684,-0.00962571
-0.0503763,0.0317445
0.117143,0.0591663
0.169472,-0.0679599
0.0892486,-0.0977349
0.0513115,-0.0678718
0.0368192,-0.0239061
0.0147823,0.0297818
-0.0224659,0.0489603
-0.0153873,0.0250151
0.00484896,-0.00920616
-0.0184536,-0.00997056
-0.0186381,-0.00932381
-0.0144029,0.0111653
-0.0188023,-0.00874071
-0.0366293,-0.000613859
-0.0248957,0.00159506
0.0035228,-0.0170653
0.0134968,-0.00724511
0.0113629,0.00416269
0.00384316,0.0210185
0.00159161,0.00451892
-0.00395443,-0.000575486
-0.0100562,0.0248138
-0.00994462,-0.00332416
-0.0138514,-0.015957
-0.0163818,-0.00028939
-0.00750104,-0.0114067
-0.00234574,-0.00694722
-0.00444468,0.0275023
0.00053584,0.0167845
-0.000756459,-0.000290644
-0.00286413,0.0111815
0.00819969,-0.00621933
0.0263863,-0.026621
0.034498,-0.00745478
0.0260542,-0.0137119
0.00870983,-0.00773801
-0.0145133,-0.00749216
-0.0237252,0.0268157
-0.019881,0.030689
-0.00572378,-0.0145859
-0.00724559,-0.00169625
-0.00883173,-0.00584577
-0.00898841,-0.0175254
-0.0201648,0.0207221
-0.0292344,0.0696419
-0.0155646,0.013329
0.000946195,-0.0826127
-0.00790563,0.0365464
-0.0150674,0.103886
0.00612096,0.0594433
0.0403954,0.0468263
0.0531969,-0.0651523
0.0545743,-0.145596
0.0412895,-0.0714224
0.0165312,-0.00112747
-0.0163539,0.00902442
-0.0427876,0.00302979
-0.0540183,0.0253256
-0.053382,0.0279882
-0.0241464,-0.00512218
0.0326086,-0.024992
0.0457635,-0.0112066
-0.00424988,-0.00200626
-0.0424953,0.0123578
-0.0227655,0.0114066
0.010137,-0.0140994
0.00674092,-0.0234255
0.0053996,-0.0214684
0.0119256,-0.0208823
0.0482014,-0.0362112
0.0248578,-0.0143764
-0.00616616,0.0583374
-0.0165172,0.0605047
-0.0266058,0.0257137
-0.00535848,0.00799684
0.0181275,0.00364332
0.00509694,-0.0125032
-0.00365698,-0.00944279
0.00756727,0.01292
0.0235022,0.0225408
0.0373286,0.0363767
0.0481749,0.0230836
0.044116,-0.0461395
0.0018447,-0.06528
-0.0283731,-0.0309638
-0.0400503,-0.0319542
-0.0323319,-0.0459227
-0.028066,0.00921309
-0.0359339,0.0867955
-0.0427126,0.114874
-0.0384093,0.127784
-0.0204331,-0.0337122
0.00910863,-0.150764
0.0144519,-0.0825646
-0.00638929,-0.041996
-0.0191922,-0.0174066
-0.014283,0.0381108
-0.011028,0.054267
0.00869461,-0.00881479
0.0281138,-0.0250267
0.0325267,0.0188852
0.0510473,-0.0118179
0.0527302,-0.0284309
0.0222952,0.0145803
-0.0163431,0.0463068
-0.0233731,0.0441069
0.0141465,0.0305475
0.00852061,0.00924611
-0.0101921,0.0133537
-0.00692134,-0.00526303
0.00122243,-0.0357932
-0.00564791,-0.0297723
-0.01779,-0.0137958
-0.0250252,0.00205471
-0.0151047,-0.000631626
0.00525547,0.00387731
0.0180199,0.0133766
0.0185066,-0.0286984
0.039281,-0.060835
0.0370183,-0.00141746
-0.00792444,0.0229894
-0.0371955,0.0173087
0.00950547,0.00187968
0.0166315,0.0262299
-0.0234725,0.019241
-0.0586385,-0.00378197
-0.0518995,-0.0198964
-0.0216205,-0.0142324
0.0124833,-0.00494727
0.0141234,0.0203426
0.0069603,0.0359995
0.017406,0.0096214
0.030543,0.00319428
0.0324142,0.020975
0.0256548,-0.0289941
0.00755099,-0.0323295
0.00356809,-0.0143878
0.0122431,0.00786874
0.0058388,0.0177125
-0.0120403,0.000108176
-0.0174207,0.000697664
-0.0168626,0.00874167
-0.0130629,0.0010923
-0.00914607,-0.0198782
-0.0105221,-0.0173926
-0.00319254,-0.0131064
-0.0130366,0.00286291
-0.0202729,0.00865069
-0.00359914,-0.01449
0.00240452,-0.0337082
0.00938023,-0.0371065
0.0165604,-0.017242
0.0186831,-0.00306838
0.0066664,0.00258256
-0.00235941,0.0212405
-0.0114336,0.0231069
-0.0148557,0.0224508
-0.0210321,0.0284996
-0.017278,0.0344356
-0.00787081,0.0679692
-0.000246356,0.0738591
0.00453785,-0.0496618
0.0164904,-0.0568161
0.0131525,-0.0103512
0.000348249,0.0128262
-0.0115577,-0.000305129
-0.00883487,-0.0193177
0.00681164,-0.00425632
0.0236463,0.00305924
0.0413743,-0.00783305
0.00565298,-0.00812346
-0.0324798,-0.00147615
-0.0343093,-0.00789788
-0.0149355,-0.0011778
-0.00106276,0.0161742
0.000297672,0.00951032
0.0115197,-0.0133442
0.0117988,-0.0302925
0.0191982,-0.00344275
0.0171509,0.0537577
0.00493532,0.0577649
0.0102639,-0.00655888
0.0243884,-0.0244197
0.0172912,-0.0285656
0.000251863,-0.00790241
0.00321963,0.00233763
0.0191344,-0.0150413
-0.00826883,0.00724158
-0.0423411,0.0035211
-0.0338544,-0.0587993
-0.0144058,-0.00184498
-0.00780905,0.0232123
-0.0111652,-0.0068412
7.99e-05,-0.0148054
0.00846779,-0.00296512
0.0105004,0.00770828
-0.00303593,0.0266604
-0.00952134,0.0361331
0.0126162,0.0315771
0.0148911,0.00628934
-0.00151639,-0.00422953
-0.017766,0.0170473
-0.00194943,-0.0115254
0.000759571,-0.0152297
-0.0323893,0.0176776
-0.0159475,-0.0122364
0.0241863,-0.0359104
0.0257563,-0.0385561
0.0263974,-0.034729
0.023823,-0.0277353
0.023075,-0.0216183
-0.00156856,0.0156037
-0.0166629,0.0207747
-0.0274485,0.0248847
-0.0251511,0.0279223
-0.0207983,0.012957
-0.00867811,0.00454975
0.00356829,0.0435773
0.0106213,0.0186918
0.00995992,-0.0239946
-0.00548602,0.00941007
0.00278645,-0.0268872
0.0230248,-0.0306645
0.0223072,-0.0360025
0.000910864,-0.00860165
-0.0145513,0.00854525
0.0199639,-0.0218442
-0.000212339,-0.0498798
-0.00508615,-0.0211287
0.0191785,0.0120886
0.0110099,0.0390143
0.00732582,0.036228
-0.0144538,0.00219094
-0.0191171,-0.000970532
-0.00502501,0.0105722
0.0126064,0.0118523
0.0144478,0.00574836
-0.000935348,0.00284515
-0.0226499,0.00489961
-0.0151066,-0.00506134
-0.0175393,-0.000535053
-0.00574709,0.00281592
0.0135467,0.00538395
0.0153043,-0.0160989
0.0201052,-0.0024292
0.00349149,0.0156049
-0.024674,0.0364438
-0.0298118,0.041938
-0.0408884,0.0269569
-0.0344703,-0.0121409
-0.0224844,-0.026485
-0.0267359,-0.0160351
0.00528667,-0.023108
0.0166889,-0.0225252
0.00118631,-0.000555842
0.0130263,0.00804597
0.0348194,-0.00500606
0.035915,-0.000455871
0.0456321,-0.00149367
0.0324294,-0.0158136
0.0017727,-0.0337657
-0.0216314,-0.0191602
-0.0285654,0.00191062
-0.0335494,0.0213654
0.0105273,0.0321835
0.0743135,0.0199574
0.110607,0.016359
0.0616284,0.016081
0.00194729,-0.00263431
-0.0411374,-0.0193006
-0.107303,-0.0340793
-0.148346,-0.00961022
-0.11685,0.0130828
-0.0772061,0.00569443
0.0104914,0.00186902
0.141632,-0.0147758
0.16606,-0.0195732
0.0691615,-0.00203624
-0.0069979,0.00512673
-0.0453264,-0.00258109
-0.0848437,0.0122521
-0.0153856,0.0187845
0.0336853,0.0149446
0.0204412,0.0182222
0.00516958,0.00980954
-0.0130241,-0.0041886
-0.0109392,-0.0134438
-0.103756,0.00544853
-0.229841,0.0142841
-0.154956,0.0250688
-0.0238238,0.0135153
0.0979687,-0.0259591
0.332712,-0.0364388
0.398104,0.00104729
0.22122,0.0398726
0.0105817,0.0318271
-0.215167,0.00637674
-0.214043,-0.00100773
-0.144564,-0.0195741
-0.03515,-0.0251671
0.187282,-0.0173022
0.176275,-0.0172688
0.0256212,-0.0215007
-0.0984572,-0.0427495
-0.0945599,-0.00830779
-0.0788997,0.0195046
-0.133674,0.00685201
-0.150423,-0.00528778
-0.108409,-0.0080498
-0.0659731,-0.0119332
0.0332612,0.00157865
0.0851481,0.0228214
0.0962126,0.0267064
0.149893,0.0270977
0.11062,0.000817819
-0.0309383,-0.000780952
-0.0603384,-0.00274389
-0.0338527,0.00670605
-0.0379905,0.00450072
0.0254056,-0.0118518
0.0694203,-0.0122133
0.0380025,0.00252277
0.0664046,-0.00284796
0.079501,-0.00598773
0.0421937,0.0176197
0.0463291,-0.00907538
0.0125693,-0.0337082
-0.0388146,-0.0114106
-0.0802407,0.000327035
-0.0980548,0.0150899
-0.117353,0.0307163
-0.0930089,0.0186367
-0.0301232,-0.0183719
-0.0108798,-0.0110396
0.0164502,0.00512602
0.0477517,0.0118015
0.0691158,0.0245656
0.0537119,0.0240973
0.0135935,0.00663824
0.0262512,-0.0218539
0.0412852,-0.0440281
0.0101361,-0.0230558
-0.0230606,0.00780623
-0.0396485,0.00112603
-0.0456804,-0.015909
-0.0370887,-0.0138982
-0.033802,-8.72e-06
-0.0290316,0.036623
-0.00651736,0.0336139
-0.00982978,-0.00915517
0.0126479,-0.0170544
0.0712054,-0.00374183
0.0664416,-0.0117294
0.0523721,-0.0434588
0.0211505,-0.0255645
0.00365761,0.00808865
0.009372,-0.00171315
0.0190553,-0.0058881
0.007255,0.0194973
-0.0349604,0.0386541
-0.0472174,0.0673617
-0.0328454,0.041159
-0.0245707,-0.041185
-0.0132495,-0.0450911
-0.00119925,-0.00764178
-0.0142576,0.00287272
-0.054425,-0.0103956
-0.0387482,-0.0229097
-0.0251576,-0.0248202
-0.00290892,0.0229143
0.00106606,0.00880692
-0.00354653,0.0269163
0.0177238,0.0511384
0.0464843,0.0537613
0.0563449,-0.019886
0.0728055,-0.0527835
0.0642412,-0.0430987
-0.00902506,-0.016442
-0.0757915,-0.000421167
-0.0947271,-0.00729842
-0.0525785,0.0136783
0.0200959,0.0191762
0.0151672,0.00264646
-0.0127871,0.00472604
0.02942,0.0112234
0.0356788,0.00904965
-0.000226601,-0.01711
-0.0589783,0.0121275
-0.0197523,0.0210211
0.0626751,0.0168675
0.0596022,0.0132153
0.00827175,-0.0141337
0.0488306,-0.0336724
0.082998,-0.0326221
0.025792,-0.016998
-0.0178643,0.00758833
-0.0217984,0.0288275
-0.0332109,0.0512674
-0.0492299,0.0369969
-0.0450745,0.00993165
-0.0336656,-0.0272424
0.0174088,-0.0114132
0.00569544,0.00237296
-0.0137009,-0.0126609
-0.00298475,-0.0557572
-0.0139245,-0.0137885
0.024215,0.00071469
0.0353212,-0.013429
-0.0184057,-0.00811007
3.02e-05,-0.0164623
-0.0346709,-0.023062
-0.0259745,-0.0299214
0.0156987,-0.01789
0.0140947,0.00984076
0.0266368,0.0157441
0.038709,0.0105873
0.040444,0.010435
0.00962689,0.0400431
-0.0231218,0.0263894
0.0042604,0.0283966
0.0208128,0.0531847
0.0234178,0.0512992
-0.00208795,-0.0186421
-0.0484518,-0.0133332
-0.0928106,-0.0226823
-0.117642,-0.00358257
-0.0347704,-0.0177132
0.0267843,-0.034738
0.0535436,-0.0205298
0.0342192,0.039599
0.0280217,0.0388735
0.0396777,-0.0220859
-0.0442442,-0.025735
-0.100615,-0.00892791
-0.084058,-0.0161987
-0.0865003,0.00521499
-0.0938063,-0.00562053
0.00544835,0.0261908
0.0775099,0.0272834
0.136898,0.0122751
0.171484,-0.00559053
0.229565,0.0233769
0.249422,0.031436
0.150911,-0.0216658
0.0170436,-0.081819
-0.0875669,-0.0389697
-0.149499,-0.0122114
-0.177361,-0.029617
-0.16047,-0.0271813
-0.0764689,-0.00769706
0.0262971,-0.0246645
0.0533971,-0.000456972
0.0416855,0.00528833
-0.0152045,0.0192337
-0.0532634,0.0311133
-0.0379979,0.00727252
-0.0344415,-0.00408802
-0.0327106,0.0060054
-0.037137,0.0133135
-0.0462,0.0239399
-0.0672153,0.0245414
-0.036418,-0.00842006
-0.0160256,0.0227627
0.017505,0.0495869
0.0655765,0.0413754
0.118099,0.0125202
0.119252,-0.001266
0.117128,0.023491
0.144261,-0.00157136
0.0545771,-0.0357021
-0.0718448,0.000671276
-0.127177,0.0171581
-0.10771,-0.0046004
-0.0621055,0.0128862
-0.0660567,-0.00389813
-0.0456166,-0.0587525
-0.00853701,-0.0644629
-0.0109857,-0.0396424
-0.0227363,0.0144939
-0.0399369,0.0161645
-0.0108557,-0.0307306
0.0703073,-0.0134283
0.077232,-0.0353503
0.0207939,-0.00683887
-0.00497622,-0.0072344
-0.0105286,-0.00747688
-0.00457944,0.0157003
0.0140078,0.0273877
0.00288885,0.020673
-0.0256677,0.0180967
-0.0146445,0.0242245
0.024123,0.0151439
0.0875974,0.00383385
0.065629,0.0118705
0.0218029,0.0184984
-0.047258,0.00621421
-0.0660664,0.00351979
-0.0152792,-0.00912555
-0.0231792,-0.0162423
0.0132477,-0.00245834
0.0703025,0.0122207
0.0581948,0.0231894
0.0293962,0.000726756
-0.0514847,-0.0112089
-0.111595,-0.016331
-0.0785162,-0.00934947
-0.00547672,-0.0100121
0.0521815,-0.0171825
0.0237089,-0.0215186
0.0662265,-0.00248677
0.0395995,-0.0291655
-0.0184466,-0.033453
-0.00908057,-0.00173614
0.0221791,0.00857251
0.0441934,0.0273593
0.0271267,0.00672527
0.0140196,-0.00826344
0.0198141,-0.00553862
0.00635409,-0.00741684
-0.0050266,0.000197633
-0.0589554,0.0246974
-0.0752738,0.0482685
-0.0690984,0.0392058
-0.0862434,0.0123615
-0.0327326,0.0185921
0.0167686,0.0160683
-0.00587215,-0.0354664
0.033676,-0.0480896
0.0668826,-0.0403514
0.0404185,0.012763
-0.00933739,0.0391124
-0.0213626,0.0180598
-0.00257743,-0.00754354
0.0498518,-0.0133624
0.0499068,-0.016693
0.00650081,-0.00262514
-0.00397132,0.00484844
0.00089722,-0.0128347
0.0134463,-0.0195477
0.0146509,0.00935738
-0.0117313,0.00938972
-0.0307804,0.0187422
-0.0281264,-0.0126333
-0.0243825,-0.0129689
-0.00732445,0.0251486
0.00578268,0.00528405
-0.0271257,0.0355941
-0.023562,0.000624228
-0.0295429,-0.0265259
-0.0216748,-0.0153741
0.0287669,0.00928302
0.0315263,-0.0165901
0.0240343,-0.0530321
0.0146549,0.00134786
-0.0010616,0.0495862
-0.00527484,0.019571
0.00465375,0.0123649
-0.00977088,-0.0103305
-0.00740525,-0.0317699
0.0199512,-0.00147607
0.0167966,0.00970603
-0.00182177,-0.000965628
0.000560326,-0.0123167
-0.0028624,0.00536758
-0.00930892,0.0202006
0.0338262,0.0169984
0.0504411,0.00653594
0.045682,0.00666282
0.0518678,-0.0186399
0.00910319,-0.00925224
-0.0437342,0.0311963
-0.0721497,0.0764179
-0.106492,0.0626528
-0.097599,-0.0334525
-0.0406398,-0.0386604
-0.00597969,-0.0655171
0.0244323,-0.055335
0.0209562,-0.00771189
0.0179377,0.0159374
0.0140921,0.0166315
0.0218932,0.0111656
-0.00135965,0.0107259
-0.0148527,0.00507261
0.0199413,-0.00472367
0.0281055,-0.0185186
0.0354489,-0.0233694
0.0296854,-0.0115691
0.027447,-0.00549234
0.0453733,0.00104645
0.0302064,-0.00212605
-0.00724849,-0.00359651
-0.0381504,-0.00746212
-0.0191138,-0.0127544
-0.0101334,0.0178888
-0.00945505,-0.00460264
-0.0322508,-0.0203761
-0.0466931,0.00890241
-0.0109772,0.0185416
0.0234132,0.0280859
-0.00624207,0.0312315
-0.0251472,-0.00861873
-0.0042037,-0.0309818
0.00502675,-0.0527725
-0.0227993,-0.017993
-0.0295609,0.0413537
-0.00374817,0.0586616
0.0358923,0.0172425
0.0594906,-0.00749622
0.0589778,-0.00996493
0.0334889,-0.00971916
-0.00694926,-0.00497828
-0.0193627,-0.0167434
0.00841881,-0.0121874
0.00433746,0.0181504
-0.0116375,0.0317299
-0.041881,0.00123305
-0.0291085,-0.0219271
-0.00362411,-0.0229114
-0.00204831,-0.00957064
0.0162829,0.0111399
0.0237768,0.0352395
0.0406348,0.0480804
0.045452,0.0450738
0.0516194,0.0099712
0.0264993,-0.0431519
-0.0478479,-0.0476046
-0.0869759,-0.0282574
-0.0719236,-0.014943
-0.0237218,-0.0324762
0.0138267,0.000442914
0.00274103,0.0417979
0.00449638,0.0177007
0.00783919,-0.00163685
-0.00379647,-0.00871628
-0.0118341,-0.0168618
-0.00593997,-0.0207864
-0.00825306,0.00322127
0.00329129,0.0207951
0.0261169,0.0117733
0.037496,0.00782465
0.0135883,0.0185653
-0.0101822,0.00176134
-0.00398862,-0.0262117
0.00323454,-0.00142456
-0.00433038,0.0152975
-0.00910301,-0.0165034
-0.0123498,-0.0036193
-0.00920583,0.0233937
0.000598539,0.0122345
0.00732041,-0.0113085
0.00865301,-0.00199702
0.00972962,0.00172973
0.0109671,-0.00395748
0.00873158,-0.00529097
0.0101266,-0.00132464
0.00932622,-0.00295873
0.00468952,-0.00356999
-0.000625171,-0.00357763
-0.00210099,-0.00831351
0.00196469,-0.0135409
-0.00350852,-0.000917594
-0.00735549,-0.00655465
-0.0130567,0.0216689
-0.0140212,0.0173759
-0.00486321,-0.00436817
-0.000234886,-0.006891
-0.0119088,0.00571909
-0.00875147,-0.0162929
-0.00969647,-0.0328153
-0.0267015,0.0123252
-0.0211034,0.038079
-0.00728534,0.0365635
0.00675381,-0.0171568
0.0188088,-0.0339357
0.0200387,-0.0108461
0.0159029,-0.0120779
0.0299021,-0.010242
0.0227261,0.0104556
0.0165525,0.036307
0.0251374,0.0395254
0.0190855,0.020181
-0.00236263,0.00886973
-0.0324794,-0.0341829
-0.0874067,-0.0258196
-0.0780561,-0.0121571
-0.0202678,-0.00838304
0.0114296,0.00481445
0.0401964,0.02165
0.0760044,0.0150102
0.0421314,0.0324168
-0.0287767,0.0113039
-0.0533428,0.00593086
-0.00763733,-0.054185
-0.0047158,-0.017551
-0.0157807,0.0203737
-0.0318238,-0.00849695
0.0088566,0.00817601
0.0570502,0.0103186
0.00108098,-0.0331055
-0.00104193,-0.00865662
0.0290582,-0.0528016
0.0212827,-0.0303047
0.00601178,0.0107566
0.00387107,-0.0116153
-0.0170891,-0.0210761
-0.010148,-0.0175304
0.0280042,0.0210099
0.0167169,0.0532168
0.00959937,0.0542563
-0.0145975,0.0388998
-0.0627205,0.0267585
-0.110568,-0.00166011
-0.115214,-0.00982017
-0.0452462,0.0118915
0.0202159,0.0377053
0.188732,-0.0145836
0.258143,-0.067235
0.108171,-0.0320194
-0.0168585,0.0127866
-0.0712273,-0.0631102
-0.0107743,-0.0276048
0.00738987,0.0500804
-0.0235058,-0.0195029
-0.0204905,-0.000337956
-0.0401872,0.0063095
-0.140165,-0.016123
-0.245011,-0.0209
-0.117547,-0.0291073
-0.0368735,0.00194292
-0.0447686,0.0319323
0.0348911,0.0632927
0.160546,0.0925472
0.222713,0.105307
0.218876,-0.0438828
0.170146,-0.0923746
0.152725,-0.07687
0.0383816,-0.0506908
-0.121231,-0.0179801
-0.192583,0.0226317
-0.168138,0.0192409
-0.117051,0.00697366
-0.0441902,-0.00325929
0.032683,-0.0060115
0.0436643,-0.0066104
0.0234393,-0.00728039
0.0511189,0.0290811
0.0926937,0.0675277
0.0773703,0.0253167
0.0577119,0.0465928
-0.0336444,0.00943012
-0.139783,-0.0109527
-0.157328,0.0178889
-0.0343844,0.0577851
0.152534,0.0573062
0.0925724,-0.0228329
-0.0156299,-0.156756
-0.114328,-0.105956
-0.0827691,0.027399
0.0807609,0.0136251
0.119491,-0.0749004
0.0651159,-0.0199498
-0.0198389,0.0275068
-0.162198,0.0127581
-0.172625,0.0221241
0.0444886,0.00643027
0.0403042,0.00166361
-0.08357,0.0476472
-0.0596425,0.0843919
-0.00760361,0.0844662
-0.0638086,0.048269
-0.116301,-0.100692
-0.152171,-0.0570537
-0.0471371,-0.00449989
0.187114,-0.00959591
0.22372,-0.0110341
0.299219,-0.0530491
0.274217,-0.0485847
0.148965,-0.0230574
0.00509223,0.00829388
-0.0447519,0.0319551
0.0902824,0.0602063
0.151151,0.073098
-0.00776878,0.010903
-0.186119,0.0487619
-0.273531,0.00228337
-0.241271,-0.031962
-0.207633,-0.0727257
-0.188082,-0.0176424
-0.103117,0.016976
0.0107689,-0.0167907
0.0904086,-0.018903
0.09752,-0.0190401
0.058377,-0.0178662
0.0229582,0.0267539
0.00612319,0.0410978
-0.0162083,0.0177991
-0.0253383,-0.0262257
-0.00926194,-0.0525614
-0.041678,-0.0341839
-0.0075438,-0.0257176
0.0845294,-0.00761591
0.117676,-0.00918492
0.204648,-0.0153875
0.25674,0.028763
0.192747,0.0469695
0.0847746,0.0175095
-0.0863355,-0.01179
-0.180559,-0.0144245
-0.171423,0.0187304
-0.0851445,0.00371556
0.00715133,-0.0264615
-0.00071019,0.00177926
-0.0943365,-0.0322863
-0.147181,-0.0139515
-0.151559,0.011045
-0.111924,0.05568
-0.0295495,0.12386
0.0541046,0.0402568
0.123442,-0.128546
0.0392126,-0.109564
-0.0797854,-0.0227125
0.0214886,0.0650753
0.178681,0.0270474
0.133884,0.0276691
0.0799664,0.0205829
-0.0253817,-0.0463724
-0.118362,-0.0134917
-0.0649185,0.0251271
-0.0200435,0.0243453
0.0288692,-0.0153991
0.0152407,-0.00977318
-0.0148665,0.0542923
0.0101064,0.0352364
0.0976523,-0.0863697
0.0871355,-0.0598
0.0397187,0.0227806
0.0273376,0.0224979
0.00261108,0.00905114
0.00837443,0.0303955
0.0391702,0.0263657
0.0199012,-0.00638522
-0.034499,-0.0393015
-0.0876643,-0.0539893
-0.0772364,-0.0400876
-0.0573826,-0.0243672
-0.0543116,-0.0357609
-0.0571416,0.00196149
-0.100972,0.0614023
-0.10915,0.0414112
-0.0796077,0.0104854
-0.0365477,-0.00844981
0.00295947,-0.0205399
0.0263887,-0.00360425
0.0518353,0.000423583
0.0956609,0.0601875
0.119834,0.0893284
0.17657,0.125897
0.213232,0.0162013
0.0631974,-0.0994338
-0.108117,-0.0685751
-0.129996,-0.0416582
-0.103081,0.0242239
-0.0618519,-0.003319
-0.044482,-0.0430555
-0.0403002,-0.00976494
-0.0459086,-0.00117707
-0.00712178,0.00325928
0.0404234,0.02012
0.116569,0.0233882
0.180165,0.0239618
0.378071,0.0349577
0.483272,0.0462475
0.326763,0.0399066
0.152763,0.0701317
-0.238271,0.0313249
-0.616503,-0.102288
-0.630069,-0.0525403
-0.385296,-0.0187756
-0.15604,-0.0373048
-0.0503849,0.0111829
0.0330586,0.00583684
0.0832565,-0.0131842
0.0993116,-0.0338999
0.0797702,-0.0109829
0.0674986,-0.00714194
0.0196767,0.00338297
0.0153335,-0.00864563
0.0165511,0.0100864
-0.0276359,0.0172805
-0.00013503,-0.0116348
0.0621073,-0.00646551
0.045818,0.0287592
0.0168163,-0.00767075
0.0806473,-0.0254383
0.10263,-0.00028682
0.0596481,0.0127536
0.033082,0.00916012
0.0066196,0.00470515
0.00287467,0.0316005
0.00287632,0.0234654
-0.00789389,-0.0403567
-0.033857,-0.0316997
-0.0449986,-0.00337232
-0.0208016,-0.00737886
-0.0388009,-0.00188709
-0.080822,-0.00994513
-0.0743662,0.00442562
-0.0295317,0.00769468
0.00943633,5.92e-05
-6.46e-05,-0.0217206
-0.0274168,-0.0221172
0.00153827,0.0186953
0.0304697,0.0209408
0.0568308,-0.00636387
0.0827831,0.0210896
0.0892039,-0.00637825
0.080708,-0.0476157
0.00838922,-0.0310905
-0.0498545,-0.0192816
-0.0508406,-0.0210654
-0.0557036,-0.0139659
-0.0473567,0.00455567
-0.0185412,0.0244727
0.0358329,0.082513
0.0360444,-0.0201366
-0.0409967,-0.00374437
-0.0712183,0.0763543
0.0374064,0.0554907
0.10234,-0.0350695
0.110801,-0.0213519
0.0648999,0.0256736
-0.0162473,-0.000737688
-0.102847,0.00339923
-0.185841,-0.0157933
-0.152732,-0.0158063
-0.0418907,0.0251242
0.0204384,0.0384173
0.0445749,-0.0545015
0.0559396,-0.0618213
0.0195819,-0.0254244
0.0400621,-0.0027963
0.0782597,0.000589449
0.0901356,-0.0051248
0.0365856,-0.0276957
-0.0246739,-0.0211038
-0.0052362,0.00945207
-0.00887379,0.0384876
-0.0251863,0.0309393
0.0189987,-0.0279486
-0.00585325,-0.0205505
-0.0535954,-0.00900588
-0.0639033,0.0121258
-0.0632262,-0.000529788
-0.0572364,-0.0287463
-0.0528766,0.0111754
-0.0199509,0.0100366
0.0242972,0.0265873
0.0578137,0.0487606
0.0644945,0.0872021
0.0335771,0.0662273
-0.0399564,0.0365854
-0.0129458,-0.0368406
0.115813,-0.0217793
0.124527,-0.010576
-0.0105901,-0.0026702
-0.0340468,-0.0283289
-0.00456036,-0.00295615
-0.0481766,0.0118
-0.097892,-0.0302967
-0.0717211,-0.0352107
-0.00765623,-0.00064145
0.0162323,0.0349756
0.0205274,-0.0186173
0.0137848,-0.0400324
0.00670424,0.000257135
0.0268352,-0.000302267
0.0295985,-0.018535
0.0428719,0.0101049
0.0110225,-0.0227537
-0.073561,-0.0140716
-0.0294889,0.0159816
0.0798982,0.017192
0.0960969,-0.0105408
0.0812038,-0.0352887
0.0129565,-0.033771
-0.0192035,-0.0270747
-0.0273161,-0.0242243
-0.0682866,-0.00390268
-0.125257,0.0213222
-0.156684,0.0254259
-0.0971952,0.0127369
0.0238675,0.0270384
0.123448,0.00645983
0.179602,-0.0155123
0.152401,-0.00922132
0.11558,-0.000287642
0.00501904,-0.0226213
-0.0835254,0.017351
-0.0799313,0.0777082
-0.0196933,0.0814308
0.00556383,0.0168597
-0.00622554,-0.0492591
-0.0326472,0.00542953
-0.0196368,-0.0022386
-0.0253233,0.0158948
-0.0548752,0.00977508
-0.0501428,-0.0365135
-0.0504364,-0.0429987
-0.0127328,-0.0355228
0.0375045,-0.00591167
0.0473225,-0.0021719
0.0375054,0.00442178
0.0298619,0.0113158
0.0129814,0.0196383
-0.000161463,0.0156926
0.00914996,-0.0100899
0.0264893,-0.0117478
0.0459971,0.0201067
0.0322601,-1.42e-05
0.0245947,-0.0238799
0.0611255,-0.0195603
-0.0158892,0.0176898
-0.060302,0.0599122
-0.106488,0.0208892
-0.169144,0.0165507
-0.134374,0.0121168
-0.0865745,0.0306629
-0.0514388,0.035082
0.0167311,0.0165851
0.104451,0.003895
0.0828721,0.00942314
0.0721114,0.037397
0.0577662,-0.0785636
0.00483753,-0.105252
-0.023389,-0.0149213
0.00147413,-0.0141922
0.00917266,-0.0108768
0.0108968,-0.014277
0.00547956,-0.00575305
-0.0258993,0.00347108
0.053148,0.0245939
0.0992901,0.0275999
0.0715989,0.00516893
0.0311373,-0.0203502
-0.00499197,0.0110702
0.00255058,-0.0262562
-0.0242614,-0.0202675
-0.0733803,0.00524056
-0.0734722,0.00449288
-0.0245225,-0.0102031
-0.00593331,0.0193453
-0.0177092,0.00127117
-0.0279278,-0.0189752
-0.0236951,-0.0152081
-0.0126892,0.00702435
0.00783068,0.0133677
0.0401011,-0.0031876
0.0431522,-0.0191127
0.0328675,-0.0199457
0.0258167,-0.0239918
0.0316573,-0.0208136
0.025905,0.00232027
0.0186236,0.0209877
-0.0068482,0.0340134
-0.0386748,0.0354808
-0.0439628,0.0249554
-0.0245568,0.0168636
0.0376797,0.0031259
0.0503865,-0.00275906
-0.0507282,-0.00351623
-0.122518,-0.0204897
-0.0922548,0.00510703
-0.00558531,-0.0161255
0.0379366,-0.0259842
0.0757297,-0.0119397
0.0453486,-0.0394995
0.0253081,-0.0425802
0.0124141,-0.0212461
0.0121151,0.0168683
0.013292,0.0219374
0.0102375,0.0280659
-0.0116593,0.0425786
-0.0408039,0.0541893
-0.055493,0.0368774
-0.0445382,0.0657035
0.0233107,0.0244988
0.0273218,-0.035138
0.0203783,-0.0100958
0.0216368,0.00423186
0.0130484,0.0191962
-0.0136633,0.0127863
0.000561967,-0.0303126
0.02028,-0.0450846
0.0231738,-0.036563
0.0272943,-0.0413538
0.0113053,-0.0229745
-0.00262749,0.00204919
0.00247874,-0.00947931
0.00241503,-0.0145752
-0.00677028,0.0104957
-0.0171527,0.016745
-0.0311023,0.0429407
-0.0327401,0.0454005
-0.0376108,-0.0194612
-0.0529501,0.0126848
-0.0522778,0.0411529
-0.047813,0.0171055
-0.0449564,-0.0204182
0.0369507,-0.0339268
0.0926812,-0.0517795
0.00083601,-0.0503147
0.00814061,-0.0365344
0.127852,-0.0141275
0.122953,-0.00429971
0.0315566,-0.011869
-0.0282126,-0.00408703
-0.011939,-0.00348759
0.00104084,0.000924076
-0.0064006,0.0166461
-0.0175058,0.0257803
-0.0365229,0.027328
-0.0366389,0.00157741
-0.0131193,-0.0186698
0.00413696,-0.00665705
0.0213264,0.000837871
0.051162,0.000553283
0.00304802,-0.00865273
-0.0426483,-0.0189111
-0.0378967,-0.0271406
-0.0551555,0.00690437
-0.0451597,0.0310169
-0.0119029,0.0156083
0.0148034,0.00477339
0.00815517,0.01917
-0.0165207,0.0115155
-0.00612954,0.00495509
0.00381011,0.0153953
0.00134093,0.0201595
0.00173447,0.0128464
-0.0109698,0.0109501
-0.0285714,0.0175976
0.00591983,-0.000171931
0.0627393,-0.0217961
0.0678169,-0.0230525
0.0537977,-0.00928045
0.00686419,0.00233844
-0.0444385,0.0202459
-0.0759105,0.0221004
-0.0736363,0.0148634
-0.0344117,0.018782
0.0242597,0.00452751
0.00271415,-0.00315243
0.00516436,-0.00693145
0.0571328,0.00989653
0.0623092,0.0179388
0.0423352,-0.00456839
0.0420665,-0.0177672
0.00675835,-0.0155619
-0.0180669,-0.0128496
-0.0183222,-0.0170224
-0.00485732,-0.0146161
0.0137204,-0.0111438
0.00501184,0.00177749
-0.0043477,0.00881393
-0.00775597,0.00409941
-0.0188737,-0.00497541
-0.0360064,-0.00643862
-0.0423475,-0.00187819
-0.0306432,-0.00152377
-0.0038105,0.00350757
0.00792234,0.0213235
0.00699097,0.0204746
0.0135376,0.00341252
0.0432043,0.0135684
0.0816024,0.0223565
0.0712947,0.0135375
0.00930473,-0.00352065
-0.0602757,-0.0151416
-0.0555009,-0.0106653
-0.0532679,-0.00358583
0.0141925,0.0073391
0.123089,0.00558769
0.138968,-0.0144793
0.018612,-0.0257129
-0.126843,-0.0207088
-0.157444,-0.0192189
-0.158081,-0.011875
-0.10109,0.00686448
-0.00607033,0.00339792
0.0604628,-0.0134387
0.0743925,-0.0120043
0.0409508,-0.00424757
-0.0189148,0.00754262
-0.0310223,0.00456048
-0.0332211,0.00422205
-0.0481406,0.0181385
-0.0122893,0.0303731
0.0607374,0.0262052
0.130458,0.00386107
0.113236,-0.0160489
0.0183808,-0.02546
-0.0159037,-0.0130643
-0.0126775,0.00571037
-0.0174843,0.0312326
-0.0167345,0.0200569
-0.00519929,-0.00200914
0.0119599,0.00186699
-0.000206095,-0.00486789
-0.015173,-0.0156331
-0.0245221,-0.0210185
-0.0226419,-0.0033801
-0.00416863,-0.0073287
0.0134466,-0.013345
0.0062099,-0.0119219
-0.00376096,-0.0186724
-0.0013507,-0.0120836
0.00618202,0.0152274
0.0117656,0.0634262
-0.00254044,0.000352806
-0.0302249,0.00799333
-0.00441224,-0.0179028
0.00902651,-0.0219235
0.00645891,0.00121265
-0.0225614,0.00474806
-0.0452328,0.0394007
-0.0124027,-0.0291323
0.0176389,-0.0305654
0.0139452,0.0611583
0.0336676,-0.00490977
0.0117847,-0.0688766
-0.0136463,-0.0217626
-0.0338382,0.00312532
-0.00880012,0.00727491
0.0756724,-0.019532
0.0944851,-0.0493338
0.0134995,0.0151423
0.0276306,0.0523799
0.027255,0.0279244
-0.00493149,7.44e-05
-0.0678998,-0.000547325
-0.0312916,0.000741677
0.0114849,-0.00471298
0.00161767,-0.015817
-0.00100809,-0.0168803
-0.0183462,-0.0207819
-0.0164854,0.00176832
-0.0097979,0.0143987
-0.00357484,0.00433826
0.00436497,-0.000649365
0.0043383,0.00334967
0.00818813,0.00949721
0.00307183,0.00905089
-0.0177638,0.00925854
-0.0338959,-0.000499877
-0.035885,0.0089895
-0.0293688,0.0186942
-0.00929569,0.0169994
0.0133497,0.0167481
0.0124795,0.0173339
0.0233658,-0.00348303
0.00318254,-0.0171676
-0.0350818,-0.0100279
0.0139473,0.00454762
0.0252304,0.00343067
0.0126389,-0.00362602
0.00527639,-0.0180075
-0.00553345,-0.0290912
-0.024216,-0.0222075
-0.00588166,-0.0321424
-0.0313348,-0.0230906
-0.034793,0.00131588
0.0482469,0.0156197
0.110698,0.0140794
0.10581,0.00914815
0.0685489,-0.00884015
-0.00133212,-0.00319065
-0.0281888,0.00630947
-0.0594279,-0.00288909
-0.0367292,-0.00673969
-0.0430023,0.026733
-0.00059244,0.0284444
0.0585562,0.000866168
0.0169096,0.0024548
-0.0141846,0.00323699
-0.0114771,0.000493277
-0.0484998,-0.00412358
-0.0828732,0.00524576
-0.10355,0.0343128
-0.0755717,0.0338659
-0.0102402,0.0297934
0.0187304,0.0112392
0.0249015,-0.0185349
0.0227706,-0.0254174
0.00479214,-0.0263691
-0.00587837,-0.0198146
0.0135125,-0.00925513
0.0366735,0.00726389
0.0353619,0.00878058
0.0186615,-0.00445233
0.0191823,-0.00170291
0.0254599,0.00443373
0.0218468,-0.000142284
0.0109442,-0.00667721
0.00185367,0.00677564
-0.00312234,0.0199287
-0.00215634,0.0137576
0.0071287,-0.000611375
0.00996065,-0.00831143
0.0284712,-0.00832848
0.0202988,-0.00762371
-0.0181303,0.0176663
-0.0171076,0.0199725
-0.0385988,0.00110994
-0.0474811,0.00912707
-0.041909,0.0155029
-0.0620703,0.00499837
-0.034147,-0.0228509
0.0317907,-0.0711808
0.0558173,-0.0333088
0.00731776,0.0132333
0.00196939,-0.0119413
0.000973424,-0.0326374
-0.0299044,-0.0376947
-0.00993786,0.0224929
0.0171874,0.045665
0.0091527,0.0517352
0.00747463,0.0440866
0.0772557,0.0221038
0.0868561,-0.0072811
0.0698823,-0.0351936
0.0582656,-0.0340996
0.0588446,-0.0167243
0.0164994,0.00569948
-0.0860237,-0.0283402
-0.120317,-0.0185836
-0.0568197,-0.00754776
-0.000103722,0.00754556
0.00805319,0.0141128
-0.0188056,0.0227056
-0.029185,0.019047
0.00304451,0.00822194
0.00846336,-0.00699412
-0.000352491,-0.0184239
0.00227942,-0.00467958
0.00180903,0.00643434
-0.00981219,0.00568356
-0.0262086,0.0130256
-0.026132,0.00784845
-0.0113226,-0.009298
0.00477287,-0.0130885
0.00507256,-0.0103963
0.0133854,-0.0112115
0.0182701,-0.0159802
0.0152891,-0.00421043
0.013665,0.0128846
0.0256851,0.00955876
0.0243887,0.00732231
0.00914095,0.00565004
-0.00362017,-0.00310989
-0.0062807,-0.0101885
-0.00316892,-0.00569715
-0.00235139,-0.00100095
-0.0108143,0.00432938
-0.0189686,0.0127871
-0.012436,0.0045605
0.00642313,-0.0120023
0.00869748,-0.013441
-0.0103786,-0.0110379
-0.0305848,-0.00523772
-0.0327261,0.00291992
0.0157124,0.0187489
-0.00686753,0.0392829
-0.0515172,0.0789403
-0.0686734,0.062099
0.00229596,-0.0479113
0.127916,-0.0595649
0.133323,-0.0207062
0.0748117,0.00682448
0.0183404,0.0172582
-0.016844,0.0151753
-0.0997653,0.0293932
-0.133418,-0.00616253
-0.080414,-0.0278739
-0.0556598,-0.0155678
0.00713603,-0.0200471
0.03059,-0.0519883
0.0144373,-0.0373621
-0.011201,-0.00250281
0.0193847,0.009827
0.0733907,0.0195445
0.0441345,0.0120277
0.0135678,-0.0139603
-0.00548686,-0.0182237
-0.00136637,-0.00879386
0.0139567,0.000620871
0.0089588,0.0095133
-0.0024166,0.0186059
-0.0039137,0.0282325
0.0087886,0.0151625
0.0241536,-0.00183288
0.025897,-0.00616965
0.0176392,-0.00736125
0.00643756,-0.00640869
0.000656378,0.0015348
-0.00301578,0.0111199
0.00055837,0.00635876
0.00354211,0.00229841
-0.005801,0.00397286
-0.0131975,0.000178313
-0.0137786,-0.00376755
-0.0163119,-0.00102467
-0.0132306,0.00112036
-0.0149148,0.00404199
-0.0198084,0.0170823
-0.0152133,0.0105671
0.000776432,-0.00798195
0.0164457,-0.0147331
0.0207524,-0.0142028
0.0178377,-0.0166784
0.0115955,-0.0143107
0.00539475,0.00392487
-0.00597463,0.0136253
-0.0178611,0.00487528
-0.030703,0.00461477
-0.0259703,0.00443188
0.00458038,-0.000808521
0.0147558,-0.00349716
-0.0190281,-0.000585649
-0.0430357,-0.00508727
-0.0325588,0.00709856
-0.0218818,0.0204
-0.0156199,0.00707259
-0.00370389,0.0021862
0.0359688,0.00298126
0.043876,0.002805
0.0568257,-0.0237093
0.0256112,-0.0294911
0.008932,-0.000837351
0.0388701,0.0229967
0.0438068,0.0267783
0.0334098,0.0752214
0.0245187,0.00860625
-0.0214642,-0.0755352
-0.091972,-0.0320348
-0.0909638,0.0258524
-0.0476579,0.0597504
0.0299912,0.0291323
0.0662293,-0.0159917
0.0011191,-0.0361372
-0.0914485,-0.023238
-0.0814196,-0.0155146
0.0270891,0.0153973
0.117569,-0.00854562
0.117222,-0.0394438
0.0806375,0.000652626
0.0112198,-0.0234731
-0.0632509,-0.0267408
-0.0975419,-0.00805725
-0.0713093,-0.000432404
-0.026647,0.00351636
0.0070467,0.0180413
0.0185562,0.0337211
0.0200777,0.000518106
0.0157516,-0.00941236
0.00813874,0.00310636
0.00291475,-0.00203966
0.00492886,-0.00753122
0.00208922,-0.00950462
-0.00875993,-0.0179974
-0.0327883,-0.00743168
-0.0389851,0.0215137
-0.00143444,0.0195934
0.0439294,-0.0139873
0.0440843,-0.00345896
0.00477946,0.0159865
-0.0408302,-0.00201662
-0.056373,-0.000149466
-0.00362631,0.018636
-0.00814084,-0.0014979
0.00386547,-0.00211346
0.00766427,0.0188145
0.0229045,0.0109506
0.0292535,-0.00851065
0.024436,-0.0235487
0.0129969,-0.0207039
0.00689636,-0.0129469
0.00835027,-0.00482887
-0.0030545,0.0150641
-0.00762452,0.0207903
0.000768159,0.0060075
-0.00530396,0.00323367
-0.0139594,0.00424223
0.000131995,-0.00115565
0.0215603,-0.00500828
0.0401909,-0.00791891
0.0486024,-0.000157625
0.0172889,0.033795
-0.0160923,0.0399426
-0.0247038,0.014604
-0.0248891,-0.00661527
-0.0449513,-0.0050741
-0.0762441,-0.00489108
-0.0325272,-0.014035
0.0219699,-0.00695546
-0.00220308,0.0132613
-0.00721017,-0.00105838
0.00886764,-0.0291432
-0.00831026,-0.0357575
0.0484512,-0.018248
0.049997,-0.00521221
0.039992,-0.00488498
0.0152138,0.00476619
-0.024727,-0.00971643
-0.0376506,0.0130845
-0.0619718,0.0333921
-0.0505198,0.0303295
0.018522,0.0277278
0.0429458,0.00264604
0.054455,-0.0374121
0.0773345,-0.0311673
0.0811814,0.016574
0.0383068,0.0187746
-0.0381635,-0.00940756
-0.0859854,-0.0221421
-0.0849017,-0.0141923
-0.0890818,-0.00339587
-0.0621086,-0.0043807
-0.0101227,-0.0102532
0.0180842,-0.00761389
0.0142528,0.0251333
0.0110345,0.0639926
0.00548639,0.00867614
0.00848605,-0.020577
0.0364532,-0.0182982
0.0501199,-0.00591493
0.030425,-0.00659803
0.0172164,-0.0123535
-0.00272379,-0.000674421
0.00575889,0.00343587
0.0224,-0.00678626
0.000487285,-0.0084296
-0.00613725,-0.00790919
0.00748232,-0.00833931
0.0101154,-0.00762564
0.0025017,-0.000600752
-0.00476001,0.00197048
-0.0313264,0.0229501
-0.0325688,0.0364882
-0.0101375,0.0219388
-0.00491335,-0.00403255
0.00364955,-0.013212
-0.0163189,-0.00981688
-0.0131063,-0.0186969
-0.00924516,-0.0121206
-0.0196226,0.00454884
-0.0244146,0.00891533
0.00398911,0.00077322
0.00708354,0.00164619
-0.00693491,0.0117657
-0.0100692,-0.0246616
-0.0146273,-0.00758988
0.0219237,-0.0130971
0.0915778,-0.0124581
0.0751761,0.0118391
0.0571989,0.0348565
0.0366759,0.0109229
-0.0348328,0.0177006
-0.0591966,-0.0158226
-0.0170738,-0.0366509
-0.00842133,-0.00739221
-0.0430806,0.0375465
-0.0415011,0.0509258
-0.00594784,0.0407958
0.00748989,0.0569755
0.00423619,0.0338712
0.0285479,-0.0745542
0.0207183,-0.0877478
-0.0140033,-0.0253571
-0.00984701,-0.0156823
-0.00501245,-0.00233492
-0.0158375,0.0158624
-0.0195827,0.0294396
-0.072829,0.0127252
-0.0294662,-0.0137098
0.0304081,-0.0167437
0.0224572,-0.0137425
0.0233031,-0.00837344
0.0198699,0.00806908
0.0345386,0.00539701
0.0466735,-0.0215622
0.0324285,-0.00708623
0.00453456,0.0107769
0.00122495,-0.00239413
0.00788006,-0.0384312
0.00410288,-0.0348064
-0.0202809,0.0093852
-0.0599328,0.0396905
-0.0427201,0.0253583
-0.0104939,-0.0202759
-0.00746744,-0.00217194
0.00146905,0.0146152
0.0266891,0.0214936
0.0262473,0.0143769
0.0188497,-0.000457126
0.0290239,0.00643592
0.0437991,0.00655484
0.0143423,0.00284478
-0.0375269,0.00445015
-0.0367902,0.00463296
-0.0109194,-0.0125295
0.00558941,-0.0299751
0.00360201,-0.0156289
-0.0113625,0.0125334
-0.0263154,0.0295628
-0.0344034,0.0256169
-0.0170556,0.0290361
0.0263959,0.0176013
0.0479035,0.0197587
0.041958,-0.0384554
-0.00584791,-0.0442338
-0.0228639,-0.0336517
-0.035455,0.002962
-0.0556421,0.0144296
-0.033357,-0.00820432
0.00267913,0.00730158
0.0196874,0.00730281
0.0200062,-0.015507
0.0149072,-0.0097809
-0.00242602,0.00820406
-0.00704086,0.0118823
0.0156554,0.00425841
0.0204798,0.011708
0.0188417,-0.00876005
0.00953053,-0.0234027
0.00293986,-0.0375254
0.00764224,0.0272991
0.0118925,0.0418113
0.0131155,-0.0187554
-0.00615069,-0.0161076
-0.0210257,0.0187859
-0.0140476,0.0164536
-0.0343195,-0.0221644
-0.00423934,-0.0224396
0.0799121,-0.00559966
0.0351969,0.0190127
0.00486287,0.0114373
0.0133823,-0.0129482
-0.0322842,0.0373004
-0.0930745,0.0395363
-0.0808648,-0.0378411
-0.023021,-0.042625
-0.0485684,0.0278867
-0.0412755,0.0270372
0.0568603,-0.0474513
0.0586499,-0.0329845
0.0438761,-0.00540734
0.059188,-0.0102218
0.0234718,-0.00627558
0.00469795,0.000473006
-0.022602,-0.00303245
-0.0428488,-0.0077322
-0.00676566,-0.00656748
0.0395033,0.0122536
0.0359265,0.0546601
0.0329081,0.0640431
0.034549,0.015249
0.0285256,-0.0430256
-0.018061,-0.0181784
-0.0252517,-0.00704
-0.0111252,-0.0317956
-0.0456965,-0.0265528
-0.0438774,0.0146176
-0.0119142,0.0168483
0.0108336,0.00152587
0.0125496,0.00421569
0.0125877,0.0039523
0.0133893,-0.0105142
-0.0128336,-0.00475245
-0.0179307,0.00396606
-0.00778182,0.00503127
-0.00706081,-0.00101354
-0.00123758,-0.00412355
0.0176774,0.0202956
0.0257977,0.0204831
0.00502047,0.030191
-0.00178127,0.00210597
-0.0112091,-0.00357202
-0.0519691,0.0278316
-0.0373193,0.0381795
0.0254778,0.00971337
0.0279205,0.00161186
-0.0250283,-0.0227681
-0.0451691,-0.0416392
0.00920831,-0.0387463
0.0397133,-0.0176755
0.0353461,-0.0121778
0.0278313,-0.00510507
0.00389629,0.0175584
0.026526,0.0295479
0.00497091,0.0148136
-0.0378864,-0.0123591
-0.0347431,-0.0135645
-0.00622815,-0.00535641
0.00661456,-0.0184041
-0.00556441,0.0260183
0.00380159,0.044554
0.0222839,-0.000342752
0.0634666,-0.0397173
0.0860708,-0.0269022
0.0549531,-0.00164314
-0.00141695,-0.0138513
-0.0555559,0.00639826
-0.0617718,-0.00170251
-0.0644975,-0.0015597
-0.0579171,0.0085823
-0.053597,-0.00092701
-0.0224299,-0.0108719
0.0216753,-0.0119039
0.011652,-0.0219554
-0.00882987,-0.0243878
-0.0126796,-0.00670847
-0.0141039,0.0153577
-0.00892834,0.0174229
0.0180005,0.00167282
0.0213603,-0.002441
0.0187104,0.00402842
0.0222539,0.003815
0.0496228,-0.00239155
0.0766282,-0.00377473
0.00167255,0.0174159
-0.0715564,0.0451122
-0.0548206,0.0554032
-0.0286,0.0346217
-0.0026483,-0.0175377
0.0109928,-0.0389373
-0.0322651,-0.0452719
-0.0666444,-0.0502287
0.0325689,-0.00878035
0.089384,0.0245755
0.130134,0.0315341
0.173492,0.0256025
0.101627,-0.00645006
-0.0383914,-0.010449
-0.137806,-0.00638575
-0.15938,0.0178564
-0.111155,-0.00920448
-0.0432125,-0.019703
0.0484867,-0.0176793
0.0691673,0.000880889
0.0533956,0.014122
0.0161399,-0.00510403
-0.0328589,-0.000993976
-0.0195815,-0.00695264
-0.0208492,0.0184577
-0.0356701,0.0303917
-0.033791,0.0136495
-0.024844,0.00362212
-0.019725,-0.00410353
-0.00793738,-0.0129977
0.0227713,-0.0262696
0.0393194,-0.0118849
0.0293551,-0.00333366
0.00871181,-0.0245426
0.0146884,-0.00105666
0.0310781,0.0132873
0.026171,0.0152869
0.00848169,-0.0105828
-0.00912778,-0.0069273
-0.00266507,-0.0147665
-0.00431041,0.010496
-0.00607099,0.0338286
-0.00533233,0.0444421
-0.0119388,0.00861132
-0.0199873,0.00194739
-0.0193671,0.0123344
-0.0110838,-0.00879949
-0.0102968,-0.00997246
-0.00853299,0.0186703
-0.000426253,-0.00226539
-0.000234798,-0.00684424
0.00169646,-0.017351
0.0214643,-0.0278959
0.0599063,-0.0224316
0.0509547,-0.0131591
0.0113655,-0.00808176
0.000117525,-0.00313202
-0.0260782,0.0128928
-0.0221504,0.0263542
-0.00228056,0.0510733
0.0129581,0.0208091
-0.00903699,0.00159618
-0.0581158,-0.0145622
-0.0486489,0.0142933
-0.00274851,0.00453427
0.00947056,-0.0396908
-0.0155196,-0.0306126
-0.0123414,-0.00856317
-0.0186206,-0.0023639
0.0192747,-0.0179517
0.0262228,-0.0187659
-0.0139437,-0.00755505
-0.017553,-0.00690578
0.000373634,-0.00809922
-0.00360456,0.0118416
0.00529905,0.0206124
0.0118182,0.0086753
0.00902934,0.00742337
0.0382204,0.00503729
0.0427367,-0.00416919
0.0186731,-0.0143071
0.00840304,-0.014901
0.00649415,-0.0122542
0.00453653,0.00474757
0.0126984,0.015288
0.0221687,0.00333703
0.0222288,-0.00534268
0.0140348,-0.00212373
0.00369721,-0.00686268
-0.0030203,-0.000749139
-0.00673705,0.0245658
-0.0119502,0.0478894
-0.0137471,0.0198168
-0.0194937,-0.0141354
-0.0290869,0.0064588
-0.000327443,0.0211246
0.0228082,0.0144454
0.0140926,-0.0156885
-0.00340275,-0.0469033
-0.0296233,-0.0421105
-0.0710393,0.0417154
-0.0699097,0.0396962
-0.0248508,-0.00463023
0.0112955,-0.0148988
0.0282282,-0.0161714
0.10187,-0.0325444
0.06211,-0.00147664
0.00160375,-0.00135218
-0.00459896,0.0137021
0.0116157,0.0310469
-0.0456061,0.0303479
-0.0402842,0.0236466
-0.00759606,-0.0221184
-0.0218186,-0.0372028
-0.0357852,-0.0381592
-0.0272602,-0.0114798
-0.0120118,0.00453612
-0.0052028,0.0122657
0.00448492,0.00381978
0.0210583,-0.0181711
0.0593672,-0.000295446
0.04656,0.00161561
0.000942285,0.00392706
-0.0215561,-0.00200073
-0.0191552,0.00060866
-0.0093925,0.0262925
-0.00134319,0.00206176
-0.010622,-0.00456954
-0.010139,0.00159111
-0.00391696,-0.00586079
0.0168582,-0.0144015
0.0374775,-0.00299072
0.0220202,0.006579
-0.0194941,-0.000913017
-0.0407077,0.00194687
-0.0199908,-0.00444574
0.0145744,-0.0223707
0.00697325,-0.00848842
-0.00167397,-0.00145613
0.0146237,-0.000337416
0.0131044,0.0105732
0.0125109,0.0281178
-0.00851583,0.00767751
-0.0406269,0.00376515
-0.0190746,0.0199195
0.0314034,-0.000944425
0.0402588,-0.0333442
0.00116821,-0.00342438
-0.0477363,0.0271669
-0.0298773,-0.00946117
0.0559971,0.0290447
0.0718115,0.0691755
0.0197056,0.0338104
-0.0280492,-0.107638
-0.0218379,-0.0566243
-0.00263737,-0.00740297
-0.0116034,-0.00592589
-0.0506676,0.00173736
-0.0329487,0.0126996
0.000475071,0.0232177
-0.00700206,0.0115277
-0.0143469,-0.00546268
0.0120226,-0.00370601
0.0665672,-0.00415435
0.0584081,-0.0030599
-0.0142486,-0.0102372
-0.0458938,0.000118573
0.00859849,0.0204307
0.03356,0.0150456
0.0241056,-0.00246679
0.0202067,0.00300925
0.0151642,0.00347979
-0.00209015,-0.00370881
-0.0120608,-0.013174
-0.0253793,0.00787628
-0.0364892,0.0319707
-0.0370719,0.0215009
-0.0219968,-0.00176372
-0.0124936,-0.0104986
0.00132386,-0.0140005
-0.00372329,0.0113579
0.0225927,-0.000636288
0.0187799,-0.0221966
0.00716721,0.00625059
0.0129883,0.00816641
-0.0240633,-0.00693838
-0.0456474,-0.0113164
0.0137762,-0.0128596
0.0672341,-0.0134564
0.0229936,-0.0146468
-0.00163187,-0.02028
-0.0119801,0.00570231
0.00833098,0.0154415
-0.00936956,0.00282496
-0.0139755,-0.00183689
-0.00472759,-0.00837959
-0.00267085,-0.0207529
0.00854662,-0.0171808
-0.000368628,0.00809302
-0.00785212,0.0148189
0.000193078,0.0480328
0.0121486,0.0670262
0.0169342,-0.0155497
0.0125647,-0.0396951
0.00556333,-0.0154213
-0.00283436,-0.00680892
-0.012345,-0.0103364
-0.0211479,-0.000492747
-0.0174549,0.0216576
-0.00857252,0.0260509
-0.0134577,0.00601474
-0.010918,-0.0164843
-0.00818236,-0.017503
-0.000778086,-0.0183973
0.00666936,0.00733793
0.00634903,0.0162704
0.00311389,-0.0192294
-0.00474426,-0.0114364
0.0046224,0.0396309
0.0253631,0.019666
0.0437922,-0.0249936
0.066349,-0.00930436
0.0597684,-0.00865181
-0.00134561,-0.0315337
-0.0744594,-0.0073919
-0.081902,0.0460007
-0.0331446,0.0657545
-0.00260514,0.013484
-0.00439979,-0.0275585
0.00405,-0.0433883
-0.00242002,-0.0319948
-0.0175867,-0.0138604
-0.0299741,-0.00186054
-0.0321765,0.00756451
0.00147128,0.0143631
0.0163824,0.00640617
0.0142958,-0.0063604
-0.00029581,-0.00851077
0.00733332,-0.00276627
0.022884,-4.7e-05
0.042685,-0.00865639
0.037496,0.00803985
0.0123946,0.0139987
-0.0114572,0.00186676
-0.0347884,0.00485688
-0.0285125,0.00512356
0.00900251,-0.00272829
0.0443675,-0.00739774
0.0503483,-0.0038768
0.0171048,0.00783044
-0.0333987,0.0271704
-0.0550611,0.00152664
-0.0408523,-0.0084284
-0.0286339,-0.00297832
0.0211411,0.000892017
0.0382065,0.0206284
-0.00375322,0.00516452
-0.0129497,-0.0220329
0.0140315,-0.0150539
0.0405252,-0.00387487
0.0139592,0.004917
-0.0551238,0.0300592
-0.109389,-0.0122836
-0.0686229,-0.0166301
0.0301801,0.00651652
0.0500519,-0.00477214
0.0278384,0.0032799
0.0688137,0.00844333
0.0886433,-0.00159344
0.011094,-0.0231547
-0.0263712,0.0268107
-0.0135386,0.00908111
-0.00376049,0.0212302
0.00178677,0.0684229
0.00204981,-0.0354371
0.00228176,-0.0567364
0.00682487,-0.0248506
-0.00254775,-0.0185508
0.00577948,-0.00708873
0.017005,0.00287154
0.0129086,-0.00399509
0.00136253,0.00802349
0.0064424,0.0151567
0.0183742,0.0162434
-0.00613998,-0.00931514
-0.0561295,0.00473477
-0.0576412,-0.00504259
-0.0220093,-0.0285247
0.00345493,-0.0201546
-0.00567766,-0.0113205
-0.0369593,0.00478507
-0.0367249,0.00964587
-0.00287155,0.0115019
0.0134865,0.0135899
0.0175836,0.00670232
0.0221084,-5.16e-05
0.0139669,-0.0112253
0.00954552,0.0229018
0.0158451,0.0451926
0.0176637,0.00327835
-8.54e-05,-0.0176015
-0.00366946,-0.00891364
-0.00527654,0.00617937
0.000784899,-0.00422082
0.00734666,-0.0306895
0.0224925,-0.0321571
0.0119986,-0.022578
-0.00864986,-0.00225479
-0.0185136,0.0221843
-0.0155412,0.02389
0.00175107,0.020581
0.0297932,0.0221028
0.0250028,0.00836969
0.00698355,0.0180393
-0.0109844,-0.0156747
-0.0413726,-0.02044
-0.0324561,-0.00407488
-0.0122528,0.000481813
-0.00695939,-0.0107466
-0.00583368,0.0104423
0.00296858,0.0118708
-0.00304663,-0.000156359
-0.000457572,0.0028925
0.0446639,-0.0212438
0.0684134,-0.0124291
0.0320503,0.026603
-0.0342258,0.0255573
-0.0830095,0.00938643
-0.0758892,-0.00156802
0.00320736,-0.00905981
0.02231,0.00134817
-0.0116127,-0.00548707
0.0135408,-0.0220398
0.0809153,-0.0129729
0.0428044,0.00650172
-0.0212918,-0.000570828
-0.0429433,-0.0135339
-0.0368303,0.00803066
-0.0148153,-0.0203434
0.013577,-0.0298951
0.0175257,-0.0327373
0.00529994,0.0150786
-0.0101954,0.0525208
0.000482743,0.0274454
0.0177973,-0.014139
0.0163277,-0.00750078
0.0306351,-0.00820758
0.0451326,-0.0183484
0.0113272,0.00818192
-0.022676,-0.0365607
-0.0345395,-0.00508679
-0.00246076,0.0266487
0.00757909,0.017112
0.00563302,0.0219764
-0.00693658,0.00942388
-0.00390093,-0.0209191
0.0244061,-0.0173145
0.0460872,-0.0021656
-0.0337357,0.00263155
-0.0485589,0.00521341
-0.0141015,0.00984979
-0.00612951,0.0101264
-0.0166273,0.033465
-0.0139976,0.0279515
0.0049188,-0.0200205
0.037625,0.0241355
0.0183057,0.0602728
-0.0339558,-0.00837419
-0.0385317,-0.0475159
-0.00409418,-0.0288846
-0.0118124,-0.0289899
-0.00330443,-0.00646257
-0.00978572,-0.00977716
-0.0103027,-0.034851
0.0170101,-0.00910195
0.0251179,0.00793736
0.0444253,0.0160927
0.0219322,0.0169175
-0.0297675,0.00390408
-0.0155981,-0.00772832
-0.00878527,-0.00275215
-0.0111663,-0.00937402
0.0246051,-0.00882905
0.0357519,-0.00188803
0.0148031,0.0145665
0.0246216,0.0213823
0.0294299,0.00586692
-0.00467023,-0.0091721
-0.0414701,-0.0174863
-0.0520698,-0.01366
-0.00653809,-0.00743382
-0.0110497,0.0137255
-0.0317046,0.0239708
-0.00329508,0.00259056
0.000642114,-0.00520268
0.0105055,0.0136321
0.0329598,0.0151004
0.0347515,-0.0138139
0.0446531,-0.0072873
0.0199681,-0.0050289
-0.0278887,-0.00126027
-0.028136,0.0161209
-0.00673778,0.00783272
-0.00678757,-0.000934534
-0.0141193,0.0169632
0.00748748,0.0138806
0.0221683,-0.0392444
-0.0121311,-0.0151791
-0.0267948,0.0341152
-0.00695893,0.0208381
-0.0114976,-0.0215166
-0.00899824,0.00759288
-0.00772415,0.0370715
-0.00920439,-0.0230155
0.00778082,-0.0454233
0.00873304,-0.00595938
0.00602375,0.00175366
0.0251954,-0.00174582
0.0402635,0.00611152
0.0328017,-0.00658827
0.0056054,-0.00413662
-0.0325046,0.00312199
-0.042389,0.0387219
-0.0147411,0.000875386
0.00602375,-0.0253604
0.0280104,0.00128248
0.0469891,0.00560829
0.0362904,-0.00803337
0.0294869,-0.0285601
0.00760701,-0.0404386
-0.00440734,0.0148775
-0.0316613,0.0166569
-0.0546779,0.0113712
-0.0422816,0.0564411
-0.000756712,0.0541656
0.00179246,-0.0203619
0.0140748,-0.0377862
-0.0105953,-0.0291787
-0.0447459,-0.0281753
-0.01079,-0.00996674
-0.00492345,-0.00447903
-0.00547458,0.00672469
-0.0133445,0.0147644
-0.0288737,0.00701819
-0.00812485,-0.00806774
0.0327057,0.0134852
0.0740833,0.0135413
0.0338436,0.0147527
-0.042903,0.0202962
-0.0566316,-0.0140377
-0.0239086,-0.014207
-0.0218791,0.0215887
0.00738469,-0.000971839
0.00249084,-0.0112873
0.0227444,-0.0137363
0.0632654,-0.0173905
0.0767128,-0.0119137
0.0433334,-0.0116067
0.00727835,-0.0305473
-0.0300255,-0.00959829
-0.0355563,0.0357498
-0.027413,-0.0197456
-0.0265363,-0.0466939
-0.0618096,0.0276376
-0.0609727,0.0830953
0.0783099,0.0101071
0.161195,-0.0625425
0.0781491,0.00480216
-0.00752202,0.00144425
-0.0474087,-0.00296758
-0.0289594,-0.0152818
0.0130479,-0.00205418
0.00685909,0.00949507
-0.0321446,0.000673561
-0.0517913,-9.57e-05
-0.00996039,0.0181364
0.0346051,0.0146812
0.00760087,-0.000681889
-0.00998983,0.00688979
-0.0114991,0.00765915
-0.0304692,-0.00825565
-0.0624868,4.22e-05
-0.0427255,0.0144672
0.0298574,0.0149879
0.00744269,0.0196959
-0.0637689,0.025434
-0.0642308,0.0238245
-0.0439646,0.00967066
-0.0524811,0.0171494
-0.0302263,0.0162208
0.00753498,-0.00290221
0.039454,-0.0108108
0.0604708,-0.00279934
0.0540948,-0.00968512
0.0395266,-0.0211034
0.0462815,-0.018652
0.0635824,-0.0200706
0.0881837,-0.029572
0.109204,-0.0360288
0.0823613,-0.0310648
0.012406,-0.0280404
-0.0501494,-0.0358185
-0.0899042,-0.0165106
-0.112863,0.0103934
-0.0853894,0.0429528
-0.04806,0.0757706
0.0166454,-0.0326267
0.0253165,-0.0409426
-0.00148218,0.0164816
7.29e-05,0.045615
-0.00797317,0.0402727
-0.0155623,-0.0142366
-0.0203603,0.0131424
-0.0012052,0.0215558
0.00575586,-0.0275534
-0.00522338,-0.00542784
0.0102738,0.0211908
0.0348057,0.0145813
0.0469828,0.0237221
0.065623,-0.0033939
0.0751504,-0.0683899
0.0586879,-0.0640877
0.0424927,-0.0146128
0.0361831,0.00889549
0.0238191,0.0447391
0.0325403,-0.0045857
0.045041,-0.0522894
0.00720662,0.00292989
-0.0441256,0.00832203
-0.0818908,-0.00156668
-0.106318,-0.00263917
-0.0963897,0.00666018
-0.0483046,0.0126353
-0.0680522,0.0328898
-0.0598918,0.0611581
0.0146675,0.075227
0.0316331,0.0278243
-0.0083445,-0.0235183
-0.0331728,-0.0202411
-0.0175038,-0.0162706
0.00709686,-0.0168807
-0.0216833,-0.00589745
-0.0145152,-0.000784423
-0.0145618,-0.00360819
0.0225302,-0.0134775
0.046245,-0.028951
0.027617,-0.0271917
0.0169073,-0.022423
0.0231754,0.0123723
0.0480055,-0.00209087
0.0193809,-0.00159225
-0.0144148,0.00211136
-0.0149431,-0.00397068
-0.00451541,-0.0153737
-0.0196871,-0.00655886
-0.0367622,0.0041601
-0.0125967,0.00362828
0.0328884,-0.0177895
0.0436629,0.000163575
0.0575507,-0.00567964
0.0370497,0.00269184
-0.0123823,0.00786074
-0.0327655,-0.00943429
-0.00567399,-0.0223255
-0.00342413,0.0016676
-0.0390778,0.0345588
-0.057442,0.0252146
-0.0614677,0.030999
-0.0892344,0.0431853
-0.0570538,0.0426164
-0.0153333,0.0350036
0.000848033,-0.0173227
-0.000157287,-0.0293326
0.0591114,-0.0550106
0.0990812,-0.0436608
0.0585276,0.00317025
0.0217838,0.00775199
0.0244298,-0.00516859
0.0444846,-0.0103537
0.0629603,-0.012687
0.0700624,-0.0181244
0.043556,-0.0191316
0.0186611,0.00443516
-0.0108128,0.0100152
-0.0404105,0.00812717
-0.0527915,0.0194294
-0.0661953,0.00410073
-0.0538537,0.023064
-0.00985938,0.0121686
0.0469193,-0.0483728
0.0766137,-0.0376878
0.0317128,-0.00388256
-0.051675,0.0191741
-0.0890695,0.0381714
-0.072049,0.03689
-0.0202313,0.00489909
-0.000392308,0.00670673
-0.0140697,-0.0104954
-0.000930214,0.0055267
-0.000934201,0.0151236
0.00798986,-0.0176133
0.0481178,0.0116699
0.0472746,0.0333389
0.0326142,0.0224628
-0.00068972,0.00926113
-0.0514352,0.00532939
-0.0432325,-0.00836995
0.0203003,0.020395
0.0420734,0.0247792
0.0128819,-0.0263238
0.0050056,-0.0218633
-0.0213924,-0.0182541
-0.0388837,-0.0278027
0.0108712,-0.0199095
0.0329957,-0.0331347
0.0321012,-0.005309
0.0291889,-0.00310575
-0.00170505,-0.00386123
-0.00190113,0.0071918
0.0248563,-0.00693036
0.035417,-0.00962444
0.045157,-0.00193365
0.0595074,-0.0123005
0.0294243,-0.0191933
-0.00694115,-0.000530819
-0.0522769,0.0110028
-0.10252,9.23e-05
-0.089276,0.0119043
-0.0443335,0.0296181
-0.0375494,0.0233219
-0.0416089,0.0044538
0.00759652,-0.0269764
0.0476317,-0.0225947
0.0208376,0.00303202
-0.0400562,0.0382926
-0.0103195,0.0331944
0.056646,0.0205084
0.0596312,-0.0121976
0.041,-0.0493095
0.00764412,-0.0262409
-0.0615187,-0.0244316
-0.0733286,0.0022416
-0.0450721,0.0617902
-0.0148174,0.0576097
0.0221785,0.0332312
0.0490253,-0.0332507
0.0407728,-0.0551166
0.025159,-0.0180309
-0.0121369,0.000357194
-0.0450875,-0.00526107
-0.0747458,-0.0171357
-0.0306271,0.0286056
0.0119005,0.0329225
0.0314031,-0.00755818
0.0367501,-0.00775873
0.0291633,0.0013255
0.0350428,-0.0116202
0.0373578,-0.0123414
0.0305327,-0.00972596
0.0168131,-0.00872813
0.00641896,-0.0160703
0.00640027,-0.0122052
-0.0157053,-0.00518214
-0.0281228,-0.0077102
-0.00867715,-0.0124713
0.00635974,-0.0049813
0.00144171,-0.00249574
-0.00862425,0.0162265
-0.0227678,0.0373018
-0.0174286,0.0364298
0.0101234,0.0443719
0.060093,0.0199376
0.0342947,-0.0244172
-0.0249057,-0.0313121
-0.0633647,-0.00262803
-0.0435043,0.014517
-0.0310439,0.00909081
-0.0326989,-0.013971
-0.0173425,-0.0209674
-0.00709555,-0.00104785
-0.0085276,-0.00731061
0.0163903,-0.00405989
0.0364595,-0.0132303
0.0382458,-0.0138576
0.0408086,0.00862482
0.0511712,0.0108248
0.0566393,0.0125921
0.0379801,-0.00275168
0.0158054,0.00269192
0.00317127,0.00791453
-0.0526961,0.0330374
-0.0360697,0.0180732
-0.0646917,-0.010292
-0.0826885,0.0149557
0.0241239,0.0248264
0.0870368,0.00360339
0.0166512,-0.0297371
-0.0196391,-0.0357047
-0.0183073,0.0192515
-0.0812116,-0.00168723
-0.116009,-0.0126876
-0.0827796,-0.0328403
-0.0274635,-0.0302936
0.0358334,-0.0130581
0.0753279,-0.0370482
0.109723,-0.0230279
0.0844571,0.031622
0.0192216,0.0613025
-0.00937158,0.0428383
-0.00790056,0.0194503
-0.00848361,0.00479729
0.0146003,-0.00791253
0.0489906,-0.0228715
0.0223144,-0.0397909
-0.00551672,-0.0404785
-0.0112557,-0.00601945
-0.0131648,0.0584888
-0.01466,0.00280114
-0.0166512,0.034045
0.00454774,0.00246183
0.00633093,-0.0478838
-0.0173443,-0.0340276
0.0193967,-0.0143125
0.0442379,0.00255758
-0.0155303,0.010593
-0.0704528,0.0133074
-0.041194,0.0123209
-0.019184,0.0226311
-0.0158997,0.000843006
0.0251805,-0.0264081
0.0442566,-0.0144141
0.0174816,0.00156365
-0.00339074,0.0238687
-0.0311682,0.0559088
-0.0148913,0.0443564
0.0110184,0.0123425
0.0363034,-0.0108072
0.0283423,-0.0348379
0.0166724,-0.0485377
-0.00503445,-0.0159298
-0.0331352,-0.00533531
-0.0242425,0.0064891
-0.00438528,0.00993783
-0.00363209,0.0149527
-0.0232722,0.032574
-0.0415496,0.0122202
-0.0311971,-0.0065045
0.0111283,-0.0230638
0.0114153,-0.0301032
0.0151552,-0.0197889
0.0622037,-0.000585674
0.0145447,0.0176429
-0.000781962,0.00191955
0.0331129,0.0116112
0.00140455,0.0250956
-0.0275246,-0.0369321
-0.027136,-0.0399516
-0.0230433,0.0291646
0.0121585,0.0544841
0.00924842,0.00777615
-0.0297281,-0.031993
-0.0135411,-0.0345077
0.0154213,-0.00430531
0.0309959,-0.00475606
0.0183242,-0.0234236
0.00616508,-0.0146504
-0.0043508,0.0102252
-0.0153722,0.0398466
-0.00897694,0.0421898
-0.0023979,0.0230635
0.00134284,-0.0304718
0.00272319,-0.0316666
0.000253145,-0.00535621
-0.00202491,0.00695598
-0.00993324,0.0271143
-0.0076899,0.0310887
0.0013535,0.00524606
0.00773295,0.000315634
0.0197767,-0.0190918
0.0259736,-0.032826
0.0198895,0.00124311
0.00258113,0.00186062
-0.0194656,0.0120557
-0.0325455,0.00646686
-0.0424545,-0.0367758
-0.0237319,-0.0194476
0.00446049,0.0217354
0.00804275,0.034193
0.000522822,0.00308865
0.0199803,0.00983023
0.0110017,0.0137835
0.00179483,0.000288779
0.00349277,0.00560118
-0.00378877,-0.0146776
-0.00900079,-0.00948752
0.00117277,0.00524355
0.0219216,-0.0156536
0.0256961,-0.0395355
0.016892,-0.0257263
0.0324757,-0.00384577
0.0412838,0.0112669
0.0401341,0.00278556
0.0493928,0.005011
0.0299313,-0.00975223
-0.00872579,0.008277
-0.0546712,0.0390516
-0.0849949,-0.0127837
-0.0709822,-0.0239785
-0.040177,0.0149849
-0.0260053,0.0105709
-0.0107574,-0.00565684
0.00753703,0.00321783
0.00929673,0.00678294
0.00849477,-0.0248992
-0.00351113,-0.0323616
-0.0199444,-0.00592837
-0.00602175,0.0169099
0.0117155,0.0239814
0.0146709,0.00995398
0.0115095,-0.00241374
-0.00219487,-0.00834387
-0.00684042,-0.00237417
-0.00478094,0.0184383
0.00278105,0.0136793
0.00894551,0.016346
0.0110113,0.054136
0.0261171,-0.0020837
0.0132779,-0.0142463
-0.00657462,-0.0235716
0.0139014,-0.0334414
0.0380234,-0.031081
0.0205678,0.0062253
-0.0190898,0.0162041
-0.0241482,-0.0149527
0.00748121,-0.0023325
0.00628999,-0.00581538
-0.0200439,-0.0175588
-0.025338,0.0118416
-0.00126021,7.44e-05
0.0144595,0.00381631
-0.0195083,0.0184832
-0.0552709,0.0504999
-0.044034,0.0170788
-0.00358008,-0.00715001
0.00206905,0.00115338
-0.0172813,0.0173632
-0.0163495,-0.000779539
0.0159796,-0.0158897
0.0423254,-0.0142717
0.0444504,-0.00456801
0.033172,-0.00920248
0.00703874,0.00992082
-0.00440664,-0.0108002
0.00284577,-0.0220297
0.0301303,0.000936492
0.0489363,-0.00554343
0.0443087,-0.018373
0.0329018,-0.00253129
0.00781562,0.00214641
-0.0227113,0.014671
-0.0323352,0.0321416
-0.0221262,0.0201612
-0.0172704,0.00344137
-0.0221435,-0.00899374
-0.0143684,-0.0306088
-0.0143399,-0.0270403
-0.0360191,0.00602208
-0.0497397,0.0328091
-0.0672256,0.00633514
-0.0302364,-0.00915783
-0.0104636,0.0110592
0.04389,0.00678546
0.10826,-0.0240344
0.0615458,-0.0390433
-0.00559245,-0.00951535
-0.0320707,0.0129282
-0.023714,0.00503357
-0.00250827,0.019141
0.00729209,0.0288903
0.039918,-0.00486215
0.0725504,-0.0407824
0.0896844,-0.0166132
0.0435366,0.0113674
-0.0175991,-0.00795225
-0.0312078,0.00600729
-0.0454503,-0.00872717
-0.0940781,-0.0245404
-0.0823942,-0.00624546
-0.0315547,0.0164597
-0.00185725,0.0218307
0.0122798,0.0127134
0.0356534,0.0211074
-0.0255608,0.00435994
-0.0461469,-0.0314585
-0.0163288,-0.0186082
-0.00661741,0.00209513
-0.00570354,0.000399064
0.00936302,-0.00129112
0.0134555,0.00894216
0.00814372,0.00710971
0.00058729,0.0158887
0.0166105,0.0188641
0.0515589,0.00624017
0.0567093,0.00073227
0.0402695,0.00206949
0.00675672,0.0016075
-0.0169187,0.00384868
-0.018707,0.00312571
-0.0347822,0.00936899
-0.0526159,0.00702996
-0.0101528,0.00696764
0.0248083,0.00160945
0.0357819,-0.0160933
0.0291699,-0.01103
0.00422946,-0.00428501
-0.0192163,-0.0124336
-0.0228886,0.00573118
-0.0366,0.028423
-0.0371153,0.0112115
-0.0149138,-0.01533
-0.00527063,-0.0375509
0.000930701,-0.0225734
0.00202391,-0.0265521
0.000909187,-0.0188815
0.00183336,0.00926389
0.0148764,0.0247522
0.0636174,0.0160498
0.0813461,0.0298449
0.0443938,0.0372404
0.0189631,-0.0271847
0.026015,-0.00355039
0.0316053,-0.0198363
0.0282222,-0.00796641
-0.0105928,0.00860387
-0.0355371,0.0131636
-0.0612794,0.00192741
-0.0845789,-0.0124819
-0.0787934,-0.0131541
-0.0713426,-0.0118588
-0.0427604,-0.0168742
-0.00616788,-0.016073
0.0321706,0.00647393
0.0687739,0.0158192
0.0681707,0.00318942
0.0434371,0.00320019
0.0171039,0.0019892
-0.0241766,0.00306637
-0.074948,-0.0100876
-0.0819933,-0.0104672
-0.0423853,-0.00538079
-0.0180756,0.0106646
-0.0085203,0.0171381
0.0206528,0.0039389
0.0279584,-0.000480269
0.0172034,0.00732399
0.00238959,0.0106003
0.0125413,0.00384241
0.0934526,0.00615506
0.206294,0.0255493
0.230675,0.0235818
0.165352,0.00746287
0.0296851,0.0067903
-0.10782,-0.00169613
-0.190863,-0.0105204
-0.175248,-0.00276691
-0.131374,0.00492788
-0.103322,0.0109723
-0.0383421,0.0145443
0.0768463,0.00445705
0.110543,-0.010223
0.0332069,-0.0169061
-0.063852,-0.0238988
-0.122006,-0.0312383
-0.114207,-0.0376824
-0.0898015,-0.0136603
-0.0628477,0.0170253
-0.0267541,0.0109046
0.000810023,0.00598019
0.0158807,-0.0062995
0.013962,-0.0130138
0.00960903,-0.0121602
0.027557,-0.0102257
0.0624027,-0.00482917
0.154936,0.0120891
0.219075,0.0200561
0.243204,0.012721
0.258286,0.00253173
0.172911,-0.000991411
0.136982,-0.007979
0.072882,-0.0168009
-0.130413,-0.0153569
-0.330731,0.00566596
-0.322358,0.0130308
-0.165333,0.0115101
-0.011708,0.0164442
0.12043,0.00108933
0.115281,-0.0105713
0.0189843,-0.0107227
-0.127665,-0.00610771
-0.223477,-0.0122216
-0.231693,-0.00290031
-0.156756,0.00566533
-0.065228,-0.00641656
-0.0308365,-0.0123212
-0.00332151,-0.00896807
0.0171529,-0.00770273
0.0243154,-0.00680548
0.028069,-0.000832919
0.0324305,0.00954905
0.02809,0.00766159
0.0389434,0.00155725
0.116822,0.00421854
0.322984,0.00693026
0.425613,-0.000520359
0.32529,-0.00344542
0.0665089,0.00786894
-0.229363,0.0176129
-0.389884,0.0295792
-0.35365,0.0261542
-0.183376,0.0128942
-0.0104754,0.00496828
0.114819,0.00260859
0.105622,-0.00457413
0.0071615,-0.016331
-0.0448715,-0.00950529
-0.087396,0.00554249
0.0147516,0.00160944
0.236836,0.00189121
0.308282,0.00269261
0.136987,-0.0113308
-0.0963577,-0.0200757
-0.313547,-0.016809
-0.328951,-0.0104144
-0.136905,0.00231807
-0.0268704,0.0182187
0.00966067,0.0102549
0.0411906,-0.00770951
0.0595972,-0.0121634
0.0417171,-0.00800383
0.0154751,-0.00690052
0.030831,-0.00496789
0.111917,0.00771608
0.142642,0.0116477
