Comp Ch 3,Comp Ch 4
-0.287719,0.0106132
-0.164508,0.0150852
-0.0895669,-0.0137754
-0.0822485,-0.00295955
-0.0536674,0.0309396
-0.0226951,0.0249516
-0.038291,-0.0306416
0.00276752,-0.029684
0.126418,-0.0144537
0.165372,-0.0294731
0.125578,-0.0415275
0.064953,0.012486
0.0365468,0.0380574
0.0203347,0.0174077
0.0132699,0.00561801
0.0151102,0.0543809
-0.000138337,0.024265
-0.0202748,-0.0181377
0.0191381,-0.0113169
0.0551254,0.00987853
0.0462789,0.0331235
0.0107775,0.054128
-0.08345,0.021938
-0.0969138,0.0193883
-0.0732689,0.00936988
-0.0614748,-0.0573998
-0.0330659,-0.0437659
0.0098908,-0.0560778
0.0720144,-0.051933
0.0472315,-0.0234841
0.0607656,-0.00828779
0.113404,0.0271471
0.0792887,0.0357645
0.0668483,0.0334554
0.0382871,0.00173283
0.0109202,-0.0111637
-0.00330855,-0.0220334
0.0120118,-0.0256867
-0.00194498,-0.01456
-0.0271946,-0.00694143
-0.0363066,0.0122336
-0.0398021,0.0272368
-0.0503393,0.0162806
-0.055906,0.00215804
-0.0489663,-0.0027134
-0.0411746,0.00727304
-0.0297866,0.00103258
-0.0166225,0.00730203
9.29e-05,0.0213769
0.020694,0.0146608
0.0429288,0.00416723
0.0522009,0.00197281
0.0412253,-0.0133509
0.0279598,-0.0290227
0.022114,-0.0310359
0.0221141,-0.00922908
-0.00954952,0.025415
-0.026544,0.0400389
-0.00688038,0.0098975
-0.0065698,-0.00630108
-0.0418109,0.0119371
-0.0832984,0.0252573
-0.081887,-0.00898059
-0.0442056,-0.0380276
-0.0202754,-0.0176068
-0.037333,0.0038731
-0.0522579,0.0243554
-0.0403529,0.0492068
-0.0124781,0.0603649
0.0223646,-0.0468907
0.0966677,-0.10892
0.134024,-0.0446074
0.0682989,-0.0143963
0.0152158,-0.0134884
0.00174279,0.00900015
0.00338658,0.00893701
0.0162087,0.0211481
0.0120369,0.031433
0.0629197,0.0175988
0.160159,0.00664544
0.116203,-0.00496278
-0.0430169,0.0120601
-0.184803,0.00120069
-0.176292,-0.0222715
-0.0674035,-0.0117728
0.0136445,-0.00243345
0.0301613,0.00080257
0.0450712,-0.00502128
0.0264555,-0.00366851
-0.00946422,-0.00960484
-0.0532169,0.00581852
-0.0807004,0.0214626
-0.0988043,0.0119642
-0.0711417,-0.00937273
-0.0193278,-0.0136911
0.0217618,-0.00372265
0.0415093,-0.00384573
0.0496377,-0.00868844
0.0553549,0.00967725
0.0730159,0.0171402
0.0682498,0.0111892
0.0396068,0.00410729
0.00886534,-0.00464435
-0.0176341,-0.00678434
-0.0151609,-0.0126167
-0.00128891,-0.0182182
-0.0102381,-0.0163539
-0.00348061,0.011745
0.0069948,0.0199647
-0.0253721,0.00704936
-0.0246111,0.000857565
9e-05,0.00431328
-0.00372567,0.0064533
-0.0101677,-0.00297408
-0.00603506,0.0133541
-0.00315534,0.0228109
-0.0142623,0.0150785
-0.0190777,0.00331473
-0.0122316,-0.00436942
0.0267881,-0.0115161
0.0712963,-0.0200425
0.0570651,-0.0174553
0.0469708,-0.017223
0.0202541,-0.00118829
-0.0265268,0.0206088
-0.027957,0.0187608
-0.0160645,0.0263338
-0.00564522,0.00926883
-0.00142242,-0.0277055
-0.00585501,-0.0339141
-0.00290455,-0.022866
0.00206095,0.0038388
0.0147206,0.0114829
0.0179779,-0.00119378
0.00393161,0.0091288
-0.00997998,0.026822
-0.00782617,-0.00976826
-0.00128744,-0.00461762
0.0166149,-0.0103406
0.0168518,-0.0291625
-0.0115286,-0.00263078
-0.037579,0.0213174
-0.0574287,0.0106318
-0.0474805,0.00230653
-0.0144827,0.00765411
0.00164672,-0.00997461
0.00839586,-0.0329818
0.0226271,-0.0218794
0.00757679,0.0128555
-0.0366443,0.0310056
-0.0360075,0.0308451
-0.0309123,0.00577001
-0.0359533,-0.0146265
0.0559322,-0.0237444
0.102803,-0.0168275
0.0578777,-0.0020056
0.0088796,0.0142961
-0.011357,0.00938674
-0.00391657,0.014486
-0.0135645,0.0030141
-0.0156187,-0.00870268
-0.0130906,-0.0136506
-0.00502435,-0.0145187
-0.0110665,-0.00744025
-0.0228306,0.00811847
-0.0030141,0.0167002
0.0227551,0.00456632
0.0205906,-0.00757414
0.0167325,-0.0032704
0.0177876,-0.00130645
0.0340103,-0.00439179
0.040951,-0.0127652
0.00918463,-0.0205113
-0.0125617,0.023916
-0.0291974,0.0391091
-0.0177543,0.00851753
0.0087052,-0.00171661
-0.0106149,-0.0013952
-0.0513964,-0.0237464
-0.0590269,-0.0259538
-0.0102645,-0.00826105
0.0257655,0.0183733
0.0294022,0.037497
0.0235801,0.0333451
0.0190866,0.0126519
-0.00103383,0.00452297
-0.0391091,0.0188192
-0.034895,0.0030678
-0.0109263,-0.010224
0.0110658,-0.0347754
0.0106173,-0.0117383
0.0019986,0.0108901
0.000955711,0.00115848
0.00196061,-0.00935503
0.00327751,-0.00188625
0.00581129,0.00145373
0.00799236,-0.0223909
1.92e-05,-0.0241652
-0.00438523,0.00658988
0.0070942,0.0194151
0.00355858,0.0194488
-0.00300634,0.0252604
0.001638,-0.0160642
-0.00151081,-0.0266418
-0.0017393,-0.0261626
-0.012698,-0.0107775
-0.0269527,-0.0063184
-0.0232674,0.0219017
-0.0112753,0.0266763
-0.0231106,-0.0148037
-0.0253582,-0.00920214
0.00653467,0.00231615
0.0273678,0.00853052
0.00941474,-0.000494585
-0.00230415,-0.0329209
0.00561557,-0.0212695
0.0379842,0.0089833
0.0699778,0.0168654
0.0605216,0.0180317
0.0475403,0.00166126
0.0422377,-0.013696
0.00656297,-0.00966038
-0.0446393,-0.00283507
-0.0472713,0.0148069
-0.0403136,0.0315169
-0.0344297,0.0148656
-0.0298992,-0.0135022
-0.0329326,-0.0228214
-0.00775845,-0.0268356
0.0125419,-0.0242613
0.0116288,-0.00957241
0.0114167,0.0259966
-0.00387278,0.0556361
-0.0212043,0.0451418
-0.00566022,0.00790931
0.00594355,-0.012293
0.00214334,-0.00390689
-0.021039,0.00411708
-0.0173953,0.00503423
0.0571105,-0.00547252
0.0593503,-0.00459014
0.00788514,0.00589578
-0.0052467,-0.00539357
-0.00537879,-0.0195035
-0.00111877,-0.0220925
0.00802576,-0.0247812
0.000152537,-0.026358
-0.00535764,-0.0116271
-0.00365689,0.0206812
0.00559047,0.0319445
0.0155538,0.0131945
0.0108253,0.00240354
-0.000134434,-0.00032767
-0.00514876,-0.00353571
0.000961786,-0.00531865
0.00534389,0.00369727
0.000433518,0.00630914
-0.0134463,0.0161546
-0.0248893,0.0152258
-0.0312039,0.0198806
-0.0222553,0.00363004
0.000166272,-0.0373327
0.0177407,-0.0158822
0.0101985,-0.0133934
0.00227045,-0.0355054
-0.000228203,0.015776
0.00308249,0.0105374
0.012107,-0.0228801
0.0191531,-0.000414878
0.0204343,0.00502815
0.020282,-0.00524325
0.0135077,0.00389877
-0.0106351,0.0133523
-0.026101,-0.00334456
-0.0332846,0.0198
-0.0584443,0.0111464
-0.098868,-0.00519901
-0.106465,0.000911623
-0.0717042,-0.037814
-0.00858145,-0.0539005
0.0725427,-0.0179939
0.108165,0.0241008
0.0895161,0.0317161
0.0473648,0.0348281
0.00620828,0.0199851
-0.00819806,0.0203428
0.0126619,-0.00347811
0.0363585,-0.0219993
0.0330526,-0.000455926
0.0286265,-0.00075606
0.00867034,-0.00202935
-0.0198552,-0.000649025
-0.0113574,-0.0106615
-0.0105415,-0.000423584
-0.0139411,0.00352785
-0.0147458,-0.00356904
-0.020361,-0.0292579
-0.027997,-0.0244134
-0.0288756,0.00491443
-0.00891226,0.0177508
0.0401314,0.0184112
0.0542574,0.0237634
0.0383206,0.0208587
-0.00195644,0.0145045
-0.0317494,0.00135971
-0.0448201,-0.00588966
-0.0522794,0.00778908
-0.0246545,0.0142859
-0.0103111,0.0247619
0.0273744,-0.00115439
0.0435355,-0.0226767
-0.00845093,-0.010211
-0.0362166,0.000567195
-0.00801926,-0.00243777
0.0352171,-0.00136763
0.0385135,0.00658894
0.039799,6.25e-05
0.0356055,-0.00227541
-0.0117896,0.0223191
-0.0432146,0.0271849
-0.0372871,-0.044737
-0.0344724,-0.0499259
-0.0282467,-0.0185873
-0.0147585,-0.000835341
0.00764093,0.0247403
0.0224768,0.0282126
0.0222319,0.00385783
0.0187851,-0.0144661
-0.018737,-0.00777194
-0.0421152,-0.0168904
0.0180858,-0.038463
0.024518,-0.0241855
0.0081234,-0.000788183
0.0101033,-0.00397324
0.0235273,-0.00662117
0.0346794,-0.00286802
0.0304881,-0.00655471
0.0166414,0.0105677
0.00362105,0.0163115
-0.010437,-0.0112884
-0.0182779,0.00391996
-0.00872862,0.0267594
-0.0143195,0.0638312
-0.0235531,0.040382
-0.0263906,-0.0311085
-0.0263726,-0.0379641
-0.00549286,-0.0122383
0.00253097,-0.00413318
0.00869648,0.0138073
0.0178837,0.0193762
0.0188402,0.00375378
0.0204357,0.000793645
0.00789922,0.00230481
-0.0195271,0.00568602
-0.0207625,-0.0156908
-0.00502948,-0.0390996
0.00756074,-0.039768
-0.00342856,-5.39e-05
-0.0250491,0.0166755
-0.0188219,0.00413294
0.00702449,0.00904896
-0.000259462,0.0217897
-0.00686825,0.0182844
0.00449234,0.000361289
0.00775174,-0.00168761
-0.00757326,0.0159758
-0.00562547,0.0147183
-0.00508976,-0.0014463
-0.00838595,-0.00209556
0.000514836,-0.000198943
0.00781376,0.00481051
0.0256028,-0.0105997
0.0223926,-0.0179915
0.0242804,0.000423791
0.0257516,0.0118253
0.00908399,0.0101211
-0.0164241,-0.00136152
-0.0373104,-0.0199915
-0.0518167,-0.0126242
-0.0444304,0.00732252
0.00812636,-0.0063681
0.023798,-0.00147799
0.0402129,0.0262283
0.0524742,0.0259107
0.0520721,0.00115519
0.0219515,0.00855052
-0.00306189,-0.0291142
-0.00790979,-0.0399616
-0.00479979,-0.0199296
-0.000542222,-7.93e-05
-0.0250213,0.0218148
-0.0414129,0.0356196
-0.0181457,0.0229797
0.00161666,-0.0161525
0.00746502,-0.012293
-0.00904114,-0.00725855
-0.0440554,-0.0113378
-0.0448073,-0.00957895
-0.0178187,0.0164887
0.015839,0.0251949
0.0460349,-0.00639823
0.0568396,-0.0134863
0.030245,-0.00233045
-0.0017977,-0.0017211
-0.0179445,-0.0116877
-0.0074725,-0.0179455
-0.00476243,-0.00616487
-0.0154198,0.00691399
-0.0346003,0.0173036
-0.0356492,0.0121671
-0.0598407,0.0197507
-0.0558829,0.0187655
-0.0101287,0.00173681
0.0148449,-0.0126586
0.0215173,-0.0194603
0.0302166,-0.00283309
0.0355094,0.00236195
0.0518721,-0.00925999
0.0424856,-0.00516874
0.0182671,-0.0100256
0.0311983,-0.00597375
0.0343568,-0.0043927
0.0155531,0.0252045
0.000115027,0.0370996
0.00420244,0.0444216
-0.000641597,0.0544971
-0.00261317,-0.0110473
-0.0081444,-0.07729
-0.0224193,-0.0517266
-0.027278,-0.0255971
-0.0141323,-0.0328562
-0.0178552,-0.0157651
-0.0171463,0.00476747
-0.00214719,0.014037
0.0106491,0.0086073
0.0143104,0.000393025
0.0189181,0.00240992
0.0171578,-0.0136426
-0.0208885,-0.00619151
-0.0242236,0.00443964
-0.00831967,0.0128492
-0.0121848,0.0274269
-0.0294198,0.019287
-0.044632,0.00726966
-0.0354833,0.00807195
0.0241038,0.0100299
0.0361115,-0.00831286
0.0348733,-0.0147512
0.0501491,-0.0240592
0.0468732,0.00683349
0.00977601,0.0145713
-0.010123,0.00489334
-0.00700218,-0.00649737
-0.026943,-0.029866
-0.0311167,-0.0201282
0.0153354,0.00113064
0.0147436,0.00763285
-0.00660686,0.016344
0.00668746,0.0228124
0.0156155,0.0183943
0.0046614,0.00714515
-0.012104,-6.79e-05
-0.0195983,-0.0107749
-0.0337726,-0.019099
-0.0327737,-0.0176372
-0.0147832,0.00688282
0.00634761,0.0244311
0.00741619,0.0231501
0.00154994,0.0125703
0.00329993,-0.0102678
-0.0111775,-0.0270347
-0.00924284,-0.0151505
0.0272745,-0.00371852
0.0356873,-0.00832939
0.0157655,0.00651048
0.00676801,0.0143032
0.00238896,-6.12e-05
0.0103131,0.00486579
0.0072296,0.00764853
-0.00175616,-0.00533806
-0.00956571,-0.0190923
-0.00941577,-0.0108483
-0.00569661,0.0112286
-0.00574235,0.0222437
-0.0138586,0.00345774
-0.0157792,-0.023931
-0.00941956,-0.0137219
-0.0120528,0.000826074
-0.0206499,0.00836586
-0.0176358,0.00475409
-0.0185315,-0.00594228
-0.00738688,0.0102038
0.0266406,0.0170164
0.022856,0.00451324
0.0143065,0.00792373
0.00615612,0.00976234
0.0125772,-0.00075728
0.0260937,-0.0142038
0.0117617,0.00567358
-0.00885948,0.0111817
-0.000931357,-0.0184484
0.0208231,-0.000585481
-0.00106579,0.0418356
-0.0182559,-0.0286211
-0.00057861,-0.020054
-0.00383649,0.0209632
-0.0201069,0.0039263
-0.0049386,-0.00588408
0.00149034,0.0111194
0.00709199,0.0161682
0.0118237,-0.00436238
0.0209275,-0.010252
0.0298128,-0.0187695
0.0202,-0.019922
-0.00296908,-0.0188161
-0.0154213,-0.00145273
-0.027102,0.00719565
-0.0343238,0.00236079
-0.0322749,0.0114908
-0.0126207,0.00646978
-0.0102107,0.00636715
-0.0158506,0.00595583
0.000371097,0.0035005
0.0335473,-0.0106826
0.0379834,0.00706346
0.0202156,0.030456
0.0241599,0.0135279
0.0173405,-0.0293699
0.014338,-0.0326399
0.0150891,-0.0226284
-0.0118121,-0.0219087
-0.0378742,-0.0128607
-0.057442,0.0184631
-0.0140382,0.0224822
0.0379086,0.00619499
0.00834989,-0.00512476
-0.0357108,-0.00902876
0.0208148,-0.0158087
-0.000120248,0.00164951
-0.0234251,0.017716
-0.00432446,0.0183534
-0.00251351,0.0572999
0.00507928,0.00625747
0.0105154,-0.0132936
0.0143892,-0.0189502
0.0102036,-0.00966464
0.020031,-0.0254687
0.00784908,0.0183996
-0.00807706,-0.015222
-0.012464,-0.0121455
-0.020888,0.0128673
-0.016796,0.0139659
-0.00148357,0.00625331
-0.00204187,-0.0289152
-0.0114078,-0.0287052
-0.00459759,0.00966158
0.00116514,-0.0234378
0.0237708,-0.00878259
0.0374023,0.0109912
0.0399063,-0.00200045
0.0222761,-0.00474289
0.00871683,0.00232667
0.000676017,0.00882675
-0.0118183,0.0156524
-0.0191924,0.0313635
-0.0347312,0.0555471
-0.0297509,0.0149071
-0.0232658,-0.00352272
-0.027792,0.0067964
-0.0252356,-0.0281886
-0.0154874,-0.0409399
-0.00340949,-0.0247909
0.00801363,-0.0163173
0.0127669,-0.000860902
0.0176438,0.0128754
0.0269318,0.00555639
0.0380566,-0.00565617
0.0328767,0.00189413
0.0278936,0.0071391
0.0185132,0.0037786
-0.00212248,0.00754397
-0.0281301,0.0253308
-0.0325419,0.02258
-0.0244876,-0.00268211
-0.0188237,-0.00525218
-0.0154169,-0.0087263
-0.00163337,-0.0174542
0.0106615,-0.0249694
0.0088236,-0.0217788
0.00469178,-0.0261707
-0.0106187,-0.00800781
-0.0112505,0.00722413
0.00791984,0.00334826
0.0218433,0.0140724
0.0178361,0.0165647
0.0115717,0.0149362
0.00879566,0.00655786
0.00863564,0.0113288
0.00587063,0.0294516
-0.021469,0.0209934
-0.0571957,0.00679905
-0.0493233,0.009734
-0.0159489,-0.00568818
0.00251016,-0.0329097
0.0106066,-0.0311004
0.0205939,-0.0230709
0.0228093,-0.0179833
0.0307599,0.00139423
0.0489445,0.0113723
0.0495602,-0.00172408
0.023423,0.00477709
0.00117277,0.00909994
0.00791884,0.0137668
0.0141957,0.0183805
-0.0163324,0.0170613
-0.0309563,0.0497368
-0.0162492,-0.0161583
-0.0208275,-0.0168604
-0.0479337,0.00590475
-0.0582764,0.00443207
-0.0365579,-0.0167011
-0.0175619,-0.0287557
-0.00434986,-0.0336402
0.00654817,-0.0157058
0.0129659,0.00843129
0.0338113,0.0116605
0.0552661,0.00759637
0.0667645,0.00254674
0.0494926,-0.0142031
0.0298242,-0.0250652
0.00512443,0.0032528
-0.0319736,0.0185093
-0.0556492,0.00665515
-0.0535026,0.00225418
-0.0557536,0.00555273
-0.016395,0.00472778
0.018953,-0.0153225
0.0167364,-0.0196301
0.0040354,-0.00224791
0.00306943,0.0187995
-0.000521138,0.0207728
-0.00276507,0.0175247
0.00999176,0.0137043
0.0203068,0.00679924
0.0184304,-0.00340421
0.0132635,-0.0230709
0.000638418,-0.0211658
-0.0114144,-0.0169354
-0.0185899,-0.00133437
-0.0182208,0.0246084
-0.0134443,0.0282802
-0.0140566,0.0242804
-0.00274384,0.00973416
0.0117316,-0.022618
0.0201721,-0.0450179
0.0279815,-0.00869156
0.0316512,-0.0196537
0.00621649,-0.00312273
-0.0032226,0.0225903
0.00673697,0.0132792
0.00825751,0.0164684
0.00287158,0.0211187
-0.00673263,-0.0155607
-0.0162655,-0.0108639
-0.0339853,-0.00105036
-0.0375833,-0.0138724
-0.0223472,-0.0162069
-0.0182577,0.00469415
-0.00863758,0.019615
-0.00634803,0.0143694
-0.00536701,-0.0189111
0.000959711,-0.0228256
0.0158435,-0.0360277
0.0150148,-0.0127048
0.00905961,0.0111511
0.015601,0.00912075
0.0326844,0.00934843
0.0464079,0.0397445
0.0464463,0.0410931
0.0391843,-0.0127077
0.000608616,0.0065717
-0.0172016,0.0283688
-0.00216098,0.0131185
-0.0164963,-0.0304692
-0.0928558,-0.0159411
-0.0777511,0.00686536
-0.0255906,-0.00142968
-0.014056,-0.0406651
-0.0032343,-0.00775512
0.0160162,0.0115707
0.0287948,0.0129115
0.0234115,0.00161257
0.0138929,0.00873188
0.0317653,0.0144613
0.0376504,0.000378443
0.020746,-0.00931203
0.0136015,-0.00247166
-0.00616134,-0.0115817
-0.0270129,0.00539014
-0.00984834,0.0014231
0.000491388,0.0154181
-0.00325463,0.00740767
0.00346792,-0.0221502
0.0344299,-0.022417
0.0152761,0.00459
-0.0143319,-0.00142668
-0.0306531,-0.00588726
-0.0675782,0.0265636
-0.0649081,0.0220693
-0.019474,-0.0102132
0.0490679,0.00240785
0.0586001,-0.0253261
0.00226337,-0.0310742
-0.0289607,-0.0288704
-0.0228924,-0.0136579
-0.0270736,0.0143919
-0.0346633,0.0133462
-0.00109729,-0.00171462
0.0172776,-0.00640499
0.0164545,-0.00710153
-0.0152874,-0.00799427
0.0123713,-0.00282329
0.0887215,-0.00363818
0.0969507,-0.00537813
0.0293023,0.0182118
-0.0227459,0.0222599
-0.0118949,0.019291
-0.0169116,0.0307751
-0.0240031,0.0333059
-0.0295524,0.0446065
0.0115532,-0.0385935
0.0271534,-0.0284931
0.00564627,0.0199285
-0.00318271,0.00623727
-0.00862834,-0.0161131
7.43e-05,-0.0160916
-0.00874468,0.00905442
-0.0114584,-0.00457198
0.00629375,-0.0239572
0.0232507,-0.0128882
0.029392,0.00141751
0.0177868,0.0186602
0.00363354,0.0168495
-0.0148292,-0.000804045
-0.0175832,0.00727534
-0.0202619,0.0157556
-0.0272981,-0.021939
-0.0334959,-0.0297538
-0.0507967,0.00970486
-0.0513756,0.0279972
0.012132,-0.0143361
0.0427971,-0.0143683
0.0393071,-0.00750288
0.0244107,-0.0171916
0.00231298,-0.0149155
-0.0257889,0.0409812
-0.0336627,0.020268
-0.0283687,0.00766618
0.0014105,-0.00374791
0.0208309,-0.0104889
0.0298268,-0.015871
0.0230205,-0.0227663
0.0124936,0.0059797
0.00986818,0.0122356
-0.00921392,-0.0158094
-0.0255034,0.0242268
-0.00799364,-0.00966236
0.00444058,-0.0124179
0.0113548,-0.00999791
0.0185151,-2.11e-05
0.0121859,-0.000562685
-0.00221398,0.00102972
-0.015752,0.00382451
-0.0288052,0.0107384
-0.0409505,0.0196312
-0.0326895,0.0109446
-0.00427347,0.000430692
0.00210774,0.00197016
0.000369644,-0.00566082
0.0194276,-0.0129007
0.0280808,-0.0203773
0.0198361,-0.0100663
0.00377508,0.0022265
-0.000391338,2.19e-05
-0.00114016,-0.00372338
0.00960141,-0.00669814
0.00538443,-0.00379871
0.0179825,-0.0156138
0.0434606,-0.00824144
0.0423879,0.00234567
0.0068406,0.0444514
-0.00350338,0.07212
0.0153863,0.000966909
-0.0148536,-0.0371793
-0.0525488,-0.0164324
-0.0329967,-0.0256288
-0.00340091,-0.0273343
-0.00205596,-0.00991141
-0.0109307,0.0317116
0.00470103,0.023998
0.00314363,-0.00132118
0.00014821,-0.010459
0.00778592,-0.0176539
-0.00874784,-0.022987
-0.0351976,-0.00435045
-0.045446,0.0174055
-0.0104872,0.0213866
-0.0093838,0.0361874
0.00381469,0.0343185
0.00135955,0.0337401
-0.000249898,-0.00672893
0.03089,0.00421222
0.0447024,0.0544579
0.0636632,-0.0360266
0.0226755,-0.0681535
-0.0136724,-0.0132171
-0.0204219,-0.00594139
-0.0337305,0.0228136
-0.00443735,0.0308173
0.0115364,-0.0248911
0.0172998,-0.0457676
0.0039757,-0.0206802
-0.00953595,-0.000266538
-0.00286353,-0.00679113
-0.0153196,0.0178011
-0.00660351,0.015575
0.00967275,0.0144506
0.0324365,-0.0170474
0.0269299,-0.0182424
0.00423289,-0.00995518
0.0162534,-0.00679345
0.0080491,0.0208967
-0.0343618,0.0318506
-0.027744,0.0270974
-0.00785248,0.0154133
0.00367556,-0.0375451
0.0101821,-0.0375525
0.00564393,-0.00406511
0.00154174,-0.00143658
-0.00895797,-0.00394764
-0.0246884,0.012195
-0.0112773,0.0141366
0.00942061,0.00168561
0.00615831,-0.00952807
-0.0103706,-0.0112986
-0.00980829,-0.0124677
-0.00678057,0.00088049
0.00193653,0.0229796
0.010675,0.00225475
0.00832895,0.0281059
0.0193196,-0.00237439
-0.00367015,-0.026234
-0.0283605,-0.00694953
-0.0205436,-0.00108105
-0.0142211,0.000369502
-0.0126252,0.00298257
-0.0106412,-0.00690941
-0.00293724,0.000541298
0.00704514,0.0183946
0.00376348,0.0197591
0.00300002,0.00690581
-0.00523803,-0.00405772
-0.0105149,0.00336389
-0.00233615,-0.00803161
0.00824297,-0.020989
0.0176287,-0.010485
0.0124174,0.0286386
0.00699309,0.0585745
0.0132692,0.035778
0.0225208,-0.0395779
0.029585,-0.0396922
0.03147,-0.02797
0.020292,-0.00556558
0.0119633,-0.0170544
-0.0198797,-0.00746027
-0.0422388,0.0179169
-0.0357525,0.00889787
-0.0253157,-0.00204631
-0.0181029,-0.00810418
0.00808898,-0.0180774
0.0354609,-0.0191784
0.0321489,-0.00460145
0.00965772,-0.00354568
-0.010583,0.0123348
-0.028134,0.037999
-0.0254293,0.0466879
0.0077447,-0.00694231
0.0123091,-0.0290319
0.000751904,-0.0204671
-0.00116873,-0.00735036
0.00378379,-0.0126951
-0.00430071,0.0128512
-0.00644971,0.0275669
-0.00795,0.0174097
-0.0133411,0.00136027
-0.00957744,0.0185742
-0.00918699,-0.0101369
-0.0168237,-0.00961811
-0.00287503,-0.0422212
-0.00663884,-0.0245937
-0.0135142,0.00466263
-0.0147393,0.00419112
-0.0339189,0.00362109
0.00563894,-0.00415573
0.0924653,-0.0124707
0.0873055,-0.0042324
0.0288651,0.00232194
-0.0215661,0.0406221
-0.0262635,0.0130947
-0.026723,0.00393329
-0.0434105,0.00561556
-0.0545916,-0.00430567
-0.0281822,0.0166984
-0.0111787,-0.0260022
-0.0133583,-0.0421408
-0.0188235,-0.00544576
-0.0357448,0.0322554
-0.0422056,0.0295382
0.0083034,-0.0265905
0.0770836,-0.0150381
0.134494,0.0232716
0.122492,0.0479661
0.122595,0.00427012
0.0987446,-0.045673
0.0230759,0.0028146
-0.0091819,-0.00572926
-0.0329147,-0.0126986
-0.0862776,0.0160523
-0.109927,-0.0295026
-0.0706928,-0.00402022
-0.0028181,-0.0124087
0.0647824,-0.0502478
0.0810817,0.0108064
0.046811,0.0460388
0.0251627,0.0104536
-0.0221522,0.00964295
-0.0448967,0.0179775
-0.0585548,0.0411366
-0.104856,0.0760819
-0.117416,0.00470205
-0.121003,-0.0399526
-0.128446,0.0199219
-0.00623844,-0.00335937
0.148422,-0.0591859
0.159609,-0.0592125
0.10042,-0.0151847
0.0548704,-0.00312138
0.0224207,0.00220247
-0.0582147,0.0150589
-0.0760772,-0.0247141
-0.0213872,0.0106052
0.00105339,0.109286
-0.000937492,0.0397735
-0.0964247,-0.00246959
-0.188416,0.024994
-0.147297,-0.00547239
-0.0290574,-0.0731775
0.0442796,-0.0383531
0.0572855,0.0125897
0.167079,-0.00350957
0.226114,-0.00155642
0.126799,-0.0250174
0.0671924,-0.0165212
0.0619457,-0.0479722
0.0325767,-0.0589988
0.00252599,-0.0206233
-0.0228499,0.0416542
-0.0618544,0.0630925
-0.0656782,0.0353502
0.00621337,0.0545137
0.0619192,0.00764603
0.0312413,-0.0527956
-0.0287839,-0.0193698
-0.043971,-0.00387013
-0.0425135,-0.0348845
-0.113618,0.0122508
-0.14094,0.0268256
-0.128864,-0.00118519
-0.18031,0.00294498
-0.0907503,0.00595364
0.024602,-0.0257576
0.118144,0.00668439
0.169535,0.033124
0.105559,-0.00358835
0.00433928,0.0527598
-0.089916,0.00546175
-0.044306,-0.0639661
0.0473115,-0.0570876
0.0855943,-0.0188816
0.159112,0.0253717
0.24247,0.0226022
0.238018,0.0632397
0.0832636,0.0281573
-0.123587,-0.0368756
-0.189079,0.0115504
-0.157483,-0.0126615
-0.0634242,-0.0821387
-0.0137352,-0.0336398
-0.0466863,-0.00649721
-0.0770306,0.00716235
-0.0162082,-0.00770774
0.0726748,-0.0472602
-0.0032917,-0.0164055
-0.0813308,0.0198282
-0.0146726,-0.0145629
0.00290065,0.0268431
-0.00381746,0.0519233
-0.0185693,0.020254
-0.056105,0.0487764
-0.0622864,0.0661533
0.0179643,0.0187227
0.0493151,0.00277671
0.114947,0.0312403
0.126273,0.0038305
0.103149,-0.00434736
0.0829207,0.0110086
0.0808596,-0.0274773
0.0394985,-0.0350933
-0.0272042,-0.019481
-0.101963,-0.00918489
-0.0323866,-0.0258497
0.00697198,-0.0310335
-0.00712308,-0.0139779
-0.0807498,-0.000940798
-0.170864,0.0235815
-0.193053,0.0348658
-0.124815,0.0327622
-0.00439474,0.0105188
0.0896951,-0.0321984
0.0557581,-0.0126227
-0.0320675,0.0153327
-0.100661,0.0560883
-0.0639361,0.0338449
-0.0244281,-0.0604694
0.0544046,-0.0528213
0.145916,-6.58e-05
0.149302,0.0268635
0.179091,0.00263557
0.0747828,-0.0296448
-0.052976,0.0670457
-0.0445539,-0.0291024
0.0388957,-0.016221
-0.00391654,-0.0299601
-0.0629395,-0.0420605
-0.0161852,-0.0257799
0.00212959,0.00796358
0.00924393,-0.0190437
0.0256652,-0.00734873
0.0519442,-0.000197006
0.00913713,0.0153239
-0.0178648,-2.93e-05
0.0226107,0.0469292
-0.0363883,0.0264712
-0.117396,-0.000548674
-0.104521,-0.0144635
-0.0156707,-0.0320404
0.0339826,-0.0305338
-0.0579596,0.0229327
-0.0398016,0.0386762
0.0213007,0.0858568
0.077371,0.0540133
0.0596121,-0.0359069
-0.0143209,-0.0264545
-0.0246739,-0.0181135
-0.0266954,-0.00296954
-0.0165825,0.0239215
0.0209708,0.107781
0.0659355,0.0746324
0.0784329,-0.121585
0.067962,-0.109885
0.03543,-0.0241382
0.00404071,0.0105652
-0.0108134,-0.0196209
-0.0049136,-0.0221494
-0.00217552,-0.00378317
-0.00850008,0.00394105
-0.0208939,0.00668604
-0.0271729,0.00884706
-0.0268003,0.0144746
-0.0344012,-0.000532318
-0.0281516,0.026338
0.00262058,0.0199856
-0.0140123,-0.0140325
-0.0210218,-0.0213177
0.00296486,-0.00509824
0.00288094,0.00581043
-0.0248226,0.00929208
-0.0334365,-0.0319531
-0.0278791,-0.0412236
-0.0165454,-0.0297477
-0.0263696,-0.0128586
-0.0106444,0.00596884
0.0161584,0.0168924
-0.00167633,-9.35e-05
-0.00195904,-0.00982567
0.0123749,0.0337277
0.0235471,0.0228602
0.00809143,-0.0111374
-0.0255568,-0.0095334
0.0115611,0.0168437
0.0596238,-0.0280381
0.0340097,-0.0265524
0.0347668,0.00784295
0.0785132,0.00154895
0.0730017,0.0236101
0.0307652,0.0288577
0.0198766,-0.0105972
0.00725607,-0.0120904
-0.0320885,0.0232501
-0.0406325,0.0306839
-0.0188133,0.0231146
-0.022053,0.0222567
-0.0332324,0.0110025
-0.0329598,7.29e-08
-0.0658546,-0.00532444
-0.0964179,0.0304502
-0.0315596,0.0399144
0.0345408,-0.0493646
0.0805809,-0.0709613
0.0558019,-0.00421063
0.0546201,0.0279873
0.133319,0.0169498
0.0809615,0.00084933
-0.0247582,-0.0226999
-0.0781603,-0.025593
-0.0569368,0.0487109
0.0195983,0.062072
0.0549736,-0.0136681
0.00566019,-0.0331955
-0.083288,-0.0320634
-0.0437148,-0.0365597
-0.0209729,0.000851203
-0.0254966,0.010134
-0.0366245,-0.0172351
-0.0467645,0.00627212
-0.00337017,0.0145916
0.0447226,0.00282403
0.0278652,-0.0118427
-0.0204081,-0.0215786
-0.0327567,-0.00167628
-0.0212428,0.0261814
-0.00917447,0.0336051
0.0129972,0.0071369
0.0077894,-0.0187395
-0.00256462,0.0110899
0.0194198,-0.0100509
0.046478,-0.0247021
0.0440113,-0.0447342
0.0168228,-0.0272535
-0.0232613,-0.00577708
-0.0574687,-0.00797415
-0.0453278,0.023319
-0.0251147,0.0552508
-0.00881816,-0.0244365
0.00862335,-0.0595862
0.00462657,-0.0432746
0.00182647,-0.00822777
-0.00473202,0.013475
0.0117874,0.0224817
0.0383388,0.022428
0.0369138,0.0146311
0.0355781,0.0118769
0.0323889,0.00425439
0.0138729,0.000287136
-0.0125533,0.00962834
-0.0434584,0.0284474
-0.0140675,0.0328636
0.0266532,0.00814201
0.0178328,0.0319808
0.0149314,0.0153588
0.00614239,-0.0152705
-0.0295172,0.00865622
-0.0289279,0.0157648
0.00512492,0.00916497
-0.0249036,0.028872
-0.0741417,0.013867
-0.0628901,-0.0408174
-0.0173037,-0.0333002
0.0213612,-0.0129181
0.0734282,-0.0242929
0.125717,-0.026972
0.124032,-0.031213
0.0858097,-0.0129994
-0.0569685,0.00366213
-0.209557,-0.0083248
-0.151103,-0.018023
-0.0815093,0.0270411
-0.0594901,0.0525674
0.0839392,-0.0152188
0.0691647,-0.0431925
0.0453012,-0.0135463
0.0092481,-0.00896291
0.0163749,0.00329385
0.0267438,0.0321431
-0.00175081,0.0344734
0.00529215,0.0514916
0.0112833,0.0427793
0.0152688,0.00733694
0.0365942,0.0152836
0.0244357,0.0381657
0.00971837,0.0248408
-0.0105573,0.00125316
-0.0202874,-0.0077191
0.00159315,-0.06606
0.000836066,-0.0521917
0.0168271,-0.0173544
0.0402874,-0.0155644
0.0254286,-0.0130932
-0.020647,-0.0109624
-0.0265036,-0.0291723
-0.00225658,-0.0060115
0.00358328,-0.00539064
-0.00208297,0.00739198
0.00187372,0.025984
-0.00572577,0.0102803
-0.00379705,0.00618193
-0.0112478,-0.0065755
-0.0420759,-0.0078953
-0.0196663,0.0430237
-0.0276035,0.0264581
-0.0541826,-0.0518731
-0.0632287,-0.0472001
-0.0555195,-0.0207921
0.00184589,-0.0227068
0.0338447,0.0139747
0.0244818,-0.0394128
0.011435,-0.000221007
-0.00623145,0.0264874
0.00735206,-0.0104697
0.025638,-0.0407721
-0.011966,-0.00697724
-0.0114007,0.0346594
0.039332,0.0565205
0.0638463,0.045586
0.0608353,0.0243589
0.0330376,0.0107716
0.0277071,-0.00655917
0.0123314,0.00467352
-0.0171761,0.00172428
-0.0134527,-0.0218115
-0.00476273,0.0116536
-0.0105506,0.0289037
-0.0310888,0.0160743
-0.0123301,-0.00558498
0.0558949,-0.00545494
0.0486483,0.0229365
0.0321158,-0.0117992
-0.00686612,-0.0220832
-0.0466236,0.00875303
-0.0394193,0.0119287
-0.019944,-0.00199004
0.0131888,-0.00210466
0.0294628,-0.00964861
-0.0006507,-0.0152435
-0.0261976,-0.00998117
-0.0372151,-0.00858448
-0.0429475,0.00367117
-0.018288,0.0184882
-0.0222441,0.0156151
-0.0403857,0.000524271
-0.0141707,-0.00604583
0.0362988,-0.0118637
0.0347108,-0.0190613
0.00807821,-0.024256
-0.0168262,-0.0126518
-0.00444014,-0.00145376
0.00459269,-0.00778536
-0.0115674,-0.00459404
-0.00195933,0.0157541
0.0464169,0.0365892
0.0946264,0.0102852
0.0482709,-0.02923
-0.0222854,-0.00290589
-0.0558816,-0.0162223
-0.0690354,5.68e-05
-0.0621506,-0.00261808
-0.00846302,-0.028844
0.026127,-0.00796667
0.037481,0.0128383
0.0273793,-0.0207872
0.0109608,-0.0379821
-0.00144701,-0.00346369
0.0167605,0.0231471
0.0240719,0.00882296
0.00436121,0.022534
-0.00190196,0.00375129
-0.0340032,-0.0166995
-0.0211965,-0.0140251
-0.00569793,0.00147731
0.00212896,0.0192467
0.0156826,0.027069
0.0257378,0.0150943
0.00722329,0.02049
0.0188057,0.0290181
0.0281858,-0.00374754
0.0153669,-0.046625
0.00350829,-0.000592957
-0.0318248,0.048307
-0.0664849,0.0501591
-0.10235,0.00977913
-0.0946667,-0.0199753
-0.0392738,-9.92e-05
0.0237218,-0.00362034
0.0639132,-0.044357
0.0793675,-0.0273984
0.0499113,-0.00858209
0.0175516,0.00478596
-0.000387687,0.0201368
-0.00290327,0.0231947
-0.00853835,0.0147052
0.0137033,0.00690552
0.0170605,0.00368993
0.0174408,0.00332618
-0.010238,0.0150217
-0.060826,0.0231973
-0.0115007,0.0135305
0.0374259,-0.0246508
0.00462096,-0.0398295
-0.0178769,0.00626222
0.00861887,-0.00897152
-0.00601984,-0.0698655
-0.0400366,-0.0295911
-0.00652893,-0.0146736
0.0400758,-0.0132042
0.0342224,-0.0157797
0.0337768,0.034087
0.0120948,0.0407997
-0.0138789,-0.010255
0.000983104,-0.00530449
0.029167,0.0162892
0.0104607,0.00804655
-0.0188207,0.00494749
-0.0436048,0.00654643
-0.0347853,-0.00216751
-0.00583599,-0.00178327
0.0322779,-0.00612408
0.0398463,-0.0241853
0.0229751,-0.0392611
-0.00899568,-0.00305294
-0.0193172,0.0211512
-0.00913121,0.00602375
-0.00243395,0.0128442
0.00122572,0.0261738
0.00152316,0.0211878
-0.00600503,-0.00361348
-0.00505149,-0.00548244
0.0020005,-0.00739837
0.000396503,-0.0119872
-0.00761849,-0.00728176
-0.00981052,-0.00622037
-0.00337123,0.0016359
0.00705444,-0.00667367
0.00851655,-0.0227248
-0.00144145,-0.0181019
-0.0139889,-0.0031929
-0.0195872,0.00879454
-0.00482389,0.00718312
0.0197754,0.0276572
-0.00115787,0.0333115
-0.00515691,-0.00598996
-0.0329693,-0.00414454
-0.0550282,0.0380413
-0.0262976,0.0439069
0.00917833,-0.0325582
0.0157635,-0.0383548
0.02576,-0.006278
0.0154674,0.00851149
-0.013797,-0.00332846
-0.0372151,0.0226847
-0.0208911,0.0342012
0.0153207,0.0436338
0.0618658,0.0345364
0.0858157,-0.0623489
0.0689965,-0.0363504
0.00613956,-0.00369077
-0.0402323,0.0160152
-0.00146574,0.003957
0.0300442,-0.00512673
0.00249643,-0.000327352
-0.0226583,-0.0082132
-0.0318847,-0.0279642
-0.0260416,-0.00931532
-0.0617558,0.00252385
-0.0519233,0.0148005
-0.00692215,0.0222308
0.0450227,-0.0234774
0.0253375,-0.0381406
-0.00435202,-0.0192018
-0.00882324,-0.00229161
0.00049948,0.00363945
0.0111834,0.00855948
0.0250864,0.0143312
0.0122738,0.0128084
0.00841754,0.00380818
0.00393344,0.00167421
0.00761075,-0.0046255
0.0200155,-0.00798496
0.0196421,-0.00565301
0.00130759,0.00069328
-0.00924019,-0.00251347
-0.0160218,-0.0097576
-0.0206777,-0.00796668
-0.0101978,-0.00499408
0.00175474,-0.00948135
0.000346344,-0.00630033
-0.00840518,0.00781502
-0.00944615,0.0165362
-0.0157464,0.0230615
-0.0215956,0.0223423
-0.0073559,0.0116347
0.00790109,0.00368296
-0.00358082,-0.000455633
-0.0140009,-0.00250466
-0.00202164,-0.0127774
0.0139363,-0.00995162
0.0262739,-0.00193624
0.0190807,0.0010575
-0.0250399,0.00415994
-0.0284474,0.00256415
0.00710583,0.00616307
-0.0142754,-0.0229644
-0.0239652,-0.0131012
-0.00873091,0.0376339
0.00557864,0.0852203
0.0670683,0.0529678
0.0874827,-0.0149387
0.0193488,-0.0273505
-0.00947895,-0.0177176
-0.0144362,0.0226299
-0.0217037,-0.0372969
0.0286982,-0.0596021
0.0187919,0.0277437
-0.0174279,-0.0126399
-0.0747381,-0.0295931
-0.0658124,0.0125431
-0.040318,0.0399832
-0.0199392,0.0277973
0.0205997,-0.0298833
0.0223762,-0.024277
0.00642247,-0.021692
-0.00692418,-0.00156098
-0.01012,0.0152555
0.0160647,0.000340989
0.0372383,-0.00894965
0.040787,-0.00202654
0.0346434,-0.00669397
0.0213798,-0.0202282
0.0100045,-0.0160694
-0.00763418,0.00332592
-0.0150163,0.0140106
-0.0103485,0.00666203
-0.00831769,-0.00112583
-0.00719213,-0.00891446
-0.00658479,-0.0125625
-0.00812369,-0.00948401
-0.00829105,-0.0110446
-0.00207472,-0.0175994
-0.0066779,0.0107214
-0.00482957,0.018784
0.00431428,0.00478639
0.0096937,-0.00449394
0.020362,-0.00193482
0.0243545,-0.00259493
0.0117794,-0.00860852
-0.0121088,-0.00207157
-0.0328344,0.0146241
-0.031333,0.0152128
-0.018833,0.017114
-0.00779533,0.0220457
-0.00940577,0.00891476
-0.0205037,-0.013208
-0.0115155,-0.0109232
0.0420708,0.000275715
0.0783463,-0.00234699
0.0670759,0.0148693
0.0166596,0.03296
-0.0202886,0.0484173
-0.0364882,0.00415095
-0.0556304,-0.00668748
-0.040007,-0.0304856
-0.00374163,-0.0284448
0.0286115,0.0135999
0.0419365,0.0232365
0.0420478,0.0256327
0.0614862,-0.0228053
0.00716504,-0.034042
-0.0562137,-0.014089
-0.0445779,-0.0486614
-0.00163997,-0.0298
0.00813438,-0.0178658
-0.00225222,-0.0115814
-0.021504,-0.00579311
-0.0476143,-0.00671837
-0.0434505,-0.00818374
-0.0101927,-0.00254627
0.0137346,0.0057331
0.0145169,-0.00264914
0.00552157,-0.0227244
0.0264585,-0.00845829
0.0347455,0.000664384
0.0145258,0.0214283
0.00462206,0.0236729
-0.00277066,-0.00895196
-0.00627719,-0.00918484
0.00788036,0.00568972
0.0108103,0.0107604
0.0017441,0.0206633
-0.00297125,0.0329273
-0.00821402,0.0286214
-0.000355939,0.0111195
0.00224131,-0.00166047
-0.00475668,0.00214611
-0.0145161,0.0036921
-0.0231238,-0.00556669
-0.0125857,0.00360767
-0.00462618,0.0225787
-0.0118478,0.0209601
-0.0353102,0.0332401
-0.0364687,0.0521093
-0.0220898,0.0392538
0.0253808,0.0184558
0.0523181,-0.0652044
0.0185533,-0.0461495
0.0033884,0.0157936
0.0366508,-0.0163359
0.035591,-0.0110935
0.0161143,-0.00511982
0.0441082,0.00784416
0.032612,0.0233045
-0.0396104,-0.000785715
-0.0356287,-0.0186178
-0.0220334,-0.0742412
-0.0385231,-0.00540637
-0.0485747,0.0297226
-0.0155572,-0.0243088
0.00996442,-0.0182692
0.0176598,0.0152299
0.0021817,0.0151557
-0.00893252,0.0112726
-0.0106032,0.00254734
-0.011002,-0.00662653
-0.00174172,-0.00879335
0.00534442,0.00397391
0.00562872,0.0017369
0.00384176,-0.0090482
0.00966806,-0.0146435
0.0159868,-0.0136345
0.0191469,-0.0060541
0.01307,0.0103531
0.00970743,0.0183053
0.011283,0.00680487
0.00987658,0.000351489
0.00527464,-0.00343209
-0.000530251,-0.00417482
-0.00790903,-0.00161611
-0.0142769,0.00633898
0.00263704,-0.0141654
0.00206858,-0.0137537
-0.00972683,0.00497136
-0.00593398,-0.00376525
0.000257948,-0.017815
0.00350484,-0.0288204
0.00428061,-0.0189676
0.00902257,0.0029423
0.0125562,0.00593183
-0.00207191,0.0140521
-0.0140425,0.0215069
-0.0176525,0.00104816
-0.0159158,0.00995117
0.010284,-0.0107701
0.00283759,-0.0118368
-0.0131199,0.0216548
-0.0224868,0.0308415
-0.0181956,0.000631801
0.000729114,0.0208752
0.0205919,0.0455055
0.0509888,0.0900446
0.00836062,-0.0457766
-0.0152049,-0.0810587
0.00185579,-0.0364086
-0.0465654,-0.0202076
-0.0467191,0.00526823
0.0125536,0.01264
0.0412873,0.0237536
0.0319793,-0.000358538
0.0283129,0.0094437
0.0151206,0.00223327
0.0095017,-0.0138672
-0.00555584,-0.00220718
-0.0255538,0.0145907
-0.0321234,0.00584783
-0.0281891,-0.0329937
-0.010509,-0.0319878
0.00736155,-0.0106528
-0.00155007,0.00151837
0.00487395,0.00168144
0.027676,-0.00661159
0.0252263,-0.00834813
0.0132173,0.0153986
0.00810091,0.0270541
0.0141721,0.015378
0.0160663,0.0109015
0.0155318,0.00648744
0.00828773,-0.00253326
-0.00265249,-0.000895059
-0.0111413,0.0109131
-0.010115,0.0255928
-0.00993955,0.0324829
-0.0104966,-0.0102952
-0.0157503,-0.0334966
-0.0257908,-0.0210062
-0.0307707,-0.0132844
-0.0320078,-0.0204171
-0.0371408,-0.0221999
-0.0112166,-0.0024893
-0.00177655,0.0181272
0.0049931,0.0167809
0.00842935,0.0126984
0.00426431,0.0247903
0.0286339,-0.00151715
0.0279448,-0.0371309
0.0140704,-0.0292242
0.00914872,-0.00258117
0.0298178,0.010349
0.0675164,0.00832379
0.0801976,0.0352373
-0.00972584,0.0111243
-0.110429,-0.0261136
-0.100272,-0.00905121
-0.0373769,0.0124799
0.0503997,0.000846678
0.0550953,-0.00331582
0.0171177,0.00248626
-0.0101938,0.0019278
-0.0293975,-0.0144015
-0.0417807,-0.0286147
-0.0177576,-0.0228052
0.00146328,0.00381477
0.0208784,0.0134151
0.0375789,0.0081626
0.0195768,-0.000401599
-0.0156554,-0.00121847
-0.0204614,0.00215895
0.00036382,0.00662949
0.00665257,0.0116361
0.000787788,0.0062434
0.0103045,-0.00793097
0.00985669,0.0221943
-0.0267129,0.0589699
-0.0341585,0.0277634
-0.0313114,0.000794889
-0.0163967,-0.0114367
0.0203694,-0.0419843
0.0386802,-0.0156351
0.0817232,0.0175629
0.0514088,-0.000292278
0.00255281,-0.00405009
-0.0286472,0.008076
-0.0472407,-0.000119713
-0.047469,-0.00161608
-0.0345065,-0.0153879
-0.00138481,-0.0284404
0.0158966,-0.010026
-0.00314196,0.000388663
-0.00239168,-0.0170314
0.0190101,-0.00316565
0.0272616,0.0293762
0.0343443,0.0326264
0.0304439,0.00818436
0.0192382,-0.0368805
-0.00182741,-0.0358889
-0.00753019,-0.0144766
-0.0102733,0.0131388
-0.0160867,0.0244877
-0.0280204,0.0204291
-0.0302076,0.0215143
-0.0171832,-0.00113419
0.002852,-0.0143928
0.00956915,-0.00784952
0.0142513,-0.00961285
0.00922509,-0.00798288
-0.00821588,-0.0211856
-0.0285825,-0.00402847
-0.0109274,0.0200037
0.00505281,0.0269154
0.0247705,0.0025949
0.0255048,-0.015112
0.0194841,-0.00514959
0.0104916,0.0115243
0.0126348,0.0138827
0.00644454,0.00801062
-0.0067574,0.0072545
-0.00944723,0.00564376
0.00299983,-0.0106818
0.00548311,-0.0164067
0.00211439,0.00707651
0.00619219,-0.00833973
0.00919502,-0.0198863
0.00926008,0.00167657
-0.00320929,-0.00218655
-0.0107018,-0.0136971
-0.00736659,0.021242
-0.0253988,0.00717579
-0.0411503,0.013761
-0.0552762,0.0133829
-0.0252402,0.00305222
0.0188649,-0.0177748
-0.044879,-0.0297707
-0.0589054,-0.0231498
0.0201843,0.032703
0.108526,0.0264811
0.128039,-0.0185694
0.0342681,-0.0373443
-0.0289007,-0.0429529
-0.0765931,-0.00677276
-0.0362078,0.0036231
0.0572021,0.0199158
0.0526834,0.0417141
-0.0353358,0.021094
-0.0428486,-0.0148297
-0.0167271,-0.0311471
-0.0166009,-0.0102458
-0.0155113,0.0119444
0.00684672,0.0250503
-0.00121843,0.02649
-0.0131883,0.0159098
-0.0143338,0.00641902
-0.0205507,-0.00838371
-0.00857821,-0.0253185
0.0170541,-0.0150844
0.0248045,0.00714177
0.0273099,-0.00563942
0.0307637,-0.0123442
0.0282975,0.00464321
0.0091596,0.0105643
0.00223579,-0.00803143
0.0141579,-0.025675
-0.00714521,-0.0192443
-0.0369906,0.0457909
-0.0111742,0.0313705
0.00968342,-0.0140725
0.00202664,-0.00772353
-0.0140651,0.0128792
-0.0248018,0.0292647
-0.020746,0.0111479
0.00346534,-0.00523932
0.0189663,-0.011714
0.0150537,-0.0120877
0.0125879,-0.0040414
0.00816436,0.0101283
-0.000317991,0.026601
-0.00604134,0.00345214
-0.0175883,-0.00729789
-0.0200327,-0.0179486
0.00611342,-0.0333002
-0.00900195,-0.0176541
-0.00940037,-0.00199976
0.0291423,0.0107427
0.0228003,0.0242439
0.0138021,0.0174847
0.0175818,0.011786
0.0147385,-0.00857786
0.00687377,-0.0150903
-0.0197474,0.00665667
-0.0352278,0.0119823
-0.0120788,-0.0216712
-0.0150491,-0.016498
-0.0102938,-0.0103462
0.0248605,-0.00871066
0.0466325,-0.0121556
0.0250506,-0.00629127
-0.00407398,-0.0144486
-0.0243961,-0.0149768
-0.0196257,0.000231982
-0.00159461,0.00330701
0.0085119,0.00731213
0.00657684,0.0200893
-0.00962459,-0.00206678
-0.0170728,-0.010215
-0.0162657,0.0215102
0.000391077,-0.0020486
0.00420716,-0.0152429
-0.00408306,0.00930974
0.0088385,-0.0052292
0.0123504,-0.00766957
0.0115018,-0.00236444
0.0228509,-0.00175469
0.0141142,0.00827677
-0.0164595,0.00185782
-0.0295467,0.00817133
-0.0528141,0.0299226
-0.0487797,0.0585221
-0.0295304,0.0601655
-0.054718,0.0307708
-0.0318501,0.0396624
0.0634546,0.0587316
0.123385,-0.0333018
0.0930925,-0.0867688
0.0290218,-0.0552747
0.00813648,-0.027069
-0.0541261,-0.0275132
-0.0772325,-0.0294463
-0.0379193,-0.0136745
0.0229044,-0.0100918
0.0481866,-0.00696235
0.0310973,-0.00773905
-0.00190129,-0.00684356
-0.0163401,0.013768
-0.0114663,0.0330094
-0.00920029,0.0314038
0.00768735,-0.00624154
0.0246914,-0.0205014
0.0294125,0.00491024
-0.00224977,0.0260617
-0.0237151,0.00298794
-0.0368938,-0.0162598
-0.0419184,0.0203649
-0.00464335,-0.00494979
0.0152869,-0.0080263
0.0101744,-0.00347845
0.00971017,-0.0109094
0.00858221,-0.0152611
0.00527791,-0.0141918
-0.00440451,-0.0104293
-0.0170581,0.00560929
-0.00772601,0.0104892
-0.00103576,0.0033133
-0.010102,0.0100911
-0.0134677,0.0163987
-0.00593055,-0.0177968
-0.00150595,-0.0328428
-0.00322475,-0.0150506
0.000990583,0.0164066
0.00559986,0.0220294
0.0113014,0.0220259
0.00956006,0.00752348
0.010545,0.0294382
0.0253574,-0.0282198
0.0215126,-0.0461706
0.0051149,-0.00702904
0.00482916,0.00992348
0.00281874,0.0134145
-0.0168915,0.00942219
-0.024673,-0.00309554
-0.00569072,0.00669608
0.016101,0.0111788
0.00822126,0.00197969
-0.0112556,-0.000282035
0.00445035,0.00663715
0.0170274,0.0168733
0.0125498,0.0187506
-0.00140507,0.00604456
-0.0123551,-0.010822
0.0163338,-0.00140719
0.0416785,0.0342639
0.0375,0.00830748
-0.0271936,-0.0662388
-0.041258,-0.0232941
-0.0370886,0.0122189
-0.0144099,-0.0210627
0.000731744,-0.0205276
-0.0144119,0.000823847
-0.0248842,0.0188612
-0.0105907,0.00504608
-0.0126259,0.00969419
-0.025748,0.0169194
-0.019618,0.00834799
0.0101745,0.00895514
0.0291178,0.0104305
0.0407823,0.00104247
0.0340637,-0.0120685
0.0296131,-0.0126268
0.0425604,-0.0164999
-0.00849263,-0.0235134
-0.0505608,-0.0103839
-0.0293822,-0.00138644
0.0168118,-0.00570649
0.0247591,-0.00954002
-0.00277338,-0.00485308
0.00207448,-0.00220912
0.00781781,0.0144947
0.000142848,0.051439
-0.00684156,0.0617643
0.0172054,0.022394
0.0184693,-0.0175511
-0.0660305,-0.0302831
-0.10309,-0.0212089
-0.0235183,-0.0390327
0.02196,-0.0329411
0.00486657,-0.0180611
-0.000251932,0.00206164
0.00394744,0.0199092
0.0103636,0.00665319
0.038871,-0.00443266
0.0297905,-0.00707288
0.0200568,-0.00885588
0.0368575,0.00886739
0.0323822,0.0142035
-0.0144181,0.0250749
-0.034863,0.0130967
-0.00698574,0.0359909
-0.00421241,0.00219276
-0.00515279,-0.0185374
0.000260122,-0.00639127
-0.0238964,-0.0218004
-0.0462947,-0.00999146
-0.0400703,-0.00515553
-0.000224304,0.00518053
0.0262361,0.0195731
0.0167734,0.0206973
0.0200325,-0.0157975
0.0221333,-0.0280223
0.0174005,-0.0110546
0.0386415,0.00237538
0.0554953,0.0213477
0.0298621,0.0216497
-0.0305558,0.000226205
-0.0565872,-0.0048838
-0.0305144,0.0323515
-0.00142821,0.0333399
0.0025898,-0.0196126
-0.0101738,-0.032949
-0.0120845,0.00624498
-0.00820615,0.00401367
-0.0116219,0.00892963
-1.88e-05,-0.00462898
0.00163029,-0.0274714
-0.0151548,0.0201411
-0.0256558,0.0325608
0.00241687,-0.0326405
0.0295275,-0.0139548
0.0345806,-0.00614769
0.0393783,-0.000411013
0.0430433,-0.00852075
0.0396815,-0.0123087
0.00641878,-0.00125189
-0.038919,0.00355586
-0.0377805,-0.0122527
-0.0191521,-0.017537
-0.00289927,-0.0167185
-0.00788369,-0.000687785
-0.0265897,0.0115594
-0.026859,0.00616813
-0.000585604,0.0134859
0.00560824,0.0103449
-0.0142274,5.94e-06
-0.00940101,0.0141828
0.00361174,-0.0107151
-0.00193224,0.0115792
-0.00572334,0.0178033
-4.13e-05,-0.0257427
0.00940259,-0.0166577
0.0117027,0.00252768
0.00940217,0.000122989
-0.00273923,-0.0059639
-0.0053613,-0.00553967
-0.0041654,0.0061173
0.00424769,0.0241077
0.0314673,-0.00101194
0.0208045,-0.00261464
0.00356647,0.0170379
-0.0112002,0.0131226
-0.00412809,0.00199228
0.0525528,-0.0221616
0.0858487,-0.0149481
0.0570034,0.00869292
-0.00191288,0.00346673
-0.109682,-0.0172345
-0.105433,-0.0191535
-0.0193236,0.00267064
0.0324281,0.0200555
0.0417134,0.0282846
0.0572617,0.00640066
0.0202573,-0.0161594
-0.0279894,-0.0120736
-0.041134,-0.00165877
-0.04953,0.00040305
-0.0336611,-0.012544
-0.0181066,-0.0100649
-0.00516406,0.00326281
0.00569421,0.00773949
-0.00552527,0.00854762
-0.0252285,0.0112405
-0.0205841,-0.000670507
-0.00253495,-0.000231208
0.00606481,0.00356177
0.00586621,-0.00919296
0.00547167,-0.0155858
0.00314674,-0.0114866
0.0184623,-0.00432057
0.0322113,0.00875601
0.0211613,0.0154047
0.012768,1.6e-05
0.00785316,-0.0101082
-0.00291699,-0.00257131
0.00124285,-0.000547777
0.0144373,-0.0106725
0.011228,-0.00512709
0.00516269,0.0197468
0.00268568,0.0272811
-0.019571,0.0141764
-0.0187699,0.0174255
-0.0174747,0.0101761
-0.0247609,0.0158835
0.00310613,0.0139952
0.0511049,0.000568484
0.0603671,-0.00341964
0.021266,-0.0209017
-0.0150215,-0.00994317
-0.0316887,0.0191687
-0.0272101,0.0418788
-0.0160648,0.00254525
-0.00988924,-0.0435747
0.000249926,-0.0334109
0.00864527,-0.015313
-0.0041535,-0.0209972
-0.0195513,-0.00749021
-0.0135701,0.0121211
0.0259082,-0.0235692
0.0293929,-0.0264685
-0.00204907,-0.00820378
-0.0100844,-0.00228645
-0.000633568,-0.0184884
0.00813236,-0.00625548
-0.000412554,0.0150551
0.000547222,0.014453
0.00504683,-0.00949894
-0.000593229,-0.0255186
0.00131561,-0.0139415
0.000313761,0.00889473
0.00873448,0.00819995
0.0247649,0.0176839
0.0272792,0.0399803
-0.00594969,0.0230359
-0.0287958,0.00247834
-0.0259632,-0.0105856
-0.058688,-0.026375
-0.028479,-0.028057
-0.00398878,0.00358255
-0.00842578,0.0230229
0.00538581,0.0327558
0.0221089,0.042105
0.0170814,0.0245912
0.0336844,0.0123814
0.061853,0.00151674
0.0617236,-0.0150779
0.0151274,-0.0372039
-0.0562381,-0.00864763
-0.0742863,0.0113586
-0.036594,0.00903785
0.019266,0.016632
0.0570306,0.00275189
0.00798151,-0.00240849
-0.084857,-0.012708
-0.084146,0.0107679
0.0294434,0.00409612
0.116206,0.000902489
0.0542153,-0.00992029
-0.0689658,-0.0168272
-0.0850154,-0.0306666
-0.0203249,-0.024804
0.011323,-0.00631529
0.00412868,-0.00711892
0.0137407,-0.00876997
0.015897,0.0120177
-0.00103996,0.0187339
-0.0165562,0.0145261
-0.00750476,0.0144791
0.00360364,0.00738724
0.00189935,-0.0011718
0.0227405,-0.0157247
0.0239271,-0.0222108
0.0065288,-0.021743
-0.00555242,0.0129671
0.00522819,0.0208896
0.0104232,0.0199148
0.0077419,0.0231456
0.00964607,-0.0123201
0.00282317,-0.0262113
0.0107342,-0.0199897
0.00601762,0.0258173
-0.00923751,0.077937
-0.00714626,0.0239564
-0.0152611,-0.0109396
-0.0139152,-0.0144139
0.00391458,-0.00855753
0.00552487,-0.00994018
0.004528,-0.0341091
0.00257749,0.000367319
-0.00603759,0.0290415
0.00602943,-0.00209284
0.0336746,-0.0141844
0.0298852,-0.00463178
-0.0167439,-0.0217915
-0.061183,0.00901176
-0.0260025,-0.0231211
0.017322,-0.0321861
0.00838042,-0.00798093
0.0327784,0.0151226
0.0869113,0.0200098
0.0599253,0.0150949
-0.024516,-0.0229364
-0.103976,-0.0276901
-0.086276,0.00528684
-0.0188547,-0.00868215
-0.00642099,0.0182109
0.00623183,0.00148712
0.0266532,-0.014803
0.020003,0.00839519
0.0273703,0.00574099
0.022524,0.00169103
-0.00761994,-0.00343776
-0.0108787,0.00447108
-0.00756817,7.6e-05
-0.0238969,-0.00820208
-0.0279384,0.00346702
-0.0337905,0.0112985
-0.0421648,0.00170683
0.0151487,0.00789976
0.0431264,0.0110589
0.0300911,-0.00342132
0.016368,-0.0142078
-0.00709344,0.00306583
-0.00409189,0.021235
0.00333721,0.0187318
0.0464546,0.0172983
0.0319811,0.0188026
-0.0236779,0.0147841
-0.0583307,0.0308479
-0.0197741,-0.0158489
0.0349138,-0.0284393
0.0380408,-0.0132259
0.030286,-0.0131736
0.00453489,-0.0272578
-0.0262439,0.000297194
-0.0305259,0.020433
-0.00594039,0.00780762
0.0125976,-0.0231316
-0.000128656,-0.0170971
-0.00708522,-0.0134476
0.00487976,-0.0184345
0.0196858,0.000784921
0.00485021,0.0106045
-0.0280571,-0.0187436
-0.0386805,-0.0187083
-0.0292632,0.0157784
-0.00732584,0.037305
0.0110741,0.00483087
0.0031187,0.00324023
0.00461607,0.00560847
0.0299232,-0.00302715
0.0386038,0.0167487
0.0409185,0.0104473
0.0405387,-0.0163654
0.0231701,-0.0180255
-0.0197206,-0.000754157
-0.0243911,-0.0027363
-0.0134618,0.0133071
-0.0141827,0.00921128
0.000171778,-0.00294034
0.00877639,-0.0193598
-0.0155077,-0.026405
-0.042971,-0.0043323
-0.0547403,-0.00240728
-0.0549066,-0.00163994
-0.0446911,0.0568043
0.00167076,0.0374607
0.048874,-0.00090278
0.0493886,-0.0364982
0.0410457,-0.0341024
0.0385216,-0.0217815
-0.00457492,-0.00838115
-0.0322323,0.00256724
-0.0167388,0.00306808
-0.00638954,0.0184732
0.00117959,0.0256539
0.0111781,-0.00177408
0.0183459,-0.0108743
0.0186562,0.000852687
0.00132118,0.00558753
0.0133433,-0.0118694
0.0157798,-0.0293123
-0.0306511,-0.0252275
-0.047749,-0.000190877
-0.0393266,0.0205156
-0.015835,0.0383161
0.00163516,0.0254374
-0.00826543,0.00329069
0.00105474,-0.0119091
0.0314952,-0.00429546
0.032569,0.0233205
0.0358085,0.0361886
0.029405,0.0141203
0.0112936,-0.0366545
-0.0246379,-0.0228252
-0.0170876,-0.00323961
-0.0015304,-0.00983824
-0.0189428,-0.0106998
-0.0137387,0.0219701
0.0234918,0.0105657
0.0465835,-0.00505575
0.0660584,0.00383252
0.0479198,-0.00314715
0.037568,-0.00606213
0.0158092,0.00170874
-0.0734409,0.0101294
-0.0850154,0.017656
-0.0419886,0.0185824
-0.0341923,0.0177216
-0.0542007,-0.00175462
-0.0515936,-0.0295818
-0.0179408,-0.035771
0.0204431,-0.0219574
0.0433132,-0.00404764
0.0333455,-0.0103729
0.0267023,0.00732874
0.0182649,0.0185639
0.00324728,0.00848277
0.00067952,0.013332
0.00530037,0.0147956
0.00353344,-0.0180356
0.00468388,-0.0236774
-0.00912494,0.0152643
-0.00379943,-0.00195516
0.0249605,-0.0196265
0.0341328,0.0115903
0.0083482,0.0198525
-0.0199552,-0.00333729
-0.0133427,-0.0191505
-0.00166186,-0.0236296
-0.00207973,-0.0156856
0.000204234,-0.0126951
0.0328623,0.00326802
0.0348132,0.0128524
0.00532565,0.00770116
-0.0846677,0.00627245
-0.159313,0.00374798
-0.112167,-0.00010463
-0.0616224,0.00365022
-0.0056646,0.00636103
0.0422431,0.0221149
0.0888547,0.0326464
0.145662,0.00472147
0.132869,-0.0276765
0.0302577,-0.0290965
-0.0074686,-0.0174235
0.00299264,-0.0143478
0.00384965,-0.00192986
-0.00612588,0.00335492
-0.0175797,-0.00189942
-0.0181345,0.0282339
0.0157419,0.0415379
0.0689211,-0.00114462
0.0488573,-0.0199764
-0.0116252,-0.0178221
-0.0282449,-0.0155684
-0.0349605,-0.00777623
-0.0535655,0.00680813
-0.0335181,0.0158885
-0.0172943,0.0226409
-0.013284,0.0237531
-0.12363,0.00690559
-0.156026,0.0134388
-0.0521139,0.00886399
-0.0503852,-0.00736192
-0.0816033,-0.00630413
0.129344,-0.0220313
0.212544,-0.0223076
0.155356,-0.00873923
0.0612374,-0.0063105
-0.0146743,-0.00186071
0.0127415,0.000842105
0.0804685,-0.00152843
0.00455135,0.00606082
-0.0957455,0.0355761
-0.0319187,0.0366071
0.0593889,0.0238853
0.115535,-0.0285793
0.0301368,-0.0611576
-0.0560601,-0.0513607
-0.135046,-0.0261132
-0.207906,0.00213902
-0.103317,0.0377668
0.0231984,0.0589505
-0.0277978,0.0294007
-0.0679408,-0.00876912
-0.0449844,-0.0241607
-0.00910345,-0.0181257
0.0805116,-0.00686032
0.154281,-0.00652229
0.199864,-0.00278338
0.147482,0.0138562
0.063902,0.0221756
-0.00797516,0.0124402
-0.0869624,-0.0358887
-0.0775494,-0.0397586
-0.00555301,-0.00689794
0.00242773,-0.0191696
-0.0251973,-0.0150991
-0.0270662,0.025087
0.00184929,0.0338684
-0.00276507,0.00830006
0.00882607,-0.00379004
0.00232205,0.00540578
-0.0144276,-0.00301641
-0.0279489,0.00732797
-0.0254247,0.0129202
-0.00300117,0.000787085
-0.0164232,0.00121948
-0.0395763,-0.00324776
-0.0308863,-0.00676046
-0.0130104,0.000909046
0.00499423,0.0165101
0.00860049,-0.0210564
-0.0204098,-0.0072069
-0.00432912,0.0315702
0.0870253,0.0402554
0.0960853,0.0120407
0.0244527,-0.0222663
-0.0383208,-0.0268801
-0.0199045,-0.00229055
0.0701668,0.000706291
0.0637174,-0.00611676
-0.0752332,-0.0055912
-0.115453,0.012194
-0.0517283,0.0213079
-0.0355947,-0.00295002
-0.096289,-0.0069678
-0.0673288,0.0100108
-0.0209211,0.00212471
0.00909231,-0.0145134
0.0878488,-0.0285414
0.105702,-0.0313955
0.0398254,-0.0112417
0.0154467,0.00146232
0.0072144,0.00997621
0.0256045,0.0112877
0.0528799,0.0120033
0.0627477,0.0121066
0.106679,0.0160597
0.079488,-0.00127658
-0.00737785,-0.0170661
-0.123499,0.00737601
-0.156317,-0.0175015
-0.0968339,-0.0150234
-0.0235174,0.0104265
0.036645,0.00315007
0.046816,-0.0100397
0.0155215,-0.00619281
0.0185277,-0.00626087
0.0443551,-0.00458897
0.000551712,-0.00252794
-0.0670864,0.00679543
-0.0541321,-0.0028259
-0.00397431,-0.0116363
-0.0189427,-0.0128715
-0.0494361,-0.00885883
-0.077626,0.0167764
-0.0592635,0.0406179
0.0793658,0.054041
0.248188,0.0529695
0.264117,0.0916168
0.149497,0.0278388
0.0386186,-0.0682889
-0.107293,-0.0994623
-0.237713,-0.0602456
-0.204917,-0.0280729
-0.104616,-0.00906772
-0.0205708,0.0123442
0.0166679,0.000486418
0.0296956,-0.0065855
0.0108858,-0.00939962
-0.00355266,-0.00887834
0.00173205,-0.00401283
-0.00241647,0.0234084
-0.00176631,0.0249085
-0.0126684,0.021593
-0.0172235,0.0164242
0.00862667,0.00825825
0.0671523,0.0126784
0.0943419,0.00626541
0.0752474,-0.00263933
0.0290778,-0.0131112
-0.0329057,-0.0192079
-0.0388175,-0.0101184
0.0106562,0.00492826
0.00532268,0.00316353
-0.00687998,-0.0181935
-0.00206927,-0.0194429
-0.00967441,0.0124854
-0.0327744,0.0130049
-0.0666852,0.000852126
-0.0846457,0.0114969
-0.0900296,0.0170115
-0.0487079,-0.00266872
0.0354568,-0.00963865
0.0569174,0.00342277
0.0586022,-0.0132948
0.0974029,-0.0160624
0.0818984,-0.00402102
0.00635018,0.0190084
-0.00393911,0.0272456
0.0281438,0.00724191
0.0146922,0.00335668
0.00822849,-0.0103136
0.0279304,0.00975544
0.0233776,0.00664167
-0.000728384,-0.00797761
-0.0619146,-0.000645266
-0.0287464,-0.0217183
0.0108177,-0.0360307
-0.00309014,-0.0189109
-0.0526494,-0.00648119
-0.0361096,0.001652
0.0172065,0.0157736
0.0401763,0.00626291
0.0100611,0.014235
-0.0456209,0.00130727
-0.0314693,-0.00261053
0.0166014,0.00285738
-0.0143457,0.000283011
-0.0252663,-0.020722
-0.0113858,-0.0216758
-0.0235979,0.00978396
-0.0188726,0.017873
0.00421714,0.00548638
0.0136805,-0.00917457
-0.00614539,0.0158999
0.00112075,0.0145784
-0.00889421,0.0198279
-0.0112655,0.0197581
0.0190416,-0.00513268
0.0351245,-0.0100099
0.0556386,-0.0133547
0.0415846,0.00145859
0.0162192,-0.0169682
0.000312233,-0.0167244
-0.0147289,-0.0107414
-0.0235762,-0.0160241
-0.00945059,0.0121931
0.0315029,0.0290318
0.0388575,0.0356417
0.0402322,0.0146238
0.0137344,-0.0248717
-0.0567245,-0.0412707
-0.0588423,-0.0195492
0.021474,-0.0120646
0.0549689,0.000941255
0.0122756,-0.0024514
-0.0353189,0.0139713
-0.0760197,0.0261956
-0.0382484,0.0308678
-0.012512,-0.009209
-0.0290027,-0.0364309
-0.0292357,-0.00176837
-0.0283344,0.00706551
0.00197851,0.0135539
0.0306145,0.0226052
0.0139635,0.0256097
0.0233113,0.00972868
0.0480066,0.000455865
0.0126534,-0.0115394
-0.0134544,-0.0282449
-0.0187645,-0.0283166
0.00640951,-0.0198713
0.0191143,0.00111828
-0.0217035,0.00973035
-0.0280769,0.00528346
0.0122105,0.0149638
0.0147355,0.011673
-0.0131201,-0.00542205
-0.0324653,0.0140577
0.0238317,0.0397792
0.0517717,0.0119139
-0.0116922,-0.00609701
-0.00501988,-0.047
0.0208111,0.00362378
0.0648884,0.0307887
0.165284,0.00380877
0.124994,-0.0279576
-0.0665122,-0.0728536
-0.187563,-0.0385221
-0.114652,0.039938
-0.0157543,0.0396312
-0.0529345,0.0349617
-0.0522189,0.0229888
0.00767052,0.0255505
0.0602082,0.00312527
0.0219572,-0.0341781
-0.0593184,-0.0200433
-0.0533203,-0.0152463
0.0181211,-0.000223006
0.0269814,0.0140583
-0.0191762,-0.0184063
-0.0187522,-0.0208079
0.00700714,-0.017052
0.0399757,-0.0137163
0.0509303,-0.0166076
0.0403873,-0.0129046
0.0457882,0.0137194
0.0467721,0.0186834
0.056046,-0.00172925
0.0477472,0.00966638
0.00143486,-0.00238467
-0.0354194,-0.0392936
-0.0335517,-0.00116873
-0.0370032,0.0342166
-0.0555346,0.0202247
-0.0602379,0.0182156
-0.0218243,0.0193757
0.00101712,0.00720329
-0.0119327,0.00270898
0.0109928,-0.00721974
0.00458683,-0.0214784
-0.00300933,-0.0121256
0.00246371,0.0166785
0.0178765,0.0199612
0.0292555,-0.00219206
0.017692,-0.0131218
0.0205523,-0.00223129
0.0138451,-0.00148793
-0.0183273,0.00988522
-0.0279404,-0.00510305
0.00580088,-0.0175627
0.00791738,0.00262948
0.00565993,0.0191301
-0.0116716,-0.0101544
-0.000862444,-0.0126028
-0.031515,-0.00844771
0.0138088,-0.00554555
0.0500796,0.0195328
0.0110259,0.0280443
-0.0320132,0.0209699
-0.0316961,0.0170217
0.027587,0.010623
0.0205531,-0.000765948
-0.032987,-0.0303147
-0.0420395,-0.0191345
-0.0466262,0.00152708
-0.0266238,0.00190759
0.0490125,0.025662
0.0633054,0.00120008
0.00976058,-0.0380103
-0.00946545,-0.0357616
-0.00479109,-0.011567
0.0244316,0.0149687
0.033541,0.0184471
0.00130309,0.0081601
-0.0381598,0.00591989
-0.0193398,0.016132
-0.0106377,0.00537231
-0.0233254,-0.005879
-0.00907323,0.019549
0.0220077,-0.00919618
0.0300622,-0.0398277
0.0129068,-0.0360835
-0.0018528,-0.0288673
0.00517533,-0.000616067
0.0405367,0.0183803
0.0502437,0.0104187
-0.0096483,0.0248208
-0.0761858,0.0124026
-0.0641813,-0.0408364
-0.0324788,-0.00662341
-0.00558558,0.0171729
0.0176032,0.00717389
0.0428865,-0.00531374
0.0774552,0.0112819
0.0613294,0.017253
-0.023727,-0.00869521
-0.0576916,-0.000190217
-0.0195613,0.0156189
0.00111297,-0.00758555
0.00633735,-0.0147677
0.0100477,-0.0133693
-0.0110183,-0.0190005
-0.0237563,-0.0149282
-0.0293042,0.000998307
-0.0634185,0.00601201
-0.0713889,0.0138825
-0.0557608,0.0330926
-0.0197997,0.0366074
0.078847,0.0487047
0.069583,0.0023415
0.0181196,-0.0210918
-0.0122832,0.00844828
-0.0123885,0.00401683
0.0525882,-0.0196781
0.0500548,-0.0228343
-0.00866945,0.00269061
-0.0287396,-0.00696524
0.0025641,0.00658299
0.0439866,0.025995
0.0238307,-0.00877354
-0.0231494,-0.0111331
-0.0313875,-0.00921929
-0.0133886,-0.0225254
0.0211833,-0.00967224
0.0331944,0.00139771
0.020149,-0.0060185
-0.00310119,-0.000619843
0.00378699,0.00939177
0.0889133,0.0053488
0.131939,0.00533152
-0.0197137,-0.0238561
-0.158543,-0.0440568
-0.137338,-0.00618308
-0.0590037,0.0310589
0.00782677,0.0288899
0.0829147,0.0150299
0.0339885,0.00752419
-0.0549523,0.0319114
0.0175438,-0.00218541
0.0503852,-0.0390796
-0.00531301,-0.0122779
-0.0697126,0.00942595
-0.0423777,-0.00129963
-0.00935493,-0.00971504
-0.00327375,-0.00534764
-0.0108716,0.00311444
-0.00253297,0.0017609
0.0287587,0.00732051
0.0371364,-0.000947151
0.00499684,-0.00476889
0.0165941,-0.0114638
0.107001,-0.00231505
0.172293,0.00322747
0.0798237,-0.0221406
-0.0983221,-0.0643117
-0.153953,-0.0246666
-0.108908,0.0480712
-0.046112,0.0472914
-0.0154504,0.0282151
0.00505439,0.0200375
-0.0117575,0.0233365
-0.0308942,0.0109992
0.0402594,0.00796855
0.108879,0.0214141
0.055728,-0.0281636
-0.00614145,-0.0484042
-0.0867794,-0.0289524
-0.079289,0.0115932
-0.00444647,0.017526
0.00584728,0.00450977
0.0044627,0.0201871
0.0140695,0.0273646
0.0151812,0.00717245
-0.00477243,-0.00857467
-0.0120624,-0.010184
0.0194314,0.00346149
0.0227381,0.00822608
0.0214816,-0.00188359
0.00214741,-0.0153184
-0.0103163,-0.0170758
-0.00501275,-0.0142624
0.00218969,-0.013669
0.0145643,-0.00612384
0.015076,0.0139778
0.00163238,0.0292596
-0.00367872,0.00218643
0.0124929,-0.0374543
0.0286366,-0.0257078
0.00267318,-0.00465409
-0.00723118,-0.0075637
-0.008287,-0.00556596
-0.0118357,0.00567673
-0.00751537,0.00124071
-0.00802483,-0.00737307
-0.00697729,-0.000671084
-0.0103664,-0.00329649
-0.012813,-0.0146418
-0.0054288,-0.00638469
-0.0134975,0.00580701
-0.0278983,0.0255831
0.0136464,0.0205598
0.0498307,0.00482322
0.0843885,0.00245058
0.109313,0.0134981
0.0336618,0.00411137
-0.0832758,-0.02887
-0.124066,-0.0158601
-0.0831145,0.016308
-0.0273091,0.0240519
0.00171558,0.00658607
0.00800234,0.0116883
0.0351827,-0.00272684
0.0509775,-0.0139745
0.0184929,-0.0182159
-0.0446735,0.0197752
-0.0478517,-0.0258886
-0.0145639,-0.0249339
0.0202899,0.0174377
0.0414701,0.0224587
0.00190866,0.0145843
0.012466,0.0230235
0.0281677,0.0204558
0.0329897,-0.00438543
0.0976342,0.000177935
0.0232386,0.013574
-0.100378,-0.0134316
-0.063181,-0.0119141
-0.0456625,0.0181641
-0.0186032,0.0398287
0.0194533,0.00613185
0.0343359,-0.0355965
0.00150605,-0.0408403
-0.0575727,-0.0288024
-0.0642858,0.0120138
-0.0437971,0.016502
-0.0178824,0.00679871
0.0342737,-0.000192204
0.0912924,0.00456256
0.0859765,-0.00828722
0.0385403,-0.0211448
-0.015109,-0.0112034
0.00768343,0.0196868
0.0517913,0.0181093
0.0286356,-0.0049429
0.0102516,-0.0127223
-0.00708384,-0.0174042
-0.0749039,-0.0174062
-0.0651376,-0.00807077
-0.0305564,-0.00152603
-0.00156486,0.00300798
0.000225161,0.0194183
-0.0159739,0.0106235
-0.0160078,-0.0104884
-0.0101106,-0.00808744
-0.00289383,-0.000783649
0.0255292,-0.000619655
0.0647229,0.0100338
0.0639639,0.00280279
0.0246673,0.0064422
-0.0441073,0.00347354
-0.0644956,-0.000152792
-0.0254537,-0.00987236
0.0198966,-0.00355317
0.062924,-0.00144637
0.0181106,0.00133371
-0.0245064,0.0122162
-0.0383723,0.00813306
-0.0182948,0.00694725
0.0326504,0.00624157
0.00363028,-0.00241337
-0.0279979,0.0101141
-0.0258371,6.77e-05
-0.0344435,-0.00625143
-0.0158536,-0.011581
-0.00189491,-0.0148869
0.0102202,-0.0251988
0.0167575,-0.0234462
0.0149625,-0.00397824
0.0171676,0.00542412
0.00347785,-0.00178909
-0.0102608,-0.00979947
-0.0193434,0.00232569
0.016301,0.0087896
0.0640808,0.012097
0.0106436,0.0238219
-0.0702499,0.0273541
-0.056624,0.00204559
-0.0140719,-0.023802
0.0010135,-0.0198267
0.0807349,0.00183272
0.0894147,0.0158974
-0.00930111,0.00784243
-0.0679928,0.0266337
-0.0397673,0.00879622
-0.0046545,-0.0060909
0.00508191,-0.0158027
0.0020956,-0.00820781
0.0120194,0.0163872
0.0573707,0.0106939
0.0619386,-0.019965
-0.0145536,-0.000311309
-0.0364096,0.00258006
-0.0214133,0.00162277
-0.0189827,0.00918801
0.00499202,0.00699892
0.0105691,0.00070846
0.00126598,-0.0178084
-0.00542375,-0.0190245
-0.0116923,0.00135415
-0.00102474,0.00736916
0.0163473,-0.000548398
0.0086114,-0.00540767
0.00379196,0.00195361
-0.021455,-0.0136547
-0.0238449,0.00759137
0.0268042,0.010512
0.0220894,-0.00314118
-0.00981218,-0.0105157
-0.0413515,-0.000804889
-0.050025,0.00629775
-0.0286861,0.00773284
-0.00487642,0.00645766
0.00581081,-0.00610954
0.0175551,0.00461378
0.0421702,0.014646
0.0590161,-0.0118734
0.0243948,-0.0169858
-0.0282853,-0.0106844
-0.0302375,-0.0131325
-0.00733778,-0.00741248
0.00681598,-0.00147167
-0.000138648,0.00371155
-0.00119132,0.0017254
0.00615457,0.00980693
0.0147843,0.0243867
0.0248525,0.0195186
0.0472064,0.00788047
0.0795251,0.00761262
0.0273845,0.00374776
-0.023132,-0.0021006
-0.0185605,0.0063959
-0.05261,0.00923915
-0.0647315,-0.0139854
-0.0342297,-0.00483705
-0.0342027,0.0014904
-0.0239526,-0.0376089
0.0253589,-0.0509181
0.024887,-0.0143939
0.0244148,0.00735311
0.0419612,0.028069
0.048645,0.0340209
-0.00781751,0.0113407
-0.0151604,-0.00462397
-0.0204059,0.0165572
-0.0662232,-0.00223655
-0.0707658,-0.0201325
-0.0227982,-0.0112101
-0.00602261,-0.00140388
-0.0104598,0.0094298
-0.0153608,0.00945594
-0.0176832,0.00610897
-0.0151636,0.00349067
-0.00834235,-0.00171754
3.08e-05,-0.000632885
0.00314851,0.0116735
0.0124002,0.00277955
0.0153613,-0.0035807
0.00684229,-0.00161466
0.00833574,-0.00404346
0.0244001,-0.00686806
0.0417986,-0.00887624
0.0492698,-0.0114526
0.048847,-0.0193641
0.032043,-0.0157863
0.00816412,0.00824217
0.00978032,0.0137698
0.0191595,0.013357
0.0409051,0.0267012
0.0451221,-0.00175953
-0.00648736,-0.0262857
-0.0308892,-0.0138981
-0.0340161,0.0108244
-0.0103778,-0.0161832
-0.00176171,-0.000594356
-0.00769222,0.00785717
-0.00769815,-0.00139411
0.0139535,-0.0082801
0.027736,0.00278517
0.0131847,-0.000998002
-0.0122412,-0.0335423
-0.0260273,-0.0231059
-0.0284319,0.0254688
-0.0208202,0.0154698
-0.0166229,-0.00598685
-0.00858338,0.00792989
-0.00204216,0.00427851
-0.0206109,-0.00818483
-0.059836,0.0142623
-0.0760677,0.0269958
-0.042279,0.0303543
-0.0323003,0.0330868
-0.0429422,0.0434698
0.00302457,0.016299
0.0276742,-0.0249634
0.009243,-0.0215906
-0.0296194,-0.00392815
-0.019768,-0.00412123
0.0438627,0.0124321
0.0258899,0.0310753
0.00727896,0.0154865
0.0696526,-0.00342863
0.118839,-0.029271
0.128485,-0.0474245
0.110966,-0.0508584
0.0370433,-0.0268702
-0.0286011,-0.00433909
-0.0535139,-0.000706639
-0.0613591,0.021801
-0.0736355,0.0116135
-0.0705356,-0.00579078
-0.030482,-0.00615596
-0.000672077,-0.0170432
0.00809515,-0.0178442
0.00468075,-0.00630371
0.00169391,0.0154422
0.0112545,0.0211445
0.0239877,0.0011942
0.0285414,0.00180576
0.0254315,0.00438656
0.0232671,-0.00758085
0.0261642,-0.0140132
0.0276868,-0.00953384
0.0218208,-0.00389522
0.00538876,0.000159349
-0.0181434,0.00258741
-0.0263768,-0.00216937
-0.0393473,-0.00979198
-0.0407367,-0.0129344
-0.0225198,-0.00840553
-0.0261539,-0.000406713
-0.0550165,0.0158982
-0.062024,0.0337272
-0.0490568,0.0356218
-0.0454697,0.0281418
-0.046537,0.0228205
-0.0499879,0.0154051
-0.034141,0.00628356
-0.00282412,-0.00621627
0.0180758,-0.00710747
0.0245221,-0.000261714
0.0223046,0.0140392
0.0419626,0.000575389
0.095821,-0.0372669
0.143119,-0.0370789
0.177835,0.0145825
0.254559,0.0175211
0.27063,-0.0118858
0.155072,-0.0122785
-0.014482,0.00123679
-0.165569,-0.000998184
-0.254987,-0.00291718
-0.22846,0.0142265
-0.139287,0.0203105
-0.0576905,0.00636619
-0.0352332,-0.00893894
-0.136701,-0.0193777
-0.170323,-0.0227244
-0.0646899,-0.00483561
-0.0228814,0.00063092
-0.00577564,-0.00888921
-0.000195033,-0.0142401
0.00336104,-0.0184304
0.0156962,-0.0209537
0.0113102,-0.0236078
-0.00915647,-0.016915
-0.00919736,-0.00706019
0.0207553,-0.0115354
0.0494102,-0.0111038
0.0395227,-0.00221544
0.0621711,0.00378659
0.148474,0.0117481
0.327136,0.0253993
0.529052,0.032727
0.557511,0.0333663
0.280564,0.0361956
-0.168061,0.0258945
-0.471737,0.00831773
-0.581509,0.00051363
-0.515366,0.00268007
-0.337116,0.00565765
-0.174475,0.00848485
-0.0397934,0.0166609
0.0522137,0.0214172
0.0820451,0.0219535
0.0881457,0.000658937
0.079453,-0.0111319
0.08847,-0.0219137
0.0699326,-0.0271752
0.0330363,-0.0243799
-0.00875578,-0.0261903
-0.0229635,-0.0117767
0.0268224,0.0035478
0.0550121,0.00286535
0.0556168,-0.00904837
0.0251491,-0.0155835
-0.00113796,-0.0164843
0.00504132,-0.0187385
0.032993,-0.0127658
0.0698116,0.0109049
0.103331,0.0234916
0.0688029,0.0209349
0.0110081,0.0197495
-0.0229651,0.0171647
-0.0594794,0.0188113
-0.0539377,0.0150746
0.0120311,0.0133188
0.0477047,0.00883141
0.0350908,0.0216897
-0.0231396,0.0312229
-0.0733725,0.0150569
-0.0729534,-0.000210522
-0.0487104,-0.0063025
-0.0131059,-0.0202295
0.0310566,-0.0375553
0.0849804,-0.0298193
0.161044,-0.0121247
