Comp Ch 3,Comp Ch 4
-0.00383197,-0.0096359
-0.00499667,0.0352013
0.0098311,-0.00832358
0.0100087,-0.0290572
-0.0213929,0.016278
-0.0286246,-0.0108697
-0.0174339,-0.00944748
-0.022465,0.0170638
-0.0272704,0.00919427
-0.0461369,-0.000808342
-0.0356005,-0.0251762
-0.00620616,-0.0168765
0.0133276,0.0247997
0.0355774,0.0907303
0.0379485,-0.0274356
0.0371515,-0.0437061
0.0285147,-0.0327418
0.0119912,-0.0207412
-0.0083907,-0.00557578
-0.0043374,0.0106891
-0.000326211,0.00734764
-0.0064395,0.0403765
0.0271325,0.0584348
0.0169835,0.0339919
-0.00250072,-0.00660306
-0.00633112,-0.0315718
-0.000573477,-0.03197
0.00384641,-0.0276903
0.0175248,-0.0276612
0.0216284,-0.00451145
0.0132933,0.0274615
0.0221268,-0.0103544
0.0156878,-0.00529212
-0.012824,-0.021019
-0.0119578,-0.00270127
0.0193711,0.0519523
-0.000217461,0.0994322
-0.0205035,-0.077576
-0.0272509,-0.0809678
-0.0210755,-0.00489911
-0.00814115,0.00857154
-0.00598322,0.0113409
-0.00616885,0.0123385
-0.00147182,0.0216485
0.0117613,0.0243989
0.0214575,0.00387024
0.0192585,-0.00667035
0.0174364,-0.000480966
0.0198082,-0.00110916
0.0104909,-0.00499917
-0.00621239,-0.00948265
-0.0231515,-0.0242295
-0.0390482,-0.0323015
-0.0226186,-0.00755214
0.00653559,0.0256104
0.0199406,0.0320529
0.0156994,0.00781258
-0.0241759,-0.0044815
-0.0659392,-0.00692341
-0.0526901,0.00159687
-0.0194452,0.0162841
0.0201516,0.0100377
0.0349648,-0.00311668
0.0101576,0.00945628
-0.00195789,0.0115776
-0.00660516,2.31e-05
-0.00354438,-0.00713869
0.0310945,-0.0184881
0.0464991,-0.0364626
0.026556,-0.0310645
0.00433198,-0.00823965
-0.0184572,0.0293611
-0.0106151,0.0152441
0.00183331,0.0172713
-0.000853359,0.0116014
0.0131741,-0.00608618
0.00500618,-0.00206426
-0.00919654,0.0192791
-0.00578786,0.000266867
0.00745371,0.0141035
0.0308972,-0.0156771
0.0365703,-0.00495628
0.0413767,-0.00194887
0.0434762,-0.0127036
0.00723103,-0.021572
-0.0212639,-0.0288443
-0.0352708,-0.0193868
-0.0697374,0.0201322
-0.0854992,0.0511779
-0.0665406,0.0415126
-0.0480262,0.016857
-0.0214455,-4.14e-05
-0.00219295,-0.0126694
-0.00911672,-0.0173314
-0.00302313,0.030038
0.03453,0.0297172
0.0705607,-0.0107638
0.0734984,0.0142155
0.0590515,-0.000780095
0.0321431,-0.0249907
0.0170397,-0.0493977
0.00560732,-0.0591795
-0.0094321,-0.0230406
-0.0173526,0.013601
-0.0125953,0.0105991
-0.0144499,0.017453
-0.015365,0.0172811
-0.0117528,-0.00865113
-0.00904695,-0.0181242
-0.00612495,-0.0100887
-0.000829616,-0.00757971
0.0142417,-0.00331918
0.0112745,-0.00386535
0.00556581,0.0161706
0.00552262,0.00766343
-0.0134349,-0.00378514
-0.0348757,-0.00440782
-0.0347376,-0.00868455
-0.0184297,-0.0113208
0.00164795,-0.0388929
0.0259617,-0.000182168
0.0125175,0.0501311
-0.00214403,0.0101186
0.0014419,-0.00325203
-0.000740955,0.0282853
0.0236422,-0.00444452
0.0391554,-0.0152306
0.0210823,0.00696516
0.00887144,-0.00486098
0.000247525,0.0182715
-0.0207986,0.0634382
-0.0359209,0.0446986
-0.0514151,-0.00922983
-0.0428466,-0.029366
-0.00961842,-0.0606608
0.00559801,-0.0425563
0.0186971,-0.024227
0.0271265,0.0109405
0.0320721,0.0320676
0.0342314,0.0221417
0.0203245,0.0135507
0.0074944,0.0056099
-0.00254872,0.00262264
-0.0027019,0.00603281
0.00495954,0.0283999
-0.00111997,0.0209991
-0.00917668,-0.00216675
-0.0104843,0.0163013
-0.00647497,-0.0101637
-0.00153502,-0.0399213
-0.00710024,-0.035064
-0.0116169,-0.0270887
-0.00734536,-0.0357502
-0.00840193,-0.0164603
-0.000328095,0.0183559
0.00324371,0.0467862
-0.000550166,-0.0138458
0.000630734,-0.0154751
0.00184607,-0.00622187
0.00243496,0.000401116
0.00175566,0.0277005
2.44e-05,0.0289869
-0.00388345,-0.010743
-0.011737,0.0180347
-0.0185188,0.0320727
-0.0243273,0.0275948
-0.0227862,0.0106639
-0.0331086,0.00452119
-0.0338042,-0.035909
-0.0426342,-0.0401856
-0.0383268,0.0138429
0.017005,0.0370028
0.0433126,0.0263415
0.0524996,-0.0275353
0.0673508,-0.022853
0.0745542,-0.0213874
0.0581152,-0.0283943
0.023079,-0.0144986
0.0106322,-0.0102352
0.0048135,-0.00766243
0.00216741,0.0144651
-8.31e-06,0.0107521
-0.00534696,-0.00306561
-0.00846952,-0.00731544
-0.0133746,-0.00349569
-0.0164792,-0.0144389
-0.021371,-0.00862848
-0.0194053,0.0201765
-0.00982548,0.0501581
-0.00593734,0.0169005
-0.0104687,-0.00307175
-0.0122104,0.00731438
-0.0103324,0.000985897
0.00229269,-0.0374018
0.00438138,-0.0287527
-0.00229494,-0.0100243
0.00125371,0.00615657
0.00671285,0.0252332
0.00543084,0.0214809
-0.00346107,0.00897034
-0.0183758,-0.0193757
-0.0197191,-0.0275551
-0.00965436,-0.0229568
-0.00271843,-0.0115308
0.00182188,0.0122856
0.00240318,0.0274402
0.000285833,0.0331047
-0.00337451,0.00181766
-0.0121026,0.00334621
-0.00743477,-0.0176724
0.00881755,-0.015589
0.0144551,-0.00999558
0.0105954,0.00868128
0.00158918,0.0275827
-0.00819241,0.0196399
0.00328128,-0.00252996
0.010101,-0.00260342
0.00166179,0.0283849
0.00689854,0.00255785
0.0202141,-0.0453092
0.0258862,-0.0154429
0.0222407,-0.0181926
0.0174376,-0.00228515
0.00689603,-0.00170313
-0.00516319,0.00199266
-0.00796991,-0.00272035
-0.00633867,-0.0170605
-0.00361859,-0.0128427
0.000607274,-0.00410747
0.000510109,0.00802838
0.00450357,0.0193382
0.00318651,0.0132564
-0.00628438,0.00406999
-0.0145489,0.00657294
-0.0154044,-0.000200593
-0.016305,-0.0119111
-0.0297162,-0.00120104
-0.0277603,0.0299534
-0.0103429,0.048521
-0.00943839,-0.00491928
-0.0192586,-0.0255873
-0.00362359,0.00150769
0.00512564,0.0004997
-0.00967121,-0.0213739
-0.000536951,-0.00612456
0.00270206,-0.0159089
-0.0024976,0.00423841
0.00488554,0.0252362
0.0244705,0.0100995
0.0412725,-0.00400696
0.0613469,-0.00152619
0.0235797,0.00130608
-0.00094179,-0.015351
-0.00776985,-0.0237344
-0.0081095,-0.00197084
-0.00240273,0.017311
0.00329591,0.0145429
0.00252652,-0.00444961
-0.00192384,-0.0137213
-0.00241009,-0.0144604
-0.00497943,-0.0145365
-0.00878233,0.00160637
-0.0123891,0.0195841
-0.011153,0.0223877
-0.00685024,0.00967054
-0.00311717,-0.0145343
-0.00646893,-0.00906269
-0.00981034,0.00114216
-0.0108835,-0.00529877
-0.00463803,-0.00158642
-0.00155697,0.0102438
0.00662943,-0.00775632
0.0119024,-0.00484133
0.0129689,0.00302584
0.0137363,-0.0122904
0.0118465,-0.0161763
0.00678359,-0.0135007
-0.0012114,-0.00259535
-0.0126338,0.00865976
-0.027967,0.0235651
-0.0411298,0.0548107
-0.0405216,0.0430534
-0.00759477,-0.0182198
0.0168443,-0.0374113
0.00345151,-0.011704
0.00248221,-0.0231905
0.0149031,-0.0485631
0.0285725,-0.0136183
0.0281989,0.0269663
0.0138273,0.0190454
0.0147812,0.000309745
0.0189051,-0.00664202
0.00456536,0.00316898
-0.0058226,0.00983075
-0.00772173,0.010401
-0.000862507,0.00155887
0.000125362,0.0227301
-0.00876228,0.0530865
-0.0174069,0.0455809
-0.0169479,0.02326
-0.00407874,-0.0239386
0.00905993,-0.0506342
0.0130511,-0.0343482
0.00766043,-0.0125071
-0.00519448,-0.0167814
-0.00545658,-0.0171396
-0.00278329,0.00279822
0.00178119,0.020376
0.004663,-0.00246266
0.000399506,-0.0335147
-0.00177522,-0.0172113
0.0041163,-0.0020756
0.0151077,-0.00107919
0.0212039,0.0124381
0.0096552,0.0173986
-0.00745119,0.00614276
-0.0169236,0.00333315
-0.0102059,0.00697432
-0.00653621,-0.00236836
-0.0068034,-0.00644721
-0.00777487,0.00214252
-0.00908614,0.0254163
-0.00747614,0.024376
-0.00561191,0.0162737
-0.00452456,-0.00762846
0.00664302,-0.033425
0.00338148,-0.0164758
0.00491144,-0.0194446
0.0111401,-0.0256403
0.00693473,0.0109992
0.00900956,0.00715826
0.00721632,0.00243808
0.00106941,0.0227617
-0.00538096,0.0208609
-0.00946397,0.00459723
-0.0121974,-0.0151485
-0.0127644,-0.0194928
-0.0115339,0.00449299
-0.00573178,0.020597
0.0024887,0.0110769
0.00823092,0.00628491
0.00618003,0.00631373
0.00596979,-0.0092359
0.000834256,-0.00771421
-3.05e-05,-0.00132834
0.0064713,-0.0100796
0.00347232,0.00128807
0.00320715,0.0177404
0.00367303,0.0193164
0.00108666,-0.00922679
-0.000834634,-0.0109927
-0.00141155,-0.0108527
-0.00311696,-0.0229702
-0.00514027,-0.0174001
-0.00125941,0.0101235
0.00655203,0.0223802
0.0132869,0.0107746
0.0051467,0.0340067
0.00220694,-0.0277236
0.000510906,-0.062038
-0.00838215,-0.0181442
-0.012584,0.0193653
-0.00945263,0.0169017
-0.00443013,0.0190336
0.0011242,0.0349548
0.00462332,-0.00524393
0.00256665,0.00946256
0.00256864,0.0083554
0.00451328,-0.0242768
0.000630617,-0.0190964
-0.00694384,-0.0161385
-0.00639192,0.00491234
-0.00406739,0.0164105
-0.00498212,-0.0017389
-0.01036,0.00338318
-0.00560255,-0.0142886
0.00498904,-0.0446796
-0.0100547,-0.00898394
-0.0132771,0.020578
0.00122406,0.0204472
0.00571102,0.0372209
0.000911389,0.0475259
0.00259863,0.0663855
0.015168,0.00430577
0.0236518,-0.0638668
0.0195152,-0.0309932
0.0205413,0.0146839
0.0253174,0.0238455
0.0150004,0.0108163
-0.00916952,0.0187422
-0.0190499,0.00772193
-0.0225361,-0.0244212
-0.0122326,-0.0507866
0.000941147,-0.0684865
0.00408023,-0.0623092
-0.00536733,-0.0264225
0.000515826,0.00341909
0.0101506,0.00514387
0.00574348,-0.0090307
-0.0100761,0.0445421
-0.010129,0.00347369
-0.00294019,-0.0388446
-0.00517042,-0.00594426
-0.00325401,0.0286655
-0.00225246,0.0302248
-0.00574875,0.00984654
-0.014735,0.0307558
-0.0192273,0.064216
-0.0124726,0.0391336
-0.00602442,-0.022505
-0.00493099,-0.06665
0.00318317,-0.057261
0.0104646,-0.0116338
0.0128781,0.0191429
0.0175526,-0.0099487
0.0203869,0.018757
0.0150448,0.00248754
0.00601483,0.0288088
0.00287358,0.0441244
0.00754549,0.0175569
0.00321076,0.0161866
0.00109942,-0.0586856
-0.00089128,-0.0427685
-0.0051563,-0.0247832
-0.00684104,-0.00248541
-0.00773983,-0.0116364
-0.00726963,-0.0107626
-0.00761123,-0.00553957
-0.0100848,0.0334383
-0.0127757,0.0908628
-0.00158024,0.0605851
-0.00498332,0.0116239
-0.0129249,0.0797049
-0.00299002,0.0990676
0.00579761,0.0306547
0.00859671,-0.0985249
-0.000369304,-0.130123
-0.0135942,0.0203388
-0.00305714,-0.0192669
0.00821245,-0.0269557
0.0103733,-0.0463702
0.0100469,-0.0774313
0.00258079,-0.0473648
-0.00258256,-0.0192049
0.0068501,-0.0382021
0.00936081,-0.00336261
0.0133306,0.0267937
0.0129068,0.0171614
0.00406294,0.0884502
0.00670697,0.102162
0.0191565,0.0314544
0.0274287,-0.120678
0.0165233,-0.080468
0.00248325,0.000808554
-0.0048053,0.0308917
-0.0121547,0.0404394
-0.0182091,0.0597291
-0.0170234,0.0344388
-0.0234519,0.00370988
-0.0232088,-0.0159427
-0.019514,-0.0412082
-0.0121079,-0.0321181
-0.00247336,-0.00239025
0.0124856,0.0233799
0.0207285,-0.0171484
0.0118837,-0.0348566
-0.000887729,-0.0243305
0.00465434,0.00719268
0.00996234,0.0182691
0.00087125,0.0123804
-0.00978077,0.00683779
-0.0070129,0.0292309
-0.00308896,0.0177812
-0.00715815,0.0218776
-0.00645311,0.0132106
-0.00805674,-0.00093972
-0.0016247,-0.02113
0.0082526,-0.022876
0.00671501,0.00799153
0.00570315,0.0242763
0.00738126,-0.0108188
0.0130445,-0.0389181
0.0190255,-0.0153191
0.0186907,-0.0138626
0.00820332,-0.00287209
-0.00191031,0.00562572
-0.011859,0.0185436
-0.0211171,0.034761
-0.0250807,0.0231521
-0.0200353,0.01185
-0.0156954,0.017869
-0.00934273,0.0129926
-0.00215711,-0.00919287
-0.005617,-0.0128347
-0.00318307,-0.0164228
0.00306795,-0.00306764
0.0121389,0.00280876
0.0253078,-0.0182938
0.030119,-0.0111965
0.0219306,0.000310904
0.0171807,0.00349482
0.0120987,-0.00581817
-0.00886231,-0.0070469
-0.0414056,0.0233298
-0.0643581,0.0298314
-0.0579376,0.00846764
-0.0540564,0.00177456
-0.0381219,-0.00458862
-0.00164366,-0.00161196
0.0175994,-0.00703726
0.0267748,-0.0631988
0.0370432,-0.03979
0.0237425,0.0261537
0.0173156,0.0523057
0.0279252,0.0248139
0.0483106,-0.0854091
0.0476993,-0.0521406
0.0399536,-0.0226369
0.0226913,0.00319383
-0.00417345,0.0276223
-0.0197344,0.0477241
-0.0192333,0.058944
-0.00776869,0.0735583
-0.0123629,0.0078932
-0.0160542,-0.0387433
-0.0108446,-0.0221296
0.00426082,-0.0299823
0.00654013,-0.0566623
-0.0120531,-0.0299574
-0.0295606,0.0153844
-0.0340716,0.0178789
-0.0315583,-0.00522014
-0.0258853,-0.0091034
0.0136517,-0.00676633
0.0334219,-0.0094434
0.0331844,-0.0131656
0.0133748,0.024171
0.00808982,0.0623202
0.00172559,0.0458454
-0.039068,-0.00858871
-0.0758172,-0.0168742
-0.0527862,-0.014227
0.00705028,-0.0166635
0.0599823,-0.0187644
0.0896137,-0.0096898
0.0645037,0.00742494
0.0202487,0.0144947
0.0285354,0.00543836
0.0255588,-0.0192283
0.00913398,-0.0174831
0.00549686,0.011488
0.0099006,0.0137164
0.00755222,-0.000928728
-0.0181649,-0.0031041
-0.0421665,0.00309096
-0.0438125,0.00463852
-0.0377492,0.00357064
-0.020924,0.00291942
-0.000765203,-0.00443259
-0.0149684,-0.00755157
-0.0372407,0.00240779
-0.0493899,0.00615863
-0.0558791,0.0196755
-0.0452595,0.0353326
-0.0143588,0.0172872
0.0193029,-0.00970584
0.0392676,-0.0125589
0.0582353,-0.0139226
0.054593,-0.021456
0.0684528,-0.0221527
0.0346789,-0.00134147
-0.0182756,0.0213694
-0.0118762,0.00613899
0.0114226,-0.00653263
0.0132919,-0.00551738
0.00405616,-0.00139322
0.000862475,-0.001689
-0.0266835,-0.00702293
-0.0377224,-0.0076062
-0.0272757,0.00258065
0.00213214,-0.000294171
0.0471846,-0.00157857
0.0419628,0.00507071
0.0231413,0.00314226
0.00268974,-0.00720915
-0.0136691,0.0012168
-0.0313842,0.0187087
-0.0526446,0.037093
-0.0276894,0.0298821
-0.00449399,0.00200907
-0.00285995,-0.0210542
-8.01e-05,-0.0211941
0.0136025,-0.0281865
0.0397797,-0.0258643
0.0347771,-0.013996
0.0167179,-0.00562154
0.00875664,0.0187459
-0.00169028,0.0295818
-0.000138051,0.0168869
-0.00966504,-0.00326592
-0.0282886,0.0107845
-0.0278679,0.0359382
-0.0210586,0.00571275
-0.0176994,-0.0521679
-0.0105984,-0.0380057
0.0201975,0.0358978
0.0276372,0.033353
0.0138254,-0.00500401
0.000707951,-0.0207431
-0.00174821,-0.0250963
-0.00139971,-0.0142325
-0.00163756,-0.00480235
0.00378485,0.0164073
0.00296139,0.00506554
-0.00704412,0.00249763
-0.012292,-0.00471029
-0.00536726,-0.0126516
-0.0123409,-0.00898828
-0.0430758,0.0204109
-0.049806,0.0192049
-0.0612367,0.00193053
-0.045354,0.015152
0.0153046,-0.0340327
0.0573871,-0.0167788
0.0625306,-0.0057098
0.0441958,-0.00102979
0.0355255,0.0172295
0.0193473,-0.0116123
-0.00355937,-0.0132727
-0.0211183,0.00790144
-0.0124183,0.0539691
0.00583626,0.0811506
0.0131101,0.00532963
0.00980864,-0.0508452
0.0114865,-0.0438665
0.0368416,-0.0619154
0.0326826,-0.0352503
0.00942133,0.000388211
-0.00521295,0.0155623
-0.00156797,0.0143461
-0.000520862,0.0223415
0.00196814,0.0376217
-0.00909693,0.0124225
-0.0252523,-0.0383019
-0.0235507,-0.0282642
-0.0177615,-0.00532191
-0.015902,0.0200388
-0.0113069,0.0187347
0.00498427,-0.0167294
0.0203451,-0.0148741
0.0307529,0.00924686
0.0246454,-0.00213387
0.00700804,-0.0128861
-0.0168493,0.0113338
-0.0164972,0.0235684
-0.00224205,-0.00260437
0.002076,0.00312919
0.011542,-0.00771435
0.0181436,-0.0298602
-0.00352812,-0.0124102
-0.0344929,0.0172462
-0.0294163,0.0121117
-0.0164253,0.00224032
-0.00919338,0.0121722
-0.00309882,0.0118373
0.00193562,0.0259999
0.0108805,0.0353279
0.0167212,-0.0219091
0.0171217,-0.0320585
0.0190852,-0.0179451
-0.00607361,0.00603284
-0.00741618,0.0254865
0.00697417,0.00763142
-0.017955,-0.00156612
-0.0608995,0.010045
-0.0729938,0.0130902
-0.0707705,0.00196847
-0.0545189,-0.0160047
0.00792872,-0.0187244
0.0431627,-0.00266485
0.00811562,0.00985151
0.0138308,-0.00424375
0.0274968,-0.0106833
0.0373052,0.0211796
0.0623961,0.0136949
0.0475738,-0.00202372
0.0279639,0.00534156
0.0157601,-0.0364459
0.00326314,-0.0292134
0.0138875,0.00117503
0.0120979,0.0226702
0.00251741,0.00776247
0.0159339,-0.00780773
0.0224984,-6.83e-05
0.0136573,-0.00206799
-0.00516784,-0.0210251
-0.0268113,0.00332481
-0.0276207,0.0320065
-0.0221315,-0.0173007
-0.0182694,0.0057752
-0.0197731,0.00517541
-0.0112257,-0.0388561
0.00496938,-0.0227651
0.0155052,-0.00604537
0.012556,0.0124235
0.00734554,0.0235862
-0.00210918,0.0203011
-0.0176629,0.0103222
-0.0157564,0.0161115
-0.0106352,0.0238978
-0.0109147,0.0116036
-0.0117746,-0.0376454
-0.00719539,-0.0170643
0.002098,0.0289489
0.00439796,0.000206851
-0.00824835,-0.0100475
-0.0235916,0.00159234
-0.0254923,-0.0167686
0.00366917,-0.0566809
0.0458561,-0.0213591
0.0487587,0.00815155
0.0160663,0.00766973
0.00777873,0.020667
0.0130704,0.0622412
0.0192377,-0.0386701
0.012365,-0.0537066
0.0101203,-0.014371
-0.00391275,0.0201582
-0.0156014,0.0581592
-0.0247991,0.120174
-0.0257865,0.0993171
-0.00831234,-0.118877
-0.0237404,-0.0870021
-0.0687624,-0.00474821
-0.0798042,-0.0206146
-0.0163447,-0.0209312
0.0593576,-0.0127442
0.0523963,0.00586055
0.0444217,0.0031831
0.0365149,-0.00440901
-0.0114928,0.021603
-0.028685,0.0214973
-0.0513298,0.0551345
-0.0476835,-0.0288224
-0.0184707,-0.0523441
0.00342792,-0.000522085
0.0256182,-0.0292017
0.0485608,0.00225444
0.044345,-0.000504932
0.0448384,-0.0119039
0.0507421,-0.00816008
0.0335396,-0.00513985
0.0156186,0.00649954
0.0170301,0.0303959
0.00123699,0.0520687
-0.0121398,-0.00985406
-0.0252642,-0.016621
-0.0419586,0.0868008
-0.0298867,0.0511122
-0.00973524,-0.0798466
-0.0156295,-0.0507797
-0.0493774,-0.0166191
-0.0808388,-0.000813637
-0.0277754,0.0215902
0.0235254,0.0165316
0.0568861,0.0161759
0.0982813,0.0315056
0.0844113,0.0711381
0.0601005,-0.0190672
-0.000925062,-0.0356576
-0.0256781,-0.0230494
-0.076561,-0.0426448
-0.029965,-0.00275408
-0.0192295,-0.0100599
-0.0869128,-0.0408686
-0.0729588,-0.0384887
-0.0613343,0.0315172
-0.0920847,0.0810268
0.0171034,-0.0149384
0.0704174,-0.0137505
0.105762,-0.012993
0.111381,-0.0189907
0.0392524,-0.0182032
0.0111105,-0.0562461
-0.0497386,-0.0255358
-0.0511219,-0.00861251
0.0200691,0.00812016
0.0937907,0.0605129
0.15749,0.0227995
0.0999201,-0.0216646
-0.0264902,0.0128982
-0.092843,0.0214864
-0.10396,0.0150726
-0.0793124,0.0272666
-0.0429763,0.0556033
-0.0286323,0.0141915
0.00554391,-0.00967721
0.0294441,-0.00698648
-0.0023166,-0.029646
-0.00981886,-0.017794
-0.00445975,-0.00971982
-0.0175939,-0.0220211
-0.00106816,-0.00599184
-0.00733698,0.00890271
-0.0256792,0.0311024
-0.0312377,0.0169845
-0.0142385,0.0111111
0.0138178,-0.024008
0.0211856,-0.0178338
0.0426857,0.0422308
0.0663622,0.0321427
0.0611767,-0.0533111
0.0220636,-0.0542165
-0.0156442,0.0126871
-0.0177326,0.0363222
-0.0195436,0.11309
-0.0158858,-0.033606
-0.0334864,-0.141084
-0.0342581,-0.0545748
-0.0590735,0.00876747
-0.104983,0.0768079
-0.0423026,0.191448
0.0677494,-0.0467493
0.0923924,-0.167242
0.0616242,-0.0724547
0.0538162,0.028385
0.0522979,0.0782602
-0.0202409,0.0418673
-0.0593177,0.00643176
-9.8e-05,0.00070852
0.0326133,-0.0090441
0.0312284,-0.00217134
0.0360474,-0.0205168
-0.0168958,-0.0263776
-0.0434221,0.00564833
-0.0288285,-0.0304577
-0.0240192,-0.0272691
-9.17e-05,0.00745555
0.00261503,0.0406426
0.0157945,0.0264851
0.0313959,-0.00219039
0.00804121,-0.055892
-0.0324518,-0.029694
-0.0910834,0.00783124
-0.091165,0.0612577
-0.0180005,0.0451241
0.0401054,-0.0093919
0.0494929,-0.00107223
0.0376807,0.015461
0.0259448,-0.0149978
0.0676951,-0.00814741
0.0850853,-0.0180606
0.0102071,-0.0224049
-0.0311331,-0.0203459
-0.0330809,0.00708329
-0.0141902,0.018986
0.00478409,0.0126457
-0.00488539,0.0500215
-0.0670154,-0.0529726
-0.0893887,-0.0792927
-0.083615,-0.0297942
0.021275,0.0267835
0.144489,0.0674287
0.186797,0.113294
0.082087,0.12812
-0.135559,-0.047735
-0.282231,-0.0680385
-0.118127,0.0145936
-0.0793271,-0.0137087
-0.140775,-0.0484718
-0.0281651,-0.0617343
0.105727,-0.0310351
0.140514,-0.0155957
0.133506,0.00856233
0.14634,0.089348
0.177483,0.0408932
0.145427,-0.11361
0.0103366,-0.099225
-0.0464544,-0.00100564
-0.0807558,-0.00511349
-0.0574297,-0.0424945
0.017921,0.0304175
0.0209768,0.0521669
0.0047424,-0.00705739
0.018523,-0.0167967
0.0613454,0.00748377
0.0723548,0.0222375
-0.00800374,0.0485033
-0.126587,0.016095
-0.196334,-0.0429173
-0.255694,0.0252289
-0.26421,0.0650739
-0.0982125,-0.0282013
0.130938,0.1073
0.217614,0.0876653
0.13629,-0.100937
0.0221727,-0.14309
-0.0919501,0.0252388
-0.0264265,-0.0527917
0.16396,-0.0872233
0.302972,-0.00571805
0.305207,0.0813632
0.165347,0.125498
-0.0505422,-0.0798127
-0.25828,-0.0678105
-0.260867,0.0617176
-0.135415,0.177537
0.0431451,-0.0507618
-0.188841,-0.10697
-0.204344,0.0223039
0.133225,0.0460739
0.222781,-0.0102773
0.145568,0.0481609
0.124873,-0.0398826
0.0292031,-0.075703
-0.184595,-0.00747766
-0.339764,0.0643005
-0.184224,0.134488
0.146129,0.0766494
0.247817,-0.0893909
0.0986949,-0.0461335
-0.0706989,-0.00503282
-0.102365,-0.0518785
-0.166744,0.00984212
-0.0694205,-0.0427773
0.0456212,-0.0729591
0.0305445,0.0127278
0.0685555,-0.016322
0.0564502,-0.00135301
0.024904,0.0618666
0.0627727,-0.0741609
0.0977365,-0.0951335
0.0803472,0.0609156
0.0507227,0.0879394
0.0129362,0.0939233
-0.110815,0.0358701
-0.153073,-0.0800422
0.0346635,0.0154612
0.253696,-0.0196078
0.234618,-0.0652219
0.0430273,0.0112195
-0.00165182,-0.0169691
-0.021517,-0.0842647
-0.0054403,-0.0373847
-0.166172,0.00224511
-0.338685,-0.0667274
-0.392834,0.0214521
-0.351898,0.136269
-0.292406,0.104463
-0.157336,0.00854462
-0.125814,0.00322766
0.0275212,0.111242
0.228461,0.13106
0.461249,-0.131861
0.648544,-0.11317
0.49115,-0.0236457
0.291868,0.0171495
0.13182,0.0152518
-0.0896211,0.0358042
-0.226972,0.023966
-0.278084,0.0178063
-0.273879,0.0909795
0.0537484,-0.0191209
0.351056,-0.0822541
0.305892,0.00840597
0.041958,0.0316079
-0.25022,0.0165014
-0.398681,-0.0333506
-0.277215,-0.0488793
-0.0873904,-0.0336049
-0.0231273,-0.0109774
0.0287028,-0.0560864
-0.0620569,-0.060338
-0.147576,-0.0479273
-0.128522,-0.0268962
-0.0678612,-0.0113048
-0.0176422,0.010932
0.0100894,0.0765638
0.0317543,0.0605456
0.0580631,-0.10464
0.0556748,-0.0745404
0.0624423,0.0202705
0.131945,0.0460338
0.097088,0.0184591
0.021805,0.0141446
-0.00278296,0.0493365
-0.0329501,0.00654729
-0.0139343,-0.0124777
0.0581842,0.0277441
0.118116,0.0785323
0.146588,0.053947
0.0883415,-0.00124106
-0.010584,0.00336756
-0.0732309,-0.0378684
-0.0134567,-0.0312156
0.0742996,-0.00506261
0.0358412,0.0219015
-0.06985,0.0340835
-0.106954,0.00899884
-0.0350749,0.0231744
0.00389821,-0.00840779
0.0129886,-0.0723263
0.0136203,-0.0448855
0.0320274,-0.0127338
-0.0368169,0.0201361
-0.0960194,0.0774525
-0.00860771,0.0150436
0.0419676,0.0154778
0.0573097,-0.0261273
0.0619538,-0.0442819
0.0310866,-0.0457825
0.0410721,-0.0205227
-0.0764061,0.00534091
-0.160557,-0.0548098
-0.105693,0.0374639
-0.108321,0.0580266
-0.0520242,-0.0358712
0.0458166,-0.00988069
0.0607009,-0.00563629
0.0832835,-0.0383542
0.0869391,-0.0423996
0.127134,-0.012142
0.0592586,0.0588742
-0.00496255,0.0477223
-0.0166232,0.00939277
-0.0611963,0.00111095
-0.0378769,-0.0140249
-0.0127765,0.0125848
-0.0190636,-0.0217423
-0.0351508,-0.0236521
-0.0389738,0.0445341
0.0185311,0.0358669
0.148688,0.00712386
0.177321,0.00481794
0.0917856,0.0404697
0.140086,-0.00404272
0.0704119,-0.00191785
-0.0289326,-0.000297889
-0.162839,-0.0162097
-0.229098,-0.0223101
-0.191454,-0.053451
-0.0851793,-0.0455078
0.0256761,-0.0231314
0.0241779,-0.036133
0.0280667,-0.0352306
0.048612,0.0210905
0.0496083,0.0883388
0.0326033,0.0105828
0.0185789,-0.0357661
-0.00652779,-0.0322849
-0.024636,-0.00963646
-0.0474694,0.0305307
-0.0591404,0.038375
-0.0696317,0.0366031
-0.069468,0.0411455
-0.037476,0.039548
0.0147173,0.0435791
0.0263318,0.042891
0.0161826,-0.0167768
0.0281846,-0.012568
0.0560956,-0.068876
0.0824889,-0.0707656
0.0833188,-0.0487844
0.0644157,-0.0446938
0.0814766,0.0372718
0.114034,0.0947029
0.0557534,0.109834
-0.0375794,0.0213773
-0.141351,-0.0799367
-0.171171,-0.0266515
-0.136172,-0.0356107
-0.100695,0.00578481
-0.0642899,-0.00602597
-0.0409629,0.00637845
-0.0450889,0.0388293
-0.033054,0.0428251
0.0413789,-0.0559665
0.0841776,-0.033677
0.0826135,0.0533709
0.0214516,-0.0259232
0.00803158,-0.0259336
0.0687764,-0.0190243
0.0676487,-0.0239375
0.00531961,-0.0190688
-0.0221551,-0.0165511
-0.0137533,0.0114401
-0.0511322,0.0468882
-0.0687504,0.0380566
0.0251061,-0.0166119
0.0592064,-0.0138451
-0.0470722,-0.00961103
-0.108496,-0.0310713
-0.0657978,-0.0176729
0.0102812,-0.00623458
0.0630894,0.00105924
0.0904769,0.0291806
0.141575,0.0275678
0.0888908,0.017072
0.0654622,-0.00270553
0.034199,-0.0177483
-0.024779,-0.000699923
-0.090056,-0.0120099
-0.0625679,-0.0252731
-0.0158093,-0.00124581
0.0202113,0.0207795
0.0355784,-0.0420374
0.0382708,-0.0160247
0.00527573,-0.00910445
0.00566403,0.0111458
0.00863783,0.00931303
-0.0202793,-0.0199813
-0.057383,-0.0913658
-0.066832,-0.0101414
-0.0246824,0.07726
0.00577982,0.0948381
0.0288444,-0.0325988
0.0319806,-0.0649341
0.0535584,-0.00707431
0.0781396,0.037164
-0.0139708,0.0135642
-0.101552,0.0113462
-0.0988511,0.0350905
-0.0293305,-0.00871038
0.00763997,-0.0109543
-0.00320438,-0.00304784
0.0333619,0.121118
0.0687614,0.156256
0.071781,-0.00608073
0.029344,-0.0626726
-0.0650933,-0.0252066
-0.118177,0.0014865
-0.0746582,-0.010568
-0.0356255,0.0604846
-0.0424862,-0.0088908
0.00839389,-0.0803846
0.00740511,-0.0351989
0.0226848,0.021888
0.0164199,0.0293455
-0.00431302,0.0136447
0.011949,0.00163891
0.0120498,-0.0434974
0.0477289,-0.0321792
0.0422062,-0.0610691
0.0107663,-0.0114704
0.0122887,-0.0212772
0.048258,-0.0214398
0.0516506,0.044472
-0.020938,0.0480019
-0.0391126,0.0139101
0.0236564,-0.0710828
-0.0304432,-0.0368253
-0.0482342,-0.0024829
-0.0103605,0.0123712
-0.0045272,0.0147873
0.0322777,-0.0332792
0.0548218,0.0670376
0.0260335,0.0807637
-0.018357,-0.0291452
-0.00795813,-0.084641
-0.0275945,-0.0654423
-0.0262714,0.0446643
0.100298,0.0700911
0.0899339,0.122682
0.011809,0.019101
0.0332735,-0.0681784
-0.0395309,-0.0815624
-0.146519,-0.0666203
-0.165713,-0.0391486
-0.0821215,-0.00559029
-0.0623446,0.0295465
-0.0336665,0.0493337
-0.00223774,0.0287785
0.0253657,0.0193205
0.101168,0.0206462
0.196549,-0.000645663
0.239949,-0.0158482
0.0865544,-0.0138111
-0.0858797,-0.0239377
-0.121779,-0.0420056
-0.0811462,0.00476541
-0.0479076,0.0698811
0.00597372,0.0107734
0.0540891,-0.00803942
0.0323021,0.0314004
0.00216052,-0.00319699
-0.0173022,-0.0125826
-0.0264495,0.0175275
-0.0522942,-0.0444769
-0.0659354,-0.0478952
-0.0279703,0.0219037
-0.00030826,0.0145159
0.0411355,-0.0143059
0.026568,-0.018121
0.0485766,-0.0202582
0.0511688,0.00468234
0.00658903,0.0450326
-0.0479493,0.0743439
-0.0397882,-0.00129636
0.0224058,-0.0107404
0.0597148,-0.0349132
0.0155301,-0.00583228
-0.0718462,0.0356795
-0.0780566,0.0196427
-0.0845443,-0.0195669
-0.0888139,0.063352
-0.0545254,0.13249
0.0376672,-0.0548823
0.119695,0.0228607
0.068399,0.0356951
0.0298164,-0.148554
-0.0172937,-0.0893542
-0.101701,-0.0517411
-0.128802,-0.0241046
0.0126623,0.0438156
0.11695,0.0191227
0.107573,-0.0306572
0.143106,-0.0226378
0.0914001,0.0159847
0.00618774,0.0250004
-0.0255445,0.0227612
-0.0553439,0.0228464
-0.114833,0.0150867
-0.144521,0.0157909
-0.0125215,-0.0187946
0.115074,-0.0581812
0.155284,-0.00722855
0.0841515,-0.0034452
-0.0141381,-0.044019
-0.00637567,-0.0459167
-0.00807672,0.0278156
-0.0229719,0.0686648
0.0106554,0.0279547
0.044852,-0.00583785
0.0146667,0.000721394
-0.0965245,-0.0279447
-0.142997,-0.0323022
-0.109554,-0.0211167
-0.0843163,0.00269302
-0.0054143,0.0043723
0.0499319,-0.00442329
0.0389361,-0.0179981
0.00372898,-0.00847798
0.00733904,-0.0108226
0.0870119,0.0430762
0.110792,-0.0607795
0.0350628,-0.0295487
-0.047317,0.0305201
-0.0595797,0.0639246
0.0298628,0.0498259
0.024649,-0.0004506
0.00806551,-0.0031784
-0.0223174,-0.00662531
-0.0221086,-0.00385635
0.000454542,0.024696
-0.00876607,0.0945799
-0.0172576,-0.0390547
-0.0534724,-0.122517
-0.0403145,-0.0401116
0.0452191,0.00249941
0.107719,0.00443916
0.0843241,0.00626309
0.00143282,0.0168253
-0.0515556,0.025116
-0.0997159,0.0428196
-0.13384,0.0813807
-0.128494,0.0423783
-0.0125346,-0.0305902
0.0922898,-0.0358683
0.0734951,-0.0297434
0.0338721,-0.0202233
0.0526695,-0.00540583
0.0675821,0.0053906
0.0429819,0.030242
0.0314272,0.063717
0.0411811,0.0284273
0.0579862,-0.0691277
-0.0366684,-0.0539897
-0.115785,0.0029377
-0.0966118,0.0386234
-0.00421946,0.0020867
0.0289672,-0.00249949
0.00184539,0.0280884
0.0182405,-0.0390209
0.0294054,0.00376299
-0.0179456,-0.0370093
-0.0334997,0.00268343
-0.0152923,0.0257581
0.0137248,0.0173114
0.00921643,-0.0115177
-0.050508,-0.0124195
-0.0339385,-0.00131388
0.00887634,0.0256527
-0.0381438,-0.0062802
-0.0243352,-0.0814059
0.097188,-0.000784185
0.106641,0.0400513
0.0397995,0.0303031
-0.0186617,-0.0027393
-0.0450879,-0.0616814
-0.0494541,-0.0210863
-0.0261736,0.0152405
0.0178806,-0.000161082
0.0312426,-0.0317812
0.00671056,0.0173788
-0.00877505,0.0262881
0.000277832,0.0175688
0.00495238,0.00329882
0.00451907,0.00149408
0.00992725,-0.00405172
0.0139757,-0.010667
0.00452616,0.00219757
-0.00920043,0.00980378
-0.0247238,0.0097905
-0.0246054,0.0119793
-0.00560373,0.0171495
-0.0177239,0.0186881
-0.0423982,0.0196452
-0.0473713,0.0153526
0.0171952,-0.00687636
0.0937429,-0.0216479
0.0472802,-0.00397361
0.00451911,0.0126724
-0.0207095,0.00561438
-0.0178347,-0.00311861
-0.0192353,0.0122667
-0.0223241,0.0427038
0.00727297,-0.00359481
0.0408682,-0.016019
0.0476959,0.00800565
0.020546,0.0224706
-0.0229141,0.0709877
-0.0264032,0.0313798
-0.0783074,-0.0772878
-0.179359,-0.0159929
-0.10166,0.0448582
-0.0779494,-0.00139748
0.00229243,-0.0100829
0.0894709,-0.0110236
0.0730562,-0.0454648
0.133504,-0.0690793
0.130658,-0.0286664
0.0630389,0.00369705
0.0404029,0.0219544
0.0431927,0.00903519
0.0581009,0.00858729
0.0353297,-0.0614071
-0.0519873,-0.0790495
-0.0833707,0.0115067
0.00921122,0.0135222
0.0222588,-0.0138247
-0.0218562,-0.00921309
-0.0296154,0.0187004
-0.00593588,0.00608967
0.0306154,-0.0230099
-0.0138085,0.0524698
-0.0467141,0.106722
-0.0435634,-0.0222754
-0.0790553,-0.0762767
-0.0425899,-0.0305859
0.0136747,-0.0105631
0.000966189,-0.00165038
-0.0135697,0.0101952
-0.00652538,0.00417163
-0.0214817,0.0045359
-0.0153311,0.00370765
0.0387863,-0.00622899
0.0805589,-0.0106142
0.0723816,-0.0133362
0.0408292,-0.0208998
-0.0143572,-0.023171
-0.00606592,-0.00302664
0.0150858,0.0152302
0.0210796,0.0111545
0.0130676,0.00693907
0.00342886,0.0057875
-0.00700374,0.00185763
-0.0234526,0.00632813
-0.0295532,0.0161474
-0.0179906,0.0120604
-0.00906898,0.0100284
0.00696699,0.0137597
0.0237176,0.00623221
0.0157828,-0.00456056
-0.00418004,-0.00864443
-0.0357877,-0.0126268
-0.0847638,-0.0122691
-0.0787997,-0.00158377
-0.056394,0.0223283
-0.00972095,0.022861
0.0489637,0.00698836
0.0804079,0.0204365
0.0473283,0.0281403
-0.0721861,-0.00269195
-0.0736646,0.0898025
0.0334717,0.115525
0.0396659,-0.0083476
0.0138393,-0.0859071
0.0451074,-0.0240048
0.0440865,0.0214803
-0.00392467,0.0333585
-0.0212072,-0.0667284
-0.0233257,-0.0636688
-0.0161077,-0.0250483
0.0195411,0.0160145
0.0597178,0.00905414
0.0420708,-0.0103193
0.00633335,0.00312317
-0.0083563,-0.0164575
-0.00833489,-0.0293404
-0.029264,-0.0239059
-0.0723045,-0.0400157
-0.0353531,-0.019897
0.0274751,-0.00480271
0.0311929,-0.00388378
0.00805838,0.0514292
0.0350468,-0.00744778
0.040501,-0.0231284
0.0245011,-0.0172263
0.00682763,-0.0169158
0.00284951,0.0254027
-0.00413938,0.0800962
-0.00878012,0.000763002
-0.00774887,-0.0464552
-0.0210311,-0.0101461
-0.0240139,0.00109191
-0.0219786,-0.0141083
-0.0319568,-0.0187688
-0.0235415,0.00401569
-0.00668018,0.0311161
-0.0129637,0.0417153
-0.0352425,0.0538039
-0.0394946,0.0347395
-0.0215099,-0.00571451
0.0171093,-0.0130894
0.0520519,-0.00132548
0.0371252,-0.0141975
0.00238471,-0.022678
-0.0152937,-0.00354352
-0.00211458,0.0126142
0.00939781,0.00591944
0.000197368,-0.00426964
0.00377557,-0.0200655
0.0109654,-0.0322177
0.0107025,-0.0262087
0.00827229,-0.0103818
-0.00450782,-0.00658886
-0.0012345,-0.000336009
0.0520668,-0.0029852
0.0660756,-0.0175869
0.0375374,-0.0206345
0.017929,-0.00971057
0.0165149,-0.00383519
0.0241666,0.0288561
-0.0160551,0.0939537
-0.0964973,0.0509774
-0.0847951,-0.067957
-0.0574466,-0.0459612
-0.0894807,0.0639618
-0.0753678,0.0934189
0.00712219,0.0300534
0.077523,0.0148666
0.0341459,0.0475415
-0.00934356,0.00236209
-0.0826514,-0.0524746
-0.0737835,-0.0612044
-0.060388,-0.0532689
0.140834,-0.0562154
0.166533,-0.0240508
0.120531,0.01204
0.130368,-0.00237811
0.0293209,-0.0100239
-0.0491977,0.0231887
-0.0518143,-0.0293697
-0.0377162,0.0105727
-0.00447671,0.0133631
0.0113049,-0.0241592
-0.00212491,-0.0132269
-0.0284121,-0.00502836
-0.03206,-0.0176392
-0.0250632,0.0172643
-0.00902747,0.0144178
0.00156653,0.0163272
-0.00485838,0.0168627
-0.0139649,0.0203148
-0.00253202,0.0123332
0.0173182,0.0015412
0.0155722,-0.00935146
-0.00530721,0.00630625
0.000925224,0.0256772
0.0137575,0.0222083
-0.000153606,0.0201976
-0.0077855,0.0179853
-0.0106938,-0.0129025
-0.00103076,-0.0250647
0.000972381,-0.00715053
-0.00178963,0.030756
-0.0107445,0.0192789
-0.0218563,0.0165004
-0.0368464,0.0473555
-0.0387617,-0.0238554
-0.00574573,-0.0315604
0.0323241,-0.0159419
0.0125973,-0.0573232
0.000897371,-0.0397857
0.0277035,0.0034544
0.00994847,0.0121052
0.00123621,-0.00126137
0.0109006,-0.0119704
0.0221112,-0.0156733
0.01528,0.00325019
0.0141998,-0.0404688
-0.00287121,-0.0327405
-0.0230674,0.0190212
-0.0132979,0.0548717
-0.00514537,0.0518725
-0.00548212,-0.00304592
-0.0256076,-0.011628
-0.0519934,0.0450521
-0.0472552,0.0847124
-0.00712483,0.0718853
0.031566,-0.0449577
0.0196713,-0.10102
0.00317368,-0.0342048
-0.00900368,0.00292991
0.00982525,0.0091241
0.0145388,0.0596953
0.00387134,-0.000932057
0.00892099,0.00385746
0.0763776,-0.0505083
-0.00720489,0.00665428
-0.0479734,-0.00104593
0.0247765,-0.00223139
0.0416415,-0.0146714
-0.00498475,-0.0667471
-0.0307044,-0.040022
-0.0110947,-0.0615455
-0.00285246,-0.0442146
-0.040446,-0.00850086
-0.0807437,0.0431669
-0.0174281,0.0515724
0.108139,0.0128659
0.103001,-0.0130821
0.0411386,-0.0130752
0.0110357,0.00284013
0.00725646,0.0182153
-0.0159893,0.0192067
-0.0579033,0.00736733
-0.0420627,-0.00391725
-0.0136888,0.0295933
0.00704318,0.0236545
-0.00122317,0.0135226
0.0160695,-0.00666664
0.0274195,-0.0252333
-0.0112687,-0.0159328
-0.0351576,0.0233032
-0.0302856,0.0280429
-0.0129012,0.000969698
0.0118518,-0.0102396
0.0308077,-0.0346962
0.0379256,-0.0238309
0.000120064,0.00243384
-0.0577411,0.00949567
-0.0712154,-0.00401134
-0.00467023,-0.0100108
0.0322621,-0.0113014
0.0348669,-0.0044689
0.0194661,0.0180113
0.00836281,0.0272378
0.00681556,0.0270942
0.00732912,0.00611917
0.00974644,-0.0302758
0.0210376,-0.0191316
0.0181726,-0.00115597
0.00538334,0.000299362
-0.000551621,-0.00708533
-0.00017341,-0.00460931
-0.0129929,0.00829867
-0.0255945,0.0158693
-0.0191025,0.0123616
-0.00891716,0.00974287
-0.00214599,0.0139903
-0.000146503,0.0153924
0.00359677,0.00997464
0.0050354,0.0100003
0.0120296,0.00254653
0.015751,-0.0161212
0.0139363,-0.026481
0.00359574,-0.00139726
-0.00206702,0.0206512
6.65e-05,0.0327528
0.00133955,0.0237268
0.00304309,-0.00273394
-0.00274437,-0.0742521
-0.00870261,-0.0450204
-0.00974153,0.0179351
-0.0116723,0.0416902
-0.0233859,0.109125
-0.0308598,0.0535079
-0.0696863,-0.0739862
-0.135936,0.017949
-0.113914,0.0953225
-0.0438249,0.00845516
0.0243845,-0.015816
0.0862272,-0.100009
0.14544,-0.0575023
0.143606,0.0185326
0.107902,0.0389817
0.0336312,-0.0257359
-0.0601128,-0.0954805
-0.183962,-0.0565772
-0.206023,-0.00645455
-0.018401,0.0219571
0.121163,0.00605019
0.116007,-0.00378296
0.117054,-0.0133621
0.0673897,-0.0219495
0.00783314,-0.0178018
-0.00388001,0.00748649
0.0122962,-0.00812678
0.0141928,-0.0015904
0.00302336,0.0193193
-0.0140034,0.0114334
-0.0327785,-0.0128016
-0.045967,-0.00655152
-0.0066206,0.00437139
0.0235117,0.00609835
0.0144477,0.0059251
-0.0179719,0.0114445
-0.0321709,-0.00114881
-0.00430064,-0.0100084
0.0118897,0.00932445
0.0152061,0.0262343
0.0183839,0.0194469
0.0107783,0.0125095
0.00165176,0.00424359
-0.00151613,-0.0227372
-0.0067466,-0.0221483
-0.00556528,-0.00470779
-0.0116264,0.0129667
-0.0196032,0.00318371
-0.0114141,-0.00501356
-0.00648429,0.0206878
-0.00241303,0.0262696
0.00713021,-0.0239588
0.0095383,-0.00652744
0.00516478,0.0535805
0.00396757,0.0231651
0.00474312,-0.0274072
-0.00136213,0.03379
-0.000754877,0.0826138
0.00360126,0.0644232
0.00775222,-0.0899036
0.000837873,-0.102209
-0.000831214,-0.0966607
-0.00756665,-0.0312348
-0.0208216,0.0445232
-0.0163244,0.0260981
-0.0386362,0.0306374
-0.0772596,0.0216706
-0.040879,0.0153679
-0.0334722,0.0171028
-0.0278096,-0.000950036
0.0121104,-0.015362
0.0469987,0.00291585
0.07754,-0.00885329
0.085982,-0.0124869
0.0647095,-0.0245001
0.0138272,-0.0344181
-0.0481511,0.0138513
-0.0806663,0.065827
-0.0596209,0.0721736
0.0121482,-0.0561109
0.100116,-0.050079
0.080985,0.00512093
0.0049408,0.00690964
0.0453436,0.0583408
-0.0398582,0.0384727
-0.0445024,-0.00345299
-0.0550372,-0.0232574
-0.0265303,-0.0562578
-0.0109559,-0.0493781
-0.0037989,-0.00243844
0.0109987,0.00417662
-0.0146143,0.00209141
-0.0316278,-0.000848643
-0.00622198,0.0083365
0.0207069,-0.00104551
0.0238356,-0.00285379
0.0132665,0.0147354
-0.0080469,-0.0101734
-0.0339147,-0.0180429
-0.0256292,0.00285012
0.00581723,0.00135617
0.000675898,-0.00824191
0.00267854,-0.0152954
0.0406438,-0.0157501
0.0518945,-0.00527281
0.0256713,0.00418427
0.0154111,0.00540639
0.00700922,0.00811529
0.00669948,0.00327772
0.017598,-0.0048701
0.0103563,0.0141584
-0.0233494,0.0402684
-0.0509367,0.0451435
-0.0388926,0.0160596
-0.00712628,-0.0232203
0.0258893,-0.0127257
0.046546,0.00262178
0.0178557,-0.0226594
0.010973,-0.0353449
0.0116736,0.00916228
-0.00280649,0.05485
-0.0197397,-0.031439
-0.0344163,-0.00630984
-0.0339759,0.0181259
-0.0415484,-0.0187054
-0.0117553,-0.00618099
0.0203089,-0.00403892
-0.00143543,0.00262715
-0.0135107,0.0111545
0.0178997,0.0484668
0.0303487,0.0710431
0.00651442,0.0264046
0.0111852,0.031856
0.0311016,-0.0526061
0.0293359,-0.112109
0.0149314,-0.0527236
0.00868214,-0.0245552
-0.0105741,0.0308551
-0.029235,0.0422405
-0.0274225,0.0125227
-0.0298165,0.0162115
-0.00543277,0.0384364
-0.0359458,0.0126837
-0.0598001,-0.0411703
-0.0237592,-0.0424447
-0.0493337,0.00281663
-0.0224246,0.0404684
0.0637517,-0.00497011
0.0457864,-0.00246778
0.00715669,0.000448308
-0.0176372,-0.00653735
-0.0209405,0.00451321
0.0252995,0.0212971
0.0289426,-0.0373369
0.0226949,-0.0263353
0.058824,0.00517776
0.0550259,-0.00620949
0.0164427,-0.00342816
0.00395589,-0.00733517
-0.00505665,-0.00531496
-0.0186292,0.00216362
-0.0635198,0.0451257
-0.0453183,0.0118661
0.00707281,-0.0363898
-0.00854669,-0.014077
-0.00215169,0.00069399
0.0307367,-0.0239308
0.0455193,-0.0331106
0.0469091,-0.0140605
0.0143089,0.00736204
-0.0261877,0.00882784
0.00880438,0.0114299
0.0204914,0.025231
-0.00165951,0.0205076
-0.010184,-0.00556473
-0.017496,-0.016446
-0.0243699,0.00855622
-0.0394363,0.145905
-0.0344793,0.0798663
-0.0160073,-0.0904441
0.0240583,-0.0575166
0.0232682,-0.0465311
-0.00390511,-0.0596801
-0.0355684,-0.0282783
-0.0276972,0.0263913
-0.000691986,0.0222952
-0.00590401,0.00578792
-0.0211237,-0.00970271
0.0103613,-0.00479263
0.0414437,-0.0071319
0.043179,-0.00945008
0.0289845,-0.00372819
0.00549762,0.00450967
-0.00194029,0.0175894
-0.00339079,0.0777502
-0.020645,0.0462779
-0.0314621,-0.0501326
-0.0211211,-0.0365504
-0.0340204,0.00346442
-0.00559118,0.00161977
0.0408325,-0.0128371
0.0322941,0.0316986
0.0143922,-0.0263289
-0.000951154,-0.0289352
-0.0122415,0.0104698
-0.0188918,0.000308213
-0.0097408,0.00557754
0.00425211,0.0132879
0.00524406,0.0103253
0.00674951,-0.00546714
0.0163573,-0.000941139
0.0178822,0.00769965
0.00940303,0.0251097
-0.00541688,0.0151049
0.0182364,-0.00692287
0.0649023,-0.0052179
0.0152881,0.0150963
-0.0620056,0.00874448
-0.0655966,-0.0448266
-0.0228106,-0.0391942
-0.0160646,0.00484392
-0.0206032,0.0258197
-0.00868976,0.0299905
0.0530734,0.00363178
0.0572613,0.000702503
-0.0110663,0.000505835
-0.0636559,-0.00304304
-0.0480024,-0.0155206
0.0175318,-0.00294983
0.0378302,0.00828457
0.0254894,-0.00134189
0.0224688,-0.00899582
0.0365962,-0.0168471
0.0213259,0.000265729
-0.010794,0.0273369
-0.0584294,0.000920709
-0.0405773,-0.0292931
0.0219759,0.000212146
0.0321611,0.00805575
-0.0092545,-0.000572351
-0.0226264,-0.0195426
0.0290216,-0.0372578
0.0446733,-0.0405601
-0.00888244,-0.00786831
-0.05979,0.0219609
-0.055115,0.0551755
-0.022151,0.033532
0.0190077,0.0390191
0.0514864,-0.000480223
0.0467349,-0.0258929
0.0738234,-6.38e-05
0.0307292,-0.0251936
-0.0452752,0.00630333
-0.0458305,0.0879715
0.0101411,0.00166231
0.0182452,-0.0382657
-0.0438959,-0.0175181
-0.0295669,-0.00567997
0.00657658,-0.0348757
0.0273118,-0.0374755
0.0136107,-0.0527383
-0.0972746,-0.0282996
-0.0549389,-0.00313223
0.0219575,0.00845388
0.0229855,0.0544457
0.0116876,0.0577295
0.0100001,0.0253496
0.018611,0.00574314
0.0128009,-0.0525896
-0.00541418,-0.0131613
-0.0248311,0.0128237
-0.0191823,0.0110804
0.000727695,0.00161242
0.00773183,-0.00521253
0.00657571,0.0042866
0.00763245,0.0124549
0.0187124,-0.00277563
0.0233575,-0.00708144
0.0125848,0.0114119
0.0091208,0.0255943
0.00445185,0.0434618
-0.00258105,-0.0455727
-0.00633125,-0.0475296
-0.00106239,-0.00525792
-0.0037874,0.00372231
-0.0143089,0.00120143
-0.0193925,0.0143385
-0.00722529,0.0196728
0.0106046,0.0107818
0.0171288,0.00258551
0.0172499,-0.00317473
0.0206483,-0.00148448
0.0317619,0.0071706
0.00440869,-0.0219205
-0.008331,-0.0289597
-0.00157687,0.0226982
0.00417591,0.0219577
0.0148272,0.0144889
0.01375,-0.0190694
-0.0165233,-0.0304885
-0.0479415,0.0078435
-0.0367028,0.00578681
-0.0198732,0.00842219
-0.0311628,0.00973951
-0.0293136,0.0267194
0.00965177,-0.00780847
0.0148447,-0.0314655
-0.00493367,0.019196
-0.00161211,-0.00594463
0.0106027,-0.0343054
0.00461301,-0.0459973
-0.00305686,-0.0287226
0.00698579,0.0423016
0.0308375,0.0448436
0.0285165,0.0312466
0.0188778,0.0152207
0.0125503,0.0051037
0.0122032,0.0334071
0.00838972,-0.0318655
-0.00608745,-0.0359914
-0.0160828,0.00945528
-0.0218017,-0.0088992
-0.0310638,0.0152281
-0.037612,0.00654207
-0.0240054,-0.0129766
-0.00270036,-0.00522048
-0.0279699,0.0188583
-0.0369933,0.0748963
-0.0459829,0.0611522
0.00250252,-0.0358045
0.0750441,-0.0678684
0.0667808,-0.0202289
0.0202876,-0.0313303
-0.0404491,-0.0722349
-0.0357584,-0.0485469
-0.0164032,0.0167197
0.0298759,0.0230219
0.0266751,0.0221878
0.033735,0.0283333
0.0516451,0.0226183
0.0541363,-0.00938198
0.0178752,0.0195945
0.00338081,2.47e-05
0.0133622,-0.0346316
0.00289398,-0.02535
-0.0187739,-0.000487506
-0.000949319,0.00896707
-0.0128358,0.0368375
-0.0260899,0.00875272
-0.00247951,-0.0242928
0.0113029,-0.0163909
0.00531433,0.0190517
-0.0140039,0.0303113
-0.0220459,-0.00742803
-0.0132027,-0.0326425
-0.0168974,-0.0156429
-0.013295,0.000883816
0.0169842,-0.0095227
0.00911636,-0.00192384
-0.00966983,0.0219945
0.00533108,-0.0273098
0.0176837,-0.0221415
-0.0039811,0.0227403
-0.0258139,0.0459373
-0.0238861,0.012625
0.00869777,-0.00984707
0.00214601,0.010901
-0.0139096,-0.00188608
-0.00645685,-0.028384
-0.00636518,-0.00739498
-0.0244149,0.0040505
-0.026187,0.00920915
0.0368258,0.0317497
0.0386244,0.00114185
-0.027328,-0.0119281
-0.0659148,-0.0205592
-0.0620802,0.0076014
-0.0245442,-0.0263207
-0.00803553,-0.00235698
0.0236726,0.0367193
0.0412681,0.0356455
0.0437369,-0.00183823
0.058459,-0.0480043
0.0233094,-0.0405405
0.0112652,-0.0130142
0.0127884,0.006664
-0.00812544,0.0113578
-0.0201952,0.0190542
0.00968398,0.0235634
0.0304142,0.012457
0.0253586,0.00564892
0.000526505,0.0371495
0.00313938,0.00198754
0.0169089,-0.0603949
0.0080955,-0.03098
0.0132009,-0.00142805
0.0147997,0.00875824
-0.00130602,0.00584151
-0.0138987,0.0377867
-0.0169636,0.0216226
-0.0279942,-0.0239685
-0.0464574,-0.0408981
-0.0639416,-0.0182008
-0.0505774,0.0467394
0.00607205,0.0632116
0.0241422,0.0042547
0.0248864,0.0115541
0.0530384,0.00272377
0.104547,-0.00454324
0.041018,0.000270521
-0.0604766,-0.0321453
-0.077442,-0.0151903
-0.0889418,-0.000312633
-0.0569289,0.0294086
-0.00802231,-0.0177758
0.0322623,-0.00282868
0.0453312,-0.000942387
0.0563797,-0.0029909
0.0474808,-0.0182967
0.0237618,-0.0135637
-0.0274784,0.00281659
-0.0637332,0.0239887
-0.0423601,0.0149789
0.000184362,-0.0104524
0.0287867,-0.0291369
0.0432056,-0.0237143
0.0267133,-0.0126221
0.0227156,-0.00818927
0.0135708,0.0112886
0.000828338,0.0234946
-0.00643882,0.00777763
-0.0190942,0.00957794
-0.0223811,0.0240358
-0.0141151,0.0243637
-0.0193051,-0.00215201
-0.0361931,-0.0234256
-0.0415363,0.00360081
0.0115209,-0.0212349
0.0283789,-0.0159631
0.0190728,0.0115055
0.0143298,-0.0128691
-0.00793319,-0.0196312
-0.0127519,-0.000327734
0.0161797,-0.0145444
0.00939822,-0.046657
0.00162369,-0.017238
0.0133031,0.0234836
0.0304263,0.0309335
0.0206553,0.0353783
0.0186082,0.0504221
0.0138747,-0.0149469
-0.00190616,-0.0269279
-0.00369412,0.0185598
-0.00726749,0.0156001
-0.00283149,-0.0095659
0.010288,0.0105566
-0.00678922,0.0044568
-0.0338895,-0.0156149
-0.0334466,-0.0156329
-0.00895025,-0.0261681
0.0138705,-0.0302135
0.0268008,-0.0184157
0.0265918,0.00096295
0.0106835,0.0421566
-0.00950066,-0.00509895
-0.0213151,-0.00510478
-0.00872513,0.0032509
0.00633379,-0.00508434
-0.0289952,0.0147596
-0.055324,0.0281986
-0.0160838,-0.0296197
0.00626412,0.0183125
0.00844513,0.0105499
0.0159911,0.00406949
0.0280534,0.00517224
0.0305416,-0.0259442
0.0462054,-0.0148073
0.0227864,0.0350699
-0.035501,0.0592739
-0.0680032,0.0244677
-0.0546338,-0.0203187
-0.0119401,-0.00209377
-0.029975,0.0125671
-0.0653849,-0.0402771
-0.0449657,-0.0123079
0.0249718,0.00731417
0.0592199,-0.0193297
0.0556368,-0.0236226
0.0321008,0.00842955
0.0211578,0.0114246
-0.00375411,0.0207682
-0.0378084,-0.0249557
-0.0208221,-0.0418788
0.0191316,-0.0274026
0.0206116,-0.00920797
0.0242141,0.0397211
0.024228,0.0293047
0.00436968,0.0152243
-0.0305317,0.00755089
-0.0244868,-0.00944457
0.0489611,-0.0174328
0.0376697,-0.0138186
0.0146731,-0.0162345
0.015453,0.00243865
0.00604288,0.00761935
0.0194901,0.00507735
0.0264229,-0.0136975
-0.00102957,-0.00610773
-0.0279642,-0.0134004
-0.0188493,-0.0271108
0.00342093,-0.0265828
0.00145176,0.0215589
-0.0318844,0.038095
-0.0579094,0.0265705
-0.0467425,-0.00685707
-0.0106491,0.00868669
0.00667018,0.0121766
0.0266235,0.0292464
0.0253001,0.0296332
0.0450204,-0.00705993
0.0405446,-0.0450379
0.00955129,0.0121681
0.0139497,0.0366791
0.0105839,0.0644286
-0.0103633,0.0166727
-0.0217262,-0.0466591
-0.0483753,-0.00697759
-0.0500058,0.028866
-0.00634125,0.0186624
0.0372748,-0.0226806
0.0354371,-0.0955093
-0.015792,-0.0265077
-0.0397348,0.0281127
-0.0337835,-0.000423111
-0.0340219,-0.0214509
-0.0400977,-0.00425437
-0.0262249,0.0292592
-0.0170523,0.00853416
-0.0159328,0.00778123
-0.0244889,-0.00858589
-0.0175092,-0.0267858
0.0215417,-0.016172
0.0608271,-0.0132053
0.0581505,-0.0171553
0.0351561,-0.017764
0.0456721,-0.00588937
0.0379992,-0.00166583
0.0351147,-0.00853063
0.0125452,-0.00116679
0.00381307,0.0157245
0.00879371,0.00806073
0.00296371,0.00554794
-0.0131918,0.014047
-0.0272929,0.0225068
-0.013407,0.0311424
0.0409444,0.0241488
0.0736529,0.00101348
0.0470502,-0.00156441
-0.0038178,0.0470121
-0.0596936,-0.0169292
-0.073145,-0.0389693
-0.0509287,-0.00652271
-0.0705924,0.00435832
-0.0623554,-0.0130017
-0.0124356,0.00882584
-0.0125014,0.00367157
-0.00947788,-0.0175464
0.0319963,-0.024493
0.0389632,-0.0128177
0.0110843,0.0227418
0.000663823,-0.0109808
-0.00123321,0.00849051
0.00213672,0.0369977
-0.000107762,0.00708038
0.0122218,-0.0114235
0.0335112,-0.00871442
0.0257475,-0.007501
0.0134193,-0.0171629
0.000327736,-0.0146457
0.000513409,0.00279839
0.00129977,0.0124587
0.00289799,-0.00162336
-0.000355416,0.00634339
-0.0135554,0.0217581
-0.0226489,0.0111079
-0.0174736,0.00591618
0.00263062,0.0390986
0.00726187,-0.00655857
0.0228453,-0.0116285
0.0344859,-0.0535503
0.0133857,-0.037453
0.00084431,-0.0033586
0.0199114,-0.00604432
0.0163555,-0.000715613
-0.00963026,0.00979233
-0.0264923,0.044045
-0.0288749,0.0657915
-0.0171207,0.0358209
-0.0129684,-0.0527869
-0.0244737,-0.0708221
-0.0252467,-0.0061725
0.048411,-0.0218654
0.052776,-0.00178734
-0.0415133,0.00738568
-0.0534807,0.0140278
-0.0151815,0.0376394
0.00127834,0.0368455
0.0053403,-0.00742691
0.00303285,-0.0175717
-0.00689411,0.00859756
0.00060863,0.0206342
0.0167333,-0.00385701
0.0106097,-0.0245195
0.000471206,-0.0201667
0.0103575,-0.00405311
0.0250702,0.016138
0.0251975,-0.0142899
0.00921621,-0.0234449
-0.00839073,0.0147381
0.00386391,-0.00347837
0.0260536,-0.0261068
-0.0248241,0.019183
-0.0681474,-0.00275885
-0.0471077,-0.0103868
-0.0213188,0.00285435
-0.0143695,0.0136102
-0.0107222,0.0137556
0.0135628,-0.00203804
0.0222483,-0.0113257
0.0340208,0.0178185
0.0426263,0.0265788
0.021945,0.0261215
-0.00224296,0.0339792
-0.00212318,0.0194279
0.0265669,-0.00886318
-0.00106999,-0.0321813
-0.00336751,-0.0139334
0.0156343,0.00513436
0.00884375,-0.00516409
0.00317561,-0.00785936
0.000167477,-0.0213016
-0.00761228,-0.0218912
-0.0181604,-0.0108814
-0.00717912,-0.0137647
0.000983089,-0.0304203
-0.00958511,-0.0193535
0.0139493,-0.00209739
0.0260437,-0.00794506
0.00581887,-0.0017968
0.00106284,0.0169304
0.0436969,-0.00473197
0.0331674,0.034478
-0.043769,0.0771664
-0.0648645,0.0131709
-0.0351806,-0.0597622
-0.0155335,-0.0314853
0.00797405,0.000977115
0.00225227,-0.01003
-0.016228,-0.00514328
0.0126002,0.0406036
0.0488863,-0.00126612
0.0215889,-0.0354511
-0.0356346,0.0211836
-0.0613916,0.0382432
-0.0380577,0.0229848
-0.0334651,0.0305982
-0.033658,0.0389637
0.0363253,-0.0623468
0.0601368,-0.00982629
-0.00774813,0.00693679
-0.0278392,-0.0274355
-0.00157793,0.00157203
-0.00938053,0.0185257
-0.0256462,0.0122233
0.00809603,0.0285709
0.0538911,0.00290267
0.0145342,-0.0478718
-0.00904884,-0.018742
0.00612428,0.0148879
0.0306202,-0.00907088
0.0486733,-0.0270239
0.0517429,-0.0470024
0.023147,-0.0138254
-0.0233032,-0.00673757
-0.0351995,-0.0217167
-0.0151533,-0.00399174
-0.0051306,0.025927
0.00252967,0.0557723
0.0141969,0.0595921
0.0303071,0.00955141
0.0259518,-0.0196176
0.0133252,-0.0243202
0.010604,-0.00881971
-0.010739,-0.00233624
-0.0273164,-0.0109657
-0.0384801,0.0113267
-0.0537746,0.0352468
-0.0588374,0.0276346
-0.0516475,-0.00697228
-0.00313547,-0.0306557
0.0267833,-0.0207527
0.0118269,-0.0188488
-0.0142425,-0.00289331
0.0230785,0.011653
0.051287,0.00916343
0.0168257,0.028164
0.0136541,0.0206157
0.010055,0.00143588
-0.00987768,-0.00398863
-0.00230904,-0.0149749
0.0110582,-0.0209954
0.017276,-0.00743481
-0.00553939,-0.0133302
-0.0210301,0.0020385
-0.0258347,0.00201651
-0.0222695,-0.00149559
0.00680743,-0.00734203
0.00561216,-0.00738279
0.00308476,0.00116294
-0.0126532,0.017115
0.0014573,-0.0219072
0.0235725,-0.00873582
0.0448585,0.0434454
0.0352057,0.0171883
-0.00391708,-0.00682387
-0.0176597,0.0160698
-0.0344837,0.0111906
-0.0437853,-0.0261283
-0.0213617,0.0247905
0.0375215,-0.00879224
0.0477759,0.0237008
0.0485155,0.00108104
0.036435,-0.00380608
-0.0514008,0.0168847
-0.0349269,0.00840629
0.00606839,-0.0375122
0.0157509,-0.0444795
-0.008669,-0.0201874
-0.0365338,-0.00463453
-0.0136388,-0.0237422
0.00983322,-0.0272008
0.0040836,0.007323
0.00264217,0.00823875
-0.0207444,0.00900271
-0.0372422,0.0302483
-0.014291,0.0325709
0.0115787,0.0214908
0.0130769,0.0140546
0.0111724,0.000295221
0.013136,-0.000834191
0.00617702,-0.00411655
-0.00728039,-0.0310514
-0.0132369,-0.0387719
0.00690391,-0.00128223
0.0326185,0.0251205
0.0472155,-0.00172693
0.00765282,-0.0381947
-0.00875791,-0.0409204
0.0276699,-0.0212209
0.0137417,0.0106579
-0.0661554,0.0472198
-0.0708204,0.00163435
-0.0565228,0.00495972
-0.0465946,0.0374119
-0.0120595,0.0469429
0.0373609,0.0350448
0.0703772,0.0246663
0.0483007,-0.0238763
-0.0220496,-0.0492087
-0.0529336,-0.0379703
-0.0157081,0.00146582
0.0148386,0.050961
0.0336667,-0.00429943
0.0223631,-0.0350583
-0.014777,-0.001768
-0.0134363,0.00714264
0.0128268,0.00971148
0.0146006,0.00045514
0.00531811,0.0200552
0.00372455,0.0265354
-0.00416972,0.0067863
0.00223097,-0.0083633
0.00916176,-0.00465862
0.0107522,0.00422502
0.0216231,-0.00702295
0.012389,0.00374691
0.00958493,0.00643169
0.0430241,0.000919777
0.0306217,0.0154849
-0.0208976,0.0155033
-0.0465615,-0.0358646
-0.0306777,-0.0491946
-0.0185252,-0.00862708
-0.0161917,0.00403459
-0.0116547,0.00529317
-0.0176114,0.00929621
-0.010778,0.0493435
0.014864,0.0478528
0.0530477,-0.0333578
0.0895187,-0.0661613
0.025282,-0.0455149
-0.0594608,-0.0424606
-0.0811279,-0.00639406
-0.0466957,0.0693902
-0.0225037,0.0039495
-0.0309149,0.0137819
-0.0281725,0.0271648
-0.0198445,-0.0146914
0.0098448,-0.0256233
0.0317815,0.00437646
0.0450087,0.000944148
0.0473861,0.00171148
0.03146,-0.00528641
0.0403818,-0.0248533
0.0380655,-0.0259724
0.00452697,-0.0139399
-4.19e-06,-0.018707
0.0106757,-0.0205921
-0.00546103,-0.0136615
-0.0273323,-0.0112804
-0.0387094,0.00112916
-0.0220686,0.0234316
0.00670199,0.0676705
0.0331091,0.0147375
-0.000800752,-0.0322834
-0.0745873,-0.0395351
-0.0842824,-0.00875796
-0.0314618,0.0154562
0.0261578,0.0265161
0.0418647,0.0266349
0.0267467,0.00947889
0.013207,-0.0364019
-0.00119641,-0.0349329
-0.00870951,-0.0134995
0.0132111,0.0643173
0.0487278,0.0735743
0.0409746,0.0272457
0.0031706,-0.0256976
-0.0318136,0.0100895
-0.0563674,0.0183035
-0.0603095,0.0139848
-0.0303015,-0.039084
0.0125915,-0.0068155
0.00766262,-0.00348205
-0.00926837,0.0182149
0.0150357,0.0674902
0.045047,0.0390539
0.0520773,-0.0666934
0.0520913,-0.09036
-0.00227802,0.0328364
-0.00427399,0.0139162
0.00568742,-0.0220146
-0.0347148,-0.0129153
-0.0529057,0.00126812
-0.0504823,0.0249925
-0.0225658,0.0294557
0.0435402,-0.0381166
0.0392297,-0.0550319
0.00660975,0.0134785
-0.000114539,0.00812524
-0.00532842,-0.000775313
0.0078415,0.00332122
0.0303463,0.0149496
0.0287691,0.0174487
0.00462237,0.0257114
0.0109208,0.0457749
-0.00274345,-0.00532785
-0.0247904,-0.0274115
0.0180468,-0.0350152
0.0483948,-0.0265755
0.0121008,0.0128527
0.00087087,-0.00376157
-0.00423081,-0.00499665
-0.0370958,-0.0237798
-0.0454257,0.00299361
-0.0199215,0.0350946
-0.0125735,0.0283847
0.000577254,0.00897855
0.00216169,-0.0108679
-0.00906054,-0.00731724
0.00650839,-0.000557197
0.00232847,0.000543741
-0.0199929,-0.00795462
-0.0229125,-0.0504881
-0.00016541,-0.0371748
0.00330342,0.00958801
-0.00789383,0.00877605
-0.0131271,0.0496324
0.0120385,0.0120685
0.0389485,-0.0285633
0.00715404,0.00250845
-0.0368196,0.0197855
-0.00796895,-0.0242601
0.0279121,-0.0410231
0.032047,0.00387992
0.0177512,0.0227294
-0.00270831,0.0238697
-0.00270122,0.0312521
-0.0016895,0.0693112
0.00370392,0.0297312
0.00337119,-0.0966802
-0.0192955,-0.0418206
-0.0235539,0.0195022
-0.0206783,0.0282838
-0.0290502,0.0134472
-0.00571054,-0.0271263
0.00943062,0.00138996
0.00156969,0.0292954
8.26e-05,-0.0277138
0.00462621,-0.0448282
0.0234296,-0.0333942
0.0215407,-0.0117583
-0.00428174,0.0418909
-0.000553977,0.0484269
0.0134539,0.00600704
0.0322647,-0.0167007
0.0270987,-0.0286778
-0.0116946,-0.019817
-0.0298564,-8.58e-06
-0.0151612,-0.0107483
0.00767883,0.00471495
0.0527738,0.00632317
0.0788832,-0.0468603
0.00113121,-0.0269332
-0.110238,0.0050702
-0.103035,0.0742127
-0.0532149,0.0562955
-0.0489714,-0.0259661
0.0283216,0.0192054
0.0765662,-0.00287924
0.043896,-0.0220254
0.0133514,-0.00584363
-0.0112097,-0.00103701
-0.0574687,0.0260032
-0.0323852,0.0211101
0.0242272,-0.0140428
0.0308776,-0.0481933
0.0384541,-0.0286468
0.0186247,0.0211108
-0.0219766,0.0338297
-0.00700325,0.027655
0.00861919,-0.0332248
0.0152361,-0.0626084
0.0295442,-0.0115716
0.0268741,0.0262681
0.0108684,0.046804
0.0030228,0.0274819
-0.0168301,0.01008
-0.0273436,-0.0104746
-0.0317967,0.021194
-0.026682,-0.00492034
-0.00131531,-0.0467538
0.0223481,-0.0376328
-0.0101763,0.0417877
-0.0292862,0.0382119
-0.00710792,-0.0166024
0.0185729,-0.0173769
0.022794,0.00844775
0.021601,0.00935869
0.0488779,0.0169443
0.0605806,0.0299727
0.0223483,-0.0175104
-0.0415813,-0.0366116
-0.041507,-0.0137498
0.011495,0.00162205
0.00588223,-0.0145178
-0.057575,-0.0411622
-0.08988,-0.0221188
-0.0146467,-0.00402766
0.0529783,0.0363701
0.0339007,0.0433922
-0.00972577,0.0401307
-0.00861581,-0.0058185
0.0342649,-0.0207445
0.0186107,-0.00113257
-0.00891086,0.0213322
-0.00373305,0.0154324
-0.00133977,-0.0138393
-0.022203,-0.0218501
-0.0281666,0.00535064
-0.00953785,0.00877318
0.00100246,0.0030789
0.0114397,-0.0326872
0.0106232,0.000716017
0.0143862,0.0182954
0.00509918,0.0286573
-0.0152294,0.0254511
-0.0113565,0.00585701
-0.0168882,-0.0511343
-0.0219303,-0.0150545
0.0189238,0.00760728
0.0707904,-0.000721926
0.0440316,-0.00565178
-0.0390747,-0.0168273
-0.0877758,-0.00805113
-0.0382513,0.00948817
-0.0106434,0.0370153
-0.0121356,0.0254253
0.0225715,-0.0334689
0.0715249,-0.0549094
0.0844137,-0.0406039
0.00564738,-0.00406066
-0.0532549,0.036833
-0.0392601,0.0314712
-0.00601718,0.0113212
0.0370395,0.0171107
0.0578549,0.0185297
0.0689158,-0.00238399
0.0432282,-0.0217275
-0.0524612,-0.0222211
-0.0779015,-0.00681583
-0.0720715,0.00875011
-0.0170459,-0.0241721
0.0302704,-0.0391446
0.0266554,-0.00195305
0.00211708,0.017094
-0.0153187,0.00600875
-0.0212922,0.00600857
-0.0204879,0.0614925
-0.00699505,0.0173203
0.00250739,-0.00989629
0.0240248,0.00411833
0.036641,0.0277011
0.0233321,-0.000235795
0.0119479,-0.0224122
-0.000552569,-0.0313919
-0.0256967,-0.0334426
-0.0222258,-0.0250122
-0.00815825,0.0107208
0.00684515,0.0499592
0.0408135,0.0544471
0.0420189,0.0370716
0.00426005,-0.061846
-0.0033405,-0.0327671
-0.00434114,0.0260393
-0.030595,0.0255026
-0.0403368,-0.0288953
-0.0281235,-0.0295491
-0.0195868,0.0181745
-0.0298511,0.0301174
0.00119901,0.0296502
0.0321632,-0.0193218
0.0343383,-0.0667228
-0.0148597,-0.0560043
-0.0600165,-0.0102091
-0.0214593,0.0207011
0.0416159,-0.0121757
0.0320283,-0.00739568
-0.00406464,0.0190577
-0.0514238,0.016974
-0.0142931,0.00944768
0.0301163,0.0072639
0.0188542,0.00248596
0.0215289,0.00876911
0.00593643,0.0296373
0.0105106,-0.0558415
0.034357,-0.058664
0.00491801,0.0513764
-0.0118432,0.0231006
0.00956932,-0.00429016
0.0178353,-0.00546866
-0.0238642,0.0138295
-0.0378756,0.0155609
-0.0107227,0.0095612
0.0218291,-0.00366627
0.0373619,-0.00191566
0.0373915,-0.00248262
0.0320063,-0.0188584
0.00398474,-0.00375383
-0.0406056,0.0154305
-0.0564673,0.0568207
-0.0294354,0.0383312
-0.00359585,-0.0140134
0.012028,-0.0148274
0.0201482,0.0120909
0.0507102,0.0505794
0.0726824,-0.00481484
0.0339741,-0.0072033
0.0254352,-0.013876
-0.0315705,-0.0712279
-0.105619,-0.0766748
-0.11604,-0.0307573
-0.0640692,0.0473957
-0.0182716,0.0485377
-0.0235582,0.0253543
-0.01873,-0.0338645
0.0225523,-0.113097
0.0238971,-0.0129679
0.0208073,0.0940378
0.0342274,0.0632171
0.0674181,0.00489883
0.0493901,-0.0119162
-0.0190781,-0.0065253
-0.0183577,-0.0119274
0.0172327,-0.0208698
-0.0203487,0.0237383
-0.0476459,0.0268681
-0.00763377,-0.026545
0.0574718,0.0139241
0.0578856,0.0503054
-0.0092371,0.0592165
0.017108,-0.0427891
0.0826814,-0.059352
0.0695496,0.0252092
-0.025884,-0.00697584
-0.119578,-0.0489238
-0.118894,-0.0200729
-0.0601674,0.0401527
0.0126883,-0.0239402
0.0570813,-0.0311068
0.0241066,-0.0216412
-0.0166485,-0.00439839
-0.00415054,0.0171024
0.0250813,0.0224107
0.0110193,0.0269337
-0.020294,0.0230469
-0.0222534,0.0174247
-0.0099627,0.0667185
0.0151099,-0.0576293
-0.00624333,-0.108313
-0.0154167,-0.0297143
0.0384996,0.0048989
0.0864026,0.00967649
0.0197937,0.00593283
-0.076719,-0.0270692
-0.0714649,0.00435009
-0.0077004,0.0453242
0.032388,-0.0276908
0.0124968,-0.0544719
-0.00803911,0.0106703
0.00919655,0.0176918
0.072446,0.0250566
0.0835776,0.0251093
0.00293005,4.96e-05
-0.0351459,-0.000143481
-0.0114199,0.0306073
0.0110284,0.0489349
-0.00728364,0.000753568
-0.0516315,0.000590258
-0.0481243,0.0165101
-0.00233239,0.00288606
0.0172957,-0.0128786
0.000353355,-0.0160623
-0.00984988,-0.0277912
0.00092182,-0.0188359
-0.00992728,-0.010092
-0.032386,0.0126012
-0.0194202,0.0285023
-0.001488,0.0313384
0.0208174,-0.00688456
0.0357789,-0.0348695
-0.00109843,-0.00772919
-0.0520928,0.0564441
-0.0161341,0.0034592
0.0552277,-0.0545357
0.0444662,0.0217924
-0.01423,0.0475862
-0.0060847,0.0032408
0.0300897,-0.00532532
0.0210682,-0.00149065
0.0188923,0.00445538
0.0591064,-0.0030687
0.0590639,0.00612208
-0.0160797,0.0103031
-0.0841963,-0.0150123
-0.080332,-0.00409074
-0.0394917,0.00412041
-0.00655764,0.00432835
-0.000116817,0.025188
-0.0136135,0.0198818
-0.0244706,-0.043681
-0.01405,-0.0714065
0.00542961,-0.0660722
0.0221174,-0.0659111
0.0149963,-0.0484451
0.00490342,-0.0846365
0.0011332,-0.129876
0.00108973,-0.0916006
0.00152038,-0.00700134
0.00565047,0.0139024
0.0201757,0.0404248
0.0221534,0.116715
0.0146238,0.17989
0.0125242,0.136657
0.00553876,0.123549
-0.0047038,0.0687663
-0.0119004,0.00713811
-0.0134798,-0.06656
-0.00509546,-0.0647358
0.00763002,-0.00171522
0.0129986,0.0527534
0.0115962,0.0703379
0.0034203,0.0397245
0.00296443,0.0449016
0.0071147,0.0159337
0.000245675,0.00776295
-0.0141582,-0.0274507
-0.0150998,-0.0446082
-0.00809301,-0.0417846
-0.00993678,-0.0329727
-0.00758855,-0.0227587
-0.00854142,-0.0254461
0.00839738,-0.0478911
-0.00242692,-0.0330385
-0.0190611,-0.00242849
-0.00606518,0.00255948
0.00664539,-0.00759912
0.00562313,-0.0103407
0.00147229,0.0137187
-0.00179073,0.0229226
0.006114,-0.0141785
0.0128785,-0.029733
0.0098509,-0.015962
0.0119793,-0.00816309
0.0180038,-0.00219108
-0.00565125,-0.00360246
-0.0210199,-0.0108756
-0.00475013,-0.0375471
-0.00182324,-0.0328694
-0.0108777,-0.000272133
-0.0131293,0.0280764
-0.00967699,0.0542361
0.00495142,-0.000214214
0.00777806,0.040682
-0.00116165,0.0493465
-0.00435539,-0.00794291
-0.0108371,-0.0142447
0.0186752,-0.0201069
0.0346888,-0.022449
0.00847195,-0.00416507
-0.0263194,-0.0252846
-0.0396829,-0.0536928
-0.0297494,-0.0168972
-0.010493,-0.00519947
0.00494456,-0.00188061
0.0105501,-0.0149412
0.0211752,0.0210572
0.0254671,0.00375811
0.0158041,0.0422717
0.0194602,0.080022
0.0158678,0.012695
0.00487767,-0.00646178
-0.00105995,0.0167849
0.00286263,0.0504643
0.00599072,-0.00723837
0.0259496,-0.0283089
0.0285734,0.0167394
-0.0280646,-0.00231883
-0.0733702,-0.0102725
-0.0751901,0.0439859
-0.0348468,-0.00459886
-0.00632637,-0.0781174
-0.00702522,-0.0258211
-0.00269822,-0.004838
0.0336717,0.0185832
0.0632349,0.0155244
0.019684,0.00683578
-0.0230699,-0.00638569
-0.00495866,-0.00454865
0.0111994,-0.00328544
0.0171211,-0.0218189
0.0120799,-0.0245172
0.0142564,0.00158396
0.0219446,-0.000982596
0.0188652,-0.0114646
0.00697754,-0.0205876
-0.0120095,-0.0265838
-0.0229439,-0.0152503
-0.0255063,-0.00596557
-0.0233794,0.00738988
-0.0380858,0.0323945
-0.0292602,0.0435037
0.0457888,0.00415681
0.0252239,-0.0232166
-0.0310099,-0.0175472
-0.0394094,0.00964641
-0.00331628,-0.0125083
0.0309458,0.0146851
0.0378004,0.00953397
0.0332723,0.00793473
0.0339964,0.0101249
0.0396783,0.0119936
0.0261161,0.00995285
0.00242739,0.00542241
0.000661442,0.00098085
0.00641004,-0.0138669
0.00752938,0.0123987
-0.00559689,0.0136626
-0.0125093,-0.00394829
-0.0166509,0.00880009
-0.0157229,-0.00125365
-0.0181946,-0.00055987
-0.0226516,0.00334401
-0.0242035,-0.0011338
-0.021299,-0.00671298
-0.0180331,0.00356003
-0.00435272,0.0130833
0.00632933,0.00699087
0.00602033,-0.00469558
0.00337216,-0.0182883
-0.00488466,-0.0135169
-0.0159349,-0.0166012
-0.0216943,-0.0116107
-0.0251038,0.00470461
-0.0195781,0.0233298
-8.01e-05,0.0178784
0.00203703,0.00505674
0.00928533,-0.00170844
0.0207336,0.00173727
0.0309256,-0.00295822
0.0279489,-0.00578296
0.0175198,-0.00475367
0.010424,0.00956516
0.00376718,0.0265693
-0.00196536,0.0375129
-0.00710641,0.0385963
-0.00963248,-0.0209275
-0.00400636,-0.0452308
0.00180495,-0.0314402
0.00540013,-0.020097
0.00498079,-0.00933211
-0.00361779,0.00732738
-0.00890073,0.012368
-0.00759669,-0.0035413
-0.00922532,-0.0156741
-0.00795676,-0.0154188
-0.00566507,-0.0160042
-0.0105073,-0.0168979
-0.014999,-0.00370817
-0.00871189,0.012019
0.00127391,0.0121675
0.00827854,0.0082116
0.0058639,0.0108169
0.00786043,0.00708939
0.0135246,0.000721999
0.0120876,0.00700182
0.0128877,0.0119816
0.00895347,0.0154279
-0.0023993,0.0290338
-0.00629648,0.0279349
0.0035373,0.0100166
0.00907677,0.00339351
0.0346084,-0.0164468
0.0699617,-0.0255421
0.0626172,-0.0232184
0.0353682,-0.00962894
0.0197075,0.00456792
-0.00704014,-0.00258004
-0.0709415,-0.00747017
-0.0849906,-0.00720658
-0.0302782,-0.0103595
0.00392648,-0.00991923
0.00495974,-0.00798664
0.0322175,-0.00638097
0.0241006,0.00450932
0.00164547,-0.00597018
-0.0151497,-0.0126752
-0.00423467,-0.00813677
0.0165696,0.00319263
0.0169338,0.00607823
-0.00142711,0.0005038
-0.0269297,0.000143374
-0.0369616,0.00944404
-0.0470624,0.0119464
-0.0387897,0.00173092
0.00727698,0.00197576
0.0276103,0.00341394
0.0198635,-0.00327795
0.00892976,-0.0199593
-0.0205243,0.002346
-0.0344055,0.00430533
-0.041268,0.0138899
-0.0366599,0.0191773
-0.0230323,0.00242925
-0.0120183,-0.00660889
-0.0100273,0.00341274
-0.011884,-0.000338007
0.000431037,-0.00863432
0.0212215,0.00190114
0.0335631,0.0192244
0.0362939,0.0110029
0.0281047,0.00219442
-0.00660582,0.00235133
-0.0292991,-0.00693119
-0.00420279,-0.0188302
0.00420068,-0.0181448
0.00351985,-0.0143252
-0.00615157,0.00257864
-0.0108538,0.00713989
-0.00955618,-0.00744628
-0.00793504,-0.01402
-0.0066517,-0.0112013
-0.00488058,-0.00985119
-0.0103011,-0.00496779
-0.0158422,0.0154522
-0.0247778,0.0226961
-0.0169856,0.00869249
-0.00900755,0.0010933
0.00362205,-0.000570585
0.0301686,-0.008972
0.0231521,-0.0165288
0.0117203,-0.0159261
0.0133265,-0.019369
0.0038408,-0.00666659
-0.000827519,0.00744003
-0.00162239,0.00853845
-0.00314677,0.000317574
-0.00535816,0.00455773
