Comp Ch 3,Comp Ch 4
-0.0300493,-0.000397333
-0.0160812,0.0159164
-0.0393639,0.0250018
-0.0156237,0.0111131
0.0314865,0.00725203
0.0443654,0.00778832
0.0446789,-0.00907504
0.0560782,-0.0297008
0.0492566,-0.0321
0.0335276,-0.0165061
-0.0123937,-0.00985717
-0.052895,0.00533716
-0.0340344,0.0150657
0.0170506,0.00479533
0.0171103,0.00299839
0.00789312,0.00911841
0.0128104,0.00966768
0.0153745,0.000891767
0.024036,-0.0141516
-0.018716,0.00547581
-0.0144154,0.019138
-0.00439997,0.00453592
-0.00501789,-0.00173051
-0.0337753,-0.0063161
-0.0272842,-0.0148584
0.0338349,-0.0109836
0.0315245,-0.00519623
0.0110835,-0.0100265
-0.000135283,0.0124284
-0.014253,0.0127569
-0.033778,0.00598091
-0.0721232,0.00129287
-0.0844803,-0.00054089
-0.0479054,-0.00516263
-0.0113024,-0.0112002
0.0152927,-0.000215114
0.0595604,0.0245758
0.0483418,0.0300966
0.0383678,0.00396349
0.0310401,-0.0238625
0.013624,-0.0236988
0.0215803,-0.011805
0.007091,0.00613848
-0.0598026,0.0177239
-0.0923145,0.0140154
-0.0317333,0.0115054
0.0297797,-0.00457988
0.0133406,0.00590888
0.0231005,-0.0105467
0.040618,0.0228899
0.0397708,0.000321259
0.0269206,-0.0340509
0.00679013,-0.0133831
0.00270975,-0.00273968
-0.0075591,0.00761577
0.0100154,0.00742314
0.00670227,-0.00039722
-0.00252177,-0.00897493
0.0156322,0.00707554
0.0246811,0.0103205
0.0113526,-0.0193527
-0.0302075,0.0038249
-0.0603629,0.0220543
-0.0382404,0.00916411
0.0555871,-0.00631663
0.0370957,-0.00867504
-0.0233909,-0.00803911
-0.0382671,-0.00356964
2.99e-05,-0.0177759
0.0172926,-0.00231093
0.00770548,0.00591154
0.02108,-0.00174939
-0.00225806,0.00582396
-0.0281828,-0.00223804
-0.0342318,-0.00321853
-0.0530635,0.00762976
-0.0625453,0.00275317
-0.0443425,-0.00323608
-0.0026958,0.0078339
0.0638319,0.0174883
0.0882463,0.00892381
0.0591651,-0.000510441
0.0255436,0.00455281
-0.00852456,-0.0059559
-0.0499106,-0.0159808
-0.0181879,-0.0142992
0.0089515,0.00402903
0.0081884,0.0038322
0.0132469,0.00734127
0.0100204,0.00496722
0.0119212,-0.0142278
0.00648905,-0.0133967
0.000272983,-0.0260996
-0.0131288,-0.00875461
-0.00760221,0.0135006
0.0135986,0.0342735
0.0270993,0.0264754
-0.000503131,-0.00309772
-0.0213354,-0.0095944
-0.0192333,-0.00369703
-0.0211904,-0.00903141
-0.00893433,-0.00902879
-0.00483453,0.00767408
0.00736012,-0.00386716
0.0136381,-0.0052317
0.00361773,-0.0114682
-0.000626444,-0.0147643
0.000608763,-0.0153351
0.0131793,-0.00867679
-0.0106561,0.00399381
-0.0219401,0.000257134
0.00308911,0.0101076
0.0111553,0.0167934
0.0018532,0.00643468
-0.00850815,0.019049
-0.0142746,0.012418
-0.0297936,-0.00204305
-0.0396806,-0.0167219
-0.0213737,0.00468004
0.00675676,-0.0144868
0.0338612,-0.0152179
0.0527461,-0.0153842
0.027019,0.00394193
-0.00978919,-0.00310391
-0.00528646,-0.00213173
0.00145201,0.0132487
-0.01351,0.017106
-0.0275506,0.0246029
-0.0128299,0.0185382
0.0112633,0.010244
0.0327972,-0.00654466
0.0052826,-0.00373309
0.00690434,-0.00244563
-0.00588993,-0.0034761
-0.00858302,-0.00229202
-0.0117738,0.000244117
-0.0350727,0.0130313
-0.0135692,0.0079269
0.0269101,-0.0133813
0.0201797,-0.0189527
0.0159469,-0.0235042
0.0283615,-0.0246305
0.0328349,-0.0173657
0.0180922,-0.00491102
0.0117917,0.000985872
0.0272981,0.0186107
0.011607,0.0307892
0.00254299,0.0196534
0.00286938,0.00783783
-0.0177958,0.00943977
-0.0337263,-0.00135379
-0.0333073,-0.00203911
-0.0132392,-0.0161927
0.0230651,-0.0136057
0.03363,-0.00417762
0.0116727,-0.00310764
-0.019746,0.00203295
-0.0357985,-0.00237356
-0.0416744,-0.00916749
-0.0278349,0.000733765
-0.0158346,0.00567662
-0.00887082,0.0025213
-0.00307723,0.00792399
-0.0423747,0.0269013
-0.0774994,0.00656023
-0.0290891,0.00525093
0.0117945,-5.19e-05
-0.0121945,-0.0144186
0.00554371,-0.0127278
0.0351715,0.0107704
0.0428731,0.0168388
0.066425,-0.00375465
0.0401411,-0.0143901
0.0244954,-0.00818834
0.0188985,0.0168968
-0.0123913,0.0116256
-0.0423623,-0.00230962
-0.00901493,-0.0195272
0.0311485,-0.0175968
0.0432421,0.000616279
0.0128692,0.00223142
-0.0040082,-0.0115381
0.0153922,-0.0165646
0.0176702,-0.0137386
0.000157608,-0.00665747
-0.00621901,0.000122163
-0.00677273,0.01715
-0.00751291,0.0274692
-0.00414617,0.0211553
-0.00727438,0.0330245
-0.0156149,0.00893233
-0.00591105,-0.0252564
-0.00749095,-0.0218947
-0.0182099,0.00903319
-0.0319553,0.0297677
-0.0396153,0.00896579
-0.0297865,0.0260279
-0.00738471,0.00732018
0.0373125,-0.0182672
0.0303554,-0.0153721
0.0317482,-0.0161834
0.031084,-0.0162271
0.011808,-0.00125777
0.00091643,0.0134677
-0.00139801,0.0210352
0.0151868,-0.0135538
0.0225834,-0.0234508
0.00876109,-0.0126174
-0.00107517,-0.0265581
-0.0160469,-0.0168636
-0.0445357,-0.00514843
-0.0441345,0.00848247
-0.0374483,0.0295323
-0.0231771,0.0349089
0.000454263,0.0164039
0.00907121,-0.0123347
0.0152144,-0.0145971
0.00234346,-0.0183039
0.00856172,-0.022101
0.00627563,-0.00597794
-0.00137784,0.0151965
0.0125271,0.0130384
0.000661591,-0.00101289
-0.00518059,-0.00839346
0.0128633,-0.0169994
0.0291106,-0.0172414
0.0235115,-0.00676123
0.0215689,0.00169304
0.0197288,0.010735
0.0209066,0.0114665
0.014533,0.00217527
-0.00423901,-0.00110322
-0.0367403,0.00997875
-0.0376199,0.0023512
-0.0104077,-0.0202833
-0.0056812,0.00181917
-0.0198709,0.0197155
-0.0155303,0.0100477
-0.0035794,0.0117079
-0.0033861,-0.00584628
-0.00376569,-0.018424
0.00218737,-0.00579455
0.00419975,-0.00725788
0.000395409,-0.0100632
-0.000137332,-0.00319649
-0.000719315,0.0202834
-0.0071929,0.0279083
0.00286181,0.0156514
0.0186184,0.00540282
0.00258649,0.0239216
-0.0102618,0.0383534
0.000453081,-0.00898509
0.00574905,-0.0362362
-0.00299856,-0.0329323
0.00528567,-0.0206747
0.0235137,-0.0125109
0.0216062,-0.0112807
-0.00513536,-0.00886247
-0.0199112,-0.00900756
-0.0108837,-0.00858031
0.0107173,-0.011508
0.0374976,-0.0181556
0.0271226,0.00138181
0.0133865,0.0073334
0.00755273,0.0173662
-0.0134083,0.0320371
-0.0417724,0.0123874
-0.0487232,-0.00567409
-0.0566816,-0.0166745
-0.0597043,-0.00332137
-0.0583254,0.0222709
-0.0322969,0.0198372
0.0336626,0.0132622
0.0629362,0.0124105
0.0575352,0.00336741
0.04137,0.00258385
0.0255529,0.00235947
0.0193167,-0.00569077
0.0253687,-0.000645899
0.00896862,0.00914684
0.00580958,-0.000516082
0.0125111,-0.0193801
-0.0109689,-0.0109861
-0.039727,0.00553069
-0.0106517,-0.00406346
0.0310935,-0.00445393
0.0326897,0.0150793
0.0160232,-0.00282624
0.0109608,-0.00982326
-0.012162,-0.00427469
-0.0342511,-0.00433648
-0.0363375,-0.00331903
-0.0421063,0.00899757
-0.0364116,0.0226738
0.00198209,0.0368323
0.0213135,0.0270604
0.0194183,0.0297967
0.0371801,-0.0217258
0.0370436,-0.0538555
-0.00444572,-0.0407965
-0.0318397,-0.029089
-0.0216334,-0.0118595
0.0196581,-0.0119455
0.0145637,0.00403846
0.0105506,0.00574586
0.0272207,0.0113934
0.0352288,0.0116911
0.0189936,-0.00546248
-0.0181373,-0.0156078
-0.0498069,-0.0028786
-0.0653687,0.0134036
-0.0517014,0.0118785
-0.0237887,0.0363187
-0.00486878,0.0493392
0.0078268,-0.00538753
0.0144176,-0.0248843
0.0161716,-0.0169579
0.00930298,-0.0204786
0.00319067,-0.0092208
-0.00829056,-0.0153068
-0.0293516,-0.00692241
-0.0480082,-0.014733
-0.0171565,0.00313653
0.0339762,0.0328167
0.0494835,0.00243761
0.0614488,-0.00700063
0.0603905,-0.0132975
0.0502823,-0.0152267
0.0207545,0.0189708
-0.000848617,0.0187856
-0.00753411,0.00425109
-0.0298731,0.00261281
-0.083876,0.0012109
-0.076584,-0.00225023
-0.029887,-0.00967276
-0.062621,0.00165442
-0.0511482,0.0195489
-0.0258215,0.0176742
0.00583214,-0.00330734
0.00423814,-0.00911036
0.0439504,-0.0163034
0.0722732,-0.0219572
0.0391319,-0.0131502
0.0364545,0.000426575
0.0615087,0.00701196
0.0263216,0.0138411
-0.000313742,0.0180938
0.0432236,0.0132025
0.034315,-0.0129482
-0.029241,-0.00259704
-0.0610113,0.0193239
-0.0349934,-0.0242335
-0.0148425,-0.0305201
-0.0378406,0.0244404
-0.0408815,0.0282154
-0.0109692,0.00166771
-0.0202461,-0.00656848
-0.0268833,-0.0229304
-0.0356334,-0.0127105
0.0723155,-0.000544256
0.134312,0.00973238
0.0903632,-0.0108996
0.0419408,-0.00782094
0.0162226,0.0265686
0.0137445,0.00652855
0.00541032,-0.0103867
-0.0236628,-0.00286312
-0.0362253,0.0126783
-0.0418982,0.0339631
-0.0555041,0.0410314
-0.0466321,0.00564471
-0.00804648,-0.0533028
0.00782403,-0.0459874
0.0160239,0.00408522
0.000953779,0.0372285
-0.0322782,0.00620573
-0.0335294,-0.0163336
0.0101205,-0.022479
0.0432604,-0.0406798
0.0421281,-0.0413239
0.0261071,0.0409285
0.0157069,0.0521034
0.00507834,0.0229472
-0.0124378,0.0156336
-0.0198323,0.0138418
-0.00988657,-0.0120926
-0.00422607,-0.0243388
-0.000298553,0.00239281
0.00145205,-0.00578608
-0.015385,-0.0294203
-0.0196085,-0.0159737
-0.0132797,0.0103364
-0.0202554,-0.0045772
-0.0234089,-0.00475038
-0.0247617,0.0120251
-0.0254057,-0.00175761
-0.0085669,-0.0327206
0.0317328,-0.0287739
0.0487149,0.0236795
0.0343779,0.0431219
0.0261374,-0.00243099
0.0115643,-0.0298687
-0.0233308,-0.00158254
-0.0434017,0.0313887
-0.023536,0.0126619
0.0272408,0.0212964
0.0279452,0.00388162
-0.0123747,0.0220473
-0.0239449,-0.0109527
-0.024108,-0.0659536
-0.0464817,-0.0217907
-0.0326774,0.0144271
-0.0196,0.0357088
0.000280111,0.0626469
0.031353,-0.016209
0.0374369,-0.0229246
0.0424998,-0.00819001
0.0527251,-0.0112031
0.0522211,-0.0166391
0.0118525,-0.0121812
-0.0105251,0.00883873
0.023095,-0.00107006
0.0178477,-0.00691317
-0.0210655,0.0115885
-0.0302567,0.025602
-0.010142,0.00491457
-0.00883518,-0.011785
-0.0145893,-0.00391809
-0.0504252,0.0123387
-0.0972648,0.0289634
-0.0467125,0.0201046
0.0334486,-0.0157383
0.0544407,-0.0317558
0.0562039,-0.0378137
0.017427,-0.00676006
0.00141347,0.0244576
-0.0113009,0.0518066
-0.0214426,0.0414716
0.000838265,-0.00492435
0.0268224,-0.0477061
0.046072,-0.0579926
0.0149937,-0.0318129
-0.0168744,0.00654704
-0.000815569,0.0211962
-0.00840071,0.00315623
-0.0166101,-0.000419969
-0.000645941,0.00592298
0.00415205,0.00680759
-0.00168243,0.0318088
0.00934699,-0.00144771
0.023214,-0.0360837
0.00861285,-0.0311527
-0.0111031,-0.00245908
-0.0187612,0.0238189
0.00598765,0.0281989
0.0213037,0.0363135
-0.0053158,-0.00100974
-0.0218839,-0.0383881
-0.0159758,-0.0242447
-0.00962168,-0.0189549
-0.0234803,0.000935568
-0.0371398,0.0383094
-0.0317027,0.0567081
-0.0191577,0.0162245
0.0016039,-0.0070357
0.0335616,-0.00719462
0.0690235,-0.0426951
0.0635574,-0.0547635
0.0483269,-0.0162879
0.033313,-0.00128377
0.0030581,-0.00224576
-0.0577718,-0.00817537
-0.0672915,0.0350554
-0.0257527,0.0466088
0.00314358,0.00232055
0.00862291,-0.0213086
0.00543011,0.00593863
-0.0230598,0.0149421
-0.0293729,0.00295895
-0.0205235,0.00665006
-0.0090118,0.00408882
-0.00936669,-0.00321104
0.0218364,-0.00104489
0.0291056,0.00686174
0.00343978,0.00879679
0.00444653,-0.0287089
0.0279666,-0.00792664
0.0239128,0.0201872
0.0222227,0.00721641
0.0146391,-0.0448896
-0.00357744,-0.026551
0.00816271,0.035124
0.0132092,0.0167123
-0.0247505,0.00982776
-0.0274362,-0.00212585
-0.0287812,-0.00185253
-0.0327426,0.0263338
0.0089267,0.0226754
0.0401638,-0.0246882
0.0225041,-0.0376246
-0.0057455,-0.0171961
-0.0190561,-0.0139096
0.00155632,-0.017437
0.027926,-0.00285394
0.000268867,0.0279742
-0.0401418,0.0275205
-0.0534339,0.01446
-0.00504672,-0.0216965
0.0293314,-0.0395688
-0.0073397,-0.00839784
-0.0419127,0.0181131
-0.041089,0.0168536
0.0092104,0.000768082
0.0298879,-0.00351597
0.0210526,0.0124141
0.0309114,0.0124995
0.0665641,-0.0167208
0.067689,-0.0171248
0.0248503,-0.00467387
0.00450471,-0.0020032
-0.00401055,0.0131838
-0.0130103,0.0104762
-0.0183785,0.00711357
-0.0313641,0.0348054
-0.0257884,0.0069115
-0.0121264,0.00198883
-0.0206274,0.000912796
-0.0460643,-0.00591245
-0.0447112,0.0319028
0.007891,-0.0118472
0.0114619,-0.017449
-0.0154863,-0.0013523
0.00328521,0.000307405
0.0442462,-0.0107227
0.037878,-0.017287
0.0236397,-0.0156401
0.0131617,-0.00439757
0.00485153,0.00848546
-3.49e-05,-0.00865789
-0.0291375,-0.0167315
-0.0481063,0.0214356
-0.0346479,0.0107738
-0.00184987,-0.0349423
0.0122105,0.00561671
0.012652,0.0140034
0.00704754,0.0322164
0.0130713,0.00926819
0.0168535,0.00492255
0.0114572,-0.0168903
0.00478716,-0.0158035
0.00522552,-0.0106509
-0.0147538,0.00251679
-0.00801031,0.0187053
0.0128255,0.0186093
0.0162198,-0.00552411
0.00257927,-0.00452422
-0.00523208,0.013816
-0.00290574,0.00497717
-0.00206477,-0.0120202
-0.00121805,-0.00184089
-0.00618941,0.0310322
0.00770001,0.0111966
0.00610054,-0.0182462
-0.0189352,-0.0219305
-0.0306914,-0.0199409
-0.00743437,-0.0103623
-0.000319671,-0.00393674
-0.00773087,-0.00315149
-0.0110925,-0.034877
0.0152855,-0.0501785
0.000696573,0.0183663
-0.0352082,0.0541843
-0.0485883,0.0236844
0.0176465,0.00854747
0.0319417,-0.0285029
0.019668,-0.0154244
0.0358077,-0.00267639
0.0295858,-0.00604816
0.00537753,0.0143188
0.0166676,0.0300657
0.0347734,0.00923521
0.00713911,0.00019865
-0.00378825,0.0143762
-0.00306771,0.0327734
-0.0146635,0.042894
-0.0355344,0.0576886
-0.0391729,-0.0113808
-0.0338057,-0.1326
-0.0308586,-0.153504
-0.00704543,-0.133166
0.0588821,-0.0946581
0.0577392,-0.0332396
-0.0290076,0.0295409
-0.0193683,0.101462
0.0233777,0.122557
0.0288497,0.105118
0.0237428,-0.0209289
0.0107041,-0.0974303
0.0125261,-0.044342
0.0193734,0.0722583
0.0211618,0.160225
0.00993423,0.138305
-0.0167836,0.101248
-0.0272883,-0.000713794
-0.0241713,-0.133824
-0.0157821,-0.155118
-0.00971051,-0.0907378
-0.0169852,-0.0333382
0.00841762,0.0329644
0.0297809,0.0784677
0.00986269,0.101041
-0.00823079,0.0952592
-0.00253148,0.0444252
0.0124322,0.00232726
0.00348508,-0.0120018
0.00399887,-0.0195407
-0.014935,-0.0303171
-0.0647919,-0.0351445
-0.122413,-0.00730388
-0.137058,0.0329148
-0.0435711,0.0455979
0.0801061,0.0177788
0.110232,-0.00386207
0.0510656,-0.0193087
-0.00135352,-0.0292632
-0.105439,-0.0226615
-0.0849676,-0.0252148
0.0489399,-0.0475182
0.0354581,-0.0427227
0.0444652,-0.0381636
0.084764,-0.0379239
0.0938053,-0.0339538
0.0340776,-0.0248247
-0.0119114,-0.0136925
-0.00966969,-0.00882718
0.0034952,0.0187
-0.00655473,0.0517235
-0.0312064,0.0438741
-0.116029,0.0372878
-0.131968,0.0291137
-0.0065649,0.0214208
0.0887005,-0.0136878
0.042846,-0.0434314
0.0726015,-0.0312702
0.0901959,-0.0130063
0.0631385,-0.00543657
0.0226023,-0.00447446
-0.0195261,-0.00333217
-0.0258834,0.00498116
0.0108241,-0.00592534
0.0411021,-0.0465488
0.0222088,-0.0601206
-0.00922315,0.0108158
0.0080366,0.0698223
0.0417873,0.0699266
-0.0224744,0.0294567
-0.0834266,0.0254582
-0.0724914,3.27e-05
-0.0609664,-0.0154104
-0.0214003,-0.0160076
0.0270453,-0.0395253
-0.0150689,0.0139934
-0.0726654,0.0191409
-0.0248145,-0.0133531
0.0329921,-0.0330032
0.0587313,-0.0277523
0.0383051,-0.00529851
0.0358395,-0.00994447
0.0309741,0.0122671
-0.0290806,0.036483
-0.0632848,0.0432863
-0.0386389,0.0365647
-0.00632203,0.0239337
0.0222094,0.0262064
0.0416256,0.00433884
0.0055558,0.0345399
-0.064904,0.00351233
0.0134873,-0.0568972
0.0879491,-0.104563
0.0639158,-0.0369765
0.0283047,0.00955274
-0.00252427,-0.00859202
-0.03065,-0.0114282
-0.025086,0.00235002
-0.0137861,0.0129442
-0.00395347,0.0160471
0.0074867,0.00305133
0.0268946,0.0129617
0.053926,0.0231987
0.0175144,0.0193732
-0.0358362,0.00791122
-0.0945625,-0.00744598
-0.141869,0.015931
-0.0996314,0.0330071
-0.0513093,-0.0263977
-0.0441552,-0.0323569
0.0279732,-0.0124868
0.103683,0.00765067
0.0869787,0.00955447
-0.00966478,-0.0117605
-0.0467918,-0.00166204
-0.0622071,0.0182779
-0.0722277,0.0976485
-0.0214732,0.0430847
0.0972941,-0.0393481
0.0603411,0.0068802
0.00809969,-0.0428639
-0.0197354,-0.0367221
0.079675,-0.0531983
0.165259,-0.0574793
0.118247,-0.0380815
0.015902,0.0267873
-0.023125,0.00425151
-0.0620163,0.0574727
-0.0820736,0.130024
-0.0338766,-0.0104679
-0.0636372,-0.108685
-0.101322,-0.049393
0.0079301,-0.0203978
0.119678,0.0255024
0.11355,-0.0306507
0.0395669,-0.0124975
0.0181858,0.0256691
0.0259384,0.0181143
0.0213031,-0.0143555
0.0319794,-0.0230055
-0.0125085,0.0331079
-0.00896278,0.00257633
0.0311449,-0.00599141
-0.00696628,0.0107781
-0.100826,0.00839514
-0.14109,0.0170882
-0.153699,0.0227435
-0.110709,0.0241553
0.0112011,0.00190519
0.0404501,0.0240088
0.0158491,0.0429289
0.0740888,0.00937314
0.15947,-0.00537351
0.118947,-0.0172224
0.0855681,-0.0321807
-0.0110159,0.00795655
-0.0907322,0.0638505
-0.102843,0.0334531
-0.106909,-0.0560332
-0.0721663,0.0100135
-0.0326908,0.00257324
0.0440332,-0.0149088
0.019072,-0.0656323
-0.0798822,-0.0701077
-0.0251903,-0.0387217
0.0896423,-0.010851
0.0602476,0.0187234
0.0293849,0.00105067
0.0258419,0.0470525
0.0583921,0.0893899
-0.000396924,0.0634647
-0.0620583,-0.0443148
-0.0825536,-0.0729784
-0.0574001,-0.0472515
-0.0167925,-0.0216047
0.0639689,-0.0140523
0.115331,0.0101422
0.0764669,0.00906547
0.0588476,-0.0185475
0.0742143,0.00863037
0.138697,0.00935932
0.115806,0.00170688
0.0258015,0.00427849
-0.0985236,0.0326388
-0.0838948,0.0375082
-0.118767,0.00190364
-0.251986,-0.0144289
-0.120443,-0.000177277
0.0841316,3.89e-05
0.0635053,0.0125458
0.0189011,0.0443143
0.0214264,-0.00724227
-0.00814546,-0.0242591
-0.0714101,0.034463
-0.132416,0.0357423
-0.131197,-0.0108751
-0.0833346,-0.0481291
-0.0147135,-0.0556486
0.125906,-0.0518463
0.213948,-0.0206832
0.138149,-0.0490962
0.0520251,-0.0194646
0.0150189,0.0452146
-0.0023702,0.0274706
0.0321342,0.00213133
-0.0103245,0.0326484
-0.0629509,0.0165532
-0.0698605,-0.018399
-0.0367649,0.00903993
-0.0205461,0.042307
-0.00570646,0.0832717
-0.0136723,0.0437612
-0.0471046,-0.0219575
-0.0141248,-0.0805438
0.0206637,-0.074355
0.00269505,-0.00922831
-0.0266187,0.0558097
0.0235793,0.0536754
0.0107094,0.0943093
0.008513,0.00610833
0.0478668,-0.0534737
0.0861574,-0.101779
0.0486019,-0.111067
0.0325916,-0.0449487
0.0770747,-0.0244764
0.00739178,0.0126394
-0.0794316,0.0581159
-0.0665268,0.0189999
-0.0282917,-6.74e-05
-0.00625249,-0.000732161
0.0108653,-0.00372428
-0.0336246,0.0228385
-0.0847744,0.0149303
-0.0191969,0.0113379
0.0287262,0.0406259
0.0353139,0.0091416
0.00983947,0.0432531
-0.0989465,-0.0252082
-0.022016,-0.0637497
0.11696,-0.0107128
0.0634954,0.0188993
0.0335041,0.0494073
0.0573087,0.0597821
0.0915016,0.0703111
-0.0174863,0.0640702
-0.00324923,-0.0489761
0.0137095,-0.12884
-0.0202068,-0.0273048
-0.0843921,-0.0333638
-0.105699,0.00437778
-0.0790177,0.0541756
-0.100943,0.0248149
-0.123834,-0.0192454
-0.0564517,-0.027204
0.0832502,-0.0294918
0.0671554,-0.0328031
0.0397875,0.013227
0.118174,0.0172739
0.118946,-0.054073
0.0559608,-0.0512902
0.0200994,-0.00708346
0.0307129,-0.0268077
0.0463308,0.0325945
-0.0359001,0.0296463
-0.0657681,0.0367565
-0.067017,0.0851538
-0.0501932,-0.0191122
-0.0538825,-0.0370496
-0.04254,0.0782169
0.0939532,0.0965407
0.131264,0.0154501
0.0592253,-0.051512
-0.0495936,-0.0089
-0.204795,-0.099138
-0.237923,-0.0933313
-0.120607,0.0335308
0.0392509,0.0735295
0.112794,0.0652311
0.0975798,-0.0173921
0.0484594,-0.102281
0.0272719,-0.0247898
-0.0592085,0.0599147
-0.0805175,0.0294386
-0.00990117,-0.0440784
0.0728498,-0.025443
0.142103,0.0157996
0.0463813,-0.0288185
-0.0624882,-0.0294645
0.0283664,0.00496124
0.0679893,0.0120271
-0.0203362,0.00648161
-0.101025,0.0337683
-0.00812453,0.0284637
0.163895,0.0681447
0.556275,0.0732189
0.834532,0.0297934
0.617349,-0.0432472
0.167059,-0.0552912
-0.318609,-0.0565147
-0.726244,-0.00979561
-0.831999,0.0196035
-0.462364,0.017249
-0.0563189,0.0327846
-0.00285422,0.0258462
-0.163224,0.0287687
-0.111696,-0.0434403
-0.209866,-0.0880647
-0.230775,-0.0666658
-0.119471,0.00611002
-0.0530761,0.0312136
-0.0426544,-0.0251408
0.0721127,-0.0474363
0.107239,-0.000154665
0.126151,0.0100142
0.161031,-0.0380279
0.160643,0.00197869
0.172919,0.112343
0.141973,0.152673
0.00298934,-0.00690052
0.0629957,-0.00313979
0.356964,0.0710058
0.3083,0.0432604
0.104307,-0.0626352
0.0753176,-0.0465607
-0.207113,-0.0127873
-0.367599,-0.0608487
-0.233948,-0.0695373
-0.0681578,-0.0249289
-0.0208898,0.00777054
0.0578078,0.0295394
0.111104,0.0176812
0.0525676,-0.0182359
-0.128734,-0.0419158
-0.121995,-0.0856559
-0.000707287,0.0116862
-0.0423542,0.050184
-0.0440415,0.041584
-0.0232794,0.0378163
0.0330077,0.00962754
0.0742737,0.0251754
0.103032,0.029791
0.240049,-0.00462565
0.167395,-0.0503242
-0.0595395,-0.0289158
-0.187862,0.0315321
-0.193372,0.0427893
-0.16015,0.0280971
-0.108153,-0.044571
0.0162683,-0.0307008
0.0952591,0.0107643
0.118694,-0.0386533
0.105869,-0.0310171
0.0808775,-0.00173162
0.0960687,-0.0186768
0.14223,-0.0187922
0.119137,-0.0124505
0.0362675,-0.0283245
-0.12618,-0.00288274
-0.257139,0.00711456
-0.184856,0.0381386
-0.0455389,-0.0260268
-0.00335956,0.03969
0.0114129,0.0572685
0.0162283,-0.0434991
0.00887545,-0.024618
-0.0199585,-0.00880764
0.000527346,-0.0143346
0.0147413,0.0108386
0.0458036,0.0254441
0.056846,0.0429796
0.0337962,0.0625749
0.0625377,-0.0163543
0.0644049,-0.0555841
-0.00176129,-0.0232765
-0.0322032,0.0622898
0.0252195,0.0962357
0.0321545,0.0222379
-0.00938279,-0.103259
-0.0557439,-0.0352324
-0.0750952,0.0241752
-0.0469797,-0.00819211
-0.0196601,-0.00579312
0.0184788,-0.00864495
-0.00290113,-0.0138191
-0.0115119,-0.0212893
0.0217828,0.0192155
0.0185298,0.0266805
0.0127097,-0.0187592
0.0701816,0.0447618
0.0697274,0.0091682
0.0213675,-0.107461
-0.0403092,-0.0513321
-0.0707483,-0.0166376
-0.0379555,0.00715334
-0.0279071,0.0567292
-0.0556469,0.0164246
-0.0614043,0.0329337
-0.0689611,0.0289432
0.063133,0.0221977
0.198869,-0.0119381
0.145877,0.0295837
-0.00505546,0.043427
-0.0568141,-0.0144698
-0.054384,-0.0409951
0.00696703,-0.038223
0.0163876,0.0111381
-0.045138,0.0327988
-0.0486991,0.0429535
-0.0381784,0.00344031
-0.0504524,-0.0129495
-0.0234114,0.00252325
-0.0197138,0.0215836
-0.00752629,0.00203366
0.0101719,-0.00356057
-0.0112495,0.0266894
-0.0571235,-0.0273525
-0.000653358,-0.0151853
0.0875295,0.0132376
0.0728749,-0.00733515
0.0441331,-0.0389071
0.0684566,-0.0286557
0.0236133,-0.0240875
-0.0369366,-0.0163221
-0.0352597,-0.00603579
-0.00737055,0.0188984
-0.0151902,0.0262033
-0.0257735,0.00772904
-0.087786,-0.00318635
-0.0572416,-0.0198019
0.0556199,-0.0326555
0.0676896,-0.00794409
0.0497165,-0.0147218
0.0291374,0.00345556
0.0148789,0.00511729
0.00713709,0.0131961
0.027026,-0.00451316
0.0193192,-0.0165408
-0.0475541,0.0411779
-0.0694747,0.0068088
-0.0540929,-0.0387382
-0.0435913,-0.00251823
-0.0228226,0.00920829
0.0185811,0.0118006
0.0128559,0.0228805
0.0384949,-0.0156045
0.0468314,-0.0190672
-0.00536593,0.00599799
-0.0328212,0.0185057
-0.0128631,0.00841647
-0.00192647,0.011778
0.0388546,0.012359
0.0630431,0.04832
0.0616833,0.0414246
0.0673441,-0.0194164
0.0756043,-0.0746291
0.0656482,-0.065746
-0.024726,-0.0122506
-0.0727401,-0.0150866
-0.133023,0.02927
-0.127423,0.0411389
-0.0744159,0.049118
-0.0351482,0.009585
-0.0258539,0.0139862
-0.0486641,0.0163437
-0.0605768,-0.0323327
-0.048172,-0.077896
-0.0621347,-0.0405193
-0.00484718,-0.0267335
0.0802065,-0.0146342
0.146891,0.0229113
0.126941,0.02958
0.0434662,0.00401004
-0.0277977,0.0169452
-0.00512716,0.00227967
0.011041,0.0244269
-0.0255134,0.0366836
-0.0349843,0.0206524
0.0413093,0.0578282
0.0305163,0.0375399
-0.0287663,0.0364981
-0.00430305,-0.0502415
0.0558421,-0.0973255
0.0359024,-0.0543004
-0.000474811,-0.0287498
-0.00305691,-0.0224813
-0.014153,-0.0225538
-0.0327101,-0.00188369
-0.0136896,0.0200637
0.0277327,0.0108006
0.077163,0.0197295
0.0240011,0.010118
0.0109242,0.0299098
0.0183593,0.0715549
0.00486175,0.010324
-0.00120186,-0.0439965
-0.0515086,0.0154185
-0.0893885,0.0864551
-0.0663572,-0.0493713
0.022158,-0.0285339
0.0546521,0.00402821
0.000288635,-0.0102282
-0.116646,0.00366505
-0.119114,-0.00614565
-0.0393988,-0.0125428
0.0246439,-0.0136365
0.0911651,-0.0276997
0.0813817,-0.0275855
0.0409275,-0.00638426
0.0603714,-0.00838081
0.0545961,-0.0217497
0.0255074,-0.0039748
0.0053886,0.034116
-0.0145777,-0.0331515
-0.00475376,-0.0272176
0.0160906,-0.0118075
0.0114344,-0.026281
0.00186897,-0.0186188
-0.0197146,0.0380534
0.00259516,0.0456253
0.0334761,0.0167381
0.0112528,0.0178242
-0.0383734,0.0164117
-0.0807884,-0.0301286
-0.0539053,-0.0255685
0.0182194,0.00783819
0.0204829,0.038365
-0.0259864,0.0515784
-0.0287168,0.0300329
-0.0245377,-0.027179
0.0127699,-0.0174324
-0.0075643,0.0166685
-0.0577038,0.00938282
-0.0420333,-0.00797022
-0.0543709,0.0103889
-0.0270012,0.012864
0.0259028,0.0104303
0.0615754,0.0294952
0.0753367,0.00993417
0.0485568,-0.0523078
0.00739362,-0.0629433
0.0571241,-0.0188303
0.058889,0.0666732
-0.000678803,0.02778
-0.0408024,0.0801776
-0.0765567,0.0465205
-0.136276,-0.0177187
-0.122276,-0.00572819
0.0244655,0.00545031
0.0395097,0.0138635
0.0497725,-0.0318369
0.0862317,-0.0601835
0.0399816,0.0244996
0.0185729,0.00598878
0.0135323,-0.057561
0.0284332,-0.0662499
0.0347649,-0.0410673
0.00751131,-0.0441933
-0.00162952,-0.0176102
-0.0042038,-0.0124711
-0.0110221,-0.00109131
-0.00425468,0.0158494
0.019519,0.0427294
0.0284547,0.0298876
-0.00410439,0.00960185
-0.022385,0.0511927
-0.0321555,-0.0300592
-0.0326931,-0.0255791
-0.0266175,0.0246262
-0.00431534,0.00905053
0.00353074,-0.00857406
-0.00830833,-0.0403515
-0.0235075,-0.0271077
-0.0239996,-0.010725
-0.00586602,-0.00837997
0.0163706,0.0059154
0.0531452,-0.00865967
0.0277284,0.0127821
0.0118936,0.022565
0.0132453,0.0391235
0.031724,0.0164276
0.076605,0.00355166
0.0168067,0.0328492
-0.0181701,0.0289244
-0.00954619,0.0157742
-0.00395063,-0.0110673
-0.0349717,0.0217575
-0.121524,0.00622632
-0.187516,-0.0337545
-0.117273,-0.053857
0.0195794,-0.0059118
0.00961036,-0.00824541
-0.00195389,-0.00779003
0.0801322,0.00584378
0.109387,0.0573755
0.0831856,0.026251
0.0901709,-0.0216308
0.0534448,-0.0718777
-0.0268226,-0.0359316
-0.0344107,0.00656166
-0.023812,0.0181689
-0.0664079,0.0219851
-0.0591846,0.00614234
0.0207836,-0.00887349
0.0339791,-0.0127584
-0.0208026,-0.0106049
0.000630141,-0.0101728
-0.00573979,-0.00667583
-0.0086666,0.00258056
0.0195118,0.00456849
0.0438196,0.00870619
0.0427021,0.0157508
0.013491,0.0267194
0.00424178,0.0457579
0.0104724,0.0826243
0.0158478,-0.0598613
0.00648869,-0.0647038
-0.00666095,-0.0244927
-0.0275542,0.026848
0.0118092,-0.0146326
0.0332799,-0.0370892
0.0124261,-0.0184133
-0.0381339,-0.00857541
-0.0864025,-0.000863312
-0.104416,0.0128548
-0.0444961,0.0105387
-0.058816,-0.0186223
-0.0216059,-0.0150208
0.0415724,0.0323461
0.0336627,0.0509558
0.0699172,0.0269303
-0.0147816,0.0303307
0.0160698,0.0766638
0.175792,0.0452638
0.256028,-0.0434946
0.182739,-0.0222497
0.0865472,-0.0462136
-0.00714933,0.00998581
-0.192146,0.0130431
-0.251301,-0.0414287
-0.216094,-0.0699175
-0.151802,-0.0410446
-0.0327324,-0.00219233
0.0478361,0.0646711
0.0626386,0.060219
0.0635571,-0.0300065
-0.0302623,-0.00725093
-0.00921078,-0.011583
0.0226547,-0.0103642
-0.0943667,-0.0238512
-0.165083,-0.0259635
-0.0433043,0.00260915
0.0862642,0.0205788
0.150899,-0.0117038
0.128438,0.011647
0.084691,-0.00530335
0.0400117,-0.0295721
-0.0360667,-0.0173797
-0.0113946,-0.00363283
0.0055951,0.0132233
-0.0530896,0.0515018
-0.0482078,0.0347825
0.00822533,-0.0224963
0.0458827,-0.0066703
0.0582831,0.0185172
0.0717233,-0.0494543
-0.0469146,-0.0309907
-0.135786,-0.0166269
-0.0989703,0.00020641
-0.12563,0.0197843
-0.140943,0.0171256
-0.100553,0.010011
0.0468392,0.00839556
0.241346,0.00708684
0.395059,0.00662105
0.447998,0.00424503
0.294252,-0.0150292
0.049455,-0.016644
-0.119306,-0.00203479
-0.180892,0.00545683
-0.27936,-0.00464342
-0.333215,-0.0172786
-0.224277,0.00770436
-0.157023,0.00749683
-0.051378,0.0194888
0.0229383,0.00437021
0.00872682,-0.0256409
0.116543,-0.00444737
0.123395,0.0276734
0.037452,0.0248311
-0.0243799,0.0458201
-0.0626375,0.12563
-0.0282521,0.0155657
-0.0084695,-0.069061
0.10235,-0.0303229
0.142963,-0.0162711
0.0804228,-0.0144287
-0.00606638,0.00479029
0.0127136,0.0271079
-0.00513579,-0.00583897
-0.0360627,-0.0719745
-0.0168727,0.00276503
-0.0135316,0.042717
-0.0252449,0.0336759
-0.0310788,0.028215
-0.0343171,-0.0100305
-0.105005,0.0139909
-0.0781107,0.0241101
-0.0723608,-0.0188163
-0.0678374,-0.0689199
0.00694858,-0.0431468
0.0341571,-0.0486492
0.0408806,-0.0405001
0.060888,-0.0244425
0.097722,-0.0127996
0.11163,-0.00641147
0.115925,0.0121865
0.068494,0.0280342
0.0124079,0.0281126
-0.0243817,0.0192504
-0.0274596,0.0209105
0.000174492,0.0164381
-0.00544322,0.00430324
-0.0106001,-0.0116748
-0.0187859,0.00918724
-0.0676867,0.0263605
-0.0735309,-0.00161859
0.0205055,-0.030091
0.0146938,-0.0266695
-0.0457444,0.000342544
-0.0683692,-0.0107476
-0.0936726,-0.0101824
-0.150126,0.00941395
-0.076035,0.027186
0.0553765,0.0225127
0.159186,-0.00559138
0.111254,-0.0135097
0.0949812,0.0282947
0.134518,0.0281705
0.112463,0.0135747
-0.0074486,-0.051337
-0.0369332,-0.0950967
-0.00639441,-0.0453107
-0.0280836,0.00282424
-0.0597478,0.0417765
-0.0382773,0.0624893
0.00120002,0.0165458
0.0168667,-0.0540372
0.00953826,0.019439
0.0115062,0.0492472
0.0131948,0.0186291
0.00120854,0.0282717
-0.00877589,-0.00793298
-0.0235058,-0.00536013
-0.030089,-0.0287419
-0.0340232,-0.019952
-0.0413764,-0.0226313
-0.054205,-0.00324252
-0.0263664,0.000671835
0.0192527,-0.00560367
0.0469542,-0.00294398
0.0559109,-0.00348698
0.0409828,-0.0143617
0.0267097,-0.0128864
0.00974212,-0.0102356
0.00444353,-0.00354524
-0.0019065,0.00734423
-0.030622,0.0243082
-0.0477998,0.0270828
-0.0601274,0.0235333
-0.0585568,0.0435923
-0.0393929,0.041027
0.00563961,0.0394955
-0.0167722,-0.012681
-0.0504846,-0.0124657
0.0453448,0.0177162
0.0719957,0.0282249
0.0571713,0.00915466
0.0829751,-0.000495413
0.0904585,-0.0125899
-0.112795,-0.0218286
-0.189424,-0.0199398
-0.0390683,-0.017044
0.066765,0.0287547
0.031445,0.0123887
-0.0268932,-0.0170244
0.0500452,-0.0265529
0.109589,-0.0186663
0.0591282,-0.019432
-0.00555295,-0.0514893
-0.0664668,-0.0268344
-0.0644901,0.0219638
-0.0724541,0.00250263
-0.0363149,-0.0610228
0.0445938,-0.0595575
0.0172577,-0.0431976
0.0145734,-0.000561344
0.0453529,0.0181852
0.0474598,-0.0476361
0.00974526,-0.0053133
0.00839592,0.0382581
0.00977844,0.0469105
-0.0217426,0.0521508
-0.0135291,0.0187147
-0.0134562,-0.00165099
0.0248663,-0.014531
0.0258257,0.00935977
-0.00696716,0.00366645
-0.00895637,0.0322927
-0.0181505,0.027052
-0.024366,0.0102849
-0.00915109,-0.0389005
0.0302099,-0.0399073
0.0380398,-0.00818506
0.0110655,-0.0151736
-0.0165315,0.00705332
-0.0527924,0.0606422
-0.0325425,0.0203822
0.0170067,-0.0318669
0.024613,-0.00336904
0.000259774,0.00819421
-0.0211596,0.00193813
-0.0219338,-0.00102068
-0.0150256,0.000250677
-0.0158247,-0.00459624
0.00321233,-0.0113454
-0.00569353,0.00910139
-0.0108617,0.0280274
0.028987,0.000957001
0.0366092,-0.0277102
0.0223171,-0.0186859
0.00351616,-0.00988032
0.00641379,-0.0107866
-0.00465726,0.020749
-0.00455329,0.121053
0.00775329,0.112902
0.0344741,0.0567963
0.0491629,-0.0304025
-0.000215992,-0.118894
-0.0935729,-0.0341813
-0.105629,-0.0221691
0.0125057,-0.00171858
0.0305644,0.0175409
-0.0173366,0.0139565
0.0207432,0.0234944
0.107596,-0.0173291
0.0577885,-0.0357648
-0.0489625,-0.0296131
-0.0380208,-0.0172967
-0.0324786,-0.00610335
-0.012188,0.00436003
-0.00495161,0.013908
-0.0282172,0.0132821
-0.00439414,0.00258124
-0.00976307,-0.00103674
-0.0207896,0.00479948
-0.0117122,0.0117602
0.0106225,-0.00404164
0.0273801,-0.0214976
0.0119119,-0.00487585
-0.00363448,0.0137621
0.00158492,0.00540801
0.0167871,-0.0170312
0.0198305,-0.0184029
0.00965498,-0.0123785
0.0127964,-0.0103913
0.0146876,-0.017322
0.00690913,-0.00380656
0.00790444,0.0337558
0.00869118,0.0435301
-0.00498969,0.0212939
-0.0213731,0.00904833
-0.00243264,0.0061965
0.0455834,0.0286188
0.0696022,-0.0646691
-0.0413626,-0.04539
-0.0983695,0.0174834
-0.0668669,0.0278013
-0.0487299,0.0105709
-0.0226378,-0.00327822
0.0399561,-0.00689367
0.038105,-0.0187589
0.0419778,-0.0140879
0.0627747,-0.00630689
0.0549511,-0.0184914
0.0104059,-0.00128242
-0.0132876,-0.00875888
-0.00494604,-0.0103108
0.0335385,-0.0034169
0.0296038,-0.0169312
-0.00536342,0.000117892
-0.0328714,0.0381144
-0.03617,-0.0143514
-0.0493032,0.00387156
-0.042863,0.0583233
-0.031342,0.0221373
-0.0424837,-0.0261889
-0.0293257,0.00214893
-0.0220421,0.023387
-0.00900933,0.0337864
0.0284873,0.0109422
0.00384986,-0.0130415
-0.00529952,0.0265979
0.0614916,0.110047
0.132012,0.0163864
0.0811775,-0.119642
-0.07417,-0.110961
-0.103211,-0.0054678
-0.018271,0.0109778
0.0345223,-0.0226665
-0.0209246,0.00842439
-0.0531206,0.0187547
-0.00783272,0.00266994
0.0577828,0.00441168
0.0443539,0.0182221
0.0358559,-0.0397922
0.0205094,-0.0529275
-0.0223611,0.0144522
-0.0281557,0.0342041
0.00325966,0.00204294
0.0268843,-0.00337968
-0.0158367,0.0136693
-0.0691529,-0.00530211
-0.0590943,-0.0324587
-0.0224782,0.00297092
0.0392047,0.0363534
0.0373788,0.0298935
0.000745174,0.0147899
0.0178288,-0.012794
0.0462164,-0.0315415
0.0556918,0.0138753
0.0435919,0.0113977
0.013245,-0.0392007
-0.0150617,-0.00759324
-0.0666743,-0.00577261
-0.0610072,0.0050007
0.01511,0.0126204
0.0774082,0.0263511
0.0953016,0.00957566
0.0491968,-0.00890211
-0.0435029,-0.0204385
-0.116333,0.00118547
-0.12571,0.00388163
-0.0681022,0.0162889
-0.0541981,0.0453243
-0.0211983,0.0342949
0.0409365,-0.0133708
0.0459404,-0.0639429
-0.011265,-0.033047
0.014793,0.00372381
-0.00476062,0.0111927
-0.0420621,0.015499
0.013857,-0.0122609
0.00166081,0.00535745
-0.0174842,0.0171234
0.00442768,0.0168994
0.0473962,0.00578779
0.0398795,-0.0441306
0.0163549,-0.014749
0.0341288,0.0422226
0.0528748,0.0373006
0.038465,0.006595
-0.00492885,-0.0277667
0.0036076,-0.0440525
0.0599401,-0.0527495
0.0265391,-0.0315555
-0.0238824,-0.00787982
-0.0377945,0.0129744
-0.0416626,0.00747091
-0.00366334,0.0350783
0.0133631,0.00326656
0.029628,-0.028834
-0.0155972,-0.00246261
-0.0919413,0.0446829
-0.0460421,0.0222956
-0.0230528,0.0143944
-0.020297,0.0177969
-0.00622348,0.00954619
0.00442864,-0.0131442
-0.0211252,-0.028219
-0.0131715,-0.0328705
0.0308691,-0.0217933
0.0631597,-0.0232586
0.059647,-0.00976901
0.0700563,0.0168195
0.0363508,0.0530712
-0.00953285,0.0236702
-0.0144591,0.00418007
0.0111584,0.00023184
0.039579,-0.00807695
0.0271253,-0.0125553
0.00217208,-0.00630709
-0.0213266,-0.00143199
-0.0297937,0.0193574
-0.0409943,0.031199
-0.0421815,0.0181739
-0.0130423,0.00572727
-0.0187504,0.00751999
-0.0599847,0.00737776
-0.0277659,-3.43e-05
0.0189132,0.000407214
0.0418992,0.000480693
0.0233831,-0.0113008
-0.00452754,-0.0137436
-0.0227195,0.00161001
-0.0273835,0.00124205
-0.0204913,-0.0391333
-0.000427679,-0.0255176
0.0110484,-0.00301067
0.00970188,0.0441931
-0.024637,0.0516149
-0.0322334,0.0324987
0.013498,0.0464624
0.0150101,-0.00789407
0.0422076,-0.089868
0.0470391,-0.0209883
-0.00880626,-0.0399275
-0.0575714,-0.0217235
-0.0170992,0.0232724
0.0389882,0.0308326
-0.015254,0.0214847
0.00658442,-0.0272224
0.0226487,0.00867066
0.0456025,-0.017002
0.0594678,-0.0700211
0.0139513,-0.0511791
-0.0345545,0.00317216
-0.0199039,0.00785806
0.001697,0.0123889
0.00255183,0.0366247
-0.011584,0.0238316
-0.00932896,0.0102541
0.00187951,-0.00590228
-0.012795,-0.00659675
-0.0684933,0.020299
-0.0931216,0.0309109
-0.056515,0.002577
-0.00678395,-0.00140188
0.00804703,-0.00329066
-0.010871,-0.0186996
0.0645534,-0.0191338
0.0619347,-0.017937
0.0212729,-0.0167733
0.0588297,-0.00724626
0.0503277,0.00664637
0.0363662,0.0239873
0.00924169,0.0134806
-0.0406249,-0.0139783
-0.0413391,0.0116171
0.0136762,0.00863057
0.0327025,-0.0316572
0.0122531,-0.0798337
-0.000238816,0.00866857
-0.00329219,0.0434182
0.0125158,0.0175999
0.0145125,0.000289807
0.00854119,0.0090614
0.000420047,0.0260497
-0.00649271,-0.00555787
-0.0147372,-0.00334961
-0.01807,0.0174198
-0.058273,0.0454965
-0.0689322,0.0486202
-0.0509476,0.020627
-0.0268623,0.000556018
0.0412039,-0.0308434
0.0607729,-0.0568314
0.0185832,-0.0172272
0.0141387,0.0114299
0.0237613,-0.00268216
0.00551209,-0.0285878
-0.00887444,-0.0167424
-0.012097,0.0292996
-0.0235429,-0.00183545
-0.0123677,-0.0273649
0.0126143,-0.017468
0.00860064,0.0236617
-0.00899061,0.0357279
-0.0046557,0.0180663
0.0243778,-0.012214
0.00734364,-0.00584016
-0.034095,0.0197346
-0.0387625,0.00947032
0.0163153,-0.0442072
0.0624462,-0.0527304
0.0417957,-0.00203553
-0.0136737,0.0468358
-0.0573854,0.0458595
-0.0361373,-0.00476455
-0.00246832,-0.0450865
0.0280675,-0.0175207
0.0210478,0.00294546
0.00410798,-0.0122789
0.00406306,0.0166533
0.00678917,0.0383782
0.00310092,0.00229152
0.0132676,-0.00410685
0.024865,-0.0047939
0.0071699,-0.0310617
0.0070519,-0.0162979
0.0132207,0.000708607
0.00701726,-0.00878324
-0.00930954,0.011689
-0.0166672,0.0201775
-0.0272672,0.0254994
-0.0681231,0.0125241
-0.0865572,0.020262
-0.0523732,0.0467437
0.0522057,0.015406
0.142621,0.0159553
0.139468,0.0335196
0.0135473,-0.0300056
-0.0847803,-0.0772676
-0.0723583,-0.018241
-0.0984159,-0.00547539
-0.104106,-0.0624606
-0.0347204,-0.0184367
0.0416839,0.0660973
0.0414046,0.0515039
0.010898,-0.0168479
0.0238894,0.00693563
0.0361038,-0.0325484
0.0252794,-0.0360838
0.0453331,-0.0268098
0.0127613,-0.0310528
-0.0121717,-0.0114282
0.0126466,0.028181
0.0118563,0.0224281
0.0134037,0.00457628
0.0180574,-0.00140568
0.00743746,-0.00129373
-0.000410744,0.00161963
-0.000954255,0.00561713
-0.0123293,0.0107151
-0.0175127,0.0161951
-0.0210105,0.0161148
-0.027422,0.0122993
-0.00974508,-0.0234396
-0.0052673,-0.0181419
-0.0192216,-0.00151813
-0.00130157,0.0193488
0.00544073,0.0156707
0.0257098,-0.0150988
0.00841551,-0.0160855
-0.019111,-0.00501872
-0.0266446,-0.000962952
-0.031329,-0.00351743
-0.00830581,0.019728
0.00782025,0.0357931
0.0680688,0.0176413
0.121205,0.000832838
0.144089,-0.00737099
0.0748672,-0.038478
-0.0743028,-0.0169625
-0.148051,0.00749823
-0.0918618,-0.00296004
-0.0266005,-0.0168909
-0.0199997,0.0247043
-0.00680124,0.0282782
0.0313349,-0.00163486
0.0336563,-0.0014007
0.00100236,-0.00584909
0.0482244,-0.0127389
0.0380328,-0.00625137
-0.0147004,-0.0200959
-0.0859597,-0.0128003
-0.107986,-0.000307575
-0.0218344,0.000736526
0.00617388,0.0248136
0.0242882,0.0184892
0.0226607,-0.0219304
-0.0143908,-0.0251467
-0.018276,0.000732019
0.000448682,0.041417
0.0165068,0.00585621
0.0121388,-0.0536567
0.016973,0.00687473
0.027218,0.0305154
0.0311882,0.000637678
0.0317422,-0.0146204
0.0119377,0.0101087
0.00703991,0.00709566
0.0210418,0.000496205
0.0235395,0.0226387
-0.00759133,0.0208476
-0.041872,0.0274781
-0.103051,-0.00525631
-0.135589,-0.0337042
-0.138096,-0.0406881
-0.0237643,-0.0397835
0.087306,-0.014073
0.0832591,-0.0049423
0.0794887,-0.00046635
0.0720821,0.0087701
0.0566737,0.0306883
0.0256629,0.0297983
0.0148191,0.00683392
0.0306867,0.0578309
0.0403957,0.0149507
-0.0340481,-0.00884227
-0.00285782,-0.025967
0.0431146,-0.00141229
0.0181856,0.0293806
0.00968539,0.0163324
-1.75e-05,0.00751884
0.0251936,-0.0129646
0.0136048,-0.0255409
-0.0374482,-0.0706671
-0.0711786,-0.0551117
-0.0591075,0.0143308
-0.0586358,0.0275766
-0.0272561,0.0237673
0.0209028,0.0104027
0.00798967,0.00289724
-0.0277967,-0.0336919
0.00272236,-0.042747
0.0318386,-0.00843767
0.000130702,0.0294781
-0.0282462,0.0290518
-0.0206136,0.00378812
-0.00015713,0.0217503
0.00369326,-0.0145265
-0.00327911,-0.0349231
0.0039256,-0.0299298
0.00284985,-0.00692311
-0.0114638,0.0202706
-0.00786897,0.0146133
-0.00531085,0.00350606
-0.0118287,0.0120404
0.0194578,0.00912248
0.0296178,0.00183224
0.0292875,-0.0024523
0.0352736,0.00962287
0.0407047,0.0183454
0.0285431,-1.18e-05
0.0147598,-0.00348419
-0.0161068,-0.0116176
-0.0209219,-0.00783232
-0.00738497,0.00812709
-0.0517568,-0.00180208
-0.073292,0.00325142
-0.0599848,0.0449389
0.00636177,0.0239531
0.0207283,-0.0155913
0.00803756,-0.0147739
-0.0155038,0.000750111
-0.0535532,-0.000207657
-0.00478119,-0.00423958
0.0634994,-0.0423383
0.0737777,0.0110224
0.0538585,0.0153228
0.00533788,0.0238719
0.0075123,0.00856446
0.025343,-0.00542769
-0.0180653,-0.0145032
-0.0402456,-0.0176641
-0.00868307,-0.00787368
0.014924,-0.0190551
0.0250423,-0.0100268
0.00426321,0.000986241
-0.0198785,0.0247932
-0.0208313,0.016692
-0.0228117,-0.0112186
-0.0149362,-0.0208432
0.00939119,0.00244829
0.0274213,0.00886496
0.0300246,-0.0158012
0.002979,-0.0137384
-0.028349,0.00738233
-0.0384693,0.00330397
-0.0234871,-0.00827215
-0.001378,-0.0289898
0.0117652,-0.00600393
0.0122939,0.0697649
0.0243435,0.0663731
0.0425566,-0.0333373
0.0313535,-0.0612248
-0.00841696,0.00644947
-0.0456974,0.029741
-0.0353588,-0.0111154
0.00710039,-0.015556
0.0606666,0.0151385
0.0721634,0.00493444
0.0145447,-0.00586892
-0.0371646,-0.014897
-0.0479237,-0.0014132
-0.0527944,0.00411564
-0.0910227,0.00571931
-0.0406171,0.028213
0.00217203,0.0105854
-0.00111913,-0.0378
0.0184544,-0.0171109
0.0360755,0.0341995
0.0787211,0.0239073
0.101813,0.0115885
0.0639749,0.00241069
-0.043815,-0.0159867
-0.120207,-0.0129488
-0.0844148,-0.00374073
-0.0244833,-0.00278899
0.00351071,-0.00800891
0.033013,-0.00230821
0.0361115,0.000308736
0.0146981,-0.00862485
-0.00543519,-0.0112495
-0.00269191,-0.0110024
-0.0113047,-0.0224074
-0.0132577,-0.0380293
0.00885913,-0.034375
0.0273756,0.0582619
0.0306776,0.0606415
0.0157011,0.00173609
-0.0089061,-0.00262274
0.0047114,0.00126227
-0.00603703,-0.00810249
-0.0391285,-0.0106254
-0.0216264,-0.00958604
-0.00332705,0.00148478
0.0178337,-0.00048681
0.0343006,0.000852395
-9.12e-05,0.00563717
-0.038264,-0.00133619
-0.0277645,-0.0148224
0.0417517,-0.0177693
0.0884414,0.00892084
0.0586509,0.0166726
0.019604,0.0100298
0.0266573,0.011698
0.0235867,0.019019
-0.0585765,-0.00280605
-0.118659,-0.0111582
-0.0818508,-0.00634608
-0.0281442,-0.0296454
-0.00274249,0.000910102
-0.0062412,0.0377954
-0.00349524,0.0419356
0.022495,0.00692261
0.0467102,-0.00868995
0.0131093,-0.00631653
-0.0241554,-0.0162958
-0.0276174,-0.0120718
-0.0124326,-0.0107485
0.0083119,0.0143971
0.00642529,0.0263733
0.00363933,0.0143613
0.00272343,0.00178764
0.00663688,0.0219925
0.0136949,0.0406863
0.0134022,-0.0121819
0.0216517,-0.0580765
0.02747,-0.0578674
0.00515586,-0.0148791
-0.00964874,-0.0111069
0.00497161,-0.0210627
0.0112781,0.0189857
0.00740368,0.0481011
0.0114382,0.0410604
0.0187239,-0.0181168
0.0195755,-0.0464688
-0.0152712,0.02051
-0.0390027,0.0337283
-0.00133846,0.0251934
0.0506728,-0.00296679
0.0235399,-0.0242315
-0.0481218,-0.0108238
-0.0707778,0.0197351
-0.0164759,0.0230643
0.0145416,-0.0170471
-0.00454661,-0.0587217
-0.0180109,-0.0301506
0.00249812,0.00593362
0.0149378,0.0332081
-0.00220724,-0.00312638
-0.0135894,-0.0273714
-0.0131397,-0.00107555
0.0027095,0.0592248
-0.0170604,0.0100991
-0.0392752,-0.0351483
-0.0267571,-0.0208577
0.00334086,0.00444229
0.00193374,0.00405437
-0.0125211,0.00442154
0.01239,-0.0142343
0.0511246,-0.00863214
0.0459733,0.00439685
0.0231408,0.00914663
0.0289321,0.00784325
0.0605199,0.00347652
0.0437867,0.015711
0.0133727,0.00520577
0.00367048,-0.0117491
-0.0519381,-0.0251716
-0.0467857,-0.0413532
-0.0220979,0.0179528
0.0295445,-0.00468871
0.0369572,0.000187596
-0.035571,0.0108333
-0.0678003,0.0255993
-0.0574209,0.0180429
-0.0807651,-0.0326898
-0.0691849,-0.0124746
0.0265692,0.050349
0.0969358,0.0359388
0.102749,0.00455179
0.0485572,0.00243421
-0.0543158,-0.00210708
-0.092265,-0.0174393
-0.0508982,-0.00190056
0.0166967,-0.00216342
0.0617259,0.00037512
0.0749259,0.0490414
0.106441,-0.0249225
0.0822376,-0.0303293
-0.0234602,-0.0321157
-0.0654766,-0.0420992
-0.0758984,-0.0292688
-0.0519236,0.00675966
-0.0300928,0.0315552
0.00516423,0.0296502
0.0187681,0.0179046
0.000745421,0.00991824
-0.00498489,0.00237993
-0.012258,-0.00314347
-0.0191392,-0.0148359
-0.00328244,-0.0315331
0.0188529,-0.0239352
0.0294076,0.0151126
0.0195859,0.0213742
-0.0104591,-0.00675827
0.0101681,-0.00409289
0.0541226,0.0145137
0.0401999,0.00960449
-0.0388009,-0.0124482
-0.0488693,-0.0283273
-0.0404049,0.0145608
-0.0618796,0.0258494
-0.0267125,0.0140628
0.0416821,0.034316
0.0841273,0.0199853
0.0564488,-0.0252229
0.00669629,-0.0396002
-0.0502826,-0.0154294
-0.0700559,0.00141409
-0.0831466,0.00767501
-0.05499,0.0422803
-0.00257355,-0.013526
0.018551,-0.0164325
0.0393957,0.0064301
0.071041,-0.00558033
0.104618,-0.000451891
0.0939645,0.0348597
0.062273,0.0258074
0.0564588,-0.0140607
-0.0206673,-0.0332803
-0.104143,-0.0268429
-0.106213,-0.0034234
-0.0691812,0.0149704
-0.0412264,9.91e-05
-0.00657022,-0.0464342
0.0286601,-0.0163824
0.00944197,0.00830301
-0.0305711,0.0243314
-0.0302664,-0.01487
-0.00409915,0.00643446
0.0425773,0.00749638
0.0398212,-0.0164688
0.0214248,-0.0058143
-0.000783932,0.022813
-0.0206506,0.0291739
-0.00297245,0.016903
0.012812,0.0117135
0.0213878,-0.0033311
0.0145976,-0.0140696
-0.0121243,-0.00034433
-0.00938447,0.00881609
0.0225091,0.00515993
0.00987846,0.00960647
-6.74e-05,-0.0129939
0.00740629,-0.0231712
0.00603563,-0.0217197
-0.00195361,-0.0193074
0.000378475,-0.0112874
0.0121212,0.0280343
0.0184191,0.0163101
-0.0180988,0.0160378
-0.0244938,0.033093
-0.0127918,-0.0142079
-0.00674983,-0.0178169
0.00404461,0.00773297
-0.0201527,0.00533062
-0.0178166,-0.0127635
-0.00973144,-0.00942474
-0.00305764,-0.00703967
0.0155267,-0.00833406
0.0462321,0.0159577
0.0527752,0.0286622
0.0535615,0.0321853
0.0508154,0.00197944
0.0256987,-0.0514107
-0.0196195,-0.0422087
-0.0736982,-0.00554322
-0.144997,0.0145704
-0.0822165,0.0105166
-0.0189285,0.0132121
0.00545665,0.0125767
0.0257505,8.91e-05
0.0242422,-0.00925061
0.0149601,-0.0474151
0.0106483,-0.0311966
-0.0194365,0.0504089
-0.0361562,0.0834346
0.00458743,0.0136911
0.050633,-0.0404395
0.0129406,-0.0379017
-0.0405923,0.00343225
-0.0329949,6.44e-05
-0.0179796,-0.0112186
-0.0151841,0.027147
0.0152222,0.0106545
0.0428402,0.00172026
0.034746,0.0178073
0.00420469,0.0266262
0.00407204,-0.0184357
0.00594785,-0.0216848
0.0159705,0.00474636
0.0140908,-0.0198595
-0.0412707,-0.0188005
-0.0519925,-0.00417205
-0.00420235,-0.00442111
0.0397604,-0.0102532
0.0351434,-0.00398524
0.0578083,0.00331358
0.0854824,-0.00262719
0.0504382,-0.00399742
-0.0257085,-0.00360051
-0.0393999,-0.00269694
-0.0107771,0.0158462
-0.00098972,0.00407499
-0.00543136,-0.0367156
-0.0209614,-0.02565
-0.0197199,0.00301332
-0.00898541,0.0283214
-0.00280285,-0.00657278
-0.00540189,-0.0318425
-0.0056284,-0.00302726
0.00396603,0.0231884
0.0110761,-0.00409918
0.0109706,0.0165441
0.0119851,0.0211251
0.0259957,0.0129497
0.037513,0.0279572
0.00039031,0.017648
-0.0569342,-0.00439515
-0.037116,0.00189052
0.0160841,0.00464702
0.0189955,-0.00653589
-0.00909096,0.00283593
0.00184175,0.00401729
0.0184,-0.0156506
0.0144396,-0.00993121
-0.0517412,0.0233234
-0.0785641,0.00879373
-0.00811851,-0.0133262
-0.0171142,-0.00384605
0.00382323,-0.00497078
0.0417528,-0.00524202
0.000287078,0.00758597
-0.0491659,0.0154297
-0.0369227,0.012224
-0.0017417,-0.0253445
-0.0132598,-0.0298431
-0.0128389,-0.0154514
0.0175191,-0.0157907
0.047625,0.0104377
0.0502917,0.0100138
0.00599452,-0.0383147
-0.0356355,0.00353622
-0.0317535,0.0436899
-0.00187593,0.00804734
0.0121545,0.0140751
0.00808416,0.0238417
0.00867137,-0.00846479
0.0169275,-0.0128402
0.0175093,0.0137261
0.00873192,0.00506813
0.00411278,0.0157057
0.00113538,0.00061298
0.00573783,-0.00357527
0.0107364,-0.000239416
0.0138887,-0.0147089
0.0136665,-0.01355
0.0105452,0.00141737
0.00216947,-0.00757855
-0.0134291,-0.00170679
-0.00714872,-0.00576095
0.00526926,-0.016434
0.00146364,-0.0136983
-0.00212987,-0.0158957
0.000142823,-0.035469
0.0156073,0.000520406
0.0415123,0.0327938
0.0467633,0.0226285
0.00502096,0.0191686
-0.0480779,-4.93e-05
-0.0460989,-0.0276664
-0.0183141,-0.0123815
-0.0173486,-0.000309592
-0.0354679,0.0311589
-0.0316093,0.0461127
-0.0139594,0.0185403
0.0203091,0.0141166
0.0070731,-0.00140307
-0.0191763,-0.00273028
-0.000732503,0.0104287
0.0181004,0.0105056
-0.00523184,-0.0155079
-0.0423241,-0.0349484
-0.0304511,-0.0241937
0.0290267,-0.00913053
0.0382307,0.00649943
0.0196661,0.00993232
0.0213555,-0.013827
0.0317327,-0.019056
0.0279908,-0.0138815
0.0155077,-0.00865286
0.00570206,-0.00640661
-0.00978319,-0.0014952
-0.0164996,0.00387605
0.00602347,5.82e-05
0.0055579,-0.00682357
0.000322857,0.0175384
0.0105982,-0.00388196
-0.00170392,0.00447612
-0.0184061,0.0187723
-0.0263801,0.00219535
-0.0268479,0.00446393
-0.0321915,0.0179207
-0.00965072,0.00816958
0.0354421,-0.00308461
0.0148102,-0.00275753
0.00912481,-0.00253303
0.0220528,0.0100153
-0.0254739,-0.00644605
-0.010374,-0.028601
0.006515,0.00775157
-0.032397,0.0183525
-0.0490203,-0.00497076
-0.037285,0.0203378
-0.0121273,0.0478803
0.0220697,0.0059869
0.0289334,0.00403763
0.0614495,0.00029469
0.0721942,-0.00655077
0.0057051,0.00500074
-0.0013773,-0.0156574
0.0485311,-0.0688188
0.0232217,-0.0559092
-0.0378422,-0.0247585
-0.0203629,0.00160309
-0.0227959,-0.00397132
-0.0520663,-0.00131681
-0.0482816,0.0053229
-0.0186169,0.00730649
-0.00138487,0.00632967
0.00386272,-0.00667077
0.00512315,0.00421494
0.0024372,0.0228694
-0.00170623,0.0223711
0.00090205,0.0201896
0.0112526,0.005741
0.0144211,0.00257908
0.0120995,0.00394924
0.0129004,-0.00182032
0.0150941,-0.00474613
0.00751883,0.00296932
0.00829908,0.000833816
0.0100146,0.00485943
-0.0070064,0.0147752
-0.0174204,0.00379879
-0.0127497,-0.0111225
-0.00316433,-0.0129055
0.0189618,0.00405218
0.0371958,-0.0232
-0.00352398,-0.0179263
-0.0277423,0.0195463
-0.00593527,0.00567124
0.0329027,-0.0156624
0.050815,0.0161252
0.0197981,-0.00804231
0.00977033,-0.0177812
0.0212695,-0.00686308
0.0207433,0.00623937
-0.0380599,-0.015475
-0.121691,0.00788665
-0.105524,0.0337139
-0.0422228,0.0277479
-0.00314458,0.0056708
-0.00254004,0.00496167
0.00574253,-0.00661826
0.0374116,0.0114187
0.0212941,0.013747
-0.0209825,-0.00238775
-0.0243615,-0.00381907
-0.00969427,0.00409928
0.0180345,0.00149818
0.0196795,-0.00127411
0.0261279,-0.0208139
0.0405106,-0.034433
0.0444638,-0.00664425
0.0404686,0.00665654
0.00549807,0.0135414
-0.0179265,0.00913975
0.0112924,-0.00639979
0.0314706,-0.00636581
0.016395,-0.0125519
-0.0029611,-0.0127115
-0.00905855,-0.0123455
-0.0122985,-0.0118573
-0.0190754,-0.00735703
-0.0285385,0.0190117
-0.0239303,0.0369688
-0.00577329,0.0378001
0.00270201,-0.00429454
0.00123182,-0.0509393
0.0099409,-0.00153534
0.0021571,0.0205707
0.00208199,0.0103628
0.0181449,-0.00737618
0.043477,-0.00168524
0.0428854,0.00719195
0.0151737,0.00970942
-0.011147,-0.0119151
-0.0315683,-0.0239154
-0.0229897,-0.016842
-0.02197,0.0117653
-0.0244735,0.0237836
-0.0409876,-0.000995509
-0.0425105,-0.00453186
-0.0420498,0.00435376
-0.0213593,0.0178754
0.0126683,0.034555
0.0141771,0.00013707
-0.00162069,-0.0379864
-0.00380069,-0.0212137
0.00566991,0.00645504
-0.010792,0.00375048
-0.0209094,-0.0124941
-0.00402748,-0.0195391
0.0241189,-0.00869355
0.0375187,-0.00930213
0.0263078,-0.00978725
0.00428978,0.0139685
-0.00138285,0.0128278
-0.0018247,0.0156342
-0.003927,0.060876
0.00610138,0.016737
0.0314344,-0.0083202
0.0629431,-0.00962032
0.053439,-0.0305154
0.0266066,-0.0170085
-0.0229415,-0.00118363
-0.0963878,0.00578501
-0.0644248,-0.00282998
0.0216568,0.010656
0.0123127,-0.0155698
-0.0117942,-0.00770245
0.00628389,-0.00178751
0.0318293,-0.0353007
0.0161252,-0.0312256
-0.00674197,0.00613601
0.0340996,0.0429451
0.121383,0.0529765
0.139126,0.0450157
0.0766046,0.0197095
-0.0108178,-0.00377813
-0.153441,-0.0185948
-0.209665,-0.015649
-0.118901,-0.00332008
-0.0434871,0.00149368
-0.011234,-0.00874031
0.00680928,-0.0105418
0.0200081,-0.0161047
0.0203479,-0.025457
0.00208316,-0.0124479
-0.017217,0.00714881
-0.0108973,0.00170827
0.0126845,-0.0180159
0.0130312,-0.016194
0.000549985,-0.0115991
0.0122169,-0.0141211
0.0236553,-0.00638003
0.0377659,-0.000180173
0.0503306,-0.00303132
0.0367753,0.00593408
0.00803034,0.0119783
-0.0106954,0.00105501
-0.00901958,-0.00842109
0.00227908,-0.00605619
0.00304757,-0.00300571
-0.0043168,0.00436813
-0.016056,0.00412682
-0.0161635,-0.0120242
-0.00122478,0.00718826
0.00202884,0.0672153
0.0223813,0.0670786
0.0166269,-0.0195115
-0.0231179,-0.0411227
-0.00128433,0.00974148
0.0480028,0.0175483
-0.0120753,-0.0268785
-0.0653585,-0.0043085
-0.0136736,0.0467299
0.0263733,0.0319301
0.025708,-0.0162241
0.0154585,-0.0262105
-0.00215349,-0.0184937
-0.00301176,-0.0147954
-0.0058353,0.0159424
0.0155541,0.0363812
0.00804638,0.00837368
-0.0424568,-0.0178996
-0.0467166,-0.00551171
-0.0141707,0.00551039
0.00649571,0.00610711
-0.0225656,-0.00199696
-0.0132861,-0.0276809
0.0306859,-0.00791503
0.0572516,0.0229235
0.0607358,0.0144449
0.054454,0.0032591
-0.0141802,0.0149566
-0.0812926,-0.031857
-0.0446409,-0.0499555
-0.0114868,-0.0484787
-0.0436836,-0.00690875
-0.053999,0.0224182
-0.0301875,0.0244654
-0.00585377,0.0194691
0.00869353,0.000721081
0.0136884,-0.00188621
0.0149553,0.00873013
0.0283099,0.00635285
0.0394418,0.00528045
0.0427996,0.0255068
0.0564023,0.020922
0.039849,-0.0200146
0.0289708,-0.0392145
-0.00531991,-0.0289921
-0.0256902,0.0263647
-0.0372478,0.0189997
-0.0636498,-0.00443968
-0.0511402,0.0107765
-0.0176596,-0.00508684
0.0129249,-0.0122544
0.043819,0.00736901
0.0583661,-0.00735258
0.020237,-0.00710809
-0.0234947,-0.0139684
-0.0214478,0.00216399
0.0215558,0.0272252
0.0418969,0.0308749
0.0193019,0.0140726
0.00542747,-0.00687269
-0.017461,-0.022499
-0.0130376,-0.0222587
-0.0151962,-0.0334473
-0.0427995,-0.0333262
-0.046034,0.00341275
-0.0282665,0.031551
0.000830634,0.0259671
-0.00145265,0.0114953
-0.0204758,0.00535649
-0.0336563,0.00222232
-0.00217577,-0.00177613
0.0335977,0.00151691
0.0397002,-0.00970648
-0.0135121,-0.0135362
-0.0425554,0.0103053
-0.0110291,0.0156148
0.0230962,0.0018192
0.0416043,-0.004759
0.0372563,-0.0115077
0.0278514,-0.0143646
0.0525712,-0.0143597
0.100868,-0.00195341
0.146048,0.0233259
0.0781514,0.0181834
-0.141555,-0.0279531
-0.230033,-0.0340266
-0.124325,0.00146253
-0.0430058,0.0216582
-0.00490477,0.0162818
0.022226,0.0099745
0.0419066,0.0172423
0.0440218,0.028188
0.0477841,0.00598166
0.0329356,-0.0297393
-0.0375041,-0.0241669
-0.0578076,-0.0108932
-0.016037,-0.00910226
0.00126644,-0.00650208
-0.00713345,0.00713625
-0.0188738,0.015102
0.00213772,0.0120664
0.0683987,-8.48e-05
0.0791454,-0.0126545
0.0574547,-0.00756436
0.0263243,0.00152702
0.0204231,0.00738266
0.0134373,0.00647671
0.0610934,0.0031146
0.0724926,0.0147704
-0.0739073,-0.0166642
-0.15832,-0.0425174
-0.0449801,-0.0125455
0.0207726,0.0100249
-0.0346965,-0.0155905
-0.0809408,-0.00594155
-0.0501055,0.0170217
-0.0166472,0.0193854
0.00657248,0.0294471
0.03201,0.0188927
0.0315026,-0.0136909
0.00306491,-0.00607593
-0.0155856,0.0068481
-0.00422632,0.017897
0.0164209,0.0117228
-0.0148023,0.00754698
-0.0134945,-0.0056454
-0.00371383,-0.0105497
0.00250396,-0.00577165
0.0183889,-0.0110355
0.033037,-0.0184211
0.0306067,-0.0121265
-0.00104563,0.0122685
-0.00837735,0.0186668
0.0282689,0.00413595
0.0444587,0.000826938
0.0374236,-0.0123829
0.0860999,-0.0129222
0.101986,0.0288622
-0.019372,-0.0289223
-0.138446,-0.0404392
-0.0831817,-0.0103364
-0.0416318,0.00391557
-0.0545883,0.0154191
-0.0474129,0.0258732
0.00890345,-0.00226069
0.0765121,-0.00140922
0.0509465,-0.0112199
-0.063947,-0.0164972
-0.065199,0.00982031
0.000511327,0.0210171
0.0227382,0.00157136
0.0273079,0.0426285
0.0759969,0.0513152
0.157781,-0.0163472
0.165923,-0.0245452
0.00234438,-0.00421795
-0.168029,-0.0310183
-0.169307,-0.0188918
-0.0896345,0.0213403
-0.0502081,0.0267963
-0.00861785,0.00648173
0.0213895,-0.00858797
0.0270003,0.0101234
0.016658,0.00137434
-0.00249973,-0.0450733
-0.0171259,-0.0242566
-0.00506869,0.000411925
0.0190091,0.0104516
0.00681208,0.0232768
-0.0308241,-0.0533657
-0.0349036,-0.0442879
-0.00399201,0.0266302
0.0324044,0.00847364
0.0709748,-0.0116283
0.0497997,0.0266269
-0.0270784,0.0380665
-0.0117171,0.0167855
0.0640044,-0.00399713
0.130194,-0.000751855
0.109316,0.00665688
0.000688565,-0.0126355
-0.121236,0.00716927
-0.144129,0.0588626
-0.0714962,-0.00897264
-0.0259633,-0.0466331
-0.0102407,-0.0276871
0.0230316,-0.00976953
0.0657566,-0.00198663
0.0323497,-0.00345728
-0.0312977,-0.00522241
-0.012967,0.00790894
0.0468721,0.0282041
0.069773,0.0107803
0.0561004,-0.0160929
0.0138431,-0.00398583
-0.0670582,-0.00193138
-0.102132,-0.0192344
-0.0429786,-0.0110602
-0.0166089,0.00996439
-0.0229964,0.0100918
-0.00430633,-0.00405745
0.0301352,-0.0087184
0.0810476,-0.0074443
0.125685,0.00483637
0.0897761,0.0149493
-0.0970141,0.0125671
-0.183047,0.0145144
-0.0867158,0.0162671
-0.0263566,0.00849303
-0.00551387,-0.00322736
0.0415173,-0.00298727
0.0777076,0.00228496
0.0350173,-0.00415263
-0.0280134,-0.011089
-0.0365318,-0.00429388
-0.0180355,0.00874323
0.0143597,0.00371912
0.032523,-0.0044442
0.00501199,-0.00319881
-0.00697131,-0.0191532
0.0424308,-0.0326871
0.0824078,-0.0126953
0.0520184,0.0117909
-0.0382533,0.00214116
-0.0670346,0.0175661
-0.0561434,0.0238911
-0.0409452,0.00685597
-0.00109264,-0.00270133
0.0154059,0.00282106
0.029069,-0.00308689
0.0678715,-0.0136301
0.0837092,-0.00099401
0.0438537,-0.00243316
-0.0182339,-0.0198167
-0.0879596,-0.0101211
-0.0937629,0.00737699
-0.0299863,-0.00475574
-0.0124617,-0.0121533
-0.0331923,0.000711705
-0.039199,0.00497601
-0.0461114,0.0155768
-0.0103387,0.0373426
0.0547339,0.0331355
0.113901,0.0196501
0.0783314,-0.0107103
0.0300324,-0.0198518
0.0478361,-0.00408065
0.0115686,-0.00441832
-0.0120774,-0.0146858
0.0486175,-0.00584744
0.0290042,0.00689735
-0.0458708,0.000286982
-0.0843615,-0.0126816
-0.0727894,-0.0119327
-0.0422368,0.00279056
-0.0126424,0.0112486
0.0116523,-0.0025458
0.000940973,0.00232441
-0.0222001,0.00747119
-0.018416,-0.00248642
0.0183159,-0.00239432
0.0919162,-0.00218991
0.136831,-0.0092977
0.0610645,-0.0136785
-0.0514102,-0.0262392
-0.0870728,-0.0140857
-0.0748224,0.0148465
-0.0702092,0.0428187
-0.0571617,0.0382774
-0.0235036,0.00757129
0.00583286,-0.00708252
0.0363822,-0.0309173
0.0326363,-0.0258348
0.0231147,0.00217253
0.0274529,0.0100352
-0.0250895,-0.0139649
0.00302737,0.013069
0.00494985,0.00123987
0.0082869,-0.00229503
-0.0160526,-0.000137865
-0.0218753,0.00926788
-0.0166417,0.0202721
-0.00718911,0.00862031
0.0208176,-0.00827918
0.0261203,-0.0118206
0.0271812,-0.0173084
0.0404644,-0.0211983
0.0345983,-0.00940171
0.0265548,-0.0131008
0.0175251,-0.0150979
-0.00527779,0.00176309
-0.0174147,0.00939261
0.0111717,0.0097006
7.92e-05,0.0218806
-0.0389494,0.0267012
-0.0437399,0.0274174
0.0208473,0.0421156
0.0791704,0.0464273
0.10181,0.0345672
0.0248026,-0.0162916
-0.114412,-0.0737111
-0.107748,-0.0482217
-0.0823969,-0.00154184
-0.0330558,0.00882817
0.0131129,-0.00660686
-0.00906877,-0.0101941
-0.0371762,-0.00392362
-0.00440459,0.00255848
0.0029848,-0.0129392
-0.0215626,-0.0119652
-0.0253383,0.00584204
0.00466654,-0.0190413
0.0247101,-0.0257283
0.0206399,0.0124079
0.00890597,0.0312368
0.00365811,0.00656721
0.0184047,-0.00842601
0.0404571,0.000677363
0.0501769,-0.00757834
0.0367555,-0.0121474
0.00548445,-0.00962381
-0.0119161,0.00621969
0.0143396,0.0212494
0.0341256,0.0386633
-0.00852549,0.00477258
-0.0322047,-0.0179703
0.0124361,0.00341902
0.0412009,0.0150182
0.0374984,-0.00947966
-0.0232623,-0.0223896
-0.0217682,0.00815557
0.0401229,0.0256845
0.114456,0.0204264
0.11304,0.0101747
0.000149903,-0.0108109
-0.104653,-0.0191586
-0.111134,-0.0255809
-0.111089,-0.0235548
-0.0695421,-0.0132758
-0.0232829,0.00709808
-0.00311275,0.0124563
0.00779703,0.00118541
-0.0160005,-0.00375599
-0.0630905,0.00343034
-0.0530258,0.0168422
0.0152054,0.00759129
0.0646873,-0.00713451
0.0562984,0.000666757
0.0227914,0.013353
0.00939214,0.00898442
-0.00617172,-0.0016257
0.0181659,-0.0158528
0.0175739,-0.0241236
0.0268906,-0.0217975
0.0549132,-0.00457823
0.0457839,-0.00634843
0.0069998,-0.00767445
-0.0168414,-0.0077097
-0.00396268,-0.00964487
-0.024002,-0.00158285
-0.0467104,0.0201569
-0.0137705,0.00935639
-0.00616013,-0.00222461
-0.0569399,0.0159159
-0.092604,0.0339679
-0.065566,0.0252858
-0.0303144,0.0131068
-0.00964553,0.0162947
0.000260353,0.0140907
0.00336567,0.00276745
0.0157925,-0.00579819
0.0338127,-0.0126799
0.0344714,-0.0115008
0.0459128,-0.00661558
0.052309,-0.00965337
0.0367791,-0.0167378
0.0135751,-0.0228338
0.00942142,-0.0133232
0.0310162,-0.0169091
0.0237058,-0.0214432
0.0108992,0.00697142
0.000941272,0.0254452
-0.00464697,0.0171331
0.0177251,0.0104228
0.0598423,0.0237105
0.0873665,0.0302203
0.0809439,0.000537914
0.101159,-0.00585113
0.026666,-0.026162
-0.157831,-0.0284186
-0.180813,0.00202338
-0.0851328,0.0236342
-0.0431843,0.0172648
-0.0418062,0.00377893
-0.0424841,-0.0206506
-0.0498037,0.0160609
0.0162758,0.0220563
0.0466806,-0.0171313
-0.0109612,-0.0080031
-0.0514984,-0.00148186
-0.0318501,0.0101638
0.0027349,0.00155509
0.025504,-0.0119024
0.0229578,-0.0210103
0.0127074,-0.0155494
0.0196991,0.000298403
0.0265171,0.0126944
0.00043838,0.000456488
-0.0191357,-0.00968281
-0.00942405,-0.00886
0.00425962,-0.00344277
0.0268138,-0.00191019
0.0413622,-0.00059705
0.0344686,0.000484318
0.00382297,0.0151806
-0.0103187,0.0155063
0.00790543,0.00573427
0.0416777,0.000788874
0.0599768,-0.014392
0.0416203,-0.0243472
0.00511351,-0.016941
-0.012387,-0.00476484
-0.00587188,0.00735077
-0.00358483,0.0224683
-0.000272317,0.0182515
-0.00366446,-0.000448128
-0.0120159,-0.0080232
-0.0126669,-0.00563898
-0.000995462,-0.00143351
0.000691495,-0.00112233
-0.0200098,0.00761061
-0.0430397,0.0123444
-0.027494,0.00224889
-0.00184584,0.00145856
0.00866836,0.00337733
0.0102865,-0.00773996
-0.000125247,-0.0145304
-0.0105063,-0.00858713
-0.00183293,-0.0049918
0.015999,0.00118047
0.0265608,0.00801407
0.0191263,0.00300151
-0.00187334,-0.0137447
-0.00706974,-0.0155739
-0.00446228,-0.00656447
0.0037526,-0.00590633
0.000846632,-0.00612758
-0.0210611,0.00390742
-0.0434822,0.0107055
-0.044236,0.00988541
-0.0253752,0.0143655
-0.00389836,0.0125347
0.0052646,0.000330318
0.000254191,-0.00161548
-0.00352741,0.00318468
0.0135658,0.00747909
0.0415111,0.0137113
0.0587931,0.0159575
0.0451974,0.00723627
0.0196147,-0.00677397
-0.0175225,-0.0113046
-0.0636817,-0.00615261
-0.0695988,-0.00440104
-0.0369042,0.00174917
-0.0187313,0.0127862
0.00321947,0.00957929
0.0287037,-0.00414291
0.0568144,-0.0176073
0.0611189,-0.0213544
0.0350796,-0.0154434
0.004501,-0.00844063
-0.00169265,-0.00366743
0.0129604,0.000912557
0.0176582,0.011046
0.0161494,0.0093512
0.00786408,-0.00433659
-0.00448079,-0.0102599
-0.00840074,-0.0069888
-0.00117497,-0.00923289
-0.000748544,-0.00966722
-0.0204863,0.00213294
-0.039892,0.0160864
-0.0447465,0.0151458
-0.0336821,0.0148187
-0.0176255,0.0171381
0.00279954,0.00841961
0.0172986,0.0012693
0.0347989,0.00246039
0.0379008,0.0014681
0.0359344,0.00415267
0.0485087,0.00839808
0.00757715,0.000458492
-0.0488998,-0.0107234
-0.0860918,-0.0092623
-0.071118,-0.00468682
-0.0493859,-0.0100931
-0.033542,-0.0116059
-0.0376716,0.000271764
-0.0340515,0.00827722
-0.0200709,0.000197846
-0.0340295,-5.66e-05
-0.0180229,0.00218889
-0.00618003,-0.00278481
-0.0180537,-0.00416509
-0.00862458,0.00190907
0.00575798,0.00428784
0.0127312,0.0122875
0.0189761,0.0130721
0.017366,-0.00103482
0.0112982,-0.0124055
0.00142552,-0.0100981
0.00633439,-0.00961479
0.0171421,-0.0154209
0.0181329,-0.0120202
0.0382965,0.00367316
0.0517405,0.0133554
0.0416517,0.0146615
0.0183404,0.0212541
-0.0016182,0.0163156
-0.0443125,0.00818867
-0.0801768,0.00342511
-0.0607072,0.00514939
-0.0282193,0.00599832
0.00376652,0.00787176
0.0340392,0.00428088
0.0525589,-0.00918147
0.0537356,-0.00853634
0.0465025,0.00151673
0.0399863,0.00361155
0.0311338,0.00121532
0.0209044,0.00961956
0.0175048,0.0206553
0.017445,0.00403259
0.0205757,-0.00735138
0.0234449,-0.00460424
0.0217527,-0.00654895
0.0197751,-0.018617
0.00972751,-0.0208153
0.0112848,-0.0228651
0.0183781,-0.0251755
0.0125443,-0.0178461
-0.00519315,-0.0196962
-0.0262665,-0.0252863
-0.020501,-0.0186886
-0.0146494,-0.0121506
-0.00921063,-0.0111639
-0.0111192,-0.010651
-0.0148196,0.0023331
-0.00818951,0.0143761
0.0103791,0.00902379
0.0208375,0.00889593
0.0184825,0.00639931
0.00979696,-0.000802032
0.0058906,0.000526316
0.000239444,0.00916515
-0.00266867,0.00984747
-0.00496465,0.018215
-0.0207584,0.0198285
-0.0325735,0.0105866
-0.01495,-0.00121048
0.00398562,0.00179257
0.0185293,0.00159451
0.0131944,-0.00395324
-0.0048398,-0.00155099
-0.0218774,0.0130869
-0.0274439,0.0177998
-0.0217436,0.00910285
-0.0178213,0.00364998
-0.0135414,-0.00122227
0.00363506,-0.00599504
0.0109061,-0.00442298
0.0200515,0.00242797
0.0169557,0.0061461
0.0058169,0.0161126
-0.0250975,0.0181585
-0.0459543,0.00574416
-0.0155747,-0.00286971
0.0142324,-0.00329287
0.0264563,-0.0124431
0.0315671,-0.022319
0.0370658,-0.0174931
-0.00107195,-0.00238963
-0.0224592,0.00082889
-0.000814679,0.000581249
0.00319437,0.00388216
-0.00917528,0.000519351
-0.0324403,-0.000306121
-0.0358342,0.00345247
-0.00597737,0.00579296
0.0196047,0.00293696
0.0135539,0.0125031
0.0101665,0.00791122
0.0323802,-0.00647598
0.0394486,-0.0119266
0.0263744,-0.0123278
0.00227852,-0.0166552
-0.0105063,-0.0162788
-0.0288674,-0.000446258
-0.0408216,0.0119118
-0.0376487,0.00748181
-0.0200036,0.00359198
-0.00285823,0.00188056
0.00417691,-0.0076704
-0.00527159,-0.00717146
-0.0285223,-0.00116997
-0.0295132,0.00103429
-0.0141835,0.0109765
0.00662711,0.0215424
0.0193919,0.0154096
0.0256529,0.00184152
0.0191683,-0.0013563
0.0155306,-0.00635522
