Comp Ch 3,Comp Ch 4
0.0591212,-0.0510044
0.0715374,0.0246352
0.0849254,0.051655
0.0611959,-0.00429989
0.0265331,0.000957603
-0.0222077,0.0109536
-0.111484,-0.00683975
-0.189548,0.000443274
-0.176176,0.0201179
-0.104321,0.023932
-0.0205929,-0.013704
0.0345714,-0.0318618
0.082029,-0.0296076
0.102957,-0.0465884
0.0878049,-0.026952
0.0551679,0.0274332
0.0262364,0.0508835
0.0234681,-0.00976075
0.0143977,-0.043674
-0.0104082,-0.00718896
-0.0263753,-0.00191744
-0.0312598,-0.00900798
-0.0333084,0.00273452
-0.0265151,0.00491553
-0.0166774,0.0153534
-0.00824708,0.0202545
-0.0119778,-0.00152797
-0.0203649,-0.0137168
-0.0218808,-0.00305147
-0.0239303,3.12e-05
-0.0340582,-0.00320749
-0.030007,0.00392471
-0.0194089,0.0187838
-0.0119153,-0.00182574
-0.0108864,-0.0276819
-0.00467456,-0.0317971
-0.0011817,-0.004344
0.00350126,0.0337989
0.0118398,0.0284829
0.0240674,0.0371864
0.0321197,0.0114972
0.0608918,-0.0298832
0.0789683,-0.0278956
0.0541617,-0.0133749
0.0248805,0.00345641
0.0306116,0.00516491
0.0259196,0.0153848
-0.01812,-0.00879286
-0.027062,-0.027787
-0.000113036,-0.0550348
-0.0252348,-0.0222542
-0.0540162,0.0621754
-0.0620021,0.0548694
-0.0473066,0.0188656
-0.0456462,0.0122675
-0.0539638,0.0226264
-0.0157995,0.00656678
0.0250555,0.0229722
0.0387285,0.0511423
0.0511037,0.0075671
0.0477071,-0.0613621
0.0495337,-0.0795597
0.0622115,-0.0607643
0.0723839,-0.0437021
0.0559096,-0.0539786
0.0278369,-0.0224342
-0.0101763,0.0622304
-0.0514087,0.0589729
-0.0482442,-0.024405
-0.0210853,-0.0161135
-0.0108798,-0.00337363
0.0173728,0.00635337
-0.00932641,0.0242656
-0.0706827,0.021626
-0.044867,0.00835126
-0.0148493,0.0466045
0.00984826,0.0422599
0.040662,-0.0373259
0.0130718,0.00716663
-0.0356942,0.0606366
-0.0500348,0.0502481
-0.0971653,0.0244172
-0.0671208,0.0235541
-0.0244601,-0.0460822
-0.0524733,-0.0508244
-0.019301,-0.0284805
-0.00279095,-0.0228662
-0.0270286,0.0121242
0.0387487,0.0214962
0.167256,-0.0180931
0.167464,-0.0286388
0.129639,-0.00246087
0.0769107,0.0160894
0.0240219,0.023542
-0.0125749,0.0289621
-0.0357948,0.0186109
-0.0405445,-0.0354737
-0.0433271,-0.0385241
-0.0358954,0.00415973
-0.0145847,0.0131826
-0.00264896,-0.00542992
-0.0201316,0.00433775
-0.0375231,0.00729412
-0.0338509,-0.010497
-0.0325155,-0.0166685
-0.0344327,-0.00135933
-0.0295841,0.0187813
-0.0244677,0.0436178
-0.012474,0.0699279
-0.00366891,-0.013283
0.00684102,-0.0474667
0.0330539,-0.0231793
0.0703863,-0.0419483
0.0791064,-0.0769871
0.0635844,-0.0530132
0.0363193,-0.0172751
0.00238042,0.0161447
-0.00743401,0.0153104
-0.00707318,0.00791214
-0.00540587,-0.00661923
-0.0142582,-0.0117455
-0.0256551,-0.00480468
-0.0244322,0.00896669
-0.0132894,0.0131073
-0.0110528,0.0228277
-0.0101178,0.0300101
-0.0102977,0.0206248
-0.0130335,0.0144893
-0.00925392,0.0147529
0.0115191,0.0129702
0.0275997,-0.0241232
0.0141625,-0.0257656
-0.0126881,0.00432916
-0.0277951,0.0047298
-0.0214527,-0.000350513
-0.00240936,-0.00749145
0.0110014,-0.0149224
0.00620792,-0.0143381
-0.0076163,-0.00181134
-0.0172063,0.0105135
-0.00668197,0.0212066
-0.000719503,0.0409726
0.00101913,0.0205679
-0.001444,0.0150533
-0.00962267,0.0305029
-0.00135775,0.00661077
0.00101,0.00467019
0.0274612,-0.0720642
0.0428192,-0.0504195
0.0258265,0.00276081
-0.00522839,0.0229479
-0.0550765,0.0228053
-0.11194,-0.00431029
-0.177875,-0.00619048
-0.176157,0.0360867
-0.0977793,0.0259972
-0.0150584,0.00038646
0.0863548,-0.0133621
0.133311,-0.0126108
0.132915,-0.0313227
0.125301,0.00171523
0.0997587,-0.00607004
0.0771637,-0.0189595
0.0884139,-0.0123167
0.0654894,-0.00273042
0.00807958,0.0104662
-0.0204065,0.017328
-0.00168324,0.00364002
0.0483608,-0.00175956
0.0841414,0.00308986
0.0446636,0.0025379
0.00925899,-0.00715219
-0.0181148,-0.0195635
-0.0506284,-0.0257204
-0.0630478,0.0283613
-0.0733953,0.0188483
-0.0673288,-0.020294
-0.0643145,-0.0383233
-0.0595964,-0.0218213
-0.0468374,0.0158067
-0.00412016,-0.0179905
0.0241601,-0.0408488
0.00827159,0.00088897
-0.00560541,0.0103874
0.0016214,0.000627382
0.00248134,0.0118333
0.00540602,0.0103525
0.0056815,0.0048548
-0.00155564,0.000918164
-0.00403678,0.000162847
0.00207464,-0.00514846
-0.00342134,0.0152034
-0.00373425,0.0233648
-0.0113449,0.00950587
-0.0175208,8.8e-05
-0.0245073,0.0147135
-0.0214747,0.0178381
0.000447938,-0.00118231
0.0106141,-0.00185689
0.0179319,0.0214633
0.0226959,0.0233298
0.0286069,0.00269512
0.0271621,0.000871303
0.0267399,0.00620097
0.0236149,0.00125547
0.0160924,-0.0219357
0.0125286,-0.0259506
0.00130227,-0.0102261
-0.00941391,0.00886642
-0.0240918,0.011966
-0.034442,-0.00339074
-0.0327953,-0.0198545
-0.0274865,-0.00866763
-0.0201131,-0.0227187
-0.0120792,-0.0224038
-0.0069929,0.0264686
-0.00555485,0.0545372
-0.00300844,0.0837554
0.0084072,0.0691805
0.0245382,-0.0136226
0.0269118,-0.0659027
0.0204334,-0.0374266
0.0237184,0.000869603
0.021092,0.00422757
0.000482825,-0.0332747
-0.0116379,0.0193425
-0.00898849,0.030798
0.000560333,-0.0521676
-0.00658861,-0.0186863
-0.00185477,-0.00298049
0.00574874,-0.00996086
-0.0152535,-0.0046653
-0.0235535,0.0194881
-0.0164469,0.0290407
-0.0061326,-0.00282511
-0.0103349,0.0170025
-0.016405,0.021637
0.00387958,0.0120231
0.0106919,0.0174079
0.00327255,0.00648414
0.00511317,-0.00984716
-0.00259621,0.000659738
-0.0100431,0.00422371
-0.00821256,-0.034208
-0.000511011,-0.062123
-0.0276921,-0.0520923
-0.0522082,-0.0316535
-0.00969059,-0.0296575
0.00645814,0.000709057
-0.0056816,0.0481243
-0.00129435,0.0342938
0.0555514,0.00841574
0.0756561,0.0167307
0.0541844,0.0217398
0.028712,0.0209599
0.00990523,-0.0079957
0.014155,-0.0247937
0.0213328,-0.0176491
0.0170927,-0.0100549
0.0107381,-0.0181449
0.00426405,-0.0384692
0.00163726,-0.0385113
-0.00490686,-0.0278755
-0.00601842,-0.0249863
-0.00502549,-0.00369047
-0.0119882,0.0105881
-0.0166269,0.000681248
-0.0177132,0.0120923
-0.0213404,0.0419521
-0.0254419,0.0432994
-0.0207922,0.022143
-0.0127296,0.0233256
0.00340194,0.0131388
0.00927086,0.0167133
-0.00762133,0.0335726
-0.0207398,0.0241138
-0.0165867,-0.00962372
-0.0128099,-0.0418958
-0.0191268,-0.0213183
-0.0274727,-0.00896155
-0.00361322,0.0131902
0.0316267,-0.0467757
0.0226881,-0.0224916
-0.000407544,0.0111844
0.00856702,0.0109279
0.0209398,0.0543401
0.0206619,0.0147869
0.0164829,0.0303767
0.0182006,-0.0222167
0.00281005,-0.0306604
-0.0114406,0.00728696
-0.0165734,0.0679213
-0.00782232,0.0391763
0.00540245,-0.0429039
0.000240646,0.0255348
-0.000695642,0.0226584
0.0189129,-0.104352
0.0105371,-0.0845975
-0.0374472,-0.0354572
-0.0506689,0.00222811
-0.0271512,0.037186
0.000579706,0.03874
0.0290038,-0.00942888
0.0249792,-0.0205791
0.0115446,-0.0116037
-0.000610175,0.00493625
0.00100545,0.00685592
0.00965481,0.023961
0.0159916,0.0103254
0.0284265,0.016786
0.030242,0.0107421
0.0128302,0.0123402
0.00432069,0.00446264
0.00615167,-0.0368561
-0.0119876,-0.0262463
-0.0281636,-0.00518397
-0.0345903,0.0162926
-0.0456148,0.0213437
-0.0427529,0.0093667
-0.0212526,0.00774178
0.00437891,0.00569505
0.0220242,0.00327324
0.033284,0.0013097
0.0328915,-0.0206931
-0.00106024,-0.000120032
-0.0140978,0.0160651
-0.0120877,0.0140428
-0.00150856,0.00866404
0.000904662,-0.0160294
-0.0179846,-0.0248886
-0.0161378,-0.0220975
0.00305606,-0.0111352
0.0125688,0.0230766
0.0236305,0.0294261
0.0252705,0.00540331
0.0190545,-0.00204957
0.0229805,-0.00639599
0.0246493,-0.00104288
0.018947,0.0115582
0.007826,0.00193926
-0.00619358,-0.0291894
-0.0127885,-0.00864618
-0.0121005,0.0259724
-0.010817,0.00246701
-0.0181538,-0.0109186
-0.0182084,-0.00251182
-0.00250119,-0.00739734
0.00141071,-0.0148611
-0.0066672,-0.011004
-0.0162708,0.00886833
-0.0144166,0.00567754
-0.0157704,-0.00610541
-0.00895512,-0.00278483
0.00543487,-0.00256451
-0.00377096,-0.0108139
-0.00819081,-0.00896124
-0.0139037,0.000823769
-0.00771384,0.00685284
0.0313431,0.0213679
0.0347575,0.0294272
0.00410443,0.0214916
-0.0022459,0.0207439
-0.000893455,0.0154435
0.000738312,-0.0218245
0.00502389,-0.0471443
0.0035888,-0.0206913
0.00760556,0.00183188
0.0158119,-0.00768786
0.000216616,-0.0160386
-0.0158737,-0.0123353
0.00453934,-0.00575157
0.0125045,0.0014646
0.0095435,-0.00551238
0.0022892,-0.00857762
-0.00618479,0.0228499
-0.0103409,0.0682547
-0.0129044,-0.0013017
-0.020692,-0.014159
-0.0275696,0.0221405
-0.0238634,0.000255416
-0.0437479,-0.0201719
-0.0569107,-0.00719865
-0.00775472,0.00827771
0.0386357,0.0212758
0.0279246,-0.000845361
0.00801215,-0.0172698
0.0511044,-0.0029596
0.0569895,-0.013811
0.0352382,-0.0175022
0.019595,-0.000401281
-0.00760073,0.0211091
-0.0243874,0.0300128
-0.0185436,0.0277834
-0.0123269,-0.0117283
-0.0126329,-0.0152544
0.0142316,-0.00234496
0.042251,0.00107328
0.0528886,-0.0128446
0.0274938,-0.0242452
0.0119345,-0.0145461
-0.00416222,-0.00358924
-0.0203286,-0.012345
-0.0292086,-0.0274564
-0.0400736,-0.0222899
-0.0365688,-0.00561148
-0.027506,-0.00197322
-0.0278608,0.0229992
-0.0262171,0.0115801
-0.00371406,0.0105909
0.00788818,0.0317556
-0.00767274,0.0337883
-0.0115858,0.0370568
0.0283503,0.00156284
0.0312952,-0.0278515
0.0256432,-0.0175366
0.0118469,-0.00459842
0.00157972,0.00683219
-0.0106589,-0.0127715
-0.0244087,-0.0236805
-0.0107741,-0.00942176
0.0195909,-0.00860729
0.0124014,-0.00964733
0.0160016,0.00469349
0.0179058,-0.00554387
-0.00476186,0.0218204
-0.0376094,0.0175439
-0.0566307,0.03502
-0.0282262,0.0292982
-0.00484228,0.000210529
0.00460153,0.0068267
0.020941,0.00280276
0.0102146,-0.0202332
3.83e-06,-0.0166172
0.0109457,0.0272882
0.0304703,0.0203621
0.0322401,0.0139944
0.0375641,-0.0407661
0.0350062,-0.0320853
0.00342142,0.0115183
-0.0259807,-0.021457
-0.0381007,-0.0521704
-0.0162151,-0.00383683
0.00402773,0.0563939
-0.0143914,0.0623596
0.00155311,0.00720266
0.0160564,-0.0183451
0.0212836,-0.00399077
0.0056271,-0.0398596
-0.0182714,-0.0431339
0.0171265,-0.010597
0.0252019,0.00501096
-0.00412234,-0.016034
0.00237376,-0.0296072
-0.01158,-0.026033
-0.0482727,-0.00551604
-0.061896,0.0110074
-0.0263587,0.036017
-0.00288627,0.0394298
0.0370566,0.0310344
0.0176572,0.0388432
-0.0264429,-0.00191166
-0.0215032,-0.0322142
0.00816185,0.00458929
0.00549899,0.0158135
-0.0121835,0.00027366
0.00304836,-0.0074511
0.0263361,-0.00658392
0.0288567,-0.00947358
0.0186219,-0.004929
0.0156037,0.0027103
0.0292378,0.0147562
0.0295351,-0.018366
0.0193024,-0.0141606
0.00994245,-0.0301362
-0.0142965,-0.013074
-0.010199,0.0137491
-0.00385961,0.0226399
-0.0103054,0.0150928
-0.014241,0.0136843
-0.0242213,0.0214265
-0.0321337,0.0108984
-0.0167095,-0.0119965
0.00532597,-0.00946999
0.0123611,0.0130708
-0.00290954,-0.00662027
-0.0210981,-0.0126585
-0.0130355,-0.0100946
0.00817532,-0.0223952
0.0212132,-0.0307597
0.0124541,-0.017152
0.00244829,0.000604153
-0.00961318,0.0188914
-0.0253605,0.033328
-0.0185077,0.028864
0.00754191,0.0102924
0.0152213,0.0031918
-0.0026875,0.00884365
-0.00795724,0.0085796
0.00682155,-0.00609268
0.0277876,0.0160826
0.0341543,0.028519
0.017273,-0.0139721
-0.00483722,-0.0314871
-0.0166977,-0.0249575
-0.0108392,-0.0182223
0.00346289,-0.0136663
0.000382979,-0.00351812
-0.00922441,0.00844984
-0.011618,0.018011
-0.00364113,0.0161411
0.0126664,0.00811556
0.014771,7.61e-07
0.000503141,-0.00126451
-0.00581646,-0.00662987
-0.00946031,-0.0239001
-0.0186687,-0.0211869
-0.0183707,0.0165264
-0.0129207,0.0157743
-0.0121778,-0.00461456
-0.0207551,0.00085582
-0.0223352,0.0384614
-0.0268432,0.0300057
-0.010094,-0.0281736
0.00456695,-0.0102821
-0.0421443,-0.0020741
-0.0286129,0.0317638
0.0436384,0.0175638
0.0694816,-0.0250561
0.0603659,-0.046905
0.0474714,0.00685596
0.0218559,0.00452898
-0.000812207,-0.0252696
0.00350686,0.000229138
0.0131181,0.00451874
0.0274995,-0.0272226
0.0470075,-0.0316266
0.0319877,-0.0171163
-0.0511264,0.0105468
-0.0616695,0.00680271
-0.0268841,-0.00979618
-0.000892784,-0.0198416
0.0387281,-0.00106765
0.0482108,0.00186762
-0.00632292,0.00407038
-0.0449458,0.0047806
-0.00970735,0.0147892
0.00229805,0.00901454
0.0154295,-0.00895037
0.00671426,0.00340172
0.00173198,0.036717
0.00529756,0.0368023
0.0061635,0.0137353
-0.0143937,-0.00360803
-0.0284539,-0.0192716
-0.0274753,0.00240309
-0.0250229,0.014044
-0.01953,0.010432
-0.0113273,-0.00494051
0.00187588,0.0224624
0.0248753,0.00475675
0.0162088,0.000569255
0.00818783,-0.0188598
0.012633,-0.0391583
0.00594068,-0.00248826
-0.000845778,-0.0123464
0.000987272,0.0138571
-0.054321,0.0367819
-0.0135091,0.0226846
-0.00349745,0.0183703
-0.0072173,0.00355666
-0.00270099,0.00282369
0.0054836,-0.0324796
0.0229629,-0.0170841
0.038553,-0.0294247
0.0292456,-0.0332836
0.0106255,-0.00931093
-0.00145096,-0.0153858
-0.0128226,-0.0282319
-0.0310254,0.00719321
-0.0225075,0.0454043
0.00183039,0.00721927
0.00764423,-0.0136795
-0.0133911,0.0144013
-0.0372423,0.0269297
-0.0401667,0.0328078
-0.0271865,0.0246944
0.00161314,0.00162598
0.0143349,-0.0537492
0.00916758,-0.0742548
0.0125905,-0.0334454
0.00856392,-0.0174773
-0.00552492,0.0158859
0.01729,0.0165515
0.0218713,0.0115694
0.0136835,0.0360337
0.0154673,0.0372376
0.0429406,0.0290985
0.0287023,0.0261733
0.00149562,0.0117737
-0.00947159,0.000941471
-0.0113849,-0.00765232
-0.0257844,0.00909671
-0.0247256,-0.0111807
-0.000188738,-0.0132692
0.0211348,-0.0115985
0.027562,-0.0145763
0.00611425,-0.0129506
-0.027007,0.0122555
-0.0490365,0.0488456
-0.047275,0.0184085
-0.0524893,-0.0340035
-0.0420276,-0.0463235
-0.00465776,-0.0126824
-0.0445208,0.000248769
-0.0789723,-0.0122606
-0.0507562,0.0153945
-0.00295353,0.0243595
0.00805175,0.0365967
0.0181264,0.0248048
0.0290523,-0.0395042
0.0525228,-0.025718
0.165808,-0.0530627
0.192356,-0.0412487
0.166128,-0.000473893
0.0782305,0.039524
0.00797212,0.0252311
0.0772924,-0.0297664
0.293935,-0.019493
0.374769,0.00211004
0.253607,0.0114285
0.0835182,0.0113265
-0.221942,0.0312578
-0.606741,0.0503569
-0.709438,0.0488883
-0.509946,0.0142258
-0.152047,-0.0166866
0.0411768,-0.0546487
-0.0109981,-0.0462754
-0.0543078,-0.01341
-0.0448086,-0.0126188
0.113064,-0.00202162
0.464122,0.028491
0.561937,0.0281096
0.406037,0.0178027
0.107251,0.000510477
-0.125265,-0.00859391
-0.264935,-0.0287134
-0.248215,-0.0282323
-0.133037,0.0311239
-0.027552,0.0134865
-0.0695255,0.0107592
-0.157179,0.0100884
-0.159732,-0.0104962
-0.0704904,-0.0166762
-0.0334249,-0.0119438
-0.0379802,0.0002724
0.00706822,-0.024877
-0.00377889,-0.017963
0.000587562,0.012223
0.0138223,0.0250212
0.0604256,0.00373057
0.0838885,0.00706025
0.0748671,0.00521141
0.0724604,-0.0134733
0.0803884,-0.0108223
0.0636381,0.0221083
0.0376918,0.00740685
0.0815272,0.0263392
0.115707,-0.00557686
0.0592052,-0.0146355
-0.00622788,-0.00929256
-0.00328677,-0.016198
-0.013663,-0.0135818
-0.0475762,0.00592051
-0.0891567,0.0204449
-0.0838748,0.0245946
-0.058919,-0.000170845
-0.0358109,-0.00886697
-0.0238685,-0.0240887
0.00894695,-0.0238111
0.0484919,-0.0125544
0.0564554,0.00670211
0.0469327,0.0290277
0.0319833,0.0235417
0.0229347,-0.00414211
0.00709793,0.00400963
-0.0210337,0.0155032
-0.0416968,0.000817878
-0.0591971,0.00417882
-0.061059,-0.0162495
0.0917119,-0.00945212
0.276959,0.0288889
0.275801,0.0334674
0.15344,-0.041397
-0.0368308,-0.0263403
-0.241763,-0.00319179
-0.338273,0.0132797
-0.235538,-0.00793243
-0.100293,-0.0361048
-0.0893589,-0.0176116
-0.0828175,-0.00315703
-0.0341303,0.03
0.0223323,0.0471653
0.0568109,0.00708548
0.0766818,-0.0279157
0.209191,-0.0431144
0.284689,-0.0360795
0.1453,-0.00238303
-0.0352382,0.0219565
-0.186469,0.0124591
-0.191798,-0.00434738
-0.0918867,-0.0258075
-0.0480007,-0.0140353
0.0224619,-0.00323044
0.0706894,0.00473865
0.069916,0.0194021
0.0638144,0.0354777
0.00479649,0.0439352
-0.0525058,0.0427407
-0.0333006,0.0335525
0.0129503,-0.0278935
0.0617313,-0.0526161
0.0598195,-0.0355953
0.00972829,-0.0242401
-0.135441,0.0111545
-0.164108,0.0342334
-0.0710346,0.0274569
-0.0341988,-0.0108406
-0.0198708,0.017733
0.0439407,-0.00975373
0.0913367,-0.0386681
0.176911,-0.0143348
0.230853,0.0112571
0.178484,0.00663224
0.134428,-0.00466726
0.140893,-0.0158639
0.102793,-0.0192658
-0.0214683,-0.0167163
-0.0977533,-0.00547061
-0.183924,0.00131243
-0.259382,0.0168635
-0.256718,0.0203078
-0.232716,0.0249907
-0.164663,0.0150821
-0.089239,0.0214113
0.00429144,0.0404245
0.0602053,0.0298161
0.115453,-0.041551
0.068604,-0.0200103
-0.0392406,0.031453
0.000573719,0.0470805
0.14103,0.00651065
0.113677,-0.0594733
2.53e-06,-0.0577306
-0.0318991,-0.0214214
0.0372234,0.0188573
0.0892115,0.0238561
0.0771912,0.00159269
0.0247541,-0.0013043
-0.0143171,0.0063478
-0.0487139,0.00100997
-0.0966121,-0.0145495
-0.0849406,-0.0209905
-0.0222028,-0.0139708
0.0387474,-0.0172035
0.0905468,-0.00150449
0.0811418,0.0171809
0.0503409,0.020831
0.021287,-0.00532754
-0.0175046,-0.00553993
-0.0610564,-0.0126513
-0.0670265,-0.0319645
0.0683779,-0.0248072
0.209115,-0.000715262
0.141412,0.0369753
0.0151515,0.0596787
-0.0734421,0.0141039
-0.125107,-0.0142326
-0.160708,0.00698957
-0.152963,-0.0419202
-0.0891869,-0.0247912
0.00781138,-0.00159896
0.0414008,0.0176211
0.0619135,0.0181969
0.078488,0.00704111
0.068305,0.00243739
0.026506,0.00205042
-0.00665533,0.00078369
-0.0276274,-0.00324701
-0.0666481,-0.00363911
-0.084774,-0.00211096
-0.102142,0.0164287
-0.0801867,0.0283396
-0.0146448,0.01615
0.0126955,0.0029924
0.0117936,-0.00177929
0.0198757,-0.0184612
0.0377115,-0.0244278
0.0604176,-0.0296719
0.088306,-0.00104532
0.0824857,0.0171909
0.0320141,0.00419178
0.00540411,-0.000280504
0.0130776,-0.0165445
0.0214921,-0.0318319
0.000397148,-0.0219866
-0.0167785,-0.00214993
-0.0319298,0.0266252
-0.0328982,0.0427336
-0.0184463,0.0336467
0.00685228,-0.00938099
0.0154401,-0.00811435
-0.00475412,-0.0225817
-0.048741,-0.0153749
-0.0601049,0.00976617
-0.0397959,0.0284166
-0.0367057,0.0455423
-0.0306123,0.0398709
0.0110313,-0.0103833
0.0384193,-0.0448308
0.0645988,-0.0376275
0.0766062,-0.0264228
0.02602,-0.019863
-0.0247089,-0.00488867
-0.0422358,0.00770401
-0.0419655,-0.00206208
-0.0103151,0.0185487
0.0609419,0.00874712
0.0750667,0.00552285
0.0393987,0.0230031
0.0205024,-0.0278598
0.0351107,-0.0281377
0.0418757,-0.00403053
0.0304669,0.00429091
0.00801947,0.0147616
-0.022839,0.0515296
-0.0529973,0.0375099
-0.0424806,-0.0178809
-0.0276287,-0.0382946
-0.0632071,-0.0273793
-0.0781645,-0.0343021
-0.0412007,0.0197762
-0.0353809,0.0529384
-0.033218,-0.00611477
-0.00874888,0.000764871
0.0482293,0.0260796
0.0682094,-0.0321727
0.0665853,-0.0527105
0.0532137,-0.0292761
0.00431087,0.00224181
-0.0405186,0.0148728
-0.00359192,-0.00439152
0.0200721,-0.00429734
-0.0103052,-0.00158295
-0.01595,0.0111457
-0.00247359,0.0343582
-0.0206313,0.0384149
-0.0464163,0.0410481
-0.0270402,0.00304744
-0.00438822,-0.00918832
0.00194596,-0.0116426
0.018901,-0.0275241
0.0144597,-0.0142591
-0.00425964,-0.00334262
-0.0102383,0.00422125
0.0132937,0.0373299
0.0508951,0.0260765
0.0534806,-0.01294
0.0272225,-0.0325132
-0.0155761,-0.00961734
-0.0305123,-0.0175531
-0.00704714,-0.0259223
0.00111526,-0.0157544
-0.00679427,-0.0129964
-0.0377347,0.0276645
-0.04072,0.0567563
0.0160836,0.0874941
0.0393334,-0.00278467
0.00879088,-0.0204311
0.00385286,-0.0162806
0.036078,-0.0775637
0.0408508,-0.0233414
0.0142518,-0.0520073
0.0117281,-0.0394867
-0.00090375,0.0066262
-0.0243406,0.0550412
-0.021965,0.0210569
-0.0273631,-0.0196233
-0.0239998,-0.0339144
-0.0229944,-0.014732
0.00210168,0.0501838
0.0499072,0.0392613
-0.00658857,0.0698555
-0.129525,0.0543159
-0.141668,-4.83e-06
-0.0498797,0.0650401
0.0314651,-0.0454304
0.0709874,-0.0857594
0.102143,-0.0295444
0.0319021,-0.0686243
-0.0360257,-0.101915
0.0496186,-0.020436
0.0923684,0.0782707
0.0728341,0.0571604
0.0395167,0.0483648
0.0171885,0.019492
-0.0097054,-0.0181507
-0.0702953,-0.0472558
-0.0916362,-0.0455963
-0.0916204,0.0322733
-0.0720899,0.124171
-0.0150694,-0.0231189
-0.0135343,0.000352335
0.00102423,-0.00735839
0.0667202,-0.0953687
0.102567,-0.0119841
0.0237155,0.0512585
-0.0122786,0.0768113
0.0912829,-0.0137509
0.129061,-0.0426391
0.0495592,-0.0384316
-0.0711242,-0.0365401
-0.12546,-0.0197054
-0.105304,0.0114889
-0.133712,0.084875
-0.142034,0.0695266
-0.0255116,0.0144125
0.118674,0.0353689
0.178992,-0.0267545
0.15098,-0.0486812
0.0269172,-0.0143523
-0.126891,0.0380261
-0.174836,0.0127755
-0.13931,-0.0740686
-0.0325558,-0.0219916
0.00257572,0.0174845
-0.0145466,-0.0503842
0.0442715,0.0235067
0.195155,-0.0202344
0.244299,-0.0457506
0.150132,0.0368817
0.0321711,0.115761
-0.0405035,0.0604104
-0.0931364,-0.0992167
0.0582721,-0.0602431
0.407013,0.0822541
0.490652,0.062984
0.266811,-0.0475375
-0.126959,-0.0186078
-0.469257,-0.0104856
-0.602312,-0.0305271
-0.474588,-0.0339817
-0.261935,-0.022813
-0.102675,0.00872007
-0.0466306,0.0432689
0.0724038,0.0519102
0.0894935,-0.0611954
0.0556851,-0.104759
0.0981367,0.0258892
0.235428,0.087477
0.402741,0.0255861
0.329776,-0.0203412
0.0322717,0.0107324
-0.231248,-0.0151186
-0.316094,-0.0153851
-0.288477,0.0271946
-0.25541,0.0375357
-0.232547,0.0727657
-0.0168123,0.0425818
0.199037,-0.0121389
0.173828,-0.1076
-0.0255244,-0.0783256
-0.0451874,0.0142324
0.0640968,-0.0146649
0.0673263,-0.0358124
0.0564086,-0.0325239
0.0518932,-0.0334526
0.0542145,-0.0476051
0.0610315,-0.034693
0.0264856,0.0289182
0.00371173,0.0350448
-0.0106559,0.0385308
-0.00288002,0.0574226
0.0528053,0.0444352
0.0559398,0.0139072
0.0949569,-0.00449473
0.141576,0.0085037
0.158633,0.035661
0.241332,-0.0365528
0.198879,-0.014875
0.0376523,0.017234
-0.179766,-0.00765729
-0.344511,-0.0451126
-0.320012,-0.026605
-0.247718,0.007965
-0.281864,0.0224992
-0.311758,0.019251
-0.195106,0.011697
0.0392523,0.0425315
0.0903959,0.0608091
0.0761375,0.0422149
0.186682,0.01761
0.28482,0.0444499
0.244176,-0.0916642
0.166293,-0.0799849
0.0982379,0.0170527
0.0330499,-0.00982959
-0.0649049,-0.0456328
-0.0611976,-0.039803
-0.0327633,0.0163774
-0.00787237,0.023831
-0.00441597,0.0315264
-0.0331274,0.0553864
-0.00552286,-0.00404969
0.0123322,-0.0901434
0.0305798,-0.0351577
0.0580418,0.00338154
0.0518057,0.0141978
0.0539973,0.0122232
0.0614225,0.0127065
0.0121997,0.000772271
-0.144462,-0.0439654
-0.219245,-0.0475276
-0.134664,-0.0135522
-0.0114427,0.0296439
0.0544363,0.0657443
0.113354,0.0625908
0.0232795,-4.87e-05
-0.0986602,-0.0313371
-0.106038,0.000451542
-0.0786845,-0.0780787
-0.0764132,-0.0456257
-0.00447212,0.023619
0.0414569,0.0415671
0.037636,-0.00565838
0.0880772,0.00649393
0.0850395,0.0231426
0.083207,0.0456011
0.0698724,0.0282703
0.0216875,0.0298712
-0.0302211,0.0230004
-0.0645111,0.050433
-0.118181,0.058174
-0.117477,-0.0297181
-0.0509601,-0.0015065
0.0117543,-0.0278962
0.017007,-0.0448184
0.0128735,-0.00272513
0.040219,-0.026956
0.0225515,0.0231099
0.0897479,0.00627971
0.12857,0.0286768
0.0824544,0.0512473
0.169738,0.0371119
0.172129,-0.115054
-0.010283,-0.116518
-0.0555485,-0.0168434
-0.0773949,-0.0307653
-0.177617,-0.079083
-0.14829,-0.0292914
-0.110201,0.017163
-0.0487509,0.0159516
-0.00851469,0.0121261
-0.0117952,0.0249296
0.00992644,0.0237222
0.0660184,-0.0205556
0.0898086,-0.0180925
0.0580886,-0.000375563
0.0069715,-0.00732236
-0.0407271,-0.00931076
-0.0422844,-0.000396457
-0.00553119,-0.00210651
-0.00190016,0.00686534
-0.046571,0.0162448
-0.044065,0.0242524
0.0014899,0.0382364
-0.00995454,0.0343535
-0.00773476,0.0161301
0.0254886,0.0162269
0.0928925,0.00288676
0.128504,-0.00683389
0.0894118,-0.0209125
0.0424574,-0.0184471
0.0162031,0.00898243
-0.0257274,0.01016
-0.0533202,0.00442862
-0.0759017,-0.00492917
-0.0216208,0.00542567
0.0261963,0.000589468
0.00564884,-0.0174015
-0.029812,-0.001897
-0.0656884,0.0231999
-0.0928363,0.0346587
-0.058542,0.0583434
-0.037401,0.0086609
-0.0309285,-0.0496729
0.029736,-0.0482549
0.0942107,-0.0370979
0.073369,0.0296021
0.0655048,0.0888509
0.00194547,0.0909915
-0.0671038,0.0634823
-0.0627522,0.00839769
-0.0154151,-0.063036
0.0693531,-0.0863765
0.0472941,-0.0885446
-0.0413538,-0.0555387
-0.0399565,-0.0106126
0.00989593,-0.00586433
0.0570118,-0.00113831
0.0279555,0.0266755
-0.0093023,0.0300975
-0.00457766,-0.0290371
-0.00937021,-0.0224397
-0.0337658,0.0597754
-0.0244906,-0.00275592
-0.000816653,-0.0661526
0.0359599,-0.034003
0.0461816,-0.0123705
0.0135719,0.0145944
-0.0147508,0.0257487
-0.0430967,-0.0221666
-0.0615801,-0.0212781
-0.00229413,-0.00798816
0.0222708,0.00253345
-0.0392841,0.0281093
0.00181237,0.0306167
0.0666341,0.00260877
0.064619,0.00500109
0.0626194,0.00471021
0.00328536,0.0024192
-0.0290847,-0.00181421
0.0496758,0.00581238
0.058403,0.0139215
-0.00543208,0.00338426
-0.0810064,-0.0123315
-0.107712,-0.0103805
-0.0534128,0.000506349
-0.0218309,0.00651565
-0.0569243,0.0270154
-0.058322,0.0530504
-0.0273717,0.0191832
0.00942966,-0.000973767
0.0483466,0.0223948
0.0523541,0.0276436
0.0386065,-0.0319067
0.0196811,-0.0281876
-0.00928242,-0.031073
0.0212232,0.00355271
-0.0256897,0.0734501
-0.0912438,0.0402626
-0.00742064,-0.0392895
0.0688708,-0.106627
0.0695424,-0.0742305
0.0294651,-0.0249455
-0.00727451,-0.0188154
-0.0115432,-0.00627146
-0.00402074,0.0128274
0.00197645,0.0108888
0.0349804,0.00831537
0.0504654,0.00033534
0.0368768,0.0245475
0.0185078,0.0285592
-0.00509998,-0.0261882
0.00114346,-0.0431674
0.019184,-0.00446665
0.0497105,0.00587002
0.0134044,0.0176475
-0.0608462,0.0503756
-0.11951,0.0614829
-0.117456,0.00554481
-0.1229,0.0510143
-0.0213465,0.0376536
0.0621568,0.0147006
0.0300371,0.0211243
0.0238487,0.0233397
0.0213738,0.00659945
0.0528544,-0.0136652
0.031315,-0.00877595
-0.0115117,-0.00746904
-0.0323799,0.0577767
-0.0268885,0.0028281
0.0523488,-0.071122
0.071469,-0.00171384
0.0792174,-0.0520649
0.0461727,-0.0716389
-0.013638,-0.0292886
-0.0697299,-0.0201028
-0.0648926,-0.0115791
-0.0336169,0.00730392
-0.00265549,0.00514638
0.00742135,-0.0023561
0.00826731,-0.00388912
0.0112311,0.0119903
0.016186,0.0131906
0.0204356,0.0149919
0.0558791,-0.0265434
0.0266405,-0.0559996
-0.0392455,-0.0171084
-0.0785755,0.0147788
-0.0634316,0.0239875
-0.0178027,-0.00487768
-0.0202972,-0.000358759
-0.0258301,0.0154418
0.0305829,0.0141595
0.00288403,-0.0349642
-0.0204807,-0.0281371
-0.0206129,0.0401455
-0.0013571,0.022966
0.0262,0.0376185
0.0458207,0.0301284
0.0288916,-0.00899347
0.00227693,-0.0345213
0.0189394,-0.0392
0.0335633,-0.012002
0.0469438,-0.0115935
0.0206293,0.00879602
0.0131515,0.0226298
0.000264244,0.0205661
-0.0200827,0.0253037
-0.0297116,0.0263438
-0.0369315,0.0225069
-0.0152674,0.0187946
0.012324,0.0127821
-0.0116501,0.00791772
-0.0222128,0.0250168
-0.0308496,0.0260089
-0.0591443,-0.00896359
-0.0615087,-0.0116386
-0.0246489,-0.00759389
0.031081,-0.0254473
0.115258,-0.0183651
0.125305,-0.0019077
0.0367458,-0.00737265
-0.0551837,-0.0140494
-0.0804793,-0.00662563
-0.0756532,-0.00474749
-0.0423439,0.000418705
0.0525099,-0.0158115
0.0560444,-0.0161643
0.0238326,0.00786465
0.0172782,-0.0330926
0.0515188,-0.0288232
0.0662675,0.0228472
0.00743685,-0.0444463
-0.0326234,-0.0335771
-0.0142242,0.0190863
0.032205,0.00977767
-0.0373806,0.0012947
-0.0728076,0.0104776
-0.0623348,0.0190791
0.000913514,0.0202814
0.0461778,0.034843
0.0251015,0.02252
0.000429206,-0.0097968
-0.0166115,-0.00686936
-0.0275164,0.000185962
-0.0309929,-0.00871798
-0.0304355,-0.0139915
-0.0393233,0.0130724
0.017396,0.0110027
0.0532504,-0.0171163
0.0110342,-0.0270026
-0.0164773,0.0205312
-0.0119315,0.0360151
0.00208124,0.0484316
-0.00774306,0.0676168
-0.02669,0.0116202
0.0185004,-0.0344381
0.00308727,-0.0101843
-0.00174542,-0.0629846
-0.0175871,-0.0608374
-0.0147656,-0.0480537
0.011588,-0.0461622
-0.027621,0.0107362
0.0198064,0.032777
0.0797151,0.00821772
0.080676,0.0242943
0.0747973,0.0380713
0.0383117,-0.00902376
-0.046857,-0.0163184
-0.0541734,0.00961433
-0.0307094,0.0443049
0.0280697,0.0258227
0.0292921,-0.0118055
-0.0275529,-0.00312726
-0.0253009,0.00424992
-0.0377204,0.00679496
-0.0183063,-0.0250928
-0.0175864,-0.0573652
-0.0356281,-0.0164333
-0.0248084,0.0260427
-0.00895757,-0.000311455
0.00734067,-0.0205467
0.0518372,-0.0185689
0.0863514,-0.0147245
0.059061,7.9e-05
0.028673,-0.00053404
0.018157,-0.00544066
0.00149669,-0.00716527
-0.0273434,-0.00820597
-0.0390018,0.0151716
-0.0452175,0.0176431
-0.0368204,-0.00919452
0.00282507,-0.019979
0.0123945,-0.00622
0.00550647,-0.00307179
-0.057462,-0.0118666
-0.0517995,-0.00584859
0.0444292,0.00775895
0.0394376,0.0132193
0.0139575,0.0190342
-0.00556629,0.00598282
-0.00738674,-0.00377231
1.27e-05,0.0454993
0.0169722,0.0335036
0.0374222,0.00434828
0.0204639,0.0162743
0.0257373,0.0123558
0.0168447,-0.0651806
-0.0379514,-0.0312648
-0.0767193,0.0492996
-0.110936,0.0243353
-0.111851,-0.0258793
-0.0301643,0.0347888
-0.0125469,0.0685115
0.0449087,0.0432827
0.0883826,-0.0484792
0.114943,-0.0764458
0.0807766,-0.0216383
0.107088,0.00097817
0.0996014,0.00771834
-0.00219877,0.0273608
-0.0588444,0.0257335
-0.0670423,0.00859082
-0.0591723,0.00307257
-0.0358684,-0.0152749
0.018492,-0.0249375
-0.0206437,-0.0131593
-0.0992884,0.0160427
-0.0996617,0.0168866
-0.0308755,0.00158521
0.0901705,-0.0222244
0.101631,-0.0234847
0.0564214,-0.00472559
0.0538672,0.00309085
0.00117499,-0.00154731
-0.0893961,-0.0145282
-0.125912,0.00158539
-0.0674205,0.019973
-0.0689239,0.0203096
-0.139649,0.018736
-0.0290229,0.0182481
0.00160432,0.00857178
0.0529961,0.000190035
0.0818951,-9.58e-05
-0.0105192,0.0132697
-0.0280751,0.0524474
0.0746514,0.0047337
0.101383,-0.0753936
0.0645546,-0.0429692
0.0406313,-0.0107411
0.000517773,-0.0171116
0.0586759,-0.0501266
0.0529375,-0.053222
0.0203128,-0.0144749
0.0321018,0.0227209
0.0562398,0.0396182
0.0157304,-0.0179772
0.00582466,-0.0145779
0.0133272,0.0193745
-0.0118246,0.033724
-0.023463,0.0133745
-0.00824908,-0.0141953
0.0257207,0.0147518
-0.0202201,0.0309056
-0.0429815,0.0194402
-0.0228026,0.0396625
-0.0144685,0.0275552
-0.000301784,0.011312
0.00623965,-0.011407
-0.00429834,-0.0282817
-0.0321971,-0.00591764
-0.0298768,0.0105718
0.00174634,-0.00529373
0.0132242,-0.00844522
0.0115794,-0.00856358
0.00677283,-0.0213862
0.00107573,-0.0268239
0.0127842,-0.0113166
0.0148662,-0.00728466
-0.00177402,-0.00090564
-0.0205711,0.00682514
-0.0242116,-0.0140204
-0.0251092,-0.0199451
-0.0143885,-0.011377
-0.047461,-0.0246022
-0.0877668,0.0216235
-0.104142,0.0635928
-0.16575,0.0339371
-0.0471198,-0.00429025
0.0842451,-0.0184398
0.106303,-0.00179412
0.0630878,-0.010435
0.054341,-0.0243046
0.080247,0.00893103
0.0474819,-0.00515446
-0.0118971,0.0087017
-0.0163258,0.0155292
-0.0472019,0.0148924
-0.0865464,0.0234729
-0.138892,0.0296153
-0.0564778,0.00565979
0.0820832,-0.0324896
0.0761342,-0.00802476
0.0215188,0.0648098
0.0167343,0.0540234
0.0327479,-0.0271
0.0461692,-0.0475196
0.078064,-0.0216853
0.00994718,-0.00219461
-0.00311054,-0.0403657
0.0809653,-0.0104688
0.0721162,-0.000255357
0.0374269,0.00688514
0.0159077,0.00545336
-0.00165948,-0.000321447
0.00300318,-0.0201945
0.0108257,-0.0157628
-0.0116504,-0.0144893
-0.0236824,-0.0368134
-0.0264474,0.00207649
-0.0299185,0.026425
-0.0226117,0.00924191
-0.0223132,0.0177604
-0.0162859,0.0316854
-0.00124862,0.0199784
-0.00188593,-0.00983012
-0.0221325,-0.0198389
0.0400117,-0.0164505
0.0386995,-0.00489582
-0.0490257,0.0256519
-0.152714,0.041745
-0.199587,0.078865
-0.107627,0.00851373
0.000289536,-0.0758068
0.0451698,-0.0889797
0.135588,-0.0844251
0.149786,-0.075522
0.0328049,-0.0320444
0.00515539,-0.00244669
0.0311928,0.0430694
-0.0609413,0.123322
-0.108333,0.142965
-0.0518443,0.00693801
0.0183307,-0.0651838
0.020278,-0.0191494
0.034573,-0.0162305
0.040235,0.00844232
0.0931724,-0.0163459
0.0720603,-0.0209957
0.0119956,0.000761025
-0.0256818,-0.00473364
-0.0652377,-0.00778025
-0.0528983,-0.0140171
-0.00976379,0.00871403
-0.0261124,0.0152761
-0.0130281,-0.00273641
0.0218751,-0.00245051
0.0190303,-0.00177456
0.0715447,-0.0177349
0.0775888,-0.0288587
0.0192563,-0.00912698
0.00782276,-0.00552046
0.025573,0.0127134
0.00163002,0.0681632
-0.0154147,0.0557103
-0.00388213,-0.0252536
0.000208014,-0.0356997
-0.0157485,-0.0277331
-0.0367654,-0.0312195
-0.0207471,-0.031561
0.0127736,0.0112716
0.0221997,0.0613191
0.00697302,0.0756151
-0.0136658,0.0358229
-0.0298297,-0.0158063
0.0106142,-0.00602272
0.0386129,0.0203683
0.0199047,0.05074
0.0255804,0.021599
-0.0186193,-0.00486683
-0.0711631,-0.0308394
-0.105128,-0.0367287
-0.117184,-0.0166527
-0.0671256,-0.0261143
0.0183963,-0.0250592
0.0566373,0.0143266
0.0532674,0.00222698
0.0354974,0.0288188
0.0263542,0.00226952
-0.00675022,0.00576654
-0.0243775,0.102448
0.00109142,-0.0484895
0.00568242,-0.115455
-0.00595499,-0.0317168
-0.0122694,-0.00269115
0.00750171,0.0021325
0.020198,0.0228246
0.019919,0.0380341
0.0218158,0.00402224
-0.00690035,0.0126484
-0.0387987,0.0175492
-0.0219629,0.00338998
-0.0294486,-0.0247923
-0.0110506,-0.0681438
0.0650031,-0.0141083
0.0668928,0.0204902
0.0429316,-0.0104255
0.00383142,-0.028614
-0.0567439,0.0264377
-0.0477366,0.0379279
-0.0731342,0.0169108
-0.059951,-0.00476818
-0.0230658,0.000265586
0.0613377,0.0234774
0.102016,0.0138948
0.0404491,-0.0227957
0.0548733,-0.030473
0.0194976,-0.0105754
-0.000491281,-0.00434507
-0.00537716,0.000689925
-0.0280784,0.021386
-0.0308673,-0.00531003
-0.0266652,0.00230493
-0.025815,0.0171319
0.0171385,0.0264905
0.0990375,0.0153769
0.114416,-0.0518543
0.0530659,-0.0805892
-0.0383129,-0.0391887
-0.0411431,0.0207965
-0.0113736,0.0161094
0.0301097,-0.000467669
0.0227173,-0.000889885
-0.00180718,0.0304969
-0.0121112,0.0688531
-0.05306,0.0160257
-0.0613563,-0.0421273
-0.0696898,-0.026462
-0.0912142,0.0302543
-0.0251573,0.0346242
0.0461667,-0.000918079
0.0127446,-0.0278672
0.023742,0.00833913
0.0130364,-0.00449399
-0.0105551,-0.0136939
0.0118252,0.00119716
0.027234,0.0338891
0.0115168,0.04428
-0.0526989,0.0591579
-0.0904935,0.00849294
-0.0499333,-0.0315855
-0.0246886,-0.0390493
-0.0453682,-0.0205944
-0.00145552,0.00476195
0.0276029,0.00878055
0.0266647,-0.0230939
0.0225558,-0.0327403
0.0556261,-0.00789921
0.0622177,-0.00632471
-0.0226501,-0.00603565
-8.19e-05,0.000124297
0.0255668,-0.00891596
0.00564059,-0.0310008
-0.0144234,-0.0261688
-0.0263756,0.0119999
0.00657561,0.0283331
0.0327602,0.01924
0.0489765,-0.00428778
0.0386124,-0.00162005
0.0429175,-0.0193505
0.049924,0.00313425
0.0358875,0.048785
0.0180822,0.0102816
0.0039554,0.0094366
-0.00123242,0.0180318
-0.0300731,-0.0153605
-0.040574,-0.00159115
-0.0428703,0.0408752
-0.0556937,0.0609592
-0.0428322,0.0849318
-0.041046,0.00817107
-0.0496284,-0.11173
-0.0163263,-0.0909559
-0.0238563,-0.0315706
0.0154017,-0.02336
0.0567482,-0.0455552
0.0385792,-0.00890045
0.0104798,0.02205
0.0110653,0.0413113
0.0269807,0.0633481
0.039222,0.033144
0.021614,-0.102886
0.0145057,-0.0441973
-0.000681371,0.033554
-0.0260086,0.0297251
-0.0584081,-0.0112959
-0.054462,0.0211649
0.00173206,0.031472
-0.0418813,-0.00520628
-0.0794272,0.0004843
-0.0350186,0.0101923
0.0386878,-0.0347355
0.0659238,-0.0377843
0.0597286,-0.00905989
0.0336592,-0.00129572
0.0366492,-0.00843096
0.0125042,-0.00903281
0.00255872,0.00144689
0.0304197,0.00250635
-0.004916,0.00597878
-0.0227143,0.0157594
-0.00156001,-0.0248001
0.0218426,-0.0247358
-0.0117017,0.0274946
-0.0376002,0.0308601
-0.0304612,0.0112355
-0.049162,0.0408489
-0.0816198,0.0194529
-0.0691246,-0.000539798
-0.00406225,-0.00843215
0.155303,-0.0145583
0.163564,0.00786169
0.0889083,0.0333031
-0.0473421,0.0255005
-0.0827044,-0.00210138
-0.0556878,-0.0450401
-0.0242919,-0.0444306
0.0368595,-0.0219607
0.0707811,0.0306814
0.0217405,0.0496169
-0.049553,0.00879895
-0.0570873,-0.0130781
-0.0910133,-0.0417226
0.00814414,-0.0198345
0.0849854,0.0286448
0.0180518,0.0121265
-0.0489712,-0.00177775
-0.0526337,0.0149425
-0.0141172,0.00586416
0.0360257,-0.0108811
0.0500023,-0.0123516
0.0199848,-0.015769
-0.0169909,-0.0160079
-0.011273,-0.0127704
0.00893645,-0.00759534
0.00372362,0.0107836
-0.00208943,0.0144689
0.00245342,0.0511797
0.00994832,0.00774053
0.0268554,-0.0148176
0.0268106,-0.00771227
0.017676,-0.0451769
-0.0216773,-0.0266336
-0.0259784,0.0251781
-0.0178945,0.0294368
-0.0270023,-0.00724721
-0.0285714,-0.0179103
-0.0136934,-0.00650715
0.0391204,-0.00459872
0.0602011,-0.0135262
0.0246572,0.0022898
-0.0360988,-0.00481241
-0.0844999,0.00203355
-0.0844287,0.0158806
-0.035688,0.0213998
-0.0559877,0.0345086
-0.0277113,0.0385179
0.0468741,-0.0395739
0.0724623,-0.0283015
0.0864747,-0.00919846
0.0540713,0.0153308
0.0114196,0.0199581
0.0143178,-0.00397767
0.0142051,-0.00848541
0.00353176,0.00626993
0.0214004,0.0131616
0.0185988,0.0376919
0.0130895,-0.00741878
0.00396014,-0.055049
-0.0225566,-0.0292718
-0.0333358,0.00599208
-0.0309506,0.0173301
-0.00365358,0.0113623
0.0024051,0.0135799
0.0228991,0.0117477
0.0342204,-0.0051734
0.0240398,0.00390078
0.0047842,0.0136774
-0.0012645,-0.0176135
-0.0208078,-0.0132782
-0.0515279,-0.00735553
-0.0721065,-0.0167773
-0.072129,-0.0187023
-0.0836527,-0.00450068
-0.0706966,0.0310735
0.00774623,0.0316022
0.0915482,-0.00855981
0.120068,-0.020443
0.0781586,0.0137137
0.0632033,0.00435357
0.0469959,-0.0221198
-0.0171253,-0.023867
-0.0422295,-0.0181933
-0.00448805,-0.0165109
-0.00524166,0.000628551
0.00940468,0.00120292
0.0268738,-0.0126455
-0.00253248,-0.0118572
-0.045485,-0.00382363
-0.0588473,0.0113454
-0.0399851,0.00872417
0.000283463,-0.0014948
0.0236437,0.0128689
-0.017312,0.0287778
-0.0599622,0.0242872
0.0114356,-0.00523946
0.0558168,-0.0134032
0.0137743,-0.0128882
-0.00857288,-0.015781
0.000533048,-0.0162287
0.034701,-0.010133
0.0249247,0.00124029
-0.00435506,-0.00956035
-0.0312249,0.00087428
-0.0395721,0.0259266
-0.0335768,0.0448579
-0.0356048,0.0489655
-0.0341137,-0.0253044
-0.0117981,-0.0246828
0.002311,0.0188836
0.0210634,0.0227331
0.0751949,0.0423104
0.102272,-0.00886002
-0.0121927,-0.0290592
-0.0691859,-0.0123897
-0.0513457,0.0344202
-0.0625781,0.0311856
-0.0310666,-0.0565396
-0.0140968,-0.0252762
-0.0289899,-0.0058428
0.0270513,-0.00674444
0.0878807,-0.0105725
0.101212,-0.0175316
0.0803839,0.00845071
0.0259656,-0.00211619
0.0178915,0.0433514
0.076366,0.0166083
0.0807619,-0.0188954
0.0319365,-0.0126961
-0.0378464,-0.038077
-0.103959,-0.00168684
-0.0868865,0.028206
-0.0516138,0.00579696
-0.0268949,-0.00584801
0.00158542,0.0140614
0.0119378,0.0341801
-0.00578416,0.00856997
-0.0326132,-0.0102175
-0.0276801,-0.0176678
-0.00949434,-0.0150288
0.0133053,-0.00661485
0.0335212,-0.00771781
-0.00684557,-0.00720968
-0.00241686,0.00405744
0.0158139,0.0112501
0.021112,0.00756284
0.0195115,0.0052484
0.00560649,0.00387437
0.000927728,-0.00531965
0.0121465,-0.0118229
0.00112184,-0.0140036
-0.00524025,-0.00360971
-0.0135018,0.00130242
-0.0236992,0.00387418
-0.0423708,0.0189389
-0.0421005,0.00114211
-0.0433879,0.0269779
-0.0318706,0.022761
-0.0193937,5.2e-05
-0.0315006,-0.011637
-0.0156662,-0.0244039
0.0471471,-0.049042
0.0280347,-0.0227046
0.0175131,0.0362316
0.057587,0.0406914
0.0207577,0.0211375
-0.0359636,-0.0128526
0.0168813,0.00434171
0.0896069,0.029714
0.0832855,0.00897072
0.0542789,-0.0115081
-0.0483261,-0.00764918
-0.103308,-0.033491
-0.0546486,-0.032485
-0.00014594,-0.0265174
0.0270245,-0.0191189
0.0433278,0.0101163
0.01276,0.0190058
-0.00264744,0.0157325
0.00482524,0.00636268
0.0063163,0.00395126
-0.0088729,-0.00126907
-0.00794224,-0.00716249
0.0145891,-0.0018219
0.023924,0.012383
0.0148069,0.00823994
-0.00866017,-0.00911349
-0.039488,-0.0104325
-0.0373075,-0.00615538
-0.0190211,-0.00387847
-0.000174086,-0.00329779
0.0132051,0.00305412
0.0157702,0.0051183
-0.00918292,0.0169407
-0.0159182,0.0222446
0.0276981,0.010371
0.0362073,0.00222763
0.0233766,-0.00698305
0.0189254,-0.0140344
0.0189555,-0.012295
0.0032143,-0.00735959
-0.0179285,0.00070087
-0.0182949,0.00643814
-0.0330968,-0.0267836
-0.0372843,-0.0240982
-0.0250915,-0.0154559
-0.0892867,0.000897691
-0.110572,0.0138456
-0.0326552,0.00680582
0.00126052,0.00970288
0.0152145,0.0327224
0.0487806,0.0156561
0.0778059,0.0122734
0.0786771,0.00649605
0.0461705,-0.0204035
0.0156061,-0.0355898
-0.00277113,-0.0261695
-0.0244379,0.0285071
-0.0500678,0.0621864
-0.0191307,0.0341745
0.0381782,-0.0334828
-0.0137794,-0.00783917
0.00769165,-0.0122307
0.0557257,-0.0587155
0.0455001,-0.0254361
0.0172216,-0.0241547
-0.0305919,0.00253055
-0.0299987,0.0371058
0.0159565,0.0272015
0.022382,0.0206508
-0.0126975,0.00961937
-0.0331369,-0.00524415
-0.0516967,0.00151246
-0.0578639,-0.0118921
-0.03766,-0.00733753
-0.000887769,0.00610956
0.0356352,-0.00181643
0.0358705,-0.00223459
0.0224427,-0.0011751
0.0195104,-0.000714553
-0.000821632,0.00211471
0.00590885,0.012357
0.0238162,-0.0140709
0.0338835,-0.0152547
0.028283,0.0158561
0.00787955,0.019438
0.0326468,-0.0124853
0.00221163,0.0136716
-0.0406071,0.00697614
-0.0335117,-0.015743
-0.0621424,-0.0161637
-0.00354961,-0.0159528
-0.00895753,-0.00323083
-0.0201269,-0.0151876
0.0305325,-0.00667094
0.0159706,0.00894446
-0.022757,0.00610898
-0.0225245,0.0332045
0.0277205,0.027874
0.0373433,0.00446192
0.0254554,0.00347654
0.00505942,0.0084668
0.00838956,0.022616
0.0292404,-0.014645
-0.0229229,-0.0156342
-0.0776715,0.00144187
-0.0516511,-0.0110399
-0.0293203,0.00278741
-0.00403077,0.0311773
0.0315453,0.0115332
0.0374199,-0.0199287
0.00426549,-0.00936513
-0.0255899,0.0113962
-0.0104646,-0.0235344
0.0262869,-0.0397078
0.0605931,-0.0283556
0.0269958,0.00692117
-0.00145507,0.0183103
-0.0193778,-0.0164789
-0.0296791,-0.0169579
-0.0358638,0.0275621
-0.043589,0.0147781
0.0429823,-0.0168504
0.106824,-0.0411788
0.0628481,-0.013658
-0.0250649,0.0164539
-0.0843123,0.0470383
-0.0797369,0.0237848
-0.0747402,-0.0174246
-0.0264038,-0.0284777
0.0178058,0.016819
0.0547665,0.00177029
0.0953677,-0.00190218
0.0560508,-0.00282501
-0.097613,0.0176196
-0.0677449,0.00197223
-0.0177176,0.0153141
0.0382685,0.0174527
0.0520212,0.0143293
0.0310241,0.012658
0.00286799,0.027112
0.0114993,0.00830372
0.00253264,-0.0322695
0.0152012,-0.012218
0.0523596,-0.00873021
0.0491517,-0.0208024
-0.00722433,-0.0443205
-0.0473104,-0.0152366
-0.0525155,0.0120221
-0.0432175,0.0160501
-0.00612892,0.00241708
-0.0217989,-0.0199176
-0.000477626,-0.0160732
0.0511764,-0.0151049
0.0286362,-0.00276492
-0.0131432,0.000803075
-0.0451427,0.0224698
-0.0133921,0.0397197
-0.0118341,0.0117459
-0.0269538,-0.00528433
-0.0147142,0.019481
0.00476693,0.0383649
0.0393086,0.025347
0.0924163,-0.0037015
0.0388924,-0.0256677
-0.0366889,-0.0455373
-0.0249081,-0.0399721
-0.0210451,-0.0168256
-0.0226438,0.0284872
-0.020389,0.0462364
-0.00949932,-0.0132534
0.0123551,-0.0222565
0.0303747,-0.00258489
0.0302286,0.00639664
0.0216389,-0.00854326
0.00309799,-0.0205149
-0.00556857,-0.0139596
0.00402393,-0.00316908
0.00833366,0.0169804
-0.00176399,0.00817347
-0.00581186,0.0203602
0.00129765,-0.0018036
-0.0187781,0.0156879
-0.0352584,0.0312353
-0.00530196,-0.00197978
-0.00152484,-0.0180678
-0.0262835,-0.01631
-0.0455348,0.00292483
-0.0443882,0.0180818
0.0278886,0.0306299
0.0470936,-0.00723074
0.0275447,-0.054832
0.0184741,-0.0462533
-0.00711892,0.00153034
-0.0148209,0.0312615
-0.0292305,0.0033556
-0.0358766,-0.0262968
-0.0473481,-0.0116775
-0.0388456,-0.0194854
-0.00362492,-0.0108911
0.0902659,0.0206952
0.0897188,0.0119796
0.0189234,-0.0106224
-0.00560441,0.0046795
0.0210359,0.0328558
0.00937513,0.0235072
-0.0152341,0.0315892
-0.0185507,0.0450494
0.0480731,0.0507332
0.119711,0.0424338
0.00117429,0.00786722
-0.140908,-0.0489319
-0.0456806,-0.0656504
0.0067291,-0.0924466
-0.037683,0.00109557
-0.0262615,0.0310295
-0.0118254,0.00418254
-0.00297662,-0.0169507
0.0307423,-0.0216497
0.0409093,-0.0243318
0.024396,-0.0276478
0.00153778,0.00141885
-0.00526809,0.0119814
0.0115725,0.0296363
0.000430668,0.0175206
0.00352162,-0.00308502
-0.00140314,-0.00624052
0.000636244,0.0142848
0.0103511,0.0427277
0.0209641,-0.00739231
0.0115953,-0.0119804
0.00862649,0.00768981
-0.047572,0.00936542
-0.049486,-0.00275519
-0.0430159,-0.00270607
-0.0252517,0.0369985
-0.0210191,0.0472067
-0.0390161,-0.0435534
-0.00109472,-0.0775398
0.0337844,-0.0179473
0.0113528,0.0293544
-0.00383361,0.0166495
0.0539952,-0.0346903
0.0705673,-0.00791688
0.0524275,0.0118289
0.0306291,-0.00224853
-0.00658229,-0.00501853
-0.0226131,0.00835576
-0.0250435,0.0371728
-0.01659,0.0329852
0.000940868,-0.01348
0.0366891,-0.0350381
-0.0350376,-0.043732
-0.0927457,-0.00871969
-0.0260649,0.0418155
0.0679215,0.00782488
0.0415946,-0.0331423
-0.00559311,-0.0108323
-0.0219681,0.03342
-0.0341199,0.0288693
5.11e-05,-0.00477589
0.0462854,-0.0123673
0.0353751,0.0144778
-0.0177989,0.00249206
-0.0372668,0.00505429
0.0108611,-0.0172694
0.0361309,0.00584678
0.0518362,0.0290168
0.0377384,0.0437324
-0.0427396,-0.0133637
-0.0990264,-0.0563755
-0.0371261,0.00202986
-0.0124747,-0.030975
-0.0434498,-0.0126669
-0.0464659,0.0618173
-0.0312664,-0.00518236
0.0250616,-0.0428981
0.0632062,0.0276355
0.0704723,0.0394064
0.0226284,-0.0120753
-0.0295043,-0.0521948
-0.0102253,-0.0123853
0.0344275,0.00437741
0.0479707,-0.00489103
0.0556367,0.000468966
0.0202155,0.0108341
-0.0618622,0.00179794
-0.0573082,0.00664522
-0.0255823,0.00758389
-0.00445273,-0.00977423
-0.0169919,-0.00714181
0.0147885,0.0090761
0.028853,0.0120039
0.0183806,0.00362504
0.000121094,-0.0123059
0.00507102,0.00954265
0.0234428,0.0256839
0.0287567,-0.0375591
0.0204216,-0.0459375
0.00234641,-0.0101768
-0.00945816,0.0111079
-0.00307632,-0.0040828
0.0100167,-0.00671615
0.00663996,0.0021972
-0.0208401,0.0221734
-0.0397012,0.0186739
-0.0476634,0.0279399
-0.040583,0.0213921
-0.0249652,0.0111814
-0.00122036,0.000256472
0.0232574,0.0251474
0.0355045,-0.0330589
0.0203084,-0.0290274
-0.0244943,-0.0259542
-0.0347804,0.00368743
-0.00151827,0.039185
-0.0039086,0.0445149
-0.0390876,0.0137924
-0.0298546,-0.0362717
-0.00835567,-0.0392022
0.0189021,0.0184676
0.0369364,-0.0182689
0.0647123,-0.0539914
0.0706768,-0.0104204
0.0247047,0.0362746
0.0335694,0.0103458
-0.0115577,-0.0336329
-0.0433643,-0.0145392
-0.0267015,0.00165428
-0.0429386,-0.00235259
-0.0296256,0.00146324
0.0241809,0.00738957
0.0563234,0.0101551
0.0475923,0.0267945
0.0173771,0.0307699
-0.0171686,-0.00828808
-0.0125897,0.00881421
-0.019522,-0.0132601
-0.0344424,-0.0409743
-0.0304429,-0.014031
-0.00383468,-0.00130784
0.00746349,0.0133495
-0.0006104,0.0141205
-0.0110471,0.00940694
0.00426193,0.00138538
0.000753759,0.000931923
-0.0402648,0.0217079
-0.0322145,0.0159806
0.0166542,0.00238293
0.0341181,0.0445369
0.00427652,0.0554709
0.0150663,-0.00687085
0.0479729,-0.0673807
0.0631405,-0.0494478
-0.00245638,0.0109976
-0.0344192,0.0249682
-0.0208753,-0.0111135
-0.028686,0.0317067
-0.0478506,0.00572669
-0.00462703,-0.0261666
0.00745912,0.00770151
-0.00323452,-0.00881462
-0.0111726,-0.0292666
-0.01042,-0.0110613
-0.00114675,0.00599806
0.000266938,0.00697283
0.0145498,0.0100104
0.0303601,4.76e-05
0.0382845,-0.0169517
0.0238042,-0.0199058
0.0163301,-0.0154009
0.00100449,-0.0184205
-0.011801,-0.0105097
-0.00442019,0.0153858
0.017336,0.0339082
0.0226204,0.0144102
-0.0092353,-0.0200864
-0.0403869,-0.0134049
-0.0446769,0.0159669
-0.0390838,0.020191
-0.00350029,0.00976487
0.0146124,1.17e-05
-0.00382843,0.00458101
0.0049401,-0.00957677
0.0234681,-0.0213113
-0.012091,-0.010266
-0.0605634,0.0122496
-0.0280287,0.0312501
-0.0070765,0.023719
0.012177,-0.04719
0.0396925,-0.0189336
0.0278384,0.0435887
0.0376795,0.00171105
0.0274831,0.0042948
0.0106265,-0.0104253
0.00432909,-0.0233611
0.000379894,-0.0163145
0.000381907,-0.00341797
0.00642981,-0.000363269
-0.0127394,0.0106937
-3.36e-05,0.0173783
0.0172072,0.01987
-0.00397023,-0.00116127
-0.00822367,-0.0170761
-0.0170702,-0.0113511
-0.0279257,-0.0149132
-0.00651558,-0.00946083
0.0142514,0.00824059
0.0144189,0.0151064
0.00558623,-0.00315537
-0.00639923,0.00766657
0.00432781,-0.00143388
0.0238159,-0.0248616
0.0320495,-0.014421
0.0120997,-0.00613867
-0.0216996,0.000192406
-0.00966072,0.0122484
0.044843,0.0307784
0.0530907,0.0321443
-0.0404651,-0.0181135
-0.11308,-0.034258
-0.0643642,-0.0179831
0.0519131,-0.00495066
0.0111473,-0.00713528
-0.0615242,0.0436174
-0.0585577,0.0523351
-0.00845086,-0.0123824
-0.00385312,-0.0361957
-0.00642302,-0.00386238
0.0320189,0.0193737
0.0461079,0.000932228
0.0310634,-0.00153409
0.0366862,0.010626
0.00928581,0.00927067
-0.0232485,0.0175287
0.0177279,-0.00537347
0.0147801,-0.0223016
-0.0233917,0.00215587
-0.00649966,-0.00259885
0.00170876,-0.0155796
-0.00875594,-0.00335193
-0.0071057,0.00258048
-0.00941076,-0.00405233
0.0102174,-3.75e-05
0.0327228,-0.000671738
0.0367582,-0.00425995
0.0519691,0.00128245
0.0347174,0.00432754
-0.0593099,-0.00921456
-0.0809391,-0.00418593
-0.0581248,0.0330477
-0.0494995,0.0240717
0.0107274,-0.0283581
0.0129943,0.0233263
0.0312076,0.0416163
0.0885475,-0.0133799
0.0192612,-0.0268345
-0.0691794,-0.0316635
-0.0454084,-0.0402837
-0.0245801,0.028288
0.0175406,0.0174127
0.0636631,-0.0041554
0.050819,-0.00273648
0.0194774,-0.00705828
0.00400216,0.0244298
-0.0145558,-0.0135487
-0.039001,-0.0174029
-0.035629,0.00158723
0.0191863,0.0043689
0.0491218,0.00216746
0.0290555,-0.0179363
-0.00793675,-0.0230562
-0.0248954,-0.00740661
-0.0257678,0.0270449
-0.00821607,0.0671992
0.000575695,0.0292064
0.00441161,-0.0222487
-0.0049532,-0.0292843
-0.026692,-0.0209354
-0.0135309,0.0067012
0.0188493,0.018291
0.038825,0.00463919
0.0258646,0.00428891
-0.0352938,-0.0111374
-0.0354399,0.00134686
0.0139259,-0.0222896
0.0337148,-0.011314
0.00646206,-0.0112322
-0.0230237,-0.0120687
-0.00141371,-0.017558
0.0374234,-0.00806269
0.0407722,0.01109
0.0115778,0.0338361
-0.0334711,0.0264214
-0.0406708,-0.0302505
-0.02521,-0.0497684
-0.0182581,-0.0327228
-0.0411988,-0.0289998
-0.047323,0.0120858
-0.00685859,0.0410975
0.00608872,0.0508266
0.0260381,0.0226831
0.0412705,-0.00148566
0.018107,-0.00563246
-0.00142123,0.000232847
-0.0149913,0.00328455
0.0248652,-0.00357395
0.0461026,0.00927666
0.00481193,0.0239601
0.0147436,0.00213919
0.0254382,-0.00499339
-0.034619,0.00196122
-0.0240159,0.00443608
0.0438715,0.0167189
-0.00140726,0.0153614
-0.044657,-0.000302274
-0.0675461,0.0256478
-0.0864126,0.0528965
-0.00560733,0.0533111
0.0777042,0.0018738
0.0596291,-0.103965
0.0252705,-0.06065
0.00787772,-0.0364364
0.00837613,-0.0189811
-0.00597425,0.00880068
-0.0221633,0.00269681
-0.00624839,-0.0061659
-0.00900553,-0.00010812
-0.0390353,-0.00164173
-0.0366228,-0.0253589
-0.0136825,-0.00485173
0.0121914,0.0220914
0.0384992,0.0263146
0.0298941,-0.00302446
0.0200271,-0.0241898
0.0304127,-0.0104936
0.0192442,0.0135819
0.015323,0.0141339
0.0203357,0.0199063
0.00813318,0.000107217
-0.024045,-0.0185224
-0.0451611,0.0092474
-0.0518819,0.0198555
-0.0265824,-0.00208516
-0.0219931,-0.00980026
-0.036224,-0.00755593
-0.0326541,0.00148082
0.0513918,-0.0449696
0.0955059,-0.0499076
0.06958,-0.00701632
-0.0159681,0.00782742
-0.0550576,-0.00639481
0.0149206,0.0182009
0.0581775,0.027665
0.0216843,0.0197716
-0.0104465,0.00611232
-0.0243412,0.00484282
-0.0431872,-0.00501409
-0.0813847,0.0473762
-0.0828328,0.0439075
-0.0249507,0.0238978
-0.0120929,-0.00222644
0.0185278,-0.0205561
0.0565815,-0.0304362
0.0770816,-0.0165622
0.0317176,0.0101119
0.0297478,0.0236801
0.0703792,0.0194762
0.0412105,-0.00232728
-0.00832476,-0.0164449
-0.0455206,-0.0310464
-0.0445394,-0.0166176
-0.00137392,1.24e-05
0.0167784,0.00989914
5.81e-06,0.00991499
-0.00128831,-0.00634325
0.00175772,-0.00886925
-0.0235118,0.0123819
-0.0205107,-0.00336088
0.0192099,-0.0125243
-0.00388978,-0.0100354
-0.0305162,0.000100132
-0.0087619,-0.004371
-0.00079729,-0.00192333
-0.0078383,0.00849281
-0.0291203,0.0188826
-0.0598681,0.027032
-0.04297,0.0234176
-0.0096997,-0.00120612
0.0609513,-0.0494694
0.0623697,-0.0122314
-0.040698,0.0364312
-0.0453635,-0.0362332
0.0424925,-0.0129039
0.0767141,0.0106451
0.0654444,0.016021
-0.00940355,-0.0194896
-0.0432038,-0.0628702
-0.00556325,0.0392354
-0.0176153,0.0275818
-0.0253366,0.0493925
0.0235496,-0.0125747
0.0244122,-0.0426887
0.0103467,-0.0194938
-0.00939482,0.00712342
-0.0186142,0.00923611
0.0195374,-0.01288
0.00656792,-0.0152697
0.00988117,-0.0140862
0.0351333,0.0154185
0.0335277,0.0171448
-0.0425029,0.00202657
-0.0601666,0.000936627
-0.0113942,-0.00016557
-0.0130232,0.0144916
0.00856884,0.0137734
0.0166566,0.00552273
0.00275299,0.00234217
-0.00220885,-0.00107345
-0.0224285,0.0127788
-0.0319494,0.00331936
-0.0110708,-0.0190018
0.00266167,-0.0111298
-0.00397388,0.00401417
-0.000413802,0.022066
0.0112647,0.00151826
0.0443644,-0.0227444
0.0439159,-0.01441
0.0445492,-0.00857416
0.071543,-0.0138246
0.0596401,-0.00872954
-0.046155,0.00501794
-0.0911945,-0.00262351
-0.0543476,0.0101681
-0.0312419,0.0274322
-0.0452987,-0.00936317
-0.0624153,0.0139035
-0.0162413,-0.0135468
0.00842396,-0.0304599
0.0279643,-0.0180488
0.0515262,0.01326
0.0342868,0.034368
0.0281254,0.0128601
0.0302288,-0.00624133
0.0231111,-0.0155507
0.00814997,0.000869547
0.0120672,0.0103073
-0.00551754,0.0133652
-0.0237352,0.0184964
-0.0177626,0.0123515
-0.00860399,0.0185247
-0.0221822,0.00349545
-0.0183286,-0.00654656
-0.0192695,-0.0243106
-0.0677248,-0.0334052
-0.0408992,-0.0146353
0.0327219,-0.0192866
0.0570297,0.00983243
0.0766192,0.0570717
0.0520703,0.0111159
0.00457024,-0.0325666
-0.0379944,-0.0395476
-0.0301844,-0.025829
-0.0064573,0.00493701
-0.00557233,0.0133556
0.0020436,0.0231439
0.0156408,0.0200092
0.00912767,0.0292138
0.0163848,0.00766967
0.0142542,-0.0249743
-0.0136823,-0.00943169
-0.0347473,-0.038022
-0.0189543,-0.0224873
-0.00960592,-0.00176882
-0.0194969,0.0271806
-0.0431208,0.0763516
-0.045858,0.0243279
-0.0246636,-0.0471664
0.0248581,-0.0500032
0.011611,-0.0181379
0.0172533,-0.00409248
0.054525,0.012258
0.0405592,0.0124782
-0.0250698,0.0283873
-0.0232912,0.0584301
0.0213801,0.0699159
0.0140651,-0.0255874
0.0178702,-0.0839877
0.0191521,-0.0290884
0.0227158,0.0225617
0.0254964,0.0600421
0.00659694,0.0167081
0.0189355,-0.0316442
0.0390074,-0.0406998
0.0534715,-0.0260851
0.0431323,-0.0229901
-0.0181191,-0.00808532
-0.111004,-0.0321641
-0.118274,-0.00653886
-0.0782901,0.0210242
-0.0554006,0.0435125
0.00710977,0.0255398
0.0487047,-0.021493
0.0413328,-0.0575869
-0.0141502,-0.0180796
-0.0442001,0.0350585
-0.0124234,0.0105585
0.0346716,-0.00379847
0.0430331,0.0112518
0.0386078,0.00145602
0.0254195,-0.00389113
0.00773455,-0.00178499
0.00309255,0.000114596
0.0238871,0.00603641
0.0193496,0.0133931
-0.000952146,0.00939633
-0.0074016,0.0068848
-0.0127884,0.0313125
-0.0294813,-0.00307348
-0.0175387,-0.0495957
0.0180898,-0.0185745
0.0317942,0.00154887
0.0125075,0.00631216
-0.0262542,-0.00456461
-0.0435883,0.0190307
-0.0279416,0.0482014
0.0296086,0.00360729
0.020626,0.0192044
-0.0405652,0.0084208
-0.0633175,0.0159854
-0.0305509,-0.0246005
0.0256541,-0.00202324
0.032205,0.00917379
0.0162369,-0.0110079
0.0122524,-0.0206412
0.0204515,0.0137965
0.0360277,0.0141241
0.0331644,0.0102926
0.00966613,-0.00806436
-0.0243547,-0.044329
-0.0318205,-0.045629
-0.0244231,0.0196465
-0.0180161,0.0412425
0.00676111,-0.0418149
0.034502,-0.0362594
0.00395169,-0.0137298
-0.0232948,-0.0310899
-0.000111839,-0.0108881
0.0241216,0.00722201
0.00610227,0.0242949
-0.0133714,0.0266427
-0.0399628,0.0105702
-0.0244403,-0.0230662
0.0363989,-0.0255733
0.0635137,-0.0117681
0.0568671,-0.0123519
0.0097255,-0.00673323
-0.0683164,0.0119692
-0.0639871,0.0129588
-0.0185129,0.041922
-0.0158558,0.0323328
-0.038737,0.0309447
-0.0012815,0.0169555
-0.018663,0.00537949
-0.0489495,0.0172044
0.0655687,0.0178359
0.162375,-0.00842645
0.174644,-0.0455754
3.47e-05,-0.0477267
-0.167961,0.0174341
-0.14215,0.0702609
-0.0827193,0.0597983
0.00886798,-0.0218403
0.0442442,-0.026625
0.0179517,-0.00455899
0.0182853,-0.0174683
0.025291,-0.0275837
0.0098969,-0.0013316
0.0014082,0.00938476
-0.0171456,0.00294341
-0.0151413,-0.0160138
0.0182327,-0.0191135
0.00895868,-0.0036199
-0.0218504,0.00758293
-0.0101014,0.000580698
0.0176135,-0.0254333
0.0249553,-0.0145378
0.00974087,0.0364056
-1.46e-05,-0.03275
0.00418303,-0.0399613
0.0196366,0.00651459
0.0406724,0.0139237
0.0606343,-0.00932332
0.0470711,0.0075343
0.00170039,0.0202571
-0.0655961,-0.000882614
-0.0613614,0.000361393
-0.028054,0.00404311
-0.0241105,0.00616625
-0.0070731,0.0304864
-0.00340648,0.0681484
0.0051782,0.0403491
0.0095582,-0.0292569
0.0125119,-0.0345242
-0.00276686,-0.0124306
-0.00841138,0.0148158
-0.00217275,-0.0388839
0.00903083,-0.0403038
0.0101218,0.00463169
-0.00833228,0.0198541
-0.0297253,-0.0056712
-0.0507475,-0.0131414
-0.0261939,-0.0173296
0.0220123,-0.00820396
0.0383435,0.0160221
0.0441769,0.0101106
0.0192166,-0.0107909
-0.02578,-0.0175034
0.00170156,0.0040962
0.0433331,0.00706575
0.0037751,0.00919493
-0.0095983,-0.0400165
0.0378359,-0.0329986
0.0603283,0.121204
0.050482,0.143345
0.0402582,-0.0422234
-0.0280454,-0.104857
-0.111808,-0.0207565
-0.123248,0.011316
-0.089769,0.0243472
0.0164055,-0.00104506
0.0696912,-0.0151868
0.050682,0.0266591
0.0136985,0.00926271
-0.0106297,-0.0312924
-0.011581,0.0205576
-0.00697003,0.00928501
0.0187463,-0.0557792
0.0260903,-0.0247884
0.0152909,-0.0113773
0.0378735,-0.00680186
0.0737062,0.0406902
0.0544299,0.0616144
-0.0686261,0.0276122
-0.174543,-0.0484227
-0.118632,-0.0345493
-0.0509102,-0.00738165
-0.0211513,0.00407101
-0.045102,0.00797668
0.0217907,-0.0568637
0.0504748,-0.0401797
-0.0284013,0.0139448
0.00658362,0.0417238
0.0756554,-0.00114698
0.0995921,-0.00920393
0.102464,0.0301237
0.0398024,0.00142069
-0.0162063,0.0040946
-0.0382654,0.00901401
-0.0380879,0.0121297
-0.00194884,0.0228627
0.0135259,0.0370908
-1.96e-05,-0.00824498
0.014756,-0.0803568
0.0141493,-0.00378013
0.00071037,0.00906763
-0.00368831,-0.0165779
0.0131983,-0.0121596
0.0162353,0.00845394
-0.00109271,-0.00428669
-0.0122164,0.00399036
-0.00624235,0.0085283
7.8e-05,0.014702
-0.00246128,0.0424363
-0.0120094,0.0532723
-0.0257284,0.00523918
-0.0288314,-0.0592501
-0.0279603,-0.0308459
-0.0201534,-0.0228154
0.00467457,-0.0232211
0.0184231,-0.00921725
0.0350712,0.000408394
0.0190315,0.0185659
0.0102064,0.0256419
0.0184688,0.0109056
0.0251755,0.00128148
0.0123891,-0.00971083
-0.030812,0.00635083
-0.0405164,0.00399701
-0.0130768,-0.0157452
-0.0208061,0.00652412
-0.0339869,0.0268943
-0.00237402,0.0105451
0.01904,-0.000580701
0.0160118,-0.0234286
0.0251535,-0.0137219
0.0446061,-0.0159202
0.0216094,-0.0432382
-0.025862,-0.0195756
-0.0309535,0.0428653
-0.0175913,0.045226
0.000329262,0.00504989
0.00410909,-0.0267331
-0.00917872,0.0250152
-0.00771336,0.0332452
0.00056069,-0.0340595
-0.00305828,-0.0213805
-0.00773683,-0.0029367
-0.0195148,0.00608331
-0.0238657,0.0134294
-0.0180082,0.025484
0.0143135,0.0125006
0.0365298,-0.00962652
0.0205589,0.00261692
0.020658,0.0147361
-0.00331616,0.00472618
-0.014221,-0.0196227
0.0125149,-0.00616362
0.0259015,-0.00107342
0.00683924,0.00570804
-0.00286624,0.00966886
-0.0155646,0.00250366
-0.0343006,-0.0217308
-0.0286526,0.0159902
-0.0393653,0.0188492
0.0153287,-0.0365285
0.0468423,-0.043022
0.0446077,-0.00741791
0.0152905,0.0391941
0.0283047,0.00529389
0.0715231,0.0175745
0.0617675,0.00978142
-0.0569594,-0.0158512
-0.113908,-0.0240034
-0.0675356,0.000541894
-0.0172999,-0.0220252
-0.0120976,-0.0179151
-0.00236394,0.00472723
0.00991796,-0.00143624
0.0122981,-0.00620515
0.00372655,0.0041306
-0.00425822,0.0399232
0.000855195,0.0433389
0.0133254,0.0108099
0.0171311,-0.010457
0.0160756,-0.0272114
0.0093889,-0.0371785
-0.00690819,-0.0149307
-0.0162096,0.0189223
-0.0127378,0.0237537
-8.45e-05,0.0117007
-6.3e-05,-0.00186564
0.00811405,-0.00962187
0.00942643,-0.00749785
0.00439097,-0.0116044
0.0205876,-0.00367088
0.0218998,0.00073339
1.6e-05,0.00736048
0.0301012,0.00104795
0.0398207,-0.0158419
-0.0157095,-0.012515
-0.0462039,-0.00169698
-0.0129237,-0.00826919
-0.000360981,-0.00610048
-0.0004575,0.00755053
0.0119342,-0.0106693
0.013746,-0.00186427
0.00245626,0.00175878
-0.00588734,-0.00985816
-0.00759994,-0.0105621
-0.00344247,0.0135842
0.00185696,0.0308198
-0.0125936,0.0112466
-0.0224627,0.0100989
-0.00887934,0.0237094
-0.00733355,0.0217619
-0.0106256,0.023246
0.000481798,0.01043
0.0206889,-0.0197363
0.0267209,-0.0275008
0.00853659,-0.0124984
-0.013846,-0.0117864
-0.0100521,0.00422474
-0.000863588,0.042134
0.00703734,-0.0013383
-0.00170626,-0.0342329
-0.0108695,-0.024177
-0.0219804,0.00399354
-0.0289775,0.00502891
-0.0195829,-0.00130324
-0.0073188,-0.000554467
0.0184938,-0.0136337
0.00883408,-0.00880878
-0.0171953,0.00387361
-0.013533,0.0270999
0.0175311,-0.0041965
0.0167552,-0.0201741
-0.0168412,-0.00575138
-0.000985873,0.0129622
0.0085856,0.0343369
-0.00175681,0.0262682
0.0195162,0.0141264
0.0658893,-0.00306718
0.0573568,-0.00826129
0.000521983,-0.0168177
0.00201159,-0.0246856
-0.0164955,-0.0361289
-0.0538998,-0.0121125
-0.0407095,0.0176945
-0.00775851,0.0236971
0.0276406,-0.00286521
0.0347284,0.00510601
0.020112,-0.0395203
-0.00162683,-0.067334
-0.00989913,-0.0455888
-0.00448747,0.00902684
-0.0145168,0.0419934
-0.0239161,0.0185609
-0.0330798,0.0498211
-0.0278947,0.0526375
-0.014404,0.0632835
-0.00310718,0.0190168
-0.00648516,-0.02973
0.00196773,-0.0101653
0.0114628,0.028401
0.0189584,0.0135757
3.89e-05,-0.0425706
0.0267992,-0.0103445
0.0421529,-0.000686053
0.0300927,-0.038825
0.030317,-0.014923
0.0341443,-0.00307157
0.0122804,0.0176825
-0.0119164,0.000743113
-0.0503903,-0.0113252
-0.0659321,-0.0129411
-0.0179514,-0.0222772
-0.00560518,-0.0144041
0.0132007,-0.00870699
0.0241037,-0.0140491
0.00869543,-0.00551291
-0.0166613,0.0589446
-0.0163377,0.0544854
-0.00237252,-0.0419172
-0.00118136,-0.0134695
0.00247112,0.0103035
0.00330936,-0.000521337
-0.00548219,0.0025433
0.00212085,0.0107955
0.0113478,0.0256946
0.00764062,0.0309504
0.0090245,0.0030314
0.0192937,-0.0150553
0.0140427,-0.00982895
0.012484,-0.00526894
0.019689,-0.00714502
0.00625618,-0.0133352
-0.0262448,-0.00893087
-0.0179405,-0.00954586
-0.00916196,-0.0138541
-0.0179586,0.0030068
-0.015396,0.0127369
-0.00069679,0.000811915
-0.00439324,-0.00941555
-0.0141406,-0.00177206
0.00893137,0.0101096
0.0196734,0.0112269
0.0256714,0.00623067
0.0182773,-0.00955255
-0.000103678,-0.0190643
-0.0160384,-0.012174
-0.0192591,-0.00711618
-0.0267354,-0.0091429
-0.0354679,-0.00271301
-0.0247884,0.0140311
0.00897009,0.0100021
0.0333847,0.00337065
0.0285452,0.00971861
0.0176797,0.00383085
0.0103758,-0.00792342
0.0122659,-0.00561921
-0.00461871,0.00993376
-0.0134775,0.0178433
-0.0105961,0.00913177
-0.0139722,0.022258
-0.0187282,0.0150838
-0.0142337,-0.0375028
-0.0178728,-0.0112509
-0.00355174,0.00670166
0.0141444,-0.0253875
-0.00419518,-0.00563121
-0.00743291,0.00710379
0.00571224,0.000946172
0.00912513,0.00375851
0.00857355,0.00981813
0.00915133,0.00447906
0.00607271,-1.38e-05
0.00117386,0.00253813
0.00162263,0.00685026
-0.000644145,0.0159809
-0.00321957,0.0208533
0.00244273,0.00588777
0.00267251,-0.0146451
-0.00124139,-0.019772
0.00186837,-0.0186459
0.00708204,-0.0183928
0.00865763,-0.0183933
0.00624639,-0.00662355
0.00551068,-0.000461671
0.0078705,-0.0024055
0.0113823,0.00190417
0.014264,-0.000880246
0.0139004,-0.00777098
0.00423241,-0.00944102
-0.00849397,-0.0017452
-0.0109732,0.00247222
-0.0109913,0.0122057
-0.00727962,0.0210165
-0.00675616,0.0291818
-0.00609027,-0.00198682
-0.00623913,-0.0155856
-0.00513581,-0.00451944
0.00324455,-0.00894462
0.00457942,-0.00730175
0.00354106,0.0143544
0.00817456,0.0197192
0.00887053,0.0100401
0.00913096,-0.0135112
0.00874565,-0.0140439
-0.00186816,-0.0183658
-0.0181424,-0.0133681
-0.0282999,0.0119239
-0.0210531,0.0175509
-0.011789,0.0211297
-0.00356186,0.0240585
-0.0077819,0.0269055
-0.0087909,0.026474
-0.00582316,0.0169038
0.00326864,-0.00105828
0.010579,-0.0151571
0.0100869,-0.0165846
0.00990178,-0.00919134
0.0155635,-0.0118021
0.0207707,-0.0120505
0.0212934,-0.00935163
0.0173344,-0.0149498
0.00949231,-0.0231276
-0.00120639,-0.0185008
-0.00341986,-0.0146345
-0.00789707,-0.00599877
-0.0149987,0.00203203
-0.0210742,-0.00425648
-0.027471,-0.0139538
-0.0296411,-0.00910176
-0.0229507,-0.0046957
-0.0108152,-0.00388968
-0.00474683,-0.00272327
-0.00619662,0.00926902
-0.00454996,0.0176029
-0.00372071,0.0121208
-0.0017589,0.0128178
0.00448045,0.00672898
0.00947995,-0.00393233
0.0130504,-0.0099938
0.0104986,-0.00449071
0.00715929,0.000202609
0.000985371,0.00941991
-0.00113524,0.0101665
-0.00230781,-0.00283698
-0.00457014,-0.010733
0.00140507,-0.00281027
0.010557,0.00331192
0.0153754,0.00571631
0.023442,0.0104043
0.0279304,0.0241576
0.0220927,0.025408
0.00704319,0.0195543
-0.00663411,0.0180169
-0.00622007,0.0116057
0.00954284,0.00261404
0.0161582,0.0012525
0.0122714,0.00694227
0.0141653,0.00404511
0.0153524,0.00922821
-0.00931232,0.00126397
-0.033608,-0.0188278
-0.0305276,-0.0237813
-0.0504945,-0.0180176
-0.0304907,-0.0191018
0.00081102,-0.0174523
0.00993232,-0.00533778
0.0142586,0.00992545
0.019372,0.0109613
0.0160558,0.00748231
0.0123731,0.0093772
0.0134546,-0.000774803
0.0103757,-0.00916183
0.0112406,-0.00269943
0.00780135,0.00303978
0.00164485,0.00562872
-0.00619609,0.0128285
-0.00569229,0.00518126
0.00680172,-0.0157845
0.011195,-0.022139
0.0046244,-0.0175924
-0.000245154,-0.0170076
-0.00489144,-0.0161063
-0.0142168,0.000559723
