Comp Ch 3,Comp Ch 4
-0.012693,-0.000841616
0.00912554,-0.00589601
0.0341367,-0.0171079
0.0561677,-0.0261152
0.0544792,-0.0160754
0.0465002,-0.0100815
0.0315668,-0.0109947
0.0121563,0.000254614
0.00185571,0.0146929
-0.010675,0.00679215
-0.0523077,0.000322495
-0.0846446,-0.00576931
-0.0845107,-0.00676307
-0.0649908,-0.00225979
-0.0458466,0.00573304
-0.0219969,0.0264905
0.00134152,0.0255508
0.036938,0.0355127
0.0807868,0.0119438
0.0804959,-0.03276
0.0427266,-0.0319809
0.0109504,0.0150087
0.0137191,-0.00442435
0.0168008,0.00810901
-0.00709948,0.0572742
-0.0543526,0.052692
-0.0873675,0.0333591
-0.0554327,-0.101669
-0.0145516,-0.0369223
0.0143181,0.0651506
0.0745953,0.00623541
0.110976,-0.00120306
0.115984,-0.00177135
0.088206,0.013897
-0.0279321,0.0528389
-0.126543,-0.0287346
-0.132253,-0.0856558
-0.0656364,-0.00779719
-0.0052413,-0.0020816
0.0248455,0.0164656
0.0348989,-0.0134271
0.0244778,-0.00772276
0.00224363,0.03275
-0.0140762,0.0317493
-0.0138853,0.0185516
-0.00405118,0.0180596
0.00477183,-0.023081
0.016943,-0.0446322
0.0394842,-0.00125611
0.044792,0.0203829
0.0441077,0.0182133
0.00218981,0.0408046
-0.0558113,-0.00358217
-0.0555627,-0.0576596
-0.0123073,-0.0224862
0.0258359,0.0153053
0.0419921,0.0107919
0.00552393,0.0180177
-0.0433612,0.00454894
-0.0517641,0.00129406
-0.0426663,0.00435639
-0.0216391,-0.0110575
-0.00147068,-0.0220105
0.0128008,-0.0366225
0.0178766,-0.00451891
0.018574,0.0135728
0.0155624,0.000593672
0.0119243,-0.00431423
0.0154826,-0.00514445
0.0190622,0.0122257
0.0190204,0.0236463
0.0124725,-0.00278122
0.00490034,-0.0187708
-0.000967403,0.0012055
-0.00139057,0.00823089
0.00155005,-0.0160837
-0.00535144,-0.0234686
-0.0190042,-0.0171774
-0.0303814,0.00227487
-0.0410556,0.00653602
-0.0384264,0.000481685
-0.0194315,0.0106336
-0.00563045,0.00921599
-0.00368527,0.000698433
-0.00779768,-0.00201356
-0.0195122,-0.0033178
-0.0112468,0.000428175
0.00875141,-0.00144455
-0.00658998,0.00397725
-0.0378154,0.00783705
-0.0163692,0.00867401
0.0335296,0.0292144
0.0496932,0.0262725
0.0606805,-0.010554
0.0566236,-0.0214364
0.0496604,-0.0161244
0.0473802,-0.0187527
0.0334704,-0.016241
0.0104325,0.00101032
0.00927881,0.0238639
0.00569744,0.00860114
-0.0155744,-0.0159539
-0.0231044,-0.0112917
-0.00627175,-0.012365
-0.00397544,-0.00624999
-0.0306798,0.00603171
-0.0386501,0.00861218
-0.0457905,0.0440988
-0.0350036,0.0318964
-0.00197111,-0.00611454
0.0221507,-0.0115002
0.0402721,-0.0111189
0.034782,-0.0199105
-0.00535625,-0.0176271
-0.026148,-0.00146668
-0.0279646,0.0299001
-0.0246455,0.0493787
-0.0107409,0.0315038
-0.000713955,0.0030282
0.022371,-0.0146044
0.0354289,-0.0163614
0.0303507,-0.022431
0.00905334,-0.0155871
0.00490419,-0.01375
-0.000949474,-0.000222126
-0.00226664,-0.0451469
-0.00790621,-0.0458788
-0.0149207,-0.0298589
-0.00990027,-0.00445607
0.0072889,0.024785
0.0297747,0.0564143
0.0344681,0.0366466
0.0199349,0.0212555
-0.013667,0.0085671
-0.0446064,0.00191134
-0.0504039,-0.000951123
-0.0218126,-0.00596983
-0.00259617,-0.0141573
0.00997259,-0.025951
0.0119855,-0.0240988
0.0113425,-0.00337411
-0.00196351,0.00128121
-0.0077476,-0.0168492
-0.0135084,0.0107697
-0.00857454,0.0325588
-0.00208893,-0.0012101
0.00926436,-0.042559
0.0157511,-0.00930018
0.000429945,0.0318885
-0.0181404,0.0512509
-0.0209898,0.0166576
-0.0216963,0.0067006
-0.0214829,0.0123703
-0.0170394,-0.00964205
0.00291568,-0.0055854
0.00750172,0.00794567
0.00935795,-0.0425858
0.0170694,-0.0206867
0.022228,-0.015712
0.00688303,-0.034204
-0.0081536,-0.0217955
-0.0084049,-0.0171732
-0.00464795,-0.00561536
0.00168888,0.0101631
0.0036738,0.0414017
0.00836528,0.0752086
0.0230413,0.0154706
0.0292561,-0.00673855
0.0195537,-0.00175131
0.0134638,-0.00302912
-0.00535863,-0.00292319
0.000107553,-0.0154629
0.00590757,-0.0042083
0.007299,-0.0299684
0.000477277,-0.0136135
-0.0121699,0.00727461
-0.0238289,0.0320037
-0.0237544,-0.00467267
-0.0241,-0.0395119
-0.00947507,-0.0208243
0.00222687,-0.0156274
0.00179944,0.0387755
0.00457778,0.0533579
-0.00195812,0.0213778
0.00229509,0.0105972
0.00901431,0.0336155
0.0194546,0.0160093
0.0219444,0.0325681
0.00915507,0.0444329
0.00567598,0.00412553
0.0126195,-0.0355813
0.0167427,-0.0864243
0.0089928,-0.0622258
-0.00890656,-0.0439825
-0.0212301,-0.0183344
-0.0230765,-0.0145113
-0.0147459,-0.0113406
-0.0150661,0.00785678
-0.0247288,0.0332562
-0.0256869,0.0166148
-0.017304,0.0177257
0.00526493,0.0401032
0.0126345,0.0204379
0.00216797,-0.0116001
-0.0103952,-0.030229
0.0117804,-0.0192848
0.0166762,0.0124095
0.00650087,0.0559683
0.02492,0.000297564
0.034121,-0.0161472
0.0222664,-0.0399242
0.000742279,-0.0588451
-0.00209913,-0.0306554
0.00411663,-0.0102404
-0.00235079,0.0251938
-0.00776403,0.0358424
-0.00621167,0.0233037
-0.00997727,0.0277838
-0.0165433,0.0287142
-0.00789774,0.0119994
0.00341324,0.0125321
0.00439939,-0.00761302
0.00234126,-0.01894
-0.00822667,-0.0190896
-0.0127079,0.00241384
-0.00297841,-0.0017237
0.00542644,-0.0172602
0.00781845,-0.0213448
0.0128387,-0.013417
0.00774166,-0.00453095
-0.00892513,0.0175022
-0.0229265,0.0552977
-0.0226951,0.0517659
-0.0200331,0.0309803
-0.0174613,0.0333196
-0.0194983,0.0237105
-0.0084927,-0.0112196
-0.00522851,-0.00676206
-0.0239009,-0.0402894
-0.0136786,-0.0256291
0.0015494,-0.00219242
0.0129839,-0.0111825
0.0770535,-0.0349794
0.0715766,-0.031684
0.00769008,-0.021792
-0.0161172,-0.0258138
0.00285942,-0.0241757
7.32e-05,0.00483717
-0.0106154,0.0379598
-0.00119837,0.0407208
-0.00390084,0.0322997
0.000710874,0.0115123
0.0218606,-0.0136587
0.00923581,0.0124429
-0.0137176,0.0110162
-0.00978828,0.0309573
0.0154973,-0.00612352
0.0174022,-0.0111495
0.00523409,-0.0284524
-0.00253785,-0.044437
-0.00588836,-0.0281176
0.00114944,-0.00938174
0.0127648,0.0105711
0.0145685,0.00325898
-0.00322861,0.00857791
-0.0178595,0.0443168
-0.0159611,0.0452413
-0.00578411,0.0263332
0.00324775,0.0204934
0.0129876,-0.0151698
0.0122987,-0.0678844
-0.00391503,-0.057028
-0.0193479,-0.0281102
-0.0192504,0.00330041
-0.00947902,0.0165036
-0.000812438,-0.0037819
-0.00138089,-0.0262568
-0.0202431,-0.0234334
-0.021312,-0.0084258
-0.00966453,-0.00468788
0.000375674,-0.00252668
0.00107282,0.00777745
0.0024189,0.0122689
0.00953268,0.0131295
-0.0040633,0.0179471
-0.0199958,0.00134839
-0.0177409,-0.00879045
-0.010734,-0.0100426
0.00427024,-0.00639926
0.029551,-0.00203891
0.0151885,0.0183518
0.00815382,0.0271949
0.00896045,0.0103292
0.00465812,0.00177835
-8.18e-06,0.0077263
0.00544823,0.00223323
0.00735636,-0.0195685
0.00639331,0.00329079
0.00762322,0.0264267
0.0139639,0.0176031
0.0217051,0.00291274
0.0213101,-0.00498732
0.0196706,-0.0141866
0.0202814,-0.00611499
0.00927714,-0.00784606
0.00138152,-0.00993082
-0.0125483,0.0101536
-0.0239166,0.027072
-0.031663,0.0221765
-0.0368639,-0.00259763
-0.033909,-0.0240649
-0.0233921,-0.0217821
-0.0132292,-0.0162859
-0.0066951,-0.0105359
-0.0048451,0.00967543
0.0107258,0.0221165
0.0289666,0.0207204
0.0298643,0.0131656
0.0365077,0.00674426
0.0404742,-0.0238014
0.0263102,-0.0356547
0.0157781,-0.0181394
-0.00164042,0.000777455
-0.0239443,0.0108339
-0.0330686,0.0395274
-0.024182,0.0236018
-0.0185604,-0.00511655
-0.0110759,-0.0231761
-0.00953973,-0.01571
-0.0131883,-0.0112362
-0.0150524,-0.0103781
-0.013305,0.00775354
-0.00688968,0.0330537
0.0107487,0.0299346
-0.0044328,-0.00344406
-0.00601233,-0.0114322
0.0054147,-0.0164708
-0.0235113,-0.0320561
-0.0574044,-0.0233317
-0.0388261,-0.0212116
0.0188425,0.0167601
0.0383341,0.0497663
0.0181578,0.0184224
0.00307573,-0.00717147
-0.00720976,-0.00843874
-0.0170761,-0.00102297
0.0134837,-0.0147435
0.0313871,-0.0132973
0.0324032,0.0162174
0.0379443,0.0168019
0.0396038,-0.00130687
0.0406918,-0.0134229
0.0376296,-0.0247349
0.0254212,-0.0173398
0.0160928,-0.00688803
-4.74e-05,-0.00590897
-0.0205668,0.00142847
-0.029734,0.0258481
-0.0323269,0.0367998
-0.0260046,0.0251501
-0.0205561,0.0127062
-0.0211915,-0.00624528
-0.0202818,-0.00596697
-0.0161781,-0.00543677
-0.0089774,0.00303333
0.00618716,0.00774604
0.0173462,-0.00426844
0.0206655,-0.0126326
0.00832915,-0.0159877
-0.000161093,-0.0184293
-0.000347797,-0.0209233
0.0102781,-0.00558192
0.00289606,0.000673989
-0.0090092,-0.00334556
-0.0125055,0.0129239
-0.00994381,0.0171475
-0.0134617,0.0135916
-0.0141784,0.02815
-0.0116901,0.0301808
-0.019001,-0.0190648
-0.0335876,-0.038188
-0.0238766,-0.000908719
-0.000798256,0.0304491
0.01194,0.0178791
0.03928,-0.0332217
0.0482597,-0.0462704
0.0314989,-0.00959721
0.0215335,-0.0027934
0.00740054,-0.0206416
-0.00690995,-0.00201283
-0.0125917,0.0352746
-0.012248,0.0440496
-0.0111041,0.0192481
-0.0149598,0.00427685
-0.0164501,0.0109679
-0.0225534,0.0059536
-0.0207654,-0.00447404
-0.00944006,-0.00246574
-0.000794896,0.00865357
0.0192844,0.00266381
0.0367533,-0.00458879
0.0319481,-0.0199299
0.0196096,-0.0294116
0.0129286,-0.0240096
0.00430989,-0.00654454
-0.000559146,0.00238644
-0.000512222,0.00394689
-0.00577123,0.0262371
-0.0080107,0.0341084
-0.0134586,0.0195325
-0.0125908,0.00506402
-0.011528,-0.00496478
-0.0159447,-0.0184892
-0.0179373,-0.0283493
-0.0121572,0.000960066
-0.00147911,0.00751771
0.0215096,0.0194797
0.042109,0.0121072
0.0406432,-0.0303589
0.040091,-0.0411755
0.0455757,-0.0381751
0.0312763,-0.0323589
0.0121828,-0.0185765
-0.00848959,0.00191
-0.0479154,0.0222937
-0.06751,0.0229082
-0.0463303,0.00922426
-0.0317606,0.00884715
-0.00884506,0.00365247
0.00255051,-0.00143008
-0.00487179,4.44e-05
0.00273312,0.00782259
0.0113395,0.0113009
0.00841257,0.00392387
-0.000949115,0.00921561
0.0102544,0.00325037
0.0166738,-0.0100579
0.00802626,-0.010718
0.000744384,-0.00143286
-0.0131695,0.00858583
-0.0307006,0.0304183
-0.0269581,0.03873
-0.0233441,0.019147
-0.0175385,0.00514459
-0.00510341,0.00522733
0.0172783,-3.55e-05
0.0180109,-0.00945275
0.0188642,-0.00699211
0.0219921,0.000842205
0.0199638,-0.00419198
0.0191836,-0.0123487
0.0177552,-0.0182922
0.0116839,-0.0177235
0.00237051,-0.0107383
-0.00223244,-0.00272748
-0.00369966,0.0214826
-0.00358109,0.0186377
-0.00123525,0.0184732
-0.00623191,0.0264983
-0.0138962,0.0134922
-0.0185459,0.00724399
-0.0183472,0.0323573
-0.00556139,0.0375524
0.00298795,-0.0249766
0.00544099,-0.0760087
0.00785689,-0.04628
0.0117898,-0.0607745
0.0085721,-0.0489293
-0.0230686,-0.0133726
-0.0320187,-0.0134493
-0.000608472,-0.0237835
0.00872791,-0.00695692
0.00212641,0.00480389
-0.0068443,0.0231038
-0.00718617,0.0237424
-0.00884033,0.015292
-0.00412766,0.00599869
-0.00328363,0.0299363
0.0137363,0.0270578
0.0421086,-0.032162
0.017463,-0.0432995
0.0115413,-0.00053563
0.0123765,0.00981733
-0.00819182,-0.00606894
0.00200515,-0.00829691
0.0115012,0.00424814
-0.00313444,0.00752859
-0.00689714,0.0102543
-0.00407855,0.00952283
-0.00334819,0.00978252
0.00158959,0.0385845
0.0128814,0.0284271
0.00801393,-0.0140074
0.0009624,-0.0358115
0.00165701,-0.0207817
0.00152091,0.0114606
-4.19e-05,0.00511731
-0.00420017,0.00981686
-0.00883497,0.0273446
-0.00957171,0.0173805
-0.00942857,-0.0161247
-0.0164988,-0.00310756
-0.0251843,-0.0016219
-0.0195232,-0.00609632
0.0169553,0.00788376
0.0372933,0.0122957
0.0122544,0.0196117
-0.0169228,0.0170703
0.00323683,0.0185645
0.0202092,0.00803461
0.00331737,0.00721585
0.013971,-0.00311459
0.00297699,-0.0219302
-0.0158486,-0.00758314
-0.0285784,0.0202143
-0.0332651,0.0198884
-0.0317112,-0.0168186
-0.0435168,-0.0137578
-0.0144866,-0.0040602
0.0278756,-0.0135311
0.0289848,-0.0176413
0.0192467,-0.00614784
0.0199158,-0.00409643
0.0157093,0.00996687
0.0108266,0.0164274
0.0113042,-0.00097553
0.0112229,-0.00386729
0.00396675,-0.0217794
0.00503359,-0.0224877
0.0104415,-0.0244861
0.0026002,-0.0213854
-0.00764056,0.0315742
-0.00728521,0.0602742
-0.00314639,0.0180183
-0.00219776,-0.0293556
-0.00870809,-0.0223313
-0.018311,-0.0021876
-0.0275221,0.0186261
-0.0233346,0.00177492
-0.0177098,-0.0137586
-0.0151744,0.00849887
-0.0108551,0.0392455
0.000978734,-0.0124007
0.0130867,-0.0415722
0.0155234,-0.0359722
0.0213441,-0.0211576
0.0213931,0.00591243
0.0122755,0.0303878
0.0055709,0.0465372
0.0140307,0.0176428
0.0265611,-0.0118669
0.00376157,0.0286796
-0.0310489,0.0165404
-0.0337771,-0.0132142
-0.0197879,-0.043383
-0.00449476,-0.0289275
0.006254,0.0104119
0.0109463,0.0196755
0.0205162,0.00600836
0.0368345,-0.00801183
0.0343532,-0.0164294
0.0126554,0.00126939
0.00938701,-0.00648793
0.0062086,-0.0283832
-0.000338665,-0.00460682
-0.0045122,-0.0016814
-0.00779573,-0.00939109
-0.0165057,0.00504664
-0.0218836,0.0120215
-0.030545,0.0158066
-0.0172124,0.0184775
-0.00963658,0.00300943
-0.00837647,-0.0302407
0.0107555,-0.0132251
0.0298103,0.0261976
0.0302557,0.0166876
0.0186383,-0.00461905
0.00541341,-0.0103906
-0.014227,-0.00729787
-0.0248876,0.0122543
-0.027348,-0.00346256
-0.0190227,-0.0401771
-0.00947024,-0.014505
-0.00416054,0.00192127
-0.00936545,0.0168657
-0.00650806,0.00773145
-0.00310219,-0.00616608
-0.0012223,-0.0060006
-0.000315012,0.0167484
0.00751268,0.00465702
0.00833078,-0.0139731
0.00638507,0.0136333
0.00736303,0.0111585
0.0107323,-0.00403944
0.0209129,-0.000600135
0.0179917,-0.0028746
0.0133877,-0.0107848
0.00239475,-0.0138404
-0.026961,0.00665072
-0.0340984,0.00680416
-0.0138438,-0.00493992
-0.00820659,0.00404257
-0.00143698,0.00124209
0.0011131,-0.0145823
-0.00393503,-0.0145614
-0.00113885,0.0226604
0.00634143,0.0204045
0.00668281,0.0162393
0.00758283,0.0102727
0.0200852,-0.00558297
0.0227511,0.0257371
0.016093,0.0459308
0.0174698,0.00981598
0.0204191,-0.0225175
0.00609237,-0.0323895
-0.0131248,0.00197879
-0.022117,0.00559077
-0.0172559,-0.00198101
-0.0054189,0.00398027
-0.00781121,0.00133475
-0.0105823,-0.0144865
-0.0102785,-0.0292939
-0.0101356,0.00787862
-0.0126246,0.0589773
-0.0185849,0.0492823
-0.0226055,0.0210318
-0.0123865,-0.00832061
0.0124558,-0.039431
0.0293548,-0.0290569
0.0310386,-0.0278653
0.0328518,-0.0143249
0.0118876,-0.0133606
-0.0114493,-0.00470262
-0.0146077,0.0295973
-0.0245131,0.00985023
-0.0108821,-0.00935209
0.00186611,-0.0275756
-0.00200003,-0.0284239
-0.00405698,-0.0173925
-0.000232198,-0.00852894
0.00930774,0.00788826
0.0235855,-0.00268705
0.0311684,0.0120509
0.0327033,0.0155708
0.0249248,0.00374623
0.0122178,-0.00828639
0.00328139,-0.0157256
-0.00773339,-0.00555199
-0.0199748,0.0243103
-0.0282413,0.0183575
-0.0302831,-0.000322102
-0.0371888,0.00455849
-0.0426573,-0.00904979
-0.0398286,-0.0182434
-0.0251074,0.0028707
-0.0105434,0.0171406
-0.00515298,0.0136508
0.00345839,0.0142828
0.0331364,-0.00418056
0.0507449,-0.0141048
0.0387625,0.0094549
0.018885,0.0110717
0.021417,-0.00903805
0.0233484,-0.0332182
0.0124745,-0.0103896
0.00755248,0.00992316
0.0174088,0.000102252
0.0190092,-0.0044296
0.0144735,0.027811
0.0143796,0.0651385
0.00920709,0.0328756
-0.01299,-0.0465039
-0.0403488,-0.0304483
-0.0438342,-0.0134647
-0.0278213,-0.00499144
-0.00612889,0.008053
0.0049662,0.00710561
0.00527897,0.0109108
0.000982754,0.0250507
0.00521814,0.0275968
0.00670384,-0.0207767
-0.0105321,0.00541744
-0.0240733,-0.0188507
-0.0216453,-0.0427938
-0.0159995,-0.0366132
-0.00633378,-0.0383794
0.00876041,-0.0279304
0.0248249,-0.0146935
0.0198059,-0.0120719
0.00176851,0.00825224
-0.00921541,0.0224962
-0.00689285,0.0396638
0.0024803,0.0468835
0.00738435,0.0150113
0.00716162,-0.0173462
-3.69e-05,-0.0224001
0.00899841,-0.0128018
0.00155411,-0.0117367
-0.0175463,0.00640233
-0.0209673,0.0177862
-0.0156805,0.0037239
-0.00996228,0.00561925
-0.00905234,0.00091609
-0.00906293,-0.00299896
0.00179079,0.0148954
0.0238164,0.016825
0.0205707,0.00841669
-0.00277344,-0.00273406
0.00400224,-0.00453553
0.0350699,-0.01387
0.0502601,-0.0120497
0.0355228,0.00367247
0.00956462,0.0154943
-0.0214195,-0.00243854
-0.0396091,-0.005633
-0.0396452,0.0107045
-0.0330374,0.0138727
-0.0176512,0.0169099
-0.0193405,0.00637001
-0.00106964,-0.0326363
0.00278394,-0.025492
-0.0279241,0.000163574
-0.0246505,0.015621
-0.0111247,0.0239096
-0.0340838,0.00788966
-0.0423835,-0.0106025
0.0200657,-0.0149767
0.0369723,0.0115178
0.0194436,-0.0171588
0.0558158,-0.04062
0.0451925,0.0151955
-0.00565237,0.111364
0.00843811,0.0328688
0.00721737,-0.0533739
-0.0161097,-0.0239394
-0.00467572,-0.0122235
0.00274139,-0.033701
0.0148686,-0.0428059
0.0425983,-0.00605377
0.0464126,0.014455
-4.96e-05,0.0145145
-0.0113745,0.0336558
-0.0128183,0.0237899
-0.00520126,-0.00966999
-0.0108561,0.0117917
-0.0120558,-0.0315812
0.0181006,-0.0425291
-0.0118928,-0.0252409
-0.0205041,0.00521436
-0.00461049,0.0527689
0.00210485,0.023564
0.0160241,0.00509311
0.00360889,0.000195245
-0.0148495,0.0133197
-0.0113849,0.0427767
0.00323733,-0.0501525
0.00700487,-0.0443884
-0.00545966,-0.00541486
0.00602051,0.0141398
0.0120021,0.0221199
0.00876111,0.0128368
0.00975865,-0.00558347
0.0185897,-0.00129393
0.0174688,-0.0185417
-0.0174218,-0.00575576
-0.04335,0.00907753
-0.0244591,0.00098577
0.000112469,0.00093958
0.0077497,0.00658097
-0.0170738,-0.00165321
-0.0365354,-0.0224343
-0.00487068,-0.0235489
0.0127097,0.00456952
0.0184508,0.0245231
0.0204654,0.0523506
0.0168886,-0.000835538
0.0142139,-0.014835
0.0071711,0.00663805
0.0114296,-0.00842943
0.00444714,-0.00860281
-0.00326076,0.00731185
-0.00610429,0.00188623
-0.0035762,-0.0161661
0.00318451,-0.00543699
-0.00141332,-0.00229374
-0.0172392,0.00551932
-0.0115337,0.00666519
0.00130084,0.00412141
-0.00162207,-0.00651231
-0.0147359,-0.0299545
-0.0159201,-0.00260967
-0.00878726,0.0281737
-0.00955487,0.0213848
-0.00504167,0.00943669
-0.000915939,0.000993573
-0.00914723,-0.00253609
-0.00261567,-0.0315932
0.00921507,-0.0367616
-0.00456384,-0.00219347
-0.00868099,0.00305962
-0.0126512,0.00276838
-0.00114337,-0.0117648
0.00282561,-0.0132555
0.0134192,-0.00660881
0.0350112,0.00714445
0.0470811,-0.00118859
0.0294156,0.00636175
0.00269182,-0.00949993
-0.0052851,-0.0149078
-0.010293,0.00144716
-0.00514392,0.0055542
-0.0171968,0.0287975
-0.0223229,0.000224153
-0.00107228,0.0146586
0.015244,0.0302505
-0.00511933,0.0229436
-0.0112976,-0.0253403
0.0218991,0.000726945
0.0250731,-0.00490203
0.0132254,0.00980061
-0.00391499,0.00738612
-0.015963,-0.0632132
-0.02937,-0.0244348
-0.0602177,0.0226372
-0.0502298,0.0259068
0.0104441,-0.00794764
0.0300116,-0.0417971
-0.0241424,0.00989351
-0.0591001,0.0489833
0.00288339,0.00487546
0.0237044,-0.00408299
0.017471,0.0278708
0.0520227,0.021442
0.0297899,-0.0226823
0.0340826,-0.0326278
0.0264003,-0.00717178
0.0248029,-0.000338497
0.0203869,-0.00213938
0.0058471,0.0192416
-0.0234354,-0.00389587
-0.0273635,-0.00190621
-0.0289425,0.0363577
-0.0201221,0.00967291
0.0143757,-0.0186716
0.00924992,-0.0332348
-0.00481668,-0.0165692
-0.00510297,0.00222007
0.0183563,0.0150821
0.0212817,-0.00635679
-0.0156335,-0.040125
-0.0548514,0.0236799
-0.0587295,0.113691
-0.0243145,0.045676
0.0149391,-0.0771626
0.0329077,-0.0521165
0.0192255,-0.0109255
0.0137818,0.0240121
0.0304059,0.00861781
0.0492224,-0.0292948
0.0669324,0.00455148
-0.0024855,0.0387108
-0.0352747,-0.00621747
-0.0187977,-0.0344105
-0.0155646,-0.00665849
-0.0154961,0.0206616
-0.0112823,0.0184414
-0.0213176,0.0107596
-0.0198704,0.0163567
0.0424097,0.00423655
0.100411,-0.0358884
0.0381077,0.0114351
-0.0147285,0.0225142
-0.054098,0.00854724
-0.115999,-0.0109637
-0.0859701,-0.0300685
-0.0337024,-0.0393928
-0.00837054,-0.0297584
0.115946,-0.0114123
0.145581,-0.00907501
0.0979836,-0.00861847
0.00353145,0.0095649
-0.0849912,0.0237368
-0.106712,0.0326583
-0.05161,0.0558323
0.00196913,0.00482723
0.00210654,-0.0228312
0.00316621,-0.0126808
-0.0365526,-0.0219264
-0.033234,-0.0241139
0.0220958,-0.0469191
0.063801,-0.0535649
0.076013,0.00938552
0.0265506,0.0636211
-0.0380064,0.00545781
-0.0934088,-0.027099
-0.0959979,0.00297777
-0.031142,0.0172411
0.0466113,0.0105863
0.0700793,0.0954235
0.0907688,0.0825188
0.0299883,0.0595081
-0.0860727,0.00837066
-0.0730763,-0.0763352
-0.0342375,-0.0975626
0.0076305,-0.0523575
-0.0162517,0.0609093
-0.0167509,0.0868214
0.0561468,-0.059689
0.0384193,-0.0398069
0.0288991,-0.0440958
0.0703856,-0.0423364
0.0761527,0.00598352
0.0487719,0.0306596
-0.0612634,0.0653254
-0.0819652,-0.0188988
0.00196158,-0.00102978
-0.0250024,0.0532792
-0.107171,0.0599666
-0.146912,-0.0064954
0.00322457,-0.116479
0.0999093,-0.0600985
0.0316249,-0.0122357
0.0858095,0.0316834
0.0401294,0.09773
-0.0208589,0.102433
0.114523,0.0507897
0.12619,-0.0615866
-0.0115228,-0.0600985
-0.163733,-0.0527968
-0.175329,-0.0750175
-0.142564,-0.0439268
-0.0349578,-0.0251359
0.0633916,-0.00732038
0.0595221,0.0327304
0.0979149,-0.027568
0.14911,0.0259596
0.0910961,0.0158788
0.010144,-0.0225495
-0.00207918,-0.040093
-0.00747173,-0.0393586
-0.033361,-0.00497697
-0.0622507,0.0361111
-0.0230235,0.0279309
0.00132762,0.0592248
-0.0090227,0.0597586
0.00297707,-0.0408861
0.0749606,-1.65e-06
0.102849,0.00780878
0.0632454,-0.0355708
0.0398851,-0.00672042
-0.0683179,0.0344313
-0.0993536,0.00392425
-0.017448,-0.00848235
0.0181459,0.0509349
0.0105353,-0.0418279
-0.0292385,-0.0419377
-0.0530254,0.00970024
-0.0695208,0.0254418
-0.106487,0.0374413
-0.095341,0.0339786
-0.0588042,0.00626547
-0.0211944,-0.0226599
0.0831747,-0.0130107
0.11373,-0.00584702
0.00140354,-0.00942766
-0.053872,0.00770791
-0.0449166,0.0187063
0.0100552,0.0125996
0.0368319,0.0085956
0.0326278,-0.0290254
0.0338605,0.0255164
0.12632,0.0650135
0.319691,-0.00439669
0.320072,-0.00346782
0.179819,-0.0156089
-0.033831,0.00286447
-0.226476,0.00722751
-0.29987,-0.0493527
-0.294923,-0.0337972
-0.276421,0.00159317
-0.179988,0.0803084
-0.0127295,0.0369799
0.0876155,-0.00344791
0.0574242,-0.0237277
0.0211537,0.00550621
-0.0374158,-0.0248479
-0.0794455,-0.0522175
-0.0995404,-0.00977191
0.0259371,0.0145643
0.098173,0.0455094
0.0864064,0.0161079
0.0289097,-0.0671725
-0.0272336,-0.0230799
-0.0107732,-0.01619
0.0643226,0.00941561
0.115766,-0.0455674
0.194945,-0.0678306
0.145904,0.0252261
0.0624342,0.0777603
0.0582573,0.0347051
0.00590568,-0.0435046
-0.12494,-0.00652275
-0.179604,-0.041931
-0.0805932,-0.0341023
0.000338026,0.00880413
0.0591234,-0.0101222
0.0222782,-0.0137635
-0.0673308,0.0103819
-0.105776,0.0255608
-0.0860745,0.0275803
-0.0168888,-0.013489
-0.0210092,0.00656341
0.0256353,0.00448917
0.0739818,0.051401
0.0968889,0.109109
0.0702008,0.047971
0.01977,0.0193397
0.0565116,0.0178736
0.114251,-0.0321904
0.0860896,-0.0766814
0.0178179,-0.084001
-0.0189915,-0.0378685
-0.0477996,-0.0148073
-0.108529,0.0219732
-0.0837135,0.0493347
-0.0321653,0.0123478
-0.00908788,0.0208639
-0.0140541,0.0285508
-0.0212716,0.00670757
-0.0427074,0.0223242
-0.0561425,0.0197561
-0.0444077,-0.00572437
-0.0304122,-0.0294011
0.00939204,-0.0393941
0.0275334,-0.0276645
0.00386663,-0.0237463
0.0104534,-0.02184
0.0355126,-0.0144825
0.0264293,-0.00757044
0.0284421,-0.0173751
0.0219397,0.0577916
0.0224554,0.0329845
0.0477622,-0.0512307
0.0452497,-0.0516348
0.000851561,-0.0273948
-0.0113681,-0.00343559
-0.0492954,0.0089054
-0.11031,0.0220483
-0.109842,0.0345836
-0.11484,0.0275241
-0.0443851,0.0154431
0.103334,-0.010632
0.15245,-0.0443912
0.0790267,-0.0178973
-0.00761604,-0.0269036
-0.0180689,0.00944506
-0.00476866,0.0717421
0.0306261,0.0318856
0.0261441,-0.0250016
-0.0182927,0.0069685
-0.0174515,0.044629
0.0413972,-0.00755665
0.0863181,-0.0192128
0.0746573,0.0153091
0.0480356,0.0220731
0.0459087,-0.0110844
0.0500522,-0.0375328
-0.000906084,-0.01192
-0.0756955,0.00376619
-0.0969077,-0.0401518
-0.092933,-0.0270123
-0.0524292,-0.000804148
-0.0331578,0.0159863
0.00678263,0.0613929
0.0418363,0.0386187
0.0480914,0.0279856
0.041074,0.0113992
-0.00460152,0.0189717
-0.0695432,0.028216
-0.0564652,0.0213135
-0.000260577,0.0308007
0.0220741,-0.0156386
0.0111621,-0.0435754
-0.0003698,-0.0623663
0.0151698,-0.0486649
0.0165106,-0.0452752
-0.0680698,-0.0401612
-0.0683256,-0.00736373
-0.00733284,0.00657147
0.0362688,-0.0186897
0.0193964,0.00126694
0.0105579,0.0118302
0.00343457,0.0133232
-0.00966491,0.04149
-0.0153007,0.0131339
-0.00414295,-0.0260938
0.0153102,-0.00471736
0.0242711,0.00600685
-0.00251467,0.0352454
0.00923363,0.0402698
0.0405864,-0.0170965
0.0325281,-0.011178
0.0109228,0.024351
-0.0050046,-0.0111114
-0.010809,-0.0365883
-0.0155751,-0.0182324
-0.0073456,-0.0073799
-0.00896497,0.00377506
-0.00419379,-0.00312642
0.0062746,-0.0146133
-0.0211355,-0.00842178
-0.0542443,0.00115189
-0.0632974,0.000819599
-0.0404044,0.00215354
-0.000123782,0.0357629
0.0489968,0.00512451
0.0530964,-0.0274702
0.0137158,-0.00899604
0.00928128,0.0180176
0.0476809,0.0198261
0.0293287,0.023751
-0.024142,-0.000183136
-0.0472869,0.00540883
-0.0473143,0.0276384
-0.0744814,0.0343225
-0.0702939,-0.00435031
-0.00969288,-0.0363746
0.10331,-0.0148486
0.131975,-0.00901322
0.0969052,-0.0235968
0.051857,0.0267617
-0.0370752,0.00328083
-0.0836011,-0.0367379
-0.0727125,-0.0354405
-0.00396496,-0.0270931
0.0146882,-0.030417
-0.00857756,-0.0288099
0.00607914,-0.0243069
-0.00276068,-0.00972427
-0.0175837,0.0233246
0.00858312,0.00392201
0.0394947,-0.0142973
0.0831162,0.00876228
0.0752329,0.0135812
-0.0160818,0.0082697
-0.0636347,-0.0072467
-0.0246853,0.00564313
-0.0310563,0.108361
-0.0297726,0.0701485
0.040237,0.0284299
0.0668286,0.0130553
0.0375022,0.00264634
-0.0129048,0.0585141
-0.0502666,0.0281824
-0.0660929,-0.0150216
-0.0598577,0.0242386
-0.0368363,0.059144
-0.0150678,0.0361034
-0.00614902,-0.0353246
0.000525372,-0.0228928
0.0243464,-0.0129981
0.0366748,-0.0614688
0.0257965,-0.0910814
0.0206389,-0.0733337
0.0155912,-0.0107223
-0.0087657,-0.00297715
-0.0271285,0.00478872
-0.045908,0.0113495
-0.0221876,0.0092341
0.0145374,0.0332671
0.0248738,-0.000729388
-0.00644913,-0.0203896
-0.0104517,-0.0440607
0.00295847,-0.0151452
0.0109819,0.0358492
0.0148594,0.0305744
0.0183542,0.00379457
0.0315748,-0.00838559
0.035013,-0.0078881
0.0266862,0.00340229
0.0113547,-0.011499
-0.0117523,0.0108035
-0.0301372,0.021855
-0.0227342,0.00838011
-0.00184868,0.00337597
-0.0458513,-0.00134997
-0.0935316,0.00159689
-0.0625603,0.0136475
0.00672961,0.0147191
0.0430995,0.00958607
0.0523305,0.0110063
0.0462576,0.00739265
0.0218706,-0.00244283
-0.0177384,-0.00111309
0.00384283,-0.0107511
0.0457174,-0.0306557
0.0455538,-0.0262753
0.013732,-0.0308024
-0.0169508,-0.00474482
0.0126558,-0.0076547
0.00519763,-0.00207498
0.0159419,-0.00400018
-0.002827,-0.00124961
-0.0320507,0.00907734
-0.0163039,-0.0284689
-0.0171028,-0.00145872
-0.0197145,0.00895482
-0.0106017,-0.00969326
0.00647311,-0.0170847
0.0118199,0.0136107
-0.00855856,0.047481
-0.00945328,0.0136867
0.00105868,-0.00209819
-0.000755964,-0.0189672
0.00117802,-0.0124674
0.0231396,0.0023502
0.000482476,0.0011344
-0.0160862,-0.00155523
-0.00188051,0.0136129
0.00654185,-0.0316252
0.00870331,-0.0144711
0.0166708,0.00873272
0.00964441,0.00671415
-0.0138878,0.00936131
-0.0187956,0.00199546
-0.00522986,-0.025182
0.00494095,-0.00589355
-0.00550554,-0.000363474
-0.0253475,-0.00979457
-0.0247286,0.00871492
-0.0204749,0.0234235
-0.0187076,0.00482546
-0.0161416,1.39e-05
-0.0112033,-0.00788915
-0.0167826,-0.0139461
-0.00564651,-0.00747072
-0.000468535,-0.00469805
-0.00875894,0.0194331
0.0281423,0.00709168
0.0304468,0.0213113
0.0135838,0.0558226
0.0290286,0.0223684
0.0741438,-0.00856906
0.0484768,0.0089803
0.0297555,0.0351966
0.0784649,-0.0480505
0.0244437,-0.0341359
0.00702822,-0.0120347
0.0680136,0.0294485
0.11541,0.00122606
-0.00770407,-0.0350716
-0.173813,-0.0324507
-0.213051,-0.0330331
-0.145672,-0.0190278
-0.109718,-0.00906974
-0.0830378,0.00275877
-0.0104488,0.028991
0.0901469,0.0330767
0.0997196,0.0544014
0.0480939,0.0598532
0.01045,0.0222336
-0.0304607,-0.0157719
-0.0231691,0.000106848
-0.0040835,0.000295986
0.00627632,0.0184233
0.0181483,0.00617979
0.0328805,-0.0100174
0.0522185,-0.0539083
0.0375449,-0.0645181
0.0110066,-0.0281442
0.028807,-0.0205588
0.0226961,-0.00619719
0.00582728,0.0105055
0.000273657,0.0257077
-0.00536377,0.0245038
-0.00889665,0.00731967
-0.0148704,0.00116781
-0.0212655,0.0101495
-0.0163651,0.0107285
-0.00499419,-0.00221412
0.00342282,-0.013562
0.00263853,-0.00779738
0.000927117,-0.00113738
0.00748547,-0.00329924
0.0121954,-0.00503004
0.0178914,-0.011915
0.0186328,-0.0212155
0.012074,-0.00500157
0.00679093,-0.01215
0.00525147,-0.00290524
0.00314738,0.00535103
0.000992382,0.00287259
0.000312081,-0.00402466
-0.00371031,-0.00405649
-0.00918669,0.0076342
-0.00295463,0.021605
0.00321994,0.00548858
-0.0112322,0.0226599
-0.0544204,0.0500171
-0.0894018,0.0316247
-0.0771251,-0.0361641
-0.0446339,-0.00809135
0.016863,-0.0154474
0.113857,-0.021417
0.138739,-0.00945193
0.0992848,-0.0201828
0.0370076,-0.00200724
-0.090419,0.00235626
-0.169972,-0.00864301
-0.0939135,0.007739
-0.0172732,0.0224231
-0.0108938,0.0169979
-0.00959204,0.00236603
0.0287847,-0.020115
0.0203823,0.014052
0.0132991,0.0393865
0.0694002,0.0134146
0.0880418,0.0142218
0.103692,0.00773333
0.0449568,-0.0161605
-0.0431994,-0.0226411
-0.0769393,-0.0185958
-0.0443022,0.000284677
-0.00533758,-0.000606092
0.0225848,0.00930614
0.0341494,0.00389307
0.0209218,-0.0311845
0.00383681,-0.0218933
-0.00176716,-0.00759705
-0.000368257,0.00851274
-0.00363414,-0.0165114
-0.0163407,-0.0112569
-0.0256177,0.00694692
-0.0246094,0.0131761
-0.0229936,0.0184505
-0.0129126,0.00800426
-0.00454808,-0.00384455
-0.00525347,-0.00152113
-0.00868933,0.00633989
-0.00479195,0.00672136
-0.00499221,0.0117939
0.00205641,0.0111288
0.0101274,-0.00329065
0.0132414,-0.0149137
0.00870244,-0.0138241
0.00894484,-0.0195716
0.0152236,-0.016896
0.00791136,0.00144298
-0.00636602,0.00873946
-0.0118837,0.0115864
-0.0159368,0.00689497
-0.0210643,0.00982373
-0.0128277,0.00723754
-0.0069649,-0.00885327
-0.0209509,-0.00290364
-0.0367955,0.0404459
-0.0290432,0.0630067
-0.0206891,0.0267057
0.00284163,0.000654451
0.0262583,-0.0379733
0.0452074,-0.0441624
0.0507114,-0.015579
0.00821671,-0.00655828
0.00427608,0.0391568
-0.0277323,0.015001
-0.0387897,0.0161445
-0.00534887,0.019109
0.0469156,-0.0224784
0.0802263,-0.0472514
0.0823391,-0.0345912
0.0606923,-0.0145506
-0.0235135,-0.000222228
-0.0948165,-0.0021754
-0.0872868,0.0144461
-0.0190535,0.0330372
0.00858615,0.0189427
0.0064757,-0.0307607
0.022521,-0.03728
0.034332,-0.0251234
0.0280602,-0.00409023
0.0102284,-0.0346993
-0.0105512,-2.44e-05
-0.0162177,0.0368098
-0.00961338,0.0221178
-0.00610077,0.018815
-0.000940405,0.0117398
0.000646561,0.00265203
-0.00611685,0.00264223
-0.0134631,0.00823492
-0.0148732,0.00273355
-0.0171484,0.00999087
-0.00969979,0.015431
0.0141661,-0.00353138
0.0149706,-0.0147165
0.0061359,-0.0111732
0.0185354,-0.0152232
0.00471009,-0.0157431
-0.0187706,-0.00127684
-0.0258173,0.0226065
-0.0343993,0.0351701
-0.035197,0.00811078
-0.0175575,-0.0109619
0.0248232,-0.00251113
0.0589077,-0.00109397
0.0312734,-0.00291749
-0.0103809,-0.00340275
-0.0238905,-0.009073
-0.033168,0.000604867
-0.0380233,-0.00535592
-0.0270333,-0.011353
0.0151175,-0.00740583
0.027623,-0.0358102
0.0615234,-0.047045
0.0709744,-0.0291218
0.00734963,0.0353335
-0.0556014,0.0658247
-0.00144563,0.00922907
0.029975,0.00654747
-0.00771406,0.0166193
-0.0497083,0.0221329
-0.0150146,0.000379232
0.0225697,-0.00268028
0.0480332,-0.0134809
0.0381401,-0.00516431
-0.0120858,-0.0276689
-0.0326649,-0.0324282
-0.0262395,-0.0184247
-0.0233562,-0.0263314
-0.0126219,-0.0169302
0.0205463,-0.000881478
0.0410334,-0.00764385
0.0269909,-0.0077792
-0.00173508,0.0193637
-0.00966884,0.0210829
0.000790757,0.0124288
0.0174431,0.00823969
0.0313104,-0.00357
0.0270974,-0.00264712
0.0107005,0.0219902
0.0117852,0.0440544
0.00627493,0.0566925
-0.0230878,0.00742543
-0.0444233,-0.0311956
-0.0300113,0.0191328
-0.00176473,0.0276939
0.0371122,-0.0207696
-0.022297,-0.0443854
-0.081178,-0.0586239
-0.065461,-0.033872
-0.0217689,-0.00631219
-0.00108806,0.0163654
0.028942,0.0254368
0.0382572,0.000504851
0.0447025,-0.00192706
0.0432297,0.00441412
0.0361339,0.0121915
0.052007,0.01288
0.0337498,0.0253696
0.00295502,0.0135059
-0.0159743,-0.00700878
-0.0346429,-0.0217569
-0.0572994,0.000891027
-0.0573325,0.0204292
-0.0189361,0.0577388
0.00299484,0.0321577
-0.00515276,-0.0401087
-0.0191564,-0.0304322
-0.0266634,-0.00167839
-0.0120987,0.00549138
0.0152805,-0.010862
0.0146589,-0.0118972
0.00607842,-0.000189597
-0.00525077,-0.00614003
-0.00906468,-0.00732384
-0.0037218,0.000248432
0.0144308,-0.00184322
0.02717,-0.0155669
0.0238801,0.00813476
0.0309948,-0.0281936
0.0281477,-0.041187
0.0223206,-0.0349956
0.0104194,-0.00194901
-0.00195354,0.0310573
-0.00847155,0.0225892
-0.0166046,-0.00672799
-0.0262539,-0.023014
-0.0288093,-0.00719425
-0.0164698,0.0103802
-0.0157236,0.00593608
-0.026243,-0.0226983
-0.0160187,0.0175921
-0.00196804,-0.00495867
-0.0424109,0.0269098
-0.0876028,0.0462945
-0.0152096,-0.0609687
0.0289539,-0.052751
0.0451637,-0.0343178
0.0741465,0.0163862
0.0194054,0.0422216
0.0117752,0.035339
0.0113239,0.0467668
0.0174702,0.0465436
0.0212802,0.0211876
0.0187558,0.0051263
0.00431362,-0.0288734
-0.000682766,0.000843438
-0.00890726,0.00277523
-0.0124038,0.00243494
-0.00648113,0.00478111
-0.0067099,0.00475297
0.00173905,0.0083348
0.000893171,0.00996125
-0.0334857,0.0166539
-0.0478672,0.0274132
-0.0422825,0.0343648
-0.0118424,0.0185292
0.0330729,-0.000924881
0.0512945,-0.011328
0.0336995,-0.0164271
0.0206838,-0.0248475
0.00899343,-0.0282843
0.00603122,-0.0314184
0.00252352,-0.022649
-0.00328373,-0.00222835
-0.0171788,0.00389863
-0.00668655,-0.00255471
0.0100215,-0.0157862
0.00288372,-0.00708847
0.00976945,0.00314064
-0.0126483,0.0116227
-0.01789,0.0208605
0.00180402,0.0359784
0.0194642,0.00587562
-0.00593609,-0.00375936
-0.0315678,-0.00699236
-0.00465969,-0.0222508
0.0186068,-0.0230352
0.0200137,-0.0197764
0.0145108,-0.0174737
-0.0283704,-0.0267207
-0.0359316,-0.0180393
0.00316982,0.00362731
0.0300432,-0.0315335
0.00485165,-0.0129561
-0.0145512,0.0561977
0.003862,0.0431924
0.0107659,0.0455837
-0.0149869,0.0390526
-0.0149029,0.0582246
0.0255616,-0.0150286
0.0437754,-0.094731
0.0193853,-0.00748197
0.00100647,0.0446538
-0.0131177,-0.0404924
-0.0232782,-0.0495766
-0.00391736,-0.0175043
0.00484486,-0.00566264
0.0145368,0.0137856
0.0290975,-0.00155458
0.0281139,-0.0284657
0.0136457,-0.00803025
-0.0124838,0.00713886
-0.0700834,-0.00601566
-0.0630691,-0.0011508
-0.0211921,0.0272782
0.00889065,0.0177349
0.0277023,0.00290513
0.0500052,0.00779716
0.0585014,-0.0103133
0.0190507,-0.0214462
-0.034367,-0.0165528
-0.0406971,-0.0131343
-0.0502866,-0.00448063
-0.0593258,0.00218232
-0.0692158,-0.00501587
-0.0408107,-0.00884283
0.0544111,0.0152392
0.0769718,0.0258856
0.054892,0.00911686
-0.00258277,-0.0002152
-0.0405826,0.0433874
-0.0416807,0.0187098
-0.0513868,-0.000670099
-0.0314052,0.0179806
0.005035,0.012785
0.0597105,0.00443851
0.0853124,0.0262878
0.0257547,0.0163227
-0.0517103,-0.0163613
-0.0253112,-0.00316102
0.0447179,-0.00369911
0.0509847,-0.0286898
0.0358916,-0.0350019
0.0598327,0.00704973
0.042643,0.0279181
-0.0146803,-0.00242129
-0.0199436,-0.0376398
-0.0228827,-0.0142252
-0.037071,0.0214753
-0.0319201,0.00461092
-0.0158081,0.00869775
-0.0182018,-0.0159414
-0.0188727,-0.0245427
-0.00247495,-0.0250503
-0.00282652,-0.0274957
-0.00730097,0.0072496
-0.00678687,0.0509558
-0.0114279,0.0353931
0.00226763,-0.00683169
0.00947058,-0.0078339
0.0128955,-0.000940707
0.0133084,-0.00140784
0.00760489,-0.00733486
0.000957272,-7.09e-07
0.00374058,0.0122403
0.0132241,0.00673692
0.00886943,0.00194347
-0.000564318,0.0108262
0.00119751,-0.0190156
0.00708869,-0.0173237
-0.0014381,-0.0208983
-0.0128064,0.0289599
-0.0100534,-0.00940019
-0.00339304,-0.0313841
0.00788893,-0.0116505
0.00881107,-0.00749418
-0.00808973,0.00804067
-0.0186145,0.0118919
-0.00847185,0.00235264
0.00320984,-0.0175562
0.0140479,-0.00458704
0.012589,0.00181465
0.0132563,-0.00966206
0.00762631,-0.00865973
-0.0152706,-0.00668805
-0.00841581,-0.0158469
-0.00238596,0.0222202
-0.0208425,0.000924559
-0.0249813,0.0207872
0.0147562,0.056676
0.00314873,0.042509
-0.0553005,-0.0138943
-0.0425935,-0.0174448
-0.0330645,0.0100158
0.00764154,0.0101775
0.0491834,0.000435082
0.0190203,0.0348093
0.0243737,0.0208728
0.0751394,-0.0247464
0.0513567,-0.0237438
-0.0223453,-0.0348799
-0.0482543,-0.0139929
-0.00840463,0.00955766
0.0233745,-0.00357732
0.0148649,-0.0117005
-0.0182383,-0.00392221
-0.0078716,0.0151156
0.0165969,0.0246948
-0.00582846,0.0175101
-0.00468898,0.00578138
-0.00296662,-0.00168443
-0.00739388,-0.0194364
-0.00352129,-0.0268631
-0.0140933,-0.0132963
-0.0207818,-0.00106806
-0.014383,0.00220798
-0.00851313,-0.00418336
-0.0115379,-0.0101911
0.00640826,-0.00794916
0.0259381,-0.00178484
0.0250781,-0.00125754
0.0141177,0.00895914
0.00808384,0.0153954
0.0015556,0.0441885
-0.000423525,0.0347558
0.0145105,-0.0265606
-0.000988484,-0.0301624
-0.0041548,-0.0229367
0.00428012,-0.00480477
-0.0239456,-0.00273259
-0.0329938,0.0012507
-0.0280122,0.00422451
-0.012041,0.000351575
-0.0145617,0.0031281
0.00203753,0.00731605
0.0380002,0.00346321
0.0265449,0.0137482
-0.0181733,0.0102706
-0.0117706,-0.0167191
-0.00468342,-0.026616
-0.0158499,0.0101266
0.00458213,0.016615
0.0362042,0.030935
0.0482916,0.00771283
0.0379726,-0.0398353
0.0424186,-0.0100243
0.0500333,-0.028152
-0.00246104,0.00855923
-0.0524941,-0.00533862
-0.0687131,-0.0115396
-0.039285,0.00240944
-0.00845469,-0.00317708
0.00691387,-0.0114886
0.0106379,-0.0161946
-0.00732396,0.0290354
-0.012162,0.0131523
-0.0124887,-0.00602349
-0.00469617,0.0113077
0.00478604,0.0111606
0.0120279,0.000439136
0.0102625,0.0133367
0.00467199,0.0112293
-0.000515255,0.00496152
-0.00506907,0.0169063
0.00404766,-0.010223
0.0132399,-0.0212098
0.0118405,-0.00219213
0.00723449,0.00585858
0.00836809,-0.00897854
0.0119385,-0.0209099
0.00942155,-0.0177233
-0.0145605,0.000929806
-0.0450097,0.0133189
-0.0821253,0.0214929
-0.0746592,0.0186707
0.00118546,0.0183711
0.0287866,0.0464182
0.0211693,0.0292731
0.0207386,-0.0182617
0.0224395,-0.0121122
0.0350529,-0.0129551
0.0391565,0.00076397
0.0169042,-0.0145649
0.0188642,-0.0395168
0.0150486,-0.0411959
-0.0310031,-0.0250415
-0.0349054,0.0337895
0.023192,0.0303773
0.0320383,0.000925168
0.00790798,-0.0119135
0.0194736,0.0358267
0.0135734,0.0252899
-0.0256256,-0.0255862
-0.0549721,-0.0323786
-0.0490348,-0.00918816
-0.0277518,-0.00656071
-0.0122429,0.00621028
-0.00877868,0.00826467
0.0197032,-0.00282235
0.0289009,-0.00261946
0.00911375,-0.00350847
-0.010421,-0.0134023
-0.0066858,-0.0134642
0.0171622,-0.0214309
0.0373694,-0.0195589
0.021992,0.0109667
-0.000803232,0.023348
-0.00289984,-0.000447035
-0.00243736,0.0129314
0.00127883,0.0256946
0.0022469,0.0107998
-0.00275729,-0.00194534
-0.00962157,-0.0161099
-0.00507975,-0.0329048
-0.00848936,-0.00801471
-0.00447623,0.028805
0.00871145,0.00484895
0.0105332,-0.0236934
0.00863358,-0.0246342
0.00255408,0.000571652
-0.00381163,0.024468
-0.0067204,0.0472397
-0.00448174,-0.00316183
0.00613103,-0.0250694
0.0281856,-0.0186924
0.0123624,-0.00883322
-0.0304178,-0.00584163
-0.0344877,0.00457553
0.00739018,0.0171156
0.0204909,0.0208268
0.0341847,0.032826
0.0494364,0.0306806
0.0143429,0.0158494
-0.0139126,0.0108303
-0.0596608,-8.57e-06
-0.0380005,-0.0155033
-0.00683736,-0.0247292
-0.000786344,-0.0325873
-0.0243548,-0.0313204
-0.0250455,0.013344
-0.0139614,0.0323704
-0.0160207,0.0103065
-0.0189844,-0.0196914
-0.0202079,-0.0237466
-0.0047772,-0.0123917
0.0220952,-0.000910838
0.0237945,-0.00585002
0.0139279,0.00344631
-0.0013042,0.0106901
0.00361205,0.00782316
0.0299767,0.00456583
0.037264,0.00215286
0.0235151,-0.00826038
0.0221539,-0.015149
0.0269823,-0.00257311
0.0100151,0.0113686
-0.0242408,0.0162826
-0.0348999,0.00725112
-0.0229287,-0.00508662
-0.000554931,0.000436277
1.26e-05,0.0299623
-0.0244231,0.0244524
-0.0475406,0.0411502
-0.0704952,-0.029133
-0.085907,-0.0170951
-0.0249273,-0.00278802
0.0405044,-0.0149346
0.0605042,0.00812386
0.0579482,0.00706942
0.0325408,-0.0269565
0.0261562,-0.0296551
0.0322715,-0.0012188
0.031129,0.000411563
0.0194441,0.0366032
0.000150018,0.0185452
0.0163425,-0.0399749
0.0359411,-0.0272049
0.0259026,0.0229908
0.0284036,0.0436945
0.0297655,0.050442
-0.0183361,-0.0472444
-0.0424675,-0.0613552
-0.0582683,-0.0293493
-0.0310472,-0.0247484
0.000766443,-0.00140686
-0.0174858,0.0157619
0.0082433,0.0132342
0.0133666,0.010305
-0.0041715,0.00802732
-0.0160258,0.00671782
-0.021628,0.0101274
-0.0119925,0.0116106
-0.00428656,-0.00362328
-0.000416182,-0.0149859
0.00246581,-0.0204805
0.00140182,-0.0217321
-0.00167867,-0.015053
-0.00963724,0.00454649
-0.0114896,0.0171618
-0.00649473,0.0107981
-0.0049285,0.00859275
0.00761585,0.000961639
0.0229276,0.00108309
0.0271532,0.00679612
0.0261933,0.00535927
0.00241776,-0.00610615
-0.0255456,0.00872664
-0.024498,0.0329551
-0.0196009,0.014865
-0.00815322,-0.00127398
-0.0118281,-0.0102568
-0.00332684,0.00355417
0.00301674,-0.00437857
0.00166863,-0.000213692
-0.0114859,0.0169111
-0.00462544,0.0259322
0.0365986,-0.00103817
0.0286452,-0.0146073
-0.0327031,-0.0251327
-0.0542342,-0.0226846
-0.0362743,-0.0264642
-0.0131658,-0.00370379
0.0172735,0.0101671
0.035943,0.00763002
0.0408428,-0.00184456
0.0388948,-0.0201106
0.0287663,-0.0102637
0.0183938,0.00627549
0.0248749,-0.0181018
0.0388615,-0.0300245
0.0289613,0.0110828
0.00253641,0.0381698
-0.0216082,0.028929
-0.0229565,0.0158448
-0.00639528,0.00904543
-0.00113038,0.0120646
-0.0160392,0.00764809
-0.0258243,0.00883273
-0.018203,0.011057
-0.02118,-0.0306095
-0.0423594,-0.0225282
-0.0449198,0.0293945
-0.0123683,0.0262751
-0.00699957,-0.00627779
-0.00925843,-0.0299856
-0.0101503,-0.0295848
-0.0108449,-0.00860163
0.00231518,0.00770965
0.0302248,0.0128784
0.0361057,0.00474909
0.0342956,0.00107857
0.0513908,-0.00153699
0.026891,0.0131748
-0.0493283,-0.00227228
-0.0362477,-0.0489839
0.0172421,-0.0175594
0.0177862,0.00509774
0.0137642,0.00474294
0.00537342,-0.00902144
9.94e-05,-0.0132355
0.0119437,0.0125628
0.0120693,0.00795467
0.0431336,-0.0207106
0.026815,-0.0214843
-0.0308662,0.00926692
-0.0508926,0.0132588
-0.0591244,-0.011397
-0.0374551,0.000126175
-0.00833865,-0.00589746
0.00813232,0.0101891
0.0247261,0.0366189
0.0169284,0.0304212
0.00226312,0.0480085
0.00656261,0.00730429
0.00824294,-0.0236046
0.00544287,-0.00892804
0.00708002,0.0078024
0.00251421,0.0123585
-0.0241463,-0.012296
0.00226014,-0.0205888
0.019787,-0.00113772
0.021868,0.00556033
0.00548701,0.0182582
0.00738639,0.0184993
0.0254713,0.0175323
0.0296618,-0.00492153
-0.0254887,-0.0283542
-0.0545908,0.00967657
-0.0403044,0.00232837
-0.000624382,-0.0180229
0.00501315,-0.00478219
-0.0328904,-0.000184159
-0.0639548,0.00194568
-0.0301444,-0.00877532
-0.0288206,-0.000936041
-0.0183786,0.00926441
0.00981897,-0.0121556
0.0164454,-0.00797863
0.0311625,-0.00244817
0.075623,-0.00221699
0.0909502,0.0134992
0.0448858,-0.00152302
0.00782877,-0.0513503
-0.0203457,-0.00348855
-0.0248107,0.0070515
0.0228085,-0.06311
0.0389089,-0.0247561
0.0247244,0.017115
0.030995,0.0279012
0.00231137,0.0277983
-0.054131,-0.0269006
-0.0579394,-0.0445205
-0.0120275,-0.0124537
-0.00500769,0.013774
-0.0224749,0.0326312
-0.0195159,0.0205746
-0.0157289,0.0444973
-0.00240544,0.0320678
0.0283662,-0.0321404
0.0160317,-0.0103724
-0.0224874,-0.004999
-0.0275667,0.00598734
-0.00314234,0.00278428
-0.010258,0.0126843
-0.0125498,0.0139126
0.0213377,-0.00427979
0.018976,-0.0109365
-0.0108076,0.00291817
-0.0198604,0.0167827
0.0120235,0.0111723
0.0757866,0.000413444
0.0662347,0.00658969
-0.00676748,0.00155348
-0.0514015,0.00779122
-0.0493336,0.0183739
-0.035871,0.00524229
-0.0073453,-0.0189989
0.0287205,-0.0188696
0.00798937,0.00545085
0.0110872,0.00130346
0.00080673,0.00760243
-0.0097265,0.00648668
-0.00763909,-0.00556527
0.005991,-0.0169079
0.00853716,-0.00944317
-0.00332743,-0.0105856
-0.00792503,-0.0092463
-0.0171958,0.0058845
-0.0257856,0.0129605
-0.0260793,0.00237763
-0.0135421,-0.00581547
-0.00330264,0.0134662
0.00694182,-0.00253327
0.0349532,-0.0238564
0.0329067,0.0307269
0.0289638,0.00902831
0.0130364,0.00699479
-0.023893,0.0356994
-0.00301889,0.00980932
0.0392528,-0.0351875
0.0400286,-0.00579429
0.0118575,0.00655083
-0.0113304,-0.0105635
-0.0134069,-0.0366852
-0.00440677,0.0118018
-0.00207619,0.00692509
0.0217721,-0.0328463
0.00674919,0.0233982
-0.0484729,-0.00162227
-0.047506,-0.0455213
-0.00958369,-0.0200235
0.0400555,-0.00866392
0.0356274,-0.0160697
0.00953464,0.00754108
0.0213848,0.0458033
0.00325051,0.0154799
-0.0237155,-0.0105155
-0.0496606,-0.000574403
-0.0346803,0.00107657
0.00346065,-0.00433061
0.0123187,0.013082
0.00485487,0.0152069
-0.00546958,-0.026217
-0.038363,-0.00889776
-0.0270766,0.00679282
0.0213151,0.00610264
0.013457,0.00690512
-0.00874737,0.0120065
-0.0273015,0.0123126
0.000330109,0.00311701
3.64e-05,-0.0199174
0.0169863,-0.0078493
0.0654346,0.00147014
0.0542213,0.0174564
0.0223513,-3.35e-05
0.0210907,-0.00385334
-0.0287558,-0.00267342
-0.0841706,-0.00863549
-0.0618827,0.023035
-0.0525677,0.0372691
-0.0371778,-0.017222
-0.0162143,-0.0243682
0.0211941,-0.0137066
0.00914992,0.00692797
0.0336299,0.0193274
0.0378941,0.0196299
0.0199145,0.0367059
0.0331478,0.039769
0.0259205,-0.0280946
-0.0126962,-0.0463697
-0.00824267,-0.04907
0.0363438,-0.0432958
0.055981,-0.0253112
0.0637231,-0.0180711
0.0312136,0.00756659
-0.017116,0.0164134
-0.0447109,0.00712065
-0.0253908,0.0105406
0.0047185,0.0135881
0.00248179,0.00972193
-0.000825832,0.00899718
-0.0178908,-0.010238
-0.034635,-0.0129423
-0.0416674,0.00649265
-0.0296107,0.0160166
-0.00373325,0.00820748
-0.00412127,-0.00297602
-0.00337259,0.00637934
-9.15e-05,-0.000794028
0.0142657,-0.0242275
0.090942,-0.00180521
0.109293,0.00770167
-0.00174663,0.00658575
-0.0782374,0.0156559
-0.100106,0.0368822
-0.0990302,0.0361768
-0.0571562,-0.0590373
-0.0453114,-0.0222948
-0.014753,-0.00511039
0.0303706,0.01833
0.0461879,0.0325689
0.0392299,0.0222001
0.0377077,-0.0545794
0.0226516,-0.0284455
0.0187585,0.0121543
0.0432986,0.00746612
0.04329,0.00401834
0.00694022,-0.00259283
0.00407229,-0.0173265
-0.0138181,-0.0107164
-0.00424099,-0.00590576
0.00739417,0.0024495
-0.0341025,0.0104316
-0.0281872,0.00799506
0.00627516,-0.00294705
0.0256328,0.00153867
0.0126356,0.0459269
-0.010572,0.0494124
-0.00898483,-0.0308121
0.00239263,-0.0380412
0.0169368,-0.0285132
0.0142246,-0.0229065
-0.00746871,-0.00876196
-0.0343773,0.00445774
-0.0305938,0.0241675
-0.011448,0.0261886
0.0128421,0.0145474
0.0159929,0.0085493
0.0263078,-0.0115212
0.0436664,-0.0103699
0.034351,-0.0016522
0.0215023,0.00133323
-0.00151807,-0.00275656
-0.0223188,0.00625863
-0.0350748,0.0146963
-0.0536138,0.0146525
-0.0555833,0.00979384
-0.0450415,0.00837179
-0.0236857,-0.00438027
-0.0119723,-0.0168312
-0.00741767,-0.00815388
-0.00140584,0.0178993
0.0313576,0.0125928
0.0595626,-0.0146273
0.0445415,-0.0229266
0.00185537,-0.0167967
-0.0191109,-0.000630987
0.0080308,-0.00270144
0.0374972,-0.0145425
0.0172336,-0.0168258
-0.0210283,0.0095437
-0.0312587,0.0179119
0.00603984,-0.010433
0.0307944,0.00020254
0.0269694,0.0296519
0.0203986,0.0223618
-0.028685,-0.0146109
-0.0342834,-0.0396227
-0.0159025,0.0348993
-0.0153753,0.0537071
-0.0137125,-0.0419812
-0.012571,-0.000140785
0.00849477,0.0176172
0.0239478,-0.0252401
0.0328298,-0.0331411
0.0149057,-0.00549011
-0.0297624,-0.00852825
-0.0332629,0.00011024
-0.00319131,0.0202819
0.0128226,0.00946682
0.00771709,-0.017569
-0.0128524,-0.00132457
-0.0190287,0.00215095
-0.009644,-0.0178861
-0.00780037,0.0165775
0.0139021,0.00399119
0.0209069,-0.00532619
0.0222234,0.000326952
0.0256164,-0.0033345
0.0112212,-0.0045668
0.00410508,-0.00740309
0.0201057,-0.00448265
0.021626,0.0237629
0.00101833,0.023068
-0.0309626,0.0449384
-0.0241601,-0.00397483
0.00632154,-0.0404627
0.00339256,-0.0376688
-0.0530734,-0.00493443
-0.0608463,0.00497254
-0.010939,0.015827
0.0104894,0.0429506
0.0146716,0.00704447
0.0212293,-0.0175926
0.0183945,-0.0186402
0.0226252,-0.0196968
0.0213351,-0.0163111
0.0155371,-0.0110644
0.019323,-0.00830586
0.0239854,2.38e-05
-0.0253471,-0.0064068
-0.059629,-0.00709658
-0.0557755,0.00805974
-0.0419171,0.0611218
-0.051401,0.0216669
-0.0513023,0.0431865
-0.0103423,0.00884663
0.0392647,-0.0322274
0.0584502,-0.000409328
0.0461336,0.00996518
0.055423,0.00706462
0.0534678,-0.011634
0.0313936,-0.0384096
0.00735167,-0.0365578
0.00630472,-0.0247168
0.0162795,-0.0192559
0.0152047,-0.00380041
0.0141033,0.00317128
0.00251409,-0.00997539
0.00560057,-0.00263309
-0.00920425,0.0166598
-0.0300758,0.0549992
-0.0148329,0.0353783
-0.0172623,0.00538593
-0.0174605,0.0200535
0.0128701,0.00412893
0.0234893,0.00666795
0.0179079,0.0116146
-0.0375096,-0.0183636
-0.0911274,-0.0360709
-0.100276,0.00293727
-0.0111688,-0.00467749
0.0419154,-0.0157035
0.0246403,0.00433715
0.00641238,0.00768234
0.0120058,-0.0273912
0.0116304,-0.0310772
-0.00125972,-0.000198715
-0.00827118,0.000313188
0.0173819,0.00910427
0.0224506,0.0392353
-0.00275672,0.0353468
-0.0127006,0.0168879
-0.00531948,0.0159301
-0.00632031,-0.0142388
0.00261542,-0.0599282
0.00439638,-0.0637024
0.00568698,-0.0127463
0.00834476,0.022943
0.00405754,0.0262515
0.0117889,0.0179609
0.0238152,0.00316206
0.0155955,-0.00301026
0.00957398,0.00497054
0.0122361,-0.0216035
0.00612859,-0.021823
0.000102812,0.00533608
-0.00284506,0.0285952
-0.0062115,0.0394045
-0.012565,0.00105462
-0.0301239,-0.0125345
-0.0294066,-0.00838469
-0.0174942,0.00523483
-0.00250083,0.00507373
0.00354114,-0.0043209
0.00229972,-0.0168831
-0.00675343,-0.00580715
0.00497831,0.0091292
0.0199696,0.00124938
0.0156114,-0.0143672
-0.0151242,-0.0116908
-0.0526649,0.000395848
-0.0563386,-0.0112601
-0.0159245,0.0218034
0.0199405,0.0520259
0.0517802,0.0202096
0.0635267,-0.0145752
0.0175563,0.00221156
-0.00712933,0.0274285
-0.0198078,0.0057862
-0.0391589,-0.0133563
-0.00509788,-0.0297058
0.0158732,-0.0127938
-0.014034,0.0343601
-0.00401632,0.0237386
0.0442149,-0.0456537
0.0554075,-0.0150093
0.0403588,-0.015417
0.0248128,-0.0456979
0.00503342,-0.0176998
0.0102018,0.0391105
-0.00310829,0.0222119
0.000579731,0.00728171
-0.0158958,0.0153293
-0.0435628,-0.0148367
-0.0271436,-0.0120259
-0.0394149,0.031171
-0.0479395,0.00692862
-0.0235751,-0.0307511
-0.00585611,-0.0048345
0.00941769,0.0159257
0.025329,0.00267209
0.019332,-0.0190178
-0.00575101,-0.0144931
0.0057385,-0.00717405
0.0327539,0.00399979
0.0142169,0.0090835
-0.00996508,0.00320202
0.000994398,-0.000404729
0.0166479,0.041801
0.0160295,0.0226626
-0.0128387,-0.049712
-0.046665,-0.0359371
-0.00531621,-0.019877
0.0142805,-0.00139282
-0.0156572,-0.00208275
-0.0194632,0.0137218
-0.00190633,0.0262554
0.016769,-0.000689019
0.0299273,-0.0197176
0.0220786,-0.00241705
0.0146804,0.0114376
-6.1e-05,0.0113018
-0.0251005,-0.00222323
-0.0223346,0.00397305
-0.00446535,0.00544453
0.00318591,-0.00720508
0.00775493,-0.00731535
0.00381504,-0.00225082
-0.0235995,0.0165914
-0.0192875,0.0115706
0.0232242,-0.00595425
0.0438902,-0.000425384
0.0301885,0.0048826
0.00645176,-0.0074592
-0.0179389,-0.0131963
-0.0204827,-0.00704165
0.00233279,-0.00969807
0.0178763,-0.0149975
0.0147625,-0.0109021
-0.00686224,0.0174984
-0.0319668,0.0366237
-0.0383498,0.0214775
-0.0284792,0.0207562
-0.00372949,0.0338988
0.00614333,0.00198264
-0.0061709,-0.0180125
-0.0124722,0.0110997
-0.0244855,0.0193225
-0.00593537,-0.0200795
0.0354175,-0.0417508
0.0631675,-0.0287511
0.0589012,-0.0087882
-0.00573043,-0.0139891
-0.0603203,-0.00671213
-0.0410787,0.00815738
-0.00595549,0.0410582
-0.0286463,0.0365405
-0.00468947,-0.0172648
0.0643731,-0.0409668
0.043946,-0.0209069
0.0085606,-0.0126895
-0.0228138,0.0323109
-0.00664088,0.049709
0.0381878,-0.017508
0.0254534,-0.0407692
-0.0188257,-0.0149939
-0.0338027,0.00552069
-0.0168598,0.00365988
0.0142993,-0.00025486
-0.000168844,0.0211526
-0.00800648,0.00526889
-0.0035443,-0.0138497
-0.0126694,0.00899996
-0.0213168,0.0231014
-0.0077331,0.0063263
0.00300837,-0.00726224
0.00405142,-0.00332217
0.0234527,0.0117949
0.0290738,0.00745095
0.00703219,0.000301597
-0.0193197,-0.0115346
-0.031552,0.000812713
0.0249673,0.0187758
0.0826823,0.0152191
0.0193883,-0.00257036
-0.0779039,-0.0278855
-0.0880754,-0.0519359
-0.0220942,-0.0351348
0.0212027,-0.0321305
0.00963706,-0.00045035
-0.00987462,0.0206027
0.0280296,0.00914983
0.0437394,0.0118405
0.0362595,0.0061775
0.0347292,-0.0130869
-0.00284276,0.0100562
-0.0433014,-0.0069152
-0.0253029,-0.0136336
-0.0202469,0.0137247
-0.0191146,0.0273254
-0.0146304,0.026296
0.0158074,0.0248101
0.0245519,0.0863904
0.028984,0.0481569
0.0361359,-0.0765646
-0.0114868,-0.0641489
-0.0207507,-0.00853526
-0.00318243,0.00744356
-0.0158695,0.00937848
-0.0333375,0.00884268
-0.01605,0.0186482
0.00584365,-0.00433608
0.00760755,-0.0156772
0.0021174,-0.012335
-0.0118026,0.00195971
-0.0165014,0.0109296
-0.0110523,-0.00300355
0.00748739,-0.0150742
0.0135533,-0.00347623
0.0235374,-0.00805433
0.0432055,-0.0209173
0.0363408,-0.0103114
0.0272595,-0.00736705
0.0204725,0.0114882
-0.00366116,0.0432969
-0.0321178,0.0424915
-0.0666519,-0.0164949
-0.0518989,-0.0320023
-0.00994993,-0.0194569
0.000434374,-0.00908403
-0.00846898,-0.00639689
-0.00772855,0.00198741
0.0198502,-0.0114955
0.0455526,0.00636312
0.0536807,0.0107961
0.0329869,0.0262667
0.0066952,0.00258886
-0.0392369,-0.029273
-0.0254751,-0.0364038
-0.00308959,-0.000637372
-0.0204685,0.0228172
-0.0248593,0.0092861
0.00376244,-0.00393308
0.00828477,0.00418823
0.0231842,0.019728
0.0371265,-0.0222577
-0.00155201,-0.0189679
-0.0382796,0.0147891
-0.0261084,0.0120631
0.0035883,0.0125182
0.0104235,-0.00964241
-0.00381497,-0.0262312
-0.0292723,0.0058506
-0.0280661,0.0173101
0.000621249,-0.00254193
0.012363,-0.0181505
0.00784832,-0.0122659
0.00556946,0.0240802
-0.0104087,-0.00382347
-0.00693587,0.00744951
0.026408,0.0381958
0.0135277,0.020061
-0.00657378,-0.0342374
0.0027844,-0.0160279
0.0141299,-0.0174349
0.0551698,0.0206055
0.100832,0.0305431
0.0518669,-0.0228456
-0.0523912,-0.0308259
-0.0514116,0.00624585
-0.0213697,-0.00455043
-0.0279055,-0.019848
-0.0413266,0.0033468
-0.0513505,0.0183188
-0.0497397,0.0222058
-0.0484358,-0.00480506
-0.0402444,-0.00475193
0.0154814,0.00991608
0.112193,-0.00262549
0.110693,0.00779384
0.0421032,0.0376493
-0.0356883,-0.0165056
-0.0517976,-0.029154
-0.0238605,0.00507046
-0.0381511,0.00182621
-0.0255791,-2.29e-05
0.0171819,0.00601091
0.0180588,0.00637296
0.0082047,0.00302744
0.0111951,-0.0092644
0.0198074,-0.0111778
0.0664922,-0.0214173
0.0911878,-0.0155538
0.0281382,0.00598526
-0.0540709,0.000152884
-0.0515955,0.0117672
-0.0350313,0.01543
-0.0171835,-0.00413034
-0.0107664,0.0125905
-0.0181867,0.033435
-0.00371053,0.0103431
0.0244358,0.0135377
0.0338218,-0.00335811
-0.0123181,-0.0216298
-0.0524536,-0.0283684
-0.0262911,0.00123494
-0.0130511,0.0272405
0.00738779,0.00130609
0.0340006,-0.00685815
0.0243654,-0.00333213
-0.00523257,0.0200098
0.0120282,0.0253789
0.0377106,0.00396609
0.0042841,-0.0496067
-0.0690859,-0.0573623
-0.0609214,-0.011007
-0.0095295,0.0409455
0.00487096,-0.0106136
0.00289679,-0.0181175
0.0155431,-0.0162819
0.0289242,-0.0437612
0.0186439,0.00411859
0.0146097,0.0106911
0.00928027,0.0181404
0.00159583,0.0299903
0.00567894,0.0456169
0.0139257,0.0358217
-0.000192556,-0.00957894
-0.0188696,-0.00183176
-0.0176606,0.0319738
-0.00219683,0.00380319
-0.0131666,-0.0308517
-0.0198904,0.0159299
-0.0279445,2.7e-05
0.00323023,-0.0132492
0.0382041,-0.00585155
0.0630457,0.0129072
0.0357983,-0.00961966
0.0196914,-0.0468739
0.0210124,-0.0398373
-0.0256976,-0.00821651
-0.0627316,0.0154619
-0.0606916,0.0192731
-0.0323992,0.0178909
0.00750139,0.0081345
0.0545389,-0.0202523
0.0708158,-0.0071455
0.0577861,0.00321798
-0.040214,0.020185
-0.106469,0.015709
-0.0700698,0.0183167
-0.0329869,-0.0240943
0.014191,-0.023756
0.0368808,-0.00156561
0.0227137,-0.00977259
-0.0202047,-0.0173403
-0.0243593,-0.00696902
0.00817034,0.00518905
0.0509305,-0.00183872
0.0505501,-0.0209165
-0.00596514,-0.0011334
-0.0311314,0.0194457
-0.0220019,0.0203684
0.00529872,0.0116432
0.0171704,-0.0520432
0.0114877,-0.00933577
0.00312624,0.0290987
-0.00731992,0.0203941
-0.0343603,0.024783
-0.015933,0.0145875
0.0186382,0.00660816
0.0264566,-0.000301564
0.0313639,-0.0100488
0.0186106,-0.00120696
0.00330273,-0.00123942
0.00403361,-0.014177
-0.00459869,-0.0259903
0.00428665,-0.0253018
0.0399851,-0.00103438
0.039966,0.0342805
0.0107335,0.0184535
0.00579662,0.00215351
-0.0106494,-0.0130975
-0.0151012,-0.00567395
-0.0290801,0.0141166
-0.0231503,0.00179445
-0.037961,0.0134178
-0.0193003,0.00711696
0.0156982,0.0235173
0.0223465,-0.00161965
0.0213404,-0.0283794
0.0043407,-0.00744397
-0.024282,0.0102189
-0.0377978,-0.00644567
-0.013808,-0.003303
0.016564,-0.00655303
0.00696811,-0.00213429
-0.000965264,-0.00889953
0.00460324,0.0129437
-0.0231684,0.0265583
-0.0300631,0.022179
-0.0291965,-0.0109267
-0.0180572,-0.0162813
0.00339074,-0.0186673
0.00883405,-0.00391829
0.0112164,0.0120683
-0.000783861,-0.00503071
-0.0121681,0.00183049
0.00788212,-0.0151745
0.0104393,-0.0143646
-0.0159174,-0.0125336
-0.0119183,-0.0127824
0.0197073,0.00378857
0.0352113,0.0190717
0.021877,0.00715536
0.00169106,0.00401687
0.0199222,0.0104658
0.023309,0.0232804
-0.00541449,0.0300829
-0.00939388,0.0196996
0.0311842,0.0181203
0.0269938,-0.026019
-0.0138437,-0.0469223
-0.0381991,0.0118585
-0.0239403,0.0261579
0.0352797,-0.00874785
0.0187921,-0.04271
-0.0411702,-0.0281567
-0.0425871,-0.0249052
-0.0217604,-0.0125493
-0.0258374,0.0150682
-0.0176254,0.0246901
0.0185447,0.0262414
0.0926518,0.0107394
0.0926173,-0.0215527
-0.031382,-0.020758
-0.0555204,-0.00556763
-0.00105835,-0.00696692
0.000754601,-0.012261
-0.0135501,-0.000510301
-0.0131133,0.00993653
-0.013675,0.00357291
-0.00235475,-0.00939915
0.0115776,-0.00292349
-0.0160362,0.00803858
-0.043916,-0.0023071
-0.017234,0.00740818
-0.00444882,0.0413723
-0.0101961,0.0651552
-0.00904916,0.0134921
0.0104495,-0.0189059
0.0619951,-0.0280054
0.0427467,-0.0034265
0.0236882,0.00245387
0.0172061,-0.00826138
0.0117994,-0.00386845
-0.00757363,0.0192198
-0.0173219,-0.00712329
-0.0316735,0.00097811
-0.024836,0.011886
0.0146002,-0.0292426
0.0234723,0.0110567
0.00894903,0.0493943
-0.0100595,-0.0649651
0.018141,-0.0730066
0.0588444,0.0018803
0.0638837,0.0208797
0.000997748,0.00301606
-0.044133,-0.0209108
-0.0409497,0.00507389
-0.0373649,0.0311219
-0.032892,0.000303839
-0.0386091,0.00838879
-0.0226077,0.020674
0.00535794,0.0116623
0.0159874,0.0143718
-0.00942686,0.0302248
-0.0393764,0.00509223
-0.0280711,-0.0508807
0.00364399,-0.0407807
0.0268701,-0.00932904
0.023656,0.00516265
-0.00595855,0.00604537
0.00943532,-0.0185423
0.0461456,-0.0222704
0.0228611,0.0245344
-0.00386074,0.0310057
-0.000640347,0.0123766
0.024879,-0.00855108
0.0317671,-0.0104849
-0.00166129,-0.00680942
-0.0158295,-0.00659366
-0.00906578,-0.00202375
-0.00570119,0.0421918
0.00137366,0.0586083
0.0183292,-0.0303796
0.0221304,-0.0365003
0.00795132,-0.0309596
-0.00231515,-0.00598309
-0.0103968,0.02142
-0.0210731,0.00440748
-0.0364018,0.0049179
-0.0443152,0.0142179
-0.0248446,-0.00618542
-0.00483364,-0.0219196
-0.00362201,-0.0192898
0.00399353,-0.00303452
-0.00979804,0.0245488
0.0190791,0.0018515
0.0523464,-0.00382368
0.035293,0.00664909
0.00526878,0.0247008
-0.00522013,-6.1e-05
-0.00516102,-0.00621891
-0.00264021,0.00451803
-0.0127459,0.00568095
0.00496015,0.00123352
0.0308367,0.00368469
0.0445882,0.0104412
0.03088,0.0266632
-0.0521844,-0.0126748
-0.0909158,-0.0335677
-0.0317257,-0.0568436
-0.0177102,-0.0135322
-0.0108669,0.0276089
0.00441938,0.00480647
-0.00992606,-0.00632042
-0.0250749,-0.00417214
0.00330792,0.0043415
0.0378641,0.00621468
0.0264582,0.0307595
0.0225221,0.00913039
0.0297697,-0.0218225
0.0173382,-0.00708745
0.00212271,0.0124428
0.0119147,-0.0242711
-0.000523561,-0.00772812
0.00430539,-0.00727079
-0.0136707,-0.0133544
-0.0451214,0.00899301
-0.0214324,0.0154208
-0.00456719,0.00359883
0.0293114,-0.014115
0.0145913,-0.0152325
-0.0457225,0.0368162
-0.0374088,0.0199617
-0.00117295,0.0105617
0.0113409,0.0140191
-0.0111263,0.00458075
-0.0353075,0.0118729
0.00444728,0.0328809
0.0226556,0.026924
0.0121398,0.00822009
0.0332336,-0.0364013
0.0413173,-0.0213313
0.0179066,-0.0146913
-0.0118887,-0.00892732
0.0217165,-0.0135152
0.0882905,-0.018344
0.0594226,0.00810836
-0.0374674,-0.0232142
-0.0326632,-0.041696
-0.014681,-0.0113173
-0.036152,0.0125553
-0.0336137,0.0147742
-0.0218851,0.0131656
-0.0170806,0.0127777
-0.0148838,-0.00256127
-0.00850899,-0.021364
0.000820224,-0.0138825
0.0162025,-0.0181652
0.033516,-0.00334578
0.0130407,0.00762882
-0.0154943,0.00753168
-0.017095,0.00546708
-0.000144717,-0.00426257
0.01686,-0.00826181
0.0232215,0.0154885
0.0183875,0.0241353
0.0089992,-0.00187264
0.00427232,-0.00384456
0.00175634,0.00559797
0.0027832,0.0166584
-0.0195073,0.00995868
-0.044625,0.0115855
-0.060258,0.0191319
-0.0629695,0.0175617
-0.00421409,-0.00441365
0.0259698,-0.0152791
0.0235262,-0.00772721
0.0123767,0.0104865
0.0170025,0.00757946
0.0346537,-0.003452
0.0518543,-0.0113731
0.0551819,-0.0107303
0.015917,-0.0109824
-0.0374056,-0.0204548
-0.0250538,-0.000443539
0.0126291,0.0165334
0.0212371,0.00554763
0.00227528,-0.0029487
-0.0281552,0.00666308
-0.00955559,0.0125738
-0.0104139,0.00044102
-0.0179367,-0.00978808
-0.0122452,-0.0114071
-0.0222808,0.019805
-0.00143448,0.030871
0.0268409,0.0171469
0.0103617,-0.00320284
-0.0204266,-0.0158828
-0.02885,-0.0253294
0.00515256,-0.0266047
0.0130165,-0.00403442
-0.0094528,-0.0111575
-0.0347872,-0.0083588
-0.0176791,0.00466846
0.029551,-0.00496092
0.0433896,0.0132404
0.0167438,0.00843305
-0.00125597,-0.00418518
-0.0216826,-0.0107797
-0.0273337,0.00312833
-0.0214718,0.00340269
-0.00719269,0.00374984
0.0138778,-0.00251542
0.0195415,0.0040331
0.00423714,-0.000611358
-0.0060285,-0.0160018
-0.0198075,0.011989
-0.0112967,-0.000136295
0.000192201,0.00106597
0.00222206,0.0174819
0.0113558,0.0217674
0.0195207,0.00530238
0.0107737,-0.00328165
0.00414617,-0.00508966
0.00844995,-0.00264768
0.0212762,-0.00926184
0.0235978,-0.00875073
0.00520271,0.000494647
-0.00918572,0.0042214
-0.0123892,0.00296944
-0.00588832,-0.0025003
0.000327351,-0.0119562
0.00786731,-0.021406
-0.00127093,-0.0160476
-0.0102328,0.000206254
-0.00635589,0.0122355
0.00299865,0.0170403
0.00690958,0.00965242
0.0119833,-0.00704784
0.0130318,-0.0111185
0.0187119,0.00491093
0.00496717,0.00347883
-0.0272456,-0.0206696
-0.0350258,-0.0181941
-0.0283474,0.00708886
-0.0115444,0.00493874
-0.00403409,0.00681285
-0.00640947,0.00902598
-0.00110831,-0.00293185
0.0035273,-0.0057882
-0.0029727,-0.00418487
-0.019734,0.00642722
-0.0361263,0.0137381
0.00423802,0.00531736
0.0481288,-0.00878786
0.0534023,5.7e-05
-0.00244524,0.0209191
-0.0126217,0.0351073
0.0460454,0.0256806
0.0935661,0.0252359
0.05879,-0.00430444
-0.0285277,-0.024061
-0.0843842,-0.0102057
-0.0689725,-0.00210572
-0.0241851,-0.001039
-0.0161893,-0.00771149
-0.0234885,-0.00382082
-0.0133099,0.000605104
-0.00132849,0.00743958
0.0114372,-0.00137746
0.0135678,-0.0415317
0.00345976,-0.0333071
-0.00802743,-0.00621998
-0.0100156,0.0101985
0.0040455,0.00535508
0.00908012,-0.00279892
0.0107088,0.0103003
0.0172304,0.0135177
0.0156188,0.00181431
0.0164413,-0.00427514
0.016594,-0.0104829
0.0156028,-0.0145669
0.0101695,-0.0175318
0.00613988,-0.0121564
0.00365108,-0.000669441
-0.00228931,-0.00533733
-0.00397701,-0.000937388
-0.00371135,0.00864683
-0.0048694,-0.00101054
-0.00628951,-0.0164549
-0.00614885,-0.000902188
-0.0082548,0.0141923
-0.0149471,0.0327483
-0.0116982,0.03381
-0.00228623,0.0121225
0.00214742,0.0226555
0.0164784,0.00168923
0.0271229,-0.00502777
0.0145752,-0.0128411
-0.0140635,-0.0181201
-0.0172682,-0.01661
-0.0158406,-0.0137962
-0.0141486,0.000661467
-0.0142427,0.00448817
-0.0179735,-0.00183058
-0.0046841,0.00222236
0.00675419,0.00736825
0.00648741,0.00741055
0.00402718,0.0138513
0.00323536,0.0296964
0.00422373,0.0287861
0.00804881,0.00927684
0.00684587,-0.00147223
0.00786137,-0.00621704
0.00842505,-0.0141619
0.00629632,-0.0222367
0.0070569,-0.0222793
0.00947952,-0.0222356
0.000886071,-0.00852072
-0.0123473,0.00717724
-0.0192633,0.0063063
-0.016849,0.00203881
-0.0164363,0.00338829
-0.010683,-0.0132506
-0.00605766,-0.00898437
-0.0138193,0.00321479
-0.0134153,0.0154769
0.00667479,0.0118509
0.00466828,0.00643932
-0.000590407,-0.000577476
-4.73e-05,-0.0139826
-0.00567156,-0.0151373
0.0063331,-0.0166652
0.0378731,0.0143988
0.0273496,-0.000279035
-0.00691765,0.00127137
0.0123059,-0.00136374
0.0235326,-0.0160357
0.00730998,0.0031788
-0.00240183,0.027655
-0.00708824,0.014559
0.00301831,0.000513324
0.0121336,-0.00151754
0.0100008,0.0242613
-0.00138346,-0.00760944
-0.0137583,-0.0276855
-0.00905622,-0.0212047
-0.0039661,-0.0138508
-0.00560306,-0.00874385
-0.00944313,-0.00450017
-0.00888754,-0.00144774
-0.0122153,0.00806483
-0.0120485,0.0240941
0.00517201,0.0228961
0.0156221,0.00614597
0.00724123,0.00685592
-0.00582687,0.0295818
-0.00132403,0.00747145
-0.00656248,-0.00905104
-0.0200746,0.0037525
-0.0348034,0.010662
-0.0321439,-0.000306632
-0.00803194,-0.00973818
0.00888896,-0.0261234
0.00356168,-0.0253848
-0.00539728,-0.0169343
-0.0106365,-0.0131848
0.00435649,-0.017648
0.0522114,-0.00569974
0.0882879,0.00798422
0.0811181,0.00185755
0.0550702,-0.00902048
-0.0129868,-0.00460673
-0.102611,-0.00149241
-0.137215,0.00325004
-0.116901,0.0104117
-0.0672081,0.0238156
-0.0295241,0.0316529
-0.00518268,0.00795601
0.0371417,-0.00632662
0.10302,-0.00495752
0.212379,-0.00749614
0.22366,-0.00403364
0.310072,0.00510468
0.498675,0.00962654
0.551833,0.0191452
0.30967,0.0217167
-0.145507,0.00442636
-0.54081,-0.0143826
-0.783562,-0.0175952
-0.77049,-0.00506785
-0.531369,0.00962664
-0.27883,0.0201807
-0.0788991,0.0231227
0.0774566,0.00652926
0.12748,-0.0127244
