Comp Ch 3,Comp Ch 4
0.0210611,-0.014052
0.00908511,0.00127272
-0.00627327,-0.0080771
-0.0151235,-0.0123548
-0.0129199,0.00960336
-0.000443889,0.00565691
0.016122,0.0121202
0.00505939,0.022238
-0.00198039,-0.00771621
0.00026905,0.0208525
0.0030511,-0.0224865
0.00114224,-0.018805
-0.00574276,-0.0024663
-0.0143092,0.00721979
-0.0151328,0.0165959
-0.00378426,0.0118223
0.00742526,-0.00494841
0.000350989,-0.0144545
-0.0182523,-0.00983413
-0.0217799,-0.00774185
0.00882302,-0.0162538
0.0197625,0.000106774
0.0177375,0.0249023
0.0282905,0.0253313
-0.00332266,0.0389221
-0.0346772,0.00860816
-0.0281562,-0.0238855
-0.00641739,-0.0135585
0.00619088,-0.0258287
0.00534291,-0.0168014
-0.000180346,-0.0108436
-0.00280717,0.00590189
0.00129035,0.0144271
0.00688927,-0.0026299
0.0125357,-0.0121088
0.00926439,-0.00709998
0.0129499,-0.0152238
0.0257376,0.0249042
0.0392001,-0.00861353
0.0422826,-0.0304645
-0.00585612,-0.000405257
-0.0619426,0.0111977
-0.0604982,0.0143617
-0.00194816,0.00226264
0.0500434,0.00649628
0.0544674,0.00880798
-0.00505142,0.000642716
-0.0259545,-0.00809548
-0.0259836,0.0114485
-0.0221501,-0.00245234
-0.0229239,-0.0329132
-0.0705064,-0.0266508
-0.037695,-0.0189247
-0.00403168,0.0242161
0.00229205,0.0204916
0.0176447,0.0064328
0.030271,0.0264403
0.0387697,-0.00582006
0.0341691,-0.00431039
0.0344539,0.0171253
0.023303,0.0134913
0.00587942,0.00508555
-0.0204208,0.00369521
-0.0518808,0.00396854
-0.0442651,0.00653355
-0.0167458,0.00516575
0.00222915,-0.00915722
0.0300071,-0.0323952
0.0386125,-0.0372074
0.0170689,-0.0425035
0.00220709,-0.028205
-0.00628335,-0.00729169
-0.0220973,0.0324658
0.00019829,0.0576344
0.011397,0.0386788
0.000237576,0.0135056
-0.00669821,0.000974066
-0.0015317,-0.000640908
0.00469401,0.0123394
0.00695375,0.025873
-0.00236756,0.0283824
-0.0139773,0.0315691
-0.00866396,0.0218921
0.00974842,-0.00497893
0.015759,-0.0274838
0.0128046,-0.0339245
0.00156857,-0.0461937
-0.0119042,-0.0286894
-0.0105045,-0.023836
-0.00405497,0.00168127
0.00594852,-0.0107683
0.00784016,-0.0142278
0.00570162,-0.00679832
-5.72e-05,-0.000682495
-0.00127095,0.0131296
6e-06,-0.0150732
0.0135619,-0.0113481
0.0220458,0.0420875
0.0164721,0.0159955
0.00261023,-0.0829939
-0.0168289,-0.0538894
-0.0280086,-0.00862923
-0.042259,0.017469
-0.0627096,0.016797
-0.0470836,0.0050066
-0.0144346,0.0415479
-0.00703611,0.0272852
-0.0419339,0.0186588
-0.0205608,0.0130657
0.0179828,-0.00999251
0.0371808,-0.0482265
0.0778739,0.0121669
0.105652,0.0247916
0.10377,0.000946456
0.0742677,0.0253678
0.0280009,0.0346996
-0.00888015,0.020038
-0.0581219,0.0217665
-0.0768933,-0.00124143
-0.0433901,-0.00530955
-0.0446583,-0.0294258
-0.0417049,-0.0617817
-0.00163414,0.000911582
0.0448118,0.0158814
0.0422774,-0.00416996
-0.0317196,-0.0246961
-0.0619304,-0.03214
-0.0451931,0.0483714
0.0055924,0.0755339
0.0387214,0.0264376
0.0122859,0.0323848
-0.0278012,0.0191533
-0.035492,0.0351705
0.0706859,0.0433099
0.0887182,-0.0332922
0.0342432,-0.0801534
0.0403995,-0.0735684
-0.0506558,-0.0532368
-0.0386082,-0.0433823
0.0135992,-0.0159996
0.0438955,0.0370746
0.0295214,0.050813
-0.019783,0.0173641
-0.0595095,0.0113687
-0.0749949,-0.0325258
-0.0919653,-0.0118159
-0.0284027,0.00467766
0.0501334,0.0289906
0.0396891,0.0425948
4.48e-05,0.00228514
0.014651,-0.0311126
0.0272011,-0.00974954
0.0190274,-0.00284749
0.0229609,0.000506155
0.0174064,0.000707921
0.102457,-0.0455631
0.118826,-0.0256
0.000750355,-0.00239596
-0.091237,-0.00932719
-0.0823593,-0.00612491
-0.0437887,0.00500617
-0.00927717,0.014445
-0.0211874,0.0185722
-0.0412953,0.0313373
-0.011096,0.0551086
0.0689588,0.0579089
0.0452569,0.0301086
-0.0229261,-0.00436518
-0.0310535,-0.0677481
-0.130346,-0.0620525
-0.120744,-0.0427463
-0.0224472,-0.035777
0.0481067,-0.0103571
0.0613619,0.0255295
0.0538123,0.0253805
0.0445231,0.0163958
0.0181233,0.00881666
-0.0299764,0.000999827
-0.0413938,-0.00036209
-0.0181047,-0.00273133
0.0126182,-0.030702
0.0259787,-0.0139905
0.0324582,0.00966596
0.0100764,0.013823
-0.0208111,0.0166976
-0.0184769,0.0114094
-0.00606837,0.0190619
-0.00362585,-0.0310781
-0.0042236,-0.0295849
0.0396201,0.0135255
0.0955842,-0.000991683
0.096348,0.00943718
0.0694744,0.0233381
-0.00873701,-0.00022319
-0.0606127,-0.0295652
-0.0739855,0.0122514
-0.121107,0.0173958
-0.097584,-0.0118977
0.0183077,0.0396757
0.0691109,0.0174866
0.0468498,-0.0297521
0.0437742,-0.023715
0.0227644,0.00213315
-0.0437167,0.000659136
-0.0685161,0.0029115
-0.0957836,0.0491343
-0.141626,0.0203568
-0.0556863,-0.0549318
0.0951022,-0.0576932
0.0980746,-0.00278954
0.0649841,-0.020474
0.0535404,-0.0338407
-0.00327691,0.063713
0.0156373,0.069964
0.0992812,-0.0154636
0.107954,-0.0057015
0.0534601,-0.00350192
0.0190854,-0.0225356
0.00899234,0.00349973
-0.0182922,-0.00075484
0.0143615,-0.00688771
0.0656619,-0.00566822
-0.00227473,0.00830442
-0.0979616,0.0231183
-0.156749,-0.0317803
-0.164445,-0.0119652
-0.0524777,0.0132088
-0.00462144,0.0121192
-0.00343039,-0.00226869
-0.0315505,-0.00803983
-0.0227611,-0.0162738
0.0136726,-0.00794208
0.0225428,0.0145214
0.0322209,0.0128758
0.0381165,0.00280178
0.0382277,0.0139405
0.0316503,0.0284413
0.0017401,-0.0396028
-0.00739529,-0.0546904
0.00561268,-0.00166827
0.0441621,0.0220238
0.0447016,0.00797796
0.032926,0.0113327
0.0202596,0.00977623
-0.0276895,0.0115335
-0.0609804,-0.0205284
-0.0273408,-0.0150098
0.02462,0.0234626
0.0485459,0.0559424
0.0138644,0.0499107
-0.0224714,0.0173319
-0.0447105,-0.030917
-0.0356416,-0.0295606
-0.0197737,-0.00209513
-0.0182308,-0.0227595
0.00916191,-0.0154114
0.0362759,0.00609252
0.0265661,0.0121452
0.0126954,0.00263484
0.00956053,0.000472514
-0.00424599,0.0022899
-0.0128032,-0.00164048
-0.00570029,-0.0067884
0.00085859,-0.0131913
-0.00468995,-0.0197495
-0.0155225,0.00155125
-0.0164036,0.0212892
-0.00676572,0.0170551
0.00173836,-0.0302348
0.00177007,0.00549443
-0.0041385,0.0035391
-0.0106892,-0.0478673
0.00187694,-0.0352834
0.0232532,0.0156469
0.0352309,0.0287543
0.0282175,0.021215
0.0182704,0.00846028
0.000963665,0.00838117
-0.0131917,0.0103365
-0.01814,-0.0112567
-0.0129813,-0.00358302
-0.0185132,-0.00854572
-0.0252069,0.0176264
-0.0257292,0.00358425
-0.0103465,-0.0109668
-0.00591122,-0.013848
-0.00717007,-0.0258887
-0.0100479,-0.0107086
-0.0170273,-0.00391813
-0.0115683,0.0840008
0.0237849,0.0600488
0.0295277,-0.0183297
0.0172803,-0.0378177
0.00357094,-0.022932
0.00601862,-0.0107651
0.0288663,-0.0160344
0.0585531,0.00620196
0.0777976,-0.021495
0.07921,-0.0243416
0.049746,0.0115886
-0.00503343,0.0125797
-0.0408127,-0.0211332
-0.0613909,-0.00516768
-0.0925316,-0.000197088
-0.0880491,-0.0180013
-0.0563848,-0.00983416
-0.0371232,0.0300652
-0.000758085,0.0397943
0.0194627,0.0418802
0.00823791,0.0675753
0.00860989,0.0154995
0.00867376,-0.0129818
0.0358074,-0.062604
0.0261948,-0.0632491
-0.0131586,-0.023216
-0.0136366,0.00659578
0.0467794,-0.0154084
0.0481081,-0.0291578
-0.0193359,-0.0112901
-0.069675,0.0086149
-0.0179783,0.0144936
-0.011238,0.0333258
-0.0226715,0.0654658
-0.00282964,0.0682425
0.00133393,0.0305707
0.000709371,0.0116923
-0.00320725,0.0145057
-0.0182297,0.00333543
-0.0109653,-0.0406999
0.0154883,-0.0402648
0.0120175,-0.0844526
0.0321575,-0.0545113
0.0769576,-0.0077148
0.0497382,-0.0111151
0.0384699,-0.00910559
0.0564882,0.00685321
0.01183,0.0376128
-0.0395274,0.00240512
-0.0389742,-0.00478714
-0.00688367,0.0451208
0.0174665,0.0609636
0.00825835,0.0267174
-0.0220513,0.00978311
-0.037544,0.0282047
-0.0178292,-0.0157586
-0.0272427,-0.028232
-0.0249457,-0.0274477
-0.0264903,-0.00881075
-0.0155674,-0.0355805
-0.0140214,0.0027508
0.00425797,-0.0228685
0.0130502,-0.0457696
0.00100538,0.00233303
0.0295164,0.0187636
0.0415155,-0.0141538
-0.0245133,-0.016679
-0.0546042,0.018715
-0.0243845,0.0296496
0.0310167,0.0304628
0.0201378,-0.00556327
0.00906865,-0.0113351
0.0266991,-0.0204497
0.0185728,-0.02345
-0.00429253,-0.00721345
-0.0244924,0.00447794
-0.035835,0.0214654
-0.0243165,0.00578566
-0.0132915,-0.000175378
0.00642989,-0.00323809
0.0246022,-0.0183508
0.0176814,-0.0096084
0.00770889,0.000179271
0.0177245,0.0446783
0.029988,0.0537911
0.0270308,0.0319627
0.016301,0.0253737
0.0061321,0.0194894
0.0104359,-0.00911074
0.00321526,-0.0262857
0.00549672,-0.0170387
0.0102697,-0.0166773
-0.00573308,-0.00758285
-0.0385188,0.0106642
-0.0532478,-0.0103722
-0.0600615,-0.028758
-0.0584388,-0.0368969
-0.0310237,-0.0291286
-0.00185022,-0.00493285
0.017126,0.0166157
0.0404175,0.0586877
0.0627883,0.0229923
0.064358,0.00479697
0.0453148,0.00805941
0.0208231,-0.000467909
-8.74e-06,-0.00534231
-0.0269068,-0.0269972
-0.0378695,-0.0321054
-0.000223714,-0.0106397
0.0308961,0.0181607
0.0198109,0.0241454
-0.0409472,0.0214365
-0.0822056,-0.00905511
-0.0768797,-0.0399268
-0.0089946,-0.048585
0.0472001,-0.0218732
0.0415194,0.0290627
0.0136455,0.0444391
0.0260461,0.0263997
0.0282376,0.0291488
-0.0238301,0.000197929
-0.0590225,-0.0390856
-0.0604772,-0.0451306
-0.0275797,-0.0254166
0.0496348,0.0010371
0.0663512,-0.000146298
0.0572192,0.00853776
0.0462103,-0.00706078
-0.00954557,-0.0163538
-0.0517308,-0.001885
-0.0222183,0.0029864
-0.00408036,-0.00729525
-0.0172144,0.0105278
-0.00136303,0.0633141
0.0181307,0.082101
0.0166181,0.01291
0.0090461,0.0265168
0.0122101,-0.00849683
0.00910296,0.0168454
-0.00409978,-0.0632548
-0.0222751,-0.0639305
-0.0271521,-0.0243999
-0.0277135,0.0129074
-0.0277701,0.019223
-0.0126275,-0.00549084
0.00263276,-0.00502607
0.0115477,6.67e-05
0.00825693,-0.018204
0.00275811,-0.0217791
0.0137261,-0.00532377
0.0329843,0.0226762
0.053483,0.0309729
0.0520131,0.0308303
0.0276374,0.0485007
0.0181375,0.00654909
0.00847832,-0.0479215
-0.0283048,-0.0238635
-0.0768647,-0.00729272
-0.0799398,0.00869325
-0.0577627,0.0481799
-0.0477074,0.0268534
-0.0300948,-0.025955
-0.0038823,-0.026235
0.0108896,-0.0136174
0.0101832,-0.0268816
0.0268079,-0.0313615
0.0474057,-0.0105106
0.0465795,0.01978
0.0342274,0.0198888
0.0190664,0.00349448
-8.1e-05,-0.00602302
-0.00863084,-0.00354008
0.00931892,-0.0101562
0.0129694,-0.000379693
0.00778486,0.026693
0.00820669,0.0547525
-0.00761417,-0.00216905
-0.0166513,-0.0246023
-0.0155413,-0.022853
-0.00516932,-0.0161315
0.00841033,-0.0191075
0.0031115,-0.0258313
-0.016888,-0.00429651
-0.0153189,0.0382501
-0.0108639,0.00910445
-0.0184371,-0.0275539
-0.00398909,0.0100039
0.0204555,0.00106655
0.017439,-0.0231935
0.00396913,-0.0145982
0.00482247,0.00259559
0.0124439,-0.00765227
0.0127521,0.0101633
0.0105114,0.0304765
0.0227737,0.00862753
0.0318124,-0.0052236
0.027003,0.00226866
0.00252671,-0.00313784
-0.0371263,-0.00972935
-0.0447108,-0.00676952
-0.0200615,0.0310718
-0.00951048,0.0614748
-0.0340572,0.0504289
-0.0304342,0.00716558
-0.0108007,-0.0177934
-0.00588859,-0.0379061
-0.0121203,-0.0187882
-0.00347783,-0.0117553
0.011639,-0.0285897
0.0105454,0.0129278
0.000746882,0.0239841
0.0167682,-0.00240421
0.0119896,0.00241429
0.0124029,-0.0124681
0.0207452,-0.0286501
0.0116263,-0.0292127
-0.00242389,-0.00613715
0.00210922,0.0487077
0.00805091,0.0144702
6.45e-05,-0.00606697
-0.0159764,0.00367878
-0.0258297,-0.00354628
-0.0102668,-0.0196094
0.0152207,-0.0143284
-0.00632175,-0.00244475
-0.0314198,0.00801447
-0.0209413,0.0304386
0.0170665,0.0257073
0.0377824,0.00736579
0.0191862,-0.00732876
0.0130714,-0.0205066
-0.000154745,-0.0241042
-0.00989897,-0.0284148
0.000730606,0.00520144
0.0170354,0.0266428
0.0243072,-0.0103316
0.0160783,0.0121403
-0.00365282,0.00954399
-0.00787968,-0.0189327
-0.00705899,-0.0279244
-0.00877247,-0.00276804
-0.00506641,0.0120566
-0.00720188,0.035182
-0.0031068,0.0369198
-0.00663546,0.0212921
-0.0162475,0.00581677
-0.0192492,-0.000786948
-0.00397746,-0.0284498
0.00549685,-0.0383118
-0.00206666,-0.0273901
-0.000174158,-0.00608731
0.00538342,0.00780487
-5.41e-05,0.00515388
-0.00784087,0.00392721
-0.0126277,-0.0133995
-0.0102355,-0.0255186
-0.00167448,-0.0135295
0.0177137,0.0031296
0.0458072,0.00672062
0.0575703,0.0260021
0.0475984,0.0327527
0.0457176,0.00413014
0.0101094,-0.00613887
-0.0333162,-0.011094
-0.049147,-0.0225755
-0.0588013,-0.00520267
-0.0540368,0.0127473
-0.0316788,-0.00181737
-0.00668246,-0.00395481
0.00157425,0.00632388
-0.00824664,0.00999881
-0.0111628,-0.00666402
-0.00938948,-0.0246279
-0.00956469,0.00726786
-0.00864494,0.0265929
-0.00687366,0.0472787
0.0191899,0.0220513
0.0311329,0.0187173
0.017839,0.01223
0.00755241,-0.00987677
0.0160123,-0.0277485
0.0320469,-0.0318984
0.0266712,-0.0299115
-0.0120267,-0.0106339
-0.0578294,0.00429909
-0.0302336,-0.00452532
0.0421558,-0.00121921
0.0726715,0.00626854
0.0632975,0.016497
0.0483659,-0.00530193
0.0231374,0.00330599
-0.00301248,0.0169404
0.0290556,0.0272153
0.0549107,0.0477251
-0.0189237,0.0340623
-0.107811,-0.0195836
-0.134028,-0.0535856
-0.0889985,-0.0621256
-0.0262121,-0.0347514
0.0193196,-0.0136112
0.0339636,0.0130731
0.0173496,0.0166598
-0.0231238,-0.00159786
-0.0347629,0.000972128
-0.0276181,-0.00136504
-0.00613913,-0.0153761
0.00770096,-0.0184981
0.0134763,0.0074579
0.0118384,0.010448
0.00193345,0.0147136
-0.00591321,0.0366209
-0.0062813,0.0355039
0.00195829,0.0225458
0.0121706,-0.0272674
0.0147855,-0.0355191
0.00305154,-0.0180209
0.0080242,-0.0122194
0.0352601,-0.00115754
0.0684515,0.00279128
0.0624942,0.00144188
0.0242008,0.0281252
-0.0133116,0.034656
-0.0230292,-0.00449647
-0.0279316,-0.0198829
-0.0362107,-0.0204441
-0.040344,0.0158129
-0.00968574,0.0256151
0.0109173,0.0186466
0.00811688,-0.0166441
0.0253192,-0.0439628
0.0291576,0.0358929
-0.000822327,0.0130132
-0.0320417,-0.0335514
-0.0248702,0.015532
-0.0120253,0.0365032
-0.00782443,0.00282516
0.00814283,-0.033276
0.0139456,-0.0187309
0.0264317,-0.043178
0.0338413,-0.0342088
0.00702022,-0.000254977
-0.0141042,0.0103878
-0.0295269,0.0232321
-0.0223037,0.0367313
0.00130489,0.0249282
0.00617094,0.0122108
0.00129156,0.00835069
0.00804314,-0.0295525
0.020316,-0.0417117
0.0149344,-0.0141585
0.00581828,0.018824
-0.000152679,0.0183407
0.0116946,0.0257643
0.0409066,-0.0365793
-0.00046508,-0.0382853
-0.0632642,-0.0118941
-0.052223,-0.00594304
-0.00132373,0.00986755
0.00562919,0.0229414
-0.0119138,0.0337934
-0.0250449,0.085371
-0.0219853,-0.0262078
-0.0127834,-0.0571736
-0.00558823,-0.0107526
0.00575158,-0.00650887
0.0013642,-0.00493203
-0.00449269,-0.0048061
0.0130932,0.0173498
0.0344379,0.0459777
0.0457796,0.0419901
0.0519293,-0.00677256
0.0335413,-0.0555395
-0.00717369,-0.0718488
-0.0322244,-0.0174711
-0.0460602,0.0138514
-0.0209602,0.018133
-0.00494169,0.0310904
0.0167899,0.0403869
0.0543121,0.0240851
0.0590196,0.00892412
0.0137885,-0.00365726
-0.0314323,-0.0161795
-0.0467676,-0.0282152
-0.070453,0.0114086
-0.0548265,-0.000451254
-0.0330117,0.00497844
-0.00811206,-0.0119644
0.00105424,-0.0456104
-0.00968167,-0.0339173
-0.00370617,-0.0108977
0.00647569,0.00936573
-0.00341543,0.0160876
0.00787784,0.0248115
0.0363152,0.0515911
0.0669142,0.0409493
0.0824255,0.00817263
0.0174889,-0.0174832
-0.0329991,-0.0254708
-0.0185593,-0.0271008
-0.0112763,-0.0258529
-0.00321712,-0.00223395
0.0387422,0.013465
0.0578527,0.00178068
0.0297167,0.00297983
-0.0199278,0.00558675
-0.0431782,-0.00399808
-0.0423442,-0.00282345
-0.0427138,0.00667587
-0.04653,0.0154895
-0.0175171,-0.0121826
0.0180742,2.26e-05
0.0209483,0.0244068
0.0250023,0.0118745
0.0249353,-0.00556307
0.00913302,-0.00660378
-0.00488335,-0.0275404
-0.0174196,-0.0406364
-0.0184758,0.000928277
-0.00680039,0.0213565
-0.0176291,0.0127115
-0.0375288,-0.0119979
-0.0128006,-0.010537
0.0208199,0.0214121
0.0268984,0.00979579
0.0018268,-0.0445697
-0.010838,-0.0293627
-0.00122836,0.0126945
0.00509987,0.0313187
-0.0093496,0.01699
-0.00400851,0.00352042
0.00730684,0.0116597
0.0272734,0.0262781
0.0679966,0.00255923
0.0814716,-0.0198433
0.0658639,-0.00359634
0.0577272,0.00718501
0.00046853,0.00493647
-0.0935966,-0.00529747
-0.0978193,0.016728
-0.0458439,0.0033211
-0.0206854,-0.0357773
-0.0240325,-0.0338862
-0.0186891,-0.00906037
-0.0174473,0.04456
-0.0190525,-0.00441225
-0.00917415,-0.00311494
0.000360585,0.00736333
0.00251945,-0.00456972
-0.00387834,-0.0137099
-0.00424199,-0.0273549
-0.00355325,-0.00997414
-0.0208386,0.0191235
-0.0382345,0.0171043
-0.0195448,0.00771425
0.0340275,0.0191386
0.0576071,-0.0513819
0.0674369,-0.0367587
0.0476657,0.00854078
0.0282451,0.0139002
0.00608672,0.0290828
-0.0177326,0.050458
-0.00516585,0.0543034
0.00442646,-0.0153817
0.0167709,-0.0215792
0.0640352,-0.00437537
0.079691,0.0362484
0.0248705,0.0308248
-0.0477076,-0.034263
-0.0822206,-0.0659979
-0.0854172,-0.0292965
-0.0604441,0.00794419
-0.00961107,0.0125397
0.0441124,-0.00515522
0.0237205,-0.0125327
-0.00714109,-0.000217387
0.00791157,-0.00413969
0.00223504,0.00214921
-0.0327647,0.036395
-0.0336715,0.0256439
-0.0107859,0.0044316
0.00410832,-0.00644708
0.0131028,-0.0265503
0.00984503,-0.0406325
0.00338244,-0.0343631
0.00123513,-0.00674264
-0.0068632,0.00952748
-0.0187262,0.0233223
-0.0178379,0.0122162
-0.0101269,-0.0264839
-0.0141017,-0.0283038
-0.00243448,-0.0034054
0.0471365,0.00607996
0.104828,0.0136167
0.0939019,0.0430881
0.0473115,0.0233039
-0.0020795,0.0135856
-0.0378302,0.0160576
-0.0326735,-0.0162798
-0.0338882,-0.0412688
-0.0477943,-0.0289926
-0.0462965,-0.00151328
-0.022262,0.0395242
-0.00157435,0.037455
0.00385307,0.0209535
0.00406796,-0.0257077
0.00236905,-0.0388318
0.0080176,-0.0066418
-0.00134536,0.039792
-0.00859231,0.0444614
-0.0145904,0.00155139
-0.0222753,0.0212238
-0.010068,0.0510996
0.0177413,0.0288799
0.0356508,-0.0302707
-0.00109776,-0.039046
-0.0458074,-0.0773179
-0.0506526,-0.0363689
-0.0220244,-0.0267801
0.00432524,-0.00641718
0.0161199,-0.000567783
0.0421367,-0.00114733
0.0553131,-0.00835157
0.0343995,-0.0208518
0.0334817,0.00869927
0.0766156,0.0314513
0.145188,0.0141584
0.130471,0.0112366
0.0773132,0.0100486
-0.00380886,0.00344314
-0.0909863,0.0128347
-0.142863,0.0135493
-0.169968,-0.0314386
-0.155347,-0.0317215
-0.0924821,-0.00685373
-0.0276272,0.0238612
0.0243482,0.0333323
0.042331,0.0131469
0.0368699,0.000812999
0.0221731,-0.00316224
-0.0126355,-0.0433556
-0.0318141,-0.0243935
-0.0240574,0.00262838
-0.00807136,0.0081557
-0.00466928,0.0255614
-0.0121628,0.052508
0.00996093,0.0539721
0.0301608,-0.00837511
0.0325353,-0.01835
0.0280272,0.00467113
0.0231196,-0.0180932
0.0245493,-0.0319906
0.0297376,-0.000832476
0.0300447,0.0179931
0.0184142,0.0112732
-0.000609873,-0.00343775
-0.0369292,-0.0225526
-0.00222111,-0.0411695
0.00256056,-0.047434
-0.017679,-0.0154133
-0.0263824,0.0131452
-0.0236461,0.0121915
-0.00667114,-0.00776343
0.0196896,-0.00308438
0.0369483,0.0220001
0.0410573,0.0410322
0.036264,0.0642206
0.03962,0.019836
0.0139897,-0.010666
-0.0206854,0.00527845
-0.0155056,0.0102906
-0.0213971,0.00858527
-0.0498542,-0.0141052
-0.0560186,-0.0275579
-0.0279336,-0.0397749
-0.00704104,-0.0390764
-0.00170485,-0.03082
0.00397858,0.00343627
0.0126325,0.0151729
0.018058,-0.00109988
0.0232961,-0.0148504
0.024071,-0.0034332
0.0223477,-0.00239766
0.013556,0.011084
0.0176554,0.0399245
0.0380952,0.0449082
0.0142504,0.0248086
-0.0241525,0.00722181
-0.00967231,-0.0032824
-0.00967633,-0.0131395
-0.0280255,-0.0243054
-0.0275512,-0.0219254
-0.030942,-0.0143739
-0.0280701,0.00361808
-0.018769,0.020136
-0.00980999,0.00930672
0.00507951,0.00496092
0.0136315,-0.0091017
0.0138803,-0.01714
0.0203272,-0.0176553
0.0208018,0.00887243
0.0179317,0.042249
0.0166034,0.0438286
0.0139001,0.0263883
0.00662681,-0.00950551
0.0016434,-0.0211233
-0.00376795,-0.0340389
-0.00341705,-0.0372814
-0.00322861,-0.0346167
-0.0316001,-0.0180268
-0.0523466,0.00867546
-0.0446219,0.0130506
-0.0222559,-0.00654726
-0.0020883,-0.0101829
0.00632006,-0.00288372
0.00834375,-0.00719663
0.0117878,-0.00976272
0.019386,0.0102395
0.0213388,0.0300141
0.00947377,0.0271599
0.00040817,0.0174607
-0.00974722,-0.000725269
-0.0150778,-0.0181674
-0.0129506,-0.0242539
-0.00138856,-0.01845
0.0189829,-0.0163945
0.0566432,0.00167126
0.0853303,0.0406504
0.0760456,0.0167113
0.0229895,-0.0185937
-0.0208327,-0.015873
-0.0615704,-0.00742777
-0.0564398,0.00793363
0.0121837,0.0351512
0.110396,0.037925
0.0933673,0.0316439
-0.0410511,0.0124759
-0.122265,0.00553533
-0.105489,0.000293806
-0.0679916,-0.0446507
-0.0588846,-0.0631819
-0.0385775,-0.0294387
-0.0121197,-0.0230946
-0.00214412,-0.00040277
0.000375623,0.0137627
0.0072449,0.00292482
0.00814992,0.0211597
0.00989731,0.00879489
0.0237777,-0.0117961
0.0343528,0.00306445
0.0435366,0.00697206
0.0363712,0.0243873
0.00875892,0.0291904
0.00289984,0.0324715
0.0118071,0.0272383
-0.00839951,-0.0134735
-0.0121807,-0.0612423
0.00568319,-0.0449849
0.0299994,-0.0175475
0.0276872,-0.00221587
-0.0024986,0.0197552
-0.0263706,0.0397417
-0.0157662,0.0335213
0.00586654,0.00498616
0.00332049,-0.00787949
0.0435771,-0.0309058
0.0283081,-0.0363233
-0.0262033,-0.0100171
-0.0128109,0.0253445
0.0375955,0.0383932
0.0505383,0.0245986
0.0177609,0.00150673
-0.0203708,-0.0233264
-0.0311008,-0.0284346
-0.0546318,-0.00332378
-0.0619679,-0.000407437
-0.0453836,-0.00839938
-0.00494072,0.00273985
-0.00167177,0.0243158
-0.0146368,0.0082693
-0.025012,-0.00340841
-0.0483738,-0.01662
-0.0270455,-0.0373531
0.0275756,-0.0408081
0.0360522,-0.00683441
0.0337843,0.0447745
0.0265382,0.0359303
0.0256859,0.01173
0.018197,0.0058127
0.00112378,0.00547099
-0.00206962,-0.00321463
0.000927699,-0.0248744
-0.00231592,-0.000843602
0.0225763,-0.0399229
0.0614066,-0.020161
0.0892807,0.0262871
0.0530339,0.0474894
-0.00111631,-0.00110272
-0.043747,-0.00790863
-0.0880061,0.0185084
-0.0736792,0.00940825
-0.0126466,-0.0225128
0.0232357,-0.031332
0.0497844,-0.0115791
0.0693015,0.0384305
0.0418574,0.0622063
-0.00870058,0.0109509
-0.0281036,-0.0572246
-0.0502861,-0.016615
-0.0877503,-0.00148746
-0.088708,0.0257539
-0.0959994,0.052076
-0.113517,-0.0370651
-0.163463,0.00886196
-0.179921,0.12207
-0.0555528,0.103434
0.0987552,-0.107938
0.105347,-0.189138
0.12026,-0.0922556
0.091009,-0.0419246
0.176792,-0.00932259
0.28202,0.072045
0.314711,0.158017
0.307504,0.089558
0.190527,-0.0392369
-0.0176895,-0.0110026
-0.182935,-0.101005
-0.331377,-0.105122
-0.36551,0.0126855
-0.241011,0.00859691
-0.122819,-0.030558
-0.0402632,-0.0123446
0.00515727,-0.00624763
0.0467832,-0.00570932
0.123832,0.0257132
0.116066,0.0382026
0.071942,-0.0437504
0.00665383,-0.041701
-0.0309835,0.0726581
0.0439654,0.112937
0.135878,0.0366103
0.109273,-0.0474195
0.0915106,-0.0441959
-0.0809839,0.0060837
-0.257885,0.112393
-0.226765,0.179969
-0.0694021,0.00850065
-0.0261521,-0.155178
-0.0558607,-0.0199906
0.0185668,-0.0440036
0.0801378,-0.0940955
0.0576989,-0.0147319
0.062054,0.0570543
-0.0315869,0.0590715
-0.120922,-0.00598889
-0.0606086,-0.0980821
0.00200407,-0.0788756
0.0673104,-0.0158291
0.164768,0.0234958
0.140392,0.0228023
0.0427455,0.112261
-0.0218182,0.152241
-0.042981,0.0449246
-0.102886,-0.0234116
-0.194221,-0.0617127
0.0482416,-0.0119717
0.25287,0.00280222
0.174411,-0.0171803
-0.0161863,0.218404
-0.196859,0.00929941
-0.207112,-0.297781
-0.119093,-0.112353
-0.039031,0.0239973
0.0892449,-0.0536999
0.136956,-0.0662481
0.0895138,-0.0356351
-0.017027,0.00259419
0.0101612,0.00838204
0.00854669,-0.00606508
0.103992,-0.00212695
0.180416,0.0747054
0.259871,0.127613
0.33398,0.0914645
0.136802,0.00205319
-0.146054,-0.0874037
-0.322033,-0.0826394
-0.380679,-0.0566691
-0.389552,0.0204435
-0.276837,-0.0142186
-0.202732,0.0501243
-0.216151,0.103402
-0.360737,0.143785
-0.297112,0.0982785
0.0195953,-0.0320217
0.219959,-0.152779
0.304255,-0.135133
0.593816,-0.000636309
0.927242,0.0307487
0.931251,-0.000467102
0.636376,0.0316575
0.166518,-0.0741083
-0.271994,-0.0843337
-0.560203,-0.0210081
-0.554282,-0.00347795
-0.0155076,0.0820178
0.396623,0.164473
0.492574,0.0677043
0.331281,-0.0351534
-0.17016,-0.0299774
-0.810485,-0.0163456
-1.01683,-0.0291147
-0.679932,-0.00135757
-0.321315,0.0217061
-0.0221057,0.0272414
0.124218,0.0148772
0.0723232,-0.0651606
-0.0984713,-0.0517612
-0.203603,0.0116882
-0.0605555,0.0370461
0.179601,-0.0112629
0.165488,-0.0142448
0.0820283,-0.0134583
-0.0597225,-0.0109029
-0.0736455,-0.0963374
0.14892,-0.106745
0.129438,0.0197386
0.103994,0.0597452
0.180325,0.015401
0.103094,0.042544
0.0409587,0.067064
0.0353983,0.0727268
0.0297459,0.0384854
-0.0169348,-0.0429735
-0.103078,-0.0625428
-0.0377259,-0.0327707
0.0518102,0.0244492
0.0854125,0.0223561
0.0616731,0.00462788
0.0633537,0.00414086
0.036963,0.00567453
0.00434751,-0.0604794
0.0356292,-0.0424475
0.0788563,-0.00424348
0.0731262,0.0137555
0.0506194,0.0429208
0.0610446,-0.000680519
0.0140304,0.00786848
-0.0437598,0.062693
0.142193,0.0733334
0.308247,0.0349368
0.123543,-0.0207234
-0.171481,-0.0465228
-0.35339,0.0444472
-0.281637,0.0119498
-0.118443,-0.0305312
-0.028877,-0.0388698
0.0611876,0.0298072
0.14395,-0.00710198
0.170879,0.0136597
0.13251,0.105688
0.0172472,0.0505274
-0.0955946,-0.0700329
-0.13026,-0.0864649
-0.161569,-0.102417
-0.185417,0.00810598
-0.0945288,0.0237894
-0.0535149,-0.0240312
-0.0180156,-0.128365
0.00872626,-0.0674104
0.0356064,-0.0208142
0.104483,0.0120552
0.212729,0.0644381
0.103662,0.0586297
-0.104393,0.0283731
-0.162282,0.0171864
-0.0208864,0.0254661
0.109369,0.027213
0.188246,-0.0268954
0.0607664,0.0235626
-0.139541,0.00885434
-0.18228,-0.0158443
-0.11205,-0.0237647
-0.0662993,-0.0232245
-0.0375148,0.0123074
0.0091615,0.0227717
0.142867,0.0278337
0.151548,0.0677951
0.124642,0.0282753
0.0971565,-0.114245
-0.026034,-0.0821777
-0.130906,-0.0178894
-0.16587,0.0120779
-0.0950514,0.0620912
-0.0168862,0.0849421
-0.0261819,0.126983
0.00810376,0.0295689
0.0968989,-0.0187898
-0.116286,0.0152811
-0.342514,0.0827114
-0.286867,-0.0146504
-0.161438,0.0026668
0.0442489,0.0349441
0.356714,-0.129617
0.593349,-0.1152
0.51965,-0.0535993
0.18911,-0.0101784
0.00808339,-0.0790992
-0.00235493,-0.0748954
-0.105503,-0.0396151
-0.156316,-0.0397807
-0.0603181,-0.000411486
-0.0272718,0.056288
-0.0176473,0.0712397
0.0676731,0.0295252
0.104914,0.0457
-0.0372507,0.0222378
-0.153078,-0.0102484
-0.110957,0.000475439
-0.0474546,-0.00627186
-0.119822,-0.014987
-0.251155,0.0111157
-0.251771,-0.0699352
-0.188112,-0.0587116
-0.132344,-0.0211446
-0.131043,-0.00505721
-0.070703,-0.0216155
-0.0172935,-0.0395739
-0.0164822,-0.0210075
0.014403,0.0088592
-0.0125385,0.0214631
0.0119599,0.0233704
0.242384,0.0234778
0.689347,0.0376959
1.18914,0.0443381
1.32782,0.0569813
1.0483,0.0889923
0.546927,0.0681468
0.0268341,0.0361556
-0.646544,-0.00189503
-1.09466,-0.0317435
-1.08012,-0.0421012
-1.06351,-0.0255974
-1.1203,0.0124834
-0.774369,0.0299582
-0.0547264,0.00141419
0.43906,-0.016933
0.531843,-0.0302194
0.446509,-0.00877654
0.321659,-0.0599868
-0.00124849,-0.0742641
-0.400177,-0.0525168
-0.426774,-0.0102855
-0.308097,0.0385457
-0.339152,0.0660541
-0.289429,0.0670211
-0.0439616,0.0426567
0.212389,-0.0886294
0.380894,-0.0591854
0.417987,0.054617
0.459847,0.0437087
0.521543,0.0668868
0.432005,0.074605
0.227937,0.00174246
-0.0182527,-0.0119846
-0.276684,0.0282193
-0.327724,-0.0732316
-0.30096,-0.0364231
-0.192171,0.00268046
-0.0356925,-0.0362899
0.0470876,0.00242876
0.097305,-0.0103539
0.0653864,-0.0802007
0.0385279,-0.00332667
0.0976234,0.0609795
0.179329,-0.00528347
0.243449,-0.0341245
0.206705,-0.00159435
0.0440549,0.0294732
-0.0970093,0.0320132
-0.141803,0.0216574
-0.137533,0.00142243
-0.119064,-0.00195915
-0.118943,-0.00159863
-0.149037,-0.0192448
-0.141759,0.0200345
-0.0351483,0.0374241
0.0716069,0.000234951
0.101719,0.00746349
0.130652,-0.0219361
0.0814151,-0.039983
0.0924594,0.00799943
0.118313,-0.0291465
-0.00967785,-0.0539644
-0.135781,-0.0194082
-0.12782,0.0271046
-0.057435,0.0550411
-0.0657753,0.0341034
-0.101268,0.0278635
-0.100454,0.0478554
0.0466507,-0.00416219
0.0935306,-0.0246831
0.00392999,-0.0355463
-0.0545747,-0.066273
-0.0244268,-0.0310272
0.0340483,-0.00163731
0.109985,0.0128461
0.183098,-0.00145014
0.160336,-0.00309811
0.150154,-0.00331335
0.111863,-0.0569747
0.0467243,-0.0546828
-0.00393553,-0.0168051
-0.0584097,0.00160398
-0.0696218,0.0150206
-0.107809,0.0290149
-0.156275,0.0036341
-0.160453,0.00210187
-0.135019,0.0314479
-0.141819,0.0733136
-0.106716,0.118215
0.0497626,0.0213496
0.196463,-0.0143429
0.22571,-0.0359325
0.125248,-0.0426879
-0.0494615,-0.0155617
-0.151087,0.0478586
-0.170531,0.0363864
-0.0716568,-0.0451297
-0.00159946,-0.0597982
0.075595,0.00811495
0.0401418,-0.0272118
0.0310779,-0.0190461
0.0057498,0.0172656
-0.0421226,0.0150986
-0.0565797,0.0107546
-0.0570006,0.0077046
-0.00200268,-0.0237419
0.0266299,-0.0395096
0.0306463,0.012885
0.0395294,0.0855893
0.0419211,0.034456
0.12121,0.00949767
0.155394,0.0759568
0.0293054,-0.00409235
-0.0987313,-0.111416
-0.0360513,-0.0780469
-0.0157767,0.0073813
0.0115245,0.0530871
-0.0624321,0.0136335
-0.196542,-0.0165487
-0.162126,0.0212124
-0.052824,-0.0645818
0.0798407,-0.0562081
0.138627,-0.0701257
0.120391,-0.0694552
0.101501,-0.0133191
-0.00406525,0.00429173
-0.104841,0.0346373
0.0329458,0.0612324
0.168637,0.0438316
0.17422,0.0825445
0.144028,0.0462791
0.0548297,-0.0333829
-0.00155688,0.0298277
0.0360668,-0.0112114
-0.0890449,-0.0469344
-0.300671,-0.0243372
-0.310881,1.45e-05
-0.168499,-0.0074191
-0.0599147,0.00169035
-0.0381813,-0.0100362
0.00767112,-0.0180933
0.0471157,-0.00144023
0.0881131,0.0173025
0.157793,0.00525574
0.198914,-0.0272147
0.19069,0.00690749
0.126185,0.0375162
0.0336369,0.0679348
-0.0748635,0.0590687
-0.186634,0.0185951
-0.312737,-0.00535163
-0.290248,0.0158687
-0.0450269,0.0232975
0.0294303,-0.00214641
-0.008537,0.0110505
0.0275221,-0.0017676
0.100067,0.0305927
0.158253,0.060868
0.147333,-0.0353776
0.0940582,-0.118971
-0.0257152,-0.0771169
-0.105948,-0.028266
-0.0476066,0.0506866
0.077121,0.0356507
0.144207,-0.0435938
0.121257,-0.0373301
0.0533612,0.0628026
-0.0362089,0.157271
-0.128279,0.114971
-0.111576,-0.12608
-0.0378872,-0.15705
0.0241234,-0.0345551
0.0562765,-0.0214281
-0.00490876,-0.0313286
-0.0642967,-0.0308861
-0.0223634,-0.00607786
0.0501281,-0.0151972
0.143724,-0.0108947
0.131086,0.04133
0.0101108,-0.0234939
-0.104551,-0.0488739
-0.125993,0.0100995
-0.179026,0.0643426
-0.180282,0.0356282
-0.0159726,0.0366338
-0.0238671,0.00278743
-0.0984748,0.0078409
-0.0496384,0.0259624
0.105318,-0.00173028
0.210426,-0.0371163
0.210658,-0.0344565
0.000201285,-0.0339791
-0.0886681,-0.0417409
-0.0098354,-0.0213104
0.0122679,0.0236906
0.00695042,-0.021349
0.0113325,0.001648
0.0577869,0.0120052
0.0629418,0.0025056
0.0473065,0.0319937
0.119642,0.018262
0.118252,-0.00697749
0.0225293,-0.0089942
-0.0325896,0.0307532
-0.0779539,0.01705
-0.136404,-0.0197062
-0.159506,-0.0192386
-0.143316,0.0121022
-0.0977792,0.0426476
-0.0391665,0.0176984
0.0686983,-0.00662171
0.163965,-0.0391118
0.164025,-0.0285141
0.0349973,0.0326928
-0.0162638,0.0536893
-0.010406,-0.00583889
-0.0350632,-0.00389176
-0.0581857,-0.0142445
-0.102527,-0.00852032
-0.105236,0.00900739
-0.060994,0.0330299
-0.0401479,0.0292121
0.0150113,-0.0374137
0.100112,-0.0428353
0.143062,0.000960739
0.155312,0.00315502
0.11256,0.0181774
0.0256147,0.0248828
-0.0675201,-0.0275944
-0.0961206,-0.0263702
-0.0206156,0.042412
0.00885804,0.0571563
0.00242717,0.0230045
-0.0181525,0.0111108
-0.0597271,-0.0786978
-0.0223495,-0.0563336
-0.0082779,0.0447566
-0.0678695,0.0174793
-0.0762354,-0.0255326
-0.0592965,-0.00803342
-0.0249758,0.0298525
0.0392332,0.0285841
0.0546215,0.00899729
-0.00965172,-0.0355609
-0.0300864,0.0136906
0.0333414,-0.0341781
0.0115867,-0.049813
0.00959343,-0.0163239
0.0159662,0.00713036
-0.00039244,0.0122795
0.0261144,0.000522124
0.0860467,0.00176249
0.115458,0.0057173
0.0731249,0.0382211
-0.0184878,0.0583726
-0.0547648,-0.0371297
-0.037854,-0.0276872
0.0177799,-0.0220399
-0.0247361,-0.0341816
-0.0698162,0.0267296
-0.0144095,0.0665324
0.0450578,0.0479316
0.099427,0.00773382
0.0645266,-0.0153785
-0.0246623,0.0379661
0.0365489,0.0150229
0.037489,-0.0955007
-0.0780385,-0.0618437
-0.174313,0.00852974
-0.168945,-0.0192127
-0.131588,-0.0130073
-0.0834494,-0.00186642
-0.0399842,0.00830512
0.0402338,0.0178619
0.112938,0.00674289
0.132164,-0.00572579
0.0898219,-0.00738784
0.00109753,-0.0139427
-0.0364993,-0.0197168
0.0166517,-0.000591728
0.0531826,0.0127468
0.0424684,0.00180739
0.0199257,-0.010231
0.0438787,-0.0138336
0.0444013,-0.00289149
-0.00312384,0.0413828
-0.0559044,0.0678901
-0.0950082,0.0303482
-0.134227,0.0643352
-0.111983,0.0928976
0.0215244,-0.00798829
0.103392,-0.0469412
0.110875,-0.0341615
0.173929,-0.0769035
0.174882,-0.0461555
0.0734349,-0.0222079
-0.084909,-0.0104033
-0.226539,-0.00442118
-0.123681,-0.0424536
0.0470374,0.00465994
0.111996,0.0104892
0.206547,-0.000237997
0.0399963,0.0145898
-0.104366,0.0169148
-0.0694312,0.0481642
-0.125442,-0.0179426
-0.125584,-0.0426367
-0.0947989,0.00107844
-0.0138889,-0.00932957
-0.00385913,-0.0193044
0.0129484,-0.00157079
0.0255835,0.00512758
-0.0340651,-0.0200821
-0.0742793,0.00816016
-0.0428495,0.0316289
0.0596987,0.00756913
0.0734532,-0.0213242
0.0242725,-0.0107101
0.0083463,0.0211704
0.0501835,0.022167
0.0689179,0.011021
0.0423051,0.0097004
0.0243559,0.0019543
0.0149246,-0.00116406
-0.00129446,-0.00418745
-0.00270091,0.00924951
-0.000380193,0.00432596
-0.00504659,-0.0128866
-0.00277428,-0.0230378
0.00266413,-0.0208624
0.00922414,0.00236206
0.0164872,0.00496861
0.0203431,0.00569846
0.0197976,-0.0303725
0.00826636,-0.0316209
-0.0169919,-0.00294598
-0.0336398,0.0162
-0.054067,0.093688
-0.0583279,0.0820652
-0.0263019,0.0555128
0.0412836,0.0386847
0.0233477,0.0169228
-0.149046,0.026321
-0.15702,0.0319605
0.102729,-0.0388293
0.24563,-0.024943
0.191478,-0.0479751
-0.0660813,-0.0726253
-0.221176,-0.0184672
-0.19954,-0.0373999
-0.113976,-0.0449235
-0.0255023,-0.0217113
0.0897412,-0.0458179
0.169179,-0.0930734
0.149022,-0.0127905
0.091937,0.0365946
-0.0456501,0.0631049
-0.113912,0.075817
-0.0994103,0.000337336
-0.078155,-0.0171692
0.0156476,-0.00164973
0.0764029,0.0125522
0.0544888,-0.0292362
0.0497738,0.00791459
0.0396138,0.0454847
0.0343169,0.0147225
0.0286275,-0.0118351
0.010458,-0.0132622
0.00283362,-0.011991
0.0110164,-0.0116007
0.0157038,-0.00977407
0.00245435,-0.00213166
-0.0201165,0.0266367
-0.0334035,0.00487043
-0.0277239,-0.00726023
-0.0102814,0.00809627
-0.00325839,-0.0321646
-0.0100293,-0.0255254
-0.020688,0.000588877
-0.021427,0.033774
0.00182263,0.0533823
0.0317306,0.00846413
0.0329815,-0.0415053
0.00879588,-0.00556916
-0.00478476,-0.0111975
-0.00621924,-0.0365672
-0.00914748,0.0496728
0.0113132,0.0900201
0.00639771,0.00516589
-0.0336347,-0.039469
-0.0555746,-0.04626
-0.0230711,-0.00156075
0.0731229,0.0199597
0.160313,0.0626065
0.202229,0.0797367
0.0517042,-0.0162377
-0.306518,-0.0267645
-0.512869,0.0863952
-0.252725,0.0298936
0.213682,0.0668448
0.419113,0.0646058
0.374171,-0.0777837
0.243651,-0.175122
-0.0213161,-0.110926
-0.238353,-0.086345
-0.309669,-0.0592402
-0.326098,-0.00221517
-0.179362,0.00358037
0.0468257,-0.018458
0.0949324,0.0157767
0.0238633,0.0159125
-0.0785649,0.0049958
-0.0524222,0.00619852
0.0616645,0.0241032
0.0935236,0.0376464
0.0475291,0.0133864
0.0374978,-0.00523111
0.0563748,-0.0123312
0.0237755,-0.0064067
0.0164819,0.00556911
0.0425883,0.00327801
0.0513617,0.0404791
0.0494056,0.0590572
0.0279893,0.0748086
0.0629395,-0.0140909
0.0786453,-0.0762093
0.0371994,-0.0318175
0.0222783,0.0111974
-0.0244882,0.0255502
-0.0686325,-0.0121224
-0.0434129,-0.00559559
0.0664493,0.015075
0.0658838,-0.0151857
-0.118137,-0.0408808
-0.180585,0.00473444
-0.118435,0.00490096
-0.053936,0.0261742
0.0266889,0.0168351
0.0531933,-0.0373448
0.0275551,0.00177086
0.0474459,0.024413
0.0358085,0.0449072
0.0215912,0.0270282
0.0194687,-0.0286786
0.0449195,-0.0129981
0.0873576,-0.0369534
0.018649,0.0377408
-0.0561354,0.0256
-0.033517,-0.0277338
0.000274123,-0.0453755
-0.0106342,-0.00722225
-0.0360691,0.0115652
-0.0455825,0.00407269
-0.05839,-0.00430837
-0.094326,0.00294799
-0.0206979,0.0181738
0.0414834,0.0890463
0.0394876,0.00619601
0.0225216,-0.0947456
0.010175,-0.0758005
0.00732573,-0.00643843
0.0928543,0.0330713
0.18006,0.0303672
0.0251589,0.0436604
-0.0780839,0.0244372
-0.0862294,-0.0244105
-0.141227,-0.0377561
-0.107766,-0.0442189
0.00984647,0.0108151
0.078141,0.00299686
0.0492862,0.0698935
-0.00957035,0.0098921
-0.0430119,0.0172845
0.006999,-0.0186453
0.0682299,-0.0372311
-0.02941,0.0134975
-0.0073743,0.00531529
0.0936714,-0.0068726
0.0236997,-0.0259372
-0.0728946,-0.000983777
-0.0537905,0.00254132
-0.0138208,-0.00772925
0.00285827,-0.029367
0.00838011,-0.0209245
-0.004123,0.0366034
0.000590939,0.0242217
0.0114607,0.00945592
0.0155332,0.0485328
0.0117321,0.0224654
-0.0420273,-0.047515
-0.0556532,-0.0610208
-0.00467677,-0.00860403
0.015762,0.00384499
-0.0202523,0.0286646
-0.0550714,-0.0241105
-0.0587215,-0.0408689
0.0469056,0.0188084
0.153436,0.0346492
0.161171,0.0188267
0.0317764,-0.0315682
-0.0328974,-0.0127502
-0.0381126,0.039694
-0.107229,0.0113982
5.46e-06,-0.00441148
0.134737,-0.0315712
0.0865652,0.0108392
0.00582322,0.0543787
0.0164079,-0.0181933
5.49e-05,-0.050431
0.0147079,0.0159792
0.0315461,0.0717411
-0.0439386,0.0291204
-0.186143,-0.0450575
-0.235994,0.0190498
-0.146632,0.0634468
-0.0467226,-0.0022021
0.000680127,-0.0126087
0.10841,-0.106939
0.141675,-0.0488348
0.116911,-0.0180375
0.0538597,-0.029574
-0.0115925,-0.013039
-0.0585618,-0.00459276
-0.043163,0.00717418
-0.000195394,0.0149257
0.0154408,0.0120454
-0.0204381,0.0668492
-0.00932685,0.123634
-0.023813,0.00878453
0.00597176,-0.0423411
0.0837872,-0.0405347
0.107102,-0.0443005
0.0639087,-0.0454572
0.00632504,-0.0329534
-0.0185236,-0.0211612
0.00702955,0.0175662
0.0218957,0.0255747
0.0281066,0.0325058
0.0633575,0.00312692
0.0401054,-0.0118237
0.0300142,0.0119079
0.0483407,0.0199609
-0.0101688,0.0396733
-0.0526929,0.0655004
-0.0960363,0.0895878
-0.215707,0.0140719
-0.283569,-0.127982
-0.121791,-0.0501173
0.0706922,-0.0180536
0.0531013,0.0273654
0.0462925,0.000251297
0.063064,-0.000895999
0.063519,0.054991
0.0255528,-0.0460653
-0.0510084,-0.0541386
-0.0704206,0.00207813
-0.0367195,-0.0297126
0.0089465,-0.0131502
0.137375,-0.00912728
0.145138,-0.0359683
0.0170726,-0.0146275
-0.0402479,0.0102602
-0.0398874,0.00179841
-0.000534482,0.0563756
0.0186857,0.0621865
0.0136727,0.00638316
0.0204129,0.0261273
0.0234283,-0.013793
0.028769,-0.0241491
0.0454183,-0.00619418
0.0201337,-0.0196823
-0.0150026,-0.00279179
0.0558499,0.034523
0.117358,0.0422756
0.0898702,0.0295153
0.026523,-0.0120551
-0.0731374,-0.0941178
-0.161241,-0.103734
-0.290444,-0.0213781
-0.263923,0.044859
-0.0668155,0.0743352
0.0854588,0.0131304
0.158366,0.018624
0.139132,0.0325059
0.0832162,0.0155087
0.0101793,-0.00409317
-0.0921621,-0.0315649
-0.0699132,-0.0349897
-0.0142362,-0.0137592
0.0124175,0.00578499
0.041887,0.0209822
0.0524249,0.0216816
0.0323811,-0.0124184
0.0392786,-0.0482406
0.0442895,-0.017446
0.0345108,-0.0132297
0.00107687,0.00379471
-0.0188667,0.0267272
-0.0416406,0.0360071
-0.0714764,0.0166408
-0.102109,0.0167628
-0.0452137,0.0212778
-0.0267812,0.0306202
-0.0760644,0.0130554
-0.0453913,-0.0348757
0.0705315,-0.00957935
0.139387,0.000449706
0.0835245,-0.0280628
0.0684392,-0.0504441
0.0432955,-0.031433
-0.0510587,0.00188435
-0.0314698,0.0366641
0.0797595,0.0310709
0.124438,-0.00107871
0.0708458,0.0456247
-0.0369148,0.0153522
-0.0697425,0.00298109
0.00832328,-0.0287021
-0.00210964,-0.016749
-0.130271,-0.00743333
-0.153448,-0.0019683
-0.077545,-0.0292192
-0.03406,0.0236022
-0.0271092,-0.0739709
-0.00723676,-0.0487508
0.00534607,0.00488878
-0.0179144,0.00552044
-0.00139603,-0.00641111
0.0499899,0.0167432
0.053804,0.0286304
0.0765861,0.0328189
0.120666,0.0555962
0.131601,0.0383732
0.0445116,0.0142612
0.0177946,0.0133391
0.0464553,0.0267799
-0.00913421,-0.0373221
-0.0999377,-0.0551782
-0.157425,0.00283752
-0.096997,0.0335928
-0.0597498,-0.0493842
-0.0229145,-0.0185333
0.0507847,-0.0542451
-0.000130933,-0.0651028
-0.021532,-0.0118876
0.0265827,0.0214786
0.0341498,0.0278754
0.054764,0.0527245
0.0504394,0.0438853
0.0425521,0.00790617
0.0171056,0.0299337
0.0186952,0.0458071
0.0794647,-0.00101336
-0.04558,-0.0434294
-0.117081,-0.0448312
-0.036865,-0.0230122
0.0169281,-0.00775139
-0.0454042,0.0203175
-0.11661,0.0478955
-0.0175993,0.0359193
0.0228091,0.0357021
0.0271697,-0.0188979
-0.0329067,-0.103065
-0.0818751,-0.0417881
-0.0117035,0.0013612
0.079059,0.00718104
0.0892316,0.0315697
0.0545532,-0.00364907
0.0257484,-0.0424054
-0.0380307,0.00893722
-0.0475843,0.0128958
0.0328813,8.16e-05
0.103046,0.0321015
0.102008,0.000769523
0.0840168,-0.0113823
0.0726221,-0.00393118
0.0328923,0.00734768
-0.154205,-0.0162294
-0.256114,-0.0241763
-0.232648,0.00643736
-0.0628674,0.0178602
0.147221,0.0175172
0.165815,0.0568079
0.0881901,-0.00329646
0.0769376,-0.000742124
0.0584959,0.00605754
0.0428144,-0.00401411
-0.0550292,0.0174806
-0.00681988,-0.0278214
-0.0206512,-0.012309
-0.117438,0.0142749
-0.118091,-0.00938634
-0.0245499,-0.0217749
-0.03058,-0.0150965
-0.0295855,-0.0367805
0.00875725,-0.0276783
0.0320017,-0.00306921
0.0222461,0.0164722
0.00248526,0.0391426
0.0153551,0.0101853
0.0410965,-0.0444518
0.0739174,-0.0178974
0.0815422,-0.000301937
-0.00946445,0.0158661
-0.0776289,-0.00120388
-0.0313027,0.0112161
-0.0138379,0.0748012
0.0206453,0.063279
0.0446718,-0.000633982
-0.0367433,0.00476606
-0.146325,-0.0215549
-0.055081,-0.0520716
0.0791319,-0.0068028
0.0858415,0.00861562
0.0636327,0.00676774
-0.00249296,0.0661752
-0.0379896,-0.0598133
0.0345451,-0.0843895
0.115012,-0.00727325
0.0655599,0.00468729
0.0273053,0.011601
0.000888365,0.0216684
-0.057318,-0.00771387
-0.0811848,-0.00080032
-0.0185547,0.00322798
0.0381444,-0.00403431
0.0269773,0.00734437
-0.0337169,-0.0262117
-0.063548,-0.00110303
-0.059897,0.00495856
-0.069402,0.000735767
-0.0317678,0.0470936
0.0194193,-0.0127201
0.0240292,-0.044446
-0.0158724,0.0419297
-0.0202398,0.0953527
-0.00532451,-0.0625113
0.00362813,-0.0584808
0.0378537,-0.00117428
0.0506796,0.0400091
-0.00864531,0.0722534
-0.062249,0.0351865
-0.00517441,-0.0555802
0.0191096,-0.0622388
0.00819504,-0.0253257
0.0250887,-0.0023599
0.0564458,0.00356645
0.0263792,-0.0260438
-0.0393491,-0.0153855
-0.0362812,0.03931
-0.0103043,-0.00152028
0.00326319,-0.00443873
-0.00274926,0.0438221
-0.0156678,0.0434658
0.0367968,0.014295
0.0838084,0.0278855
0.171401,-0.00370407
0.199691,-0.0137829
0.0501952,0.00406916
-0.166278,-0.0116328
-0.16829,-0.047846
-0.0823458,-0.00623532
-0.0295761,0.000482737
0.000442014,0.0202515
0.0248384,-0.00215559
0.00707786,-0.0139801
-0.00707897,-0.00910681
-0.0785664,-0.06898
-0.105517,-0.014353
-0.040968,0.0375495
0.0202232,0.0145639
0.0218068,-0.0462549
-0.00383143,-0.0109728
-0.0214474,0.0282597
-0.0485373,0.0292317
-0.0109803,-0.0231051
0.0308709,-0.025781
0.0267575,-0.010081
0.0370858,-0.000658189
0.040895,0.0153632
0.0470021,0.0262779
0.00413475,0.0368027
-0.00590877,0.0053641
0.0774475,-0.0275514
0.102224,0.0359896
0.074406,0.0643436
-0.0267321,-0.0194107
-0.117095,-0.0280829
-0.128173,-0.00135663
-0.100686,0.0369527
-0.0679672,0.0228016
-0.0383171,0.0263481
0.0439862,-0.0516763
0.0608405,-0.0514339
0.0974878,-0.0149896
0.0760209,-0.00766853
0.0538666,-0.00784338
0.0496594,0.0046063
0.0403078,0.0359873
-0.00532753,-0.0248229
-0.0255722,-0.0598226
-0.0392126,-0.0175769
-0.0346589,0.0431985
0.0085332,0.0085594
0.0281061,0.015362
0.0106855,0.0193398
0.00241928,0.0516285
-0.0209452,0.01268
0.000902695,-0.0436305
0.00489426,-0.0453172
0.0198095,-0.0212328
0.0367817,-0.000294736
-0.0340243,0.00690865
-0.0682108,-0.00978566
-0.0491645,-0.00257987
-0.00962274,0.00805677
0.00256336,0.000255272
0.00285249,-0.00952202
-0.0474991,0.00126553
-0.102694,-0.00263216
-0.0813427,-0.00564519
0.0380019,0.0105902
0.0673672,0.0846775
-0.0363871,0.157276
-0.0261782,0.0173496
0.077383,-0.108727
0.127883,-0.0355104
0.107392,-0.042333
0.0243214,-0.0187147
0.0430778,0.00181004
0.15455,-0.0354928
0.066451,0.00164807
-0.190937,0.00893961
-0.273414,0.0283731
-0.178602,-0.00712238
-0.0593974,-0.00998261
-0.00392698,0.0224821
0.0247908,0.0503743
0.0802608,0.0122235
0.0770076,-0.0880198
0.0318,-0.0352934
0.0339089,-0.0140225
0.025304,-0.00483684
0.0173521,0.00132484
0.0155861,0.0106132
0.00744624,0.0105402
0.000167553,0.00956921
-0.00233405,0.00967654
0.00919397,-0.00303025
0.0291747,-0.014079
0.0246189,-0.0168507
-0.000965912,-0.0197381
-0.0154941,-0.0126888
-0.0177767,0.00271606
-0.00995456,0.0187175
0.0133226,0.0312245
0.00157831,0.0130498
-0.0049238,0.000462635
-0.0226681,-0.0227894
-0.0632698,-0.00753646
-0.0736899,0.0869553
-0.0364595,0.0719613
0.052621,0.0642095
0.139888,0.0203034
0.10865,-0.112513
0.0277596,-0.0463761
-0.024294,0.0100161
0.0202023,0.00640428
0.0487496,-0.051303
-0.0232878,-0.061578
-0.0858532,0.00204836
-0.0833401,0.0610914
-0.0285496,0.0437282
0.093844,0.0427198
0.161719,0.0336224
-0.00229636,-0.0651819
-0.241779,-0.0799984
-0.213378,-0.0194343
-0.129878,0.00112228
-0.0830241,0.00251139
-0.0215724,-0.0113302
0.0345613,0.0147876
0.107263,0.0374673
0.180504,0.00728637
0.0994996,-0.0333767
0.0148766,-0.0228644
0.00391707,0.0121787
0.0260561,0.0198129
0.0178481,0.0294134
0.0273325,-0.00763435
0.0383714,-0.026616
0.0434989,0.00971895
0.0794995,0.0346956
0.0361094,-0.0598052
-0.11103,-0.0610136
-0.106773,0.0126838
-0.0478172,0.07561
-0.0254449,0.0350795
-0.00262946,-0.0135698
-0.0077647,0.00549203
-0.0193266,-0.0102793
-0.00967611,-0.0175306
-0.0219525,-0.0232232
0.00870564,0.0204473
0.0660148,0.0201258
0.0728159,0.0158606
0.0261134,-0.0265664
-0.0814815,0.0220833
-0.144613,0.0218797
-0.0399102,-0.0143385
0.13979,-0.00963202
0.214458,-0.0223192
0.152526,-0.00937586
0.00413182,0.0532599
-0.0987495,0.0881666
-0.183401,0.0438911
-0.180975,-0.0067985
-0.0560568,-0.0737968
0.0155096,-0.0811962
0.0200086,0.0113411
0.0515139,0.0564445
0.0363404,-0.0406306
-0.003776,-0.0977105
-0.0597346,-0.00752242
-0.0103689,0.00899458
0.0554419,-0.0387465
0.0212883,-0.010588
0.00734953,0.0189107
0.000844257,0.0275687
-0.0516942,0.0260373
0.00424608,0.00847901
0.0304126,-0.0140561
0.0109005,0.00354829
-0.00558252,0.0233867
0.0534739,-0.018665
0.08956,1.54e-05
0.069293,-0.00462613
0.0382812,-0.000743435
-0.0395085,-0.00329123
-0.0747454,-0.00462363
-0.0198497,0.053106
0.0130529,0.0177076
-0.0867561,0.00953367
-0.142677,-0.0450226
0.00179663,-0.0399481
0.0797997,-0.00809684
0.0195161,0.0398584
0.0243747,0.0663948
0.017707,0.0332332
0.0190144,-0.0261925
0.0974773,-0.0238681
0.0900544,-0.0137418
-0.0225951,-0.0138551
-0.103904,-0.0196792
-0.0832179,-0.0416076
-0.0450268,-0.0179236
-0.0113924,0.00537781
0.00425941,-0.00682139
-0.011049,0.0407243
0.0480317,0.0351009
0.0606969,0.032623
0.0416551,0.0177582
-0.000262617,0.022153
-0.0104381,0.0057944
0.0271628,-0.0171267
0.0416607,-0.0438068
0.0211839,-0.0135933
-0.0411571,-0.0204254
-0.115929,-0.00567393
-0.064992,0.0247059
0.0518989,0.0168411
0.0508894,0.0536779
-0.0178002,-0.00155015
-0.00974328,-0.0770467
-0.0138857,-0.0364732
-0.00403121,-0.00586671
0.0161318,-0.0123524
0.0162903,0.0345198
-0.0247965,0.0495193
-0.0704231,-0.0158215
-0.0644659,0.0190153
0.0468239,0.0249875
0.152818,-0.00375425
0.136269,0.0151524
-0.0491345,0.0379261
-0.0388132,-0.0642999
0.0918145,-0.0619185
0.0995151,0.00406566
-0.0364304,-0.00876368
-0.157174,0.0129048
-0.22613,0.00638082
-0.0982086,-0.00482283
-0.0388548,-0.0144288
0.00487559,-0.0154377
0.00712039,0.0207646
-0.0732446,0.0568551
-0.0774138,0.0325427
0.0432563,0.00634852
0.213201,-0.0376919
0.195765,-0.0253966
0.151553,-0.0259555
0.0122466,-0.0114394
-0.105595,-0.010543
-0.138836,-0.0334037
-0.10899,0.00983932
-0.0597991,0.0116725
-0.0117284,0.00952154
0.0206365,0.0717297
0.0598414,0.0120573
0.126111,-0.0427826
0.128408,-0.0441702
0.0767711,-0.00199564
0.0652826,0.0120813
0.0399546,0.0425845
0.0178317,0.0525754
0.0488953,0.0193525
0.0273087,-0.0344838
-0.0366387,-0.024499
-0.111835,-0.00253818
-0.132288,-0.049968
-0.168166,-0.0117565
-0.107959,0.0455482
-0.0260342,0.0242688
-0.0325453,-0.0203489
-0.0429303,-0.0328331
0.00611847,0.018262
-0.0184506,0.04964
-0.0495942,0.0386071
-0.00398256,-0.00661981
0.105492,-0.0704286
0.223618,-0.00247353
0.226216,0.0124062
0.0759999,0.00626142
-0.0391825,0.0112118
-0.106993,0.0146145
-0.1586,-0.0359357
-0.108435,-0.058166
-0.0437147,0.00305209
-0.00555814,0.0633349
0.0459666,-0.0055622
0.0849606,-0.0256437
0.0838335,-0.00058286
0.0475866,0.00939328
0.022358,-0.0240579
0.000247366,-0.0222168
-0.0371641,-0.0121074
-0.0851045,0.0063506
-0.0502156,0.0529448
-0.00176585,0.0015254
0.00486771,-0.0390602
0.0190661,0.0768792
0.0269518,-0.00880597
-0.0365172,-0.0512244
-0.0752309,-0.0203687
-0.0693313,-0.00204421
-0.0368318,0.0142223
0.0762019,0.0437984
0.212091,0.0196257
0.247029,0.0266047
0.196013,0.0152583
-0.00288506,-0.00704499
-0.148526,-0.0218377
-0.175834,0.0398544
-0.173341,0.0333271
-0.100514,-0.0183902
-0.0952094,-0.0107396
-0.161016,-0.0186628
-0.156699,-0.066195
-0.00688394,-0.0705527
0.0444399,0.031381
0.0198426,0.0142255
0.0903378,0.00309844
0.15753,0.0884022
0.144324,0.0480232
0.0841842,-0.094829
0.0533548,-0.0746167
0.0922122,-0.0250736
0.132864,-0.0206497
0.0495133,-0.0109442
-0.103065,0.00459566
-0.148118,-0.00278658
-0.1099,0.0078221
-0.080804,0.0372581
-0.0192528,0.0183275
-0.00653157,0.0274085
-0.00752835,0.00994065
0.102148,0.0388935
0.159515,0.00415694
0.187745,-0.0112029
0.183942,-0.00352765
-0.0149898,0.0020487
-0.231822,0.0235552
-0.258092,0.0851029
-0.163004,0.0106136
-0.0244345,-0.106962
0.0587594,-0.0317766
0.0978023,0.0469453
0.103427,0.0627086
-0.00084892,-0.00419215
-0.13456,-0.039776
-0.14288,-0.0564092
0.0165487,-0.0609194
0.00990812,-0.0243879
-0.00899301,-0.0187419
-0.0196529,0.00114024
-0.00880877,0.0207533
0.0254854,0.00754282
0.0633734,-0.0190116
0.0895389,-0.0324711
0.074476,0.0100334
0.0173221,0.0215771
-0.0129861,0.00408237
-0.0120213,-0.000116556
-0.0244715,0.019365
-0.0250508,0.0616278
0.00173122,0.063522
0.00920362,-0.0436604
-0.0111757,-0.021541
-0.0197962,-0.0230727
0.0160372,-0.0408057
0.022961,0.0138793
0.0407039,0.0522891
0.0475172,0.0237119
-0.0399553,0.0083999
-0.0950975,-0.00752253
-0.0809959,0.0350126
-0.00330477,0.0633926
0.106166,-0.0057108
0.159591,-0.0227824
0.116906,0.0433169
0.105447,-0.0131353
2.5e-05,-0.0128928
-0.245571,-0.0316025
-0.342197,-0.0283315
-0.163123,-0.0103626
0.107339,-0.0174446
0.13223,-0.0468562
-0.0437757,-0.0576093
-0.0503032,-0.018804
0.0481258,0.0378694
0.017413,0.0325154
-0.0270049,0.0134409
-0.00335088,0.00834506
0.0671641,0.0172505
0.206553,-0.00421719
0.284424,-0.0395219
0.0835273,-0.0242555
-0.121366,0.010824
-0.207776,0.0203033
-0.156129,0.00626971
-0.073088,0.0046585
-0.0030656,0.00230851
0.0299452,0.00484529
-0.00242451,0.0144406
0.0134238,0.00284858
0.0276437,0.0087436
-0.0169106,0.00476365
-0.0169767,-0.016364
-0.0133,-0.0289021
-0.0144941,-0.0348772
-0.000532746,-0.0185156
0.00959432,0.00273614
-0.0133663,0.0111944
-0.00148434,0.0133669
0.0634606,0.00774062
0.0909715,0.0005609
0.0266636,0.00385094
-0.00460166,0.0316934
0.0392089,0.0141798
0.0840452,0.00747895
0.140535,0.0271918
0.0714505,0.0303316
-0.0671198,0.00649524
-0.130057,-0.0234864
-0.146509,-0.030909
-0.13648,-0.0244636
-0.0504326,-0.0183936
0.0070907,-0.00873629
0.00923218,-0.0040489
-0.0187054,0.00548205
-0.0306237,0.0225086
0.0345547,0.0351887
0.0761536,-0.0129348
0.0555379,0.000332445
0.0419046,-0.00986177
0.026657,-0.0278992
0.0159843,-0.0193888
0.00188263,0.00783405
0.022127,0.0594349
0.00271022,0.0277106
-0.0517613,0.0075104
-0.0757757,0.0288658
-0.0328082,0.0158065
-0.0298879,0.0131077
-0.0219717,-0.0585438
-0.0095954,-0.076904
-0.00267868,-0.0179233
-0.0161646,0.0236575
-0.0174056,-0.0121044
0.0242494,-0.026645
0.0712072,-0.0061748
0.127631,-0.00739771
0.0971279,0.00072919
0.0562929,0.0234463
0.0526385,0.0188412
-0.0908831,0.0987715
-0.161731,0.112082
0.0498117,-0.104824
0.131016,-0.117043
-0.0572644,-0.0586891
-0.0980515,-0.0476478
-0.0328676,-0.0251132
-0.0676541,-0.00859754
-0.0764734,0.0519684
-0.0405114,0.07217
0.00137244,0.024191
0.00838744,0.0267015
-0.0154477,0.0026421
-0.0591839,-0.0256501
-0.052391,0.041866
0.033059,0.0529742
0.0474584,-0.0338304
0.0414604,-0.0275951
0.0703912,-0.0330613
0.0308982,-0.0179277
-0.0185786,0.00421186
0.0212576,-0.0237141
0.0784639,0.0174597
0.0801003,0.0421669
0.113317,-0.0144404
0.106864,0.00472918
0.0344619,0.060217
-0.0554015,0.073453
-0.121303,-0.0284977
-0.154484,-0.0524268
-0.0814478,-0.020148
-0.0240554,-0.0438307
0.00427134,-0.0512615
0.0255379,-0.0219347
-0.0262277,0.00542212
-0.0565665,0.0113282
-0.0344145,0.00880156
0.0156583,-0.01256
0.0236827,-0.00710034
0.0243627,0.0224024
-0.0187112,0.0297093
0.00328407,0.0203819
0.070033,0.0173571
-0.0122059,0.0156392
-0.0605461,-0.00267773
0.0221245,-0.0134797
0.0814419,0.0305205
0.100352,-0.00626845
0.0889979,-0.0688535
0.0571954,-0.0146819
0.110983,0.023551
0.101206,0.0611026
-0.0507027,0.0309519
-0.169189,-0.0310693
-0.147017,-0.0597099
-0.100079,-0.0626789
-0.0579356,-0.0368946
-0.033949,0.00855002
-0.0306605,0.0524809
-0.00542169,0.131818
0.0454681,0.0654644
0.0639834,-0.0984572
0.0175566,-0.0734516
-0.000364236,0.0353291
0.013255,0.037374
-0.0179328,-0.016936
-0.0208073,-0.0324693
-0.0365413,0.120753
-0.0109432,0.0421323
0.0134024,-0.0638438
-0.0230548,-0.0360007
-0.0456222,-0.0126889
-0.00746101,-0.017512
0.0368884,0.0321412
0.0951247,-0.00788429
0.11092,-0.0328579
0.197831,-0.0519977
0.202506,-0.0145887
0.0331375,0.00294904
-0.132386,-0.016574
-0.197664,-0.0167047
-0.11341,0.0111191
-0.0388444,0.0467507
-0.0516899,0.0452248
-0.112646,0.00540492
-0.101849,0.0232364
-0.0756578,-0.0265198
-0.0417809,-0.00865575
-0.00148006,0.00208562
0.050392,-0.021199
0.121167,0.00114689
0.0588629,0.00862387
0.00870492,0.0016561
0.0399661,0.0158169
0.0599854,0.00698406
0.0277092,-0.0116311
0.01148,-0.0210796
-0.0279541,-0.0148325
-0.0213415,-0.00322239
0.0123657,0.0057854
0.032786,-0.00209873
0.0541278,-0.000238279
0.0269724,-0.00354723
-0.00633824,-0.047618
-0.0226032,-0.0127606
0.00721612,0.0673512
0.0280498,-0.0241163
-0.034538,-0.0265458
-0.0907351,0.0405907
-0.120603,0.0381311
0.0455105,0.00142856
0.188042,0.0152835
0.0882455,0.0504444
-0.0187524,0.0597974
-0.06563,-0.0203175
-0.0595887,-0.058728
0.0463608,-0.0028547
0.0929583,0.0270843
0.0648512,0.0241178
-0.0811025,-0.00872622
-0.20301,-0.0435499
-0.0942464,-0.0346893
-0.0704027,-0.0332924
-0.0253656,-0.00415697
0.0534027,0.037616
0.0769665,-0.0368522
0.0720989,-0.053949
0.0152408,-0.0135209
-0.0186528,0.0158376
0.0312943,0.0036242
0.06315,-0.0111192
0.0400379,-0.00407753
-0.0800847,0.0164947
-0.138221,0.0305082
-0.0570703,0.0359623
-0.0336349,0.0528055
0.00575123,0.0268477
0.0379765,-0.0224363
0.0071749,-0.0656655
-0.0407896,-0.0266004
-0.0582855,-0.0367714
-0.0379446,-0.0169482
0.0320363,0.0205659
0.0611926,0.0115675
0.095179,0.0117183
0.181303,0.00181328
0.209891,0.00791495
0.228349,0.113726
0.205638,0.046797
-0.0143509,-0.07923
-0.144281,-0.0588666
-0.253324,-0.0550441
-0.306837,-0.00751144
-0.123146,0.0171701
0.0346128,0.0479364
0.0636009,0.0484875
0.0169997,0.0136618
-0.0469341,-0.0387398
-0.068416,-0.0431178
-0.107407,0.0331732
-0.0326139,0.041635
0.140192,0.00668108
0.110018,-0.02439
-0.0727817,-0.0326138
-0.0887715,-0.00905492
0.0302859,0.0251185
-0.00135969,0.0132244
-0.0457408,-0.0411853
0.0130466,-0.0154029
0.0615139,0.00536481
0.0813042,-4.53e-06
0.0466071,0.00756952
0.0260726,0.0311871
0.0441838,-0.014444
0.0581189,-0.00413068
0.0660457,0.00644892
0.0370279,-0.0179458
-0.0478839,-0.026754
-0.112391,0.0105453
-0.0401477,0.0148111
0.0468958,0.0271578
0.0155988,0.0410697
-0.0888768,0.0197558
-0.120939,-0.0676224
-0.0680773,-0.0224368
-0.00748086,0.0279643
0.0430574,0.0267819
0.0481582,0.0240863
0.0488931,0.0391625
0.0627632,-0.0228276
0.0567531,-0.0136759
0.000706787,-0.0401873
-0.0239832,-0.0528106
-0.0391898,0.00333407
-0.0649669,0.0145865
-0.0840389,-0.0118305
-0.0485837,-0.0181906
0.0305641,0.0145629
0.0140822,-0.0113403
0.0854565,-0.00713658
0.125883,0.0156792
0.0315224,-0.00467393
-0.031395,-0.0114057
-0.0171957,-0.0183499
0.00851119,0.01161
0.00299186,0.012501
-0.0341407,0.0238994
-0.0485354,0.0224638
-0.0188163,0.00418169
-0.00537943,-0.00410254
0.00502946,-0.0023154
0.0270483,-0.0142317
0.0186892,0.000214533
-0.0355319,-0.0144506
-0.0537104,-0.0196719
-0.055517,-0.00660891
-0.00826467,0.0176406
0.0490162,0.0405398
0.0746197,0.00635439
0.0834807,-0.00890453
0.0393107,0.00446459
0.0145544,0.0092118
-0.0488532,0.0333042
-0.0362492,-0.0110779
-0.0267752,-0.0262977
-0.118133,0.00756392
-0.0928731,0.0215223
0.0224827,0.0452159
0.104074,0.0465956
0.156134,-0.00894723
0.0998993,-0.0134978
-0.0399549,-0.113451
-0.180684,-0.0617836
-0.204493,0.0141055
-0.0374055,0.00697679
0.240104,0.0621988
0.341467,0.0626354
0.21826,-0.0239031
0.00375702,-0.0564511
-0.185014,-0.0222131
-0.174097,-0.0174431
-0.123263,0.00228368
-0.136729,0.0180279
-0.160702,0.0162628
-0.119117,-0.0235456
-0.0137229,-0.0226668
0.0727602,-0.0065422
0.0392237,0.0288906
-0.0326407,0.01676
0.0162774,-0.0239802
0.114808,0.0208946
0.198709,-0.0133442
0.0882475,-0.0146209
-0.0291055,0.0240401
0.00123074,-0.00457944
-0.0176228,0.0143945
-0.0502807,-0.0286148
-0.00313224,-0.0406724
0.0355721,0.004173
0.0535788,0.015853
0.0306794,0.00824948
-0.010923,0.0238025
-0.00674136,0.0318134
0.0111639,-0.0297538
0.0109159,0.00820218
-0.0096745,0.0803828
-0.0453852,0.0760595
-0.0459583,0.0183427
-0.0138597,-0.0300223
0.00976976,-0.0866223
-0.0023471,-0.0437645
-0.0204242,-0.0238363
-0.0198354,-0.00667297
-0.00879344,0.0276195
-0.00317433,0.036455
-0.00442366,0.0455948
0.0270414,-0.0241338
0.0264807,-0.0635118
-0.00334326,-0.0689666
-0.0250693,-0.0155926
0.00448771,0.0252158
-0.00791066,-0.0112655
-0.0806371,-0.00399596
-0.0589474,0.0161834
0.0150689,0.0425889
0.0303331,0.0395811
0.0484065,0.00220949
0.0481096,-0.0028399
0.0232748,0.00146608
-0.0785484,0.0270978
-0.0538561,-0.00126112
0.0285711,0.0468244
0.00411933,0.0550206
0.0615161,0.102151
0.127499,-0.0436953
-0.0176498,-0.137142
-0.129847,-0.0455921
-0.0611865,-0.0432033
0.0350185,-0.0374466
0.0944536,-0.00882958
0.0520554,-0.00509185
-0.0418833,-0.00534742
-0.0592209,-0.00617091
-0.0242188,-0.0146507
-0.00898968,0.017314
0.00562782,0.00420744
0.0202494,-0.00481973
0.0215245,0.000125193
0.0148358,0.00997352
0.0166493,0.00462971
0.0360556,0.0100937
0.0617084,0.0255271
0.0385491,0.0724284
0.0011898,0.0488827
-0.0210096,-0.0438134
-0.0718838,-0.0596427
-0.125504,-0.0135821
-0.0729878,0.0182741
0.0225161,0.0156051
0.0775271,-0.00224416
0.0551517,-0.00891368
0.00933064,-0.0132592
-0.0123797,-0.00999961
-0.0239848,0.022575
-0.0474006,0.0730092
-0.031549,0.0273257
0.0223851,-0.0186222
-0.00285049,-0.0715625
-0.0282592,-0.021343
0.0244069,-0.030048
0.0289244,-0.0316108
-0.00194157,-0.00594798
-0.0464426,-0.0197515
-0.0950342,0.0128734
-0.0212037,0.0292438
0.0554437,0.0200725
0.0737017,0.0288451
0.159677,0.0766603
0.388952,0.131567
0.394305,0.0340699
0.0854483,-0.0718156
-0.236383,-0.0699273
-0.413124,-0.0711944
-0.377722,-0.0368406
-0.241067,-0.0312222
-0.131956,-0.0102814
-0.0484747,0.0252116
-0.000810605,0.0881125
0.0130942,0.0734872
0.0384454,0.0187071
0.0762575,-0.106422
0.0617542,-0.0794918
0.063608,-0.0282453
0.0889841,-0.0134201
0.047341,-0.00362155
-0.0197234,0.0112171
-0.00971072,0.01806
0.0537486,0.00858594
0.0762172,0.039313
0.0724922,0.00424112
0.0575115,-0.000425004
0.0244296,0.00630755
-0.00221386,0.00211807
-0.00602611,-0.00935497
-0.0145717,-0.0357928
-0.0202329,-0.058699
-0.0311966,0.000520219
-0.0322733,0.0593676
-0.0309741,0.0222118
-0.028765,-9e-05
-0.0317932,0.0112061
-0.0156069,0.0181481
0.0486654,0.033162
0.108198,0.0212485
0.130776,0.00483178
0.0845008,0.0692617
0.0775066,0.0602602
0.109749,-0.0397839
-0.0772377,-0.0822294
-0.197743,-0.0825501
-0.115205,-0.0202313
-0.0964178,-0.019367
-0.121284,-0.00183301
-0.0871473,-0.00235578
-0.0336415,0.0183573
-0.00480629,0.0209159
0.0272256,0.0160133
0.0420238,-0.0223538
0.00559022,-0.0249244
-0.00766945,0.0023986
0.00472646,0.0458588
0.0121042,0.0157766
0.00831078,-0.0239682
-0.000517099,0.000631536
0.00795158,0.0815055
0.0454947,-0.0197134
0.0534502,-0.0778192
0.0371765,-0.0172167
0.0263962,-0.00198175
0.0213825,0.0267184
0.0179227,0.0167621
0.000580354,0.00124841
-0.026886,0.0233135
-0.0299125,-0.00677907
-0.0202823,-0.0390379
-0.0194162,-0.0193225
-0.0244685,-0.0216775
-0.0179964,-0.0123515
-0.00903134,0.0200664
-0.000645447,0.0447828
-0.0118044,0.0254165
-0.0322438,-0.0116531
-0.0092417,-0.00227522
0.0235906,0.0112369
0.0722731,0.00348266
0.101377,-0.0106043
0.116853,-0.00472946
0.111525,0.0491027
0.102155,-0.00561149
0.0347705,-0.022885
-0.0659367,-0.0184761
-0.137362,-0.0205868
-0.158437,-0.0196443
-0.121726,-0.00883479
-0.0548398,-0.00972802
-0.0181783,-0.00486139
-0.00183813,0.00399196
0.00777049,0.0064325
0.0270172,0.00889385
0.0303973,0.0124663
0.0319751,0.0178482
0.0231333,0.00548644
0.0123065,-0.0256899
0.0124964,-0.00280572
0.0081625,0.0148543
-0.0191512,0.0100497
-0.037676,-0.00496978
-0.0500029,-0.0101195
-0.0247266,-0.000607861
0.0382699,-0.00329765
0.0285527,-0.00807857
0.0129051,0.0160259
0.0101254,0.0320282
-0.000705335,0.00955407
-0.0456354,0.0228411
-0.0444034,0.00786954
-0.0124267,0.00173074
0.000893288,0.016026
0.0337392,-0.0200494
0.0156152,-0.0335779
0.0268312,-0.0175105
0.0506534,0.00478887
0.0245281,-0.0137071
0.00831647,0.00856842
0.00289172,-0.0197768
-0.0182627,-0.0170267
-0.0425842,0.0100958
-0.0516599,0.0012424
0.00426418,-0.00574408
0.0535623,0.0141437
0.0425595,0.00792645
0.023463,0.0133865
0.0169597,0.00344069
0.00146232,-0.00737666
-0.00624509,-0.0121656
-0.00993726,-0.00971793
-0.00815609,0.00570537
-0.000846483,0.0162062
0.00259761,0.0122178
0.00084924,-0.016298
0.00437249,-0.0110795
0.0030327,-0.00749924
-0.00291941,-0.00218322
-0.00956451,0.00697484
-0.0175895,0.0180249
-0.00899701,0.024576
0.00392443,0.0365077
0.00862979,0.0259685
-0.00228066,-0.0328521
-0.00220327,-0.0407326
-0.0311153,-0.0241221
-0.0644515,-0.00412926
-0.0647516,0.00441316
-0.0240398,-0.00521194
0.00982867,0.0175229
0.0155984,0.00401157
0.00259486,-0.0188015
0.00141963,-0.0215423
0.0066101,-0.00252777
0.026962,-0.00245978
0.0245262,-0.00834873
0.0149846,0.0229297
0.0292869,0.00616298
0.034378,0.00666159
0.0438549,0.012899
0.0334043,0.00851771
-0.00526998,0.00581076
-0.0182721,-0.00605297
-0.0312654,-0.00921219
-0.0381627,0.00840343
0.00399328,0.0094989
0.0558484,0.00821544
0.10091,0.00654874
0.113479,-0.000621358
0.0630661,-0.0109524
0.00569996,-0.00376759
-0.0428477,0.0191261
-0.084512,-0.0156394
-0.113235,-0.0262445
-0.0994727,-0.0103824
-0.0644001,0.00160274
-0.00299968,0.000645036
0.0410886,-0.00109688
0.0409268,-0.00800805
0.00745052,-0.0173923
-0.0516834,-0.0177755
-0.0914664,-0.00422956
-0.089569,0.00837568
-0.0279954,0.00812826
0.0108369,-0.00105622
0.0160167,-0.0027093
-0.00229921,-0.00178258
-0.00185446,0.00295452
0.0173447,0.00782386
0.0319579,0.00247258
0.0660289,0.00464089
0.0946811,0.00951646
0.0571195,0.00870972
0.0312723,0.00203792
0.0366438,3.01e-05
0.0109756,-0.00561116
-0.0292953,-0.0163216
-0.0450401,-0.00887769
-0.0378929,0.0419215
-0.0188968,0.0173613
-0.0259262,-0.00965122
-0.0178458,0.00392598
0.0155532,0.00548645
0.0332235,-0.00436793
-0.00759134,-0.00315634
-0.0427483,0.00193229
0.00703023,0.00635653
0.0392545,0.0148832
0.0237689,0.013959
0.00651062,0.00551005
0.00247314,-0.00140333
0.00292081,-0.0093246
-0.0544589,-0.0062382
-0.0734015,-0.00958045
-0.0385703,-0.0176721
0.0148288,-0.0130912
0.0768309,-0.00437456
0.125395,-0.0030127
0.148765,-0.00458599
0.125292,-0.00675533
0.0343352,-0.00820526
-0.0679447,-0.00964262
-0.102553,-0.0036111
-0.0759109,0.00847084
-0.0498198,0.0265912
-0.1142,0.00729164
-0.145427,-0.00765493
-0.104521,0.00231741
-0.0521107,0.00363351
0.0279082,-0.00132491
0.205655,0.000618174
0.270575,0.0222219
0.168678,0.034729
0.00431823,0.0142871
-0.179712,-0.00186228
-0.239955,-0.00609631
-0.190078,-0.0102615
-0.0777329,-0.0206669
0.0195179,-0.0164703
0.0585425,-0.0147183
0.0649371,-0.0107192
