Comp Ch 3,Comp Ch 4
0.0380113,-0.00487628
0.117075,-0.00862002
0.243569,-0.0163526
0.351309,-0.0297233
0.253129,-0.0208295
0.00899784,-0.00234488
-0.199117,-0.00295543
-0.285182,-0.0168764
-0.271579,-0.0411399
-0.198205,-0.0375779
-0.109419,-0.00821888
-0.0398872,0.0102403
0.0142392,0.00202812
0.0157192,0.026286
-0.0400361,0.0390658
-0.072917,0.0165163
-0.0630705,0.0187559
-0.0234343,0.00357331
-0.000584727,-0.00102254
0.0112498,0.00254301
0.0105017,0.00592067
0.0418444,0.0095297
0.148955,0.00338049
0.251352,-0.0007829
0.252402,-0.0164954
0.243215,-0.0141751
0.158021,-0.00729821
-0.0253572,-0.00912771
-0.161386,-0.00256107
-0.233278,0.0213331
-0.293623,0.0231246
-0.206838,0.00020087
-0.0766781,-0.00634664
0.0579644,-0.00440613
0.160151,-0.00789147
0.139454,-0.00722151
0.0108298,-0.00143736
-0.140311,0.0114052
-0.210683,0.0191015
-0.123164,0.00172342
-0.0247661,-0.0164706
0.0572176,-0.014141
0.0776628,-0.000969067
0.0451827,-0.00443641
0.0270315,-0.00477879
0.0100906,0.00696395
0.0033177,0.0134233
0.0582639,0.00542918
0.114295,0.0077308
0.199164,0.00287904
0.30564,0.000782677
0.298831,-0.0130828
0.218727,-0.0135206
0.0204696,-0.0182465
-0.374995,-0.0466858
-0.56328,-0.025112
-0.339552,0.0211312
-0.0638985,0.0120575
0.0660313,-0.00618327
0.0955008,-0.0242096
0.0955013,-0.0447187
0.000522001,-0.00914149
-0.102595,0.0397259
-0.114212,0.0426321
-0.0763188,0.040783
-0.00937052,0.0411991
0.0311976,0.0140641
0.0239143,0.0146488
-0.0101292,0.0476822
0.0130512,0.021917
0.13076,0.0068244
0.186604,0.0126877
0.078779,0.0146823
-0.00893378,0.00254937
-0.00330916,-0.0354448
-0.0133944,-0.0447934
-0.0638164,-0.00367571
-0.0631997,0.00410764
-0.0042782,0.00770141
0.00380305,0.0120827
-0.00881643,0.00930733
-0.0144147,0.00373542
-0.0231857,-0.0139946
-0.00922097,-0.0404743
0.0233318,-0.0744127
0.0244907,-0.0927913
-0.00708423,-0.0769769
-0.0126443,-0.082221
0.0540255,-0.133992
0.120838,-0.112362
0.0819882,-0.00752454
0.0158418,0.0273238
-0.0477598,0.0648619
0.0119892,0.0681881
0.0939556,0.0328245
0.038984,0.0714496
0.0063511,0.109182
0.0420474,0.0932615
0.0520948,0.0609464
0.0927366,0.0304302
0.0355533,0.00971953
-0.0388554,0.00654471
0.0608264,0.0269729
0.127552,0.0427137
0.0764866,0.0532109
-0.090982,0.0584163
-0.349064,0.0439545
-0.446527,-0.00457652
-0.318564,-0.0477501
-0.144911,0.0143756
-0.053211,0.0137486
0.0222409,0.00415237
0.0819086,-0.00083625
0.0633132,-0.00601192
0.0241342,-0.00737989
0.0076384,-0.00932221
-0.00455213,-0.01571
0.0188543,-0.0401051
0.0331419,-0.0684505
0.0104345,0.000546022
0.0321043,0.018067
0.0785419,-0.0312746
0.0672256,-0.0358979
0.00833734,-0.0340509
-0.0401991,-0.0479913
-0.0274065,-0.0389728
0.0429507,-0.0168231
0.198044,0.0106415
0.309598,0.0291193
0.274649,0.0289403
0.0951909,0.0144503
-0.156816,0.00627586
-0.338501,0.00456003
-0.241203,-0.00119987
-0.0214074,-0.0050323
0.0792567,-0.00245466
0.126055,-0.0108302
0.203687,-0.0110298
0.0937692,-0.00360877
-0.042885,-0.0142002
-0.101313,-0.0275452
-0.0943625,-0.0175598
-0.115707,0.00617369
0.0279758,0.00402546
0.0447937,9.5e-06
-0.234396,0.018684
-0.311388,0.034389
-0.0590003,0.0476936
0.173163,0.0389445
0.389267,0.00470448
0.572587,-0.0299451
0.652443,-0.0284932
0.296966,-0.023549
-0.146491,-0.0294748
-0.360405,-0.0388732
-0.523283,0.00714305
-0.485915,0.0199609
-0.38481,0.0228002
-0.273397,-0.0323723
-0.152748,-0.0380243
-0.00365554,0.0238166
0.0726887,-0.0320178
0.00566655,-0.0493818
-0.052747,0.0289371
-0.048208,0.0470669
0.00481843,0.00334062
0.0322953,-0.041208
0.0297753,-0.01877
0.00912686,-0.000153034
-0.0442488,-0.0225218
-0.0546656,-0.0474528
0.0554717,-0.0673437
0.225243,-0.0528101
0.326804,-0.0110511
0.275168,0.00456762
0.0825413,0.0152277
0.0164339,0.0426466
0.228921,0.0597678
0.51173,0.0532345
0.637778,0.0611265
0.563982,0.0535089
0.0972747,0.0658956
-0.533156,0.0731091
-1.00082,0.075311
-0.928849,0.0556284
-0.383208,0.0220979
0.123013,0.00147985
0.486444,-0.0148457
0.570186,-0.0406654
0.369433,-0.0756168
-0.17774,-0.0280475
-0.665508,0.00978692
-0.592729,0.0115854
-0.322917,-0.0112772
-0.0543544,-0.0102752
0.224208,0.0163837
0.383015,0.0146368
0.373158,0.038277
0.157633,0.0318021
-0.212226,0.0107851
-0.447612,0.00263851
-0.396211,0.00603397
-0.188288,-0.00627881
0.0805351,-0.0245102
0.21395,-0.039419
0.23288,-0.0385532
0.146665,-0.036438
0.0087669,-0.0483226
-0.0818618,-0.0380255
-0.0906103,-0.00630489
-0.0187982,-0.0100779
0.154846,-0.00229954
0.386367,-0.00748903
0.553007,-0.0224074
0.532564,0.0112048
0.384884,0.0243902
0.0178562,-0.0120582
-0.413812,-0.0313307
-0.664127,-0.0115732
-0.600548,0.0176446
-0.367109,0.0367578
-0.170897,0.0218186
-0.0286179,-0.00639984
0.0524464,0.0312894
0.260423,-0.0255463
0.484938,-0.0620307
0.509865,-0.00463778
0.315946,-0.00812339
-0.192018,-0.00709069
-0.535375,0.0336336
-0.341201,0.0399774
-0.188,0.0366279
-0.0791086,0.02085
-0.007662,0.0030256
-0.0322526,0.00186133
-0.029964,0.00759418
0.0399526,-0.0153357
0.195208,-0.0260578
0.303845,-0.0115122
0.254574,0.00832416
0.153262,0.017664
-0.0648622,0.0134375
-0.281297,0.00210063
-0.188431,-0.00569898
-0.0243366,0.00317623
0.0576438,0.0163815
-0.0292298,0.037935
-0.0647559,0.0566809
0.081454,0.0578172
0.119033,0.0111352
0.0611165,-0.0236104
0.0441827,-0.0342621
0.0643676,-0.034873
-0.0272661,-0.0428874
-0.134676,-0.0539718
-0.121252,-0.0654155
-0.0370482,-0.0992871
0.144663,-0.115301
0.399851,-0.0608821
0.40124,-0.0224225
0.14124,0.000917256
-0.249964,0.0293406
-0.512702,0.0600573
-0.37001,0.0689354
-0.0502567,0.0554719
0.00741971,0.0328083
-0.0238611,0.00220909
-0.0987335,0.00234079
-0.110411,0.0106401
0.0309935,0.01007
0.0868644,-0.0126484
0.0365562,0.0194844
-0.0651908,0.0418977
-0.0564552,0.035175
0.0340571,0.0173011
0.0529015,-0.00149087
0.0406339,-0.00129658
0.0990013,0.00585447
0.294254,-0.00262391
0.335381,-0.0201332
0.265397,-0.0394998
0.0953188,-0.0314906
-0.0824672,-0.0179841
-0.126963,-0.0229725
-0.249255,-0.00650333
-0.258727,0.00305521
-0.306598,0.0299605
-0.209444,0.0509372
-0.0482431,0.0345788
0.0414781,0.0261209
0.100889,0.0257762
0.0981702,0.015247
0.0387871,0.0114789
-0.0971277,0.00615042
-0.151887,-0.00348963
-0.095648,0.00221455
0.015651,-0.00285303
0.140029,-0.0226858
0.177416,-0.0279987
0.184869,-0.00870093
0.147589,-0.00816276
0.185321,-0.0295914
0.229092,-0.0271399
0.192493,-0.0141205
0.0345861,-0.0137722
-0.0869011,-0.00864618
-0.329741,0.0166846
-0.459855,0.0395251
-0.305651,0.0212898
-0.180332,0.032658
-0.131132,0.0495829
-0.0604148,0.0325485
0.0381374,-0.00779115
0.087859,0.0204332
0.0237962,0.0299154
-0.0418528,-0.00820374
-0.0072998,-0.0283067
0.190789,-0.0358922
0.365414,-0.0321422
0.471953,-0.0217836
0.535604,-0.0229598
0.443586,-0.0146697
0.263809,0.00660985
0.0833867,-0.00551073
-0.0603601,-0.0225797
-0.0734281,-0.0178117
-0.350548,-0.00232668
-0.861088,0.0233974
-0.668919,0.0224436
-0.325834,0.0152054
-0.192093,0.0102514
-0.181508,-0.0172004
-0.109669,-0.0444283
0.0903607,-0.0108417
0.296122,-0.0419028
0.308918,-0.0216802
0.215844,0.00755416
0.106793,-0.0323586
-0.0762125,-0.0343243
-0.12931,-0.0311653
-0.00517075,0.0392571
0.0843314,0.048895
0.214553,0.00450213
0.294801,-0.00854127
0.289528,0.00302933
0.0622433,0.0148337
-0.209753,0.0198945
-0.239675,0.00728005
-0.202649,-0.0115478
-0.129129,-0.0183017
-0.075072,-0.0145676
-0.0493726,-0.0177792
-0.0247849,-0.00370358
-0.0152939,0.0248272
0.0199121,0.0347173
0.118715,0.010626
0.123122,-0.00117571
0.0511549,0.0260175
0.0501787,0.0280969
-0.0127193,0.0322659
-0.0528795,0.0440132
0.0073611,0.0358267
-0.0442192,0.00568783
-0.078444,0.00108224
0.145098,-0.00090664
0.367135,-0.00472197
0.353467,-0.0081773
0.219533,-0.0101128
-0.12939,-0.0123254
-0.360689,-0.00813264
-0.170207,0.0175325
-0.0788368,0.0420379
-0.168662,0.0275076
-0.162547,0.0016223
-0.14014,-0.0306818
-0.135731,-0.0447554
-0.024741,-0.0214644
0.0992301,-0.00515672
0.113153,0.00632306
0.137381,0.00551973
0.0967615,-0.00548338
0.0869813,-0.00429371
0.0933836,-0.00447481
0.101453,-0.00520671
0.0883696,-0.00685149
-0.139907,0.00593578
-0.269787,0.0147459
-0.230352,0.00381161
-0.176119,-0.00268027
-0.0524455,-0.00849177
0.00847766,-0.0504892
0.0486045,-0.0674639
0.142943,-0.0122718
0.136678,0.0278143
0.119702,0.0254385
0.0996724,0.00853512
-0.0149147,-0.00763392
0.00493797,-0.0224413
0.153377,-0.0307875
0.192798,-0.0181824
0.082345,-0.0160924
-0.0019099,-0.00260229
-0.0902457,0.0165517
-0.260065,0.0259994
-0.241063,0.00993171
-0.139143,0.0185732
-0.0223699,0.0266516
0.208397,0.00343003
0.312467,-0.0245942
0.140165,-0.0172179
-0.0899971,-0.000385604
-0.224836,0.0132682
-0.15084,0.0190216
-0.122399,0.0185006
-0.165774,0.0101255
-0.0760587,0.00724005
0.0158663,0.00292797
0.03379,-0.0107428
0.0244912,-0.0201655
-0.0151051,-0.0197232
-0.0530251,-0.0042071
-0.00373334,0.00989532
0.127939,0.0141085
0.199121,0.0226582
0.180213,-0.00276674
0.0524115,-0.0452963
-0.0693612,-0.0347255
0.0329347,0.000691859
0.172171,0.0108556
0.133591,0.0112027
0.028518,-0.00902042
-0.186597,-0.0220181
-0.279835,-0.0154199
-0.0450118,-0.0045422
0.0941549,0.00632551
0.064222,0.0100744
-0.0633366,-0.00224501
-0.12962,-0.00878046
0.0828966,0.00931989
0.20201,0.0213561
0.0990943,0.0216248
-0.173676,0.00991885
-0.215835,0.00645164
0.0589266,0.0107405
0.239724,0.0157613
0.333135,0.0199787
0.369284,0.0105386
0.118878,-0.0100407
-0.174366,-0.00792717
-0.393859,0.00245202
-0.422645,-9.3e-05
-0.133813,-0.0173349
0.0606053,-0.0132949
-0.004132,0.022386
-0.0621046,0.0649965
-0.0440753,0.0672698
0.0366891,0.0277534
0.0247677,-0.0769806
-0.141881,-0.0844512
-0.184438,-0.0199681
-0.0297491,0.028934
0.161413,0.0436357
0.185737,0.0335264
0.102349,0.0250485
-0.0390501,0.00201252
-0.0287029,-0.0255249
-0.115971,-0.0337325
-0.223557,-0.0236699
-0.151285,0.00407651
-0.0184921,0.0211448
0.0147173,0.0300453
0.0435435,0.0364405
0.0639832,0.0219356
0.0688946,-0.0123148
0.110038,-0.0196276
0.131084,-0.04501
0.121968,-0.0629266
0.179721,-0.0296784
0.227214,-0.0203101
0.203084,-0.0224369
0.0827707,-0.00723285
-0.0981988,0.010692
-0.0974203,0.00256626
-0.13199,-0.0115948
-0.173128,-0.0141422
-0.0303838,-0.0133252
0.0259654,0.000172164
-0.0221353,0.00776442
-0.0418566,-0.0103274
-0.0277245,-0.0264053
-0.0654223,-0.00419771
-0.156819,0.0118343
-0.120738,0.0125237
0.0353925,0.0159704
0.165512,0.0116055
0.175317,0.0183712
0.063325,0.0273665
-0.194008,0.0262514
-0.338987,0.0166203
-0.0585734,0.00410566
0.226624,-0.0105643
0.280121,-0.0105228
0.353742,0.00667137
0.346178,0.000213515
0.491541,-0.0159273
0.46278,-0.0284838
0.115634,-0.0277123
-0.375561,0.0309317
-0.693423,0.0407135
-0.623665,0.00918725
-0.467084,-0.0243055
-0.390131,-0.0584425
-0.25576,-0.000674114
-0.0175677,0.0987582
0.166115,0.0515293
0.19109,-0.00871359
0.0744146,-0.0170178
-0.0607592,-0.00104735
-0.127914,0.0052583
-0.0511136,-0.0102761
0.0532145,-0.0245023
0.0821281,-0.0101468
0.0967711,0.00503792
0.136735,0.00922345
0.172899,0.00186281
0.200527,-0.0121345
0.138348,-0.0052514
0.0350707,0.018343
-0.0214808,-0.00605982
-0.00861156,-0.0211851
0.0296133,-0.00379878
0.035643,-0.00288968
-0.0177002,-0.00473621
-0.0659258,0.00100068
-0.0598359,0.00620311
-0.0463208,0.00107183
-0.0377737,-0.00184974
-0.0152143,0.00337768
-0.0104106,0.00658725
0.0129657,0.00410364
0.141029,-0.000197513
0.257935,-0.00948338
0.286251,-0.0162864
0.241448,-0.0150106
-0.0550344,8.36e-05
-0.268675,0.0147343
-0.228923,0.0138177
-0.183975,0.011266
-0.0459648,0.00407918
0.12508,-0.00705753
0.159707,-0.0221922
-0.00731374,-0.0179323
-0.250692,0.00435571
-0.157193,0.00839022
-0.059014,0.0132657
-0.163927,0.0193006
-0.189887,0.0126354
-0.101518,-0.00570643
0.0387808,-0.0186099
0.205136,-0.0178784
0.318039,0.00515704
0.333733,0.021424
0.36124,0.0136915
0.351258,0.00821607
0.127097,-0.000986178
-0.165089,-0.0126798
-0.435874,-0.034611
-0.544577,-0.0335881
-0.390998,-0.00420103
-0.166366,-0.0104505
-0.0463075,-0.0430635
-0.0381755,-0.00776802
-0.0263239,0.0391137
0.0411501,0.0288494
0.126085,0.0076346
0.181814,-0.00407901
0.110395,-0.0267483
0.118412,-0.033918
0.201418,0.0393225
0.214175,0.0557138
0.14858,0.0325424
-0.0936951,0.0239819
-0.278414,0.0251576
-0.169724,0.00632974
-0.154455,-0.00493461
-0.162798,-0.00669604
-0.0469051,-0.00584366
0.00857882,0.00741045
-0.0177663,0.0206539
0.013798,0.0255121
0.0499102,0.00893145
0.00727597,-0.0320129
-0.0468425,-0.0599666
-0.0901362,-0.0488207
-0.0351264,-0.0168376
0.0809256,0.0042747
0.244199,0.0170126
0.395965,0.0133851
0.48777,0.00702321
0.570272,0.000271055
0.504182,-0.00629885
0.413701,-0.0357814
-0.0777945,-0.0230686
-0.91219,-0.0018283
-0.931103,0.00613209
-0.476944,-0.00212434
-0.22795,0.0104408
-0.152223,0.0263112
-0.0864289,0.00071446
0.00471261,0.00220795
0.0840366,0.0267613
0.160308,0.0105527
0.179955,0.00646939
0.115731,0.0116974
-0.0101617,0.0124903
-0.0576985,0.00717744
0.0488986,-0.0192757
0.0912903,-0.0288506
0.079635,-0.00504949
0.0867783,-0.0163564
0.153285,-0.0261148
0.069417,0.01165
-0.144504,0.0285944
-0.243756,0.0277491
-0.148045,0.0106751
0.00459765,0.000136386
0.0545832,0.00425939
0.00315156,-0.0106616
-0.0976445,-0.0349609
-0.202121,-0.0529983
-0.125922,-0.0541206
0.0991518,-0.0181838
0.292849,0.0337
0.393082,0.0194449
0.269723,-0.0219197
-0.00988945,-0.0255137
-0.146235,0.028255
-0.18304,0.0396604
-0.188087,0.0369841
-0.115482,0.0326899
-0.0069696,0.0311371
0.103172,0.0401347
0.162186,0.00337189
0.125882,-0.0526372
0.110341,-0.0505973
0.00591216,-0.00696484
-0.0913102,0.0592365
-0.123826,0.0612762
-0.229235,-0.00224132
-0.148648,-0.0653474
0.00783128,-0.0435426
0.169335,-0.00564831
0.389489,0.00273624
0.375972,0.00743497
0.0822996,0.0188156
-0.272207,0.0269117
-0.391827,0.00144441
-0.197097,-0.0349133
-0.0648069,-0.057041
-0.0378466,-0.0192496
0.0160855,0.0136756
-0.0044154,0.0147835
-0.028707,0.0147625
0.0496341,-0.000587312
0.177777,-0.0307554
0.34349,-0.0115813
0.303684,0.022342
0.0719203,0.0178344
-0.211021,0.00648379
-0.384976,0.0119553
-0.312289,0.0208493
-0.168527,0.0199487
-0.019154,0.00126944
0.136769,-0.0128164
0.218189,-0.0185355
0.233613,-0.0132865
0.224371,-0.00365456
0.164488,-0.00877782
-0.00701646,0.00129383
-0.222614,0.0254278
-0.329671,0.0183997
-0.462725,0.00265061
-0.37953,-0.00382968
-0.116279,-0.00833593
0.000636538,-0.00356664
0.0621674,0.00194671
0.143374,-0.00206855
0.20664,-0.00818101
0.209344,0.0048063
0.141739,0.0231787
0.060054,0.0185122
0.00612695,0.0133439
-0.0247979,-0.00333896
0.0280769,-0.026346
0.200991,-0.00366254
0.310415,-0.0078983
0.335219,-0.0742498
0.186538,-0.0454633
-0.0547154,0.0118968
-0.294214,0.0238369
-0.299802,0.0311108
-0.317624,0.0112776
-0.412754,-0.00523486
-0.188009,0.0149251
0.0136712,0.0231969
0.0387193,-0.00673783
-0.00669245,-0.00136164
-0.0258182,0.00238506
0.0907418,0.000128697
0.258741,0.00181703
0.341351,-0.0118631
0.544765,-0.0143894
0.535508,-0.018229
0.270594,-0.0207701
-0.0209836,-0.0077499
-0.471135,0.0291918
-0.272631,0.0348752
0.186073,0.00562987
0.214145,-0.0313222
-0.115052,-0.0456131
-0.550474,-0.00921779
-0.643596,0.0141914
-0.551614,0.0305539
-0.422127,0.0448351
-0.184054,0.0292764
0.0755024,-0.00759152
0.231609,-0.0299676
0.365647,-0.044305
0.356841,-0.0414864
0.263192,0.000163011
-0.0375304,0.0314308
-0.45652,0.0101454
-0.200066,-0.00748344
0.47674,0.0515011
0.772051,0.0653745
0.869047,0.0088003
0.67787,-0.0213036
0.15926,-0.00414265
-0.376914,0.0135031
-0.823363,0.0406305
-0.684788,0.0470961
-0.596258,0.0256049
-0.431098,-0.026303
-0.112182,-0.0307319
0.00566103,0.0459803
-0.0851164,0.0402971
-0.230506,-0.0102834
-0.23791,-0.0219427
-0.0342276,-0.0251906
0.0625281,-0.0170058
0.0644077,-0.0310557
0.156382,-0.109522
0.303862,-0.0301425
0.471869,0.0346985
0.618295,-0.0369322
0.610953,-0.0966196
0.265307,-0.0549906
0.00366072,0.0258068
0.0819579,0.0444752
0.168419,0.00246666
0.00274461,-0.0539802
-0.36093,-0.0238161
-0.580979,0.0618932
-0.52986,0.0635096
-0.346608,0.0291944
-0.207448,0.0131308
-0.110109,0.000873849
-0.0268859,-0.0275105
0.0396739,-0.0312937
0.10686,0.0398576
0.167805,0.062216
0.291486,-0.0196208
0.374194,-0.0264144
0.314838,0.0103996
0.178481,-0.00846497
-0.120565,0.0235637
-0.14379,0.0103326
0.128553,0.0175417
0.174779,0.012941
-0.0561039,0.0167913
-0.320857,-0.0283305
-0.0850152,-0.106174
0.320482,-0.0619071
0.26942,-0.00598053
-0.161415,0.0142525
-0.463018,0.0421478
-0.272377,0.029547
-0.227873,0.0175347
-0.229947,0.0255934
-0.143413,0.0193991
-0.0226023,0.00614825
0.155762,0.012047
0.343585,0.015773
0.387247,0.016505
0.250801,0.0185889
0.0751864,-0.0428542
-0.0608555,-0.0332101
-0.133226,0.0745321
-0.392995,0.0882754
-0.49451,0.0418589
-0.304808,-0.0283521
-0.18171,-0.0251318
4.5e-05,-0.00676844
0.267166,-0.0262138
0.491306,-0.0555285
0.552508,-0.038527
0.510036,-0.0211839
0.211437,-0.0179307
-0.139151,-0.0109695
-0.236709,-0.00961226
-0.484047,0.0200367
-0.538814,0.0306281
-0.30774,0.0382989
-0.156408,0.0477605
-0.0738699,0.0173477
0.0114169,-0.0310283
0.0962401,-0.0470594
0.18411,-0.0381959
0.333562,-0.036929
0.453717,-0.0178435
0.497464,0.010196
0.496497,0.00372085
0.378685,-0.0325696
0.0157006,0.024861
-0.339005,0.0595287
-0.357457,0.0151358
-0.291876,-0.0108773
-0.322334,-0.00765474
-0.323144,-0.022468
-0.138203,0.000109942
0.289804,0.0357896
0.294214,0.0377697
0.0114973,0.0209529
-0.449357,0.00285779
-0.642591,0.00441008
-0.251024,0.0137064
0.0349446,0.0243787
0.0656844,0.0304337
0.172478,-0.066641
0.351943,-0.138668
0.464458,-0.105214
0.229833,-0.0673649
-0.265309,0.0198544
-0.329939,0.0778274
-0.125513,0.122125
-0.0265405,0.0769607
0.00255248,-0.0179352
-0.0322309,-0.0942776
-0.0375831,-0.0534483
0.096826,0.0445089
0.126998,0.0831117
0.170322,0.0757616
0.289381,0.0170913
0.034788,-0.0703786
-0.202297,-0.0908882
-0.0416393,-0.0729323
0.0598529,-0.0368419
0.1043,-0.0212378
0.106703,0.00694751
0.0725603,0.0571566
-0.0123443,0.076581
-0.0245353,0.0422754
0.0975477,0.0123023
0.225104,0.00991681
0.154303,-0.0175871
-0.152362,-0.0486578
-0.413194,-0.0351076
-0.689985,-0.00501805
-0.62061,0.0358008
-0.0837393,0.0618642
0.215465,0.0116859
0.939178,-0.0430933
1.13268,-0.0514933
0.934112,-0.00649689
0.300309,0.0124375
-0.48071,-0.0243275
-0.510511,-0.048447
-0.205007,0.0229316
-0.573865,0.0454009
-0.89426,0.0434324
-0.339614,0.0315695
0.200295,0.0201619
0.131203,0.00144539
-0.0583649,0.0245309
-0.260125,0.0809233
-0.223729,0.0558013
-0.0147747,-0.00231283
-0.0110895,-0.0375213
-0.0590757,-0.020192
-0.0292363,0.0104542
0.142756,-0.0111484
0.218336,-0.0399765
0.147228,-0.0346721
-0.101168,-0.0368649
-0.106839,-0.00863496
0.226483,0.0162698
0.374441,0.0708379
0.230599,0.0673487
-0.00254017,0.000881426
0.0908126,-0.0541403
0.0641453,-0.0738424
-0.268907,-0.0763962
-0.390609,-0.0365194
-0.142518,0.000199336
0.277089,0.0122531
0.729357,-0.0643042
0.984829,-0.0924399
0.670114,0.0309075
-0.173339,0.132819
-0.862568,0.078205
-0.870013,0.00523556
-0.493548,0.00590887
-0.149839,-0.0207865
0.182425,-0.051454
0.353916,-0.016822
0.187336,0.0069349
-0.0793513,0.0208348
-0.462677,0.0112786
-0.480436,-0.0531293
-0.0773221,-0.110025
0.151482,-0.110294
0.114778,-0.0137879
0.157636,0.0760438
0.275239,0.137252
0.291065,0.116683
0.246451,0.0412566
0.191021,0.0196827
-0.118233,0.0359121
-0.384814,0.0637549
-0.383123,0.0515363
-0.253277,0.0151334
-0.0788249,0.00978194
0.0769727,-3.51e-05
0.0309831,-0.0528452
-0.0451546,-0.0973389
-0.036111,-0.0830282
0.126807,-0.04482
0.343879,-0.0245702
0.391649,-0.0734325
0.0928019,-0.171296
-0.336797,-0.186429
-0.517926,-0.04491
-0.35801,0.0849696
-0.114853,0.110341
0.050994,0.0751186
0.169634,0.00655289
0.793182,0.0023844
1.20331,0.0497913
1.11325,0.0743986
0.449561,0.0949208
-0.617569,0.152685
-0.72099,0.196429
-0.291117,0.110313
-0.327676,0.0184421
-0.45236,-0.0685698
-0.392538,-0.147552
-0.382125,-0.155704
-0.518738,-0.114305
-0.450593,-0.136222
-0.25935,-0.117652
-0.0283417,0.00990207
0.14032,0.068425
0.155215,0.0477384
0.215282,0.00726309
0.356349,-0.0289811
0.411518,0.0306031
0.281938,0.0806298
0.224698,0.0202087
0.193843,-0.0295507
-0.112509,-0.0119067
-0.2091,0.0155511
-0.138674,0.0298049
-0.262208,0.0162651
-0.292129,-0.00977048
0.0429701,0.00836096
0.330058,0.0601977
0.474272,0.103269
0.311785,0.096181
0.049035,0.0571714
-0.274092,-0.00590268
-0.465992,-0.0234859
-0.126806,0.00657409
0.448219,0.0197471
1.25699,-0.0953849
1.44278,-0.175829
0.151284,-0.118485
-1.3245,-0.0326681
-1.75251,0.059008
-0.969117,0.0959267
-0.0655719,0.0817763
0.237357,0.0507987
0.485112,0.0283843
0.971895,0.0552948
0.893198,0.0300379
0.189543,-0.0287335
-0.721745,-0.0242467
-1.4201,-0.0588217
-0.86207,-0.0687716
-0.105552,-0.0325768
0.0338117,-0.00140612
-0.0981718,-0.000438186
0.0532691,-0.0595942
0.245446,-0.114592
0.433901,-0.0793209
0.406558,-0.0161876
0.0671008,0.0213989
-0.269074,0.0280113
-0.408137,0.0269551
-0.0459434,0.0210588
0.399668,0.00254718
0.188484,-0.000196435
0.221212,-0.024659
0.507803,-0.0778422
0.549126,-0.127426
0.714864,-0.0604873
-0.0266746,0.0699025
-0.622823,0.0295133
-0.668024,-0.00823973
-0.896568,0.0438641
-0.669686,0.116133
-0.106544,0.101318
0.453972,0.0300889
0.471484,-0.0295174
0.707525,0.0192725
0.651497,0.0434467
0.654497,-0.07583
0.528522,-0.125166
0.0287475,-0.0695065
0.0403752,0.0182044
-0.333466,0.114983
-0.546571,0.116276
-0.668185,0.104806
-0.797859,0.0881446
-0.60779,0.0202896
-0.304127,-0.0326535
-0.0552117,-0.0164212
0.223473,0.00657751
0.267616,-0.0365264
-0.0296666,-0.0583038
-0.410709,0.015617
-0.296584,0.0460212
0.136387,0.0663274
0.191862,0.0574815
-0.262874,0.00836651
-0.57656,-0.0355512
-0.111898,-0.0662934
0.49709,-0.0642437
0.751746,-0.00339257
1.10084,0.050225
1.08532,0.0434284
0.909086,0.0134983
0.200847,-0.0244049
-0.395594,-0.0521548
-0.214452,-0.0853919
0.206887,-0.110942
-0.073084,-0.0862621
-1.15313,0.0134392
-1.18436,0.0805005
-0.34354,0.0941817
0.0102788,0.0274541
0.159643,-0.038358
0.232924,-0.0896394
0.0791999,-0.0873438
-0.463563,-0.107022
-0.495218,-0.0748041
0.236505,-0.0208688
0.701842,-0.0409465
0.658082,0.0534494
0.155525,0.172106
-0.249888,0.111726
-0.172537,0.0290625
0.28487,0.087729
0.287484,0.0852753
-0.111519,-0.0029582
-0.691524,-0.0438735
-1.08937,-0.0422422
-0.710798,-0.0201731
-0.384331,0.00458561
-0.0812719,0.0367562
0.525186,0.0811864
1.04271,0.0333219
1.25339,-0.0376909
0.831627,-0.0369176
0.543489,-0.0624386
0.34532,-0.0169869
-0.133274,0.0319428
-0.310184,0.0105122
-0.4671,-0.0434406
-0.808303,-0.0846485
-0.35506,-0.11301
1.10011,-0.129478
1.2533,-0.0207848
0.00546363,0.083567
-1.73232,0.148843
-2.1085,0.112067
-0.8582,-0.0232313
0.442106,-0.0865323
0.934009,-0.0276728
0.90346,0.011423
0.128149,0.0225998
-0.584972,0.0291222
-0.711906,0.0104502
-0.579653,-0.0431566
-0.168739,-0.0706144
-0.0688555,0.0196346
0.272185,0.110997
1.29418,0.175704
1.4313,0.162517
0.110654,-0.0316858
-0.922519,-0.201918
-0.719167,-0.118662
-0.353345,-0.0121981
-0.236962,0.0120312
-0.141986,0.0227706
0.24863,0.0276755
0.637543,-0.0154465
0.536683,-0.000795516
0.389183,0.0571818
1.06235,0.0427713
0.916625,-6.43e-05
-0.234009,-0.00110009
-1.65981,0.0145765
-2.07206,0.0268633
-0.826967,0.0415775
0.157936,0.0518297
0.223113,0.035972
0.0993972,-0.0347372
-0.0733924,-0.12267
0.500417,-0.162692
1.66,-0.181227
1.64876,-0.0632022
0.635966,0.0815709
-0.53115,0.063098
-0.626544,-0.0260416
-0.105222,-0.0494145
0.250604,-0.0463315
0.739976,-0.0464723
0.677786,-0.0250592
-0.606315,0.0683015
-1.87317,0.0788077
-1.46229,0.0491328
-0.337405,0.116591
0.14346,0.109798
-0.00428369,0.101033
-0.191482,0.0972762
-0.292964,0.0714187
-0.14497,-0.0361897
-0.0536339,-0.0652038
0.0196474,-0.0365615
0.108854,-0.0136703
0.557515,-0.0241049
1.20133,-0.0296977
0.939625,0.00208695
-0.162985,0.0103967
-1.01652,0.0326493
-0.729461,0.0392062
-0.0571512,-0.00176273
0.144868,-0.0324173
0.0581768,-0.0267945
0.166804,-0.0104641
0.36101,-0.0512303
0.313101,-0.0998109
-0.00836748,-0.0608114
-0.412196,0.00314686
-0.50835,0.000150792
-0.268237,-0.0028017
-0.0704951,0.0152674
-0.0318499,0.0220999
-0.104102,0.0105573
-0.109508,0.00477631
0.0838402,0.0169075
0.386035,0.00566444
0.625018,-0.0307953
1.08318,-0.0428537
1.32511,-0.0801753
0.988006,-0.0441571
0.266722,-0.0164067
-0.514402,-0.0456616
-0.664108,-0.000726847
0.0353107,0.0477941
0.337822,-0.0217777
-0.299128,-0.120175
-1.10325,-0.0545454
-1.23759,0.0163413
-0.790298,0.0675365
-0.316739,0.0751378
0.0546799,0.0556734
0.17203,0.0531642
0.185993,0.0528948
0.526713,0.050449
0.769765,0.048137
0.315756,0.017667
0.112771,0.00893553
-0.460255,0.0887479
-1.08223,0.0694838
-0.857608,-0.0748574
-0.505606,-0.146707
-0.0230056,-0.0788799
0.504657,-0.00320547
0.609789,0.00579417
0.250148,-0.00181115
-0.141419,0.041368
0.144314,0.13887
0.400563,0.100124
0.461842,-0.0262793
0.358661,-0.0883305
0.120542,-0.0816132
-0.404795,-0.0423884
-0.468338,-0.0571052
-0.0899043,-0.0670661
0.158117,-0.0300796
0.325197,0.0346832
-0.00056756,0.0697426
-0.799279,0.0863925
-0.919765,0.0837407
-0.329922,0.0163262
0.266084,0.0155659
0.76296,0.0335852
0.800926,-0.0394119
0.140588,0.00582925
-0.318589,0.0709792
0.369847,0.012683
0.7621,-0.104158
0.246725,-0.15499
-0.638209,-0.0802339
-1.11607,-0.0372189
-0.497614,0.00247274
0.708887,0.0262691
1.41776,0.0174762
0.852131,0.035664
-0.172169,0.0772525
-0.85928,0.0717425
-0.509939,0.00168969
-0.175867,0.0137166
-0.335178,0.0561243
-0.420719,0.092357
-0.463126,0.0709517
-0.21912,0.00945183
0.0775565,-0.0286148
0.319031,-0.0371033
0.840876,-0.095358
1.03452,-0.161928
0.53505,-0.0123355
-0.70296,0.147605
-0.991955,0.0712704
-0.640467,-0.0444733
-0.437484,-0.149636
0.0293501,-0.127864
0.578803,-0.0167891
0.578579,0.000376109
0.120254,-0.0360622
-0.27854,-0.0246511
-0.509221,0.0261828
-0.487021,0.0450676
-0.132138,0.0341296
0.198365,0.0142932
0.526469,0.0128809
0.707364,0.0767415
0.643891,0.150558
0.308365,0.13102
-0.0584184,0.0276794
0.116881,-0.0192497
0.0220751,-0.00297949
-0.507697,-0.0686584
-0.699533,-0.13655
-0.494701,-0.153739
-0.191579,-0.138858
-0.165988,-0.102764
-0.362627,0.00849228
-0.264215,0.0831194
0.00955653,0.0826364
0.251878,0.075997
0.285416,0.0789659
0.232221,0.062036
0.401912,0.0168496
0.487267,-0.0222072
0.557935,0.00614906
0.473949,0.0144922
0.0847862,0.0803593
0.097073,0.0623558
0.0164786,-0.031647
-0.238083,0.00230777
-0.178054,-0.0158283
0.137093,-0.135495
0.153634,-0.136965
-0.296344,-0.0355312
-0.610417,0.061857
-0.237621,0.0821203
-0.197278,0.047117
-0.0564393,-0.0181492
0.00341836,-0.0699987
-0.279298,-0.100937
-0.242445,-0.0564934
-0.2022,0.0316988
-0.292275,0.081244
-0.31749,0.021431
-0.146496,-0.0331781
0.128346,0.0182395
0.231545,0.034136
0.175135,0.0269367
0.0367061,0.0293544
0.341837,0.016558
0.771461,-0.0179141
0.791862,-0.0253196
0.379666,0.0166774
-0.406147,0.0516323
-0.840245,0.00453566
-0.63767,-0.0167928
-0.291417,-0.0182718
-0.0769964,-0.03954
0.0900946,0.00233366
0.256854,0.158759
0.450726,0.228135
0.344396,0.0341167
0.0799186,-0.182371
-0.0986779,-0.22072
-0.0948233,-0.158823
0.352851,-0.0620176
0.781635,-0.0378679
0.611338,-0.0880799
-0.178882,-0.0450715
-0.960719,0.038305
-0.808665,0.108394
-0.543606,0.106832
-0.448357,0.0644415
-0.091242,0.045631
0.308011,0.040242
0.476038,0.0176267
0.736537,0.0170822
0.929595,0.0146145
0.714108,0.00724829
-0.0816875,-0.0380849
-0.739275,-0.142771
-0.603795,-0.107803
-0.221588,0.0244217
-0.286256,0.0972456
-0.589988,0.126751
-0.172764,0.104934
0.50355,0.0350251
0.474261,-0.0279563
-0.0171092,-0.062217
-0.535152,-0.0820601
-0.37478,-0.0391953
0.0777149,-0.013373
0.0487591,-0.010517
-0.17302,0.00656534
-0.288305,0.00496785
-0.160024,-0.0290019
0.0756594,-0.000366221
0.201037,0.041144
0.0561037,0.060716
-0.150684,0.0577475
-0.0651313,0.0388755
0.210793,0.0154349
0.453049,-0.0320406
0.489835,-0.0405794
0.224751,-0.0111473
-0.0629537,6e-05
-0.0623467,-0.0419857
0.171885,-0.0857609
0.174834,-0.0666468
-0.0740682,-0.041562
-0.250918,-0.00559658
-0.299482,0.0819626
-0.0191066,0.109759
0.54899,0.0772964
0.611584,0.0291732
-0.0703956,0.0249806
-0.695256,0.00483237
-0.548372,-0.0377042
-0.092437,-0.0472294
0.0943961,-0.0275466
0.0752307,-0.0080587
-0.0393921,0.000414897
-0.0127393,-0.0146391
0.0832301,-0.064371
0.192456,-0.0693485
0.350971,-0.0606013
0.551299,-0.0266806
0.566654,-0.00963988
0.0711247,0.0343719
-0.377578,0.0355752
-0.165405,-0.0545426
0.21139,-0.0288537
-0.00622281,0.0275018
-0.553888,0.0605545
-1.10397,0.075673
-0.793929,0.0580845
-0.114924,0.0545744
0.13034,0.0572547
0.194209,0.0335387
0.514998,0.0252273
0.764763,0.0225696
0.450313,0.0229321
-0.48342,0.00313761
-0.965862,-0.0369274
-0.624073,-0.0584166
-0.26104,-0.0466765
0.0185996,-0.0299597
0.293565,-0.0495012
0.475627,-0.0413312
0.344866,0.021577
0.0978988,0.0418155
-0.0188924,0.0290147
0.299802,0.0230002
0.503532,0.0264287
0.0967113,0.0170381
-0.1725,0.0108015
0.224935,0.00561374
0.703297,-0.0783391
0.397818,-0.11931
-0.266829,-0.0306539
-0.786936,0.00669476
-0.654612,-0.00185604
-0.163023,-0.0301024
-0.0757459,-0.0561328
-0.123549,-0.0401709
-0.0704396,0.0342868
-0.197394,0.0649115
-0.161267,0.0647885
0.0593271,0.0380655
0.214772,0.0157762
0.239422,-0.00273898
0.294422,-0.00990748
0.308059,0.0298249
0.158901,0.0565079
-0.118288,0.054659
-0.264677,0.00588364
-0.153479,-0.0212608
-0.0708204,-0.0220545
0.0339085,-0.0166845
0.281988,-0.0112493
0.417376,-0.0042824
0.202025,0.0193715
-0.390046,0.00796999
-0.67912,-0.0428118
-0.332558,0.00290564
0.110082,0.0866666
0.179561,0.0688841
0.0457456,0.00682071
0.151518,-0.0568368
0.495616,-0.061807
0.59344,-0.0944676
0.347023,-0.109597
-0.282015,-0.0490873
-0.811623,-0.00275052
-0.599504,0.0131912
-0.14046,0.0145997
0.0593955,0.0438488
0.0179353,0.0843746
-0.0285501,0.0599695
0.0879409,-0.0578895
0.0317975,-0.0953949
-0.0577354,-0.0270523
-0.0666021,0.0256309
-0.0211756,0.0456662
0.0812739,0.0242199
0.128926,0.00454205
0.319586,-0.0182604
0.443032,-0.00885957
0.354642,-0.00115379
0.154621,0.0342502
-0.0558472,0.0627053
-0.307783,0.111249
-0.456719,0.0561416
-0.367824,-0.0478019
-0.228859,-0.0738754
-0.00133736,-0.0783444
0.103934,-0.0525502
0.137339,-0.0415095
0.144786,-0.0320953
-0.0260009,0.0189402
-0.140054,0.0687683
-0.0176787,0.0637017
0.146486,0.00681282
0.322103,-0.0130165
0.284694,-0.0112842
-0.196003,-0.0268356
-0.383052,0.0124272
-0.0953801,0.0409619
0.0238696,0.016026
-0.00521779,0.0107121
-0.0439299,0.0527949
0.175828,0.0306953
0.481228,-0.0386704
0.581982,-0.0542343
0.340595,-0.0113032
-0.133054,-0.00211882
-0.224712,-0.0188256
-0.370949,-0.00479173
-0.511777,-0.00493275
-0.325144,-0.0169263
-0.272732,-0.00987596
-0.361242,-0.0044817
-0.387664,-0.0131249
-0.235584,0.00345613
-0.0651455,0.0285596
0.0161541,-0.0150969
0.1098,-0.0519091
0.263873,-0.0183676
0.396738,0.0163174
0.414544,0.0274604
0.29999,0.0557098
0.175229,0.0467644
0.12663,-0.0247576
-0.182339,-0.0343922
-0.251924,0.00542448
-0.0608043,-0.0663835
-0.0477917,-0.0812063
-0.159467,0.0410799
-0.110106,0.0886313
0.544477,0.0419075
1.18427,-0.0415786
1.30253,-0.0630856
0.670206,0.0122354
-0.316556,0.0575596
-0.85129,0.0767768
-0.985697,0.0728884
-0.937026,0.0381628
-0.834789,0.0159906
-0.384008,-0.00119353
0.0226518,-0.0421527
0.127131,-0.0312325
0.0471535,0.0149256
-0.0602565,0.00731395
-0.150655,-0.0438451
-0.149851,-0.0922303
0.00949538,-0.0645126
0.0949434,-0.0179822
0.0732659,0.00239804
0.187596,0.0181747
0.480774,0.0610067
0.775482,0.0424943
0.727578,-0.0397824
0.178216,-0.100601
-0.0598266,-0.097054
-0.0748175,-0.0497309
-0.311057,-0.00256266
-0.32072,0.00431993
-0.349672,0.0451525
-0.325637,0.0809375
-0.245958,0.0908228
-0.064574,0.0421038
0.18124,0.00265348
0.155223,-0.00116712
-0.0197391,0.0166896
-0.148265,0.00427255
-0.14046,-0.0270167
0.154459,-0.0647913
0.553413,-0.062348
0.480874,-0.0124385
-0.00516003,0.0136741
-0.644156,0.026435
-0.626591,0.0368528
-0.0514452,0.040928
0.297991,0.0241748
0.34617,0.00229069
0.195292,-0.00620854
0.0955725,0.0123714
0.0667489,0.0467486
-0.0542276,0.0467519
-0.221723,0.0499524
-0.317328,0.0200824
-0.256553,-0.029471
-0.148964,-0.0552509
-0.135834,-0.0607652
-0.0493894,-0.0254414
0.0438838,-0.0110527
0.545492,-0.0387275
0.990434,-0.0542783
0.925309,-0.0341846
0.262751,-0.00500351
-0.56916,0.0135626
-0.517525,0.00996334
-0.392512,0.00834691
-0.470988,0.0431352
-0.44122,0.0317412
-0.278586,-0.00261826
0.0118778,0.0225534
-0.0267412,0.0199377
-0.216001,-0.0017563
-0.176589,0.000991502
0.0684118,0.0110463
0.224002,-0.00222899
0.346251,-0.00622539
0.418148,0.00376473
0.714467,0.00457385
0.70062,-0.000348262
0.182516,0.000938332
-0.372466,0.0015469
-0.510323,-0.00465589
-0.23566,0.0103144
0.0909811,0.0469599
0.228857,0.0870331
0.0275243,0.039338
-0.135468,-0.0964523
-0.0411816,-0.148968
-0.342382,-0.0567412
-0.666522,-0.0326208
-0.563266,0.0107854
-0.35157,0.0547566
-0.111038,0.0384543
-0.0125146,0.0150651
0.0835835,0.00769598
0.140431,0.0283257
0.282443,0.0384715
0.407598,0.0159031
0.33438,-0.00931249
0.141084,-0.019477
-0.107019,-0.00663774
-0.159188,-0.0117137
0.0796884,-0.0472793
0.221689,-0.0849737
0.116673,-0.0120649
-0.0415455,0.0165871
-0.130343,0.0081099
-0.00160229,0.0107911
0.209088,-0.00795894
0.175914,0.0104339
0.0113435,0.0384226
-0.062763,0.0161885
0.0329497,-0.0267157
0.176476,-0.0156952
0.135652,0.0209372
-0.136527,0.00690936
-0.281237,-0.00531449
-0.208504,0.00754431
-0.100367,0.00802459
0.0106207,0.0427053
0.0862468,0.0687723
0.0832832,0.0269436
-0.0020153,-0.0299363
-0.0227672,-0.0379635
-0.0287285,-0.0274104
-0.100702,-0.00698097
-0.114689,-0.00102671
-0.0321176,-0.0197658
0.076973,-0.0428231
0.104527,-0.0137073
0.0698777,0.020018
0.0607508,0.0277473
-0.0248425,-0.0156301
0.0109057,-0.0492192
0.196425,-0.0108206
0.250201,-0.0157166
0.36372,0.0267086
0.306906,0.105076
0.268337,0.10308
0.143594,0.0123453
-0.257632,-0.0917055
-0.232282,-0.078363
-0.250552,-0.0220692
-0.49356,0.00154963
-0.380606,0.0239685
-0.117139,-0.0123423
-0.0744877,-0.0541109
-0.162911,0.0169209
-0.234136,-0.0228621
-0.324896,-0.0660917
-0.140795,0.0430687
0.0580779,0.058318
0.0401019,-0.0594389
-0.0212412,-0.0311289
-0.0108305,0.0498446
0.115803,0.0533941
0.16186,0.0223437
0.0809572,0.0176127
-0.039009,0.0172477
0.00627672,0.0305095
0.102075,0.0259965
0.131401,0.00857606
0.196002,0.0291681
0.238217,0.0234679
0.191843,-0.0030632
0.0835427,-0.0249742
-0.00113114,-0.0407604
-0.0687844,-0.0448126
0.0667982,-0.0313873
0.145506,-0.0139486
-0.0126929,0.00178112
-0.295974,0.0175546
-0.435667,0.0272632
-0.241357,0.00434897
-0.00141536,-0.0043223
0.0364596,0.00943746
0.0261188,-0.0103656
0.126724,-0.0162365
0.195727,0.012732
0.238162,0.0149532
0.44357,0.0418376
0.752954,0.0892471
0.87824,0.037684
0.654716,-0.0610952
0.140409,-0.102623
-0.428028,-0.0677984
-0.703747,-0.0307697
-0.848189,0.00272528
-0.627997,0.00794037
-0.613614,0.022023
-0.46732,0.0154492
-0.20313,-0.0298496
-0.175423,-0.0565505
-0.169342,-0.0265113
-0.0743763,-0.0177167
0.0888538,-0.00122574
0.304723,0.0628473
0.307017,0.0511928
0.239625,-0.00304635
-0.0496172,-0.00670934
-0.28869,-0.00310624
-0.0973276,0.000384651
0.152976,-0.0564851
0.167139,-0.0656879
0.0600346,0.0944851
0.0661629,0.119711
0.120714,0.0667909
0.189789,0.0358032
0.109865,0.0104551
-0.00836328,-0.0232555
0.0946111,-0.0481545
0.328866,-0.0539384
0.494465,-0.0244376
0.407002,-0.0117563
-0.123642,-0.0562668
-0.678886,-0.0320907
-0.638109,0.00260932
-0.0674503,0.0153528
0.554094,0.0128232
0.605429,0.0154548
0.174247,0.0227589
-0.341609,0.0167149
-0.464319,0.0178868
-0.304579,0.0181929
-0.184487,0.0146931
-0.0765339,0.0416363
-0.0153394,0.0569927
0.099131,0.00615099
0.113898,-0.0460299
0.00215998,-0.0274726
-0.106518,-0.00626531
-0.157884,-0.0355146
-0.0101073,-0.0188702
0.205346,0.0124144
0.307415,0.0138552
0.152819,-0.0385189
-0.209393,-0.0812331
-0.254495,-0.0803174
0.167598,-0.00764408
0.359702,0.0279796
0.206894,0.0161489
-0.0530058,0.0154946
-0.274117,0.0191947
-0.329124,0.0215127
-0.32386,0.017467
-0.209275,0.0204307
0.113156,0.0306077
0.226665,0.0242586
0.115128,0.00709686
-0.168657,-0.0241977
-0.356943,0.00161878
0.540328,0.0471313
0.599134,0.0353671
0.112805,-0.0109605
-0.516003,-0.0263622
-0.526195,-0.00306253
-0.0771447,-0.00435134
0.174878,-0.0101053
0.1874,-0.00969885
-0.0238505,-0.0109307
-0.0746619,-0.0106688
-0.0708489,-0.00475611
-0.162461,0.0174042
-0.117167,-0.00394381
0.0164551,-0.0362705
0.225945,-0.0150173
0.379756,-0.00516378
0.449401,-0.0193343
0.298577,0.00733611
0.0965842,0.00057272
-0.163622,-0.0102215
-0.353018,0.00340899
-0.37427,-0.00220869
-0.317081,0.0191554
0.134447,0.0399573
0.753406,0.0627417
0.89485,0.0414945
0.44967,0.00438836
-0.668758,-0.0032619
-1.1482,-0.023231
-0.510779,-0.0260471
-0.037054,-0.0428293
-0.022475,-0.0370097
-0.127712,0.00244318
-0.0773023,0.00687102
-0.0620662,0.00808553
0.128006,-0.0212012
0.340974,-0.0564654
0.291509,-0.00884796
0.350149,0.00663229
0.330679,-0.0445117
0.166002,-0.0260629
0.123931,0.00306724
-0.265947,0.0354421
-0.618201,0.0719892
-0.446688,0.0615759
-0.272868,0.0422498
-0.0875193,0.0172265
0.120623,-0.0120266
0.212363,-0.0350705
0.157223,-0.0222372
-0.0394146,0.0133488
-0.0885959,0.0301259
0.171469,0.0185866
0.43071,-0.0166705
0.341591,-0.0168865
-0.0479574,-0.00574415
-0.482447,-0.0152602
-0.476727,-0.0180162
-0.10399,0.00805848
0.1592,-0.00530451
0.205261,-0.0106337
0.0405533,0.00751312
-0.137468,0.0247791
0.0219705,0.012362
0.315639,-0.0207602
0.339912,-0.0248306
0.186926,-0.0122159
-0.10756,-0.00984423
-0.237608,0.0239158
-0.0152399,0.0628852
0.329333,0.0573597
0.232063,0.0245512
-0.272665,-0.00718295
-0.461889,-0.028984
-0.436194,-0.0415372
-0.273575,-0.0319667
-0.0924351,-0.0141822
0.0385463,-0.0435721
0.195698,-0.0658682
0.285448,-0.0298962
0.216412,0.0367807
0.0408526,0.0565246
-0.139324,0.0355603
-0.0670208,0.00740406
0.292851,-0.00568072
0.569212,-0.0397211
0.51987,-0.0457219
0.0604309,-0.0281552
-0.437785,0.0383596
-0.611678,0.0719639
-0.491373,0.0311514
-0.309187,-0.0202808
-0.194263,-0.0628263
-0.0853151,-0.0432262
0.117151,-0.0102067
0.247655,-0.0345984
0.366089,-0.0251541
0.436199,0.0313667
0.181529,0.0407446
-0.143901,0.0431537
-0.138658,0.0402992
0.188573,0.013156
0.283515,0.0160285
0.0216729,0.0382117
-0.307772,0.0323367
-0.395465,0.0220652
-0.0791896,0.00867291
0.175234,-0.000936856
0.179321,0.00515347
-0.227389,0.00437712
-0.387267,-0.0179972
-0.059072,-0.0139705
0.0655443,0.00388332
-0.0344389,-0.00128096
-0.187099,-0.00964964
-0.134859,-0.0135346
0.10446,-0.0125625
0.307221,-0.0185989
0.340716,-0.049303
0.124255,-0.10739
-0.266656,-0.0873259
-0.234923,-0.0147913
-0.054489,0.0635861
-0.043256,0.0794299
0.0300664,0.0345639
0.148356,0.00469921
0.242585,-0.000104887
0.225261,0.0101517
0.0616539,0.0208885
-0.0875544,0.0243111
-0.150464,0.0101291
-0.150766,-0.0251617
-0.138953,-0.0340772
-0.111827,-0.0397414
0.164422,-0.00376838
0.376346,0.0516195
0.42304,0.0604598
0.260828,0.0372576
-0.279512,0.0263796
-0.383312,0.00742104
-0.115888,-0.0247506
0.133705,-0.0218559
0.325203,-0.010924
0.303631,0.00604115
0.16183,0.012532
0.0183859,-0.0266665
-0.0856387,-0.0427289
-0.170392,-0.0255085
-0.466539,-0.0809537
-0.634381,-0.0996862
-0.576353,-0.0628021
-0.391227,-0.00047338
-0.211685,0.00519738
0.0563759,-0.017494
0.302451,0.0300613
0.366304,0.0482026
0.350093,0.0270326
0.368468,-0.0118696
0.483409,0.043783
0.45104,0.0556586
0.168668,0.0465347
-0.0828073,0.0716951
-0.140598,0.0715999
-0.161528,0.026011
-0.319904,9.53e-05
-0.489927,0.0307007
-0.401323,0.0607406
-0.20852,0.0370953
-0.252315,0.0342328
-0.161901,0.0151735
0.35384,-0.036951
0.75074,-0.0880977
0.761821,-0.0754299
0.508931,-0.0619128
0.0235903,0.00413243
-0.209312,0.0359405
-0.279609,-0.000517625
-0.591984,-0.0355669
-0.537897,-0.0141352
-0.111444,-0.00854365
0.0249816,-0.0327991
-0.139554,-0.0120514
-0.150838,0.00607088
-0.0141066,-0.000757177
-0.0284012,0.0152673
-0.0896289,0.0242253
-0.00504009,0.0146586
0.1886,0.00638681
0.300092,-0.00714433
0.308579,0.0200269
0.271334,0.0599932
0.205936,0.0426092
0.169037,-0.0422345
0.0708893,-0.114149
0.0341488,-0.090591
0.0768994,-0.0287048
0.0159844,0.0189131
-0.12639,0.046108
-0.34274,0.0485476
-0.249366,0.00837163
-0.0761288,-0.0206425
-0.124896,-0.00940506
-0.0433306,0.0209139
0.104783,0.026133
0.131458,0.0127892
0.0977414,-0.00273288
-0.0177232,-0.0256355
-0.113676,-0.0408238
-0.0184093,-0.03476
-0.0160825,-0.0617755
-0.00707396,-0.0433019
0.0779192,0.0380353
-0.0371256,0.0253431
-0.182673,-0.0126546
-0.182748,-0.0331311
-0.0220221,0.0234985
0.144012,0.0247227
0.1275,0.0011836
0.158293,0.0208398
0.362802,0.0201084
0.521168,-0.00455269
0.331659,-0.00151638
-0.0701011,-0.0532313
-0.403186,-0.0348922
-0.443408,0.0358557
-0.238187,0.0505312
-0.144863,0.0281981
-0.300376,0.0152371
-0.226269,0.0223893
-0.0481755,0.024439
-0.00949698,0.0144847
0.0222939,0.00422471
0.0798095,-0.00224471
0.133432,0.00294737
0.0888125,0.0100498
-0.0048236,0.0155126
0.0830081,0.0143911
0.178767,0.00400908
0.367896,-0.00267284
0.466171,-0.0280419
-0.066859,-0.0417064
-0.662894,0.0243883
-0.479546,0.0389111
0.0662902,-0.0221653
0.272405,-0.0591519
0.276192,-0.030051
0.305361,0.0132632
0.0886044,0.0248914
-0.122525,-0.0342828
-0.174127,-0.0406239
-0.322782,-0.0247269
-0.212456,-0.00544713
-0.0330583,-0.00380295
0.0343134,0.0117068
-0.0923737,0.0333937
-0.18858,0.0334097
0.0515097,0.0167513
0.323523,0.0115076
0.401226,-0.00291871
0.24423,-0.0170578
-0.0145268,0.00618027
-0.072954,0.0357468
-0.0614592,0.031583
-0.174712,0.0233756
-0.132002,0.0351324
0.33586,0.0552565
0.513685,0.0296519
0.155741,-0.0162798
-0.370457,-0.0351616
-0.692933,-0.0335412
-0.570017,-0.0284508
-0.195885,-0.0090973
0.0111593,-0.046123
-0.00787944,-0.0706196
-0.079377,-0.0448127
-0.00892402,-0.0456492
0.0858953,-0.0221242
0.199554,0.00673409
0.347899,-0.00632361
0.378631,0.0155785
0.334936,0.0470866
0.28016,0.0513863
0.0806697,0.0575552
-0.154251,0.0522372
-0.37214,0.0236139
-0.330753,-0.00735966
-0.148816,-0.0199681
-0.0889228,-0.0146931
-0.103198,0.0264061
0.0271438,0.0223955
0.30134,0.00761321
0.289543,-0.00810388
0.0336412,-0.00904983
-0.267628,-0.00627726
-0.238841,-0.0154384
-0.0595447,-0.0203051
-0.0332749,-0.0151154
0.0169611,-0.0153903
0.214064,-0.020935
0.289125,-0.0199959
0.194906,0.000954965
0.015572,-0.0116471
-0.0152785,-0.0401256
0.145452,-0.0149159
0.123146,-0.00788096
-0.183429,-0.0256093
-0.487104,-0.0140464
-0.435028,0.00335901
-0.168029,0.0187455
0.133031,-0.022323
0.312371,-0.026126
0.267083,0.0269839
-0.0710808,0.0312284
-0.323103,0.0290766
-0.226314,0.0262369
-0.00272411,0.0239989
0.376287,0.0228593
0.700743,0.0177876
0.892645,-0.0096092
0.757934,-0.0368781
-0.139319,0.0290777
-1.04834,0.109834
-0.970705,0.104745
-0.399541,0.0494137
-0.285341,-0.0555958
-0.226278,-0.0689492
0.079641,-0.0698611
0.339099,-0.0605687
0.37468,-0.0358297
0.201323,-0.0370026
-0.113853,-0.0880127
-0.303046,-0.0333922
-0.170725,0.00980691
-0.0521168,0.00428224
-0.105271,0.0184659
-0.162707,0.0458193
-0.13619,0.0465666
-0.0669401,0.042127
0.00658201,0.0404696
0.0844088,0.0210355
0.113833,0.0111278
0.189024,0.024256
0.429513,0.0222825
0.59164,0.00431656
0.504203,-0.0102597
0.125905,-0.0104594
-0.178151,-0.000192067
0.0165885,0.00486163
0.251706,0.0333842
0.254686,0.0122031
-0.255636,-0.0955716
-0.646156,-0.100548
-0.524591,-0.0361065
-0.281144,0.0103731
0.0153193,0.041713
0.092161,0.0298666
-0.0641113,0.00326639
-0.0101504,-0.00978447
-0.045158,0.00644193
0.0934177,0.00450232
0.46343,-0.0109879
0.716118,0.0129644
0.482912,0.0315195
-0.0961902,0.0122679
-0.747115,-0.00188907
-1.04841,0.0237375
-0.605714,0.0167986
-0.0827914,-0.0201043
0.143683,0.000270264
0.183772,-0.014263
0.257322,-0.0054971
0.410341,0.0231702
0.307695,-0.0220687
0.0322201,-0.0544234
-0.145844,-0.011397
-0.207081,0.0108959
-0.106001,0.00133919
0.0253583,-0.054921
0.0653562,-0.0895801
-0.0506591,-0.0229306
-0.162098,0.0223586
-0.131191,0.0359158
-0.0406341,0.0514691
0.0109802,0.0446602
0.0372435,0.0175086
0.0223917,0.0141634
0.0796055,0.00227478
0.168163,-0.00820289
0.152433,0.00129743
0.110938,0.016045
0.0163753,0.0256884
-0.0788245,0.0147118
-0.0205326,0.0132678
0.18559,0.00725867
0.414775,0.0017103
0.388272,0.00344931
0.234615,0.0109065
0.0872255,-0.00601173
-0.0711235,-0.0263669
-0.193556,-0.0331534
-0.328431,0.0390503
-0.418104,0.0623209
-0.413604,-0.0282237
-0.301129,-0.102467
-0.175524,-0.0861783
-0.0300979,-0.0185102
0.322613,0.00803522
0.626834,0.00149075
0.500876,-0.0113298
-0.106431,0.00644948
-0.769682,0.0231161
-0.582784,0.0316691
-0.0742414,0.0316271
0.209527,0.0258517
0.294858,0.00925516
0.32253,-0.0206369
0.548171,-0.00370225
0.578884,-0.0293052
0.311197,-0.0260624
-0.384267,0.0290158
-0.926711,0.0514103
-0.58179,0.0264113
-0.0879594,0.000914003
0.0450098,-0.0173822
0.0384271,-0.0216733
0.0524196,0.0215051
0.111712,0.0391199
0.213332,0.00453435
0.056922,-0.0143518
-0.318369,0.00633793
-0.320561,0.0177296
-0.109314,0.000224393
0.0369893,-0.0191389
0.0585982,-0.00998285
0.029631,0.0180285
0.132187,0.016397
0.246995,-0.027831
0.294367,-0.0162726
0.11526,-0.00559114
-0.0664941,-0.0580727
-0.0448596,-0.0817229
-0.00372177,-0.0429232
0.0137048,0.0167451
-0.0767677,0.0501211
-0.0803858,0.0408025
0.0153724,0.0254091
0.10179,0.0130345
0.0635452,-0.020024
-0.125715,-0.0503673
-0.249635,-0.0366403
-0.186768,-0.00679072
-0.0858162,0.0318431
-0.00963271,0.0637358
0.116667,0.0432463
0.220422,0.0141735
0.302585,0.0134775
0.477268,0.0089045
0.590988,-0.0058016
0.56222,-0.0186035
0.260169,-0.0219241
-0.362466,-0.0178543
-0.630869,0.0172429
-0.736896,0.0190552
-0.600586,0.015058
-0.296196,0.0267077
-0.062855,0.0222094
0.0669515,-0.0415503
0.0234727,-0.074517
0.138877,-0.0407415
0.375287,0.00789696
0.344551,0.0266839
0.0613653,0.00199158
-0.357828,-0.00610584
-0.502645,0.0078211
-0.423377,0.0244059
-0.154417,0.0223971
0.28918,0.0146399
0.661774,0.0135099
0.789473,0.0173765
0.591784,0.0136341
0.277756,-0.00266063
-0.295574,0.00810284
-0.602727,0.0141834
-0.54885,-0.0185778
-0.366366,-0.0431581
-0.168115,-0.0473163
-0.051792,-0.0252155
-0.0255638,-0.0197273
-0.0251973,-0.0373103
-0.00882449,-0.0300477
0.0301148,-0.0138308
0.0928975,0.0238165
0.0434423,0.00671023
-0.0852348,0.0134766
-0.0672276,0.0164675
-0.00774346,0.00530379
0.0727735,-0.0436951
0.221745,-0.0288179
0.423089,0.0311036
0.392499,0.0291253
0.181805,0.0208911
-0.0404302,0.0145792
-0.308878,-0.00992229
-0.26495,-0.0156256
-0.0306116,-0.0197041
0.180353,0.00639405
0.165027,0.0181522
0.00140114,0.00617219
-0.262939,0.00354072
-0.341997,-0.00308061
-0.171029,-0.0114662
-0.0986707,0.0121032
-0.0529718,0.0362274
0.0868943,0.0364016
0.24526,0.0255779
0.296496,0.0130225
0.262634,0.0177813
0.148106,0.0272335
0.0329917,0.0360473
-0.00615196,0.0454032
-0.0767684,0.0293529
0.0263313,0.0303431
0.0296429,0.00339341
-0.163577,-0.0759631
-0.127269,-0.0389138
-0.0107902,0.0100712
-0.0821276,-0.0118506
-0.104076,-0.0426591
-0.127881,-0.0356799
-0.230412,0.00878098
-0.262212,0.0084002
-0.18393,-0.0264947
0.0367966,-0.0564055
0.287064,-0.0385779
0.344872,-0.00379374
0.255268,-0.0326651
0.193812,-0.0556267
0.359726,0.000225615
0.425735,0.0506645
0.195468,0.0545865
-0.385406,0.0283013
-0.652013,0.0194768
-0.503535,0.0238765
-0.263428,0.0164279
-0.00913697,0.00880144
0.0932892,0.000754186
0.0442086,0.0103589
0.00432491,0.0039449
0.0309411,-0.0308212
0.0569004,-0.0498589
0.126139,-0.0127295
0.0172961,0.0134106
-0.197501,0.0202039
-0.23789,0.0129903
-0.145458,0.00519404
0.0564125,0.0114271
0.320176,0.0242587
0.442933,0.0111233
0.382545,-0.0362907
0.0128173,-0.0515457
-0.315939,-0.0358315
-0.156187,0.0167903
0.0590178,0.0141936
0.125376,-0.0120017
0.0806991,-0.0216207
-0.047463,-0.0179115
-0.228267,0.000768561
-0.276197,0.00295306
-0.202888,-0.00796341
-0.0179132,-0.0299833
0.114084,-0.0190946
0.0634241,-0.00550015
0.0236194,0.0592674
0.0945218,0.0831768
0.197758,-0.0261919
0.254407,-0.0692948
0.285229,-0.0202999
0.0029506,-0.000423763
-0.374648,0.0167279
-0.432397,0.0342015
-0.246259,0.0402172
-0.0822148,0.0340922
0.0398053,0.00622504
0.0946656,-0.0247216
0.0760491,0.0060589
0.0615328,0.0319313
0.0180992,-0.0147194
-0.00290735,-0.0523858
0.148657,-0.047999
0.257822,-0.00171082
0.316598,0.0107596
0.260956,0.0253313
0.153421,0.0322264
0.219744,0.0125647
0.299367,-0.00266991
0.246094,-0.00450947
0.31265,-0.00639343
-0.0578424,0.00658257
-0.553108,0.0379463
-0.595181,0.0488036
-0.610283,0.029578
-0.788556,0.015939
-0.589977,0.0423897
-0.0841062,0.055707
0.100191,0.0388584
0.180381,0.00421213
0.162076,-0.0384912
-0.0328412,-0.0939201
-0.0920281,-0.103839
0.0338524,-0.0643348
0.0670739,-0.0518067
0.0365209,-0.0666072
0.0338688,-0.00676439
0.150764,0.027082
0.379402,-0.0233269
0.665933,-0.104914
0.686842,-0.0404891
0.299668,0.0231043
-0.223588,0.0473669
-0.505872,0.0441303
-0.396091,0.0377292
-0.231293,0.0346455
-0.14778,0.0258618
-0.0554313,0.0181329
-0.0088136,0.0232672
-0.00639974,0.0354141
-0.0778229,0.0375382
-0.121239,0.0245148
-0.0627633,0.0203378
0.0216022,0.0230471
0.096571,0.0169972
0.181396,0.00738321
0.279724,0.00216715
0.33348,6.19e-05
0.399416,-0.00516516
0.305351,-0.00558391
0.0317087,0.00171523
-0.258547,0.00812426
-0.475608,0.015431
-0.487305,0.0225259
-0.307058,0.00281356
-0.115633,-0.0584473
-0.0165381,-0.089758
0.0299886,-0.0623387
0.0569156,-0.00433057
0.116958,0.0160843
0.249682,0.0236058
0.295402,0.0179603
0.248391,-0.00241076
0.192506,-0.0415666
0.0675611,-0.117973
-0.0637108,-0.0919228
-0.125071,0.0716462
-0.0456555,0.0989474
0.242021,0.0265527
0.242781,-0.00812776
-0.178622,-0.016763
-0.507265,-0.00546641
-0.653756,-0.00323027
-0.479711,0.0198611
-0.22276,0.0412129
-0.0848103,0.0176808
0.152679,0.00252071
0.396651,7.83e-05
0.33458,-0.00110123
-0.0421898,0.000331138
-0.433579,0.0123112
-0.315176,0.0124849
-0.0522711,0.00784819
0.145021,-0.00515397
0.376063,0.000304907
0.533985,0.0236727
0.483746,0.0260704
0.266801,-0.00169198
0.164143,-0.000991257
0.387129,-0.0080763
0.248855,0.0116894
-0.371464,0.0264516
-0.709947,-0.0402496
-0.479128,-0.0593465
-0.152434,-0.0157504
-0.00151474,-0.0145751
0.134477,-0.0111554
0.275489,-0.0182582
0.151003,-0.0249227
-0.0358925,-0.0129124
-0.240248,-0.0110584
-0.303353,0.000247786
-0.168259,0.00943155
-0.190186,0.0323993
-0.146025,0.0509792
0.0300363,0.06314
0.0911196,0.034108
-0.00427095,-0.0101471
0.0440471,-0.0190463
0.193834,-0.00323504
0.205264,-0.00788704
0.0900216,-0.0179951
0.00279112,-0.0113285
0.131631,0.00604119
0.400194,0.00998199
0.407491,0.000429163
0.0970001,-0.00807219
-0.301953,-0.0200768
-0.408831,-0.00973665
-0.220384,0.00605839
0.0479566,-0.00523558
0.0718338,-0.0134838
-0.0929982,0.000898456
-0.203948,0.0209347
-0.17737,0.0238374
-0.0925811,0.0153579
-0.0557601,0.0139764
-0.0011634,0.0168188
0.133101,0.00209498
0.224865,-0.0444148
0.123975,-0.0718658
0.0086863,-0.0732425
-0.122673,-0.0567228
-0.0757084,0.028801
0.153048,0.0333467
0.189012,-0.00166478
0.0583433,0.0156832
0.00467054,0.0467085
0.0371046,0.0370281
0.0803558,0.00375098
0.0163911,-0.012301
-0.0661235,-0.0108253
-0.134432,-0.00019104
-0.148585,0.00383067
-0.0570859,0.00283125
0.0164021,0.0115909
0.03486,0.0275886
0.0154638,0.0116921
-0.0287173,-0.0126715
-0.0955373,0.00180975
-0.0307075,0.00712806
0.0557884,0.00579496
-0.02085,0.0127667
-0.193393,0.0117573
-0.146685,-0.0547525
0.0456216,-0.0704141
0.195065,-0.00995973
0.482851,0.0211714
0.806831,0.035514
0.728365,0.0747422
0.0930417,0.0577172
-0.664492,-0.0296856
-1.02085,-0.0590268
-0.69644,-0.0296879
-0.303132,-0.00258061
-0.121511,0.013255
-0.0100839,0.0168738
0.0777167,0.0039436
0.166108,-0.0285916
0.1358,-0.0109632
0.10697,-0.0560522
0.135858,-0.0701067
0.175718,-0.0278819
0.177072,0.0172582
0.137245,0.026849
0.0278797,0.0313343
0.0681659,0.0315691
0.161993,0.0149316
0.036749,0.0139787
-0.0997074,0.017058
-0.040713,0.035575
-0.079697,0.0563615
-0.155244,0.0466135
-0.157023,0.0273351
-0.241334,0.0106095
-0.16402,0.0227901
0.0110543,0.0358597
0.0674973,-0.0168753
-0.0084851,-0.0438062
0.0494178,-0.0322277
-0.0273488,-0.0217082
-0.175568,-0.0196227
-0.234207,-0.0643921
-0.126343,-0.0928957
0.16606,0.0104889
0.494163,0.0621731
0.579313,0.000430245
0.456169,-0.0220746
0.0567959,-0.0149304
-0.178207,-0.0132753
-0.0141143,-0.0191335
0.102717,-0.00155643
0.167212,0.0152903
-0.0590999,0.0194256
-0.323822,0.0151228
-0.444709,-0.0025197
-0.45047,0.0239142
-0.249542,0.0309343
-0.154393,0.0334243
-0.1005,0.0188157
0.0261052,-0.0723862
0.0237144,-0.0424638
0.0276422,0.0322185
0.12679,0.0266475
0.194398,0.00529673
0.17212,-0.0293596
-0.0111086,-0.040791
-0.0137137,-0.0309836
0.264466,-0.0157633
0.536015,-0.0180929
0.725564,-0.0307192
0.520806,0.00511093
-0.177691,0.0417453
-0.635395,-0.0096117
-0.659921,-0.0520493
-0.451167,0.00931443
-0.242388,0.0849571
-0.109611,0.0753584
0.0924194,0.00993237
0.122791,-0.0417418
0.0205475,-0.000292646
0.00690325,0.00814798
0.0868274,0.0168413
0.279775,0.0213207
0.368298,0.00443989
0.223212,-0.0124389
-0.153511,0.00198954
-0.451516,0.0279783
-0.414024,0.0171263
-0.188885,0.00686835
0.0581041,0.0138295
0.112609,0.0177426
0.0352302,0.00126011
-0.0838902,-0.0171912
0.0458085,-0.0228694
0.237506,-0.0220322
0.154041,-0.0154323
-0.0914037,-0.00181342
-0.325031,-0.0150768
-0.27117,-0.0195952
-0.0666764,0.00353924
0.051431,0.00243474
0.244811,-0.0090374
0.496056,-0.0133817
0.564394,-0.0118986
0.400052,-0.014595
0.085728,-0.00610521
-0.0764741,-0.00503327
-0.12289,-0.0225816
-0.165209,-0.0218098
0.0330669,0.0285931
0.164899,0.0428732
-0.170028,0.00817017
-0.658065,0.00195791
-0.589184,0.00519788
-0.249999,0.000376215
-0.030578,-0.0115232
0.0295091,-0.00704915
0.0323365,-0.00633154
0.0570921,-0.0101785
0.0332378,0.00874786
0.081082,0.012888
0.135814,0.00609373
0.0629115,0.00815491
-0.0159337,0.018175
-0.00749626,0.0236718
0.0797315,0.0246605
0.12776,0.0186306
0.119213,-0.00214408
0.0512243,-0.00602651
-0.0203321,-0.00356445
-0.0256816,0.00553724
0.0336157,0.00221375
0.0669577,-0.0290104
0.0415209,-0.0488526
-0.0297786,-0.0288404
-0.117006,0.00404091
-0.0925734,0.00870422
0.0230361,0.00371879
0.0730336,-0.00357883
0.115865,-0.0112716
0.150542,-0.00544832
0.155594,0.00817069
0.118469,0.00201692
0.0227062,0.0206556
0.062792,0.0202236
0.0968363,0.00763716
0.0509295,0.0194898
-0.180492,-0.00398007
-0.404753,-0.0345898
-0.328659,-0.01395
-0.125219,0.0174078
0.105175,-0.00154997
0.0992578,-0.00961542
0.122131,-0.00543155
-0.0177678,0.00519157
-0.0844933,-0.00323638
0.000895272,-0.00294022
-0.0248185,0.0126806
-0.073169,0.0144679
-0.0234049,-0.00202679
-0.00107135,-0.0289252
-0.119333,-0.0135937
-0.128562,0.00716277
-0.0320684,0.00176021
0.0802053,0.000425395
0.200525,-0.00302902
0.255817,0.00283941
0.17484,0.0253361
-0.0298766,0.0146687
-0.201145,-0.00475679
-0.17503,-0.00801946
0.0565531,0.00259381
0.185475,0.00664386
0.0769603,0.00369487
-0.179178,0.0130474
-0.305436,0.0186492
-0.114897,-0.00173304
-0.00658953,-0.0296869
-0.0261544,-0.0396384
-0.0180793,-0.0426131
0.0201107,-0.0150782
0.148684,0.00378752
0.248831,0.0109834
0.147393,0.0275346
0.0278539,0.0286433
-0.063126,0.0208985
0.0391527,0.0143144
0.387453,0.00938499
0.510323,0.0039711
0.234115,-0.00769361
-0.282721,-0.000538432
-0.616687,0.0132326
-0.495001,0.0165209
-0.152836,0.00349715
-0.0148471,-0.0320771
0.0225333,-0.0400869
0.152615,-0.016256
0.223134,0.00500759
0.18361,0.0107476
0.0136241,-0.0102456
-0.265453,-0.0214957
-0.323645,-0.0373045
-0.0851906,-0.026249
0.0362114,0.00305225
0.0190546,0.0362593
-0.0183278,0.0626545
-0.0399706,0.0291652
0.0790907,-0.0255409
0.252157,-0.0646388
0.240649,-0.0346132
0.0912506,-0.00482314
-0.0795709,0.0215578
-0.219935,0.0315754
-0.224394,0.0238151
-0.0655517,0.0175898
0.173983,0.0206187
0.320848,0.024775
0.262768,0.0162433
0.0196992,-0.00357645
-0.27298,-0.0209781
-0.346972,-0.0471137
-0.221274,-0.0268097
-0.0611085,0.0315421
0.117343,0.0398432
0.283262,0.0212938
0.490291,0.0103629
0.533891,-0.00643027
0.309564,-0.0164961
0.0288675,-0.0255225
-0.234967,-0.0457211
-0.489618,-0.0147815
-0.485804,0.0425481
-0.252492,0.0380287
0.0248485,0.00868816
0.0805474,-0.0119159
-0.133754,-0.00851518
-0.326999,-0.00506332
-0.309972,-0.000423589
-0.149877,0.00556964
-0.0441532,0.000726983
0.0227869,-0.0184225
0.0825951,0.00150806
0.100153,0.00809592
0.0737796,-0.00690809
0.044227,-0.0134764
0.0802746,0.00461059
0.414697,0.00841509
0.892997,0.000648883
0.869329,0.00370934
0.424611,0.0180341
-0.336745,0.0297786
-0.707647,0.038307
-0.392687,0.0112799
-0.334456,-0.032154
-0.335828,-0.0243683
-0.159884,-0.0260445
-0.0422507,-0.0305904
0.0189306,-0.0103745
0.0813976,0.00870127
0.0517533,-0.00458224
-0.0914588,-0.0276278
-0.136222,-0.0130059
-0.125609,0.00810407
-0.0987154,0.00882976
-0.0541561,0.0132624
0.0107808,0.0107574
0.0777756,-0.00765845
0.234156,-0.0018388
0.468198,0.021642
0.514588,0.0137243
0.309863,-0.00971933
-0.125098,-0.0178158
-0.401898,-0.00997132
-0.207432,0.0171339
-0.00181573,0.0281368
0.0710495,0.0202901
0.0323194,0.00745805
-0.0194135,-0.0150446
-0.0722742,-0.0555897
-0.122477,-0.0623015
-0.114508,-0.0106933
-0.14804,0.0341048
-0.172816,0.043228
-0.115252,0.0308626
-0.0496963,0.0222081
0.0328089,0.0047112
0.0920374,-0.0249645
0.07849,-0.0238119
0.107065,-0.0133764
0.229143,-0.00319125
0.381794,0.0117169
0.312593,0.0145218
0.0330504,0.0058618
-0.233713,-0.00246178
-0.136153,-0.0225622
0.0915723,-0.0208397
-0.0288973,-0.00623566
-0.354085,0.0085131
-0.346234,0.0192813
-0.0622756,0.0218069
0.167623,0.0230313
0.143321,0.0123857
-0.0236144,0.000974774
-0.128305,-0.00213685
-0.094003,-0.0086053
-0.026994,-0.0264894
-0.0326666,-0.0101506
-0.0180561,0.00728668
0.00959008,-0.00417098
0.0270469,-0.00330557
0.0354344,-0.01021
0.0125551,-0.0467501
-0.0261413,-0.0284391
-0.0317767,0.0137823
-0.00621665,0.031599
0.0227286,0.0361274
0.0351163,0.0264965
0.0331724,0.0146053
0.0685719,-0.0100485
0.212031,-0.00729874
0.426068,0.00984174
0.485665,0.0265742
0.386426,0.0349904
0.012612,0.0232994
-0.393766,0.00368972
-0.460954,-0.0236751
-0.394253,-0.00611887
-0.256167,-0.0251406
0.0122849,-0.0363371
0.145263,-0.0287942
0.10539,-0.015192
-0.0140231,0.00450388
-0.207355,0.0105333
-0.274378,0.00928813
-0.144483,0.000437262
-0.0272079,-0.00816236
0.00915272,-0.0117182
0.00813831,-0.00936112
-0.023878,-0.0127964
-0.0401224,-0.0141505
-0.0134483,-0.00751796
0.0301059,0.00284455
0.0736935,0.0238265
0.104,0.0192853
0.0784392,0.00744612
0.0813437,0.00742249
0.161279,0.00834963
0.314893,0.00076433
0.339957,-0.00317622
0.215827,0.0127536
-0.0476982,0.02443
-0.18212,0.0276852
0.0257095,-0.0132143
0.178311,-0.0782773
0.15436,-0.0772381
-0.0334859,-0.0101615
-0.399687,-0.00779743
-0.549123,-0.0061133
-0.314324,0.0111088
-0.139695,0.0299624
-0.0686933,0.0311749
-0.00131792,0.0163875
0.0280556,0.00575416
0.0280908,0.00275298
0.0439093,0.00800615
0.0876187,0.00829799
0.124138,0.00550046
0.0854089,0.0130879
0.0721324,0.0087733
0.0632047,-0.00676427
0.0695438,-0.00425235
0.0718297,0.00737537
-0.0193005,0.0108115
-0.0848308,0.0173219
-0.0285616,0.0152232
-0.000622605,0.00767029
-0.025412,-0.000155115
-0.0200185,-0.00544607
0.0251911,-0.00861386
0.0410523,-0.0131846
0.0363005,-0.0123293
0.0479244,-0.00285895
0.0697152,-0.00323592
0.0395912,-0.0095026
-0.0560677,-0.0182265
-0.0672207,-0.0257138
-0.0512474,-0.00577629
-0.0474836,0.0082552
-0.0522988,0.00351115
0.0355041,0.00257452
0.167206,0.00911767
0.16348,0.0201412
0.0212802,0.0232277
-0.098559,0.00968314
-0.104726,0.00500988
-0.0801034,0.00963781
-0.0272003,-0.00229618
-0.00483646,-0.00292602
0.0555462,0.00874072
0.146185,0.00956717
0.0608824,0.00439061
-0.133042,0.00295721
-0.290901,-0.00754272
-0.134751,-0.0228155
0.125006,-0.0267912
0.174379,-0.0159491
0.0393894,-0.00604162
-0.105908,-0.00134599
-0.114112,-0.00904026
-0.000466802,-0.0395856
0.18428,-0.0267253
0.365568,-0.00888918
0.670267,0.00937797
0.652243,0.00382728
0.210824,0.0117405
-0.453269,0.016979
-0.982483,0.0227205
-0.789065,0.0136817
-0.374993,0.0106947
-0.19223,0.00605345
-0.0937424,-0.00632591
0.027571,-0.00872195
0.0967689,-0.0133523
0.102243,0.0142753
0.074056,0.0254851
0.0560081,0.0242108
0.0755136,0.00541457
0.141329,-0.00411094
0.22522,0.00234639
0.25484,0.00147536
0.14842,-0.00314569
-0.0537481,-0.00316898
-0.194306,0.00267569
-0.169765,0.000819063
-0.0326943,-0.00865008
0.0465106,-0.0237088
0.0756382,-0.0283909
0.116687,-0.00761375
0.207347,0.00199748
0.167661,0.00409191
0.0254014,0.00141785
-0.0770206,0.000842214
-0.153747,0.00275656
-0.117636,0.00229748
-0.059337,7.46e-05
-0.0412865,0.00396889
0.0222429,-0.00288408
0.0665122,-0.000982871
0.0573829,0.0118194
-0.0307553,0.0181722
-0.0891949,0.0179789
-0.0783339,0.00916877
-0.0221571,-0.00583158
0.0362686,-0.0106868
0.156601,-0.00710235
0.308985,-0.0112063
0.284654,-0.0130253
0.156754,-0.00943085
-0.130182,-0.00426649
-0.302184,-0.00226404
-0.220788,-0.0080056
-0.212059,-0.00652037
-0.221575,0.00830276
-0.141337,0.0127854
-0.0563117,0.0128175
-0.0023531,0.0106614
-0.00547752,0.0166647
-0.0179555,0.0146777
-0.027477,0.00764152
0.0138691,-0.00340073
0.165574,-0.0186259
0.463192,-0.0109543
0.615414,-0.0108789
0.40075,-0.0238355
-0.100697,-0.015186
-0.413959,-0.0151008
-0.228472,-0.0100506
0.0236372,-0.0159029
0.122674,0.00479336
0.0282914,0.0250002
-0.149675,0.0210367
-0.25681,0.0192548
-0.232699,0.0221356
-0.196482,0.0112698
-0.0843971,-0.0117545
0.0393557,-0.0168877
0.0709968,-0.000212211
-0.0244348,0.00524582
-0.158694,0.00257048
-0.176827,0.00671545
-0.115186,0.00407156
-0.0431137,0.00750246
0.0348754,0.00429676
0.0992844,-0.0204185
0.129181,-0.0329581
0.143014,-0.0114463
0.144945,0.00962696
0.110466,0.0137787
0.0807328,0.020332
0.130278,0.0237415
0.163891,0.00615847
0.135464,-0.00954391
0.051992,-0.0016886
