Comp Ch 3,Comp Ch 4
-0.450943,-0.00211446
-0.194747,-0.000454802
-0.136977,0.0130748
-0.14395,0.0270232
-0.0710297,0.0276654
-0.0193427,0.00783607
0.0127101,-0.00731198
0.0978461,-0.0104651
0.273289,-0.0183234
0.292045,-0.00948994
0.153078,0.00260963
0.0859945,0.00725832
0.086265,0.00742203
0.0231108,0.00208365
-0.154435,-0.00220895
-0.341879,-0.00129079
-0.325093,0.00327052
-0.151254,0.00469974
0.0105706,0.00927132
0.079874,0.0107762
0.1188,0.017292
0.125954,0.0115577
0.0692164,-0.00452457
0.0066709,-0.0121228
-0.0290946,-0.0107319
-0.028149,-0.0062133
-0.00326036,0.0017806
0.0158956,0.0078746
0.0226565,0.00293532
0.0268651,-0.00647745
0.0154637,-0.00958577
0.0512707,-0.0160869
0.115535,-0.0231915
0.151864,-0.00592423
0.197557,0.0146206
0.250898,0.00888352
0.259586,0.00671349
0.0857712,0.0104093
-0.138688,0.00309213
-0.265256,-0.00781489
-0.329305,-0.00178234
-0.314518,0.00587821
-0.154167,0.0103699
-0.0447292,0.0123724
-0.0343743,0.0108117
0.000153703,0.00688555
0.0762214,0.00492856
0.124853,-0.00717862
0.134248,-0.0224139
0.0764147,-0.0209027
-0.0597123,-0.00833252
-0.106029,-0.000540491
-0.0165883,0.00641452
0.0736674,0.0112756
0.135638,0.0146294
0.196507,-0.00806768
0.0643282,-0.0206857
-0.165073,-0.0156935
-0.174708,-0.00608319
-0.159806,0.0158888
-0.0785083,0.0299977
-0.0169694,0.0238446
-0.0488841,0.0133538
-0.0376628,0.0103052
-0.00990753,-0.00212832
0.010563,-0.0084888
0.0656842,-0.00855161
0.114455,-0.0114682
0.0761006,-0.00977839
0.0753198,0.00326629
0.0927825,0.0254405
0.011687,-0.00127937
-0.100634,-0.0351374
-0.0955766,-0.0238447
-0.00403622,-0.0154763
0.0630181,-0.0183456
0.0448046,-0.00792393
-0.0435388,0.00820853
-0.112346,0.0209629
-0.0841923,0.025688
-0.0406303,0.0163539
0.0244336,-0.00752182
0.289584,-0.0179941
0.465419,-0.0091727
0.379519,-0.00314892
0.244036,-0.0071865
-0.116087,-0.00455035
-0.386862,0.00834441
-0.164379,0.00590705
-0.0285076,0.00140696
0.00702951,0.00129296
-0.0291942,0.0035091
0.0426065,0.00947546
0.0522727,0.0210419
-0.0182385,0.0276764
-0.20923,0.0199483
-0.437432,0.0129568
-0.332217,-0.00699608
0.0113098,-0.0273125
0.188731,-0.0211849
0.189858,-0.00790989
0.0677106,-0.00987098
-0.185887,-0.00685191
-0.453348,0.0117918
-0.379742,0.0221449
-0.133621,0.00626016
0.0112009,-0.00857608
0.0700156,-0.00554498
0.0938119,-0.00366122
0.132326,-0.0175231
0.215673,-0.0372509
0.134112,-0.00390188
0.014952,0.0397436
0.134865,0.0425328
0.201811,0.00896668
0.0617718,-0.0126789
-0.0982281,-0.0118435
-0.0970323,-0.00895632
0.0475769,-0.0126068
0.134444,-0.0169029
0.17706,-0.0137403
0.0995939,-0.0010821
-0.042177,0.00897327
-0.0851042,0.0102085
0.0243784,0.00256994
0.130318,-0.0219125
0.188796,0.0109868
0.177892,0.0546954
0.0621289,0.0445097
-0.102903,0.0189855
-0.147054,-0.0111452
-0.194847,-0.0386278
-0.339907,-0.0367615
-0.300767,-0.0257359
-0.140898,-0.0213503
0.208923,-0.0247292
0.718535,-0.0333738
0.96705,-0.0266575
0.707461,-0.00465981
-0.0376659,0.00916404
-0.795322,0.00572297
-0.978806,0.0256117
-0.605681,0.0326061
-0.23635,0.0391902
-0.0720014,0.032082
0.18544,0.0265519
0.454806,0.0215772
0.422472,0.00506441
0.0975526,-0.00481978
-0.184872,0.00445353
-0.279087,-0.00539278
-0.194383,-0.0255323
-0.00516603,-0.0327775
-0.00254025,-0.0286556
-0.00325149,-0.0155739
0.225564,-0.0213785
0.0564499,-0.0134193
-0.338089,0.0360922
-0.345826,0.0424903
-0.166684,0.0393367
0.0810565,0.0360222
0.145237,0.0341003
0.113901,0.0166354
0.103294,0.0055
0.00703653,-0.00324174
-0.0710513,-0.0148663
-0.0201939,-0.0331491
0.0814896,-0.0355378
0.151834,-0.0167152
0.0977128,-0.00476121
0.0364098,0.0104231
0.00829375,0.0261689
0.00825447,0.0232794
0.0810921,0.00463017
0.363813,0.00806305
0.501188,0.0192482
0.410156,0.0144245
0.229824,0.00592631
-0.0228574,0.0034843
-0.0895462,-0.00937922
-0.0921442,-0.0441342
-0.404806,-0.107295
-0.782576,-0.188645
-0.587296,-0.34101
-0.15366,-0.411952
0.0410938,-0.17544
0.0627851,-0.00823154
-0.0182941,0.0770277
-0.0638522,0.122729
-0.114494,0.145825
-0.0769657,0.16683
0.139718,0.175167
0.245215,0.171861
0.0674166,0.176459
-0.0990152,0.166812
-0.148217,0.125602
-0.010818,0.0747427
0.18509,0.0625553
0.283932,0.0529354
0.49072,0.0435289
0.543253,0.0532096
0.36045,0.0438202
0.0233376,-0.00905561
-0.652989,-0.0248909
-0.873534,-0.00862412
-0.400012,-0.0330046
-0.0364563,-0.0492353
0.101488,-0.0378892
0.0323915,-0.0322189
-0.0799612,-0.00965112
0.0202899,0.0113055
-0.00507946,0.0150491
-0.0514685,0.00039151
0.10899,-0.0347512
0.212369,-0.0536441
0.299047,-0.0452391
0.356425,-0.0284976
0.569307,-0.0220369
0.83131,-0.0313975
0.408116,-0.0375725
-0.391047,-0.0213565
-0.724457,-0.00868029
-0.803037,-0.0368876
-0.731672,-0.0271114
-0.32435,0.022955
-0.0744116,0.0207945
0.00882664,-0.0018001
0.027039,0.0114762
0.0146045,0.043496
0.0230129,0.025407
0.148722,-0.0315765
0.404484,-0.0192765
0.548526,0.0102348
0.605477,0.0158313
0.356699,0.0079057
-0.0702787,-0.0188236
-0.186607,-0.0320645
-0.226465,-0.0340883
-0.369852,-0.0158405
-0.614455,0.00559752
-0.532381,-0.00890786
-0.0801606,-0.0136751
0.208944,0.0199018
0.232399,0.0258703
0.22845,0.00561288
0.0432755,-0.026695
-0.240162,-0.0317697
-0.15322,-0.0243175
-0.0625578,-0.0408293
-0.0731397,-0.0443892
0.0167994,-0.0405057
0.0820473,-0.0694932
0.0640704,-0.135028
-0.0901675,-0.183514
-0.11837,-0.123762
0.103857,-0.0441554
0.306742,-0.00887532
0.360621,0.00943425
0.363047,0.0180241
0.286628,0.0379327
0.0914112,0.0573922
-0.0534898,0.0657362
-0.228729,0.0617269
-0.260567,0.0533266
-0.176858,0.0681549
-0.0960319,0.0835935
-0.0615589,0.0580019
-0.0317465,0.067705
0.00421331,0.0986589
-0.0314809,0.0894211
-0.0646063,0.0692583
-0.0279626,0.0517292
0.10649,0.0348139
0.147769,0.0267413
0.0289368,0.0317984
0.0356093,0.048785
0.206173,0.0616103
0.292496,0.0453505
0.256894,0.0185903
0.0294928,0.00163958
-0.262659,-0.00555655
-0.428288,-0.0131606
-0.43373,-0.0152219
-0.0810339,-0.017366
0.182856,-0.0150599
0.16769,-0.00848607
0.209442,-0.0253744
0.210501,-0.0397148
0.157259,-0.0453148
0.151023,-0.0357597
-0.20055,-0.0281942
-0.349331,-0.0250413
-0.0665666,-0.0275094
0.0732338,-0.0287781
0.106687,-0.0221792
-0.0169715,-0.0136534
-0.484619,0.00342507
-0.601534,0.0038685
-0.345711,-0.00116342
-0.183233,0.00312687
-0.107039,-0.0046439
0.0595614,-0.00937215
0.300424,-0.0101741
0.414028,-0.0121531
0.347625,-0.0149486
0.187518,-0.0218746
0.260823,-0.028855
0.894944,-0.0285838
1.0526,-0.0243444
0.468107,0.00558071
-0.469974,0.0287978
-1.20134,0.0189894
-0.832577,0.000725225
-0.489007,-0.00693891
-0.39174,-0.0038352
-0.177551,-0.00585269
0.00444656,-0.0105853
0.0407593,-0.0120922
-0.0030037,-0.00948295
-0.0460914,0.00121616
-0.0145973,-0.00224842
0.0580925,-0.00897311
0.127901,-0.0190025
0.149702,-0.021817
0.116141,-0.0121873
0.0802134,-0.00264441
0.210984,-0.00231168
0.452429,-0.0326684
0.646028,-0.0352822
0.588265,0.00834758
0.265192,0.0396871
-0.273439,0.0298008
-0.789774,0.0359153
-0.628001,0.0471133
-0.224055,0.0348401
-0.0532877,0.0328995
-0.0915665,0.0450069
-0.0507814,0.0285927
0.292815,0.00706355
0.370119,-0.0170464
0.131834,-0.0284153
-0.190201,-0.0196421
-0.438219,-0.00445001
-0.295588,0.0110856
0.0479169,0.0110701
0.109782,0.00587586
0.0405853,0.00108437
-0.0558314,-0.00906265
0.0663138,-0.0105109
0.314925,-0.00192045
0.47568,-0.00137576
0.491948,0.00964646
0.422107,-0.00131814
0.105775,-0.00710396
-0.282861,-0.00982087
-0.578264,-0.00555463
-0.637186,0.0204465
-0.451968,0.0136251
-0.217999,-0.0111648
0.0316689,-0.0104219
0.134037,-0.0110101
0.114207,-0.0177819
0.0844023,0.00807171
0.127882,0.0184947
0.170535,0.0157599
0.12418,0.0151172
-0.0192102,0.01131
-0.138083,-0.00392499
-0.13511,-0.00891054
-0.094154,-0.00291561
0.0224868,-0.00722838
0.104653,0.000215252
0.0737706,-0.00629839
-0.0658306,-0.00511087
-0.121519,-0.00295978
0.098349,-0.0127934
0.37909,-0.00810817
0.411254,0.000506923
0.206699,0.00636257
-0.296815,0.0136598
-0.524696,0.00276007
-0.238328,-0.0204431
-0.0383837,-0.0254491
0.0574408,-0.0185504
0.149147,-0.00821555
0.236111,-0.0120843
0.149246,-0.0184957
-0.0207885,-0.016639
-0.0909161,-0.0236679
-0.0450183,-0.0261515
-0.0344574,-0.00284225
-0.0983672,0.00118091
-0.0673223,0.00585233
-0.0279006,0.0180897
-0.0525711,0.0255213
0.00099,0.0264246
0.0699789,0.0251717
0.0521471,0.0163945
-0.0334491,0.0144274
-0.175609,0.0240618
-0.0971285,0.032631
0.118916,0.0231255
0.270724,0.0147853
0.213824,0.00960997
-0.116631,0.00503007
-0.368524,-0.00945279
-0.306517,-0.0202402
-0.0900985,-0.0210321
0.115225,-0.0224438
0.225033,-0.00866943
0.239722,0.00244399
0.123126,0.0041194
0.0805076,0.00160029
0.0654639,-0.00725821
-0.116574,-0.00172205
0.0314383,0.0133478
0.267358,0.00814516
0.240222,-0.00931067
0.0650782,-0.00679344
-0.284391,0.0101595
-0.0991897,0.00900807
0.080519,-0.0148877
-0.124088,-0.0224273
-0.380851,-0.00741343
-0.38016,0.0118306
-0.0363788,0.0132265
0.309299,-0.00218751
0.428026,-0.0121151
0.281077,0.00895402
-0.044292,0.0152896
-0.196583,-0.00561328
-0.233024,-0.0081322
-0.417408,0.00857489
-0.353657,0.0236996
-0.150706,0.0176938
-0.0530253,-0.00461538
-0.00463101,-0.0122017
0.0761162,-0.00642755
0.178815,-0.0141404
0.287112,-0.0286912
0.374568,-0.0267172
0.272238,-0.00677964
0.0804878,0.000679375
-0.013741,-0.0095755
-0.0366087,-0.00858126
0.0563683,-0.000849097
0.143601,-0.00370157
-0.00116401,0.00113449
-0.263332,0.00738374
-0.266308,0.00784812
-0.0577283,-0.00148887
0.0396409,-0.0248614
-0.0491034,-0.00119312
-0.0102006,0.00573269
0.175672,-0.0131198
0.137988,-0.0188604
-0.0333432,0.00606927
-0.047054,0.00779215
-0.064229,-0.00506096
-0.000717978,-0.00210287
0.07791,0.0126198
-0.0993089,0.0282353
-0.24169,0.0382549
-0.206514,0.027167
-0.032432,0.00395564
0.0459128,-0.00712413
0.062338,-0.00199455
0.0826357,0.00791898
0.101001,0.0143958
0.11253,0.00771747
-0.00544556,0.00113573
-0.16627,-0.00701786
-0.0687344,-0.0142018
0.161723,-0.0175476
0.304509,-0.0511743
0.312942,-0.0633055
0.0775594,-0.00785193
-0.0551581,0.0301705
0.184779,0.0406445
0.308386,0.045707
0.133529,0.0295151
-0.114312,0.0183117
-0.311719,0.0186276
-0.299144,0.0116124
-0.471511,-0.00724457
-0.504573,-0.0103675
-0.232929,0.001928
-0.0281719,0.0132355
0.131441,0.0155058
0.152253,-0.00377164
0.0906379,-0.020531
0.0332241,-0.0170068
-0.0777516,0.00591164
-0.127846,0.00806133
-0.0196851,-0.0169129
0.0442102,-0.0161309
0.146079,0.00557401
0.398011,-0.00994059
0.507162,-0.0199754
0.337267,-0.010796
-0.0763122,-0.00243152
-0.431078,0.00296302
-0.362476,0.00587039
-0.144871,0.00702104
-0.0292967,-0.00626148
0.0360637,-0.0168638
0.0522424,-0.00875541
0.0962598,-0.00737707
0.142919,-0.0109432
0.100341,0.00074052
-0.0289276,-0.0256664
-0.143913,-0.00283121
-0.0390863,0.0195602
0.136286,0.0115761
0.129993,-0.00101596
-0.00399283,-0.0167269
-0.174826,-0.00982903
-0.0661056,0.000587939
0.17712,0.000763147
0.281993,-0.00446853
0.136929,-0.0068601
-0.165385,0.000792016
-0.238908,0.00777987
-0.124866,0.0106004
-0.17777,0.0138939
-0.253039,0.0171213
-0.162242,0.0232127
-0.0344439,0.0233677
0.0280225,0.0138251
0.0477101,0.00306069
0.0464409,-0.00693947
0.073297,-0.00911049
0.149495,-0.00761388
0.171447,-0.00280694
0.0596415,0.0012644
-0.0761082,0.00630225
-0.044515,0.0123313
0.146693,0.0111026
0.310959,0.00827406
0.242012,0.00638832
0.0363499,0.00276394
-0.238493,0.00464613
-0.125785,0.0057867
0.0504942,0.0143091
-0.0123688,-0.0013334
-0.157612,-0.0204726
-0.208609,-0.010402
-0.0422817,-0.0120041
0.102075,-0.0206131
0.129096,-0.0218469
-0.0233374,-0.0315017
-0.183708,-0.0291382
-0.0770497,-0.0071176
0.0288003,0.00802816
-0.0398309,0.0162298
-0.10384,-0.00109284
-0.0246154,-0.00294309
0.0851365,0.0109595
0.117136,0.0125646
0.126167,-0.00467292
0.0668779,-0.0012016
0.0170469,0.0105748
-0.0744846,0.0189404
-0.132745,0.00420363
-0.0390205,-0.0184763
-0.0118252,-0.0158956
-0.0839077,-0.00637394
-0.0865964,0.0102382
0.0454659,0.0010729
0.16403,-0.0344558
0.192863,-0.0190546
0.0905704,-0.000890188
0.0100078,0.0197119
0.115501,0.019634
0.167462,0.0221811
0.211744,0.0250584
0.0829555,-0.0254031
-0.138276,-0.0336425
-0.223793,-0.00313735
-0.388641,0.0321146
-0.359098,0.0462613
-0.233987,3.29e-05
-0.0491205,-0.0295113
0.104087,-0.0262768
0.194646,0.00246916
0.308259,0.030516
0.358633,0.0214103
0.108816,-0.00360234
-0.178707,0.0276311
-0.323809,0.0372534
-0.352476,0.0209355
-0.213016,0.0051839
-0.0817651,-0.00566458
0.0970485,0.0186383
0.255874,0.0298003
0.243117,-0.000966704
0.148206,-0.0376754
0.01728,-0.0400562
-0.123318,-0.0231881
0.0501077,-0.0195478
0.165116,-0.0229002
0.132697,-0.0500348
0.122246,-0.0404835
0.16374,-0.0253802
0.200297,0.0165131
0.000822234,0.0345381
-0.292204,0.0227162
-0.389626,0.017838
-0.240534,0.0185701
-0.162436,0.0340436
-0.184327,0.0226615
-0.0128175,0.00258923
0.107824,-0.0442198
0.0771878,-0.0589435
0.0659377,-0.00730848
0.139779,0.00215047
0.152814,-0.0349932
0.0288654,-0.0206863
0.00313978,0.00168849
0.106674,0.0280357
0.0771759,0.0401041
-0.065737,0.0301852
-0.265278,0.015023
-0.255219,0.00756442
-0.0253758,-0.00643781
0.231584,-0.0315328
0.423694,-0.0282333
0.40948,0.00660883
0.132032,0.00769216
-0.225966,0.0167408
-0.258687,0.020608
-0.134122,-7.04e-05
-0.0279886,0.0103708
-0.128102,0.0368033
-0.315832,-0.00455845
-0.138425,-0.0439457
0.0594752,-0.0163962
0.0841679,0.00220158
0.0631074,0.00324726
0.0195095,0.0145775
0.0828231,0.0190316
-0.0207828,0.0125177
-0.197629,0.00912555
-0.132556,-0.000505577
0.0431624,-0.023818
0.243173,-0.0346801
0.27278,-0.001074
0.11819,-0.00804038
-0.113314,-0.0179933
-0.166797,-0.0117869
-0.0502503,-0.0338634
-0.0422953,-0.00753846
-0.0693493,0.0430976
-0.0865869,0.0021827
-0.0811829,-0.00244741
-0.0496604,0.0092319
0.00108162,0.000777774
0.0382496,-0.0109282
0.00385994,0.0103104
0.0169889,0.029899
0.16786,-0.0104381
0.304479,-0.0682693
0.369717,-0.00788993
0.30363,0.0677163
0.134218,0.0317398
0.105508,0.0113351
-0.0924283,-0.00343107
-0.0353863,0.0113443
0.30902,0.0249407
0.215357,0.00945248
-0.22491,0.0195571
-0.53435,0.0282726
-0.507306,0.024169
-0.123297,-0.0316749
0.0553854,-0.0796518
-0.283873,-0.0219767
-0.494565,0.0360037
-0.307245,0.0500574
0.000908189,0.0321049
0.172127,-0.00857822
0.119485,-0.0400103
-0.0920179,-0.0292353
-0.154011,0.000842735
-0.0355581,0.0173418
0.094901,0.0208438
0.141722,0.0174472
0.145939,-0.00878296
0.244824,-0.0717327
0.323069,-0.0857448
0.23752,0.00347405
-0.0127617,0.0556626
-0.121092,0.0333669
-0.0536594,-0.00819226
0.125851,-0.109436
0.316808,-0.094026
0.292909,0.0619735
0.0509742,0.0936601
-0.224878,0.0796572
-0.23118,0.0627104
-0.227016,0.0236385
-0.110844,-0.00716285
0.03232,-0.0414365
0.106441,-0.0428153
0.148339,-0.017584
-0.00240371,0.021021
-0.292492,0.0282693
-0.260574,-0.0203279
-0.0174941,-0.0385956
0.0935623,-0.0252168
0.147249,-0.0124524
0.113261,0.0290962
-0.038285,0.0541995
-0.0363474,0.0209714
-0.0370848,0.0119975
-0.0595693,-0.04345
-0.0563258,-0.109157
-0.106931,-0.100736
-0.0963155,-0.0683801
-0.0425443,-0.0127198
0.00655991,0.0622959
0.179097,0.0520668
0.233151,0.00565934
0.00885407,0.0174725
-0.287095,0.0359008
-0.200118,0.014104
0.304241,-0.0158162
0.753813,-0.0298721
0.760755,0.010222
0.451338,0.051863
-0.22121,0.0281621
-0.590603,-0.0142193
-0.646877,0.0122624
-0.614119,0.0394557
-0.370405,0.0309356
-0.106609,0.0078639
0.0505511,0.0109889
0.147268,0.0134174
0.274106,-0.00475819
0.24487,-0.0252814
0.124105,0.00782684
-0.136979,0.0138631
-0.263169,-0.0103463
-0.186718,-0.0205616
-0.111143,-0.0218494
0.0875768,-0.0214208
0.271022,-0.036532
0.206228,-0.0143001
-0.0455578,0.0113655
-0.118855,-0.0107335
0.141484,-0.00197419
0.306242,0.0256299
0.15138,0.0263389
-0.120154,-0.00441225
-0.22483,0.00457319
-0.161822,0.0258065
-0.0459698,0.0155986
0.031082,-0.00178709
0.0931449,-0.00863231
0.147271,-0.0335202
0.135968,-0.0371198
0.0219081,-0.0344875
-0.208445,-0.0446408
-0.250115,0.0234004
-0.1317,0.0195805
-0.0495785,0.00713039
0.00586753,0.0335507
0.0561856,0.0296902
0.14532,0.022207
0.287447,-0.0118336
0.261802,-0.0243402
0.0987372,0.0470886
-0.149318,0.0512947
-0.257383,0.00536871
-0.12327,-0.034863
-0.0613665,-0.0446966
-0.0615637,-0.0213833
0.00431695,0.0168239
0.101834,-0.025428
0.139761,-0.0391824
0.0670557,-0.0061041
-0.0749741,-0.00126109
-0.165203,0.0247
-0.0735909,0.0457169
0.169675,0.0392449
0.305183,-0.000172929
0.292804,-0.0241023
0.0901898,-0.0117161
-0.227165,-0.00286554
-0.429425,-0.00450119
-0.280971,0.00866681
-0.0471992,0.0319667
0.167401,0.0545507
0.230976,-0.00713983
0.107128,-0.0740738
0.0197301,-0.0347148
-0.153721,-0.0102112
-0.320823,-0.0293405
-0.242032,0.00235025
-0.107718,0.00479764
0.142214,0.00598643
0.396069,0.052275
0.281278,0.0322997
-0.124498,0.0360009
-0.228832,0.0342228
0.136892,0.00572791
0.472728,-0.120313
0.487899,-0.12312
-0.008078,0.0229227
-0.412744,0.00630587
-0.435833,-0.0150039
-0.15335,0.00531193
0.19358,0.00812493
0.200747,0.0510947
-0.0381976,0.0325016
-0.491081,0.00996977
-0.302896,0.0485179
0.152705,0.0549072
0.173705,0.0617587
0.0365736,0.0303222
-0.25856,-0.0378911
-0.261008,0.0124374
0.104726,-0.0167888
0.198922,-0.0857272
0.0638263,-0.0851962
-0.116369,0.0459766
-0.206977,0.0951571
-0.0954873,0.0253357
-0.0326983,-0.0527403
0.0264036,-0.0858481
0.143108,-0.0967981
0.277177,-0.0743202
0.226914,0.00785686
0.0713623,0.0751641
-0.03068,0.0658541
-0.142433,0.0158536
-0.0983671,0.000840243
-0.00625021,0.0319843
0.000390801,-0.0241288
-0.0606726,0.0127625
-0.00802407,0.0660656
0.166957,0.0188258
0.342669,-0.050146
0.425758,-0.0412745
0.343464,-0.0218668
0.0639605,-0.00835032
-0.199168,0.0111732
-0.115595,0.024245
0.0521378,-0.0140215
-0.0140947,-0.0262353
-0.132809,0.0110136
-0.185909,0.0256732
-0.100179,0.00586906
0.0453455,-0.0385328
0.148163,-0.0371011
-0.0669356,0.0409017
-0.358677,0.0213059
-0.290784,-0.0268534
-0.17739,-0.0331697
-0.0887699,0.00288703
0.00279672,-0.00760479
-0.0459711,-0.0442914
-0.0376216,-0.0355451
0.0904746,-0.00162756
0.20111,0.00510738
0.108167,0.0105022
-0.119591,0.037328
-0.280054,0.0628782
-0.248484,0.0465231
-0.104369,0.0146783
0.0161784,0.0299825
0.141424,0.0454449
0.246549,0.00926457
0.345389,-0.00759003
0.321637,-0.000876246
0.302595,-0.00398593
0.534701,-0.081011
0.452192,-0.0740471
0.0681466,0.0239225
-0.431503,-0.0112773
-0.502999,-0.0411849
-0.236906,-0.0171128
-0.210111,0.0265474
-0.266217,0.0482182
-0.239857,0.0384079
-0.148107,-0.00139424
0.00215684,-0.0721989
-0.0639551,-0.0221888
-0.14631,0.0642196
-0.0711132,0.0246463
0.0563595,-0.00607915
0.118263,0.004258
0.166437,0.0135608
0.193049,-9.49e-05
0.158091,-0.0212983
0.249132,0.00199783
0.390529,0.0283874
0.339206,0.027521
0.0576889,0.0178908
-0.439679,-0.0128453
-0.340162,-0.0365586
0.20956,-0.0383726
0.322757,0.0109193
0.0703272,0.0177258
-0.3102,0.00845198
-0.389187,-0.00596409
-0.193125,-0.00647447
-0.215507,0.0191162
-0.377809,-0.0112108
-0.369407,0.0123448
-0.219522,0.0166533
0.201568,0.0369824
0.516203,0.0388143
0.304602,-0.0175534
0.00356596,-0.0851813
-0.0641044,-0.091817
0.101827,-0.0367883
0.0584208,0.0138261
-0.0489147,0.0541482
0.17304,0.00614888
0.860445,-0.0478106
1.06121,-0.0581426
0.404262,-0.040559
-0.419865,0.0397325
-1.19926,0.0957853
-1.11166,0.0829864
-0.392012,0.0510055
0.0192332,0.0121294
0.324916,-0.00709829
0.50265,-0.00986067
0.358111,-0.0576538
0.0433648,-0.0331514
-0.400721,0.0376548
-0.315999,-0.0309278
0.0433488,-0.0642332
-0.063896,-0.0277177
-0.285058,-0.0560068
-0.160267,-0.0671468
0.0221672,0.0104144
0.224609,0.0628478
0.275041,0.0607836
0.0855669,0.045675
-0.15141,0.0421672
-0.240042,0.0550463
-0.0692953,0.0520101
0.136277,0.0310307
0.226188,0.0282085
0.21728,-0.025448
0.206274,-0.0572125
0.372278,-0.0686178
0.628948,-0.0454907
0.605026,0.0127543
0.187838,0.05508
-0.262517,0.0664713
-0.727042,0.0205003
-1.0026,-0.0309467
-0.875507,0.00616155
-0.476137,-0.00103402
0.0490877,-0.0439303
0.317786,-0.0968282
0.226295,-0.0366403
-0.0529869,0.0625905
0.126065,0.0605235
0.580395,-0.0587872
0.531231,-0.0656641
0.0298807,-0.0136824
-0.278732,-0.0752004
-0.5017,-0.0749153
-0.342823,-0.0332837
0.388734,-0.00683281
1.33465,0.030325
1.57249,0.0476914
1.11306,0.05936
-0.232219,0.0502665
-1.67434,0.0818481
-1.30592,0.139457
-0.448914,0.104429
0.271323,0.0883172
0.55778,-0.040199
-0.188803,-0.153741
-0.878946,-0.190079
-0.864295,-0.135526
-0.528726,0.0632317
-0.271723,0.121673
-0.289398,-0.0274746
-0.371518,-0.0247627
0.073917,0.019487
0.476812,0.0135548
0.441134,0.0174242
0.232537,0.0294903
0.642136,0.0108685
1.07737,-0.0490276
0.895925,-0.0567775
0.124673,0.0121952
-0.868426,0.0462194
-0.664897,0.023213
0.39242,0.029866
0.54928,0.0826932
0.235757,0.0654867
-0.208414,-0.0134557
-0.69006,-0.0434329
-0.535946,0.00133641
-0.171913,0.0330862
0.0203157,0.0271115
0.168913,-0.0103325
0.0924563,-0.0913412
-0.132411,-0.198372
-0.0822943,-0.142033
0.0822951,-0.00707591
-0.03466,0.0806779
-0.0675509,0.0834993
0.330366,0.0445425
0.535089,0.0358028
0.318871,0.0356635
-0.292837,0.0434942
-0.498507,0.0153797
-0.11902,-0.0267607
0.0273408,-0.0350278
-0.00382572,-0.0225571
0.275218,-0.0338741
0.611157,-0.0798991
0.661662,-0.0250797
0.142917,0.0367024
-0.410423,0.066224
-0.249281,0.0327864
-0.10838,0.0032898
-0.242909,0.00819962
-0.453956,0.0304427
-0.297024,0.0336142
-0.154821,0.00658142
-0.211058,-0.0128592
-0.267402,-0.0711701
-0.263074,-0.0277609
-0.128294,0.054939
0.0139692,0.0444405
0.0576454,-0.0565973
0.246285,-0.142794
0.556704,-0.0967086
0.813069,0.00785252
0.652944,0.0935234
0.136876,0.0761156
-0.383724,0.0685092
-0.442005,0.0333929
-0.499907,-0.0132244
-0.367253,0.0113091
0.0216197,0.0298705
0.153071,0.0489801
0.0939572,0.0522948
-0.086863,0.0217829
-0.252913,0.00390313
-0.146516,-0.0118181
0.0484573,-0.0221541
0.594081,-0.0482243
1.40979,-0.218519
1.13644,-0.20531
0.36178,-0.0135495
-0.820133,0.110592
-1.54061,0.107987
-0.865912,0.0503496
-0.564297,0.0029419
-0.114114,-0.0351527
0.774973,-0.0188223
0.982297,0.0514531
0.636251,0.106135
-0.175207,0.0998883
-0.917022,0.0627466
-0.568465,0.0132848
0.0809405,-0.0711854
0.397449,-0.0978175
0.0999338,-0.0142143
-0.226543,-0.0477621
-0.451584,-0.115935
-0.724636,-0.0315504
-0.411379,0.0128449
-0.104934,0.00541368
-0.0978582,0.0417419
0.140377,0.0554699
0.652721,0.0223842
0.890145,0.084155
0.549325,0.0747552
0.194903,-0.0613454
-0.108219,-0.0644364
0.0376446,0.0284462
0.203096,0.0458542
-0.120291,0.0328324
-0.456945,0.0359853
-0.995103,0.0351419
-0.849944,-0.00688948
-0.0763399,-0.0433773
0.533988,-0.088885
0.984975,-0.0779619
1.0626,-0.0825336
0.646313,-0.0349806
0.532584,-0.0403253
0.117854,-0.056815
-0.0602348,-0.0428862
-0.754397,0.0439629
-0.510373,0.0931583
0.400338,0.0897815
0.225783,0.0698898
-0.734039,0.0456158
-1.25105,-0.0112178
-0.454505,-0.00633273
0.287101,-0.0605686
0.0815186,-0.10397
-0.318227,0.0298034
-0.264408,0.0697789
-0.218105,0.0467274
-0.164027,0.0551308
-0.0750833,0.0450141
-0.042761,0.00513817
0.192292,-0.0809667
0.341808,-0.133928
0.349661,-0.0625234
0.230788,0.0441395
0.108199,0.0826719
0.252363,0.0680762
0.203869,0.0452452
0.225075,0.0330622
0.285973,0.012107
0.0417484,0.016311
-0.504353,0.00983842
-0.501249,-0.0353116
0.419303,-0.0588094
1.71116,-0.0652608
1.72965,-0.100025
0.641219,-0.162834
-0.931384,-0.205448
-1.6932,-0.0719402
-0.94413,0.132032
-0.314534,0.154869
-0.323577,0.107078
-0.384727,0.0315879
-0.179335,-0.0176572
-0.0934832,-0.0421129
-0.0994479,-0.0301186
-0.229013,0.0516789
-0.201723,0.114883
-0.0373166,0.101667
0.110612,0.0651226
0.209543,0.0291959
0.319465,-0.0142835
0.44498,-0.0393007
0.267507,-0.00849453
-0.0442252,0.00969183
-0.298731,-0.0351831
-0.307727,-0.0266378
-0.171841,0.00210654
0.0386682,-0.045704
0.308489,-0.129905
0.426129,-0.0704891
0.328219,0.0533873
-0.0360047,0.0974512
-0.181487,0.107714
0.0680973,0.0781556
0.174404,0.0541953
0.125967,0.0117085
0.0473532,0.0143883
0.124571,-0.0142291
-0.00623153,-0.0345734
-0.0855804,-0.0197178
-0.234374,-0.0340952
-0.341018,-0.0666363
-0.147876,-0.0388205
0.0865025,-0.0520415
0.54718,-0.0807488
0.765244,-0.0377758
0.764433,0.0143169
0.312613,0.0400938
-0.31873,0.0519482
-0.730889,0.0748381
-0.605526,0.038553
0.22932,-0.0252645
0.380361,-0.0972178
-0.220637,-0.0648567
-1.1991,0.0091518
-1.30052,0.0607743
-0.418839,0.0574455
0.0184504,0.0389149
0.0836134,-0.0130981
0.212367,-0.0435137
0.841651,-0.0178437
1.51837,0.0464675
1.29004,0.0361946
0.0209142,-0.0188518
-1.18398,-0.0484512
-1.11178,0.0057388
-0.523781,0.101808
-0.107072,0.0783987
0.0909344,-0.00421214
0.0354382,-0.014323
-0.102523,0.00651439
0.0475864,-0.0849206
0.557988,-0.25772
0.855027,-0.328139
0.468127,-0.0780757
-0.315747,0.153171
-0.880201,0.195141
-0.664914,0.13107
-0.25699,0.0733468
0.0754663,0.0411128
0.26152,0.00382561
0.311183,-0.00899098
0.277302,0.0146038
0.134892,0.0346087
-0.0850921,0.0289317
-0.16382,-0.00370858
-0.027023,-0.00718521
0.0528371,0.0199098
0.0207044,0.0174446
-0.0303451,0.00563895
-0.0239102,0.00514373
0.0378254,0.00961039
0.043866,-0.0137963
0.136474,-0.0485759
0.261031,-0.0484312
0.113136,-0.00568215
-0.0391033,-0.00842869
-0.106775,-0.0379051
-0.14547,0.0070916
-0.0253594,0.00295596
0.0804121,-0.0705805
0.0968805,-0.0250975
0.0773335,0.0474091
0.0751185,0.035222
0.336869,0.0275619
0.691239,0.024795
0.660928,-0.025303
0.131933,-0.0334955
-0.988812,-0.0233491
-1.1853,0.0156606
-0.54267,0.0632462
-0.0396213,0.0510595
0.144216,0.0327665
0.0877916,-0.0245261
-0.0211814,-0.0834359
-0.141687,-0.058407
-0.196648,0.0273906
-0.227877,0.0336814
-0.120165,-0.0168434
0.00467444,0.00237764
0.0876724,0.00499795
0.109416,0.0256178
0.0808597,0.0539358
0.172219,0.00794845
0.680502,0.0144343
0.954189,0.0201093
0.533126,-0.0920329
-0.275407,-0.185412
-0.515322,-0.0978494
-0.240055,0.0935702
0.326363,0.168885
1.06606,0.0785051
1.06922,-0.0529266
0.263301,-0.0831728
-0.816107,0.0024856
-1.45467,0.0279136
-1.28993,0.00661624
-0.883386,-0.0109446
-0.413342,0.00687408
-0.130877,0.0152681
0.0708849,-0.00143198
0.0885079,-0.0123515
0.0587755,0.0235526
0.0375184,0.0499944
-0.0171493,0.00575194
0.0201289,-0.0013583
0.173504,-0.00352954
0.331883,-0.00827794
0.386525,0.000385699
0.318716,0.0239452
0.100686,0.0599849
0.0150857,0.0301573
0.112941,-0.0240515
0.102495,-0.0386449
-0.0182971,-0.0299397
-0.0671523,-0.00431451
-0.00184542,0.0116223
0.149531,-0.00672274
0.278023,-0.0582228
0.277012,-0.0106096
0.160372,0.0361492
-0.16531,0.0368165
-0.397189,0.0375865
-0.233929,0.00119883
-0.031934,-0.01981
0.13896,-0.0801104
0.419963,-0.120988
0.482601,-0.0415482
0.24594,0.0201866
-0.311095,0.00854222
-0.701018,0.0164904
-0.486452,0.0725804
-0.213814,0.0951459
-0.0823502,0.0518916
-0.0285485,-0.029215
0.0112555,-0.0487926
-0.0077881,-0.0364474
0.0621632,-0.0227131
0.141524,-0.0495871
0.133858,-0.0889408
0.00997552,-0.0525401
-0.127907,0.0229939
-0.123401,0.0722198
0.0518925,0.0779861
0.297047,0.045474
0.47784,-0.00515362
0.227664,-0.0128517
-0.131309,0.0373023
-0.0646887,0.0844078
0.185394,0.0532141
0.253384,-0.0138706
-0.0274994,-0.0668936
-0.455171,-0.0552508
-0.440757,-0.0382563
-0.331468,-0.0105318
-0.0162124,-0.0210562
0.26361,-0.0621437
0.256773,0.019473
-0.0596267,0.079526
-0.393682,0.0490933
-0.217337,0.0302278
0.105482,0.0208242
0.221873,0.00914803
0.187075,0.0179425
-0.0435669,-0.00612605
-0.297326,-0.054091
-0.27698,-0.0909888
-0.0438591,-0.0871043
0.452564,-0.0430687
0.749925,-0.0249214
0.521849,-0.0342933
-0.0821623,0.029762
-0.521999,0.0855273
-0.473533,0.0582616
-0.267849,0.0330144
-0.0286205,0.0346814
0.0573821,0.0382978
0.153897,0.0311467
0.181811,0.0263186
0.161902,-0.00637365
0.179123,-0.0241974
0.241587,-0.0182322
0.281288,-0.0356431
0.0175864,-0.0707829
-0.477584,-0.00573055
-0.623813,0.0436282
-0.336,0.0331072
-0.147259,-0.000341022
-0.029653,0.00346704
0.106958,0.0350781
0.187523,0.0158274
0.166296,0.0222693
0.0625169,0.0297589
-0.082243,0.0436023
-0.076186,0.0291188
0.0601944,-0.0182356
0.0692641,-0.0859812
0.0292108,-0.0929435
-0.036176,-0.0399614
-0.137997,-0.00619911
-0.134689,0.00398216
-0.014863,-0.00779487
0.078658,-0.00612107
0.0732953,0.0247692
0.00832956,0.0197205
-0.0309551,-0.0366352
-0.0140523,-0.0444508
0.130351,0.0115432
0.349231,0.0513579
0.519845,0.0354464
0.652527,0.0193042
0.479986,-0.00645012
0.191443,-0.0477347
-0.191073,-0.0972406
-0.224426,-0.109392
-0.0657829,-0.0385078
-0.275771,0.0438349
-0.686604,0.10518
-0.73638,0.103567
-0.43246,0.0683071
-0.191741,0.0331277
-0.119763,0.00564482
-0.11013,0.000768292
-0.0510227,-0.005363
0.041727,-0.0284163
0.0559356,-0.0299809
0.0253857,-0.00904863
0.101542,-0.0193086
0.173601,-0.0144168
0.237873,0.00975286
0.247605,0.00269446
0.0710035,0.033753
0.120511,0.0571139
0.390955,0.0376966
0.391969,0.0182495
0.0458193,0.00363357
-0.190751,-0.0473398
-0.197694,-0.058304
-0.196198,-0.0302465
-0.0346361,-0.00929469
0.0773113,-0.010528
0.0857177,-0.0196183
-0.0285113,-0.0188931
-0.112338,-0.0236486
-0.00868655,-0.0331062
-0.0588174,-0.0118613
-0.160729,0.0262203
-0.171548,0.0131191
-0.0939758,-0.0366266
0.00806534,-0.0370064
-0.148756,0.0254608
-0.201332,0.0731076
0.0420031,0.0886463
0.164487,0.0609015
0.121679,0.0185436
0.0427277,0.00086797
0.086943,0.00187142
0.250618,-0.013401
0.296833,-0.0148071
0.242695,0.0197394
0.150142,0.0449734
-0.00213696,0.0427971
-0.296522,-0.0204942
-0.510764,-0.106713
-0.374358,-0.207828
-0.133619,-0.114247
0.246223,0.0445891
0.618275,0.0852127
0.836379,0.0427652
0.561013,0.0152091
-0.17699,0.00921138
-0.551543,-0.0063092
-0.665452,-0.028695
-0.583701,0.000279843
-0.295662,0.0223569
-0.0866906,0.0290249
-0.0574896,0.0399885
0.0268131,0.0226974
0.231825,-0.00716419
0.311225,-0.0163105
0.201565,0.0102685
-0.110477,0.0249015
-0.339819,0.0104423
-0.296777,-0.0226641
-0.0757586,-0.0527572
0.134284,-0.00697225
0.215128,0.0444066
0.206129,0.0558911
0.225292,0.0140231
0.193744,-0.0216613
0.120769,-0.0181299
-0.017334,0.0099696
-0.121147,-0.00274169
-0.0889446,-0.0391958
-0.00493491,0.000121189
0.0152773,0.0371359
0.0533709,0.00101132
0.0721272,-0.00134126
-0.035208,-0.00399574
-0.0101283,-0.0169722
0.0769544,0.0112406
-0.0100244,0.0135258
-0.0467655,-0.0268016
0.0259543,-0.0365249
0.15437,-0.0331262
0.309483,-0.0720666
0.178423,-0.130068
-0.150519,-0.0171488
-0.471413,0.0948692
-0.495435,0.0858866
-0.277497,0.0487535
-0.13171,0.0344636
-0.0447382,0.0178555
0.0442175,0.00746219
0.250814,0.00313895
0.245868,-0.0041765
-0.0413092,0.0207081
-0.190773,0.0061581
-0.070675,-0.0323169
0.0205748,0.00559722
0.0276853,0.00031303
0.165229,-0.00855452
0.284079,0.00601955
0.220006,0.00288497
0.0685996,-0.0167149
0.228992,0.0090292
0.634726,0.026116
0.598674,0.0384511
-0.0639155,0.00957742
-0.769216,0.0146824
-0.827943,0.0117154
-0.488921,-0.0538213
-0.272975,-0.0371308
-0.225446,0.0298687
-0.064203,0.0304426
0.109375,-0.0101332
0.182154,-0.0819081
0.162747,-0.113385
0.0557027,-0.0426483
-0.0940011,0.0479315
-0.0497875,0.0709115
0.127437,0.0416061
0.196357,0.0151373
0.141943,-0.0021074
0.0482855,-0.00924236
0.0393272,-0.0366352
0.183203,-0.0913367
0.213701,-0.0220193
7.04e-05,0.0541597
-0.173735,0.0700498
-0.138516,0.0427576
-0.00152655,0.0198529
0.0229332,0.0340827
-0.112988,0.038607
-0.172805,0.0108213
-0.0916966,-0.0648343
0.0745663,-0.0614766
0.333214,-0.0519671
0.673319,-0.0475758
0.728497,-0.0188493
0.331518,0.00221135
-0.299917,-0.000402042
-0.847337,0.019477
-0.741222,0.0381471
-0.402568,0.0440801
-0.152141,0.0542308
0.00710809,0.0648695
0.185759,0.0546983
0.227068,0.00677046
0.121529,-0.0365786
-0.112857,-0.0447469
-0.29451,-0.0385964
-0.160316,-0.0286003
-0.0141238,-0.0209963
0.0315347,-0.000976765
0.0706112,0.00721776
0.0287002,0.014248
0.0940479,0.0262585
0.145905,0.0235461
0.0205276,0.00564873
-0.0260673,-0.0176094
-0.0972647,-0.0407319
-0.0692809,-0.0480553
0.0632277,-0.032319
0.208835,-0.0195361
0.497917,-0.00545973
0.751755,0.0160552
0.705413,0.0220767
0.0826425,0.0107279
-0.683426,-0.0113822
-0.846841,0.00158724
-0.771793,0.0215181
-0.411636,0.0302389
-0.0333073,0.0275497
0.227371,0.0124779
0.432161,0.00942703
0.34012,-0.00648681
0.105431,-0.00458456
0.0706341,0.0336661
0.075086,-0.0033277
-0.0214205,-0.0342416
-0.169948,-0.0293944
-0.214917,-0.0310477
-0.0765352,0.0395424
0.215496,0.0679201
0.250442,0.0524723
0.185224,-0.000988609
-0.134487,-0.0758532
-0.463539,-0.0980991
-0.412799,-0.0716999
-0.323299,0.00841168
-0.202058,0.0454442
0.0500935,0.010457
0.241464,-0.00053479
0.411062,0.0113236
0.441038,0.0179926
0.278336,0.0194159
0.128248,0.00503579
-0.279115,0.0115042
-0.384047,0.0256596
-0.105362,0.0347418
0.00880755,0.00357539
-0.14331,-0.0393745
-0.0676825,-0.03067
0.339,-0.0231473
0.586023,-0.0567196
0.432707,-0.0262698
-0.127951,0.0134886
-0.584385,0.0457495
-0.539255,0.0337208
-0.222875,-0.0132147
-0.0403687,-0.028275
-0.0507635,0.00561262
0.0579414,0.0194083
0.249052,0.0174069
0.365733,0.0214625
0.23862,0.0183407
-0.0892698,0.00300113
-0.265592,-0.0169142
-0.130326,-0.0234679
0.0523602,-0.00261645
0.219476,0.0228798
0.507656,0.0589156
0.519764,0.107799
-0.0397805,0.020322
-0.552058,-0.0905066
-0.521063,-0.0945935
-0.305724,-0.0455226
-0.157054,-0.0310742
-0.085059,-0.0135631
0.0480811,0.00430121
0.171795,0.015673
0.127004,0.0197174
-0.0138488,-0.00388253
-0.05591,-0.0304922
0.0652178,0.0155938
0.15892,0.0369313
0.133843,0.0139838
0.0492864,0.0102907
0.0533696,0.0291042
0.115991,0.020746
0.0921162,-0.00414317
-0.128539,-0.00663065
-0.329182,-0.00181292
-0.254879,-0.0145543
-0.128124,-0.000288223
0.000474052,0.0143445
0.14534,0.00360401
0.230169,-0.0475889
0.155621,-0.0771673
-0.00467643,-0.015202
0.0170625,0.0218295
0.273724,0.0111082
0.688425,-0.014395
0.637095,0.0212572
0.217684,0.0580886
-0.58381,0.0347378
-1.16448,-0.0331924
-0.709715,-0.0795154
-0.215876,-0.0481788
0.111667,0.0205885
0.237701,0.044605
0.181291,0.0395673
-0.0193032,0.021397
-0.13981,-0.0140353
-0.110623,-0.0310047
-0.166053,0.00173506
-0.0803753,0.0150022
0.116088,0.00723723
0.197478,0.0154688
0.116871,0.0235022
-0.0857588,0.0153135
-0.0868813,-0.00807916
0.162561,-0.00846847
0.402283,-0.0170128
0.477683,-0.0178054
0.216997,0.0344466
-0.218447,0.0560365
-0.273664,0.0218111
-0.132506,0.00855627
-0.122224,0.0240762
-0.181117,0.0145503
-0.176121,-0.00167102
-0.133528,-0.021652
-0.0934651,-0.0327448
0.208357,-0.0289041
0.508098,-0.00994074
0.658535,0.00167036
0.455875,-0.0692424
-0.137392,-0.0824173
-0.542632,-0.0208677
-0.843752,0.029654
-0.617903,0.0241076
-0.0874546,-0.0191403
0.205733,-0.0127669
0.513335,0.0191244
0.888361,0.0267225
0.924543,0.0345826
0.375135,0.0411955
-0.486439,0.0306424
-0.995613,-0.00124841
-0.94097,-0.0133612
-0.55779,-0.0106977
-0.193852,0.00428314
0.0640021,0.0199067
0.249046,0.0104069
0.190781,-0.0512385
0.028138,-0.0912461
-0.0571432,-0.0250225
-0.0744687,0.0209289
0.0489565,0.0416633
0.284882,0.0367841
0.405167,0.0219093
0.352326,0.028252
0.285824,0.046894
0.119035,-0.00302166
0.0527941,-0.0546474
0.0154324,-0.0822685
-0.173656,-0.0845406
-0.191908,-0.0216119
-0.294367,0.0230353
-0.394231,0.0384663
-0.27847,0.0345118
0.000187545,0.0281798
0.22379,0.0358075
0.235517,0.0225935
0.121571,0.0133551
0.0501663,0.0171905
0.178073,-0.00146485
0.538346,-0.0276273
0.596744,-0.0362793
0.146468,-0.0638474
-0.569431,-0.0567807
-0.860439,0.0158628
-0.458886,0.0599917
-0.00203888,0.0719051
0.22362,0.0525839
0.202868,0.0108813
-0.0123663,-0.0408848
-0.231818,-0.0488187
-0.259672,-0.0109046
-0.0763704,0.00526223
0.132904,0.002947
0.215165,-0.0045424
0.0316374,-0.0057596
-0.274429,0.00243872
-0.284461,0.0197198
-0.0285417,0.00290817
0.401357,0.0040673
0.607616,-0.0155092
0.495048,-0.0556521
0.0779676,-0.0121877
-0.210096,0.0250478
-0.105369,0.031064
-0.143103,0.0371994
-0.0595764,0.0311368
0.168869,0.0137224
0.113315,0.00459409
-0.207987,-0.0129596
-0.512242,-0.0017262
-0.319559,0.00620599
-0.044859,0.00290278
0.0658595,0.00417451
0.0427361,0.0166002
-0.113496,-0.00647177
-0.070026,-0.0564689
0.0314851,-0.0699087
0.0614529,-0.0739196
0.0497828,-0.00726311
0.0381206,0.0248217
0.10756,0.0406345
0.152991,0.0444748
0.0799746,0.0166043
0.0337562,-0.00740773
-0.0102895,-0.0127529
0.00504748,-0.024644
0.0928072,0.00986921
0.0358975,0.0326182
-0.0660846,0.0163705
-0.0829698,0.0021504
-0.0412685,-0.00665219
0.106246,-0.0133195
0.257183,0.0197674
0.311524,0.0359796
0.13386,0.0187118
-0.131454,-0.0338138
-0.421713,-0.0840711
-0.396657,-0.0394762
0.191697,-0.0267555
0.579856,0.0088776
0.463345,0.0712535
0.14246,0.0462464
-0.179846,0.00700764
-0.114068,-0.00869972
-0.222243,-0.014352
-0.598847,-0.00287178
-0.51363,0.0130775
-0.191013,1.39e-05
-0.112191,-0.00127813
-0.0773469,0.00600129
0.0291274,-0.0170937
0.133095,-0.0428039
0.192733,-0.0369019
0.0984707,-0.0144544
-0.0905273,0.0165829
-0.129504,0.055741
0.17285,0.0645847
0.48264,0.0296678
0.457367,-0.00954001
0.220275,-0.0395439
0.138613,-0.0241996
0.263182,-0.0109309
0.163778,-0.0157469
-0.27084,-0.00678384
-0.624249,0.0182048
-0.627505,0.0333038
-0.438905,0.0293112
-0.16574,0.0112699
-0.0888402,-0.00206682
-0.0603834,0.000260404
0.0522649,0.000655878
0.317594,0.00454381
0.414905,0.00805115
0.216996,0.00606632
-0.0675329,0.0012987
-0.215105,0.00290592
-0.0409241,-0.00324654
0.112653,-0.00457179
0.105571,-0.0209922
0.0537308,-0.0665453
0.00892637,-0.0496959
0.0652165,0.0231423
0.170118,0.036511
0.158468,0.020668
0.090515,-0.000534702
-0.0303372,-0.0225242
-0.141172,-0.00577705
-0.0704084,-0.0033533
0.0957793,-0.0230576
0.0354152,0.00265533
-0.329451,0.0322368
-0.334875,0.023013
0.100445,-0.000530263
0.270626,0.00549894
-0.000451892,0.0149216
-0.227877,0.0102374
-0.123637,0.000680383
0.0840698,0.00283436
0.217486,0.00647534
0.148928,-0.0204425
0.0387717,-0.0523361
0.168902,-0.0580226
0.271768,-0.0275183
0.152436,0.0145572
-0.177394,0.0145798
-0.441349,0.0148211
-0.284465,0.0304401
-0.0826809,0.0436463
-0.00419127,0.0375296
-0.0891436,-0.000362384
-0.210965,-0.0234204
-0.202904,-0.0171843
-0.185918,0.00634398
-0.000221324,0.0332646
0.421022,0.0441468
0.596636,0.0205559
0.445796,0.00218189
0.00158987,-0.0430618
-0.494126,-0.0580143
-0.506114,-0.065113
-0.16327,-0.0934965
0.122292,-0.122521
0.40255,-0.0447321
0.699487,0.0566495
0.748514,0.085924
0.481749,0.0687621
-0.114944,0.0429532
-0.535415,0.0232426
-0.451265,0.0198502
-0.377394,0.0108124
-0.323367,0.00325476
-0.256105,0.0122443
-0.26264,0.04257
-0.143293,0.060138
-0.0931235,0.029729
-0.125568,0.00899793
-0.0822109,-0.0167231
-0.0141366,-0.0457568
-0.015599,-0.0491368
-0.0472734,-0.0144038
0.013433,-0.000485263
0.131243,0.00333356
0.19162,0.00264973
0.176194,-0.0184164
0.101091,-0.0545015
0.0665539,-0.00813616
0.0852902,0.0436943
0.191981,-0.0226188
0.453621,-0.0248027
0.736796,0.0222055
0.566741,0.0256309
-0.0350011,0.01642
-0.597973,0.0267205
-0.781593,0.0243407
-0.545619,0.00267718
-0.266099,-0.0175412
-0.151536,-0.0303292
-0.1253,-0.0162363
0.00179279,-0.00584384
0.241056,0.00978826
0.465021,0.0213227
0.80955,0.015797
0.902772,0.0134433
0.774835,-0.0495577
-0.493791,-0.00443832
-0.368148,0.0476217
-0.352687,0.0200259
-0.549414,-0.000215033
-0.712594,-0.0560521
-0.709769,-0.103829
-0.42591,-0.0320247
-0.136375,0.032916
0.0516901,0.0280139
0.282615,0.0023959
0.521874,0.0171951
0.417741,0.0115215
0.0806001,-0.0311583
-0.258928,-0.0284972
-0.363824,-0.00655131
-0.223866,0.0144261
-0.0587595,0.0114437
0.097294,0.0169257
0.165082,0.0255383
0.138356,0.0236245
0.141477,0.0136413
0.162487,0.0194273
0.201411,0.025535
0.129963,0.0189779
-0.0393374,0.00911337
-0.125613,-0.000489907
-0.119079,-0.0126244
-0.0352511,-0.0211919
0.014828,-0.0226554
0.00562476,-0.0190705
-0.00319564,-0.00749214
0.0794173,-0.00206234
0.262084,0.0165329
0.37483,0.0137119
0.226931,0.00268142
0.0462619,0.00676602
0.140367,0.026489
0.174725,0.0100297
0.0509434,-0.0429449
-0.25533,-0.0492758
-0.376543,-0.0243681
-0.259931,-0.00717217
-0.230979,0.00742921
-0.0832344,-0.0021759
-0.0775478,0.00456507
-0.213843,0.0171083
-0.219632,0.0189548
-0.0620843,0.00402404
0.0330482,-0.0239395
-0.0583917,-0.0290706
-0.219028,0.0167983
-0.187042,0.0355832
0.0707972,0.0123489
0.384795,0.0206694
0.529591,0.0323131
0.398008,0.0410588
0.093117,0.00852518
0.203406,-0.0277185
0.649238,-0.0701437
0.562712,-0.123334
-0.104897,-0.0316467
-0.702126,0.0431924
-0.739488,0.0182106
-0.622116,0.00176758
-0.481593,-0.0237569
-0.243259,-0.0130944
-0.018157,0.0104349
0.133218,0.0169252
0.13238,0.0273651
0.0172046,0.0254792
-0.0500655,0.00976775
0.0799184,0.00692232
0.263054,0.0142473
0.309732,0.0192198
0.119152,0.0333547
-0.161077,0.0279903
-0.169706,-0.000334798
0.123623,-0.00533073
0.357256,0.0055089
0.304328,0.0139912
-0.0289678,0.0173956
-0.249442,0.0140961
-0.123843,0.00876637
0.0500024,-0.00623345
0.0369632,-0.0230393
-0.0523694,-0.00471595
-0.00644033,-0.00674492
-0.0292574,-0.0586332
-0.0558482,-0.109503
-0.0410286,-0.0722069
-0.0246869,0.0329234
-0.0260252,0.0382419
0.114237,0.0201606
0.213567,0.00851213
0.279897,-0.014675
0.355403,-0.0285485
0.114795,-0.0188435
-0.173821,-0.00423432
-0.234871,0.00105323
-0.185357,0.00814929
-0.148195,0.0151947
-0.231126,0.0125511
-0.258889,0.0314999
-0.048466,0.0199578
0.0144465,0.0154106
0.00368869,0.0399073
0.0554726,0.0525588
0.192104,0.0501934
0.263072,0.0423972
-0.0581014,0.0122925
-0.436286,-0.0207076
-0.352242,-0.0232069
-0.110913,-0.00907604
0.0577222,-0.0307242
0.0998722,-0.0399888
0.104531,-0.00898991
0.155816,-0.00887723
0.253065,-0.0101803
0.247816,-0.0427342
0.116193,-0.04328
-0.0670562,-0.0157518
-0.112282,-0.0528747
0.112162,-0.0714368
0.385997,0.00378621
0.244138,0.0708472
-0.176226,0.0499766
-0.575578,0.0139824
-0.56428,-0.0101877
-0.214636,-0.00748088
-0.0598503,0.0103833
0.0259055,0.0112063
0.274132,0.0168727
0.478199,0.00800684
0.463692,0.00155277
0.214497,0.0196485
-0.0477258,0.0381166
0.0421169,0.0323377
0.070244,0.020211
-0.090092,0.0216011
-0.156921,-0.00184504
-0.384219,-0.0544784
-0.611636,-0.0572715
-0.3166,0.010565
0.278094,0.0318958
0.743722,0.0123932
0.694191,-0.0126733
0.106509,-0.0242989
-0.6249,0.0061027
-0.76408,0.0126397
-0.347654,-0.0235222
-0.0891639,-0.0501142
0.040265,-0.031643
0.0561267,0.0485075
0.0187308,0.0588117
0.148238,0.031166
0.169333,-0.0330435
0.0897653,-0.0384401
0.0125291,-0.0627084
0.0446183,-0.0693514
0.181456,-0.0481531
0.13237,0.032616
-0.0908872,0.081502
-0.201047,0.0664664
-0.083617,0.0184585
0.00885771,-0.0047673
0.0109401,-0.00707451
0.0366327,-0.0407143
0.127057,-0.0246835
0.250663,0.0547493
0.180627,0.0313587
-0.0519333,-0.00436882
-0.277858,0.00684062
-0.241873,0.00867125
0.0729444,-0.0117683
0.287348,-0.00850088
0.272044,0.0081789
0.110317,0.0136259
-0.112424,0.00316556
0.0064569,-0.0121571
0.412091,-0.016682
0.390789,-0.0110149
-0.0108477,0.00436438
-0.517671,0.00912706
-0.679477,0.00899557
-0.396148,0.0106224
-0.163256,0.00929073
-0.0772154,0.0120151
0.00470406,0.0316793
0.11967,0.0526903
0.102027,0.0325051
0.0180684,-0.00785054
0.0256722,-0.0341723
0.0644286,-0.0330005
0.118979,-0.00862824
0.131741,-0.0367383
0.217088,-0.103235
0.285503,-0.0706299
0.16592,-0.010922
0.123557,0.0141178
-0.068304,0.0263148
-0.320321,0.0205819
-0.355621,0.0105775
-0.288317,0.00547934
-0.127692,0.0112289
-0.0113951,-0.000185332
0.0822486,0.0157014
0.103231,0.0467864
0.0253224,0.0445807
-0.0743679,0.0169855
-0.108569,-0.00735439
-0.0648496,-0.0156073
0.016861,-0.0322794
-0.0213118,-0.0641515
-0.0797847,-0.0768075
0.141767,-0.0390274
0.354068,0.010769
0.273343,-0.0181243
0.0920933,-0.014004
-0.0312639,0.0279963
-0.0520512,0.0453458
-0.125309,0.0582168
-0.165694,0.0714203
0.24875,0.0686869
0.90572,0.0376904
1.10785,-0.0193225
0.480197,-0.0545389
-0.691198,-0.0529211
-1.13838,-0.00614054
-0.969216,0.0458753
-0.617198,0.0522123
-0.161285,0.0362712
0.0892462,0.00284347
0.0659486,-0.0366393
-0.0373653,-0.0495556
-0.10299,-0.067126
-0.0736128,-0.0604082
-0.0396098,-0.0332737
0.0202915,0.0226394
0.0755063,0.0358158
0.097623,0.0342579
0.104199,0.0252573
0.0667666,0.00428895
0.0346016,-0.0268021
0.0676028,-0.0374943
0.176524,-0.00825368
0.263675,0.0211234
0.161791,0.0235637
0.0106824,0.0110068
0.148858,0.00638223
0.437217,0.0153754
0.468317,0.0207299
0.234048,0.0273549
0.00172802,0.0348816
-0.0513742,0.0331551
-0.0612383,0.0398111
-0.409452,0.019658
-0.705101,-0.0128954
-0.565447,-0.00618531
-0.345306,-0.0095979
-0.114164,-0.0540844
0.0411504,-0.0795174
0.115307,-0.0653403
0.054109,-0.00794618
-0.0194406,9.4e-05
0.0807239,0.00396026
0.332372,-0.0078234
0.492871,-0.0388249
0.380249,-0.113629
-0.0820766,-0.0212028
-0.429933,0.0650304
-0.34421,0.0453192
-0.112768,0.0202681
0.325886,-0.00198132
0.510794,0.00954926
0.335259,0.0424002
0.0374643,0.032825
-0.228931,-0.0256192
-0.104184,-0.0506811
-0.0667954,-0.00619264
-0.261852,0.0385374
-0.3235,0.0245236
-0.183483,0.00275102
0.0369615,0.00819852
0.0984406,0.00614115
0.0309683,0.0237755
-0.0857419,0.0299549
-0.064784,0.0163123
0.0679746,0.000684064
0.113107,-0.00300393
0.0766426,-6.8e-05
-0.0760989,0.00383747
-0.187188,0.0102164
-0.119686,0.00355385
-0.0286777,0.00177532
0.0190042,0.00537839
0.0252115,0.000426328
0.0290369,0.00799203
0.0725915,0.00311225
0.11737,0.00521795
0.181292,0.00553904
0.294356,-0.0393763
0.16671,-0.0387478
-0.127993,-0.0149253
-0.202603,-0.0125246
0.0493515,-0.0027946
0.290427,0.0135995
0.223859,0.00604917
-0.0966173,0.0108473
-0.324739,0.0212012
0.021049,0.0168214
0.323984,-0.0209499
0.0691517,-0.0563024
-0.415548,-0.0586175
-0.480653,-0.0283011
-0.171326,-0.0629885
-0.11127,-0.0353787
-0.0494207,0.0573385
0.211832,-0.0194049
0.333441,-0.0467618
0.315027,-0.0143974
0.0921241,0.039567
0.00196662,0.0503902
-0.0598521,0.0423489
-0.315297,0.036033
-0.375436,0.0226432
-0.198299,0.010343
-0.0248255,0.0194478
0.0390304,0.0263238
0.0196709,0.0212319
0.154296,0.00508905
0.441306,0.0042773
0.456591,0.0271263
0.0801096,0.0393583
-0.278187,0.0429779
-0.179869,0.0283067
0.0572951,-0.0133301
0.138245,-0.0407762
-0.0144926,-0.0367622
-0.208557,-0.00352874
-0.162317,0.00150899
-0.0285335,-0.0446302
-0.0552177,-0.0591152
-0.111797,-0.0176854
-0.076133,0.00828753
-0.0393496,-0.00403978
0.0205271,0.0102147
-0.0381946,0.0198307
-0.0454025,-0.00114148
-0.0229286,-0.00364369
-0.00108528,0.000352379
0.0159617,-0.00659535
0.026814,0.00328333
0.0437036,-0.00233346
0.0277849,-0.0165913
0.0942707,-0.0118346
0.274566,0.0068393
0.364739,0.0161545
0.236168,0.00814561
-0.127289,0.00186751
-0.31126,0.00454433
-0.220144,-0.0191836
-0.117369,-0.0355359
-0.0437948,-0.0316715
-0.00745132,0.0182959
0.0780553,0.038962
0.04225,0.0205279
0.0107536,0.00818732
0.172628,0.0155942
0.289316,0.00236978
0.317602,-0.0173144
0.24019,-0.00667761
0.0748879,0.0111313
-0.0461694,0.00651694
-0.270562,-0.00654162
-0.483801,-0.012586
-0.412919,0.00189138
-0.0974029,0.00437659
0.109565,-0.0225918
0.0832269,-0.0289777
-0.00850912,-0.0101355
-0.12012,0.0129595
-0.25957,0.0324842
-0.23815,0.0375499
-0.121248,0.00520557
-0.0173389,-0.0386495
0.0427424,-0.0231086
0.0619739,0.00276244
0.0573848,-0.0125992
0.151968,-0.0095062
0.348648,-0.0118138
0.629549,-0.00600791
0.780396,-0.0188795
0.320786,-0.0122977
-0.4443,0.0211628
-0.63039,0.0588578
-0.356459,0.0645979
-0.067825,0.0143113
0.0643503,-0.022571
-0.0117945,-0.0112895
-0.139343,-0.00658764
-0.196649,0.00802478
-0.0808854,-0.0133433
0.0220255,-0.0392432
-0.01824,-0.0690293
-0.108877,-0.0643182
-0.146898,0.0160512
-0.0707893,0.0625739
0.240418,0.0404805
0.493593,0.00878896
0.366864,0.0170619
0.0822433,0.0137727
-0.198961,-0.00612082
-0.191898,-0.00435758
-0.200586,0.00954309
-0.233376,0.0185855
-0.068823,0.0158039
0.0446294,0.0118366
0.0304721,0.0100552
-0.0205837,0.00517285
-0.0634471,-0.00544058
-0.0832866,-0.0139479
-0.0831262,-0.0108125
-0.0688304,0.00117695
-0.0095438,0.00937403
0.147845,0.00958467
0.287986,0.00566372
0.312377,0.00335079
0.18623,0.00878871
0.0443198,0.0132613
0.114389,0.0129136
0.326685,0.00365343
0.421257,-0.0323184
0.22519,-0.0421863
-0.212831,-0.0505552
-0.546336,-0.0429224
-0.618797,-0.0283431
-0.398013,-0.0123079
-0.119133,0.00167809
0.029397,0.0140491
0.0380074,0.0338952
-0.0697262,0.034941
-0.134301,0.0105199
-0.0231107,0.00268961
0.101427,0.00390067
0.135469,-0.0244473
0.0906304,-0.00732908
0.0831734,0.0126709
0.105684,0.0233965
0.0821822,0.0291792
0.101836,0.0231472
0.0370133,0.0160196
-0.216676,0.00856813
-0.310371,-0.0474262
-0.174606,-0.0455077
0.00896619,0.0113231
0.205983,0.0236628
0.362077,0.00725654
0.508064,0.00186173
0.805647,0.0200016
0.792922,0.00652035
0.231853,-0.0433323
-0.468761,-0.0400902
-0.964948,-0.00766052
-0.82068,-0.0251773
-0.468211,-0.0621597
-0.308774,-0.0476718
-0.0616402,0.0495431
0.0814755,0.109018
0.0598002,0.0486777
-0.027653,0.00259346
-0.15617,0.00613426
-0.179485,-0.0061417
-0.0930256,-0.00775504
0.00450489,0.00519406
0.0148323,-0.00774836
0.00978253,-0.0327782
0.0902942,-0.0317534
0.219189,-0.108896
0.270476,-0.0679223
0.252897,0.0468434
0.189013,0.022491
0.120749,0.0177379
0.175739,0.0650152
0.298883,0.0684158
0.387854,0.039686
0.283686,0.0130381
-0.0336934,0.0050155
-0.356795,0.00408905
-0.532074,0.00153517
-0.406238,-0.00603057
-0.199772,-0.0143189
-0.126668,-0.000695575
-0.0685878,-0.000480425
-0.00391282,0.00871313
0.0155654,0.000982476
0.0167539,-0.00363298
0.0294996,0.00622881
0.0971381,0.0105331
0.206649,0.0131968
0.259713,0.0156454
0.194035,0.00422845
-0.0163832,-0.0130584
-0.186152,-0.0284483
-0.16223,-0.0387636
-0.101285,-0.0371239
-0.0724326,-0.0214029
0.0257447,-0.00110662
0.181709,0.0246278
0.227819,0.0540982
0.148594,0.069603
-0.0435108,0.0357752
-0.0292091,-0.0173325
0.163985,-0.0364485
0.210526,-0.0505436
0.011364,-0.0625205
-0.369749,-0.0477974
-0.39279,-0.0190364
-0.15619,0.00364933
-0.104665,-0.0103257
-0.0577808,-0.0208425
0.0365025,-0.000366147
0.0613664,0.00853987
-0.0265931,0.0121756
-0.132295,0.0148863
-0.126043,0.0217997
0.0695992,0.0275121
0.301404,0.000427578
0.331117,-0.0500907
0.30484,-0.0129374
0.250954,0.0217738
0.136818,0.00318203
-0.0815502,0.0110661
-0.332367,0.0257035
-0.343924,0.0322457
-0.0960097,0.0155805
-0.0453429,-0.025954
-0.163216,-0.0286729
-0.159224,-0.00074099
-0.101103,0.00902716
-0.0061259,0.0120235
0.0714472,0.0135946
0.105478,0.00638209
0.0848905,-0.0106397
-0.0844036,0.0140772
-0.236578,0.0315517
-0.151084,0.0105565
0.0919844,0.00811499
0.267902,0.0035042
0.284172,0.00792652
0.145797,-0.0313543
0.0453455,-0.0759564
0.163813,-0.0201714
0.183227,0.0186424
0.064286,0.0510807
-0.123902,0.0656171
-0.211022,0.0267509
-0.179044,-0.061266
-0.196786,-0.0798532
-0.203632,-0.0419435
-0.131611,-0.0489954
-0.0642403,-0.00929307
-0.000284528,0.0304107
0.0179918,0.0363673
0.0605418,0.0307247
0.167956,0.0295318
0.244335,0.0269595
0.21273,0.0242526
0.0395869,0.0131385
-0.134319,-0.0169361
-0.165124,-0.0583144
-0.0914205,-0.0277576
0.199237,0.021541
0.532837,0.0291774
0.672749,0.0200794
0.393105,0.0147487
-0.044352,0.00718882
-0.257165,-0.00294061
-0.310882,-0.0125217
-0.245651,0.0164413
-0.313149,0.049207
-0.367429,0.0187285
-0.261313,-0.0162062
-0.208325,-0.0383139
-0.208566,-0.0346575
-0.118574,-0.00304759
-0.00909344,0.0159434
0.0093614,0.00525325
0.0080783,-0.0226925
0.0141856,-0.0488472
0.00038418,-0.021651
-0.0249605,0.0250737
-0.0321974,0.0275201
0.00774377,0.0220526
0.0579075,0.0112843
0.10885,-0.0033567
0.145892,-0.0148267
0.163317,-0.0306028
0.227977,-0.0217384
0.274425,-0.00555071
0.295818,0.0123773
0.196082,0.0155533
-0.0296767,0.00963747
-0.111873,0.0344126
-0.0851473,0.00830454
-0.00427246,-0.0332952
0.0621911,-0.0475019
0.15892,-0.0338097
0.144603,0.0166189
-0.0929746,0.0297979
-0.358089,0.0272303
-0.505106,0.0295051
-0.214884,0.0110117
0.0757198,-0.0761241
0.0813384,-0.0703482
-0.0831133,0.000998161
-0.163631,0.0383822
-0.0678353,0.0284673
0.021564,-0.0172455
0.0328774,-0.00784475
0.0143772,0.011411
0.0267752,-0.0177833
0.0375112,-0.0237975
0.0442302,0.0204164
0.0425206,0.0589915
0.017968,0.0503287
0.0170565,0.0419011
0.0533848,0.0503056
0.133046,0.0268822
0.257312,8.48e-05
0.185421,-0.00227759
0.0385457,0.0019976
0.155797,-0.0131113
0.518668,-0.030255
0.568106,-0.0353928
0.105083,-0.0385312
-0.287453,-0.0348117
-0.617048,-0.0306549
-0.674321,-0.0288338
-0.53102,-0.0247598
-0.397722,-0.0167272
-0.190819,0.00780942
-0.0245063,-0.019112
0.07033,0.00498532
0.0807902,0.0277426
-0.00253795,0.0161285
-0.0360075,0.00609447
0.0392758,0.00433332
0.107604,0.00544978
0.111893,0.00926242
0.0175388,0.0213619
0.0681907,0.0305186
0.21932,0.0281231
0.281299,0.0228636
0.18848,-0.000974001
0.00414884,-0.0263576
-0.0207787,-0.0271877
0.0874786,-0.0165501
0.159156,-0.00616643
0.1865,0.00395078
0.0819353,0.0134323
-0.086032,0.00688012
-0.247878,-0.00671081
-0.34815,0.00476011
-0.263244,0.0181027
-0.108636,0.0174967
0.00864041,-0.00379309
0.0516518,-0.0158051
0.0134715,-0.00773143
-0.0223423,-0.00802087
-0.014145,-0.0170256
0.0314848,-0.0205359
0.0909991,-0.00853909
0.144597,0.00357974
0.172597,0.00983413
0.124181,0.0118143
0.0588255,0.0120681
-0.0240671,0.0144365
-0.0548446,0.00581854
-0.0498135,-0.00368042
-0.149858,-0.00753825
-0.193456,-0.017256
-0.0430994,0.00627416
0.0778035,0.0231455
0.0785565,-0.0188305
0.0477454,-0.0551682
0.0162131,-0.0430463
0.0566752,-0.0110032
0.205046,-0.00246909
0.304468,0.0349125
0.181177,0.0421124
-0.136137,0.0115314
-0.392013,-0.00910826
-0.21945,0.00562561
-0.0701503,0.0248335
-0.0510822,0.00856422
-0.0550918,-0.0104251
-0.0381582,-0.00498876
0.0691568,0.0117306
0.152271,0.0272854
0.147151,0.00351707
-0.0186251,-0.0132394
-0.0955823,-0.00147416
-0.0387173,0.0145339
-0.0839994,-0.000117585
-0.0980575,-0.024962
-0.0953479,-0.0225253
-0.121735,-0.00454924
-0.0917669,-0.008687
-0.0248633,-0.002182
0.0219259,0.0151104
0.0480416,0.0205261
0.0594172,0.00532463
0.069526,-0.00129145
0.0479153,0.00651601
0.04333,0.026045
0.0534366,0.0282395
0.0655596,0.0259666
0.123207,0.00606818
0.135971,-0.0323607
0.0675284,-0.0398951
0.0142324,-0.0313488
0.0530511,-0.0328184
0.21461,-0.0177579
0.282639,-0.0168712
0.123631,-0.0083222
-0.220378,0.0250839
-0.412648,0.0208089
-0.319057,0.00878968
-0.0823333,0.00865369
0.155228,0.00754345
0.164638,-0.0110856
0.102851,-0.00951069
0.0586843,0.0179356
-0.162461,0.0391566
-0.348858,0.0295018
-0.263131,0.00188378
-0.125087,-0.0203047
-0.0511017,-0.0440884
-0.0334694,-0.0574529
-0.0376571,-0.0483813
-0.0221249,-0.00681514
0.0652089,0.0332307
0.217005,0.0182864
0.270014,-0.0208037
0.19065,-0.0335076
-0.0112646,0.0262901
-0.158336,0.0282343
-0.123362,0.00542999
-0.0065446,0.00223713
0.159002,0.0161826
0.24943,0.0252251
0.216197,0.0213587
0.0540652,0.0065973
-0.186618,-0.00278619
-0.218864,0.00233262
0.0214733,0.0206077
0.192924,0.0284291
0.188517,0.0178419
0.018422,0.000919868
-0.227315,-0.00613622
-0.242794,-0.00724358
-0.176748,-0.00803726
-0.10184,-0.00597569
0.0122962,-0.00548053
0.122984,-0.00631437
0.112319,0.000918393
0.104822,-0.000589506
0.154955,0.00811165
0.134243,0.0143084
0.122056,-0.00882429
0.0806097,-0.017816
-0.186253,-0.0209106
-0.447186,-0.0255131
-0.446459,-0.00402701
-0.227218,0.0078635
-0.0256632,0.00188273
0.0667532,-0.0122332
0.109453,-0.0289268
0.0722125,-0.0242242
0.0174449,-0.0326139
0.0346633,-0.0382844
0.144345,0.0170425
0.220047,0.0358193
0.232456,0.0182505
0.272341,-0.0183317
0.373399,-0.0186305
0.310817,0.0120278
-0.00245617,0.020368
-0.325552,0.0217442
-0.357653,0.0157022
-0.203818,0.0082879
-0.186388,0.00958294
-0.166219,0.0388214
0.0230021,0.0457404
0.0815669,0.0202192
-0.0452247,0.00188428
-0.00677214,-0.000248677
0.141537,0.00237324
0.0505152,-0.0238524
-0.100778,-0.0187909
-0.13961,0.00900674
-0.115208,0.00366314
-0.231433,-0.03528
-0.234634,-0.0258618
-0.0650632,-0.00374424
0.0370956,-0.00251685
0.0840086,-0.00296252
0.165069,-0.00103173
0.385044,-0.00754445
0.496443,-0.0118706
0.314157,-0.0134018
-0.0132494,-0.0115476
-0.180496,-0.00781439
-0.0242423,-0.00554233
0.0508058,-0.0153615
-0.0948761,-0.0242103
-0.172468,-0.00639506
-0.0663332,0.0191391
-0.0649574,0.0349877
-0.19447,0.0401755
-0.218448,0.0345974
-0.0764878,0.0163292
0.0153985,-0.00261787
-0.00221595,-0.00775588
-0.0426467,-0.00957736
-0.0289243,-0.0070447
0.0030236,-0.00110004
0.0271932,0.00124335
0.047009,0.00506518
0.0779268,0.00656239
0.0608833,0.00270524
0.0324572,0.00588284
0.0632862,0.00224157
0.14078,0.00246436
0.223695,0.00767958
0.358479,-0.0110355
0.448594,-0.0325724
0.307627,-0.0150079
-0.110628,0.00607264
-0.538299,0.00133838
-0.617895,0.00660064
-0.419602,0.0170842
-0.163288,0.000639529
-0.0502125,-0.017588
-0.00223545,-0.0446115
0.14851,-0.072402
0.399542,-0.0607334
0.411665,0.0268283
0.186382,0.0639708
-0.240353,0.0505906
-0.409496,0.0404886
-0.0423582,0.0238842
0.308703,0.00904555
0.281756,0.0067183
0.00298748,0.0110558
-0.430793,0.02771
-0.37253,0.037845
-0.0382897,0.0219243
0.0342915,-0.00476653
0.0296605,-0.0302655
-0.0523407,-0.0764892
-0.101529,-0.0804219
-0.0447034,-0.00576845
-0.018251,0.0441365
0.00135335,0.0280433
0.056884,0.0128569
0.0510238,0.0124172
0.044287,-0.00177858
0.047989,-0.018261
0.0720538,-0.0624413
0.220948,-0.0335252
0.287842,-0.0164279
0.167503,-0.0282805
-0.0656958,-0.0204674
-0.150258,0.0429811
-0.0906555,0.0727699
-0.0997013,0.0196305
-0.0617827,-0.0119759
0.0103207,-0.00508229
-0.0421675,0.00585522
-0.141331,0.0128095
-0.11999,0.0140007
0.0509237,0.0212202
0.175472,0.0284026
0.174553,0.0195287
0.0359501,0.00492599
-0.143093,-0.00880046
-0.0558208,-0.0154519
0.174546,-0.00899158
0.242985,-0.0140767
0.135741,-0.0269238
-0.113696,-0.00458027
-0.155041,0.00170864
-0.00028995,-0.0324416
0.0953673,-0.0145996
0.0604916,0.023459
-0.0258069,0.0326891
-0.0553784,0.0405121
-0.158203,0.0217244
-0.188535,-0.0146596
-0.113772,-0.0308825
-0.0253945,-0.00834637
0.0820997,-0.0131283
0.21166,-0.0177889
0.194056,-0.00271816
0.0199557,0.00436564
-0.247964,-0.00433929
-0.375896,-0.0095067
-0.238234,-0.00660497
-0.0725666,-0.000499046
0.0635893,-0.00316042
0.172973,-0.00155625
0.241384,-0.00350906
0.223612,-0.0182285
0.0919782,-0.0207537
-0.0847292,0.00343413
-0.192616,0.0240892
-0.155262,0.0283287
-0.130618,0.0201308
-0.112856,0.0045445
-0.0129298,-0.00153772
0.130551,0.00439804
0.194201,0.00940792
0.154363,0.000726019
0.0353109,-0.0101048
-0.0491163,-0.0209476
-0.00603364,-0.0322401
0.0873844,-0.0155797
0.107906,0.00670509
0.128076,0.0107325
0.112055,0.0088279
-0.00673725,-0.000538003
-0.15696,-0.0085896
-0.210606,0.00580606
-0.116071,0.0157029
-0.050287,0.00673899
-0.0314287,-0.00832645
-0.015529,-0.00799365
0.0690491,-0.000730719
0.186966,0.00764443
0.207176,0.0115455
0.09065,0.0124144
-0.049524,-0.000483803
-0.107223,-0.0115331
-0.0332942,-0.00913233
0.0206353,0.00407948
-0.00588729,0.00617377
-0.00850525,0.00572508
-0.0374858,0.0114896
-0.118289,0.0145712
-0.136111,0.0128346
-0.0897638,0.00746766
-0.042265,-0.00471305
-0.0163931,-0.0118338
0.0115888,-0.00563364
0.00507016,0.00644636
-0.00243133,0.00887314
0.0246938,0.0048612
0.0442373,-0.00318863
0.018419,-0.00484127
0.0502895,-0.000133551
0.18472,0.00970317
0.275404,0.0023462
0.291776,-0.0154764
0.191959,-0.0122167
0.0393412,-0.00624596
-0.0280142,-0.00431867
-0.231525,0.00289268
-0.473932,0.0066533
-0.38766,0.00198351
-0.174752,0.000239366
-0.0665692,0.00545384
-0.0213749,0.00619399
0.038811,0.00788867
0.061729,0.0123394
0.0721523,0.011446
0.073029,-0.00973497
-0.010572,-0.0321415
-0.015721,-0.0301305
0.147453,-0.0317933
0.196839,-0.0335669
0.183772,-0.0218267
0.157551,-0.0133006
0.091567,-0.00647678
0.119719,0.00402916
0.0833964,0.0388747
0.0301457,0.033683
-0.131799,-0.00577224
-0.303575,-0.0111014
-0.314627,-0.00752585
-0.292671,-0.00124055
-0.174115,0.00699362
-0.0638172,0.00291101
0.0175623,0.00719186
0.0608931,0.01785
0.0445715,0.0136598
-0.00476934,0.00547039
-0.00822005,0.00333343
0.018199,0.00887862
0.0255409,0.0163905
0.0158093,0.0174476
0.0261168,0.00830056
0.0277245,-0.00168397
0.0668021,0.00488238
0.278157,0.00566119
0.406205,0.0121983
0.26549,0.00561911
0.013515,-0.00454969
-0.202032,-0.0096939
-0.205986,-0.00709286
-0.0985628,-0.00474422
-0.0828888,-0.00362142
-0.117373,-0.00424013
-0.062044,-0.0068407
-0.0216082,0.00149202
0.0209143,0.011852
0.136913,0.0147242
0.145421,0.00609907
0.0842538,-0.00954988
-0.0569634,-0.0457964
-0.194484,-0.0447004
-0.0825864,0.0130582
0.0767967,0.045345
0.165792,0.0386451
0.0508668,0.00617571
-0.0266898,-0.0382099
0.0333716,-0.0504472
-0.0345962,-0.033065
-0.078,-0.0126209
-0.101069,0.0035069
-0.16657,0.00798254
-0.18307,0.0132823
-0.0468683,0.00897414
0.086965,0.0144421
0.156704,0.0193337
0.119626,-0.0119111
0.0163794,-0.00220893
-0.0354197,0.00321996
0.10948,-0.00244243
0.195144,-0.0107001
0.0755727,-0.00904864
-0.125732,-0.00593642
-0.272233,-0.00135381
-0.151112,-0.00594296
-0.0811629,-0.0103222
-0.0989812,-0.00471609
-0.0779108,0.00562981
-0.0562806,0.0184445
0.0434902,0.0249484
0.257923,0.0214164
0.411665,0.00826812
0.366706,0.000149355
0.182509,-0.00664987
-0.130353,-0.0149532
-0.333912,-0.00881869
-0.283227,-0.00754689
-0.179996,-0.0220734
-0.0823329,-0.0148977
-0.0192525,-0.00107782
0.0264897,0.0133334
0.0534849,0.00998156
0.0436276,0.00733281
-0.00456174,0.0140395
-0.0427664,0.017376
-0.0261797,0.0273229
0.0507425,0.0295498
0.0836139,0.0177696
0.0447554,-0.00278649
-0.0268431,-0.0651569
-0.0934677,-0.0674747
-0.0636353,0.00266767
0.0370943,0.018464
0.13955,0.0102967
0.241699,0.00712039
0.263827,0.00242281
0.189179,-0.00224898
-0.0112879,-0.0134292
-0.205453,-0.018038
-0.244715,0.0076743
-0.186795,0.0250896
-0.0996602,0.0248171
-0.0300854,0.02424
-0.0148618,0.0253811
-0.027201,0.0260198
-0.0432197,0.0160181
-0.0521536,-0.00127634
-0.0369386,-0.0111436
0.00744944,-0.0137608
0.0526183,-0.00970776
0.0866715,-0.00379525
0.121749,0.000786923
0.179303,0.00798783
0.109379,-0.00360227
-0.0362451,-0.0152481
-0.107264,-0.0172047
-0.088199,-0.000283391
-0.0423778,0.00787079
-0.0203355,-0.00248341
-0.0242501,0.00520734
-0.0201945,0.00971278
0.00167125,0.00506487
0.00802972,0.00306026
0.0215263,0.00060447
0.028122,-0.0167438
-0.0420092,-0.00761182
-0.0588035,0.00342294
