Comp Ch 3,Comp Ch 4
-0.033195,0.00209115
1.33e-06,0.00254858
0.0245354,0.00559604
0.0698271,0.00120269
0.102746,-0.00280968
0.0953117,-0.00400925
0.0760909,-0.00588659
0.0587289,-0.00157052
0.0538034,0.000982883
0.0727953,-0.0047009
0.0457917,-0.00862324
-0.0327849,-0.00321686
-0.0538073,-0.00495118
-0.0314795,-0.0168596
-0.0169519,-0.023641
-0.0159925,-0.0101074
-0.00212782,-0.00139943
0.0553361,0.0055361
0.215932,0.0108506
0.390271,0.0143468
0.383184,0.00926393
0.214233,-0.0112296
-0.0403032,-0.0012452
-0.302304,0.0111488
-0.328661,0.0155114
-0.233281,0.0257075
-0.173084,0.0211612
-0.118162,0.0097935
-0.0509531,0.0020346
-0.0384534,-0.0107709
-0.0587589,-0.0201648
-0.0935625,-0.0137179
-0.0967241,-0.0058328
-0.0618114,-0.00379878
-0.0184795,0.00396468
-0.00159271,0.0125709
-0.00112568,0.013362
0.00453578,0.00242297
0.0264964,-0.00422576
0.0404984,-0.001083
0.0550088,0.00143866
0.0634559,-0.00683954
0.0479865,-0.0150407
0.0748557,0.01112
0.29429,-0.00449133
0.620081,-0.0164527
0.76057,-0.0019248
0.565527,-0.0155147
-0.117655,-0.0179979
-0.515635,-0.0176366
-0.421566,-0.0105028
-0.381229,0.00954761
-0.270871,0.0215487
-0.326851,0.0235442
-0.352944,0.020973
-0.122483,0.0139341
0.125038,0.00293702
0.225109,-0.00919785
0.149725,0.00170715
-0.0339895,0.0204718
-0.120667,0.0172608
-0.0437394,0.000254624
-0.045762,-0.0178876
-0.170858,-0.0237091
-0.170904,-0.00409542
-0.0679092,0.00723808
0.00649061,0.0046609
-0.00594472,-0.00390788
-0.00689896,-0.00675832
0.074434,-0.0208145
0.161087,-0.0324392
0.178196,-0.00565604
0.145487,0.00672274
0.0818139,0.00567133
0.0101503,0.00760712
-0.00401781,0.0089352
-0.00419467,0.00973553
-0.0232753,0.00988051
-0.0225195,0.00413539
0.0392534,-0.00242208
0.172414,-0.00250747
0.212139,-0.00367049
0.140088,-0.0017109
-0.103987,0.00131652
-0.302631,0.009119
-0.200579,0.0234703
-0.0429922,0.0474784
0.0545386,0.0198274
0.101976,-0.0191151
0.0821774,-0.0156553
0.0377947,-0.00451684
0.0442348,0.0068451
-0.0078785,0.0128398
-0.0322574,-0.0042292
-0.0203775,-0.0120243
-0.111906,0.00141834
-0.221628,-0.00930348
-0.176445,-0.0183932
-0.0727409,-0.0064361
0.0261087,-0.0198469
0.131792,-0.0644759
0.183004,-0.0578985
0.124546,0.00700163
0.0393011,0.0162502
-0.0835636,0.00315904
0.0480591,0.019032
0.346707,0.027739
0.589297,0.0208493
0.644648,0.0238593
0.281224,0.0312006
-0.276744,-0.00186937
-0.580544,-0.0210701
-0.630077,0.00390153
-0.545853,0.0116754
-0.430236,0.000932513
-0.254987,0.0127131
0.0777,0.0137435
0.404924,-0.00346358
0.41499,-0.0120474
0.148238,-0.000152326
-0.276207,-0.0195136
-0.314221,-0.0508223
-0.0743652,-0.0149002
-0.102102,0.00484783
0.000223894,0.00708612
0.166253,-0.00404225
0.164667,-0.00928539
-0.0534494,0.0129674
-0.0870957,0.0463697
0.0628791,0.0133509
0.213101,-0.0175147
0.169684,-0.00547556
-0.0292365,0.000631067
-0.0272178,0.00107795
0.0189501,-0.00952291
-0.0461252,0.00849969
-0.14223,0.0241932
-0.148862,0.0113025
-0.088325,0.000251591
0.0578784,0.00857286
0.0729915,0.00807347
0.0188962,0.00832819
0.123654,-0.0120719
0.244121,-0.0435608
0.272315,0.0213684
0.405527,0.0366911
0.524803,0.00146053
0.451837,-0.0714817
0.174607,-0.143346
-0.480712,-0.0189347
-0.737047,0.0761091
-0.57244,0.0424662
-0.372178,0.00428919
-0.325191,0.00256342
-0.355291,0.00905767
-0.163448,0.00927755
-0.0202102,0.0158881
0.0320755,0.0274
0.0388463,0.0428893
0.072163,0.0502826
0.126554,0.0481768
0.0602065,0.0284675
-0.0440619,-0.0069887
-0.112346,-0.0322077
-0.0959544,-0.0685981
0.256835,-0.0741565
0.591252,-0.0234295
0.650445,-0.0163547
0.383528,-0.0263976
-0.0780019,-0.0185634
-0.198503,-0.00959851
-0.00914671,-0.0134978
-0.0217922,-0.0155435
-0.297087,0.00644334
-0.465841,0.0361773
-0.438804,0.0348118
0.0610944,0.0296883
0.938718,0.0200279
1.45736,0.00341723
0.99926,-0.0115964
-0.383829,0.00134192
-1.591,0.0370059
-1.31667,0.029987
-0.703749,-0.00745428
-0.23735,-0.0471087
0.301,-0.0554056
0.574041,-0.0281091
0.450684,-0.00842097
0.104667,-0.00727092
-0.0853857,-0.0118891
0.521231,-0.00991505
1.14518,-0.0130585
1.02923,-0.00409178
-0.315474,0.0456729
-1.62282,0.0735069
-1.49192,0.0774034
-0.661826,0.0477209
-0.20158,0.0171795
0.119809,-0.000561527
0.191638,-0.0075638
0.120764,-0.0132441
0.108846,-0.0192856
0.159468,-0.0152707
0.151712,-0.0132408
0.130053,-0.00424779
0.102565,0.00487755
0.151401,-0.0332445
0.51392,-0.0202323
0.948439,-0.00810802
1.00757,0.00418796
0.127626,0.0270356
-0.828437,0.0333157
-0.997175,0.0185399
-0.860662,-0.00790557
-0.453869,-0.0158659
0.0623439,-0.0203752
0.364137,-0.0329706
0.473076,-0.0474742
0.439241,-0.0469258
0.159176,-0.0250055
-0.217412,-0.0239276
-0.371069,-0.0355521
-0.362116,-0.00888125
-0.240945,0.0648938
-0.148243,0.097139
-0.115893,0.0563845
-0.0145498,0.0371284
0.127329,0.0228111
0.242895,0.0126722
0.194887,0.0137185
0.136832,-0.00268289
0.151587,-0.0263779
0.113233,-0.02736
0.176521,-0.000245279
0.364041,0.0124537
0.523484,0.0101891
0.305625,0.00898192
-0.193102,-0.0060405
-0.592837,-0.0102391
-0.443817,0.0051993
-0.280457,0.00556075
-0.194528,-0.0146149
-0.0271227,-0.0443541
0.388693,-0.0627509
0.90116,-0.0768072
0.973117,-0.139769
0.626694,-0.250279
-0.368768,-0.257557
-1.20444,-0.0657709
-1.03652,0.0418159
-0.363411,0.0849289
-0.0204866,0.079484
-0.0168923,0.126499
-0.0621908,0.194217
0.0541979,0.207389
-0.063846,0.141922
-0.278459,0.111568
-0.344422,0.0907459
-0.241726,0.0614079
-0.0349312,0.0591581
0.154713,0.052957
0.11481,0.0113917
-0.0359551,-0.0238096
0.00434801,-0.0533324
0.230314,-0.0687951
0.468927,-0.067874
0.552862,-0.0608777
0.445158,-0.0641871
0.352703,-0.0658671
0.167937,-0.0355723
0.117465,-0.0143391
-0.170425,-0.00229026
-0.376411,0.0155444
-0.201924,0.00313281
-0.214458,-0.0024139
-0.230682,0.0198064
-0.149566,0.0736914
-0.058852,0.0889804
-0.0212086,0.0487657
-0.0746666,0.0341231
-0.0720563,0.0275472
0.190773,0.00711911
0.446337,-0.0133622
0.588641,-0.0448082
0.126098,-0.0481022
-0.490083,-0.0328379
-0.424228,-0.0417689
0.303035,-0.059099
0.697524,-0.0560106
0.374645,-0.0391802
-0.139237,-0.0349244
-0.611762,-0.0351527
-0.529298,-0.010472
-0.141948,0.0191583
-0.109375,0.0347254
-0.318064,0.03244
-0.379406,0.0269057
-0.19074,0.0125781
0.0758175,-0.00780545
0.279952,-0.0263432
0.377597,-0.0237292
0.259769,-0.0166306
-0.0417542,-0.0205914
-0.2573,-0.0301062
-0.170374,-0.0385026
-0.135164,-0.019715
-0.121383,-0.00330652
-0.090902,0.00503061
-0.0236741,0.0190554
0.133477,0.0286387
0.317394,0.0195736
0.368811,-0.00219737
0.278307,-0.0182814
0.15733,-0.0191749
0.155936,-0.00977818
0.322564,-0.0168949
0.300839,-0.0281723
0.0639341,0.00253445
-0.212026,0.0184406
-0.272722,0.0293007
0.0538514,0.00761976
0.210805,-0.0258146
-0.153055,-0.0142615
-0.545651,0.0131533
-0.547706,0.023147
-0.241401,0.0366525
-0.127366,0.0374843
-0.105449,0.018155
0.316589,0.00493396
0.592407,0.013403
0.401983,0.0238172
-0.24108,0.0245214
-0.632354,0.0121696
-0.448545,0.0111015
-0.28045,0.0264648
-0.119396,0.0167535
0.0653753,-0.000769191
0.217359,-0.00126263
0.323803,-0.00908524
0.40353,-0.0114167
0.436301,0.00409511
0.266308,0.0189539
-0.000266763,0.0193082
-0.082465,0.00261457
0.161391,-0.0124093
0.261258,-0.006035
-0.110332,0.0108842
-0.5385,0.0120782
-0.446841,-0.00681349
-0.311899,-0.00568052
-0.13529,-0.0103511
0.15344,-0.0222545
0.501366,-0.0511179
0.630211,-0.0584162
0.507317,-0.0308926
-0.102991,-0.0165787
-0.514024,-0.0122621
-0.542464,0.00908294
-0.468631,0.0496549
-0.340112,0.0365301
-0.163445,0.0206539
-0.0382543,0.0163525
0.0381804,0.0191124
0.100015,0.0169086
0.161902,-0.00835534
0.14002,-0.0225428
0.101657,-0.0141357
0.0993182,-0.0023167
0.164686,0.000918782
0.372125,-0.00311881
0.40793,0.000105532
0.148297,0.00432673
-0.137406,-0.00312412
-0.324563,-0.0135658
-0.364469,-0.000877295
-0.195873,-0.00614658
0.0121036,-0.0310421
0.116298,0.00720747
0.152301,0.0348576
0.160577,0.0179881
0.131292,-0.00733088
0.108915,0.00294526
0.0329042,0.0130904
0.0195442,-0.00799658
0.0608743,-0.0260534
-0.082002,-0.010843
-0.209609,-0.0138148
-0.277961,-0.0194316
-0.261307,-0.00858075
-0.151563,-0.000967898
-0.0196165,-0.00809295
0.125709,0.00678878
0.198433,0.00192467
0.210248,0.00292294
0.0230091,0.0238035
-0.129383,0.0199117
-0.0234851,0.0230069
0.205196,0.0235525
0.28944,0.00354497
0.0891293,-0.0195754
-0.165261,-0.0124695
-0.364726,0.0213239
-0.263962,0.0250877
0.179964,-0.0143199
0.451825,-0.0384744
0.668378,-0.024849
0.64276,-0.016321
0.140962,-0.0183633
-0.304297,-0.01156
-0.877805,0.00971609
-0.73459,0.0118949
-0.471211,-0.00283558
-0.358983,-0.00554743
-0.167145,0.00516297
0.143704,0.00209197
0.421656,0.00779483
0.504058,-0.00564911
0.320461,-0.00707623
-0.0243341,0.0082286
-0.456369,0.0127726
-0.474471,0.000381111
-0.113746,-0.0104469
0.438238,-0.00714765
0.585644,-0.00245944
0.258833,0.00118663
-0.209842,0.00458953
-0.411864,0.00986643
-0.291711,0.0234833
-0.0461731,0.0188674
0.139393,0.00147385
0.27648,0.00730202
0.171567,0.026562
-0.0694815,0.00658549
-0.206567,-0.057619
-0.160976,-0.0246363
-0.00999349,0.0151513
0.0992601,0.0308222
0.0798582,0.0131012
-0.0874868,-0.000747767
-0.184902,-0.000420149
-0.11786,0.00663267
0.0527971,0.0177202
0.255943,0.0243077
0.299842,0.0151057
0.112472,0.00352587
0.0445101,-0.00736067
0.237443,-0.0137461
0.367298,-0.00517869
0.284552,0.00844282
0.00404363,0.00515206
-0.377189,-0.00725054
-0.416472,-0.00480779
-0.30265,0.0138293
-0.167625,-0.00630177
-0.0915038,-0.0249663
-0.0379352,-0.025449
0.000909585,-0.0230877
0.0151321,-0.0131657
0.0553294,-0.0133514
0.0876945,-0.0135795
-0.000363897,0.00193673
-0.102105,0.00970265
0.0411105,0.0102384
0.144179,0.00250027
0.120177,-0.00307074
0.170259,0.00234862
0.0850871,-0.00768724
0.0259959,0.0019857
0.0376992,0.0182702
0.164371,0.0157343
0.00165874,0.000618158
-0.0493841,-0.0192567
-0.150321,-0.0376264
-0.333471,-0.0301277
-0.277437,-0.00677995
-0.248992,-0.00194265
-0.1211,1.22e-05
-0.0900441,0.00772861
-0.0170987,-0.00577433
0.190938,-0.016739
0.501115,-0.0117528
0.623414,0.0109267
0.413812,0.0264534
-0.172974,0.0126539
-0.624563,0.00892953
-0.449798,0.0206711
-0.231282,0.0224263
-0.0817906,0.00661057
0.0389681,-0.0121154
0.0448106,-0.026125
0.0186641,-0.0207598
0.013965,-0.00271621
0.0391496,0.0176409
0.0881018,0.0210897
0.0463038,0.0117279
0.0149694,0.000382711
0.133502,-0.00272251
0.296189,0.0040607
0.229078,0.010311
-0.041424,0.0311658
-0.109263,0.0306793
-0.0303301,0.0188948
0.0302806,0.0169147
0.0165826,-0.0295699
-0.0671231,-0.0614261
0.0278927,-0.0398242
0.245333,-0.0276491
0.284241,-0.0159362
0.140399,0.0058045
-0.171717,0.0229118
-0.370945,0.0635419
-0.346887,0.0491122
-0.362089,0.00359891
-0.278761,0.00526173
-0.0809356,0.0251424
0.0704083,0.0137652
0.114883,0.00279077
0.0661901,-0.00244337
-0.0815971,-0.00623743
0.0714656,-0.00526615
0.316454,-0.0228621
0.53868,-0.0243951
0.502216,-0.0156759
0.0901638,-0.0130652
-0.216976,-0.0268022
-0.324883,-0.0221269
-0.262453,0.013233
-0.246066,0.0222551
-0.128431,-0.00104878
0.0387174,-0.0163677
0.0379838,-0.0157178
-0.120359,-0.0163376
-0.137513,-0.0413755
0.108538,-0.0393931
0.272159,0.00737917
0.227775,0.0274793
0.016022,0.0199294
-0.270699,-0.00185868
-0.294484,-0.0132218
0.0527131,-0.0143185
0.277132,-0.015864
0.249706,-0.00377
0.0764041,0.0147323
-0.176581,0.0299906
-0.254393,0.0325467
-0.141548,0.000819195
-0.072803,-0.0334938
-0.0227157,-0.0215743
-0.0303529,-0.00638754
0.0188642,0.0301986
0.0653659,0.035262
0.0725776,0.00854914
0.0705771,0.0162775
0.109117,0.018492
0.193414,-0.000319237
0.20008,-0.00292939
0.0551073,0.0079809
-0.14776,0.00542306
-0.221373,-0.000309822
-0.139286,-0.000162161
0.0439026,-0.00555595
0.0772043,-0.00108419
0.00365721,-0.00516915
-0.0556436,-0.00689389
-0.0710263,0.00449432
-0.0564941,0.0160588
-0.0318739,0.0128349
-0.0410771,0.00204567
-0.0710751,-0.00598856
-0.0306102,-0.0135993
0.0108115,-0.0245976
0.0384137,-0.0202935
0.244428,-0.007946
0.433686,-0.00350256
0.368932,0.00658801
-0.000117961,0.0167443
-0.412096,0.0191115
-0.322546,0.0122314
0.0197063,-0.000246791
0.138035,-0.00218434
0.276768,0.012953
0.268294,-0.00184998
0.12061,-0.00916604
0.0898966,-0.0146048
-0.214449,-0.0168913
-0.439083,-0.00106414
-0.457155,-0.00369237
-0.367647,-0.0147254
-0.177687,-0.00788948
-0.0251084,-0.00325884
0.0665138,0.00396344
0.111212,0.0181306
0.138416,0.0116918
0.31288,-0.00140998
0.283686,0.0133763
0.0497007,0.0157946
-0.301476,0.00218104
-0.343461,-0.00585121
-0.0667706,0.00486782
0.0501418,-0.00414504
0.0355954,-0.014076
-0.0482795,0.00742416
-0.0544196,0.0194588
0.191811,0.0158352
0.353849,0.00177704
0.349432,-0.0180995
0.280005,-0.0260223
0.0934473,-0.0169546
-0.128614,0.00455137
-0.303756,0.0187888
-0.285238,0.0241799
-0.140657,0.0183246
-0.0623828,0.0103861
0.0108416,0.00496502
0.163028,-0.00059559
0.249269,-0.00913879
0.103716,-0.00516538
-0.16169,-0.00369432
-0.267329,-0.00100256
-0.159446,-0.00669822
-0.0698332,-0.031931
-0.0333217,-0.0465621
-0.018584,-0.0425702
-0.0868901,-0.0612408
-0.0437007,-0.0649911
0.135443,-0.0247592
0.332708,0.0247566
0.269834,0.0271307
0.0305256,0.0125786
-0.132825,0.00425414
-0.134837,0.00962509
-0.0691409,0.0143437
-0.0307691,0.020106
-0.0592064,0.0237685
-0.0578284,0.0151506
-0.0224498,0.0437557
0.0213232,0.0439871
0.00114775,0.0373538
0.00409276,0.0314308
0.0302121,0.0168085
-0.0132071,0.00415083
-0.0170427,0.00452859
0.0151827,0.0141366
0.0744875,0.0103196
0.1538,-0.00311297
0.169361,-0.0187445
0.129768,-0.0306305
0.056447,-0.00053271
0.0734798,0.00610455
0.190063,-0.022255
0.117742,-0.0181889
-0.094111,0.0109969
-0.252993,0.00925306
-0.252072,-0.0267013
-0.119256,-0.0384883
-0.0573631,-0.0123963
-0.18082,0.0124493
-0.138188,0.0201406
-0.00783453,0.0101945
0.0254081,-0.000620902
0.0489279,0.00621337
0.0653153,-0.000180412
0.0496639,-0.018407
0.0670989,-0.0268022
0.0164235,-0.0142373
-0.107891,-0.0036666
-0.201956,-0.00539293
-0.111172,-0.0033109
0.0293267,0.0134144
0.0892105,0.0252689
0.105098,0.0163003
0.0897714,0.00505736
0.128827,0.0114466
0.0719015,-0.00501231
-0.064408,-0.0140481
-0.10378,0.00904674
0.0405402,-0.000951073
0.301536,-0.0354751
0.513078,-0.054469
0.471573,-0.0486917
0.0652457,-0.00752891
-0.507193,0.0257678
-0.704806,0.0342757
-0.439425,0.00554723
-0.0985705,0.00305864
0.142682,0.0116506
0.176323,0.015347
-0.0299953,0.00156408
-0.104414,-0.0393313
0.0936237,-0.0111096
0.190829,0.0283819
0.0584964,0.0514138
-0.200949,0.0467875
-0.169117,0.0311522
0.0563539,-0.00372305
0.0384787,-0.0416326
-0.141932,-0.035856
-0.117985,-0.0142624
0.0261199,-0.000172368
0.063752,0.000431221
0.00745503,0.00395048
-0.0180029,0.0231729
0.170616,0.0341459
0.487083,0.0307794
0.46046,-0.00117037
0.0227105,-0.0198823
-0.430751,0.000628443
-0.32051,-0.00560716
0.0398245,-0.0209504
0.164456,-0.0317445
0.07312,0.0115087
-0.101379,0.0509319
-0.233384,0.0154809
-0.162326,-0.0396889
-0.00426514,-0.0389304
0.13031,-0.000872485
0.222422,0.00671676
0.165154,-0.0144931
-0.0166552,-0.0160832
-0.183369,-0.00215083
-0.157983,0.00380721
-0.0231585,0.00354534
0.0446291,0.00416181
0.0936722,0.0117472
0.0195989,0.0180546
-0.0382114,0.00766223
-0.0397055,-0.0179157
-0.0358387,-0.0114826
-0.0395244,0.00483404
-0.065287,0.00286037
-0.0934966,0.000952354
-0.0329261,-0.012455
-0.00447056,-0.0340102
-0.0125913,-0.0286837
-0.0127317,-0.0188649
0.0401052,-0.0101389
0.0950404,0.0180625
0.0567222,0.0239171
-0.00841088,0.0119503
0.0368941,0.00260933
0.0588488,-0.0291114
0.0530771,-0.0105635
0.0531017,0.0377092
-0.00571209,0.0343279
-0.0273965,0.0343092
-0.0193543,0.0418802
-0.0104066,0.0135952
0.109556,-0.0152373
0.131084,-0.0215613
0.0503896,-0.00744806
0.0167059,0.00883498
0.398031,0.0139297
0.634397,-0.0249018
0.241285,-0.047606
-0.521458,0.00328985
-0.868369,0.0310942
-0.448997,0.0104619
-0.115692,-0.00683566
-0.0480501,0.00148497
0.0287456,0.00239268
0.0484136,-0.0696201
-0.0524551,-0.0636669
-0.0772481,0.0059519
0.0024266,0.0192809
0.0661066,0.029135
0.121943,0.0450279
0.256596,0.0522692
0.154706,0.0439878
-0.196638,0.00942703
-0.259135,-0.0271478
-0.148947,-0.0350698
-0.0109631,-0.0149023
0.042474,0.00832211
0.00732801,0.0204426
0.0229441,0.0164806
0.0520252,0.0129452
0.0298556,-0.020441
0.0584097,-0.0665596
0.161368,-0.0260979
0.126694,0.0157224
0.0252382,-0.000215559
0.00950829,0.00690105
0.101521,-1.78e-05
0.0474056,-0.0185793
-0.0417309,-0.00570338
-0.16312,0.000151025
-0.22806,0.0069468
-0.0477416,0.00618029
0.203464,0.00952823
0.28561,0.013748
0.268326,0.00644956
0.194801,-0.00783661
0.218959,-0.00581913
0.254501,0.00806271
0.212375,0.0227281
-0.0985131,0.0208251
-0.543734,-0.00167533
-0.690601,-0.00125229
-0.465339,0.00930442
-0.112976,-0.0214951
0.0519024,-0.0315466
0.0222875,-0.011463
-0.176117,0.0177416
-0.157905,0.00467333
-0.0258514,-0.0418824
-0.0103144,-0.0222576
0.0121065,0.0278218
0.126642,0.00199556
0.223018,-0.0334545
0.177805,0.0256902
-0.0236241,0.0492199
-0.117261,0.0341919
0.0357816,0.0184461
0.178951,0.00109735
0.233914,0.00125439
0.285301,-0.0438975
0.321364,-0.0701715
0.309468,0.00925361
0.162679,0.0447766
-0.177302,0.0575997
-0.395347,-0.0402895
-0.253949,-0.10327
-0.214269,-0.00035209
-0.178437,0.0545318
0.0770149,0.0350343
0.151738,-0.0233129
0.0650394,-0.0572504
-0.0197282,0.0179925
-0.00350032,0.0659652
0.244643,0.0268115
0.337848,-0.0290124
0.021364,-0.0215287
-0.394729,0.0104353
-0.547325,0.00720755
-0.381851,-0.0155612
-0.169503,-0.0061829
-0.00963917,-0.00688047
-0.00189458,-0.0184369
-0.0252612,-0.00647414
0.0748647,-0.0274198
0.238902,-0.010259
0.366358,0.0125855
0.169377,0.0564279
-0.155924,0.0474445
-0.233131,0.0364259
-0.163433,0.0346671
0.107626,0.0198425
0.604418,0.00218333
0.790545,-0.0152727
0.497417,-0.00660069
-0.118904,-0.0233442
-0.25545,-0.136362
0.0036459,-0.0855951
-0.140053,0.0443749
-0.635993,0.0691615
-0.656115,0.0736118
-0.294773,0.0523877
-0.13522,0.0244579
-0.0856524,0.00622406
-0.0938674,0.0162255
-0.0456049,-0.0236501
-0.0106418,-0.0382662
-0.00692027,-0.0473793
0.0170582,-0.00855323
0.106136,0.041636
0.228427,0.00765374
0.307274,-0.0949187
0.253222,-0.140009
0.150416,-0.00110203
0.15272,0.0628557
0.155762,0.0345864
0.149196,-0.000996242
0.123135,-0.0178819
0.291347,-0.0412674
0.317566,-0.0384065
-0.0704636,0.0419357
-0.55172,0.0967624
-0.692173,0.0611649
-0.348436,0.014273
0.0290167,-0.0162927
0.225287,-0.0418206
0.248261,-0.0208156
0.122552,0.00884625
-0.304811,0.0226937
-0.664024,0.0276047
-0.33285,0.0191123
0.345266,-0.0398228
0.783137,-0.0474246
0.761261,0.0124412
0.240531,0.0681285
-0.442819,0.00891191
-0.472445,-0.0678571
-0.208416,-0.019426
-0.0322051,0.0233724
0.00312912,-0.0328872
0.0335527,-0.080143
0.164533,-0.0377501
0.273042,0.0120235
0.0806581,0.0333353
-0.163809,0.0603447
-0.238298,0.0568556
-0.336658,0.0423492
-0.367167,0.0368596
-0.140244,-0.0358405
0.118657,-0.0651822
0.232785,0.00903331
0.219375,0.0529305
0.158353,0.0760836
-0.202342,0.0349383
-0.312176,-0.0311674
0.0318161,-0.0386523
0.155789,0.00595512
0.0518649,-0.0469545
-0.107143,-0.120918
-0.158373,-0.0712458
-0.0644087,-0.0251011
-0.0118153,-0.000211711
-0.000100315,0.0494737
0.0650387,0.107625
0.219517,0.103902
0.404637,0.0243369
0.456542,-0.0847555
0.366938,-0.0828257
0.0882395,-0.0120452
-0.147145,0.0236938
0.115883,0.0315137
0.224134,-0.0220016
-0.177716,-0.0829146
-0.536884,-0.0513457
-0.204864,-0.036677
0.107424,-0.0126683
0.0422742,0.0475446
-0.121832,0.0627953
-0.120905,0.032416
-0.0442718,0.00314921
0.0147664,0.0261525
-0.17862,0.0765599
-0.240099,0.0763906
0.0315611,0.032916
0.0887435,0.0120752
0.0103712,-0.00557665
-0.0685072,-0.0465642
-0.282672,-0.00598781
-0.234333,0.047302
-0.0492878,0.0490184
0.15696,0.00221439
0.469188,-0.023956
0.541319,-0.0687266
0.239435,-0.107944
-0.332082,-0.0541668
-0.655066,0.0359795
-0.322308,0.0126374
-0.11651,-0.0477503
-0.0446988,-0.0550692
0.0146296,-0.0139828
0.0110874,0.0817799
0.310539,0.154689
0.685159,0.125007
0.888173,0.00360819
0.892276,-0.0394959
0.7105,-0.0621433
0.454432,-0.063351
-0.220519,-0.0172965
-0.92,0.0308125
-1.19623,-0.0197165
-1.07096,-0.103466
-0.474312,-0.0741997
-0.0571122,-0.0110342
-0.1269,0.0161069
-0.208966,0.012024
0.0842996,-0.0236267
0.359426,0.0144698
0.581767,0.0561262
0.339452,0.0284114
-0.27088,-0.0108935
-0.617368,-0.0541818
-0.436136,-0.0913231
-0.152878,-0.0738404
0.245581,0.0372508
0.728061,0.0633748
0.792239,0.0646164
0.558383,0.125059
-0.161623,0.133096
-0.41386,0.0245963
-0.458038,-0.0713273
-0.450498,-0.0736889
-0.0874861,-0.0669289
0.158927,-0.0780573
0.115002,-0.035096
0.0135375,0.0246566
-0.119161,0.0359686
-0.0804082,0.0279578
0.107863,0.0217066
0.0510431,0.0539531
-0.138321,0.0990951
-0.149042,0.148493
0.100384,0.129333
0.279791,0.0424975
0.28259,-0.0553176
0.16789,-0.0875749
0.0393311,-0.222195
-0.0492737,-0.2873
-0.445738,-0.182306
-0.458796,0.0153239
0.012242,0.2462
0.426443,0.298785
1.08346,0.17471
1.49055,0.053338
1.18744,-0.0836762
0.45154,-0.145227
-0.814347,-0.164236
-1.76354,-0.182244
-1.68546,-0.173485
-0.784527,-0.18988
-0.348057,-0.023335
-0.4528,0.215005
-0.319015,0.261835
0.237126,0.210492
0.490717,0.129205
0.502418,0.0650187
0.796847,-0.07257
1.15836,-0.196449
0.847383,-0.186869
-0.0633451,-0.0863404
-1.08313,0.0165596
-1.13558,0.0662894
-0.236148,-0.0226439
0.350529,-0.140939
0.0778552,-0.014272
-0.567672,0.158683
-0.357119,0.105285
0.0310813,-0.0614268
-0.0586928,-0.109354
-0.197491,-0.0765117
0.386471,0.000461968
1.18929,0.0304452
1.37946,0.0617158
1.39578,0.252222
0.652823,0.503762
-0.313918,0.385902
-1.16378,0.162256
-1.78976,-0.0197343
-1.32155,-0.225443
-0.88916,-0.314259
-0.417854,-0.352659
0.122564,-0.311362
0.431765,-0.102801
0.22712,-0.0192503
0.0172672,-0.0886626
0.107849,-0.158139
0.0446769,-0.0965111
0.222326,-0.00640615
0.566125,0.00913292
0.683049,0.0162011
0.618029,0.0776869
0.44455,0.0905343
0.311469,0.0582349
0.277197,0.0603644
-0.23115,0.0915373
-0.765103,0.106903
-1.06075,0.105803
-0.625708,0.0885752
0.0236779,0.0827449
0.440738,0.0686269
0.690748,0.0591444
0.397598,0.0720822
0.00355444,0.0362745
-0.277952,-0.0420689
-0.303682,-0.0521798
0.742935,-0.0449938
1.15029,-0.132583
0.382689,-0.178029
-1.30816,-0.0926682
-1.79563,-0.0145642
-0.508213,-0.053314
0.274465,-0.103597
0.975909,0.0394273
0.768923,0.145915
-0.0212974,0.0995069
-0.652393,0.0917465
-0.652458,0.0575022
-0.235126,-0.00744416
-0.0573494,-0.0466017
-0.0907694,-0.0142357
-0.229047,0.0365525
-0.28314,0.0559231
-0.311014,0.0100017
-0.171991,-0.0772919
0.551802,-0.133172
1.30522,-0.163622
1.20947,-0.185482
-0.0135282,-0.0810488
-1.33989,0.00892792
-0.937919,0.141309
-0.11228,0.326904
0.367306,0.352512
0.57589,0.272246
1.28106,0.124893
1.90464,-0.0316573
1.54742,-0.162592
0.0858386,-0.240055
-1.64489,-0.219367
-1.86644,-0.149169
-1.23751,-0.141609
-0.686091,-0.0831542
-0.520494,-0.021972
-0.366853,-0.0406888
0.150509,-0.1237
0.43608,-0.0758365
0.407022,0.0566882
0.364345,0.106668
0.178543,0.0953578
0.0778049,0.0611024
-0.000378645,0.037349
-0.0649367,0.0391312
0.0612354,0.0365444
0.290858,0.0177273
0.194018,-0.00122464
-0.0543055,0.0545481
-0.476427,0.106717
-0.926504,0.0327097
-0.728283,-0.0719495
-0.145675,-0.0366488
0.845143,0.0287943
1.52677,0.0887691
1.55067,0.124559
0.755126,0.0742364
-0.105101,-0.0996069
-0.436961,-0.252784
-0.78768,-0.317324
-0.862297,-0.269179
-0.171399,-0.128589
0.46326,0.250213
0.212394,0.515005
-0.396363,0.388377
-0.485301,0.178804
-0.75917,0.0929482
-0.693595,0.212703
0.186292,0.138841
0.65737,-0.109877
0.16439,-0.19485
0.148521,-0.220194
1.66626,-0.291684
2.49523,-0.354258
1.65167,-0.381983
-1.46191,-0.271068
-3.32382,-0.07124
-2.02827,0.0413498
-0.820381,0.044353
-0.230288,0.046157
0.257453,0.0730339
0.504764,0.15793
0.251598,0.20238
-0.20272,0.169521
-0.563729,0.100393
-0.324775,0.0534873
0.0624204,0.0745996
0.114261,0.0950624
-0.019643,0.114622
-0.168674,0.101797
-0.0190838,0.0552983
0.600748,-0.0129658
1.85383,-0.0920921
2.22802,-0.156337
1.05734,-0.18687
-0.708189,-0.0943853
-1.50628,0.000460729
-0.463833,-0.0158643
0.431586,-0.0532937
0.420949,-0.0684781
-0.052568,-0.0498869
-0.546609,-0.0281689
-0.19846,0.0202311
0.294789,0.00923902
-0.0996869,0.0137578
-1.01495,0.0537332
-1.15127,0.067107
-0.288867,0.0851938
0.39197,0.132807
0.655508,0.118809
0.527258,0.0467349
0.378564,-0.0240813
-0.0602031,-0.0675825
-0.46322,-0.0192061
-0.314878,0.0139116
-0.00903793,-0.0169714
0.142204,-0.0307115
0.203715,-0.047829
0.350224,-0.110347
0.352469,-0.132457
-0.217383,-0.0648109
-0.592735,0.0135398
0.0711268,0.0454973
0.587819,0.0510758
0.521782,0.0140548
-0.334685,-0.0133907
-0.914306,0.00445868
-0.489729,0.0895335
-0.130826,0.134334
0.528085,0.0804598
1.07959,0.00369522
0.942655,-0.0189507
0.140652,-0.0212965
-0.651151,-0.0311539
-0.911513,-0.0097307
-0.689799,0.0650469
-0.312996,0.0697277
0.209363,-0.000190801
0.452318,-0.056082
0.349395,-0.0278353
0.1371,0.0552523
-0.159739,-0.0896404
-0.166192,-0.190519
-0.134938,-0.105328
-0.288428,0.0322883
-0.215486,0.0849713
0.0514113,0.0938428
0.222383,0.0359342
0.195859,-0.0146963
-0.102622,-0.0328542
-0.28428,-0.0497926
-0.265453,-0.04887
-0.0976419,-0.0194955
0.325572,0.00286153
0.809984,0.0216228
0.648829,0.0121645
0.0451017,-0.0266457
-0.678803,-0.0300851
-0.756043,-0.0178212
-0.189547,0.0315627
0.0990106,0.0852407
0.187422,0.0556376
0.491701,0.0335617
0.809399,0.0203189
0.648184,-0.00291916
-0.218704,-0.047752
-0.709894,-0.160008
-0.527725,-0.147612
-0.119568,-0.0277244
0.284179,0.048318
0.470606,0.0888369
0.191741,0.0517471
-0.299171,0.0654538
-1.01281,0.0599826
-1.11897,0.0553775
-0.189395,0.0208238
0.533616,-0.0166766
0.694732,-0.0116212
0.384794,0.0556577
-0.0502782,0.0338536
-0.311971,-0.0324009
-0.111696,-0.011238
0.00672949,0.0602544
0.204563,-0.0180247
0.86736,-0.166528
1.04291,-0.209512
0.54127,-0.0905854
-0.696205,0.0327704
-1.4757,0.0714305
-0.909473,0.0282877
-0.242909,0.0199208
0.218156,0.0212399
0.458051,0.00719707
0.596914,0.010041
0.411548,0.0528198
0.217831,0.0813916
-0.0170173,0.0608825
-0.421488,0.0368755
-0.323399,0.0648316
0.0953003,0.045847
0.0988057,-0.030526
-0.130934,-0.0841634
-0.531174,-0.104499
-0.451847,-0.0915146
-0.0834103,-0.0512244
0.0574543,0.00802543
0.0860702,0.0282088
0.045821,0.00685471
0.262704,-0.0381824
0.640124,-0.00192286
0.637839,0.0527209
0.137391,0.04815
-0.292718,0.0360965
-0.094504,0.0406288
0.0772584,0.0433719
0.094613,0.0142655
-0.0292526,-0.0377451
-0.21315,-0.0637063
-0.000897219,-0.00896957
0.417463,-0.00992757
0.439727,-0.00673996
-0.0206028,0.0351093
-0.774226,0.0542773
-0.870713,0.0528474
-0.409772,0.0188156
0.0545796,-0.0338487
0.257046,-0.0075848
0.2185,0.0336644
0.154605,-0.0108371
0.456595,-0.0603733
0.747285,-0.0650208
0.761589,-0.0928353
0.146738,-0.0509082
-0.380392,0.0127048
-0.799634,0.00839481
-1.15211,-0.0530249
-0.614653,-0.00869334
-0.215382,0.0709977
-0.0942849,0.0948194
0.0769462,0.120542
0.309067,0.0867281
0.297679,-0.0230273
0.172578,-0.0719512
0.056182,-0.047346
-0.106192,-0.0168209
-0.165693,0.0116463
-0.0976136,0.0153933
-0.02389,0.0178843
0.0598478,0.0113574
0.285686,-0.017042
0.812926,-0.020659
1.11505,-0.03664
0.53945,-0.0872876
-0.424216,-0.0682826
-0.917195,0.0243039
-0.775479,0.0287717
-0.315408,0.000943184
-0.0426609,0.0221099
0.102446,0.0892546
0.232918,0.0806778
0.164037,-0.0226424
-0.0182036,-0.0851565
-0.106879,-0.046739
-0.0622368,0.0174417
-0.0820312,0.031539
-0.0738291,0.0111254
-0.0480094,0.0081025
-0.111998,-0.00678218
0.128179,-0.0126192
0.565462,-0.0228691
0.83572,-0.0266766
0.562978,-0.0075205
-0.177151,0.0222493
-0.417353,0.0526109
-0.407486,0.0554504
-0.27197,-0.00721947
-0.139501,-0.0787154
0.0530547,-0.0298713
0.101887,0.0354381
-0.0807853,0.0296755
-0.282885,0.0147686
-0.247703,-0.00320372
-0.116681,-0.0335634
-0.0849553,-0.0376608
-0.160139,0.0467302
-0.239657,0.0821119
-0.120056,0.0584476
0.0445466,0.0365182
0.0856089,0.00814725
0.123578,-0.0709684
0.244979,-0.107954
0.363576,-0.0713819
0.393958,-0.0445056
0.373897,-0.0258389
0.175747,0.00918577
0.0214258,0.0476474
-0.0740666,0.0272399
-0.290084,0.0123647
-0.409151,0.0183286
-0.224209,-0.00971485
-0.0683488,-0.025421
-0.100654,0.0334341
-0.142577,0.0595009
-0.0293218,0.0120641
-0.00400687,0.00617315
-0.0747275,-0.0123952
0.0200575,-0.00872373
0.269897,0.0392314
0.264777,0.00508318
0.160337,-0.0193334
0.061767,-0.0243527
-0.0759647,-0.0134902
0.0106374,-0.0325407
0.00280609,-0.0619757
-0.042873,-0.0962978
-0.0411652,-0.0825261
0.0944238,0.0230792
0.446787,0.0395109
0.690229,0.017677
0.360211,0.0322716
-0.231121,0.0503362
-0.910864,0.0575599
-0.911017,0.0521351
-0.225339,0.0370269
0.820864,0.0362962
1.09155,0.0531614
0.192916,0.0623879
-0.898674,0.0495538
-0.926423,-0.0384929
-0.396594,-0.162159
-0.18796,-0.180518
-0.097988,-0.020143
0.0226975,0.0934371
0.187551,0.0423652
0.259409,-0.0267275
0.101501,-0.0429392
-0.206862,-0.0110872
-0.257621,0.039578
0.0900693,0.0316705
0.361461,0.000848736
0.395916,-0.015483
0.262568,-0.0357091
0.237528,-0.0258454
0.367388,-0.0322327
0.210896,-0.00190346
-0.215611,0.0444792
-0.54324,0.0575743
-0.48878,0.0418562
-0.184585,0.0179771
-0.029568,-0.00354502
-0.0013574,-0.00758117
0.0476807,0.0146918
0.0278068,0.052513
-0.0244048,0.0435627
0.204702,-0.0164219
0.44105,-0.0515523
0.554851,-0.0432473
0.261882,-0.00338488
-0.244191,0.0276744
-0.264109,0.0169768
-0.270428,0.0590425
-0.26191,0.0615305
-0.0878277,-0.00323651
0.0310332,0.0309003
0.0348905,0.0362634
-0.14415,-0.02189
-0.254825,-0.0926158
-0.205356,-0.0887389
-0.217579,-0.0535519
-0.215061,-0.0527824
-0.0646935,-0.100248
0.172467,-0.176135
0.448745,-0.166615
0.460623,0.0194978
0.385004,0.113995
0.535221,0.0934555
1.06831,0.0884492
1.19164,0.0898419
0.22879,0.0772581
-0.810118,0.0498718
-1.31468,0.0297385
-1.15099,0.043907
-0.511381,0.0257081
-0.0620935,-0.00759885
0.02525,-0.0234981
-0.145004,-0.0208243
-0.275495,0.00438098
-0.107708,0.0116322
-0.0547312,0.0181625
-0.196292,0.0293546
-0.242177,0.00551222
-0.0785853,-0.0522156
0.0508382,-0.0341331
0.132829,0.000317514
0.228533,0.0236554
0.325324,0.00849827
0.473264,-0.0694082
0.610213,-0.0938303
0.512012,-0.0588348
0.368493,-0.0137692
0.271108,0.0211801
0.214004,0.0309318
-0.165263,0.0384173
-0.528431,0.0536965
-0.532994,0.0431874
-0.464535,-0.0189339
-0.268321,-0.0674144
-0.0956695,-0.036198
-0.0404953,-0.0343457
-0.0525351,-0.0104772
-0.0470171,0.0376613
0.0178371,0.0377078
0.0569542,0.0210779
0.0599306,0.00881852
0.185873,0.00379551
0.355788,-0.0184349
0.379558,0.0133798
0.21975,0.0420238
-0.0748506,0.0227951
-0.269896,0.0055919
-0.377221,-0.00472412
-0.290173,-0.00577625
-0.14049,-0.0191264
-0.0606511,-0.0205931
-0.00974321,0.019845
-0.00238945,0.0391473
0.0201221,0.0276994
0.0315986,-0.00491088
0.0218803,-0.0400097
0.290458,-0.0473453
0.588797,0.00627138
0.628917,0.0467994
0.444173,0.016728
-0.112161,-0.0422961
-0.158489,-0.0516285
-0.0671629,-0.0341809
-0.146131,-0.0253142
0.114976,0.00117519
0.190127,0.0199653
-0.221198,0.0198712
-0.724789,0.0251438
-0.88287,0.0283121
-0.578987,0.0238864
-0.260647,0.0227543
-0.074777,0.0211268
0.0897154,-0.0366661
0.323175,-0.0821023
0.348323,-0.0829115
0.143966,0.00622444
-0.194196,0.0674984
-0.220192,0.0592742
0.182339,0.0535698
0.405622,0.00846392
0.324966,-0.0385813
0.316215,-0.0324589
0.3861,-0.0126118
0.17869,-0.00925592
-0.193714,-0.00262038
-0.528927,0.0182169
-0.491886,0.00153406
-0.190372,-0.0602345
0.0157207,-0.0240132
0.100651,0.0311929
0.10292,0.0333629
0.191978,0.0168197
0.122153,0.00753672
-0.0442018,0.0152431
-0.113727,0.0151963
-0.073336,0.0358695
0.0589577,0.0169568
0.283151,-0.00176732
0.315466,-0.00606427
0.284631,-0.0245459
0.281471,-0.0599418
0.0339374,-0.00857095
-0.313849,0.0340996
-0.512677,0.0138892
-0.316356,-0.0100459
-0.155641,0.0313716
-0.12664,0.0475461
-0.113484,0.0366706
0.0592609,-0.00833558
0.148585,-0.056928
0.125881,-0.063886
0.0281721,-0.0656806
-0.0862331,-0.0520334
0.0146064,-0.0512589
0.22363,-0.0346202
0.273774,-0.00981356
0.132479,0.0228835
-0.146391,0.0521154
-0.18663,0.0479429
0.100928,0.0223443
0.155477,-0.000565266
0.0776394,0.00388163
-0.0450132,0.00755789
0.00343831,0.018591
-0.0311893,0.0402199
0.0795826,0.0600023
0.252609,0.0523039
-0.12189,0.0227267
-0.588399,-0.0409777
-0.381294,-0.0794865
0.0196219,-0.0390731
0.0361876,0.00966736
-0.0602243,0.0274241
0.0369362,0.00998983
0.00713002,0.0035408
-0.0565046,-0.0238377
0.0258056,-0.0591058
0.0803802,-0.00932424
0.104983,0.0663071
0.0555586,0.0715058
0.23181,0.0467456
0.247245,-0.0305908
-0.106368,-0.0608826
-0.250943,-0.0529753
-0.178673,-0.0315837
-0.121458,-0.000151374
-0.115584,0.0208235
0.0834441,0.00573303
0.318131,-0.000893438
0.288931,-0.0630128
-0.0501208,-0.0733755
-0.226425,0.00845497
-0.0644265,0.0621136
-0.0304476,0.071586
0.129817,0.0598983
0.371465,0.0178779
0.386689,-0.00101413
0.0550303,0.00967928
-0.381595,0.016831
-0.423912,0.0150231
-0.251939,0.0173856
-0.148659,0.00824407
-0.06951,0.0296153
0.0239304,0.0304013
-0.0524367,0.0023406
-0.0865625,-0.0255122
0.000329609,-0.0470341
0.087131,-0.0352048
0.0515547,-0.0599155
0.0117667,-0.0906313
0.118958,-0.0726797
0.346122,-0.020557
0.540138,0.0302153
0.602289,0.0561911
0.456492,0.0385172
0.380205,0.00175208
0.455327,-0.00576684
0.222143,-0.0126511
-0.351972,-0.0181071
-1.09087,-0.00450483
-1.00699,0.0101609
-0.639767,0.00570818
-0.457294,0.0254525
-0.159516,0.0421772
0.120609,0.0325196
0.0585069,0.000380308
-0.226675,-0.0177245
-0.226077,0.000621368
-0.0602776,0.00545537
0.0676493,-0.005232
0.120628,-0.00833085
0.108817,-0.0360536
0.0878981,-0.05954
0.121188,-0.0165623
0.247405,-0.00885138
0.243945,-0.0424466
0.198252,-0.01027
0.171586,0.0476297
0.10874,0.0562743
0.103277,0.0263891
0.0828357,0.00278879
0.075237,0.0189793
0.169212,0.0478963
0.188089,0.0266669
0.00167875,-0.0151779
-0.196308,-0.0166734
-0.250666,-0.00493455
-0.0630673,0.00185463
0.0125068,0.0170302
-0.157422,0.0275892
-0.462349,0.0146078
-0.277951,-0.0164031
0.119496,-0.0125737
0.487288,0.00508152
0.806048,-0.0264965
0.52307,-0.036013
-0.113824,0.0385014
-0.500152,0.045442
-0.371354,-0.0117207
-0.250028,-0.0405778
-0.210533,-0.0508238
-0.0243522,-0.0455092
0.254031,-0.0364326
0.267927,-0.0135172
0.0124397,-0.0111842
-0.307413,0.00786058
-0.23393,0.0825556
0.183279,0.0594601
0.253594,0.00927406
-0.220898,0.0137223
-0.569627,0.0126438
-0.413216,-0.0392262
-0.0997038,0.00283911
0.182029,0.041988
0.417781,0.0236042
0.618967,-0.0113641
0.650229,-0.0139735
0.469204,-0.0183096
-0.182317,-0.0408054
-0.582089,-0.0511087
-0.468262,-0.0316449
-0.255815,0.0403976
-0.212923,0.0477518
-0.133446,-0.054509
-0.0869058,-0.0514584
-0.00328422,0.0211744
0.0690792,0.0500649
0.0676828,0.0413053
0.0288861,0.00698767
0.0790857,-0.00544992
0.167673,-0.0154469
0.22951,-0.0286978
0.124991,0.00235055
-0.0722172,0.0182537
-0.126553,-0.000281619
-0.114004,-0.00856687
-0.0909654,0.000358761
0.00106435,0.00655217
0.0728828,-0.0105259
0.0610458,-0.0533883
0.0450104,-0.082695
0.00100595,0.0040635
0.106631,0.0495828
0.375163,0.0382786
0.552116,0.0420894
0.661832,0.0497012
0.364293,0.0410544
-0.197459,0.0174038
-0.619407,-0.00189948
-0.579862,-0.0150445
-0.452951,-0.0237939
-0.4766,0.00327684
-0.300815,0.0283524
-0.10423,0.0030278
0.118593,-0.0228398
0.331755,-0.0127811
0.354715,0.00500347
0.201277,0.0034343
0.07044,-0.0446843
0.0859633,-0.0497593
-0.0914922,0.0429353
-0.392705,0.0503588
-0.323384,0.0195402
-0.098128,-0.00572697
0.0531236,-0.0386432
0.157769,-0.0596375
0.0795909,-0.053429
-0.0815426,0.003031
-0.130718,0.0555185
-0.0246307,0.036319
0.0214102,-0.0472159
-0.0297738,-0.0654603
-0.00663343,0.0374422
0.1146,0.0458365
0.124765,-0.00259376
0.133894,0.0229828
0.115884,0.0502907
-0.0879755,0.000717166
-0.171923,-0.033899
-0.0571741,-0.021442
0.178276,-0.0114477
0.305693,-0.00558155
0.313966,-0.0165032
0.193863,-0.0330709
0.0819349,-0.0405159
0.0588338,-0.00489398
-0.209155,0.0206386
-0.389992,0.0277027
-0.225013,0.0323257
-4.27e-05,0.0130881
0.0675367,-0.0473159
-0.0201372,-0.0385077
-0.113791,0.00488307
-0.120729,0.0115856
-0.0721006,0.0166031
0.0208163,0.0332544
0.087949,0.0595704
0.0294961,0.0631195
-0.0749111,0.0230894
-0.145771,-0.0109926
-0.0128906,-0.0213136
0.279862,0.00324918
0.512473,0.0379578
0.4218,0.00414489
0.189615,-0.0683268
0.167491,-0.0644222
0.138203,-0.0283118
-0.0895096,0.00229135
-0.562093,0.0163711
-0.696402,-0.0266972
-0.401421,-0.0270735
-0.2186,0.00502978
-0.221337,0.0684275
-0.122134,0.0888381
0.0852185,0.0600797
0.120152,-0.0241521
-0.0405635,-0.106539
-0.139402,-0.0665192
-0.0859042,-0.0127181
0.0299507,-0.0241852
0.243513,-0.0273186
0.45272,0.0539982
0.655745,0.0715588
0.621489,0.0353199
0.288747,0.000362351
0.00318872,-0.0257485
-0.310884,-0.0116729
-0.0450859,-0.00883665
0.147016,-0.00860624
-0.217732,0.0177935
-0.339496,0.0365232
-0.122797,0.0280033
-0.0384318,0.0176959
0.0505543,-1.06e-05
-0.175932,-0.000158839
-0.410818,-0.0430236
-0.303962,-0.066572
-0.30048,-0.00307211
-0.252311,0.0127836
-0.0916209,-0.0104039
-0.00271238,-0.0247324
0.00999199,-0.000941872
0.0630645,0.0119961
0.1579,-0.00675772
0.123013,-0.0361966
0.167175,-0.0577625
0.335846,-0.0466821
0.399554,0.0172231
0.287093,0.0449859
0.174559,0.0144576
0.214886,0.000516157
0.328195,0.0206121
0.271785,0.0374074
-0.146106,0.0209599
-0.655072,0.0247495
-0.618546,0.0384002
-0.311877,0.0119577
-0.115031,-0.000475882
0.0161072,0.00424106
0.0606631,0.00478066
-0.0237321,0.00575474
-0.0160768,0.010327
0.00278047,0.0104802
0.0381853,0.00876595
0.0499769,0.0180605
0.0295409,0.0181591
-0.0100143,-0.00069067
-0.0560879,-0.0244934
-0.040745,-0.0429044
0.0332162,-0.0358124
0.165471,-0.061907
0.365936,-0.0654267
0.446852,0.0227306
0.383387,0.0549353
0.209493,0.0302976
0.0181784,-0.02741
-0.00168694,-0.0609561
-0.323191,-0.00745981
-0.739969,0.0353991
-0.494985,0.0356346
-0.166095,0.0243811
-0.0328836,0.0287961
0.00224989,0.0156607
0.0221089,0.00333935
0.116791,-0.00478921
0.394774,-0.0125327
0.550835,-0.0167442
0.2414,-0.00144227
-0.284824,0.0244805
-0.447345,0.0426334
-0.0746631,0.0541613
0.106631,-0.0224799
0.0957333,-0.0780295
0.273879,-0.0870135
0.199023,-0.0653
-0.190023,0.00571694
-0.305732,-0.0287915
-0.232323,-0.0412877
-0.19593,0.0054271
-0.134723,0.0282326
-0.0985171,0.0313571
-0.119883,0.0102485
-0.0149203,0.0129339
0.171303,0.0191619
0.201068,0.0247981
-0.0174831,0.0110664
-0.263409,0.00283895
-0.210874,0.00576667
-0.00969116,0.00221364
0.13013,-0.0290451
0.180658,0.00749258
0.151872,0.059228
0.0942901,0.0523352
0.0768668,0.00586043
0.114201,-0.0148525
0.148329,0.0177496
0.0987856,0.028152
0.0254348,-0.00423983
0.0814871,-0.0637136
0.146045,-0.0835286
0.227168,-0.0343342
0.292751,0.00158061
0.153428,0.00677212
-0.0810702,0.0140065
-0.413292,0.0314027
-0.570187,0.0511743
-0.207883,0.0546409
0.121485,0.0370733
0.166932,0.0180283
0.00364396,-0.0198357
-0.132022,-0.0437359
-0.20668,-0.0382137
-0.187393,-0.0125056
-0.155623,-0.00942518
-0.0579964,-0.0240429
0.104688,-0.0217883
0.130054,0.0104043
0.00945632,0.0157439
-0.189349,0.0151467
-0.12524,0.00659033
-0.0200723,-0.00844102
0.0832088,0.00697855
0.543461,0.0207284
0.902904,0.0151684
0.734586,0.00604704
0.0942839,-0.0322428
-0.701395,-0.0537539
-0.601935,-0.0133165
-0.225918,0.0391
-0.226661,0.0240192
-0.248128,-0.00557268
-0.17427,-0.00849532
-0.15522,0.00735725
-0.0688548,0.0125936
0.243264,-0.0313736
0.779745,-0.0494212
0.886295,-0.0321503
0.450752,-0.0201328
-0.460136,0.0059594
-1.29103,0.0370351
-0.755654,0.0307063
0.0359692,0.019473
0.262988,0.0537279
0.288007,0.0544207
0.154923,0.0122039
-0.0661135,-0.0251251
-0.221642,-0.0368472
-0.160376,-0.0478464
-0.0504053,-0.0249864
-0.0230996,0.0216857
0.00421349,0.00622118
-0.0525556,0.0225104
-0.106328,0.0401606
-0.0778841,0.0264965
0.0501652,-0.0112514
0.166883,-0.100655
0.185514,-0.14212
0.18684,-0.0468405
0.230345,0.063258
0.280427,0.0629955
0.345912,0.0335095
0.27894,0.0257793
0.12759,0.0301612
-0.183268,0.00903251
-0.347066,0.00476935
-0.204049,0.0146959
-0.0766538,0.0228413
-0.101314,0.0168731
-0.22167,0.00763327
-0.230098,-0.00830832
-0.0874648,-0.0346943
0.0685383,-0.0339897
0.253586,-0.0119395
0.384722,0.0136655
0.260186,0.0198919
0.0312083,0.000421295
-0.198246,-0.0420838
-0.0438606,-0.0510666
0.31407,-0.0205581
0.389657,0.0573984
0.208933,0.0782718
-0.369282,0.0183281
-0.688926,-0.015766
-0.263788,-0.0225018
0.193982,-0.0169211
0.314657,-0.00956287
0.109842,-0.0193111
-0.309104,0.000363918
-0.427824,0.0191651
-0.0846938,0.00865971
0.0863254,0.0023455
0.0718292,0.0223353
0.0414062,-0.0117253
0.148077,-0.0354795
0.27045,-0.0114791
0.206058,0.0123604
-0.0641873,-0.0175614
-0.496873,0.00345405
-0.49009,-0.00874096
-0.152723,-0.0517183
-0.0813106,-0.0139839
-0.118094,0.0518064
-0.0791897,0.0263716
0.0230077,-0.0165072
0.0863815,-0.00733219
0.065511,0.0100124
0.0321521,0.00718357
0.00785571,0.0153448
0.0730447,0.0237342
0.202296,0.0250381
0.339615,0.0208391
0.394391,0.00749383
0.282939,-0.0083033
0.109437,-0.0177901
-0.0492288,-0.00800308
0.0290854,0.00780275
0.161815,0.0218499
0.0420134,0.0169366
-0.177817,0.00367066
-0.383732,-0.00597092
-0.353372,0.00400981
-0.169944,0.0258118
-0.0439633,0.0309047
-0.00158007,0.029392
-0.051325,0.00103848
-0.0575895,-0.0479446
0.0450488,-0.0462182
0.0931585,-0.0310357
0.0303825,-0.0614385
0.0236679,-0.102267
0.148402,-0.111968
0.414199,-0.0330981
0.600739,0.071688
0.460935,0.0773408
0.0996561,0.0296153
-0.281261,-0.00274661
-0.424405,0.0301605
-0.159606,0.0185039
-0.137838,-0.0250393
-0.412036,-0.0131297
-0.511746,0.0198025
-0.367828,0.0193145
-0.073311,0.0193738
0.133325,0.0495994
0.202923,0.0238025
0.112404,-0.0123216
0.19102,-0.0223398
0.29971,-0.00575204
0.22448,0.029278
0.158026,0.00278816
-0.102107,0.0105621
-0.185514,0.0526788
-0.188339,0.0295118
-0.228197,-0.02536
-0.125655,-0.0785242
0.110152,-0.067078
0.164669,-0.0245401
-0.0107701,-0.00653774
-0.121782,0.000730239
-0.0421216,0.0196723
0.0991912,0.0342366
0.18327,0.0105238
0.0677348,-0.0238734
-0.147079,-0.0241466
-0.266816,0.0139847
-0.188439,0.0233513
-0.0733042,0.0222648
-0.079105,0.025399
-0.0375053,0.0211072
0.225327,0.00933271
0.594885,0.00479795
0.604252,0.0141943
0.200666,0.0319052
-0.284828,0.0265119
-0.355015,0.0132552
-0.145842,-0.0222059
-0.0306118,-0.0554086
-0.0861863,-0.0648779
-0.151233,-0.0347963
-0.144954,-0.0113597
-0.0998591,0.00254504
0.00931109,0.00864615
0.153711,0.00370932
0.199825,0.00658863
0.126507,0.0113609
-0.029808,0.00767884
-0.0654007,0.00469261
-0.0642347,-0.0451081
-0.0264345,-0.0204284
0.242081,0.00959755
0.418648,0.000127101
0.438362,-0.00891924
0.227207,0.00912187
-0.147841,0.0343841
-0.216082,0.0107461
-0.18378,-0.00188471
-0.369671,0.039807
-0.463336,0.0273226
-0.281137,-0.00342893
-0.0962945,-0.0112787
-0.111358,-0.00698435
-0.206815,-0.0125968
-0.135359,-0.0571606
0.0199961,-0.0680882
0.0750116,-0.0350134
0.125937,0.0259933
0.0937313,0.0415829
0.0620953,0.0215255
0.320064,0.0177577
0.572992,-0.0179307
0.595783,-0.0317901
0.197275,0.028229
-0.150593,0.00980427
-0.286929,0.00089959
-0.37743,0.0262832
0.0272135,-0.02475
0.251241,-0.0369864
0.08725,-0.000502578
-0.20853,0.0377071
-0.312547,0.0364157
-0.299324,0.0238874
-0.286592,9.8e-05
-0.217151,-0.0185969
-0.0799524,-1.94e-05
0.0071056,0.0169292
0.0913597,0.0144003
0.155066,0.0105871
0.148056,0.022737
0.19401,0.00590074
0.164533,-0.0445246
0.293836,-0.0430733
0.274543,0.0130191
0.138898,0.0323392
0.0263662,0.0201059
-0.262102,0.0200652
-0.346518,0.017968
-0.154889,-0.00783382
-0.0411994,-0.0125625
0.00826503,-0.019009
0.0878728,-0.0284812
0.159372,-0.0124232
-0.061712,0.0294896
-0.380391,0.0303088
-0.328312,0.0101102
-0.0398905,0.00144071
0.0689846,-0.0273231
0.0854267,-0.0805726
0.216964,-0.0765778
0.260053,-0.0509558
0.196014,-0.014464
0.0746139,0.0197694
-0.101801,0.0213648
-0.0401504,0.0103818
0.0375496,0.0112306
-0.0019378,0.0147143
-0.128958,0.0102943
-0.12588,0.0117056
0.029928,0.00719701
0.0417395,0.0136446
-0.0817834,0.0328916
-0.205753,0.0407877
-0.152306,0.0378194
-0.0532456,0.02987
0.0665187,0.0016991
0.15156,-0.0110678
0.185399,0.0257419
0.16665,0.010686
0.154181,-0.0180532
0.208961,-0.0216943
0.343954,-0.0288982
0.359436,-0.0291194
0.282929,-0.00447933
-0.0884949,0.000235298
-0.551886,-0.0496427
-0.374079,-0.106777
0.0313363,-0.0400286
-0.015974,0.0556302
-0.27412,0.0268232
-0.391179,-0.00243653
-0.210708,0.0124016
-0.107027,0.0351753
-0.0757295,0.0350275
-0.0458844,0.0326846
-0.08889,0.0190086
-0.0626288,0.0078639
-0.010957,0.00183869
0.0469906,-0.021294
0.131337,-0.0413989
0.171506,-0.0424481
0.177586,-0.00853302
0.142811,0.0240074
0.0112757,0.0424128
-0.0766047,0.0504264
0.016702,0.0244363
0.247722,-0.00422062
0.479745,-0.01946
0.493954,-0.0523593
0.118086,-0.0139246
-0.251872,-0.0126865
-0.280575,-0.0305256
-0.154168,-0.0230653
2.92e-05,0.00660839
0.152718,0.0442701
0.0777432,0.041275
-0.125968,0.053231
-0.232091,0.0275453
-0.277372,-0.00883553
-0.322322,-0.0225729
-0.175202,-0.0232789
-0.0441281,-0.00741655
-0.0383072,-0.0183381
-0.0212496,-0.0189833
-0.00167297,-0.0110184
0.0146522,-0.0208946
0.0795009,-0.00878818
0.13012,0.00432533
0.111426,0.0153491
-0.0523202,0.0254106
-0.232783,0.0340379
-0.126327,0.0144244
-0.0312046,-0.00371541
0.0174037,-0.0110856
0.171739,-0.0100155
0.345021,-0.0170098
0.408498,-0.00859129
0.241158,0.0139754
0.124299,0.00415374
0.657369,-0.034857
0.91365,-0.0624708
0.565082,-0.0520728
-0.320278,-0.0210844
-1.26821,0.0163192
-1.021,0.0338823
-0.347898,0.0236145
-0.09697,0.0252233
-0.12069,0.0268623
-0.220956,0.0336566
-0.16641,0.0313061
-0.0591125,0.0295601
0.0431546,0.0268766
0.241091,-0.0251205
0.31714,-0.0453093
0.217922,-0.0103985
-0.0381895,-0.00395699
-0.200866,0.0117694
-0.135976,0.0294005
-0.150765,0.0181334
-0.150914,-0.0105745
-0.0193029,-0.0110526
0.0413589,0.0133277
0.0395727,0.0190854
0.067288,-1.61e-05
0.13505,-0.0152817
0.244515,-0.0260775
0.344817,-0.0318366
0.329301,-0.0361621
0.153576,-0.0130662
-0.0727801,0.0137384
-0.169445,0.0060493
-0.154889,0.0124976
-0.107026,0.0674388
-0.0529043,0.0704654
0.021387,0.0169146
0.0667144,-0.0542459
0.00707848,-0.0718016
0.229615,-0.0213036
0.345707,-0.0238184
0.153934,-0.056532
-0.137565,-0.0120223
-0.350795,0.0124823
-0.240496,0.00550351
-0.156577,0.00486354
-0.148589,0.0156388
-0.113955,0.0144722
-0.0663565,0.010444
-0.0189241,0.0270778
-0.00108618,0.0338789
-0.0251433,0.00161905
-0.0476619,-0.0345511
0.0191743,0.00416943
0.106097,0.0343612
0.183435,-0.00355769
0.244855,-0.0595232
0.166241,-0.0415306
-0.00640687,0.036308
-0.12703,0.040216
0.0359604,-0.0222461
0.2236,-0.0327114
0.161832,-0.0250315
-0.033459,-0.027939
-0.302744,-0.0260731
-0.357086,-0.00659986
-0.215881,0.0303757
-0.0387622,0.0379912
0.137358,0.0419596
0.336019,0.0268898
0.371796,0.0153706
0.111779,0.00471773
-0.292739,-0.00108675
-0.456934,-0.00129887
-0.377636,0.00402406
-0.152206,-0.00436635
0.0942315,-0.0294769
0.356838,-0.052817
0.540973,-0.00629255
0.535809,0.049829
0.412975,0.0487283
0.111112,0.0535279
-0.309248,0.0396579
-0.658404,0.0057674
-0.663695,-0.0011175
-0.443334,0.00472747
-0.157848,0.00424333
0.0924933,-0.00755092
0.251546,-0.0187636
0.134798,-0.0110172
-0.0825226,-0.019614
-0.115357,-0.0228249
0.0121647,-0.0227135
0.129778,-0.035964
0.155241,-0.00726283
0.041428,0.0248638
0.0002777,0.02572
0.0390493,0.0119139
0.0713678,0.00884508
0.0681805,-0.0102137
-0.0277985,-0.0367063
-0.0493181,-0.0463773
-0.0372139,-0.061257
-0.0359111,-0.0349598
0.0238017,-0.00503159
0.0660709,-0.00847715
0.0659954,-0.0161773
0.119789,-0.0474404
0.19561,-0.00806827
0.149328,0.0791777
-0.121241,0.0926895
-0.333201,0.0524611
-0.16628,0.00499167
0.3029,0.0102193
0.795168,-0.0160931
0.725107,-0.00357704
0.0319228,0.00750273
-0.862574,0.0081234
-0.864292,-0.0139729
-0.348611,-0.0234339
0.166004,-0.00301978
0.503444,0.0132674
0.525219,0.0157291
0.271269,0.00495393
-0.203765,0.000655257
-0.382366,-0.00289298
-0.289859,0.00480727
-0.316655,-0.00611619
-0.281308,-0.011268
-0.198793,0.00782236
-0.189827,0.0135757
-0.186604,0.0128676
-0.0781722,0.00931115
0.0940657,0.00504433
0.218662,0.00981686
0.323093,-0.00642234
0.346854,-0.0355558
0.229843,-0.0401683
0.0153666,0.0091859
-0.0973953,0.0274279
-0.0157601,0.031013
0.125524,0.043257
0.293912,0.019253
0.244998,-0.0572501
0.0207966,-0.0690163
-0.111404,-0.013862
-0.291093,0.00121681
-0.39224,-0.0234341
-0.227564,-0.00960742
-0.0858397,0.0022005
0.0512636,0.0234798
0.110523,0.0375307
0.0645665,0.0346457
-0.0188455,0.0310583
-0.0318444,0.00861197
0.0646031,-0.0227845
0.119708,-0.0104257
0.0520124,-0.0325949
-0.0740723,-0.0267181
-0.0595234,0.00815171
0.0419006,0.00162496
0.090773,-0.0108603
0.0496059,-0.0151888
-0.0666648,-0.000982607
0.0737687,-0.0144821
0.280342,0.000727167
0.32701,0.0291553
0.157276,0.0311804
-0.225118,0.0130152
-0.328925,-0.0230945
-0.28603,0.00260436
-0.19295,0.00646141
-0.0967835,-0.0425266
-0.0433691,-0.0246962
-0.0576577,0.0208195
-0.0213505,0.000526858
0.0558432,-0.00794417
0.0638255,-0.000294271
0.00242641,0.031632
-0.0941385,0.00900576
-0.0620882,-0.00686689
0.0216759,0.00981549
0.132248,0.00750806
0.268249,-0.0136757
0.440565,-0.0149194
0.612264,0.00352929
0.531194,0.00727292
0.381692,0.0283309
0.119753,0.0477562
-0.0157885,0.0269931
-0.234665,-0.0103532
-0.708432,0.0150729
-0.707527,0.0146203
-0.485796,-0.0206597
-0.280755,-0.0530737
-0.16416,-0.105698
-0.126222,-0.0496496
-0.18376,0.0251425
-0.258077,0.0383454
-0.137102,0.0191528
0.0203859,-0.0171516
0.0635764,-0.00660834
0.0541045,0.0323036
0.0311836,0.00736571
0.0623028,-0.0288405
0.126282,-0.00586106
0.149902,0.0300537
0.14353,0.0337306
0.145841,0.0167799
0.183468,0.00394817
0.260572,-0.00101124
0.300189,-0.00664177
0.227236,-0.00435078
0.119006,-0.00678856
-0.0279628,-0.0137295
-0.0800821,-0.0166352
-0.0185701,-0.00950109
0.0116761,0.00762419
-0.0880517,0.0283121
-0.245287,0.0165344
-0.245028,-0.0122421
-0.148839,-0.0129334
0.00198366,0.0157853
0.0421399,0.0355873
0.0956243,0.0232752
0.130707,0.0168954
0.10035,0.0133529
0.0476615,0.0107807
-0.0625664,0.0110009
-0.0822448,-0.00490333
-0.0357091,-0.0294541
-0.0203182,-0.0233315
-0.0331643,-0.0218679
0.00259016,-0.0119174
-0.0213834,0.00203591
-0.0372149,-0.00728831
0.0519211,-0.004638
0.238003,0.000164585
0.427535,-0.0108385
0.42963,-0.0540592
0.18496,-0.131401
-0.224749,-0.139952
-0.490366,0.0227646
-0.464636,0.103616
-0.2691,0.052007
-0.153931,0.0315309
-0.177104,0.0332056
-0.130905,0.0253686
0.0283143,0.0131422
0.252679,0.0069263
0.702107,0.0106252
0.91167,0.0187552
0.538703,0.0171929
-0.277341,0.00902203
-0.924953,-0.0086077
-0.806824,-0.00323366
-0.361186,0.0285763
-0.0281644,0.0479245
0.0803011,0.0203313
-0.0160424,-0.0115562
-0.146296,-0.0159054
-0.0425815,-0.00582521
0.125444,-0.00649969
0.175747,-0.028731
0.134363,-0.0183825
0.0201878,-0.0179505
-0.0879098,-0.0460264
-0.0570233,-0.028912
0.0109528,0.00482646
0.0347315,0.0267215
0.0225443,0.0401773
0.0271321,0.0315412
0.0973592,0.000462155
0.0894782,-0.0701061
0.0502051,-0.075032
0.105864,0.00705931
0.127542,0.0442263
0.130528,0.0358625
0.208285,0.0193861
0.221261,0.0100948
0.11502,0.000437486
-0.0143706,-0.00705089
-0.161311,0.0063817
-0.264085,0.0316279
-0.244892,0.0454037
-0.239462,-0.0163384
-0.230409,-0.0992135
-0.111842,-0.0702915
0.00226984,0.00774106
0.0101099,0.0231683
-0.0141547,-0.014541
0.0226738,0.00665967
0.100158,0.0423197
0.116557,0.0319365
0.0693028,-0.00430944
0.0315371,-0.0065546
0.077163,-0.00260589
0.12982,-0.0073864
0.192177,0.00210932
0.258202,0.00724603
0.267456,0.00220521
0.192309,0.00968447
-0.0479932,-0.00682601
-0.263772,-0.00399351
-0.170109,0.00312179
0.0519976,-0.0189992
-0.0700437,0.0183543
-0.231057,0.0547368
-0.0529803,0.0669359
0.118666,0.0193917
0.106028,-0.042831
-0.156965,-0.0794651
-0.320296,-0.0815106
-0.265198,-0.0128938
-0.204311,0.0222222
-0.0848175,0.0271274
-0.0195268,0.0249606
-0.0614342,0.0263123
0.0774947,0.0241837
0.359395,0.0169846
0.431563,0.014784
0.227833,0.0158701
-0.127268,0.0280752
-0.428239,0.0142734
-0.38803,-0.00773289
-0.103326,-0.0231649
0.0888954,-0.0290187
0.139436,-0.0221811
0.132326,-0.0137704
0.116039,-0.0209813
0.107972,-0.0286843
0.116314,-0.0236688
0.000164889,-0.0168421
-0.167205,-0.00828328
-0.140239,0.0101063
-0.0773876,0.0212788
-0.0551263,0.00852076
0.015888,-0.0128441
0.0608017,-0.00712396
0.0670155,0.0151252
0.0542623,0.0176656
0.081606,0.0169039
0.131296,0.0169213
0.155395,-0.00901451
0.185408,-0.029578
0.188418,0.00011744
0.119496,0.0237123
0.0245648,0.00955631
-0.119114,-0.000930286
-0.210225,-0.010037
-0.179329,-0.0333607
-0.205365,-0.0348345
-0.248304,0.0223302
-0.136956,0.0151465
0.0184881,-0.0400117
0.145148,-0.0758721
0.181091,-0.0169382
0.1661,0.0586096
0.151129,0.0539824
-0.014139,0.031072
-0.106512,0.050061
0.143992,0.014068
0.396004,-0.0269563
0.281469,-0.0389675
-0.0313988,-0.0194405
-0.396731,-0.0164342
-0.517355,-0.00317654
-0.389327,0.0155598
0.0190544,0.0232198
0.341112,0.00656975
0.289168,-0.00511807
-0.126673,0.00780236
-0.517225,0.0225628
-0.392945,0.0240164
-0.0873989,0.00829792
0.150431,-0.0146086
0.404729,-0.0291221
0.465252,-0.00965609
0.279663,-0.0119275
-0.0813203,-0.0314857
-0.174625,-0.0245274
0.0113202,0.00526328
0.0797127,0.0280678
0.0115692,0.0260187
-0.225392,0.0292006
-0.319646,0.0300576
-0.266654,0.0110986
-0.0955774,0.011363
0.117006,0.0205665
0.234858,0.00592365
0.161204,-0.0111465
0.0564854,-0.0155928
0.112757,-0.0161446
0.172548,0.019796
0.11302,0.0353543
-0.134536,0.0294796
-0.286308,-0.0326843
-0.260454,-0.0999156
-0.164397,-0.046426
-0.0698283,0.0273127
-0.000991235,0.0328595
0.085204,-0.0936672
0.140872,-0.138169
0.135655,0.0133912
0.0887132,0.07139
0.044838,0.0516688
0.074942,0.0446089
0.055607,0.0349632
0.189023,-0.0125312
0.327789,-0.0392929
0.247289,-0.0248229
0.0403253,0.029109
-0.317016,0.0392743
-0.351385,0.0369651
-0.10091,0.0278366
0.0446736,-0.000759694
0.0560957,-0.00957668
-0.0832354,0.00318401
-0.15977,0.0176487
-0.150286,0.0230477
-0.0761527,0.0121511
0.0672016,-0.00528052
0.100027,-0.00947598
-0.016276,-0.0162955
-0.0786691,-0.0570344
-0.0701078,-0.0494718
0.00215498,-0.0204606
0.11793,0.00398827
0.0405794,0.0225402
0.00868785,0.0172084
0.055315,0.00329266
0.128062,-0.00836098
0.205107,-0.0221483
0.0998532,-0.0226036
-0.0753788,-0.00209363
-0.239831,0.0164573
-0.288971,0.0167349
-0.123842,0.00322809
-0.00723414,-0.00474184
0.0452352,-0.00255429
0.0800217,0.00931853
0.0501504,0.0233221
0.0127919,0.0236244
-0.0981626,0.00594868
-0.149868,-0.0135061
0.0361792,-0.0273122
0.170143,0.00179742
0.195052,0.0122561
0.262881,-0.0060437
0.391704,0.00484023
0.42116,0.0119951
0.17745,0.0032855
-0.0836476,0.0147836
-0.184177,0.021066
-0.271475,-0.00818422
-0.265473,-0.0350153
-0.268217,-0.0183774
-0.397032,-0.0100095
-0.332253,-0.0126004
-0.159367,-0.0275196
-0.061425,0.00662259
-0.0149023,0.0139268
0.00874654,0.0115735
0.03639,0.0105105
0.0282131,-0.00386823
0.00924086,-0.00674085
0.0207931,-0.000494623
0.0683035,0.0164364
0.119202,0.0261695
0.11323,0.0182797
0.0837947,-0.00989639
0.098537,-0.00974157
0.140125,0.0211492
0.138888,0.0201888
0.153832,0.0192331
0.157757,0.00724848
0.107896,-0.0210233
0.0740629,-0.0352617
0.0787914,-0.0210057
0.142337,-0.00571699
0.180436,-0.00496902
0.0854798,-0.0162171
-0.140704,-0.0203773
-0.452315,-0.00405662
-0.554649,-0.0139484
-0.354747,-0.00246792
-0.084649,0.0240711
0.0346986,0.0224976
0.0466228,0.0168451
0.0626078,0.013195
0.0105759,0.00881644
-0.0161393,-0.000316604
0.0540085,-0.00799882
0.131955,-0.00521686
0.183169,-0.012624
0.35431,-0.0173118
0.447792,-0.00268348
0.153812,0.00590591
-0.223323,0.00895329
-0.356882,0.0161016
-0.135839,-0.00619355
-0.0657488,-0.0214116
-0.128927,-0.0379892
-0.148015,-0.0508215
-0.0637514,-0.0318107
0.0314508,-0.00301277
0.0781997,0.023002
-0.0510124,0.055374
-0.246102,0.0641846
-0.187741,0.0428242
-0.0792899,0.00154452
0.0522669,-0.00647263
0.163839,0.0118984
0.15521,0.0138052
-0.0320519,0.00614969
-0.197496,0.00309731
-0.0914801,-0.0148272
0.241202,-0.0441624
0.530363,-0.013712
0.525284,-0.00948321
0.151179,-0.0110044
-0.295678,-0.00312949
-0.26577,0.00754453
-0.100087,0.00627805
-0.141193,0.00368117
-0.142382,0.00569206
-0.122068,0.0194457
-0.118371,-0.00324788
-0.108043,-0.0117327
-0.0430755,0.000665608
0.109641,-0.0016089
0.442839,0.00948984
0.508648,0.0220824
0.2166,0.021266
-0.273893,0.0193473
-0.550893,0.023178
-0.286507,0.0187577
0.0101657,0.00372449
0.079344,-0.0399127
0.036282,-0.0492521
0.0382809,-0.0286623
0.0693335,-0.0031984
0.0601969,-0.000508227
0.077817,-0.000213309
0.124431,0.00950753
0.155892,0.00985448
0.114885,-0.00339744
-0.0505224,-0.0107642
-0.131499,-0.0293094
-0.0494404,-0.0279641
0.0553243,-0.00202639
0.0565996,0.011048
-0.0425179,0.0111517
-0.228477,0.00127538
-0.360461,-0.00161576
-0.189146,0.00778998
-0.0163322,0.0144837
0.0391183,0.00621264
0.0446932,0.00622664
0.0769302,0.00810122
0.104083,-0.000529792
0.060965,-0.0113425
-0.00195187,-0.0090051
0.0457048,-0.000218763
0.134347,0.00691804
0.0175312,0.00231465
-0.20983,-0.0121255
-0.249222,-0.00736937
-0.077441,0.0184872
0.20402,-0.0323272
0.332843,-0.0352298
0.283739,0.00172998
0.164875,0.0254242
0.0965627,0.0227483
0.214852,0.0137626
0.20787,0.00140433
-0.0835553,-0.0047729
-0.264465,-0.00442542
-0.226701,0.00395262
-0.162341,-0.0100484
-0.262481,-0.0353854
-0.399278,-0.014416
-0.314843,0.0303056
-0.136697,0.0281996
0.00548187,0.0174503
0.136257,0.0246415
0.248601,0.0146271
0.341224,-0.00935741
0.325492,-0.0208254
0.111094,-0.00328418
-0.086917,0.00386369
-0.0857823,0.0170256
0.0551427,0.0197948
0.135372,0.00722732
0.019786,-0.0156237
-0.105494,-0.0105092
-0.181358,0.00291699
-0.196104,-0.00710575
-0.157381,-0.0100675
-0.119204,-0.0124438
-0.029446,-0.00099582
0.0526121,0.00723498
0.0938255,0.00210023
0.0948431,-0.00610579
0.062764,-0.0111772
0.0518196,6.24e-05
0.0575028,0.00396449
0.0293317,0.00495427
-0.019436,0.00295599
-0.0444853,-0.00943486
-0.0523271,-0.0162817
-0.0425339,-0.00762002
0.00606947,-0.00478324
0.132899,-0.00694312
0.285218,0.00619463
0.393951,0.0231964
0.279572,0.021353
-0.0234912,0.0201766
-0.35253,0.0173162
-0.246623,0.00831094
0.0338386,-0.0132252
0.0915357,-0.0280103
-0.0255255,-0.0116895
-0.215472,0.00918454
-0.211944,-0.00630219
-0.125864,-0.0423917
-0.103467,-0.0368051
-0.13111,-0.0353967
-0.16808,-0.0145682
-0.0914603,0.0169285
-0.0340187,0.0475789
-0.00842298,0.043275
0.0344558,0.0161583
0.0889439,0.00924075
0.140563,0.01521
0.223604,0.00343227
0.363094,-0.0189276
0.483905,-0.0173508
0.406867,-0.00145469
0.0478879,-0.0123385
-0.433215,-0.00275137
-0.531084,0.0178599
-0.374288,0.0111721
-0.231521,0.000758876
-0.0593404,-0.00178151
0.0676033,0.0188382
0.0731562,0.0284257
0.0515901,0.0249955
-0.00615953,0.0175245
-0.0699905,-0.00213533
0.133559,-0.0357177
0.420302,-0.0513676
0.31086,-0.0490201
-0.113901,-0.0293255
-0.330329,-0.000337483
-0.24982,-0.013741
-0.00656812,-0.0170162
0.202783,0.0184691
0.224204,0.0140719
0.134291,0.00438776
0.0737243,0.00364475
-0.0388222,0.00173365
-0.0805577,0.0175619
-0.0249358,0.0119018
-0.00706593,0.00149509
-0.120091,0.00821729
-0.228693,0.0284584
-0.0951807,0.0437724
0.00798855,0.038656
0.0206155,0.00877378
0.0143155,-0.0136837
0.107997,-0.00894622
0.17146,-0.00958154
-0.0248779,-0.0161106
-0.227182,-0.0125319
-0.160892,-0.00450417
0.0694373,-0.013259
0.193187,-0.0214477
0.0557426,-0.0127689
-0.180516,-0.0153308
-0.205655,-0.0237276
-0.137921,0.0138043
-0.041424,0.0341665
0.0711831,0.0254365
0.151765,0.0157568
0.156276,-0.00302324
0.15518,-0.00343994
0.0964178,-0.00244843
0.0885592,-0.0036105
0.0972634,0.00558045
-0.0235373,-0.0161946
-0.0355164,-0.0301926
0.0758151,-0.000384789
0.111826,0.0157794
0.13665,0.0109107
0.017294,-0.0016878
-0.151107,-0.0128153
-0.180819,-0.0162673
-0.229946,-0.0227592
-0.244358,-0.0105229
-0.107183,0.0251961
0.012939,0.0199733
0.0319704,0.0144618
-0.00190827,0.0077083
-0.0146769,-0.00134729
0.0039702,-0.0120086
0.0292472,-0.00696156
0.0708829,-0.00412853
0.113225,0.00648642
0.105907,0.011985
0.0849758,-0.00803447
0.0623129,-0.0143331
0.0252267,-0.0022377
0.0551064,0.00490334
0.0332968,0.00502643
-0.0235445,0.00698796
-0.08613,0.00689238
-0.124288,0.00692894
-0.0573891,0.0056294
0.0256449,0.00117464
0.0654536,-0.00270543
0.163666,-0.00180033
0.262001,-0.00893381
0.138632,-0.0257437
-0.210082,-0.0248253
-0.387312,0.00636353
-0.312151,0.0249274
-0.13017,0.00808508
0.00677134,-0.00399212
0.206198,-0.003071
0.306201,-0.0191777
0.17202,-0.000599256
-0.126432,0.0207809
-0.269522,0.0137023
-0.0680682,0.0129337
0.0516335,0.0091111
0.0572401,0.00754829
0.078192,0.00931473
0.050982,0.0030447
0.059653,-0.0109513
0.0687616,-0.010332
0.012221,0.0102048
0.0458027,0.00310316
-0.0337013,-0.0321325
-0.195192,-0.0751814
-0.207558,-0.0770469
-0.105743,0.0184317
-0.00413232,0.0401734
0.00933221,0.00465328
0.00995521,0.0187435
-0.0898037,0.040248
-0.0312829,0.0243409
0.0881661,-0.00578096
0.0709037,-0.0120121
0.0196316,0.00976573
0.0115849,0.0137749
0.0865337,0.00603656
0.128824,0.00891255
0.0498823,0.0127284
-0.00702377,0.0128192
0.115784,0.0101144
0.25486,0.0116831
0.201846,0.0115674
-0.109766,-0.00595433
-0.197888,-0.00894334
-0.112892,-0.00807062
-0.0715254,-0.0152176
-0.103138,-0.00105164
-0.112753,-0.00600145
-0.0365609,-0.0398745
-0.0115026,-0.04943
-0.0815234,-0.00468128
-0.154743,0.0276145
-0.0741674,0.0131504
-0.00318156,0.0015346
0.00691816,0.0016667
0.009642,0.00756055
0.0362012,-0.00248099
0.106931,-0.0121178
0.279036,-0.00772761
0.359514,0.00110873
0.304601,0.00464648
0.232419,0.00765252
0.0649839,0.00394636
-0.00612527,-0.00168942
-0.149349,0.0035367
-0.433098,0.00835933
-0.40739,0.00935946
-0.170537,0.00980597
-0.0267691,0.00719046
0.000644335,0.00267119
