Comp Ch 3,Comp Ch 4
0.147173,0.018007
0.0452082,0.0602806
-0.142684,0.0376675
-0.326991,0.0116929
-0.258825,-0.00704595
-0.00329964,-0.0144039
0.579909,-0.0174175
1.44641,-0.02166
1.72303,-0.0207364
1.3255,-0.0281678
0.313855,-0.0242269
-1.10187,-0.00694977
-1.41465,0.0124264
-0.79656,0.0186169
-0.45327,0.00484425
-0.337528,0.0311844
0.131904,0.0459614
0.428283,0.015316
0.254237,-0.00781684
0.0809644,0.00465393
-0.199163,-0.0140414
-0.293616,-0.0381163
-0.393531,-0.0435142
-0.636954,-0.0199579
-0.559676,-0.00100028
-0.157203,0.00917458
0.0886833,0.0250042
0.224098,0.0263053
0.303468,-0.0088246
0.103815,-0.0214204
0.0402809,-0.00958995
0.361305,0.0147655
0.568325,0.0368936
0.569729,0.0294517
0.144917,0.0731171
-0.284638,0.0490681
0.0713983,-0.0200697
0.319835,-0.0199698
0.278075,-0.0369986
-0.130407,-0.0407991
-0.805931,-0.0785422
-0.956109,-0.101512
-0.641355,-0.00765666
-0.458483,0.0581642
-0.117184,0.0217857
0.322702,-0.0257889
1.27173,0.00725236
1.90254,0.0492848
1.59204,0.0448107
0.464497,0.0354505
-1.14122,0.0359402
-1.85523,-0.0400514
-1.26113,-0.163588
-0.735844,0.0124342
-0.231183,0.109908
0.460125,0.0489173
0.806021,-0.00274413
0.622112,-0.00960086
-0.00659224,-0.035291
-0.618299,-0.0185722
-0.474314,-0.0100205
-0.0245619,-0.0230164
0.323521,-0.0205251
0.385304,-0.006574
0.305504,-0.0123487
-0.132675,-0.0148301
-0.591449,-0.00287743
-0.361116,0.0536296
0.0255703,0.0528396
0.272187,0.0375357
0.43453,0.0161649
0.536374,-0.00464084
0.622795,-0.0100208
0.382508,-0.0185513
0.0165923,-0.0148148
-0.353485,0.0402068
-0.499969,0.0439045
0.162903,0.0202063
0.543008,-0.00963405
0.380801,-0.0217215
-0.32128,0.04295
-1.01712,0.0330577
-0.676058,-0.000717187
-0.313384,0.00227774
-0.270522,0.0173252
-0.241321,0.0306698
-0.0589526,0.0255408
0.0410374,-0.0378047
0.0260352,-0.0559202
-0.140834,-0.0704127
0.0788964,-0.0846426
0.806106,-0.0236509
0.895953,0.0192913
0.56116,0.0176053
-0.110691,0.0268764
-0.253412,0.0219073
0.286569,0.012529
0.265335,-0.00234838
0.000869854,0.00346882
0.0343395,0.0246046
-0.10447,0.06315
-0.314927,0.0713437
-0.771932,0.0596496
-0.939538,0.0362072
-0.485841,-0.00605219
0.281331,-0.0323074
0.566134,-0.0486743
0.248748,-0.0826631
-0.434331,-0.00211147
-0.757747,0.0238355
-0.367144,-0.0342418
0.24694,-0.135814
0.966201,-0.15137
1.44203,-0.0195342
1.48122,0.0292174
0.45452,0.0076775
-0.0684888,0.00812597
-0.315959,0.038557
-0.92439,0.0680024
-0.927913,0.0376545
-0.588107,-0.00492864
-0.0111741,-0.0068961
0.375797,0.0278312
0.18576,0.012996
-0.381179,-0.0144461
-0.383985,-0.032934
-0.0727077,-0.0362543
-0.117362,-0.000412025
0.0194922,0.0258801
0.0941363,0.0128826
0.143067,0.00631821
0.394811,-0.0112859
0.282461,-0.0219226
0.0526059,0.00109557
-0.106165,0.025005
0.00584154,0.0220453
0.434405,0.00544779
-0.029991,-0.0243196
-0.422672,-0.0339211
-0.650152,-0.00667799
-0.611683,0.0131266
-0.107587,-0.00647071
0.0610981,-0.0249767
-0.168963,-0.00253979
-0.354102,0.00789267
-0.211295,-0.00331547
0.0513528,-0.000268406
0.15324,0.0168311
0.104297,0.00973075
0.089877,0.0296225
0.146471,0.0378489
0.236282,-0.00935065
0.308424,-0.0367092
0.306939,-0.030726
0.284389,-0.0128185
0.270926,-0.0283561
0.292672,-0.0126199
0.40027,0.00572183
0.404614,0.00676987
0.193191,0.0100287
-0.12129,0.00315131
-0.335853,0.00560335
-0.0915472,0.0197379
-0.198807,0.0385633
-0.657768,0.0582634
-0.535209,0.0560215
0.000809514,0.0357522
0.185553,0.00415126
0.0721689,-0.0323243
0.0917556,-0.00737989
0.116929,0.00219039
0.131995,0.000983093
0.0838275,-0.00223714
-0.196436,0.0183235
-0.182561,0.00289702
0.064413,0.00846734
0.184099,0.0380002
-0.0645121,0.012543
-0.385672,-0.002578
0.0110023,-0.0285362
0.390033,-0.0483458
0.273704,-0.0439873
0.167253,-0.0262191
0.334049,0.0204005
0.709085,0.0483907
0.549925,0.0287297
-0.0977106,0.0092054
-0.494334,-0.0425758
-0.890169,-0.0915228
-0.95701,-0.0605475
-0.567012,0.00953209
0.157695,0.00950601
0.749438,-0.00848986
0.512533,-0.00933745
-0.173045,0.00457703
-0.962554,0.0153297
-0.853887,0.028327
-0.334764,0.0116123
-0.141119,-0.0282463
0.106858,-0.0191626
0.319099,0.0368185
0.360328,0.0375986
0.325665,0.0154724
0.333914,0.0153257
0.204932,0.0103509
0.0971878,-0.0320305
0.120098,0.00505533
0.23408,-0.0234188
0.503635,-0.0396367
0.877733,-0.0381856
0.843692,-0.00746848
0.343454,0.0217272
-0.308237,0.00284222
-0.834753,-0.0207855
-0.96025,-0.0399619
-0.829672,-0.0105907
-0.348836,0.0285291
-0.115598,0.036699
-0.234639,0.0203554
-0.157702,0.00864348
-0.0638176,0.0122411
0.0051859,0.01108
0.114143,0.0138915
0.0888427,0.0104004
-0.0105808,0.00165507
0.143062,-0.0167039
0.61132,-0.0371837
0.801888,-0.0443219
0.505214,-0.03182
-0.502477,0.0068633
-0.933868,0.0313695
-0.505036,0.0190845
-0.0575208,0.0181399
0.239256,0.0382012
0.280185,0.0448479
0.263934,0.0374982
0.428508,0.0261189
0.565968,0.00475871
0.382845,-0.00911613
-0.157207,0.00530285
-0.743932,0.0254651
-0.612581,0.0159448
-0.364122,0.00843035
-0.259654,0.0147302
0.0070669,0.00588783
0.225343,-0.00985146
0.174719,-0.0108706
-0.0577361,-0.0104796
-0.203085,-0.0150869
-0.0132762,-0.0136285
0.216825,-0.0181129
0.310816,-0.0280584
0.234523,-0.0271154
0.0778656,-0.0241954
0.039813,-0.0261861
0.475783,-0.0302816
0.942801,-0.0380677
0.732817,-0.014957
-0.218276,0.0133048
-1.03262,0.0161631
-0.836728,0.0175464
-0.40475,-0.013415
-0.121605,-0.0075423
-0.0420568,0.0161501
0.0962638,-0.014921
0.343021,-0.0203986
0.295508,0.00910115
0.214051,0.0122787
0.0162355,0.000453738
-0.426861,0.00598107
-0.588949,0.0128959
-0.453424,0.0111228
-0.262543,0.0101462
-0.122021,0.0120816
-0.0675323,-0.00388378
-0.0147969,-0.00859867
0.162398,-0.0259713
0.378328,-0.0209845
0.451208,0.00634396
0.395465,0.0108445
0.175181,0.00746268
0.022768,-0.0262785
-0.240897,-0.0269634
-0.419643,0.00935369
-0.0436865,0.00228907
0.428059,-0.0139311
0.502946,-0.00800386
0.280284,-0.00784597
-0.11988,-0.00168871
-0.361894,0.0115975
-0.209673,0.0178719
0.133175,0.0129506
0.352137,0.0160962
0.37474,0.00397336
-0.0527486,-0.0143941
-0.589059,0.0173855
-0.407166,0.0379475
-0.252775,0.0254181
-0.27491,0.0158226
-0.150761,0.0175555
0.0222842,0.0245009
0.105943,0.0265685
0.134512,0.00951051
0.185718,-0.00666785
0.321576,-0.0153369
0.310037,-0.00861706
-0.000118956,-0.00214687
-0.194482,-0.00554814
-0.126569,-0.0132683
0.0976827,-0.00643442
0.21887,0.00428723
0.312706,0.00452144
0.196743,0.000649854
-0.27516,0.00170288
-0.473479,0.00248364
-0.352351,0.0119711
-0.0655294,0.0170456
0.0446916,0.0194703
0.0425942,-0.00559176
0.0504065,-0.0240911
0.0619438,-0.00819244
0.102666,0.00604118
0.0371112,-0.0264237
-0.195093,-0.0363318
-0.280497,-0.0151563
-0.1362,-0.0356552
-0.0422672,0.00816012
0.0965369,0.0532427
0.324737,0.0303527
0.363011,-0.00190085
0.224431,-0.0147983
-0.118679,-0.0158262
-0.196793,-0.00338757
0.0194716,0.000484027
0.0729434,0.00339033
0.0689112,0.00425266
-0.0504184,-0.0124553
-0.109026,-0.0510186
0.00499241,-0.0357721
0.132022,-0.00573443
0.22849,-0.00528137
0.18271,0.00960602
-0.0250641,0.0323179
-0.330645,0.0229811
-0.536117,0.0191767
-0.247704,0.012153
0.096302,-0.00152605
0.0971526,0.00283205
0.00533338,-0.00388317
0.125995,-0.00953018
0.366858,-0.00538721
0.477561,-0.00361287
0.59302,-0.0017662
0.566732,-0.000119348
0.0268343,-0.0176503
-0.504777,-0.0432279
-0.7606,-0.0445654
-0.712021,0.011807
-0.570418,0.0282457
-0.378536,-0.00478159
-0.139813,-0.00716855
0.0592537,-0.0001349
0.097354,0.00838039
0.139036,-0.00709581
0.152539,-0.0400787
0.139027,-0.000434076
0.143293,0.0556037
0.103828,0.0537702
0.0636934,0.0244472
0.139044,0.0118712
0.244514,0.00954011
0.36752,0.00276324
0.324308,-0.00579355
0.057398,-0.0148843
-0.269571,-0.00561545
-0.393599,-0.00161583
-0.119394,-0.00837911
0.304132,-0.0135522
0.408004,-0.00703644
0.112523,0.00453216
-0.315057,0.0163566
-0.584519,0.0388766
-0.268892,0.0325994
0.0492272,-0.00205744
0.147524,-0.0385293
0.0611197,-0.0279296
-0.125234,0.00876466
-0.180773,0.0149286
-0.023367,-0.00257576
0.123182,-0.00836397
0.179659,-0.00556145
0.112223,0.00574085
-0.0458408,0.00709396
-0.262657,0.00860265
-0.133498,-0.0139199
0.233199,-0.0189152
0.403717,-0.00272523
0.435427,0.00802008
0.379647,0.0170761
0.113147,0.0108593
-0.163724,0.0111972
-0.494076,0.00841934
-0.464399,0.00859488
-0.231815,0.00618469
-0.137817,-0.00412267
-0.153132,-0.00702318
-0.221599,-0.00188885
-0.192521,0.00225562
-0.084074,0.00767529
0.0239744,0.00689012
0.0763749,-0.00467229
0.156298,-0.0257095
0.181758,-0.0230057
0.256655,-0.014464
0.599576,-0.0307031
1.08023,-0.0297257
1.09016,-0.00546695
0.167151,0.00894386
-0.855665,0.0126766
-1.04157,0.00102859
-0.643198,-0.0288775
-0.264181,-0.0299661
-0.0949689,-0.0104581
-0.0567183,0.00288847
-0.114035,0.00742733
-0.130084,0.0195174
-0.0867105,0.0285935
-0.0625427,0.0243202
0.0316714,0.0159821
0.148013,-0.0168224
0.127731,-0.0752521
-0.000111267,-0.0134777
-0.0920938,0.0576998
-0.0235806,0.0504244
0.109513,0.0252532
0.19482,0.0100202
0.181191,0.00200643
0.110101,-0.0287505
0.105299,-0.00853217
0.0783679,0.0139257
0.00649586,0.00867498
-0.0300629,0.00714952
0.00615617,0.010149
0.0978134,0.0101974
0.194154,0.00356168
0.146802,0.00166673
-0.00462229,0.00290327
-0.140761,0.00455662
-0.303076,-0.00405352
-0.289467,-0.00705073
-0.151441,0.00255317
-0.0375491,0.0173358
0.120586,0.0023563
0.284399,-0.0295989
0.21002,-0.027772
-0.0421852,-0.000327561
-0.166239,0.0263367
-0.0505002,0.018987
0.0751577,-0.00623001
0.0928168,-0.00414607
-0.0902756,-0.0220232
-0.172455,-0.0359281
-0.072203,-0.010946
0.0651947,0.00988376
0.122812,0.0165301
0.0937019,0.0114706
-0.200673,0.00945964
-0.419255,0.0109917
-0.260969,0.0165711
-0.106766,0.0172857
0.0644119,0.0107497
0.309222,-0.00424599
0.495311,-0.0155471
0.455378,-0.0246282
0.11959,-0.0291798
-0.212652,-0.0350532
-0.272765,-0.0414552
-0.0367321,-0.0186608
0.169692,-0.00647983
0.0459474,0.0035483
-0.218753,0.00779987
-0.247743,0.0107256
-0.0873096,0.0262273
0.264725,0.0174084
0.509711,-0.0414246
0.247416,-0.0365623
-0.392307,0.0267938
-0.541808,0.0371619
-0.191844,0.0159629
-0.0620211,-0.0202099
-0.105829,-0.00333271
-0.0646803,0.0202977
-0.032541,0.0311261
-0.031639,0.0418879
0.00664192,0.036529
0.0800515,0.000661011
0.164915,-0.0142801
0.244312,0.00268542
0.221716,8.44e-05
0.0584928,0.00459751
-0.124224,-0.000196576
-0.0673717,-0.00256132
0.159216,0.00372802
0.263671,3.6e-05
0.162311,-0.015026
-0.116443,-0.0211113
-0.287761,-0.0136918
-0.153433,-0.00879291
-0.0664569,0.00244335
-0.0364347,0.0121834
0.0311197,0.00642952
0.0819948,-0.0171791
0.0984783,-0.0336883
-0.0593618,-0.0406398
-0.23123,-0.0148761
-0.185994,0.012509
-0.112569,0.0128857
-0.0297195,0.008585
0.11963,0.0144549
0.294426,0.0204919
0.273905,0.0378998
0.126187,0.0364367
-0.0305196,0.0216439
-0.1459,0.00127183
0.126652,-0.0115032
0.358175,-0.0360242
0.345145,-0.0404149
0.0887799,-0.0190583
-0.41104,-0.0174534
-0.527191,-0.0175374
-0.355892,-0.0121231
-0.220614,-0.00229098
-0.037765,0.0122239
0.0869671,0.0163333
0.213757,0.00954806
0.290921,0.00354229
0.200013,0.00318221
-0.119103,-0.00608997
-0.267793,-0.0138325
-0.202345,-0.00197438
-0.0224087,0.0126966
0.104083,0.0122631
0.0967724,0.00851301
0.0185013,0.00782384
-0.059091,0.0113481
-0.0754606,0.00204036
-0.0720412,0.00397101
-0.00269939,0.0136377
0.0151441,0.0158549
0.0152801,0.0283326
0.150813,0.0172178
0.237342,0.00176133
0.241307,-0.0132616
0.150497,-0.0238586
-0.125883,-0.0162892
-0.131288,-7.83e-05
-0.0946517,0.00117555
-0.116071,-0.00122717
0.0488719,0.00374658
0.198358,0.00138265
0.164401,-0.00953122
0.025792,-0.00406896
-0.148258,-0.00849491
-0.338078,-0.0177462
-0.203465,-0.0109416
-0.00843991,0.00345527
0.0543437,-0.00672949
0.0612031,-0.0134222
-0.0103618,0.00269359
-0.0657347,-0.00305643
0.00628062,-0.0329056
-0.00474176,-0.0555299
-0.109577,-0.0105459
0.0915728,0.0228209
0.347854,-0.00108213
0.317902,-0.0058326
-0.081455,0.0145392
-0.366486,0.0208542
-0.237649,-0.00619643
-0.0720033,-0.0192639
0.0946605,-0.0255378
0.248153,0.00590564
0.336273,0.0352587
0.193601,0.0330515
-0.0862247,0.0192601
-0.285337,0.00964099
-0.395093,0.0105244
-0.305601,0.00352201
-0.10971,-0.0044961
0.0532894,0.00577751
0.146203,-0.0138944
0.21076,0.00216802
0.366793,0.0338253
0.448181,0.0177919
0.357712,0.00380914
-0.00293064,-0.0219357
-0.468623,-0.0306618
-0.327923,0.00969202
-0.152263,0.0304144
-0.0558747,0.0335594
-0.0956193,0.0341564
-0.119202,0.0244152
-0.0732767,0.00914572
-0.0933772,-0.0158536
-0.093012,-0.019886
-0.0164983,0.00674497
0.0820997,0.00819774
0.104905,-0.00998255
0.0389205,-0.0180678
-0.0192134,-0.0112387
0.0743256,-0.00161511
0.199238,-0.00527907
0.172208,-0.0104602
-0.0114696,-0.00945819
-0.138172,-0.00144294
-0.0557429,0.000731877
0.115552,-0.0271814
0.29552,-0.0479924
0.312996,-0.0292512
-0.0209341,0.00312832
-0.233516,0.0273964
-0.221224,0.0225727
-0.194797,0.00292203
-0.117068,-0.0135606
-0.0754872,-0.0144155
-0.0480799,0.00300669
-0.0252013,-0.0136588
-0.0318674,-0.0264299
-0.0102319,-0.0278147
0.0609304,-0.00899272
0.121197,0.0349467
0.201175,0.0407863
0.228857,0.0156033
0.0725041,0.00939186
-0.143252,0.0186606
-0.0481168,-0.00220728
0.229736,-0.00384569
0.330713,0.0101716
0.15144,0.00704879
-0.223473,0.00635702
-0.356056,0.0146149
-0.0913514,0.0102909
-0.00521599,-0.0012342
-0.101268,-0.00728974
-0.204056,-0.015474
-0.237489,-0.0255642
-0.166274,-0.0231126
-0.0920895,-0.0424576
-0.0684929,-0.0091451
-0.0318714,0.0134877
0.0485154,0.00564858
0.0872404,0.00023714
0.135056,0.0132783
0.221604,0.0166484
0.20836,0.00655336
0.234796,-0.00108294
0.20071,0.0164488
0.14067,0.0458404
0.0776594,0.0523622
-0.208936,0.019722
-0.203133,-0.0242522
0.10024,-0.0299686
0.271448,-0.0379494
0.195387,-0.0240611
-0.223632,-0.00936913
-0.421609,-0.0340096
-0.345121,-0.0159383
-0.218693,0.000304543
-0.0836405,-0.0449599
-0.0522623,0.0124358
-0.0512794,0.0439529
-0.00569466,-0.0104526
0.0647293,-0.0189757
0.0958313,0.00965986
0.0745407,0.0252723
0.0406964,0.0412564
0.0249155,0.0174668
0.0680388,-0.0162576
0.137658,-0.00933258
0.124923,-0.00334157
-0.00451763,-0.051621
-0.0509301,0.000471759
-0.0177454,0.0492483
0.0252611,0.0463286
0.0533268,0.0359732
0.0190217,0.032329
-0.0229701,0.027787
0.00556718,-0.0160733
0.00889476,-0.0596453
-0.0267623,-0.0811925
0.0373428,-0.0962627
0.117079,0.0269105
0.0676289,0.0425453
-0.024591,0.0568301
-0.150248,0.0587503
-0.237158,0.00213442
-0.0710526,-0.00195657
0.2058,0.0248941
0.371957,0.013138
0.446374,-0.00921874
0.338177,-0.0710309
0.175597,-0.0531444
0.110713,-0.0179671
-0.208939,0.0282507
-0.574924,0.0257237
-0.657879,0.0127905
-0.522467,0.0111988
-0.244174,0.0238994
0.0649747,0.0188905
0.254676,-0.046281
0.223009,-0.0245689
0.0651657,0.0284191
-0.152961,-0.0193941
-0.158472,-0.0499139
0.0182906,-0.0656374
0.238354,-0.0803379
0.274738,0.0255428
0.0914165,0.14297
-0.0338255,0.10406
-0.193668,0.0140599
-0.0565383,-0.0573751
0.216753,-0.0312662
0.242074,0.0015688
0.0168242,0.0134949
-0.287156,0.00473854
-0.307503,0.011218
-0.194138,-0.00694401
-0.0192627,-0.0323665
0.184512,-0.0307883
0.118831,0.00249533
-0.00385588,0.039195
0.0544537,0.0290322
0.0942648,0.016453
0.0132698,-0.0165764
-0.208024,-0.0508052
-0.176407,-0.0145806
0.00498442,-0.0568845
0.130526,-0.0643619
0.21835,0.00464935
0.287871,0.0199054
0.208478,0.0437106
0.0231844,0.051475
-0.0648842,0.0246971
-0.143148,0.0544825
-0.152895,0.0515752
-0.222978,-0.00232812
-0.141874,0.00173089
0.117367,-0.00462759
0.300207,-0.0126888
0.184166,0.00349121
-0.11001,0.0186698
-0.0886656,0.0109626
-0.0135413,0.0302182
-0.191404,-0.0240918
-0.161848,-0.0639241
0.00495802,-0.0106063
0.210417,0.0372129
0.442345,0.0469251
0.426523,0.00749421
0.10185,-0.138341
-0.233257,-0.277531
-0.488831,-0.0965719
-0.331781,0.140351
0.267707,0.0706132
0.444031,-0.0139362
0.0366668,0.0580473
-0.407027,0.0866369
-0.653793,0.0316712
-0.386533,-0.0139773
0.0338221,-0.018741
0.21548,0.00445324
0.0691162,0.0294758
-0.196475,0.0268308
-0.0451158,-0.00186666
0.297528,-0.0103687
0.444196,0.000592443
0.392943,0.00993497
0.375535,0.0152985
0.22919,0.00988708
-0.146067,0.00530257
-0.397879,-0.0488596
-0.591195,-0.0915749
-0.326882,-0.0338995
-0.0167533,0.0167233
-0.123511,0.0558001
-0.125904,0.08765
-0.0375514,0.0508905
-0.0285069,-0.0765831
0.0782851,-0.0404003
0.202277,0.0327829
0.307166,0.0150224
0.233948,-0.0284979
0.0518729,0.0109317
0.0551849,0.0619287
0.320216,-0.0117191
0.552024,-0.140345
0.498815,-0.102354
-0.170955,0.0353761
-0.937119,0.0644785
-0.778224,0.0498358
-0.292108,0.0498932
0.0148329,0.00559151
0.194768,-0.0301878
0.394949,-0.0340394
0.330634,-0.0434439
0.00809897,0.00132626
-0.294174,0.0284891
-0.31654,0.0484465
-0.0288081,0.0479431
0.0558899,-0.000830235
-0.0718462,-0.0269905
-0.0138696,-0.0174309
0.0934176,0.000774788
-0.0834364,0.0791889
-0.167894,0.112947
0.0117069,0.0689051
0.290928,-0.0537418
0.473001,-0.209552
0.299504,-0.167542
0.191371,0.0366862
0.199481,0.048624
-0.164618,-0.00329669
-0.333167,0.00996725
-0.500445,0.0173189
-0.540137,0.0213756
-0.17435,0.0128809
0.271001,0.0581593
0.674776,0.060791
0.789976,-0.0403696
0.178932,-0.0688987
-0.567999,-0.0559187
-0.597486,-0.0541277
-0.0116195,0.0049167
0.814283,0.0513063
1.01792,0.04123
0.451243,0.0443638
-0.475323,0.0736773
-1.40025,0.0781978
-1.42404,0.0443374
-0.359406,-0.0174818
0.412007,-0.0943363
0.630711,-0.104915
0.402713,-0.0917784
-0.0743232,0.0125117
-0.428176,0.0654281
-0.510084,0.0458985
0.0303737,0.0269025
0.510878,-0.00732216
0.462364,-0.00774209
0.0420432,0.0655017
-0.255387,0.0401786
-0.130815,-0.0545714
0.110413,-0.0528605
0.0259615,0.0115095
-0.0917521,-0.0128135
0.0510905,-0.0357278
-0.0250864,0.00114734
-0.243746,0.0140392
-0.245318,-0.0140821
-0.133611,-0.00194729
-0.0303155,0.0277808
0.0680092,0.0246296
0.0557822,0.00499833
0.0357291,-0.0436676
-0.00206094,-0.0389597
-0.0136987,-0.00149167
0.178516,-0.0288295
0.275565,-0.0712978
0.236805,-0.0158028
0.106906,0.0610151
0.0956743,0.0849145
0.309341,0.0485515
0.591468,-0.0347904
0.706064,-0.0620909
0.496469,-0.000981611
-0.328377,-0.000713816
-0.66623,-0.013365
0.632597,-0.0199105
1.12792,-0.0475958
0.228489,-0.00163944
-0.984018,0.0526857
-1.69193,0.0794113
-1.59782,0.094524
-1.01486,0.0769595
-0.324806,0.040847
0.0952567,0.0441831
0.357092,-0.0149482
0.748915,-0.070705
1.12755,-0.0636108
1.16787,-0.0351089
1.14171,0.0313274
0.610343,-0.0147853
-0.381106,-0.0485711
-0.884726,0.0264584
-1.09795,0.0639696
-1.36552,0.0118384
-0.925454,0.0106776
-0.233579,0.0111657
0.0497552,-0.0328463
-0.0349497,-0.00527496
-0.118818,-0.000854831
-0.060462,0.0382574
0.200388,0.0351373
0.529272,-0.0344374
0.791673,-0.0617639
0.676925,-0.0706014
0.0499692,-0.0685168
-0.449825,-0.0816935
-0.618425,-0.107782
0.100942,-0.104595
0.827419,-0.0493989
1.4308,0.00378579
1.46969,0.0216701
0.599703,0.0197168
-0.384122,0.0580069
-0.882984,0.0670956
-0.693338,0.0425278
-0.723383,0.0329232
-0.73174,0.0157112
-0.364041,-0.0572276
-0.2803,-0.0942987
-0.148702,-0.0649857
0.288885,-0.0241982
0.601302,0.0482548
0.119545,0.0859504
-0.399967,0.0199923
-0.772399,-0.0282937
-0.387832,-0.0810328
0.0546985,0.00911276
0.0455882,0.0950276
-0.0129537,0.0573667
0.156249,0.0587811
0.595444,0.109224
0.513955,0.0968562
-0.0918821,0.020177
-0.569639,-0.00146717
-0.56241,0.0197898
0.0639195,0.0393489
1.15403,0.00491076
1.77278,-0.107788
1.42924,-0.15184
-0.175885,-0.106862
-1.82361,0.0355577
-1.87359,0.19296
-0.365921,0.144742
0.922541,0.0144215
1.52994,-0.0132521
1.2895,-0.0280589
0.403654,-0.0477188
-0.726102,-0.00598177
-1.28342,0.0639983
-1.31737,0.0721149
-0.7142,0.0431118
0.031852,0.0140029
0.0632564,-0.000693896
-0.467857,0.00850756
-0.78097,0.0341057
-0.20707,-0.0138473
0.43037,-0.0146269
0.301707,-0.0290355
-0.117662,-0.0393809
-0.147624,-0.0126843
0.015143,0.0177863
0.211653,-0.0173309
0.702977,-0.0320316
0.917915,0.00506754
0.561433,0.0114141
0.0395828,0.0163045
-0.247417,0.0107849
0.350795,-0.0275911
0.779809,-0.0773738
0.615988,-0.0866599
0.346746,-0.0381622
-0.116272,-0.0865618
-0.969695,-0.0385431
-1.12857,0.0157108
-0.602623,-0.0010563
-0.362783,-0.00382097
-0.607074,-0.0621362
-0.597344,-0.080001
-0.0960687,0.0114057
0.342534,0.05964
0.618986,0.0220637
1.73084,-0.0123359
2.22294,-0.0115805
1.39768,-0.0381476
-0.125798,-0.133367
-1.55717,-0.13399
-1.43412,-0.0960612
-0.96154,-0.0446616
-0.359412,0.028244
0.169057,0.102423
0.44494,0.125297
0.218334,0.108092
-0.583825,0.0827918
-1.01072,0.0528286
-0.392625,0.0301669
0.356505,0.00370116
0.245931,-0.0415598
-0.0869374,-0.0615078
-0.382902,-0.0298741
-0.653854,0.0809559
-0.42674,0.155405
0.341716,0.134763
0.84188,0.0949212
0.586898,0.0359237
-0.0444966,0.0296733
-0.419061,0.0729797
-0.201705,0.0843213
-0.00697085,-0.0174806
0.019488,-0.0881837
-0.0818568,-0.0719795
0.0178376,-0.0700475
0.301867,-0.10918
0.706614,-0.116851
1.20161,-0.124759
1.19053,-0.126615
0.408103,-0.0884991
-0.658427,-0.0311732
-0.366251,-0.00568904
0.0259217,0.0134954
-0.254589,0.0818883
-1.16071,0.106707
-1.36901,0.107197
-0.33224,0.0765545
0.330877,0.0538129
0.369283,0.0928404
0.153003,0.117733
0.370403,0.141287
0.903028,0.0635558
0.457338,0.000321797
-0.539049,-0.0390186
-0.486574,-0.119529
0.42768,-0.13434
0.810113,-0.128234
0.716642,-0.166095
-0.269192,-0.0830345
-0.829754,0.0189446
-0.725494,0.0605396
-0.973649,0.0434936
-0.34404,0.0209001
0.800907,0.0463042
1.15469,0.00960667
0.821346,-0.047669
-0.185749,-0.00783382
-0.95238,0.0288731
-1.16941,0.00771304
-0.719946,-0.0375049
0.0297205,-0.0540276
0.366668,-0.01937
0.278421,0.0553241
0.0916911,0.0199362
-0.125109,-0.0814439
-0.295479,-0.115847
-0.304814,-0.110426
0.294341,-0.0311923
0.647999,0.0212277
0.485519,0.0674497
-0.204186,0.0744056
-0.468846,0.122942
0.0921623,0.137245
0.287211,0.108772
0.149739,0.0320064
-0.0125924,-0.0327523
0.145145,-0.0371016
-0.0808777,-0.0157162
-0.660166,0.0299212
-0.399278,0.0382648
0.104424,-0.0179309
0.422637,-0.0696222
0.485588,-0.0363532
0.203152,-0.0522915
0.184643,-0.241923
0.58887,-0.200677
0.732512,0.0360109
0.418501,0.17415
-0.0189123,0.159146
0.0742141,0.0468323
-0.302464,-0.0032485
-1.1958,-0.00164169
-0.666119,0.0116354
0.434805,0.00515322
0.766235,-0.00742495
0.523652,0.0131966
0.123487,0.0335667
-0.24704,0.0163271
-0.779557,0.0188004
-1.30958,0.0173444
-1.13634,0.0154391
-0.467614,0.0581304
0.304403,0.0735234
0.54846,0.0537639
0.379007,-0.00383024
-0.0158641,-0.0851654
-0.361009,-0.143336
-0.33341,-0.0519378
-0.153282,0.0185397
0.207236,0.00985235
0.327439,0.0154995
0.138187,0.0323859
0.124531,0.0402214
0.310295,0.0194387
0.441655,-0.032689
0.264252,-0.0703686
-0.37194,-0.0117101
-0.311247,0.037046
0.19492,0.0273712
0.509936,0.0390998
0.946534,0.0731238
1.98084,0.111633
2.1826,0.0193019
0.898597,-0.101927
-1.5799,-0.0953637
-3.33707,-0.0373893
-2.04007,-0.0807016
-0.647419,-0.12381
-0.248337,-0.0639905
-0.188014,-0.0260505
-0.00868964,0.0621431
0.247648,0.0582339
0.357316,-0.0559762
0.347654,-0.0830529
0.13181,-0.0418331
0.0268759,0.0396244
0.27343,0.0753169
0.385338,0.0643795
0.229938,0.0238706
-0.0380823,0.010668
-0.259237,0.0235568
0.255982,-0.0241633
1.06584,-0.0236112
0.906013,0.0293665
0.0363732,0.0178906
-1.05685,0.0273602
-0.95034,0.0915684
-0.391625,0.155801
-0.181988,0.0917855
-0.0752429,-0.0366174
-0.029715,-0.140358
0.010637,-0.186215
0.00896409,-0.103665
-0.0871676,-0.054011
-0.15871,-0.0304717
-0.066541,-0.0403346
0.0818488,0.0261751
0.197858,0.210972
0.240991,0.289931
0.268923,0.24022
0.310031,0.114891
0.282873,-0.00940476
0.1571,-0.154059
-0.00201984,-0.239478
-0.0450297,-0.279331
-0.0552691,-0.20023
-0.0438473,-0.122363
-0.0144771,-0.0793369
-0.0584687,0.0131027
-0.207949,0.102643
-0.285327,0.102235
-0.180673,0.0816002
-0.161046,0.0727636
-0.0596776,0.0383014
0.208308,0.0100803
0.376679,-0.0354271
0.288189,-0.0827962
-0.0455576,-0.0775849
-0.244064,0.0136908
-0.32847,0.101452
-0.209966,0.0901135
0.00134792,0.055065
0.182827,0.0377784
0.268411,0.0270376
0.457524,0.0217127
1.03216,-0.0319831
1.09286,-0.0627346
0.438714,0.00356794
-0.539345,0.0608233
-0.327271,0.0629296
0.633296,0.0567871
0.486763,0.0110819
-0.768595,-0.0623239
-1.97312,-0.0709713
-1.41067,0.000812468
-0.468863,0.0192827
-0.132795,-0.0375676
-0.0469968,-0.0223883
-0.0639844,0.0145844
0.0220458,0.0497539
0.056486,0.0458388
-0.0551978,-0.0495786
-0.085539,-0.145616
0.10196,-0.0736839
0.157555,0.0166481
-0.00750536,0.0288461
-0.0571755,-0.00965257
0.0894335,-0.0299024
0.222851,-0.0355378
0.414133,-0.0228689
0.492142,-0.0032117
0.283911,0.026565
-0.0752285,0.0663776
-0.0966013,0.0765505
0.098428,0.0493842
0.146827,0.0359125
0.0796243,0.0517136
-0.0102466,0.0829529
0.102443,0.101581
0.350666,0.0382582
0.712913,-0.0594705
0.146069,-0.0971119
-0.592169,-0.0988378
-0.869255,0.014774
-0.507822,0.00958561
0.111302,-0.036826
0.298771,-0.0416476
0.361665,-0.00473545
0.405417,-0.0172228
0.388764,-0.0651204
0.431608,-0.13794
0.259558,-0.149863
-0.213454,-0.0192163
-0.688276,0.0293641
-0.585255,0.0140586
-0.38097,0.066692
-0.134664,0.0560202
-0.0529673,0.037964
-0.0820494,0.0605749
-0.0719647,0.0621801
-0.376132,0.0411992
-0.312616,-0.0034469
-0.00114624,-0.0424633
0.322575,-0.0212383
0.340485,0.0409475
0.128774,0.0558528
0.151658,0.0257524
0.235103,0.028124
0.306827,0.0271511
0.341699,0.0010313
0.129714,-0.0415405
-0.20228,-0.0148825
-0.319252,0.0397499
-0.470009,0.0203063
-0.408955,-0.018052
-0.141868,-0.0242638
0.0952353,-0.0406222
0.0864607,-0.0656201
0.0692382,-0.0716842
0.0733718,-0.0238468
0.164747,0.0479337
0.19405,0.0625768
0.128073,0.0337647
0.047715,-0.0161182
0.0273835,-0.0488651
0.00175988,-0.0608582
-0.0755896,-0.00794681
-0.193128,0.0808533
-0.195707,0.0753222
-0.125911,0.0283913
0.0877555,-0.00514916
0.534384,-0.0478206
0.894245,-0.0521755
0.847619,-0.0141025
0.294162,-0.022881
-0.478423,0.00212452
-0.766138,0.0118764
-0.632883,0.00495699
-0.120882,0.0132202
0.568631,0.00800909
0.637789,0.0239173
-0.0078911,0.0400607
-0.857542,0.01475
-1.03755,-0.0371293
-0.641895,-0.0227615
-0.159357,0.0500216
0.0588708,0.0508332
0.0903884,0.0077902
-0.187774,0.00214741
-0.324529,0.00303614
-0.0274985,-0.0503704
0.294699,-0.0474951
0.546404,-0.0154525
0.739638,-0.0219751
0.568291,-0.015515
0.378377,-0.00124126
0.391685,-0.0364283
0.310249,-0.0529104
0.0493208,-0.0144227
-0.651417,0.0363857
-0.840362,0.0665903
-0.406185,0.042887
0.0294894,0.0136896
0.25463,0.00257074
0.131792,-0.0411022
-0.24441,-0.0259983
-0.612208,0.016692
-0.470419,-0.0402327
-0.173371,-0.0933597
0.0298394,-0.0243954
0.22364,0.0372702
0.334737,0.0556588
0.404945,0.0519594
0.198562,0.0662596
-0.0186906,0.0504541
0.0185509,0.0303178
-0.000561883,0.0077533
-0.161763,-0.0163818
-0.235652,0.0055786
-0.163944,0.033246
0.0517763,0.0570118
0.25323,0.0342169
0.484373,-0.0394884
1.12782,-0.0941457
1.65262,-0.101016
1.45762,-0.101434
0.119162,-0.0404916
-1.24725,0.0229138
-1.31207,0.0439051
-1.22875,0.0444848
-1.05322,0.0272664
-0.460138,0.0201787
-0.106459,0.025065
-0.0506887,0.011651
-0.088811,-0.0729386
-0.17704,-0.0484186
-0.233946,0.0474295
-0.131352,0.0387698
0.0404407,0.0180012
0.251112,0.00882024
0.270487,0.0376561
0.00136492,0.00681283
-0.0484966,-0.0251298
0.335603,-0.0403305
0.893091,-0.0493841
0.999362,-0.0404392
0.449881,-0.00626777
-0.466125,0.0212097
-0.730748,0.0344359
-0.263285,0.0455494
0.0338929,0.0455552
0.145481,0.0276756
0.19457,0.00707683
0.121808,-0.0137232
-0.10016,-0.0788549
-0.268172,-0.0562325
-0.281148,-0.00403327
-0.331376,0.00567306
-0.273486,-0.0114371
0.0924209,0.00076968
0.526941,0.0322366
0.61041,0.034742
0.568035,0.0137153
0.287685,-0.0159275
0.0399748,-0.0181796
-0.188675,-0.0197111
-0.497193,-0.0200421
-0.390138,-0.0104472
-0.224186,0.0129247
-0.236126,-0.0508722
-0.308148,-0.041643
-0.188026,0.0433734
-0.00186911,0.0528744
-0.0108085,0.0115804
-0.179231,-0.00411621
-0.305201,0.0107632
-0.0587866,0.0150144
0.345117,0.0138025
0.51687,0.00541671
0.452227,0.00175768
0.362326,0.0208961
0.138532,0.0702481
-0.132677,0.119229
-0.162792,0.126065
-0.0472299,0.0200562
0.0772966,-0.0933612
0.0208041,-0.113541
-0.102759,-0.0815243
-0.328799,-0.041397
-0.359751,-0.0105236
-0.210529,-0.00854489
-0.10851,-0.0580048
-0.0526278,-0.0831986
0.0966827,-0.0197347
0.266224,0.0355278
0.0377394,0.0103273
-0.0306639,-0.047981
0.419784,-0.0588609
1.02716,-0.00692387
1.20768,0.0263375
0.415516,0.0346847
-0.954275,0.0752686
-1.19648,0.0982767
-0.766733,0.0819683
-0.34705,0.0982523
-0.00346701,0.107776
0.0293527,0.00805167
-0.19729,-0.100166
-0.262335,-0.137245
-0.108297,-0.130257
0.0727775,-0.0356164
0.164043,-0.00626444
0.243963,-0.00944228
0.0723919,0.0214547
-0.0307459,-0.00205591
0.214633,-0.0652693
0.467986,-0.0368327
0.681162,0.0205047
0.62228,0.0428917
0.231265,0.0416251
-0.479186,0.026606
-0.690283,-0.00132854
-0.17269,-0.0278917
0.387076,0.00390006
0.553182,0.0568205
0.239416,0.106938
-0.614605,0.11014
-0.95615,0.0534003
-0.397451,-0.0296361
0.103795,-0.0678166
0.0034538,-0.056353
-0.409574,-0.0274604
-0.457687,0.0080832
-0.0344805,0.00277758
0.114511,-0.0136182
0.0880267,-0.00886016
0.192295,-0.0133121
0.433309,-0.109487
0.56755,-0.117452
0.674961,-3.07e-05
0.499131,-0.0112233
-0.00540474,-0.0102236
-0.412656,0.0797154
-0.636474,0.0528991
-0.319964,0.0309661
-0.073738,0.0506101
-0.0778842,0.0321009
-0.0683627,-0.0521075
0.0575583,-0.0744059
0.0938629,-0.0211172
-0.020324,0.0188363
-0.168995,0.036858
-0.230101,0.0489024
-0.0204632,0.0575719
0.355849,0.0447922
0.303766,-0.00225395
0.0961884,-0.0181763
-0.0841858,-0.00216675
-0.0206244,0.0177728
0.0861739,-0.00694792
-0.15576,-0.0247174
-0.182448,0.00409095
0.0566144,-0.00481166
0.231397,0.0172263
0.423122,0.0112542
0.501122,0.0324884
0.240353,0.00932569
-0.214692,-0.0561779
-0.392022,-0.0679924
-0.20372,-0.0571644
0.0494316,-0.0764139
-0.0237834,-0.0219526
-0.084911,0.0222515
-0.264707,0.010855
-0.42329,0.00727841
-0.167136,-0.00651404
0.256664,-0.0566208
0.0951895,-0.0201038
-0.0670551,0.0567107
-0.0402051,0.0809822
0.0824234,0.0804057
0.386448,0.046624
0.315073,0.0041507
-0.222861,-0.014991
-0.667196,-0.0141589
-0.375058,0.0111607
0.0186248,0.0110621
0.250524,-0.0116323
0.429308,0.0105613
0.429516,0.0318488
0.20141,0.0183378
-0.076404,-0.0408863
-0.237017,-0.0655847
-0.299485,-0.0382842
-0.386842,0.01068
-0.339592,0.0120024
-0.221358,-0.0210359
-0.0507154,-0.0303685
0.139717,0.00361159
0.405763,0.0163124
0.657729,-0.0216288
0.536012,-0.0184728
0.0483968,0.04057
-0.308968,0.0133181
-0.0799667,-0.0163756
0.0541214,0.0182448
-0.136366,0.0522083
-0.0882532,0.047621
-0.0240841,0.0155737
0.0469907,-0.0159732
0.0108973,-0.0298264
-0.135427,-0.015059
-0.163858,0.0045509
-0.118821,0.0266538
-0.137155,0.0548922
-0.14092,0.0414105
0.0025175,-0.0722816
0.0801676,-0.11732
0.18473,-0.0363642
0.180905,-0.014471
0.0174472,-0.0123699
-0.153766,-0.00531435
-0.0131475,-0.0203299
0.346037,-0.0149748
0.519675,0.0215467
0.478805,0.028986
0.124173,-0.0287779
-0.398072,-0.0889852
-0.615667,-0.0572507
-0.5088,0.0519813
-0.422935,0.0999612
-0.0760615,0.091613
0.572846,0.0511426
0.785181,0.000337283
0.367763,-0.00280234
-0.427572,0.0258387
-0.699298,0.0311347
-0.375643,-0.00464748
-0.0736387,-0.0134036
-0.113172,0.0152976
-0.163162,-0.00414535
-0.112874,-0.0104701
-0.0687008,-0.0167923
0.0887276,-0.0654112
0.1428,-0.0975457
0.180409,-0.0434187
0.300686,0.0665722
0.317016,0.100355
0.404444,0.0350765
0.40625,-0.0149765
0.301955,-0.0039526
0.117534,0.0126884
-0.237206,-0.0101949
-0.585334,-0.0285329
-0.502938,0.0268824
-0.217445,0.066825
0.0964605,0.00806315
0.217654,-0.0631535
0.0905396,-0.0607159
-0.0596194,0.005887
-0.164848,0.0208941
-0.0475172,-0.00545983
0.0617647,-0.0104261
0.0161675,0.0145442
-0.0159935,0.0112083
0.0759455,-0.0309194
-0.0185584,-0.0514751
-0.237462,-0.0729183
-0.284133,-0.0123689
-0.053032,0.0150992
0.0891534,0.0259363
0.169818,0.0390603
0.294549,0.0425905
0.339121,0.0344975
0.29954,0.0127439
0.103727,-0.0167227
-0.135439,-0.0208544
-0.270996,0.00723838
-0.198451,0.017076
-0.260519,-0.0753703
-0.222461,-0.0877324
0.0990345,-0.000542098
0.66513,0.0374772
0.691503,0.0756645
-0.0737613,0.043099
-0.774841,0.00606862
-0.509236,0.0119456
0.332861,0.0079865
0.692411,-0.00328821
0.533402,-0.0150293
-0.115085,0.000827892
-0.453872,0.0236958
-0.253236,0.00116928
-0.448351,-0.0167992
-0.657108,0.0252426
-0.522481,0.0457339
-0.288657,0.0308346
-0.0479356,0.0214102
0.308189,-0.0116388
0.671037,-0.0204412
1.00716,-0.0062804
1.24372,-0.0175939
1.13166,-0.00509434
0.402297,0.0343746
-0.676456,0.0328857
-1.62353,0.0252611
-1.7387,-0.00476523
-0.88378,-0.101723
-0.238828,-0.12166
0.014396,-0.0365544
0.141578,-0.0191591
0.189689,-0.0476381
0.251909,-0.0273971
0.266902,0.0234764
0.194638,0.0359564
0.0684818,0.00380141
0.0756109,-0.0655866
0.198079,-0.0369189
0.178801,0.0231142
0.175149,0.042736
0.150457,0.0436024
0.0216008,0.0124811
0.0620742,0.0206322
0.235244,0.0571148
0.347331,0.0681272
0.388758,0.0570168
0.183127,0.0373053
0.181375,0.0494275
0.292296,-0.0198249
-0.122866,-0.10725
-0.66234,-0.0943481
-0.638901,-0.0181987
-0.41122,-0.0511783
-0.32286,-0.0444534
-0.266882,0.0204387
-0.0842276,0.0708778
0.00850444,0.0492245
0.0341026,0.0206782
0.0626386,-0.0020616
0.104211,-0.0126052
0.188713,-0.024548
0.130149,-0.0194913
0.135584,-0.0214793
0.153764,-0.00377962
0.195368,-0.00635452
0.240127,0.0239211
0.16427,0.0480795
0.145004,0.0346357
0.174694,0.0185383
0.323814,-0.0131007
0.458245,-0.0156243
0.150466,0.0211697
-0.520335,0.041943
-0.554239,0.0212686
-0.250705,0.0113008
-0.2486,-0.0123705
-0.391812,-0.0398163
-0.40425,-0.00299014
-0.233569,0.00731617
-0.0630558,-0.0328563
-0.0330415,-0.0126803
-0.0336123,0.0316526
0.0299844,-0.000232706
0.104655,-0.0638627
0.120758,-0.0361471
0.0775265,0.0176102
-0.0186708,0.0124568
0.0627287,0.015822
0.28533,0.033051
0.312471,0.0362308
-0.0166917,0.027962
-0.357145,-0.00771061
-0.180494,-0.0730082
0.0341573,-0.0941626
0.188156,-0.0529989
0.454364,-0.00225344
0.608866,0.0355396
0.560939,0.0409168
0.0432791,0.0366993
-0.495778,0.018031
-0.553971,0.00318004
-0.356623,0.0109288
-0.284781,0.00456533
-0.286269,-0.00887726
-0.249095,0.00830089
0.101933,0.0162649
0.364753,-0.0148652
0.447707,-0.0117018
0.296544,0.0123669
0.221035,0.000894286
0.0834806,-0.0389243
-0.14812,-0.0740177
-0.171073,-0.117385
-0.254753,-0.0669445
-0.354232,-0.0169476
-0.234945,0.0429131
0.0123696,0.0586861
0.166523,0.058762
0.262394,0.0428161
0.214242,0.025604
0.164463,0.0318546
0.0977558,0.0325164
-0.135936,0.0365195
-0.251903,0.0367601
-0.257812,0.00559005
-0.223045,-0.0425892
-0.00295728,-0.0102717
0.115686,0.00460087
0.00622578,-0.0265243
-0.00399382,-0.015176
0.123705,0.0298345
0.107518,0.0701622
-0.0341474,0.0397786
0.0606027,-0.0238886
0.108409,-0.0447628
0.082015,-0.0241667
-0.00118233,-0.0126375
-0.161733,-0.017908
-0.199588,-0.0112787
-0.07276,0.0033637
0.0680713,0.0237434
0.252829,0.0235579
0.265083,0.032422
-0.090343,0.00713049
-0.364482,-0.0206818
-0.153771,0.0172127
0.0679771,0.0238695
0.198081,0.011248
0.275932,0.0062047
0.213664,-0.0127733
0.136637,-0.0424691
-0.110144,-0.0310408
-0.324086,-0.0315071
-0.187416,-0.0380868
0.0956283,-0.0595622
0.282144,-0.0211243
0.146278,-0.0334926
-0.23097,-0.00287073
-0.393351,0.0433246
-0.254312,0.0154504
-0.0751802,0.00727893
0.128176,-0.0144828
0.168416,-0.0184944
0.0328512,0.0145297
-0.130818,0.0513838
-0.143688,0.0474702
0.0214889,0.0248535
0.209237,0.0250738
0.402775,0.0582163
0.407594,0.0178555
0.227297,-0.0631478
-0.0656865,-0.0487435
-0.500321,0.0340848
-0.652928,0.0114453
-0.402879,-0.0116535
0.294625,-0.0359058
0.906995,-0.0411018
1.0718,-0.0495158
0.609598,-0.0548362
-0.423728,-0.00603961
-0.919241,0.018835
-0.845607,0.0211894
-0.62773,0.0438959
-0.287122,0.0473408
0.0479093,0.0340863
0.29313,0.0195879
0.293408,0.00630731
0.0330419,0.00809269
-0.348993,0.0226806
-0.302241,0.0154649
-0.0393192,0.00928669
0.180471,0.0119092
0.261024,-0.00405209
0.160747,-0.0222821
-0.10736,-0.0347141
0.0413114,-0.06507
0.373886,-0.107037
0.638597,-0.0658155
0.734804,0.0607209
0.367475,0.0747569
-0.29875,0.0373118
-0.840482,0.0457767
-0.661107,0.000414461
-0.207968,-0.0901462
-0.106189,-0.0578305
-0.0055977,-0.0367849
0.11487,-0.0155994
0.203215,0.0164501
0.0349004,0.0472279
-0.208736,0.0503668
-0.30256,0.0407414
-0.206292,0.0358662
-0.005767,0.0344121
0.0932119,0.037538
0.131083,0.0521593
0.107491,0.0431296
0.0134333,0.0118352
-0.0489976,-0.0345029
-0.0251677,-0.0562449
0.415568,-0.0344105
1.53642,-0.0414072
2.0511,-0.0536721
1.40134,-0.0475597
-0.602212,-0.0418305
-1.96876,0.0154215
-1.46295,0.0679925
-0.8769,0.0455208
-0.542625,0.0137931
-0.20594,-0.0518208
0.0405871,-0.0353385
0.111386,0.0271288
0.0589073,0.016802
0.0140704,-0.014303
-0.0586685,-0.0119431
-0.297805,0.0128665
-0.244166,0.0184218
0.0121844,0.00505479
0.119219,0.0141605
0.123315,0.0223189
0.109896,-0.0152391
0.0681394,-0.0185266
0.0455163,-0.012778
0.0525551,-0.0500056
0.0949598,-0.0984586
0.253584,-0.0514761
0.451776,0.0626722
0.495718,0.0663263
0.229853,0.0209449
-0.144177,0.0031215
-0.304194,0.0145718
-0.185765,0.00617699
-0.0321594,-0.0171182
0.00392108,-0.0244881
-0.0747995,-0.00625573
-0.199933,-0.00366738
-0.0527039,0.0395187
0.214168,0.0496409
0.182649,0.0199916
-0.014338,0.0131132
-0.13322,-0.011358
-0.0733765,-0.00272986
0.0661842,0.00275079
0.158852,0.00435283
0.12152,0.00295916
0.00282114,-0.00372535
-0.110929,0.013958
-0.144669,0.0234532
-0.0951842,0.00781401
-0.0400959,0.000516429
-0.0486604,-0.0118779
-0.110536,-0.0240326
-0.0761317,-0.00533666
0.0859152,0.011115
0.211773,0.0102114
0.294457,0.00172336
0.167893,0.00848205
-0.0614533,-0.0182773
-0.235612,-0.0313366
-0.217122,0.015491
0.00289527,0.0346901
0.0210016,-0.0044382
-0.0315444,-0.0289467
0.00377617,-0.0358708
0.0564193,-0.03513
0.0333611,-0.0204248
-0.048407,-0.0255463
-0.104619,-0.0299936
-0.0875645,-0.0400128
-0.0579341,-0.0434504
0.00661945,0.0384509
0.157372,0.0817747
0.193633,0.0738245
-0.0384644,0.0578833
-0.036742,0.0351577
0.30174,0.0160342
0.621174,-0.00345834
0.487234,-0.00838913
-0.0233385,-0.0205824
-0.574217,-0.00577619
-0.879929,-0.0300261
-0.561164,-0.121564
-0.303449,-0.0816785
-0.19122,0.0255481
-0.11116,0.0484179
-0.0388696,0.0231793
0.0544712,0.018988
0.131728,0.0241016
0.203547,0.0245891
0.320776,-0.00255278
0.374866,-0.0229778
0.181266,-0.0219521
-0.0333099,-0.0259755
-0.0560793,0.00153739
0.0473757,0.0494062
0.166576,0.0457162
0.104697,0.0334408
-0.00350661,0.0334754
-0.238347,0.0324503
-0.316584,0.0149447
-0.138891,-0.00233992
-0.0895763,-0.0161246
-0.0202458,-0.0191031
0.228793,-0.00890514
0.441599,-0.0332099
0.485441,-0.099202
0.236499,-0.114364
0.08342,-0.0423269
0.194773,0.0217272
-0.121655,0.028181
-0.244685,0.00895159
-0.332683,0.0154716
-0.488565,0.0311996
-0.382499,0.0606315
-0.0174516,0.0747786
0.350819,0.0612245
0.413686,0.00398685
0.135701,-0.0447764
-0.293061,-0.0340401
-0.623563,0.00643568
-0.606514,0.0165903
-0.226616,0.00152676
0.133045,0.00352041
0.217353,-0.0265312
0.141617,-0.0910914
0.296167,-0.00713651
0.800524,0.0388075
1.04856,0.0256084
0.837033,-0.00520898
0.0501087,-0.00892611
-0.573082,0.0384838
-0.816726,0.0299815
-0.735155,-0.0118402
-0.195878,-0.0154859
0.0239848,-0.0582915
-0.0518214,-0.0576046
-0.194412,-0.00362132
-0.151048,0.0055055
-0.249682,0.0299155
-0.350856,0.0342385
-0.246467,0.0247521
-0.0164603,0.0239441
0.111301,0.00879696
0.141983,0.0134597
0.136333,-0.0157831
0.175341,-0.0402812
0.259047,0.00218663
0.349823,0.0156687
0.477943,-0.00901115
0.35188,-0.00426515
0.0779264,0.0171972
-0.164262,-0.0164323
-0.255628,-0.0631901
-0.0871572,-0.0556556
0.0281895,-0.0284201
0.00903003,-0.00511333
-0.0193457,0.0477898
-0.135297,0.0930145
-0.136844,0.0522255
0.11936,-0.00964952
0.288898,0.0116312
0.272547,0.0543832
0.000223421,0.0346427
-0.294301,-0.0210344
-0.253378,-0.0419296
-0.253335,-0.0513814
-0.249211,-0.058046
-0.144385,-0.0603888
-0.0433913,0.00407044
0.0120608,0.0366103
0.0148052,0.0240152
-0.00986064,0.00564297
0.122368,0.0243129
0.391921,0.0309288
0.635025,0.0192328
0.687523,-0.00512116
0.374599,-0.0230251
-0.263939,-0.00594717
-0.765111,-0.00249523
-0.724157,-0.0271651
-0.3096,-0.00293358
0.0701394,0.019635
0.478661,0.021552
0.642213,0.0174139
0.218953,-0.00382685
-0.500764,-0.00824546
-0.605348,0.00850008
-0.187992,0.0181913
-0.0925034,0.0175508
-0.224947,0.02193
-0.270885,0.0186165
-0.141714,0.00385003
0.00708923,-0.0190998
0.227071,-0.0476861
0.30413,-0.0455551
0.270141,-0.00470214
0.0276065,0.0157805
-0.276291,-0.0229237
-0.233571,-0.0269646
-0.101045,-0.0178783
0.01967,-0.00843494
0.254456,-0.0159929
0.513108,-0.0250581
0.54999,0.0107939
0.233756,0.00836403
-0.0889027,-0.0252051
-0.0439631,-0.00978308
0.168397,0.0187408
-0.0448088,0.0470574
-0.565605,0.0660611
-0.33327,0.0680102
0.51681,0.0563147
0.706013,0.0229777
0.27653,-0.0570116
-0.329968,-0.0888889
-0.579201,-0.064713
-0.376514,-0.0445983
-0.256275,-0.00821795
-0.0680117,0.031743
0.125267,0.0270434
0.130003,0.0244549
0.016854,0.0265525
-0.091887,0.034996
-0.330998,0.0225296
-0.445721,0.00279239
-0.265226,0.00119052
-0.0919203,0.00988382
0.0171369,-0.0191791
0.0794381,-0.0349859
0.119247,-0.00334683
0.13639,0.00342322
0.270399,0.00829393
0.474134,0.0260121
0.452889,0.00566216
0.154359,-0.00308269
-0.209123,-0.0201101
-0.194878,-0.0473354
0.146856,-0.0396336
0.0455911,-0.03017
-0.218431,-0.0303192
-0.147161,0.0323461
0.148857,0.0112541
0.247565,-0.0291531
0.0288438,0.0114137
-0.0781328,0.0345063
0.038672,0.0187447
0.137844,-0.0103515
0.0146992,-0.016111
-0.305631,-0.017735
-0.284122,-0.00535415
-0.0371178,-0.0132816
0.0649499,-0.0141894
0.0294789,0.0508127
-0.0947449,0.0676571
-0.138295,0.0351274
-0.155741,0.0203054
-0.0948606,0.0433438
0.0746159,0.0462338
0.186464,0.00278392
0.163409,-0.039606
0.135197,-0.0466612
0.0915262,-0.0328674
0.0875852,-0.00470794
0.0433943,0.0123552
0.0355485,0.0102884
0.0208291,0.0052576
-0.064875,0.00176062
0.0238413,-0.0191813
0.138198,-0.0212267
0.0977733,0.0236628
0.0187789,0.0324047
-0.141277,0.00243372
-0.247912,-0.0807047
-0.208803,-0.0675263
-0.0911074,0.0221847
0.0719384,0.0139506
0.101655,-0.000413553
-0.0871807,0.0137053
-0.20395,0.0191145
-0.208772,0.0147043
0.00583455,0.00987008
0.249704,0.00153946
0.263685,-0.00857767
0.0296859,0.000249755
-0.345527,0.0148031
-0.330458,0.00173369
-0.00622974,0.00443887
0.236185,0.0273167
0.223662,0.0241631
0.221832,0.0121277
0.54042,-0.0131097
0.759569,-0.0497773
0.638201,-0.0767276
0.0780998,-0.121067
-0.512862,-0.103844
-0.814351,0.0625921
-0.799232,0.061891
-0.364056,-0.00484803
0.109173,0.0275036
0.240157,0.0367609
-0.111168,0.0022797
-0.550087,-0.0118194
-0.398065,0.0139815
-0.107456,0.0239456
-0.0133072,0.0120205
0.04106,0.0233277
0.0991143,0.0227222
0.317447,0.0305488
0.752125,0.0193821
1.00512,-0.00997853
0.879506,-0.0236967
0.116221,-0.0173858
-0.772383,-0.0464995
-1.00208,-0.00377444
-0.613043,0.0414559
-0.210497,0.00128749
-0.154809,0.000393043
-0.0749495,-0.00782877
0.110148,-0.0155455
0.223256,0.0107624
0.431701,0.0217589
0.534512,0.0164634
0.398365,0.00905479
-0.0581034,0.00812253
-0.478627,0.00256305
-0.57045,0.00826593
-0.483715,0.000386059
-0.23207,-0.0215389
0.0887254,-0.00875289
0.267678,-0.0022916
0.209785,0.000291843
0.118577,0.00726437
0.119248,0.0168732
0.120338,0.0157766
0.144852,-0.0175183
0.218822,-0.0206149
0.128364,0.00940817
-0.0627971,0.00429017
-0.193907,0.00258874
-0.1702,0.0264992
-0.0541113,0.013489
-0.0495645,-0.0404312
-0.171716,-0.0290854
-0.171408,-0.0294493
-0.0221682,-0.0359965
0.118846,0.0100394
0.178266,0.0246434
0.203549,0.0243294
0.196629,0.0239745
0.165,-0.00187322
0.101599,-0.0259429
-0.0378072,-0.0226778
-0.14092,0.00909679
-0.162275,-0.0288985
-0.200579,-0.0282905
-0.154011,0.0169185
0.0565613,0.0121512
0.302009,-0.0279986
0.287933,-0.016377
0.135589,-0.0197757
0.226894,-0.0352027
0.307536,-0.02734
0.41749,0.0271096
0.208446,0.0968126
-0.147453,0.0430397
-0.219497,-0.029859
-0.481036,-0.0209777
-0.579763,-0.00656896
-0.449654,0.00748101
-0.277387,0.0186319
-0.134751,0.0242229
-0.136585,0.0269688
-0.276119,0.0172429
-0.221791,0.00553927
-0.0818541,-0.0107203
-0.0641213,-0.0102813
-0.0843036,-0.00126288
-0.050871,-0.00655679
0.0889937,-0.0161933
0.234532,-0.0206856
0.256602,0.00399233
0.201747,0.0295054
0.175347,0.0157126
0.229231,0.0174421
0.413577,0.015599
0.625828,-0.0259724
0.671811,-0.028339
0.456235,0.000698222
0.107636,0.0138691
-0.103039,0.024364
-0.315589,0.03246
-0.750444,0.0336169
-0.897206,-0.00795948
-0.689364,-0.0623013
-0.357694,-0.0235108
-0.0683458,0.0135
0.0750107,0.0095401
0.0728392,0.00629712
0.0449498,0.000630096
0.0517761,-0.0139709
0.056147,-0.0429451
0.0626283,-0.0290314
0.0168026,0.0127351
-0.0720152,0.0269822
-0.0856357,0.0310678
0.00300145,0.0244524
0.498781,0.00887877
1.4379,-0.0551383
1.91328,-0.0816434
1.69042,-0.0263402
0.374296,0.00886832
-0.91565,0.00475145
-1.3448,0.0350987
-1.76413,0.0515008
-1.46121,-0.0140779
-0.738494,-0.0372602
-0.206937,-0.0223923
0.0599302,-0.019927
0.143242,0.0153079
0.151773,0.023579
0.0391312,0.015417
-0.0844261,0.0209307
-0.144569,0.0172144
-0.145401,0.000536703
-0.0814444,-0.0169408
-0.0444588,-0.0275161
0.0139608,0.00617256
0.131723,0.0365604
0.293376,0.031204
0.525065,0.00392585
0.655346,-0.0248766
0.636402,-0.0175961
0.425572,0.0161495
0.202892,0.0141101
0.176887,-0.00395974
0.00212315,-0.00471137
-0.179071,0.00398162
-0.221873,0.00218889
-0.24801,0.00656059
-0.369724,0.0111995
-0.4029,0.00786753
-0.37896,0.00709804
-0.320056,0.0212264
-0.136204,0.0299177
0.0149216,0.0181497
0.102053,-1.39e-05
0.154904,-0.00887826
0.109808,0.00480379
0.0407481,-0.0018052
0.109373,-0.0272628
0.283666,-0.0475129
0.285735,-0.00209567
0.0539176,0.00259042
-0.158383,-0.0283947
-0.222754,-0.0317429
-0.157545,-0.00494696
-0.0602495,0.00431389
-0.0183274,-0.00806594
0.0166801,-0.00617549
0.0237428,0.0101549
0.0714614,0.00231636
0.187204,-0.00616844
0.309211,0.0125075
0.452398,0.0226335
0.368963,-0.0324774
0.175352,-0.072084
-0.160119,-0.0841084
-0.350363,-0.0342569
-0.263351,0.017482
-0.293564,0.0458231
-0.31726,0.0267468
-0.366413,-0.0245759
-0.302703,0.0222276
-0.0146521,0.0430978
0.109489,0.0171789
0.000579446,0.0117358
-0.218939,0.0287306
-0.160418,0.0256441
0.167654,0.016021
0.470812,0.0113552
0.816378,0.0175245
1.08985,0.0222603
0.88485,0.0252663
0.125573,0.0105945
-0.942535,-0.00628778
-1.31115,-0.0182181
-0.729056,0.00838613
-0.243541,0.022286
0.101486,-0.00809611
0.20373,-0.0371346
-0.0537052,-0.0315669
-0.29503,-0.0208003
-0.248091,-0.0135934
-0.0529439,-0.0134049
0.08707,-0.0390092
-0.00675891,-0.0243646
-0.0797849,0.0318524
0.0912902,0.023425
0.214744,0.016171
0.196502,0.0224269
0.119709,0.0168021
0.0431934,0.00842409
0.0476491,-0.0231389
0.0195289,-0.0598379
-0.0117503,-0.0058988
0.0412107,0.0283215
0.102969,0.0117023
0.0371498,0.00534722
-0.0865856,0.00110576
-0.124852,0.00355133
-0.0426243,0.0132804
0.366801,0.0106747
0.888952,0.00138058
0.835279,0.00557529
0.158143,0.0175357
-0.578315,0.0294805
-0.631396,0.0158917
-0.262792,0.00356748
-0.102697,-0.00530493
-0.163814,-0.0295723
-0.164282,-0.0498338
0.0903805,-0.0292049
0.250513,-0.00312938
0.282447,-0.0155202
-0.0103141,-0.0350464
-0.518341,-0.0166126
-0.575745,-0.00771878
-0.306953,-0.00549579
-0.0632427,0.0135564
0.0625518,0.0203353
0.0195848,0.0239047
-0.0120965,0.0138569
0.10627,0.0267538
0.161145,0.00513573
0.103706,-0.022948
0.0915213,-0.0222785
0.0632943,0.0139782
-0.0114488,0.021078
0.0139027,-0.00320232
0.093783,-0.00997857
0.46889,-0.0240556
0.891859,-0.010458
0.858071,0.00616057
0.285265,0.0138314
-0.729581,0.026449
-1.00807,0.0208912
-0.64747,0.0128091
-0.3614,0.00687789
-0.211396,0.00799578
-0.0867479,0.0162625
0.151581,-0.0031344
0.311289,-0.03084
0.0928053,-0.0078683
-0.0881823,0.0155031
-0.0780043,0.0191294
-0.0742498,0.0242365
-0.0718525,0.017783
-0.0441005,0.00639448
-0.0551362,-0.0217705
-0.0582299,-0.0320542
-0.0529426,-0.0304506
0.0065947,-0.0122719
0.0468554,0.000348136
0.0346004,0.0115652
0.112865,0.000259437
0.177782,-0.0169363
0.189524,-0.0131302
0.143878,-0.0163476
0.13972,-0.00141302
0.275409,0.0110926
0.587915,-0.00342817
0.686939,-0.00290674
0.308086,-0.00763825
-0.456555,-0.011927
-0.905176,-0.0481546
-0.617198,-0.0294994
-0.208857,0.0486834
-0.149523,0.0681531
-0.161419,0.0332304
-0.132382,0.0154163
-0.0526502,0.0099476
0.00355269,-0.0059284
0.00744075,-0.00299666
0.131998,-0.0165652
0.298749,-0.0961995
0.445868,-0.0963179
0.348358,0.0326934
0.00963904,0.0862023
-0.192514,0.0420734
-0.138148,0.00149933
-0.0729764,-0.006178
-0.228334,-0.00395594
-0.251441,-0.0034595
-0.107269,0.00590774
-0.0232968,0.0109786
-0.00567762,0.0135564
-0.0165243,0.0124994
-0.0917003,-0.00134529
-0.035695,-0.000930735
0.101752,0.0124317
0.246127,-0.00238842
0.263948,-0.0172877
0.259752,-0.0138793
0.201383,0.0113673
0.0129322,0.0243598
-0.0950243,0.0186729
-0.232085,0.0132806
-0.258331,0.00455456
-0.0706476,-0.0413539
0.0252408,-0.0570835
0.00607944,-0.00411634
-0.0409218,0.000814971
0.0841368,-0.00348215
0.205674,0.0201648
0.125885,0.0102233
-0.0678002,-0.0121642
-0.165804,-0.019173
-0.0661004,-0.0455431
-0.0758212,-0.0198749
-0.152143,0.0196169
-0.114505,0.0393938
-0.0817494,0.036717
0.0352519,0.0234603
0.264912,0.0202306
0.310628,0.00776331
0.153764,-0.0134499
-0.0943762,-0.0198423
-0.110418,0.00184751
-0.0457512,-0.00623626
-0.0376352,-0.018324
0.201576,-0.0010506
0.302143,0.00221914
0.100409,0.000624777
-0.235396,-0.00395621
-0.39355,0.00634358
-0.200618,0.0228375
0.0221759,0.0113244
0.0907396,-0.00295716
0.0536981,0.0164743
0.0308364,0.022081
0.11248,0.00952451
0.0740226,-0.00554063
-0.130679,-0.0167132
-0.327868,-0.015667
-0.175876,0.00920656
0.107597,0.0556796
0.0969603,0.0386746
-0.102612,-0.0113369
-0.143415,-0.0345086
-0.011247,-0.0185593
0.0768725,0.0190009
0.19173,0.00543052
0.325599,-0.0245641
0.395174,-0.0287656
0.299026,-0.0336431
-0.0688567,-0.100683
-0.441972,-0.143034
-0.254736,-0.00168937
0.123085,0.0696278
0.235041,0.0261221
0.102715,-0.000472957
-0.101186,0.0173775
-0.166519,0.02462
-0.230787,0.00511143
-0.226732,0.00492254
-0.16473,0.0374694
-0.0667367,0.0357686
0.025778,0.00757876
0.0327062,0.00664325
0.00449012,0.0223115
0.0759617,0.0328053
0.244488,0.0310624
0.300414,0.020859
0.131345,0.0205037
-0.0821815,-0.0140448
-0.359815,-0.0283747
-0.330326,-0.0237452
-0.0573247,-0.0533562
0.105114,-0.0948589
0.128368,-0.0243807
0.0650651,0.00029918
0.0054494,0.00123024
0.0850989,0.0101396
0.184986,0.0158525
0.172797,0.0246135
-0.045984,0.0270468
-0.180555,0.0255679
-0.131496,0.0137967
-0.0786569,0.0188849
-0.0576932,0.0301692
0.015136,0.0213782
0.050429,0.0128988
-0.0283544,-0.00842031
0.0664435,-0.0525557
0.253812,-0.115376
0.499507,-0.0710484
0.565797,0.0229326
0.202447,0.0468303
-0.253082,0.0376924
-0.58756,0.0382557
-0.465159,0.0104906
-0.12365,-0.015149
-0.016638,-0.00368354
0.0297554,0.00774502
0.109369,-0.000107181
0.136737,-0.0225794
0.0728802,-0.0246358
-0.182725,-0.00636476
-0.450399,0.00902478
-0.308702,0.0211683
0.21447,0.027316
0.456453,0.0270353
0.283744,0.0160774
-0.140495,0.00295158
-0.436351,0.00933002
-0.228907,0.0320062
0.00733158,0.0249416
0.062897,0.0118327
0.0649695,0.00969047
0.0762849,-0.00902603
0.0618843,-0.0276933
-0.00149144,-0.026534
-0.0468639,-0.0298148
-0.0526708,-0.0243368
-0.0635068,-0.0206985
-0.0409628,-0.0366518
-0.00702373,-0.00429204
0.0563393,0.00766728
0.0795396,-0.000452662
0.0500335,-0.000261072
0.0276075,-0.00179916
0.0408669,0.00813751
0.0912738,0.0215641
0.161685,0.0222306
0.183283,0.000305077
0.202589,-0.0243732
0.205355,-0.014033
0.30814,0.0107995
0.360125,0.0275635
0.0598989,0.0364122
-0.403365,0.00175433
-0.631875,-0.0341971
-0.537973,-0.00417468
-0.192904,0.0147271
0.0920219,0.0214684
0.17426,0.0262686
0.167244,0.0125383
0.173605,-0.029064
0.1294,-0.0535989
-0.0406947,0.00112494
-0.280298,-0.00281648
-0.425222,-0.0151002
-0.183282,-0.00319848
0.111759,-0.0143641
0.202987,-0.0433733
0.0918978,-0.0316574
-0.0952955,0.0124725
-0.105608,0.00901142
0.0188221,-0.0316231
-0.00734366,0.00393485
-0.0625913,0.0382354
0.0764981,0.0459697
0.212124,0.0524
0.277142,0.0313024
0.197759,0.00213586
-0.0220937,0.00586424
-0.141043,-0.0132809
-0.220579,-0.0218093
-0.21919,-0.0135957
-0.155047,-0.000312829
0.000827679,0.00385603
0.125959,0.00703841
0.225583,0.0252473
0.386826,0.0168245
0.354054,-0.0226872
0.167094,-0.0277361
-0.244737,-0.00650386
-0.645515,0.00251714
-0.347567,0.00412165
0.0313389,-0.000406687
0.163361,-0.00914925
0.177741,-0.0224696
0.199459,-0.0105794
0.175996,0.00574289
0.108915,-0.00792101
-0.064831,-0.00416899
-0.354752,0.0165527
-0.389706,0.0124228
-0.170008,0.0216067
0.0118445,0.00108838
0.146976,-0.0145647
0.200964,-0.0210646
0.153917,-0.0154691
0.105607,0.00964994
-0.041385,0.0158001
-0.188022,0.00359005
-0.146413,-0.00400348
-0.0185895,-0.000135078
0.0481162,0.00179647
0.0693338,0.00380566
0.033898,0.00208929
-0.000653425,0.00581823
0.0364344,0.0149566
0.0300612,0.0150437
0.00178973,-0.026914
-0.0496783,-0.040791
-0.00639643,0.0102844
0.202698,-0.00580466
0.279209,-0.016673
0.126782,0.0273815
-0.147482,0.0147316
-0.224057,-0.0283128
0.0339777,-0.065173
0.186933,-0.00710537
0.146614,0.0365146
-0.0647029,0.0483601
-0.107635,0.0451776
0.027522,0.0382275
0.055371,0.0334965
0.065982,0.0432719
-0.18663,0.00956691
-0.168427,-0.0248024
0.0410032,-0.0214247
-0.0288645,-0.0159375
-0.211137,-0.0211103
-0.323198,-0.031498
-0.202612,-0.0160058
0.0209563,-0.011973
0.244598,-0.0237269
0.292643,-0.0165312
0.130807,0.0110612
-0.149218,-0.00267696
-0.26362,-0.0193533
-0.120053,0.004898
-0.0454412,0.00104318
-0.0342326,-0.00873506
-0.0211524,-0.00139763
0.0230875,0.00649986
0.0891112,0.0136699
0.141051,0.0226809
0.132027,0.0172205
0.177145,-0.00722216
0.209561,-0.0116794
0.158267,0.00260429
0.187611,0.000479134
0.0495972,0.00192733
-0.107945,1.79e-06
-0.116332,-0.0217568
-0.148749,-0.0176397
-0.0464042,-0.0139681
0.0725828,-0.0228271
0.0721785,-0.00516321
0.164036,0.0227307
0.274292,0.0305097
0.0996663,0.0261329
-0.30638,0.00541918
-0.501375,-0.00415514
-0.37736,0.00389808
-0.211436,-0.00153199
-0.181662,-0.00705184
-0.070153,0.00562797
0.161031,0.0163378
0.310085,0.0141348
0.336118,0.00874848
0.174986,-0.0064022
-0.150219,-0.0459719
-0.238331,-0.0604801
-0.108121,-0.00985413
-0.0415046,0.0213277
0.016285,0.0205799
0.265495,0.0103402
0.49658,0.0106416
0.41209,0.0173023
-0.0689191,0.0200359
-0.542399,0.0123109
-0.484268,0.00418524
-0.191525,0.00331222
-0.0258057,0.00395382
0.00233592,0.010161
0.0221838,0.0120467
0.100814,-0.00409899
0.162256,-0.0145527
0.15717,0.00491173
0.0555683,0.00552021
-0.0993407,-0.00213965
-0.147869,0.00875827
-0.0876251,0.0193173
-0.0400103,0.0160744
-0.0002446,0.0105305
0.106193,-0.00507689
0.270004,-0.00819272
0.266821,-0.0310734
0.0818271,-0.054602
-0.173549,-0.0529311
-0.204534,-0.0246064
-0.0586099,0.0007268
0.0021547,0.0240855
0.0354602,0.0128523
0.15607,-0.0045583
0.311474,-0.012569
0.330289,-0.0224282
0.281878,-0.0221856
-0.0679018,-0.00628694
-0.381645,0.0113231
-0.440207,0.0185178
-0.440841,0.0285191
-0.264473,0.0284504
-0.16014,0.0127972
0.00795422,-0.000881492
0.312175,0.023211
0.6927,0.0229705
0.736259,-0.00378759
0.348182,-0.0318525
-0.281875,-0.0365606
-0.71038,-0.00590778
-0.536316,0.0236986
-0.148963,-0.00171468
-0.108368,-0.0249399
-0.262482,-0.0242514
-0.223966,0.00880088
-0.0538414,0.0116063
0.0628048,0.00741851
0.082475,0.0162062
0.0690013,0.0241682
0.0498628,0.0152203
0.0642191,0.00196421
0.114115,0.000214723
0.144358,0.00423434
0.149142,0.00744218
0.0890304,0.0122416
0.0360297,0.0057707
0.0497864,0.000749828
0.10603,-0.0030534
0.196485,-0.0113185
0.152926,-0.00417904
0.0940374,0.0125724
0.16287,0.00690487
0.145775,-0.00925739
-0.022565,-0.016066
-0.226385,-0.00104058
-0.291748,0.00919507
-0.234203,-0.0111792
-0.0824752,-0.037777
0.00484423,-0.0222561
-0.0958407,0.0128713
-0.237569,0.0145636
-0.190005,0.0108319
-0.041594,0.00625974
0.00137191,0.00221653
0.00188,0.000473021
0.105346,-0.0105807
0.296314,-0.0162316
0.350082,-0.00498536
0.1606,0.0107301
-0.164125,0.00948989
-0.200091,-0.0076799
-0.0649347,-0.0338009
0.0675941,-0.0433231
0.120249,-0.00771294
0.0826302,0.0172385
0.121276,0.00643715
0.171711,0.00645191
0.141054,0.00718639
-0.0292978,0.00788093
-0.0842908,0.0227768
-0.118955,0.00986171
-0.181028,-0.0173178
-0.239658,-0.0040252
-0.166432,0.0076657
-0.0245092,0.00491648
0.02166,0.00347826
-0.0225404,0.00340435
-0.0901161,0.00613546
-0.0708873,0.00980303
-0.0285696,0.0229696
0.00354615,0.0123376
0.0595153,0.0096694
0.0767974,0.0115302
0.0297842,0.00226447
-0.0285188,-0.00544633
-0.0411597,-0.00880246
-0.00417185,-0.0197271
0.0236061,-0.0283067
0.0319878,-0.0143353
0.0325997,-0.00942059
0.0584405,-0.0116553
0.246197,-0.0105278
0.462494,-0.00896755
0.37756,0.00810371
0.0917401,0.011573
-0.175175,0.0135329
-0.214683,0.00697551
-0.181006,0.000895195
-0.264926,0.00346287
-0.303883,0.00598798
-0.140533,0.0110558
-0.00583118,0.0152874
0.0380898,0.0119396
0.0133708,0.00600964
-0.024168,0.00520225
-0.0151178,-0.000589385
0.0119256,-0.00488854
0.018246,-0.00123672
-0.0022897,0.00111659
-0.00264129,-0.0112888
0.0177046,-0.00642447
0.013198,0.0238802
-0.00491521,0.0266842
0.00889354,-0.00122091
0.019582,-0.0356907
0.0197277,-0.0341984
0.0555321,0.00520432
0.12348,0.0142292
0.274549,0.00299013
0.331564,5.75e-06
0.143207,0.00375872
-0.146599,0.00269712
-0.294811,-0.00841846
-0.170879,-0.0152813
-0.110778,-0.0124082
-0.172251,0.00121143
-0.131564,0.00424217
-0.0254197,0.0136238
0.00270323,-0.0166407
-0.0296547,-0.0332389
-0.0425506,-0.0450665
-0.0239881,-0.0316307
0.00765,0.0206831
0.0197123,0.034771
0.0224281,0.025299
0.073356,0.0196645
0.119895,0.0193005
0.170193,0.022792
0.221727,0.0114473
0.17914,0.0118113
0.0825365,-0.00431893
-0.0747085,-0.0284138
-0.0492679,-0.0439153
0.159192,-0.0254514
0.242576,-0.00377604
0.0248921,0.0162434
-0.186775,0.000779957
-0.256191,-0.0303942
-0.257877,0.00585043
-0.233398,0.0311771
-0.176362,0.0215362
-0.107325,-0.00353529
-0.0127595,-0.0121591
0.0514983,0.0125332
0.0163787,0.0246191
-0.0609666,0.010478
-0.0329898,-0.0149638
-0.0290321,-0.00189675
-0.0337247,0.0189088
-0.00284519,0.0218126
0.0341253,0.0186158
0.0692818,0.0155676
0.14285,0.011383
0.239445,0.010441
0.264285,0.0121114
0.173882,-0.00131496
-0.0319211,-0.000674806
-0.202681,-0.0116454
-0.165836,-0.0184866
-0.0633795,-0.0112099
0.00498903,0.00786507
0.0328394,0.00426189
0.0400488,-0.0174227
0.0583065,-0.0423641
0.0333465,-0.0213497
-0.0362851,-0.0128472
-0.0690342,-0.0202888
-0.0811695,-0.0213669
-0.0298705,-0.0202236
0.12564,-0.0260237
0.200269,-0.0423245
0.174214,-0.0624021
0.0438994,-0.091368
-0.132527,-0.0799011
-0.165452,0.00426563
-0.119176,0.0548154
-0.126811,0.0649911
-0.10259,0.0519329
-0.017283,0.0259636
0.159326,0.0245385
0.255173,0.0378696
0.159946,0.0385891
-0.110531,0.0167588
-0.358412,0.0249457
-0.244328,0.0381737
-0.0840199,0.0395854
-0.0160604,0.0301917
0.00476075,0.0175967
0.00861051,0.0192147
0.0154647,0.0198778
0.0409399,0.0161515
0.13139,0.0141231
0.207908,0.0216434
0.172953,0.0162788
0.158189,0.00385026
0.255437,-0.0161131
0.300731,-0.0279821
0.239315,-0.0298408
-0.105915,-0.0213547
-0.452104,-0.00655149
-0.362742,0.00285908
-0.17196,-0.00939699
-0.0988786,-0.0188519
-0.0252099,-0.0147094
0.039786,-0.0097085
-0.0125633,0.000592959
-0.132629,0.012097
-0.195803,0.0170724
-0.0237743,0.0171927
0.159646,0.0101688
0.236716,-0.000104107
0.130914,-0.0131517
-0.110114,-0.0231342
-0.193132,-0.0269425
-0.204543,-0.0245956
-0.121712,-0.0197488
-0.0114988,-0.0170485
0.0775073,-0.0144882
0.0997804,-0.00829246
0.0810855,-0.0044479
0.0652022,-0.0103452
0.0717247,-0.00445715
0.0992889,0.0124365
0.094333,0.0157476
0.0354114,0.00645901
-0.00882345,-0.00487143
-0.0238047,-0.0269913
-0.0137493,-0.0114321
0.00476247,0.00445283
0.0571958,-0.0219487
0.188869,-0.0470573
0.230765,-0.0275679
0.119278,-0.00572226
-0.14915,0.009654
-0.290424,0.0146806
-0.156276,0.0111881
-0.0747999,0.00988851
-0.0351868,0.0196389
0.0120167,0.0260785
0.0595672,0.0235119
0.0701628,0.0187815
0.033437,0.0184252
-0.029854,0.0109298
-0.0658279,0.00219203
-0.0602114,0.00960118
-0.0151077,0.00653491
0.00814917,-0.001518
0.00183715,-0.0037276
-0.015724,0.00109466
-0.0158575,-0.00318822
0.00788054,-0.012325
0.0517799,-0.005303
0.0700579,0.00804142
0.0644391,0.00985883
0.0675278,0.00900191
0.0733579,0.0111045
0.0281961,0.00865291
-0.059692,0.0109484
-0.0924643,0.0176602
-0.0837997,0.0255465
-0.0585701,0.0337781
-0.00773247,-0.0214496
0.0125294,-0.092662
-0.00697929,-0.129753
-0.0312108,-0.128548
-0.0254017,-0.0497671
0.0433454,0.00832113
0.0887684,0.0298329
0.0757598,0.041188
0.0990246,0.0409967
0.129504,0.038685
0.101724,0.0302908
-0.0272433,0.025996
-0.18046,0.0374048
-0.172219,0.0449923
-0.108987,0.0411221
-0.0788492,0.0258924
-0.0372596,0.00748168
0.00710453,-0.00243451
0.023298,-0.0105483
-0.00191027,-0.0139457
-0.0467953,-0.0109475
-0.0299782,-0.0127122
0.0306359,-0.0157059
0.0598824,-0.0122748
0.0402488,-0.00241579
0.00851,0.00270272
0.0157203,-0.00175912
0.0601834,0.00152679
0.0892739,0.0066473
0.0596579,0.0117683
-0.0298411,0.026605
-0.0800587,0.0360958
-0.0490382,0.0325974
0.00301533,0.0355723
0.0325005,0.0357839
-0.00940517,0.0233433
-0.0750946,0.0147367
-0.0859787,0.0197262
-0.0383072,0.0181213
0.00983275,0.0141854
0.0480017,0.0153571
0.0796562,0.00836767
0.0773988,-0.00657106
0.0591355,-0.0174616
0.000509247,-0.0204841
-0.0703937,-0.0281482
-0.0786568,-0.0257785
