Comp Ch 3,Comp Ch 4
0.015011,-0.0136367
0.0546971,-0.01934
0.102562,-0.00866562
0.110056,0.0102391
0.195279,0.0271749
0.455757,0.0245728
0.406824,0.0208784
0.0050112,0.014365
-0.292509,-0.00540305
-0.323647,-0.017606
-0.307649,-0.0162379
-0.3203,-0.0178312
-0.166267,-0.0301898
-0.0130416,-0.0119839
0.0418396,0.00737628
0.0945092,0.00856055
0.0596661,0.00375425
-0.0186338,-0.00897843
-0.0574218,-0.0151864
-0.160015,-0.00718706
-0.223064,0.00262988
-0.0874653,0.0125118
0.0648203,0.020061
0.210907,0.015894
0.256195,0.026293
0.163852,-0.00736321
0.153294,-0.0560193
0.112416,-0.0147404
-0.0740961,-0.00505417
-0.28132,-0.012737
-0.225664,0.0119145
-0.00911901,0.0197062
0.15536,0.0107986
0.28743,0.00915843
0.233433,0.00189546
0.109132,-0.00904899
-0.0559849,-0.0177695
-0.225828,-0.006233
-0.124888,0.0349737
0.0484168,0.0403866
0.0481116,0.0239399
-0.206701,0.0168826
-0.215392,0.015284
0.12803,-0.00292109
0.390123,-0.0200193
0.418645,-0.0238815
0.0265656,-0.0408555
-0.508744,-0.0608521
-0.552289,-0.0315239
-0.227193,0.0106703
-0.0326396,0.0178577
0.0285901,0.0126306
0.0483074,0.0151162
0.104188,0.00482349
0.148863,-0.00979488
0.179035,-0.00124348
0.107174,0.0152521
0.0757543,0.0155898
0.23968,0.0161269
0.322918,0.00887912
0.229956,3.87e-05
0.0151333,-0.00656927
-0.304353,-0.0109325
-0.399035,-0.00885025
-0.137604,-0.00379821
-0.145633,0.00704499
-0.220475,0.000196552
0.0636149,-0.0183587
0.288008,-0.00724002
0.139547,0.00372959
-0.127237,-0.00248413
-0.282146,0.0016464
-0.350026,0.0125374
-0.30851,0.0230899
-0.0881832,0.023242
0.0530085,0.0225624
0.094932,0.0215012
0.138712,0.0134791
0.245773,0.00328124
0.513313,-0.0168761
0.648253,-0.0351818
0.482458,-0.0355198
0.0761616,-0.0195367
-0.364365,-0.00294151
-0.365128,0.00478457
-0.0565631,0.0048684
0.0720696,-0.0024183
-0.00725028,0.00311784
0.00847634,0.0132438
0.224746,0.0092092
-0.0474076,0.00262892
-0.732972,0.0179048
-0.846279,0.0333074
-0.360125,0.0187022
-0.0317587,-0.00387903
0.20285,-0.0140824
0.411877,-0.0277043
0.40944,-0.022837
0.213763,-0.0114023
-0.0894855,-0.00420895
-0.311891,-0.00246851
-0.3642,-0.00109048
-0.216246,-0.0110916
-0.0492618,-0.0204885
-0.0181517,0.0229027
0.102507,0.0299697
0.167608,0.0196722
0.273961,0.00185209
0.322023,-0.00994016
0.32406,-0.0108081
0.358806,-0.0184683
0.514679,-0.060051
0.710276,-0.0554673
0.601992,0.00813656
-0.0299835,0.0218461
-0.572173,-0.00389131
-0.441838,-0.0214445
-0.120958,-0.0251473
-0.214236,-0.00585228
-0.531323,0.0405326
-0.65558,0.0608264
-0.675988,0.0188678
-0.498782,-0.0155423
-0.0934779,0.0139533
0.362238,0.0334234
0.643202,0.0107726
0.758499,-0.0145415
0.525292,0.00973946
0.112431,0.0340521
-0.317857,0.00150222
-0.714205,-0.0390043
-0.485327,-0.0251748
-0.0519591,-0.0124583
-0.0469747,-0.0257533
-0.110072,-0.0212932
-0.111026,0.00474573
0.0328985,0.046886
0.211724,0.066289
0.26012,0.0646092
0.250301,0.0274406
0.172083,0.000649383
0.140082,-0.00542315
0.179943,-0.0349236
0.0520312,-0.0289607
-0.187988,-0.00507438
-0.132537,0.013244
0.140698,-0.0365485
0.107416,-0.064477
-0.140631,-0.018973
-0.027282,-0.00183435
0.274691,0.00898328
0.17419,0.00770223
-0.045711,0.0259309
-0.299629,0.0429817
-0.374537,0.0442488
-0.21614,0.0351394
-0.147557,0.0222665
-0.106684,0.00602654
-0.0415161,-0.0113521
0.0373978,-0.0317688
0.125467,-0.0541052
0.150341,-0.0744289
0.0630639,-0.143884
0.00866069,-0.2208
-0.0172624,-0.0784738
-0.0148315,0.0696096
-0.0427564,0.0481143
-0.0215075,0.0212728
0.144996,0.0496691
0.317818,0.0559354
0.281666,0.0606872
0.0874368,0.0705479
-0.178501,0.0831021
-0.129202,0.0661888
0.310613,0.0393932
0.491358,0.0197325
0.117358,0.0249428
-0.100445,0.0272258
-0.0316822,0.0196264
-0.0109411,0.00822217
-0.165222,-0.00117977
-0.360258,-0.0178066
-0.283955,-0.0364593
-0.0731484,-0.0366301
-0.0378125,-0.0436584
0.041832,-0.0296947
0.181652,-0.0128303
-0.00465167,-0.00544384
-0.0699334,0.00493524
0.0644684,0.00231602
-0.1279,-0.0012726
-0.47496,-0.0190023
-0.528855,-0.0613228
-0.219912,-0.0811841
0.0582166,-0.0875965
0.418396,-0.0623681
0.741366,-0.00478067
0.701121,0.0421945
0.0986574,0.0572538
-0.637952,0.0575333
-0.703159,0.0394502
-0.321723,0.0194115
0.0818969,0.0277783
0.340975,0.0308307
0.448738,0.0274032
0.236872,0.0389575
-0.0666335,0.0504402
-0.343748,0.044246
-0.336467,0.0234285
-0.097002,0.0117025
0.0084603,-0.0100432
-0.0500828,-0.0467429
-0.0229302,-0.0104524
0.0607645,0.0258396
0.286995,0.00420344
0.325855,-0.0131954
0.307177,-0.0370097
0.315689,-0.0431194
0.246439,-0.00858057
0.223366,0.00688286
-0.174993,-0.00153639
-0.463841,-0.00400659
-0.434743,0.0113537
-0.44049,0.0325339
-0.30499,0.0272281
-0.0946603,-0.00169646
0.0281828,-0.0492723
0.102646,-0.0357739
0.082088,-0.0200433
-0.00397847,-0.0195692
-0.103356,-0.009072
-0.0105963,-0.00563463
0.142696,-0.00518751
0.300757,-0.00669134
0.417133,-0.00611792
0.444815,-0.00572914
0.298211,-0.0168987
-0.0353665,-0.00301314
-0.431597,0.0201508
-0.382354,0.0251796
-0.153727,0.0214221
-0.115405,0.0160577
0.0284745,0.00996311
0.215706,0.00023763
0.22893,0.00698994
0.0659362,0.0147022
-0.139422,-0.00416607
-0.400225,-0.0193439
-0.329928,-0.0111104
-0.116355,-0.00129639
-0.0832671,-0.0135628
-0.0655928,-0.00609068
0.0574287,0.0148751
0.198481,0.00567974
0.22785,0.00210012
0.179163,0.0143445
0.0831282,0.0248382
0.0649651,0.0126753
0.12799,-0.0193026
0.197907,-0.0481825
0.187927,-0.0239875
0.0696252,-0.00511657
0.0595255,0.00431329
-0.0495888,0.00232036
-0.353148,0.00378865
-0.406736,0.00121462
-0.219876,-0.0264828
0.0564443,-0.0612619
0.282429,-0.0413003
0.263572,0.00725501
0.141435,0.00867425
0.0445509,-0.00622563
-0.0463104,-0.000173058
-0.312063,0.0189753
-0.424184,0.0291565
-0.18976,0.0219818
0.201726,0.020067
0.549049,0.0212869
0.542319,0.0274672
0.136651,0.0314379
-0.304642,0.0182458
-0.298088,0.00538073
-0.121666,-0.0142266
-0.0976824,-0.0165273
-0.299174,-0.013873
-0.328049,-0.0166695
-0.0999765,-0.0296255
0.0502804,-0.0194473
0.206559,0.00631782
0.343509,0.015034
0.373334,0.0134004
0.261236,-0.000900234
-0.10126,-0.0140856
-0.463878,0.0283183
-0.524627,0.0537402
-0.428621,0.0487665
-0.206739,0.0376174
-0.0416379,0.0244072
0.0661059,-0.0154045
0.124143,-0.0374627
0.125718,-0.0362419
0.171918,-0.0214588
0.279266,-0.00928839
0.302318,-0.00236383
0.221281,-0.0167134
0.195141,-0.0159542
0.331103,0.00466648
0.417172,0.0163457
0.16293,0.00191253
-0.0400122,-0.024381
-0.13827,-0.0173364
-0.00379164,0.00286674
-0.0716469,-0.00240743
-0.409251,-0.00258185
-0.44149,0.0165433
-0.163045,0.0156503
-0.0668897,-3.92e-05
-0.170287,-0.0186931
-0.298198,-0.0265071
-0.161807,-0.0133626
0.0177901,-0.00308475
0.0475786,0.00848662
-0.00467461,0.0150355
-0.0702594,0.0183264
-0.0502996,0.0200012
0.0383346,0.00603086
0.0774869,-0.00382264
0.0262146,0.00114499
-0.0168376,0.0138245
-0.00136658,0.0156669
0.0816316,0.0149572
0.224637,-0.00144451
0.343648,-0.0058834
0.287768,-0.00626387
0.095767,-0.00315308
-0.0546749,-0.00781941
0.0248834,-0.0316642
0.273091,-0.0296628
0.46688,-0.0227607
0.359612,-0.00553543
0.0720372,0.00206649
-0.423127,0.00555929
-0.556774,0.0122302
-0.251416,0.0162872
-0.197496,-0.00610629
-0.321608,-0.0387686
-0.271141,-0.0325596
0.0816821,0.005973
0.388795,0.0367105
0.301019,0.0203914
-0.00924547,0.00493126
-0.211189,0.00670877
-0.0828007,0.00456639
0.0236801,-0.0090916
-0.0065712,-0.00543591
-0.128692,0.0084334
-0.202567,0.0122325
-0.202815,0.0151746
-0.0521349,0.0102217
0.0254295,-0.00182643
-0.0143054,0.00198217
-0.0445398,-0.00516398
-0.025539,0.00125692
0.0545998,0.0207294
0.121352,0.0205062
0.0997637,0.00905912
0.0421351,-0.00434992
0.0672,-0.00290062
0.11025,0.00197397
0.173499,0.0137628
0.159857,0.013489
0.100527,-0.000266132
0.171961,-0.0146984
0.291449,-0.0113311
0.285639,-0.00995698
0.259125,-0.0253981
0.0019307,-0.0281374
-0.202937,-0.000850337
-0.114642,0.0143984
-0.0858946,0.00503755
-0.317278,0.00353837
-0.464335,0.0167393
-0.370259,0.0168184
-0.208408,-0.00401067
-0.168097,-0.0127205
-0.149154,-0.012142
-0.0513814,-0.0115154
0.0496685,-0.00433784
0.11133,-0.00757984
0.0787552,-0.0467255
-0.0299544,-0.0304833
-0.0724484,0.0224346
0.159492,0.00875659
0.351383,-0.00478078
0.297481,0.00901514
0.0840169,0.027904
-0.128807,0.0236128
-0.101068,0.0110356
-0.0121033,0.00639453
0.00319215,-0.0120753
0.0450811,-0.0205473
0.16972,-0.0125931
0.533896,-0.0161123
0.745695,-0.0180568
0.4146,0.000254435
-0.15751,0.0152494
-0.912437,0.0180145
-0.993047,0.01257
-0.446827,0.011089
-0.149575,0.00639276
0.00824659,-0.000892504
0.165368,-0.00165963
0.231579,-0.00205043
0.175613,-0.00111259
-0.0423705,0.00621136
-0.151627,0.00550962
-0.0710528,-0.00717908
0.00506695,-0.0195523
0.0598357,-0.0107799
0.0782413,-0.00423597
0.104735,-0.00563219
0.132347,-0.00559374
0.0962465,0.00300886
0.0167159,0.0157363
-0.0729697,0.0347332
-0.0933519,0.0155679
-0.0973322,-0.00312082
-0.0472635,-0.000457514
0.0631247,0.0118864
0.131535,0.0122387
0.167416,0.0157588
0.226483,0.0152758
0.156128,0.00296424
0.136283,-0.0164419
0.131625,-0.0273376
0.0866672,-0.0246005
0.217959,-0.0154545
0.276597,-0.00173447
0.0271738,0.012365
-0.39922,0.0228449
-0.623016,0.018508
-0.366481,0.00285695
-0.256035,-0.00924774
-0.294661,-0.00489152
-0.107019,-0.0234911
0.13443,-0.0200186
0.333223,-0.00557518
0.34346,0.0103935
0.194302,0.00692537
-0.111601,0.000625031
-0.365763,-0.00537766
-0.309472,-0.00774729
-0.112626,-0.0106235
-0.042698,-0.00667893
-0.0236308,0.00651913
-0.00429105,0.0129465
0.0490573,0.000565292
0.097297,-0.00543389
0.112659,0.00865345
0.219101,-0.0005526
0.360935,-0.0166996
0.339581,-0.00946887
0.124204,-0.00577496
-0.208944,-0.00289394
-0.287386,-0.000158179
-0.118602,0.00336316
-0.0189009,0.000923698
0.0270751,-0.00655812
0.0731952,0.000160403
-0.0735935,-0.00759742
-0.248038,-0.0221344
-0.0812547,-0.0103841
0.238139,0.0050662
0.492398,0.0074786
0.603024,0.00290937
0.392217,-0.0100699
-0.0595925,-0.00656256
-0.469257,0.0147445
-0.630031,0.0284341
-0.371627,0.0208461
-0.153472,0.00432951
-0.0782723,0.00251972
-0.0404943,0.0118918
-0.0617528,-0.00178461
-0.0235561,-0.0100617
-0.00819913,-0.00676139
-0.0206577,-0.00133261
-0.0130474,0.0021673
-0.025382,0.00960816
-0.0720475,0.0239613
-0.0166906,0.0358104
0.123904,0.0398094
0.186359,-0.00171606
0.293638,-0.0373599
0.423016,-0.0270066
0.340949,-0.0130487
0.123654,-0.0321226
-0.142589,-0.0280586
-0.173214,-0.00278407
0.0352221,-0.0102594
0.0485405,-0.0149804
-0.0865945,0.00213361
-0.21383,0.0111415
-0.234605,0.00755785
-0.165747,0.00886106
-0.148348,0.0112242
-0.0849931,0.0133473
-0.0328326,0.0167472
-0.0297781,0.0169839
-0.0150532,0.00495594
0.00619865,-0.00322933
0.0294035,0.00211074
0.173314,0.000985973
0.371291,-0.00840193
0.281434,-0.00290314
-0.08742,0.017875
-0.0900494,0.0247551
0.119352,0.00972036
0.013639,0.0033535
-0.303467,0.0123601
-0.316532,0.011485
-0.184388,-0.0233134
-0.138457,-0.0303155
-0.031826,0.00383729
0.0997276,0.0168772
0.170972,0.000206209
0.205385,-0.0184608
0.173588,-0.00565689
0.121407,-0.00686276
0.171951,-0.01439
0.0599394,0.00122665
-0.0962892,0.0112276
-0.168118,0.00101387
-0.212669,-0.0362413
-0.0192689,-0.0151939
0.0627525,0.0127418
0.0565788,-0.0139483
-0.0160894,-0.0200955
-0.0862811,-0.00135639
-0.0854706,-0.00929047
-0.094568,-0.0360471
-0.0499339,-0.0635555
-0.0120423,-0.0477394
-0.0248447,-0.00211729
-0.0411402,0.0285677
0.0121686,0.054249
0.0641971,0.0530094
0.0837202,0.0405336
0.100785,0.0328939
0.0658399,0.0294509
0.0267493,0.0221893
0.113372,0.0148679
0.215475,0.0209095
0.17937,0.0167539
0.0207002,0.00602887
-0.185268,0.00584961
-0.255594,0.0113435
-0.183328,0.00485562
-0.0580737,-0.00887107
0.0640352,-0.0228554
0.104975,-0.0293588
0.0788345,-0.0277457
0.00339255,-0.0283995
-0.0663054,-0.0253986
-0.095234,-0.0119399
-0.056821,0.00146222
0.0503848,0.000353716
0.144925,-0.00789751
0.180943,-0.00966678
0.178409,0.00159768
0.0172852,0.00821488
-0.14238,0.0168391
-0.190427,0.0287576
-0.143143,0.0292083
-0.0232916,0.0248503
-0.0375458,0.016657
-0.209385,-0.0118727
-0.23244,-0.0301429
-0.0759618,-0.0323987
0.133365,-0.0266478
0.294625,-0.00574807
0.271346,0.00457314
0.191018,-0.0112757
0.0754522,-0.000774052
0.00953872,-0.00473294
-0.0212454,-0.0116938
-0.0918122,0.00285372
0.0462639,0.0189391
0.0927351,0.00633798
-0.0984137,0.00793259
-0.144742,0.010856
-0.0624092,0.00729345
0.023987,0.000373965
-0.0372121,-0.000566469
-0.146581,-0.012954
-0.224571,-0.0241774
-0.173214,-0.0214628
-0.0963252,-0.0144977
-0.0675765,0.00196255
0.00524658,0.0166587
0.0955055,0.010876
0.0576767,0.00210923
0.00313484,0.0056847
0.0506809,0.00182083
0.122352,0.00167074
0.12636,-0.00114636
0.0365913,-0.00391696
0.0289383,0.0043707
0.11006,0.00796156
0.118818,0.00906889
0.0738915,0.00333507
-0.0705091,0.00349646
-0.144185,0.0013398
-0.0783259,-0.00636655
-0.0452041,-0.00723517
-0.013214,-0.00474003
0.0323068,-0.00751719
0.0471732,-0.00824358
0.0372775,-0.00485619
0.0133408,-0.00489965
0.091908,0.000719226
0.322345,0.0146338
0.298149,0.0139941
0.0530751,0.0120242
-0.110842,0.00418174
-0.263147,-0.00620153
-0.317058,0.000348702
-0.188542,0.0114441
0.0893609,0.0101835
0.286638,0.00660736
0.32833,0.011875
0.168074,0.0038816
-0.160784,-0.00818325
-0.250437,-0.00146055
-0.115993,-0.0163983
-0.206158,-0.0338598
-0.317826,-0.0196911
-0.218947,0.00728761
-0.0746682,0.0181897
0.0463827,0.0186157
0.168099,0.0182764
0.194275,0.0103833
0.150157,-0.00979242
0.0277211,-0.0207177
-0.125386,-0.0382806
-0.157038,-0.0516881
-0.087706,0.00203274
0.0407539,0.0282524
0.142471,0.0176975
0.154114,0.010503
0.0506903,0.0196895
-0.0378005,0.019027
0.0141602,0.00419128
0.0672271,-0.0171869
0.0613517,-0.00576144
0.028746,0.0185576
0.0431863,0.0174133
0.0852385,0.000625482
-0.0796208,-0.00785922
-0.194411,-0.00380366
-0.125109,-0.00820472
-0.00790788,-0.00204851
0.102341,0.0203967
0.119855,0.0073888
0.0700511,-0.0139247
-0.0363022,-0.00135427
-0.0200124,7.73e-05
0.0638826,-0.0110944
-0.0357112,-0.00649806
-0.119517,0.00419768
-0.0184404,-0.0177239
0.220821,-0.00235915
0.284167,-0.00239597
0.113856,-0.0228041
-0.148555,-0.0118333
-0.140197,-0.0178998
-0.104464,-0.0173351
-0.240864,0.0082766
-0.287937,0.0202289
-0.16201,0.0114365
-0.027188,-0.000994503
0.0460132,-0.00229499
0.0445685,0.00493682
0.00848751,0.00194779
-0.0297397,-0.0083494
-0.0198371,0.000331337
0.0336324,0.0136608
0.0657293,0.0238669
0.0764322,0.0272926
0.105932,-0.0035924
0.163384,-0.0124456
0.224001,0.00752345
0.241011,0.00516674
0.103178,0.00478185
-0.180824,0.0118844
-0.266975,0.011761
-0.140345,0.00356771
-0.032324,-0.000455106
-0.0325105,-0.00225411
-0.0640879,-0.0120579
-0.0369242,-0.023005
0.0326746,-0.00638759
0.0893958,-0.00420559
0.00698702,-0.00962707
-0.113831,-0.00227482
-0.0580819,0.021967
0.0884386,0.0376259
0.129049,0.0253542
0.0790673,0.0156364
0.105397,0.00180871
0.11379,-0.00857227
0.221581,-0.00578378
0.164788,0.000427383
0.0418633,-0.0020106
-0.0149496,-0.00849203
-0.172592,-0.0110504
-0.204303,-0.00770824
-0.151105,-0.0133621
-0.180646,-0.0070589
-0.0165723,0.00725824
0.311398,-0.000439166
0.264272,-0.0330434
-0.0680875,-0.02086
-0.303479,-0.00744917
-0.415516,-0.00821129
-0.290313,-0.0200174
-0.0596289,-0.0968574
0.007073,-0.0266227
-0.00132883,0.057737
0.0303476,0.0537454
0.0526354,0.0325522
0.0367922,0.0330787
0.0628183,0.0346182
0.109402,0.0187005
0.117199,-0.0141661
0.109034,-0.019926
0.113577,-0.0107603
0.10835,-0.00719692
0.0182613,0.00483595
-0.0729762,0.0181223
-0.0635693,0.00354655
-0.0311873,-0.00968272
-0.0234361,-0.00396441
-0.0429186,0.0207911
-0.00129191,0.024625
0.107659,-0.00311762
0.135652,-0.0227125
0.0391795,-0.0181348
-0.0922572,-0.00415947
-0.109071,0.00196164
-0.0192904,-0.00318468
-0.00208875,-0.00478698
-0.0733716,0.00817086
-0.0077875,0.00775507
0.0675995,-0.00139023
0.0911029,-0.0221696
0.0766416,-0.00998013
0.0167073,-0.00560998
-0.0928391,-0.00999371
-0.15824,-0.0129141
-0.147201,-0.000988764
-0.0126348,0.019426
0.178572,-0.00340009
0.291042,-0.043132
0.229876,-0.0221131
0.04086,-0.00229357
-0.162219,-0.00231167
-0.176434,-0.00492961
-0.0744793,0.00819077
-0.058713,0.0235821
-0.140245,0.00222101
-0.146203,-0.0202053
-0.000181248,-0.00096478
0.146527,0.0317411
0.154755,0.0405924
0.0602131,0.0445801
-0.00582296,0.0234539
-0.104349,-0.00190209
-0.0901178,0.0117803
0.0769146,0.00365642
0.0954757,-0.0363421
0.103416,-0.0240155
0.283766,-0.0183424
0.369997,-0.0367989
0.156145,-0.0224214
-0.233794,0.0168839
-0.555345,0.0316765
-0.473852,0.0272376
-0.250413,0.0256154
-0.173063,0.0256078
-0.0897477,0.00972114
0.0273176,0.00499386
0.170394,-0.00669793
0.239212,-0.0353762
0.259875,-0.00303933
0.265282,0.00984011
0.261857,-0.0082408
0.0897656,-0.000864183
-0.138171,0.0182723
-0.326823,-0.00375788
-0.3614,-0.0229832
-0.172964,0.0091445
0.0412538,0.00385604
0.203077,-0.00267905
0.292671,-0.00122698
0.247595,-0.00913863
0.0691415,-0.0356988
0.174259,-0.120435
0.253584,-0.0590189
-0.0644163,0.0138159
-0.351285,0.0167942
-0.367776,0.081319
-0.243496,0.0457567
-0.0329235,0.0146014
0.097832,-0.0308887
0.0645065,0.0038644
-0.102593,0.0490694
-0.193718,0.0284008
-0.105133,-0.0132977
-0.00903225,-0.0378832
0.0477967,0.00578388
0.0477406,0.0348855
0.0508561,0.0228464
0.041039,0.0101256
0.0129255,0.0108948
-0.0106841,0.00691275
0.0182064,0.00548655
0.0861597,0.00535504
0.118639,0.0240729
0.0361498,0.0187242
-0.0452298,0.0440405
-0.0100297,0.0633841
0.0544088,0.0165755
0.0648844,-0.0759803
0.0554773,-0.0305965
0.0798553,-0.00754534
0.0806665,-0.00208137
0.087933,0.0135919
0.113157,0.0459182
0.0411803,0.0445415
-0.0285139,-0.0281426
-0.119589,-0.0602011
-0.211465,-0.0603612
-0.210601,-0.0417003
-0.105509,-0.0138325
-0.0253409,-0.00209385
0.0174886,-0.0198653
0.0832903,-0.0197533
0.217253,-0.0159688
0.330965,-0.00543084
0.338009,-0.0203518
0.123592,-0.0265171
-0.297578,0.00443018
-0.493884,0.0217393
-0.308059,0.0124236
-0.0441203,0.00228365
0.14602,0.00163946
0.284791,0.000564856
0.279555,-0.00749451
0.147343,-0.0305124
-0.10088,-0.0109445
-0.299579,0.00258791
-0.330255,-0.000727441
-0.188264,0.0153618
-0.0305951,0.0214808
0.0138703,0.0145501
0.113609,-0.0499387
0.106188,-0.0711348
-0.0133311,0.0105024
-0.068795,0.0408694
0.0876018,-0.00754549
0.296917,-0.0454902
0.184815,0.0197775
-0.111893,0.022061
-0.242035,0.00442697
-0.248612,0.04334
-0.121737,0.0115605
-0.0581219,-0.038632
-0.0277875,-0.00899787
0.0109378,0.0294073
0.0461716,0.0109452
0.0684237,0.0244205
0.0674927,0.0208599
0.0819753,0.00202018
0.178332,0.0135667
0.206801,-0.00194814
0.100448,-0.000687021
-0.0818088,0.0109321
-0.209762,0.0154931
-0.202776,0.0177177
-0.0637594,0.0232009
0.0922699,-0.00259901
0.132814,-0.0222562
0.102361,0.00660961
-0.0180794,0.0182659
-0.0985778,0.0322826
-0.0494013,0.0488489
0.0707389,0.0400974
0.0506443,-0.00812341
-0.0575016,-0.0566783
-0.0242645,-0.11742
0.0415234,-0.0731833
0.0162142,0.0261491
0.0430804,0.0555621
0.411269,0.0504768
0.602809,0.0183034
0.449756,-0.055638
-0.155847,-0.153549
-0.712863,-0.116638
-0.460147,0.0060982
-0.118493,0.0972612
-0.176572,0.0810759
-0.206794,0.0408349
0.0186755,0.0368836
0.215468,0.0524808
0.249712,0.0288508
0.106716,-0.00859732
-0.201829,0.021975
-0.305657,0.0501224
-0.231241,0.0163237
-0.214647,-0.0321674
-0.167487,-0.0290789
-0.107203,-0.0124602
0.000384981,-0.0109942
0.110415,-0.0118595
0.147209,-0.00622934
0.175418,0.00420114
0.229034,-0.0220638
0.269164,-0.0332195
0.184024,-0.013979
0.0117334,-0.0161909
-0.0397488,-0.0271058
0.140263,-0.0184483
0.239767,0.0149283
0.201215,0.0190805
-0.0480524,0.0323193
-0.366097,0.0361966
-0.282958,0.0166399
-0.0526932,-0.00320691
-0.0579774,-0.0115773
-0.121177,-0.0440871
-0.00336419,-0.0477193
0.0466688,0.0260799
-0.0199739,0.0503553
-0.0370911,0.0162932
0.00347579,-0.0466367
0.0726124,-0.0715975
0.0259685,-0.0511608
0.0631912,0.0167198
0.255271,0.0321734
0.317186,-0.00653979
0.129369,-0.0124652
-0.273622,0.0316675
-0.390433,0.0219725
-0.163483,-0.011031
0.0847671,0.0232457
0.494969,0.096874
0.650795,0.088187
0.438377,0.0149692
-0.00580839,-0.0657029
-0.743714,-0.0643321
-0.910175,-0.00550255
-0.431099,0.0337834
-0.0453975,0.0153104
0.0913427,-0.0184297
0.0764612,-0.082193
-0.00420523,-0.13082
-0.0339263,-0.0378484
0.0594998,0.0313085
0.173757,0.0482673
0.0911485,0.0323736
-0.00838608,0.0180806
-0.0505147,-0.00531397
-0.159866,0.0137032
-0.163058,0.0751536
-0.0320456,0.0411714
0.065148,-0.0271535
0.0889038,-0.0552983
0.122984,-0.0401488
0.172252,-0.0275983
0.0781645,0.0243744
0.0189816,0.0750357
0.231126,0.102699
0.168006,0.034583
0.0274855,-0.0795837
0.185206,-0.0839241
-0.0285308,-0.0458379
-0.268265,0.00401274
-0.29171,0.0717562
-0.144511,0.110279
-0.0617048,0.042496
0.186388,-0.0529972
0.316237,-0.135458
0.445656,-0.16968
0.90221,-0.0526743
0.666002,0.0351016
0.250598,0.059008
-0.406927,0.0594204
-1.17832,0.0431402
-0.977388,0.025368
-0.478979,-0.00133784
-0.341534,-0.00756232
-0.14971,-0.0160618
-0.0628341,-0.0114634
0.0318001,0.0338686
0.0534151,0.0465753
-0.104577,0.00197756
-0.132516,-0.0380725
0.0396891,-0.0267162
0.161085,0.0189635
0.232667,0.0526104
0.333123,0.0429022
0.323993,-0.005443
0.242179,-0.0811645
0.07604,-0.0913666
-0.194349,0.00843504
-0.253838,0.0367438
-0.0960691,0.0310785
0.04872,0.0505028
0.237774,0.074223
0.320088,0.0584529
0.183105,0.0218417
0.0201048,0.00398369
-0.138402,-0.0326158
-0.152351,-0.0528125
0.00366065,-0.0781784
0.0330094,-0.0950304
-0.188458,-0.0819525
-0.52419,0.00821466
-0.442316,0.0436292
-0.120463,0.0297775
0.266792,0.0146023
1.08918,0.000830385
1.61004,-0.00676993
1.20505,-0.0166
0.0213937,-0.011632
-1.28381,0.042117
-1.31348,0.0437224
-0.399305,0.0270757
0.145675,-0.00658866
0.244594,0.018311
-0.122961,0.0591583
-0.208232,0.0360877
-0.369478,-0.0177215
-0.649601,-0.00716223
-0.391756,0.0748431
-0.0449908,0.0784656
0.0681069,-0.0176034
0.195497,-0.0750014
0.521839,-0.0711455
0.551924,-0.0871973
0.255634,-0.0672166
-0.209819,-0.03914
-0.420181,-0.0446768
-0.256877,-0.0112211
-0.177582,0.0585122
-0.0881166,0.0643029
0.0714893,0.0449385
0.16188,0.00716967
0.173516,-0.0056292
0.0594658,-0.0230272
-0.0555962,-0.0462579
-0.0513241,-0.0139389
0.06762,0.0259586
0.169941,0.0480668
0.11519,-0.00302537
-0.0459515,-0.0883994
-0.0788874,-0.0683023
0.118135,0.0505985
0.244389,0.110647
0.0747659,0.0461809
-0.0261387,-0.056265
0.236825,-0.0921169
0.803706,-0.0259499
1.17296,0.055215
0.526964,0.0396354
-0.832409,-0.00890596
-1.24129,-0.0670931
-0.650325,-0.0390722
0.0302524,-0.00724866
0.579042,0.0121201
0.470626,0.0451059
0.00926842,0.0637032
-0.459245,0.0493744
-0.880647,-0.0146515
-0.885928,-0.0486356
-0.378686,-0.0189094
-0.0290385,0.0588632
0.0457472,0.107523
0.0600041,0.0861611
0.131995,0.0556011
0.199893,0.00262715
0.240933,-0.0651355
0.150947,-0.0823508
-0.0519797,-0.074829
-0.0918847,-0.0526552
-0.114459,-0.059403
-0.0703661,-0.0153995
0.0619464,0.0358991
0.109541,0.0448717
0.349314,0.0100778
0.54958,-0.0738019
0.607931,-0.000608471
0.845481,0.104748
0.749894,0.0728177
0.211225,0.0265296
-0.704515,-0.0634473
-1.17344,-0.190336
-0.809963,-0.0897277
-0.353265,0.0013319
-0.103768,0.0173508
-0.0700645,0.0450771
-0.0497907,0.0362067
0.120417,0.0383929
0.241287,0.0673321
0.211049,0.145864
0.0860665,0.193606
-0.199408,0.121397
-0.399916,-0.0108553
-0.23192,-0.144885
0.0357091,-0.22883
0.112645,-0.197563
0.117233,-0.108
0.444,-0.00898527
0.672563,0.0364344
0.474668,0.0371178
-0.232537,0.0312421
-0.656641,0.0427504
-0.370854,0.0618374
-0.167419,0.0618401
-0.07702,0.0399469
0.0593139,0.0245945
0.163177,0.00967426
0.115909,0.00534959
0.0904136,-0.0126723
0.210095,-0.0549396
0.271411,-0.0997945
0.146239,-0.0915154
0.0623148,-0.0837113
-0.0407717,0.00479799
-0.176854,0.0873741
-0.146197,0.144663
0.0443699,0.122227
0.140941,0.0852951
0.165912,0.0825769
-0.000419192,-0.0248351
-0.262363,-0.132269
-0.338769,-0.0876546
-0.251538,-0.0418838
-0.185479,-0.0176105
-0.126754,-0.0193691
-0.0907063,-0.012638
-0.0603381,-0.00963466
-0.0212513,-0.0153697
0.0227083,-0.0192239
0.0474601,0.0213927
0.0522233,0.0341964
0.0622827,0.00608728
0.119312,-0.00765348
0.203027,0.0146606
0.214219,0.0196804
0.120237,0.0127549
-0.0400918,0.01103
-0.0976841,0.041581
0.113267,0.0927625
0.323268,0.0884044
0.234833,0.0269966
-0.0387694,-0.0210545
-0.263275,-0.0470699
-0.19312,-0.0341388
-0.0679448,-0.0341821
-0.0105334,-0.0326886
0.0458757,-0.0230655
-0.0173651,-0.0527103
-0.0814957,-0.0924173
-0.0300292,-0.0592866
0.00278853,-0.00432234
0.0472976,0.00425277
0.116851,-0.00252873
0.0509574,0.00370409
-0.0809298,-0.000724757
-0.117939,0.00383414
-0.150069,0.00721338
-0.216363,0.0535387
-0.270213,0.0954335
-0.0466579,0.0926044
0.303038,0.0312408
0.365556,-0.0429746
0.329291,-0.0421999
0.301676,-0.0311385
0.324767,-0.020165
0.123958,-0.0195871
-0.221594,-0.0319269
-0.213637,-0.0181717
-0.153681,-0.0254318
-0.0933356,-0.0237266
-0.0221597,-0.00672477
-0.264244,0.00382261
-0.429325,-0.00999107
-0.239084,-0.00147864
-0.155085,-0.000636242
-0.074585,0.0279721
0.0680236,0.0308843
0.239119,0.0224579
0.29779,0.0275849
0.135466,0.0492237
-0.0405802,0.0432102
-0.107192,0.00374512
-0.0982479,-0.0661375
-0.00239121,-0.0307792
0.00678878,0.0465354
-0.0780335,0.0353173
-0.0203889,0.00542865
0.0689925,-0.0596502
0.0324814,-0.123932
0.0107549,-0.0086899
-0.0125965,0.0864145
-0.010492,0.0386282
-0.0213782,-0.0217595
-0.0542203,-0.0182659
0.0184197,-0.0252764
0.0697502,-0.00882755
0.0426867,-0.00316201
0.0706173,0.0124259
0.117971,0.0292057
0.0869196,0.0352239
0.0747504,0.0103283
0.0213811,-0.0221118
0.0518105,-0.047903
0.0866331,-0.0163218
-0.0538931,0.0425773
-0.0444493,0.0802063
0.0207517,0.0447256
-0.0393499,-0.0251723
0.0158277,-0.0140899
0.0295969,0.0195107
-0.0624521,0.0429402
-0.00959839,0.0533059
-0.0839068,-0.0150042
-0.165652,-0.0523754
-0.018399,-0.0372864
0.183427,-0.0232731
0.25256,-0.0208127
0.297213,-0.0214042
0.241071,-0.0111699
0.0340349,-0.0140673
-0.0655362,0.0107389
-0.212356,0.0512674
-0.307622,0.0614531
-0.267304,0.0282284
-0.277992,-0.0347689
-0.22264,-0.0771353
-0.0264045,-0.0742446
0.173963,-0.0589575
0.214265,-0.0229036
0.0397235,0.00839072
-0.270932,0.0172178
-0.340416,0.0376972
-0.0321201,0.0457239
0.426745,0.00647951
0.666325,-0.0253531
0.466413,0.00871067
0.0829512,0.0393174
-0.286729,0.0323783
-0.380143,-0.00942535
-0.290853,-0.0130314
-0.106187,-0.0165937
0.0407806,-0.0476766
0.0100986,-0.0363042
-0.0905155,-0.056469
-0.124918,-0.00195532
-0.206674,0.0409636
-0.239078,0.0430614
-0.0829456,0.0531175
0.127221,0.0406735
0.244023,0.0306579
0.259865,0.0167809
0.196215,0.011889
0.0778776,-0.00812507
-0.0123158,-0.0218942
-0.0910851,-0.039995
-0.0814657,-0.0280451
0.0477225,-0.0166
0.180457,-0.0307258
0.192055,-0.038187
0.0547881,-0.00291101
-0.161755,0.0130439
-0.241716,0.00645761
-0.149889,0.00817483
0.044091,0.0448313
0.133638,0.0671784
-0.0053319,0.0307059
-0.1073,-0.0190352
-0.06618,-0.0237925
-0.016136,0.00202406
0.0550151,0.0188668
0.178298,0.0344162
0.253745,0.026692
0.26929,0.00823061
0.156518,-0.0216749
-0.092406,-0.0354205
-0.251185,-0.0526044
-0.0986033,-0.0375703
0.0447914,-0.0191353
0.0341688,-0.0301238
-0.0764103,-0.0426298
-0.1268,0.0113172
-0.0390948,0.0580896
0.0496875,0.0358667
0.00904805,-0.0147718
-0.147643,-0.0057658
-0.21386,0.00890845
-0.100758,0.00784071
0.0266575,0.0129907
0.101394,0.014122
0.0952444,-0.00274145
0.0637866,-0.00744133
0.0386081,0.0152368
-0.00591869,-0.0574063
0.0194207,-0.158968
-0.0430703,-0.0340764
-0.127705,0.0838367
-0.126778,0.0659709
-0.0978514,0.0356366
-0.0605182,0.0299939
-0.0500345,0.0167507
-0.0275108,0.00993853
0.0908516,0.0174087
0.274949,0.028012
0.358164,0.030293
0.24423,0.0237758
-0.0103864,0.0107472
-0.13629,0.00384596
-0.14354,0.0204882
-0.0885796,0.0397178
0.120021,0.0274313
0.0354474,-0.0353468
-0.0703413,-0.0476573
-0.0109293,-0.0443471
0.0640105,-0.0560939
0.258761,-0.0645173
0.249979,-0.0107845
-0.0913694,0.0241085
-0.281238,0.0179947
-0.319832,-5.25e-05
-0.278522,-0.0100523
-0.241924,-0.0150373
-0.170334,-0.00247701
-0.0170252,0.0104909
0.0331742,4.32e-05
0.0266001,-0.014601
0.024412,0.000897652
0.03059,0.0241063
0.0431434,0.0345086
0.00706784,0.0213212
-0.012438,-0.0181469
0.00440881,-0.0385132
-0.000902289,-0.0519528
-0.00251346,0.000490454
0.00462001,-0.00294552
0.0253641,-0.0516344
0.0560886,-0.00323166
0.0777545,0.013734
0.106048,0.000363907
0.285159,0.0433996
0.675467,0.0558876
0.841989,0.0268536
0.58868,0.0228956
-0.0677938,0.0567505
-0.680337,0.0532432
-0.760597,-0.00106822
-0.574094,-0.039286
-0.386606,-0.0503672
-0.142651,-0.0572289
0.104218,-0.0129352
0.210549,-0.0211112
0.250172,-0.0645591
0.227937,-0.0322811
0.0487997,0.00206594
-0.178213,0.0171513
-0.364678,0.0225734
-0.26573,0.017092
-0.12667,0.0103468
-0.0509201,0.000188259
-0.00889799,0.00689633
0.0545351,0.0221214
0.0944599,0.0265632
0.0656765,0.0296439
0.00371286,0.0395743
-0.00537956,0.0298396
0.0723471,-0.00208337
0.164112,-0.0199516
0.117757,-0.00448535
-0.0275348,0.0176205
-0.0656416,0.0259665
-0.0127788,0.00655683
0.0200053,-0.012833
0.0123909,-0.0234414
-0.0141849,-0.0356863
0.00277411,-0.0413381
0.103357,-0.0331325
0.378676,-0.0103273
0.469216,-0.00790907
0.260011,-0.00731109
-0.177034,-0.0148155
-0.465633,-0.0288814
-0.350128,-0.00228806
-0.132662,-0.00689697
-0.0387187,-0.0310515
-0.0209137,-0.0142201
0.00412431,0.0169848
-0.0204281,0.0182868
-0.0423352,-0.00635711
-0.0649695,0.032032
0.015656,0.0487672
0.178846,0.0321998
0.238624,0.0106805
0.139314,-0.0194225
-0.0732591,-0.0170476
-0.23064,0.0476854
-0.0947252,0.0601694
0.164012,0.101309
0.0966619,0.0855568
-0.0480433,0.000272623
0.0365418,-0.0593923
0.178392,-0.0870716
0.103043,-0.0636106
-0.0939792,-0.0292448
-0.224502,-0.0165011
-0.175221,-0.00886428
-0.107742,-0.00117939
-0.0766484,0.000820009
-0.0798402,-0.00725228
-0.0661537,-0.0140606
-0.0236479,-0.00480744
0.0183099,-0.0019398
0.0346344,-0.0315799
0.0416189,-0.0403956
0.0877925,0.0132375
0.11295,0.0235427
0.0727334,-0.00120192
0.0109827,0.0346573
-0.0813707,0.032866
-0.0988957,0.00399823
-0.0214609,0.0172919
0.0425344,0.0189977
0.0926475,0.00978784
0.126007,0.00164399
0.0889167,-0.0093182
0.00573287,-0.0143564
-0.0533398,-0.011201
-0.0968858,0.012534
-0.148606,0.00980477
-0.0880577,0.00473862
0.0396305,-0.00220368
0.101611,-0.0190907
0.0608382,-0.0405147
0.0582795,-0.0229831
0.178887,0.00880735
0.234499,0.0205028
0.00560146,-0.0190413
-0.183004,-0.0501647
-0.0551654,0.0188686
0.0128365,0.0621109
-0.0675227,0.0177777
-0.0144071,0.023823
0.0109523,0.0378232
0.0107773,0.000130559
-0.00744096,-0.0491775
-0.0124515,-0.0115531
-0.0300698,0.0143516
-0.259782,-0.0325928
-0.306192,-0.018528
-0.179774,0.0140633
-0.0863131,0.0330526
-0.0694207,-0.00421457
-0.00941536,-0.0195983
0.0811403,0.00411996
0.270893,0.01099
0.418346,-0.00383024
0.39559,-0.00288517
0.241453,-0.0190433
-0.0118038,-0.0383036
0.0340278,-0.0258604
0.219387,-0.00148199
0.111591,0.0163125
-0.0589431,0.0223472
-0.29168,0.0278334
-0.248051,0.00810242
-0.159129,-0.00291473
-0.293053,0.0150354
-0.338602,0.0125455
-0.205492,-0.0223603
-0.0967943,-0.021942
-0.0220956,0.00340369
0.0157698,0.0092119
0.0879105,-0.0322553
0.171646,-0.0197614
0.156412,0.0259663
0.0405167,0.0218512
-0.128229,0.00133782
-0.145159,-0.00664922
-0.0660149,0.000931877
0.0124325,-0.00167389
0.0981253,0.0140041
0.181008,0.0252524
0.216481,0.0163398
0.207393,0.00347141
0.182037,-0.00693639
0.127933,-0.00382659
0.0376868,0.00957963
-0.0999236,-0.0106994
-0.143779,-0.0437473
-0.0186762,-0.00926199
0.197474,0.056614
0.339061,0.0192602
0.304504,-0.051533
-0.0944356,-0.0567173
-0.513242,0.0190993
-0.492521,0.019444
-0.279298,-0.0331796
-0.050687,-0.0430201
0.117187,-0.00408297
0.145768,0.0119155
0.118005,0.0443525
0.192338,0.0187062
0.213336,-0.0689843
0.0274414,-0.0359902
-0.0877522,0.0193237
-0.0803422,0.0711519
-0.0578973,0.114865
-0.0640924,0.00943985
-0.155493,-0.0646497
-0.193904,-0.0346097
-0.134559,-0.0128922
0.0122216,-0.0134275
0.122915,-0.0106769
0.119542,0.00465185
0.0711322,0.0148704
0.0899399,0.0136148
0.0760207,0.016516
-0.130469,0.0253406
-0.284029,0.0301301
-0.189482,0.0413482
-0.0628899,0.0432329
0.00368527,0.00858953
0.0915666,-0.0665017
0.234507,-0.0937641
0.254652,-0.0984658
0.195475,-0.030357
0.0703778,0.0493464
-0.0620721,0.0501663
0.0125131,0.0212375
0.054607,0.00899048
-0.0468633,0.0180701
-0.0202866,0.0287328
0.0945773,0.00368863
0.161228,-0.00166742
0.149889,0.0120618
-0.0926001,-0.000725319
-0.226112,-0.0184591
-0.116395,-0.0196259
-0.0931765,-0.0159795
-0.137885,-0.00204483
-0.328352,0.0133601
-0.399395,0.0201
-0.20349,0.0131451
-0.0583532,-0.00383026
0.0144931,-0.0112331
0.139514,-0.0169304
0.295785,-0.0142564
0.387048,0.0145692
0.481196,0.0322161
0.508414,0.0294759
0.238242,0.0383017
-0.0687067,0.0281551
-0.203632,-0.000930339
-0.240016,-0.0262703
-0.100399,-0.0346587
-0.0482175,-0.0996438
-0.319861,-0.0702685
-0.513556,0.0308538
-0.257874,0.0453513
-0.0701007,0.0174363
-0.0186431,0.0110726
-0.00991372,0.0184062
0.0233027,0.0101048
0.0968541,-0.00445856
0.09751,-0.0421898
0.076922,-0.072114
0.140703,-0.0336053
0.179381,-0.0124035
0.121536,0.0128229
-0.0105009,-0.0555296
0.0480856,-0.0508333
0.250105,0.0307007
0.283407,0.0470297
0.190725,0.0200119
-0.0758075,-0.000557782
-0.2599,0.0154225
-0.244919,0.0266955
-0.23607,0.0435297
-0.0564048,0.0678633
0.256529,0.0734447
0.338693,0.0424073
0.254432,-0.000728173
0.188095,-0.0336192
0.189603,-0.0375289
0.108528,-0.0300996
-0.339646,-0.0580534
-0.614736,-0.0449508
-0.368014,0.0524359
-0.252508,0.0308475
-0.219812,-0.0203105
-0.086875,-0.02554
0.0523743,-0.00180495
0.112725,0.0116837
0.0746034,-0.00422236
0.0160627,-0.0035883
0.0123611,-0.00218249
0.0413329,0.00336888
0.056211,0.00977169
0.0304901,0.00882733
-0.0125098,-0.0112411
-0.0373075,-0.0183019
0.00672461,0.0112286
0.0839138,0.0317576
0.177089,0.0194415
0.237843,0.00165687
0.202139,-0.0172865
0.111259,0.00436197
-0.0209161,0.0106751
-0.0851149,0.00161172
-0.0363522,-0.0113013
-0.0587395,-0.0184189
-0.101859,-0.0125756
-0.109241,-0.0109706
-0.0887571,-0.00417561
-0.0524509,0.00711614
-0.0588161,0.00932764
-0.0735089,0.00684712
-0.0450919,0.00765916
0.000580956,0.0093117
0.0390586,0.0193761
0.0852197,0.0311638
0.172224,0.0275325
0.24725,-0.00611092
0.277842,-0.0274164
0.205854,-0.0122003
0.0184974,0.0183339
-0.115694,0.00432512
-0.197347,-0.0383716
-0.252261,-0.0765566
-0.153305,-0.0777862
-0.12985,-0.0138898
-0.0980048,0.0735506
-0.0472293,0.0712612
-0.121206,0.0103824
-0.0862436,-0.0145661
0.0158315,-0.00140038
0.0553519,-0.0670268
0.0404553,-0.0599565
-0.00860612,-0.0024967
0.0352733,-0.0402114
0.118589,0.0213905
0.139964,0.0406555
0.0286274,0.0365703
-0.0931924,0.0274651
-0.092558,0.0115193
-0.0565847,0.00626264
-0.00166674,0.00128685
0.0560059,0.00178766
0.0790287,0.00744647
0.0715194,0.0170577
0.0632027,0.0231552
0.0601618,0.0136007
0.097787,-0.000145525
0.138211,-0.00146609
0.0700915,0.00500112
-0.036734,0.0138761
0.0987402,0.0128611
0.263864,0.00635674
0.244195,0.00946451
0.0280058,0.00889071
-0.356929,-0.022893
-0.535556,-0.0494288
-0.413788,-0.0545018
-0.129848,-0.00295709
0.0972375,0.021884
0.118383,0.0221684
-0.0203945,0.0155115
-0.111833,0.00222059
-0.214254,-0.00685161
-0.273877,0.0125702
-0.160817,0.0044923
0.0173917,-0.0270244
0.251223,-0.0510602
0.550997,-0.00703795
0.777621,0.0375489
0.73308,-0.0137718
0.277573,-0.0591456
-0.470678,-0.00372513
-0.899022,0.05106
-0.576263,0.0444368
-0.154532,0.00982723
0.0617601,-0.0186349
0.0872077,-0.0324118
0.0278,-0.0172301
-0.0430981,-0.00204924
-0.000147203,-0.0180167
0.0593117,-0.0160681
0.106292,0.00904508
0.127521,-0.00497193
0.0661382,0.0303121
-0.0307631,0.0493505
-0.0670214,0.0293878
-0.071626,0.0301577
-0.0530882,0.022738
-0.0202395,-0.00412897
0.0192211,-0.0310917
0.0138489,-0.0580446
0.0344679,-0.0373819
0.0459766,0.00208872
0.0338316,-0.00879024
0.00269014,0.00413982
-0.0250389,0.0369744
-0.0292997,0.0354457
0.100221,0.0318813
0.236224,0.0224504
0.239874,0.0105617
0.142975,0.00198242
-0.0430666,0.0185243
0.146988,0.0334517
0.329134,0.0151349
-0.0111309,-0.012048
-0.341052,-0.0400428
-0.468514,-0.0653314
-0.410119,-0.0808061
-0.200342,-0.0385541
-0.0674681,0.00589927
0.0105333,0.0137847
0.0597547,0.0192907
0.0752475,0.0103649
0.204689,-0.00540527
0.421113,-0.00524661
0.56889,0.00484103
0.41149,-0.00519601
-0.057323,-0.0600434
-0.366801,-0.0866366
-0.534939,-0.0330601
-0.52391,0.0204551
-0.293746,0.0182183
-0.105791,0.0502173
0.0186752,0.0359122
0.0797751,-0.0050209
0.0841303,0.00308562
0.065975,0.0299941
0.105206,0.040347
0.124654,0.0323333
0.0425675,0.0207162
-0.0924683,0.010374
-0.235865,0.00965003
-0.197428,0.0121529
-0.0669992,0.0112394
0.0329883,0.00873022
0.122243,0.0213256
0.216324,0.0141048
0.315096,-0.00675611
0.35815,-0.00745477
0.275864,-0.013116
0.0519518,-0.0197869
-0.18214,-0.0244829
-0.234475,-0.0260029
-0.157833,-0.00913463
-0.0899794,0.00711341
-0.0602804,-0.00057393
-0.0705351,-0.0191933
-0.0431554,-0.0275949
0.106924,-0.00303193
0.20656,0.00972203
0.300871,0.0297685
0.288839,0.0397422
0.130333,0.0462859
-0.0236372,0.0137735
-0.18293,-0.0502892
-0.174643,-0.0688065
-0.0754028,-0.0501468
-0.0406702,-0.0181976
-0.0748538,0.0151741
-0.107245,0.0242165
-0.186043,0.03093
-0.226673,0.0361211
-0.162538,0.0155621
-0.138854,-0.00679034
-0.16433,-0.0176248
-0.163026,-0.00785748
-0.104703,0.00332966
-0.0476789,0.0181541
-0.00374758,0.0326375
0.0540682,-0.00505885
0.118714,-0.0356762
0.161832,-0.0366902
0.183823,-0.0570165
0.166866,-0.0532143
0.185528,-0.0525759
0.268566,0.0273886
0.494162,0.0765921
0.69786,0.0256395
0.550706,-0.0151881
0.152933,0.00672661
-0.44012,0.011393
-0.736232,-0.00155674
-0.507311,-0.0110662
-0.226453,-0.00802861
-0.0306948,0.0609244
0.0648718,0.10154
0.0449677,0.0546371
-0.192182,-0.0379387
-0.292155,-0.0563434
-0.170923,-0.0286973
-0.041522,-0.00981413
-0.0250143,-0.0017218
-0.0214747,0.00434351
-0.0177245,0.0134132
0.0275903,0.013029
0.0390508,0.000789768
0.0406939,-0.0168908
0.0498976,-0.02522
0.0218421,-0.0153176
0.00140447,-0.00242371
-0.0685714,0.00649597
-0.114413,0.0104067
-0.0260623,0.0107026
0.0517738,0.00944903
0.105305,0.0126106
0.139797,0.0162863
0.152335,0.00182727
0.195442,-0.0226864
0.320972,-0.029454
0.486282,-0.0123035
0.417932,-0.0080495
0.0637194,-0.0453546
-0.189542,-0.0250857
-0.168979,0.0705633
-0.0297601,0.0489027
-0.0512929,-0.0202174
-0.407525,-0.0452766
-0.639948,-0.0268947
-0.362433,-0.0022661
-0.169327,0.0127283
-0.0648293,0.0167364
0.0485672,0.0232785
0.142015,0.0294052
0.191808,0.011313
0.166775,0.0043008
0.16451,0.00246085
0.0815619,-0.0146326
-0.039524,-0.0191608
0.0307479,-0.0302744
0.0345822,-0.0406429
-0.0451017,-0.0170017
-0.119448,0.0119089
-0.183384,0.025998
-0.0976207,0.0221582
-0.0941426,0.0197816
-0.141873,0.0224716
0.0326078,0.0291403
0.306301,0.0398353
0.404432,0.0120894
0.317153,-0.011389
0.17291,-0.00693272
0.109936,0.0105298
0.121373,-0.0165882
0.0295659,-0.0348191
-0.188252,-0.0031715
-0.342978,0.00571152
-0.266684,-0.00587602
-0.357783,-0.0137783
-0.365928,-0.034509
-0.18854,-0.0342544
-0.0158738,-0.0119364
0.0792298,-0.0197984
0.131275,-0.00394911
0.144218,-0.000328879
0.169841,0.00539205
0.224293,0.022242
0.310095,0.0255324
0.230306,0.00863326
-0.0471907,-0.00519563
-0.107206,0.00291128
0.079348,0.0417508
0.0548534,0.055622
-0.306351,0.0260863
-0.483464,-0.017375
-0.234348,-0.0311285
0.115224,-0.0308547
0.544486,-0.040472
0.762584,-0.0327998
0.700861,-0.0222105
0.435308,-0.00331913
-0.198893,0.0216171
-0.660074,0.039154
-0.765156,0.0420374
-0.467443,0.0243661
-0.00588595,0.0221119
0.235352,0.0226466
0.0478433,0.00115505
-0.455207,-0.0329313
-0.532925,-0.0361124
-0.2337,-0.0262864
-0.0939081,-0.0233833
-0.0460645,-0.0239637
0.0351412,-0.028691
0.132655,-0.0293324
0.193822,-0.00355679
0.351065,0.0311518
0.465053,0.0187474
0.389823,0.0179872
0.0712134,0.00803508
-0.25923,-0.00876513
-0.183368,-0.0110851
-0.0522019,-0.00268205
-0.0875162,0.00266132
-0.0721433,0.0144516
0.0396671,0.0159592
0.100321,0.00736618
0.0655793,0.0085003
-0.00983311,0.00624718
-0.0303931,0.011141
0.0209451,0.0181248
0.0971876,0.0212807
0.11775,0.0150153
0.0411668,-0.00811829
-0.0816405,-0.0229838
-0.130119,7.73e-05
-0.0301034,0.0232369
0.0359686,-0.00391675
0.00873589,-0.0320722
-0.0111969,-0.0331506
0.0856569,-0.00812902
0.209714,0.0433945
0.186423,0.0194308
0.047031,-0.023585
-0.153847,-0.0184938
-0.23614,-0.00473662
-0.154041,0.00231702
-0.0797888,0.015466
-0.036061,0.0214917
-0.0406493,0.0126471
-0.0846926,0.00992358
-0.0680328,-0.0054953
0.0227369,-0.0111536
0.0897709,0.00789405
0.196175,0.0138992
0.268122,-0.0171731
0.166566,-0.045753
-0.0187441,-0.0260037
-0.220523,0.0115413
-0.0215028,0.0293155
0.304774,0.0156524
0.299974,-0.0158282
0.0795151,-0.0187302
-0.179138,-0.0214424
-0.266191,-0.0122941
-0.230864,0.00441916
-0.19818,-0.0324797
-0.167339,-0.062317
-0.166049,-0.0194847
-0.0921341,0.0206994
0.0368065,0.00801148
0.198503,-0.0126405
0.301844,0.0165664
0.168366,0.037738
0.0223216,0.0207639
0.0551334,-0.0146554
0.221954,-0.00453282
0.141098,0.0148766
-0.259686,0.0691924
-0.442566,0.106748
-0.257177,0.0645959
-0.243234,0.00549983
-0.272054,-0.0313028
-0.157713,-0.0556902
-0.00266627,-0.0292825
0.0806942,-0.0231819
0.0966547,-0.0196363
0.0724908,-0.00884392
0.0530732,0.00264992
0.0816074,0.00379437
0.152544,0.00437322
0.259485,0.0116115
0.318291,-0.0242606
0.202196,-0.0474584
0.0388531,0.012052
-0.105282,-0.00822041
-0.23113,-0.0458472
-0.157358,-0.0135566
0.0119456,0.0371339
0.100702,0.0298609
0.0679102,-0.00388692
0.0242069,-0.0136967
0.002743,-0.00777157
-0.0304923,0.00621636
-0.142567,0.0162799
-0.199296,0.0089208
-0.131335,0.00657041
-0.0312628,0.0224841
0.0322126,0.0194019
0.00178532,0.0119168
-0.0259617,0.00341904
0.0586604,-0.00137785
0.367647,-0.00559781
0.554487,-0.000340999
0.412105,0.0158176
0.017439,0.0200775
-0.102241,0.00476694
0.260751,-0.0264367
0.413223,-0.0408956
0.0667945,-0.0173428
-0.500698,-0.00810095
-0.731516,-0.00419535
-0.602685,0.0170192
-0.459804,0.0232719
-0.264384,0.00980768
-0.0323009,-0.00348502
0.127693,-0.00932586
0.172876,-0.0135746
0.217328,-0.0371546
0.319812,-0.00890972
0.380783,0.000393263
0.3438,-0.0196572
0.0379709,-0.0492417
-0.256151,-0.0428222
-0.453704,-0.00684352
-0.502424,0.0208952
-0.222074,0.0446723
0.0949927,0.0287064
0.158429,0.00793905
0.16707,0.030244
0.258813,0.0420878
0.246469,0.02624
0.0845508,-0.00588601
0.0416156,-0.00918504
-0.061775,-0.000797701
-0.222427,0.014906
-0.266602,0.0231597
-0.151526,0.00303436
0.0474504,-0.0264862
0.190163,-0.0480162
0.145446,-0.0753473
-0.0405298,-0.052683
-0.114741,0.000925015
-0.0773119,0.036202
-0.0101819,0.0614203
0.00814887,0.0439249
0.00710611,0.0158927
0.0299517,-0.0180628
0.056378,-0.0168837
0.0736034,0.00953699
0.135499,0.0254022
0.110964,0.0177669
0.00401329,0.00779259
-0.0702128,-0.00069839
-0.0861293,0.00411297
-0.0214831,0.0162
0.019434,0.0167222
0.0102754,0.00319718
0.101276,-0.00414206
0.220408,0.00137652
0.257245,0.00886695
0.17937,0.0159044
-0.00696371,-0.0288379
-0.231574,-0.0441577
-0.275829,-0.100658
-0.168541,-0.117018
-0.098802,-0.00381532
-0.0992689,0.0571614
-0.180942,0.0506347
-0.149732,0.0423925
-0.00181126,0.025078
0.166634,0.00139086
0.390662,-0.0048848
0.440291,-0.00345118
0.300944,0.000227396
-0.00593267,0.0050204
-0.142733,0.00851095
-0.0568927,0.0134579
-0.108231,0.0103532
-0.316705,0.00899244
-0.42979,0.00772527
-0.239515,0.00799798
-0.0675252,0.00930235
0.00709886,-0.00249311
0.134004,-0.0225127
0.278038,-0.0212203
0.266765,-0.0180146
-0.00152167,-0.016546
-0.225793,-0.00450109
-0.254551,-0.000145728
-0.16246,-0.0115571
0.0178759,-0.012339
0.121807,0.0144535
0.134526,0.040509
0.0927843,0.0324346
-0.0311449,0.0229859
-0.114436,-0.011828
-0.0560302,-0.0456819
0.0263586,-0.039648
0.0869692,0.0266683
0.0697535,0.0434294
0.0947411,0.0110544
0.171066,-0.00733094
0.168664,-0.0285637
0.0658331,-0.0375944
-0.197836,-0.00562687
-0.247944,0.0325383
-0.0814301,0.0352397
-0.0304199,0.0228184
-0.00102963,-0.0239108
0.0782645,-0.030708
0.162827,-0.00388633
0.210585,-0.0113244
0.269132,-0.0237758
0.233761,-0.00419823
0.330754,0.00802214
0.468679,-0.00578674
0.0683391,-0.00104527
-0.551973,0.00451603
-0.762252,0.000849494
-0.585402,0.00209706
-0.379462,-0.0053618
-0.217847,-0.0744253
-0.0281108,-0.0658824
0.0891481,-0.0354721
0.0914277,0.0198365
0.0232388,0.04934
-0.0199831,0.0349296
0.00368928,0.0412618
0.0566642,0.0571687
0.0856515,0.047795
0.0740292,0.0271201
0.0958714,0.011237
0.216805,-0.00721779
0.265895,-0.011849
0.159783,-0.0101369
-0.0478949,-0.00424915
-0.155972,0.00468237
-0.0351077,0.0163805
0.138902,0.0188513
0.161338,0.0183226
0.134675,0.00627348
0.140925,-0.0142883
0.119496,-0.0255478
0.150326,-0.0192566
0.124845,-0.00230053
0.0325913,-0.000312559
-0.0397892,-0.0024155
-0.366127,0.00150162
-0.549745,0.0102136
-0.367538,0.00597407
-0.0938037,-0.000804302
0.0615987,-0.0021032
0.0322274,-0.00965975
-0.00618133,-0.00892925
-0.0634741,-0.0122776
-0.188034,-0.0406164
-0.102857,-0.0289465
0.0373412,-0.00893544
0.098692,0.0075466
0.102253,0.0156613
0.172053,0.0338325
0.136772,0.011865
0.0289109,-0.0167322
0.0330464,-0.0279758
-0.00358979,-0.0319746
-0.0571168,-0.0286756
-0.0231687,-0.00288809
0.141775,0.0281507
0.191681,0.0329818
0.0675211,0.0177426
-0.11409,0.00451917
-0.157526,-0.00287266
-0.0701449,0.0110339
0.0107046,0.00305516
0.098925,-0.0102737
0.2059,-0.0010677
0.154193,0.00796175
0.0247692,0.00303387
-0.00143485,-0.0317355
-0.0380478,-0.0460535
0.0535818,-0.00854387
-0.00793084,0.00216137
-0.19735,0.0396761
-0.196855,0.0471833
-0.0324548,0.0250753
0.106703,0.0129705
0.133637,0.00281106
0.0691885,-0.00787109
-0.00191395,-0.00478324
-0.144485,-0.00113922
-0.245679,-0.00823857
-0.131387,-0.0120789
-0.0070396,-0.0152834
0.0111615,-0.021827
-0.0291192,-0.00321455
-0.105626,-0.00171445
-0.0719911,0.00635535
-0.0399193,0.00510553
-0.0246966,0.00607939
0.053944,0.0204627
0.163574,0.0461324
0.157136,0.0284784
0.132552,-0.00915987
0.206239,-0.0208801
0.212104,-0.029296
0.147879,-0.0249668
-0.00837148,-0.00306998
-0.0602175,0.0125836
-0.0574934,0.0135
-0.232481,0.00219298
-0.310523,-0.00313844
-0.244827,0.00187036
-0.132046,0.00129324
0.095924,-0.00428793
0.339143,-0.000137231
0.398366,0.000263638
0.241712,-0.00242625
-0.0681761,-0.004571
-0.244238,0.00613228
-0.154492,0.00176783
-0.158223,-0.0117635
-0.278744,-0.00302255
-0.205007,0.0110381
-0.0500939,-0.000394405
0.0591938,-0.00458505
0.0824245,0.0228129
0.0670906,0.0140231
0.0868679,-0.017401
0.147764,-0.0546847
0.157079,-0.0574532
0.22702,-0.0402042
0.300693,-0.0437889
0.0884001,-0.017315
-0.254976,0.00361817
-0.359031,0.00688698
-0.343811,0.00946404
-0.174101,0.0148242
0.0960377,0.0468958
0.241368,0.053639
0.213211,0.0499642
0.130648,0.0595076
0.0718121,0.0241131
-0.0884361,-0.0170907
-0.0242578,-0.0235567
0.0614807,-0.00852467
-0.0770937,0.020363
-0.262812,0.00677559
-0.145883,-0.00656309
0.0454791,-0.00422824
0.101231,-0.00425818
0.0603161,-0.000359711
0.0468933,-0.00163928
-0.0876054,0.000144434
-0.241272,0.00842265
-0.162584,0.00861959
-0.0148767,0.000660666
0.0881273,-0.0132569
0.113086,-0.016081
0.117096,-0.00207407
-0.00713057,-0.00174816
-0.135323,0.00510625
0.0762292,0.0189846
0.388553,0.021204
0.508325,0.00615039
0.401264,-0.00862443
0.120814,-0.0264875
-0.00333981,-0.0894147
-0.0714174,-0.0899515
-0.211995,-0.00699892
-0.345976,0.0400933
-0.480441,0.0291426
-0.298035,0.00649958
-0.0857309,0.00285952
-0.0538479,0.029818
-0.0717952,0.0194803
0.0508483,-0.00824838
0.0985022,-0.0203512
0.0542676,-0.0341164
0.101356,-0.0217334
0.043232,0.0140037
-0.151382,0.0276732
-0.222099,0.0343467
0.00758721,0.0195504
0.274392,-0.00759776
0.280189,-0.0301462
0.155333,-0.0146767
0.00398095,0.0170179
-0.103659,0.0302122
-0.0866293,0.022474
-0.103506,0.00894706
-0.0883245,0.0103793
-0.0241629,0.00878893
-0.0404657,0.00710316
-0.0281013,0.0220887
0.117007,0.0169484
0.170912,-0.00901879
0.130381,-0.0125731
0.0657324,0.0141017
-0.168578,0.0125706
-0.217198,0.0210768
-0.0345394,0.00494656
0.0161196,-0.0322091
0.0473934,-0.0382572
0.0763481,-0.0290221
0.0394477,-0.0181907
-0.00273321,-0.00728411
0.0168887,4.41e-05
0.0482136,-0.000920339
0.0501766,-0.0176222
0.0232889,-0.0255766
-0.0371265,-0.00811565
-0.0969985,0.00340622
-0.103418,0.0128217
-0.074121,0.0137281
-0.046654,-0.00164973
-0.0262396,-0.011785
-0.0159603,-0.0052936
0.0118873,0.00455166
0.0637679,0.0104234
0.084949,0.0152819
0.18157,0.021112
0.23082,0.0127462
0.153219,-0.00305397
0.0842159,-0.0150746
-0.00248041,-0.0178176
-0.0447544,-0.00811747
0.0193913,-0.0149262
-0.0144312,-0.0166231
-0.169918,0.0139833
-0.227352,0.0249241
-0.0836988,0.0292556
0.15101,0.0274365
0.317756,-0.0174684
0.293764,-0.066362
-0.0149837,-0.0364326
-0.447067,0.0401944
-0.532658,0.032137
-0.279349,-0.00631809
-0.109132,-0.00667294
-0.0447788,-0.0132244
0.000751534,-0.0174063
0.187548,-0.019969
0.396257,-0.0147711
0.318162,0.0171765
0.07404,0.0264143
-0.289307,0.0305863
-0.481414,0.0255402
-0.298853,0.0209828
-0.0924327,0.00525356
0.00347473,-0.0187603
0.10746,0.00301715
0.195629,-0.0026673
0.185117,-0.0205026
0.0753651,-0.00197138
0.00478421,0.0170324
0.105937,0.0156126
0.291817,0.00796273
0.391331,-0.00977599
0.431119,-0.0369504
0.293487,-0.0565997
0.0701468,-0.0566615
-0.171814,0.025392
-0.400684,0.0849329
-0.454154,0.0717866
-0.443387,0.0458761
-0.377032,0.00298197
-0.199954,-0.0502061
-0.0438529,-0.0638354
0.0669152,-0.0318594
0.147115,-0.00418158
0.144117,0.0107116
0.0781437,0.0190124
0.0600023,0.0165376
0.105559,0.00418497
0.150031,0.00251913
0.0635521,-0.00267491
-0.136734,-0.012625
-0.120592,0.0112228
0.0985248,0.0192222
0.227366,0.00777744
0.122065,0.000733529
-0.157265,0.000225711
-0.299145,0.00396469
-0.145126,0.00598879
-0.00125233,0.00547176
0.131112,-0.0123301
0.327548,-0.0197572
0.438575,0.00301798
0.384612,0.0141614
0.0936478,-0.00428892
-0.356471,-0.0200951
-0.429715,-0.0394815
-0.0998957,-0.0180089
0.0955625,-0.0145529
0.0722743,-0.00692389
-0.072417,0.0073158
-0.250035,0.0109746
-0.292519,-0.00703844
-0.159068,-0.0559706
-0.0439825,-0.0197939
0.0321234,0.0295536
0.0879338,0.032233
0.0575034,0.0299516
-0.0204443,0.0305357
-0.0526514,0.0268854
-0.0497556,0.0345421
0.0629612,0.0105983
0.247345,-0.0153564
0.278532,0.00139139
0.145494,0.0137591
-0.0235306,0.00201445
0.00106524,-0.0233294
0.20843,-0.0210106
0.277724,0.00986838
0.0392197,0.00744476
-0.302276,-0.013149
-0.355633,-0.0164372
-0.217556,-0.000993973
-0.0164168,0.0117922
0.213564,0.00229428
0.24416,-0.0178913
0.0965168,-0.0205861
-0.0512699,-0.00538831
-0.139487,0.00756503
-0.169869,0.00275579
-0.130952,-0.0289929
-0.0396124,-0.0213911
0.0284395,0.00784828
0.0926441,0.0133066
-0.0829496,0.0249554
-0.332046,0.0207181
-0.248775,0.0102442
-0.0629729,0.0100141
0.0864425,-0.0130216
0.174475,-0.003434
0.197588,-0.00888154
0.152329,-0.0321475
-0.0141705,-0.0111499
-0.136723,0.00569743
-0.0878119,-0.00634776
-0.0259927,-0.0188149
-0.00172091,0.00700944
0.0115472,0.0205999
0.0367608,0.01887
0.0412299,0.0175911
0.0346397,0.0164572
0.0576082,0.0151566
0.0905132,0.00890082
0.0730289,0.00150602
0.033512,-0.0046246
0.0966781,-0.00714503
0.19265,-0.00101453
0.184646,-0.0130237
0.140902,-0.0244843
0.133254,-0.00964904
0.239839,0.0301628
0.318281,0.0153481
0.0499224,-0.0270945
-0.384069,-0.0103706
-0.480431,0.0190893
-0.397014,0.0150932
-0.341335,-0.00905838
-0.233053,-0.00924411
-0.0836413,-0.00628654
0.0274676,-0.00232548
0.0544906,-0.00056168
0.034661,-0.00323663
0.0133474,-0.00082732
0.0786271,0.0110579
0.237225,0.0250216
0.189146,0.00783252
-0.0186731,-0.0107535
-0.146686,-0.0137945
-0.094471,-0.00563468
0.0416916,-0.0254043
0.100407,-0.0273478
0.0582256,-0.00512039
-0.0532214,-0.000321058
-0.0895991,0.0132043
-0.0332854,0.00510064
-0.00339482,0.0109929
0.0355089,0.0195339
0.0710164,0.00880905
0.150508,-0.00448967
0.191338,-0.00344382
0.154116,0.00356461
-0.0143841,0.0123265
-0.170829,0.00912292
-0.16911,-0.0633864
-0.170042,-0.0897771
-0.179326,-0.00135166
-0.0741833,0.026551
-0.0335214,0.024689
-0.0571108,0.0268789
-0.00785153,0.0190625
0.177967,0.00920762
0.267055,0.00532098
0.205533,0.00832372
0.031184,0.0152085
-0.220381,0.0256778
-0.192657,0.0254093
-0.0306281,0.0119961
0.00760652,-0.0114016
0.0108968,-0.00814889
0.117338,0.0202799
0.176341,0.0249411
0.149615,-8.74e-06
-0.0107003,-0.0326657
-0.226637,-0.0448914
-0.265474,-0.0271698
-0.0930109,-0.0103973
0.0454402,-0.00205035
0.0392644,0.00176758
0.0630018,0.00167506
0.0852929,0.00647932
0.0885463,0.00396564
0.139021,-0.00473425
0.140286,0.00178916
0.158448,0.0122266
0.257568,-0.00285567
0.454208,-0.00547223
0.368403,0.017288
-0.0212817,0.0158245
-0.449434,0.00388891
-0.814678,0.00415598
-0.694268,0.000701636
-0.360879,-0.0262502
-0.116859,-0.0552929
0.00600495,-0.0257401
0.0790614,0.022427
0.109698,0.0201257
0.083146,-0.000107123
0.0293386,0.0134802
0.0174846,0.0021952
0.0683481,-0.00981587
0.108935,0.00845999
0.108151,0.0193054
0.0564735,0.0168238
0.0125185,0.0156892
0.175334,-0.00331105
0.297384,-0.0266428
0.198657,-0.0126036
0.0346904,-0.0012424
-0.197942,0.011033
-0.227144,0.00740372
-0.0198915,-0.000581394
0.0544593,-0.00176441
0.0458698,-0.00982835
0.0110164,-0.0209227
-0.0510146,-0.0187468
-0.0974288,0.00930266
-0.0266256,0.0282177
0.0206534,0.0125103
-0.00404883,-0.00137818
-0.00376474,-0.00450938
0.0252522,-0.00472468
0.0341263,-0.00564331
0.00538592,-0.0040424
-0.0303018,-0.00816468
0.020836,0.00239043
-0.0124043,0.0211849
-0.0660429,0.0346203
0.0331283,0.0441233
0.134537,0.025117
0.0949507,-0.012819
0.0534058,-0.0465244
0.0594709,-0.0525195
0.087469,-0.0297706
0.259389,-0.0109655
0.31966,0.00853631
0.0442291,0.0161885
-0.297698,0.0202881
-0.583089,0.0437636
-0.514021,0.0294035
-0.178984,-0.032844
0.0579338,-0.0307227
0.151353,-0.0187255
0.117803,-0.00463304
-0.027308,-0.00197081
-0.121722,-0.0062641
-0.0615037,-0.00720623
-0.0278338,0.00130878
-0.0263291,0.003409
-0.0213709,-0.00709294
-0.0355781,-0.00426129
-0.00698122,0.0114975
0.150278,0.0208842
0.359715,0.0196861
0.441209,0.00976293
0.39906,0.00289585
0.230457,-0.0185551
0.0101151,-0.0295594
-0.10812,0.00789361
-0.361937,0.0201709
-0.437693,0.012412
-0.274842,0.0187797
0.0961252,0.0121091
0.451918,-0.00187013
0.47663,0.00470267
0.175243,-0.0191816
-0.31778,-0.0649293
-0.527973,-0.0782407
-0.396945,-0.0424732
-0.408503,0.0260239
-0.382804,0.0653051
-0.187058,0.0293427
0.0357333,-0.0253503
0.159519,0.00162593
0.178339,0.0324094
0.106221,0.0194049
0.0475854,0.000234188
0.0944395,-0.0177247
0.204122,-0.0285241
0.256638,-0.0195753
0.225956,0.0154066
0.289775,0.016908
0.242907,0.00365316
0.0264822,-0.00876694
-0.247628,-0.0116035
-0.439307,0.0136701
-0.373675,0.024907
-0.119627,0.0180486
0.0157451,0.0154311
0.0426539,0.00939242
0.0148434,0.000315861
0.0334468,0.000947068
0.0759502,-0.00475425
0.133372,-0.00847654
0.2265,-0.00226097
0.360572,-0.00547959
0.467459,-0.0197078
0.29409,-0.0106079
0.0607472,0.0380628
-0.23024,0.0715899
-0.438624,0.0664593
-0.404144,0.00492886
-0.403534,-0.0504433
-0.241774,-0.0657438
0.142391,-0.041998
0.369744,-0.0133528
0.309936,-0.0044684
-0.016248,-0.00259823
-0.274562,0.00166663
-0.107086,-0.00407489
0.0781035,-0.0104553
0.0654345,0.00240979
-0.026762,0.0249057
0.0044119,0.0265668
0.0321882,0.0100189
-0.0382818,-0.0164137
-0.117733,-0.0205334
-0.15514,-0.00470798
-0.216379,-0.000238593
-0.136283,-0.010595
-0.0310756,-0.00552289
0.0416457,0.0101329
0.141077,0.0199526
0.176222,0.00949801
0.141538,0.00474526
0.0659863,-0.00207101
-0.0131931,-0.0154976
-0.000722842,-0.00649304
-0.01192,0.00629964
-0.0847908,0.00912913
-0.0327927,0.00573364
0.0163601,-0.00833504
-0.00248169,-0.00991349
0.0410266,-4.8e-05
0.0338749,0.00233809
0.0356175,-0.00563687
0.0969031,-0.016046
0.0856917,-0.00350275
0.0409807,0.00775476
0.0596245,0.000120366
0.0571423,-0.00509858
0.146995,0.000199153
0.265404,-0.00117336
0.135827,0.00691105
-0.0641435,0.0090948
-0.181731,-0.0079898
-0.202867,-0.0106026
-0.232754,0.000540859
-0.229017,0.00164016
-0.205924,-0.00370972
-0.152737,0.00194922
-0.0518516,0.00820758
-0.00658631,0.00745359
0.0158751,0.0076051
0.0405857,0.0134027
0.0581601,0.0146894
0.0435151,0.00298059
0.0456379,-0.0061694
0.0676185,-0.00270254
0.0477062,3.89e-05
0.0399122,0.00463728
0.0886464,0.0107192
0.211318,0.0174599
0.293607,0.0186691
0.222002,-0.000804539
0.0132599,-0.0128776
-0.195732,-0.0154025
-0.264022,-0.0271315
-0.219365,-0.0480741
-0.212188,-0.0230097
-0.135307,0.0123863
0.0239798,0.00477589
0.0968002,-0.0232341
0.130985,-0.0495581
0.153158,-0.0335763
0.116078,-0.00687875
0.05715,0.00992424
-0.100897,0.0300872
-0.272433,0.0366035
-0.211424,0.0209245
-0.013313,0.00564936
0.155731,0.0171189
0.300489,0.0350397
0.419961,0.0444996
0.292895,0.0427832
-0.0424428,0.0187523
-0.367121,-0.0140088
-0.483748,-0.0432616
-0.271152,-0.0250333
-0.0984605,-0.000633235
-0.0406343,0.00349651
-0.0170632,-0.00144458
0.0045591,-0.0201491
0.0312225,-0.00905002
0.0427103,0.00381759
0.0204363,-0.0030768
-0.0097323,-0.0155033
-0.0151026,-0.0176713
0.0238241,-0.00488555
0.0851901,-0.0101982
0.155385,-0.0117645
0.156833,0.00171064
0.0720505,0.0165801
-0.036548,0.0242807
-0.0873006,0.0282212
0.00321442,0.0239153
0.0703144,0.0138235
0.0406192,0.0117474
0.0349584,0.0262271
0.119933,0.0217233
0.18173,0.00882255
0.189458,-0.00922997
0.18616,-0.0197344
0.109103,-0.0193182
-0.0403519,-0.0162543
-0.287605,-0.0280067
-0.534943,-0.0274044
-0.413902,-0.0102385
0.0747082,-0.00866577
0.0912196,-0.00631458
0.126507,0.00560573
0.204184,0.00507681
0.231458,-0.00882503
0.0883182,-0.00904466
-0.181668,0.00847103
-0.228117,0.00423332
-0.112755,-0.0125639
-0.084815,-0.0184006
-0.0907304,0.0108717
-0.0164203,0.0258359
0.0995785,0.0102582
0.12672,-0.00235172
0.0425717,-0.00861738
-0.212046,-0.00788635
-0.251287,-0.00709478
-0.0785198,-0.0035955
0.0115563,0.00845804
0.0537731,0.00092748
0.0804202,-0.0204449
0.0688794,-0.0077872
0.0572821,0.0115611
0.109899,0.0206388
0.165998,-0.0008258
0.222254,-0.0110943
0.156515,-0.0206713
-0.0252219,-0.00694607
-0.124095,0.0129421
-0.202264,0.0129222
-0.102159,0.0195602
0.214609,0.0112844
0.325145,0.00583221
0.141064,0.0117453
-0.253795,0.0211317
-0.393195,0.0206309
-0.0455647,0.0197961
0.346818,0.0252322
0.308508,0.0217276
0.0962136,0.011721
-0.118541,-0.00284461
-0.220516,-0.0228918
-0.0656484,-0.0374959
-0.154153,-0.0287226
-0.254676,-0.0197478
-0.138795,-0.0161698
-0.104094,-0.014455
-0.0652012,-0.0123242
-0.0373847,-0.00841153
0.061972,-0.00660672
0.28776,-0.00818571
0.353845,-0.00574128
0.171159,0.00120791
-0.169719,0.00269092
-0.311211,-0.00316575
-0.191354,-0.00476003
0.108595,0.00103852
0.325132,0.00739594
0.288882,0.0140472
0.0377349,0.016889
-0.218566,0.0162886
-0.226248,0.00881345
-0.162083,0.00557632
-0.242922,0.0069609
-0.173741,-0.000947164
-0.0216148,-0.00877335
0.0597853,-0.0203676
0.124089,-0.00730427
0.15742,0.00102187
0.11202,-0.0110364
0.00221653,-0.0154085
-0.0743414,-0.00380487
-0.0523878,-0.00178684
-0.01849,-0.00214753
0.0322015,0.0061949
0.0383669,0.0177172
0.0906448,0.0229438
0.315392,0.00974957
0.442629,-0.000219094
0.333969,-0.00261931
0.147397,0.00786761
-0.188312,0.0101884
-0.397155,0.0007596
-0.302392,-0.0104928
-0.233251,-0.0252454
-0.0589723,0.0017994
0.123073,0.00861636
0.0651963,-0.0133478
-0.128053,-0.0191912
-0.206963,0.00251267
-0.183364,0.019962
-0.0857607,0.0228295
0.0150725,0.0197379
0.128924,0.00927391
0.257638,-0.00506169
0.347611,-0.00325737
0.442689,0.0128517
0.38303,0.00312421
0.131704,-0.0293854
-0.126558,-0.0527315
-0.430398,-0.0117822
-0.546457,0.00544735
-0.422871,0.000748386
-0.268696,0.0071345
-0.0987232,0.0217178
-0.028264,0.00819694
0.0139364,-0.0119346
0.0418103,-0.00280488
0.0586715,0.00606889
0.0471835,0.00592304
-0.013399,0.0145443
-0.0473799,0.0103876
-0.0121775,0.000764936
0.0306663,-0.00468008
0.0663756,-0.00314454
0.111577,0.00260337
0.151759,-0.00875011
0.152409,0.00896999
0.105311,0.0187576
0.0841697,0.0142993
0.110289,-0.00131935
0.132291,-0.0189635
0.0918463,-0.0175882
-0.00397739,-0.0229038
-0.12746,-0.0367498
-0.17221,-0.0122015
-0.123734,0.000514682
-0.0687558,0.00659675
0.024923,0.0102698
0.0741435,0.00121959
0.0828559,0.00546296
0.206983,0.0118412
0.235421,0.0131071
0.135655,0.00647449
-0.0877796,0.00473676
-0.254656,0.00937303
-0.22912,0.0183688
-0.127126,0.00998901
-0.0108277,-0.018147
0.140789,-0.0566333
0.220012,-0.0562969
0.120706,0.0283027
-0.0442465,0.0740727
-0.189952,0.0658044
-0.255593,0.03934
-0.349562,-0.00917816
-0.322138,-0.0547586
-0.149475,-0.043564
0.0338521,-0.0100806
0.18211,-0.0077127
0.251389,-0.00752053
0.215693,0.0105921
0.0841828,0.0153921
0.0545998,-0.011741
0.299335,-0.0257223
0.59911,-0.0292544
0.533455,-0.00437889
0.139935,0.0260706
-0.260271,0.0280461
-0.773789,0.0246349
-0.827316,0.0142723
-0.39598,0.0088062
-0.0486264,0.00124584
0.10323,-0.0130785
0.126165,-0.0244709
0.0202808,-0.0141152
-0.0389577,0.00525049
-0.0290086,0.0137321
-0.0126299,0.00524292
0.0356734,-0.00214419
0.0788107,-0.00651423
0.0933976,-0.00717752
0.0718718,0.000339594
0.0576973,0.0053943
0.0692188,0.00762226
0.104281,0.0142024
0.103938,0.00359755
0.0523188,-0.000734743
0.0484317,0.00837186
0.067917,0.00938857
0.0430055,-0.00304484
0.014025,-0.00945331
-0.0726592,-0.00410305
-0.0850417,0.00589914
-0.046719,0.00859647
0.00526041,0.0108992
0.0537021,-0.0119705
0.0313958,-0.0270648
-0.0311445,-0.022954
-0.0929477,-0.0100886
-0.0967117,-0.0055602
-0.0304994,-0.00452708
0.0272715,-0.00588569
0.031212,0.00365411
0.0191606,0.00500769
0.0819221,-0.00378773
0.129303,-0.0138339
0.147768,-0.00435922
0.165365,0.00471224
0.0902073,0.0116779
-0.0770802,0.00644499
-0.226275,-0.00305456
-0.249054,-0.00279011
-0.172454,-0.00111282
-0.130204,-0.00150556
-0.0887443,-0.0020933
-0.0522654,0.00538511
-0.00274469,0.00680302
0.0954563,-0.000874144
0.0955064,0.00548648
0.0149813,0.0161172
0.0750595,0.0148118
0.101971,0.00438999
0.108124,-0.0105006
0.135756,-0.0110537
0.174695,-0.00201372
0.439812,-0.0104547
0.505403,-0.0022616
0.144628,0.00661057
-0.147218,0.000348259
-0.205527,-0.0155209
-0.317015,-0.0158418
-0.450617,-0.000868561
-0.542293,0.00685474
-0.437918,0.00739981
-0.194493,0.010957
-0.0596371,0.0167828
-0.0407421,0.0183152
-0.027819,0.0117918
0.0133683,0.000605615
0.0520444,-0.00764028
0.0761006,-0.009326
0.0878077,-0.0056002
0.116469,-0.0046802
0.150762,-0.0052685
0.159716,-0.00124058
0.141792,0.00333279
0.0862732,0.0025798
