Comp Ch 3,Comp Ch 4
-0.063957,-0.0727144
-0.086705,-0.0322748
-0.0364283,0.0198756
0.0537843,0.0230988
0.157384,0.0242635
0.161676,0.0235794
0.033433,0.0222346
-0.0233231,0.0285196
-0.0355532,0.0296204
-0.0465605,0.0261259
-0.0909162,0.0209919
-0.163981,0.0154688
-0.114288,0.00199609
-0.0368109,-0.012693
0.00695825,-0.0156803
0.0481441,-0.0163059
0.0416629,-0.0209908
0.00910781,-0.0138014
0.005687,-0.00207179
0.00779458,0.0019871
0.0361758,0.00251232
0.06101,0.0101466
0.0479033,0.0157699
0.0212178,0.0254813
0.0852231,-0.000797258
0.266978,-0.0386454
0.43038,-0.0191257
0.426611,-0.055205
-0.0130155,-0.117999
-0.426882,-0.192156
-0.543869,-0.117043
-0.494479,-0.0423727
-0.23492,0.000443725
0.0525251,0.0341168
0.119872,0.0578805
0.0750144,0.0551313
0.063567,0.0224132
-0.033882,0.0296311
-0.164817,0.0671254
-0.27323,0.0313658
-0.188292,0.0934789
0.0506182,0.168763
0.193137,0.126706
0.325573,0.0764189
0.271414,0.0564572
0.251041,0.054394
0.273075,0.0316678
0.167203,0.0107182
-0.0261284,-0.00779291
-0.354738,-0.0123689
-0.399335,-0.0274865
-0.131121,-0.0791978
0.0885589,-0.0572518
0.117727,-0.0256616
0.017141,-0.00218086
-0.275425,0.0423926
-0.45816,0.0466089
-0.374906,0.00149885
-0.0669396,-0.0472256
0.162281,-0.0240053
0.361947,-0.0442267
0.372199,-0.034026
0.104385,-0.00433095
-0.275527,0.0109323
-0.531744,-0.0385615
-0.215587,-0.0646198
0.272798,-0.0654481
0.603052,-0.0527508
0.979116,-0.017602
1.43959,-0.0299308
1.24391,-0.0361521
0.147223,0.00194855
-1.32019,0.0331096
-1.87505,0.0494615
-1.09641,0.0417078
-0.388704,0.0222027
-0.137717,0.00740857
0.00661345,0.00682665
0.12778,0.008311
0.0710986,0.0157752
-0.0063531,0.0186854
-0.0204344,0.00201349
0.127955,-0.0371964
0.243705,-0.0270907
0.174862,-0.0145721
0.0376697,-0.072596
-0.157818,-0.0571243
-0.134399,-0.0694367
0.203061,-0.0166856
0.410043,0.0524053
0.410902,0.0590426
0.162076,0.045417
-0.251695,0.0423001
-0.431951,0.0387999
-0.143574,0.0167184
0.227738,0.00168733
0.319472,0.00138022
0.265889,-0.0027775
-0.00397195,-0.00881921
-0.260292,-0.00475675
-0.180497,-0.00547073
-0.00704069,-0.0116139
0.378113,-0.0226188
0.660523,-0.0339893
0.60347,-0.0121937
0.1124,0.00017931
-0.283016,0.00538038
-0.437152,0.0139773
-0.561643,0.0346795
-0.433368,0.0423583
-0.226216,0.0346722
-0.113967,0.0170207
-0.181738,-1.61e-05
-0.123648,0.00470122
-0.0233544,0.0193623
-0.0288036,0.0320016
0.0427413,0.0144105
0.0899009,-0.0158932
0.0809109,0.000843686
-0.0171205,-0.0023887
0.0560025,-0.0273348
0.226424,-0.0224791
0.30567,-0.030619
0.193439,-0.0545405
0.0693244,0.00767478
0.146118,0.0350509
0.122387,-0.000531366
0.0665455,0.00584324
-0.091377,0.012628
-0.197223,-0.00905722
-0.0901024,-0.0128152
0.0605298,-0.0108865
0.0716172,-0.00872338
-0.33364,0.0148256
-0.692835,-0.0122755
-0.535846,-0.0617744
-0.216601,-0.0833964
-0.104728,-0.0203416
-0.0413041,0.0202957
0.117241,0.015475
0.329712,-0.00228357
0.259726,-0.00871753
0.0322505,-0.012512
-0.0306154,-0.0012404
0.368226,0.00672055
0.991854,-0.0001041
1.26905,-0.00519793
1.17264,0.0132462
0.546842,0.029055
-0.474377,0.0320045
-1.14784,0.0515934
-1.4323,0.0330311
-1.26249,-0.0144167
-0.602082,-0.00465488
-0.0290195,0.0241862
0.257859,0.0450946
0.303719,0.0146537
0.197226,0.0375391
0.0358337,0.0544027
-0.0170752,0.0241516
-0.1734,-0.00371308
-0.19182,-0.0131144
0.014442,-0.0113897
0.0166574,-0.0285913
-0.0831854,-0.00235418
0.00107154,0.029622
0.260562,0.00197422
0.56712,-0.0213343
0.702752,-0.03644
0.744579,-0.0499131
0.341624,-0.0108791
0.0631314,0.032584
-0.077771,-0.017732
-0.417121,-0.0439189
-0.664328,0.0137149
-0.567453,-0.0322579
-0.320201,-0.0300692
-0.0301359,0.00378552
0.161561,0.0121066
0.101233,0.0207598
-0.156238,0.0132513
-0.275126,0.00141366
-0.0221413,-0.0112356
0.232871,-0.0129021
0.22273,-0.0249763
-0.0400067,-0.0298336
-0.175238,0.0275857
-0.0664225,0.0427126
0.118538,0.0209821
0.264946,0.00816968
0.276978,0.00801574
0.124072,0.0112012
-0.112583,0.00822469
-0.242965,0.0035879
-0.0652664,-0.0164455
0.140323,-0.0374405
0.210409,-0.0372312
-0.0592482,-0.0106692
-0.433011,-0.00871392
-0.29603,-0.00626896
-0.0505588,0.0245089
0.024291,0.0314286
0.140401,0.0175148
0.397578,0.0123585
0.579002,-0.00147261
0.382251,-0.0291417
0.0331164,-0.0237194
-0.230742,0.00857506
-0.241196,0.0117414
-0.221057,0.0068418
-0.208401,-0.0107893
0.0664265,-0.0110492
0.17501,-0.00993591
-0.0601167,-0.00810944
-0.429989,0.00223841
-0.346345,-9.71e-05
-0.114716,0.00789917
0.000914503,0.015797
0.0347989,0.021473
0.00986414,0.0164167
0.00581465,-0.0124029
0.113993,-0.0217126
0.144738,0.0192998
0.125134,0.0434874
0.146747,0.0292222
-0.069697,0.00717328
-0.0491162,-0.0144596
0.0759654,-0.0236404
0.0170055,-0.0154274
-0.0370033,-0.000792881
-0.0678174,0.00373737
-0.0559833,-0.0108035
0.00858339,-0.0184622
0.183284,-0.0209918
0.226478,-0.0290318
0.149706,-0.0248264
-0.13018,-0.0118861
-0.293432,-0.0105338
-0.170477,3.95e-05
-0.119078,0.016101
0.034476,0.0277771
0.2323,0.027107
0.39983,0.0201766
0.323394,0.00337403
0.225894,-0.0108848
0.150046,-0.0226622
-0.116128,-0.00090582
-0.150835,0.00877331
-0.136405,-0.0102138
-0.264749,-0.0137563
-0.388833,0.00421726
-0.15992,0.0234847
-0.0498434,0.0115861
-0.348672,-0.00775942
-0.166204,0.000678211
0.0737491,0.0138672
0.120348,0.00365218
0.034397,-0.0494877
-0.0307641,0.00430519
0.0250397,0.0321367
0.159093,-0.0543836
0.235873,-0.0238211
0.186299,0.0236679
0.118647,-0.016213
-0.00561719,-0.0120858
-0.0660625,0.0372578
0.000681404,0.0669296
0.0024922,0.0256165
-0.153262,-0.0156854
-0.197296,-0.00797458
-0.0870589,0.0169792
-0.0291587,0.0241718
-0.0110656,0.032899
0.045283,0.0333138
0.0632862,-0.0097115
-0.0278347,-0.0429764
-0.0281804,-0.0317319
0.0571648,-0.0199356
0.120893,-0.0327179
0.231372,-0.00947801
0.291166,0.0116197
0.163569,0.0024839
-0.00379924,0.00208216
-0.0670773,0.00571279
0.0475237,0.00116362
0.0635775,-0.00522866
0.0410645,-0.015189
-0.0993627,-0.0205556
-0.166294,-0.00730938
-0.090861,0.00334842
-0.139014,0.0171596
-0.232176,0.0183859
-0.223765,0.0152947
-0.0911567,0.0076463
0.0048549,0.00625265
0.0651895,0.0134593
0.135344,0.0158771
0.152955,0.00892809
0.0429675,0.000646133
-0.129939,0.00262492
-0.117169,-0.000628739
-0.062751,0.00149276
-0.0220391,-0.000856536
0.218757,-0.0157146
0.519868,-0.0245798
0.551895,-0.0167627
0.305435,-0.0111892
-0.0234841,0.00746297
-0.212743,0.0181838
-0.278328,0.0123763
-0.45787,-0.0100771
-0.48741,-0.0343277
-0.265374,-0.0425158
-0.140792,-0.0468583
0.0185343,-0.000580015
0.183908,0.0263542
0.227197,0.0165116
0.00378808,0.0412457
-0.188237,-0.0108007
0.0197343,-0.0267633
0.443832,-0.0234512
0.517181,-0.00877675
0.19641,0.0111196
-0.457857,0.0321865
-0.515317,0.0413231
-0.295132,0.0247227
-0.105238,0.0107379
0.0492633,0.00675603
0.125343,0.00812772
0.167304,0.0118892
0.00523693,0.0140998
-0.0298748,-0.0131222
0.0242645,-0.0127596
-0.0653348,-0.0057491
-0.159411,0.00559693
-0.153753,-0.000449964
-0.0748896,0.00716506
0.0188725,0.00764672
0.113965,-0.0151582
0.427235,-0.0253992
0.533121,-0.0185138
0.305257,-0.00959155
-0.19568,0.00609189
-0.381513,0.00124794
0.0338522,-0.0124655
0.216002,-0.00280743
0.245635,0.0128053
0.276485,-0.00914224
0.0904147,0.00352099
-0.11399,0.0391996
-0.0897357,0.0422283
-0.126625,0.000722775
-0.53689,-0.0339541
-0.606794,-0.0437972
-0.344168,-0.0357936
-0.130748,-0.0170262
-0.0139867,0.00848222
0.127632,0.0219822
0.201172,0.0156957
0.222051,0.0114487
0.156396,-0.0190827
-0.140833,-0.0732367
-0.191438,-0.0257326
0.0674142,0.0653067
0.309387,0.0504747
0.296146,0.0244247
0.109693,0.00536593
-0.202985,-0.0402972
-0.222443,-0.0503041
0.206599,-0.0526272
0.509026,-0.0210442
0.619382,-0.0231517
0.39444,-0.00220796
-0.155222,0.0195384
-0.44508,0.0707416
-0.659079,0.053782
-0.654144,0.0159279
-0.336044,0.0127662
-0.117696,0.0158774
0.00758444,0.020134
0.0711192,0.0168206
0.141501,0.00103766
0.271254,-0.0205522
0.594545,-0.0116471
0.751304,0.00457729
0.442095,-0.00990513
-0.37503,-0.0135475
-0.829285,-0.00459859
-0.358065,-0.000520162
-0.139232,0.0121366
-0.140096,0.0195194
0.0773386,0.00684806
0.20731,-0.0125114
0.127056,-0.00875319
-0.0559994,-0.0038075
-0.0671933,-0.000140835
0.153711,-0.00183652
0.191235,-0.00154423
0.0505123,-0.00818693
-0.163322,-0.0218614
-0.194063,-0.00215029
-0.0769372,-0.00565257
0.0348849,-0.0158394
0.0723957,0.0208243
0.105108,0.0170011
0.0069233,0.0314878
-0.128267,0.0174842
-0.0535993,-0.00772056
0.074319,-0.00867071
0.072514,0.00527987
0.0411399,0.00192124
-0.0265483,-0.00435994
-0.113912,0.00537157
-0.0640874,-0.011018
0.047463,-0.0258767
0.226918,-0.000325661
0.168097,-0.0144643
0.0289635,-0.0213737
-0.152934,0.00712553
-0.239767,0.0352381
0.112166,0.0161993
0.310512,-0.055407
0.109908,-0.0183442
-0.164461,0.0428305
-0.0824073,0.0215434
0.11195,0.00726131
0.13628,0.000722654
-0.141821,-0.024037
-0.284366,0.00197522
-0.173028,0.0191699
-0.11076,-0.0264933
-0.147014,-0.028894
-0.167232,0.0112057
-0.115316,0.0326016
-0.02411,0.0264532
0.0893304,0.0073605
0.258334,-0.00744305
0.362497,-0.0255498
0.266861,-0.0360163
-0.00928687,-0.0136377
-0.203285,0.0333831
-0.24473,0.0347788
-0.140445,0.0146308
0.0653384,-0.00168018
0.0906648,-0.0307898
0.0958593,-0.101894
0.204519,-0.0769723
0.223627,-0.017891
0.0606914,0.0520425
-0.211791,0.0522025
-0.322034,0.0113607
-0.296269,0.020366
-0.236897,0.0266565
-0.123795,0.01281
0.114969,0.0161434
0.380769,0.0212491
0.494401,0.0189878
0.244106,0.00644342
0.051292,-0.043606
0.297172,-0.083493
0.551562,0.010417
0.374529,0.0320511
-0.207314,0.0106924
-0.529988,0.0325611
-0.620211,0.0317165
-0.543144,-0.0124408
-0.322738,-0.0377953
-0.122226,-0.00254477
0.00230033,0.0308625
0.0892972,0.020319
-0.0166924,-0.00947347
-0.15228,-0.0201486
0.0048133,-0.0185844
0.233051,0.0163564
0.242187,0.043005
0.0117513,0.0215512
0.00220124,-0.0035665
0.255326,-0.0222453
0.220259,-0.0433363
-0.0138041,-0.050793
-0.112631,-0.0290421
0.0135486,0.0138291
0.00402319,0.0275906
-0.0413825,0.0249952
-0.100742,0.00600088
-0.0640039,-0.0137467
-0.105169,0.00985621
-0.179308,0.0176877
-0.131964,-0.0164457
-0.0701442,-0.0103408
0.00634134,0.0137703
0.0641276,0.00829197
0.0490267,0.0185227
0.0106336,0.0236646
0.0799248,0.000124493
0.18515,-0.0187762
0.217025,-0.0163748
0.155162,-0.00756935
-0.0118741,-0.0280418
-0.0419728,-0.049142
-0.0327523,-0.00597924
0.000141656,0.00931991
0.0701805,0.0136937
0.0379725,0.012021
-0.0467498,0.0135645
0.0172957,0.0140595
0.0356429,0.00474881
-0.038848,0.00205715
-0.070647,0.00857077
-0.120245,0.0142805
0.00809408,0.0131323
0.0912552,0.0096854
0.14435,-0.000932294
0.239224,-0.0146934
0.178564,-0.0128848
0.113387,-0.014895
-0.0545338,-0.0110859
-0.392538,0.00920602
-0.43595,0.00489056
-0.2108,-0.00939087
-0.0686202,-0.00164398
-0.178025,0.0104376
-0.227219,-0.0167549
-0.105825,-0.0378889
0.0724372,-0.00243828
0.237402,0.0243053
0.392458,0.0168473
0.430068,-0.0322158
0.189814,0.0290195
-0.106156,0.0584107
-0.170305,0.0413845
0.118314,-0.0049559
0.383969,-0.024177
0.291884,-0.0370615
-0.307864,-0.0115364
-0.69663,0.0114699
-0.481912,-0.0353068
-0.113147,-0.0748755
-0.120947,0.000851941
-0.107988,0.016434
0.248708,0.0260563
0.734838,0.0442933
0.795675,0.034879
0.427607,-0.0073426
-0.222955,-0.0131748
-0.49531,-0.0134279
-0.481806,-0.0270053
-0.510214,-0.0428153
-0.318831,-0.0192037
-0.159086,0.0363566
0.0256163,0.0429844
0.134627,-0.0103284
0.0881336,-0.0234019
0.0158316,0.00181897
-0.0808297,0.00335192
0.00775028,0.0569173
0.177075,0.0251973
0.224387,-0.0281966
0.125768,0.00144656
0.0158118,0.0361365
-0.0393819,0.0099066
0.0186932,-0.0150478
0.080898,0.0291035
0.022117,0.00212923
0.0116257,-0.0391912
0.254024,-0.00475455
0.322684,0.043821
0.173144,0.00921663
0.0320452,-0.0113959
-0.0877075,-0.00309219
0.0215973,-0.0138446
-0.000403058,-0.0438914
-0.197394,0.00132205
-0.263247,0.00905391
-0.183786,-0.028589
-0.267715,0.0116802
-0.450386,0.0466316
-0.414428,0.0293141
-0.177607,0.00380387
0.070794,-0.0279546
0.197857,-0.0823443
0.188538,-0.095819
0.23079,-0.00447652
0.497051,0.0375205
0.72718,0.0182939
0.73831,0.0194964
0.448902,0.0224437
-0.0141369,-0.016071
-0.271078,-0.00785954
-0.398699,0.0244847
-0.324508,0.027655
-0.331318,0.0332396
-0.36941,0.0198646
-0.482838,-0.0164087
-0.366308,-0.00845318
-0.139403,0.00791665
0.0654739,0.0094419
0.146267,-0.00692126
0.098755,-0.0240487
-0.0457217,0.0089259
-0.125213,0.0145931
0.0277851,-0.000670595
0.162238,-0.00133959
0.141137,0.00820493
-0.00900083,0.00265558
-0.10717,-0.0254775
-0.0132437,0.00449264
0.0879608,0.0342883
0.0914541,0.00919015
0.0671432,-0.0264499
0.11804,-0.0296051
0.218162,-0.026164
0.219149,-0.0291649
0.167679,0.00780515
0.0975973,0.00976784
-0.0231159,-0.000597555
-0.0787639,0.00574558
-0.19094,-0.00713569
-0.143843,-0.0101131
0.137645,0.0163977
0.12867,0.0334836
-0.00672471,-0.0138148
-0.1869,-0.0676948
-0.174203,-0.0262227
-0.00180819,0.0470789
-0.00010084,0.0378162
0.0193816,0.00221097
-0.068352,-0.030249
-0.0671751,-0.0203005
0.00545841,0.0174786
-0.0730787,-0.0196197
-0.143504,-0.035366
-0.0562082,-0.0627016
0.254103,0.0264208
0.506798,0.0727633
0.317907,0.056865
-0.216139,-0.00312436
-0.425992,-0.0268153
-0.224369,0.00487702
-0.00861168,0.00749747
0.104282,0.0350943
0.0354807,0.0277148
-0.0174371,0.0262894
-0.146395,0.0147216
-0.247552,-0.019964
-0.227295,-0.00206682
-0.111287,0.0141396
0.174573,0.0173474
0.529154,-0.017932
0.665355,-0.0218036
0.542492,-0.0247932
-0.189508,-0.0400325
-0.484518,-0.0411066
-0.286177,-0.00030171
-0.199399,0.0443448
-0.311685,0.0248726
-0.31418,-0.0220846
0.0234374,-0.022377
0.224981,-0.00308943
0.211125,0.00963654
0.279811,0.0132468
0.318617,-0.0170758
0.164712,-0.0530181
-0.0372656,-0.0232242
-0.271113,0.045535
-0.311971,0.0458724
-0.229456,0.0182932
-0.131105,-0.0229023
-0.147312,-0.0348463
-0.111424,-0.000782803
-0.0450247,0.0643876
0.00136146,0.0891659
0.128103,0.0409736
0.404244,-0.00655129
0.527881,-0.0603103
0.403492,-0.00666036
0.0403249,0.0263703
-0.417122,0.0190736
-0.441319,-0.039276
-0.205229,-0.0428645
0.0943743,-0.0183011
0.298273,-0.0899462
0.242918,-0.0785375
0.00236753,0.0659127
-0.329686,0.0820443
-0.346735,0.0296945
-0.105008,-0.0141288
0.0239381,-0.00385213
0.0357654,-0.0134139
0.0558694,-0.0176754
0.0666799,-0.0066993
0.0497277,0.0105288
0.0223927,0.0180008
-0.0333821,-1.84e-05
-0.0785086,-0.00411616
-0.00466407,-0.0295977
0.173176,-0.0127617
0.262067,0.0372441
0.0793019,0.0341346
-0.228721,0.0208347
-0.133625,-0.00468575
0.475542,-0.0240293
0.75151,-0.0264578
0.303212,-0.0390884
-0.431401,-0.0481551
-0.708495,0.0330529
-0.482408,0.05269
-0.157757,-0.0128976
0.0883825,0.000503411
0.179053,0.00802338
0.23439,-0.0205333
0.251289,-0.0332048
0.225844,-0.00974024
0.0973484,0.00478634
-0.204759,0.0391555
-0.404086,0.0258437
-0.248389,-0.0149269
-0.0740261,-0.0181241
-0.207383,0.0852761
-0.239144,0.0605242
-0.116243,0.0297888
0.13608,-0.00723767
0.308874,-0.0165617
0.213691,-0.00249306
-0.00037447,0.0120011
-0.162303,-0.00106712
-0.106788,-0.0274502
0.0409393,-0.044559
0.0104403,-0.0312737
-0.0580246,-0.0111061
-0.0763699,0.00136057
-0.0646477,0.0190654
0.221792,0.0461687
0.404624,0.0236959
0.246502,0.0192563
0.0339811,0.0312692
-0.0402254,0.0115166
0.0869526,-0.0229041
0.0760019,-0.0450136
-0.0661227,-0.0746658
-0.0906015,-0.0678869
-0.0704304,-0.0122642
0.0094514,0.00121012
0.311951,0.0128856
0.215034,0.00139649
-0.32256,-0.0193302
-0.535368,-0.0267933
-0.320682,0.0202966
-0.156867,-0.0142796
-0.0811162,0.00440024
-0.0996875,-0.0242544
-0.0281475,-0.00496201
0.0575659,0.0078454
-0.0165271,0.0055469
-0.081312,0.0210019
0.114048,0.00215385
0.321519,0.00588763
0.292723,0.0335024
0.235466,0.00934773
0.474908,0.0056807
0.680508,0.00178371
0.41108,-0.00259239
-0.271275,-0.023978
-0.860774,0.00787741
-0.809514,0.0456793
-0.429399,0.0103386
-0.0219719,0.00270267
0.269139,0.0196055
0.560781,0.00990104
0.738938,-0.0496144
0.483342,-0.0195139
-0.166775,0.00166456
-0.87564,-0.00611266
-0.923641,-0.0117261
-0.505202,-0.0551944
-0.154615,-0.0056087
0.0946756,0.0470949
0.469951,0.0231956
0.593287,0.0165776
0.331357,0.0169663
-0.289641,-0.036217
-0.508689,0.0456611
-0.453981,0.0971838
-0.302944,0.052979
0.0322432,-0.0310329
0.349626,-0.0842301
0.783931,-0.0525355
0.846632,0.0164516
0.831286,0.054639
0.456786,0.0286888
-0.193284,-0.0329559
-0.484328,-0.112588
-0.634961,-0.109906
-0.639196,0.0468815
-0.113779,0.0814727
0.377235,0.0599767
0.226849,0.055718
-0.538029,0.0420646
-0.633383,-0.00606617
-0.214566,-0.0163648
-0.0325602,-0.0342406
0.00766289,-0.0568095
0.0408643,-0.00564275
0.0417879,-3.15e-05
0.0358921,-0.00959829
-0.0197077,-0.00229172
-0.0317542,0.0488995
0.0843921,0.0357606
0.186625,-0.0309179
0.194941,-0.054868
0.176871,-0.035508
0.138592,0.0124522
0.0501777,0.069958
0.0062771,0.0140242
0.0134633,-0.0199335
-0.00548881,0.0279068
-0.017505,0.0142484
-0.0140565,-0.00707595
0.162427,-0.0180967
0.355804,-0.048777
0.329718,-0.0552153
0.14397,-0.0494371
-0.229049,-0.00426016
-0.278889,0.0406729
-0.23503,0.0316197
-0.290735,0.014791
0.0754143,-0.0326805
0.462234,-0.0608593
0.459329,-0.00198194
0.220168,0.0088687
-0.36345,0.0450826
-0.496668,0.102984
-0.393977,0.050408
-0.262837,0.0245712
-0.0252007,0.0146408
0.24778,-0.0452321
0.255757,-0.0573393
-0.17726,-0.0902113
-0.606089,-0.0176863
-0.391226,0.128287
0.157089,0.0942634
0.483217,-0.0268562
0.364006,-0.0906788
-0.0191698,-0.0418297
-0.302424,0.0174911
-0.0731094,0.00866995
0.151852,0.00801225
0.0898911,0.0162475
0.109614,-0.00377328
0.415737,-0.0373643
0.435262,-0.00323907
0.162811,-0.00797311
-0.0660371,-0.0351519
-0.335267,-0.00924352
-0.611997,0.00434613
-0.606737,-0.00731567
-0.326139,0.000943624
-0.106068,-0.0124888
0.0385468,0.0187758
0.118996,0.0618228
0.276558,0.0247163
0.540646,0.000298981
0.54884,-0.0256755
0.272013,-0.0517736
-0.0307652,0.00318625
-0.29177,-0.00183612
-0.433748,0.0441024
-0.483343,0.0264149
-0.125394,0.00230103
0.275259,-0.00389618
0.529589,-0.0329694
0.727428,0.010881
0.464379,0.0469926
-0.226765,0.00389899
-0.585596,-0.0621109
-0.550294,-0.0927113
-0.340267,-0.051643
-0.125895,0.0411068
-0.0139698,0.0874465
0.10056,0.0624854
0.213672,0.0485484
0.0844778,0.0201451
-0.101996,-0.00677132
-0.119307,-0.0381942
0.126925,-0.0392091
0.327545,-0.0757436
0.164182,-0.0624721
-0.144803,0.0748974
-0.181328,0.121315
-0.149553,0.0326059
-0.0503776,-0.0114848
-0.0787942,0.0605466
-0.0547591,-0.00851793
-0.0126087,-0.0891751
0.0645845,-0.111375
0.112357,-0.0592671
0.163608,0.0187218
0.349167,0.080861
0.438179,0.0627215
0.26051,-0.00306049
-0.243251,0.0021776
-0.601546,0.0154784
-0.370461,0.0216671
-0.0750131,0.013558
0.147215,-0.043659
0.29945,-0.0798355
0.145594,-0.046994
-0.0915664,-0.00826282
-0.350369,0.000199534
-0.174434,-0.00484388
0.181867,0.00468293
0.227521,0.0220354
-0.00826157,0.050002
-0.254597,0.0290127
-0.0909744,-0.0141673
-0.0582228,-0.0189161
-0.235645,0.0452697
-0.171547,-0.00540722
0.213316,-0.0620637
0.427095,-0.0467009
0.511091,-0.00423654
0.3362,0.0248381
0.170757,0.020823
-0.0201774,0.0561334
-0.431193,0.0489469
-0.472446,-0.025461
-0.305064,-0.0678114
-0.069187,-0.0738714
0.0426934,-0.031204
0.0552433,-0.0384927
-0.0590461,0.0117958
-0.0816678,0.0592472
0.13326,0.0250418
0.1782,0.0229157
0.0252875,0.0411315
-0.0513897,0.0150261
0.20223,0.0326241
0.663904,0.0134822
0.860663,-0.0807502
0.370317,-0.0258612
-0.780879,0.0108972
-1.23855,0.0367152
-0.794403,0.0675538
-0.0839263,0.0727752
0.331695,0.0366031
0.40851,-0.00721543
0.39455,-0.0262653
0.0439445,-0.0786884
-0.217355,-0.092211
-0.292106,0.00437985
-0.161896,0.057515
0.0114756,0.0590779
-0.0465425,0.0333487
-0.169129,-0.0312189
-0.265944,-0.0541943
-0.10725,-0.0261095
0.0610787,-0.0140652
0.126059,-0.00703243
0.184931,-0.0086455
0.277553,-0.0135126
0.373566,-0.0109176
0.391962,0.0022302
0.212647,0.041481
0.0107525,0.0597247
-0.218997,0.0350913
-0.251732,-0.0689633
-0.230866,-0.0730681
-0.192742,-0.0084943
0.0528692,0.0217284
0.225336,0.00271606
0.10236,0.0176377
-0.11844,-0.0146066
-0.261725,-0.0270418
-0.150204,-0.00754272
0.00264243,-0.000145442
0.0160684,0.059522
0.0397862,0.121813
0.135999,0.0905214
0.229135,0.0330461
0.344144,-0.0499527
0.184495,-0.138498
-0.103887,-0.0940518
-0.154864,-0.0372725
0.0170897,-0.0185802
0.275769,-0.00651881
0.367185,0.00320103
0.0930883,0.0288743
-0.398059,0.0451748
-0.423259,-0.0143164
-0.210686,-0.00145776
-0.137371,-0.0281287
-0.105041,-0.0557798
-0.00140566,-0.00125471
0.00568103,0.0292307
-0.117944,0.0094858
-0.054825,-0.0467483
0.346975,0.00151723
0.655158,0.0356058
0.775139,0.0151944
0.387206,0.000545925
-0.435567,0.0822052
-0.628268,0.139227
-0.566565,0.101912
-0.42482,0.0130036
-0.261757,-0.0353715
-0.195591,-0.0933738
-0.105932,-0.0693175
0.0990802,-0.0294333
0.206261,-0.0353928
0.128258,-0.00610174
0.179636,0.0326563
0.17068,-0.00473306
-0.088703,-0.0467942
-0.392587,-0.0215883
-0.263836,0.0169788
-0.0746297,0.0120034
-0.0868086,0.00842912
-0.0521983,0.0238554
0.0811151,0.000917852
0.229441,0.0101221
0.355643,0.0208988
0.399379,-0.0297163
0.303254,-0.0891139
0.11296,-0.0503026
-0.064989,0.00496001
-0.115881,0.0643454
0.0550667,0.0494627
0.0918842,0.00856012
-0.0315578,-0.00396054
-0.0731637,0.00534277
-0.124749,0.0243814
-0.222942,0.039976
-0.323015,0.0293478
-0.295386,0.0211839
0.0718165,0.0142694
0.450375,0.00126906
0.454809,-0.011833
0.226199,-0.0237787
-0.0372827,-0.00453221
0.0410447,0.011899
-0.035948,-0.0268735
-0.23165,-0.081513
-0.137463,-0.0838942
-0.08001,-0.000398865
0.0999652,0.0357754
0.292352,0.00497593
0.294065,-0.0311437
0.0972566,-0.00464317
-0.155991,0.133299
-0.25778,0.095872
-0.567756,-0.0132505
-0.506171,-0.0981292
-0.13691,-0.0712468
-0.0228621,-0.0307691
-0.079935,-0.0263012
-0.0275519,0.010545
0.0490981,0.0267632
0.112492,0.00450282
0.158498,-0.00269799
0.111867,0.0271675
0.120822,0.0504357
0.141845,0.00398547
0.220342,-0.0481116
0.221932,-0.0519997
0.0691973,0.0121086
-0.0956551,0.010892
-0.0759572,0.0111314
0.0690908,0.051667
0.0736098,0.0839309
-0.0109452,0.00967662
-0.0453084,-0.0739677
-0.0282716,-0.0733823
-0.00156199,0.0152676
0.0188513,0.00557646
0.0207485,-0.0178869
0.00849222,0.0186752
-0.0681712,0.0142827
-0.154647,0.0066751
-0.150356,-0.00986257
-0.118822,0.0431726
-0.0602775,0.0125602
0.071995,-0.000719442
0.0271243,0.0185932
0.0783599,0.00920197
0.141442,-0.0217836
0.00901658,-0.0621691
-0.00541738,-0.0362419
0.0323836,0.00273536
0.104119,0.0173714
0.133988,0.0219206
0.156367,0.0728316
0.0712177,0.0874523
0.030717,-0.0194771
0.018956,-0.0821053
-0.137272,-0.0791335
-0.168281,-0.0639259
-0.14973,-0.0614264
-0.210691,0.00544842
-0.182287,0.070379
-0.042213,0.0441692
0.05275,0.00849476
0.0708245,-0.00864652
0.0165384,-0.00518591
-0.03414,0.0010641
0.0161431,0.0210748
0.0463562,0.00126056
-0.0103371,0.00862245
-0.0279264,0.0339696
-0.0685497,0.032283
-0.0691079,0.0130937
-0.038437,0.00380116
0.0126544,0.00761888
0.0750344,0.0179821
0.0944369,0.0197902
0.0852555,0.000994698
0.023291,-0.0249616
-0.0366326,-0.0233029
0.0364426,0.000356795
0.0515185,-0.0464783
-0.0143228,-0.0439817
0.0349507,-0.00777692
0.0856329,-0.0130044
0.166709,0.0069857
0.199044,0.0241062
0.0504531,0.0101923
-0.102965,-0.0238202
-0.309726,-0.0246634
-0.300767,-0.0594153
-0.0167483,-0.0549809
0.359006,0.0226909
0.632476,0.0368445
0.682859,0.0453347
0.226194,0.0400603
-0.305026,0.0482254
-0.697236,0.04396
-0.784513,0.00454757
-0.341669,-0.0386629
-0.138958,-0.0390272
-0.093814,-0.00682526
-0.0588623,0.0184569
0.0121431,0.0110727
-0.00900621,-0.00154403
-0.0413911,0.0190922
0.0376894,0.0283253
0.0515185,-0.0738757
0.0165037,-0.0478876
0.0869333,-0.0125407
0.154727,0.0143081
0.213965,0.0228048
0.278606,0.0147276
0.185087,0.00420632
0.0816587,-0.0165347
-0.0890149,-0.0112003
-0.223165,0.0145981
-0.14202,0.0190701
-0.0125434,0.0125765
0.0327436,0.00202123
0.121745,-0.0194683
0.316361,0.00968528
0.18903,0.0329355
-0.00501547,-0.000764531
-0.189558,-0.0112046
-0.155043,0.00511742
-0.103337,-0.00776662
-0.21447,0.000656712
-0.126282,-0.0214334
0.0114231,-0.0701691
0.0620556,-0.0382912
0.0834007,0.0323423
0.191772,0.0398871
0.258149,0.0348152
0.160897,-0.00213152
-0.0486734,-0.0329635
-0.19773,-0.0290943
-0.102103,-0.0221463
0.00071458,-0.025711
0.0282733,0.00229275
0.0371636,0.0386824
-0.0402482,0.0315742
-0.116993,0.0338382
-0.0968409,0.0479524
-0.0637067,0.0153469
-0.030007,-0.000537568
-0.0233972,0.0525135
-0.0813604,0.0415887
-0.0661573,-0.0025683
0.00390113,0.00685424
-0.0114962,-0.0429011
-0.0157389,-0.0531769
0.133142,-0.0142468
0.248454,-0.00841424
0.219842,-0.0486208
0.0669615,-0.0332645
-0.109246,0.00677994
-0.0941096,0.0340442
0.0447139,0.0327751
0.0441109,0.0361277
0.0328396,-0.0054611
0.0810823,-0.0479875
0.0399184,-0.0700462
-0.160275,-0.00899943
-0.197064,0.0147995
0.0290341,0.00246663
0.147658,0.0046748
0.115093,0.00919276
0.0417257,0.0100653
-0.00535485,0.0100526
-0.119273,0.00957338
-0.272245,0.0223351
-0.332793,0.0240519
-0.168256,0.00713518
0.0108907,0.002107
0.125707,-0.0344358
0.105428,-0.00890664
-0.0668495,0.00391099
-0.14072,-0.0121506
-0.0351065,0.0119108
0.00876572,0.0365037
0.0666838,-0.0302485
0.195912,-0.111534
0.300932,-0.0537524
0.354004,0.0353928
0.291628,0.0300755
0.0888814,0.0021225
-0.168106,-0.012055
-0.153006,-0.0038193
-0.0971014,0.024547
-0.206686,0.0746867
-0.275238,0.0643392
-0.172547,0.00680335
-0.0181314,-0.0124268
0.0422898,0.0181422
0.0608942,0.01703
0.106354,-0.00878872
0.131737,-0.0211602
0.0780459,-0.0404068
0.00946631,-0.0490469
-0.0534688,-0.0384485
-0.0983273,-0.0433962
-0.111164,0.0282309
-0.0392118,0.0421426
0.00222505,0.021236
-0.0115785,0.00942184
-0.0319339,-0.00789768
-0.0437619,0.0286393
0.000582096,0.0437809
0.136976,0.00183087
0.293049,-0.0431253
0.29985,-0.0979662
0.15325,-0.04293
-0.0809149,0.0422318
-0.254128,0.0324884
-0.186418,0.00456472
-0.0985543,0.031075
-0.101123,0.0452939
-0.0742694,0.00601185
0.0601062,-0.013717
0.187665,0.00520654
0.166996,0.0275523
0.172814,0.00930383
0.128487,-0.0284787
0.00345048,-0.0525055
-0.1244,-0.0365774
-0.22515,0.00107869
-0.204324,0.0444771
-0.170018,0.0257926
-0.101144,-0.0360055
-0.0148376,-0.032683
0.00699391,-0.0238612
-0.00991796,0.0119684
-0.0206918,0.0571046
-0.024621,0.0233345
-0.0111305,-0.00432684
0.0139648,-0.000164139
0.0145107,0.00159952
-0.00631931,0.0181443
-0.0233903,-0.000944609
0.0647113,-0.0273962
0.194706,-0.0423216
0.276614,0.052578
0.384471,0.0929906
0.466764,0.0438084
0.417155,-0.0204027
0.141537,-0.0259437
-0.205764,-0.086125
-0.49934,-0.0786788
-0.585235,0.0041023
-0.442905,0.0216295
-0.150007,0.0149282
0.0825498,0.0163643
0.084198,0.0112054
-0.0869019,0.0178363
-0.225531,0.00629957
-0.225465,-0.0137456
-0.115091,-0.00443556
-0.0321607,0.00248026
-0.00202358,0.00587928
0.0169571,-0.00793154
0.0888113,0.0105181
0.275434,-0.0128503
0.520975,-0.0787963
0.544823,-0.0807362
0.326164,-0.0664149
-0.108073,0.0433137
-0.379658,0.067757
-0.208081,0.0411985
-0.0598931,0.0251605
-0.0486017,0.01991
0.106043,0.0240276
0.236743,0.0186158
0.060211,-0.000848584
-0.265849,-0.0130822
-0.478317,-0.00355329
-0.297867,0.00837324
-0.0413718,0.000600966
0.0627872,0.000134888
0.0687803,0.0215803
0.077157,0.03007
0.0802025,0.0251656
0.00827223,0.0171882
-0.0589634,-0.00133633
-0.0773985,-0.022956
0.00518565,-0.0236654
0.0965264,-0.0178094
0.0290191,-0.00405965
-0.0585533,0.000139369
-0.00345525,0.0403019
0.0728678,0.0277951
0.0764301,-0.0192924
0.091422,-0.0213385
0.126828,-0.0386922
0.207884,-0.0529208
0.481793,-0.0239254
0.651776,0.0128853
0.420833,0.0269377
-0.0657732,0.00803854
-0.730789,-0.0463485
-0.815339,-0.089945
-0.450689,-0.0195681
-0.196503,0.010711
0.0149211,-0.0612147
0.0786608,0.0104147
0.0133648,0.0441505
-0.114665,0.0131071
-0.151257,0.0256392
-0.00612601,0.0121456
0.115643,-0.00872537
0.0685383,-0.0178938
-0.0399144,0.0309242
0.0194963,0.0729131
0.52013,0.0799687
0.945163,0.105755
0.773226,0.0770495
-0.0991421,-0.00392128
-0.872433,-0.0503154
-0.638556,-0.0457426
-0.203337,-0.0366457
-0.0165063,-0.0385874
0.0350848,-0.033599
-0.0922567,-0.0217895
-0.130041,-0.0853472
-0.0633756,-0.0810056
-0.143424,0.0496499
-0.168612,0.032048
-0.117424,-0.0210569
-0.0985804,-0.0617586
0.00598073,-0.0317437
0.272416,-0.0380163
0.410388,-0.00814408
0.24164,0.0538978
-0.0576868,0.0821848
-0.170372,0.0421683
-0.0769879,0.0312744
0.00875528,0.0280152
0.0841506,0.0213128
0.148215,0.0168493
0.148792,0.0140164
0.0590851,0.00190104
-0.063906,-0.000589053
-0.0998475,0.0102518
-0.0858202,0.018324
-0.0587635,0.0166097
-0.0504821,0.00874432
-0.0827123,0.00656381
-0.108513,-0.00210398
-0.059441,-0.0663531
0.0547738,-0.0662141
0.123795,0.0423931
0.126645,0.0443493
0.140379,0.0195658
0.130706,-0.0104523
0.128022,-0.0325386
0.192914,-0.0279903
0.164843,-0.0439647
0.0601816,-0.0342497
-0.0278783,-0.00354259
-0.109348,0.018287
-0.113388,0.0300967
-0.179165,0.0233794
-0.325564,0.0203513
-0.301882,0.0225155
-0.189766,0.00655109
-0.0758617,0.00638358
0.0300184,0.00252702
0.123981,-0.01753
0.251048,-0.0264795
0.327702,-0.0156874
0.250199,-0.0315797
0.0718608,-0.0447579
-0.078076,0.0155794
-0.138975,0.0494768
-0.110461,0.0200734
-0.122225,-0.0195676
-0.0550294,-0.0516139
-0.0246019,-0.038532
-0.000730795,0.0280976
0.0453294,0.0196367
0.0737949,-0.00729117
-0.0717675,0.017953
-0.239175,0.0168833
-0.130556,0.00178095
0.081676,-0.00643226
0.228495,0.00481964
0.27569,0.0229161
0.228313,0.0311016
0.085341,0.0179655
-0.100064,0.0123763
-0.14522,-0.00654456
-0.347324,-0.0223895
-0.285839,-0.0214831
0.00869386,-0.00653378
0.140762,-0.0265616
0.0324424,-0.054431
-0.186068,-0.0945078
-0.161531,-0.068789
-0.03921,0.0908147
0.0302741,0.105705
0.0986664,0.0382732
0.174401,0.00536188
0.123254,0.0142632
-0.0110748,-0.0315567
0.00671139,0.00988287
0.0843172,0.0289762
0.0764311,0.00825575
-0.0313469,-0.0117896
-0.115897,-0.0142609
-0.0658209,-0.0036936
0.073134,0.0192319
0.198852,0.0313194
0.170656,0.0108678
0.00276788,0.0152931
-0.118542,-0.0100791
-0.111314,-0.0203633
-0.0410825,-0.0172714
-0.00244099,-0.0231874
-0.0546383,-0.0149132
-0.113243,-0.00389431
-0.0549217,0.0116704
0.106786,0.0180351
0.236825,-0.0212793
0.338065,-0.0793242
0.204426,0.0106625
-0.0564558,0.0394758
-0.256874,0.023347
-0.287904,0.0238048
-0.155886,0.0491051
-0.170076,0.0497322
-0.216387,0.0255254
0.0377175,-0.0226233
0.480798,-0.0936143
0.7083,-0.192375
0.548043,-0.100205
-0.0268818,0.108597
-0.444232,0.110848
-0.565102,0.0208573
-0.492019,-0.0214674
-0.223426,-0.0241273
-0.10222,-0.0053812
-0.0348564,-0.0134175
0.0271167,-0.00298337
0.0200714,0.0351339
0.0476595,0.0522134
0.136689,0.0512407
0.115288,0.0311844
-0.0452415,0.00597639
-0.172917,0.0030741
-0.113653,0.00945158
0.00254153,0.00451204
0.0702535,-0.002804
0.0740278,-0.0106312
0.167776,-0.00745698
0.35121,0.00182817
0.333937,-0.00172725
0.181084,-0.053682
0.0707761,-0.0659775
0.0927192,-0.0181723
0.155932,0.00221147
-0.138134,-0.00027529
-0.560211,0.0158068
-0.451473,0.0367292
-0.204125,0.00789278
-0.0905324,-0.0129922
0.0394879,0.00394702
0.163078,0.0287823
0.18535,-0.0229068
0.10249,-0.0245362
0.0953646,0.0207994
0.148182,0.0247207
0.20683,0.0283203
0.207608,0.00861376
0.0179438,-0.00694038
-0.135656,-0.0332808
-0.105023,-0.0500499
-0.157116,-0.0709681
-0.236586,-0.0498597
-0.185366,0.00710748
-0.105221,0.0218967
-0.0358712,0.0374362
-0.015639,0.0359757
0.0676573,0.0263024
0.169875,0.0289492
0.111318,0.0119554
0.103661,0.0067876
0.158462,-0.00574406
0.0723585,-0.0335483
-0.110224,-0.0387283
-0.209307,0.00734361
-0.208594,0.0392547
-0.162716,0.02197
-0.0672058,-0.00140669
0.0220587,-0.00776836
0.0571118,-0.0303997
0.0677755,-0.0410668
0.0542315,0.0178736
0.0107894,0.0192191
0.029358,0.02832
0.136342,0.0329659
0.177883,0.00129057
0.0875561,-0.0313906
-0.119715,-0.00811209
-0.223071,0.0127679
-0.113037,0.0103306
-0.00951152,-0.0252626
0.0187092,-0.0684256
0.015983,-0.0145948
0.0257973,0.0127855
0.0571175,0.00298222
0.0790653,0.048801
0.0695725,0.0562692
0.0330393,0.046129
-0.0203548,-0.00909525
0.00465811,0.00141243
0.145083,0.0123733
0.239214,-0.0228043
0.291882,-0.0355353
0.26359,-0.017155
0.00384873,0.0133484
-0.162493,0.00960412
-0.400528,0.00574676
-0.488646,0.00924086
-0.261723,-0.00289655
0.0595529,-0.0222615
0.277961,-0.00308861
0.302903,-0.017278
0.000707649,0.00876998
-0.290292,0.0133486
-0.290991,-0.0131075
-0.0331801,0.00802009
0.183552,0.0461861
0.125265,0.0158272
-0.147283,-0.062787
-0.22262,-0.0366805
-0.178542,0.00264938
-0.158806,-0.0236036
0.0647186,-0.0262579
0.304808,0.014007
0.390854,0.0309047
0.264735,-0.00333076
0.0194854,-0.0506392
-0.193,-0.0541799
-0.258776,-0.00871248
-0.130452,0.0499526
-0.0321807,0.0589251
0.0373256,0.0506362
0.0476574,0.0312221
-0.0547428,-0.00981939
-0.145616,-0.0166302
-0.112508,0.0143066
-0.0248086,0.0248243
0.0385972,-0.0110092
0.194531,-0.0296778
0.38989,-0.0264508
0.448035,-0.00863143
0.347009,0.0257798
-0.0125512,0.0559925
-0.284892,0.0181907
-0.229174,-0.0547833
-0.061111,-0.000463027
0.0265843,0.0118709
-0.114719,-0.0245118
-0.199634,-0.0212283
-0.147049,-0.0143682
-0.0562751,-0.0193293
-0.0741267,-0.0099119
-0.0891974,0.000511849
0.0646553,0.0105987
0.169312,0.0190821
0.111739,0.0257045
-0.0392345,0.0308958
-0.0693839,0.0263654
-0.0257639,0.00445096
-0.00999128,-0.031615
0.0535601,-0.0685924
0.0369133,-0.0481304
-0.0174891,0.0278464
0.00961303,-0.00196914
0.132382,-0.0353333
0.126819,0.0210227
0.0322265,0.0396759
-0.110204,0.0160614
-0.160403,-0.00298361
-0.0899015,-0.0160832
-0.0672363,-0.000907692
-0.0690265,0.0151807
-0.0573272,0.0289226
-0.00384637,0.007356
0.0382558,-0.0220895
0.0345667,-0.0126963
0.00657851,0.0108228
0.0049274,0.0134275
0.049464,0.0170109
0.128583,0.0176311
0.154902,0.0127561
0.126155,0.0132809
0.110275,0.011799
0.119843,0.0146257
0.221396,0.00374876
0.210684,-0.0249153
0.0100119,-0.0223558
-0.246947,-0.0164742
-0.418814,-0.0131524
-0.296362,-0.0136207
-0.157872,-0.0068994
-0.19289,-0.00982353
-0.125969,-0.0188689
-0.0143257,-0.0222475
0.0186478,-0.00065205
0.00524048,0.0188434
-0.00943424,-0.0077328
0.0427441,-0.00437545
0.209329,0.0104997
0.353363,0.0162654
0.432117,0.0136199
0.486971,-0.0487195
0.32797,-0.0576194
0.164469,0.00903357
0.00237647,0.0216423
-0.257889,0.0312518
-0.254121,0.00751386
-0.597782,-0.0244213
-0.735825,-0.0140425
-0.316884,-0.0183736
-0.0787689,0.00380181
-0.0277896,0.0222266
0.0319761,0.0279385
0.0606775,0.0283
0.0425464,0.00574232
0.0138463,-0.0537311
0.00983027,-0.0402179
0.00975168,-0.0278614
0.0115431,0.0203153
0.0471887,0.0529108
0.0396596,0.0386109
0.0453146,0.0439841
0.102236,0.0353456
0.119027,0.0082752
0.0781559,0.015265
0.0628725,0.0087773
0.0828939,-0.00529007
0.0662996,-0.00304441
0.0416611,0.00595816
0.0478194,0.00233829
0.0286236,0.000862481
0.0346365,0.00365318
0.0103795,-0.00581589
0.0448838,-0.0385252
0.139794,-0.0244684
0.259576,-0.0188417
0.248586,0.00018311
0.0352029,0.00669194
-0.104869,0.00732667
-0.173447,-0.00299905
-0.188039,-0.000693561
-0.169723,0.00610826
-0.298978,-0.0281752
-0.245537,-0.0453347
-0.0812631,-0.0360276
-0.0346612,-0.0105493
-0.0414832,0.0309955
-0.0380681,0.0487202
-0.031268,0.0222371
-0.0533615,-0.00332062
-0.0730701,0.0233228
-0.0531721,0.036018
0.0514859,0.00879264
0.13764,-0.0283605
0.277145,-0.143173
0.427127,-0.168364
0.480508,-0.00306099
0.244144,0.121621
-0.132516,0.0807132
0.0139803,-0.0643338
0.0930685,-0.0633023
0.149124,0.0884908
-0.0351839,0.07841
-0.385296,0.0283217
-0.515402,0.0434145
-0.470724,0.0358929
-0.252756,-0.00777001
-0.0964792,-0.0320802
0.0101022,-0.0094523
0.147296,0.00728791
0.198582,0.022275
0.145695,0.0331737
-0.059114,0.0344775
-0.0548541,0.0078211
0.0417151,-0.0199517
0.0776516,-0.0386702
0.226386,-0.0738297
0.295173,-0.0120395
0.118995,0.0255278
-0.219081,-0.00986285
-0.213496,-0.0289204
-0.147472,-0.00402799
-0.0983882,0.0252218
-0.045885,0.0142628
-0.0573434,-0.00674975
-0.0121923,0.0329297
0.0317788,0.0295467
-0.0548899,-0.000394792
-0.119294,-0.00432621
-0.0737863,-0.0440088
0.0338894,-0.0271683
0.120485,0.00348838
0.143259,-0.0103605
0.120164,-0.0210698
0.130369,-0.00733931
0.177567,0.00915816
0.186178,0.00718156
0.10246,-0.00821399
-0.0574527,-0.00512984
-0.167873,-0.0104001
-0.186833,-0.00158537
-0.152729,-0.000979939
-0.0660411,-0.0112542
-0.0141623,-0.00166663
-0.000487949,0.0370314
-0.00199637,0.0408745
0.0785255,0.0160688
0.227059,0.0185078
0.33721,0.00371098
0.216505,-0.0125012
-0.0742993,-0.0471644
-0.198763,-0.0611294
-0.0367677,-0.0212387
0.151798,0.013768
0.0482502,-0.0108248
-0.176782,-0.0475238
-0.359925,-0.00607236
-0.22912,0.0596009
0.0163055,0.0461955
0.068053,0.0326565
-0.0334452,0.0350907
-0.133073,0.0435494
-0.0917585,0.0450902
0.0244353,0.00652241
0.203289,-0.0340883
0.333191,-0.0374912
0.18671,-0.0215156
-0.0844203,0.000373783
-0.289038,0.0081027
0.0815316,-0.00382507
0.500062,-0.00357587
0.433712,0.000955212
-0.142581,-0.00368479
-0.669638,-0.0610426
-0.51992,-0.0108557
-0.180848,0.0369517
-0.0185418,0.0229157
0.00679929,0.0187175
-0.0841283,0.00203132
-0.11723,-0.0449331
-0.0104068,-0.0651453
0.114647,0.0310825
0.220644,0.0595408
0.239572,0.0432966
0.143464,0.00750891
-0.0587699,-0.0903977
-0.201149,-0.105672
-0.138802,0.00504104
-0.0158146,0.0319659
0.0715709,0.0271591
0.0994718,0.00465149
0.0937252,0.013827
0.056443,0.03113
0.0391398,0.00623748
0.029878,-0.031683
0.0480825,-0.0114916
0.0329323,0.0188168
-0.00704194,0.0112001
0.0468722,0.0249845
0.108848,-0.000507423
0.142779,-0.0248025
0.10739,-0.00407719
-0.0233159,-0.0082747
-0.00156175,-0.00148379
0.0181107,0.0061562
-0.028694,0.0128589
-0.101633,0.0114103
-0.205268,-0.00800131
-0.166507,-0.020686
-0.104273,-0.000551598
-0.0673711,0.0117909
-0.0291518,0.0211089
-0.0161487,-0.00466902
-0.0163725,-0.0782755
0.0208523,-0.0998431
0.11891,-0.0179811
0.143521,0.0856883
0.105885,0.0678883
0.039036,0.0362842
0.00714361,0.0255085
-0.0104678,0.0163461
-0.113688,0.014408
-0.127592,0.0266682
-0.0246938,0.0237916
0.073179,-0.022082
0.219421,-0.0459352
0.262651,-0.0114651
0.243552,0.000631246
0.203798,0.00952737
0.206304,0.0245188
0.0847146,0.0106439
-0.469501,0.00401994
-0.758229,-0.00688586
-0.308664,-0.0176696
0.0630958,-0.0135978
0.0331309,-0.00274712
-0.189855,-0.00289201
-0.20627,-0.012192
-0.0491372,-0.0129383
0.0208364,-0.00259037
0.0573478,0.0123902
0.0609623,0.0176709
0.0206632,0.00245967
0.116166,-0.0275675
0.197958,-0.00789266
0.287122,0.0191838
0.238231,-0.017749
0.123981,-0.0048194
0.112597,0.0499722
0.084541,0.013657
0.037564,-0.0270193
-0.141022,-0.0720786
-0.311341,-0.0592261
-0.305104,-0.00857112
-0.162262,-0.022141
-0.0461076,0.00764014
0.0509016,0.0384127
0.0869755,0.0250965
0.0486991,0.0099098
-0.043772,0.00598143
-0.137133,0.0141975
-0.122264,0.0300863
-0.0557213,0.0406441
-0.0102249,0.0328186
0.0394682,0.0208331
0.0711427,0.00640964
0.134223,0.00545605
0.124588,0.0142416
0.00180622,0.00723311
0.0327618,0.00278908
0.0788336,-0.0193061
0.0399277,-0.0507205
0.00821519,-0.0726672
0.143995,-0.0499042
0.349756,0.0197862
0.360131,-0.000989154
0.201815,0.00582801
-0.0709944,0.0204644
-0.197013,0.014948
-0.225341,-0.00330561
-0.46953,-0.0148572
-0.391818,-0.00652002
-0.117475,-0.0310374
0.00450467,-0.00622954
0.0286662,0.0479205
0.0990192,0.039305
0.219941,-0.0102045
0.227603,-0.0260666
0.117944,-0.0567942
-0.10522,-0.0442266
-0.261865,0.0453484
-0.165812,0.0314555
-0.0539725,0.0233473
0.0344055,-0.0142153
0.0519452,-0.0571856
0.0777978,-0.0470036
0.0865426,-0.0360456
0.0214795,0.0118404
0.0513037,0.0736493
0.0724371,0.0640957
-0.0865048,0.0222575
-0.132894,0.00411646
0.157462,-0.0140294
0.27604,-2.44e-05
0.0728107,0.00721219
-0.139656,0.00506894
-0.248723,0.0173358
-0.240608,0.0121356
-0.177084,0.0038299
-0.0478325,0.00569483
0.122865,0.0091758
0.196904,0.0232655
0.0966948,0.0160732
-0.157607,0.00150934
-0.25905,-0.00447986
-0.105813,-0.00467348
0.0110453,0.0106564
0.233538,0.0279326
0.461452,0.0171121
0.530973,-0.0245523
0.245172,-0.0448622
-0.221078,-0.0262174
-0.436968,-0.0218926
-0.234778,-0.0315916
-0.108931,-0.0285065
-0.0985815,-0.000133613
0.0156608,0.0326356
0.265095,0.0225646
0.330471,-0.036875
0.105715,-0.000597141
-0.172034,0.0363062
-0.264707,-0.00936869
-0.168548,-0.0436998
-0.0840073,-0.05583
-0.0204758,-0.0869399
0.0454598,-0.0370177
0.0273962,0.0467864
0.00188537,0.0214181
-0.0116657,0.0241944
-0.09612,0.0240391
-0.0867213,0.0047923
-0.0340582,-0.00902958
-0.0441258,0.0162154
-0.0301614,0.0273282
0.0278624,0.0255767
0.0697511,0.0138379
0.0587872,0.0387796
0.0376612,0.0369436
0.105698,0.0255086
0.330845,0.00878321
0.473508,0.00641996
0.287325,-0.0165087
-0.180295,-0.0103399
-0.562461,0.0251757
-0.367024,0.0333145
-0.00864705,0.0192274
0.0822851,-0.0569937
0.0446256,-0.0264311
-0.0186422,0.0224421
-0.109025,-0.0756311
-0.109961,-0.116124
-0.0292439,-0.01362
0.0568704,0.0665786
0.117687,0.0349738
0.189755,0.00540347
0.147077,0.0015051
0.0145651,0.0116082
-0.172055,0.0191019
-0.3149,0.0065349
-0.179953,-0.00520148
0.0690662,-0.00421035
0.215421,-0.00113201
0.184794,-0.011334
0.0306037,-0.0060497
0.0270592,-0.00173185
0.249134,-0.00870621
0.389079,-0.0147176
0.234595,-0.0351329
-0.11308,-0.0541369
-0.435021,0.0105153
-0.522362,0.0394311
-0.363194,0.0310153
-0.144535,0.0298131
-0.0632938,0.0278677
-0.028994,0.0220213
0.0493129,0.00681935
0.0654221,-0.000460443
0.0465858,0.000423732
0.0428404,0.0044031
0.0797658,-0.0112408
0.102958,-0.0113394
0.147606,-0.0102911
0.201068,0.0239599
0.191531,0.00512303
0.193313,-0.0105911
0.169686,-0.00941807
-0.0344355,0.0065251
-0.195104,0.0172552
-0.310001,-0.00277616
-0.316131,-0.0126132
-0.12913,-0.000855136
0.0375799,-0.0112662
0.171447,-0.0431555
0.111031,-0.00881854
0.0376548,-0.0185871
0.0665782,-0.0194283
0.156461,0.00243083
0.200866,-0.0222625
0.12497,-0.0755876
-0.014504,-0.0124708
-0.124879,0.0420435
-0.0894677,0.0539983
-0.161647,0.03313
-0.262939,0.0154223
-0.150836,0.00278732
0.00162473,0.0140481
-0.00886282,0.00675423
-0.0227158,0.0186831
0.0984621,0.0155818
0.137085,0.0171069
0.0868855,0.00329841
-0.00606838,-0.0335998
-0.0657122,-0.0415383
0.0711421,-0.026775
0.23349,-0.0304489
0.16122,0.0308284
-0.119894,0.0266936
-0.407395,0.0112994
-0.361662,0.0420766
-0.114256,0.0526329
0.00504886,0.0106358
0.0275658,-0.0454233
0.0420158,-0.0163808
0.176719,0.00308036
0.408476,-0.0110568
0.518279,-0.0198896
0.369594,-0.00121712
0.0590975,0.00956164
-0.135667,-0.00816326
-0.336399,-0.00968509
-0.507035,-0.0377378
-0.367667,0.00771465
-0.164643,0.0632004
-0.0557965,0.0160898
-0.00658188,-0.0427707
0.0555841,-0.0654465
0.156961,0.0108229
0.346339,0.00923659
0.380152,0.00495628
0.159054,0.00197497
-0.167756,-0.00900489
-0.32824,0.021544
-0.200246,0.0401707
-0.0111542,0.0366693
-0.0497687,0.0231548
-0.119879,-0.00281068
-0.00268517,-0.0188239
0.0107404,-0.0203475
0.0550352,-0.0125151
0.16295,-0.0100862
0.251452,-0.00342681
0.195601,0.020421
0.0903728,0.0289205
-0.0575653,0.00359134
-0.17535,-0.00574435
-0.229675,0.00582893
-0.233695,-0.00916726
-0.0325773,-0.0246159
0.128758,-0.0626589
0.119161,-0.110351
0.0141356,-0.00474976
-0.0741478,0.0503797
0.0190911,0.039628
0.188426,0.0375084
0.316949,0.0171231
0.156115,-0.000763774
-0.169739,-0.00208203
-0.324019,0.00591041
-0.25324,0.0076172
-0.0659836,0.00326094
0.140463,-0.00414587
0.242728,-0.0279068
0.223388,-0.0448011
0.0891666,-0.0107074
-0.176839,0.0277966
-0.25469,0.0339076
-0.213628,0.00576718
-0.148105,-0.00753848
-0.0416433,0.0137192
0.114347,0.00784764
0.155362,-0.0314618
0.0553986,-0.0349626
-0.143263,-0.0104674
-0.206558,0.00975965
0.0114969,0.0300394
0.139409,0.0174998
0.135062,-0.00986618
0.0312212,0.0288993
-0.0897665,0.02689
-0.0381781,0.00809664
0.0737321,0.0137384
0.126571,-0.00477023
0.0575014,-0.0227733
-0.051721,-0.0178803
-0.0800782,0.00476861
0.0445858,0.0122995
0.171228,0.00797147
0.29583,-0.00136432
0.301543,-0.00522958
0.0761666,-0.0102301
-0.251925,-0.0063313
-0.408737,0.0100121
-0.270987,0.0233644
-0.125327,0.0140629
-0.0492928,-0.0128222
0.00163318,-0.0488408
0.0522932,-0.0395164
0.0585196,0.0139178
0.0286273,0.0219431
0.0264408,0.0148835
0.10083,-0.00362428
0.170775,0.00714626
0.150097,0.0157263
0.021676,0.00807621
-0.0670968,0.00314496
-0.0309906,-0.00335578
-0.0548524,0.000710192
-0.0754004,-0.0104925
-0.0667735,-0.0135944
-0.0336398,0.0161931
0.00768491,0.0139713
-0.0274447,-0.0283664
-0.11811,-0.0300094
-0.0499319,0.00868609
0.0683744,-0.0088316
0.0470509,-0.0329715
-0.00285237,0.00672765
0.0285691,0.0324167
0.182816,0.0168383
0.237608,-0.0194768
0.0627191,-0.031368
-0.242342,0.00270589
-0.178966,0.0210469
-0.0374913,0.028781
-0.0353236,0.00764422
-0.0351766,-0.00550003
-0.0532482,-0.00037058
0.0285096,-0.00386517
0.193745,-0.0124938
0.227661,0.00696701
0.0827762,0.0322109
-0.120265,0.0329547
-0.288665,0.0110177
-0.236171,-0.0142147
-0.0870835,-0.0247641
0.0846017,-0.015866
0.177903,-0.0152343
0.153489,-0.0370987
-0.00666205,-0.0347482
-0.057628,-0.0193416
0.110161,0.0204068
0.228485,0.0468839
0.0824579,0.0422485
-0.147281,0.028624
-0.199087,-0.00907496
-0.237527,-0.0309312
-0.182382,-0.028232
-0.0388802,-0.007559
0.0270679,0.0202402
0.0408881,0.00212528
0.0362689,0.00381549
0.0523179,0.0120833
0.0648745,-0.00531687
0.0670079,-0.00676192
0.0309412,-0.00196314
-0.0536782,-0.01603
-0.124344,-0.0143434
-0.0991445,0.00189199
-0.00761663,0.00964541
0.116501,0.00476384
0.245301,-0.00356692
0.268231,-0.036482
0.182534,-0.056331
0.046361,-0.0338583
0.0154822,0.0268704
-0.0242347,0.0700599
-0.203545,0.0681607
-0.227136,0.0470479
-0.187446,0.021058
-0.1576,-0.00289878
-0.0881755,-0.0251015
-0.0276976,-0.0190382
0.0933522,-0.0208818
0.223045,-0.00827717
0.188413,0.00384195
0.191036,-0.0109819
0.246053,-0.0417862
0.232105,-0.0473778
0.303626,0.0128504
0.135584,0.0373807
0.0145905,0.0114128
-0.0890008,0.00268471
-0.578815,-0.00719787
-0.638746,0.0105453
-0.398386,0.0218869
-0.207767,0.0202219
-0.0783279,0.0178803
-0.0298564,0.0164231
0.00322837,0.00279649
0.0101793,-0.00806301
-0.00503339,-0.00236432
-0.00940974,0.0106539
0.0514958,0.0171519
0.141524,0.0190014
0.245961,-0.00754865
0.386037,-0.0519648
0.359482,-0.0437904
0.25813,-0.0341365
0.0697679,0.0341484
-0.20217,0.0752499
-0.235967,0.0167671
-0.106751,-0.0439086
-0.109487,-0.1041
-0.127393,-0.105109
-0.0615567,-0.0297153
-0.0332351,0.0474421
-0.0491994,0.0508785
-0.0709787,0.0384024
-0.0886972,0.0273035
-0.0634002,0.00706904
-0.0104334,-0.00749045
0.0276081,-0.0116396
0.0677112,-0.00125966
0.177213,0.0117763
0.263254,0.0232038
0.332156,0.023717
0.374421,0.0260377
0.275876,0.034134
0.0781938,0.026597
-0.310867,0.00400009
-0.532392,-0.0240056
-0.214141,-0.0343316
0.112936,-0.0306774
0.11588,-0.0676128
-0.0730307,-0.0417474
-0.318287,0.0213567
-0.250923,0.0547501
-0.0950995,-0.00265303
-0.0885969,-0.0385525
-0.0631759,0.010627
0.0104028,0.0424833
0.064506,0.036501
0.0663754,0.0200869
0.020415,0.0148677
0.027558,0.0182628
0.0590913,0.0188778
0.0995379,-0.00304271
0.0889689,-0.0259656
0.0496875,-0.0258059
0.0152991,-0.0144881
0.0706608,0.00560208
0.174577,0.0161411
0.252546,0.00311017
0.103861,-0.0300978
-0.11495,-0.079423
-0.187644,-0.0393476
-0.115275,0.00231325
0.209038,-0.0227147
0.374798,-0.04264
0.204254,0.0231751
-0.133689,0.0218183
-0.424932,0.0525235
-0.289665,0.0650728
-0.115255,0.0346686
-0.116472,-0.00304623
-0.099153,-0.0282383
-0.0338733,-0.0180031
-0.018913,0.013186
-0.113637,0.00792029
-0.202543,0.0348831
-0.135657,0.0140546
-0.00735218,-0.023428
0.0464841,-0.0481696
0.129069,-0.0183395
0.208628,0.012416
0.166425,0.00806136
0.0609487,-0.00551987
0.0918362,-0.0050053
0.639456,-0.0233744
1.09374,-0.0659621
0.828113,-0.0678609
-0.162664,-0.00750958
-1.16273,0.0705726
-0.983591,0.0564338
-0.372269,0.0534786
-0.0505374,0.0558457
-0.0568862,0.0329167
-0.146395,0.00779007
-0.159079,-0.00466393
-0.141603,-0.00909865
-0.111824,-0.0142034
-0.0418727,-0.014464
0.0518973,-0.00630585
0.157751,0.0129806
0.167663,0.0218266
0.0580011,0.0206071
0.0250902,-0.000391364
0.0508778,-0.0336721
0.099961,-0.0310692
0.117501,-0.0192502
0.0105492,-0.0504936
-0.0718218,-0.0481702
-0.0332908,0.0252501
0.159264,0.00304166
0.455274,-0.0558037
0.63814,0.0185344
0.472458,0.0504991
-0.0215323,0.0288303
-0.548237,0.0246013
-0.459391,0.0184844
-0.0272193,0.00779486
0.0566356,0.00591014
-0.101442,0.000372179
-0.313457,-0.00666178
-0.297541,-0.0171603
-0.0942452,-0.0251443
-0.0349975,-0.0149484
-0.0471354,-0.00607869
-0.0363,-0.00894945
0.0102754,-0.00680754
0.0776783,-0.0240716
0.168554,-0.0254456
0.153134,-0.0062138
0.0127938,0.020193
-0.152763,0.0482589
-0.159544,0.0417233
-0.00154717,0.0299069
0.0181548,0.00541198
-0.0386863,-0.00716557
-0.0233353,-0.0171041
0.0543111,-0.0282879
0.206718,-0.026963
0.398824,-0.00921502
0.456184,-0.00762244
0.464663,0.0200703
0.430617,0.0349488
0.167371,0.0356647
-0.179334,0.027002
-0.719991,0.00160956
-0.846626,-0.00406516
-0.513982,-0.0079815
-0.209031,-0.0325455
-0.0488954,-0.0433888
0.054272,-0.0197239
0.0686623,0.00912564
-0.0123565,0.0160506
-0.00225885,0.00810006
0.194131,0.00243952
0.369719,0.00589259
0.286406,0.0125439
-0.0329204,-0.0300411
-0.336783,-0.0579256
-0.239365,0.0197354
-0.0427955,0.0310748
0.0314945,0.00713696
0.0571115,0.00978851
0.136122,-0.0168543
0.215309,-0.0355459
0.230385,0.0182508
0.134398,0.0453986
-0.0595755,0.047312
-0.119524,-0.00541315
-0.111228,-0.0672841
-0.114373,-0.0815807
-0.029919,-0.0298185
0.0481471,0.0501307
0.0796043,0.0395135
0.0481146,0.0188671
-0.0867951,0.0149706
-0.0930336,0.00862065
-0.0264491,0.000585566
0.0225442,-0.00108112
0.0633169,-0.00590039
0.121838,-0.00810843
0.17425,-0.00223031
0.207463,-0.000429142
0.124788,-0.00951651
-0.0525041,-0.0400979
-0.211257,-0.0123469
-0.293068,0.0453017
-0.226263,0.0269214
-0.0838951,0.00898975
-0.0134792,0.00229519
0.00946561,0.000279462
-0.00265286,0.0118045
-0.0178844,0.0118594
-0.00658394,-0.0190746
0.0748581,-0.0247697
0.11533,0.00376997
0.0566764,0.00489572
-0.0150505,-0.000411959
-0.0429852,0.00340095
0.0443948,-0.000196892
0.152395,-0.000136312
0.0757544,0.0100071
0.0176661,0.0232732
0.0256655,0.019595
0.0395815,0.00453225
0.0629469,0.000329233
-0.0887161,0.00159103
-0.188312,0.00230979
0.0969943,0.00145268
0.397359,-0.00995934
0.412918,-0.0201079
0.033594,-0.0118955
-0.482791,0.0110362
-0.400087,0.017211
-0.179121,0.00915682
-0.138872,-0.02134
-0.145615,-0.048897
-0.13745,-0.00657176
-0.0388079,-0.0228606
0.0141341,-0.00507499
0.0341939,0.033709
0.108867,0.0172679
0.117132,0.00817823
0.0649846,0.00202111
-0.021468,0.000904106
-0.152042,0.000339252
-0.113244,-0.00646154
0.00953592,-0.00274678
0.099465,-0.0362478
0.0742443,-0.09214
0.00511203,-0.0935975
-0.001945,0.011783
0.0661436,0.0598476
0.248164,0.0396489
0.340217,0.0191534
0.272794,0.00604422
0.00405645,0.0205825
-0.211137,0.0131786
-0.194288,-0.00670647
-0.0998665,-0.015293
-0.0577004,0.0202771
0.0462867,0.0340653
0.191447,0.0214557
0.155693,0.0108398
0.0144355,0.00556688
-0.223532,0.0103362
-0.36548,0.02965
-0.282403,0.0312814
-0.133199,0.0146653
0.0744686,-0.00495964
0.233144,-0.0195857
0.280294,-0.0147438
0.33432,-0.0101967
0.208278,-0.0216859
0.0748135,-0.0300187
-0.08457,-0.0143356
-0.307879,0.00462049
-0.245354,-0.0228082
-0.224624,-0.0283641
-0.174782,0.0062953
-0.0501653,-0.0018079
0.095238,-0.00400051
0.164442,0.0229202
0.156824,0.011285
-0.000670233,-0.00528878
-0.168627,-0.0201031
-0.159251,-0.000364146
-0.0215494,0.029867
0.114594,0.0224285
0.0850805,0.00877795
-0.0620281,-0.000871712
-0.0715494,-0.00302132
0.0712029,0.000112989
0.20093,0.0109726
0.187131,0.0218037
0.0781789,0.00437397
-0.0476488,-0.0270276
-0.164966,-0.0348421
-0.0980482,-0.0155346
-0.0669547,0.0108683
-0.0498886,0.0157527
0.0544652,0.0234197
0.101291,0.0110427
0.0542394,-1.39e-05
0.0226947,0.000377347
-0.0447824,0.00635371
-0.0672011,-0.00235999
-0.0493135,-0.0140402
-0.0185174,-0.0255323
0.0333407,-0.048486
0.041932,-0.0289894
0.00837932,0.00326002
-0.042254,0.0167183
-0.0124781,0.0102258
0.0767189,-0.00307943
0.190207,-0.00661343
0.263517,-0.0124066
0.163506,-0.00764018
0.0485684,-0.00767911
-0.0916444,-0.0140945
-0.100685,0.027508
-0.0677567,0.0422194
-0.0860894,0.0375195
-0.145658,0.0224274
-0.198215,0.00615958
-0.130437,0.00176161
-0.0405243,0.000111057
-0.0234864,6.9e-05
-0.0347082,0.00284196
-0.0112196,0.00238861
0.00147244,0.00406152
-0.0125355,0.00834553
-0.00873378,0.00223255
-0.0156804,-0.0171629
-0.00969232,-0.0299121
0.0168506,-0.0125194
0.0481263,0.000993077
0.0706816,0.00504382
0.122046,0.000498274
0.126277,0.00369999
0.0882141,0.000928498
0.0396325,-0.0161066
-0.0542507,-0.0108616
-0.053938,-0.00832319
0.0558279,-0.0190957
0.117982,-0.00471122
0.189823,0.0153633
0.206043,0.0113189
0.0349222,0.00971141
-0.115351,0.00398371
-0.212128,0.000577913
-0.319315,-0.0258903
-0.206049,-0.0130939
-0.0854239,-0.00738791
-0.0181739,0.00489972
0.0205199,0.00570967
0.0138422,-0.000236085
-0.024592,0.000178585
-0.0197657,-0.0112223
-0.000742788,-0.0137671
0.027178,0.011867
0.0307938,0.0212073
0.00740401,0.0187701
0.000132445,0.0139194
0.0109758,0.0142861
0.0245843,0.0029203
0.032848,-0.0263721
0.0337827,-0.0309326
0.0346718,0.0103767
0.0350732,0.0231282
0.0409445,0.0215887
0.0483073,0.009844
0.0363971,0.00278257
0.0183976,-0.00374385
0.00251578,-0.00806629
0.00187543,-0.00403276
-0.015945,0.00318562
-0.0380603,0.00954701
-0.0340007,0.0125943
-0.021528,0.00986563
0.00201474,0.00684314
0.0508843,0.00367765
0.0808728,-0.00794683
0.0648604,-0.0130396
-0.0111515,-0.012133
-0.0963645,-0.00145839
-0.107286,0.00543045
-0.0588201,0.00788971
-0.0203638,0.00507455
-0.0013345,-0.00848333
-0.00513715,-0.0109734
-0.0200151,0.00156672
-0.0358286,0.00413
-0.0289972,-0.00346502
-0.00403265,-0.00880392
0.0341232,-0.0117266
0.0765172,-0.0163227
0.138349,-0.0255017
0.346041,-0.038921
0.448338,0.00520348
0.297413,0.00673568
-0.0714435,0.0127681
-0.491573,0.0144716
-0.466618,0.00815501
-0.213413,0.0203766
-0.132269,0.0320798
-0.0612838,0.0214069
-0.0342571,-0.0198199
-0.0336987,-0.0561439
-0.0387063,0.00377714
-0.0441835,0.0230009
-0.0331111,0.019142
-0.0116087,0.0350648
0.056392,0.00766978
0.101558,-0.0305938
0.0740253,-0.0352922
0.0887194,-0.0265519
0.203304,0.00569871
0.326104,0.0158117
0.27476,0.00297908
0.0660677,-0.019836
-0.174207,-0.0595842
-0.316207,-0.00837289
-0.255434,0.0684229
-0.0869243,0.0224092
-0.00477784,-0.0596107
0.00570214,-0.0850485
-0.0378097,0.00692014
-0.0795083,0.0090392
-0.0808207,0.0237061
-0.0662316,0.0436358
-0.0264653,0.0600124
0.018236,0.0379636
0.0842157,0.0325117
0.177948,0.025507
0.112017,-0.000330482
-0.0664633,-0.0295723
-0.067686,-0.0219608
0.0859565,-0.00957774
0.200966,-0.0279879
0.190792,-0.0202667
0.0948488,0.0206561
-0.000948386,0.0186595
-0.0641994,0.0153402
-0.142114,0.00891118
-0.191539,-0.00920144
-0.11094,0.00161906
0.0508027,0.00408245
0.112933,-0.00796453
-0.00187494,-0.0208593
-0.0764804,-0.0393322
0.0228372,-0.0454802
0.123123,-0.000353801
0.113234,0.0388582
-0.12467,0.0356716
-0.319121,0.010584
-0.156917,-0.00590017
0.0296079,0.0191537
0.242619,0.0180306
0.405987,0.0044764
0.416127,-0.00613531
0.133502,-0.00370775
-0.297545,0.00937149
-0.439742,0.00381435
-0.364818,0.000165492
-0.217834,0.0130187
-0.0924235,0.00154612
-0.0141827,-0.0227243
0.0687319,-0.0188177
0.11264,-0.0187526
0.128179,-0.0421357
0.104549,-0.00383964
0.1425,0.024467
0.0583023,-0.0100048
-0.0794397,0.00429784
-0.0277137,0.0190715
0.115799,0.00412274
0.134822,-0.00343691
0.104105,0.0102353
0.0427921,-0.0013024
0.0184623,-0.0123635
0.00971837,-0.0526353
-0.175884,0.0029247
-0.240101,0.0387172
-0.0815859,0.0235897
0.0534235,0.0106133
0.102737,0.003046
0.0410106,0.0035731
-0.0495954,0.00493873
-0.0685465,-0.00930583
-0.0819007,-0.0277438
-0.091709,-0.029085
-0.0497957,-0.00379555
-0.0217673,0.0281875
-0.00792137,0.0216634
0.00838141,0.0195603
0.00933211,0.020887
-0.00420634,0.0196321
-0.00342153,-0.00679785
0.00958026,-0.0583349
0.0344737,-0.0233878
0.0539599,0.01022
0.0253948,0.00545437
-0.00337023,0.00387392
0.0120303,-0.0156961
0.0464359,-0.0346447
0.171775,-0.0175175
0.331019,0.0104424
0.29552,0.00765122
0.0921359,0.00626506
-0.238635,0.00639522
-0.305684,0.00619209
-0.0972884,0.00904234
0.0522741,0.0142338
0.109667,0.0176772
0.019636,0.0293962
-0.102761,0.0329367
-0.131546,0.0160728
-0.0926127,-0.00799284
-0.036351,-0.0185424
-0.0261038,-0.0212341
-0.0679623,-0.00646231
-0.08257,0.00217335
-0.0404464,-0.00237454
-0.0220091,-0.0047659
0.019097,-0.00341486
0.0818868,-0.00875574
0.106368,-0.0072276
0.0904389,0.000628027
-0.00534734,-0.00646579
-0.0899305,-0.00909719
-0.0690289,-0.00276189
-0.0162565,-0.00149246
0.0868237,-0.0170719
0.190185,-0.0293486
0.248228,-0.0444856
0.142285,-0.00523109
-0.132441,0.0299994
-0.277448,0.0279165
-0.2207,0.0115987
-0.121872,0.00288224
-0.0526154,0.00759031
-0.0268275,0.0115864
0.0159036,0.013559
0.0412042,0.014002
0.028935,0.0133863
-0.00684425,0.0147248
0.00235383,0.0123843
0.0985076,0.00490138
0.250077,-0.00906541
0.387836,-0.0221464
0.292669,-0.0303155
0.046257,-0.0262267
-0.187813,-0.0187853
-0.354057,0.0120184
-0.283185,0.0153677
-0.0803429,-0.00587763
0.00946022,-0.00118984
-0.0371851,0.000392496
-0.0730029,-0.00503401
-0.0301377,-0.00222277
-0.0029072,-0.0342034
-0.0186194,-0.0604147
-0.0397516,-0.0477696
-0.0287758,-0.00269696
-0.00533475,0.0678461
0.0211017,0.0588116
0.0247491,0.0173409
0.00239123,0.0196685
0.00120245,0.0287518
0.0821583,0.0227483
0.137852,0.0243122
0.0646786,0.0117398
0.0128434,-0.00305703
0.0137277,-0.00403089
0.0192366,0.00339681
0.0239202,0.00579832
0.0258703,0.000551274
0.00601626,-0.00254146
-0.0294262,-0.00127599
-0.0515572,-0.0125184
-0.0477689,0.00521862
-0.0273454,0.00567925
-0.0181162,-0.0178824
-0.0272862,-0.0160888
-0.0366007,-0.00721568
-0.0159186,-0.0142585
0.0239336,-0.0206897
0.0517089,0.00217875
0.055629,0.00658837
0.0437882,-9.49e-05
0.026129,0.0039536
0.0379451,0.0062977
0.0319032,0.00455746
0.00980901,0.00890721
-0.00146357,0.0177925
-0.0100532,0.0166149
-0.0328525,0.0108792
-0.0639312,0.000981545
-0.106338,-0.0139527
-0.10908,-0.0222107
-0.0522995,-0.0203867
-8.61e-06,-0.0174332
0.039663,-0.0182688
0.131123,-0.0191216
0.192747,-0.00980963
0.18945,0.00313654
0.157646,0.00373119
0.0241286,0.0039305
-0.192978,0.00969873
-0.288158,0.00968096
-0.140427,0.00601172
0.190724,-0.00574387
0.305957,-0.00208038
0.152419,0.00979118
-0.219474,0.00765795
-0.373778,-0.00570339
-0.22582,-0.0126404
-0.123965,-0.00757223
-0.0332656,-0.003822
0.0171627,-0.00436338
0.056355,-0.00448979
0.0303301,0.000599921
0.0186498,0.00330969
0.0593035,0.00505483
0.0734419,0.00525821
0.0672559,0.00111045
-0.00995924,0.0134046
-0.107493,0.0201235
0.0134756,0.018161
0.0508525,0.0172901
0.0473901,0.00937321
0.0324466,-0.00167253
0.0494754,-0.0118164
0.0164202,-0.0184819
-0.0383877,-0.0193408
-0.0430592,-0.0211364
0.0136165,-0.0180691
0.0535999,-0.0111224
0.0512947,-0.00768482
0.00901185,-0.0106587
-0.018843,-0.00886809
-0.00011196,-6.45e-05
0.0341645,0.00210318
0.0389498,0.027766
0.0094109,0.0352318
-0.029769,0.0263717
-0.0341167,0.0180355
0.000222261,0.00309727
0.0248189,-0.00809197
0.0163153,-0.00789627
-0.0230704,-0.00363932
-0.0400497,-0.00240101
-0.0136765,-0.00308681
0.0374151,-0.00796888
0.0520653,-0.0178458
0.0179893,-0.0121392
-0.0214983,-0.00896392
-0.0142266,0.00685648
0.0215526,0.0131804
0.0393355,0.00420542
0.0181189,0.00682846
-0.0233566,0.0173481
-0.0472045,0.0167452
-0.0390508,0.00627223
-0.0127071,0.000627001
-0.00136593,-0.000772393
-0.00836401,0.00134989
-0.0218086,0.00674289
-0.024964,0.00527951
-0.00574884,0.00159159
0.0262242,0.00543376
0.0304266,0.00441116
0.000125653,-0.00436348
-0.0270781,-0.00762288
-0.0230928,0.00646747
0.00718957,0.0113698
0.0270929,0.00957946
0.0133253,0.00663076
-0.0133856,0.00792175
-0.0163178,0.00771133
0.00327116,-0.00415296
0.0126127,-0.0200681
0.00397089,-0.0242203
-0.0103592,-0.00652883
-0.0314827,-0.00911703
-0.0202764,-0.0291002
0.0154144,-0.00884802
0.0434767,0.00585415
0.0424365,-0.00392818
0.0118225,-0.0107513
-0.00353856,-0.00812023
0.0104378,-0.00711878
0.0240319,-0.00992189
0.0222689,-0.0045512
0.007059,0.00298557
-0.04762,0.00214914
-0.109035,-0.00409797
-0.106164,-0.00427421
-0.0743705,-0.00360132
-0.0239849,0.000792886
0.0141009,0.0044676
0.0466418,0.0040622
0.0743089,0.00184962
0.092505,-0.000835785
0.0828303,-0.00275372
0.0509229,-0.00634488
0.0165478,-0.00527505
-8.4e-05,0.00297181
-0.027563,0.00490904
-0.0432761,0.00560372
-0.132237,0.00659968
-0.32192,0.00971092
-0.328015,0.0146095
-0.189748,0.0108943
0.0968882,0.0116784
0.414968,0.0159761
0.518017,0.0112489
0.46276,-0.00231128
0.25715,-0.0136718
-0.0301729,-0.0147427
-0.191641,-0.0124097
-0.366829,-0.00860776
-0.39575,-0.00247596
-0.0817341,0.00475765
0.132384,0.00324303
0.162591,-0.00262358
0.0643409,0.00132006
-0.100235,0.00633889
-0.13404,0.00662755
-0.0552634,0.00556789
0.0253102,0.00194784
0.0687331,-0.00940728
0.0914481,-0.0028831
0.0588301,0.00111589
0.0198661,-0.00324121
-0.0280218,-0.00672525
-0.0883966,-0.00732531
-0.167772,-0.00916924
-0.144076,-0.0151228
-0.0446302,-0.0174344
0.0935033,-0.00914773
0.192372,0.000196223
0.167143,0.00493107
0.0174704,0.00695109
-0.0891577,0.00284437
-0.0820459,0.00564212
-0.00896424,0.0164826
0.0863202,0.0150963
0.121699,-0.0036169
0.0906042,-0.00829719
0.0183943,-0.00467211
-0.0456635,-0.00527729
-0.0876275,-0.00175334
-0.0828287,-0.0037765
-0.00500254,-0.00624329
0.0288337,-0.00568812
-0.0336187,-0.00166519
-0.168172,0.00566384
-0.188657,0.0141324
-0.0562635,0.020487
0.129718,0.0303231
0.181366,0.0341042
0.158712,0.0277045
0.0359323,0.0140269
-0.083402,0.00175336
-0.0913053,-0.00357386
-0.0562022,0.00576937
-0.0319716,0.0131148
0.00463158,0.000475311
0.0454659,0.000451743
0.0822997,0.0060383
0.118521,-0.00401287
0.187595,-0.0151917
0.206629,-0.00865372
0.140743,-0.00604913
-0.0174881,-0.00916446
-0.179936,-0.0111529
-0.158676,-0.00917469
-0.098594,-0.00521507
-0.104909,-0.00537977
-0.0752958,-0.00875477
-0.0182506,-0.00916371
-0.0155021,-0.00587212
-0.0570478,0.000855799
-0.0670469,0.00983557
-0.0517913,0.00504288
-0.0617978,0.00430067
-0.0417456,0.00470548
-0.00297667,-0.00601875
0.0452119,-0.010741
0.0431741,-0.0084811
0.0399004,-0.0176224
0.118649,-0.0208517
0.137904,-0.0154639
0.0540141,-0.00604818
-0.104018,-0.000484715
-0.0798327,0.00634474
0.0968165,-0.00149178
0.113403,-0.0022141
0.0632603,0.00517817
-0.0033276,0.00434175
-0.0502496,0.00542527
-0.0734942,0.00690089
-0.102932,0.00508771
