Comp Ch 3,Comp Ch 4
-0.00767291,-0.0255779
-0.0759813,-0.0166063
-0.0980951,-0.0148999
-0.0806974,-0.0158054
-0.0582064,-0.0162339
-0.0118452,-0.00425415
0.0213847,0.0127428
0.07806,0.0204505
0.105316,0.0112675
0.0274518,0.0117099
-0.0817325,0.0229177
-0.156137,0.0128395
-0.150362,-0.00410786
-0.0543949,-0.0192262
-0.000224171,-0.0266458
0.0327557,-0.0247306
0.0322368,-0.0283328
0.0238281,-0.028807
0.0270071,-0.0178411
0.0266406,-0.00191703
0.0420847,-0.00363624
0.0345956,-0.011708
-0.0133999,-0.00036298
-0.0432123,0.0153334
-0.037036,0.0236886
-0.0263586,0.0324495
-0.0127503,0.0355717
0.0282913,0.0220293
0.0521269,0.0139821
-0.0180775,0.00738373
-0.0788796,-0.00483504
-0.0230236,-0.0045803
0.0548334,-0.0144112
0.136967,-0.0315094
0.222258,-0.0197968
0.305081,-0.00175977
0.248737,0.0076225
0.0338602,0.0038106
-0.122809,0.0190472
-0.266376,0.0355035
-0.352749,0.0115086
-0.225293,0.0276343
-0.0390128,0.0457067
0.0238024,0.0363588
0.0472066,0.0192955
0.0614467,0.0104275
0.0328871,0.000987109
-0.037589,-0.0165277
-0.0914974,-0.0295135
-0.0131488,-0.0342086
0.0693224,-0.0325432
-0.0115051,-0.016642
-0.0780987,0.00944894
-0.00418713,0.0180029
0.126129,-0.012273
0.24039,-0.0277492
0.187574,0.00939025
0.168415,0.0267427
0.14731,0.0208195
-0.147809,0.0200986
-0.422051,0.0262879
-0.318483,0.0241508
-0.11865,-0.00707306
0.0532369,-0.02577
0.124586,-0.0243515
0.0731584,-0.0535608
-0.0137836,-0.0380616
-0.0520139,0.000301931
-0.0865189,-0.000118283
-0.0707783,0.00023678
-0.00550307,0.000451048
0.02754,-0.00541029
0.0196825,0.00335789
0.0283449,0.015554
0.0546307,0.0282274
0.0670252,0.0287006
0.101458,0.0239074
0.156927,0.00787978
0.134464,0.0073054
-0.00293322,0.00499691
-0.128975,-0.00296558
-0.0507353,-0.000388949
0.0208393,-0.0048727
0.030497,-0.00998654
0.0226404,-0.00953336
-0.0498329,0.000357759
-0.0815283,0.00976207
-0.0794446,0.00506723
-0.100176,0.00236321
-0.0805252,0.000156272
-0.0383656,-0.00722335
0.00320094,0.00179814
0.0305436,0.0211429
0.00207854,0.0272861
-0.011361,0.0206942
0.0125522,0.00239837
0.0342677,-0.0200948
0.02343,-0.0324364
0.0200276,-0.0253573
-0.0155162,-0.0305641
-0.0576967,-0.0542897
-0.0624534,-0.0718098
0.0071823,-0.0615757
0.127253,-0.053431
0.187963,0.000729978
0.143082,0.00736731
0.0403002,0.0310862
-0.0573066,0.0559908
0.0468997,0.0256378
0.360534,0.0604135
0.571311,0.0611916
0.625132,0.028368
0.485494,0.021594
-0.0246734,0.00533701
-0.402836,-0.00219231
-0.416094,-0.00744825
-0.468171,-0.0075294
-0.618647,-0.0182187
-0.63279,-0.0383464
-0.583742,-0.0206113
-0.304134,-0.00139366
-0.10145,0.00231942
-0.0650178,0.00243572
-0.0636322,0.0130713
0.0716533,0.0319612
0.145535,0.0324979
0.0997593,0.0373375
0.0525676,0.0262219
-0.0337566,-0.000115486
-0.0758015,-0.024634
0.0444552,-0.00912447
0.257263,-0.020455
0.379893,-0.0578659
0.306458,-0.0139305
0.138154,0.00438074
-0.0255341,-0.023993
-0.00889294,-0.00139892
0.371006,0.00416575
0.728745,-0.0118891
0.824808,-0.0250185
0.771645,-0.0300339
0.0914329,0.00918356
-0.776664,0.0569316
-1.01095,0.0712327
-0.81007,0.0588076
-0.572147,0.0247555
-0.335682,-0.0135238
-0.0144623,-0.0325707
0.190505,-0.0300896
0.196539,-0.0194967
0.0240326,0.000709541
-0.210529,0.0161398
-0.187466,-0.00209662
0.0497339,-0.0488868
0.117643,-0.0432947
0.00150457,0.01229
-0.0413468,0.0210662
0.0630708,0.00229947
0.137715,0.00393612
0.00691756,0.0192564
-0.215986,0.0271978
-0.17471,0.00997317
0.222918,-0.0171608
0.589213,-0.037116
0.750667,-0.0379033
0.70516,-0.0191216
0.342815,-0.0090928
0.0222726,-0.0044701
0.0203906,-0.0257578
-0.143896,-0.0213506
-0.150825,0.020256
-0.247014,0.0339776
-0.73944,-0.0086635
-1.01029,-0.0295893
-0.591678,0.0398404
-0.0778609,0.0558172
0.139437,0.0153544
0.27099,-0.0301008
0.317585,-0.0194208
0.198566,-0.00468636
-0.0132761,-0.00542128
-0.168082,-0.00738775
-0.138618,-0.00533264
0.158588,-0.00383741
0.345653,-0.00405588
0.287346,-0.00582184
-0.0573027,0.0183441
-0.360608,0.0506844
-0.208761,0.0586194
0.136023,0.0252972
0.316182,-0.0256337
0.295268,-0.0369078
0.163565,-0.0295648
-0.0132089,-0.0104824
-0.355594,0.01879
-0.369207,0.0239398
-0.110195,0.00861904
-0.0170294,-0.000711185
0.0292657,-0.00517921
0.048221,-0.00331277
0.123254,0.000807433
0.0745993,0.0224928
-0.0412588,0.0407838
-0.0175253,0.0223328
0.02311,-0.0322078
-0.0367727,-0.0475934
-0.079551,-0.0146593
-0.00101028,0.00618306
0.0374569,0.0215345
-0.00622136,0.0325692
0.00596411,0.0118993
0.186748,-0.0174585
0.242107,-0.0263929
0.114953,-0.0242467
0.0207139,-0.0107759
-0.173003,0.00259033
-0.228971,0.00632156
0.0852426,0.00941567
0.236737,0.00832031
0.16227,-0.00403938
-0.0427834,-0.0189893
-0.23743,-0.0175519
-0.380241,0.00101619
-0.241503,0.0193558
0.139112,0.01249
0.388628,-0.00378115
0.480702,-0.000400354
0.330655,0.0136459
0.262198,0.0140335
0.0651963,-0.00543865
-0.114914,-0.0118262
-0.0836509,0.0134598
-0.359293,0.0451846
-0.454113,0.011478
-0.212679,-0.0426712
-0.28655,-0.0776422
-0.283844,-0.0544034
0.0419718,-0.0156243
0.127692,0.00704728
0.101134,0.0156189
-0.00667623,0.000596406
0.057366,0.000148177
0.00434535,0.0122112
-0.264621,0.0221422
-0.286686,0.0333322
-0.132799,0.0253526
-0.00217026,-0.00416028
0.147771,-0.0221928
0.182467,-0.0296111
0.197068,-0.0346166
0.11175,-0.0353282
-0.0503135,-0.0169096
-0.0831362,-0.0110597
-0.00358242,-0.0199939
0.0874961,-0.036647
0.128165,-0.0679594
0.105212,-0.0950674
0.104198,-0.0452033
0.0550864,0.0132001
-0.042216,0.0564833
-0.114666,0.0894216
-0.0696437,0.103794
0.0333574,0.111505
0.0917436,0.0875561
0.0611445,0.0384896
0.0176104,0.02085
0.00232582,0.0265479
-0.0478984,0.0140627
-0.130313,0.0245536
-0.0268705,0.0328681
0.253626,0.00640546
0.351191,-0.0107988
0.159537,0.00141275
-0.037335,0.0216741
-0.0684191,0.00752652
-0.00982182,-0.0219506
0.0839995,-0.0245726
0.406055,-0.0230763
0.567362,-0.0287729
0.648724,-0.0457048
0.46745,-0.0651792
-0.462931,-0.0621234
-1.12129,-0.0373385
-1.02108,-0.00720777
-0.671459,0.0454366
-0.284192,0.0651384
-0.0765074,0.055176
-0.0368178,0.0328848
-0.027767,0.010725
-0.0381883,0.00954667
-0.00425263,0.0203453
0.0503931,-0.00808156
0.00604148,-0.0331021
-0.0610698,-0.0398184
-0.0193581,-0.0505313
0.0570142,-0.0359209
0.237706,-0.0251814
0.40149,-0.0313586
0.379866,-0.0278063
0.214218,-0.00625007
-0.0962489,0.0020682
-0.179558,-4.47e-05
0.0661048,0.00155285
0.256206,0.00622066
0.389152,0.00110115
0.348196,-0.00465951
0.0993463,0.00272583
-0.145376,0.0298203
-0.338556,0.019066
-0.462996,-0.00297504
-0.321555,0.00759104
-0.152976,0.0162676
-0.0592896,0.0120048
-0.0303104,-0.00205175
-0.0143556,-0.0240503
0.0531208,-0.0153827
0.118632,-0.00910092
0.160005,-0.0235038
0.107392,-0.0105983
0.0444203,0.0375783
0.109161,0.0478057
0.100002,0.00866777
-0.025243,-0.0139057
-0.00536571,-0.00967889
0.0609928,-0.00118598
0.00291323,0.00689986
-0.0599202,0.0077022
-0.0743678,-0.00682096
-0.11997,-0.00995496
-0.119614,-0.0042435
0.0642935,-0.00199293
0.271704,0.00638667
0.292255,0.0159444
0.108347,0.0163335
-0.268325,0.011747
-0.33643,0.00769033
-0.0800092,-0.00828531
0.139211,-0.030547
0.148496,-0.0280636
-0.0413786,-0.000807596
-0.0459056,0.00598696
-0.0953617,0.00671194
-0.160855,0.0134979
0.138649,0.00223713
0.440382,-0.0130481
0.403646,-0.0164643
-0.0139193,-0.0143973
-0.56397,-0.00570291
-0.626605,-0.0044902
-0.21727,-0.00853088
0.185778,0.0051566
0.346298,0.0125381
0.0758956,0.0249398
-0.116287,0.0287567
-0.0320924,0.0106298
-0.130028,0.0102828
-0.249673,0.0172081
-0.203934,-0.0296002
-0.0719481,-0.0426525
-0.00707406,-0.00470173
0.0227829,-0.00994678
0.0426372,-0.0215384
0.0969913,-0.000391833
0.258538,0.0208658
0.375396,0.00765804
0.262347,-0.00901349
0.104816,-0.00200737
-0.0244311,0.0140487
-0.077167,0.0109247
-0.0305783,0.0147238
-0.131898,0.0145233
-0.167143,-0.0105355
-0.0577499,-0.019821
-0.012029,-0.00277369
0.013756,0.0151283
0.0269396,0.0331355
0.0533087,0.0287325
0.0809721,0.0135406
0.0484995,0.000691716
0.0620696,-0.013269
0.0428264,-0.0223147
-0.13191,-0.0129917
-0.242267,-0.00850509
-0.197673,0.0118585
-0.172542,0.0128766
-0.0323524,-0.00737744
0.121326,-0.0172905
0.233725,-0.00372322
0.406428,-0.00752548
0.577016,-0.00177808
0.522528,0.00765507
0.275661,-0.000929325
-0.249722,-0.00366894
-0.626395,0.00941248
-0.646236,0.0225851
-0.497456,0.0227046
-0.192041,0.000275638
-0.00662813,-0.00851643
0.0594116,-0.00659262
0.267836,-0.0108112
0.426109,-0.00956412
0.373171,-0.00124208
-0.00966246,-0.00085054
-0.403709,-0.00815642
-0.395995,-0.0103724
-0.263633,-0.00504923
-0.112138,-0.0105034
0.0771744,-0.0053749
0.271101,-0.00208706
0.249497,-0.000312745
0.0802234,-0.00180753
-0.123428,0.00222573
-0.138183,0.00343109
0.149774,-0.00840875
0.434298,-0.011111
0.52829,0.0115955
0.255153,0.0147592
-0.0365592,0.0130545
-0.343731,0.00955338
-0.436828,-0.0353384
-0.269467,-0.0118617
-0.117919,0.00565228
-0.0868552,0.0118007
-0.12276,0.00773922
-0.12892,0.00908625
-0.0565311,0.00966349
-0.038937,0.000333231
-0.054369,-0.0116156
-0.0415141,0.00351512
-0.0882243,0.0109215
-0.0674676,0.00110473
-0.0113432,-0.00959682
0.0454083,-0.021032
0.137554,-0.0206744
0.238791,-0.00410458
0.381704,0.0104762
0.349965,0.0161594
0.206988,0.0182226
0.183866,0.0135325
0.168963,0.0015555
0.214385,0.000144394
0.0259986,0.0182347
-0.528532,-0.00754453
-0.636412,-0.0270254
-0.298105,-0.0113547
-0.170598,0.0181469
0.0112665,0.00132609
0.0295704,0.00475675
0.0264867,0.0201348
0.00630497,0.0199899
-0.0507165,0.00448457
0.00271592,9.3e-06
0.0960863,-0.0122608
0.12516,-0.0145094
0.228001,-0.0107102
0.419181,-0.0129875
0.455097,-0.0167388
0.254197,-0.0222616
-0.093995,0.00104582
-0.355463,0.0388138
-0.381625,0.035526
-0.27772,-0.00302291
-0.233297,-0.0134587
-0.0405259,-0.00786838
0.0524872,-0.00101654
0.0709581,0.0083529
0.0760708,0.00787507
0.191409,0.008895
0.216232,0.0123825
0.101383,0.00648072
-0.0843883,-0.0132636
-0.124214,-0.0248312
-0.0402709,-0.0261512
-0.0967026,-0.0353599
-0.125142,-0.00952527
-0.212459,0.031589
-0.0618444,0.0322268
0.00725338,-0.00300829
-0.0641793,-0.0232831
0.00363175,-0.00892548
0.117765,-0.00377172
0.153554,-0.006937
0.0819274,-0.0073743
-0.0913842,0.00152355
-0.251414,-0.000771933
-0.190929,0.000160784
-0.0650488,-0.00358542
-0.00486629,-0.0107726
0.0392754,-0.000626701
0.111133,0.0108927
0.194124,0.0119928
0.175712,0.0136506
0.120034,0.00385419
0.0587047,-0.00102118
0.239199,0.0195238
0.604511,0.00521969
0.601727,-0.0345546
0.358273,-0.00761671
-0.26133,-0.00261584
-0.925828,-0.00693244
-0.805115,0.00164248
-0.504724,0.0109648
-0.295534,0.0153588
0.0167574,0.0124911
0.150159,0.00538158
0.161413,-0.00131409
0.252629,-0.00962986
0.281902,-0.00285243
0.240424,0.0194156
0.0113817,0.0230904
-0.23357,0.00191351
-0.178594,-0.012456
-0.139862,-0.000721798
-0.0281725,4.09e-05
0.0317383,-0.00903318
0.106925,-0.010476
0.235312,-0.00502472
0.284307,-0.0112063
0.110206,-0.0340664
-0.0787176,-0.0124887
0.0822285,0.00243602
0.208426,0.0207433
-0.0626275,0.0255533
-0.37474,0.0100598
-0.480436,0.00812358
-0.281664,0.00605345
-0.012128,0.00520823
0.153285,0.01228
0.193588,0.010522
0.107032,-0.00103725
-0.0061144,-0.000564708
-0.0573673,0.00886602
0.0218738,0.0121453
0.0578964,0.00303626
-0.0536472,-0.0134679
-0.0781872,-0.0146987
-0.0124299,-0.0194825
0.0419207,-0.0149615
0.182322,0.00330236
0.300915,0.018079
0.243705,0.00855364
0.0908813,0.0101195
-0.288026,-0.0354707
-0.394282,-0.0306467
-0.121274,0.00138176
0.0346395,-0.00184921
0.162618,-4.83e-05
0.280389,-0.00335381
0.259799,-0.00565619
0.0772764,-0.00393658
-0.219152,0.0106332
-0.432363,0.00564082
-0.352382,0.0050595
-0.127391,-0.00197152
-0.00607344,-0.0118022
0.132032,-0.0157311
0.260968,-0.023919
0.163384,-0.0051362
0.0555688,0.0198665
0.0810035,0.0227771
0.253672,0.00559443
0.46399,-0.000972191
0.381815,0.0131544
0.0105753,0.0401887
-0.110145,-0.0128518
-0.298533,-0.0180243
-0.66485,0.0255281
-0.612233,0.0073328
-0.423028,0.0124391
-0.142682,0.0331127
0.102836,0.0124452
0.198618,-0.00329809
0.131356,0.00172233
0.0115323,0.0128521
0.0587298,0.0135873
0.202112,0.0206914
0.120208,0.00737211
0.118507,-0.00653877
0.189545,-0.0233345
0.0983578,-0.0945913
0.118117,-0.0641386
0.0115043,0.00791893
-0.0577985,-0.013169
-0.152884,-0.0419666
-0.320991,-0.0257458
-0.280368,0.006432
-0.161668,0.0162333
-0.0171952,0.0101176
0.0792988,0.00824553
0.129229,0.00811638
0.322182,0.0163892
0.478408,0.0260867
0.354236,0.0186139
-0.0288948,-0.00767921
-0.504224,0.00541384
-0.441,0.011881
-0.216141,-0.000212983
-0.233026,-0.00165085
0.044948,-0.0103108
0.427727,-0.0182598
0.59517,-0.0204532
0.487102,-0.00928595
0.189835,0.00053132
-0.21185,-0.000617082
-0.387115,0.000145713
-0.333965,0.00732646
-0.340677,0.0115483
-0.337803,0.0169313
-0.166227,0.021468
-0.03886,0.0220514
0.0471675,0.0253241
0.0708747,0.0124345
0.0649129,-0.0022522
0.0806317,-0.0111551
0.0930329,-0.0254867
0.0615619,-0.0162871
0.0648799,0.0151421
0.258398,0.0489184
0.427419,0.0336015
0.302304,-0.0120638
0.110649,-0.0330518
-0.0254737,-0.0289586
-0.00342872,-0.0270057
-0.0922979,-0.0295752
-0.402076,-0.00438863
-0.490356,0.00944493
-0.32344,0.00880073
-0.113545,0.0179433
0.00995717,0.00902145
0.233142,-0.0111052
0.407377,-0.0180492
0.397398,-0.0158801
0.24422,-0.0052446
-0.090296,-0.00357866
-0.204284,-0.00376957
-0.131139,-0.00688384
-0.106398,-0.00753069
-0.180473,0.00851313
-0.0681609,0.022785
0.01575,0.0193936
0.0514271,0.0201684
-0.0718898,0.0296739
-0.167824,0.0350018
-0.00468445,0.0297689
0.0443495,0.0228726
0.0686418,0.0192087
0.070798,0.0169951
0.0367749,-0.0245586
0.138104,-0.0473065
0.129013,-0.037887
0.0244754,-0.014692
-0.00199035,-0.00230218
0.0695134,0.0114263
0.201426,0.0111124
-0.0238659,-0.00381965
-0.419153,-0.0200353
-0.400705,-0.014399
-0.0792202,-0.00604618
0.0246367,0.00120773
0.0821666,0.00432834
0.111707,-0.00213
0.0412187,-0.0127945
-0.0193918,-0.00500606
-0.0879717,0.000528641
-0.0772784,-0.00932512
-0.00330024,-0.0131159
0.0177972,-0.00937462
0.00691888,-0.0116641
-0.0373738,-0.00116423
-0.0231551,0.0190401
0.0801031,0.0166831
0.148029,-0.0330093
0.085787,-0.0242074
0.0738969,0.0167768
0.283877,0.0444936
0.437744,0.0155586
0.332849,-0.0212447
-0.0481639,-0.0161495
-0.501993,-0.00838882
-0.513697,-9.21e-06
-0.134555,-0.00172058
0.112881,-0.013855
0.215732,-0.0217974
0.260221,-0.0123682
0.12982,0.0128938
-0.14444,0.0241399
-0.21077,0.0185509
-0.241988,-0.00569122
-0.231445,-0.0283442
-0.0834408,-0.00537055
-0.0339919,0.0203387
-0.0790074,0.0280874
-0.111561,0.0316127
-0.00971099,0.0419445
0.0342409,0.0278314
0.0546617,0.0080236
0.264886,-0.00926305
0.480295,-0.0315123
0.46406,-0.0116219
0.178385,0.00527009
-0.224559,-0.0132016
-0.395139,-0.0155558
-0.272017,-0.00827773
-0.0995112,0.00586857
-0.0368502,0.00647691
-0.0962231,-0.00158286
-0.182769,-0.0113579
-0.112299,0.00142057
-0.00898816,0.00127268
0.058666,0.0165116
0.12675,-0.0349182
0.13107,-0.0416838
0.0524745,-0.0118981
0.00790733,-0.0194901
0.0201327,-0.0255543
0.141103,-0.00784828
0.222589,-0.0205355
-0.0218784,-0.00121182
-0.184845,0.0473776
-0.0395421,0.0395758
0.143726,0.00614092
0.172083,0.0201575
0.0544987,0.0166339
-0.00208717,-0.00784219
0.00025571,-0.0137916
0.0243487,-0.000209689
-0.0112535,0.0232765
-0.174797,0.024482
-0.28918,0.0609246
-0.271862,0.0656793
-0.17979,0.0428057
-0.156292,0.0212058
-0.106882,0.0137603
0.0358352,-0.00329996
0.224467,-0.00928643
0.310418,-0.0261129
0.338762,-0.0309014
0.295848,-5.73e-05
0.14814,-0.000265711
-0.0444103,-0.0265314
-0.130202,-0.0106439
-0.110507,0.00626415
-0.120907,0.00274595
0.0124184,-0.0139871
0.227557,-0.0369735
0.230043,-0.0243931
0.00508363,-0.0228416
-0.348139,-0.0207823
-0.420578,-0.0141012
-0.148892,-0.0119778
0.197276,-0.00619658
0.201488,-0.0116793
-0.0247762,-0.0364247
-0.287523,-0.0411542
-0.232415,-0.0385242
-0.0753011,-0.0276305
-0.0421381,-0.0226512
0.00215224,-0.029537
0.0453116,-0.0327691
0.129611,-0.00893419
0.205896,0.0459152
0.238295,0.0594391
0.309692,0.0508729
0.229153,0.0337025
0.062006,0.0123364
-0.0951117,0.0263842
-0.0419773,0.0318825
0.182546,-0.00942672
0.0298444,-0.0527398
-0.421061,-0.000239328
-0.405002,0.0613851
-0.203874,0.05546
-0.0797451,0.0160904
-0.00829609,-0.0205832
-0.0371646,0.000721044
-0.0179155,0.0112888
0.0481371,0.00754565
0.0439504,0.0230657
-0.0188517,0.0129732
-0.029784,-0.0188628
-0.0409165,-0.0225873
-0.0383047,-0.00385844
-0.0669181,0.0148327
-0.0537079,0.0186283
-0.00682856,0.0203008
0.0786154,0.0171838
0.185219,0.000647797
0.225473,-0.00775316
0.245162,-0.0149881
0.190043,-0.0586405
0.0924754,-0.0398319
0.0135589,0.00149738
-0.0396643,0.0272473
-0.00485226,0.00325758
0.0346805,-0.0338177
0.0728332,-0.0194492
0.187769,-0.0163916
0.153087,-0.0449893
-0.0375282,-0.0105358
-0.0811025,0.0477263
-0.0404731,0.0331901
-0.166103,0.0162832
-0.24484,0.0422539
-0.121289,-0.0160196
-0.0791441,-0.0441477
-0.241156,0.00971386
-0.173622,0.0365451
0.00196349,0.0201538
0.109192,0.0100503
0.213804,-0.00409266
0.164475,-0.0413706
-0.0552723,-0.0304846
-0.233506,0.0183729
-0.325819,0.019094
-0.0921959,0.0181817
0.173555,0.028675
0.169325,0.0239847
0.0639428,0.00558545
-0.0413966,-0.00438213
-0.0616621,-0.0117836
-0.0528541,-0.0704978
0.0849019,-0.0286572
0.248561,-0.00728227
0.149558,-0.00875936
-0.085696,0.0505524
-0.187186,0.0412522
-0.106464,-0.00486375
-0.0123835,-0.0173599
0.0634697,-0.00387454
0.104814,-0.00669988
0.158955,-0.0199133
0.266172,0.000165851
0.124528,-0.0275182
-0.101624,-0.0839378
-0.267306,-0.0185305
-0.375553,0.00783648
-0.178263,0.018074
-0.0163171,0.0317961
0.081346,0.0117172
0.331685,0.00726338
0.413134,-0.00215318
0.229516,0.0139151
-0.18679,-0.00376476
-0.440086,0.0512468
-0.0814733,0.0390183
0.160064,-0.00359879
0.167424,-0.00479887
-0.110586,-0.00664349
-0.320974,-0.0427532
-0.223375,-0.0361036
-0.121187,-0.0303693
0.0163036,0.0179519
0.20586,0.0532076
0.281837,0.0177111
0.23989,-0.0578176
-0.0815223,-0.0256651
-0.343069,0.0857665
-0.167359,0.038988
0.0857482,0.000604961
0.281638,0.00233197
0.366605,-0.0114281
0.13015,0.0359654
-0.179038,0.0627871
-0.23143,0.0121801
-0.173188,-0.0145227
-0.0806988,-0.00514908
0.0883819,-0.0218761
0.196129,-0.052313
0.08378,0.013043
0.180794,-0.0213415
0.243746,-0.02741
0.0681117,-0.00631264
-0.0830419,-0.0126323
-0.335843,-0.00993133
-0.307775,-0.0105324
0.0170067,-0.00224999
0.272986,-0.0170291
0.308146,-0.0298619
0.0797813,-0.00185098
-0.42478,0.0297597
-0.694514,0.0118651
-0.377189,-0.00837949
-0.107064,0.00208568
0.022086,0.0178803
0.201579,0.0257318
0.349186,0.00065937
0.306545,-0.010154
0.303794,0.00487777
0.246279,0.0266147
0.0471517,0.0253703
-0.0288052,0.00773425
-0.182655,-0.00453711
-0.157309,-0.0467242
0.0200398,-0.0245846
0.00655523,-0.00131657
-0.219472,-0.0154681
-0.243032,-0.0165418
-0.0225346,-0.0161074
0.0778776,-0.0195599
0.156726,0.0376743
0.117889,0.0271523
-0.035288,-0.0155237
-0.198781,0.0043349
-0.109022,-0.0357852
0.0743963,-0.0604099
0.210264,-0.0306214
0.359953,0.0150106
0.376164,0.0315318
0.243829,0.0629917
-0.236943,0.101708
-0.523664,0.0527652
-0.251543,-0.07744
0.0197391,-0.121415
0.053065,-0.0322952
-0.159633,0.0629863
-0.207025,0.0477153
-0.153328,-0.0205086
-0.0817693,-0.0219771
0.0762412,0.0276051
0.202348,-0.0375152
0.128093,-0.0371975
-0.0769691,0.0713096
-0.114587,0.111653
0.0448457,0.0611969
0.332621,-0.00889695
0.380952,0.00482137
0.270063,-0.0134418
0.0651331,-0.111342
-0.239926,-0.0811797
-0.293808,0.0046589
-0.0417917,0.0132709
0.174107,0.0478994
-0.0347726,0.0264496
-0.410578,-0.0305022
-0.384177,-0.0370356
0.0330168,-0.0126828
0.36457,0.0588712
0.522447,0.0272189
0.319509,-0.0182617
0.0946749,-0.0120354
0.138399,-0.0580785
-0.137231,-0.035028
-0.452645,0.0587063
-0.38146,0.039424
-0.393702,-0.0258345
-0.413041,0.0231441
-0.142186,-0.0486974
-0.0409446,-0.0802986
-0.0419731,0.00432799
0.0460213,0.0401467
0.133572,0.0704523
0.306089,0.0289306
0.473358,-0.0289292
0.615683,-0.0116407
0.62389,0.0400447
0.383792,0.0668587
0.0119419,0.0571094
-0.546292,-0.0356908
-0.596123,-0.0461411
-0.0338479,0.0178212
0.280932,-0.0160246
0.116917,0.00917686
-0.522156,0.0258784
-0.671524,0.0361189
-0.283819,0.00806919
-0.0412707,-0.0260079
0.0708659,-0.0363664
0.0685736,-0.0417632
0.152554,-0.0436912
0.119346,0.00159778
0.130164,0.0375764
0.182454,0.00495302
0.0927783,-0.0185463
-0.0239743,-0.000281727
-0.306414,0.00847039
-0.474663,0.030954
-0.281345,-0.0184564
0.00874903,0.00714071
0.236968,-0.0187714
0.355458,-0.0762078
0.317103,-0.018011
0.176247,0.0089657
0.090256,0.00990755
0.0421892,-0.00875019
0.0809582,-0.0135724
0.113208,-0.0158449
-0.133335,0.0225775
-0.287264,0.0548971
-0.0942805,-0.0241976
0.121048,-0.115172
0.156872,-0.0571392
-0.149409,0.0470717
-0.405695,0.0545074
-0.200101,0.0566187
0.0744625,0.0736886
0.350099,0.0590737
0.610864,0.00687308
0.700808,-0.0414012
0.550841,-0.0453015
0.111263,-0.0155406
-0.35733,0.0132659
-0.356354,0.0224661
-0.204539,-0.0155577
-0.39514,-0.0315548
-0.465231,0.0194158
-0.204225,0.0329317
-0.130179,0.00153308
-0.130838,-0.0259132
-0.0734253,0.0116834
-0.241229,0.036309
-0.248202,0.0408837
0.0114837,0.0224921
0.239764,-0.00663776
0.379855,-0.00396885
0.409578,0.0156956
0.359654,-0.0581408
0.167425,-0.073776
-0.298524,-0.00484088
-0.507828,0.0145351
-0.358126,-0.0865023
0.000237918,-0.0439496
0.302527,0.055185
0.301862,0.0796148
0.00360101,0.0665974
-0.491261,0.0603087
-0.283854,0.0526218
0.310209,0.0208213
0.764401,0.00858627
0.90139,-0.0596728
0.61691,-0.113205
0.00937087,-0.0568524
-0.36139,0.00110601
-0.482576,-0.0349309
-0.418944,-0.0162109
-0.641475,-0.00298193
-0.81504,-0.0765275
-0.41747,-0.143069
-0.0347177,-0.132422
0.200092,-0.0424392
0.554005,0.0233367
0.568343,0.00568382
0.402813,-0.0228589
0.169475,-0.051527
-0.311927,-0.0340536
-0.675573,0.0455242
-0.478036,0.0624517
-0.185775,0.0196389
-0.0564832,0.00885203
-0.0166521,0.00728317
-0.0242258,0.0275502
0.0505946,0.0766575
0.118521,0.0872243
0.101355,0.0325519
0.0604231,0.040912
0.209259,0.0644114
0.689092,0.0998787
0.981355,0.168979
0.883235,0.171284
0.242035,0.112015
-0.302748,0.148853
0.159907,0.142724
0.213724,0.113886
-0.527347,0.0524346
-0.994442,0.0271529
-0.35994,0.00323469
0.669085,-0.0389828
0.891067,-0.0638776
0.118595,-0.0960895
-0.824517,-0.120541
-1.39155,-0.111695
-1.15668,-0.109438
-0.176588,-0.0731985
0.240898,-0.05864
0.493272,-0.0382282
0.729333,-0.0372634
0.289001,-0.114223
-0.426014,-0.169871
-0.755441,-0.0933518
-0.638065,-0.0400575
-0.143257,-0.0606354
0.274059,-0.0459651
0.232751,-0.0164463
0.0956375,0.00490498
0.108995,0.0089211
0.243936,-0.0044898
0.293501,0.0377525
0.0500127,0.072848
-0.149885,0.040475
-0.0611115,-0.00712416
0.203912,-0.0174759
0.768909,-0.00939512
1.21891,-0.0388819
0.875282,-0.0586416
-0.238906,-0.117061
-1.24969,-0.0491584
-1.12791,0.0420234
-0.416849,0.014592
0.156507,0.025943
0.363916,0.0792871
0.246617,-0.0137283
0.311426,-0.0155231
0.51686,0.0381393
0.426951,0.0250615
0.0824725,0.0820627
-0.478618,0.13605
-0.720443,0.0630751
-0.730005,0.032674
-0.459136,-0.036485
-0.0760041,-0.0667022
0.150809,-0.0379796
-0.000996492,-0.0116307
-0.216101,0.0161967
-0.0106355,0.0386541
0.172142,0.043879
0.199378,0.0447575
0.154739,0.0303321
-0.0185086,0.017534
-0.063543,-0.0180405
0.0321367,-0.0230448
0.211047,-0.0406596
0.279862,-0.077067
0.129637,0.00559354
0.708886,0.0798422
1.6082,-0.014109
1.64802,-0.0935358
0.701661,-0.0734366
-1.34115,-0.000452309
-2.63712,0.0856791
-1.56348,0.0461329
-0.414459,-0.029253
-0.0161423,-0.0369739
0.160505,0.0113108
0.163738,0.0699098
0.195973,0.112173
0.383941,0.107224
0.408743,0.0492811
0.347954,-0.00262516
0.0268967,-0.0600393
-0.524613,-0.083136
-0.639731,-0.0907019
-0.353181,-0.0356092
-0.0433627,0.0486805
0.100532,0.0132423
0.19507,-0.0212425
0.308267,-0.0352754
0.530592,-0.173124
0.341217,-0.185007
0.0293824,0.0367303
-0.210128,0.118538
-0.19248,0.114436
-0.0448714,0.12927
-0.0811573,0.131707
-0.268489,0.0826768
-0.397409,0.0335601
-0.348593,-0.0127519
-0.197202,-0.0260918
0.129621,-0.00051324
0.518843,-0.00806988
0.738474,-0.036342
0.819674,-0.114821
0.74361,-0.0993224
0.374997,-0.0730443
0.53001,0.00585273
0.126761,0.0658367
-0.669345,0.0658512
-0.623026,0.0232937
-0.576198,-0.0199686
-0.392092,-0.0264311
-0.180101,-0.00341302
-0.193733,0.0152129
-0.00253301,0.00538379
-0.0949558,0.00370014
-0.43113,0.00462409
-0.541499,0.0334294
-0.352046,0.0764312
-0.0991818,0.0534113
0.0713013,-0.00590456
0.456398,-0.0566971
0.732964,-0.0612694
0.456705,0.00430929
-0.164376,0.051313
-0.255295,0.00338804
0.0824619,-0.0264067
0.147404,-0.0436318
0.172502,-0.0596518
0.173776,-0.0112956
0.0851565,0.00780113
-0.0334737,-0.0422413
-0.271816,-0.064993
-0.321724,-0.0183802
-0.2742,0.024315
-0.33513,0.00454647
-0.13561,-0.0804567
0.265794,-0.134168
0.367042,-0.0443174
0.147199,0.0714117
-0.170855,0.0927294
-0.206506,0.100291
0.272516,0.117775
0.657679,0.0931103
0.514214,0.0494708
0.0549162,0.0316888
-0.439348,0.00623869
-0.433653,0.000641421
-0.169891,-0.0571348
-0.040118,-0.0703238
0.0557186,-0.0520757
0.347603,-0.109867
0.46876,-0.0286448
0.170143,0.0861574
-0.25378,0.00639684
-0.669693,-0.0731172
-0.511208,-0.0585753
-0.062787,-0.0205949
0.212041,0.0180091
0.264964,0.0356714
0.212419,0.0161806
0.173198,-0.00131389
0.431857,-0.029936
0.603367,0.0327861
0.553691,0.045129
0.329098,0.0111668
-0.306621,0.00611693
-0.435221,0.0235558
-0.317335,0.0110755
-0.746731,0.0226105
-0.849991,0.0237928
-0.688662,0.0132973
-0.486682,0.000940519
-0.171354,-0.0217935
0.101648,-0.0164676
0.178428,-0.00727541
0.222817,0.0188192
0.341729,-0.0117113
0.301278,-0.0331088
0.202694,-0.0156328
0.145818,-0.0194476
0.057952,-0.0582451
-0.00607092,-0.0319539
-0.189777,0.0474896
-0.0568959,0.0229801
0.286339,-0.0134487
0.481332,-0.0223238
0.591189,-0.00232456
0.394701,0.0160026
0.197105,-4.79e-05
-0.007549,0.00809437
-0.189305,0.0457233
-0.377632,0.0717523
-0.411775,0.0507555
-0.256751,-0.0201895
-0.408958,-0.0129064
-0.487882,0.0109144
-0.211488,-0.0444369
0.0536498,-0.0371041
0.393671,-0.00810198
0.891185,-0.091279
0.764949,-0.11721
-0.918929,0.0664132
-0.997182,0.0531987
-0.220041,0.00427837
0.179812,0.0175726
0.116607,0.0100384
0.0886929,-0.0166272
-0.00983877,-0.00591341
0.0287457,0.0400577
0.136438,0.0505689
0.332977,0.0495519
0.560403,0.0541244
0.535868,0.0773768
0.278352,0.0744612
-0.0246114,0.000539273
-0.10904,-0.0957731
-0.199207,-0.0809007
-0.437507,-0.022619
-0.741051,-0.016823
-0.36035,-0.0292424
0.134571,-0.00485238
0.312297,-0.0103577
0.13954,-0.045135
-0.106746,-0.021825
0.185705,-0.00190088
0.447757,0.0453923
0.256066,0.11283
-0.265946,0.113507
-0.71244,0.0209156
-0.528222,-0.07662
-0.100781,-0.138953
0.0448434,-0.115087
-0.0662969,-0.00654996
-0.127178,0.0563556
-0.00312517,0.0413237
0.245658,0.0245578
0.328335,0.0153236
0.231547,-0.0108349
0.0460878,0.00871699
-0.138015,0.00733406
-0.0311471,-0.00934491
0.19904,-0.0208556
0.219687,0.00461159
0.0676211,0.031564
-0.0525536,-0.020401
-0.0239251,-0.0971433
0.193864,-0.0222908
0.18964,0.0460043
-0.162706,0.032261
-0.496357,0.00870978
-0.282533,0.00593442
0.217176,-0.0236248
0.430311,-0.0194604
0.313591,0.0443907
0.125979,0.0634881
-0.017259,0.0294302
-0.0186044,-0.0291436
-0.135354,-0.0328409
-0.34163,-0.00932536
-0.16039,0.0106985
0.147135,0.0475583
0.490081,0.0300427
0.661733,-0.0269078
0.289554,-0.0582944
-0.24805,-0.0595038
-0.883682,-0.0670619
-0.955449,-0.085415
-0.346376,-0.0186413
0.104231,0.0564554
0.215623,0.0528506
0.298143,0.0576039
0.244401,0.0534084
0.130363,0.0208312
0.00160651,0.00812012
-0.258732,0.020083
-0.267129,-0.0120737
-0.176538,-0.0723567
-0.0628183,0.00281871
0.0480749,0.0223747
0.0982773,0.0217192
0.169223,0.0376891
0.186305,0.0161713
0.159366,0.0400843
-0.0234851,0.0558891
-0.140677,0.03299
-0.161714,-0.0251246
-0.196196,-0.0392995
-0.0470713,-0.0194223
0.250913,-0.0268346
0.282028,-0.0537059
0.124658,-0.04522
-0.145828,-0.0507862
-0.154239,-0.00270544
-0.0255589,0.0603218
-0.0731895,0.0357193
-0.126603,-0.00782191
-0.0821357,-0.0392024
0.274813,-0.0207207
0.683491,0.00454654
0.744812,0.0168946
0.326418,0.061251
-0.258751,0.0556317
-0.436949,0.0590818
-0.469781,0.0152488
0.0412744,-0.0747307
1.06286,-0.07761
1.0122,-0.042349
0.0430144,-0.0673124
-1.21207,-0.122408
-1.64422,-0.0266609
-0.921442,0.0666005
-0.219702,0.0411343
0.0419763,0.0114849
0.147076,-0.00983592
0.259055,0.0148784
0.118995,0.00674909
-0.126973,0.0218432
-0.147643,0.0487101
-1.73e-05,0.0458582
0.15,0.0514736
0.190847,0.029969
0.100175,0.0107036
0.204979,-0.0149228
0.412687,-0.0210016
0.514199,-0.0872714
0.4439,-0.0498861
-0.0284945,0.0185521
-0.295795,0.0124978
-0.312935,0.00109407
-0.231706,-0.0126812
-0.0660132,-0.00366827
0.0178388,-0.0105676
0.0679551,-0.0265955
0.0284797,-0.00380325
-0.125876,0.0518404
-0.0531625,0.0641858
0.0633724,0.082801
0.127441,0.108726
0.247906,0.054027
0.219724,-0.0656708
0.102021,-0.0911051
-0.131539,-0.0274919
-0.233803,-0.00112611
-0.149315,-0.000307007
-0.188471,0.0276126
-0.134566,0.0351906
0.169973,-0.0359533
0.420312,-0.104412
0.336538,-0.182719
0.190275,-0.064777
-0.0561758,0.0714556
-0.4014,0.0846936
-0.460434,0.0501047
-0.41991,0.0121629
-0.314881,-0.00048967
-0.0666566,-0.0285945
0.25449,0.00818262
0.460473,0.0319421
0.485179,0.0278229
0.161763,0.0179711
-0.208819,0.0274911
-0.200469,0.036164
-0.0375605,0.0195193
0.129753,0.00586303
-0.0101464,0.0108854
-0.22577,0.00382529
-0.286445,-0.118596
-0.203261,-0.0935238
-0.0858556,0.00345358
-0.0227219,0.0143099
0.110448,0.0460988
0.400185,0.0692135
0.352305,0.00308891
0.106793,-0.0377596
0.131534,0.00108444
0.213061,0.0176894
0.17438,-0.018731
-0.164175,-0.0220487
-0.415135,0.0079391
-0.344547,-0.0356949
-0.170352,-0.124441
-0.0142834,-0.00193668
0.0100558,0.118337
0.0301876,0.0632853
0.101443,-0.0259983
0.205477,-0.0318238
0.155779,-0.00545223
-0.129371,-0.019024
-0.243896,0.00172148
-0.172313,-0.00248208
-0.182233,0.0159988
-0.0186903,-0.00221458
0.110664,-0.0100545
0.0989187,-0.017107
0.0172114,0.00887696
0.0552034,0.0399549
0.0832965,0.0268276
0.0868399,0.0192987
0.0527462,-0.00171839
0.058066,0.00999581
0.0176421,0.0219581
-0.0361123,-0.00206611
0.0350853,-0.00922725
0.0447414,-0.0514122
-0.0249794,-0.0471424
0.00860195,-0.0321423
0.179439,0.00792309
0.134627,0.0562937
0.172683,0.065203
0.10745,0.0164477
0.118166,-0.0325362
0.112638,-0.0169953
-0.346335,-0.000196612
-0.509749,0.00363557
-0.2998,0.00429079
-0.15678,0.0329104
-0.0856633,0.0096388
-0.0172732,0.00873252
0.113339,0.0227992
0.0812872,-0.0118328
-0.19956,-0.0488719
-0.340019,-0.00459613
-0.0558754,0.063425
0.399223,0.0374529
0.279255,-0.0515511
0.100932,-0.0765998
0.23948,-0.0157363
0.212351,0.00716119
-0.179965,0.00240222
-0.408564,-0.0052315
-0.160502,0.000371215
0.0476509,0.00615464
0.0346971,-0.00241546
0.0241791,0.00167442
0.112588,0.00177458
0.383556,0.00380742
0.398846,-0.00434869
0.149804,-0.00716337
-0.191548,-0.00308518
-0.33342,-0.00549046
-0.0636637,-0.0224998
0.265951,-0.0257701
0.208689,0.0447834
-0.0987188,0.0727326
-0.299289,0.0237979
-0.31977,0.00811873
-0.192681,0.00834669
-0.0908414,-0.0182341
-0.133803,-0.0724994
-0.134671,-0.0499143
0.0604184,0.00013638
0.293406,0.0354291
0.410172,0.0132199
0.535779,-0.0150228
0.444597,-0.0656057
0.0891872,-0.0153971
-0.299541,0.0435655
-0.636673,0.044923
-0.726351,0.0178522
-0.463046,-0.0107837
-0.0303993,-0.00167249
0.257075,0.0327347
0.411692,0.0308594
0.380524,0.0106633
0.136181,0.0147843
-0.0635938,0.0103517
-0.224586,-0.0344847
-0.190224,-0.097441
-0.015184,-0.0539339
0.122416,0.0587836
0.125429,0.0354785
0.0548108,-0.0123777
-0.186966,-0.0098749
-0.367681,0.0107748
-0.159407,0.0223779
0.0977838,0.0121689
0.215587,-0.037322
0.229075,-0.049525
0.165431,-7.07e-05
0.0380938,0.0270232
0.000357719,0.0147651
0.0325939,0.0134817
-0.0198913,0.0137461
-0.109758,0.00330318
-0.116587,-0.0105463
0.00753008,-0.000192602
0.0859781,-0.00619042
0.0856792,0.00223296
0.00113418,-0.0126268
0.0614365,-0.0237976
0.24935,0.0256208
0.391841,0.0190422
0.464891,-0.00811087
0.171368,-0.0617206
-0.252776,-0.0439336
-0.50106,0.0672679
-0.457354,0.0792869
-0.136265,0.0455133
0.0187077,0.0405832
0.0888306,0.0241824
0.105681,-0.00339215
-0.160492,-0.0170789
-0.422246,-0.00122594
-0.335902,0.0221142
-0.163317,-0.0317451
-0.101002,-0.0485036
0.0742016,-0.0093559
0.37747,-0.0196674
0.478447,-0.117599
0.539549,-0.0855648
0.318746,0.0426953
-0.0331003,0.0430286
-0.212857,0.00154114
-0.436201,-0.00254234
-0.302813,0.010084
0.0806338,0.0185486
0.103207,0.023715
-0.148449,0.0199345
-0.324635,0.00385023
-0.167013,0.00111565
-0.0126014,0.0221036
-0.0230272,0.0225045
-0.0977964,-0.000732717
-0.0416597,-0.00718057
0.111221,0.0215947
0.225135,0.0137092
0.232431,-0.030715
0.166141,-0.0687488
0.0701144,-0.0266338
0.0155676,0.0180836
-0.00223679,0.0609101
-0.0143938,-0.0311846
-0.0151684,-0.0602413
-0.0464287,-0.0190219
-0.0924545,-0.0248186
-0.0745619,-0.0317913
0.010438,0.00889381
0.148759,0.0425565
0.214671,0.0358998
0.253852,0.0180722
0.177364,0.012617
-0.0490484,0.0245246
-0.0977633,0.0533165
-0.00974403,0.0741361
0.0662435,0.0494967
0.0894565,-0.0146466
-0.0286079,-0.0445557
-0.189576,-0.0272977
-0.132749,-0.00277825
0.0751001,-0.0183498
0.189749,-0.0134307
0.379623,-0.0180557
0.182645,-0.00912046
-0.198865,-0.0771372
-0.489538,-0.127405
-0.672058,0.022405
-0.528616,0.0710729
-0.0704036,0.0352844
0.233736,0.0292342
0.164497,0.023808
-0.147362,0.0233146
-0.261955,0.0210106
0.0372178,0.00586303
0.169114,0.00449908
0.0446553,0.0309601
-0.0388079,0.0193258
0.0349612,-0.0478095
0.0960772,-0.031836
0.075246,0.0293103
0.0230947,0.0130958
-0.0197965,0.0203695
-0.00726202,0.0364226
0.185158,-0.0175859
0.371756,-0.0261526
0.350121,-0.0268577
0.118742,-0.0378488
-0.170473,-0.0122623
-0.0183931,-0.00110133
0.263541,-0.00784818
0.224904,-0.00339013
0.0938266,-0.0350143
-0.0596707,-0.0410484
-0.275495,-0.00304018
-0.353687,-0.028894
-0.289536,-0.0492182
-0.185887,-0.0139686
-0.125567,0.0140313
-0.0996007,0.0161428
-0.0403964,0.0152167
0.0926128,0.0189263
0.276113,0.0215835
0.31976,0.0290332
0.120019,0.0413787
-0.182197,0.0330793
-0.312626,-0.00900016
-0.221793,0.00686136
-0.107955,0.0389699
-0.0382702,0.0458619
0.243087,0.0307496
0.55524,0.0135305
0.398355,-0.00482748
0.0273537,-0.0536116
-0.215412,-0.0253708
-0.18819,0.0148013
-0.0258504,-0.0544981
0.0697622,-0.0629421
0.283811,0.0638594
0.358582,0.0313009
0.0651028,-0.0264354
-0.582147,-0.0221717
-0.846558,-0.00921078
-0.507436,-0.00140561
-0.127487,0.0191307
0.057386,0.0408257
0.130439,0.0439195
0.25146,0.0478001
0.348527,0.0608677
0.135415,-0.0131528
-0.0172953,-0.0669381
-0.0266745,-0.083439
0.0464352,-0.102443
-0.0263829,-0.0677882
-0.209331,-0.0434694
-0.158695,0.0190934
-0.0130817,0.0554765
0.0563667,0.0345842
0.180159,0.00358578
0.391744,-0.00318543
0.49408,0.00512293
0.433987,0.0113641
0.163469,0.0232413
-0.310304,0.0332357
-0.475837,0.0159875
-0.343058,-0.010768
-0.194408,-0.033073
-0.0825077,-0.0165102
0.0621791,-0.0206993
0.174614,0.0230255
0.107521,0.00753539
-0.0553432,-0.0689638
-0.27589,-0.0318632
-0.183,0.0492302
0.00457568,0.0543525
0.108826,0.0398177
0.0405695,0.00628766
-0.105925,-0.0358769
-0.126011,0.0109771
-0.030839,0.0259225
0.0158404,0.0179607
0.0573001,-0.0137712
0.0821816,-0.000452811
0.0628991,0.0332906
0.119102,0.0113935
0.239675,0.0114358
0.345637,0.0292941
0.409947,0.0191346
0.219907,-0.0171318
-0.0688479,-0.0299283
-0.334978,-0.0269841
-0.205544,-0.035619
-0.124839,-0.00848561
-0.311383,0.00289178
-0.270074,-0.00693563
-0.114767,0.00835351
0.0699209,0.0381453
0.117814,0.0148167
0.0226632,-0.00840333
0.001294,0.0325749
0.00960681,-0.00946584
0.0445618,-0.0829595
0.0185245,-0.158966
0.00795009,-0.0915831
0.0639435,0.0585572
0.14409,0.0540706
0.191039,0.018193
0.130979,0.0405397
-0.221139,0.0993409
-0.473678,0.0532582
-0.327704,-0.0138697
-0.102343,-0.034056
0.0910217,-0.063229
0.186688,-0.0438081
0.224039,0.0175165
0.233748,0.015699
0.105979,0.0145103
-0.0771209,0.0229498
-0.134927,0.0296679
-0.0877402,0.0336363
0.0289764,0.0276056
0.119492,0.0185949
0.0403766,-0.0215429
0.02111,-0.0329952
0.067756,-0.033413
0.135077,-0.0567925
0.154483,-0.00412865
0.0105309,0.041951
-0.192688,0.0184993
-0.345191,-0.0361373
-0.376537,-0.0427553
0.00910156,0.0339734
0.40596,0.0573383
0.33702,0.0416705
-0.0505842,0.0168723
-0.323047,-0.0144535
-0.272993,0.0332073
-0.0930164,0.0365107
0.163288,-0.0111234
0.306591,-0.0216598
0.26211,-0.00106208
0.244087,0.00443014
0.129165,0.00156265
-0.361527,-0.0050446
-0.472907,-0.0142578
-0.288166,-0.124967
-0.188503,-0.126809
0.00926922,0.0451998
0.225244,0.0320317
0.331902,-0.0308615
0.252268,0.000745035
0.050997,0.0145107
-0.205076,-0.00431258
-0.155636,0.0160899
0.00751733,0.00655314
-0.0283343,-0.0493847
-0.152447,-0.0160166
-0.146521,0.0611533
-0.0336054,0.0545096
0.0857484,0.0182573
0.211717,0.00630939
0.296668,0.0224149
0.389871,0.0284046
0.26374,0.0120225
0.0380181,0.00768775
-0.0384503,-0.0093845
-0.120421,-0.0192079
-0.115669,-0.0074018
-0.175735,0.00394381
-0.323069,0.00710347
-0.468971,0.00657464
-0.382282,-0.0111265
-0.130469,-0.015019
0.00481526,0.00031617
0.194847,0.00948231
0.448026,0.00887683
0.497834,0.00955421
0.400318,0.00969801
0.171521,-0.0105036
-0.0724716,-0.0491415
-0.1701,-0.0510145
-0.271319,0.0356592
-0.135975,0.0540294
0.0664885,0.00835839
0.01259,-0.00348673
-0.0782683,-0.0200783
-0.213561,-0.00652883
-0.235609,-0.000865444
-0.0105616,-0.00504793
0.152936,-0.0105514
0.0890015,-0.0188507
-0.115794,-0.00610336
-0.148093,0.00119837
-0.0833648,-0.0256314
-0.0503009,-0.0105552
0.13212,0.0121941
0.283002,0.0233016
0.261526,0.0280383
0.0568822,0.0096567
-0.200028,-0.0266554
-0.25013,0.0218946
-0.0942517,0.0987389
0.1892,0.081815
0.349209,0.010593
0.448559,-0.052639
0.444086,-0.0916538
0.301962,-0.0398639
-0.249725,0.0109164
-0.746774,-0.0378556
-0.528334,-0.0305796
-0.295649,0.00277303
-0.181677,0.00431159
-0.0824096,0.00260511
0.0733251,-0.0240819
0.229185,-0.0449412
0.267926,-0.0102731
0.150252,0.0221318
-0.0112004,0.0512916
-0.12706,0.0613595
-0.0749375,0.0408677
-0.0716964,-0.0137138
-0.139386,-0.057627
-0.0392654,-0.0689582
0.107839,-0.0280167
0.0709899,-0.0358563
-0.0673787,-0.0783606
-0.0539459,-0.0748497
0.109845,0.0684252
0.273787,0.102622
0.273644,0.0791569
0.364636,0.0676018
0.428486,0.0425544
0.155258,0.0156579
-0.210238,-0.00761971
-0.621584,-0.00339648
-0.631828,0.0381149
-0.237441,0.023657
0.0149659,-0.00803815
0.079328,-0.0390811
0.0117902,-0.0569684
0.166313,-0.0710922
0.359323,-0.00876433
0.504868,0.0340115
0.234431,-0.000830241
-0.234398,0.00952597
-0.407313,0.0319595
-0.543067,0.031652
-0.394565,0.0168613
-0.090178,-0.000260573
-0.000996268,-0.00783074
0.0851337,-0.0095151
0.164081,-0.00819871
0.143374,0.000363903
0.0115322,0.00548622
-0.164277,-0.00894844
-0.0748151,0.0306634
0.205061,0.0321581
0.125122,-0.0273082
-0.11432,-0.038057
-0.0302372,-0.0500299
0.0607807,-0.00056106
0.0900049,-0.00351433
0.213907,-0.0272813
0.307244,-0.0548231
0.319993,-0.0131413
0.354512,-0.00222908
0.278082,0.00501311
-0.0251022,0.0290659
-0.578039,0.0653911
-0.622605,0.0406619
-0.269121,-0.00480129
-0.0431912,0.000644004
0.0645144,0.0147577
0.118397,0.0232154
0.152637,0.0124519
0.100163,-0.0265204
-0.0142061,-0.0455407
-0.0224852,0.0186055
0.139537,0.012718
0.0972304,-0.0486134
-0.119199,0.0126563
-0.170303,0.0502168
-0.144011,0.0108521
0.0953286,-0.0337107
0.265588,-0.0316909
0.149694,-0.0112537
-0.166286,-0.0216358
-0.277728,0.0225226
-0.23631,0.0239382
-0.28204,-0.017111
-0.169946,0.0313918
0.0526327,0.0260945
0.142247,0.015005
0.183257,0.0108386
0.137768,-0.000893616
0.00142081,-0.00330682
-0.0156182,-0.00327136
0.191401,-0.0273389
0.324945,-0.0160675
0.136144,-0.0190117
-0.130382,-0.0195112
-0.311926,0.0149868
-0.129172,0.0350504
0.216426,0.0430201
0.286427,-0.00405889
0.0380492,-0.0652792
-0.20331,-0.0229416
-0.147513,-0.0391844
-0.00904736,-0.07118
-0.023466,-0.0441107
-0.090897,0.0210393
-0.0537764,0.0559856
0.03266,0.0303031
0.0758876,-0.0211655
0.0219799,-0.0667893
-0.136077,-0.000169762
-0.176684,0.0655714
-0.0834452,0.0622123
0.0605171,0.0246294
0.104965,0.0253057
0.134115,0.0389245
0.114449,0.00372513
0.0432432,-0.0288743
0.0257222,-0.0584693
0.052779,-0.0638561
0.0270021,-0.0142717
-0.0789211,-0.00559612
-0.0284015,0.0823612
0.220028,0.104312
0.151553,0.00528347
0.014704,-0.0279706
-0.0101727,-0.02182
-0.069689,-0.0125083
-0.142706,-0.000957405
-0.10062,0.00618456
-0.0427292,0.00654781
-0.0541182,-0.01538
-0.11934,-0.0689414
-0.188215,-0.0436122
-0.093793,-0.0274092
0.0382127,0.0191635
0.0410013,0.0925149
0.00963278,0.0890967
0.0630088,0.0645329
0.052055,0.0197482
0.0223206,-0.0428017
0.062107,-0.0628753
0.0654392,-0.0507177
-0.000340276,-0.0236203
-0.0938744,0.000636415
-0.1284,0.00333093
-0.107102,0.0577782
0.0661167,0.0899938
0.235349,0.0752248
0.0422343,-0.013438
-0.0481349,-0.051391
0.132045,-0.0439766
0.261789,-0.0480394
0.19851,-0.0525883
-0.0189165,-0.0269782
-0.294628,0.0083768
-0.137248,-0.00553378
0.240238,-0.0356042
0.363217,-0.0549927
0.281458,-0.013789
-0.048143,0.00609392
-0.230068,0.0199663
-0.256664,0.0133985
-0.31074,-0.0230054
-0.295249,0.0306996
-0.237009,0.031245
-0.17165,0.0145806
0.0907139,0.0107721
0.333985,-0.00838109
0.385094,0.00489136
0.138339,0.0365958
-0.212914,0.0220565
-0.345053,0.0100411
-0.299024,1.38e-05
-0.205864,-0.00138785
-0.0639143,-0.01974
0.0423458,-0.0590943
0.0661345,-0.161213
0.113693,-0.063928
0.24537,0.0931331
0.295504,0.0708015
0.0898531,0.0408799
-0.145831,0.0243971
-0.213661,0.017782
-0.128264,0.0202681
0.0155149,0.0413173
0.0361238,0.0353317
-0.015163,0.0197542
-0.0363855,0.018502
-0.0546856,-0.00911264
-0.00816357,0.00225757
-0.00278018,0.013238
-0.0114996,0.00294707
0.149732,-0.0421907
0.442435,-0.0666244
0.665505,-0.0591009
0.663914,-0.110993
0.353086,-0.0450415
0.204001,0.0339784
-0.237818,0.0372739
-0.491039,0.0349418
-0.275929,0.0332744
-0.115505,0.0298542
0.166027,0.0149394
0.0509721,0.00494818
-0.383583,0.0162885
-0.631714,0.0478142
-0.730619,0.0366566
-0.583757,-0.017651
-0.255498,-0.0467789
-0.034677,-0.00588087
0.0664514,0.0613144
0.171696,0.0447936
0.198811,0.0165109
0.071326,-0.0501062
0.0462714,-0.0361059
0.138583,-0.0380974
0.170291,-0.0432099
0.148904,-0.000143074
0.167396,0.0677208
0.152957,0.0664008
0.125475,0.0148426
0.111062,-0.0442633
0.00622061,-0.079631
-0.0867653,0.00207605
0.0184781,0.0152838
0.19377,-0.00110346
0.23046,0.00509052
0.13857,0.0174693
-0.107801,-0.00578366
-0.283436,-0.0430654
-0.194592,-0.053293
0.021106,-0.0154719
0.210467,-0.0604452
0.172165,-0.0576894
0.150192,0.0245626
0.112553,0.0215866
-0.0638271,-0.0169922
-0.165843,-0.0268378
-0.32258,0.0605066
-0.255684,0.0475116
-0.0973932,0.00709292
0.004392,-0.000867089
0.133611,0.0213495
0.269519,0.0453477
0.316469,0.0414674
0.159326,0.0409692
0.151603,0.0353343
-0.0628606,0.00483992
-0.166017,-0.0389201
-0.150409,-0.0555171
-0.105612,-0.0104959
0.121092,0.0176644
0.174086,-0.0165754
0.0247564,-0.00849794
-0.335951,0.00732452
-0.500307,0.0126844
-0.25171,0.00200338
0.00593084,-0.00278014
0.102349,0.00487396
0.127725,0.0146694
0.240972,0.0135792
0.149087,-0.00223312
-0.260214,-0.0193789
-0.441152,-0.0164959
-0.324289,-0.0359021
-0.138422,0.0144781
0.011723,0.0526549
0.094134,0.0383836
0.133723,0.0184184
0.134113,-0.0205028
0.118791,-0.0849804
0.125294,-0.0437925
0.141495,-0.0187863
0.144022,-0.0254928
0.147854,-0.00897013
0.0921774,0.00541332
0.0155289,0.0417888
-0.0225016,0.0388543
-0.00457029,0.0269434
-0.0513847,-0.0326699
-0.0416648,-0.101945
0.114825,-0.0231537
0.344358,0.0670605
0.572494,0.0638822
0.463445,-0.00751545
-0.0348634,-0.0354191
-0.514424,-0.0283634
-0.590424,-0.032574
-0.385045,0.0456294
-0.189416,0.0669194
0.0753671,0.0469608
0.166559,-0.00651744
-0.0706454,-0.0482057
-0.276671,-0.0570854
-0.219407,-0.0060335
-0.0345872,0.02787
0.0582931,0.0429262
0.0310037,0.0416157
0.0655325,0.0113738
0.237045,-0.01607
0.250039,-0.0101541
0.150188,0.0154428
0.0203099,0.0416212
-0.129589,0.0468637
-0.020308,0.0222114
-0.122956,-0.0120988
-0.162433,-0.0327603
-0.163345,-0.0169557
-0.0473666,0.000790894
0.142249,0.0123045
0.210751,0.0136028
0.298508,0.0130248
0.353516,0.00386155
0.28968,0.0233776
0.224706,0.0253775
-0.322517,0.00332473
-0.647602,-0.0191467
-0.487813,-0.0921206
-0.298818,-0.105742
-0.0768863,-0.0951818
0.131973,-0.0425056
0.231029,-0.025723
0.176165,0.0143476
0.118434,0.0305308
0.202557,0.0162951
0.365469,-0.00982561
0.377521,-0.0120224
0.0700906,-0.0250985
-0.503135,-0.0141479
-0.72745,0.0660719
-0.39214,0.077382
-0.141235,0.0525922
-0.0372827,0.0210232
0.0190949,-0.0435735
0.0629217,0.00884389
0.145865,0.0579304
0.184972,0.0446565
0.168374,0.0502009
0.119683,-0.00445712
0.184505,-0.0889097
0.347087,-0.0750312
0.289487,-0.0233979
-0.0120232,-0.00805029
-0.355678,0.0269818
-0.371059,0.00923461
-0.224456,-0.00773625
-0.070815,0.0097155
0.172752,0.021751
0.360579,0.00764389
0.376596,0.00154449
0.189558,0.0229896
-0.118891,0.0212043
-0.209982,0.0145987
-0.240009,0.0301996
-0.213562,0.0348527
-0.174732,0.0233234
-0.140261,0.0199727
0.0185334,0.00983858
0.258529,-0.031358
0.384811,-0.117645
0.283963,-0.171684
0.0176329,-0.0913653
-0.278823,0.00581405
-0.297296,-0.000572688
-0.279508,0.0125853
-0.388828,0.0546854
-0.263552,0.0389023
0.0697238,0.0337881
0.552655,0.0260197
0.767653,0.00249128
0.617103,-0.000161741
-0.0148105,0.00889632
-0.748485,0.00838638
-0.717218,0.01492
-0.326642,0.0159289
-0.0844834,0.00645154
0.0562791,-0.0523079
0.217066,-0.0242513
0.349875,0.0524854
0.334018,0.0414186
0.26589,0.0205965
0.0827502,-0.00650002
-0.206409,0.031446
-0.235552,0.0223116
-0.171412,-0.0263841
-0.00915494,-0.0478472
0.167764,-0.0114721
0.147193,0.0271009
0.100904,-0.00992111
-0.0827364,0.00301278
-0.293701,0.0338292
-0.309848,0.019605
-0.1907,0.0159031
-0.062849,0.0369486
0.0503441,0.0032653
0.190385,-0.0393734
0.194717,0.0085913
0.06472,0.0168601
0.05981,0.0328587
0.134687,0.0244815
0.120468,-0.0085312
0.0947966,-0.0469103
0.039471,-0.115221
-0.0578332,-0.0663677
-0.100229,-0.0153793
-0.124267,-0.00498089
-0.142284,-0.0220356
0.0115985,-0.0449734
0.0859527,-0.0034027
0.00842934,0.0267599
-0.0933673,0.0246021
-0.142512,0.0171965
-0.130891,0.00836429
-0.0980604,0.00210727
0.0135167,0.0034182
0.116532,-0.0147323
0.133323,-0.0175899
-0.0289061,0.0264759
-0.157167,0.0541652
0.0522259,0.0556908
0.519181,0.0712888
0.93712,0.0528765
0.867753,-0.0272845
0.233154,-0.0792624
-0.397441,-0.0457245
-0.553435,0.0139889
-0.633342,0.00194036
-0.616731,-0.0238242
-0.46257,0.00709733
-0.254582,0.0292648
-0.139946,-0.00191815
-0.135995,0.0120165
-0.100982,0.0264374
0.0502652,0.0174048
0.110317,0.00684024
0.0478706,-0.00229806
0.00800188,-0.0129476
0.0995883,-0.0683352
0.308315,-0.0868056
0.472777,-0.0660043
0.45429,0.00328324
0.208499,0.0384256
-0.0169445,0.064671
0.0677655,0.0678474
0.153425,0.00965215
-0.0158741,-0.0548717
-0.36255,-0.0683013
-0.468859,-0.0322359
-0.353213,0.0210074
-0.187812,0.028814
-0.0396754,0.00695829
-0.00247008,0.0163878
-0.0408569,0.0391031
-0.0777211,0.0318509
-0.0631416,0.0091774
0.000218928,-0.0160088
0.132279,-0.0608891
0.304292,-0.0403161
0.392037,0.022891
0.471253,0.0354504
0.282212,-0.00104226
-0.0255268,-0.00909414
-0.282857,0.0144704
-0.451267,0.0344315
-0.244255,0.0169344
0.147656,-0.0092393
0.320775,-0.0089056
0.194532,0.00907014
-0.0755004,0.0241199
-0.210146,0.0343402
-0.17182,0.0278101
-0.124102,0.00363276
-0.0227594,-0.0183188
0.00574544,-0.0026852
-0.0351152,0.0180625
-0.0741611,0.00591749
-0.179568,0.00468428
-0.121308,0.00891798
0.0468199,0.0285137
0.257671,-0.00745895
0.381339,-0.114981
0.172048,-0.179418
-0.1722,-0.0783096
-0.22254,0.0139983
-0.0981,0.00317796
-0.0253321,-0.0248265
0.0323163,-0.00365597
0.054275,0.0848198
0.071073,0.0766097
0.000695297,0.034088
-0.1263,0.00820077
-0.117741,-0.00337878
-0.0418701,-0.00309958
0.000580102,-0.00293433
-0.0310605,0.0179959
0.00935352,-0.00345957
0.102088,0.00788432
0.124075,0.0241972
0.114033,-0.0431501
0.136825,-0.0288546
0.187478,0.0050777
0.0839257,0.0154898
0.0391122,0.0426798
0.280354,0.0600515
0.345919,0.0597335
-0.0954911,0.00621294
-0.534739,-0.0232124
-0.637887,-0.0107597
-0.476048,0.0035586
-0.216529,0.00147342
-0.0538653,5.59e-05
0.0528991,0.0094304
0.118566,-0.00957254
0.114285,-0.0394227
0.0240574,-0.00661418
0.084684,-0.0113914
0.314586,-0.0190012
0.484163,-0.0380474
0.521264,-0.086612
0.16206,0.0365256
-0.187754,0.16203
-0.226015,0.0690624
-0.320922,-0.0329201
-0.224775,-0.0397219
-0.056719,-0.054365
-0.0782804,-0.0963133
-0.258865,-0.0363328
-0.228808,-0.0594951
0.00974545,-0.079943
0.191757,0.0064002
0.407063,0.0446314
0.614616,-0.0126033
0.506028,-0.00902182
0.202877,0.0436956
-0.312783,0.0598166
-0.704391,0.0607953
-0.639511,0.0554835
-0.447647,0.0264486
-0.206793,-0.0247849
0.024546,-0.0302772
0.151757,0.00501825
0.163178,0.0219794
0.100172,0.0415423
0.0590223,0.0321712
0.0777679,0.0137568
0.165914,0.00123103
0.152343,-0.0267687
0.0823234,-0.075665
0.0101688,-0.0666619
-0.00917687,-0.0225096
0.119078,0.00835348
0.197569,0.0250902
0.111318,0.0232795
-0.00282139,0.0219419
-0.0464596,0.0220553
-0.117134,0.0306792
-0.153946,0.0156183
-0.225543,-0.00469435
-0.153649,-0.0156244
0.0914217,-0.0110381
0.194468,0.00100673
0.127163,0.0199872
0.00279352,0.0415602
0.00531778,0.0359865
0.112105,-0.00804922
0.0882448,-0.0505918
0.0479989,-0.0479703
-0.142538,-0.000483903
-0.114178,0.008191
0.329108,0.0530896
0.388594,0.0241258
-0.0241616,-0.066299
-0.557118,-0.105141
-0.571658,-0.0435301
-0.121156,0.00963102
0.0334064,0.0140039
-0.0146372,0.0145708
-0.0844298,0.0200236
-0.0508644,0.0335311
0.0220973,0.0276682
0.0315554,-0.0195178
0.0405478,-0.0167007
0.122023,0.0421716
0.151466,0.0432675
0.0909031,0.0339331
0.0403351,0.0281538
-0.0485526,0.016715
-0.141636,-0.0234356
-0.106764,-0.0709232
0.0734174,-0.0754927
0.250856,-0.0893079
0.183348,-0.0246572
0.0769667,0.0567373
0.040569,0.0218469
-0.0281645,0.00972436
-0.118948,0.0369342
-0.0688284,0.0575046
0.0445032,0.0866922
-0.0366255,0.020245
-0.184165,-0.0657406
-0.084098,-0.0467976
0.0694873,0.00750177
0.00626957,0.0182146
-0.0125146,-0.0225905
-0.0574026,-0.0499463
-0.0487536,-0.0614595
0.0862413,-0.0119022
0.13608,0.0224241
0.0407903,0.0142331
0.0081426,-0.017168
0.169075,-0.0197169
0.310247,0.0218152
0.237528,0.050236
-0.101183,0.0285678
-0.4871,-0.00171387
-0.411301,-0.0444865
-0.142133,-0.0676774
-0.0341804,-0.00324389
-0.0490778,0.00665696
-0.092222,0.014217
-0.0603794,0.0511422
0.171007,0.0310592
0.387691,-0.00259388
0.412935,0.00228544
0.17058,0.000662861
-0.0344896,-0.000462172
0.0332547,0.0200981
0.284904,0.0401659
0.209028,0.0201862
-0.273939,-0.00838186
-0.536367,-0.0158454
-0.500843,-0.0123035
-0.275014,-0.000333178
0.0608652,-0.0246368
0.335212,-0.0285811
0.364021,-0.029947
0.227121,-0.0177814
0.0053015,0.00258315
-0.0926367,-0.0107192
-0.0385085,-0.00721607
-0.0207342,0.0282566
-0.0189184,0.0650712
-0.096239,0.0527657
-0.164752,0.0208841
-0.19726,0.0157423
-0.191458,0.0122216
-0.117874,-0.00185164
-0.0654682,-0.0381984
-0.13056,-0.03661
-0.102134,-0.00820795
0.0011211,0.017668
0.0489268,0.0108787
0.044645,-0.0145577
0.0282764,-0.0140634
0.0410709,-0.0001862
0.105388,-0.032606
0.279104,-0.0393034
0.459462,0.00801147
0.431439,-0.00599717
0.1593,-0.0348766
-0.286109,-0.0315552
-0.357928,-0.0541797
-0.140446,0.00436089
-0.0557748,0.0557281
-0.0243174,0.0102626
-0.0365894,-0.0104887
0.00557442,0.0467377
-0.011703,0.0789134
-0.043486,0.0379431
0.0931413,-0.0215367
0.392496,-0.0207766
0.55776,0.00169984
0.292163,-0.0238395
-0.169108,-0.0339326
-0.341713,-0.0239794
-0.375687,-0.00380186
-0.409021,0.0186787
-0.199143,0.027678
-0.0136334,0.0225911
0.0423468,0.00567892
-0.0483305,-0.0143201
-0.132974,-0.0028286
-0.0898826,0.0178864
-0.037249,0.0285808
-0.00348325,0.0110661
-0.0155309,-0.0152973
-0.0191282,-0.00799124
0.0915657,0.0143679
0.334463,-0.0248263
0.473354,-0.034962
0.477043,0.0118997
0.341159,0.033984
0.120345,0.0124898
-0.0301742,0.0157501
-0.298556,0.020507
-0.471909,0.00862723
-0.376863,0.00846588
-0.201022,-0.0151563
-0.0189209,-0.0586842
0.0966955,-0.0521526
0.094145,-0.0276156
0.133391,-0.00788946
0.147494,0.0299639
-0.121586,0.0199024
-0.325285,0.032923
-0.354977,0.0290457
-0.17665,-0.0148179
0.0317542,-0.0482431
0.0618087,-0.0274204
0.028538,-0.000303827
0.0825365,0.0196018
0.159127,0.0333833
0.136968,0.00412699
0.0520386,0.00371694
0.10922,0.0359396
0.331888,0.0209557
0.41012,-0.0220474
0.261537,-0.034634
-0.142346,-0.0591038
-0.448227,-0.0859702
-0.325572,-0.0125994
-0.253293,0.0376044
-0.147581,0.0335507
-0.0168122,0.0192935
0.0592615,0.00793031
0.0542288,0.0149049
-0.04908,0.0312896
-0.0398165,0.0353513
0.0502969,0.0143852
0.0923293,-0.0241417
0.0600122,-0.0576814
0.0222577,-0.00952886
0.0214565,0.0216843
0.069634,0.0217253
0.14061,0.0168753
0.189547,0.00414444
0.205446,-0.000797153
0.111399,0.0028114
0.0263204,0.0121811
-0.0722607,0.0158478
-0.255117,0.00669878
-0.231186,-0.0101554
-0.163744,-0.0140936
-0.175445,-0.0094989
-0.0438841,-0.0103511
0.0658808,-0.0217478
0.0739765,-0.0172937
0.0354823,-0.0277936
-0.0149432,-0.0343931
-0.0583792,-0.00585976
-0.0714495,0.00347115
-0.0737268,0.00314659
-0.0950791,0.00580444
0.0021629,0.014587
0.112383,0.0258892
0.230736,0.0299974
0.320564,0.024282
0.19126,-0.0047364
0.00674641,-0.0186547
-0.219756,0.0072812
-0.238344,0.0329047
-0.0427662,0.00571425
0.0467416,-0.0189459
0.008886,-0.0277133
-0.0328474,-0.0246702
-0.0840501,0.00538532
-0.124987,0.00921097
-0.0463199,0.0146776
0.0548662,0.0166933
0.0740984,0.0212253
0.0652141,0.0280971
0.14015,0.026751
0.286413,-0.00573384
0.384377,-0.0473655
0.330119,-0.0524209
-0.00247355,-0.0633884
-0.330128,-0.0245629
-0.244739,0.0200579
-0.0104924,0.0396249
-0.067598,0.0392069
-0.188806,0.00526688
-0.266109,-0.0474951
-0.177708,-0.0339444
-0.09738,0.0019373
-0.111458,0.0149633
-0.11504,0.0176715
-0.0612247,0.0221495
-0.0339235,0.0218874
-0.030253,0.0118799
-0.0194397,0.000635732
0.0255209,0.00240345
0.139918,-9.57e-05
0.345195,-0.00670321
0.490249,-0.00679389
0.397958,-0.00607769
0.129597,-0.00525114
-0.183319,0.0022626
-0.294827,0.00517042
-0.163086,0.00104929
-0.119797,0.00406281
-0.141817,0.0144083
-0.0728908,0.0168736
0.0308179,0.0183145
0.0509706,0.0167722
0.0307044,0.00568606
0.0512168,-0.00782661
0.0773943,-0.0129189
0.0961942,-0.00588837
0.0185349,3.43e-05
-0.22766,-0.00149645
-0.208614,0.00557369
0.0349114,0.0181458
0.0965535,0.00194699
0.0340416,-0.0208028
0.0348055,-0.0224613
0.0461075,-0.0286263
-0.00286054,-0.0314678
-0.0658666,-0.0172439
-0.0740811,0.0051847
-0.0312204,0.00530952
0.0178639,0.00099856
0.0663271,-0.00089705
0.139339,-0.00833598
0.202286,-0.0131554
0.14928,-0.00445399
-0.0265957,0.00581623
-0.1853,0.0125973
-0.207042,0.0217428
-0.111781,0.0322959
0.0302549,0.0355466
0.108998,-0.00690739
0.0948898,-0.0336365
0.0231552,-0.0159009
-0.0650927,-0.000160649
-0.111428,0.0106845
-0.0831634,0.00388852
-0.0524973,-0.0218977
-0.0370389,0.000216436
-0.0372226,0.00110931
-0.0927244,-0.0118449
-0.0740132,-0.0140733
0.0394802,0.0136626
0.136292,0.0119354
0.1761,-0.00537964
0.20727,-0.00566335
0.295703,-0.00455722
0.359392,0.00457855
0.247517,0.00394846
-0.0978068,-0.00610297
-0.446208,6.04e-05
-0.476592,0.0034705
-0.27298,-0.004624
-0.126511,-0.00980876
-0.0622996,0.00851775
0.0466497,0.023857
0.106279,0.00640885
0.0770225,-0.00346809
0.00527551,0.00707098
0.0278298,0.0116684
0.260344,-0.00200469
0.496494,-0.0144379
0.462319,0.000863625
0.096935,0.0126103
-0.245611,-0.0024624
-0.435034,-0.0249212
-0.477265,-0.00975547
-0.187094,0.00793668
0.174178,0.0202354
0.293828,0.0476643
0.187983,0.0383902
-0.216366,0.00622733
-0.583255,-0.0144482
-0.422826,-0.0240291
-0.183789,-0.0383624
-0.0331699,-0.0286826
0.0815699,-0.0104832
0.144117,-0.0237072
0.0833563,-0.0162151
0.0178132,0.0204211
0.0505122,0.0419579
0.124299,0.0197563
0.142828,0.00384259
0.158111,0.0137286
0.295383,0.0201736
0.322778,0.0121359
0.259328,-0.00205425
0.106145,-0.011824
-0.166633,-0.0100499
-0.261799,-0.0032161
-0.274213,-0.0178973
-0.20232,-0.0128657
-0.0351037,-0.00573309
0.108624,0.00983801
0.269971,0.0142136
0.288234,0.00622048
0.0458416,-0.019935
-0.254679,-0.0531994
-0.236261,-0.0660524
0.122376,-0.0471159
0.211633,0.0194384
0.0539389,0.04367
-0.172137,0.0388146
-0.30092,-0.0067166
-0.287555,-0.0362271
-0.131253,0.00103851
-0.0324712,0.011328
0.0125937,0.0213551
0.0369262,0.00279492
0.050876,0.0153326
0.0568813,0.0228999
0.0794083,0.0272444
0.109836,0.0188694
0.0889045,0.0165217
0.0462096,0.0156014
0.00868139,0.00207568
-0.0400892,-0.0107001
0.010153,-0.0102295
0.0912114,-0.00622241
0.130388,-0.00408066
0.0879834,0.00500621
-0.0672809,0.00888406
-0.132649,0.00236332
-0.069135,-0.00368533
-0.0379359,-0.0103981
-0.0565015,-0.00718842
-0.0842692,-0.00325104
-0.0650887,0.000917937
-0.0526093,0.00798628
-0.0390238,0.00506049
-0.0153481,-0.00344708
0.0558365,0.0056138
0.142935,0.00627278
0.200365,-0.00223093
0.270532,-0.0103488
0.305677,-0.0273905
0.224186,-0.0362365
-0.0122607,-0.0166857
-0.314206,0.00991173
-0.48582,0.00971677
-0.414478,-0.000410351
-0.195013,0.00709813
-0.012529,0.0112214
0.106546,-0.00678737
0.247925,-0.0106601
0.336789,-5.96e-07
0.34133,0.00968154
0.421337,0.0210164
0.336389,0.00804664
-0.0174102,-0.0130551
-0.256705,-0.0151495
-0.532351,-0.0107132
-0.614657,-0.0117036
-0.376467,-0.00376089
-0.111354,0.00780542
0.0669442,0.00160151
0.112525,-0.0110681
0.0697456,-0.00686449
0.0076439,0.00198195
-0.0222991,-0.00169315
0.00178132,0.0036392
0.0586521,0.0149167
0.03711,0.0164561
0.00669899,0.00550979
-0.0119987,0.00910218
0.00341593,0.0131522
0.0621916,0.00680442
0.0652583,-0.00280216
0.029804,-0.0210303
0.0277111,-0.0277154
0.0704047,0.00559372
0.0996589,0.0236201
0.0761188,0.0183097
0.0163634,0.00304819
-0.00880254,0.000244121
0.0133934,0.0215948
0.0421305,0.0200444
0.0248202,-0.00329345
-0.0447127,-0.0203623
-0.0979116,-0.00876575
-0.089122,-0.00397611
-0.00910179,-0.0265211
0.0590008,-0.0277037
0.0518147,-0.00392336
-0.00270073,0.00835742
-0.0612472,0.00524226
-0.0863329,0.00778069
-0.0140265,0.0138922
0.102144,0.0154432
0.150906,0.0103151
0.146265,-0.0011633
0.178096,-0.00128333
0.0961302,0.00836145
-0.0301437,-0.0154714
-0.132359,-0.0106333
-0.298059,0.0162809
-0.30483,0.010546
-0.125712,0.00445615
0.055383,-0.00654962
0.294475,-0.0257179
0.426861,-0.0245774
0.30226,-0.0197978
-0.0656113,-0.00534197
-0.331464,0.0215766
-0.273789,0.0195738
-0.200238,0.0114206
-0.116751,0.00400653
-0.0717453,0.00954963
-0.00816206,0.0229651
0.0998541,0.0145148
0.0784972,-0.0141157
-0.0161917,-0.0218268
-0.0657923,-0.0120423
-0.0559274,0.00253495
-0.0127827,0.00425722
0.0278643,-0.00908075
0.0443976,-0.0511014
0.0418405,-0.0428391
0.0389865,0.00742188
0.0534839,0.0174551
0.0694133,0.0157308
0.0508929,0.0183851
-0.00709346,0.0138906
-0.0775083,-0.00276985
-0.11155,-0.0146602
-0.0728363,-0.00837715
0.0136352,0.00307242
0.0647151,0.00767664
0.102392,0.017983
0.128707,-0.00221016
0.09759,-0.0059129
0.0527616,0.00301315
0.000902396,-0.00156388
-0.0798184,-0.00803877
-0.0775125,0.000110122
-0.0554217,0.0141935
-0.035846,-0.0147629
0.00751733,-0.0196415
0.0694075,-0.00654099
0.0913698,-0.020108
0.0571947,-0.0088819
-0.00417978,0.0172624
-0.0845759,0.0218262
-0.110003,0.0257734
-0.0507752,0.0297665
0.0057077,0.0291837
0.0248353,0.0223887
0.018133,0.0093989
0.0437306,-0.00100113
0.066698,0.000449363
0.0340068,0.00488403
0.0107939,-0.00228755
-0.0513156,-0.0107765
-0.137222,-0.0138334
-0.112065,-0.0105716
-0.0696309,-0.00842096
-0.0619094,-0.0129708
-0.0177529,-0.0183081
0.0905156,-0.00976318
0.304978,-0.00211576
0.453663,0.00272184
0.369362,-0.00312713
0.0545265,-0.0149786
-0.292314,-0.00755426
-0.461428,0.000810077
-0.388513,-0.00514111
-0.195108,-0.00980495
-0.0928835,-0.00158691
-0.017342,0.000230834
0.0423953,-0.00169684
0.0751183,0.00035451
0.0848804,0.00345493
0.0668844,0.000593255
0.0208068,-0.00618499
-0.000470251,-0.00654203
0.0338163,0.00407568
0.06884,0.0149787
0.064752,0.0203537
0.0129525,0.0296951
-0.0576703,0.0295344
-0.0650027,0.0192064
0.00139711,0.0143119
0.0397995,0.00229415
0.0494242,-0.00475544
0.0452502,-0.0071716
0.0150121,-0.00796681
0.0162059,-0.00989504
0.0321115,-0.00458771
0.0244396,-0.00242406
-0.00140219,-0.00575204
-0.016616,-0.0121311
-0.0113289,-0.0115424
0.00133483,-0.00367269
0.00248009,0.00483727
-0.0261652,0.00952874
-0.0592406,0.0134888
-0.0454471,0.00859857
0.00660276,0.00400406
0.0536028,-0.00209681
0.0712525,-0.012838
0.0575522,-0.0162725
0.0281995,-0.012807
-0.00168448,-0.00470695
0.000750471,-0.00525828
0.0163791,-0.0053206
-0.000901063,-0.011178
-0.0586998,-0.0250484
-0.108528,-0.018473
-0.112526,-0.00575688
-0.0762719,0.00648665
-0.0413781,0.0134842
-0.0211831,0.0208012
0.0231474,0.0237214
0.0572092,0.0165698
0.073031,0.0141123
0.0601703,0.00477124
0.0393402,-0.00876435
0.0280567,-0.0185787
0.0237441,-0.0171708
0.0295518,-0.0164313
0.0337633,-0.0187712
0.0192932,-0.015124
-0.0166917,-0.0175707
-0.0541015,-0.0241997
-0.0629588,-0.0246963
-0.0235437,-0.0219245
0.0121049,-0.0097555
0.0245983,0.0111075
-0.00360178,0.0272413
-0.0282643,0.0354829
-0.0237515,0.038036
-0.0129268,0.0393423
-0.018204,0.0336698
-0.0246815,0.0261502
-0.0172957,0.0197174
0.00498509,0.0179052
0.0258267,0.0118977
0.0324381,0.00814652
0.0235752,0.00617681
0.0138562,-0.00100839
0.0078541,-0.00901076
0.00845958,-0.0129569
0.0084409,-0.010116
-0.00411525,-0.00809579
-0.0242954,-0.00258544
-0.0274187,0.00105241
-0.0155558,-0.00398803
-0.00133602,-0.0112822
0.0109752,-0.0172634
0.0127679,-0.0193463
0.0111102,-0.0178471
0.019587,-0.0132113
0.0318509,-0.00783395
0.0402695,-0.00690944
0.0327271,-0.000548554
0.0120922,-0.00139096
-0.00372494,-0.00517474
-0.00623921,-0.00825407
-0.000822765,-0.00485064
0.00481452,0.000503462
-0.00250173,0.00469179
-0.0182916,0.0121186
-0.024344,0.0174716
-0.0212131,0.0167655
-0.0224444,0.0145586
-0.0281826,0.00820561
-0.0408475,0.00102875
-0.0497555,-0.000674008
-0.0986093,0.00100741
-0.11975,-0.00291707
