Comp Ch 3,Comp Ch 4
0.113075,0.0103086
0.376527,-0.00939299
0.506125,-0.0236192
0.565233,-0.0407793
1.15872,-0.0430737
1.59826,-0.0103146
1.46452,-0.00469697
0.377356,-0.0413783
-1.41544,0.00494655
-2.4436,0.0226853
-2.11271,0.0247549
-0.991714,0.010002
-0.0301164,0.0586072
0.299282,0.0566054
0.225716,0.0172066
0.152425,-0.00750107
0.112887,-0.00513538
0.0304351,-0.00359023
-0.0926725,0.0192126
-0.121251,0.00210066
0.048573,-0.0290929
0.158184,-0.040262
0.0948629,-0.0386804
-0.0116123,-0.0244334
-0.0791079,-0.0153775
-0.0110769,-0.0120974
0.286352,-0.00533375
0.490476,0.0040172
0.504374,0.00482076
0.115625,0.0172167
0.0362955,0.0299179
0.119453,0.0109577
-0.0445957,0.00088394
-0.263937,-0.0047128
-0.17442,-0.0143586
0.0727368,-0.020113
0.116645,-0.0262673
-0.142956,-0.025905
-0.447394,-0.0207148
-0.273332,-0.0115059
0.0870559,-0.0168489
0.25062,-0.00965984
0.137483,0.0236865
0.225595,0.0347763
0.408037,0.0278472
0.339715,0.0257838
0.334737,0.030851
0.0671625,0.00228649
-0.200632,-0.0137879
-0.0453866,-0.0133759
-0.243065,0.0144445
-0.330684,0.0110829
-0.249951,-0.00204381
-0.272212,-0.00678774
-0.220074,-0.0235897
-0.0912886,-0.0414958
-0.253589,-0.0114818
0.0637557,0.0368075
0.597872,-0.00199142
0.432855,-0.0171993
0.0612706,0.0263752
-0.287992,0.0436981
-0.297583,0.0108933
-0.074586,-0.0194808
-0.206957,0.0104677
-0.301004,0.0252295
-0.0585071,-0.00166434
0.480299,0.00160642
0.774131,0.000335349
0.543816,-0.0151637
-0.0464667,0.00879472
-0.861282,0.0317054
-0.789537,-0.0157551
-0.343218,-0.0284254
-0.299969,-0.021921
-0.187727,-0.0226008
0.322202,-0.0319541
0.934053,-0.0179407
1.01749,0.0246252
0.701575,0.0387986
0.169438,0.0365256
0.120192,0.00772266
-0.425491,0.00261718
-0.923444,-0.0178674
-0.220187,-0.0461443
0.260478,-0.068702
0.0972129,-0.0231772
-0.450848,0.00651427
-0.777601,0.0150901
-0.423913,0.0207238
-0.120153,0.0199903
-0.0627466,0.00324307
0.243662,-0.000730925
0.523797,-0.000119067
0.501384,0.00794431
0.0202462,0.0399026
-0.414581,0.0727135
-0.252523,0.0709261
0.0376691,0.0374829
0.163492,-0.0152833
0.233387,-0.0496182
0.144472,-0.059972
-0.124547,-0.0521724
-0.227125,-0.0307588
-0.107559,-0.023711
0.0313056,-0.0139759
0.0160793,0.000583154
-0.0425337,0.0138476
0.122691,0.0111185
0.252013,-8.75e-05
0.298018,-0.00882493
0.0873308,-0.00217144
-0.20946,0.00921283
-0.174719,0.0169875
0.027979,0.0249534
0.124549,0.0117464
0.123483,0.00318926
0.0887013,0.00183736
0.0314719,-0.00422889
0.316315,-0.0105729
0.464982,-0.0251405
0.240679,-0.0241917
-0.0211416,-0.00676482
-0.229728,0.0182678
-0.319475,0.0190355
-0.725156,-0.00648231
-0.782266,-0.0153408
-0.0669326,-0.00617783
0.522307,-0.0032388
0.795085,-0.00129431
0.739477,0.018545
0.25342,0.0131048
-0.576513,0.00299568
-0.676966,-0.00167901
-0.772548,0.0116541
-0.688167,0.0178631
-0.310933,0.0312187
-0.00874818,0.00558683
0.490118,-0.0130638
0.912804,0.00199254
0.819071,-0.0303965
0.160294,-0.022651
-0.208607,0.0159364
-0.102086,0.0272108
0.0509852,0.0215691
-0.0665252,-0.00353141
-0.0855484,-0.0127207
0.114415,0.00614445
-0.209257,0.00989681
-0.35837,-0.00504116
-0.206801,-0.0255729
-0.155137,-0.0401909
-0.167562,-0.0259282
-0.14706,0.00773979
-0.0266459,0.0155712
0.0410041,0.0124531
-0.075394,0.0191913
-0.190379,0.01615
-0.196835,0.00195048
-0.038343,-0.0129518
0.197574,-0.0149866
0.347628,-0.0095847
0.485688,-0.00335586
0.634908,-0.0023139
0.6324,-0.00485357
0.41922,-0.010513
-0.497254,-0.00437303
-0.928258,0.0132059
-0.430661,0.00821805
-0.199071,0.0102974
-0.199455,0.0141469
-0.144909,0.0213865
-0.0350479,0.027151
0.275361,-0.0122711
0.728265,-0.0518253
0.739879,-0.0357005
0.322169,-0.00325122
-0.310271,0.0305472
0.003271,0.0158208
0.642882,-0.00798824
0.665431,-0.00947783
-0.38508,-0.00744707
-1.08676,-0.00104024
-0.896439,-0.000360441
-0.412558,0.00690041
-0.0680183,-0.00101082
-0.000786869,-0.0163918
0.0071058,-0.0145269
-0.0593971,0.0104711
-0.106006,-0.0151376
-0.125477,-0.00459483
-0.0952018,0.00566104
0.223887,-0.00834899
0.781789,-0.01994
0.970436,-0.0238132
0.324219,0.0186362
-0.941335,0.0395734
-0.52178,0.0364187
-0.12004,-0.00957158
0.164961,0.00803322
0.455459,0.0166897
0.54198,-0.00148918
0.294485,0.00756179
-0.306056,0.0172837
-0.494456,0.0142162
-0.174212,0.0207984
-0.0900008,0.0101931
-0.273435,-0.00575084
-0.356765,-0.00937477
-0.188929,-0.0115554
-0.0449971,-0.030489
0.0825772,-0.0219365
0.194391,-0.00322618
0.172954,0.00812475
0.0940023,0.0110108
0.042658,0.00394905
0.051324,-0.00423548
0.090486,-0.00207078
0.002492,0.013002
-0.0357549,-0.00573631
-0.00270848,-0.0112693
0.0582645,0.0110656
0.120105,0.00663701
0.0863339,-0.00390877
0.0813948,-0.0123854
0.254806,-0.00978387
0.53151,-0.00512622
0.57713,-0.0105578
-0.203754,0.00304293
-1.12598,0.0295084
-0.959291,0.0304978
-0.183397,0.00240261
0.272005,-0.0131142
0.881271,-0.0233014
1.2385,-0.021553
0.954337,-0.013547
-0.234958,0.0144784
-1.28724,0.043247
-0.875714,0.0115721
-0.531786,-0.00276481
-0.439973,-0.00523513
0.0174216,-0.0183058
0.34222,-0.0217009
0.186307,-0.0311343
-0.187743,-0.0358515
-0.28265,-0.0290301
-0.152555,0.00114472
-0.0478263,0.017693
0.1989,0.0264871
0.342456,0.0179356
0.376599,-0.00591255
0.292824,-0.00929051
0.200652,0.0022248
0.209907,0.00600282
0.108833,0.00432097
-0.122304,0.00281474
-0.474673,0.010609
-0.471449,0.0134219
-0.229946,0.00523753
-0.0607886,-0.00019139
-0.0103479,-0.0192101
0.0314306,-0.0138034
0.0691061,-0.0221005
0.0547765,0.000899483
0.0205895,0.0154005
0.0663692,0.0326081
0.222355,0.0426164
0.222748,0.0242073
0.0979275,-0.00180464
-0.0927652,-0.00382515
-0.146502,0.00402053
0.0805063,0.0117069
0.337911,0.00898163
0.558077,-0.0134021
0.433158,-0.0343081
0.0333113,-0.0454229
-0.493618,-0.0277364
-0.678193,0.000938822
-0.380794,0.00980913
-0.100233,0.00631428
0.431175,0.00013512
0.888043,-0.00721137
0.914334,-0.0363485
0.265447,-0.0144815
-1.01336,0.0130617
-1.09837,0.021218
-0.530207,0.0349198
-0.19755,0.0577808
-0.125558,0.0333264
-0.124053,-0.0068694
-0.0199872,-0.0175043
0.0490476,-0.0135707
0.340547,0.00226528
0.582738,-0.00604187
0.437532,0.000959141
-0.117358,0.0113925
-0.582413,0.0106169
-0.198759,-0.0111873
0.0777379,-0.0228435
-0.00932141,-0.00358572
0.09485,0.0168735
0.193288,-0.0256278
0.149492,-0.0411402
0.119076,0.0177161
0.0501655,0.054931
0.0247256,0.039496
-0.224974,-0.0108558
-0.336316,-0.0262509
-0.173366,-0.0398701
-0.00634913,-0.0624645
0.097369,-0.0911863
0.185667,-0.0403484
0.159319,0.0728124
0.0135926,0.0568624
0.0630376,0.0151494
0.175961,0.00453739
0.208239,0.0209339
0.207808,0.0140985
0.072973,0.00263436
-0.136689,0.00614643
-0.456529,0.00224065
-0.242513,0.00700797
0.184603,0.00953471
0.197669,0.0135402
-0.067362,-0.0029336
-0.35782,-0.0427444
-0.314396,-0.018896
0.00906952,0.00972779
0.283882,0.00326726
0.454462,-0.00458241
0.525683,-0.000558485
0.369293,0.0136403
-0.0693453,0.0185946
-0.370531,0.000810532
-0.478186,-0.00779789
-0.486665,0.0249914
-0.182653,0.0402426
-0.0414079,0.0208417
-0.0944017,-0.028832
0.0139666,-0.0151026
0.154778,0.0168488
0.100395,-0.00203914
-0.0990923,-0.0355638
-0.0637045,-0.0151833
0.0758893,0.000907555
0.0882829,-0.0118199
0.0232045,-0.00870959
-0.148144,0.00792616
-0.0328537,0.0169421
0.104322,0.00473243
0.117627,-0.00359066
0.293434,0.00986276
0.340644,0.00214488
0.191579,-0.0222019
0.041143,-0.0149736
-0.223069,-0.0107352
-0.217337,0.00169237
0.0215364,0.00493372
0.238979,0.00359295
0.148898,0.0109801
-0.0504106,0.0146837
-0.184626,0.0196796
-0.191873,-0.00448492
-0.0906731,-0.0142004
-0.381303,0.0154926
-0.295979,0.00258691
-0.080093,-0.0114278
-0.0488859,-0.0158192
0.124947,-0.0159448
0.33747,-0.0206667
0.35374,-0.0356209
0.0985017,-0.0327325
-0.207105,0.0203396
0.0167729,0.0297731
0.38652,-0.00609719
0.330999,-0.00602396
0.11844,0.0142021
0.190175,0.0064872
0.150793,0.00617826
-0.166876,0.0211676
-0.655509,0.0271517
-0.456626,-0.0204858
-0.0850613,-0.048823
-0.0296229,-0.00513737
-0.165153,0.00858691
-0.190083,0.00564022
0.00277306,0.0272651
0.139214,0.0331685
0.155519,0.0118102
0.111141,-0.00847377
0.0923267,-0.014482
-0.0667477,0.00090846
-0.107517,0.0114168
0.00184576,0.00682911
0.242328,-0.00162023
0.334155,-0.00509404
0.152929,-0.0035576
-0.433031,0.00388468
-0.536519,-0.00535923
-0.104943,-0.00146363
-0.0210015,0.00209977
-0.0415794,0.000301948
0.0256923,0.000919332
0.141495,-0.0061017
0.284655,-0.0174405
0.346032,0.00807737
0.256005,0.0156309
0.115909,-0.00793848
-0.0221424,-0.0179977
-0.0550496,-0.0084052
-0.00317939,-0.0272659
-0.13057,-0.00742021
-0.225754,0.0246766
-0.157675,0.0626668
0.346615,0.0380538
0.585625,-0.00894071
0.308236,-0.0279743
-0.226032,-0.0682095
-0.590441,-0.0367236
-0.574423,0.0148324
-0.460629,0.0402125
-0.172781,0.0260035
0.0673571,-0.0162834
0.311962,-0.0511354
0.326651,0.0299646
0.151037,0.0601643
0.045818,0.0218091
0.0079208,-0.0213245
0.288355,-0.0331683
0.276576,-0.019713
0.0679412,-0.00203084
-0.0592663,-0.0159251
-0.5141,-0.00430552
-0.380215,0.0307603
-0.112775,0.0128443
-0.0132456,-0.00740455
0.118558,-0.0148209
0.00697403,0.0104184
-0.176257,0.0434324
-0.109398,0.0175862
0.0341398,-0.00781678
0.0471802,-0.0218341
0.0638013,-0.0205895
0.187886,-0.0311986
0.303602,0.00172377
0.30545,0.0268328
0.11141,0.00770913
0.0500726,0.0226512
-0.0877709,0.0375954
-0.300992,0.0182254
-0.276524,-0.0256299
-0.0432096,-0.0626477
0.0505946,-0.0512349
0.0423194,0.0111
0.0683304,0.0285588
0.0431576,0.0609808
0.0702852,0.0484116
-0.00891378,0.000374832
-0.108064,-0.0422702
-0.093666,-0.0433764
-0.107828,-0.0769637
-0.127711,0.0122184
-0.0649213,0.0625352
0.0301758,0.0305662
0.188739,-0.00229303
0.278306,-0.02194
0.323512,-0.029882
0.268563,-0.066936
0.0660134,-0.0487749
-0.0641606,-0.0131914
-0.0610477,0.0100512
-0.26591,0.04767
-0.446173,0.0425424
-0.204451,0.0407184
0.0823315,0.0150255
0.171441,-0.0109458
0.0735785,0.0182834
0.0737226,0.031887
0.472524,0.023194
0.500717,0.0178564
0.182589,-0.0152203
-0.703711,-0.0251845
-0.848568,0.0218128
-0.423103,0.0413243
-0.166606,-0.0294025
0.0215574,-0.0646575
0.0835703,-0.0125831
0.174875,0.00211806
0.263312,0.0046438
0.276112,0.00833567
0.132188,-0.000510787
-0.199357,0.0050327
-0.147814,0.0132653
0.253738,0.0117124
0.352917,-0.0210268
0.119339,-0.121804
-0.298454,-0.0857764
-0.319791,0.0474085
-0.22153,0.0323125
-0.0941712,-0.023978
0.155902,0.0339034
0.410779,0.028598
0.50872,-0.0181218
0.246359,-0.0111276
-0.0485066,-0.00724364
-0.1898,0.0110602
-0.360738,0.0495249
-0.386737,0.0355431
-0.124823,0.0311223
-0.0515266,0.0282854
-0.138355,0.00877051
-0.310089,0.0281976
-0.279711,0.0365759
0.0135301,0.0381842
0.176622,0.00427863
0.1725,-0.0521681
0.130697,-0.0466867
0.106473,-0.0369807
0.164374,0.0185419
0.222096,0.0174859
0.210952,-0.0487967
0.210046,-0.0540854
0.163115,-0.0089612
0.244645,-0.0425389
0.204664,-0.0401367
0.0552751,-0.00588141
0.053539,-0.00746385
-0.0487282,-0.0206579
-0.160305,-0.00664055
-0.554051,0.044419
-0.874415,0.0792869
-0.32984,0.0705315
0.226634,0.0241692
0.476673,-0.0237706
1.01755,-0.0404227
0.975025,0.00285646
0.521194,0.0291992
-0.660082,0.0106245
-1.24065,-0.0152707
-0.471586,-0.0241887
-0.10356,0.00167318
-0.0592566,0.0313886
-0.232291,0.0227473
-0.286572,-0.0649099
-0.248339,-0.0511666
-0.320191,0.0371313
-0.100801,0.0271892
0.175046,0.0383896
0.276411,-0.0191744
0.167816,-0.0666921
0.136841,-0.0122782
0.108377,-0.0114146
0.0787315,-0.0174382
0.338233,-0.0293942
0.434473,-0.00270056
0.259067,0.0334259
-0.109985,0.0596689
-0.226134,0.0285026
-0.135845,0.0157006
-0.331667,0.0528132
-0.394851,0.0367666
-0.137396,-0.00175596
0.166226,-0.0218757
0.418257,-0.0172058
0.414609,-0.000655185
0.0374376,0.0140146
-0.288472,0.00910121
-0.0752683,-0.0330114
0.0454552,-0.0553573
-0.0114531,-0.00742434
-0.207317,0.0290421
-0.185664,0.0416131
0.214727,-0.0240182
0.998107,-0.0374571
1.88058,-0.0259132
1.50816,-0.0299772
-0.276522,-0.0415533
-1.75832,-0.00979503
-1.73312,0.068423
-0.903653,0.0688798
-0.291243,0.0502722
-0.0940647,-0.0084953
-0.133578,-0.052643
0.0236831,-0.0416419
-0.0495386,-0.0474592
-0.166877,-0.0202919
-0.0677665,0.0558353
0.273498,0.0177807
0.535934,0.0259314
0.509717,0.0203389
0.183778,-0.0145033
-0.30216,-0.000117017
-0.226626,-0.00822051
-0.189544,0.0014219
-0.292034,0.051144
-0.09613,0.0227673
0.238224,0.00484851
0.548896,-0.0199228
0.598468,-0.00312319
0.22048,0.0339611
-0.21056,0.0419341
-0.180887,0.00497435
-0.0657271,-0.0486422
-0.0508668,-0.0493664
-0.112162,-0.0102369
-0.0712835,-0.0697723
-0.285424,-0.103134
-0.370855,0.0140268
-0.12896,0.0386933
0.212668,0.00765933
0.450075,0.026866
0.332125,0.00959095
0.05999,-0.00609364
0.0605309,-0.00352335
0.0579525,-0.00584359
-0.0886981,-0.0222058
-0.0730762,0.0157794
-0.105604,0.0276981
-0.0540405,-0.103146
0.173618,-0.0443731
0.391155,0.104756
-0.0996089,0.133212
-0.602338,0.101453
-0.49326,-0.015808
-0.195179,-0.0737823
0.260696,-0.0482286
0.360188,-0.0771537
0.208673,-0.0358388
-0.345887,0.0500183
-0.619574,0.068518
-0.227549,0.0578973
0.493175,0.0104087
1.0925,-0.0724182
0.849867,-0.106016
-0.0605109,-0.0680843
-0.94522,0.0133226
-0.803276,0.034354
-0.140153,0.0117663
0.362092,0.0569901
1.59841,0.0997812
2.10232,0.0080758
1.39558,-0.0377537
-0.125842,-0.0942424
-2.46101,-0.0466098
-2.53589,-0.0689155
-1.20515,-0.0953119
-0.337936,-0.0611999
0.264626,0.0261297
0.494513,0.0935323
0.173202,0.122774
-0.117214,0.0919843
-0.120596,0.0454159
-0.11898,0.0138518
0.0852075,-0.0189268
0.0532357,0.0622082
0.000886894,0.0920553
0.166766,0.0278851
0.320725,0.0219018
0.402012,-0.0262497
0.230558,-0.0234349
0.0811767,-0.00963377
-0.160584,-0.0146484
-0.42031,-0.0633292
-0.227695,-0.0442723
0.0636781,0.039146
0.242908,0.0144659
0.428656,-0.0795979
0.429739,-0.00657166
0.216535,0.0608106
0.270853,-0.0626583
0.319551,-0.0836424
-0.298423,-0.0148778
-0.85844,0.0337966
-0.956481,0.0316549
-0.748397,-0.00222751
-0.397435,-0.0305337
-0.0328045,-0.024515
0.274024,-0.00710742
0.43331,0.0322699
0.446366,0.0745743
0.466901,0.0102988
0.337761,-0.0083616
0.17574,0.0253481
0.38925,-0.0235624
0.737341,-0.0454312
0.416802,-0.0414324
0.307957,-0.0524833
0.392188,-0.0588706
0.287478,-0.0171029
-0.359334,-0.0656273
-1.77383,-0.0278733
-1.06919,0.00383641
0.803252,0.0296474
1.88271,0.0604245
1.59463,0.0688613
-0.195563,0.105521
-2.05369,0.142818
-1.80271,0.111679
-0.742901,0.0255674
-0.194338,-0.023346
-0.080247,-0.0548638
-0.285841,0.0234219
-0.343962,-0.048736
-0.112864,-0.160801
0.0736803,-0.0834993
0.455118,0.0023344
0.940489,0.0159892
0.773625,-0.0512085
0.506306,-0.0795539
-0.161002,-0.055022
-0.501107,0.0236958
-0.373992,0.0519763
-0.156497,0.0445088
0.589352,0.040098
0.767509,0.0387793
0.158385,0.00187374
-0.516762,-0.0158737
-0.50762,-0.0221753
0.0181564,-0.0179269
-0.0650963,0.032446
-0.457913,0.087805
-0.568293,0.121211
-0.0606984,0.0761828
0.372488,-0.0646445
0.236108,-0.151459
-0.194281,-0.114
-0.226334,-0.0352057
0.155758,-0.0314283
0.181405,0.0136266
0.155512,0.0555265
0.219808,0.10833
0.169958,0.0819652
0.275571,0.0212434
0.228219,0.0121107
0.273158,-0.0055581
0.740185,-0.0430657
1.06862,-0.0831121
0.215547,-0.109714
-1.26964,-0.06322
-1.41677,0.0354455
-0.841039,0.062131
-0.357197,0.0646106
0.259689,0.0748152
0.591061,0.0576845
0.850471,0.0389854
1.06773,0.0285989
0.960868,0.00756229
0.420407,-0.0247153
-1.21781,-0.0756854
-1.53723,-0.0630706
-0.220525,-0.0227949
0.0521729,0.027679
-0.35614,-0.0299456
-0.499351,-0.095708
-0.215118,-0.0733781
-0.102901,-0.000906667
-0.191141,0.0103852
-0.0668805,0.0679369
0.238477,0.0599801
0.334545,-0.00546661
0.0385757,0.00998559
-0.172929,0.0384951
-0.0286452,0.0373893
0.18656,0.0843251
0.295808,0.0648546
0.279747,0.00234771
0.227638,-0.0321654
0.260329,-0.0616443
0.395243,-0.0762726
0.212294,-0.0773258
-0.518955,-0.0260024
-0.818294,0.0281794
-0.0901621,0.0251584
0.266678,-0.0168877
-0.0303736,0.00808983
-0.518278,0.0708825
-0.064745,0.0137192
1.34659,-0.108987
2.37938,-0.0538149
1.56644,0.0310455
-0.742662,0.0712027
-2.06416,0.0511496
-1.52244,0.00247824
0.157929,-0.0205331
0.597359,-0.00108603
0.150226,0.03994
-0.715885,0.0286972
-1.44862,0.0214386
-0.744346,0.00499214
0.0949435,-0.0446191
0.715455,-0.0297818
1.44427,-0.0457477
1.76872,-0.0710841
2.07876,-0.142392
0.454473,-0.138892
-2.07824,0.0503685
-3.1597,0.105298
-2.34594,0.0326503
-0.570931,0.0252551
0.236883,0.0452156
0.32602,0.0246992
0.275167,0.000214634
0.277173,0.0209217
0.313744,0.0562648
0.275523,0.132694
0.771933,0.136848
1.47343,-0.0210647
1.18226,-0.172878
-0.160601,-0.147316
-0.88546,-0.0249122
-0.300563,-0.0254757
0.0419743,-0.0799176
-0.171791,0.00889762
-0.511338,0.0902207
-0.407015,0.0711139
-0.0664528,0.0415444
0.246149,0.0435796
0.468384,0.0157385
0.409928,-0.0219842
0.405427,-0.00442001
0.302827,0.0572125
-0.120292,0.116218
-0.498109,-0.0206416
-0.851597,-0.138969
-0.499391,-0.107702
0.151094,-0.108985
0.320348,-0.109413
0.0240245,-0.00377815
-0.178259,0.0399637
0.071463,-0.00439062
0.704672,0.0261518
1.23592,0.109802
1.09872,0.123114
0.00385181,0.0645466
-1.39622,0.000339366
-0.684157,-0.00982902
0.579041,-0.0492018
0.920697,-0.0943681
0.430282,-0.0497231
-0.728558,0.0257902
-0.606929,-0.0203861
-0.404309,0.0167266
-0.806368,0.050741
-0.833884,0.133627
-0.0594895,0.132895
0.147191,0.0463815
-0.369813,-0.0222652
-0.490506,-0.0690167
-0.0437922,-0.103871
0.25027,-0.104959
0.366674,-0.050709
0.738015,0.00533546
1.06144,0.011867
0.950921,-0.0111373
-0.038526,-0.042754
-1.18831,-0.0346651
-0.95292,-0.0345499
-0.453053,-0.0847689
0.0103283,-0.146403
0.875989,-0.141957
1.76578,0.0141677
1.71804,0.0837516
0.296992,0.0506292
-0.964935,0.0641598
-1.74212,0.0790507
-1.33021,0.0509518
-0.177042,0.0954471
0.219808,0.127125
0.185706,0.126256
0.279595,0.119678
0.426138,0.0697113
0.309221,0.0626003
-0.445476,0.0532729
-0.781417,0.0237458
0.180306,0.0233215
0.605474,0.0931855
-0.125793,0.103924
-0.741694,-0.00176289
-0.66272,-0.0830622
-0.0380366,-0.050442
0.706702,-0.0858355
0.621688,-0.153722
0.181773,-0.153537
0.161932,-0.0860717
0.45499,-0.0436748
0.26205,-0.0356277
-0.519972,-0.0577073
-1.08103,0.0453525
-0.5818,0.0604961
0.0407755,-0.0140326
0.062424,-0.0900653
-0.238463,-0.0180055
-0.306912,0.125414
0.134023,0.123774
0.319587,0.042477
0.0784984,-0.0295615
0.0707425,-0.079233
0.545683,-0.124389
1.20776,-0.13911
1.18484,-0.173864
0.403652,-0.17562
-0.711213,-0.0305971
-1.11792,0.0507554
-0.882267,0.0117249
-0.392253,-0.00528266
0.387637,0.0734791
0.825818,0.105687
0.696691,0.0681663
0.211656,0.0472749
-0.0142782,0.0233845
-0.196918,-0.00647461
-1.05176,0.0236715
-0.800452,0.058658
0.488775,0.0586079
0.754987,0.0494403
0.0753116,0.0448108
-0.720125,-0.0296888
-0.722164,-0.0981658
-0.143897,-0.0364922
0.00344799,0.0236734
0.122905,0.028116
0.383404,-0.0331623
0.34778,-0.107091
-0.142216,-0.0179454
-0.616219,0.106445
-0.423618,0.0844747
-0.0850365,0.0537787
0.416744,0.00528646
0.625508,-0.0370587
0.597664,-0.0633641
0.539984,-0.0389811
0.32156,-0.0390872
0.403718,-0.0034875
0.159041,0.0362217
-0.158051,0.0333926
-0.412487,0.0291534
-0.865332,0.0500543
-0.811337,0.0481114
-0.422514,0.0296938
-0.112679,0.0196662
0.182446,0.0319776
0.444318,0.0177727
0.36353,-0.00195718
0.232902,-0.0332703
0.393084,-0.056591
0.598179,-0.0156704
0.268605,0.0202941
-0.285261,-0.0214394
-0.41213,-0.0401997
-0.430162,0.000315164
-0.441016,0.0193261
-0.40631,0.0206199
-0.201098,0.000638131
0.0803138,-0.0302531
0.0398072,-0.022718
-0.00446858,0.00192651
0.0027287,0.069589
-0.0826811,0.0643977
-0.191658,0.0184283
-0.237761,-0.00784401
0.164688,-0.0392195
0.598454,-0.0476439
0.426835,-0.0712967
-0.210053,-0.085977
-0.372859,-0.0759985
0.145427,0.0109205
0.30142,0.0109919
0.408234,-0.0378266
0.412287,0.0660101
0.649573,0.0754928
0.725507,0.058467
0.155998,0.0479129
-0.771347,0.0980188
-1.13733,0.0850326
-0.365298,-0.0246508
0.602331,-0.0995249
0.536869,-0.108623
-0.342314,-0.0324076
-0.719756,0.00842719
-0.619048,-0.0408019
-0.382736,0.00723206
-0.15792,0.0166976
0.15105,0.0056019
0.30876,0.018522
0.104907,0.05922
-0.105335,0.0733649
-0.0529027,0.0415895
0.0608767,0.0120023
0.0955545,-0.0245048
0.161539,-0.0370055
0.316815,-0.0601059
0.298764,-0.0856567
0.0584108,-0.0999454
-0.293784,-0.102622
-0.491776,0.00588317
-0.243889,0.0249134
-0.0245951,0.00478805
0.0609746,0.0520766
0.316602,0.0375431
0.637297,-0.00968247
0.634111,-0.0100318
0.2213,0.00278994
-0.364606,0.0146704
-0.351155,0.0353144
-0.214688,0.0763065
-0.277905,0.107772
-0.206761,0.0852617
-0.00188551,0.0203183
0.195355,-0.0566517
0.479669,-0.0730264
0.770952,-0.0482323
0.641317,-0.0290785
-0.0949908,-0.0371469
-0.859027,-0.0276336
-0.933993,-0.00549236
-0.391596,-0.00346658
0.0300517,-0.0308862
0.196524,-0.0234291
0.0499377,0.0435836
-0.142698,0.0410356
-0.0618771,0.000952725
-0.0388106,0.0107186
0.0416962,0.0324579
-0.00121727,0.0729856
-0.049675,0.0487077
-0.101615,0.0202968
-0.15319,-0.0155626
-0.140224,-0.0208971
0.0325533,-0.0176257
0.199468,-0.0454579
0.184557,-0.0659697
0.0354605,-0.0649361
0.0401209,-0.016519
0.0617739,-0.0240726
0.21235,-0.0199886
0.411784,0.00449914
0.392774,-0.00408283
0.236563,0.00360239
0.204212,0.0460653
0.535585,0.0833894
0.400343,0.0869219
-0.156914,0.0447792
-0.611496,-0.0053174
-0.523038,-0.013604
-0.339215,-0.0371377
-0.259668,-0.0296969
-0.0773493,-0.0225134
-0.156466,-0.0398938
-0.34931,0.0231224
-0.279269,0.0255255
-0.120005,-0.062501
0.126283,-0.0946679
0.170174,0.0137419
0.0129943,0.0533022
-0.215637,0.0270885
-0.374421,0.0255701
-0.179084,0.0292026
0.0317637,0.0018617
0.106312,-0.00749371
0.171989,0.0149671
0.203353,0.0364664
0.376355,0.0329366
0.572858,0.0134057
0.580627,0.0266306
0.329352,-0.00766759
0.234457,-0.026208
0.456848,-0.0447442
0.249445,-0.0117512
-0.307118,-0.0185861
-0.772398,-0.0612225
-0.517853,-0.144222
-0.402441,-0.0955623
-0.397009,0.0303848
-0.327244,0.0735854
-0.16749,0.0554946
-0.0561041,0.0218134
-0.0840382,0.0189527
-0.0754488,0.0255727
-0.0173456,0.0200156
0.055318,0.018174
0.111853,0.0311196
0.140372,0.0460334
0.157782,0.0354106
0.0325057,0.000431496
0.147214,-0.0226594
0.298771,-0.0265952
0.419562,-4.63e-05
0.403265,0.0087346
0.120084,0.020779
-0.165428,0.0115931
-0.179866,-0.0465379
-0.152073,-0.0802736
-0.0999863,-0.0732388
-0.0469067,-0.0498199
0.0769049,0.0112493
0.151466,0.00479584
0.0148945,0.0556322
-0.0146249,0.0940622
0.0936616,0.0569643
0.0337319,-0.0067572
-0.214352,-0.052798
-0.294901,-0.0194866
-0.123021,0.0174193
0.0633883,0.00371661
0.201279,-0.0376639
-0.00232425,-0.0374651
-0.168944,-0.00509355
-0.155031,0.0469309
-0.256862,0.0568534
-0.23701,0.029013
-0.170689,-0.0211592
-0.0285082,-0.112957
0.287326,-0.0962322
0.464948,0.0342227
0.540308,0.0346889
0.130903,0.0205015
-0.106841,0.0139745
-0.213955,0.013034
-0.217227,0.017836
0.253564,0.00802888
0.546021,0.0165742
0.278433,-0.0182984
-0.0832897,-0.0117829
0.168688,0.023515
0.448534,-0.00238701
-0.376458,0.0395631
-1.03985,0.0272619
-0.591406,-0.0335509
-0.333282,-0.0117875
-0.358738,0.0115153
-0.233966,0.00391218
-0.0481727,0.0137101
0.0447666,0.0147385
0.0667206,0.0194082
0.203918,0.00377618
0.305119,-0.0281903
0.13435,-0.0390808
0.0510626,-0.00992675
0.0959937,0.0177845
0.140642,0.0285593
0.270395,0.028648
0.32139,-0.00114136
0.133175,-0.0309582
-0.0634752,-0.0219305
-0.0852347,-0.00930445
-0.187007,-0.00969571
-0.195434,-0.00449755
-0.0574406,0.0150936
0.012554,0.0439667
0.205802,0.0460526
0.386465,0.00697504
0.254564,-0.0626425
0.0606534,-0.082393
0.0258069,-0.0231839
-0.0394889,0.0126661
-0.328135,0.0486906
-0.489786,0.0913234
-0.196949,0.0524236
0.208208,-0.049414
0.368374,-0.105371
0.349781,-0.0828768
-0.0669472,-0.0373776
-0.389491,0.0332008
-0.352085,0.0225856
-0.212015,0.0427148
-0.01162,0.0338106
0.0629267,-0.0602416
0.12849,-0.122414
0.0963693,-0.0317272
0.0325328,0.055836
0.0567776,0.0588785
-0.00483662,0.0477407
-0.121694,0.0176192
-0.173361,0.00479256
-0.10396,0.0129641
-0.0948163,0.0191931
-0.0932513,0.010856
0.0152465,0.0319123
0.151361,0.0468403
0.163114,0.000327027
0.181953,0.00335125
0.141374,0.0218588
0.0101733,0.000968113
-0.0552984,-0.0223896
0.0588351,-0.0358703
0.385891,-0.060864
0.463462,-0.079028
0.202517,-0.0362006
-0.133007,0.0207008
-0.264898,-0.00631381
-0.436385,-0.00518456
-0.39667,0.0211383
-0.256848,0.0167916
-0.221339,0.0185223
-0.153078,0.0380575
-0.04144,0.0480428
0.103892,0.0896482
0.0418661,0.044633
-0.00511097,-0.0121778
0.12734,-0.0302089
0.35051,-0.0319949
0.60825,-0.0146249
0.691634,-0.0129599
0.383505,-0.034496
0.00162942,-0.0623035
-0.279896,-0.0905839
-0.265567,0.0417944
-0.420946,0.0274623
-0.576313,-0.019005
-0.37405,-0.0245109
-0.180306,0.0204062
-0.0408737,0.00637074
0.0603725,0.00458446
-0.000155105,0.0153305
-0.131683,0.0304809
-0.13871,0.0520658
0.0374853,0.0247409
0.346153,0.0263392
0.439795,0.00262348
0.111107,-0.0277331
-0.428316,0.00798176
-0.403144,0.026892
0.139691,0.0115589
0.643507,-0.0279476
0.807109,-0.0590805
0.506782,-0.0583416
-0.291314,-0.0541092
-0.777824,-0.016863
-0.464098,-0.0182011
-0.196588,-0.0131328
0.0204856,0.00867349
0.202065,0.0358571
0.178406,0.0379873
0.134233,0.0323843
0.0227486,0.00631124
-0.104113,-0.0606204
-0.15516,-0.0265263
-0.042928,0.0810737
0.0407699,0.0756605
-0.0758273,0.0281655
-0.215394,-0.048751
-0.110092,-0.0693628
0.0369272,0.00788919
0.126266,4.5e-05
0.211184,-0.0240428
0.16989,-0.0225263
0.0321198,-0.0153784
-0.17579,0.0102153
-0.188789,0.0275469
-0.0431823,0.048655
0.0856703,0.0387542
-0.00619568,-0.000145165
-0.105987,0.0071451
0.107266,-0.00116025
0.0930943,0.0187267
0.0658306,0.0217955
0.374894,-0.00951195
0.446026,-0.0240558
0.322273,-0.00600359
0.0135586,0.0203742
-0.334979,0.0258994
-0.0662438,0.0279546
-0.00821991,0.00385022
-0.203749,-0.0268877
-0.282805,-0.0382979
-0.158809,-0.0440698
0.0912047,-0.0190207
-0.0454908,0.0105297
-0.323824,0.0188622
-0.390844,0.00479057
-0.136569,0.00354629
0.292671,-0.0111464
0.380954,-0.0269775
0.0863716,0.00212409
-0.382803,0.00614613
-0.303323,-0.0560578
-0.0289845,-0.0873845
0.268775,-0.035487
0.449525,0.0348005
0.491232,0.0256132
0.100302,-0.00193601
-0.201519,-0.0148878
-0.185131,-0.0268602
0.0242937,0.0395499
0.034995,0.0395967
-0.237673,0.0310851
-0.486608,0.0496029
-0.241371,0.0818148
0.117711,0.0306576
0.00424666,-0.0283455
-0.102731,-0.0160101
-0.00172474,-4.93e-05
0.155142,0.0157655
0.233532,-0.00830435
0.198671,-0.0351815
0.0435015,-0.0338336
-0.0696622,0.010526
0.138379,0.0203291
0.321731,0.0185351
0.24225,-0.0015177
0.0177674,-0.0422252
-0.306388,-0.0250497
-0.348942,-0.0267487
-0.290612,0.0193284
-0.0948694,0.0833244
0.329803,0.0686641
0.541042,0.00918172
0.594672,-0.0607284
0.28498,-0.0537199
-0.147048,-0.0427809
-0.450255,-0.0110315
-0.382011,-0.0204871
-0.223705,-0.0657126
-0.116461,-0.0278155
0.0778181,0.020305
0.0722674,0.0310772
-0.0254018,0.0149821
-0.0973454,0.00640298
-0.200848,0.0396991
-0.247849,0.0113607
-0.219036,-0.053405
-0.101166,-0.0411544
-0.0244894,0.0450299
-0.0142607,0.0733855
0.106515,0.0711049
0.150681,0.0278728
0.166063,-0.0220053
0.190109,-0.0257115
0.163273,0.00753644
0.152449,0.0078842
0.0951914,0.0302812
0.0878972,0.0276609
0.0521242,-0.023294
-0.0511976,-0.113761
-0.162023,-0.0817217
-0.357427,0.0251196
-0.236349,0.059621
0.0447099,0.0340443
0.331896,-0.010015
0.68212,-0.0194417
0.575337,-0.0327681
0.0977364,-0.0395028
-0.596516,0.0451718
-0.727391,0.0402903
-0.307915,0.00591929
-0.134693,-0.0159539
-0.0666068,-0.0316966
-0.0892055,-0.0120359
0.133345,0.0276224
0.462788,-0.0257015
0.347013,-0.0659823
-0.0925274,0.00162135
-0.439077,0.0196831
-0.309817,0.023149
-0.0248996,0.02147
-0.0177508,0.0249453
0.0954356,0.027352
0.436577,0.0293901
0.771112,0.0475875
0.824296,0.0566918
0.154621,0.0356169
-0.640647,0.0165532
-0.766694,0.0173339
-0.491925,0.0170443
-0.0903123,-0.0338635
0.132359,-0.0808018
0.101104,-0.0334283
-0.158142,-0.0140608
-0.334832,-0.0366075
-0.135301,-0.023708
-0.0128308,-0.0694123
-0.0351255,-0.0266532
-0.0610085,0.0355704
-0.0026838,0.046114
0.173052,-0.0030666
0.236966,-0.0373557
0.198715,-0.0163145
0.201312,-0.0107808
0.18907,-0.0395788
0.210327,-0.0221401
0.0847767,-0.00441903
-0.0964224,0.00209483
-0.199439,-0.0125343
-0.198113,-0.00120847
-0.0653276,0.0169582
0.0299528,0.0295815
-0.016576,0.0323385
-0.0711841,0.0369792
-0.120741,0.0326192
-0.160382,0.00122746
-0.0847803,-0.0229618
0.182375,-0.0117273
0.319532,0.0232843
0.238058,0.00845125
-0.0788756,-0.0417978
-0.247537,0.0180561
0.0201563,0.0606368
0.129886,0.0121527
0.311798,-0.0292079
0.512398,-0.0332861
0.420969,-0.0311334
0.0187371,-0.0078689
-0.520053,0.0264846
-0.40621,0.0389942
-0.206237,0.0389204
-0.152984,0.0412309
-0.189288,0.0442945
-0.26895,0.0224848
-0.164487,-0.0367201
-0.0135692,-0.03607
-0.121504,-0.0161368
-0.192714,-0.0181389
0.0399468,-0.0194313
0.312825,-0.0213708
0.338243,-0.0523901
0.167613,-0.0787479
-0.0361343,0.00983427
-0.0800496,0.0264583
0.0832707,-0.0100394
0.153303,-0.07946
-0.0162378,-0.0256583
-0.250566,0.104068
-0.101743,0.0776757
0.148868,0.0197897
0.223784,-0.0172909
0.178619,0.0363859
0.175478,0.0226653
0.345148,-0.0379744
0.191313,-0.0362837
-0.231815,0.00478811
-0.49425,0.0344283
-0.436566,0.020074
-0.30033,-0.0264864
-0.0791409,-0.023263
0.079146,-0.00568104
0.0481068,0.0367503
-0.0461321,0.0511529
-0.00578055,0.0418858
-0.0231692,0.0353119
-0.00173746,0.0192423
0.0154245,-0.0258552
0.0687837,-0.0763374
0.110557,-0.0812979
0.0459193,-0.0586238
-0.042279,-0.00341434
-0.0630434,0.0320678
0.245997,0.0516136
0.535865,0.0456807
0.509897,-0.0071546
0.114545,-0.0284717
-0.386024,0.00374053
-0.239786,0.0480617
0.00451576,0.0581161
0.0942551,-0.0247394
0.0540689,-0.0898497
-0.205381,0.0103167
-0.217963,0.0280492
-0.037207,-0.0205104
0.0574413,-0.0149033
0.00416307,-0.0227743
-0.357418,0.000727421
-0.375594,-0.00226377
-0.0325391,-0.00609221
0.0182827,0.00852647
0.0436333,0.0465901
0.124802,0.0332653
0.323737,-0.0138815
0.495541,-0.0315504
0.318453,-0.0130622
-0.00674558,-0.0217438
-0.338111,-0.0111717
-0.23309,0.0223915
-0.0848227,0.0578942
-0.107209,0.0138305
-0.0347072,-0.0714725
0.0530175,-0.10328
0.0149105,-0.0156991
-0.13821,0.0734374
-0.168766,0.040111
-0.221287,0.0148741
-0.172122,0.0368781
0.0346982,0.0443056
0.0858206,-0.0243922
0.0503416,-0.0556254
0.0298739,0.00292563
0.0682169,0.0506834
0.125657,0.029682
0.137438,-0.0721723
0.101428,-0.0826184
0.107523,-0.00478406
0.088293,0.0156051
0.0353113,-0.00495617
-0.012019,0.00350552
-0.0694118,0.00739689
-0.0730513,0.00392532
0.0340308,0.0179043
0.181575,0.0258432
0.228188,0.0107131
0.151645,-0.0019773
-0.0565702,-0.0183574
-0.313846,-0.00147291
-0.262066,0.00314527
-0.145557,0.0252539
-0.0762505,0.0273701
0.00942494,0.0413202
0.157519,0.0393443
0.4345,-0.0194387
0.520357,-0.0729906
0.212675,-0.100711
-0.336047,-0.0908232
-0.749214,0.0292039
-0.371793,0.0482062
-0.00344372,-0.00276107
0.197548,0.0107405
0.447667,0.0441401
0.477748,0.0365086
0.00596752,-0.00673032
-0.50242,-0.0329513
-0.48699,-0.0170516
-0.180849,0.0160858
0.0391543,0.0509698
0.0959077,0.048458
0.0313694,0.0202071
-0.15302,-0.0173941
-0.192365,-0.00563239
-0.0981154,0.0294646
0.00943476,0.0306678
0.10466,0.00973314
0.147403,-0.00824114
0.138025,-0.035369
0.089973,-0.0569087
0.0856291,-0.0610988
0.0963576,-0.0456302
0.106213,-0.0580672
0.0962471,-0.0154894
0.0931182,0.00469739
0.0645021,-0.0298227
0.0362495,0.0224752
0.059107,0.0653373
0.127364,0.0158117
-0.0755101,-0.0211448
-0.290116,0.000231113
-0.265741,0.0470896
-0.234757,0.0267074
-0.053221,0.00265651
0.137265,0.0120509
0.249022,0.0367771
0.212366,0.0302212
0.00319743,0.00047748
-0.164128,-0.0310159
-0.228923,-0.0468644
-0.0781969,-0.0249733
0.0914889,-0.0231234
0.144061,-0.00722305
0.0402564,0.031212
-0.100798,0.0526089
-0.101221,0.0462941
0.0169737,0.0640623
-0.0121375,0.0421466
-0.053763,0.0213893
-0.0299527,-0.00452732
0.17957,-0.0186145
0.265176,-0.00103972
0.0966408,-0.00592025
0.0259943,-0.0183134
0.0945316,-0.00945772
0.207575,-0.0318583
0.00204279,-0.0879715
-0.377989,-0.0104973
-0.518494,0.0341663
-0.286257,0.00650573
-0.0383182,-0.0135283
0.0923811,-0.00346705
0.269066,-0.0308306
0.300208,-0.0573595
0.241541,-0.0432341
0.129562,-0.0449163
-0.00433362,-0.019627
0.0452458,-0.017982
-0.0521566,-0.00555992
-0.27067,0.032402
-0.340065,0.0312697
-0.336703,0.0469838
-0.0953388,0.0319909
0.162528,0.0164456
0.276106,0.0471236
0.356773,0.03191
0.1169,0.0118986
-0.149096,-8.22e-05
-0.397814,-0.0402206
-0.402854,-0.00112013
0.0464198,-0.00319341
0.311042,-0.00442461
0.21377,0.00109939
-0.196205,0.0244192
-0.440718,0.045561
-0.194984,0.0347415
0.375815,0.000723197
0.615096,-0.0104854
0.348759,-0.0444688
-0.0509778,-0.0647889
0.273831,-0.0552132
1.00538,0.00206667
1.01292,-0.00685092
0.156188,-0.0365549
-1.10687,0.0285238
-1.4791,0.0663175
-0.992001,0.0370151
-0.492593,-0.0159527
-0.172094,-0.0682409
0.095012,-0.0608888
0.197417,-0.0218354
0.127138,0.0270277
0.126468,0.0583401
0.252214,0.0580577
0.165969,0.0421135
0.110287,-0.00604978
-0.0217305,-0.0904405
-0.0728753,-0.0509547
-0.185221,0.0422281
-0.231779,0.0657958
0.00218075,0.0233239
0.225827,0.00106545
0.515184,-0.00435951
0.643681,-0.004784
0.572223,0.00281526
0.289109,0.00868169
-0.186806,0.00605466
-0.49073,0.0137076
-0.61506,0.00880996
-0.515445,-0.00432854
-0.171378,0.0128616
0.0835457,0.00597995
0.225265,-0.00296326
0.316416,0.024054
0.360328,0.000856071
0.244408,-0.0168926
-0.122355,-0.00856997
-0.446166,0.00904688
-0.311196,0.00494222
0.0181916,-0.0127468
0.333357,-0.0139425
0.591169,-0.0119269
0.498953,-0.0113315
-0.121209,-0.00447897
-0.534239,0.00291962
-0.356207,-0.009236
-0.350931,0.0207405
-0.216515,0.00758665
-0.135755,-0.14535
-0.0943973,-0.120895
-0.00348429,0.0535062
-0.0368017,0.0302545
-0.046104,0.0193382
-0.00873815,0.0116033
0.139448,0.0136984
0.308928,0.0193951
0.150016,0.0161274
-0.0850901,-0.0335752
-0.0302085,0.00611736
0.117698,0.0440357
0.141297,0.0399049
-0.0122857,0.0131426
-0.0988102,-0.0106429
0.233403,0.00319621
0.676442,0.0257612
0.698847,0.0136211
0.0991638,0.00639922
-0.449226,0.0155138
-0.330563,0.0163033
-0.377155,-0.00163504
-0.499778,-0.0116745
-0.267643,-0.0329387
-0.148258,-0.00592447
-0.143958,0.00293086
-0.210464,-0.00536492
-0.122435,0.0109098
0.0703904,0.0309226
0.133916,0.0100191
0.0663385,-0.05278
-0.0568461,-0.0537944
-0.0872818,-0.0319701
0.0387721,-0.0110668
0.14989,-0.0110279
0.163479,-0.0674655
0.0645913,-0.0144428
0.112887,0.0813867
0.261866,0.0515052
0.257908,-0.00972894
0.237951,-0.0245459
0.315276,-0.00470329
0.343862,0.0101228
0.28826,-0.0408099
0.0317086,-0.0675908
-0.25928,-0.014676
-0.438655,0.0244235
-0.494964,0.0510825
-0.523203,0.0424491
-0.468626,0.0315897
-0.192606,0.0457299
0.0282582,0.0259927
0.115962,0.010804
0.0539964,0.0165885
-0.00297845,0.0350361
0.0939692,0.0177772
0.406525,-0.0184698
0.546999,-0.0328326
0.278048,-0.0513832
-0.257497,-0.0443084
-0.36137,-0.00963421
0.130168,0.00135474
0.311662,0.00717091
-0.0263863,0.00749658
-0.342957,-0.024194
-0.348442,0.00478861
-0.120226,0.0200341
0.0871338,-0.000983929
0.146468,0.0199864
0.112303,0.0356543
-0.0118808,0.0406728
-0.0924828,0.00802516
-0.0163273,-0.034502
0.0237507,-0.0470386
0.00638448,-0.0212249
-0.0955309,-0.012693
-0.186574,-0.0053774
-0.0210897,0.0117689
0.221346,0.027087
0.403766,0.0217685
0.2961,0.00527169
0.117623,0.0186189
0.121772,0.0453915
0.150526,0.0650385
-0.0271732,-0.0249186
-0.424477,-0.0895525
-0.468674,-0.0402733
-0.308803,-0.00757927
-0.17277,0.0111965
-0.0183221,0.0201119
0.0764806,0.0179619
0.0888367,-0.0126224
0.0284092,-0.0220037
-0.0290953,-0.00684469
-0.0656589,-0.0109837
0.00675454,-0.0416997
0.0870908,-0.0897926
0.10797,-0.0906463
0.128337,0.0445006
0.194338,0.069068
0.23079,0.0428366
0.114174,-0.00128695
-0.108058,-0.0542577
-0.242646,0.0139126
-0.140806,0.0599667
0.0247212,0.0421959
0.192036,0.0291421
0.167592,0.0186595
0.0346492,0.0362559
-0.00597318,-0.036397
-0.0668005,-0.0521722
-0.0797982,0.01156
-0.198976,0.026621
-0.131915,0.00721516
0.0737961,0.00590881
0.0848536,0.0143819
0.207222,0.0129767
0.336036,-0.0231279
0.259862,-0.0291243
-0.27739,-0.0193072
-0.692306,-0.0263315
-0.466675,-0.0186503
-0.208166,0.0197785
-0.052227,0.0252023
0.0569394,0.0122772
0.0846907,-0.00339517
0.0290532,-0.0153259
0.0333279,0.000150641
0.229343,0.000723777
0.435582,0.0127871
0.425273,0.0309231
0.105943,0.0339542
-0.322126,0.0210995
-0.392859,-0.00743742
-0.121972,-0.0319354
0.148662,-0.00877379
0.374191,0.00221156
0.484132,-0.0193101
0.452864,-0.0188558
0.311204,-0.013145
-0.0638418,0.0213677
-0.429787,0.0349006
-0.559945,0.0101128
-0.448935,-0.0701149
-0.310756,-0.156413
-0.187083,-0.109518
-0.111844,0.0224405
-0.0310887,0.125074
-0.0370461,0.0929205
-0.0813867,0.0456694
-0.126403,0.0395607
0.0619425,0.0371832
0.251842,-0.0186813
0.303899,-0.0648436
0.299548,-0.0360357
0.237716,0.00119524
0.234547,0.022959
0.118391,0.0284816
-0.159168,-0.00841726
-0.320207,-0.0751651
-0.315798,-0.0105118
-0.0190852,0.0446592
0.159957,0.0435155
0.0184518,0.0512143
-0.148695,0.041101
-0.232071,0.0126468
0.0496575,-0.00826363
0.786786,-0.0291479
1.07899,-0.0514063
0.570399,-0.0738231
-0.665684,-0.0425734
-1.35509,0.0139871
-0.715478,0.0477256
-0.0659509,0.0198128
0.182667,-0.00546738
0.116044,-0.00201819
-0.121742,-0.00659083
-0.107917,-0.0104698
-0.0319579,-0.0205281
-0.00409629,-0.0104151
0.11139,-0.00196644
0.244933,0.0341589
0.452381,0.0210897
0.495324,0.0155272
0.276723,0.013133
-0.141332,-0.000549016
-0.536428,-0.0234974
-0.388149,-0.000415113
-0.216547,0.0223005
-0.0949478,0.0183252
0.0844217,0.0191175
0.203871,0.0128359
0.115024,0.00520196
0.00330658,0.00224155
0.0455515,0.00484078
0.0230025,-0.0537106
0.0336556,-0.0862489
0.203915,-0.0370681
0.0494008,0.0663198
-0.161099,0.0413027
-0.204068,-0.0111977
-0.157412,-0.0131037
-0.0192651,0.00512991
0.100926,-0.0149426
0.0781309,-0.0410028
0.0425744,-0.0558381
0.0651851,-0.0197698
0.0700212,0.0697398
-0.0290367,0.0645465
-0.0169653,0.0140504
0.157942,-0.00740651
0.268004,0.00203498
0.226272,0.0165707
0.190211,0.0287294
0.0704932,0.0105584
-0.165085,-0.0346682
-0.417963,-0.0337047
-0.555726,0.0230372
-0.388041,0.0201739
-0.105197,-0.0179795
0.0651149,-0.00481731
0.140033,0.00576098
0.170269,-0.0337679
0.247737,-0.0584424
0.289321,-0.00365551
0.136345,0.0454104
-0.134932,0.0377346
-0.0869285,0.0296923
-0.00670893,0.0206539
-0.0747275,0.00723825
-0.0958916,0.0120896
-0.104062,0.0013255
-0.0845663,-0.0132538
-0.109968,0.000513794
-0.172095,-0.00382005
-0.125474,-0.00924829
0.0475698,-0.000146041
0.187657,-0.00349103
0.141315,-0.0296183
0.0330446,0.00787313
0.0501466,0.00856119
0.202887,-0.0253983
0.357015,-0.0133625
0.381043,0.00416082
0.116849,-0.0216266
-0.31153,-0.0406006
-0.477534,0.00680827
-0.279478,-0.0301362
-0.0255244,0.013732
0.193422,0.0416701
0.331313,0.0226792
0.442696,0.00180643
0.420824,-0.0180896
0.0147461,-0.0306471
-0.202565,-0.0211412
-0.334765,0.0348424
-0.375177,0.0652938
-0.287502,0.0411579
-0.38672,-0.0123917
-0.212803,-0.020993
0.0750191,-0.0370805
0.0726007,-0.0645022
-0.128862,-0.015761
-0.203693,0.0128635
0.00580735,0.00213947
0.103223,0.0378398
0.103629,0.0494577
0.187165,0.0116052
0.221711,-0.0163048
0.258448,-0.0295968
0.12069,-0.0153233
-0.0636663,0.00680276
-0.235607,0.0114692
-0.280198,0.0246282
-0.0676141,0.0307524
0.0603973,0.000153341
0.0853271,6.65e-05
0.0801026,0.0182062
0.122639,0.0177216
0.208366,0.0069992
0.194575,0.0044256
0.0526032,-0.00126509
-0.0734036,-0.0198548
-0.0792526,-0.0276256
-0.119022,-0.00325247
-0.169364,-0.0154588
-0.0574151,-0.04308
0.0391861,-0.0330508
0.0604562,-0.0456224
-0.0186432,-0.0443543
-0.124803,0.0260571
-0.0569226,-0.0355452
0.0652499,-0.0528501
0.0959611,-0.00476814
0.0443551,0.0815515
-0.00428886,0.0733131
-0.0234986,0.0354143
-0.00603234,0.0160032
-0.0219897,-0.0205889
-0.0625574,-0.0367228
-0.0441151,0.0212605
0.015961,0.0291016
0.0743269,-0.000450346
0.161554,0.0207511
0.315135,0.0305187
0.446781,0.0149803
0.322974,0.0149774
-0.103358,0.0190517
-0.473284,0.0206466
-0.247851,0.0276334
-0.000476343,-0.0240137
-0.163442,-0.0224393
-0.292144,-0.01166
-0.281579,0.00520054
0.0048162,0.00855069
0.337302,0.00217245
0.61407,-0.0120245
0.67798,-0.0307602
0.133267,-0.0291076
-0.513884,-0.0151421
-0.746892,-0.00829931
-0.658272,-0.000649512
-0.357436,0.0167936
-0.0974319,0.0178465
0.101802,-0.0275898
0.265375,-0.0487274
0.290867,-0.0187556
0.19719,-0.0250787
-0.00665776,-0.0198455
-0.0766303,0.0511648
0.0794346,0.0689428
0.137753,0.0285639
0.033253,0.00984503
-0.138967,0.00205545
-0.290492,0.00116248
-0.197063,-0.0072685
0.000927351,-0.0089525
0.161743,-0.0180334
0.276054,-0.0228902
0.272682,-0.0021676
0.25991,0.0082883
0.133609,-0.0158577
-0.0147849,0.00223816
-0.0803621,0.00653177
-0.207605,0.0176181
-0.231492,0.0193575
-0.135259,-0.00506993
-0.000340914,-0.0347029
0.0617658,-0.0270505
-0.015092,-0.0180125
-0.158054,0.00168408
-0.23266,-0.000923367
-0.11381,0.00440234
0.0418879,0.0189916
0.118748,0.0261203
0.14352,0.0235807
0.24435,0.0132611
0.569833,0.00528834
0.84514,-0.0130009
0.508537,-0.0316157
-0.221749,-0.0219633
-0.500658,0.0197145
-0.221727,-0.0160526
0.215733,-0.0258075
0.143247,-0.00616598
-0.291935,-0.0702342
-0.65858,-0.0259954
-0.599007,0.0650587
-0.310432,0.0474818
-0.0947481,0.0330367
-0.061771,0.00795974
-0.0640298,0.00169877
-0.0478008,0.0119083
-0.0586037,0.0101758
-0.0177502,0.00520971
0.0503155,-0.018877
0.102445,-0.0415351
0.110282,-0.012442
0.0769741,-0.00854459
0.0426087,-0.0232077
0.028386,-0.00651543
0.0800118,0.0535676
0.160168,0.0751212
0.187594,-0.0014488
0.264067,-0.0271024
0.425063,0.00124589
0.577651,0.0203407
0.391751,0.0199293
-0.154247,0.00466957
-0.561655,-0.0012141
-0.597079,0.00261765
-0.37159,-0.0209766
-0.200249,-0.047189
-0.126829,-0.0491403
-0.0399043,-0.029938
-0.00713115,0.045194
0.00621863,0.0749371
0.0418596,0.0550496
0.227984,0.0243921
0.509266,-0.0105964
0.478663,-0.0259854
0.182623,-0.0214019
-0.446369,-0.0325186
-0.523105,-0.0759605
0.0348144,-0.0328508
0.27008,0.0225982
0.108195,0.0267837
-0.13092,0.0105526
-0.277463,0.0151399
-0.237783,0.0179701
0.0633288,0.00514834
0.32528,-0.00571801
0.299121,0.0299726
0.0709441,0.0439916
-0.205651,0.029817
0.0116946,0.0216963
0.208417,-0.0906603
0.000549822,-0.171774
-0.251121,-0.155384
-0.451434,0.0173117
-0.336541,0.0965562
-0.121878,0.0475179
-0.0732156,0.0429794
0.0107991,0.0375472
0.099619,0.0419408
0.129141,0.0421014
0.138651,0.0230825
0.121582,-0.00879713
0.157974,-0.0284845
0.236576,-0.0245302
0.166396,-0.0126471
-0.06029,0.00841816
-0.346963,0.032232
-0.366616,0.0124702
-0.148666,-0.0207553
0.0086041,0.0149791
0.0999765,0.0012657
0.201498,-0.0337561
0.27542,-0.0382348
0.362834,-0.0152523
0.491693,-0.0393497
0.450832,-0.0124234
0.0811835,0.023899
-0.336776,-0.00265094
-0.638909,0.00982345
-0.569916,0.0277224
-0.245045,0.0172227
0.0153696,0.00152804
0.196113,0.0134286
0.358149,0.00537587
0.297962,0.0184298
0.0750661,0.0272427
-0.155863,0.00862606
-0.378405,-0.00400315
-0.321598,0.0152667
-0.0341984,0.0385929
0.0836217,0.0181849
-0.0227189,-0.0179821
-0.0759104,-0.0294952
-0.0394998,-0.0231149
-0.00371607,-0.0134292
-0.00757051,-0.00369163
0.013273,-0.0143665
0.0612419,-0.0255544
0.0585307,-0.00772988
0.039127,-0.00153293
0.0266019,0.00655555
0.0180449,-0.00283661
0.0390349,-0.00675831
0.137222,0.0027916
0.273337,0.00900621
0.282413,0.00968115
0.0435386,0.0156474
-0.243529,0.0192046
-0.254949,0.000778751
-0.0736178,-0.0422842
0.0377337,-0.037202
0.00536959,-0.0502554
-0.0773896,-0.0318189
-0.123087,0.000294191
-0.0476358,0.00740875
0.0823098,0.0330945
0.317171,0.0673217
0.692301,0.0444758
0.681902,0.00625183
0.153295,-0.0223771
-0.628519,-0.0135922
-0.967504,0.00947923
-0.568171,0.00796859
-0.229061,0.00852969
-0.00907345,0.00539872
0.184007,-0.0260123
0.232553,-0.0438953
0.104461,-0.0145227
-0.118205,0.0163413
-0.201817,0.022718
-0.113596,0.0224501
0.0937301,-0.0135609
0.413777,-0.0521399
0.504075,0.00264551
0.211828,0.0478664
-0.267617,0.0445246
-0.446325,0.0365499
-0.107159,0.00897481
0.206101,-0.0406143
0.161563,-0.0629748
0.00264165,-0.0249977
-0.0226148,0.0340759
-0.0287201,0.0463696
-0.0732229,0.0236744
-0.125072,-0.00566922
-0.226954,-0.0077411
-0.173998,-0.028142
-0.0855678,-0.0519512
0.00162697,-0.00571758
0.122858,0.0320325
0.140559,0.0199596
0.0289364,-0.00555005
-0.0137541,-0.0328455
0.424363,-0.0377515
0.699276,-0.00995561
0.324261,0.00273013
-0.0838085,0.0155986
-0.244749,0.0241548
-0.201747,0.0304211
-0.134372,0.016428
-0.252378,0.00452957
-0.263063,-0.0196725
-0.115044,-0.0368034
0.0681556,0.00382304
0.0953537,0.0257501
0.0202423,0.0292247
-0.18975,0.0181222
-0.336906,0.0148337
-0.261424,0.00349786
-0.140342,-0.0314758
-0.0249185,-0.0178841
0.0474619,-0.0205118
0.0648114,-0.0140805
0.130738,0.0134825
0.18846,0.0107801
0.294285,-0.0441002
0.339488,-0.0713146
0.258263,-0.011642
0.054456,0.00353049
0.00190066,0.0196311
0.0949787,0.0571216
-0.0499154,0.0321127
-0.235463,0.007411
-0.292907,0.0101101
-0.206516,0.00681601
-0.0686395,0.000540679
0.178449,0.000694053
0.341152,0.00682534
0.216766,0.0167881
-0.1367,0.0170413
-0.249922,0.0188833
-0.12432,0.0102479
0.0189518,0.0211435
0.154622,0.0458513
0.280531,0.0506964
0.187832,0.0121196
-0.115342,-0.0593085
-0.226086,-0.0699019
-0.185072,-0.0526198
-0.110433,-0.034416
-0.0739554,-0.0621087
-0.0726101,-0.119403
-0.127072,-0.103456
-0.135231,0.0629227
-0.0533311,0.098326
-0.0103141,0.0536876
0.0307695,0.037658
0.0946571,0.036212
0.121197,0.0236473
0.0874558,0.00484597
0.0428614,0.00636581
0.0302226,0.0131357
0.0769686,0.0213915
0.182446,0.0180038
0.277968,-0.000270886
0.319768,-0.0123244
0.168371,-0.00385616
-0.0947806,-0.00111168
-0.386041,-0.00112275
-0.489109,-0.00466611
-0.197047,-0.0202748
0.096589,-0.0330332
0.214363,-0.0437597
0.132247,-0.0280805
-0.0056792,0.0186129
0.0939586,0.00857821
0.262548,-0.0109529
0.187409,-0.00843481
-0.154684,0.0107299
-0.481734,0.0314314
-0.324149,0.0364755
-0.10353,0.00485752
-0.148479,-0.00156959
-0.213745,0.00782429
-0.0986176,0.00528303
0.118597,-0.0108385
0.171187,-0.0233874
0.214678,-0.041084
0.425557,-0.0498296
0.395597,0.0246417
0.239895,0.0539296
-0.145627,0.00964499
-0.472826,-0.0280587
-0.328548,-0.0152232
-0.0631533,-0.00040165
0.194371,0.00830352
0.29433,0.0151971
0.196984,0.0102319
-0.112973,0.00463279
-0.266789,0.0159043
-0.280694,0.0259647
-0.23401,0.0122536
-0.135811,0.0043898
-0.0195626,-0.00855079
0.0351953,-0.0547089
0.0181807,-0.0565637
0.0449428,-0.041814
0.102965,0.0104911
0.114575,0.0315182
0.0567988,0.0361654
0.0442213,-0.00856884
0.210191,-0.0164017
0.451611,0.000790905
0.426518,-0.00971549
0.0251345,0.01235
-0.467919,0.0351266
-0.461223,0.0295046
-0.179901,0.00289968
0.0593911,-0.00237589
0.158854,0.00976167
0.159736,0.00570977
0.126874,-0.00285901
0.12155,-0.000368148
0.100875,-0.0019535
-0.146176,-0.0255237
-0.331344,-0.0346157
-0.173406,-0.00197867
0.00576908,-0.0026128
0.0333259,0.00128597
-0.0126548,0.0151366
-0.0598815,0.0158518
-0.0744597,0.00514228
-0.169267,0.00331734
-0.144492,0.00558138
0.0118345,0.00738591
0.153976,0.00476482
0.201696,0.00607808
0.0664295,0.0172512
-0.0966573,0.0129182
-0.0565803,0.00772526
0.210777,0.00840196
0.420664,-0.013826
0.336564,-0.0562087
0.0444243,-0.0166892
-0.307439,0.00805452
-0.178287,-0.0103039
0.0861638,0.0170696
0.128816,0.0393546
0.126833,0.0519147
-0.284102,0.0181548
-0.512751,-0.0342412
-0.25645,-0.0413934
-0.0381221,-0.0246029
0.0217504,-0.00853293
0.0520163,-0.0013095
0.0852295,-0.00399731
0.123053,-0.00399761
0.230802,0.000960361
0.249443,-0.00283832
0.031446,-0.000811775
-0.257439,-0.0144638
-0.348317,-0.0499109
-0.0761717,-0.0387076
0.130226,0.0103993
0.248278,0.026422
0.182752,0.00302376
0.0215337,-0.00915528
-0.157334,-0.00321731
-0.264712,0.00130592
-0.119331,0.0270077
0.116713,0.0506218
0.317357,0.0691081
0.304759,0.035543
0.00500319,-0.0203963
-0.133437,-0.0572436
-0.0911377,-0.0329338
-0.100348,-0.00944391
-0.130091,-0.00739168
-0.170335,0.00813754
0.00660731,0.00791852
0.122944,-0.00693243
0.108012,-0.00573472
0.0435305,0.00031425
-0.0346946,-0.0016064
0.0330736,-0.00166954
0.064338,-0.0258759
-0.0606479,-0.00191555
-0.254598,0.0420003
-0.225103,0.051973
0.0152428,0.0461134
0.0906869,0.00642858
0.139045,-0.0126808
0.112011,-0.00385281
-0.0162563,0.035987
-0.000531374,0.00349882
0.278549,-0.0513217
0.400581,-0.0453939
0.248212,-0.0382554
-0.162714,-0.0273526
-0.417079,-0.0223951
-0.258876,-0.00825322
-0.185504,0.0284748
-0.190046,0.0132159
-0.15598,0.0205356
-0.0418846,0.0217498
0.0552198,-0.0263196
0.110525,-0.060283
0.260747,0.0460349
0.336948,0.0447656
0.22233,0.00548844
-0.0507573,-0.012596
-0.298955,-0.012147
-0.22664,0.0197482
-0.230768,0.0439103
-0.10748,0.0446151
0.116299,0.00315176
0.222669,-0.0190936
0.438712,-0.013519
0.472286,-0.01116
0.0728796,-0.0185152
-0.468499,-0.0216235
-0.519471,-0.018652
-0.108964,-0.0179033
0.0459605,-0.00164953
-0.0137038,-0.0336012
-0.0906665,0.00248227
-0.033799,0.0276754
0.013402,0.00604292
-0.0570882,0.00360117
0.0301576,0.0133017
0.416456,0.00231381
0.693601,-0.0154965
0.50129,-0.00926694
-0.148457,-0.000276772
-0.687765,0.00722174
-0.598816,0.0153757
-0.283956,0.0378043
0.0674089,0.071536
0.203762,0.0192044
0.0742526,-0.098178
-0.0619767,-0.070387
-0.0580352,0.00851839
-0.017829,-0.00492542
0.0263635,-0.0311489
0.0416675,-0.0162157
0.029436,0.0156561
-0.00790053,0.0172173
-0.0731876,0.00441605
-0.0792792,0.00816164
0.00222077,0.0168463
0.0994394,0.0185998
0.130606,0.00515518
0.098564,-0.0159247
0.133637,-2.62e-05
0.205485,0.0134167
0.107408,0.0189137
-0.117289,-0.00710521
-0.281366,-0.0139548
-0.16809,0.0107381
0.0631451,0.020791
0.132018,0.0011701
0.0201896,0.00440431
-0.157083,0.0100402
-0.133628,0.00235077
0.151777,-0.000916187
0.279497,-0.00744688
0.226435,-0.00823553
0.0330273,0.00273462
-0.0669626,-0.00662032
0.0679754,-0.0202273
0.189129,-0.0176789
0.013096,-0.00628917
-0.233128,0.013671
-0.16831,0.0197933
-0.153594,0.0113843
-0.288448,-0.00509175
-0.23092,-0.0124885
0.0216775,-0.028103
0.226734,-0.0435704
0.141716,0.012953
-0.0431016,0.00591915
-0.291605,0.00990919
-0.29471,0.00560791
-0.0739798,-0.0187695
0.0125177,-0.0112388
0.0648473,0.00898861
0.13565,0.0107269
0.211141,-0.015869
0.212907,-0.00692413
0.106657,0.0472879
-0.0683166,0.0519774
-0.0796039,0.0307079
0.0424274,0.0053557
0.0766798,0.0073842
-0.0252202,0.0163854
-0.133067,-0.00315714
-0.0827754,-0.0187321
-0.00877376,-0.0265405
0.0909296,-0.0208826
0.221652,-0.0146237
0.268171,-1.72e-05
0.17596,-0.0136785
-0.0379086,-0.0437294
-0.308715,-0.0181801
-0.321991,0.0236846
-0.131894,0.0103255
0.043825,0.0087189
0.0815887,0.0205527
0.0451868,-0.00165415
-0.0184371,-0.0157568
0.0281901,-0.000647567
0.155759,0.0132817
0.215657,0.0139682
0.067874,0.00517978
-0.16118,0.00436201
-0.181959,0.00329292
-0.174078,0.00143982
-0.123985,-0.00239516
0.0812398,-0.0123709
0.32997,-0.0241686
0.385497,-0.00827705
0.161659,0.000140857
-0.252474,0.00796651
-0.447694,0.0143443
-0.36498,0.0146658
-0.0691777,0.0115244
0.500199,-0.0185834
0.812471,-0.0117312
0.535052,0.0136854
-0.262241,0.0256941
-0.898567,-0.00507922
-0.64446,-0.0732099
-0.26309,-0.0550227
0.0386145,0.0122639
0.235446,-0.0153541
0.20041,-0.0127056
-0.02542,0.014224
-0.238361,0.0274158
-0.144651,0.0284896
0.00926145,0.0324809
0.085512,0.0334874
0.130285,0.0241869
0.147316,0.000212097
0.160156,-0.0116516
0.15339,-0.00264195
0.236919,0.00604051
0.18634,0.000239675
-0.00746741,-0.000287404
-0.104982,0.0215841
-0.10184,-0.00798288
-0.0806104,-0.0425419
-0.207484,-0.0139102
-0.212503,0.00512123
-0.074525,-0.00703808
0.0419719,0.00421641
0.0817326,0.0266383
0.0625947,0.01805
0.0809,-0.00237103
0.186894,-0.0137528
0.189833,-0.0127431
-0.0598563,-0.00898038
-0.412414,-0.00888852
-0.323734,-0.0103542
-0.0795747,-0.00600888
0.00721043,0.0091497
0.0811975,0.0098682
0.160869,0.00641654
0.282504,-0.00278422
0.375592,-0.0147138
0.364652,-0.0227631
0.270615,-0.0138095
0.085114,-0.00181809
-0.14404,0.0123551
-0.408778,0.0258314
-0.43049,0.0266907
-0.253677,0.0135883
-0.170444,-0.00237203
-0.143589,-0.00188812
-0.0582658,0.00259695
0.00270357,0.0058404
0.0266618,0.0114887
0.0303813,0.0103607
0.0335931,0.00177909
0.0355759,0.00576021
0.0492654,0.00294647
0.0552787,0.00297568
0.0487487,-0.00516633
0.0166557,-0.0126863
0.0242608,-0.0257154
0.137,-0.0527458
0.250046,-0.0447815
0.220732,0.00169932
0.0282112,0.0179615
-0.184665,0.00667552
-0.21147,0.00899984
-0.113236,0.011221
-0.0394923,0.0105356
-0.00334123,0.00600077
0.049626,-0.000212284
0.129086,0.00615868
0.197122,0.0131137
0.143162,0.00885268
-0.0832778,0.000159256
-0.226581,0.00102755
-0.194846,-0.0106621
-0.112298,-0.00739355
-0.0152474,0.000382804
0.0257808,-0.0276911
0.0682561,-0.0163555
0.21895,0.0058582
0.262705,0.00703077
0.105018,0.00657992
-0.152267,-0.00217309
-0.258416,-0.004334
0.0778824,0.00289994
0.359395,0.0110107
0.234268,0.0114068
-0.182696,0.00535486
-0.408071,-0.0112156
-0.230987,-0.00942698
-0.00537175,0.00239838
-0.0391787,0.0105887
-0.19169,0.0231065
-0.157162,0.0344161
-0.0373501,0.0292258
0.0149763,0.0171128
0.00140837,-0.0130731
-0.037234,-0.0315731
0.00472711,-0.0312445
0.122588,-0.026414
0.167172,-0.0150076
0.132457,-0.00790644
0.119066,-0.016637
0.145177,0.00965326
0.166358,0.0122646
0.091878,-0.0209121
-0.165624,-0.0171373
-0.205578,0.0214475
-0.0572746,0.0252883
0.0500419,0.0267562
0.203632,0.0263476
0.40796,0.0163776
0.389941,-0.0074389
0.0711775,-0.0328627
-0.485836,-0.0350964
-0.675821,-0.00665608
-0.360712,0.0285415
-0.114029,-0.0158706
-0.0406374,-0.0600242
-0.016347,-0.00232202
-0.00634085,0.0378504
-0.00401961,0.0373724
0.0485822,0.0109113
0.102899,-0.00507081
0.172732,-0.0136938
0.253393,-0.0263408
0.187268,-0.00778395
-0.00260446,0.0322041
-0.0440941,0.0269733
-0.0204398,0.00661051
-0.0624188,0.0099497
-0.0433847,0.0201127
0.0748849,0.0192676
0.156591,0.020277
0.0606629,0.0245251
-0.0627586,-0.00640541
-0.199552,-0.0200031
-0.194874,-0.00217534
-0.0477224,-0.0192886
0.0862856,-0.0326158
0.13096,-0.0236158
0.14165,-0.00376818
0.0389044,0.00596623
-0.0625274,0.00149425
0.0202088,-0.00371073
0.0121702,-0.00527832
-0.00777059,-0.00728051
-0.0727888,-0.00404729
-0.152792,-0.00171228
-0.0954364,0.000349809
0.103701,0.00755659
0.241351,0.00680098
0.280654,-0.00452155
0.210736,-0.00669099
-0.030875,-0.00214729
-0.225184,-0.0123909
-0.327157,-0.0201174
-0.32886,-0.00936939
-0.152452,-0.0154013
0.036638,-0.0258222
0.145777,-0.0189501
0.127665,-0.00215982
0.0147808,-0.00979987
-0.0931607,0.00829429
-0.102944,0.0405326
0.00767556,0.0297455
0.120753,0.0152092
0.149933,0.0051596
0.175153,0.0124944
0.0509264,0.0318893
-0.181958,0.0273868
-0.164862,0.00858204
-0.144494,-0.00720121
-0.125379,-0.00406898
-0.0797883,-0.0109719
0.0164923,-0.0159753
0.205522,0.00325259
0.438738,-0.0346381
0.506505,-0.0135592
0.316016,0.0248254
-0.0616735,0.00829282
-0.386813,0.00846037
-0.380253,0.0156988
-0.307957,0.0190605
-0.204277,0.00316744
-0.0594874,-0.00941813
0.0702506,-0.00105676
0.149092,0.005601
0.102817,0.00937817
0.0099054,0.00840682
-0.106937,-0.00735813
-0.113265,-0.03179
-0.0194016,-0.035708
0.00701166,-0.0253371
-0.0373501,-0.0231551
-0.0417344,-0.0259713
-0.00361814,-0.00570442
0.0463662,0.0143227
0.0794072,0.0262998
0.0459665,0.0138798
-0.0172152,-0.00407466
-0.0269417,0.0114428
0.0734992,0.00426799
0.312461,0.00115049
0.571288,0.0129399
0.819203,0.00522333
0.73262,-0.00584675
0.148574,-0.0179148
-0.615949,-0.0197052
-0.992648,0.0252768
-0.782709,0.0141408
-0.492358,0.00152685
-0.274299,0.0252117
-0.0996168,-0.00109531
0.0375545,0.00398412
0.0954326,0.0147721
0.0551505,0.0107771
-0.0177209,0.0200748
-0.0356208,0.0290436
-0.000372782,0.0340112
0.0470544,0.0158457
0.0709615,0.00171776
0.0497922,-0.00369018
0.0359009,-0.0218799
0.130139,-0.0354066
0.271937,0.000566489
0.257936,0.0110431
0.208948,-0.0160992
0.12937,-0.0431451
0.155987,-0.087235
0.117495,-0.148371
-0.0851271,-0.225306
-0.163571,-0.130483
-0.148629,0.000673304
-0.0857512,0.0598201
-0.0515427,0.10461
-0.138121,0.109805
-0.194245,0.0894113
-0.14551,0.0537402
-0.122262,0.0353894
-0.102064,0.0382565
-0.0120004,0.0423707
0.107359,0.0409595
0.144873,0.0341467
0.0444057,0.0266349
-0.0181511,0.0164499
0.00942431,0.00807376
0.115142,0.0131868
0.19968,0.00990184
0.150665,-0.000240678
0.0593979,-0.00351099
4.37e-05,0.00396323
0.0197641,0.00462512
0.0196114,-0.0103339
-0.118546,-0.0311947
-0.192597,-0.0500431
-0.148802,-0.0535406
-0.112649,-0.038825
-0.0530663,-0.0177606
0.0242581,0.0111734
0.049495,0.0453799
0.0191604,0.0763359
-0.0261393,0.082193
-0.00525257,0.0694254
0.0612298,0.0608338
0.109822,0.0447723
0.098621,0.0258391
0.0869774,0.00908291
0.0541203,-0.00670738
0.0537929,-0.0302063
0.0913221,-0.0386613
0.0494964,-0.0383856
0.0242311,-0.0604349
-0.0355546,-0.0546082
-0.125945,-0.0384769
-0.0792273,-0.049228
-0.0190515,-0.0534899
-0.134747,-0.0368357
-0.136468,-0.0217882
0.0561202,-0.00843086
0.191063,-0.00675409
0.14069,-0.0140767
-0.149519,-0.0142013
-0.272078,-0.00616652
-0.144343,0.00521128
-0.0708205,0.0146632
0.00272344,0.0109479
0.0607059,0.000644404
0.0559574,-0.0111415
0.014086,-0.0201559
-0.0379543,-0.0115224
-0.0302006,-0.00499125
0.0367703,-0.0140326
0.0565187,-0.00485444
0.0401838,0.00380303
-0.00534463,0.00722155
-0.0144003,0.00684209
0.0405467,0.0103974
0.065644,0.0161041
0.068607,0.0181866
0.0374719,0.0185483
-0.0122189,0.0190234
-0.0210255,0.0110108
0.0431641,0.00709876
0.156073,0.00218278
0.174501,-0.00516404
0.122743,-0.00825592
-0.0423818,-0.0118579
-0.140058,-0.00262692
-0.0801974,0.0147737
-0.051473,0.014028
-0.0339083,-0.00392117
-0.0531527,-0.0164501
-0.0829248,0.0153485
-0.0785731,0.0249132
-0.0201186,0.00851444
-0.0202396,0.00701498
-0.0718042,0.0151261
-0.0901974,0.00896901
-0.0535641,0.0122367
0.0416152,0.0121365
0.0983029,-0.000968966
0.0539052,-0.0132926
-0.00330567,-0.0114056
-0.0309908,-0.0052822
-0.0145407,-0.00213366
0.0574668,0.000185199
0.0577038,0.00417078
0.0136588,0.00246491
0.000261609,-0.00748918
0.0304747,-0.00665587
0.0715091,0.0023158
0.0691357,0.00869088
0.0304558,0.0105987
-0.0106147,0.0127934
-0.0157159,0.0140254
-0.00311308,0.00969872
-0.0134648,0.00248634
-0.0175771,-0.0114789
-0.0335989,-0.0210376
-0.0158377,-0.0222677
0.124856,-0.0315306
0.201442,-0.0505905
0.0744986,-0.0728929
-0.243776,-0.108667
-0.379228,-0.120308
-0.135399,-0.0431828
0.0815536,0.0146196
0.153158,0.0408857
0.0209109,0.0503062
-0.140753,0.0549709
-0.16942,0.0590129
-0.108725,0.0651647
-0.0269247,0.0620227
0.0673452,0.0506534
0.151288,0.0518151
0.129388,0.0505254
0.086959,0.0414496
0.0652803,0.0273075
0.060442,0.016654
0.0640852,0.0145388
0.0486373,0.00538522
0.0204,-0.00390517
0.0100716,-0.00681227
0.0307581,-0.0134146
0.0447976,-0.0127654
0.0288336,-0.0104385
-0.00469269,-0.000100079
-0.0330238,0.000693634
-0.0383931,-0.00767273
-0.032293,-0.0163899
-0.0521044,-0.0151467
-0.0838988,-0.0111275
-0.0879253,-0.00618427
-0.0558764,-0.00672826
-0.0254955,-0.0100332
-0.0140548,-0.00521269
-0.0224531,0.00284875
-0.0260516,-0.00252906
-0.0011427,-0.00588996
0.0358796,-0.00476323
0.0666675,-0.00518932
0.0513004,0.00171304
0.0257155,0.0116525
0.0186906,0.0098084
0.0154507,0.00239196
0.00568265,-0.00750186
-0.00219369,-0.0203725
-0.00577592,-0.0260282
-0.012398,-0.0229012
-0.0193339,-0.0173236
-0.0173733,-0.0172694
0.00417062,-0.0152702
0.0234888,-0.00737765
0.0137321,-0.00181497
-0.0078009,-0.0056665
-0.0220623,-0.00620906
-0.00600196,0.00235775
0.0225697,0.008336
0.0390083,0.0162713
0.0299142,0.0219537
0.00114089,0.0166095
-0.0176604,0.00592212
-0.0109908,-0.00608072
-0.00102143,-0.0157828
-0.00872495,-0.0211609
-0.0296436,-0.0197576
-0.0443518,-0.0166787
-0.0378184,-0.0153644
-0.0304833,-0.00849799
-0.0458511,0.00120657
-0.081537,0.00231061
-0.0953944,-0.00197397
-0.0578276,0.0061392
0.000673408,0.0121083
0.0750446,0.0147034
0.0740565,0.0183519
0.0396205,0.0175716
0.00896893,0.0107712
0.0823148,0.00545605
0.205364,0.000552919
0.253516,-0.00287408
0.152699,-0.00328131
-0.0716671,0.00404699
-0.185151,0.00626794
-0.222544,0.000531442
-0.29441,-0.000153166
-0.231602,-0.0039875
-0.0550467,-0.00748512
0.137954,0.00191491
0.221896,0.0105885
0.195027,0.0079217
0.126522,0.00562746
0.2009,0.0109027
0.265978,0.0152413
0.155813,0.0107023
-0.153958,0.00362313
-0.51172,-0.00451567
-0.424962,-0.00752412
-0.193658,-0.00643388
0.00705375,0.00212014
0.0884211,0.00657619
0.144898,0.00172691
0.210414,0.00145186
0.183921,-0.00104364
0.112127,-0.00880589
0.0410597,-0.0131482
-0.0357097,-0.0111651
-0.109918,-0.00916675
-0.132418,-0.00422369
-0.113172,0.00421607
-0.0383261,0.00700668
0.0600778,0.0131565
0.128287,0.0138564
0.109438,0.0105652
0.0524366,0.0104029
-0.00276515,0.0135294
-0.0312831,0.0102234
-0.0200149,0.00611374
0.00744868,0.00819719
0.0178048,0.00586037
-0.0295203,-0.0051238
-0.104677,-0.0170158
-0.100383,-0.0184378
-0.0282267,-0.0188177
0.0487699,-0.0159323
0.0602475,-0.00640801
0.0190373,0.000344896
-0.033025,-0.00546384
-0.0386844,-0.00889387
-0.000486329,-0.0141655
0.0311386,-0.0184233
0.0310055,-0.0134307
0.0123642,-0.0058681
0.000992741,-0.0125615
0.0108018,-0.0190041
0.0320184,-0.0102216
0.0342016,-0.00342653
0.00806926,-0.007975
-0.0224254,-0.0120454
-0.0290307,-0.00491803
-0.0576991,-6.12e-05
-0.138327,0.000690195
-0.175824,0.00358673
-0.132352,0.011194
-0.0196606,0.019214
0.0879809,0.0163801
0.161288,0.00865608
0.163525,0.00490098
0.107123,0.00398512
0.0458544,0.00362369
0.0135443,0.00198383
0.00918249,0.00550724
0.0080591,0.0101118
-0.00493073,0.00696706
-0.017773,-0.000629999
-0.0348157,-0.00425974
-0.0185673,-0.00107293
0.00793455,-0.000121531
0.0270738,0.00138553
0.00935548,0.00862426
-0.00824365,0.0068303
-0.00320297,-0.000193236
0.0180117,-0.00816216
0.0258764,-0.0151839
