Comp Ch 3,Comp Ch 4
0.00117088,-0.0208732
-0.178332,-0.00433039
-0.170821,0.0043153
0.187179,-0.00779351
0.394194,-0.0203211
0.500755,-0.0197144
0.444147,-0.00754736
0.22529,0.00749297
-0.190863,0.0100448
-0.704375,0.0102216
-0.709091,0.0280355
-0.407628,0.0328372
-0.0937598,0.0258197
0.0966013,0.0142877
0.0255827,0.0062989
-0.161127,-0.00124315
-0.125949,-0.00563014
-0.0846973,-0.0183125
-0.041084,-0.0256472
0.0851124,-0.0248503
0.208155,-0.0260514
0.16303,-0.0139661
-0.00194891,0.00869983
-0.0565365,0.0245742
0.0162243,0.024633
0.12509,0.0345249
0.346524,0.0445611
0.472214,0.00978113
0.288177,-0.0108762
0.0739467,-0.00891519
-0.0896479,-0.000962484
-0.0590856,0.0131867
-0.0394244,0.0248823
-0.242992,0.0174812
-0.315906,0.00218374
-0.318615,-0.015668
-0.17824,-0.020238
0.0288226,-0.0226907
0.108895,-0.0116297
0.089409,-0.00124686
-0.0603182,0.00312958
-0.0679783,-0.0111105
0.0809005,-0.0460313
-0.00338239,-0.0206594
-0.128188,0.0394134
-0.0166025,0.0469073
0.165351,0.0147751
0.379664,-0.0166994
0.224497,-0.0244573
0.129562,-0.0279158
0.178395,-0.0454038
0.0165763,-0.0789085
-0.0694347,-0.123656
0.467449,-0.110628
0.772398,-0.0280931
-0.0787949,0.0251806
-0.999072,0.0492191
-0.912885,0.0746703
-0.596232,0.0834348
-0.288263,0.0631648
0.0461782,0.0424315
0.444976,0.0401367
0.392979,0.0359039
0.14945,0.0291041
-0.319059,0.0349094
-0.472423,0.042948
-0.188498,0.0275481
-0.0641803,0.0036807
0.0689871,-0.0222793
0.279811,-0.0355859
0.47374,0.000163431
0.357762,0.0189207
0.0960268,0.00690673
-0.16944,0.00521816
-0.29511,0.00428454
-0.124199,0.00864009
0.0439883,0.00765019
0.0836425,-0.00206307
0.058905,-0.00728839
-0.00730641,-0.00788334
-0.047086,-0.013827
-0.115474,-0.0155105
-0.116285,-0.0134505
0.058357,-0.0205432
0.285203,-0.0131777
0.495493,-0.017153
0.426395,-0.0104224
0.157765,0.00159988
0.02259,-0.00898356
-0.0973221,0.00478095
-0.294792,0.0223151
-0.257166,0.0139362
-0.180818,-0.00721701
-0.146338,-0.00963213
-0.0771868,-0.0049507
-0.0176249,-0.00613879
-0.0199456,-0.00209556
-0.10274,-0.0146374
-0.159529,-0.0341529
-0.164601,-0.0256527
-0.0306675,-0.0163358
0.0194545,-0.019211
-0.0682736,-0.00885031
-0.149166,0.00212163
-0.0451032,0.00510359
0.0489626,-0.00855057
0.0920725,-0.023472
0.17657,-0.0108481
0.242846,-0.0128091
0.171056,-0.00980804
0.0215177,0.0145521
0.0324585,0.053478
0.0720311,0.0460417
0.0273983,0.00147935
-0.0498659,-0.00661847
-0.160967,-0.00950794
-0.207994,-0.0106749
-0.108736,-0.0107246
0.16159,0.00208634
0.450827,0.0210384
0.402462,0.0373077
0.0717484,-0.0196048
-0.109459,-0.0556169
0.157395,-0.0118086
0.302536,-0.00164439
-0.171286,0.00607403
-0.474553,0.0300464
-0.0470255,0.0285527
0.453965,0.00959701
0.51711,-0.00437821
0.190207,-0.00364528
-0.599532,0.00772204
-0.915214,0.0153213
-0.707064,0.0106042
-0.362634,0.00570412
-0.111593,0.00747837
-0.00857147,0.000789874
0.0199954,0.00386626
0.0300839,0.00589197
0.0796623,-0.00383323
0.186067,-0.0102147
0.427565,-0.0216684
0.544324,-0.0246298
0.370723,-0.00508507
-0.167427,0.0163633
-0.343227,0.0196338
0.0962649,-0.00879654
0.370031,-0.0259373
0.298246,-0.0137778
0.0402926,0.00621947
-0.263659,0.0181639
-0.313226,0.0230819
-0.292109,0.0187285
-0.181493,0.00626061
-0.0844366,0.00582915
-0.0997984,-0.00649731
-0.115068,-0.0395104
-0.0891678,-0.0366122
-0.0628538,-0.0229441
-0.0175115,0.0211118
0.0524626,0.0495221
0.0951446,0.037037
0.162493,0.0126465
0.270304,0.00414587
0.251948,0.00184398
-0.0244356,-0.00709406
-0.266926,-0.0214562
-0.0680549,-0.0234864
0.0117289,-0.00813387
-0.0327105,0.00579463
0.170329,0.00243883
0.821836,-0.00287526
1.43855,-0.00486985
1.01629,-0.000746185
-0.463479,0.015522
-1.4028,0.0275125
-0.936394,0.0127339
-0.288465,-0.0140069
-0.0799467,-0.0170837
0.16514,-0.0119711
0.129324,-0.00797731
0.187431,-0.0129026
-0.227297,-0.00981021
-0.583502,0.00321559
-0.409402,0.0175446
-0.298377,0.0284346
-0.108243,0.0303043
0.00799735,0.0115977
-0.00795147,-0.0399076
-0.0232685,-0.0551445
-0.000743526,-0.00836991
0.0435401,0.0128911
0.0855251,0.0116779
0.186407,0.00599674
0.350081,0.00876562
0.498939,-0.00228794
0.508594,-0.0216368
0.372121,-0.0181264
0.292575,-0.0067398
0.105338,-0.0061259
-0.120726,0.0239836
-0.531104,0.0442608
-0.576452,0.0523213
-0.121289,0.0302761
0.0117965,-0.0126359
-0.0498818,-0.0338256
-0.107326,-0.0297823
-0.14212,-0.0200776
-0.0689406,-0.00745907
-0.00422927,-0.00109386
-0.00971108,0.000582319
-0.00363797,0.000466352
0.0272563,-0.00405557
0.061275,-0.00761964
0.0945918,-0.00499066
0.0979636,0.0118779
0.0801984,0.0255764
0.0861776,0.0222026
0.128066,0.0126401
0.129279,-0.0104713
0.0702349,-0.0162077
0.0300842,-0.00510462
-0.104253,-0.0067158
-0.124851,-0.0108835
-0.0182498,-0.0132142
0.114911,-0.0091638
0.0918009,0.00833965
-0.132711,0.016883
-0.0956396,5.87e-05
0.363834,-0.00858159
0.554219,-0.0200652
0.111222,-0.0303143
-0.39246,-0.0142541
-0.110266,-0.00181778
0.150465,-0.000253406
0.0862352,0.00552086
-0.161677,0.0213227
-0.444818,0.0159481
-0.314047,-0.000584724
-0.233688,-0.0011386
-0.285687,0.0145757
-0.153879,0.0293109
0.246013,0.0202758
0.347468,0.00876356
0.096138,-0.00551555
-0.27146,-0.0375035
-0.196037,-0.0494699
0.207308,-0.0138089
0.282054,0.00995171
0.0858549,0.0340043
-0.326202,0.0299387
-0.250626,0.01127
-0.0180274,0.00109638
0.0817237,-4.43e-05
0.104844,-0.00442657
0.111286,-0.0110333
0.134591,-0.00518594
0.173055,-0.00768055
0.0980502,-0.00380827
0.0728301,-0.00106436
0.0616952,-0.00230782
-0.103619,-0.00386224
-0.207095,-0.0166072
-0.184323,-0.0194143
-0.15291,-0.0154097
-0.0293851,0.0129093
0.0376744,0.0186337
0.0781899,0.0145777
0.176772,0.0206888
0.287293,0.02364
0.276558,0.0115961
0.0856657,0.000130203
-0.0116827,-0.0167965
0.029735,-0.031841
0.0180877,-0.00358957
-0.240932,0.0152204
-0.40531,0.0109021
-0.26892,0.00423895
-0.142476,-0.000726214
-0.0749028,0.00420809
-0.0727304,0.0117122
-0.0116612,0.0234837
0.19786,0.0179133
0.360555,-0.0144474
0.261095,-0.0134186
0.2045,-0.00765566
0.504879,-0.0155473
0.704815,-0.0190048
0.318221,-0.0107892
-0.47085,-0.0288841
-0.626052,-0.0436564
-0.448667,0.00498461
-0.532248,0.0384644
-0.401388,0.0453243
-0.0472576,0.0418164
-0.00971303,0.0172902
-0.145784,-0.0137495
-0.15376,-0.0102502
-0.00524886,0.00947414
0.116536,-0.0175913
0.19865,-0.0451453
0.0337687,0.0307738
-0.131085,0.0416111
-0.0168733,-0.0312388
0.125309,-0.0173697
0.189343,-0.00445843
0.223422,-0.0104738
0.259821,-0.00469086
0.186946,0.0110187
0.169263,0.0107059
0.388906,-0.00407741
0.311533,-0.0193009
0.0402226,-0.0203163
-0.576323,-0.0136455
-0.536277,-0.0188733
-0.186576,-0.00665868
0.00484538,0.0208622
-0.0569969,0.0339958
-0.226478,0.0240543
-0.172244,0.00141062
-0.0768064,-0.0133063
0.00353545,-0.00412329
0.152956,-0.00953388
0.200491,-0.0174085
0.207628,-0.0147681
0.426674,-0.0229099
0.486358,-0.00598753
0.0640462,0.0265968
-0.321167,0.0325315
-0.0496224,0.0167183
0.429906,-0.00149472
0.452807,-0.00817795
-0.19657,0.00307835
-0.815324,0.0298257
-0.609766,0.0319287
-0.239979,-0.000960848
-0.0921336,-0.00881931
0.0114564,-0.00319734
0.156012,-0.00957127
0.129151,-0.00989119
-0.00020838,-0.00349133
-0.0498459,0.00200164
-0.110687,0.00393839
0.0204011,-0.0159453
0.0341796,-0.00540945
-0.0742477,0.00508073
-0.0408903,-0.00865464
0.0262869,-0.016398
0.038668,-0.00571949
0.0519167,0.0146075
0.155914,0.00909801
0.176165,-0.00161655
0.0842567,0.00568963
0.00769118,0.00532266
-0.0501221,-0.00160926
-0.0533555,-0.00124172
0.0428205,-0.0119166
0.0866295,-0.0316568
0.015936,-0.00498458
-0.0527685,0.00577918
-0.0882877,0.00953478
-0.0238408,0.0179803
0.0729449,0.0196069
0.196333,-0.00318013
0.215077,-0.0191722
0.0851945,-0.0148256
-0.155328,-0.00124045
-0.177586,0.00897928
-0.0277331,0.0148037
-0.0245443,0.0189608
-0.0691978,0.0119836
-0.0793264,-0.00158952
-0.065326,-0.0158562
-0.0110286,-0.0201337
-0.0358987,-0.015046
-0.0791771,0.00229224
0.0372249,0.0166607
0.296311,0.0175679
0.413661,0.00952067
0.245964,0.00800363
-0.209357,-0.00156461
-0.303147,-0.0141597
-0.0573139,-0.00502988
-0.00652365,2.21e-05
-0.0872338,-1.2e-05
-0.204033,0.00648417
-0.20235,-0.00558318
-0.0951056,-0.0179834
-0.0562304,-0.00630258
-0.00754141,0.00592113
0.205893,0.0137319
0.389644,0.010091
0.260462,-0.00216435
-0.0663839,0.00362227
-0.324151,0.00135238
-0.311688,0.00681833
-0.0926155,0.00676582
0.249654,-0.00105114
0.581325,-0.00092477
0.562219,-0.0193632
0.02592,-0.0423554
-0.588824,-0.0218921
-0.51605,0.0167636
-0.300325,0.0277706
0.123238,-0.00651867
0.371537,-0.00581467
0.201006,0.00666902
-0.293074,0.00180286
-0.617021,0.00972867
-0.204119,0.0135887
0.0658617,0.0109811
0.063846,-0.014903
-0.0252263,-0.0158156
0.00596598,-0.00490572
0.0299622,-0.000423334
0.198068,-0.0175702
0.299222,-0.0479343
0.248004,-0.00290737
0.133276,0.047774
0.113872,0.0292294
0.236642,0.0285191
0.0773191,0.0177678
-0.23885,-0.0206152
-0.0698816,-0.0240123
-0.0207802,-0.00111744
-0.321701,0.00434014
-0.558634,0.00077442
-0.21704,-0.00163423
0.21549,0.00286232
0.368353,0.0106656
0.255355,-0.00518862
-0.0349605,-0.0126315
-0.128874,0.00700422
0.144645,0.0081531
0.404541,-0.0145366
0.362211,-0.00642205
0.090773,-0.00248304
-0.353427,0.00357266
-0.517502,0.0149653
-0.449257,0.00481703
-0.256252,0.00431115
-0.0135984,-0.0152376
0.0992175,0.00361224
0.0960586,0.0370716
0.0837036,0.022051
0.0891963,-0.00249155
0.12381,-0.0146612
0.11641,-0.0231048
0.0969106,-0.0262692
0.0831956,-0.0119751
0.0779788,-0.00727156
0.121449,0.00643556
0.282783,0.0144808
0.417749,0.00229471
0.432212,-0.0164014
0.0323915,-0.0131932
-0.574904,0.00350178
-0.649506,0.00813384
-0.389651,0.00507265
-0.170343,0.00457145
-0.0800866,0.016154
-0.0717162,0.0151189
-0.0328655,0.0121044
0.0476885,-0.0196495
0.112965,-0.0378023
0.118244,-0.0182885
0.0875371,0.00199412
-0.0248346,0.021847
-0.0335979,0.017164
0.346226,0.00476148
0.466473,0.00380552
0.144484,0.0170197
-0.387244,0.0263365
-0.426377,0.0127642
-0.162254,-0.0115345
-0.119456,-0.0163417
-0.0961219,-0.0235368
-0.0221744,-0.0171391
0.0515263,0.00306886
0.0448869,0.00856395
-0.0321842,-0.00491792
-0.115331,-0.00754583
-0.0847369,0.00213354
0.0561501,0.0105039
0.168982,0.00498342
0.190106,-0.005371
0.10465,-0.00305329
0.0558558,-0.00706053
0.208161,-0.0249917
0.235256,-0.00802839
0.0879238,0.010853
-0.208608,0.0247961
-0.190156,0.0189793
0.186564,0.00132422
0.515394,0.00268654
0.430955,0.0120379
-0.0779501,0.00487832
-0.580686,-0.044956
-0.508368,-0.0403129
-0.324486,-0.0248299
-0.460514,0.0079945
-0.364077,0.0428001
-0.0788862,0.0507524
0.189152,0.0172846
0.609694,-0.00413418
1.0922,-0.0214786
1.06449,-0.0475648
0.199783,-0.0268205
-0.680142,-0.00246073
-0.973344,0.0251084
-0.597181,-0.000375059
-0.281328,-0.0208323
-0.17824,0.0276903
0.00148021,0.0404999
0.0633587,0.00993583
0.0382278,-0.00893606
0.0936245,-0.010658
0.0579354,-0.00123715
0.0752491,-0.00490831
0.0347795,-0.00606294
-0.115291,-0.0177334
-0.0854536,-0.00474
-0.00466976,0.0312609
0.105372,0.0440179
0.118492,0.0147948
0.0643277,-0.00184122
0.0453137,-0.00665544
0.0445484,-0.0157352
0.00521753,-0.0224036
0.107133,-0.0204362
0.265299,-0.00654879
0.284846,0.00462194
0.175682,0.0126986
-0.0739969,0.0114355
-0.28644,-0.00480165
-0.202736,-0.0162616
-0.063135,-0.0169414
-0.0823743,-0.00210905
-0.0998382,0.00645682
-0.130398,0.0170707
-0.0734636,0.0135694
0.157347,-0.0410935
0.385776,-0.0574472
0.312707,-0.0370031
-0.0899831,0.00840532
-0.165698,0.017164
-0.0745269,0.0109591
-0.0805171,0.0255887
-0.224656,0.0257585
-0.264801,0.034426
-0.127316,0.0226288
-0.00173829,0.0116443
0.136136,-0.00445079
0.227848,-0.0129352
0.144942,0.00067222
0.337197,0.0221288
0.582823,0.0104487
0.573384,-0.00973165
0.296385,-0.0197546
-0.165815,0.00967149
-0.296571,0.0366633
-0.757733,0.0198144
-0.804623,-0.0243901
-0.361382,-0.0218803
-0.0925089,-0.0151297
-0.0322276,-0.0208428
0.0385849,-0.0158425
0.183537,-0.0256283
0.374882,-0.0322333
0.285571,0.0136845
-0.0995634,0.042318
-0.26405,0.0415491
-0.32636,0.0165705
-0.19635,0.00517453
-0.0143318,0.0108448
-0.0297483,0.0131471
0.0232689,-0.00597703
0.0897862,-0.0171288
0.0933386,-0.0213579
0.115764,-0.0340948
0.217086,-0.0455069
0.240815,-0.0171178
0.172407,0.00356796
0.0818624,0.0125164
0.0185824,-0.0063617
-0.0596967,0.00740394
-0.0741332,0.0164182
0.0102008,3.36e-05
0.072676,-0.00998573
0.0774652,-0.00163093
-0.0064737,0.0128791
-0.146068,-0.00694664
-0.181177,-0.00582414
-0.213776,0.0242336
-0.201538,0.0583169
0.0374232,0.0943146
0.333645,0.108525
0.330322,0.0423975
0.173107,-0.0586015
-0.0521923,-0.0583078
-0.24415,-0.0710071
-0.213494,-0.101727
0.0519651,-0.0389072
0.253789,-0.0264884
0.183055,-0.0447455
-0.117154,-0.0385183
-0.407527,-0.0521128
-0.289067,-0.0132806
0.009089,0.0167799
0.365815,0.0249458
0.588306,0.0128633
0.500671,0.00135152
-0.00248809,0.00522422
-0.405192,0.00960098
-0.394374,0.026802
-0.406071,0.0589885
-0.198164,0.0814216
0.187957,0.0741025
0.251861,0.0442046
-0.0348009,0.0228097
-0.312221,0.0108265
-0.226997,-0.0161831
0.0427004,-0.0211939
0.0964079,0.00594914
-0.0400342,0.0344105
-0.130445,-0.00189984
-0.0423241,-0.0248092
0.0531943,-0.000932853
0.134492,-0.0213224
0.176887,-0.0430752
0.143457,-0.0344121
0.0846731,-0.0435196
0.0488277,-0.037937
0.0794775,-0.0369838
0.0324133,0.0412964
-0.0650459,0.0306638
-0.0831237,0.0603815
-0.109785,0.0757751
-0.128469,-0.00471271
-0.0729287,-0.0778311
0.0199172,-0.0907065
0.0604731,-0.0863265
0.0515097,-0.032664
0.0233944,0.0300333
0.0538027,0.00559431
0.11965,0.0322233
0.12159,0.0812309
0.0770099,0.0377263
-0.0119043,-0.0593208
-0.0954657,-0.0794694
-0.0948247,-0.0157194
-0.055346,0.0140056
-0.053935,0.0397092
-0.086792,0.0242373
-0.103273,0.0148197
-0.063779,0.00262934
0.0201375,0.00726839
0.0906065,0.0150515
0.0571409,0.00478897
0.0772688,0.00475914
0.204979,0.00190441
0.291179,-0.0161252
0.364643,-0.0271606
0.342248,0.00121168
0.209622,-0.027254
-0.249436,-0.0309953
-0.553619,0.00716546
-0.392038,0.0125781
-0.233134,0.0392161
-0.292189,0.0333745
-0.256949,0.0160137
-0.0701884,0.00699981
0.0462665,-0.00070123
0.14384,-0.00326471
0.257164,-0.0467351
0.220734,-0.0240142
0.0121171,0.0177635
-0.195828,0.023292
-0.291343,0.018678
-0.179736,0.00457784
0.0192583,-0.00752244
0.254734,-0.00223125
0.446681,0.0351777
0.496651,0.0373921
0.114033,-0.0256952
-0.34086,-0.0506367
0.0515401,0.003646
0.52738,0.011171
0.338781,-0.00775648
-0.350837,-0.033141
-0.835013,-0.0225253
-0.358502,0.02385
0.0442082,0.0528245
-0.0165665,0.0371144
-0.117727,0.0288047
-0.0146343,0.0234075
0.147289,0.0288448
0.237948,0.0476442
0.157197,0.0306406
-0.0326952,-0.0374079
0.0798868,-0.111909
0.288349,-0.0776677
0.065301,-0.0487584
-0.462155,-0.0157982
-0.51155,-0.00342518
-0.31941,-0.00124052
-0.107168,0.019814
0.077556,0.00437025
0.0630496,-0.00126406
-0.00522519,0.0116886
-0.0170486,0.0115241
-0.035383,0.0108914
0.0368466,0.00330063
0.202723,-0.00469
0.348358,-0.0291542
0.279928,-0.0345822
-0.050412,0.000142982
-0.156071,0.0503289
0.24136,0.0518116
0.75868,0.0372648
0.840258,0.0190483
0.317285,-0.0333694
-0.555647,-0.0883017
-1.01771,-0.0224584
-0.339208,0.0349849
0.347623,0.0651084
0.474631,-0.00426729
-0.0524916,-0.044234
-0.557112,-0.00867274
-0.343526,0.0207371
-0.279094,0.0122729
-0.275073,-0.00423419
-0.113241,0.00698315
-0.19288,0.000297759
-0.131988,-0.0572061
-0.114213,-0.0196038
-0.143101,0.0768763
-0.0631357,0.112626
0.0274073,0.0624153
0.212625,-0.0105936
0.504928,-0.029069
0.482132,-0.043333
0.529004,-0.069913
0.627641,-0.0910461
0.508284,-0.0174503
0.299031,0.0106613
-0.275706,-0.0070458
-0.662028,-0.0358058
-0.593515,-0.0420449
-0.546309,0.0541677
-0.196538,0.0907685
-0.00252158,0.0374708
-0.0374543,-0.0141682
-0.070807,-0.0378281
-0.0122689,-0.0429095
0.0908035,-0.0201752
0.114823,0.0177646
0.0612796,0.0601456
-0.0405825,0.0604956
-0.0719505,0.0491021
0.0672778,0.0405315
0.199546,0.0249351
0.131492,-0.00496318
-0.0829803,-0.0366565
-0.0882407,-0.0424485
-0.0462545,-0.102736
0.0158073,-0.0559247
0.131864,0.00557378
0.152057,0.0260583
0.0738359,0.0313093
0.0185076,0.0602151
0.147569,0.038145
0.271751,-0.0327496
0.10541,-0.066636
-0.16815,-0.078727
-0.259514,-0.0382996
-0.260187,0.0191487
-0.13626,0.0229652
0.0156372,0.0245401
0.0592079,0.0126056
0.00598048,-0.0157161
-0.0723822,-0.0254644
-0.0724609,0.00471634
0.0210484,0.0584904
0.0618584,0.0416422
0.0447251,0.0105315
-0.016442,0.00601581
-0.106787,0.0043556
-0.0896516,-0.0110032
-0.0139689,0.000296654
0.078343,0.0232214
0.160494,-0.00621223
0.107545,-0.00845715
-0.0174972,-0.00491508
-0.0985587,-0.0122335
0.147771,-0.00132085
0.410087,-0.0237179
0.449652,-0.00160901
0.131528,0.0436729
-0.198912,0.0365875
-0.208641,0.0219622
-0.294753,-0.0291925
-0.273484,-0.0848111
-0.279527,-0.0829481
-0.240928,-0.0194749
-0.113836,-0.00733196
0.0293101,0.0306927
0.0504757,0.101182
-0.108671,0.119733
-0.151309,7.94e-05
0.0220874,-0.0922439
0.0627849,-0.0671018
0.115932,-0.0441585
0.180527,-0.0332104
0.0922409,-0.00619154
0.0212997,0.03243
0.0874546,0.0508882
0.157315,0.0267785
0.17671,-0.0106717
0.15396,-0.0235521
-0.0913347,0.0190773
-0.290721,0.0876923
-0.128446,0.0782977
0.0650512,-0.0140206
0.0576401,-0.0924462
-0.0558011,-0.0549067
-0.0817783,-0.018841
-0.0253727,-0.00894393
-0.0066261,-0.0107777
0.0904721,-0.0365942
0.182151,0.00421792
0.0807145,-0.00854875
-0.094881,-0.00633058
-0.0848627,0.0477666
-0.087834,0.0817649
-0.139912,0.0971521
-0.064379,0.0886425
0.146066,0.0446757
0.366607,-0.0417725
0.336856,-0.125378
0.0535103,-0.0760114
-0.178072,0.0185719
-0.188625,0.0392959
-0.0837631,0.0214633
-0.0529496,0.00698556
-0.0609541,-0.0126197
0.0107194,-0.0354162
0.0896496,-0.0532687
0.147053,-0.0659962
-0.117361,-0.0195622
-0.240859,0.0125747
-0.0757004,0.00624378
0.1032,0.0101584
0.0574175,0.00440533
-0.117351,-0.0220815
-0.143555,-0.0765193
0.0181776,-0.0944783
0.139892,0.0136406
0.146561,0.177677
0.0757195,0.131323
-0.0240666,0.0475609
-0.0723724,-0.0387266
-0.00939873,-0.048488
0.0369466,0.000172364
0.131832,-0.011972
0.119754,-0.0530331
0.0782385,-0.0312991
-0.0772487,0.0395249
-0.318304,0.0665738
-0.302529,0.0421264
-0.172795,0.0263921
-0.0454309,0.0145238
0.0515825,0.00450438
0.0823246,-0.0307722
0.119145,-0.0611578
0.109024,-0.0310946
0.0434698,0.0276066
-0.0647935,0.0433946
-0.140711,0.0261764
-0.0655624,-0.0182445
-0.00772048,-0.073517
0.0191209,-0.0666428
0.263821,-0.00682986
0.502424,0.0113509
0.509906,0.0119396
0.250315,0.0203684
-0.272278,0.0207364
-0.41568,0.00887457
-0.298865,-0.0245287
-0.198483,-0.0386786
-0.0724895,-0.0484883
0.0197371,0.0421371
-0.0158362,0.0818949
-0.0609121,0.0747086
-0.107139,0.00444832
-0.0781179,-0.0634499
-0.0539532,-0.0722267
-0.0668064,-0.0568284
-0.0178545,0.0019158
0.100673,0.0591709
0.148479,0.0411083
-0.0142336,0.00512891
-0.132002,0.0165702
-0.0823069,0.00523815
-0.0389299,-0.00486288
0.114636,-0.0035848
0.293004,0.0115592
0.352701,-0.0167194
0.289411,-0.0575569
0.160806,-0.0547973
-0.0725754,-0.0263843
-0.275491,0.00260086
-0.153929,-0.0213892
-0.231196,-0.0156528
-0.191058,0.110313
0.270331,0.14268
0.795462,0.113568
0.688657,-0.0211925
-0.106656,-0.129519
-0.883704,-0.0533141
-0.764287,-0.04198
-0.36984,-0.0605824
-0.109295,-0.0358762
0.0680182,-0.00290199
0.121736,0.00524402
0.0587889,0.00772765
-0.0744517,0.0113004
-0.0185543,0.0067277
0.210297,0.00936629
0.294554,0.0339328
0.201096,0.0344363
-0.0714371,0.0144779
-0.272774,-0.00138989
0.000852432,0.00714891
0.289555,0.00884027
0.197237,0.0114586
-0.069357,0.0499712
-0.252154,0.0467481
-0.157321,-0.000812972
-0.0313899,-0.0724419
-0.0298104,-0.0121548
-0.030495,0.0582151
0.114168,0.019998
0.23603,-0.0685013
0.260084,-0.092923
0.282359,-0.0141737
0.243003,0.0298144
0.139433,0.00236804
-0.127513,-0.0292698
-0.542497,-0.0333683
-0.546327,0.0582086
-0.293232,0.0414596
-0.12999,0.0482793
-0.0225324,0.0900568
0.0598751,0.0489321
0.130833,-0.0251392
0.135721,-0.0202233
0.102418,-0.0456616
0.0377161,-0.080533
-0.0128128,-0.0582701
-0.0205852,-0.00256169
-0.0353877,0.0236652
-0.0475663,0.028671
-0.0119482,0.0121328
0.0166875,-0.0306064
0.0287105,-0.0374
0.0521192,-0.0145008
0.142552,0.00544066
0.225077,0.00956009
0.226445,0.00314721
0.106191,-0.00108655
0.024757,0.00473248
-0.056817,0.0143455
-0.147243,0.0321922
-0.152962,-0.00234986
-0.066734,-0.0169884
-0.021416,0.0231529
-0.0690641,0.0547173
-0.126613,0.0615072
-0.0939999,0.0465743
-0.00439068,0.0142565
0.0286135,-6.27e-05
-0.0648271,-0.0324338
-0.0540464,-0.0479918
0.158724,-0.0574463
0.324816,-0.0729874
0.212875,-0.0370663
0.040522,-0.0185408
-0.107059,-0.0555351
-0.0924991,-0.0641043
-0.0481826,-0.0291678
-0.0935194,0.00417625
-0.0035029,0.00210506
0.0534487,0.0146154
0.0284063,0.0578966
0.155469,0.0583789
0.191203,-0.0169331
-0.114803,-0.0740166
-0.312608,-0.0776096
-0.188804,-0.0173604
-0.0199617,0.0253756
-0.05909,0.103602
-0.0485605,0.151038
0.058647,0.138031
0.0606964,0.0974744
0.0800377,0.05868
0.00101203,0.00552593
-0.0605052,-0.0658601
-0.027006,-0.0989742
-0.0195668,-0.0647633
-0.0561955,-0.0180839
-0.082641,-0.00876111
-0.0897257,-0.0150918
-0.00811808,-0.0234176
0.151628,-0.0204394
0.19011,-0.00251682
0.184963,0.0107616
0.156325,0.00975485
0.0675392,-0.012253
-0.0595528,-0.00838922
-0.223285,0.00698954
-0.221711,0.010086
-0.105419,0.021903
-0.0287284,0.0194564
0.005138,0.0115895
0.0289665,0.0140778
0.103183,-0.000705944
0.200976,-0.0320942
0.200365,-0.04677
0.0661382,-0.0903145
-0.249883,-0.0857681
-0.415679,0.0332351
-0.110747,0.0531419
0.209579,0.0466723
0.229497,0.0508513
0.134528,0.0323022
0.107153,0.0155918
0.0905224,0.00766795
0.0334716,-0.000612974
-0.131338,-0.00582996
-0.244313,-0.00282805
-0.105037,-0.00322576
0.0656962,-0.0182113
0.0783753,-0.0202558
-0.00460419,-0.0379396
-0.0983275,-0.00230951
-0.169344,0.0283342
-0.152839,0.00645781
-0.0529219,-0.0184465
0.122254,0.027883
0.394505,0.0262575
0.403966,-0.00175246
0.160254,-0.014729
-0.144865,-0.0234716
-0.259047,-0.0451099
-0.0696411,-0.00052585
-0.0354024,0.00151493
-0.139723,0.00852802
-0.159371,0.0380819
-0.0595162,0.0208748
-0.0746298,0.0327012
-0.128222,0.0621548
-0.000371423,0.131892
0.193296,0.0877519
0.165607,-0.102343
0.00552887,-0.18448
-0.103573,-0.114048
-0.12351,-0.0527082
-0.0635079,-0.0329523
0.0630407,-0.00803013
0.15306,0.000870611
0.140485,0.00234902
0.036949,0.0156308
-0.0257144,0.020954
0.0315084,0.0115852
0.119411,0.0242154
0.137707,0.0673806
0.0556857,0.0899147
-0.00436046,0.0481952
0.0135002,-0.0331595
-0.0467905,-0.069006
-0.110045,-0.0496822
-0.00251716,-0.00625423
0.0450524,0.0134496
-0.0464375,0.0287818
-0.173977,0.014569
-0.149735,-0.0164967
0.019605,-0.011686
0.0615292,-0.00649679
0.01276,-0.0177293
-0.0320372,-0.00470902
-0.0171369,0.0115109
0.0245635,-0.0276147
0.0320892,-0.0140348
0.0289834,0.0206535
-0.0100871,0.0165391
0.0351971,0.0206025
0.104832,0.0335783
0.0411617,-0.0104567
-0.0777514,0.0026415
-0.177118,0.011346
-0.147161,-0.000347078
0.0898349,0.00221623
0.269724,0.0133281
0.265443,0.00468645
0.0839363,-0.00533387
-0.0815175,0.000923507
-0.203282,-0.00954031
-0.206058,-0.0389525
-0.0474757,-0.0157466
0.108103,0.0363228
0.191016,0.0233792
0.128275,-0.0158743
-0.175609,-0.0196968
-0.376024,-0.0262284
-0.246393,-0.0292136
-0.0611402,0.0203077
-0.0127658,0.0323857
0.0142102,-0.00393802
0.0523418,-0.0752467
0.0576587,0.0118601
0.0587829,0.0155322
0.0805883,-0.00590073
0.130245,0.0165031
0.119179,0.0228512
0.0541889,0.0388936
-0.0390582,0.0332604
-0.0785315,-0.0099711
-0.0637957,-0.0223369
-0.0364556,0.00535815
0.00187908,0.0131137
0.0563106,0.00590686
0.147485,0.00531429
0.149673,-0.000936413
0.0823413,-0.00159954
-0.0111845,0.000693837
-0.133499,-0.00131159
-0.14199,0.0124069
-0.0681333,0.0108731
-0.0216698,-0.00487556
0.0192193,0.00888538
9.02e-05,-0.00979497
-0.00411412,-0.0448852
0.0828129,-0.0334347
0.0928011,-0.0133831
0.0497022,-0.00997765
-0.0786767,0.00537361
-0.240816,-0.0123643
-0.1289,-0.0435554
0.247611,-0.0237522
0.498188,0.0205229
0.432066,0.0132283
0.119666,0.0217293
-0.252019,0.0731169
-0.298316,0.066534
-0.244494,-0.0152198
-0.258163,-0.0411289
-0.168534,-0.0208854
-0.0505199,0.00294462
0.0434486,0.0157765
0.0634311,-0.00329572
-0.00664425,-0.0433711
-0.110522,-0.0591819
-0.0951505,-0.0523954
0.0556541,-0.00695774
0.0944201,0.0659245
-0.0588873,0.0588247
-0.170768,0.0361671
-0.0550026,0.0198276
0.130801,0.0241914
0.195126,-0.00768944
0.173688,-0.0409369
0.0826492,-0.0250324
-0.0317061,-0.00141873
0.0213036,0.00401938
0.220886,-0.00347882
0.257778,-0.0116848
0.0469174,-0.00719296
-0.243306,0.0163646
-0.259077,0.0203763
-0.141434,0.00316898
-0.0763833,-0.00489207
0.0409855,0.000708113
0.100178,0.00803754
0.0304678,0.0187445
-0.065285,0.000175587
-0.0091517,0.0167501
0.0130503,0.010403
-0.0458385,-0.0226377
-0.0507252,-0.0436485
-0.0285025,-0.0343637
-0.00137299,0.0281079
0.0255271,0.0158185
0.0138738,-0.00219778
0.0049561,-0.0168741
0.0345287,0.0297271
0.0815477,0.0399082
0.0770473,-0.0270605
-0.00923143,-0.0407895
-0.141551,-0.000945136
-0.122498,-0.000657464
0.0271162,0.0134421
0.124051,-0.0196478
0.126203,-0.0699103
0.0674922,-0.0105187
0.0486416,0.0360393
0.148574,0.0264183
0.136489,0.0207947
0.0232192,-0.0339137
-0.102065,-0.0514173
-0.246952,0.00512753
-0.255213,0.0205879
-0.144147,0.0465214
-0.0412329,0.0375142
-0.00761856,0.0344138
-0.0606149,0.0321644
-0.0880596,0.0165567
-0.0477105,-0.000508716
0.0219093,-0.00215958
0.0753267,0.0059706
0.0908375,0.0112719
0.0924093,0.000448469
0.0688543,-0.00898918
0.0600939,-0.00301313
0.0688595,0.00403393
0.185153,0.00629883
0.430638,-0.0130783
0.54998,-0.0403487
0.47785,-0.0417003
0.0880789,0.00444973
-0.346591,-0.00416687
-0.613615,-0.0150262
-0.672817,-0.00948942
-0.482507,-0.0341559
-0.234147,-0.0251424
-0.0522428,0.0234584
0.0513419,0.0320551
0.0609549,0.0114185
0.0147503,-0.0542851
-0.012293,-0.119949
-0.00356075,-0.0737065
0.0192531,-0.0159253
0.0171488,0.0608988
0.0120024,0.0674244
0.0200281,0.0672618
0.0612667,0.0602931
0.13764,0.01913
0.207635,0.026331
0.131427,0.0406837
0.000973335,0.0395026
-0.0315426,0.0268164
-0.0541403,-0.000261501
-0.00452535,-0.00615444
0.0746714,-0.00314829
0.0465308,-0.00399833
-0.0532734,-0.0239309
-0.0860773,-0.0456389
-0.0612334,-0.0265236
-0.0255623,-0.0319943
0.0902313,-0.0599439
0.239616,-0.0174371
0.277302,0.0373358
0.260177,0.020174
0.00263145,-0.00428729
-0.269187,-0.0125652
-0.279561,-0.0119054
-0.0365408,-0.0244399
0.186794,-0.0186098
0.221407,0.011148
0.0218494,0.0278647
-0.172426,0.0504254
-0.0758901,0.0416887
-0.0233819,0.0159919
-0.0966884,-0.00983219
-0.187995,-0.0251376
-0.243785,-0.00755126
-0.225936,0.0282443
-0.158902,0.0310315
-0.0757333,0.0435861
0.0257083,0.0363043
0.0242778,-0.0116586
0.0529252,-0.03825
0.115012,-0.038935
0.0784644,-0.0427337
0.0526892,-0.0326512
0.0854078,-0.0202706
0.108142,0.00467362
0.103139,0.0096369
0.0708089,-0.0064952
0.0759263,-0.00413955
0.142615,-0.000738265
0.146944,-0.00688212
0.0467126,-0.000378707
-0.103366,0.0294342
-0.10747,0.031778
0.025181,0.0151966
0.109968,-0.0130693
0.140579,-0.0218607
-0.0520012,-0.0259182
-0.336584,-0.00949195
-0.282575,-0.00618019
-0.0675105,0.00486875
0.0878624,0.012048
0.155196,-0.00368912
0.123883,0.00363057
0.0510029,0.016296
-0.099978,0.0164744
-0.174329,0.00427723
-0.0963566,-0.00653698
-0.0536335,-0.00359265
-0.0502337,0.0032769
-0.0651808,-0.0539791
-0.00311439,-0.012029
0.0988744,0.0487271
0.150386,0.0127998
0.119875,-0.0133397
-0.00698471,-0.0230625
-0.103369,-0.0311588
-0.0163194,-0.00860792
0.0509723,0.0404441
0.0581935,0.0162664
0.057002,-0.0350253
0.0490613,-0.00131229
0.0626324,0.0370778
0.0369718,0.0259799
0.01711,0.00474426
-0.0470584,0.000510811
-0.113611,0.0230242
0.0142126,0.0256686
0.284788,2.13e-05
0.346721,-0.0274986
0.0723574,-0.0222585
-0.323461,0.00741326
-0.425931,-0.000552594
-0.2031,-0.0137907
0.0462654,0.00488298
0.128816,-0.0348981
0.0641049,-0.0336909
-0.119794,0.0376346
-0.192708,0.0457379
-0.134984,0.000662369
-0.106106,0.0185531
-0.0722639,0.0187365
-0.0237017,-0.00648207
-0.0201554,-0.0109025
0.0563871,0.00803532
0.303081,-0.026761
0.450059,-0.0449983
0.45557,-0.0178049
0.274889,-0.00446372
0.0305789,-0.0216065
-0.172004,-0.00688954
-0.318601,0.0358285
-0.366481,0.0557204
-0.30983,0.0308008
-0.116523,0.00305022
0.132461,-0.00668076
0.242445,-0.0088296
0.162533,-0.0079969
-0.00940488,-0.00659448
-0.212995,0.00572273
-0.157372,0.017406
0.0499292,0.0124406
0.0409229,-0.00300995
-0.104257,-0.0142257
-0.100708,-0.0304973
-0.0459392,-0.0562671
0.0386669,-0.0771579
0.048688,-0.0356222
0.0173741,0.0396673
-0.029875,0.0682544
0.0196437,0.0775954
0.0368427,0.0224865
-0.0249018,-0.0155434
-0.0496972,-0.0304953
0.0169831,-0.0684754
0.0688308,-0.0356771
0.0674922,0.0363449
0.120795,0.0519818
0.0557189,0.0141127
0.0213867,-0.0161492
0.077252,-0.0110535
0.0821526,0.0129535
-0.0104239,0.0166695
-0.127735,0.003098
-0.142493,-0.00664392
-0.0559584,-4.15e-05
0.0530886,0.00985614
0.0930846,0.00726819
0.0552131,-0.00416029
0.0106262,-0.0119529
-0.00238496,0.0075004
0.105034,0.0164471
0.243092,0.0138546
0.214035,0.0302184
-0.0640564,0.0203413
-0.406277,-0.00598086
-0.410306,-0.0318349
-0.146259,-0.0384133
0.0454912,-0.0158948
0.110469,-0.00202033
0.0470076,0.0124378
0.0469039,-0.00238522
0.0842385,-0.0268713
0.107329,0.0226228
0.0572542,-0.00855529
-0.0370388,-0.0198889
-0.0949877,-0.00440222
-0.102978,0.0124903
-0.0626991,-0.00968415
-0.047793,-0.0128263
-0.0629709,-0.0240597
-0.0640976,-0.000209483
-0.0189606,0.0378846
0.0382332,0.0196377
0.0713327,0.00832177
0.0916741,0.0176716
0.0918776,0.0338341
0.0491855,0.0306149
0.088995,-0.00075942
0.173815,-0.0436887
0.272415,-0.0578144
0.370468,-0.0982806
0.28293,-0.0521873
-0.0310522,0.0571579
-0.447171,0.0418817
-0.550163,-0.0323706
-0.307157,-0.0123304
-0.222062,0.0476193
-0.183565,0.0353548
-0.0945156,0.00800572
-0.0263482,0.000849665
0.0190612,0.0111578
0.0704177,0.037016
0.191536,0.0408402
0.392212,0.0116932
0.442734,-0.00648968
0.302846,0.0151822
-0.0854742,0.0163534
-0.394091,-0.00423051
-0.261492,-0.0334064
-0.0174284,-0.0431627
0.127538,0.00820291
0.115261,0.0216769
-0.0199149,-0.00166655
-0.147265,-0.0330619
-0.268393,-0.0266693
-0.223348,-0.0105324
-0.0600306,-0.00950104
0.019368,-0.00693066
0.0586974,-0.00296292
0.171005,0.00633824
0.285395,0.00357961
0.28747,-0.000955247
0.103162,0.00693724
-0.128155,0.0306018
-0.257686,0.039623
-0.199784,0.0208684
-0.0817755,0.00249167
-0.0463507,-0.0381416
-0.0412973,-0.0293307
-0.0122466,-0.0402399
-0.0042067,-0.0467746
0.00669182,-0.057767
0.0610153,-0.0349671
0.131487,0.0329248
0.152943,0.0374369
0.0789774,0.0282303
-0.0390665,0.0276598
-0.0545658,0.020522
0.0171977,0.0177727
0.0428366,0.0189682
0.00426308,0.0102399
0.0261615,0.00427865
0.127068,0.00805403
0.138762,0.00568871
0.0748985,-0.0149287
-0.0794587,-0.0151844
-0.201066,0.00063276
-0.203563,0.0138537
-0.170555,0.0142306
-0.10574,0.00522831
-0.0493017,0.0142394
-0.00949187,0.0219583
0.0530938,0.0170375
0.137842,0.0146919
0.140531,0.00648553
0.147918,-0.0122387
0.262113,-0.00782524
0.397081,-0.0287674
0.276981,-0.0454814
-0.095656,0.00681978
-0.120713,0.00822184
0.0391948,0.00571067
0.101183,-0.0141359
-0.134233,-0.0339637
-0.469762,-0.0375865
-0.467034,-0.00418797
-0.328841,0.0141285
-0.138172,0.0087617
-0.0400918,-0.0160007
-0.000700853,-0.0254659
0.0203586,-0.0184135
0.0394816,-0.00737152
0.002267,0.0132277
-0.0909307,0.0253127
-0.0798467,0.0176605
-0.00190437,0.00594877
0.0516741,-0.00232463
0.0789516,0.0014955
0.0981408,0.0118702
0.135586,0.0010005
0.181315,-0.0275833
0.204739,-0.0227401
0.179664,0.00764828
0.0921351,0.00704085
0.0543025,-0.000638891
0.123839,0.0159581
0.239996,0.0124855
0.145815,0.0100292
-0.0683939,-0.0167963
-0.1624,0.0251576
-0.3161,0.0938242
-0.303399,0.0398469
-0.230358,-0.0295017
-0.111271,-0.051491
0.0471505,-0.054443
0.16056,-0.0339134
0.166137,-0.00354571
0.102693,0.000379983
-0.073803,-0.00854131
-0.162315,0.0308706
-0.102363,0.0667848
-0.0378128,0.0671601
0.018839,0.034182
0.121477,-0.00974967
0.266559,-0.0286014
0.220998,-0.0246369
0.0273323,-0.0283188
-0.212659,-0.0388244
-0.29619,-0.0191277
-0.133441,0.0374807
-0.00642611,0.0321359
0.0497359,0.00594803
0.0879813,-0.0323983
0.1004,-0.0208337
0.0991531,-0.0211815
0.0618918,-0.0270133
-0.0506444,-0.0227837
-0.0733185,-0.0513237
0.0477464,-0.0570649
0.10962,-0.00234254
0.0934121,0.0520031
0.0494649,0.0506811
0.120179,0.0427997
0.0445499,0.00160409
-0.142014,-0.014289
-0.0336414,0.00885419
0.0424574,0.0259081
-0.0601831,0.0130974
-0.200962,0.0186265
-0.346994,0.0140238
-0.204144,0.00544046
-0.0427104,-0.0180522
-0.0120475,-0.0313883
-0.00161963,-0.0340172
0.0198739,-0.0310263
0.106865,-0.00603317
0.159726,0.0396014
0.10178,0.039854
-0.0329063,0.00706269
-0.172915,-0.0195259
-0.0971262,0.0176513
0.10936,0.031368
0.168475,0.0216174
0.124984,-8.75e-05
0.0488252,-0.0142501
0.0359066,-0.0165316
0.0916431,-0.00973292
0.0648886,0.00683365
-0.049902,0.0138475
-0.113927,0.0132602
-0.0376332,0.0138583
0.057057,0.016606
0.0528796,0.00841775
-0.00225153,-0.0143243
-0.0721815,-0.0215359
-0.161446,-0.0100706
-0.124993,-0.00751069
-0.0491278,-0.0219906
-0.013223,-0.0341705
0.0011077,-0.0527346
0.0396371,-0.0554958
0.0634154,-0.0288418
0.0654999,0.00415117
0.060769,0.0342394
0.0639186,0.00667917
0.0763361,-0.0306169
0.0885511,0.0140198
0.12438,0.0396545
0.150348,0.017303
0.163584,0.00813379
0.1393,0.00243996
-0.00367784,-0.0112034
-0.162945,0.00419483
-0.254804,0.0220969
-0.23375,0.0184784
-0.146173,0.0510192
-0.0313444,0.0608349
0.0180938,0.0300256
-0.0212762,-0.021903
-0.0345512,-0.0279113
-0.0546801,-0.0133672
-0.0403205,-0.0212791
0.0013107,-0.0321698
0.103068,-0.0323048
0.12101,-0.0213592
0.0393499,-0.0109567
0.0125253,-0.0114154
-0.0306934,-0.00906868
-0.0190658,0.00246795
-0.0215782,-0.0171958
-0.206536,-0.00964394
-0.224717,0.00699558
-0.051229,0.0128043
0.0462199,0.0326218
0.0388373,0.0273013
0.0388593,0.0320418
0.0586829,0.0266092
0.0475321,-0.00416372
0.153783,0.00960726
0.265928,0.0286892
0.272216,0.036951
0.190257,0.0177375
0.00416474,-0.00626094
-0.0491848,0.00555483
-0.131032,-0.00116795
-0.277876,-0.0309053
-0.31797,-0.0431171
-0.178884,-0.0257435
-0.070498,-0.00104283
-0.0337938,-0.0015053
0.0362047,-0.00970299
0.0690904,-0.0118186
0.107685,0.0160341
0.238866,0.0115437
0.247513,-0.0267064
0.149674,-0.0362967
-0.0670069,0.00245715
-0.250445,-0.033781
-0.22642,-0.0266574
-0.164992,0.0158817
0.0521585,-0.00277206
0.2103,-0.0498012
0.136979,-0.0459755
-0.0720787,0.0110633
-0.0816416,0.0361623
0.0339755,0.0261531
0.123091,0.0270186
0.262369,0.0229005
0.372322,-0.0172825
0.359708,0.000901438
0.0223916,0.0367215
-0.464524,0.0370333
-0.621097,0.0495343
-0.400872,0.027298
-0.171909,0.0120187
-0.0321037,0.0185936
0.0590443,0.0328423
0.0417949,-0.00250596
-0.0321361,-0.0252216
0.00574541,-0.0193823
0.100435,-0.0556874
0.113241,-0.019063
0.0610669,-0.00186123
0.0165668,-0.00802712
0.00903023,-0.000517699
0.048685,0.00669122
0.0297327,0.000795682
0.00547475,-0.00672659
-0.000222273,0.0167687
0.0141958,-0.00017165
0.0287568,-0.0156467
0.0297735,-0.00490786
-0.000181837,0.00500446
-0.0221688,0.00446398
0.00747774,0.00608434
0.0343794,-0.0253024
0.0423945,-0.0320843
0.0290733,-0.007116
0.00733205,-0.0187035
0.00467626,0.00374694
0.0189943,0.0271744
0.0395718,0.0344294
0.033943,0.0204328
0.00859222,-0.0372166
-0.0130026,-0.07902
-0.044415,-0.00367885
-0.047473,0.0378665
0.00659594,0.0185613
0.0974606,0.0173569
0.231335,-0.00638126
0.187694,-0.0102919
0.0319041,0.0119493
-0.175452,0.0182586
-0.297545,0.0114774
-0.149001,0.017293
0.0349766,-0.000769985
0.0478131,-0.0166896
-0.006768,-0.0123639
-0.016215,0.00327172
-0.0494285,0.0172932
-0.0725733,-0.00275639
-0.0227049,-0.0345287
0.0384538,-0.00721547
0.0987715,0.0175132
0.113935,0.0084603
-0.0411965,-0.0093889
-0.091348,-0.00875759
-0.0755716,-0.000781599
-0.0980525,-0.00345324
-0.0845657,0.00442374
-0.0592943,0.0197072
-0.0357639,0.0305659
0.0030488,0.0330068
0.0482758,0.0146304
0.0712959,0.00207879
0.0774555,-0.020204
0.0267926,-0.023027
-0.015056,-0.0104996
-0.000679499,-0.014791
-0.0108689,-0.014281
-0.0309506,0.0083717
0.11739,0.0112308
0.29646,0.0228122
-0.0547692,-0.00482671
-0.276615,-0.0487082
-0.243678,-0.0681022
-0.070016,-0.00357687
0.139672,0.00970771
0.283106,-0.0109461
0.303066,-0.01394
0.163974,0.0390438
-0.128583,0.0804416
-0.245355,0.03007
-0.212304,-0.0144715
-0.124643,-0.00748487
-0.0210922,0.061745
0.0211493,-0.00628133
0.00704907,-0.140998
-0.00674297,-0.0829103
-0.02002,0.0299128
-0.00536331,0.0383891
-0.00932229,-0.0308084
0.0307381,0.00697184
0.147182,0.0413253
0.135845,0.0111072
0.0767055,-0.00486751
0.0108042,-0.00421928
-0.031015,0.00420991
0.0313127,0.0188551
0.0423652,0.0211614
-0.045148,0.0282501
-0.0779097,0.0592222
-0.0380459,0.0206637
-0.051911,-0.0034719
-0.0436873,-0.0163101
0.00472348,-0.0233242
0.0199984,0.00773871
0.114332,0.00277237
0.257723,-0.0114486
0.282167,-0.0229215
0.17387,-0.00934391
-0.100061,0.0106668
-0.387684,-0.0102491
-0.30305,-0.0155618
-0.0583157,0.00781919
-0.0366949,0.0192427
-0.0996644,0.0120699
-0.117793,-0.0135671
-0.080672,-0.0300945
-0.0349786,-0.0232653
-0.0233137,-0.00610584
-0.041467,-0.000385598
-0.0292344,0.00360416
-0.00543568,0.00532944
0.04669,-0.0102005
0.131161,0.000979049
0.186584,-0.0127485
0.262197,-0.0449987
0.256489,0.0048602
0.181861,0.0395128
0.0468157,0.0131613
-0.152635,-1.97e-05
-0.0975316,0.0161785
0.0317265,0.00971756
0.0170151,-0.00564433
-0.0606759,-0.00940896
-0.19331,0.00885845
-0.177367,-0.0163874
-0.0543927,-0.0082931
0.0413407,0.0168884
0.0730173,0.017654
0.197082,0.0222604
0.164982,0.00266305
-0.0980524,-0.0222877
-0.344797,-0.00748271
-0.370847,-0.0099959
-0.119895,0.0175521
0.0442856,0.0289028
0.132531,0.0236971
0.0846978,0.00384039
0.0231123,-0.0132858
0.0058497,-0.0196268
0.0113252,-0.0093911
0.0102332,0.0149801
-0.00787141,0.0164812
-0.0257293,-0.00763457
-0.0427083,-0.000348048
-0.0311218,0.0029487
0.0238328,-0.00441735
0.0794672,-0.00433162
0.106682,-0.00480267
0.0539608,-0.000671897
0.0299044,0.00614729
0.240654,-0.0113051
0.374006,-0.0541403
0.287364,-0.0523103
-0.00309533,-0.0153109
-0.358597,0.0242984
-0.292336,0.0312285
-0.11225,0.00836065
-0.0856891,0.0157941
-0.0676802,0.00523592
0.0160739,-0.029449
0.0825467,-0.0245073
0.0674122,0.0166509
0.0204814,0.0186517
0.0234219,-0.0115318
0.0596601,-0.0192525
0.00239936,0.0136413
-0.0957926,0.0153229
-0.101642,0.0061745
0.0285391,0.0435826
0.0462089,0.0673109
0.0155705,0.0425675
0.0399759,-0.00192821
0.0147327,-0.0292301
-0.0976988,-0.0232328
-0.144872,0.00296346
-0.124534,0.0044563
-0.0922514,-0.0280618
-0.0444532,-0.0576286
0.0434345,-0.0199667
0.0871666,0.00563495
0.0363424,-0.0088826
-0.0877531,-0.0251544
-0.0503265,-0.0228873
0.135126,-0.0305303
0.190461,0.00648634
0.114982,0.0212882
-0.0790109,0.00871003
-0.147891,0.00383824
-0.0354165,0.0054157
0.0537537,0.0320721
0.093205,0.0354403
0.0944241,0.0225621
0.0315331,0.0150964
-0.0869777,0.00240143
-0.0950196,0.00160858
-0.027717,-0.000621122
0.052061,-0.005062
0.0803316,-0.00561523
0.0792667,0.00423559
0.0408528,-0.00630413
0.0686372,-0.0364751
0.146276,-0.0230791
0.129609,0.0258029
-0.00943442,0.0510456
-0.106306,0.0069881
-0.194899,-0.0430893
-0.216158,-0.0537621
-0.104152,-0.0638669
-0.0421213,-0.041511
0.00539297,0.00260681
-0.00293488,0.0179857
-0.0584962,0.0236948
-0.093592,0.0131098
-0.0799474,-0.00499175
-0.0384659,0.0229248
-0.00405404,0.0364108
0.0190359,0.0281227
0.0662309,0.0256399
0.115526,0.028907
0.0951171,0.0128028
0.0712651,-0.019057
0.0984645,-0.0121089
0.193384,0.0036479
0.243648,-0.00563299
0.184846,0.00612922
0.0141251,0.00272583
-0.24455,-0.00592716
-0.276064,0.00931009
-0.18391,0.0131739
-0.159903,-0.00439752
-0.0831343,-0.0167161
0.00916542,-0.00429046
0.0690283,0.00511166
0.0987786,0.00284132
0.0718391,-0.00686566
0.103294,-0.00377141
0.107039,0.011364
0.0388442,0.00695176
0.00742148,-0.0226933
0.0119042,-0.0249787
0.144539,-0.010727
0.211317,-0.0193512
0.0678717,-0.000585071
-0.325447,0.023724
-0.461579,0.00322056
-0.249407,-0.0062294
-0.109131,-0.00484311
0.0215006,-0.00389167
0.0950089,0.00142678
0.0762431,0.0112142
-0.0416113,-0.0177659
-0.172194,-0.00707215
-0.139547,0.0176346
-0.00618947,0.0178159
0.0742689,0.0100327
0.191487,-0.00490296
0.355608,-0.0111711
0.382254,0.0184467
0.176754,0.0219975
0.0263826,-0.0078298
0.058612,-0.0259579
0.0955779,-0.00847639
-0.0259329,0.0168157
-0.254475,0.0228071
-0.231839,-0.0266712
-0.0991899,-0.0530167
-0.0841776,-0.0194198
-0.126407,0.00537184
-0.0901578,0.00178445
-0.00529989,-0.00430045
0.0602041,0.0133374
0.12098,0.0242113
0.0936818,0.0307848
-0.0884303,0.00644087
-0.225272,-0.0313784
-0.188241,0.0203099
-0.0603188,0.0123318
0.0183832,-0.00207326
0.0162412,-0.0139606
0.069353,-0.015456
0.234959,-0.0226505
0.283432,-0.0578688
0.105498,0.00985315
-0.181112,0.0291046
-0.281096,0.0120722
-0.133407,0.00927997
0.0716371,0.0188358
0.181681,0.0200134
0.183811,-0.0040125
0.147322,0.0114984
0.0432914,0.0183581
0.108388,0.0115085
0.323709,0.00304679
0.255069,0.00402751
-0.195963,0.0139696
-0.500703,0.000161375
-0.265353,-0.0282689
0.0466152,-0.0109171
0.07706,0.0209977
-0.122272,-0.00867642
-0.27061,-0.0243439
-0.127397,0.000742393
-0.0403953,0.0151444
0.0313092,0.0328085
0.194742,0.0171902
0.299145,-0.0102039
0.223519,-0.0937757
0.0104341,-0.083081
-0.133254,0.0249406
-0.0797274,0.0363506
-0.0665401,0.0269571
-0.119243,0.0212186
-0.132719,-0.013361
-0.0628376,-0.0333251
0.0133436,0.00450655
0.0742327,0.0179564
0.0839983,0.0215895
0.0427684,0.0213225
-0.00693434,-0.00465233
-0.0550014,-0.0259248
-0.0601068,-0.0192035
-0.0292656,0.00370284
-0.00467731,0.00617237
-0.0159054,0.00968137
-0.0481619,0.0119246
-0.0685521,0.0075681
-0.0466089,0.00883619
0.0212896,0.0168492
0.0564548,0.0253599
0.0499561,0.0175189
0.0414796,-0.00345867
0.0497088,-0.0109363
0.0747632,-0.00643221
0.216131,-0.00813739
0.434124,-0.0241143
0.578928,-0.0280247
0.48105,-0.0487638
0.192829,-0.0593876
-0.191634,0.0362645
-0.313318,0.0379492
-0.418733,-0.0214011
-0.5787,-0.0125722
-0.451452,0.0164845
-0.210123,0.0202104
-0.123981,0.02218
-0.0719437,0.0324608
0.0113006,0.0414712
0.0765549,0.0428733
0.061442,0.0145143
-0.00947575,-0.0188422
-0.0619386,-0.0440826
-0.0573722,-0.0347148
-0.0312113,-0.0439908
-0.0743343,-0.0328922
-0.0780236,-0.0145117
0.0204112,0.0129131
0.134988,0.0249417
0.224059,0.0169083
0.246865,0.0211601
0.329089,0.0127761
0.29657,-0.000167831
0.219283,0.00759714
0.0298847,0.00700738
-0.246405,-0.0166528
-0.248786,-0.0351266
-0.0481701,-0.0197676
-0.00279613,-0.0173303
-0.0528731,0.00181414
0.0349053,0.0357944
0.097057,0.0228992
-0.0420731,0.00219664
-0.311061,-0.00861037
-0.28326,-0.00053082
-0.122221,0.0204844
-0.00997889,0.00252936
0.114618,0.00246054
0.174139,0.00621507
0.161839,-0.000123322
0.0160964,0.0132368
-0.100836,0.0278142
-0.021263,0.00156118
0.0388049,-0.00272434
0.0586644,-0.00544282
0.0189278,-0.00136841
0.000460145,-0.00363458
-0.0316269,-0.0202289
-0.102489,-0.0225034
-0.111552,-0.02733
-0.0521983,0.00526675
0.0029721,-0.00827897
0.0612803,-0.0195816
0.163272,-0.0188106
0.195502,-0.0171455
0.146068,-0.00628379
0.0574897,-0.0177162
-0.004927,-0.0137935
-0.0486083,0.0274506
-0.13706,0.0220486
-0.1049,0.0114609
-0.0379214,0.00943797
-0.00310671,-0.0235244
-0.0437874,-0.00857402
-0.0609037,0.0634333
-0.0138878,0.0580957
0.0327136,0.0275797
0.047335,-0.0197633
0.044224,-0.0383582
-0.0179711,-0.0167817
-0.0354915,0.0146549
0.0366091,0.0119957
0.137238,0.00719217
0.132152,-0.00853496
0.0115519,-0.0192139
-0.0943267,-0.017247
-0.154304,-0.0125146
-0.1194,-0.00488302
0.0084188,0.00661413
0.0460858,0.0157133
-0.0239703,0.0118136
-0.105135,0.00125206
0.00672818,0.00342135
0.188881,0.00790018
0.269856,0.00413457
0.233015,-0.00255211
0.117469,-0.00786942
-0.0928874,-0.0294123
-0.272371,-0.0379389
-0.275317,-0.0237537
-0.185655,0.0112693
-0.0152799,0.011753
0.0869208,0.0141509
0.185141,0.0197434
0.190359,0.00523064
0.079718,0.0222542
-0.0182697,0.0400355
-0.0938032,0.0114038
-0.172431,-0.0035895
-0.293029,0.00287183
-0.287319,0.00771321
-0.119413,0.00993573
0.00397348,0.014582
0.0981931,0.00915793
0.153996,-0.011511
0.154309,-0.0158372
0.0702202,-0.0051385
-0.017461,-0.0132223
0.135211,-0.0757468
0.331104,-0.0531792
0.275421,0.0202851
0.05913,0.000712737
-0.237249,-0.00706531
-0.219058,-0.0215573
-0.103208,-0.0327269
-0.166952,0.00870384
-0.177445,0.0272155
-0.0810476,0.0306175
0.00594375,0.016797
0.0401273,-0.000995894
0.0420932,-0.00858123
0.00124129,-0.00576648
-0.0472134,0.00621316
-0.0113072,0.0231435
0.0365127,0.0221552
0.050083,0.0087382
0.0703924,-0.00336184
0.152316,0.00140254
0.272483,0.00591059
0.300698,0.0169835
0.178675,0.0293992
-0.0277014,0.0213272
-0.107393,0.00846385
-0.201267,-0.0185349
-0.151779,0.00943273
-0.101541,0.00806825
-0.17712,-0.0326636
-0.157894,-0.0301654
-0.0514187,-0.0145257
0.0406471,-0.011329
0.0841118,-0.000527602
0.0370757,0.00647056
-0.0417984,-0.0152198
0.0498382,-0.0307376
0.20192,-0.0303707
0.222375,-0.0163332
-0.0324344,0.00251494
-0.282004,0.0289492
-0.282529,0.0147458
-0.130744,0.0375458
0.0821211,0.0177367
0.218902,-0.0408165
0.215903,-0.0303534
0.0614424,0.00710296
-0.159291,0.0174542
-0.246173,0.017629
-0.114979,0.00172461
0.0398674,-0.0199036
0.216351,-0.00468377
0.250801,0.0193909
0.13791,0.0157042
-0.0131852,0.000387268
-0.10475,-0.00826398
-0.0648431,-0.0287442
-0.087588,-0.0187126
-0.136493,-0.0321778
-0.0411559,-0.00723718
0.0879598,0.033111
0.128072,0.0175561
0.0888211,0.0147615
-0.028781,0.0286682
-0.159285,0.0238154
-0.134097,0.00801278
-0.0549504,0.0198339
-0.0176997,0.034938
-0.0022285,0.017446
0.0173264,-0.0120179
0.0554909,-0.016296
0.0967758,-0.00460926
0.0766613,0.00534945
-0.0668872,0.00741335
-0.186866,-0.00241537
-0.104138,-0.00358359
0.0129281,-0.00824766
0.0325951,-0.0145189
0.0697789,-0.0156696
0.184475,-0.00179697
0.363219,0.0188217
0.449612,-0.0111768
0.282434,-0.0474362
-0.0782092,-0.0169624
-0.348271,-0.0383319
-0.207113,-0.0205598
0.076805,-0.00162091
0.103462,-6.86e-05
-0.164255,0.0161359
-0.479111,0.00932428
-0.361173,-0.0107162
-0.116501,0.0157459
-0.0343196,0.0128596
-0.00211922,-0.00729663
0.0351688,-0.00164585
0.0610446,0.00352872
0.0371531,-0.00612534
-0.0106386,0.00929215
0.0185659,0.0344814
0.0823131,0.0326584
0.116268,0.0121577
0.0605329,-0.0078005
-0.0620151,-0.0126791
-0.0690853,-0.0298797
-0.00256427,-0.0419037
0.0493917,-0.00398533
0.0765035,0.0258764
0.100034,0.0212246
0.190299,0.00553209
0.444551,0.0108733
0.557689,0.00343576
0.334497,-0.00122883
-0.0881453,-0.00279669
-0.562492,0.00344899
-0.591664,0.00718178
-0.403289,0.00585727
-0.228273,-0.00147777
-0.0897016,0.00161482
-0.0115524,-0.00322485
0.0043607,-0.020163
0.0134709,-0.0127511
0.0434011,0.0133311
0.0908711,0.0107077
0.0837297,0.00908557
-0.0274331,0.00621603
-0.0517029,-0.00322231
0.0761887,-0.0131744
0.182798,-0.013916
0.234317,-0.0110933
0.153639,0.00529173
0.0250261,0.00907934
-0.0419789,-0.0293062
-0.141863,-0.0445226
-0.109287,0.0260512
-0.0147911,0.0409337
0.0396285,0.0248054
0.0876021,0.022955
0.0408297,0.0183126
-0.128221,-0.0083047
-0.233571,-0.00180861
-0.0897749,0.0340618
0.0972551,0.0245377
0.0549976,-0.026293
-0.10091,-0.0556751
-0.0943854,-0.0554552
0.194251,-0.043921
0.37155,-0.0109582
0.248084,-0.00211765
-0.0367793,0.00427196
-0.127949,0.00908325
0.107926,0.0084152
0.0475322,0.0155171
-0.200135,0.0324664
-0.186802,0.00968886
-0.0445412,-0.0261936
-0.0398669,-0.0141704
-0.166327,-0.00464933
-0.189983,-0.0323
-0.0710585,-0.0267397
0.0392145,0.0426833
0.139257,0.0556844
0.193633,0.0297014
0.222544,0.00782913
0.221535,0.00342225
-0.0640567,0.014309
-0.282584,0.0305407
-0.201027,0.0382437
-0.00905326,0.0233369
-0.0290843,-0.00494598
-0.0685092,-0.0219495
0.00121647,-0.0204515
0.0368459,-0.0389044
0.0436716,-0.0894637
0.0181526,-0.055942
0.00476448,-0.00342458
-0.0235246,0.0136083
-0.0307381,0.0247488
-0.0269031,-0.0151195
-0.0164014,0.00465596
-0.00115429,0.0335564
0.0288432,0.016826
0.0501236,0.00900515
0.0351744,0.0178004
0.0218436,0.0201889
0.0501803,-0.00305528
0.0712983,-0.00919466
0.0271725,0.00463948
-0.0246357,0.00237616
-0.0286218,0.00313292
-0.0132815,-0.0106868
-0.0146526,-0.0122235
0.0345674,0.00170976
0.158715,0.00108419
0.175556,-0.00638956
0.0933692,-0.00406925
-0.109248,0.00778993
-0.238985,0.0142258
-0.0705819,0.00671776
0.182813,0.00115328
0.407936,0.00605162
0.393185,0.0038261
0.170126,-0.00374597
-0.334917,-0.00658253
-0.603534,-0.00150753
-0.276191,-0.00407903
-0.0449568,0.000993289
0.00346055,0.0104672
-0.00976834,0.00747187
-0.112795,-0.000764871
-0.124847,-0.0102878
-0.0785472,-0.0218539
0.044983,-0.0206059
0.152878,0.0053053
0.163025,0.0104868
0.00785394,0.00570987
-0.204236,0.0323616
-0.208015,0.062576
-0.114354,0.0415286
0.0749483,0.00141237
0.159807,-0.0307114
0.0854067,-0.0620027
0.0334008,-0.0568253
0.0759415,-0.0316512
0.182426,-0.00423653
0.215145,-0.00106857
0.105996,-0.00338441
-0.0428254,0.00367628
-0.0632536,0.00461487
-0.0419922,-0.00819468
-0.073807,-0.0232852
-0.190411,-0.0243927
-0.194758,-0.00742869
-0.0790096,-0.00780727
-0.0150514,0.00648163
0.0240326,0.0286137
0.0608733,0.0198622
0.0835229,-0.0122596
0.0724104,-0.0146033
0.0612627,0.00202492
0.0967698,-0.00324211
0.157877,0.0102033
0.219237,0.0247699
0.129067,0.0217539
-0.00311303,0.0139738
-0.134252,0.000550601
-0.226374,0.0020237
-0.096874,0.0103121
-0.0147139,0.0066102
-0.104168,0.00242877
-0.155635,0.0136085
-0.0571516,0.0180078
0.0312445,0.00578935
0.0573378,-0.0144933
0.0599148,-0.0382897
0.0332346,-0.0161346
0.0114533,0.0314593
0.0183508,0.0320104
0.00568401,0.0129927
-0.0301261,-0.0121645
-0.106965,-0.0121267
-0.0961581,-0.00230132
0.0269889,0.0150164
0.114248,0.0174011
0.0808079,0.0203963
0.0403105,0.022672
-0.0062298,0.00582452
0.0119182,-0.0243135
0.0634818,-0.0275044
0.11425,-0.0399236
0.12921,-0.0555467
0.0929515,-0.0130345
-0.0245892,0.018524
-0.143151,0.0121786
-0.142554,2.57e-05
-0.0546679,-0.0128516
0.0363527,-0.038699
0.0155099,0.00490324
-0.18696,0.0271217
-0.208168,0.0088462
0.00756389,-0.0011905
0.173582,-0.00213856
0.24157,0.00655413
0.182654,0.00643575
0.0739644,0.00744604
0.00786882,0.015918
-0.110832,0.0129673
-0.190846,0.0195184
-0.136715,0.0285221
-0.00988223,-0.0132197
-0.0266929,-0.0374706
-0.158395,0.00377453
-0.135414,0.0214139
0.0798741,0.00768502
0.177561,-0.0393621
0.0967721,-0.00854059
-0.0707114,0.00380673
-0.200842,-0.0159447
-0.14387,-0.0199965
0.0148595,-0.0143271
0.12953,-0.00190207
0.152115,0.0170353
0.0837184,0.0215953
-0.0621209,0.0167462
-0.0987462,0.0157119
-0.0373451,0.0106094
0.00256173,0.00679021
0.0733628,-0.00531123
0.21873,-0.00988207
0.415597,-0.00562951
0.414434,-0.000336388
0.0816417,-0.00365318
-0.304758,-0.0113001
-0.479476,-0.00611825
-0.333782,0.00506863
-0.162214,0.0117788
-0.0517512,0.0177903
0.0617843,0.0162726
0.111115,-0.00148273
0.0740097,-0.0226311
0.0423693,-0.0233805
0.0310414,-0.00200372
-0.027423,0.0189497
-0.0317723,0.0184776
0.0169538,0.00466712
0.0336531,-0.00434941
0.036248,-0.0137376
0.00687217,-0.0149235
-0.0543021,-0.00987743
-0.0549942,-0.0063863
-0.0280569,-0.00906707
0.00785094,-0.0219146
0.0420227,-0.00847686
0.0674553,0.00338722
0.0859072,0.00702288
0.0919452,0.0102675
0.0356173,0.0115153
-0.0175988,0.00935016
-0.0157378,-0.00117269
-0.0222762,0.00142853
-0.047126,0.00818816
-0.0817557,0.0100586
-0.0741304,0.00498218
-0.0578141,-0.0031142
-0.0277291,-0.00348398
0.066926,-0.00544578
0.192908,-0.0155296
0.272132,-0.0245591
0.158513,-0.0244402
-0.0760562,-0.00663213
-0.231948,0.0244079
-0.173592,0.0423638
0.112411,0.0224088
0.212262,-0.0125525
0.0773849,-0.013355
-0.131898,0.00102279
-0.227347,0.0079919
-0.0286683,0.0143616
0.0786549,0.0214942
0.00322958,0.0209501
-0.176195,0.0230227
-0.245042,0.0126252
-0.0582802,-0.0132811
0.051498,-0.0356023
0.00919905,-0.0384806
-0.0544248,-0.0302502
-0.0340668,-0.0481538
0.0436131,-0.0137992
0.0698561,0.00746298
0.042036,0.00693586
0.0350965,0.00847576
0.0638154,0.0117141
0.0858235,0.0164104
0.0978442,0.0258775
0.0967074,0.0238454
0.107907,0.00864384
0.100773,0.000599786
0.00763787,-0.0112913
-0.147773,-0.028983
-0.162152,-0.0291747
-0.152109,0.00256185
-0.137824,0.0212598
-0.0444758,0.0219156
0.020929,-0.00127789
0.0192424,-0.00614558
-0.00363146,0.00546034
-0.00868007,0.0114706
0.0391011,-0.00512826
0.0871301,-0.0202391
0.14286,0.018815
0.158262,0.0235852
0.104085,-0.00676997
0.0272977,-0.0153646
-0.119938,-0.0032471
-0.189788,0.013858
-0.0850774,0.00435947
0.0606717,-0.0265515
0.11051,-0.0164388
0.00412915,-0.00171749
-0.0935958,-0.0138952
0.00869134,0.00090339
0.115674,0.0139089
0.0929415,0.0258564
-0.0701029,0.0301096
-0.194842,0.0112269
-0.10163,-0.0018176
0.0388186,0.0118245
0.0132774,0.00611096
-0.0469764,-0.0094898
0.0288683,-0.0114858
0.1292,-0.0207016
0.216399,-0.013401
0.138862,-0.00710631
-0.102002,-0.0140138
-0.236017,-0.0315893
-0.236141,-0.0377524
-0.119213,0.00308527
-0.000423954,0.0255611
0.0301555,0.026988
0.0980539,0.0255645
0.202207,0.0155859
0.290167,0.00575798
0.18418,-0.0159626
-0.123045,-0.0295923
-0.344822,-0.0151979
-0.314797,0.00476859
-0.0877404,0.0154382
0.0673813,0.0139721
0.115671,0.00532927
0.0976768,5.25e-05
0.0354724,-0.00159865
-0.00763289,0.0101509
0.0123345,0.0217777
0.00321757,0.0190243
-0.0176149,0.00825867
-0.0112172,0.00381947
0.0997597,-0.00123205
0.31152,-0.0328077
0.303927,-0.0104184
0.10715,0.000568405
-0.151297,-0.0128038
-0.45985,-0.0134927
-0.455205,-0.00493769
-0.203251,0.0111036
0.0109462,0.0111088
0.0680094,0.00824421
0.0360402,0.00952977
-0.0496514,0.0155116
-0.0256861,0.000455928
0.0796831,-0.0573215
0.25866,-0.0286805
0.473269,0.0211011
0.578709,0.0238092
0.393413,0.0157197
-0.0815668,0.00285151
-0.393215,-0.00769534
-0.422241,-0.00648894
-0.285579,-0.0212617
-0.0717719,-0.0344574
-0.0320099,-0.0126856
-0.165447,0.0257986
-0.187258,0.0316833
-0.0777733,0.000383963
-0.0122227,-0.0188651
0.00149371,0.00179423
0.00868802,0.0298829
0.0209883,0.0138081
0.0140549,0.000504008
-0.00628293,0.00837951
-0.00702092,0.0065202
0.00448977,-0.000732179
0.0327381,0.0046561
0.0444185,0.00978128
0.0324038,0.00329848
0.0317612,-0.0107416
0.0624479,-0.00845144
0.208831,-0.0303633
0.317271,-0.0474454
0.236742,-0.00973161
0.0620983,0.00805956
-0.112962,0.0134739
-0.11133,0.0126603
-0.0747395,0.0211098
-0.123596,0.0215858
-0.0596965,0.0189583
0.0114495,0.00292463
-0.036526,-0.0301599
-0.105908,-0.00565591
-0.0106128,0.0126363
0.119403,-0.00188825
0.0873816,-0.0189892
-0.00331391,-0.0203843
-0.0398522,0.023147
0.0301368,0.0209185
0.0364253,-0.00795578
-0.04705,-0.0135351
-0.137096,-0.0123681
-0.084036,-0.00151335
-0.0798019,-0.00379547
-0.133648,-0.0284281
-0.109358,-0.0226289
-0.0479986,-0.00304376
0.0204106,0.00412091
0.0742823,0.0150396
0.163005,0.0331053
0.133227,0.0289737
0.0649478,-0.00573695
-0.00159135,-0.0196908
-0.169923,0.000331917
-0.110854,-0.00839118
0.0249193,-0.0106426
0.0460871,0.0155353
0.0584061,0.0201347
0.0312768,0.00347957
-0.022116,-0.00809406
-0.024883,0.0029528
-0.0448143,-0.0038199
-0.00428315,-0.0116021
0.094447,-0.013106
0.1939,-0.0114033
0.189255,-0.00426781
-0.0075894,0.00309147
-0.235895,0.00737432
-0.21508,0.0125757
0.0145669,0.0208587
0.288576,0.0216259
0.351777,0.0193446
0.35511,0.0164975
0.268645,0.00387042
0.0354192,-0.00466961
-0.196203,-0.00428408
-0.417214,-0.00504039
-0.338991,0.00476605
-0.230857,0.00414076
-0.177685,-0.0175419
-0.0980383,-0.0259787
-0.152763,-0.0285142
-0.237099,-0.0120211
-0.14689,-0.00562475
0.044525,-0.00410113
0.180859,0.00203226
0.282657,0.0199882
0.207587,0.0260585
0.041982,0.0201491
-0.0167441,0.00686008
-0.00305271,-0.00355333
0.136133,0.00115361
0.18005,0.00453713
0.0364764,0.00635615
-0.0861523,0.00149573
-0.192868,-0.00957971
-0.155874,-0.0220123
-0.0821347,-0.0185024
-0.0521075,0.00202672
-0.0172756,0.0051646
-0.0088377,0.00483432
-0.0122435,0.0086321
0.0332684,-0.0423483
0.183643,-0.0507051
0.270229,0.0278661
0.190498,0.0338261
-0.0438696,0.00601577
-0.224021,-0.00118521
-0.117692,0.00643552
-0.0125209,0.0185084
0.0213738,0.00545567
0.0220607,-0.0153586
0.0403964,-0.0104688
0.0445876,0.010224
0.0497478,-0.00778037
0.0342605,-0.024496
-0.00588691,-0.0339952
-0.0406198,-0.0168044
-0.0926078,-0.00576818
-0.11216,0.0237225
-0.0670439,0.0310531
0.0294457,0.0296745
0.176916,0.0165512
0.208939,-0.00196318
0.141064,-0.0108975
-0.0236742,0.00253984
-0.145489,0.0107834
-0.0517289,-0.00444058
-0.00279282,-0.00739262
-0.0440813,-0.00156287
-0.0949702,0.000316252
-0.0702753,0.00475684
-0.0344755,0.00873412
-0.00800486,-0.0157159
0.0278608,-0.0194389
0.0732519,0.00896601
0.0717064,0.0212021
-0.0274379,0.027121
-0.165488,0.0177392
-0.110325,-0.00679877
-0.00118227,-0.0155282
0.209057,-0.0130983
0.393034,-0.0435329
0.290646,-0.0496471
0.0573908,-0.0350238
-0.259496,-0.0129408
-0.368937,0.0258451
-0.158811,0.00454852
-0.0252125,-0.00514653
0.0489665,0.0127689
0.0390673,0.0280648
-0.0439472,0.00534758
-0.0701895,-0.0216678
-0.0968821,0.0465061
-0.10953,0.0659184
-0.102316,0.0305617
0.0192031,-0.00693223
0.137901,-0.00113972
0.126335,0.011323
0.0159953,0.0016797
-0.121957,-0.00376393
-0.103409,-0.0219324
0.00344921,-0.0338256
0.0297425,-0.0140681
0.0211873,-0.017561
0.0285542,-0.0218549
0.0513777,-0.00846799
0.0103259,-0.00576437
-0.0100279,0.0130829
0.0593941,0.0201663
0.172005,0.00659824
0.411629,0.00891869
0.410547,0.00805464
0.200759,-0.00642907
0.0196107,-0.0119365
-0.287012,0.00238994
-0.323351,0.0140282
-0.20339,-0.00417608
-0.210249,-0.00690499
0.00192364,0.0201601
0.0729791,0.0142761
-0.0585803,-0.00448004
-0.0943941,-0.0087125
-0.0899786,-0.000177212
0.0484002,0.00268871
0.0590236,-0.00110322
-0.0716915,0.000155609
-0.14323,0.00509146
0.0134403,0.00424289
0.158192,0.000906114
0.156218,-0.000661367
-0.029006,-0.0027525
-0.190689,-0.00795105
-0.128486,-0.0139982
-0.0187437,-0.000113056
0.0200334,0.0117033
0.0366274,0.00923527
0.0443757,-0.00177228
0.0318305,-0.00753959
-0.0161668,0.00279979
-0.0549266,0.00729094
-0.0594982,-0.00721683
-0.0404696,-0.017156
-0.0128154,0.00574768
0.00782678,0.0101436
0.0197948,-0.00382773
0.0252642,-0.014824
0.00180938,-0.00680407
0.0407305,0.00263352
0.0802747,-0.00232975
0.0720212,-0.0189453
0.0561457,-0.0495332
-0.0189324,0.00220033
-0.0171619,0.0188833
0.0181342,0.00453906
0.0317906,-0.00616695
0.0735772,-0.00582153
0.228972,-0.00890781
0.368727,-0.0132515
0.249387,0.0124922
-0.133049,0.0278873
-0.444155,0.0231363
-0.293966,0.00349379
0.0341838,-0.00280302
0.166843,0.0124957
0.147896,0.0178352
0.0912709,0.0153236
-0.000358457,0.0190923
-0.115872,0.0212385
-0.291542,0.0108177
-0.270138,-0.00169055
-0.0527244,-0.00262146
0.085145,-0.0395868
0.140063,-0.0169075
0.178813,-0.00432335
0.146883,-0.0463172
0.0602798,-0.0270923
-0.202992,0.0146955
-0.425582,0.0140433
-0.262977,0.012089
-0.0359192,0.00537143
0.110006,-0.0296758
0.131322,-0.0121457
0.0655966,0.0300148
0.0229308,0.0184078
0.0391968,0.0157187
0.0176562,0.0144587
0.0377971,0.00753138
0.0726068,-0.00242723
0.0838248,-0.00319012
0.029284,0.00232488
-0.04507,0.00811568
-0.0728256,0.0100126
-0.0446038,0.0074211
-0.010189,0.00516162
0.00200137,0.00492932
-0.00373675,-3.46e-07
-0.0247028,0.00384357
-0.0115713,-0.00202594
0.0695474,0.0036711
0.147644,0.00791946
0.167347,0.00520426
0.139887,-0.00584161
0.0825922,-0.0213587
0.0063233,-0.0163623
0.0233455,-0.01864
-0.0276803,-0.0476894
-0.174195,-0.0359112
-0.196982,0.0195415
-0.112325,0.0157323
0.000367051,-0.00157772
0.0454877,-0.00345703
0.00568396,-0.00622905
-0.0614802,-0.0113676
0.0204934,-0.0123971
0.0831062,-0.00809471
0.0351442,-0.000880481
-0.0955475,-0.00536276
-0.154031,-0.0158152
-0.0740683,-0.0183463
-0.0176968,-0.0301199
0.0233624,-0.0287114
0.0461597,0.000577871
0.0567898,0.0214497
0.16843,0.0353848
0.306948,0.0364467
0.333059,0.0310141
0.228358,0.0227797
-0.0736046,0.0171045
-0.232226,0.0124344
-0.317626,0.0141963
-0.392628,0.0169921
-0.232603,0.0232748
-0.0622229,0.0126196
-0.00102523,-0.00986296
0.00073272,0.000801307
-0.0459949,0.010809
-0.0488932,-0.0144324
0.0901062,0.00878178
0.239793,0.0225031
0.252461,3.14e-05
0.11698,-0.0261514
-0.0712294,-0.0402149
-0.169739,-0.00814639
-0.115292,0.0266585
-0.0706183,0.0200227
-0.0246612,0.011156
0.0189747,-0.00164071
0.0421846,-0.0251022
0.06839,-0.00139363
0.0963856,-0.00083618
0.0994145,-0.00760778
0.07735,0.0122541
0.037179,0.0195595
-0.00765431,-0.00401172
-0.0394153,-0.0244252
-0.120952,-0.0202383
-0.163753,-0.00849522
-0.0919218,-0.00309735
0.00217468,-0.00515899
0.0447242,0.00348514
0.00230474,0.0010271
0.043664,-0.00577184
0.0677389,-0.0137701
0.0811633,-0.0113822
0.0741585,0.00172022
0.062638,0.00108621
0.0544717,-0.00175319
0.037366,0.00616129
0.00193376,0.0184555
-0.0228269,0.0130669
-0.0173653,-0.00192171
-0.00470316,-0.00485203
-0.0062002,-0.00312492
-0.0306626,0.00271012
-0.0719467,0.00482613
-0.0935989,-0.00173053
-0.0965683,-0.0132305
-0.0951423,-0.0168161
-0.0912843,-0.0197368
-0.0511293,-0.0248214
-0.0157801,-0.0274386
0.0479869,-0.0113909
0.104311,0.00582331
0.0954528,0.00797386
0.205954,0.0147282
0.351472,0.0169372
0.345144,0.008177
0.153954,-0.00829207
-0.147898,-0.0173341
-0.202379,-0.00502364
-0.263111,0.0104096
-0.310607,0.0189982
-0.175367,0.0200403
-0.0468823,0.0193144
0.0138947,0.0214371
0.0250733,0.0175482
0.00768294,0.0119404
-0.000718941,0.00742286
0.021102,0.00535722
0.0535315,0.00448966
0.0600139,0.00566121
0.0354197,0.0103767
-0.00307009,0.0116481
-0.0500689,-0.00241868
-0.15946,-0.0219829
-0.266166,-0.0226602
-0.216575,-0.0137998
-0.0251601,0.00187914
0.200619,0.012767
0.264484,0.00957787
0.188415,0.00195966
0.0287801,-0.0107783
-0.10579,-0.0229334
-0.102428,-0.0272747
0.00880816,-0.0212825
0.13057,-0.0131783
0.217605,-0.00651929
0.194973,-5.5e-05
0.0240501,0.00331684
-0.0980151,-0.000167514
-0.0977951,-0.00906292
-0.064567,-0.00763556
0.0339706,-0.00450141
0.0705298,0.000646161
0.0262036,0.0106384
-0.0210434,0.0124224
-0.0300915,0.0111344
-0.0417072,0.01543
-0.0703235,0.0126264
-0.0765992,0.00358563
-0.0488094,-0.00339269
-0.00173312,-0.00442155
0.0277831,0.0123785
0.025306,0.0192932
0.00525463,0.0182773
-0.0238439,0.0203327
-0.0381097,0.0122857
-0.0234564,-2.99e-06
0.0314019,-0.0008374
0.183131,0.00394476
0.240997,0.00635759
0.113443,-0.00550242
-0.158823,-0.0302779
-0.343461,-0.0157546
-0.144372,-0.00163413
0.00632669,-0.0185614
0.0444051,-0.0321021
0.147144,-0.0156226
0.297621,-0.0028123
0.322682,-0.00472651
0.168011,-0.0114589
-0.191551,1.06e-05
-0.401706,0.0162685
-0.243838,0.0121224
-0.0944383,0.00470067
-0.0237696,0.0086349
0.00227061,0.0207022
-0.052463,0.0212334
-0.115643,0.0137237
-0.0716711,0.00274763
0.0168017,-0.000929013
0.0713497,-0.00373757
0.0456659,-0.0140941
0.00486123,-0.0202777
-0.000703234,-0.0182302
