Comp Ch 3,Comp Ch 4
0.0831033,0.00391752
0.0031594,0.00163339
0.0268801,-0.00189947
0.156439,-0.00438606
0.254419,-0.00719325
0.223582,0.00221453
0.193808,0.0115446
0.025687,0.00131814
-0.112851,-0.00011689
-0.0704267,0.00202188
-0.0613314,0.000785868
-0.176888,0.0160993
-0.305226,0.0398904
-0.228454,0.0337972
-0.106352,0.011023
-0.0315545,-0.00765643
0.0179011,-0.0104088
0.0458678,-0.00863212
0.0505965,-0.00351335
0.0175416,-0.00251927
-0.00140221,-0.0049568
0.00908541,-0.00551637
-0.00112088,-0.0113126
-0.00352703,-0.0202097
0.00763854,-0.0160216
0.0252137,-0.0138829
4.72e-05,-0.0113587
0.00329043,0.00383233
0.0966263,0.0100013
0.0828786,0.000941503
0.0169761,-0.000975095
-0.0910709,0.00586654
-0.0973016,-0.000263747
0.0618317,-0.0125065
0.236516,-0.00627358
0.419884,0.00119526
0.42085,-0.00220437
0.204035,-0.0144422
-0.0930514,-0.00887119
-0.328432,-0.00402078
-0.389417,-0.00569071
-0.329149,0.00658729
-0.245858,0.0158068
-0.10205,0.0229596
0.022785,0.0273998
0.00398416,0.0344293
-0.052634,0.0252791
0.0206515,0.0145853
0.358328,-0.00774096
0.620569,-0.0262613
0.482531,-0.0289347
-0.0342431,-0.0175678
-0.65225,0.00903379
-0.683733,0.0259689
-0.218741,0.0161561
0.0726876,-0.0138197
0.208473,-0.0305367
0.174667,-0.000434759
-0.0453559,0.0133088
0.0903497,-0.0168998
0.34334,-0.0166116
0.281392,-0.00969574
-0.065238,0.0125376
-0.301725,0.00481361
-0.135562,-0.0122753
0.0154385,-0.0221813
-0.171943,0.0072439
-0.286614,0.0690411
-0.233926,0.0602278
-0.0692296,0.0102007
0.00223554,-0.0130481
-0.0288072,-0.025535
-0.0214131,-0.0399851
0.0466309,-0.0450017
0.154555,-0.0312259
0.294442,-0.026146
0.269945,-0.000595678
0.135485,0.01834
-0.10497,0.0162788
-0.243184,0.00403099
-0.0933248,0.0108474
-0.0214231,0.011218
0.0351402,-0.00605737
0.1251,-0.0142628
0.193126,-0.0131317
0.186479,-0.00641351
0.0626556,0.0017401
-0.0458451,0.0203283
-0.0460097,0.0321005
0.0262131,0.00481572
0.0780157,-0.0477579
0.0216019,-0.0292984
-0.0532819,0.0337914
-0.05707,0.064611
-0.0578616,0.0656426
-0.0207026,0.0499524
0.109996,0.0204358
0.200421,-0.00263428
0.17708,-0.0256496
0.0383639,-0.0493931
-0.219786,-0.0575289
-0.352059,-0.0456549
-0.275045,-0.03085
-0.164179,-0.0344978
-0.100761,-0.017829
-0.0414063,-0.0134662
0.0167055,-0.0238849
0.0405217,-0.0264369
0.00724763,-0.0210821
-0.0380542,-0.0143777
0.00857477,0.00950221
0.229054,0.0225595
0.456748,0.0314065
0.385176,0.0419855
0.20598,0.0411048
-0.0964562,0.0309356
-0.434463,0.0273508
-0.436659,0.0331183
-0.259959,0.0368006
-0.0562355,0.0359155
0.129462,0.0313942
0.134042,0.0185755
0.0325641,0.00784407
-0.123922,-0.00348995
-0.119487,-0.00239774
0.144957,-0.00924359
0.454029,-0.0202046
0.640229,-0.00282734
0.572333,0.00396342
0.0346073,-0.00127837
-0.642542,-0.0149543
-0.781081,-0.0148742
-0.535668,-0.0239071
-0.187902,-0.0382847
-0.020633,-0.0257606
0.0482966,0.00561451
0.0682514,0.0112532
0.0496588,-0.0163682
0.109059,-0.0298999
0.136469,-0.0120765
0.108506,-0.00149998
-0.0258826,-0.00324167
-0.0977574,-0.00507119
-0.0506299,-0.00624044
-0.0162694,-0.00194107
0.0308288,0.0195918
0.124492,0.0155393
0.171023,0.00980824
0.0843234,0.00472257
-0.083315,-0.0284862
-0.108964,-0.0419696
0.0788747,0.000424166
0.241105,0.0116079
0.218447,-0.00606566
0.00959723,-0.00453693
-0.159781,-0.00456951
-0.0708742,-0.0305272
0.024827,-0.00125068
-0.00506268,-0.00552188
-0.168937,-0.0238642
-0.301501,-0.00941954
-0.216581,0.0199096
-0.080414,0.0312961
-0.044515,0.0176208
-0.0711915,-0.0018661
-0.0673031,0.0100563
0.0873998,0.0271482
0.200859,0.0125711
0.227754,0.00468998
0.206657,0.00844152
0.237127,0.0296161
0.496466,0.0390075
0.603631,0.0183204
0.32115,-0.00806621
-0.211732,-0.0109404
-0.538104,0.00912292
-0.514633,0.0152337
-0.433704,0.0255551
-0.250834,0.0227024
-0.112166,-0.00155303
-0.0112441,-0.0290449
0.0319384,0.000538189
0.0387517,0.00790796
0.0453189,-0.0249038
0.109206,-0.0293064
0.149206,-0.0229849
0.115217,-0.00725429
0.106929,-0.0013376
0.125451,-0.00320756
0.0539756,-0.00249111
-0.0599866,-0.0113061
-0.0988316,0.00176319
-0.20667,0.00125219
-0.210373,-0.00538245
-0.0931465,0.00594629
-0.0150718,0.00880787
0.0198433,0.00607058
0.0408539,0.00601766
0.0801408,-0.0036612
0.170525,-0.0177833
0.253991,-0.0207734
0.173361,-0.0110031
0.0519412,-0.00377656
-0.164685,-0.00105426
-0.315354,-0.000691153
-0.197518,0.00678563
-0.0060806,0.00760871
0.176338,-0.00198606
0.276419,0.000290495
0.240858,-0.00102345
0.151933,-0.0292182
0.0772594,-0.0177728
-0.0176498,0.00272347
-0.277034,0.0118302
-0.491933,0.032638
-0.285612,0.0483194
0.0258937,0.0592327
0.109575,0.00599165
0.0725965,-0.0496535
0.0974749,-0.051217
0.115787,-0.0553997
0.00420514,-0.0287291
-0.113026,0.00936092
-0.178435,0.0162507
-0.135315,0.0154141
-0.0257391,0.0107558
0.0137264,-0.00615394
0.0353535,-0.0136004
0.0930205,0.0111261
0.174887,0.0163627
0.22168,0.00180846
0.197015,-0.00356181
0.100367,-0.037655
0.00805523,-0.0559323
-0.0595069,-0.00169742
-0.135077,0.0328509
-0.14679,0.0184116
-0.131208,0.0158784
-0.0598406,0.0251002
0.0795468,0.0138567
0.108697,0.00469914
0.0543562,0.00926384
-0.073243,0.0160371
-0.163543,0.0268062
-0.149306,0.0235006
-0.0775941,0.00630259
-0.0051395,-0.00326776
0.0369603,-0.00623671
0.0538867,-0.0195782
0.0509066,-0.0441037
0.02446,-0.0219757
0.00182173,0.0113674
0.00254407,0.0159584
0.0122568,0.0040658
-0.0135097,0.00538439
-0.00319879,0.0149806
0.0680533,0.00581272
0.0684879,-0.00801112
-0.0810568,0.00841707
-0.0350403,0.018067
0.0505532,0.0205478
0.14937,0.00719151
0.196148,-0.00635161
0.177412,-0.00817237
-0.0232378,-0.0113892
-0.264098,-0.0093664
-0.204016,-0.00204594
-0.0951257,-0.00350882
-0.0259039,-0.0153656
0.0241202,-0.0121492
0.0309301,0.00375211
0.0639847,0.0113501
0.20662,-0.0112669
0.337409,-0.0251453
0.237339,-0.00466947
0.11714,0.0130098
-0.0778957,0.0238599
-0.214605,0.0145022
-0.224267,-0.00677616
-0.190346,-0.0032479
-0.105857,0.00197605
0.00256381,0.00265349
-0.0320573,0.000481715
-0.0272588,-0.00999364
0.0226823,-1.8e-05
-0.00954543,0.00285738
-0.0354182,-0.00658211
-0.149256,-0.0054462
-0.235261,-3.38e-06
-0.183039,-0.0102831
-0.0780687,-0.0163574
0.0200112,-0.0154933
0.0749189,-0.00172063
0.113494,0.012644
0.116668,0.00759334
0.0782689,-0.0155337
0.0572275,-0.00472917
0.126585,0.0174133
0.225766,0.00222319
0.207097,-0.0311907
0.0739897,-0.0226533
-0.0930671,0.00954631
-0.148041,0.023391
-0.115903,-0.0231693
-0.0531817,-0.0137827
-0.0113888,0.0242936
-0.00353359,0.00201751
-0.0117097,0.00340274
-0.00217335,0.00850151
-0.0110379,0.00256501
-0.0408231,0.00393846
-0.0723424,0.0128618
0.0130414,0.013532
0.162803,0.000969143
0.168082,0.00156165
0.0548073,-0.00786924
-0.070421,0.00639627
-0.0657741,0.0212313
0.0300295,-0.0200004
0.01698,-0.0397889
-0.0804064,-0.0107953
-0.0623917,0.0371964
-0.0618271,0.0269493
0.00415262,0.001182
0.0336123,-0.00526266
-0.0215845,-0.00810631
0.0685656,-0.0104564
0.0747535,0.0048289
-0.0288577,0.0295874
0.0538561,0.0456086
0.138862,0.035426
0.159671,0.00628586
0.0967262,-0.00628508
-0.0916171,-0.011783
-0.249774,-0.0151833
-0.223846,-0.0012447
-0.09045,0.0141942
-0.015093,-0.00158265
0.0116386,-0.0182749
0.0902866,-0.0157989
0.0986683,-0.0066903
0.0420559,-0.00908699
-0.0497832,-0.0191636
-0.179493,-0.0235313
-0.145947,0.000791814
-0.0145035,0.0256953
-0.0101804,-0.0189992
-0.0210136,-0.0241702
0.0204104,-0.00448159
0.0572814,-0.00534989
0.0616547,-0.00717156
0.081522,-0.0187392
0.160884,0.0119585
0.207096,0.0124333
0.236411,0.00504081
0.212926,-0.000335026
0.0603269,-0.0116213
-0.110333,-0.0136397
-0.160026,-0.00421269
-0.125805,0.00666996
-0.0730203,0.0108746
-0.0931991,0.00712322
-0.162718,0.00351955
-0.147208,0.00418612
-0.0690829,0.01017
-0.0289901,0.00641093
-0.0510635,0.0080954
-0.0665329,0.00302825
0.00123206,0.000398687
0.0430198,0.0115499
0.0164747,0.0122665
-0.0106907,0.00637117
0.00374251,-0.00318431
0.0219723,-0.0146145
0.0501923,-0.011531
0.0469516,-0.00117029
0.0285098,-0.00853764
-0.0216755,-0.0217429
-0.0349322,-0.0166216
0.0042844,0.0151895
0.0566853,0.0277297
0.124184,-0.0236139
0.136134,-0.0461483
0.092205,-0.00118222
0.067673,0.00811088
-0.00526022,0.0104887
-0.0120129,0.0234336
-0.029796,0.0234209
-0.142134,0.00882068
-0.142444,-0.00997286
0.00693551,-0.0156181
0.105361,-0.00901173
0.0796298,-0.00498675
-0.0187567,-0.00248816
-0.0411688,0.0136906
-0.0134099,0.00338653
-0.0150909,-0.0230739
-0.0503689,0.000369724
-0.0438107,0.0243485
0.0123406,0.0147359
0.0414236,0.00730178
0.0231716,0.0068108
-0.00871524,0.00575771
-0.0454533,0.00409011
-0.0287502,0.00645748
-0.0313608,-0.000543804
-0.0859667,-0.00935998
-0.0900014,-0.00770754
-0.0217377,-0.0084839
0.0348178,-0.00882626
0.0268958,-0.00617473
0.00268433,0.00427267
-0.014882,0.0113288
-0.0338341,0.0185426
-0.0121678,0.0280202
0.0278986,-0.000445253
0.0840403,-0.0268224
0.136731,-0.015064
0.136821,0.00572956
0.0831749,0.0125244
-0.0373489,0.0126061
-0.134146,0.017774
-0.0183154,0.00815178
0.122454,-0.00740913
0.124206,-0.0163946
0.0831063,-0.0113157
-0.027911,-0.00453525
-0.209077,-0.0013072
-0.159408,-0.00285545
0.0413469,-0.0148698
0.056193,-0.0249059
-0.0899766,-0.00613578
-0.0709119,0.00989684
-0.0228857,0.0172971
-0.00360783,0.0272429
0.0377862,0.0242381
0.0196126,0.00838368
0.0251107,-0.00703701
0.0197051,-0.0278223
-0.0325602,-0.0371744
-0.0644721,-0.0203823
-0.0224342,0.00254278
-0.0104911,0.00799576
-0.00620837,0.00322903
0.0376902,-0.00208562
0.0707734,0.0109126
0.133286,0.00156237
0.169808,-0.0106546
0.133543,-0.00755877
-0.0527938,0.00766044
-0.190204,0.00880898
-0.115042,0.00210281
-0.0395285,0.00596044
0.0118327,0.0200538
0.211573,0.0303988
0.229315,0.00437125
0.0765113,-0.00662934
-0.150053,-0.0295509
-0.347205,-0.0563819
-0.185167,-0.00142159
0.0610831,0.0346881
0.159996,-0.00233309
0.131304,0.0206828
0.0438648,0.0395797
0.013943,-0.0438131
-0.114007,-0.0598579
-0.251316,-0.0216531
-0.183424,-0.00264206
-0.0685867,0.0342558
-0.0295205,0.0256895
-0.0522271,0.02144
-0.0528426,0.0225916
-0.0182402,0.00832341
0.00708642,-0.0160067
0.0266008,-0.00759179
0.0528204,0.0107219
0.109619,0.00782353
0.138038,-0.012137
0.0527492,-0.00599565
0.00482319,0.00191977
0.0497183,-0.00163505
0.0894092,-0.00822864
0.0641451,-0.0143029
0.00862162,-0.0187743
0.00277506,-0.00121595
0.00580274,0.0134652
-0.0112381,0.0117724
-0.0117673,0.00101114
0.0303453,0.00477443
0.0934364,0.0104206
0.114399,-0.00489252
0.0734465,-0.0198666
-0.0532496,-0.0140289
-0.185817,0.014086
-0.106772,0.0228994
0.00823138,0.00747582
0.0682827,-0.00453072
0.0939736,-0.00453566
0.0617309,-0.0038737
0.0203107,-0.00269441
-0.0209303,-0.0122114
-0.08321,-0.0457683
-0.0977018,-0.065716
0.0339352,0.0164373
0.19733,0.0436643
0.197766,0.0209722
-0.0385634,0.0139945
-0.152181,-0.00111274
-0.172054,0.0320705
-0.250715,0.0196865
-0.161814,0.0066434
0.0129056,0.00233319
0.097158,0.00730464
0.139101,0.00646082
0.183283,-0.00702631
0.115287,-0.00346164
-0.179617,-0.00889746
-0.292545,-0.0186813
-0.100832,-0.0125191
-0.0392949,-0.00682909
-0.0715149,-0.00594365
-0.108776,0.0224472
-0.151809,0.0162392
-0.090351,-0.00206217
0.0755059,0.00110413
0.182976,0.00122653
0.214533,-0.00180584
0.369551,7.7e-05
0.522925,-0.00327284
0.621549,-0.00633769
0.445243,-0.000216267
-0.107383,-0.00632507
-0.605654,-0.00659724
-0.682664,-0.00306435
-0.440195,0.000874448
-0.15533,0.000487258
-0.00622501,-0.00991858
0.104263,-0.0126448
0.0935095,-0.000738001
0.00383996,-0.00166671
-0.0511511,0.0189698
-0.104855,0.0209675
-0.120327,0.00364536
-0.0186761,-0.0100457
0.0455951,-0.00779576
-0.0188581,0.0144677
-0.106823,0.0158541
0.0040165,0.00354768
0.177957,-0.00381957
0.222671,-0.0109652
0.112705,-0.0573108
-0.0418895,-0.0404532
-0.0367219,0.0366058
0.153248,0.0586368
0.246408,0.0234702
0.117297,0.00224686
-0.155995,-0.000824541
-0.214045,-0.00340545
-0.146462,0.00395377
-0.0901718,0.0134403
0.0152504,-0.0143785
0.05363,-0.0121104
-0.0141519,-0.0205383
-0.0403898,-0.115128
-0.0141995,0.0244603
0.0172481,0.0730243
-0.00364032,0.041418
0.0472472,0.034585
0.148145,0.0310404
0.0654092,-0.0188072
0.00279511,-0.0417899
0.101797,-0.0204161
0.105748,-0.0378119
0.0466519,-0.0499043
-0.107242,-0.0108895
-0.296401,0.0274812
-0.27505,0.0194552
-0.170255,0.0422281
-0.0650726,0.0564298
-0.0262064,0.0202175
-0.0590471,-0.00486032
-0.043414,-0.0373116
0.0650302,-0.0665893
0.0990258,-0.0334461
0.217248,-0.00994969
0.554278,0.0175394
0.691446,0.0189781
0.496374,-0.00661825
0.174523,-0.0789317
-0.0267388,0.0115848
0.0176135,0.0430499
-0.040212,-0.0193693
-0.426278,-0.0310365
-0.600908,0.0234561
-0.494777,0.0336414
-0.357734,0.0213455
-0.275012,0.028677
-0.151583,0.0398564
-0.126603,0.0228312
-0.102891,0.00577035
-0.129863,0.00212915
-0.224621,0.0113653
-0.213715,0.0111233
-0.13092,0.00533873
-0.0213945,0.00530764
0.112026,-0.00192345
0.384824,-0.0176459
0.493087,-0.0229055
0.260101,-0.00494094
-0.0155649,0.0214763
0.12962,0.0271169
1.11023,0.0203318
1.72279,-0.0110716
1.51993,-0.0875978
0.13828,-0.0947506
-1.18777,-0.0137197
-1.36091,0.0122646
-1.08656,0.0171847
-0.785031,-0.0204906
-0.541455,-0.0020273
-0.100568,0.0474168
0.290001,0.0541189
0.364475,0.0269298
0.0929382,0.0048964
-0.39507,0.0180266
-0.513616,-0.0163519
-0.282311,-0.0190953
-0.12314,-0.00559558
-0.0778488,-0.0129507
-0.0407609,-0.00521287
0.141154,0.000646299
0.381389,-0.0044221
0.52415,-0.0151444
0.382935,-0.0167791
0.127013,-0.0081845
-0.00472546,0.000697581
-0.0871571,0.00706963
-0.0389395,-0.00334568
0.0317205,-0.00485403
0.0687343,-4.62e-05
0.130086,0.00550283
0.301466,0.0097065
0.462395,-0.00341841
0.41032,-0.0236664
0.0103427,-0.0260144
-0.518153,0.0201205
-0.424945,0.00345716
-0.179592,0.0268392
0.00101172,0.00686199
-0.0312177,-0.022151
-0.170679,0.022562
-0.142457,0.0471102
-0.00195296,0.0483491
0.087393,0.0344967
0.101515,-0.00702799
0.0323643,-0.0249459
-0.0653732,-0.0352086
-0.108882,-0.0448392
-0.077838,-0.0273876
-0.0466466,0.00623563
-0.0282075,0.0108683
-0.0180593,0.00523692
-0.013412,0.0230397
0.031052,0.0207264
0.0968186,-0.00931999
0.168783,-0.0359174
0.17177,-0.0525961
0.0874715,-0.0188619
0.0114846,0.0240832
-0.00996233,0.0125356
0.0297446,0.0146699
0.0671328,0.0226865
0.0219168,0.0185748
-0.094027,0.00486162
-0.156069,-0.00497486
-0.0797997,-0.00295159
-0.00776464,-0.00148094
-0.0152775,-0.0105771
0.0251285,-0.017702
0.139427,-0.00799943
0.179456,-0.00549292
0.0983445,0.00687119
-0.138121,0.00563465
-0.136487,0.0100515
0.223452,0.0203737
0.409399,0.00596573
0.200031,-0.0139421
-0.264123,-0.0191355
-0.633783,0.00170839
-0.544892,0.021332
-0.264276,0.0111531
0.0618796,0.00279986
0.35622,0.00620406
0.305383,0.00388107
-0.0995304,-0.00699549
-0.280292,0.00988141
0.0880302,0.0104223
0.549743,-0.0104555
0.612675,-0.0212961
0.257122,-0.015481
-0.427773,-0.00231509
-0.692051,-0.00302789
-0.46237,0.00423648
-0.215863,0.0139966
-0.00815555,0.0342346
0.143965,0.0335849
0.08974,-0.0137593
-0.0676036,-0.0410466
-0.115167,-0.038618
-0.0535171,-0.0283992
0.0452076,0.00867686
0.0676371,0.00976378
0.0124693,-0.0245708
-0.0745577,-0.0412529
-0.0605698,-0.0115677
0.0398854,0.0149311
0.126802,0.0242742
0.127869,0.0235043
0.0535637,0.0302232
0.0161134,0.0256888
0.182053,0.0241191
0.375504,0.0143011
0.362191,0.00513535
0.06449,-0.0691156
-0.19717,-0.0505107
-0.0483671,0.041375
0.322184,0.0299987
0.664651,-0.022433
0.467947,-0.00176151
-0.095666,0.0173489
-0.67655,0.0125297
-0.891777,0.00386544
-0.615309,-0.0182776
-0.266066,-0.0160682
-0.0583955,0.00177234
0.0731857,0.00626513
0.13845,-0.0179665
0.113541,-0.0446068
0.0429656,-0.0239761
0.0161692,0.00870204
0.10139,0.0454906
0.19112,0.0865919
0.178827,0.0425565
0.0581617,-0.0123575
-0.00640658,-0.0202265
-0.165369,-0.00744739
-0.387138,-0.00076789
-0.32953,0.0075447
-0.057209,0.00648373
0.114693,-0.00811679
0.142767,0.00256315
0.143178,0.00732396
0.20856,-0.02292
0.354892,-0.0202252
0.401822,0.0100806
0.277515,0.0621005
0.0176268,0.020346
-0.327007,-0.0751953
-0.376791,-0.0833765
-0.217909,-0.116034
-0.112082,-0.0305359
-0.0593136,0.0323659
0.0330424,0.0289224
0.0528439,0.0662779
0.044459,0.00808983
0.109716,-0.0382793
0.0861544,0.00093015
-0.0336776,-0.0100049
-0.0657788,-0.00332874
-0.0360018,0.0120936
-0.0777731,0.0259029
-0.0491156,0.0479121
0.0469467,0.0654749
0.0297203,0.0514393
-0.0441913,0.0129691
-0.0566505,-0.0137568
-0.0552089,-0.0195742
-0.0659324,-0.00508263
-0.0499478,0.008033
0.00590303,0.00247674
0.0605003,-0.0125871
0.139014,-0.0168685
0.162971,-0.0073136
0.137847,-0.00288639
0.0592538,-0.0112811
0.00720818,0.00798191
-0.0151115,0.00279736
-0.0721622,-0.0294583
-0.0777933,-0.0327964
-0.0310011,-0.0238409
0.000213378,-0.0214882
-0.0552981,0.00366764
-0.0844917,0.0324701
-0.00587733,0.0330121
0.0677216,0.0151703
0.0530526,-0.00410916
-0.120614,-0.00256729
-0.160219,0.0198914
-0.0233286,0.0348592
0.0951389,0.0337635
0.17417,0.015541
0.281388,-0.0149654
0.25146,-0.0307668
0.0332761,-0.0406128
0.0180467,-0.055614
0.281839,-0.0432802
0.31926,-0.0489547
0.0733447,-0.0257465
-0.550206,0.0292592
-0.844524,0.0496452
-0.444926,0.0194582
-0.193874,-0.00635258
-0.12301,0.00142369
0.0595048,0.0120323
0.177663,0.0165668
0.142746,0.0116358
0.130715,-0.0305031
0.154631,-0.0396936
0.304834,0.0105168
0.20779,0.0489932
-0.0635691,0.0411804
-0.133573,0.000110483
-0.111882,-0.0286121
0.0763644,-0.058426
0.12789,-0.0325633
0.00433677,0.0289615
-0.0798382,0.0294973
-0.209276,0.0320861
-0.144319,0.0727053
0.00546337,0.0774188
0.0942064,0.0375482
0.123996,-0.0338574
-0.1239,-0.0836648
-0.284425,-0.0402845
-0.104694,-0.0170947
0.0985055,-0.0242973
0.228814,-0.0362983
0.36674,-0.0606283
0.358206,-0.101064
0.0167659,-0.107729
-0.33314,-0.0140478
-0.436541,0.138238
-0.275485,0.178111
0.191747,0.0817207
0.517752,-0.0498562
0.441371,-0.0477989
-0.0554388,0.0572024
-0.435807,-0.00496296
-0.153595,-0.0294647
0.144853,0.0294476
0.224148,-0.0399404
0.0607178,-0.147766
-0.192698,-0.108783
-0.171591,-0.0420246
-0.0473256,-0.0421363
-0.117302,0.00785383
-0.102576,0.00197554
-0.120561,0.03998
-0.076614,0.373109
0.0906098,0.754328
0.0422385,0.748909
-0.019376,0.501211
0.113996,0.0575617
0.282801,-0.421353
0.274216,-0.630411
0.0391011,-0.717876
-0.256452,-0.536717
-0.253939,-0.0126918
-0.171105,0.222081
-0.146192,0.0690357
-0.0178307,-0.169286
0.112734,-0.308671
0.164456,-0.306543
0.0693113,-0.167369
-0.0484801,-0.049928
-0.0738848,0.0480828
-0.0520893,0.0765963
-0.102123,0.0605803
-0.0452393,0.022195
0.140358,0.0384405
0.311986,0.0985373
0.402981,0.0947388
0.249403,0.0607956
-0.106699,0.0794505
-0.299678,0.0969507
-0.239627,0.118995
-0.0480237,0.105587
0.196818,0.0223258
0.406402,-0.0309855
0.413485,0.00045921
0.298934,-0.00104956
0.155026,-0.083763
-0.215728,-0.0631087
-0.609693,0.0740586
-0.65126,0.112814
-0.502043,0.101505
-0.289364,0.122471
-0.056678,0.193422
0.0045752,0.15465
-0.0564362,0.0793661
0.014039,-0.0808794
0.372747,-0.170949
0.548446,-0.190707
0.316353,-0.162779
-0.0622861,-0.115171
-0.477218,-0.0334829
-0.349495,0.005026
-0.0751318,-0.0217604
-0.0541217,-0.0233581
-0.0315025,0.00694443
0.0359787,0.00564665
0.121777,-0.0366846
0.246458,-0.115868
0.326785,-0.0961185
0.330701,-0.00722739
0.187605,0.00323615
0.0285157,0.0672594
0.109206,0.17762
0.0427282,0.139027
-0.148214,0.0735833
-0.295338,0.0398356
-0.337169,0.0441575
-0.15023,0.072726
0.0687331,0.0666832
0.193412,0.00299834
0.182566,-0.0271278
-0.0505583,-0.0444348
-0.253989,-0.0826581
-0.187794,-0.0800038
-0.0845293,-0.064522
-0.0416158,-0.0426482
0.127246,-0.0178447
0.396364,-0.00166479
0.466321,0.0324097
0.0929615,0.0808184
-0.420903,0.0899974
-0.434905,0.0283742
-0.165841,0.00625894
0.0415184,0.0332319
0.183713,-0.0315828
0.233893,-0.0816557
0.0815658,-0.0982545
-0.220775,-0.0399678
-0.224946,0.00776522
0.00969936,-0.0658859
0.168465,-0.139661
0.242858,-0.091698
0.196101,0.0291675
0.101314,0.105666
0.0527281,0.151988
-0.100871,0.158599
-0.319995,0.113415
-0.354132,0.0364075
-0.187979,-0.0593096
-0.060091,-0.135265
-0.0275335,-0.0887225
-0.0147916,-0.0388648
0.00900034,-0.0338456
0.0481226,-0.026214
0.0771894,0.00771908
0.0886299,0.0601485
0.108765,0.0897876
0.10276,0.0981074
0.0168059,0.0582861
-0.0383465,0.0474464
-0.0111049,0.048868
-0.02373,-0.0121446
0.0653654,-0.142054
0.15692,-0.219349
0.171828,-0.121733
0.152197,-0.0231233
0.0578986,0.0128372
-0.0403622,0.0316526
0.0165871,0.0232955
0.223064,0.0121285
0.306494,-0.0403461
0.0877744,-0.0912106
-0.350538,-0.0235527
-0.603826,0.0376233
-0.356957,0.0261494
-0.109081,-0.00839947
-0.00309036,-0.0237744
-0.0377919,-0.0180214
-0.14577,0.0186311
-0.146816,0.0955093
-0.0325845,0.143655
0.0173637,0.137948
0.0553933,0.0716629
0.233839,0.00685929
0.36054,-0.0113974
0.419893,-0.0204594
0.305062,0.0138698
-0.0501297,0.0105353
-0.28108,-0.0581185
-0.341025,-0.0721768
-0.202209,-0.0510012
0.157141,-0.0945169
0.277601,-0.0895646
0.205834,0.0149124
0.0628256,0.026968
-0.171393,-0.0432421
-0.356083,-0.025311
-0.291767,0.0416915
-0.136309,0.0333419
0.0127212,0.089526
0.137451,0.142365
0.103999,0.0997506
0.0105864,0.0281021
-0.11126,-0.0101902
-0.16464,-0.0762686
-0.0492465,-0.118646
0.0344328,-0.124913
0.0534857,-0.114629
0.0690976,-0.0500162
0.182099,0.0181411
0.411885,0.0318556
0.788166,0.0290144
0.946724,0.0425888
0.6391,0.0351892
-0.115722,0.000884519
-1.21129,0.0170462
-1.20984,0.0575272
-0.607063,0.0640302
-0.200875,0.0169426
0.0889628,-0.00899659
0.235483,-0.011519
0.247113,0.0148863
0.120637,0.104109
-0.0901383,0.0697603
-0.175938,0.0931543
-0.130939,0.193671
-0.0459562,0.0986725
-0.0247841,-0.0750012
-0.036933,-0.166952
-0.0370751,-0.192201
-0.0688476,-0.102943
-0.0158847,-0.0935195
0.109592,-0.109396
0.126565,-0.0717401
0.0882644,-0.0427877
0.0742707,-0.0158205
0.102161,0.000799996
0.157593,0.0157763
0.151058,0.00828886
0.0526243,-0.0213371
-0.0488283,-0.0266449
-0.075664,-0.00633039
-0.060482,0.0163673
-0.0420092,0.0281081
-0.0495355,0.0411837
-0.076237,0.0632878
-0.0589974,0.0890725
0.0711927,0.0827574
0.213425,0.0593418
0.244051,0.0453967
0.085721,0.0395353
-0.159162,0.0257016
-0.230521,-0.00873436
-0.105335,-0.0410635
0.067321,-0.0472059
0.245625,-0.0635663
0.243133,-0.11875
0.0178487,-0.0762754
-0.331751,6.35e-05
-0.348556,-0.0662081
0.111123,0.00274814
0.416647,0.0552382
0.45612,0.0751563
0.300237,0.0812566
-0.0366815,0.10423
-0.157152,0.081261
-0.287317,0.0540261
-0.42452,0.0400074
-0.352327,-0.0212626
-0.195895,-0.106913
0.016852,-0.107022
0.194957,-0.0588732
0.136555,-0.0487507
-0.146867,0.00638461
-0.359125,0.0279303
-0.337529,0.0223687
-0.172961,0.0237356
-0.053743,0.0414841
0.0660404,0.0670024
0.30457,0.0450804
0.517764,-0.018434
0.495741,-0.0514262
0.37094,-0.104325
-0.124372,-0.0723066
-0.377543,0.0369682
-0.247901,0.0204874
0.00505937,-0.000963143
0.412026,-0.00107531
0.875437,-0.0361446
0.935771,-0.0616166
0.208937,-0.0310873
-0.86066,-0.0340641
-1.18587,0.0686265
-0.851829,0.106692
-0.359185,0.0379099
-0.0916899,-0.030181
0.00835423,-0.0440862
0.0562089,-0.00667495
0.0343892,-0.00988892
-0.0118258,0.0409296
-0.0139924,0.105272
0.033816,0.047685
0.127434,-0.0113989
0.191931,-0.0151742
0.168322,-0.0144758
0.112313,-0.0267308
0.112754,-0.0309193
0.0862819,-0.0188217
0.154527,-0.0148183
0.173541,-0.0164753
0.0813928,-0.0213215
-0.0289705,-0.0113118
-0.0984927,0.0136372
-0.0629651,0.0209042
-0.0233105,0.0182654
0.029393,-0.0102627
0.0593946,0.00171932
0.0842133,0.0428142
0.211141,0.03607
0.213583,-0.000708442
-0.00320598,-0.034569
-0.121693,-0.0373605
-0.183338,-0.0225487
-0.207652,0.0345528
-0.0623858,0.0512703
0.0238338,0.0279777
-0.102505,-0.0149485
-0.0214528,-0.051318
0.133605,-0.0395961
0.174051,-0.0126283
0.0734777,-0.00135304
-0.160913,0.00200868
-0.262348,0.0218638
-0.27768,0.00505864
-0.206739,0.0137857
-0.0414727,0.00111872
0.111646,-0.0224941
0.158992,-0.0225628
0.19758,-0.004797
0.257015,-0.0155637
0.286229,-0.0604173
0.200175,-0.053193
-0.10647,-0.00323631
-0.361761,0.00325849
-0.294598,-0.0499462
-0.183716,0.00768194
-0.162355,0.0698722
-0.0310141,0.0585107
0.0644661,0.0500264
0.0828377,0.0190944
0.0431275,-0.0172703
-0.00911665,0.0274503
0.0536328,0.0337044
0.131986,-0.00962736
0.140819,0.00802623
0.126444,0.00649082
0.168487,-0.0114443
0.265911,-0.0175116
0.152564,-0.0222526
0.00234691,-0.0202225
-0.0652444,-0.0101528
-0.10575,-0.00323441
-0.199559,0.00213077
-0.287147,0.0206974
-0.22667,0.0371214
-0.100594,0.0394625
-0.0465948,0.0273986
-0.0497261,0.0116497
-0.0401757,0.00351251
-0.00357369,-0.0144978
0.0238197,-0.0152894
-0.0114828,-0.00554262
-0.0720287,-0.00106006
-0.0407442,0.00764338
0.0813976,0.00585911
0.191681,-0.000482457
0.142118,-0.00805515
-0.00797972,-0.0491501
-0.0682678,-0.0709694
-0.00381464,-0.0113907
0.052882,0.059634
0.0697324,0.0289752
0.0647533,-0.0202224
0.0254162,0.0193352
-0.0113495,0.036405
-0.00400522,-0.0114966
-0.00711171,-0.0385646
0.000450248,-0.0245261
0.0673282,0.00132776
0.0628923,0.0316794
0.108595,0.027306
0.149683,0.00860058
0.00410037,-0.0210071
-0.144039,-0.0320487
-0.240737,-0.0217292
-0.21037,-0.00545766
0.0504494,-0.0274513
0.355782,-0.0158579
0.481261,0.0264465
0.294017,-0.0123557
-0.0366529,-0.00744643
-0.370117,-0.018424
-0.443361,0.00920965
-0.305123,0.0205858
-0.283261,0.0156858
-0.228657,0.0202613
-0.087377,0.000577603
0.00797166,-0.0119257
0.0919235,-0.00971624
0.21616,-0.0229161
0.364522,-0.0103986
0.302774,0.00396366
-0.0124274,0.0148373
-0.238043,0.0678555
-0.299113,0.0655857
0.171762,0.0616939
0.273636,0.0277875
0.189048,-0.0168788
-0.0406324,-0.0348345
-0.248467,-0.0532909
-0.15492,-0.0695966
-0.0602326,-0.0483823
-0.0998023,-0.00619867
-0.139251,0.0121013
-0.0679469,0.00965916
0.023383,0.00115595
0.0363526,0.00270415
0.0378639,0.00421097
0.102667,0.0146784
0.204076,0.0224355
0.278079,0.00702419
0.185672,0.00649255
-0.0129431,0.0306769
-0.0544373,0.0427231
-0.096417,0.000917313
-0.0907652,-0.0357503
-0.0507134,-0.0444855
-0.0765653,-0.063653
-0.0292895,-0.0364198
0.141973,0.018361
0.320672,-0.0045801
0.201358,-0.000739828
-0.122523,0.0267484
-0.264094,-0.0152684
-0.265644,-0.0564684
-0.208491,0.0140077
-0.0870046,0.027713
-0.0128986,0.0211564
0.0539228,0.0239136
0.0664235,0.0263307
0.0312486,0.0126163
-0.0179653,-0.0102934
-0.0303085,-0.0212212
0.0539702,0.00893761
0.174514,0.0245898
0.20059,0.03196
0.101957,0.0354485
-0.0631604,-0.00773751
-0.155705,-0.024139
-0.101486,-0.00075634
-0.100761,-0.00634332
-0.124209,-0.0194163
-0.06132,0.00366249
0.0384421,0.0104795
0.101726,0.0287041
0.0685972,0.0100411
0.00744461,-0.0207894
0.0104141,-0.0161498
0.0208966,-0.00717205
0.0827834,-0.0291215
0.1312,-0.0170676
0.0618386,-0.0017425
-0.122434,0.0194841
-0.213251,0.0140749
-0.0859815,-0.0205264
0.076776,-0.0129656
0.177033,0.0115164
0.132748,0.00293655
0.121019,-0.0177108
0.159844,-0.0228938
0.0445604,0.00289472
-0.00822817,0.00646282
-0.0798414,-0.0532546
-0.204448,-0.028334
-0.175308,0.0133511
-0.0368803,0.0392215
0.0174842,0.0243118
-0.134804,-0.00331975
-0.177779,-0.0244046
-0.141838,0.0100233
-0.0983333,0.0524067
-0.0482892,0.0269071
0.0224152,0.0125041
0.103121,0.0197284
0.171767,0.0108283
0.187993,-0.0113521
0.159034,-0.0158394
0.0428672,0.0054476
-0.0891114,0.00847132
-0.0392731,-0.0085859
0.0958056,-0.0191157
0.119981,-0.0113968
-0.0205982,-0.00732291
-0.0562991,-0.00840077
0.113782,-0.00746815
0.184022,0.00338591
0.117512,0.0235999
-0.0511474,0.0208182
-0.0965468,-0.00751108
0.0246863,-0.019235
-0.0612191,-0.0130097
-0.0777769,-0.0171912
-0.10118,-0.0196657
-0.0998412,0.00622053
-0.0341371,0.0255238
-0.184501,0.0361851
-0.319253,0.0160612
-0.166785,-0.0130102
-0.0663766,-0.00652532
-0.0244102,0.0016126
0.0123119,-0.00774919
0.0228401,-0.0142512
0.0225757,-0.01633
0.0412791,-0.0285774
0.069663,-0.0378515
0.08046,-0.0255717
0.109985,0.0179179
0.20604,0.025883
0.391419,0.0185696
0.508101,-0.0142994
0.422493,0.0060641
0.0418978,0.0189799
-0.120871,0.0218494
-0.153874,0.0211735
-0.208442,0.0705988
0.00169381,0.0788243
-0.107312,-0.00712177
-0.33202,-0.0725249
-0.412372,-0.0698707
-0.366776,-0.0400034
-0.200013,-0.0164608
-0.0740227,-0.00589841
0.00335265,0.0040123
0.0413889,0.00979663
0.0331936,0.00622717
0.0144455,0.00620467
0.0268974,0.0142313
0.0712401,0.0240184
0.117345,0.0115182
0.142524,-0.0174415
0.114575,-0.0416942
0.0585765,-0.039954
0.0659454,0.0209914
0.0974623,0.0338409
0.110199,0.0252105
0.0932666,0.0432403
0.0771253,0.0210837
0.0520002,-0.00964085
0.0147044,-0.0205129
0.00423138,-0.0302368
-0.0359194,-0.0250064
-0.118631,-0.0268149
-0.15084,-0.0184576
-0.108917,0.0220839
-0.0361679,0.0229947
0.0158778,-0.0324017
0.036477,-0.046872
0.0157108,-0.0113643
-0.0229395,0.0372061
0.00381514,0.0212406
0.0786018,0.00252875
0.0850076,-0.00696546
0.012734,0.00724845
-0.0605154,0.0237378
-0.135696,0.0176827
-0.14854,0.0165208
-0.0797638,0.0561456
0.197638,0.107617
0.432519,0.0450751
0.301974,-0.0554827
0.0969318,-0.0795455
-0.0489017,-0.0561764
-0.188498,-0.0158733
-0.165666,0.00977863
-0.0208985,-0.000518927
0.013945,-0.0185494
-0.0594052,-0.0149487
-0.113227,0.00489799
-0.171882,0.0107854
-0.206142,0.00195852
-0.11282,-0.0125706
-0.0460555,0.00221595
-0.0591862,0.0104941
-0.0786624,-0.0397815
-0.0843895,-0.049384
-0.0690422,-0.0159159
-0.014307,0.0212003
0.078993,0.031652
0.170716,0.0171957
0.148824,0.0159548
0.0904248,0.0213041
0.197213,0.00659685
0.234757,-0.0104122
0.190951,-0.0183635
0.0127928,-0.0480067
-0.142535,-0.0029406
0.00875867,0.0283804
0.116246,0.0191623
0.0130485,0.0386318
-0.217447,0.0259162
-0.330054,-0.00839949
-0.218202,-0.0544508
-0.12945,-0.0227022
-0.0867917,0.00705188
-0.0193509,0.0116481
0.0751726,0.0173182
0.130742,-0.00699938
0.202731,-0.0300904
0.210051,0.000863953
0.204613,0.0216487
0.171036,0.0186591
-0.0840089,0.00140629
-0.266446,0.0008687
-0.169414,0.000753015
-0.0464715,-0.00677583
0.0280295,-0.0197677
0.110887,-0.0169251
0.152306,0.00375589
0.0796245,0.0265256
0.0169966,0.0261955
-0.0929059,0.0277403
-0.231034,0.0147545
-0.183937,-0.0124499
-0.0684042,-0.0115934
-0.0471258,-0.0162298
-0.0534311,-0.0283631
-0.0111024,-0.0165185
0.0456018,0.0036426
0.0651538,-0.000525484
0.0377785,-0.0166137
0.0159,-0.0111543
0.0411084,0.0124085
0.126895,0.0172325
0.273139,0.0221258
0.323394,0.0261726
0.249543,-0.009601
0.227486,-0.0301779
0.0757923,0.020455
-0.118109,0.0490834
-0.354036,0.00917679
-0.524203,-0.028044
-0.289661,-0.0325964
-0.0375941,-0.00440562
0.0649974,-0.008238
0.052758,-0.000748538
-0.016786,0.0194738
-0.0853596,0.00908686
-0.0302192,-0.00106911
0.0352067,-0.0256125
0.0665952,-0.0737007
0.116777,-0.0924168
0.172003,-0.0109189
0.111855,0.0437129
-0.0588795,0.0282794
-0.172997,0.0206041
-0.149736,0.0310987
-0.00552463,0.0356631
0.0869071,0.0239338
0.0360109,-0.00205264
0.0520289,-0.017304
0.155983,-0.00406714
0.103086,0.0359458
-0.0772256,0.0484999
-0.178776,0.0221727
-0.141988,-0.0232252
-0.0783893,-0.0217444
-0.0570043,-0.00538626
-0.0547998,0.000983865
-0.0579793,-0.00444925
-0.0397556,0.000183906
0.000341024,0.000303786
0.04246,-0.00165502
0.0627305,-0.00257292
0.0591756,-0.00533892
0.0408651,-0.0145051
0.0279261,-0.0202112
0.0492233,-0.00817499
0.0813415,0.0047118
0.078954,0.010506
0.0428063,0.0124823
0.00446303,0.0150333
0.03048,0.0230287
0.130102,0.032671
0.149991,0.0246051
0.0724283,-0.0082453
-0.0106409,-0.0505821
-0.107765,-0.0610769
-0.0786047,-0.0448423
0.00814235,-0.00533947
-0.00404042,0.0279029
-0.0397209,-0.00795291
-0.0519297,-0.012715
-0.156203,-0.012778
-0.150779,-0.044864
-0.0211684,-0.0202153
0.0272968,0.0347956
0.0135688,0.0561738
0.0703996,0.0337618
0.0980219,-0.0176423
-0.0379907,-0.00253108
0.0268806,-0.00825256
0.205411,0.0104552
0.224824,0.010078
0.124221,0.00441277
-0.155926,0.0123574
-0.373352,0.0295267
-0.345048,0.0267835
-0.154261,0.00552632
-0.0486519,-0.0106531
-0.0101319,-0.0169241
0.0437609,-0.00911206
0.0863099,0.00171243
0.105106,0.00203357
0.0745679,-0.00995628
-0.0202003,-0.0243641
-0.0428019,-0.0336881
-0.0177291,0.0205459
0.0906617,0.00834107
0.311453,-0.008566
0.470263,0.000188957
0.339123,0.015556
-0.00630925,0.0170973
-0.332979,0.00967269
-0.528816,0.00897651
-0.392263,0.00725549
-0.122916,-0.000171416
0.0165593,0.00429061
0.137785,0.00876994
0.20903,0.00987095
0.127769,0.00498649
-0.0667325,-0.00907499
-0.243094,-0.0160866
-0.21302,-0.0136907
-0.0406274,-0.00815397
0.0770244,-0.0109841
0.139034,-0.00657744
0.12163,-0.00323839
0.0399358,-0.00435845
-0.00431562,-0.00264525
-0.00986637,-0.00564021
0.074925,-0.0058205
0.0675414,-0.00254263
0.00956583,-0.00605676
0.0541468,-0.00102297
0.0363597,0.00648957
-0.0566982,0.00255652
0.0142596,-0.00663865
0.19337,-0.00912589
0.340801,0.00457468
0.285609,0.0226654
0.0385996,0.036856
-0.29436,0.0320344
-0.64716,-0.0176125
-0.429613,-0.0393177
0.0139822,-0.0266483
0.215106,-0.0106183
0.167245,0.00469233
-0.0682396,0.0159364
-0.124306,0.0151325
0.130155,0.0127676
0.238385,-0.00547458
0.151833,-0.0447217
-0.074923,-0.0409784
-0.20187,-0.00639698
-0.123503,0.0101416
-0.0116868,0.0121274
0.00614308,0.0177091
-0.0443711,0.0240088
-0.121833,-0.0133089
-0.156776,-0.0507547
-0.123998,0.0110419
0.00074281,0.03417
0.178955,0.00746264
0.270198,0.00173799
0.248397,-0.0052534
0.17447,-0.014463
0.109233,0.0215472
0.0755491,0.0355445
0.0209579,0.0471427
-0.143166,0.0234905
-0.247939,-0.0140177
-0.269236,-0.0176818
-0.208441,-0.00704947
-0.063552,-0.00204637
0.254927,-0.0124704
0.465449,-0.0205316
0.389969,-0.00150161
0.0680471,0.0101823
-0.429144,0.0086012
-0.504872,0.0119989
-0.188848,0.010793
0.00776101,0.00409205
0.229886,-0.00705065
0.503021,-0.0292145
0.504525,-0.0303916
0.144073,-0.00508043
-0.316353,0.0171827
-0.486684,0.0147485
-0.311709,0.00598209
-0.147778,-0.00195629
-0.150555,-0.0100031
-0.140137,-0.0015719
-0.0793629,0.0191512
0.0403305,0.0291677
0.181412,0.00333134
0.252777,-0.0229945
0.220951,0.000246819
0.0624677,0.0117034
-0.0855605,-0.0109012
-0.122525,-0.0217377
-0.120176,-0.0311468
-0.0317637,-0.0539892
0.0296343,-0.0340686
0.0266942,-0.0349314
-0.00881131,-0.0124803
-0.0362553,0.0424186
-0.0266514,0.0389224
0.0192753,0.00849919
0.0451552,-0.00639145
0.00258409,0.0114624
-0.0389767,0.0274131
-0.0159687,0.0465819
0.0851748,0.0570594
0.175851,0.0433375
0.207565,0.00242775
0.152054,-0.0239893
0.041326,-0.0187908
-0.0590947,-0.00864792
-0.0748161,0.0142593
0.0673065,0.0061908
0.161906,-0.0211039
0.0792315,-0.0310374
-0.13141,-0.00247281
-0.302351,0.0107329
-0.312406,-0.0106311
-0.207511,-0.0233547
-0.145716,-0.00388745
0.0670984,0.00291658
0.300977,0.0290716
0.272003,0.0159691
0.0732531,-0.0137475
-0.133777,-0.0250928
-0.0772479,-0.0332534
0.09335,-0.0334518
0.133193,-0.027071
-0.0307884,-0.00545873
-0.155571,0.0187709
-0.14023,0.020803
-0.0932864,0.00690645
0.0169079,-0.0140055
0.174431,-0.022847
0.229714,0.0140213
0.0418316,0.00765202
-0.150461,-0.0446856
-0.167574,-0.0514995
-0.174291,-0.00860706
-0.136422,0.0253474
-0.106565,0.040211
-0.102166,0.0479603
-0.0983834,0.0349402
-0.0858602,0.0199906
-0.0215895,0.0231911
0.0685874,0.0189791
0.242923,-0.0200174
0.655877,-0.0102663
1.02752,0.0177839
0.869406,0.0124487
0.146526,0.00222944
-0.759954,0.0022732
-0.954776,0.00290332
-0.614984,-0.00359677
-0.392074,-0.00569487
-0.179491,-0.00105988
-0.0157324,0.0051459
0.0934801,0.00719464
0.0828073,0.000358395
-0.00145989,-0.00728832
-0.0552148,-0.0124546
0.0127902,-0.00316387
0.106657,0.0172252
0.0717772,-0.0145106
-0.00136258,-0.0342125
0.00980262,-3.15e-05
0.0461595,0.00218514
0.0448245,-0.0183506
0.0260811,-0.0167555
-0.0634919,-0.0130352
-0.078849,-0.00924882
-0.0139197,0.00478835
0.0592384,0.012698
0.13702,0.0163351
0.213186,0.016983
0.23142,-0.000816538
0.277229,-0.00598926
0.428748,-0.00632473
0.421175,-0.0111533
0.0906913,-0.00580494
-0.389687,0.0106934
-0.659061,0.0222917
-0.461636,0.0272902
-0.126901,0.0167183
0.0312657,0.00781686
-0.0148249,0.00490477
-0.116855,0.0274928
-0.00976137,0.0310157
0.084275,-0.0173006
0.0455495,-0.0560216
0.0371928,-0.0366384
0.00838802,-0.014917
-0.0659959,-0.0220677
-0.070453,-0.00870022
-0.0125917,-0.00845972
0.0562971,0.00141532
0.100519,0.016814
0.0115089,0.0236761
-0.122049,0.019117
-0.110636,-0.00173573
-0.00692699,-0.0102713
0.136073,-0.00873931
0.296276,-0.0285627
0.287989,-0.00456299
0.129295,-0.0174575
-0.167671,-0.0360992
-0.249784,0.00599185
-0.111188,0.0315835
-0.0516716,0.0211267
-0.0366927,0.0033409
-0.0555293,-0.0136804
-0.0262438,-0.0135789
0.0484946,0.0164086
0.06744,0.0193448
-0.0214666,0.0114387
-0.152385,0.0100685
-0.142769,0.00445958
-0.00152921,-0.0271843
0.0970662,-0.0602827
0.149577,-0.0613148
0.201568,0.0418187
0.23305,0.0952883
0.270051,0.0651941
0.20812,0.0232628
0.0435986,-0.00954586
-0.0607186,-0.0265827
-0.172767,-0.0185242
-0.240761,-0.0182852
-0.231479,-0.014164
-0.234233,0.00782334
-0.15085,0.0180289
-0.0893002,0.0171695
-0.0707723,-0.00237808
-0.0322615,-0.0175511
0.0239784,-0.0081314
0.0534309,0.00166198
0.0489984,0.00845674
0.0407521,-0.0357002
0.0517977,-0.0289143
0.0514006,0.0285773
0.0346115,0.0200677
0.0111501,0.0130286
-0.0337299,-0.00364787
-0.0537517,-0.000288337
-0.0303766,0.00771729
0.0556767,0.00118025
0.175378,-0.00267155
0.258051,-0.0049978
0.317379,0.00605902
0.231562,0.00639887
0.0331154,-0.00116314
-0.174456,0.00639182
-0.336079,0.0314699
-0.270231,0.0449233
-0.129386,0.0466557
-0.0585471,-0.0065097
0.0288013,-0.0424953
0.0956238,-0.0488415
0.06304,-0.037512
-0.0817825,-0.0295338
-0.029101,-0.0523872
0.291547,-0.0589299
0.347337,-0.00893258
0.121461,0.0355135
-0.259564,0.00452034
-0.428149,-0.0219164
-0.180624,0.0176643
-0.120324,0.00210107
-0.194842,-0.0171143
-0.0851825,0.0220061
0.0588555,0.0253734
0.0957524,0.0133426
0.0720114,0.0221852
0.00566656,0.0310864
-0.0263125,0.0210594
0.0807091,0.00121441
0.122621,-0.00850589
0.082773,-0.00521133
0.0687175,0.0116837
0.0505502,0.0288662
0.0823615,0.025035
0.0320795,-0.0206306
-0.144933,-0.0449357
-0.210508,-0.0307866
-0.10125,-0.0131527
0.0839377,-0.0110088
0.269526,3.82e-05
0.295687,0.00742557
0.200086,0.00711379
-0.00183249,0.0112266
-0.259026,0.0116671
-0.31394,0.00817409
-0.199939,0.00446171
-0.133311,0.0051097
-0.0931533,0.0118843
-0.0481035,0.0213151
0.0539425,0.0182419
0.274201,-0.0165467
0.453115,-0.0250173
0.446678,-0.0147652
0.136279,-0.0122126
-0.178021,0.00153682
-0.235397,0.0155631
-0.155152,0.00876823
-0.00309751,-0.00517459
0.0597675,0.020189
-0.0603573,0.0341098
-0.235694,0.00179517
-0.205466,-0.0272249
-0.0874485,-0.024015
0.0214938,-0.02203
0.0883941,-0.0369358
0.12122,-0.0147597
0.0344573,0.0478331
-0.0990481,0.037295
-0.103672,-0.0184813
-0.0360616,-0.0571035
-0.0659109,-0.0192146
-0.118241,-0.0164978
-0.0587281,0.00122435
0.0116879,0.0171703
0.0653223,-0.022206
0.0747632,-0.0205466
0.0713041,0.0512211
0.153961,0.0334857
0.257448,0.00816468
0.253854,0.0514542
0.0696075,0.0607751
-0.109666,0.00758583
-0.232197,-0.038184
-0.232871,-0.0390518
-0.0335143,-0.0518186
0.0701745,-0.0395792
0.0686986,0.0132734
0.0394585,0.0115087
0.028024,-0.00146547
0.0297883,-0.0126142
0.017426,0.0166863
-0.0370951,0.0219645
-0.0261044,0.0133698
0.0492068,0.00687013
0.0782687,-0.0147417
0.0964495,-0.00676917
0.0427472,-0.0010492
-0.0614346,-0.0029902
-0.253365,0.0020215
-0.276238,0.0148844
-0.0626736,0.0197395
-0.0237509,0.0272627
-0.0481117,0.0131907
-0.0407149,-0.0354618
-0.0174564,-0.061496
0.0413215,-0.0254001
0.0724471,0.0453854
0.071268,0.0584837
0.0964109,0.0462397
0.261213,0.0245488
0.413836,-0.0257316
0.371779,-0.0626303
0.19671,-0.0283665
-0.0874806,0.0151981
-0.220462,0.0238654
-0.185652,0.00676422
-0.253416,-0.00458279
-0.254005,-0.0106679
-0.239189,-0.0202688
-0.259415,-0.0505736
-0.137063,-0.0371164
0.0148697,0.00275191
0.0576835,0.0108188
0.0361401,-0.0259863
-0.00777985,-0.00928461
-0.0166778,0.0284176
0.0295163,0.0170264
0.0455938,-0.00044626
0.0268951,0.00247867
-0.000349886,0.00452685
-0.000994441,0.00698364
0.0315744,0.012246
0.0738105,0.0260704
0.126749,0.0374297
0.152886,0.0349411
0.135992,0.0227634
0.145466,0.00201585
0.173006,-0.0139084
0.145058,-0.0134977
0.117771,-0.00188671
0.131819,-0.00951322
-0.0703939,-0.00666282
-0.250644,0.00741601
-0.208145,0.00233892
-0.21657,-0.0327753
-0.230989,-0.0166119
-0.164488,-0.0258436
-0.0954469,-0.0165033
-0.0196338,-0.0352924
0.0149228,-0.0485302
0.00134858,0.00598623
-0.0320868,0.0347279
-0.0497559,0.0220392
-0.000889632,0.000560662
0.0761905,-0.0178969
0.078121,0.0059947
0.036912,0.0185215
0.0759319,0.0083278
0.265064,0.00719924
0.349974,0.0147171
0.246213,0.0152817
0.0238203,0.00715184
-0.210736,-0.0135125
0.0423527,-0.00831678
0.322741,0.0197742
0.161685,0.053772
-0.197569,0.0523179
-0.366682,0.0298679
-0.262174,-0.00256776
-0.0429687,-0.0342063
0.0542365,-0.0377202
-0.0255682,-0.0405323
-0.238913,-0.015871
-0.335956,0.00283384
-0.253009,-0.00313632
-0.127426,-0.00533104
-0.00708866,-0.00459849
0.0514067,-0.0230607
0.0529326,-0.0136086
0.0385415,-0.0248141
0.0228995,-0.0135886
0.0437461,0.0211407
0.0733785,0.0167685
0.0941673,0.0207975
0.0831972,0.0292078
0.0515995,0.0162294
0.0382026,0.00380169
0.0564265,0.00172364
0.0832191,-0.0041435
0.0754422,-0.00765073
0.112632,-0.0115767
0.191984,-0.00199088
0.206381,-0.00140205
0.143254,-0.00779778
-0.00895539,0.0072773
-0.121375,0.0261796
-0.0889846,-0.0130033
-0.0399463,-0.0225704
-0.00288778,0.0050739
0.0356309,0.00724419
-0.0956068,-0.00267719
-0.220776,-0.00800611
-0.16586,-0.00814819
-0.109639,0.0158035
-0.0302194,0.01073
0.0480533,-0.042572
0.0663264,-0.0318919
0.0252408,-0.00162921
-0.0360032,0.0424436
-0.032169,0.0209653
0.0353309,-0.0158263
0.108521,-0.00057693
0.0806838,-0.000912074
0.0720527,-0.0149591
0.1403,-0.0181026
0.116485,-0.0112617
0.0440092,-0.00857385
-0.117485,0.0245626
-0.313767,0.0234013
-0.205575,0.00827979
-0.0356571,-0.00119055
0.0838205,0.00274446
0.152711,0.00717913
0.0931088,0.00219647
-0.00585789,0.00792332
-0.121554,0.0136076
-0.176615,0.0126961
-0.0867199,0.00896094
0.015667,-0.00581529
0.027923,-0.0108595
-0.0117528,-0.00757904
-0.0492823,0.00408415
-0.0829398,0.00732397
-0.0561828,0.00856902
0.0149673,0.0160132
0.0460969,0.00929699
0.110544,-0.00833053
0.253234,-0.0185507
0.33031,-0.0213059
0.296665,-0.0590604
0.225726,-0.0591205
0.0161102,0.00177684
0.00234866,0.0383232
0.0210184,0.0126158
-0.223862,-0.0105554
-0.381644,-0.0145669
-0.276832,0.017979
-0.203627,0.00824839
-0.0985322,-0.0235988
0.0379657,0.0386168
0.0784906,0.066046
0.0247348,0.00890596
-0.127229,-0.0262152
-0.20306,-0.0228685
-0.0202808,0.000954673
0.22367,0.00733562
0.389473,0.00596841
0.29906,0.00503828
0.0682875,0.00901058
-0.160143,0.0214383
-0.207648,0.0168266
-0.219146,-0.00501321
-0.255915,-0.0241874
-0.0961953,-0.0485756
0.114902,-0.0320823
0.173014,0.0159278
0.0939355,0.0346861
0.0046228,0.0288979
-0.00347934,0.0227366
-0.0105775,0.0190389
-0.0325012,0.012892
0.00028959,0.0185332
-0.0597752,-0.0202271
-0.116159,-0.0598433
-0.0168338,-0.0695126
0.0969379,-0.00510751
0.16338,0.018336
0.20567,0.00104217
0.191947,0.010729
0.107192,0.0113475
0.0100867,-0.00973087
-0.0741992,-0.020021
-0.165652,-0.00165238
-0.186962,0.0209893
-0.100089,0.0219383
0.0283168,0.00697809
0.114289,-0.00959162
0.0962724,0.0115226
0.0523135,0.0192649
0.00238854,0.00694184
-0.0652304,-0.00328421
-0.108134,0.000786698
-0.152894,0.00617941
-0.190263,0.00290732
-0.163997,0.00341759
-0.062534,0.000370455
0.0240452,-0.0121771
0.0706281,-0.0247074
0.0796374,-0.0302846
0.100595,-0.0487339
0.127263,-0.018862
0.17399,0.033478
0.307803,0.0204332
0.312057,0.000644729
0.11475,0.0130103
-0.259961,0.0406262
-0.443957,0.0463306
-0.164595,0.0327456
0.0783177,0.0068308
0.244857,-0.00479262
0.317075,-0.0225152
0.265213,-0.0513313
0.0770787,-0.0373428
-0.153814,-0.0526318
-0.295535,-0.0313889
-0.373328,0.00751081
-0.320331,0.0223956
-0.10814,0.0350522
-0.0185834,0.0146504
-0.0367461,0.00616416
-0.0245731,-0.0126209
-0.0194625,-0.0312857
0.00180335,-0.00351407
0.0176324,0.00166714
0.0417707,-0.0123326
0.0603692,0.0116897
0.0492795,0.0311158
0.0252286,0.036124
-0.0102867,0.0354275
-0.0279564,0.0233287
0.0259752,0.0100726
0.0474818,0.000460308
0.04664,0.00556772
0.191718,-0.0157348
0.321168,-0.0284077
0.237787,-0.0252145
0.0662548,-0.0179271
-0.125101,-0.05178
-0.237695,-0.0522754
-0.212706,-0.0652525
-0.135487,0.00700105
-0.090565,0.0560065
-0.0569318,0.049789
-0.0278534,0.0332307
-0.0113973,0.0286544
-0.0072008,0.0155634
-0.00338029,0.00942252
0.0453498,-0.00239068
0.143687,-0.0306116
0.282549,-0.0111149
0.35626,0.0216929
0.261002,0.0094544
0.00905849,0.00705379
-0.21515,-0.0062362
-0.229542,-0.0397701
-0.0615855,-0.036935
0.0381232,-0.0149366
-0.00164936,-0.00427312
-0.208059,0.0224292
-0.319928,0.0253517
-0.159666,-0.00571535
0.0107831,0.00656965
0.00644288,0.0183573
-0.138172,0.00295895
-0.133842,0.0140634
0.0263814,0.0314826
0.0719341,0.0356091
0.0644381,0.0109139
0.00761481,-0.00515063
-0.0330458,-0.0085121
-0.00178737,-0.00693628
0.0578373,-0.00657017
0.108139,-0.0111403
0.220664,-0.012806
0.275506,0.00575418
0.274907,0.00335282
0.186231,-0.0170857
-0.0475877,-0.0119731
-0.120473,-0.00402046
-0.0754105,0.00503101
-0.0252577,-0.00261489
0.109873,-0.0015863
0.25634,0.00741531
0.104297,0.00258989
-0.148481,-0.00426343
-0.3715,-0.0113215
-0.506399,-0.0105491
-0.319061,-0.00695051
-0.108704,0.00790162
-0.00747072,0.0184166
0.0391455,0.00430288
0.0389447,-0.00184289
0.0409444,0.00237213
0.0276836,-0.0007456
-0.00536508,0.00999959
0.00502155,0.000790846
0.0228613,-0.00154786
0.0507095,0.00166406
0.0691519,-0.00387936
0.0806729,-0.00125422
0.0703685,0.00307422
0.0489723,-0.0229098
0.0434675,-0.0458498
0.0329277,-0.0780194
0.0235214,-0.01364
0.0159923,0.045901
0.0093478,0.0223609
-0.00524198,0.00557695
-0.00146869,0.0130529
0.0209745,0.0103217
0.0161619,0.00358229
-0.0124922,0.0163019
-0.00957587,0.0305397
-0.0124196,0.018021
0.00618424,0.00697636
0.105672,-0.0192109
0.192236,-0.0356865
0.211736,0.00289828
0.157704,0.021483
0.0280195,0.00814897
-0.124956,0.00935024
-0.114057,0.0119793
-0.053757,0.000227579
0.0158747,0.00113064
0.159686,-0.0140532
0.0145134,-0.0192883
-0.255495,-0.0320326
-0.379177,-0.0262939
-0.38922,-0.0198809
-0.236987,-0.00260967
-0.0780942,0.000597124
0.0479152,-0.00696773
0.0897987,-0.014184
0.0721756,0.0146145
0.0221994,0.0397911
-0.020133,0.0375793
0.073735,0.0143845
0.242112,0.000918318
0.327995,-0.00557725
0.2642,-0.00681584
-0.0359971,-0.00621762
-0.260078,0.00233147
-0.210264,0.0165852
-0.114817,0.0239047
0.0806526,0.0271181
0.213762,0.0217949
0.182039,0.0190237
0.0979351,0.0148074
-0.0471677,0.00578573
-0.100507,0.00703095
-0.0203199,-0.00157085
-0.0158551,-0.0355754
0.00911232,-0.0590216
-0.0853952,-0.0293169
-0.199839,0.013248
-0.0888997,-0.012691
0.0222204,-0.0529288
0.0222281,-0.0245846
-0.0775672,0.0235779
-0.123191,0.0287568
-0.0290908,0.00338819
0.0467809,-0.0329645
0.0556201,-0.0433775
0.106436,-0.0335354
0.0943269,0.0229087
0.0594347,0.0673597
0.02002,0.0384743
-0.0398107,0.00419389
-0.0517743,-0.00890619
0.0171339,-0.0014841
0.0880977,-0.00323789
0.0713709,-0.0174496
0.00192203,-0.00948066
-0.0773825,0.00247042
-0.0855726,0.0138171
-0.0291197,-0.00651699
0.0109294,-0.00700859
0.0173432,-0.0118042
0.00950984,0.00710571
0.019663,0.0157611
0.0875509,0.0177839
0.125764,0.0235637
0.0887608,0.0150817
0.0269978,0.0114606
-0.0631273,0.0139657
-0.126825,0.0150114
-0.0737438,0.0118376
-0.0303232,-0.0120715
-0.0377852,-0.0125816
0.00903261,-0.0069048
0.12653,-0.0347317
0.221821,-0.0285591
0.236768,0.00112932
0.0824828,0.0180131
-0.121794,-0.0106005
-0.258835,-0.0380067
-0.316547,-0.0143961
-0.249154,0.00334889
-0.0726487,0.0238032
0.182662,0.0571115
0.252004,0.0166647
0.070446,-0.0332492
-0.126789,-0.0350666
-0.188976,-0.0198874
0.0709116,-0.00480754
0.303009,0.0037434
0.281732,0.0133434
0.0722248,0.0143054
-0.206151,0.00751444
-0.27177,0.00244015
-0.256381,-0.0020904
-0.224104,-0.000530103
-0.107735,0.00484795
0.0228684,0.00186222
0.14067,-0.00222416
0.185345,0.00268248
0.226817,0.0102925
0.251369,-0.00108038
0.149385,-0.00719037
-0.0858911,0.0217106
-0.309686,0.0258656
-0.265928,0.00238608
-0.115753,-0.00635498
-0.0352232,-0.013963
0.0263848,-0.0530812
0.0175935,0.00196878
0.0181935,0.0153977
0.0254118,-0.0149404
0.0132888,-0.0621754
0.0101879,-0.0660319
0.0445915,0.00125805
0.123106,0.0394941
0.129517,0.0271139
0.0563585,0.0215913
-0.0239061,0.0279486
-0.106861,0.0214019
-0.102976,0.00211511
0.00310449,-0.00375718
0.165125,0.00172154
0.231265,0.018501
0.198635,0.016375
0.0819101,0.0112289
-0.143475,0.0125842
-0.20476,0.00527386
0.00583321,-0.0160138
0.149649,-0.00957938
0.179724,0.0299444
0.0303163,0.0182879
-0.182847,-0.0239902
-0.247785,-0.0150565
-0.220204,-0.0473148
-0.144036,-0.0195416
-0.0236538,0.0193772
0.0452819,-0.00752391
0.0618869,-0.051905
0.0874283,0.00822375
0.102774,0.0459141
0.0143512,0.0110055
-0.0286745,0.00541855
-0.0721388,0.0203771
-0.158387,0.020004
-0.106089,-0.00189329
0.0159733,-0.0421365
0.0482357,-0.0584836
0.0517304,-0.0165063
0.0346769,-0.00407662
-0.0106577,0.00870193
-0.0257173,0.0183142
-0.00363667,0.0166165
0.0325924,0.00601157
0.0611883,-0.00480902
0.0514122,-0.0129626
0.0150487,0.00167182
-0.0175963,0.0347332
-0.00161052,0.0311019
0.0243271,0.0108252
0.0474284,-0.0058154
0.0906175,0.00413358
0.123048,0.01013
0.0975601,0.00545279
0.060739,0.00299521
-0.0116943,0.00576424
-0.103261,0.0142639
-0.105825,-0.0111225
-0.0142555,-0.0341243
-0.00342243,-0.0418539
-0.0892788,-0.0560469
-0.141565,-0.00637104
-0.112133,0.0308275
-0.0531987,0.0313797
0.066611,0.0107212
0.263164,-0.00201666
0.310464,-0.00923079
0.143248,-0.00338687
-0.188134,0.00676074
-0.339527,0.00872352
-0.17408,0.000686844
-0.0151442,-0.0257804
-0.015129,-0.0205866
-0.0503157,0.00136805
-0.0328618,0.023186
0.0505969,0.0327647
0.266365,0.046091
0.400784,0.0357841
0.313967,0.00651788
0.00224618,-0.000424679
-0.412314,-0.0164792
-0.407303,-0.0272121
-0.196738,-0.0244233
-0.0522268,0.0031643
-0.0169699,0.0143691
-0.0635185,-0.0247835
-0.0160393,-0.0383183
0.125222,-0.0250977
0.335132,-0.0167836
0.385338,-0.0101248
0.197844,0.00383271
-0.0949528,0.0158395
-0.349776,0.0309942
-0.368505,0.0331494
-0.228834,0.0177512
-0.0739823,0.0179169
0.0748058,0.0209024
0.179459,0.00827156
0.183192,-0.0141586
0.0562033,-0.00966511
-0.104627,-0.038531
-0.0737768,-0.0615527
0.0266419,-0.00577295
0.0183708,0.00343899
0.00812033,-0.00942968
0.0628232,-0.0039137
0.109871,-9.85e-05
0.0777678,0.0011144
-0.0809832,0.0144654
-0.203293,0.0249261
-0.139881,0.0266956
-0.0281027,-0.000771255
0.028202,-0.0122307
0.0533912,-0.000701852
0.0580188,0.00221639
0.0408828,-0.00326539
0.0522527,-0.0214451
0.0841165,-0.00269028
0.121801,-0.0122797
0.126723,-0.0176742
0.0262995,-0.00855535
-0.0633129,0.00339362
-0.0890816,0.0190063
-0.0630873,-0.0029082
0.0393894,-0.00722203
0.104821,0.00300966
0.160145,0.0229916
0.120403,0.0264954
-0.0202648,0.0296256
-0.143897,0.0285947
-0.149644,0.0224763
-0.0523266,0.0170858
0.0148057,-0.000661861
-0.0535187,-0.0135544
-0.127291,-0.0132632
-0.103985,0.00189156
-0.0483002,0.00906966
-0.0316406,-0.00748438
-0.0347859,-0.0165129
-0.0261408,-0.0253596
-0.0369214,-0.0147078
-0.0249561,0.00433471
0.0526814,0.0118547
0.115593,0.00268123
0.143544,-0.0206538
0.0496646,-0.042834
-0.0368271,-0.00553072
0.060843,0.0185459
0.193017,0.0221377
0.266502,0.0347187
0.362577,0.0165472
0.272144,-0.0125985
-0.00229159,-0.0282432
-0.210423,-0.0332198
-0.39275,-0.00915112
-0.360869,0.0255462
-0.26381,-0.00382383
-0.194636,0.00666752
-0.0650061,0.0175987
0.00352636,0.0137565
-0.0172323,-0.0105383
-0.0863561,-0.0208301
-0.0990264,-0.0220895
-0.0370088,-0.0125156
0.0186225,-0.0205926
0.0442817,-0.00581777
0.0826404,0.0158719
0.1022,0.00274193
0.0463025,-0.00591015
0.0186101,-0.0096079
0.0300646,-0.00108295
0.0870368,0.00597452
0.204408,0.00669294
0.220147,0.00914173
0.162274,0.0131928
0.0810334,0.0229358
0.0128553,0.0215837
-0.0159212,0.00630746
-0.0217638,-0.0033872
-0.0315678,-0.00145872
-0.0746111,0.00700244
-0.0895985,0.00397971
-0.131604,-0.0139491
-0.232308,-0.0070132
-0.204195,0.0158078
-0.0728465,0.0290411
-0.012013,0.0121174
0.0102556,-0.0193061
0.0593323,-0.0421656
0.102511,-0.0235198
0.117286,0.016947
0.0660344,0.0177305
-0.0478255,0.0105051
-0.108526,0.00705473
-0.0483753,0.000526146
0.0318881,-0.00215728
0.100602,-5.68e-05
0.147313,0.00644254
0.126786,0.0143727
0.110185,0.00911605
0.0956685,-0.0116011
0.054545,-0.0122848
-0.0266215,-0.0390762
-0.136311,-0.0437674
-0.203581,-0.0114124
-0.109952,-0.0305777
0.0633009,-0.0116828
0.140575,0.015806
0.118908,0.0134915
0.0748137,0.00795275
-0.0267691,0.00979258
-0.0759968,0.0132768
-0.141343,0.00746959
-0.248817,-0.00115678
-0.170442,0.000710152
-0.0508425,0.0124932
-0.0270463,0.0141618
-0.00905243,0.00877423
0.0128261,0.00723636
0.0370257,0.0065973
0.0483535,0.00596105
0.0355367,-0.00277729
0.0190018,-0.00960007
0.00456414,-0.00925936
0.0211782,-0.0175332
0.0791612,-0.0150369
0.0898107,0.0126439
0.0344222,0.0199505
-0.0111927,0.0159807
0.00762975,0.00278748
0.0421514,-0.00554581
0.0674341,0.000885085
0.115702,-0.0148872
0.132241,-0.0139578
0.126695,0.0044339
0.0194969,0.00767421
-0.147934,0.0152079
-0.217551,0.00356239
-0.20424,0.000591371
-0.144817,0.0201019
-0.103254,0.0133031
-0.0504681,0.000601573
0.0455326,-0.0107367
0.219779,-0.0123136
0.310598,-0.0210583
0.287913,-0.0237502
0.126606,-0.0137822
-0.0906256,-0.0171063
-0.110009,-0.0260843
-0.0832623,0.0035728
-0.0173451,0.025559
0.0896371,-0.0039
0.0525834,0.00685503
-0.169989,0.0293653
-0.293224,0.0102328
-0.258535,-0.0016832
-0.158562,0.00269442
-0.0736258,0.00460466
-0.00277737,-0.000157968
0.0305262,-0.0111596
0.0457278,-0.0108808
0.0722467,-0.00709483
0.0556399,-0.00339764
0.0208368,0.00755599
0.0421124,0.00882494
0.0427858,0.000160657
0.0652971,0.0190534
0.0603736,0.0227282
0.0456114,0.0137817
0.146835,0.0136892
0.0812132,0.00520582
-0.0388661,-0.0140751
-0.0600531,-0.0214888
-0.000308829,-0.0325224
0.0877831,-0.0263846
0.100478,0.00843864
-0.0213174,0.012127
-0.169327,-0.00963539
-0.178085,-0.00904474
-0.0485052,-0.00122669
0.0268536,0.00699369
0.0243898,0.00543918
0.0121937,-0.0218609
0.0332363,-0.0114982
0.0384662,0.0172016
0.0546489,0.0280051
0.0570014,0.0346175
0.0262603,0.0410456
0.0421746,0.043696
-0.0198829,0.00282506
-0.141083,-0.0253263
-0.149184,-0.0276562
-0.0336741,-0.0221941
0.0465972,-0.0123451
0.0341077,-0.0260043
-0.054732,-0.038007
-0.0983407,-0.0116105
0.0116689,0.00913343
0.141664,0.0367446
0.193633,0.0380153
0.11141,0.0198017
-0.0549653,-0.00739503
-0.137274,-0.0266833
-0.166351,-0.0254684
-0.0841215,-0.00626342
0.0202683,-0.0138106
0.0724045,-0.00720293
0.173728,0.0151319
0.337898,0.000905694
0.326547,-0.0107306
0.157544,-0.0208277
-0.145949,-0.0168733
-0.333529,-0.00403626
-0.259789,0.0115882
-0.121319,0.016358
-0.0932371,0.0130659
-0.189174,0.0275985
-0.194095,0.0404114
-0.063209,0.0241502
0.079674,-0.0168014
0.119341,-0.0262313
0.103713,0.00237052
0.0977824,0.026799
0.0567342,0.00863792
-0.0178577,-0.00231874
-0.0557011,-0.0144318
-0.0467079,-0.0279508
-0.01562,-0.0611994
-0.0363339,-0.0536609
-0.0295154,0.00969735
-0.0092895,0.00397688
0.00260152,-0.0241173
0.047364,-0.0180232
0.121761,0.038663
0.179841,0.0443764
0.208899,0.0280688
0.179686,-0.000592778
0.0201958,-0.00933701
-0.09677,0.0147211
-0.121482,0.0303964
-0.140534,0.0181935
-0.104648,-0.00450373
-0.0470558,0.00111475
-0.0390161,0.00296832
-0.0491722,-0.00392293
-0.0136571,-0.0150452
0.0235715,-0.033223
0.0200204,-0.0346527
-0.00202731,0.0230706
0.0039269,0.0369531
0.00378667,0.0152643
0.0132696,0.0040964
0.0193963,-0.00331285
0.0522464,-0.00660009
0.179643,-0.0152055
0.193016,-0.0160001
0.0505567,-0.0235975
-0.154561,-0.0052244
-0.265713,0.0177652
-0.154659,0.0344653
0.0309169,0.0224364
0.141096,0.00347126
0.170894,-0.00311763
0.174312,0.00771561
0.0679667,-0.00599964
-0.0959219,-0.0231817
-0.216498,0.0220106
-0.249101,0.023935
-0.134345,-0.00187052
-0.0187357,-0.0148009
0.0343621,-0.0510696
0.0550889,-0.0583965
0.0497585,-0.0119321
0.00778597,-3.85e-05
-0.0392719,0.00148835
-0.0413642,0.0174118
-0.0276739,0.018658
-0.00736298,0.00585296
0.0120256,0.00307669
0.0426309,0.00514489
0.031751,0.0113008
-0.0280607,0.0110933
-0.0356879,0.00843162
-0.00630579,0.0034273
0.00882585,-0.00425755
0.0515397,-0.00945767
0.159149,-0.0131739
0.22111,0.00644194
0.176254,0.0176857
0.114137,0.01451
0.0450318,0.0202346
0.034519,0.0164539
0.130016,0.00785812
0.0718835,-0.0184994
-0.0765433,-0.0163298
-0.156468,-0.033851
-0.293371,-0.0146116
-0.347739,0.0193136
-0.24174,0.0258257
-0.141092,0.035798
-0.050006,0.0146994
0.024599,-0.0311892
0.0449022,-0.0359677
0.0315147,-0.0141985
0.0821015,-0.0083094
0.132525,-0.0154952
0.138217,-0.00840546
0.0420235,-0.000570245
-0.101011,-0.000726478
-0.0972842,0.00546524
0.00998516,0.0209224
0.0773031,0.0090252
0.0888254,0.00462428
0.0642737,0.0154399
0.0346477,0.0160458
0.00868053,0.0139847
0.0318062,0.0088909
0.0625659,-0.00291087
0.0157081,-0.00551953
-0.00735231,-0.00378057
0.0233842,-0.00886638
0.00759409,-0.0504386
0.00170174,-0.0889713
-0.0489897,-0.0150805
-0.147362,0.0656982
-0.155234,0.0387745
-0.0582562,0.00607488
-0.0198184,-0.0060207
-0.003085,-0.012304
0.027343,0.00508922
0.0376,0.0156109
0.0215986,0.00857985
-0.00468435,0.00613586
-0.0379457,0.0180079
-0.00117911,0.0254478
0.0467638,0.0125256
0.0465234,0.000734618
0.012087,-0.0110181
-0.01243,-0.0315678
0.00620779,-0.0747372
0.122809,-0.054382
0.260323,0.0132017
0.379215,0.0232441
0.29143,0.0149775
0.0914321,0.0122647
-0.0584785,0.00965148
-0.111309,0.00481032
-0.205416,0.00540927
-0.376787,0.00838508
-0.34145,0.0171256
-0.123969,0.0178585
-0.0731776,-0.00875557
-0.0859261,0.0408044
-0.0295445,0.0618951
-0.0471412,0.00712083
-0.0976818,-0.0228276
-0.0922173,-0.0237324
-0.0352797,-0.0180017
-0.0242218,-0.0181902
-0.0264499,-0.0425581
0.0226306,-0.0402985
0.19587,-0.00526907
0.302634,0.00142999
0.259795,-0.00449856
0.051703,-0.00374213
-0.231012,0.00731387
-0.199322,0.0115815
0.0077057,-0.001878
0.14362,-0.0275117
0.237959,-0.0299875
0.344397,-0.0183875
0.292884,-0.00336318
0.167256,0.0389864
0.0882206,0.0476056
-0.0521449,0.035982
-0.180382,0.0185263
-0.239735,-0.00095363
-0.248973,0.0138785
-0.245224,-0.00582111
-0.137923,-0.0182321
-0.0504587,0.0184365
-0.0677037,0.00856145
-0.026198,-0.0398166
-0.0640906,0.00139043
-0.10634,0.0119483
-0.0591178,0.000462984
-0.0127442,-0.0403495
0.010094,-0.00360567
0.00136936,0.007529
0.0402806,0.0252817
0.132477,0.0275392
0.165564,-0.00128066
0.11267,0.003447
-0.0357157,0.00917651
-0.145742,0.00271319
-0.09999,-0.00064117
-0.00425291,-0.000601597
0.0632066,-0.00389881
0.119554,-0.00302133
0.181217,-0.00273806
0.162984,-0.00754989
0.0631309,-0.0101509
-0.0376844,-0.00743457
-0.0370634,-0.00619877
0.0692673,-0.00963937
0.0729409,-0.00456874
0.0180867,0.00737089
-0.0586951,0.0163298
-0.117986,0.0144213
-0.0765582,0.00840175
-0.057534,0.00437252
-0.0576653,-0.000885677
-0.0410179,-0.00458643
-0.0479724,-0.000732604
-0.00373013,0.00559315
0.0699476,0.00650601
0.100807,0.00699336
0.0830758,0.0118697
-0.0152337,-0.000641525
-0.0999803,-0.0361704
-0.0938852,-0.037732
-0.0886437,-0.0210166
-0.078231,-0.0105531
-0.053257,0.0127921
-0.0315834,0.0199834
-0.0123221,0.0201205
0.0108901,0.014064
0.0480776,0.00169671
0.0876153,-0.0149919
0.124162,-0.0170413
0.159289,-0.0125369
0.137746,-0.0123754
0.152195,-0.00948258
0.122636,-0.0110731
-0.0597636,-0.0200764
-0.199947,-0.0133828
-0.17101,-0.00327353
-0.0300676,-0.00380684
0.0658578,0.0105482
0.0450764,0.0356305
0.0803207,0.0172837
0.211066,-0.00530728
0.103451,0.0188704
-0.0925046,0.0409108
-0.350146,0.0228554
-0.464621,0.00308578
-0.220329,-0.00559736
-0.0342944,-0.00506871
0.0364286,-0.00085656
0.0626627,0.00241884
0.15043,-0.00479113
0.332586,-0.0184942
0.37341,-0.0221755
0.270971,-0.00514151
-0.0528213,-0.000994932
-0.336368,0.00572224
-0.288534,0.00739125
-0.120833,-0.00678236
0.0647192,0.00148754
0.118502,0.00765913
0.00566573,0.00349536
-0.0423706,-0.000840313
-0.0588203,-0.0086603
-0.054631,0.00231088
-0.0266634,0.0125405
-0.0310351,0.000584308
-0.0135912,0.00413046
0.0471302,0.00441398
0.0338529,-0.055533
-0.0846138,-0.0613522
-0.107903,0.00866824
-0.0623537,0.0340883
-0.0456754,0.0347571
-0.0147089,0.00698083
0.0113579,-0.0270006
0.0536095,-0.000283994
0.137045,0.0165515
0.20096,-0.00135605
0.192109,-0.00627746
0.0733257,-0.000117849
-0.0760877,0.00994046
-0.083668,0.00615886
-0.0275466,-0.00335907
0.0127616,-0.00546862
0.0426343,0.000377807
0.0502893,0.00517297
0.0342803,0.005335
-0.0200916,0.00254707
-0.0725956,0.00227403
-0.0405761,0.00702764
-0.0318675,0.0104937
-0.0492638,0.0181749
-0.0271279,0.0131865
0.0293379,-0.00276521
0.0710612,-0.0114153
0.0725651,-0.0134582
0.0507752,-0.0111808
0.0372108,-0.0101021
0.00902657,-0.010019
-0.0425236,-0.0059776
-0.0626877,0.00264424
-0.0452628,0.00784221
-0.0432466,0.00717
-0.0424477,0.00770174
-0.0213326,0.009533
0.00405506,0.00646483
0.018122,0.00430946
0.0484027,0.00636767
0.0997061,0.0122391
0.0745066,0.0091382
0.0173042,0.000609737
0.00628555,-0.00612685
0.0253011,-0.0112505
-0.0130759,-0.0144569
-0.0506043,-0.0288257
-0.0633138,-0.0291015
-0.128274,0.0130211
-0.11409,0.0149427
-0.047603,0.00338639
-0.0393782,-0.00263784
0.0174968,0.000414718
0.138306,0.00679798
0.137654,-0.00046678
0.0228342,0.00630624
-0.0829305,0.0163794
-0.185391,0.00987505
-0.172112,-0.00255902
-0.0542119,-0.000624466
0.0528062,-0.00362172
0.0924472,-0.00468405
0.10369,-0.00401914
0.127365,-0.00487401
0.250107,-0.0117816
0.267613,-0.00249799
0.167668,0.0125903
-0.110347,0.0178122
-0.271878,0.0168482
-0.217866,0.01371
-0.229477,0.00683775
-0.221112,0.00407339
-0.139768,0.00340598
-0.0481368,0.00177572
0.0859345,-0.00139334
0.290844,-0.0256107
0.397793,-0.0307883
0.315136,-0.0167041
0.0348122,-0.0242172
-0.268048,-0.041567
-0.340339,-0.0122836
-0.2513,0.0151699
-0.116487,0.00943554
-0.0133345,0.00510307
0.0738347,-0.00796596
0.205041,-0.0116091
0.250853,0.000139053
0.159285,-0.00103551
-0.0568514,0.00443292
-0.278999,0.000899827
-0.171271,-0.00335768
0.00608742,0.0101429
0.0591872,0.00710726
0.0557104,-0.0226811
-0.00710685,-0.00815854
-0.0496768,0.0220125
-0.00242438,0.0203863
0.0469476,0.021841
0.0922814,0.0163259
0.128711,0.00814044
0.117702,0.000919189
0.0228654,-0.00189188
-0.0164231,-0.00180866
-0.0223724,-0.000637693
-0.100272,-0.00122858
-0.170843,0.00604177
-0.0900231,0.0131245
-0.00425286,0.00885687
0.00561057,-0.00144074
0.00726982,-0.0178563
0.0176606,-0.0169683
0.0249422,-0.00105382
0.03106,0.00172476
0.0199611,0.00289357
-0.00294995,0.00559791
-0.00142658,0.00505819
0.0182688,0.0059185
0.0329802,0.00365041
0.0224106,-0.00248364
0.00507826,-0.00385811
0.00401317,-0.00553385
0.0221924,-0.00458465
0.0452782,0.000254906
0.0191253,0.0050593
-0.0430109,0.0011161
-0.0573667,-0.00702962
-0.0143754,-0.0133421
