Comp Ch 3,Comp Ch 4
0.108645,0.00670627
0.102802,0.000393345
0.0247471,-0.00171796
-0.156275,0.0174926
-0.254847,0.0243461
-0.157291,0.01983
-0.0396711,0.00560639
0.0302216,-0.00599137
0.0513832,-0.00989459
0.0355799,-0.00923303
0.020168,-0.00133653
0.0327014,0.0209658
0.0733027,0.0196176
0.0850926,0.00398968
0.0596134,-0.0480372
0.00682254,-0.064727
0.000119467,0.01944
0.0909548,0.00952669
0.186396,-0.00982224
0.296103,0.00361663
0.336723,-0.0201599
0.219827,0.00146251
0.0747475,0.0193722
-0.220649,0.0143481
-0.388569,-0.0252244
-0.24955,-0.0326914
0.0252572,0.0333791
0.135871,0.0338883
0.21728,0.0129927
0.0932621,0.0122535
-0.262208,0.013097
-0.200176,0.00980307
-0.090763,-0.0014584
-0.136821,-0.012967
-0.0205676,-0.0360901
0.0770623,-0.0311496
-0.0594366,0.00740371
-0.237676,0.0151986
-0.212275,0.00858555
-0.00460374,-0.00328158
0.0707047,-0.00520734
0.0544742,0.00548394
-0.00739418,0.00720591
-0.0212329,0.00183004
0.0163621,-0.000972237
0.0436851,0.0027896
0.0327442,0.0147995
0.0443822,0.0222895
0.0646834,0.0146753
0.0585709,-0.00312589
0.0491647,-0.0102062
0.0233335,0.00233183
0.0207754,0.00916681
0.0503122,0.000762156
0.096768,-0.006533
0.107082,-0.00992835
0.0669079,-0.0144979
-0.0166167,-0.0147363
-0.0793346,-0.00620978
-0.0431036,-0.0109332
0.0239491,-0.0213919
-0.0504162,-0.0179884
-0.0194613,-0.0100771
0.0883009,0.0125443
0.101971,-0.0136511
0.071906,-0.00115252
-0.0219329,0.0169959
-0.0656974,0.0040747
-0.136235,-0.00657007
-0.13293,0.00141361
-0.0478052,-0.000694128
-0.0574291,0.00666232
-0.174431,0.0322683
-0.122195,0.02203
0.0215325,-0.00208803
0.0388828,-0.00804587
0.00209305,0.00016603
-0.00845827,0.00818625
0.0817455,0.021678
0.339355,0.00628201
0.442192,0.00621296
0.619188,-0.00593808
0.545055,-0.0324292
-0.148449,-0.0295724
-0.348149,-0.0188698
-0.0940784,-0.019534
-0.0472855,-0.00792068
-0.389515,0.0182463
-0.472764,0.0259992
-0.231119,0.0217055
-0.177641,0.0100536
-0.330343,0.0145352
-0.235861,0.0208656
-0.0216746,0.0150424
0.0605031,0.00727653
0.0217739,0.00602928
-0.0526614,0.0048447
-0.000848096,0.00668481
0.0278734,-0.00215641
0.0104227,-0.0214568
0.0186814,-0.0245426
0.0568911,-0.00809827
0.103697,0.000702007
0.127934,-0.00325051
0.0925653,-0.00442139
0.0308693,-0.00176212
0.0576465,-0.00549848
0.0968923,-0.0164142
0.154051,-0.0244485
0.127997,-0.00859938
0.106139,-0.00437168
0.143386,-0.00668258
0.0517968,0.00707312
0.0246172,0.0203911
0.0713799,0.0235619
0.102971,0.00512391
0.063725,-0.012616
-0.0129223,-0.00119171
-0.0651831,0.0136894
-0.13713,0.0177917
-0.122132,0.00834584
-0.0967951,-0.00834383
0.0548861,-0.014003
0.313941,-0.0246046
0.144777,-0.0114199
-0.326545,0.00782959
-0.504662,0.00316041
-0.269757,0.00975023
-0.0330744,0.00258097
-0.00413033,0.000837396
-0.168201,0.0166948
-0.138696,0.015081
0.0771743,-0.0034041
0.171735,-0.0113871
0.119458,-0.00736585
0.201479,-0.00877514
0.319651,-0.00303796
0.184214,0.00510441
-0.0169609,0.00766995
-0.283317,0.00691341
-0.216977,-0.0059385
-0.0746791,-0.00839509
-0.0343654,-0.00608256
0.142226,-0.0222893
0.407479,-0.0522346
0.414113,-0.0261197
0.19185,0.0229217
0.0383544,0.0386468
-0.00471127,0.0136325
-0.27928,-0.00768202
-0.451962,-0.00404214
-0.406415,0.00612472
-0.271682,-0.00671084
-0.0902696,-0.00808063
0.101809,-0.00275612
0.176356,-0.00275129
-0.104204,0.00803007
-0.185904,0.0278023
8.01e-05,0.0241655
0.0379454,0.0123287
0.00300693,0.00399847
0.0248174,0.000372557
0.0812565,0.0103646
0.0568236,0.02592
-0.00179718,0.0208604
-0.022939,0.0117396
-0.00674784,-0.00960237
0.0436793,-0.0289279
0.11403,-0.0323812
0.161478,-0.01094
0.112485,-0.00115661
-0.00178319,-0.000648072
-0.0508933,0.00255793
0.00987752,0.0203847
0.151878,-0.0188101
0.207669,-0.0118286
0.117201,-0.00484967
-0.00255237,-0.00428256
-0.0209515,0.0129481
-0.0520356,0.0223455
-0.0557543,0.000890819
0.056001,0.00275882
0.142795,0.0194963
0.200498,0.00317957
0.120932,-0.0154649
-0.100602,-0.0101954
-0.273651,-0.0182136
-0.251329,-0.0287155
-0.11589,0.0115271
-0.148492,0.0196022
-0.120326,0.00323791
0.000947306,-0.0167224
-0.00788602,-0.0387722
-0.0550145,-0.0257904
-0.0806316,-0.00681173
-0.108037,0.0120561
-0.106496,0.03048
-0.028642,0.0252122
-0.0273135,0.0139507
-0.0736388,0.0172875
-0.0461213,-0.00189803
0.119887,-0.0259956
0.335089,-0.0307747
0.510361,-0.023523
0.65351,-0.0235461
0.509113,-0.0239851
0.0807071,-0.00958764
-0.0865882,-0.00226788
-0.239179,0.0147981
-0.177047,0.0290277
-0.0334931,0.0346955
-0.397147,0.0422692
-0.530396,0.0427312
-0.231345,0.0286699
-0.123515,0.0147825
-0.0884274,0.00214805
-0.0889871,-0.00451389
-0.107829,-0.0047729
-0.069621,-0.00327925
0.00346911,-0.00327912
-0.00644041,-0.003665
-0.0196659,0.00246572
0.0395991,0.00724159
0.107071,-0.000421518
0.150592,-0.00820299
0.132194,-0.0100638
0.0715982,-0.0103287
0.0317288,-0.00352486
0.0196334,0.0022871
0.044001,0.00294564
0.049868,0.000840501
-0.0210449,-0.00451782
-0.080735,-0.00526442
-0.0521675,-0.0169559
0.0537619,-0.034744
0.178573,-0.045568
0.137178,-0.0419601
-0.0890813,-0.00585903
-0.146977,0.0205841
-0.0243207,0.0309639
0.0347397,0.0209556
0.063413,0.00793649
0.101166,0.0138045
0.0627022,-0.00112711
0.0766665,-0.00676606
0.0425528,-0.00075283
-0.10082,0.00420075
-0.00240822,0.0115421
0.172629,0.00580338
0.103685,-0.00565091
-0.168563,-0.0188415
-0.370928,-0.0111812
-0.121462,-0.00744836
0.298355,0.00493614
0.353284,0.00889023
0.0507375,-0.000129546
-0.247744,-0.00318548
-0.0791389,-0.0111528
0.0736849,-0.0155503
-0.0316338,-0.0376247
-0.0885666,-0.00118084
-0.0379303,0.0377921
-0.0762958,0.0249065
-0.239883,0.0206978
-0.281674,0.0199725
-0.178717,0.0228846
-0.0285408,0.0265256
0.0787665,0.0206449
0.069532,-0.00875467
-0.0130359,-0.0288584
0.00556844,-0.0271316
0.0955122,-0.0125761
0.159447,0.00203126
0.12504,-0.00244351
0.00584266,-0.0090783
0.00254568,-0.00502117
0.00587913,-0.000287904
0.0591008,-0.00435459
0.194268,-0.0110125
0.219141,-0.000223975
0.129357,0.0142184
0.0548412,0.00819545
-0.0546836,-0.00454945
-0.0114637,-0.014166
0.130009,-0.00548754
0.254305,0.00818182
0.147445,-0.00203452
-0.163611,0.000950571
-0.400259,0.0161336
-0.363825,0.0293673
-0.106734,0.0207515
-0.0275623,-0.00328079
-0.12222,-0.00537051
-0.0873579,-0.00186152
0.0249408,-0.00527781
0.109016,-0.00187769
0.0440934,0.0133963
-0.0855769,0.0159752
-0.058199,-0.00313579
-0.00793679,-0.059968
0.0398174,-0.117086
0.0575139,-0.0949886
0.0153776,-0.0198123
-0.0282362,0.0119242
-0.130774,0.0115126
-0.176639,0.0198033
-0.0318975,0.032398
0.163002,0.0500594
0.21798,0.0481999
0.187639,0.0407131
0.158284,0.0341333
-0.0574599,0.0210492
-0.023732,0.0146991
0.215536,0.0055715
0.171603,0.00302754
-0.106212,0.0300847
-0.262532,0.00670204
-0.199978,0.0050461
-0.0863062,0.0122183
-0.0447053,0.00888216
-0.0848715,-0.000910321
-0.011604,0.00172161
0.187189,0.0130603
0.311268,0.0022509
0.157254,-0.0129152
-0.0965075,-0.0218564
-0.227228,-0.0215399
-0.0882206,-0.000477472
0.166697,-0.000106499
0.193479,-0.0174068
0.0779862,-0.0176279
0.0630734,0.0016017
0.184535,-0.00379773
0.19813,-0.0373246
0.0483819,-0.0309307
-0.21547,-0.0138711
-0.246877,-0.0134874
-0.193292,0.00144012
-0.209791,0.0152697
-0.11795,0.0129891
-0.0295157,0.00242737
-0.125293,0.00334202
-0.212474,0.00830544
-0.113742,-0.0246255
-0.0103793,0.00316994
0.0325377,0.0300566
0.0521951,0.0436635
0.0394041,0.0386058
-0.00324381,0.0257885
0.176444,-0.0115127
0.504484,-0.0298418
0.560844,-0.0226154
0.214719,-0.00556131
-0.129559,-0.000325306
-0.175198,0.0055775
0.0192203,0.0016689
-0.0723667,-0.000812984
-0.399902,0.00360234
-0.427632,0.000394044
-0.120266,-0.00725565
0.00846052,-0.0241527
-0.010606,-0.0258625
0.00528087,-0.0163183
0.0551812,-0.0269223
0.0887605,-0.00360258
0.0781875,0.0114095
0.00379216,-0.00149431
-0.091202,-0.00706108
-0.197501,-0.0289661
-0.117209,-0.04916
0.221522,-0.0269578
0.536478,0.00227348
0.519511,0.0199846
0.000846555,0.0363634
-0.460478,0.0399396
-0.424918,0.0480842
-0.1044,0.0779048
0.0972766,0.0322922
0.10672,-0.0415059
-0.0161286,-0.0392006
-0.056169,-0.014902
-0.0336857,-0.00319312
-0.0266072,-0.0140135
-0.0863466,-0.0135237
-0.136539,0.0125155
0.00922427,0.00889265
0.1253,-0.0300101
-0.0903147,0.00223833
-0.201199,0.0250552
-0.0630771,0.0129939
0.100604,-0.0141469
0.152099,-0.017452
0.20951,-0.00970705
0.252426,-0.0125463
0.250844,-0.0145332
0.138012,-0.00696697
0.0825032,-0.00494634
0.0222549,0.0152614
-0.162773,0.00957951
-0.320066,0.00147945
-0.294114,0.0285908
-0.0624088,0.0415436
0.00455933,0.028301
-0.148972,0.00956688
-0.195507,0.000258389
-0.0251075,-0.00709207
0.182015,-0.0133517
0.338837,-0.019269
0.391047,-0.0162861
0.285398,-0.0104064
0.0202639,-0.00538762
-0.111966,0.00230912
-0.0436344,0.0044135
0.00720872,0.00992152
-0.05542,0.0206988
-0.209716,0.0121707
-0.286467,-0.00172284
-0.24686,-0.000181455
-0.09379,0.00171929
0.0938632,-0.0215591
0.162471,-0.0253247
0.0736896,-0.00295714
-0.0628602,-0.00825064
-0.077296,-0.0367691
0.0590974,-0.0323744
0.158567,-0.00458971
0.226871,-0.00296382
0.154352,0.0141619
0.00982449,0.0483562
-0.0639216,0.0753594
-0.172423,0.0388061
-0.126348,-0.0134035
-0.0940685,-0.0135471
-0.0220994,-0.00252539
0.0645418,0.00723749
0.0824305,0.0232269
0.109649,0.030323
-0.00963988,0.0286042
-0.169079,0.0233744
-0.132966,0.0144638
-0.0125025,-0.0103304
0.0358425,-0.046249
0.000950442,-0.0166705
-0.0273637,-0.0296499
-0.00731988,-0.0486346
0.0123997,-0.0101503
0.00466271,0.0211269
0.00385365,0.0154408
-0.00138903,0.00716926
-0.0310133,0.00187836
-0.0462893,-0.0247938
-0.0366124,-0.037373
-0.0281779,-0.0262486
-0.0123547,-0.00480276
-0.00610739,0.0196749
-0.00523168,0.0161672
0.0837976,0.00230875
0.260724,-0.0140954
0.319265,-0.0140678
0.405376,-0.0114821
0.34864,-0.0219855
0.15205,-0.0125562
-0.126866,-0.00192805
-0.474259,0.0145819
-0.521857,0.021009
-0.284535,0.0131827
-0.0111301,-0.0167846
0.0908157,-0.0127216
0.145803,0.00647534
0.1795,-0.0313955
0.125557,-0.0232826
0.130885,0.0410881
0.0756969,0.0393275
-0.0943302,-0.000962931
-0.402539,-0.0229343
-0.316229,-0.0232807
0.0433847,-0.0184898
0.0954498,-0.00627246
-0.210137,0.0197276
-0.215029,0.0204076
-0.00403475,0.0100856
-0.0315377,0.0119131
-0.045849,0.00815061
-0.0397312,0.0114974
-0.0117892,0.0190256
0.043315,0.015294
0.0763575,0.0103821
0.0412294,0.0011868
-0.00272444,-0.0110275
0.0834051,-0.00898758
0.209671,-0.00170809
0.226908,0.00508037
0.0408643,0.00452289
-0.0831418,-0.00154333
0.00762175,-0.00537466
0.0953483,-0.00926448
0.046391,-0.00829511
0.0218507,-0.0074159
0.148142,0.000747132
0.159124,0.0010352
-0.115379,0.0114411
-0.233599,0.0274117
-0.126298,0.0201616
-0.0705411,0.00452545
-0.0222923,0.00109365
0.124831,0.00589389
0.249491,-0.0115332
0.267086,-0.0355803
0.161316,-0.0207805
-0.0832251,-0.00533318
-0.275179,-0.00424019
-0.347359,-0.000547716
-0.119008,0.0014248
0.168761,-0.00130145
0.184742,-0.00178715
0.0242888,0.00133087
-0.155563,0.000600468
-0.155621,0.00472641
-0.0699014,0.00863703
-0.0731141,0.0072169
-0.0941518,0.0065068
-0.0933797,0.0115961
-0.0350249,0.00696462
0.00615661,-0.00705545
0.0147561,-0.0140391
0.00194171,-0.00936301
0.0333338,-0.00749718
0.0390629,-0.0112053
0.0743501,-0.00673699
0.117369,0.00392667
0.214576,0.0125255
0.263525,0.0228733
0.199306,0.0129284
-0.0576873,-0.00254044
-0.300437,-0.0109018
-0.222897,0.00568802
-0.00723369,-0.00403607
0.203302,-0.000264185
0.195725,0.0102661
0.0752271,0.0266458
-0.154262,0.0247342
-0.253433,-0.00537713
-0.138758,-0.0338177
-0.00311004,-0.0396847
0.201698,-0.0219019
0.336388,-0.00283039
0.149636,0.0197863
-0.158293,0.0343517
-0.343536,-0.000931926
-0.350018,-0.0292915
-0.206969,-0.0309263
-0.0467123,-0.00986913
0.0565874,-0.00831389
0.174352,-0.00735096
0.154544,-0.00529484
-0.0888618,-0.0122035
-0.174171,0.0104972
-0.145419,0.0403682
-0.0985027,0.0308208
0.078617,0.0144911
0.333481,-0.00238326
0.411832,-0.00584808
0.276121,0.00379675
0.0992229,-0.00915767
0.0872124,-0.0653615
0.240331,0.00196164
0.153604,0.0237126
-0.134941,0.0177441
-0.339234,0.016561
-0.354489,0.0267747
-0.306052,0.0249589
-0.205075,0.010974
0.00244426,0.00108988
0.164462,-0.00384492
0.0521573,-0.00986528
-0.110359,-0.0412271
-0.251343,-0.0381545
-0.231201,0.00647506
0.00312247,0.0153481
0.0933415,0.00241329
-0.0402928,-0.0362011
-0.100252,-0.00375727
0.172079,0.0460339
0.53604,0.0227392
0.639133,-0.00732638
0.351508,-0.0226248
-0.207385,-0.0117244
-0.442719,0.00706455
-0.112717,0.02109
0.208011,0.0169036
0.143186,0.0037139
-0.0248273,0.00572553
-0.178303,0.0046096
-0.377068,-0.0135179
-0.205873,-0.0187655
0.0848211,0.0163987
0.147005,0.0180663
-0.033927,0.00879393
-0.275589,-0.00348231
-0.223975,-0.0133213
-0.0620402,-0.00804271
0.00676218,-0.0166049
0.0719949,-0.00525031
0.17444,0.00536277
0.196467,0.00388636
0.116422,0.00605485
0.0279924,0.00138404
-0.0796301,-0.00266373
-0.0292283,-0.000200179
0.105736,-0.00276827
0.0871408,-0.014225
-0.0610812,-0.0122943
-0.105067,-7.18e-05
0.00427564,-0.0116358
0.0358422,-0.0179261
0.0195463,0.00698849
0.0355718,0.0209589
0.0469501,0.00440543
0.0873524,-0.00770151
0.17598,-0.00688744
0.132714,-0.00713146
-0.081505,0.00500997
-0.173512,0.00904078
-0.129073,0.00706886
-0.0355983,0.0059814
0.0208881,0.00863968
0.0105667,0.0102447
-0.00179551,-0.00643329
0.183787,-0.00825067
0.347453,-0.00460225
0.301849,-0.0210577
-0.0122922,-0.0178777
-0.409734,0.0217964
-0.372443,0.0030685
-0.194525,-0.0184171
-0.139789,-0.00376586
-0.0830571,-0.0187096
0.0514691,0.0235023
0.100221,0.0335933
0.0443173,-0.00186011
0.0182024,-0.00266017
0.050928,0.00662552
0.0651165,0.00783728
-0.0351916,-0.025506
-0.177002,-0.0474064
-0.186775,0.00362782
-0.0712585,0.0311583
0.0775461,0.0514582
0.104434,0.0402585
0.0439983,-0.0123711
0.0193987,-0.0338655
0.0145133,-0.0270279
0.0605495,-0.0153672
0.207612,-0.0040803
0.297509,0.0151028
0.232158,0.0155525
-0.0282898,0.00604823
-0.234512,-0.00434515
-0.28224,-0.00571333
-0.170112,-0.00874788
0.0101826,-0.00439665
-0.0679913,-0.00522861
-0.0616829,0.00103702
0.0213894,0.0271594
0.055316,0.0311547
0.0418933,0.005959
0.0268921,0.00191707
0.0567203,0.00564048
0.126753,-0.00788087
0.0838639,-0.0145788
0.0233348,-0.0159929
-0.0803145,-0.00937023
-0.14963,-0.0327272
-0.0967742,-0.00214743
0.0385166,0.0159511
0.0846302,0.00532506
0.0259014,-0.0223846
-0.0223281,-0.0171793
-0.047711,0.00821576
-0.0802534,0.040032
-0.0447208,0.0515863
0.104411,0.0604867
0.0982203,-0.000388515
-0.0278222,-0.048317
-0.0741583,-0.0545276
-0.0108875,-0.0463865
0.0390401,-0.00184777
0.01353,0.0025228
-0.0230869,0.00706966
-0.0227265,0.0283617
-0.0146017,0.0278111
-0.00921701,0.0185685
0.0101165,-0.052507
0.0339339,-0.0580233
0.0752832,-0.0200546
0.0710325,0.00465383
0.0224461,0.0247317
0.0691874,0.0251004
0.0991753,0.0280098
0.0461946,-0.00601929
-0.0435822,-0.0181526
-0.0924511,0.0123942
-0.0674664,0.0339229
-0.0112923,0.00224042
-0.0152086,-0.0190301
-0.0356172,-0.00617358
-0.0477592,0.00873759
-0.0956086,-0.0156389
-0.0858766,-0.0133466
-0.0141322,0.0134161
0.0151265,0.0336466
0.0166612,0.0516875
0.0086467,0.0520697
-0.0199872,-0.0301341
-0.0662059,-0.0638334
-0.0604492,-0.0234825
-0.0418159,0.0194439
-0.0157225,0.0139496
0.019798,-0.0080525
0.0134971,0.00512797
-0.00508312,0.0269734
-0.0145531,-0.00455779
8.01e-05,-0.0343616
0.00903121,0.00248562
0.0373182,-0.0142141
0.113923,-0.0731418
0.247689,-0.0203196
0.41037,0.0263656
0.716718,0.0191682
0.871658,-0.0196862
0.598976,-0.0344153
-0.0665562,0.00970134
-0.975595,0.054312
-1.329,0.0483321
-0.803626,0.0154297
-0.157286,0.00416381
-0.0362276,0.00923096
-0.0902105,0.0217612
-0.0349686,0.0203411
-0.0212671,-0.0199833
-0.0517757,-0.101568
-0.0595165,-0.0587834
-0.0178367,-0.00844439
0.0641232,0.00949273
0.15309,0.0392668
0.207037,0.0373776
0.191804,0.0119123
0.223303,0.00278082
0.283229,0.00647914
0.271848,-0.021273
0.054526,0.00179943
-0.265278,0.0411351
-0.22945,0.0140326
0.00404898,-0.0411673
0.131311,-0.0390471
0.173602,-0.0156905
0.0171543,-0.0434303
-0.127254,0.00737865
-0.167994,0.0824829
-0.142412,0.0607404
-0.156943,0.0268656
-0.190906,-0.0166618
-0.0972414,-0.05382
0.15304,-0.0514453
0.311655,-0.0282688
0.306772,0.0235646
0.232428,0.0268469
0.104376,0.014979
-0.0521157,0.0129276
-0.0392222,-0.035488
-0.0487811,-0.0399694
-0.0824434,0.0118229
-0.158848,0.0442331
-0.199708,0.0439738
-0.137265,0.00267626
-0.120541,0.00718701
-0.0584978,-0.0345806
0.0480368,-0.000798604
0.12311,0.00404853
0.0847284,-0.00493468
-0.0996572,0.00347475
-0.11075,0.00740646
0.0809996,-0.0185412
0.144991,-0.0540925
0.07588,-0.0188757
-0.0707899,0.0395393
-0.0636891,0.0490085
0.131667,0.0186153
0.18244,-0.0160726
0.159604,-0.063247
0.0961479,-0.0257059
-0.0651317,0.00524381
-0.1405,0.0991544
-0.105532,0.0990692
-0.0960121,-0.0395794
-0.0523167,-0.118614
0.00465478,-0.0487539
-0.0359507,0.0274619
-0.139821,0.0557376
-0.0876828,0.0821538
0.0751732,0.0744094
0.0334322,-0.0372176
-0.0083866,-0.0602123
0.0271283,-0.0794484
0.0811755,-0.0451784
0.154581,-0.0141974
0.174039,0.000114446
0.171818,-0.0144416
0.0808231,0.00851722
-0.125171,0.0146444
-0.273535,-0.00686805
-0.271785,0.0289615
-0.0455699,0.0331
0.150035,-0.0409197
0.193081,-0.0921801
0.0896194,0.00994952
0.0652136,0.0505673
-0.0496301,0.00911297
-0.196353,0.00132501
-0.0727706,0.0210436
0.344869,0.0150075
0.522725,0.00276174
0.334134,0.0151881
-0.18633,0.0350514
-0.542043,0.0357025
-0.437253,0.0232159
-0.283332,-0.00384644
-0.153221,-0.00634692
-0.0909645,0.0103476
-0.0577284,-0.0321219
-0.0542705,-0.0348068
-0.082395,0.000137657
-0.0446498,-0.0134819
0.0697373,-0.044784
0.130191,-0.0102151
0.145183,0.0477217
0.116687,0.0511421
0.0318619,0.0222873
0.109385,-0.0118763
0.238199,0.0492969
0.208105,0.0460928
0.0930394,-0.0329418
-0.115298,-0.0435331
-0.279077,0.0167359
-0.0777671,-0.0379974
0.31998,-0.0577538
0.387975,-0.0241845
0.105615,-0.000896932
-0.246831,-0.00627762
-0.369491,-0.0717466
-0.169294,-0.0605263
0.0113164,0.0278734
0.126487,0.0332231
0.0986698,0.00104981
0.0461897,-0.0105564
-0.102847,0.0115392
-0.218677,0.0408241
-0.078216,0.0371392
0.165264,0.0335191
0.147106,0.030238
-0.00723909,0.0144949
-0.098687,-0.000390248
-0.17855,0.00222906
-0.152453,-0.0069997
-0.0470299,-0.039364
0.0819302,-0.0028504
-0.0029375,0.0213449
-0.16271,0.024423
-0.0409488,0.0271617
0.107286,-0.00233094
0.14512,-0.0426383
0.188008,-0.064977
0.23892,-0.05641
0.259765,-0.0194997
0.174095,-0.0145484
-0.0303839,0.0328589
-0.292067,0.0252882
-0.21641,0.0238866
0.00289989,0.0105987
0.102372,0.0194565
0.0201471,0.0727001
-0.122214,0.0178245
-0.22977,-0.00469291
-0.218618,0.0175492
-0.121611,-0.00308092
-4.19e-05,-0.049362
0.103743,-0.0525561
0.168448,0.000312044
0.275531,0.00864531
0.331889,-0.0250279
0.185604,-0.0452146
-0.312111,-0.00784346
-0.569079,0.0305728
-0.271884,0.0236914
0.0301232,0.0122249
0.281835,0.0183567
0.46418,0.020282
0.441563,0.0135898
0.154085,-0.0238146
-0.138927,-0.0458566
-0.327383,0.0176482
-0.406441,0.0187673
-0.424643,0.0136259
-0.252132,0.0272833
-0.0327766,0.022821
0.0431844,-0.00517785
0.0638817,-0.0111648
0.189651,0.00900107
0.48322,0.0746779
0.726568,0.0666063
0.598897,-0.112957
-0.154145,-0.131217
-0.884414,-0.0185197
-0.639179,0.00303417
-0.234336,-0.00216933
-0.0212504,-0.0349189
0.130141,-0.0343643
0.074123,0.0415263
0.203046,0.0339951
0.657983,-0.0105775
0.794236,-0.0174168
0.655755,-0.00841871
-0.0323993,-0.0169375
-0.673083,0.0453651
-0.736232,0.0554996
-0.627118,-0.00956382
-0.390208,-0.0345592
-0.208389,-0.00498577
-0.0894682,0.04284
-0.0661642,0.0444296
-0.085375,0.0237335
-0.071593,4.64e-05
0.115052,-0.0303042
0.427877,-0.0357558
0.661395,-0.0587124
0.544901,0.00448836
0.0591945,0.0445932
-0.349286,0.0367086
-0.404489,0.012983
-0.222756,0.0484402
-0.0349135,-0.00671289
0.0565514,-0.0372908
0.126643,0.00549574
0.0525049,0.0264964
-0.0598182,0.0012094
0.0317843,-0.0080215
0.23474,-0.00373287
0.234428,-0.0534964
-0.0843553,-0.0847961
-0.265916,-0.058012
-0.252323,0.0208229
-0.193847,0.0885608
-0.184247,0.089472
-0.146077,0.0726721
-0.0162356,0.0209974
0.108223,-0.0848874
0.0999984,-0.116416
0.0498267,-0.0370813
0.0714597,0.00945571
0.196673,0.00684183
0.321826,0.0324437
0.211508,0.0545418
0.104211,-0.00580719
0.158581,-0.0223641
0.10371,-0.0247532
0.0964262,0.00459674
-0.164235,0.0476966
-0.359793,0.0685001
0.0624264,-0.021717
0.696624,-0.0920487
0.840721,-0.0739716
0.188097,0.0169701
-0.696552,0.0614084
-0.750954,0.0924453
-0.535499,0.0504455
-0.600563,0.00941399
-0.568435,-0.0223572
-0.0975976,-0.072335
0.270824,-0.0806424
0.39262,-0.0228647
0.301378,0.0858024
-0.0928033,0.0948713
-0.0885425,0.0216718
-0.0173929,-0.0553011
-0.212472,-0.083229
-0.199226,-0.0203268
0.209684,0.0111148
0.567769,-0.0253235
0.609227,-0.0950007
0.403629,-0.0539321
0.0803834,-0.0431993
-0.370675,0.0675561
-0.262221,0.0966978
-0.14642,0.049484
-0.286747,0.0292306
-0.18435,0.0281839
-0.107258,-0.0524763
-0.158171,-0.0461069
-0.206034,-0.0256941
-0.206838,-0.0151818
-0.101222,0.00392194
-0.0519985,0.00595517
-0.0446494,0.0286831
-0.0130334,0.0557175
0.183754,0.0597608
0.337128,0.0690319
0.303902,0.101926
0.135867,0.0330929
-0.04154,-0.0628796
0.000711265,-0.0849381
-0.00883037,-0.0969685
0.290427,-0.0752133
0.891223,-0.0181369
1.22276,0.0527915
1.13352,0.0501201
0.363982,0.00158149
-0.221226,-0.0386094
-0.604032,0.00105487
-1.26502,-0.00473738
-1.28403,0.0306589
-0.489374,0.0677668
-0.0641765,-0.0918718
-0.0884156,-0.0559293
-0.407459,-0.00494126
-0.303675,-0.050928
-0.0601328,-0.0438243
-0.0804573,0.00220532
-0.177985,0.0360788
-0.179555,0.0341849
-0.0752416,0.0229
-0.00821871,0.00755566
-0.008971,0.0501824
0.0146471,0.111686
0.106573,0.0810593
0.220862,-0.0133289
0.286059,-0.0565523
0.289631,-0.0563738
0.265982,-0.0406216
0.220649,-0.0134926
0.160198,0.0274099
0.142627,0.0321156
0.260232,0.0347303
0.411186,0.0135857
0.330776,-0.0267556
0.0282749,-0.0398184
-0.280327,0.00766305
-0.408845,0.00995094
-0.250105,0.0175697
-0.293854,0.0322739
-0.371621,0.0377571
-0.125354,-0.00549936
0.124559,0.0014464
0.639265,0.00411914
1.36128,-0.0221696
1.60857,-0.0208506
1.06097,-0.0691476
-0.672514,-0.1159
-1.71524,-0.132856
-1.12764,-0.103972
-0.883104,-0.036084
-0.686639,0.0088151
-0.267311,0.0513055
-0.0276578,0.0813089
-0.0579875,0.0961797
-0.137764,0.127385
-0.0936569,0.0741777
0.0653748,-0.0395374
0.282077,-0.0422773
0.469523,-0.0126493
0.411575,-0.0354743
-0.00972314,-0.020761
-0.228874,0.0693631
-0.23226,0.107628
0.152314,0.111719
0.754211,0.0361091
0.915942,-0.118494
0.598001,-0.11728
0.0184794,-0.0253173
-0.275779,0.072393
-0.263414,0.00503011
-0.576867,-0.170962
-0.794874,-0.0828648
-0.48027,0.0326242
-0.10674,0.00573729
0.0210321,-0.011422
-0.0612387,-0.0159034
-0.157298,0.00439383
-0.157169,0.11103
-0.0366999,0.210471
0.213622,0.150081
0.18315,-0.010258
0.0589364,-0.120035
0.163905,-0.131325
0.333878,-0.0593396
0.512744,-0.0325831
0.535289,-0.0376265
0.208469,0.00105831
-0.101459,0.0213866
-0.395995,0.0105468
-0.367046,-0.00506835
-0.0405422,-0.0254085
0.197196,-0.0334394
0.200958,-0.00214714
0.00120643,0.0282867
-0.188892,0.0337231
-0.275626,0.0110227
-0.214989,0.0156346
-0.100576,0.0320509
-0.107255,0.0361474
-0.110225,0.0374387
-0.0105748,0.0319384
0.127208,0.0193398
0.183956,0.00661038
0.186282,-0.0247162
0.093727,-0.0182789
-0.156133,-0.0069049
-0.0868057,-0.0230953
0.093106,0.0189198
0.0822885,0.00960388
0.139139,-0.0669045
0.282221,-0.061963
0.344095,0.073268
0.252953,0.0323954
-0.0398837,-0.0179562
-0.318417,-0.014683
-0.354034,-0.0222368
-0.136217,-0.0490091
0.117255,-0.0504907
0.203557,-0.0351105
-0.0640187,-0.00147193
-0.398712,0.053594
-0.406909,0.0802433
-0.161069,0.0903666
0.000760773,0.0188385
-0.0196123,-0.0634345
-0.104543,-0.0335313
-0.0831331,0.0163325
0.0922832,0.0318161
0.122892,0.0639409
0.0290718,0.0941434
0.00573948,0.0106547
0.0432228,-0.113073
0.166764,-0.196664
0.294161,-0.119718
0.476432,-0.060994
0.438873,-0.0327727
0.0552327,0.00843559
-0.308701,0.0266067
-0.327122,0.0647044
-0.295422,0.0678036
-0.298247,0.0281016
-0.283721,0.00461013
-0.105352,-0.042078
0.112995,-0.0656903
0.475317,-0.00878416
0.68737,0.00379539
0.391092,-0.00827933
-0.138098,0.0283411
-0.264276,0.0985408
-0.216438,0.0823566
-0.476098,0.0492061
-0.408052,0.030922
-0.142202,0.0249814
-0.0899055,0.0157076
-0.0807507,0.00106711
-0.043855,-0.0105449
-0.00512213,-0.0147826
0.138804,-0.00563588
0.129015,-0.00717849
-0.0519402,-0.00236367
-0.139787,0.038697
-0.00313396,0.100272
0.191503,0.114067
0.246283,0.000460099
0.299531,-0.112466
0.231536,-0.0984312
0.154173,-0.0685158
0.297834,-0.04403
0.394473,-0.00053749
0.416808,0.0226475
0.118917,0.000540463
-0.522065,-0.0410167
-0.739194,-0.0375676
-0.523829,-0.0306135
-0.188195,-0.0313256
-0.0865927,-0.0169636
-0.109017,0.0164103
-0.129681,0.0155702
-0.0856964,0.0130718
0.00480799,0.00606136
0.0761569,-0.0146328
0.0853548,0.0125914
-0.00814236,0.0316444
0.0605613,-0.0338505
0.236014,-0.017266
0.460262,0.0550523
0.548837,0.0497956
0.395721,-0.00287368
0.0415248,0.0621338
-0.382965,0.0442387
-0.416544,-0.0256126
-0.227599,-0.0554346
-0.0679983,-0.048302
-0.0655751,-0.0467798
0.012383,-0.0309292
0.104471,-0.0063922
0.0607497,-0.0155323
-0.16568,-0.00200951
-0.227787,0.0100518
-0.110766,-0.0212655
-0.1088,-0.0166839
-0.138277,0.0263389
-0.00147353,0.0801066
0.302389,0.0570628
0.449953,-0.00035428
0.367545,-0.00321806
0.0847113,-0.0214081
-0.110627,0.00485284
-0.114543,0.0672773
-0.0535719,0.101704
-0.080681,0.0548948
-0.141197,-0.0153894
-0.187191,-0.0575212
-0.10053,-0.0478552
-0.127727,-0.0176625
-0.143855,-0.0385377
-0.00897359,-0.0611312
2.66e-05,-0.0175337
0.0369281,-0.00800526
0.0758933,-0.00431884
0.0835226,-0.00837827
0.0823803,-0.0290638
0.0761239,-0.00606045
0.153517,0.0177383
0.24922,0.0124971
0.29509,0.00188234
0.325372,-0.00364887
0.108735,0.00992695
-0.225962,0.0130156
-0.352973,0.016501
-0.308292,0.0349924
-0.20188,0.0488504
-0.219094,0.0199853
-0.187567,-0.0118725
-0.112441,-0.000762754
-0.0114868,-0.0356453
0.0892558,-0.121258
0.212544,-0.0269055
0.227637,0.0521573
0.184488,0.00315618
0.0339548,-0.0197962
-0.0628968,0.00280412
-0.0129255,0.026515
-0.00164361,0.0129688
0.212409,-0.00430345
0.394368,-0.00652389
0.255513,0.0185127
-0.238703,0.041732
-0.475301,0.0597443
-0.270286,0.0478579
0.135794,-0.00610233
0.216576,-0.0365608
0.0690295,-0.0225714
-0.309049,0.00585362
-0.40375,0.0169354
-0.178567,0.0057564
-0.0305714,-0.0292972
-0.0230416,-0.0327075
0.0123763,-0.0684419
0.00066903,-0.0249914
0.00553035,0.0024265
0.0691418,0.0155424
0.0925314,0.0239459
0.0755699,-0.00158075
-0.0233654,-0.048324
-0.0960763,0.00776224
-0.0157462,0.0417394
0.205886,0.0220908
0.306117,0.0210659
0.284047,0.0164902
0.0670692,-0.00574835
-0.135992,0.0171924
-0.0697729,0.0342151
0.0422748,-0.0343555
0.0765353,-0.0549896
0.0108749,-0.0328192
-0.0692512,-0.0211479
-0.10941,-0.00574477
-0.11507,-0.00698297
-0.0434847,-0.00763489
0.018104,0.0072611
-0.106043,0.033319
-0.18294,-0.00200784
-0.0427527,-0.0361511
0.0815065,0.0307007
0.15214,0.0160532
0.164791,0.00202979
0.136202,0.0117793
-0.0176826,0.0223609
-0.146224,0.00922946
-0.0719548,-0.022236
-0.0372846,-0.00820316
-0.0284262,0.0408114
-0.0129373,0.0254616
-0.0281069,-0.0253025
-0.0495134,-0.0385368
-0.110843,0.0100246
-0.0773731,0.0572558
0.102025,0.0423219
0.233995,0.0128323
0.465127,-0.0216138
0.553656,-0.0126417
0.34517,0.0213818
0.0762916,0.0162027
-0.195212,-0.00632817
-0.516392,-0.0100053
-0.533832,-0.0604519
-0.270763,-0.0762985
-0.0886959,-0.0560214
-0.0544604,-0.038511
-0.11186,-0.0148698
-0.152623,-0.0319141
-0.140629,-0.016892
-0.0913103,0.046777
-0.0184651,0.0981547
0.0622045,0.0558351
0.118259,0.0226828
0.0473817,0.0257442
-0.0103787,0.0228949
0.0907977,0.0109827
0.209854,-0.00171339
0.196938,-0.0183046
0.0546784,-0.0123689
-0.0688746,-0.0406296
-0.038789,-0.0335742
0.046844,-0.0322969
0.0690792,4.89e-05
0.0902298,0.0235385
0.192352,0.018194
0.213689,0.030658
0.10666,0.0382193
-0.0990808,0.0147982
-0.315158,0.0111047
-0.322779,-0.00309638
-0.141251,-0.0133491
0.0306554,-0.0285254
0.13676,-0.00670874
0.183588,0.0175667
0.172977,0.00990037
0.10717,-0.0182857
0.0150749,-0.0169045
-0.0137223,0.00345474
-0.10903,-0.0122514
-0.21282,-0.00997541
-0.0441789,-0.0307508
0.14476,-0.0494527
0.0998002,-0.057071
-0.133591,0.0203833
-0.328683,0.0435198
-0.292194,0.0425724
-0.158003,0.0526025
-0.0818017,0.0546286
0.0383999,0.06906
0.251433,0.0539169
0.283017,-0.0247728
0.155574,-0.108154
0.04689,-0.100148
0.103153,-0.0294997
0.250152,-0.0130514
0.33037,-0.0309655
0.0745739,-0.00160507
-0.167366,0.0246484
-0.0463234,-0.00263982
-0.0729453,-0.0105963
-0.16636,0.00439381
-0.240293,0.0148976
-0.359077,0.0218749
-0.276434,0.0221174
-0.0871931,0.0261243
0.0350607,0.0148776
0.126949,0.0238174
0.224346,0.0100912
0.338763,-0.0197577
0.278118,0.015732
0.033362,0.0177123
-0.166663,0.0167937
-0.266336,-0.0242529
-0.257585,-0.0942268
-0.189606,-0.0157804
-0.0279411,0.024218
0.112693,0.0205783
0.139312,0.037926
0.0781268,0.0643862
0.162817,0.0428664
0.367109,0.0145173
0.253892,-0.0221066
0.117606,-0.0687759
-0.021931,-0.0820575
-0.366896,-0.0698765
-0.447203,-0.018352
-0.348054,0.0190099
-0.192,0.0131364
-0.0609656,0.00984187
0.027395,0.00378464
0.0768263,-0.000136035
0.0417953,0.025279
0.0899226,0.110639
0.301904,0.104922
0.367129,0.0369153
0.257227,-0.0745388
0.0499202,-0.0769838
-0.166925,-0.0475898
-0.193643,-0.0269191
-0.038332,-0.0725834
0.132624,-0.0998919
0.0784733,-0.0332848
-0.133331,0.030927
-0.179039,0.0673683
-0.171062,0.0335385
-0.112754,0.0227572
-0.0693505,0.0394213
-0.0819988,0.0254819
0.0613203,-0.00773346
0.406035,-0.00423961
0.630509,0.012011
0.436031,0.0381818
-0.170867,0.056209
-0.681322,0.0386227
-0.556531,0.0241665
-0.269455,-0.000348716
-0.041004,-0.0367873
0.171166,-0.0259875
0.242772,-0.0214672
0.15688,-0.0268153
-0.0184409,-0.0370379
-0.0578858,-0.0316065
0.0735215,0.00147801
0.108036,0.0132381
0.0666548,0.0122556
-0.0482974,-0.0245984
-0.19229,-0.0602471
-0.0701839,-0.00308731
0.0727607,0.0377261
0.109023,0.0272951
0.14334,0.0368618
0.198163,0.0345042
0.189369,-0.00988082
0.0559873,-0.0224954
-0.173837,0.0536991
-0.219494,0.00904392
-0.0733741,-0.0610542
-0.0772945,-0.0560183
-0.177022,-0.0264434
-0.105809,0.0173838
-0.00342804,0.0490861
-0.0144843,0.0246177
-0.0703332,-0.0028183
-0.113472,-0.00738562
-0.0504182,0.00627168
0.0235964,0.0168612
0.0646834,0.0113305
0.106453,0.00658002
0.167566,0.00550139
0.22229,0.00280876
0.230314,-0.0133837
0.122187,-0.0255977
-0.0299581,-0.0199268
-0.0189329,0.0069306
0.0723903,0.00859317
0.15354,-0.00694783
0.000274736,-0.000689711
-0.248771,-3.95e-05
-0.206891,-0.0115455
-0.172259,-0.0176484
-0.162621,-0.0158709
-0.130199,-0.00782444
-0.100823,0.00348881
-0.0488927,-0.0287246
-0.0515058,-0.0011132
-0.0593159,0.020059
0.0104148,0.0142815
0.140239,-0.000665343
0.189685,0.0401144
0.147224,0.0535278
0.062019,0.0189732
0.00253911,-0.0170903
-0.0384209,-0.00716125
-0.0128133,0.0107974
0.021977,-0.0223174
0.00501902,-0.0180917
-0.0289635,-0.0289821
-0.0218816,-0.0393535
0.0230838,-0.0207046
0.112596,0.000174876
0.174012,0.0209978
0.0834166,0.028463
-0.0577302,0.0470959
-0.121292,0.0829081
-0.118716,0.0262393
-0.0557897,-0.0621522
-0.042339,-0.0668487
-0.0790205,-0.0358051
-0.0266939,-0.0508099
0.0689629,-0.0357998
0.115443,0.0145858
0.126625,-0.00503498
0.108317,-0.00826738
0.0765884,0.0111045
0.132441,-0.0152228
0.103506,-0.0246091
0.0249802,-0.000813281
-0.0423272,0.0338218
-0.21376,0.0140497
-0.337184,0.00979689
-0.142502,-0.0106094
0.00987479,-0.0425611
0.00661659,0.0207172
0.0464955,0.0301535
0.0646964,0.108332
0.101774,0.145943
0.0223207,0.0626758
-0.132676,-0.0228875
-0.10131,-0.0526248
-0.0216941,-0.0558608
0.0310324,-0.0518336
-0.0480481,-0.0183346
-0.206483,0.0274941
-0.164633,0.0186022
-0.0711694,-0.00648347
0.0312634,-0.0437693
0.237943,-0.0431024
0.428438,0.00136544
0.387826,0.0196233
0.136432,0.0127977
-0.104076,0.00132172
-0.126034,0.0109531
-0.136889,0.0029683
-0.173293,-0.0327493
-0.15886,-0.0376598
-0.0934424,-0.0338829
0.0825349,-0.0359508
0.151842,0.00731527
0.113916,-0.00658478
-0.0605574,0.000185651
-0.211005,0.0563998
-0.163819,0.0663338
-0.10931,0.0360043
-0.0313933,0.0051812
0.0160529,-0.00684048
0.0312381,-0.00831396
0.0261075,-0.000334154
0.0195562,0.0117509
0.0127155,-0.00350312
0.0244759,-0.0235802
0.0629034,-0.0418734
0.151746,-0.0531886
0.276044,0.0052237
0.218901,0.00944579
0.0234766,-0.00150747
-0.24147,0.0226341
-0.202113,0.0342308
0.211397,0.0341588
0.330245,0.0161772
0.0559811,-0.0490596
-0.330352,-0.0704841
-0.427746,0.0310555
-0.035089,0.0332946
0.378788,0.00937995
0.455006,0.0175217
0.387823,0.0197923
-0.112866,0.0137943
-0.471443,0.0184726
-0.317924,-0.000698892
-0.265331,-0.0190495
-0.18589,-0.0265649
0.0664762,-0.026948
0.236014,-0.0172488
0.151623,0.0307681
-0.0745327,0.00831852
-0.124675,0.021248
-0.184191,0.024224
-0.104325,-0.0143443
-0.0126675,-0.0394917
-0.0688912,-0.0252512
-0.0610194,-0.0231636
0.0393271,-0.0317151
0.0763428,-0.0100197
0.0822885,0.0150461
0.156746,0.0301332
0.127639,0.0408183
0.0130675,0.0215897
-0.0265883,0.00379597
-0.0884342,0.00181286
-0.0451834,-0.00980544
-0.0234584,-0.0112018
-0.0453649,-0.00517239
-0.0305305,-0.00798054
-0.0121685,-0.00400603
0.108759,0.00731966
0.308102,0.00638274
0.370147,-0.00913112
0.227378,-0.00944816
-0.0636131,0.000336514
-0.203591,-0.0493019
-0.126013,-0.105267
-0.0334994,-0.0462525
-0.139381,0.0442802
-0.310914,0.0681302
-0.208318,0.0538692
0.0110021,0.0561334
0.0787908,0.0383011
0.0594806,0.0299218
-0.00863852,-0.00152776
-0.0367296,-0.0439175
0.00569211,-0.0465674
0.10481,-0.0359407
0.17851,0.00515349
0.126905,0.0389758
0.0136858,0.023842
-0.107918,-0.0213445
-0.105983,-0.029303
-0.00495526,-0.0145395
0.0520459,0.000561827
0.130087,-0.00442075
0.129164,-0.0126468
0.10606,-0.00475616
-0.227714,0.00532479
-0.250108,0.0190824
-0.182807,0.0261671
-0.1029,0.0132618
0.0876843,0.0326271
0.224113,0.0480712
0.164316,0.0205187
-0.0447981,-0.0349389
-0.209805,-0.0490802
-0.0297431,-0.0195135
0.508124,0.00255902
0.934231,-0.00419665
0.855899,-0.00507269
0.196794,-0.0169264
-0.566345,-0.00541369
-1.12408,0.0298163
-0.904345,0.0353181
-0.37368,0.00299663
-0.17095,-0.0153278
-0.0957037,-0.011786
-0.00617202,-0.00294686
0.0649237,-0.0294651
0.133676,-0.0191779
0.133606,-0.019003
0.110197,-0.0266641
0.119748,0.0197438
0.00214936,0.0339415
-0.138403,0.0348447
-0.0418198,0.0745084
0.059081,0.0906161
0.0700835,0.0452679
0.0861049,-0.00167751
0.0994851,-0.072563
0.0676888,-0.163215
0.00623446,-0.15264
-0.0015035,-0.00842187
0.0306291,0.0188093
0.0483358,0.0267259
0.0466787,0.0275972
0.0323418,0.0402984
-0.00918084,0.0288466
-0.0257866,0.0166704
0.177834,0.0192688
0.4798,0.0187619
0.602568,0.00702529
0.496982,-0.00479418
-0.0112278,-0.00871918
-0.554312,-0.0260234
-0.619847,0.00878752
-0.526092,-7.29e-05
-0.258924,0.0240761
-0.052581,0.0386759
0.0115609,-0.00527081
0.00664321,-0.0422147
-0.0138207,-0.0167354
-0.0314036,0.0667631
-0.0739502,0.0734409
-0.092669,0.00884764
-0.0708945,-0.0343977
-0.0376248,-0.0471736
0.037181,-0.0368561
0.105449,-0.0191468
0.234086,-0.022477
0.3556,-0.0195868
0.23885,-0.0148525
0.000998659,-0.0346496
-0.196082,0.0040363
-0.232866,0.0285505
-0.0217219,0.0315596
0.182086,0.0384591
0.305012,0.0329671
0.400539,0.000231522
0.370604,-0.0272471
0.0816903,-0.0497273
-0.490254,-0.00338315
-0.733432,0.0051085
-0.447501,0.0203695
-0.190611,0.0195852
-0.120739,0.00659751
-0.05219,-0.00226532
0.0388248,-0.00773135
0.149255,-0.00246974
0.188263,0.00142881
0.0881224,0.00309301
-0.00987842,0.00193951
0.018999,0.0050665
0.108176,0.00277559
0.167647,-0.00227459
0.164589,0.0255348
0.0697122,0.00730493
-0.0260275,-0.0589795
-0.1147,-0.0177185
-0.163371,0.0299672
-0.161878,0.0185433
-0.1159,0.00121437
-0.0191395,-0.00668394
0.0449351,-0.00343247
0.0592806,-0.0104375
0.106681,-0.0115733
0.205737,-0.0186686
0.339018,-0.0225833
0.421476,0.0295232
0.404699,0.0316583
0.2428,0.0376072
-0.110928,0.0214887
-0.443295,-0.0258049
-0.421805,-0.0316867
-0.211419,-0.0466494
-0.0843056,-0.0343286
-0.117542,-0.000135728
-0.218079,0.0199467
-0.299205,0.0173165
-0.226519,0.0178398
-0.0868889,0.0081623
0.0289553,-0.00346855
0.0913541,-0.00120504
0.11551,0.01356
0.151097,0.00841397
0.168904,-0.0222774
0.257563,-0.0271337
0.300268,-0.024691
0.275044,-0.0344002
0.141763,-0.0998198
-0.0328076,0.0697789
-0.183971,0.207375
-0.409203,0.082117
-0.237135,-0.0322658
-0.0236808,-0.0513704
-0.0419942,-0.0469509
-0.100713,-0.0483868
-0.139243,-0.0472588
-0.0618891,-0.0316614
0.0531845,0.00363985
0.10178,0.0267085
0.208174,0.0170357
0.303769,0.00192713
0.251293,-0.0122449
0.0900152,0.00797717
0.0658967,0.0513791
0.0649387,0.0336072
-0.0213496,-0.040061
-0.251814,-0.0507043
-0.399906,-0.0131662
-0.314734,0.037442
-0.146298,0.0425582
-0.0803326,0.0306927
-0.073873,0.0155258
-0.00370847,0.00440178
0.06932,-0.00543744
0.171908,0.00290295
0.226036,0.00392112
0.21081,-0.0189757
0.149485,-0.0227039
-0.0735567,0.0156754
-0.175545,0.0259697
-0.105537,0.0189663
-0.0210285,-0.00506704
0.166843,-0.0314996
0.338048,-0.0274452
0.320655,-0.000377375
0.0622154,0.0176878
-0.222309,0.0131456
-0.277449,-0.0114705
-0.0667592,-0.0446218
0.0516735,0.00651813
0.0680536,0.0143786
0.03923,-0.0133755
-0.126449,-0.0237952
-0.203697,-0.00956407
-0.166187,-0.0150756
-0.130641,0.0123142
-0.124827,0.0395035
-0.0383489,0.0429468
-0.00162669,-0.0030793
0.0901348,-0.0229754
0.191985,-0.0185865
0.188969,-0.00900339
0.1193,-0.00270341
0.0909488,0.0132469
0.112238,0.0214567
0.0762265,0.00694132
-0.127691,-0.00165564
-0.261235,-0.00647793
-0.132878,-0.00154403
-0.0633493,0.00573622
-0.0275688,0.00666946
0.0701783,-0.0143566
0.0720185,-0.01305
-0.0571344,-0.00204916
-0.105889,0.0125201
-0.0278292,-0.0054417
0.235477,-0.0256904
0.633338,-0.0318361
0.757423,-0.034265
0.426836,-0.00131281
-0.290689,0.0136286
-0.633118,0.0405167
-0.594764,0.0464658
-0.483051,0.0184495
-0.228165,-0.00153335
0.10831,-0.0105186
0.241531,-0.0381474
0.0972954,-0.0483936
-0.107147,-0.0261697
-0.259532,-0.00970216
-0.189042,-0.00581731
-0.0792006,0.0234003
-0.0436849,0.0391686
-0.00495413,0.0244306
0.0426252,0.0177158
0.0808345,0.00455317
0.0906573,-0.0093182
0.0840081,0.00235065
0.136342,0.0485133
0.241613,0.0281369
0.309474,-0.006949
0.254619,-0.0160704
0.0675231,-0.0635077
-0.109913,-0.0794791
-0.203917,-0.0152676
-0.163429,0.0366741
-0.0720454,0.0283002
-0.0218733,0.0141249
-0.0596207,0.00934921
-0.0677463,0.00690928
-0.040002,0.00572052
-0.0776369,0.00815848
-0.0675453,0.00102911
-0.0167138,0.0231141
0.0533458,0.0434251
0.235975,0.0221202
0.441107,0.0169491
0.489951,0.0239826
0.309033,0.0403721
-0.0437634,0.0437397
-0.424892,-0.0244505
-0.458465,-0.0599569
-0.237153,-0.0666165
-0.0408157,-0.0455654
0.0288722,-0.0332718
-0.0231198,-0.0480475
-0.155784,-0.0365105
-0.238123,-0.00843957
-0.170596,0.0111369
-0.0646578,-0.0105433
-0.00281921,0.00135631
0.0343679,-0.000123398
0.0617323,0.00688838
0.0272112,0.00683472
0.041953,0.0193163
0.108385,-0.0015112
0.189443,-0.0432289
0.216945,-0.0390693
0.0756333,-0.00208047
-0.0782117,-0.00120206
-0.0712588,-0.00709273
0.221407,0.082807
0.504335,0.0634709
0.472107,0.0168666
0.0651532,0.018379
-0.511413,0.024868
-0.704362,0.0152982
-0.446746,0.0115336
-0.120515,-0.00525641
0.0728108,-0.0151521
0.272342,0.0129093
0.297594,0.015771
0.0561227,0.0304824
-0.154231,0.00207812
-0.272289,-0.014634
-0.233448,-0.0183308
-0.12051,-0.00224145
-0.0393854,0.0077323
0.031827,-0.0138116
0.0727349,-0.0192753
0.116907,0.00460055
0.272274,0.00455392
0.431562,-0.0246536
0.440972,-0.0251695
0.119334,0.00215176
-0.244162,0.00624156
-0.357464,0.0146228
-0.331778,0.0104044
-0.216521,-0.00395984
0.00681097,-0.0255764
0.183081,-0.0252056
0.342771,-0.0134187
0.29637,-0.0157182
0.0345807,-0.00726381
-0.199888,0.0059665
-0.247744,0.0131721
-0.17211,0.0122891
-0.13151,0.0139556
0.00761615,0.0226903
0.0933707,0.0376146
0.00809518,0.0444169
-0.0794079,0.0181447
-0.110231,-0.0414111
-0.0161656,-0.0622579
0.102388,-0.0299327
0.132913,-0.0493361
0.0879267,-0.0542829
-0.0178816,-0.0145659
-0.0230963,0.0359052
-0.0133886,0.0202843
-0.0659409,-0.0375993
-0.0437859,-0.0199718
-0.00514254,-0.00265492
-0.0252504,-0.00678315
-0.0266457,0.0189239
-0.00410819,0.0112962
0.0346571,0.0316226
0.01471,0.021401
-0.0130735,0.0118776
0.0431348,0.0387796
0.225152,0.0849418
0.251195,0.0851359
0.0495304,0.0190166
-0.0920038,-0.00133071
-0.176641,0.00294837
-0.127035,-0.0138046
-0.076802,-0.0410542
-0.108172,-0.0518663
-0.0161386,-0.0398581
0.254092,-0.0257873
0.3922,-0.00773464
0.335552,0.0129491
0.10122,0.00814738
-0.111527,-0.0254027
-0.208132,-0.028203
-0.139263,-0.014771
-0.13144,-0.0322478
-0.241326,-0.0399114
-0.256595,-0.0367498
-0.0803726,0.0365858
0.0393405,0.0456416
0.0536192,0.0321411
-0.0363788,0.0271874
-0.149603,0.021523
-0.0890101,0.0171048
-0.00459629,-0.00179287
-0.0111827,0.0120707
-0.0110724,0.0152236
0.00712727,0.00810359
-0.00370955,0.00811741
0.00373598,0.00812018
0.0280647,-0.00642024
0.061438,-0.0479523
0.10141,-0.108754
0.183233,-0.0999157
0.216776,0.0226751
0.213805,0.0637811
0.120215,0.0215506
-0.0941307,0.0147246
-0.170441,0.0355172
-0.013417,0.0215077
0.112038,-0.0123062
0.0839711,-0.0180966
-0.14175,0.0159043
-0.288007,0.0446313
-0.124,0.0182856
0.140779,0.0537772
0.305962,0.0889534
0.254885,0.0367475
0.0151803,-0.0175253
-0.278304,-0.066724
-0.304348,-0.0922343
-0.143461,-0.0739265
-0.0501256,-0.0248763
-0.0647625,0.00748293
-0.0367393,0.0119759
-0.00230274,0.00753651
-0.0114613,0.0187292
0.0114107,0.0174787
0.125325,-0.00176177
0.259665,-0.00961742
0.386616,-0.00538065
0.25984,-0.00983433
-0.0590866,0.0010307
-0.216327,0.00885231
-0.333175,0.00709336
-0.240661,0.0338397
-0.0571671,0.0133694
0.004138,-0.00238929
0.0289868,-0.0169141
0.0839863,-0.0087317
0.142676,0.000534668
0.140013,0.0054502
0.0664879,0.00186291
-0.0771875,-0.00778182
-0.144997,-0.00889094
-0.0857916,0.00743065
-0.0117188,0.012733
0.0238204,0.00453286
0.0199336,-0.0442111
-0.0708523,-0.105195
-0.176172,-0.0438893
-0.0891709,0.00629163
0.0783614,0.0229803
0.124656,0.0497322
0.0793614,0.0198872
0.168418,-0.00946061
0.183185,0.0125316
0.107144,0.0192677
0.165788,0.0151473
0.146056,0.0166524
0.0665825,0.0151516
-0.209572,0.0180813
-0.523734,0.00564142
-0.407818,0.00349088
-0.182583,0.00765647
-0.0802752,0.00379
-0.0487701,0.000426616
0.0196948,-0.000506187
0.0910817,0.0155799
0.120219,0.0342552
0.153542,0.0345153
0.147322,0.00501637
0.11367,-0.032163
0.124671,-0.0736572
0.100969,-0.0477171
0.0979529,0.0169739
0.190243,-0.015294
0.079747,-0.0109112
-0.148962,-0.00452833
-0.0889917,-0.0135127
0.0339316,-0.00678552
-0.0815586,0.000654256
-0.25669,0.0329752
-0.274849,0.0283671
-0.218274,0.00609732
-0.0433311,-0.0125609
0.179067,-0.0113157
0.322534,0.0103987
0.33877,0.0303238
0.242714,0.0223319
0.0161073,0.00286084
-0.131783,-0.0126996
-0.0266655,-0.000679386
0.0874975,0.010624
0.0850149,0.00418383
-0.0184225,-0.0146272
-0.24859,-0.0840694
-0.318962,-0.100632
-0.288568,-0.0794404
-0.247298,-0.00757356
-0.101024,0.0221169
0.0489973,0.0554309
0.0801829,0.0378703
0.0428509,0.00644926
-0.0194987,-0.00786645
-0.0362006,-0.00179222
0.0150355,0.0540848
0.11604,0.058982
0.217235,0.0444716
0.189025,0.0233315
0.104587,-0.00104123
0.1129,0.000384729
0.189029,0.0123501
0.183291,0.00881409
-0.053954,0.0160931
-0.321831,0.0181005
-0.221103,0.0203162
-0.0235714,-0.00329462
0.0260567,-0.0375444
0.00528808,-0.0527908
0.0785212,-0.0393807
0.151635,-0.0115101
0.131599,0.00357266
-0.0379847,0.0181846
-0.328669,0.00758767
-0.353257,-0.0185392
-0.181012,-0.00187646
-0.0563882,-0.025735
0.0546442,0.0158341
0.134391,0.0346457
0.231215,-0.0237608
0.325909,-0.0271548
0.351901,0.0241597
0.239345,0.0432807
-0.0510319,-0.0146643
-0.243157,-0.0458505
-0.227136,-0.0175341
-0.187479,0.0212647
-0.165602,0.0263719
-0.104699,-0.0020472
-0.0304909,-0.0173124
0.0494349,-0.00596393
0.14282,-0.000809768
0.200526,-0.0103047
0.208164,-0.00914975
0.0807736,-0.00688012
-0.145255,0.00657259
-0.279387,0.0249525
-0.233339,0.00294296
-0.0883268,-0.0502031
0.0400246,-0.0641985
0.0533086,-0.0154196
0.0354743,0.0176838
0.0378801,0.0253405
0.0542554,0.0260727
0.134737,-0.0120386
0.221964,-0.0103371
0.24961,0.0627307
0.0304614,0.048077
-0.3153,0.0127562
-0.389533,9.67e-05
-0.124052,-0.0130433
0.146351,-0.0212561
0.190342,-0.0130493
0.112009,0.00459838
0.0574318,0.0127755
-0.0780508,0.00857686
-0.17643,0.0177072
-0.120237,0.0170667
-0.0603003,0.00894204
-0.0084224,0.00307368
0.0420421,-0.0144307
0.0362082,0.00454746
-0.029562,0.000311454
-0.0744576,0.0155387
0.0311625,0.00653711
0.194121,-0.0260106
0.240688,-0.0489718
0.117238,-0.0173074
0.0377396,0.0233165
-0.0792264,0.0156644
-0.243641,0.0028137
-0.208687,0.00603502
-0.0317102,-0.00413972
0.0483846,-0.0161231
0.202368,-0.0130725
0.287734,0.00219544
0.114201,0.0159367
-0.0798324,0.00963227
-0.191116,-0.00326114
-0.0934405,-0.00679605
0.0698975,-0.0107565
0.042438,-0.0237908
-0.126288,-0.0177324
-0.266008,-0.00455472
-0.183607,-0.00663019
0.0226282,-0.023011
0.100216,-0.00600879
0.0442614,0.0115583
0.0934188,0.0125618
0.0874152,0.036266
-0.00108518,0.0398785
-0.0437651,0.0188826
-0.017348,-0.0234334
-0.00756207,-0.0174736
-0.049447,0.018599
-0.073445,0.0226928
-0.048195,0.00885852
0.00322987,-0.0110677
0.0135044,-0.0168004
0.0222099,-0.0368057
0.0314316,-0.0344465
0.0379285,0.0135528
0.0594461,0.0267903
0.0868858,-0.0108706
0.095636,0.00255784
0.100535,0.00698385
0.0930469,0.0170243
0.0489743,0.00394809
-0.00600514,-0.0212912
-0.0445794,-0.0282027
-0.0912119,-0.0165835
-0.120451,0.0047815
-0.122615,-0.0171724
-0.111762,0.0506558
-0.0555287,0.0108091
0.00673167,0.00101811
0.0698343,0.0269201
0.0553773,-0.0181244
-0.00881993,-0.0297127
0.0205228,-0.0134242
0.0593758,-0.00379845
0.0295582,0.0031086
0.0669029,0.0154744
0.249245,0.0129899
0.361026,0.00192164
0.297386,-0.00894466
0.105474,-0.0130385
-0.200824,0.00510552
-0.404185,0.0360042
-0.346444,0.0264797
-0.141622,0.0123199
0.0127689,-0.0100662
0.0277183,-0.0326296
-0.0724468,-0.00320933
-0.256126,0.0108175
-0.29903,0.0044508
-0.143657,0.00153338
-0.0134179,0.00158196
0.0908939,0.0034725
0.302832,0.0164702
0.397708,0.00340458
0.301807,-0.00779934
0.166116,0.00256543
-0.0154196,-0.0132212
-0.0828051,-0.046736
-0.103263,-0.0706
-0.178524,-0.0760921
-0.201338,-0.0195877
-0.134308,0.0399838
-0.0602115,0.0595901
-0.094349,0.045675
-0.0767263,0.0334079
0.271746,0.062306
0.497696,0.0606218
0.294667,0.011678
-0.0119324,-0.00855206
-0.275355,-0.0367531
-0.255509,-0.060306
-0.109102,-0.0198563
-0.13056,0.00460004
-0.0922151,-0.0164971
-0.0810271,-0.0335664
-0.12715,-0.0170291
-0.0044091,0.00150801
0.0636051,-0.0426956
0.0129623,0.0357818
0.0338582,0.0688714
0.0579108,0.0115269
0.0204897,-0.00468936
0.0197613,0.00919072
0.0381686,-0.00164349
0.0451009,0.0349467
0.0502726,0.0366998
0.0649408,0.0223687
0.00883106,0.00440554
-0.0682478,-0.0428905
-0.0521491,-0.0758281
0.0345879,-0.0455422
0.131955,0.00798533
0.174775,0.0286568
0.171218,0.0288393
0.102096,-0.000133533
0.009279,-0.000499416
-0.0816172,-0.0102976
-0.143438,-0.0282849
-0.106793,-0.0489253
-0.0133385,-0.0381684
0.0298325,0.0175551
0.0031962,0.0172055
-0.0548341,-0.00416937
-0.0175805,-0.0225984
0.0305898,0.0165724
0.086518,0.0367686
0.120466,0.0245275
0.087938,0.03229
-0.0405248,0.0451957
-0.137454,0.0713752
-0.0789466,0.0889509
-0.0268427,0.0561005
-0.0732354,-0.0339537
-0.0697422,-0.0969962
-0.0348288,-0.0901828
-0.107074,-0.0493927
-0.124139,-0.0121421
-0.0320142,-0.000705656
0.0855647,-0.0228727
0.133863,-0.0353236
0.0778191,-0.0156197
0.0090595,0.0119788
-0.039629,0.00988277
-0.0399688,0.0098364
-0.00103752,0.0195845
0.0082301,0.0184243
0.0104429,0.00865167
-0.017327,-0.00322505
-0.00228173,-0.0303104
0.0165563,-0.0187297
0.0127212,0.014586
0.0156176,-0.00834644
0.0155234,-0.0151146
0.0566675,0.0164837
0.0930625,0.0370856
0.0698388,0.0333436
0.0217992,-0.00899421
-0.103101,-0.0230007
-0.142066,-0.0119038
0.00434726,-0.0186875
0.112636,0.00922226
0.141202,0.0166437
0.0440591,0.00940725
-0.0803409,0.0198604
-0.0386815,0.0334558
0.0800763,0.0217748
0.183476,-0.0238513
0.127521,-0.0512147
-0.0830628,-0.0226153
-0.27288,0.0314301
-0.26113,0.0457917
-0.136559,0.0252174
-0.0736095,0.00466683
-0.0487484,-0.00144374
-0.0500293,-0.00112478
-0.0561193,0.0169619
-0.0760052,0.0230386
0.0343787,0.00196213
0.167823,-0.0644596
0.251501,-0.123253
0.257354,-0.0607745
0.0826295,0.00974591
-0.141086,0.0155295
-0.16581,0.00136127
-0.0526258,-0.0371779
0.0636342,-0.00470046
0.0465078,0.0675056
-0.0370779,0.0808187
-0.00364231,0.0404425
0.104777,-0.000246348
0.198531,-0.0319574
0.198356,-0.0483321
0.0747211,-0.0197024
-0.191824,0.0119983
-0.336733,0.00869053
-0.204909,-0.00814242
-0.104095,0.0117859
-0.0890659,0.0464226
-0.025584,0.0308051
0.0799083,0.0111983
0.0814969,-0.0131725
0.0623087,-0.0266832
0.0830706,-0.00923408
0.148794,0.00876488
0.189004,0.00351092
0.120475,-0.0033893
-0.0431044,-0.000151988
-0.179036,0.00855902
-0.0274567,0.00178937
0.162612,-0.0072
0.174292,-0.00828267
0.0253362,0.00135259
-0.224413,0.0138268
-0.343459,0.0185327
-0.210707,0.00271296
-0.0998313,-0.00243621
-0.0256157,0.00780369
0.0738863,0.000199258
0.179123,-0.0174641
0.119062,-0.0181203
-0.0156791,0.00863555
0.0243979,0.0460453
0.138486,0.0576637
0.113461,-0.00990257
0.00205848,-0.084309
-0.163008,-0.0553337
-0.192576,-0.022186
-0.0811026,0.0146029
0.0659802,0.0153362
0.198194,0.0127221
0.164937,0.00262601
0.112392,-0.0120672
0.00973982,-0.00490596
-0.101583,0.00545763
-0.127331,-0.00312611
-0.171846,-0.0273911
-0.124016,-0.0472639
-0.041783,-0.0256893
0.00888972,0.022122
0.0502127,0.0529008
0.0743372,0.0466233
0.0693019,-0.00710125
0.00448299,-0.0746737
-0.0441703,-0.0263925
-0.0149756,0.0409779
0.0168883,0.0643964
0.0413124,0.0709973
0.0856642,0.026639
0.139624,-0.0257102
0.194069,-0.0457424
0.14317,-0.0453379
0.159716,-0.0391173
0.0356052,-0.0117457
-0.281347,-0.0143026
-0.337658,0.00253907
-0.139172,0.0669531
-0.0252058,0.0674113
0.0132885,0.0319244
0.0616736,0.00836936
0.0915423,-0.0145116
-0.0206966,-0.0314652
-0.101231,-0.0325562
-0.154532,-0.0125722
-0.204519,0.00770742
-0.131442,0.0189846
-0.0484408,0.016346
-0.0208603,0.00559472
-0.00917243,0.0106117
0.0335701,-0.00607095
0.0820151,-0.0229896
0.0546703,-0.0105524
0.0498545,-0.022256
0.0998968,-0.0517966
0.144888,-0.00719798
0.0961745,0.0352839
0.0537961,0.0127131
0.146908,-0.0624445
0.316026,-0.0419876
0.304015,0.048856
0.107199,0.0471055
-0.145043,0.0223513
-0.244532,-0.00727518
-0.00163788,-0.0920236
0.0609834,-0.0959455
-0.156159,0.0136845
-0.237721,0.0423409
-0.207797,0.0355603
-0.15373,0.0278094
-0.0841167,0.026593
-0.0273966,0.0239924
-0.0165544,0.016978
-0.0129035,0.0118079
-0.00863513,0.0120424
-0.0121804,0.0177042
0.00446061,0.0188486
0.0112436,0.0173326
0.00474276,-0.00256039
0.0199555,-0.0195146
0.0256722,0.00902891
0.0509119,0.0216051
0.0942939,0.0170084
0.121891,-0.00896512
0.158031,-0.0207681
0.122745,-0.00843399
0.108857,0.00701364
0.0707662,0.0025737
-0.0839939,-0.0117871
-0.153954,-0.00135987
-0.140024,0.00395441
-0.157473,0.0097132
-0.140915,-0.00374902
-0.0261461,-0.0198775
0.0912837,-0.0312735
0.163248,-0.0257967
0.190215,-0.00971308
0.170401,-0.00705933
0.133747,-0.0492101
0.132779,-0.0578031
0.154081,0.0213515
0.132028,0.0231661
-0.051407,0.0167469
-0.390888,0.0235923
-0.434357,0.0387366
-0.244503,0.043647
-0.0986989,0.0135233
0.0703424,-0.0285582
0.0865451,-0.0159945
-0.0548318,0.0160704
-0.105101,0.00489612
-0.0158293,-0.00829423
0.0570248,-0.0033531
0.0423739,0.0206527
0.0092832,0.0211933
-0.0365448,-0.00735147
-0.0407485,-0.0936454
-0.0617024,-0.0639748
-0.0325999,0.0113628
0.0469803,0.023477
0.108348,0.0212269
0.130258,0.02695
0.102544,-0.0157599
0.00624801,-0.053372
-0.0666331,-0.00691041
-0.0407281,0.0204271
-0.0122408,0.0221631
-0.0417729,0.0413715
-0.0496658,0.052842
-0.0101544,0.0335809
0.0556544,0.0023155
0.0916841,-0.00799002
0.105407,-0.0172687
0.140242,-0.0211915
0.0886447,-0.0140637
-0.0129226,-0.00776608
-0.0388647,-0.00727487
-0.0645513,-0.00106858
-0.0415402,0.00684708
0.0447928,0.0141021
0.0621158,0.00681716
0.036715,0.00119972
-0.00186689,0.0225534
-0.0787677,0.0350862
-0.0957232,0.0207344
-0.0652925,-0.0155484
-0.0687426,-0.037746
-0.0608624,-0.0164669
-0.0241866,-0.00871036
0.100098,-0.0280069
0.183091,-0.0280724
0.177433,-0.00584689
0.0802559,0.0161185
-0.104363,0.0130689
-0.15725,-0.0041927
-0.0653425,0.00443777
-0.079337,-0.0130891
-0.123024,-0.0113274
-0.0648412,0.00121748
0.0239739,-0.00925628
0.0258027,-0.0108049
0.0191627,0.00680168
0.0306704,0.0206107
0.0355045,0.0251895
-0.0124493,0.0106774
-0.0428185,-0.018315
0.0353819,-0.00898757
0.153711,0.0281238
0.196197,0.0283951
0.130178,0.0278463
-0.042957,0.031022
-0.177515,-0.000152842
-0.131606,0.00780598
0.00275135,0.0054879
0.100462,-0.0170568
0.123403,-0.0302569
0.0106771,-0.0628437
-0.161747,-0.0953167
-0.24363,-0.105514
-0.189341,-0.0583738
-0.118359,0.0340759
-0.0717191,0.0608199
0.000332698,0.0228547
0.0254756,0.0326553
0.0209653,0.0359225
0.00354829,0.0228675
0.04389,0.0151428
0.166515,0.012606
0.311523,0.0224463
0.385833,0.0171495
0.348404,-0.0049734
0.111678,-0.000202963
-0.0677075,0.0116838
-0.192243,0.0213867
-0.383063,0.0428571
-0.323014,0.0522997
-0.0840585,0.0134313
0.0416196,-0.00869533
-0.00910441,-0.0351161
-0.198932,-0.00591781
-0.169002,0.0106174
0.0427499,-0.0421747
0.142758,-0.0614831
0.247513,-0.0551542
0.280742,-0.0346783
0.152197,-0.0239963
-0.129099,-0.0270582
-0.335645,-0.0275404
-0.187412,-0.0776789
-0.0887908,0.0431124
-0.102757,0.0757491
0.0102176,0.13104
0.197506,0.096743
0.270911,0.0263688
0.234031,0.000425456
0.133802,0.0153958
-0.140892,-0.00808462
-0.275622,-0.0333647
-0.21239,-0.0350776
-0.12756,-0.0348118
-0.0228252,-0.038882
0.0838654,-0.039808
0.229623,0.0037994
0.277906,0.00180363
0.207961,-0.00221004
0.0206853,0.011531
-0.207137,0.0139631
-0.195437,0.0131171
-0.0758624,0.0109849
-0.0308918,0.000604345
0.0439946,0.00120423
0.0937526,0.00172564
0.112348,0.00103384
0.0886569,-0.00203952
0.00977045,0.000838737
-0.0699407,0.00418691
-0.0275525,0.00479677
0.054224,-0.00785003
0.0523375,-0.0223843
-0.0354131,-0.0233916
-0.180292,-0.0142502
-0.248393,0.00382882
-0.101537,0.00217553
0.0175782,-0.0198462
-0.00611535,-0.0465345
-0.0342488,-0.00550625
-0.0274017,0.0440195
0.00517819,0.0439466
0.0427971,0.0187691
0.0308316,0.00801014
0.00842968,0.00984196
0.0504018,0.0329053
0.0894051,0.0158325
0.0482465,-0.0338218
-0.0403079,-0.0133896
-0.0417772,0.0156343
0.0636514,0.00504745
0.16391,0.00545459
0.220918,0.00428012
0.240977,-0.0370802
0.090815,-0.0688051
-0.163576,-0.0362079
-0.291478,0.0246176
-0.161304,0.0235479
-0.0282795,0.00453364
0.0421155,0.000332765
0.13427,-0.00331316
0.133827,-0.00192234
-0.0174958,-0.00115506
-0.0916671,0.00174262
-0.10968,0.0133953
-0.0767599,0.0175328
0.00587406,0.00763463
-0.0507553,-0.00155534
-0.107435,-0.00406499
-0.0289141,-0.00236262
0.0505846,0.00790545
0.084378,0.0109604
-0.0163057,0.0110833
-0.111553,0.0112008
-0.0484331,0.0118287
0.0166386,0.00175289
0.0724076,-0.0173714
0.116361,0.0136222
0.11491,0.0601093
0.0228339,0.0237133
-0.0997105,-0.0237834
-0.158578,-0.0496348
-0.0895858,-0.0397316
-0.00878526,-0.0284346
0.00599629,-0.0279942
0.00492962,-0.0117107
0.050943,0.00417707
0.0964415,0.0107453
0.111312,0.0102243
0.0591904,-0.00326059
-0.0250197,-0.00856227
-0.0405475,0.00125941
-0.0384788,0.0149796
-0.0232674,-0.00383327
-0.0310903,-0.0167367
-0.0348254,-0.0201946
-0.0192285,-0.00145086
0.0666683,0.00331632
0.158236,0.0222237
0.194427,0.010886
0.137551,-0.0113899
-0.0353401,0.00542675
-0.168228,0.0351991
-0.114956,0.0202982
-0.0417817,0.0157216
-0.0452237,0.00426417
-0.0171313,-0.00390986
0.0518369,0.00507961
0.0814799,0.011723
0.0276148,0.0109638
-0.0672308,-0.00350438
-0.112722,-0.0208075
-0.052477,-0.0264726
-0.00784424,-0.000770372
-0.0680129,0.0108241
-0.0720092,-0.00486866
0.0183243,0.0361805
0.0609847,0.0320923
-0.033535,-0.0288975
-0.051512,-0.0399227
-0.011708,-0.0218203
-0.0120337,-0.00562512
-0.00213297,-0.00181525
0.0177174,-0.0122162
0.0224182,-0.0102968
0.0295149,0.00421292
0.0513144,-0.00272422
0.0777772,-0.0140216
0.0686376,0.0021883
0.0610354,0.0174972
0.0450083,-0.00115279
-0.0193255,0.00310691
-0.0578358,0.0348277
0.000394392,0.0104824
0.101213,-0.0350066
0.127656,-0.0112074
0.0566489,0.00953678
-0.0989494,0.0102836
-0.169291,-0.000525199
-0.106479,-0.02148
-0.0388627,0.0051591
-0.0168395,0.0356601
-0.0131816,0.0301918
0.00787717,0.00624734
0.0140308,-0.0203513
0.0365371,0.023972
0.0350961,0.0237565
-0.0107507,-0.056628
-0.0561824,-0.0683098
-0.0639333,0.0191196
-0.0473937,0.012941
-0.024053,-0.0064283
-0.0100901,0.000366254
0.0307499,0.01151
0.0907828,0.0145869
0.117255,0.011989
0.1024,-0.000245629
0.0284083,-0.00307205
-0.0364621,0.00223379
0.00357413,0.000326946
0.0483074,-0.00617012
-0.024655,-0.00350752
-0.117432,-0.0129523
-0.110957,-0.0195668
-0.0456889,0.0131338
-0.000145919,0.0330153
-0.0210025,0.0200701
-0.0289355,0.00850003
-0.0119897,0.0123794
0.0517765,0.0286372
0.110896,0.0484442
0.150223,0.0378545
0.151947,0.0186987
0.0978901,-0.00416936
0.00753411,-0.0473903
-0.0812684,-0.0821504
-0.15282,-0.0956761
-0.135581,-0.056699
-0.0441736,-0.0445656
-0.043507,-0.0618325
-0.112173,0.00128124
-0.0983745,0.0706924
-0.0298243,0.0485083
-0.00684399,0.0182931
0.0171353,0.00110791
0.0779126,-0.00209304
0.127662,-0.000890698
0.141109,0.00638097
0.14428,0.0187617
0.0967496,0.0220809
0.00134476,0.0199591
-0.000977251,0.0152207
0.0326099,0.00862732
-0.0239356,-0.0132015
-0.0339947,-0.00160319
-0.0398953,0.013165
-0.03533,0.00281047
0.0232936,-0.00014877
-0.0506554,0.00694811
-0.143673,0.013921
-0.164934,-0.00523505
-0.184133,-0.0146443
-0.0683351,-0.0333084
0.187794,-0.00770678
0.287889,0.000122713
0.226541,0.00996065
-0.00355295,-0.000523852
-0.291454,-0.00151353
-0.239209,0.0111616
-0.0656648,0.0156274
-0.0183263,0.0150536
0.00171001,0.00824299
0.0386722,0.00101922
0.0829229,0.00482087
0.085773,0.000860773
0.0488596,-0.0330199
0.00559362,-0.0569197
-0.013039,-0.0133815
-0.00843947,0.0193462
0.0149538,0.014399
0.0145581,-0.00744801
0.0114969,-0.00214475
0.00787752,0.00175773
-0.00924565,-0.00677536
-0.0289217,0.00834791
-0.0302296,0.0140098
0.00129606,-0.00618469
0.0214887,-0.00874182
0.0297957,0.0236217
0.0284974,0.00180343
0.0221725,-0.0314184
0.005246,0.00663216
-0.000295934,0.0324911
0.0155121,0.0129859
0.0322877,-0.00572643
0.039865,-0.00987871
0.0444365,-0.00968991
0.0510721,-0.0125017
0.00297369,-0.00266572
-0.0410381,0.00709411
-0.0367524,0.00959642
-0.0329722,0.00960592
-0.0528384,0.00527514
-0.040587,0.000133379
0.00123093,-0.00641966
0.0232634,-0.0116159
0.0178003,0.00269498
0.0267502,0.00819174
0.0358936,0.00467486
-0.0113467,0.00166915
-0.0558527,0.00171147
-0.0566706,0.0032268
-0.0529896,0.00172076
-0.0434697,-0.000944847
0.00626754,0.0134026
0.114541,0.0397561
0.179601,0.0468141
0.0784759,0.0037037
-0.0730756,-0.0391865
-0.124888,-0.0619005
-0.0835932,-0.0473108
-0.0530405,-0.0263869
-0.0502106,-0.0171114
-0.0422801,-0.000210921
-0.0270466,0.00938558
-0.0177654,0.015088
-0.0276884,0.0112535
-0.0361479,-0.00602459
-0.00420498,-0.00991015
0.0570584,-0.00461004
0.137968,-0.00225632
0.195362,0.00208547
0.186872,0.00582545
0.139363,0.00411916
0.0775112,0.00981153
0.0219965,0.0132397
-0.0276923,0.00330893
0.0693871,0.00543893
0.161917,0.0167362
0.144723,0.0153865
0.144626,0.0196939
-0.0620234,0.0423747
-0.308075,0.0428322
-0.421303,-0.0338833
-0.473244,-0.0771999
-0.37732,-0.0485743
-0.167445,0.0058067
-0.047324,0.00601976
0.00844729,0.00724082
0.0417751,0.00756014
0.0461184,-0.0213585
0.0368833,-0.0233879
0.0316225,0.0137672
0.0370989,0.01853
0.0459006,0.0189341
0.0627564,0.0221365
0.0815474,0.00491403
0.0952027,-0.0213204
0.104164,-0.0157149
0.0957051,0.00829347
0.0867682,0.00772795
0.0892578,0.00169624
0.0654336,0.00518117
0.0388212,-0.00268335
0.00683654,-0.00276441
-0.014991,0.00727036
0.00197525,0.00879542
0.0245323,0.00197206
-0.0154121,-0.0012055
-0.0580539,-0.00688955
-0.0361805,-0.00582992
0.00823208,0.0151455
0.029244,0.0184602
0.0427849,0.0273817
0.0876472,0.0261292
0.116639,0.00600094
0.0330119,-0.0359499
-0.0581607,-0.0639303
-0.0768914,-0.026852
-0.0831787,-0.00285881
-0.074669,-0.00136851
-0.0447943,0.00591642
-0.0188067,0.00885887
-0.0227378,0.00492408
-0.0337429,0.00512772
-0.0509779,-0.00127898
-0.0369405,-0.00152207
-0.0196127,0.00968707
-0.0244867,0.011178
-0.0409626,0.000182304
-0.0283484,0.00538716
0.0282123,0.00922583
0.188484,0.00477211
0.284997,-0.00350302
0.321181,-0.0123474
0.193505,-0.0127856
-0.127299,-0.00997827
-0.225171,-0.0065028
-0.129001,-0.0042589
-0.0552717,-0.000724514
0.0338633,0.00147824
0.0492204,0.00154035
-0.0233323,-0.000493357
-0.136943,-0.00420323
-0.0811143,-0.000207292
0.0397294,0.00233256
-0.0459558,-0.00761554
-0.121954,0.00195994
-0.149537,0.00232458
-0.144278,0.0197459
-0.101045,0.00991738
-0.0427975,0.00288986
0.00510352,-0.00550329
0.0463922,-0.0205488
0.0627975,-0.0219278
0.0448662,-0.00795975
0.0321929,0.00463338
0.0235547,0.0124953
0.0273169,0.0142939
0.0413671,0.00506619
0.0285682,0.00120963
0.00222577,0.0082019
0.00383785,0.0143345
0.0142562,0.0127968
0.0262497,0.00484417
0.0309396,0.00414213
0.0189306,0.00145908
0.00670263,-0.00171438
0.0282214,-0.000729498
0.0654192,0.000965108
0.11957,-0.0098842
0.176013,-0.0221355
0.169327,-0.0122017
0.104337,0.00459995
0.000288194,-0.00766767
-0.0859624,-0.050654
-0.0420669,-0.0245386
-0.0461257,0.00721107
-0.169818,0.00843413
-0.174145,0.0228016
-0.0253299,0.0200034
0.0350219,0.0082463
0.00570939,0.000953953
-0.0326681,0.00473726
-0.0851015,-0.0239145
-0.109642,-0.0200729
-0.0740546,0.0190411
-0.0302965,0.0141425
-0.0103693,0.00612127
-0.000731075,0.00610765
0.00969926,0.00815243
0.028744,0.00738956
0.0445603,0.000573175
0.0439374,-0.000202707
0.0221851,0.00731968
0.000127232,0.0158405
0.0232649,0.0200963
0.0563358,0.0200357
0.023845,0.00545263
-0.015536,-0.0117219
-0.0346117,-0.0131607
-0.0449019,-0.0111868
-0.0519092,-0.00888947
-0.0495508,-0.00468199
-0.0216857,-0.000918909
0.013354,-0.00318548
0.0970074,-0.00468703
0.149909,-0.00629104
0.135165,-0.00380116
0.0527735,-0.00677147
0.0631147,-0.00708396
0.183133,0.000711833
0.254477,0.00240829
0.205599,0.00156608
-0.0886213,0.00795604
-0.293479,0.00745376
-0.237483,0.00278741
-0.225979,-0.0019939
-0.20645,-0.00548934
-0.116089,-0.0112819
-0.0572921,-0.00785231
-0.00876085,0.00154858
0.0292536,0.00334404
0.0180713,0.00105803
-0.0297799,0.00948399
-0.0326728,0.00407433
