Comp Ch 3,Comp Ch 4
-0.251591,0.016766
-0.259792,0.0175539
-0.185588,0.0241892
-0.0739157,-0.00583414
-0.00713417,-0.0308264
0.15021,-0.0266517
0.252355,-0.0300375
0.225711,-0.0131264
0.126222,-0.00335807
-0.152448,-0.00268193
-0.27281,0.00404029
-0.133734,0.00736822
-0.0291928,-0.0236006
0.0461438,-0.0535306
0.155295,-0.0565479
0.364161,-0.0266133
0.410606,0.0316801
0.204222,0.0333789
-0.171605,0.00370949
-0.556506,-0.0185014
-0.425243,0.0123829
0.158647,0.0349506
0.577758,0.0222426
0.587286,0.0235966
0.258564,0.0120366
-0.29062,-0.0240577
-0.500352,-0.00199923
-0.340877,-0.00406169
-0.0606164,0.0477428
0.0875708,0.0320069
-0.0238865,-0.0184662
0.00726005,-0.0216507
0.0468383,-0.0173745
0.0335618,0.00825641
-0.267688,-0.0017075
-0.400323,0.00810306
0.0776958,-0.00408798
0.273961,-0.0146337
0.0856896,-3.32e-05
-0.162761,0.0161794
-0.233372,0.0225878
-0.122444,0.0286231
0.114478,0.0291143
0.277029,-0.0114152
0.256046,-0.0587961
0.146273,-0.0530903
-0.0320446,-0.0237367
-0.181424,0.00458822
-0.232976,0.0113958
-0.157867,-0.00633359
-0.122066,-0.0388907
-0.113206,-0.0730978
-0.10586,-0.0436209
-0.13127,-0.0275667
-0.0460455,-0.0162761
0.0779811,0.0319259
0.145293,0.0514903
0.20724,0.0492953
0.23872,0.0374252
0.155985,0.0258896
0.161903,0.00899237
0.200152,0.00480311
0.169702,0.00792523
0.237228,0.0113489
0.344509,0.0156572
0.273563,0.0126973
-0.119197,0.00251911
-0.48443,0.00118916
-0.206568,0.0107106
0.255532,0.00674456
0.309434,-0.000423374
0.0106043,-0.000529638
-0.464326,-0.017793
-0.526854,-0.00423708
-0.010269,-0.0211382
0.174745,-0.0243025
-0.0752166,-0.0338635
-0.124187,-0.0118481
-0.0632372,0.0295242
-0.0552853,0.0293091
-0.143852,0.0293539
-0.173095,0.0369564
-0.0411554,0.0142893
0.143978,0.00498892
0.18849,0.0344164
0.103826,0.0294385
-0.071043,0.00669894
-0.147789,-0.00575784
1.59e-05,-0.0197711
0.168674,-0.0230047
0.168247,0.00356537
0.04984,0.0162585
0.026989,0.0114895
0.11745,-0.00441799
0.194138,-0.0166334
0.125391,-0.0361439
-0.101811,-0.0634776
-0.0648447,-0.0642152
-0.138563,-0.00570005
-0.340489,0.0482938
-0.267466,0.0446679
-0.103646,-0.00305993
-0.00976267,0.0145424
0.0180905,0.00918457
0.023763,-0.0319602
0.06817,-0.0886641
0.0884302,-0.065328
0.0565999,0.0386325
0.0596681,0.0338773
0.0999361,0.0065671
0.0040872,0.00365062
-0.0793871,0.00775711
-0.00620231,-0.00586376
0.0369971,-0.000778573
0.00659069,-0.0115212
-0.00121071,0.0126196
0.0369739,0.034667
0.0685095,0.0159619
0.00811121,-0.00994623
-0.145387,-0.0225992
-0.15465,-0.00949314
-0.0637651,0.0122554
-0.00660443,0.0127549
0.0216874,-0.0183792
0.113187,-0.00150452
0.293617,0.0146093
0.362859,-0.00243833
0.303312,-0.0146799
0.124209,-0.00930583
-0.190252,0.0142398
-0.318194,0.035941
-0.231303,0.031953
-0.217221,0.0131549
-0.064112,0.00216727
0.207369,-0.00975451
0.297738,-0.0145548
0.0513566,0.00048663
-0.330149,0.00755157
-0.449575,-0.0185769
-0.291866,-0.0422978
-0.138085,-0.0162328
-0.0504991,-0.00139008
0.0199327,-0.00461272
0.0417667,0.0257935
0.0947874,0.00907042
0.145762,-0.0262944
0.161231,-0.0273276
0.138914,0.00703897
0.133786,0.0361168
0.132615,0.0262234
0.112607,0.0422168
0.139336,0.0390393
0.0640592,1.05e-05
0.0849123,-0.0297605
0.160876,-0.040008
0.225113,-0.0456023
0.133849,-0.04884
-0.306298,-0.0354327
-0.625533,0.0238032
-0.372619,0.049475
0.0982041,0.0124576
0.388209,-0.0275715
0.484119,-0.0393422
0.172796,0.00409231
-0.244151,0.0206932
-0.404623,-0.000344121
-0.121947,0.0100147
0.0861319,0.0308948
-0.0551351,0.0321536
-0.255527,0.0198446
-0.2712,0.0138307
-0.103461,0.0164171
-0.0321391,0.0148859
0.0796167,0.000208712
0.161113,-0.00608537
0.126042,-0.00549927
-0.0015728,-0.00881069
-0.0925225,-0.0118233
-0.152423,-0.00312687
-0.122656,-0.00629279
0.0978113,-0.0157645
0.332427,-0.0164366
0.378589,-0.00933923
0.224124,-0.00537493
0.0402127,-0.0104313
-0.12422,0.000285389
-0.102814,0.00718185
-0.129944,0.00670244
-0.217557,0.00764842
-0.205521,0.0128318
-0.0716692,0.0134565
0.0389448,0.00847986
0.07433,0.00407572
0.0314964,-0.00998476
-0.0228301,-0.00674604
-0.0448363,0.00587658
-0.0128881,0.00396761
0.126229,0.0174504
0.237157,0.022402
0.220454,0.00865806
0.118732,-0.0232934
-0.0119619,-0.0250529
0.00763801,-0.0129271
0.0167163,-0.0172008
-0.0740014,-0.00451448
-0.107903,0.0190233
-0.0890986,0.0225495
-0.123254,0.0101376
-0.0552642,-0.00347049
0.069435,-0.0154017
0.0442862,-0.0199586
-0.0428534,-0.0387588
0.0371846,-0.0594813
0.201221,-0.022717
0.225219,-0.013885
0.135712,0.0104513
-0.173365,0.0473939
-0.259354,0.0548394
-0.0424536,0.0431055
0.0275574,0.009062
-0.152733,-0.0120359
-0.159088,-0.0148543
-0.057347,0.00377604
-0.020442,0.00913461
0.0538554,0.00394493
0.0491051,0.00985107
-0.00786809,0.0096952
-0.0157581,0.00242303
-0.0601865,0.00264872
-0.136141,0.00811761
0.024614,0.00728706
0.178873,-0.00704341
0.152744,-0.0209224
-0.010092,-0.00511118
-0.16816,-0.0106735
-0.113212,-0.0125826
0.0305359,-0.0242954
0.0593627,0.0142917
0.135657,0.0297105
0.292621,0.0198721
0.334098,0.0199273
0.14902,0.0140284
-0.0516638,-0.0182489
-0.301092,-0.0243681
-0.44438,-0.0125995
-0.306985,-0.0124789
-0.103519,-0.0174295
-0.0281878,-0.0286159
-0.0626929,0.000514139
-0.0325747,0.0121704
0.0553652,-0.00554698
0.129745,-0.0112182
0.166088,-0.00607179
0.251953,-0.00465502
0.295356,-0.011466
0.192642,0.0123034
0.0780293,-0.0181086
-0.137405,0.0224323
-0.155719,0.0448163
0.0706017,0.0275855
0.161619,-0.0213041
-0.0438219,-0.0642158
-0.306905,-0.0230518
-0.30335,0.0178545
-0.198696,0.0179526
-0.145798,0.00880788
-0.041008,0.00227978
0.103584,0.0137823
0.12946,0.000333425
0.0510788,-0.0288363
0.019252,-0.0196715
0.267811,0.000504518
0.426081,-0.0164999
0.40788,-0.0168502
0.0909525,0.0350475
-0.223172,0.049315
-0.154661,0.0308726
-0.360883,0.00479645
-0.434903,-0.00590416
-0.136918,-0.00121481
-0.00760327,0.0274561
0.0338587,0.0303651
0.01035,0.0087826
-0.0971728,-0.00175105
-0.103814,-0.013939
-0.0392202,-0.0356821
-0.0120694,-0.0472067
-0.0249669,-0.0192095
-0.0177202,0.0303438
0.0765759,0.030133
0.191718,0.0184882
0.27229,0.00675832
0.249775,-0.00872859
0.0675377,-0.0136349
-0.0153974,-0.00728118
0.0669746,0.00188152
0.0500712,0.0121785
-0.0570161,0.00599922
-0.196822,0.00744241
-0.131084,0.0191275
0.0168161,0.0197886
0.184698,0.0177005
0.204552,0.00565368
0.152679,-0.00866308
-0.0441486,-0.011524
-0.150619,0.000362145
0.0185008,0.00145915
0.133695,-0.0200223
0.225396,-0.0520243
0.0211647,-0.0479484
-0.230885,-0.0522661
-0.307167,-0.0194196
-0.312165,0.0104392
-0.152588,-0.00078075
-0.0862035,0.00457411
-0.175273,0.0313029
-0.115694,0.00652828
-0.0331602,0.00130217
-0.0159973,0.0152118
0.0774582,0.0229503
0.186742,0.0164936
0.228221,-0.00486341
0.0434934,-0.0036924
-0.200043,0.0083983
-0.156024,0.00507344
0.0232185,-0.000814451
0.140967,-0.00568961
0.0982834,-0.00177918
-0.0318558,-0.00354647
-0.0407612,-0.00439903
0.0240743,0.0102348
0.149651,0.0130928
0.350563,0.00758363
0.484352,-0.00622635
0.351723,-0.016657
0.0789422,0.016189
-0.0996802,0.00363426
-0.203904,0.00911315
-0.233912,0.00455334
-0.397254,-0.00742667
-0.452635,0.00229055
-0.246677,-0.00432885
-0.0619024,-0.0464635
0.0331255,-0.0200576
0.175659,-0.00311093
0.391813,-0.00196326
0.429689,0.000376513
0.112398,0.011139
-0.295878,0.0328109
-0.26092,0.0248748
-0.133039,0.0077412
-0.0714071,-0.0215962
0.0275281,-0.0171514
0.0890161,-0.014103
0.0627687,-0.00906979
-0.10301,0.00868074
-0.109567,-0.00168369
0.111391,-0.00770544
0.237686,0.0131909
0.241946,0.00797335
0.0362626,-0.00141969
-0.176984,-0.00056723
-0.180392,-0.0100192
-0.162185,0.0043122
-0.105098,0.0204807
-0.0403119,0.0162032
-0.0117412,0.01859
0.0165562,0.0324979
0.0180021,0.0163346
-0.0380065,-0.0140508
-0.0266748,-0.0285671
0.0346707,-0.0242438
0.152079,-0.0209674
0.171893,-0.00978833
0.100628,-0.00386452
0.0106176,-0.00745416
-0.0768924,-0.00969647
-0.0653179,0.00693508
0.0924834,0.0213888
0.236212,0.0110476
0.249149,-0.00595235
0.141162,-0.0531244
-0.15425,-0.00821979
-0.281042,0.0607581
-0.226016,0.0256726
-0.170824,-0.0495011
-0.114131,-0.0180275
0.0393278,0.00787259
0.197682,-0.0154152
0.132585,-0.0158411
-0.0330903,0.00682741
-0.178318,-0.0279548
-0.202041,-0.027946
-0.0882367,0.0107997
0.00182559,0.00680902
0.0362268,0.0312252
0.0607194,0.0352245
0.0781021,0.0315098
0.0431868,0.0284154
-0.00139631,0.0209463
0.00165039,0.00254714
0.0847642,-0.0102094
0.131453,-0.0125571
0.0499443,-0.00336352
-0.123071,0.00246868
-0.17529,0.00188216
-0.0905104,0.00391226
-0.055824,-0.00413851
-0.0223249,0.00465677
0.0651964,0.0223848
0.188431,0.0191432
0.256123,0.000378294
0.179781,-0.0148562
0.0788234,0.00401684
-0.0194602,0.00573258
-0.00732353,-0.0227924
0.0225674,-0.0496386
-0.0561032,-0.0241643
-0.0998385,0.0432468
-0.0804023,0.0306067
-0.125278,0.014495
0.00795389,-0.00620248
0.114053,-0.0257546
-0.0415833,-0.00147751
-0.192816,0.00305973
-0.285094,-0.0411991
-0.175235,-0.0146728
-0.0272045,0.0138167
0.0846224,0.00375351
0.306134,0.0127785
0.458237,0.0286259
0.291233,0.0458953
-0.100287,0.0138686
-0.392971,-0.0164595
-0.335216,-0.0281765
-0.167067,-0.0258827
-0.0773854,-0.0384344
-0.0211571,-0.0313208
0.00941473,-0.0236246
-0.0133232,0.0128591
-0.0185876,0.0263684
0.0129555,0.0113296
0.10176,-0.0501159
0.178595,-0.0182894
0.221299,0.0312557
0.28678,0.00801148
0.18338,-0.00541624
0.0305589,-0.00151314
-0.106025,0.00886799
-0.254091,0.00607042
-0.240188,0.00559706
-0.139302,-0.000317199
-0.0124442,0.000432907
0.243035,0.00654816
0.412029,-0.00958499
0.331435,-0.0215442
-0.0308004,-0.00262553
-0.426385,0.00692083
-0.297534,-0.00453751
-0.0107939,-0.0332972
0.0242583,0.00559204
-0.0339968,0.0364003
-0.149509,0.0353541
-0.0896031,0.0155032
0.0580542,0.00294556
0.136655,-0.0015456
0.0931834,-0.00507116
-0.128394,0.0123003
-0.138823,0.0175956
-0.0212439,0.00720454
-0.031913,0.00391357
-0.0814123,0.0122087
0.0906374,0.00272087
0.255797,0.00700728
0.374082,0.0123431
0.380194,-0.00726293
0.173773,-0.0183367
-0.108892,0.00730553
-0.385387,0.0057499
-0.358597,-0.00588915
-0.225117,-0.0272033
-0.155158,-0.0355475
-0.0611556,0.00538646
0.0370863,0.0264484
0.0711013,0.0246848
0.0113292,0.00859368
0.0100011,-0.000197948
0.150492,-0.00634901
0.221133,-0.0202522
0.153407,-0.0213847
-0.073259,-0.00214726
-0.342065,0.0174135
-0.266412,0.0140186
-0.0675426,-0.000831356
0.105357,-0.00478688
0.215374,0.00129683
0.199095,-0.00371556
0.0704505,-0.0201826
-0.0966681,-0.000460158
-0.1091,0.0213897
-0.00658262,0.00707579
0.0856337,-0.0149696
0.144518,-0.0181754
0.200387,-0.00739631
0.131046,-0.00454078
0.0206692,-0.00331128
0.0331277,0.000567066
0.0363203,0.00749728
-0.0786212,0.00516447
-0.339204,-0.0122946
-0.394366,-0.0379007
-0.148364,-0.0892601
0.00288449,-0.0411979
0.0534857,0.0285421
0.0864747,0.0208991
0.108879,0.0332286
0.136061,0.0278876
0.0913664,0.0109296
0.081275,-0.00324976
0.068364,-0.0183155
-0.0173831,-0.00104062
-0.0027033,0.00500813
-0.0539184,-0.00249669
-0.137279,0.0075944
-0.175332,0.0480002
-0.0916958,0.0530635
0.0555794,0.0131063
0.0247204,-0.0162708
0.0203411,-0.0230041
0.158019,-0.0117637
0.220974,-0.000888848
0.173541,0.0158672
0.0640251,0.0165175
0.00944517,-0.00621648
0.0170166,0.00526852
-0.0919055,0.0153266
-0.289708,0.00139577
-0.351791,-0.00158732
-0.16736,0.00698288
0.0309796,-0.00475486
0.000608251,-0.00878627
-0.0650658,0.0157354
0.0254097,-0.000390577
0.087026,-0.0531302
0.12941,-0.0399068
0.177245,-0.0843751
0.0166092,-0.0580214
-0.122481,0.0741363
0.0200624,0.0986975
0.187488,0.0782464
0.173629,0.0213569
0.0112508,-0.0155489
-0.169578,-0.0322443
-0.142969,-0.0377215
-0.0501283,-0.0269466
-0.0793902,-0.00675984
-0.0842598,0.0103653
-0.0578597,0.0601481
0.0331848,0.0781448
0.137188,0.0455236
0.207618,-0.0030396
0.21627,-0.038624
0.0832766,-0.0447273
-0.109783,-0.0263965
-0.245653,-0.0307847
-0.188709,-0.0668297
0.111446,-0.0132439
0.273403,0.0391805
0.241719,0.0323721
0.0302154,-0.000921803
-0.284394,-0.0117156
-0.190474,-0.00657312
0.13147,0.0038269
0.197547,0.0157517
0.0472066,-0.00405905
-0.0759685,0.000690935
0.109001,0.021202
0.376872,0.0201072
0.312253,-0.0301709
-0.1635,-0.0523404
-0.625924,-0.0143128
-0.58022,0.0228072
-0.337315,0.0259159
-0.155358,0.0197738
-0.072426,0.0448144
0.0176379,0.0184892
0.0794963,-0.0309941
0.10557,-0.0434271
0.104688,-0.0389365
0.15492,-0.0219156
0.3928,-0.0191222
0.573758,0.000333811
0.434642,0.0294594
-0.104455,0.00309392
-0.532084,0.00234791
-0.422475,0.0315234
-0.0795954,0.0149368
0.118998,-0.0332573
0.0413597,-0.0208638
-0.0882978,0.0104636
-0.128325,-0.0226569
-0.0705236,-0.0198746
-0.00353002,0.000262439
-0.0123319,-0.0424712
0.00771247,-0.0274091
-0.00528529,0.0690135
-0.0300597,0.0821574
0.00154643,0.0490192
0.0418934,0.0219291
0.198714,0.00103592
0.307034,-0.00988424
0.183458,-0.0179854
-0.0633033,-0.0187288
-0.22607,-0.0076421
-0.118955,0.00645122
-0.0164792,0.00974678
-0.00843807,-0.0104088
-0.00170322,-0.0296528
0.02505,-0.00294064
0.0230078,0.00586173
-0.0148532,0.000131611
-0.0423654,-0.00120601
-0.0377745,-0.00523962
-0.00198717,0.0152766
0.0344197,0.0203403
0.0344351,-0.00307912
-0.0202748,-0.00368245
-0.0403402,-0.000325816
-0.0200183,-0.0182948
-0.0143515,-0.0355536
0.115827,-0.0158456
0.212716,0.0228732
0.172562,0.043951
0.0121893,0.0400336
-0.143133,-0.0301159
-0.107841,-0.0365716
-0.0641831,0.00259835
-0.0448209,0.0135258
-0.053719,0.00752096
-0.0319568,0.00260161
-0.022116,-0.0246601
-0.0357678,-0.0172038
-0.0689558,0.0247808
-0.0504084,0.014269
-0.0260158,-0.0103237
-0.0206195,0.00353612
0.0122327,0.0130533
0.138658,0.0144873
0.206323,0.0291101
0.152724,-0.0321456
-0.00412633,-0.0573684
-0.0962212,-0.00776027
-0.0490447,-0.0439679
-0.0123294,-0.00115063
0.00179034,0.0224538
0.0316717,-0.00989648
-0.055697,-0.00821821
-0.116445,-0.0170171
-0.0985416,0.0141272
-0.0839355,0.0840004
0.00323325,0.129213
0.0479818,0.0680947
0.00426232,-0.0349142
-0.00867531,-0.0621316
0.0043083,-0.0892301
0.0158857,-0.0837322
0.0524087,-0.0529409
0.0694421,0.0159707
0.049715,0.027971
0.0552144,0.0316679
0.0490157,0.0317423
-0.0268278,0.0044161
-0.0903737,-0.0170455
-0.0946223,0.0149573
-0.0710001,0.0800338
-0.0332321,0.0361428
-0.00808615,-0.0292233
-0.0105398,-0.0514163
0.00639317,-0.038606
0.0402306,-0.00714881
0.0694221,-0.0292153
0.065492,0.0033297
0.0441718,0.00905497
0.0378152,-0.00847035
0.0246088,0.0368717
0.0109879,-0.0194835
-0.0882346,-0.0560799
-0.11654,-0.0212754
-0.0128233,0.0229242
0.051541,0.0915335
0.0682251,0.075144
0.103081,-0.00863208
0.108048,-0.0754348
0.149681,-0.0861485
0.208191,-0.0216367
0.325107,0.0691209
0.209102,0.0814524
-0.212255,0.0544403
-0.391943,0.0436775
-0.251314,0.0187294
-0.129856,-0.0044653
-0.159316,-0.0364459
-0.126236,-0.0626081
0.107802,-0.107063
0.192852,-0.0768761
0.0587383,-0.0711776
-0.250395,-0.0514543
-0.431516,0.0188119
-0.242231,0.0449715
-0.0158471,0.0582697
0.0985143,0.059979
0.122187,0.0442983
0.126796,0.0364069
0.0526987,0.0229609
-0.0368905,0.0135848
0.00631866,-0.00613354
0.0313445,-0.0400396
0.115474,-0.0181077
0.193953,-0.00500338
0.237154,0.0201737
0.198742,0.0241323
-0.000344971,0.0257305
-0.168438,0.00905946
-0.135248,-0.0179834
-0.14212,-0.0063029
-0.175053,0.0269745
-0.0794389,0.0329049
-0.0204374,-0.00860724
-0.0145072,-0.0297221
0.0249371,-0.0142522
0.0611792,0.00302986
0.0965902,0.00816906
0.18092,-0.0133903
0.277809,-0.0129307
0.248984,0.0110737
0.0745977,0.0154287
-0.0745145,-0.0235859
-0.17431,-0.0301804
-0.26504,-0.0163189
-0.213657,-0.00747486
-0.0559106,-0.00567963
0.00564823,0.00997733
-0.00729954,0.00543173
0.0716905,-0.0526611
0.102272,-0.0351721
0.0443199,-0.0494388
0.0856048,-0.00715369
0.0634461,0.0929823
-0.0580196,0.0744787
-0.088163,0.00476935
-0.128528,-0.0288067
-0.104722,-0.0123431
0.0139317,-0.0123091
0.120346,-0.0744229
0.160952,-0.0111269
0.115386,0.0643536
-0.02126,0.0631165
-0.0974038,0.0310143
-0.140653,-0.00482825
-0.13408,-0.0287145
-0.0817166,-0.0376964
-0.00748259,-0.0264807
0.0154313,-0.00922878
-0.0282518,0.0277921
0.0432893,0.0634918
0.122143,0.0319153
0.0161096,-0.00281365
-0.126554,0.0276808
-0.0955252,0.00543744
0.00171718,-0.0132393
0.00936145,0.00156432
0.0294541,0.0266678
0.139693,0.0195519
0.322153,0.00148769
0.476676,-0.0245575
0.286087,-0.0360365
-0.0555008,-0.020588
-0.072851,-0.0146933
0.0573426,-0.00137719
0.0345793,0.00698089
-0.249002,0.0182996
-0.493372,0.00416468
-0.447595,-0.0342115
-0.28716,-0.081968
-0.16526,-0.0725679
-0.106313,-0.00895942
-0.0679087,0.0180648
0.0270293,0.0186461
0.289037,0.0757823
0.455323,0.105417
0.326567,0.0301297
0.161112,-0.0594946
0.268176,-0.0553989
0.318032,-0.022589
-0.000492982,-0.0148944
-0.215795,-0.0285148
-0.458588,0.0123451
-0.393601,0.0150102
-0.100474,-0.0257091
-0.0683865,0.00896478
-0.139894,0.0202299
-0.110866,0.0271593
-0.0148567,0.024028
0.05714,0.0315766
0.0519282,0.025986
-0.0254794,-0.0104593
-0.0152364,-0.0211046
0.109027,-0.00676553
0.200901,-0.0278745
0.169542,-0.0463768
0.0212915,0.00613565
-0.0933563,0.0589533
-0.0150089,0.0686505
0.0644646,0.0332225
0.171434,-0.0511396
0.150055,-0.0795997
0.00662168,-0.00322521
-0.137432,0.0555463
-0.158034,0.0479883
-0.0324017,-0.00243849
0.0621617,-0.0683948
-0.0209103,-0.120078
-0.0824939,-0.0393207
-0.0146881,0.0208465
-0.0198623,0.0504858
-0.105742,0.0343742
-0.0773319,-0.0400932
0.0124643,-0.0603341
0.0168774,0.0302153
-0.05367,0.110009
-0.0135446,0.117361
0.0923206,0.0939988
0.19343,0.0650104
0.256158,-0.0401013
0.194905,-0.059887
0.086408,-0.0941142
0.0425137,-0.0827693
-0.078566,-0.0128056
-0.197646,0.0238406
-0.166485,-0.00990657
-0.107629,-0.0695222
-0.0722224,-0.037285
-0.0380506,0.0224635
-0.0468378,0.0470417
0.103388,-0.0182034
0.295877,-0.0888279
0.327823,-0.0517325
0.182192,0.0611437
-0.16321,0.0948936
-0.389726,0.0824412
-0.337745,0.0181319
-0.0546622,-0.0522746
0.180199,-0.0510478
0.274619,-0.0153757
0.261673,0.0304651
0.113632,0.0657461
0.00069268,0.0655589
-0.0827885,0.00777012
-0.316038,0.0510313
-0.436969,-0.0364048
-0.272791,-0.0878223
-0.148499,-0.00554688
-0.100205,-0.0121571
0.00943044,-0.0583571
0.0687157,-0.0262066
0.0460212,0.059238
0.0525319,0.0631576
0.167733,-0.0395397
0.336783,-0.0752189
0.34276,-0.0670085
0.0990796,-0.0633985
-0.187872,-0.00839306
-0.262855,0.052809
-0.197401,0.0535185
-0.111415,0.0503784
-0.012136,0.045517
0.0478399,0.0228788
0.0534857,0.00568148
0.05368,-0.0416627
0.0568082,-0.0502479
0.0822803,0.0290081
0.115332,0.0124413
0.0634838,0.0214249
-0.0656793,0.0607083
-0.103553,0.0675695
-0.0170541,0.0432308
0.0394494,-0.0157583
0.0705242,-0.0677499
0.0895177,-0.0260921
0.0830293,0.00889661
0.0909268,-0.00550589
0.0820411,-0.00454079
0.0174526,0.00447195
-0.0301307,-0.0155201
-0.0915039,-0.037366
-0.243496,-0.0276406
-0.231191,-0.0102441
-0.075076,-0.0176559
-0.00531386,-0.0722293
-0.0349308,-0.106911
-0.0482543,0.0245586
0.0285461,0.134245
0.114222,0.0799256
0.0799368,-0.00221097
0.0551759,-0.0221907
0.0609362,-0.0491339
-0.0115706,-0.0258386
-0.124968,0.0574688
-0.149112,0.075166
-0.0732201,0.067338
0.0828659,0.00904678
0.318936,-0.0208275
0.477669,-0.00775945
0.423177,-0.0166287
0.36623,-0.0397497
0.194246,-0.0566349
0.106019,-0.0970069
-0.0561146,-0.0718246
-0.538834,-0.0168733
-0.649633,0.0498985
-0.243673,0.111325
0.136913,0.120734
0.0824159,0.0288836
-0.227234,-0.0321184
-0.416052,-0.0597502
-0.329156,-0.0467771
-0.212171,-0.0515362
-0.148534,-0.066339
-0.0524279,0.0143187
0.0532843,0.0604994
0.141218,0.0202874
0.179387,-0.0266508
0.169698,-0.00719217
0.0946604,0.00988764
0.0881528,0.000453374
0.191823,0.0224941
0.17491,0.018047
0.0375696,0.0513775
-0.0217224,0.0637617
0.052583,0.0225324
0.00306404,0.00991227
-0.0887109,-0.0658595
-0.0706184,-0.0718876
0.00414714,-0.103049
0.00364518,0.0112464
-0.00893734,0.176211
0.069206,0.118658
0.127337,0.0110791
0.0602142,-0.0426781
-0.00172518,-0.0491801
-0.0524957,-0.0728631
-0.133672,-0.0619176
-0.106102,-0.0198385
-0.0343297,0.00968589
-0.0287942,0.0382788
-0.0229562,0.00845998
-0.0134144,-0.0413805
0.00162717,-0.0413405
0.0184728,0.00632363
0.0330279,0.0255205
0.123225,0.0232113
0.262923,0.0105826
0.28515,-0.00216175
0.202206,-0.0137839
0.00667772,-0.0173428
-0.24295,0.021867
-0.341252,0.0386772
-0.288727,0.00594423
-0.132759,0.000549704
-0.0105575,0.00265236
0.0889185,0.00950213
0.221696,0.0216705
0.253874,0.00967022
0.171487,-0.0101841
-0.00075167,-0.00276948
-0.210528,0.0180068
-0.169025,0.0283796
0.043974,-0.012258
0.106963,-0.0827499
0.0268298,-0.0470009
-0.134616,0.030063
-0.263959,-0.0328145
-0.254782,-0.057826
-0.144929,-0.0676969
-0.0509457,0.00965113
0.0680102,0.0316763
0.165885,0.0208799
0.168425,0.0488064
0.168345,0.051892
0.147533,0.0280616
0.0843308,0.0103517
0.10173,-0.00161293
0.175652,-0.00918549
0.0878291,0.00983403
-0.0134427,0.0434937
0.0746172,0.037649
0.0221418,-0.00684373
0.0118576,-0.0269545
-0.187876,-0.0140374
-0.575061,-0.00913307
-0.471392,0.00348329
-0.0972487,0.00794795
0.102123,0.00735866
0.0934136,-0.00290577
0.224238,-0.0132438
0.429824,-0.0200647
0.478125,-0.0355553
0.225679,-0.0748757
-0.316307,-0.03478
-0.624026,0.0430452
-0.336916,0.0553497
-0.103703,0.0327141
-0.0947821,-0.0154571
-0.112257,-0.0338475
-0.00144954,-0.00510443
0.100221,0.00132972
0.0688934,-0.000664188
0.0447559,-0.0283579
0.0766191,-0.0340373
0.152907,-0.00304244
0.258818,-0.00520658
0.233762,0.0170999
0.112734,0.0535131
-0.023843,0.0462468
-0.124824,0.0344894
-0.0415308,0.0461968
0.208998,0.0253142
0.19439,-0.00946319
-0.0827695,-0.0235741
-0.237159,-0.0437654
-0.14918,-0.0446665
-0.00226287,0.00730752
-0.000747729,0.0251529
-0.121959,-0.0161892
-0.124225,-0.0312857
-0.0322935,-0.0269079
0.0231329,-0.0566638
-0.015503,-0.0564538
-0.0777533,0.0448857
-0.0699262,0.0654445
-0.0355643,0.0496566
0.0396627,-0.000600575
0.0553482,-0.0593452
-0.018366,-0.0096266
-0.0338487,0.0361798
0.0659063,0.0108656
0.13547,-0.0247153
0.116812,-0.019566
0.108621,-0.0129683
0.105228,-0.0258173
0.130111,0.0258415
0.14592,0.0423549
0.0907025,0.02408
0.103082,0.0238379
0.177363,0.063586
0.0631015,0.0947009
-0.274047,0.0143665
-0.396257,-0.053933
-0.303593,-0.0610006
-0.161778,-0.0317943
-0.0395148,-0.021306
-0.0121867,-0.0125851
0.017066,-0.00269489
0.0684442,-0.00325526
0.0458737,-0.0237621
0.0123613,-0.00202805
0.0545655,0.0366572
0.116264,0.0154257
0.0969246,0.00573824
0.00115605,0.0143664
-0.0823588,0.00408923
-0.123922,-0.0228421
-0.102425,-0.0283224
-0.0670948,-0.0151674
-0.0348027,-0.00217108
0.00453516,0.00781129
0.0206877,0.00702321
0.0234945,-0.0268376
0.03951,-0.0620097
0.061265,-0.0137315
0.125382,0.0184684
0.152956,0.0248422
0.099781,0.0246621
0.00641506,0.0112173
-0.0933367,0.00876213
-0.12772,-0.0011625
-0.0580976,-0.0205895
0.0302726,0.000892608
0.0344922,0.0180558
0.00885354,0.00849519
-0.0140255,0.00444572
-0.0499234,-0.00370022
-0.0265581,-0.0194664
0.0110997,-0.0113451
-0.0131896,0.0353646
-0.0320785,0.0633417
-0.0436552,0.0380204
-0.0125301,0.0053679
0.133173,0.00310262
0.205409,0.00621055
0.147975,-0.0293584
0.0860028,-0.0667303
-0.0223578,0.0154172
-0.0777027,0.0099523
-0.0590729,-0.0206164
-0.143483,-0.00544292
-0.159451,0.0147111
-0.0258864,0.0202117
0.114492,0.0231385
0.0697534,-0.00116724
-0.0217682,-0.0991989
-0.124328,-0.112995
-0.122988,0.0674685
-0.0207082,0.0957845
0.0132694,0.0451808
-0.0760376,0.00272156
-0.0890822,-0.061234
-0.055437,-0.0393924
-0.0190607,-0.00506829
-0.00567359,-0.0280724
-0.0112467,-0.0262144
-0.00866684,0.00107919
0.0214337,0.0169827
0.0501981,0.0349554
0.0412178,0.0252557
0.0158937,-0.00281148
0.0273799,-0.0423996
0.044425,0.00188341
0.0280758,0.051971
0.128483,0.0183601
0.248712,-0.0323925
0.217595,0.0152185
0.182954,0.0687753
0.0742963,0.0197857
-0.119594,-0.0221278
-0.280538,-0.0393755
-0.267844,-0.0468953
-0.149171,-0.0275314
-0.0725033,-0.0041482
-0.0208926,-0.00049701
0.00933733,0.00198921
0.011688,0.00993475
-0.0142376,0.0255084
-0.0444946,0.049544
-0.0097875,0.025648
0.043595,-0.0265495
0.0657778,-0.0422249
0.0438797,-0.050368
-0.0193257,0.0174862
-0.0443038,0.0353897
0.0147191,0.00686486
0.204139,-0.0254645
0.346068,-0.00164093
0.295622,0.0039834
0.129564,-0.00470314
-0.14899,0.00635742
-0.284227,0.0102118
-0.134855,0.0111669
-0.0161043,0.0173802
-0.0566715,0.00772377
-0.0244621,-0.0130844
0.0123037,-0.015711
0.0678187,0.0321497
0.194843,0.0402299
0.21767,0.0278082
0.0374971,-0.0159371
-0.194345,-0.0613562
-0.307533,-0.0403331
-0.272564,-0.020692
-0.196663,-0.00978238
-0.158537,0.0108534
-0.131508,0.0214318
-0.0656328,0.0263569
0.023982,-0.00972982
0.0726038,-0.0101214
0.0699559,0.021797
0.0616543,0.0398962
0.0894625,0.0136532
0.105938,-0.0302109
0.0983706,-0.0429
0.0686037,0.0204409
0.0106689,0.0624565
-0.0121185,0.0388552
0.054586,-0.0370144
0.122305,-0.0915254
0.0801579,-0.00458971
-0.0534692,0.0416365
-0.118997,0.0265185
-0.0552594,-0.0103743
-0.016127,-0.0466616
0.109443,-0.0184259
0.17828,0.0271701
0.192356,-0.00132755
-0.00467853,-0.00626159
-0.209157,0.0118717
-0.190968,0.00443707
-0.106446,-0.0133733
-0.0701526,-0.013807
-0.0575281,-0.00155089
-0.0361806,-0.0311922
0.0196085,0.00549317
0.0538218,0.0131303
0.0380759,-0.0205616
-0.00220095,0.0153236
0.00302848,0.0138279
0.0908571,-0.0207179
0.177659,0.0303756
0.153228,0.0381008
0.0652548,0.00117814
-0.08175,0.00057919
-0.163883,0.00786278
-0.120038,0.0159456
-0.058033,0.00723465
-0.0297107,-0.00953574
-0.0310772,0.00445576
-0.0176585,0.0126998
0.0161063,0.0185922
0.0461505,0.00451816
0.085274,-0.00405789
0.116102,-0.0214822
0.16653,-0.0422881
0.161621,-0.0233063
0.0892008,0.00778754
-0.0417936,-0.00565242
-0.196014,-0.0293689
-0.214582,-0.0309072
-0.161432,0.0064366
-0.082001,0.0385224
-0.0215465,0.0361344
0.0105269,-0.0557181
-0.0126882,-0.123155
-0.0296969,-0.0590027
-0.00983121,0.0627072
0.0237876,0.0830122
0.0468217,0.0441531
0.0505567,0.0240165
0.0109759,0.0143234
0.00279286,0.000263677
0.0565063,-0.00233072
0.117081,0.0100668
0.145204,0.00247569
0.0410226,0.0024801
-0.0856004,0.0131844
-0.124544,0.0221162
-0.0189633,0.0328365
0.271016,0.0274418
0.306494,-0.0243433
0.1757,-0.0560617
-0.0199053,-0.0174195
-0.350218,0.00450435
-0.377791,-0.033621
-0.157758,-0.0609493
-0.114801,-0.000768734
-0.103226,0.0330071
-0.0239027,0.0197863
0.0961454,-0.0159023
0.0594625,0.000467707
-0.0339564,0.0157233
-0.056706,0.0133299
-0.0343975,0.0190271
0.0766377,0.0286964
0.0393537,0.0098073
0.0240026,0.0178969
-0.0103806,0.031962
-0.0797021,-0.0208824
-0.0571833,-0.0984379
0.00429407,-0.0127003
0.0761035,0.0318957
0.175396,-0.0287477
0.207201,-0.0264677
0.161096,-0.00354693
-0.0281681,-0.00701553
-0.167095,-0.0173705
-0.127177,-0.00497423
-0.0693091,0.00445219
-0.0240235,0.0251629
0.00327847,0.0271425
0.0347851,0.0110972
0.068103,0.0143924
0.0501301,0.0251827
0.0302232,0.0283151
-0.00518649,0.0114348
-0.0681281,0.0059708
-0.0736989,0.0316888
-0.0486235,-0.00887056
-0.073411,-0.0174923
-0.0388259,0.020303
0.102546,0.00246321
0.289265,-0.0172788
0.318,-0.0333607
0.22811,-0.0585677
0.0973941,-0.0505642
-0.0233644,-0.00423134
-0.0324435,0.00762841
-0.144617,0.00542746
-0.322598,0.0100691
-0.28345,0.0127969
-0.0951159,-0.00262753
-0.0363611,-0.0288796
-0.065449,0.00196605
-0.060136,0.0284749
-0.0327051,0.0287582
-0.022908,0.0259992
-0.0137873,0.0197303
-0.00021968,0.00183957
0.0196524,-0.0173956
-0.00778955,-0.00841663
-0.0114024,0.00564426
0.0238261,0.00357089
0.0692258,-0.0234737
0.0883889,-0.0269571
0.0757446,0.0284615
0.066329,0.0296174
0.0450934,0.00458632
0.0205653,0.00315386
0.0197115,0.0125101
0.0372567,0.0176587
0.0307682,0.00769324
0.0160934,0.00484224
-0.0117961,-0.00653771
-0.0544852,-0.0161809
-0.053408,-0.0194666
-0.0518964,-0.0330454
-0.0857456,-0.0271071
-0.0733419,-0.0374892
0.0486739,-0.039072
0.162645,-0.0700576
0.160607,-0.000924731
0.107264,0.044631
0.0833573,0.0424554
0.113975,0.0504613
0.123674,0.0201022
0.0431012,-0.000952182
-0.101813,0.00950597
-0.175935,0.00276137
-0.116695,-0.0154507
-0.0825316,-0.0018667
-0.148123,-0.00140596
-0.206144,0.00262984
-0.137344,0.00647998
-0.0545756,0.00294043
-0.0539073,0.010646
-0.0354283,0.0160877
-0.0310128,-0.00506512
-0.00960686,-0.016262
0.00941886,-0.0187929
-0.00609496,-0.0130558
0.0281765,0.0148834
0.167991,0.0400616
0.266162,0.0363428
0.324871,0.0257423
0.161878,0.0033109
-0.105864,-0.0129813
-0.184367,-0.027338
-0.12961,-0.0182864
-0.0584569,0.00944381
0.00994891,0.00232438
0.0465983,-0.0155122
0.206293,-0.0250759
0.399334,-0.0270477
0.377433,-0.0236864
0.134842,-0.0103867
-0.338086,0.0152544
-0.603403,0.0212723
-0.408012,0.0213759
-0.203738,0.0291684
-0.077861,-0.00495934
-0.00781411,-0.0162319
-0.00466928,0.0245723
-0.00954255,0.0424509
0.00547418,0.0329015
0.0100709,-0.011087
0.00873137,-0.041867
0.00673664,-0.0299963
0.0100668,-0.0614701
-0.00163482,-0.0621005
-0.0170287,0.000959705
-0.0125611,0.0098851
0.0181338,0.00896946
0.0442692,0.0155976
0.0657195,0.0201102
0.0764834,0.0252823
0.101601,0.0146966
0.125841,-0.00669741
0.125061,0.0116744
0.197006,0.0321892
0.405111,-0.0248693
0.522174,-0.00854043
0.451375,-0.00187304
0.0294093,0.00972103
-0.393901,-0.0225161
-0.510871,0.00130644
-0.373675,-0.00247478
-0.183397,0.00356128
-0.00322923,-0.00277728
0.0260726,-0.0132265
-0.105305,0.012926
-0.201577,0.0310961
-0.183069,0.0213813
-0.181135,-0.000476369
-0.1259,-0.00110846
0.00726242,0.00988599
0.0692081,0.0181599
0.0486701,0.0173483
0.00873652,0.0147553
-0.0479533,0.00180593
-0.0447456,-0.0208747
0.0437827,-0.039536
0.0711274,-0.0137943
0.0226282,-0.00239691
0.0140321,-0.0513555
0.0760012,-0.108466
0.118386,-0.0216756
0.162618,0.0359877
0.150746,0.03106
0.0898019,0.0283351
-0.0100992,0.0246027
-0.102967,0.0130025
-0.0898312,0.00236308
-0.0294148,0.000774373
-0.0117944,0.0138977
0.0188885,0.0409295
0.0351238,0.0524975
0.0359224,0.0383164
0.0371583,0.0105256
-0.0332179,-0.0237019
-0.0804481,-0.0520163
0.00586929,-0.0166064
0.153879,0.0277826
0.213403,0.0119744
0.179179,-0.0351394
0.0695548,-0.0566859
-0.0606008,-0.0281301
-0.0909897,-0.0407114
-0.131016,-0.0258771
-0.199562,0.0233261
-0.196383,0.0126443
-0.140254,0.0530478
-0.0522971,0.0438002
0.020462,-0.00342057
0.0580964,-0.0492308
0.0594798,-0.0411517
-0.0141154,0.0439749
-0.033038,0.0348618
-0.0469262,-0.0052087
-0.0445199,0.0144701
0.00129252,0.0348659
0.0429805,0.019879
0.0362661,0.00823404
0.0209388,-0.0118555
0.0449823,-0.0162759
0.059916,0.00342572
0.0571199,-0.0187481
0.0235971,-0.0513888
-0.0372906,-0.0562044
-0.0863366,-0.0407872
-0.0498166,0.0116283
0.0616738,0.0184484
0.174858,0.00286957
0.181168,-0.0116165
0.0845382,0.0206548
-0.0191471,0.0301737
-0.0126858,0.05315
-0.00123452,0.0462144
-0.0847167,0.0167571
-0.161514,-0.010304
-0.183436,-0.0677146
-0.102028,-0.0515273
0.0279092,0.0369641
0.0867864,0.0238486
0.0358195,-0.00182618
-0.11235,0.00787205
-0.184158,-0.00699869
0.0465001,-0.0639036
0.273571,-0.015218
0.394695,0.0077069
0.454271,0.0404187
0.248797,0.0562056
-0.0431502,0.0164977
-0.219018,0.00213384
-0.422089,0.0122119
-0.315825,0.019622
-0.136684,-0.0038743
-0.157422,-0.0214625
-0.171826,-0.0219121
-0.0921781,-0.0342444
-0.0423246,-0.0252222
-0.0340271,-0.00363385
-0.0229848,-0.000124519
-0.00506313,0.00387031
0.0131279,0.00733145
0.0233154,0.00793238
0.0469689,-0.0044291
0.078456,-0.0052453
0.0978079,0.0208057
0.0893759,-0.00886646
0.0561691,-0.0140111
0.0128823,-0.00205049
0.0226535,-0.00552433
0.0619804,0.0102975
0.0988607,0.00315699
0.0998556,0.00900638
0.0670879,0.0150762
0.0472932,0.00644259
0.0386673,-0.00274247
-0.0262868,-0.00342406
-0.089115,3.55e-05
-0.0926151,0.00457311
-0.0846296,0.00812579
-0.078976,-0.000655384
-0.0547884,-0.00582912
0.00935064,-0.00738043
0.0727761,-0.0136241
0.0760523,-0.0146761
0.0591603,-0.0051528
0.020524,0.00591215
-0.0272824,0.00723207
0.0132718,0.00428895
0.0419434,-0.000365765
0.0069845,0.00978739
0.0833946,0.0342367
0.256136,0.0463285
0.322423,0.0104469
0.2384,-0.0198946
-0.0662615,-0.00800226
-0.412983,-0.00691882
-0.482907,-0.0143912
-0.321362,-0.0456678
-0.000256444,-0.0749166
0.162588,-0.0179146
0.208638,0.0244972
0.126642,0.0165177
-0.0678264,0.0175381
-0.199275,0.0232711
-0.201971,0.0140195
-0.106447,-0.00102747
0.0786579,-0.00602343
0.323312,-0.0105088
0.422801,0.00486017
0.265111,0.0223659
-0.121433,0.0101187
-0.435134,0.0112944
-0.41629,0.0103439
-0.205303,0.00296417
-0.0756781,0.00695432
-0.0110679,-0.00565361
0.0358639,-0.0320186
0.0798062,-0.00809978
0.170649,-0.0160832
0.182703,-0.0446202
0.0845306,-0.0295789
-0.011685,0.0203445
-0.101261,0.00472371
-0.101374,-0.0134093
0.00202652,0.0219839
0.0294545,0.0470536
-0.0244694,0.037099
-0.0574894,0.0291235
-0.0240163,0.0254541
0.022295,0.0225646
0.0562887,-0.00380997
0.0453881,-0.054772
0.0325401,-0.0788431
0.0327012,-0.0365916
0.028229,-0.016161
0.0136056,0.00965758
0.00217084,0.0361309
0.039097,0.00728475
0.111527,-0.0585891
0.155299,-0.0290055
0.018272,-0.00232639
-0.0945368,-0.00804147
0.00726138,-0.00452367
0.0385857,0.0376177
0.054296,0.035971
0.025351,0.00477295
-0.0964071,-0.0469043
-0.154408,0.0159373
-0.122189,0.0687799
-0.043346,0.0403329
0.0237842,0.0221456
0.0358151,0.0191775
0.0198398,0.0183485
0.00192881,0.0175006
-0.000648115,0.00757812
0.00339614,-0.0160641
-0.00234071,-0.0493647
-0.0352196,-0.0409288
-0.061127,0.0159079
-0.0306168,0.0468964
0.0199491,0.039101
0.058319,-2.99e-05
0.0347059,-0.0103971
0.000915098,0.0044586
0.0394604,0.00463263
0.0978173,-0.0117065
0.0352556,-0.0226394
-0.0331241,-0.0207245
-0.0349597,-0.0222368
-0.0251517,-0.0436035
0.0117827,-0.0418328
0.0256933,3.83e-05
0.00330477,0.00648744
-0.0215799,-0.00582603
-0.0624868,-0.0165819
-0.0865224,-0.0465379
-0.0801407,-0.0216356
-0.0500258,0.0142341
-0.0405212,0.0561364
-0.021582,0.0524179
0.0256429,-0.0054483
0.167097,0.00315982
0.293806,0.0271779
0.320959,0.0122989
0.225354,-0.0148967
-0.0330023,-0.00906902
-0.250421,-0.00716317
-0.330242,0.000531946
-0.290361,0.00771632
-0.152998,-0.00359692
-0.0705174,-0.0049941
-0.0288005,0.00450348
-0.00901169,0.00604171
0.0055384,0.00212887
0.00901242,0.00603749
0.0246724,0.0185509
0.0923534,0.0140652
0.217229,-0.00982399
0.280748,-0.0189937
0.19127,-0.0127049
0.0680179,0.00238387
-0.0246391,-0.00446715
-0.0800891,-0.0388364
-0.0202491,-0.0160798
-0.0400223,-0.0194487
-0.191659,0.0138687
-0.172084,0.0268573
-0.0295108,0.0546194
0.168148,0.0418215
0.202499,0.00179239
0.0403219,-0.0205479
-0.169636,0.00276292
-0.314406,0.0234323
-0.316463,0.0348183
-0.161209,0.0310095
-0.0366622,-0.0022346
0.0330666,-0.0565098
0.0770407,-0.0794134
0.094203,-0.0447266
0.0962931,-0.0424911
0.0857537,0.000618313
0.0908219,0.0662901
0.080386,0.0397939
0.0737943,-0.00213349
0.0472391,-0.0349264
-0.0151142,-0.0553493
-0.0181638,-0.0256393
-0.00925039,0.0136927
-0.00520472,0.0175456
-0.0170177,0.0114074
-0.061017,0.013513
-0.057918,0.0253087
0.0278465,0.0247943
0.0448613,0.0140913
0.0273078,0.00438847
0.0265783,0.000964957
-0.00211848,0.0130127
-0.0183528,-0.00246416
0.013029,-0.0108815
0.127209,-0.00644556
0.222376,0.00701051
0.22417,0.0183275
0.153009,0.00715601
0.0539428,-0.0192233
-0.0266653,-0.0241264
-0.140883,-0.0129801
-0.237704,-0.00895363
-0.183548,-0.0128929
-0.152922,0.0188952
-0.0504798,0.0117027
0.155128,-0.000244403
0.208996,0.0127173
0.0866721,0.025021
-0.0980792,0.0369175
-0.194435,-0.0146556
-0.135589,-0.0233958
-0.13962,-0.00517889
-0.149802,0.0091817
0.000463596,0.00619612
0.0362354,-0.0310529
-0.0387916,-0.027712
-0.117892,0.0014142
-0.0483878,-0.0015663
0.0913152,-0.025372
0.210062,-0.0407378
0.237619,-0.0238576
0.130483,-0.00516222
-0.0139099,0.0234954
-0.129404,0.0331025
-0.0868802,0.0139683
0.0392447,0.0134236
0.155716,0.00399878
0.130758,0.00228461
-0.0170198,-0.0111806
-0.0908587,0.027341
-0.0966158,0.0239739
-0.16593,0.0189687
-0.150649,0.00846415
-0.0844836,-0.0307929
-0.0181892,-0.0174191
0.0273282,-0.0129534
0.0288025,-0.00504266
0.0272656,-0.00151494
0.0474776,0.00588
0.0428715,0.0126268
0.00699836,-0.005896
0.000599979,0.0121173
0.0172,0.00360019
0.0489725,-0.045128
0.12638,-0.0391775
0.199432,0.0115392
0.16628,0.0318616
0.0638583,0.0384498
-0.0378076,0.0483343
-0.142942,0.0281829
-0.173739,-0.0150895
-0.0897933,-0.0389465
-0.043461,-0.0351427
-0.0303804,-0.014691
0.00310808,0.00190507
0.0292652,0.0131352
0.0165881,0.0167659
-0.00723063,0.0160614
-0.0230343,0.00817403
-0.0281168,0.00122294
-0.0120589,-0.00715403
-0.000242199,-0.0111313
-0.00944363,-0.00684594
-0.0293461,0.00220132
-0.0289101,0.00573967
-0.00323302,0.00700939
0.0181614,0.0103221
0.00616762,-0.0116919
0.0143067,-0.037311
0.0202422,-0.0186647
0.0494699,0.00102235
0.102733,-0.0125498
0.141486,0.00558153
0.167572,0.0307277
0.166824,0.0354045
0.172562,0.019159
0.165912,-0.00687243
0.0870541,-0.0153773
-0.0841084,-0.011378
-0.213761,-0.00395224
-0.26237,-0.00893396
-0.232761,-0.0299457
-0.189076,-0.0399096
-0.131781,0.0316513
-0.174862,0.0457231
-0.170196,-0.0160756
-0.0548099,-0.0360808
0.0167096,-0.029078
0.0447511,0.0099999
0.0744238,0.0144042
0.0851369,0.0153149
0.0526279,0.0196837
0.000681891,0.0203311
-0.0368226,0.00768475
-0.0284233,-0.00751179
0.0118658,-0.00953267
0.00506599,0.00388884
0.00044035,0.0164095
0.0282486,-0.0155154
0.0857731,-0.0358186
0.123081,0.0257412
0.116332,0.0275301
0.0559159,0.00254144
-0.0119166,0.00138727
-0.0262336,0.00533662
-0.0441837,-0.00900185
-0.0370303,-0.027346
-0.0305019,-0.0128061
0.00342186,0.00461621
0.130214,0.0371834
0.257324,0.0263218
0.266641,0.0102263
0.140955,0.00142495
-0.043514,-0.024211
-0.239577,-0.0842315
-0.331781,-0.018299
-0.188093,0.017053
-0.0305865,0.00426931
0.0458109,-0.0166908
0.0495657,-0.0116474
0.00476948,0.0010095
-0.0430043,0.0119964
-0.0983509,0.0146127
-0.10963,0.0132793
-0.078227,0.0142163
-0.0306444,0.0161903
0.0277916,0.0125833
0.048775,0.00609583
0.0591683,-3.74e-05
0.0234629,0.00531298
-0.0267059,0.0103769
-0.0127986,0.00845527
0.0109872,0.0101449
0.080811,0.0153465
0.157712,0.0158312
0.181073,0.0105142
0.21674,0.000477061
0.228721,-0.00781402
0.213191,-0.0169973
0.140057,-0.0188871
0.00397079,-0.0448122
-0.252656,-0.0397769
-0.287997,-0.0641123
-0.0166932,-0.0414159
0.13436,0.0234034
0.0684272,0.00617015
-0.224053,0.0126109
-0.459796,0.0337182
-0.336109,0.0492696
-0.109489,0.0607491
-0.0152751,0.0222971
-0.0517901,-0.0124438
-0.0786572,-0.00523218
-0.0136662,-0.00746682
0.0144557,-0.0303746
0.00930523,-0.0192072
0.0126822,0.0146711
0.0459653,0.00301915
0.0784535,0.000381896
0.0434564,0.00430463
-0.00291559,-0.0163649
-0.000567752,-0.0241228
0.0497702,-0.0131474
0.097657,0.0127877
0.117936,0.020938
0.122744,0.00948374
0.0957453,-0.000464443
0.0551177,-0.000126627
0.072322,-0.00194873
0.126829,-0.0229511
0.148309,-0.00930449
0.0707837,0.0123772
0.066513,-0.002066
0.0646001,-0.0172475
-0.0757394,0.00526538
-0.161322,0.0250819
-0.181199,0.0156432
-0.196596,-0.00418966
-0.137912,-0.013361
-0.091802,-0.00780381
-0.0317339,0.00816124
0.022667,0.0163858
0.0456738,0.0202233
0.0780207,-0.00525844
0.0928391,-0.0255622
0.118255,-0.0123179
0.148682,-0.0849584
0.145204,-0.0987231
0.0503098,0.00897098
-0.0603486,0.0193016
-0.129016,0.0158078
-0.192966,0.0654097
-0.123445,0.0664653
0.0293302,0.0523321
0.0914915,0.0253522
0.0770286,0.00296897
-0.0143122,-0.0144444
-0.116794,-0.0130298
-0.103079,0.00186694
-0.0724757,0.00364705
-0.0661616,0.00248474
-0.0238209,0.00858787
0.0137194,0.0143505
-0.000633588,0.0163209
-0.0338912,-0.00314569
-0.0501241,-0.0254177
-0.037363,-0.00396615
0.00020534,0.016005
0.0291668,0.0100851
0.040071,-0.00117423
0.0552319,-0.0210449
0.112537,-0.0562492
0.217837,-0.0264714
0.279855,0.0123621
0.206916,0.0076974
-0.0304723,0.00880832
-0.227557,0.00532757
-0.114581,0.00250355
0.166926,0.0198582
0.254681,0.0230162
0.0402211,0.0119052
-0.274523,0.00339218
-0.415248,-0.00322052
-0.269247,0.00216217
-0.10266,0.0264195
-0.000772528,0.031842
0.141708,0.0331864
0.121701,-0.0113081
-0.0817306,-0.061271
-0.145354,-0.0842577
0.00914463,-0.0762852
0.165967,-0.0409914
0.172324,-0.0106957
0.0892261,-0.0231478
-0.0061366,0.00269508
-0.0374524,0.0296581
-0.00194336,0.0210608
-0.0170823,0.0177209
-0.0891983,0.0081392
-0.105326,0.00305967
-0.0309737,0.00840559
-0.0301843,0.0148755
-0.0428365,0.0200752
0.0574344,0.019506
0.122259,0.0181368
0.09578,0.026507
-0.00816651,0.0341485
0.08071,0.0108091
0.328035,-0.0220706
0.398311,-0.0354793
0.26235,-0.0373739
-0.0320742,-0.038316
-0.297158,-0.0134181
-0.266316,0.0374794
-0.296474,0.0481163
-0.399515,0.028567
-0.263461,0.00459765
-0.0813247,-0.00850314
-0.0179689,-0.0674907
-0.0221691,-0.0628226
0.00495917,0.0177417
0.0388355,0.0176059
0.0269392,0.00858378
-0.0124158,0.0125484
-0.0292893,0.0100627
0.017204,0.00562882
0.0819958,0.00134421
0.13288,-0.01927
0.173966,0.00703906
0.145991,0.0332036
0.15738,0.0143826
0.2414,-0.0012326
0.244604,0.0177252
0.229203,0.049699
0.0986468,0.0288444
-0.160205,-0.0115956
-0.183991,0.00349287
-0.187545,0.0193435
-0.261184,-0.0207829
-0.203739,-0.0533902
-0.123494,-0.0434053
-0.0597812,-0.014219
-0.0496426,-0.00518938
-0.0297145,0.00149379
0.0461768,-0.00361408
0.0923876,-0.0138087
0.0544557,-0.0124655
-0.0375267,-0.00463741
-0.0967077,0.0154733
-0.0302814,0.00838422
0.0402742,-0.0194865
0.0671626,-0.0107005
0.0681902,-0.0364214
0.0604814,-0.0602205
0.0116323,-0.0111782
-0.00421581,0.0374962
0.00630469,0.0670026
-0.0134459,0.0516715
-0.026612,0.0186779
0.0434025,0.0216123
0.147316,0.0169414
0.129736,-0.00813966
0.0305382,-0.0365675
-0.139141,-0.00232096
-0.172862,-0.0228485
-0.0184982,-0.0248447
0.183608,0.0126893
0.263119,0.0178048
0.180873,-0.00459033
0.0351088,-0.0151142
-0.0894357,-0.00881894
-0.0879215,-0.0359593
0.0248596,-0.0149962
0.0557773,0.0411782
0.0227312,0.0226046
-0.0172882,-0.00118363
-0.191394,0.0121457
-0.363996,0.0287508
-0.311557,0.0124492
-0.13493,0.00762487
-0.0300171,0.0196379
0.00254659,0.0152955
0.0250701,-0.00263958
0.00735955,-0.0135549
-0.00797186,-0.0185075
0.00120609,-0.0193333
0.0190522,-0.0105257
0.0763185,-0.00893905
0.207743,-0.012929
0.227052,-0.00887994
0.192231,0.00242861
0.0635469,0.00681981
-0.145113,0.00725856
-0.209925,0.00840251
-0.0584572,0.00406049
0.0922309,-0.00510027
0.109823,-0.000153678
0.0484344,0.00625121
-0.0637424,0.00362207
-0.0791844,0.00574933
0.0214344,0.0117114
0.0801308,0.0225893
0.133739,0.0247811
0.1364,0.0138708
0.0367618,-0.00302333
-0.0762283,-0.0231801
-0.117374,-0.017214
-0.134275,-0.0207155
-0.13863,-0.0167098
-0.0506225,-0.00415724
0.053558,-0.0210168
0.0279371,-0.0334677
-0.0883432,-0.0351486
-0.17818,0.00638136
-0.101858,0.0357515
0.00477078,0.0280233
0.0838328,0.0144163
0.175658,0.00373191
0.253229,-0.00551678
0.209051,-0.0115232
0.0677689,-0.0166509
-0.134125,-0.0128014
-0.17394,-0.00631465
-0.0785121,-0.019663
-0.0239626,-0.0149565
0.0227017,0.0135988
0.024181,0.0322015
-0.0642973,0.039072
-0.0656744,0.0223333
-0.0124705,0.0066916
0.0752741,0.0150388
0.130997,-2.48e-05
0.0572972,-0.00109629
0.0157394,-7.64e-05
-0.0307463,0.0110581
-0.0961594,0.022736
-0.0465104,-0.00808001
-0.0598134,-0.0554388
-0.0544104,0.0121843
-0.035977,0.0211764
-0.0468349,-0.00251025
-0.0427758,-0.0178703
-0.0120372,-0.0156935
0.0322354,-0.0291434
0.0639255,-0.0290443
0.0525342,0.00168765
0.0992507,0.0302738
0.149141,0.0240089
0.124769,0.00229705
0.0210076,-0.0470295
-0.141066,-0.08523
-0.19947,-0.0165195
-0.0987182,0.0471141
-0.0233195,0.033632
0.0298912,0.0163392
0.0381859,0.00747868
7.32e-05,-0.00243112
-0.00939732,-0.0222016
0.00381703,-0.00616696
0.0329963,0.0237757
0.0725042,0.0303699
0.0835693,0.0259029
0.0510426,0.0234953
-0.043387,0.0265062
-0.102123,0.0347833
-0.0521878,0.0363353
-0.0133126,0.00498877
0.0910622,-0.0201607
0.220325,-0.0253094
0.221702,-0.00394925
0.136368,-0.0203144
-0.0780572,-0.0385945
-0.213128,-0.102201
-0.0790032,-0.132529
0.0395884,0.000303729
0.123698,0.0292596
0.225358,0.0111705
0.180287,0.0211935
0.00343882,0.0377585
-0.204601,0.0335131
-0.345259,0.0192111
-0.300359,0.0128526
-0.140929,0.0147395
-0.0727721,0.026157
-0.00062209,0.0510053
0.117823,0.0606182
0.0474253,0.0119024
-0.100426,-0.0425283
-0.169063,-0.0714492
-0.169731,-0.0194573
-0.0843849,0.020869
0.00994933,-0.0174743
0.0533998,-0.00295429
0.0977092,0.0325666
0.091694,0.0216443
0.026329,-0.00163786
0.00689634,-0.0128192
0.0174879,-0.0127133
0.0410722,8.4e-05
0.0606366,0.0196889
0.0558024,0.0227025
0.0443932,0.0115178
0.037063,-0.00654757
0.0424335,-0.0200482
0.0598175,-0.0187976
0.127316,-0.0319754
0.18715,-0.0195587
0.13777,0.00820995
0.0320633,0.00940969
-0.125672,0.000439309
-0.194097,-0.00338676
-0.101771,0.00323021
-0.026847,0.0087452
-0.0154814,-0.00205732
-0.017948,-0.00186298
-0.0041125,0.013031
0.0277214,-0.00243941
0.0124562,-0.022874
-0.0241265,-0.0176863
0.00961462,-0.0100183
0.0687215,-0.0264579
0.0787771,-0.0398905
0.0155797,0.00963201
-0.0837405,0.0326369
-0.110006,0.0220383
0.00601965,-0.00589009
0.117324,-0.0177112
0.103991,0.0169586
0.047826,0.0318804
-0.00690227,0.00525534
-0.0275911,-0.0108892
-0.0274818,-0.00774499
0.00975601,0.00915811
0.053762,0.0202788
-0.0210442,0.0246448
-0.151014,0.0152273
-0.170434,-0.00630018
-0.128713,-0.00799254
-0.0915714,0.000472537
-0.0761381,0.00265625
-0.0294636,0.0044298
0.0443472,0.00464107
0.0925766,0.00248569
0.0746667,-0.00119199
0.0527049,-0.021826
0.0837942,0.00201088
0.167595,0.0283519
0.173839,0.0283472
0.0593225,0.00528656
-0.124656,-0.0185117
-0.211938,-0.0172736
-0.0671699,-0.00758561
0.055148,0.00265038
0.114149,-0.0103463
0.197368,-0.045855
0.146023,-0.0645526
-0.0151347,-0.0420553
-0.237056,-0.0325681
-0.320482,-0.00530945
-0.14556,0.0432597
-0.00232446,0.0406139
-0.036164,0.0192822
-0.0696252,0.00101305
-0.0395594,-0.00915969
-0.0118611,-0.00594355
0.00941891,0.00554741
0.0130202,0.0194223
0.044576,0.0169197
0.0988541,0.011007
0.127251,0.00786517
0.107447,0.0223053
0.0172022,0.0383675
-0.105638,0.0342294
-0.157111,0.024498
-0.0506169,0.0196671
0.0526095,0.0153162
0.198993,-0.00594016
0.341885,-0.0179008
0.312858,-0.0196625
0.241362,-0.0331929
0.00529392,-0.0530352
-0.194838,-0.0638511
-0.151618,-0.0511161
-0.178408,-0.0131274
-0.256679,0.0352205
-0.215129,0.0195292
-0.06829,-0.01659
0.0626828,0.0134257
0.103613,0.0190775
0.0826568,0.00538298
0.0262616,0.000179703
0.0258143,-0.0200163
0.132558,0.0123058
0.194506,0.0135862
0.0992852,0.0129335
-0.138428,0.0198117
-0.332027,0.0240205
-0.319746,0.0262311
-0.189262,0.00550345
-0.0686343,-0.012875
0.0120509,-0.012621
0.0641639,-0.0120771
0.0620019,-0.0125422
0.0379274,0.0024713
0.0422933,0.0167266
0.0754647,0.00492924
0.154589,0.00494037
0.137968,0.00302526
-0.0155924,-0.0256668
-0.124137,-0.00145083
-0.0762205,-0.000940184
0.0854077,-0.00266617
0.246671,-0.00833104
0.30521,-0.0221543
0.194092,-0.0170239
-0.285212,0.0169076
-0.287532,0.0269014
-0.157489,0.0103039
-0.0396646,-0.0188593
0.0173406,-0.0119312
-0.00531182,-0.00189158
-0.0214448,0.00482753
0.0615577,0.00913968
0.116059,0.00930538
0.0883098,0.0144858
-0.00250764,0.0347681
-0.0839074,0.0414506
-0.0250826,0.0193657
0.0858202,-0.057345
0.101879,-0.142273
0.0233325,-0.106883
-0.101474,-0.014115
-0.154815,0.0545524
-0.133316,0.0537812
-0.0355376,0.0355163
0.0710284,0.0245192
0.123885,0.0159238
0.120623,0.00934186
0.0877952,0.0109993
-0.0471653,0.00786191
-0.135339,0.0103673
-0.0685584,0.0331753
0.00714195,0.0467189
-0.0276976,-0.00191504
-0.0729223,-0.082502
-0.0811193,-0.0459485
-0.0476273,0.00192086
0.0147125,-0.00969201
0.0595704,-0.00317107
0.0938337,0.0101614
0.109972,0.0172657
0.0977412,0.0176756
0.0313838,0.0130337
-0.068912,0.00153251
-0.112528,-0.00279614
-0.063023,0.00926279
0.0225531,0.0121676
0.0721202,-0.00573662
0.0537359,-0.0238208
0.00158754,-0.00607989
-0.0468864,0.0141045
-0.0638973,0.00292354
0.0307116,-0.0086781
0.11555,-0.0139552
0.123489,-0.0118462
0.101434,-0.00606759
0.121013,-0.0246063
0.106874,-0.015301
-0.00258864,0.0260195
-0.22031,0.0215414
-0.340625,0.00988431
-0.244511,0.0211103
-0.120238,0.0431704
-0.0467949,0.035136
-0.00668528,0.013518
0.00954324,-0.00605888
0.06185,-0.0148272
0.162904,-0.00599296
0.216992,-0.0215557
0.142479,-0.0494928
-0.047883,-0.0529601
-0.157239,-0.0611402
-0.119599,-0.0624528
0.0280923,0.0215147
0.0983054,0.0452038
0.0670136,0.0167884
-0.042535,0.0135105
-0.0899392,0.0246921
0.109488,0.0383981
0.26876,0.050731
0.180626,0.029648
0.0130207,-0.00069324
-0.161466,-0.0174864
-0.242206,-0.0176588
-0.170999,-0.0179886
-0.194401,-0.00646929
-0.108296,0.00845692
0.161594,0.0119923
0.316072,-0.00105868
0.254407,-0.013
0.0447676,-0.00736154
-0.166265,-0.00411945
-0.208234,-0.0114533
-0.0867642,-0.0121229
-0.0294485,0.0019038
-0.0627675,0.00530456
-0.0538436,-0.0309594
0.0280458,-0.0164119
0.0373312,0.0302459
0.00790388,0.0235813
-0.0190403,-0.00163561
-0.0318958,-0.0138653
-0.017132,-0.00935093
0.0493263,0.00758534
0.111421,0.0218709
0.0874582,0.0259227
-0.0266657,-0.0134035
-0.107585,-0.0285279
-0.0575512,0.0224936
0.0347673,0.00955475
0.113582,-0.0230197
0.0898991,-0.021425
0.0218372,-0.00289811
0.0118111,-0.00183449
0.00967876,-0.00447602
-0.0232238,-0.00306348
-0.0492,0.00230884
0.00294041,0.00441633
0.0425162,0.00041035
0.0216334,-0.0046355
0.026968,-0.0216324
0.0622482,0.0026697
0.0879326,0.0379273
0.163896,0.0329967
0.19915,0.0130383
0.185772,-0.00365012
0.100157,-0.0137466
-0.163517,0.000505868
-0.363045,0.0110655
-0.35879,0.0060162
-0.275228,0.00280928
-0.150179,0.00536488
-0.0493493,0.00448469
-0.0134456,0.00561272
-0.0147412,0.0119561
-0.0295899,0.0126948
-0.0299606,-0.0144645
-0.000696126,-0.0581968
0.0210808,-0.0309704
0.0402388,0.0232496
0.0907582,0.0247639
0.134784,0.0146691
0.140285,0.0206165
0.10565,0.0209913
0.0238671,0.00779764
-0.0236572,-0.00394168
0.0213744,-0.020908
0.0993366,-0.0302448
0.230938,-0.0200795
0.284788,-0.0283285
0.165303,-0.0310537
-0.0387033,0.00608859
-0.289178,-0.000388729
-0.325575,0.00149512
-0.125638,-0.0210558
-0.0407341,-0.0235357
-0.0834425,0.0147305
-0.10655,0.0218993
-0.0788333,0.0087809
-0.0422341,-0.00253976
0.0211249,-0.00179984
0.0524629,-0.00331996
0.0469554,-0.00438514
0.0239976,0.00117454
-0.0163875,0.00420962
-0.012481,0.0117813
0.00326719,0.0263611
0.00697699,0.0215993
0.0191575,0.0180828
0.00511005,0.0151545
-0.0072363,-0.0163924
0.0136094,-0.0289239
0.0598776,-0.0082673
0.0926614,-0.000703094
0.155842,0.00349652
0.172239,0.0080529
0.072796,0.00165334
-0.0447256,0.00448605
-0.146265,0.0115849
-0.155421,0.00978836
-0.0423064,-0.00193581
0.0540796,0.00561871
0.128243,0.0133429
0.132435,0.000412475
0.0815933,0.0106527
0.0748365,0.0290738
-0.000141395,0.0260684
-0.150432,0.0128695
-0.174788,-0.0126366
-0.134666,-0.0789572
-0.0894516,-0.0933745
-0.0119647,-0.0385138
-0.0266449,0.0065885
-0.116429,0.0286638
-0.0943048,0.021942
-0.0190788,0.0118918
0.0250001,-0.00151946
0.0377645,-0.0161945
0.0371116,0.0322459
0.0553857,0.0290728
0.129129,-0.0161763
0.180887,-0.0475777
0.147821,-0.0394187
0.049697,0.00680103
-0.11428,0.0168811
-0.223457,0.0226836
-0.147028,0.0328472
-0.0626029,0.018138
-0.0119694,0.00400134
0.045075,0.0115286
0.0974883,0.0139451
0.0768805,0.00379163
0.00133286,-0.0113075
-0.0321202,-0.0101656
-0.025044,-0.0144328
-0.00479498,-0.00779753
0.00423497,-0.00966881
-0.00301713,-0.0106054
-0.0249395,0.01778
-0.0400992,0.0230039
-0.0202808,0.00870814
0.0165884,0.00182415
0.0378712,0.00523726
0.0362557,0.0074773
0.0101983,-0.000285523
-0.00283123,-0.0126432
0.0196742,-0.0209444
0.0859974,-0.017406
0.133731,-0.00118211
0.126312,0.00967333
0.0767263,0.000546903
0.0152863,-0.00168622
-0.00869838,-7.55e-06
0.0320564,0.011187
0.0769096,0.026153
-0.00835639,0.0210294
-0.125387,0.0218799
-0.15579,0.0163093
-0.173591,0.00129284
-0.140521,-0.0129439
-0.0301151,-0.0184016
0.0218009,-0.0187478
0.0139908,-0.0249106
0.0135319,-0.027254
0.0256926,-0.0170535
-0.0108958,0.00439941
-0.0680094,0.00992393
-0.0924466,-0.00811379
-0.0657075,0.000453957
-0.0226867,0.00775589
0.0411278,0.00283099
0.0476896,0.00326517
0.036644,0.0116905
0.0692261,0.000648027
0.0921305,-0.0312744
0.0703994,-0.046801
0.0143843,0.00162325
0.0167459,0.0348473
0.121318,0.0310091
0.15657,0.0158445
0.10149,-0.000965328
-0.00876547,-0.00558559
-0.171636,0.00130948
-0.232359,0.0144746
-0.146118,-0.0804884
-0.0443076,-0.131719
0.00358568,-0.0146
0.0136093,0.0513409
0.00312188,0.0788161
-0.017267,0.0427739
0.0110593,0.0132511
0.0831551,-0.00497501
0.109884,-0.0212981
0.0607117,-0.0338724
-0.00385561,-0.00308412
-0.0476305,0.0118219
-0.0966562,0.0233808
-0.0395751,0.0225963
0.0727536,0.028582
0.142859,0.0381786
0.144522,0.0280719
0.03122,0.014661
-0.0857192,0.010177
-0.171521,0.00200621
-0.221013,-0.0160566
-0.127775,-0.00262449
-0.0213816,0.00825462
0.0167881,0.00259805
0.00914225,-0.016233
0.00724834,-0.0344371
0.0203772,-0.0306308
0.0405876,-0.023296
0.0924293,-0.0151965
0.244956,0.011071
0.325007,0.00362591
0.231895,-0.0117193
0.0477518,0.00530909
-0.222826,0.0195809
-0.405986,0.0167534
-0.303643,0.0154829
-0.118191,0.00723848
-0.0309566,0.000245383
0.0806395,-0.00256756
0.170836,-0.00471153
0.188291,0.00301735
0.166305,0.0117675
0.0681643,0.029325
0.0344952,0.0136768
-0.0201929,-0.0330612
-0.145902,-0.0295826
-0.16574,-0.0231847
-0.0677793,-0.0189257
-0.080708,-0.00804583
-0.0857007,-0.00919541
-0.0217661,-0.0138273
0.0245189,-0.00165536
0.0425068,0.0121443
0.0247603,0.0130019
-0.0029588,0.00157099
-0.023514,-0.000233381
-0.024043,0.00647882
-0.022487,0.00650802
-0.015624,-0.00863404
0.0166678,-0.0247077
0.0611416,-0.0198568
0.094057,0.00973423
0.110053,0.012389
0.0489359,-0.0113364
0.0126573,-0.0232011
0.0605805,-0.0217153
0.0751371,0.0256617
0.0215859,0.0476084
-0.0275423,0.0236007
-0.0518744,0.0161971
-0.0102423,0.024101
0.0134508,-0.00871436
0.0166614,-0.0151012
0.0209517,-0.000105754
-0.0253086,0.0138544
-0.0402473,0.0111036
-0.0678565,0.00193537
-0.155749,-0.000103684
-0.170799,0.00209658
-0.0887509,0.00375412
-0.0207645,-0.00376786
0.0477285,-0.0108776
0.209907,-0.00737301
0.311822,-0.00456438
0.279149,0.00314277
0.0594379,0.0281165
-0.248072,0.0393252
-0.216759,0.0111759
-0.00343891,-0.0573373
0.0533885,-0.0283507
0.00975818,-0.0122632
-0.0697098,-0.0334217
-0.122719,-0.0123447
-0.115124,-0.00985349
-0.0337554,-0.0164332
0.00262506,-0.00268402
-0.0121503,-0.00207656
-0.076516,-0.00536413
-0.0493065,0.00444069
0.0777563,0.0136544
0.154799,0.014553
0.150747,0.00928228
0.0538637,0.0149709
-0.105002,0.0215858
-0.163354,0.00481907
-0.0885415,-0.00328725
-0.0168219,-0.0046292
0.0232588,-0.000122811
0.0423608,0.0201481
0.048895,0.0117238
0.0836786,0.00493029
0.174654,0.00833087
0.18972,-0.00332097
0.121425,-0.0170339
-0.0264512,-0.0244862
-0.21104,-0.0163714
-0.228414,0.00839322
-0.121909,0.0100061
-0.0190589,-0.0125633
0.038589,-0.000592276
0.0451329,0.00818569
0.0316867,-0.00503185
0.00460268,-0.00851993
-0.0232783,-0.00700817
-0.0303065,-0.00215105
0.00663706,0.0158692
0.0298662,0.0105939
0.0271356,-0.00313254
0.08621,0.00855347
0.149231,0.00558268
0.129615,-0.012568
0.02864,-0.0112262
-0.127981,0.0119527
-0.194157,0.0106683
-0.093828,0.0169517
0.00433858,0.0171216
0.0462689,0.0150657
0.0764297,-0.0302392
0.0706728,-0.0788256
0.00521288,-0.0205298
-0.0672924,0.0340896
-0.0398196,-0.00696739
0.115908,-0.0157195
0.261411,0.0243122
0.303664,0.0159563
0.159646,0.0191227
-0.151192,0.0134152
-0.394845,0.00970635
-0.374386,0.011356
-0.214539,0.00207264
-0.104978,0.00817429
-0.0366468,0.0284184
0.0237848,0.0400713
0.05175,0.0112961
0.038247,-0.0333288
0.0164716,-0.0531838
0.00482156,-0.0259653
0.0251215,-0.00663758
0.0176509,-0.0222243
-0.0384549,-0.0392404
-0.0679111,0.00134234
-0.0439063,0.033578
0.00431621,0.0121537
0.0541942,-0.00983338
0.0797706,-0.0121614
0.0715029,0.0159995
0.00978259,0.027671
-0.00432345,-0.0115432
0.0971218,-0.0188366
0.203035,-0.00152924
0.263032,-0.00921176
0.20004,-0.0320608
0.0349011,-0.0478955
-0.10851,-0.0287541
-0.140052,0.0316117
-0.0940344,0.0398419
0.0697742,0.00724903
0.0572356,0.0103416
-0.133102,0.0395143
-0.216725,0.0323787
-0.217178,0.00183322
-0.152487,-0.0076735
-0.0188191,0.0225739
0.0919287,0.0220496
0.202083,-0.00870844
0.239123,-0.0301068
0.178205,-0.0277638
0.0136806,-0.00301653
-0.207179,0.0164332
-0.306368,0.0147921
-0.212681,0.00643925
-0.063592,0.00204608
0.00163732,0.00504624
0.0191022,-0.014141
0.0312408,0.00217932
0.0738598,0.0221761
0.0961289,-0.0127282
0.0561288,-0.0187395
0.00643004,0.00816187
-0.00166907,0.00740979
0.0281066,-0.00764205
0.0699878,-0.014453
0.0988381,-0.0324377
0.0448229,-0.054951
-0.0321169,-0.0255569
-0.0192656,0.000307279
0.0370117,0.0129285
0.0482974,0.0341696
0.0359399,0.0363103
-0.0153549,0.0246424
-0.0930096,0.0162021
-0.0934964,0.0123627
-0.0391791,0.000716926
0.00601201,-0.00999777
0.023243,-0.00633553
0.0159277,0.00192327
0.0024546,0.00944914
-0.0291303,0.00989182
-0.0386566,0.00306168
-0.00110183,0.00369116
0.0305816,0.0039273
0.0309279,-0.00621963
0.0181542,-0.00888402
0.00917631,0.000209485
-0.0028717,0.00812128
-0.0140958,0.00779815
-0.00738943,0.0104139
0.00262948,0.00016936
0.00980571,-0.0193534
0.018895,-0.0292071
0.0303309,-0.0184399
0.0244108,-0.0286509
0.00122337,-0.00539747
-0.0143542,0.0129967
-0.0215952,0.0108485
-0.0133362,0.00579184
-0.00916332,0.00375395
-0.0169699,0.00544495
-0.0236124,-0.00673367
-0.00946828,-0.0176715
0.00552491,-0.00933512
0.0146161,-0.00465133
0.0120117,0.00568657
-0.00906273,0.0226181
-0.0245456,0.0132505
-0.0125569,0.00163696
0.00731133,-0.0105119
0.0767605,-0.0145909
0.122739,-0.00979181
0.0960476,-0.00118258
0.0184491,-0.000727143
-0.0727583,0.00370821
-0.0963388,0.00457248
-0.0857083,-2.27e-06
-0.124305,-0.00125485
-0.0829076,-0.00543148
0.0452354,-0.00474058
0.109634,0.00951041
0.108046,0.0201262
0.0401527,0.0131679
-0.0191559,0.00900046
-0.00951526,-0.00258198
0.0216313,-0.0145859
-0.0353323,-0.019097
-0.123205,-0.00978047
-0.203872,-0.000622058
-0.161757,-0.0040213
-0.0588697,0.00154961
0.0769199,0.0035163
0.265637,-0.00253555
0.351682,-0.00990408
0.27298,-0.00403851
0.06765,0.00723463
-0.163218,0.0127801
-0.204903,0.0114421
-0.0800787,0.0138041
-0.0245723,0.0185113
0.0104188,0.0211386
0.0192266,0.0165017
-0.0217843,-0.00135841
-0.140186,-0.0146178
-0.221838,-0.00943994
-0.18606,-0.00270491
-0.0541859,-0.00207843
0.0493682,-0.000858582
0.0819938,0.00420591
0.0779322,0.00899387
0.0461766,0.0048216
-0.023114,-0.0051209
-0.0698245,-0.00443836
-0.00172365,-0.000922945
0.0757383,-0.00856162
0.0934543,-0.00774036
0.0778509,-0.00280896
0.0241661,-0.00385409
-0.0497133,-0.00160158
-0.028297,0.00103883
0.0404896,-0.00474955
0.0790008,-0.00565622
0.0758173,-0.00510235
0.068939,-0.00507937
0.0313556,-0.00892545
-0.0263244,-0.00458266
-0.0694369,0.0158326
-0.0761946,0.00725617
-0.0221996,-0.0166942
0.0135832,-0.00995232
0.015086,0.0110721
0.0151179,0.00355481
0.0201751,-0.0221357
0.0213515,-0.00403697
0.0155963,0.0217062
0.0101708,0.00972627
0.00667077,-0.00697629
0.0105124,-0.0113066
0.00546948,-0.000182814
-0.017991,0.010441
-0.0321099,0.0134147
-0.0324693,0.0101092
-0.022471,0.00678236
-0.0134217,0.00298779
-0.0254441,-0.0095138
-0.0521122,-0.00753994
-0.00797793,0.0017105
0.0871481,0.00883618
0.181058,0.0130046
0.2527,0.0066977
0.226398,-0.00479539
0.191509,-0.00225676
0.14959,-0.0052429
0.00192547,-0.00671495
-0.126896,-0.00326933
-0.219869,-0.0103998
-0.316821,-0.0166923
-0.334955,0.00483165
-0.258099,0.0177281
-0.14432,0.0155828
-0.0862386,0.00531896
-0.0490816,0.000237155
0.0605717,-0.00883453
0.199462,-0.0125174
0.217113,0.000616171
0.122038,0.00817885
-0.0940782,0.0100409
-0.254965,0.00179898
-0.105607,-0.00928803
0.00992981,-0.00620379
0.0454528,-0.00638199
0.0677139,-0.00260872
0.0715938,4.2e-05
0.0411687,-0.00214434
0.0100576,-0.00343593
0.00379958,0.000179376
0.0402819,0.00724036
0.0722376,0.00598833
0.0616599,-0.00293351
-0.00666737,-0.00473921
-0.0683768,-0.0058982
-0.0759179,-0.00597184
0.016134,-0.000436699
0.095938,0.0118504
0.112152,0.0106583
0.0951805,0.00628617
0.0363825,-0.00424457
-0.0268325,-0.00413245
-0.00676171,0.00166296
0.0348851,0.00288951
0.0290927,0.00107634
0.00805324,0.000949638
-0.0162647,0.00100258
-0.0911386,-0.00407227
-0.165313,-0.0147316
-0.213312,-0.022929
-0.22526,-0.0225275
-0.10952,-0.0177982
0.011773,-0.00724028
0.137912,0.015131
0.169398,0.0153898
0.165553,0.0115515
0.135899,0.00470442
0.110345,-0.00460258
0.0518163,-0.00726397
-0.0510907,-0.00320693
-0.0862929,0.00261343
-0.0581196,0.00520749
0.0310589,0.0118847
0.0945443,0.0144393
0.0919072,0.0107366
0.0605442,0.00400322
0.0218881,0.00273588
-0.0118201,0.00290773
-0.033686,0.00248291
-0.0442868,0.00533649
-0.0378963,0.00793269
-0.0249557,0.00959885
-0.0205355,0.00412511
-0.0224327,-0.00562786
-0.0307166,-0.00844494
-0.0463573,-0.00897145
-0.0523027,-0.00554104
-0.0445391,-0.00697588
-0.011336,-0.00480248
0.000742269,0.00444609
-0.0735529,0.010626
-0.0850586,0.0133052
-0.0195619,0.0155775
0.0916714,0.0147025
0.115054,-0.00430202
0.00385298,-0.0204605
-0.14833,-0.0275322
-0.226862,-0.015909
-0.147933,-0.00438883
-0.0170467,-0.00399691
0.147767,0.000251605
0.217114,0.00224438
0.20103,0.00145863
0.109829,-0.00193216
0.0429299,-0.0122535
0.0374004,-0.0194043
0.0563354,0.00642624
0.0903743,0.0253952
0.0835092,0.0150437
0.0332932,0.00573058
-0.0298798,-0.00734568
-0.0716556,-0.00245851
-0.067941,0.00721546
-0.0383842,0.0168913
-0.0323267,0.00858592
-0.066749,-0.000864194
-0.09506,-0.00539408
-0.0818219,-0.00886841
-0.182713,-0.0153076
-0.37627,-0.0212125
-0.361029,-0.0187884
-0.112043,-0.0129406
0.212462,0.00585328
0.403225,0.0190885
0.413495,0.00873445
0.277778,-0.0244435
0.117857,0.00198632
-0.00855338,0.0109446
-0.0772092,0.0124996
-0.0757361,0.000186037
-0.0195806,-0.000526658
0.0383688,0.0149363
0.0403038,0.0174795
0.00553766,0.00746223
-0.0391306,0.000251256
-0.064593,-0.00152923
-0.0457168,0.00258744
0.00556394,0.00621603
0.00803541,0.00651455
-0.0187465,0.00781551
-0.0375682,0.00622631
-0.0570582,-0.000314324
-0.0525215,-0.00873575
-0.0456392,-0.00156112
-0.0780513,0.00499634
-0.146459,-0.00147734
-0.13747,-0.00608238
-0.0531427,-0.00340092
0.0572484,0.00519097
0.116248,0.00728745
0.13779,-0.00765312
0.112992,-0.0219399
0.0408839,-0.015694
-0.00772034,-0.00051305
0.0739788,0.00618355
0.235343,0.0158345
0.285526,0.0184551
0.158872,0.00800374
-0.100484,-0.00412875
-0.256992,-0.00515535
-0.124085,-0.00798332
-0.00266049,-0.0215445
-0.0224787,-0.0167071
-0.0875693,-0.0235927
-0.138014,-0.00665459
-0.182186,0.0148743
-0.0811837,0.0173928
0.0666341,0.000740255
0.120563,-0.0175388
0.113233,-0.00378066
0.087583,0.00353727
0.0326762,0.00396848
-0.0474147,0.00478019
-0.216038,0.00640003
-0.409448,-0.000299048
-0.361597,-0.00905576
-0.0922205,-0.00739782
0.215669,0.00404683
0.320725,0.0074407
0.294993,-0.000232116
0.214149,-0.0125921
0.118642,-0.0139243
0.0275888,-0.0127482
-0.0192047,-0.0188305
-0.015599,-0.0279778
0.0130477,-0.0357609
0.0466633,-0.0289166
0.0447928,0.00490628
-9.42e-06,0.0281627
-0.058013,0.0351487
-0.0541598,0.0394205
-0.000333053,0.03618
-0.0020568,0.0224176
-0.10799,0.0150908
-0.198963,0.010772
-0.151468,0.0153012
-0.00315667,0.0218383
0.15461,0.0194229
