Comp Ch 3,Comp Ch 4
-0.00371965,-0.00496158
0.0264073,-0.0189674
0.000257656,-0.0340772
0.0175251,-0.00640629
0.0512356,0.0237607
0.115263,0.0243517
0.148985,0.0136257
0.187789,-0.00392577
0.204074,-0.00774022
0.190143,0.001145
0.296413,0.000884178
0.249325,0.00253684
-0.173251,0.00361314
-0.383128,0.0142551
0.233525,0.00880495
0.653509,0.00610152
0.442262,0.0129701
-0.497428,-0.0108344
-1.19379,-0.0136871
-0.854443,0.00121705
-0.434314,-0.0238325
-0.120254,-0.0279413
-0.0282046,0.00677089
0.0722255,0.0101846
0.102848,-0.00234362
0.0617096,-0.001992
0.032364,0.000191333
-0.0420536,0.0143379
-0.0732031,-0.00539442
-0.0245833,-0.0311441
0.145209,0.0306803
0.329753,0.0407585
0.412229,0.00525995
0.248692,-0.00777517
0.134293,-0.00749141
0.296102,0.00204457
0.304365,0.00841097
0.315027,-0.00207817
0.171925,-0.0172598
-0.0348225,-0.0280552
-0.0724548,-0.0356332
-0.184298,-0.0177991
-0.537124,0.0118485
-0.693035,0.0415131
-0.516516,0.0304231
-0.164967,0.0148341
-0.0824552,0.00321595
-0.058425,-0.00708129
-0.0582635,0.00287303
-0.108462,0.0298757
-0.056101,0.0263398
0.0728203,0.00230768
0.127563,-0.000532459
0.0953275,-0.0169662
0.00787178,-0.0550826
0.0127867,-0.0229737
0.190719,0.0155496
0.581076,0.0181793
0.60597,-0.00149791
0.326983,-0.0277995
-0.0910458,-0.033996
-0.32434,-0.0211905
-0.0992022,0.0211326
0.115004,0.02372
0.360149,0.0087495
0.478119,0.0043604
0.203051,0.000812712
-0.341984,-0.0205923
-0.673096,-0.024233
-0.455766,0.0107983
-0.238047,0.021032
-0.181555,0.0170255
-0.0799981,0.00686184
0.0681933,-0.0116537
0.186374,-0.0210675
0.206423,-0.022575
0.0181137,-0.0088095
-0.127294,0.0171166
-0.0388301,0.0215139
0.0085547,0.0031866
-0.012432,0.00445306
-0.0411416,0.0113621
0.0459222,-0.0121779
0.0885665,-0.0113972
0.0614328,0.0020377
0.043204,0.0146881
-0.013077,0.0111283
0.0782409,-0.00224281
0.365364,0.00562328
0.671104,-0.0207345
0.700046,-0.038135
0.0534958,-0.0129082
-0.762972,0.0296745
-0.833409,0.0412973
-0.455976,0.0313919
-0.097453,0.0163993
0.111745,0.0127776
0.0870923,0.0198249
0.00588523,0.0199535
-0.169747,0.00715158
-0.296736,-0.0206349
-0.132742,-0.0461281
0.165089,-0.0501914
0.268423,-0.0619026
0.180003,-0.0799477
-0.0919359,-0.0532272
-0.192876,-0.023784
0.0472738,-0.00232114
0.224166,0.0110164
-0.0440201,0.0199112
-0.343919,0.0366579
-0.0830935,0.0449305
0.0672164,0.0398061
-0.109561,0.0369415
-0.117446,0.0164758
-0.0038808,0.0101906
0.0477458,0.0209158
0.0199887,0.0341229
-0.0223309,0.0303501
0.0706641,0.0192531
0.248303,0.0176516
0.246241,0.00880984
-0.00408946,0.00547675
-0.0805517,-0.00559707
0.233637,-0.0245881
0.510919,-0.0281953
0.503664,-0.0243349
0.145942,-0.0335069
-0.128714,0.00887712
-0.235838,0.022356
-0.312099,-0.00716815
-0.318451,-0.0440166
-0.190997,-0.0629583
-0.0311769,0.0233043
0.0614991,0.0526894
0.171039,0.0305663
0.205946,0.0230912
0.0476895,0.0218383
-0.0800513,0.0155475
-0.204841,-0.0133744
-0.140601,-0.0311822
-0.188013,-0.0242791
-0.182839,-0.0135689
-0.0846269,-0.0010152
0.0652472,-0.000357688
0.21938,0.0014983
0.316727,-0.00268131
0.354934,-0.0119096
0.194975,-0.0119816
-0.1254,-0.00336829
-0.384261,0.00880122
-0.382102,0.00604461
-0.211065,-0.00937955
0.00800708,0.0112391
0.162647,0.0248852
0.178858,0.012402
0.0108088,-0.0231966
-0.284747,-0.0281127
-0.242511,-0.0145294
-0.091911,-0.000778524
0.0653924,0.0171844
0.164971,0.0103502
0.234986,-0.0185657
0.221742,-0.025215
0.130306,-0.0048631
0.013714,0.00120794
-0.132393,0.0035221
-0.17213,0.0131022
-0.144484,0.00469628
-0.145645,0.00107477
-0.139507,1.59e-05
-0.0890545,-0.0105265
0.00374342,-0.00638988
0.097317,-0.00548298
0.119538,-0.00918975
0.232792,-0.0142359
0.556367,-0.0260197
0.614358,-0.00473606
0.294311,0.0186402
0.209211,0.0204557
0.232779,0.0165036
-0.205229,0.0132033
-0.783095,0.0100788
-0.788831,0.00970036
-0.282282,0.0104886
-0.0152159,0.00779949
-0.0343277,-0.00756681
-0.0761221,-0.0177901
-0.0204203,-0.00913981
0.130671,-0.00421904
0.132963,-0.00549517
-0.152893,-0.000799507
-0.324391,-0.00361189
-0.0879594,-0.00192151
0.166285,0.00620326
0.229708,0.00773088
0.294037,0.0181158
0.196046,0.0354971
0.0560271,0.0234647
-0.182254,0.00486763
-0.345974,0.00333532
-0.101113,0.00728015
0.0421998,0.0025364
0.127064,0.000660428
0.21229,0.00316448
0.222179,0.00380811
0.113347,-0.00128654
0.0105255,-0.00785157
0.00207326,-0.0125159
-0.0792387,-0.0110574
-0.167434,-0.00715638
-0.199212,-0.00944902
-0.100745,-0.0149848
0.01583,-0.00465235
0.0502663,-0.0239771
0.065228,-0.0112355
0.0693135,-0.0339046
-0.00389699,-0.0679951
0.0209185,0.000211374
0.073324,0.0106443
0.020269,0.0224377
-0.0609811,0.0340523
-0.145859,0.024216
-0.0613964,0.0195414
0.0214831,0.0171255
-0.0372709,0.00275863
-0.0476621,-0.00365511
0.134289,-0.00667863
0.419505,0.0129746
0.447578,0.0403972
0.154385,0.0142622
-0.158228,-0.0115713
-0.395989,-0.00959318
-0.259461,0.00281593
-0.0828557,0.0138129
-0.043391,0.0176893
-0.0555479,-0.00351688
-0.0397015,-0.0183374
0.0112795,-0.00951017
0.0423193,-0.00916516
-0.0867292,-0.015447
-0.1499,-0.0155189
-0.0624096,-0.0105968
0.155446,-0.0154042
0.310501,-0.0662205
0.298041,-0.00161168
0.072634,0.0138809
-0.103416,-0.00731643
-0.0879512,0.025417
-0.0811504,0.0464476
0.0138832,0.0475184
0.1385,0.0087471
0.106609,-0.00798593
0.0323786,-0.010068
0.0158366,-0.0130963
-0.195346,-0.0083586
-0.456769,0.00800628
-0.399956,0.0121383
-0.276108,0.00857969
-0.146022,0.006454
0.0356124,-0.00464681
0.136011,0.0084364
0.160374,0.0185206
0.164341,-0.00410013
0.12614,-0.0330631
0.066832,-0.0289843
0.146194,-0.0438524
0.109348,-0.020589
0.145288,0.0261149
0.243301,0.0209506
0.247013,0.00626742
0.142739,0.0180923
-0.0702448,0.0203552
-0.202544,0.000323563
-0.223895,-0.00539742
-0.130906,-0.00263577
0.0532631,-0.00057785
0.142569,0.00298785
0.0256455,0.00204235
-0.218348,0.00335555
-0.182471,0.00222877
0.065954,0.00772232
0.283343,0.00840214
0.296396,0.00604416
0.0482173,-0.00333405
-0.173861,-0.0144431
-0.174596,-0.0150074
-0.122338,-0.0093312
-0.0703957,-0.0158561
-0.0846338,-0.0170072
-0.086652,0.0040603
-0.0961272,-0.0120783
-0.0647782,-0.023806
0.0731779,0.0057893
0.143855,0.0304784
0.132266,0.00405008
-0.0342901,-0.0252023
-0.160352,-0.0067195
-0.101332,0.0185228
-0.0224948,0.0212558
0.0301085,0.0116665
0.0180759,0.0115896
0.0184496,0.00716225
0.055526,0.00947651
0.110337,0.0120481
0.174473,-0.00476649
0.159234,-0.0194864
0.091693,-0.0252494
0.0850729,-0.0156547
0.0163798,-0.00551565
-0.0705456,-0.0066165
-0.168021,-0.00411417
-0.197452,0.00751194
-0.198663,0.00698104
-0.187577,0.0110023
-0.107206,0.0112567
-0.0256066,-0.00319153
0.0169733,-0.00487257
0.0189283,0.000493027
-0.0161037,0.00645405
-0.0294516,0.0102229
0.00381535,0.0128669
0.0436951,0.0139929
0.0374012,0.00415269
0.0166349,-0.00594601
0.0252312,-0.00588731
0.0474588,0.00124574
0.074185,0.00313636
0.144262,0.0041236
0.126429,0.00909419
0.0676194,0.00167886
0.0209549,-0.00905199
-0.0497191,-0.0202482
-0.0127862,-0.0162263
0.198485,-0.00215929
0.345074,-0.023479
0.261996,-0.0178036
-0.120661,0.00999291
-0.247423,0.0294594
-0.151919,0.024437
-0.161633,0.00756032
-0.146206,-0.00331259
-0.195045,0.00681436
-0.245605,0.00604668
0.0637254,-0.015999
0.445729,-0.041902
0.429041,-0.0110877
0.00073969,0.00910037
-0.472462,-0.000935598
-0.437373,-0.012669
-0.0907258,-0.00299372
0.117281,0.0119562
0.0611051,0.0231301
-0.132489,0.0246549
-0.174223,0.00240528
-0.0328268,0.00127925
0.0942785,0.00773375
0.157213,-0.0150261
0.130951,-0.0146382
0.0663208,0.00385145
0.041051,-0.00404643
0.165959,-0.0105287
0.198013,-0.0132677
0.0560409,0.00602988
-0.102613,0.018195
-0.166373,0.0110211
-0.265096,0.00897895
-0.220264,0.0211834
-0.0121352,0.0300885
0.0789514,0.00494989
0.0558786,-0.0153
-0.0757985,-0.0227011
-0.146564,-0.0345731
-0.076369,-0.0281453
0.00916164,-0.00888408
0.167266,0.00309632
0.488357,0.00589236
0.734128,0.00855015
0.703334,0.0119083
0.232412,0.0139318
-0.336946,0.000986665
-0.613692,-0.0041936
-0.535816,-0.0150038
-0.26541,0.00456177
0.108014,0.0196536
0.377127,-0.0061717
0.316192,-0.0202273
0.0183095,-0.00169521
-0.307133,0.0151438
-0.450814,0.000308575
-0.450359,-0.00726821
-0.367324,-0.00509378
-0.169281,0.0174251
0.0595958,-0.0237786
0.109724,-0.0376601
0.038004,-0.0208141
-0.0324661,0.0187673
-0.0463396,0.0388769
0.0918797,0.019262
0.284413,-0.00813508
0.232575,-0.0438626
0.167486,-0.00782942
0.0786439,0.0178947
0.0176529,0.0327556
0.10136,0.0450929
0.0207745,0.0216622
-0.130763,-0.0048991
-0.113174,-0.0345186
-0.0418941,-0.0235362
0.0778553,0.00426593
0.189757,0.00549497
0.176755,0.00453007
0.0732641,0.0103533
-0.0407869,0.00459738
-0.054617,-0.0221878
-0.0112862,-0.0320559
-0.0668863,-0.00854627
-0.157942,0.00850215
-0.102274,0.00901572
0.0418435,0.00352818
0.168455,-0.0152186
0.124714,0.00482465
-0.0320897,0.0393177
-0.135362,0.0351166
-0.0924657,-0.000934046
0.0285468,-0.0165662
0.155483,-0.0150518
0.192895,-0.0111535
0.0921667,0.000429218
-0.127995,-0.000582964
-0.247203,-0.000484823
-0.216053,0.01308
-0.0605234,0.00930285
0.0323806,-0.0462582
-0.0471168,-0.024884
-0.174542,0.0289002
-0.0845377,0.0405081
0.0198954,0.0274014
0.041283,-0.00109042
0.0426478,-0.0205864
0.00703921,-0.030507
0.0156453,-0.0193739
0.102439,-0.00697728
0.200295,-0.00696842
0.242642,-0.0025831
0.199687,-0.0059024
0.126258,0.0125898
-0.0323445,0.0165686
-0.181779,0.010586
-0.366704,-0.00127361
-0.314755,-0.00598617
-0.0614007,0.00170701
0.112132,0.0168598
0.143362,0.0229244
0.0659706,0.00946748
-0.0714171,0.00163303
-0.083196,0.0165118
0.121711,0.000976555
0.258515,-0.0233254
0.190672,-0.0436464
-0.126001,-0.00707757
-0.189703,0.00316332
-0.0342936,0.0018237
-0.034743,0.0321489
-0.121415,0.0226915
-0.136666,-0.0282982
-0.131123,-0.0538117
0.131595,-0.0489827
0.200352,-0.0117931
0.0943698,0.0371832
0.00204968,0.0432238
-0.0189878,0.0363962
0.00443316,-0.00109056
-0.101548,0.00147905
-0.209908,0.00775975
-0.143035,0.0131193
-0.0793656,0.0145801
-0.0693276,0.0165109
-0.0342274,0.020697
0.0463357,-0.0147519
0.144762,-0.0288423
0.308575,-0.0116413
0.441823,-0.00638265
0.363925,-0.00269804
0.126693,0.0109445
-0.0864969,0.0204066
0.160651,0.0132243
0.314419,-0.00837344
0.231913,-0.0236903
-0.122982,-0.00809664
-0.730293,0.0276755
-0.592998,0.0310207
-0.343785,0.0124852
-0.222438,-0.0190995
-0.00498062,-0.049666
0.0502872,-0.0451985
0.0533372,-0.0452677
-0.00113892,-0.0347452
-0.111197,0.019202
-0.102454,0.0261796
-0.0430697,-0.0381553
0.0357508,-0.0435887
0.182589,-0.020981
0.372368,-0.0258582
0.419526,-0.0115104
0.330892,0.025972
0.162439,0.0255956
-0.105498,0.0153709
-0.287175,0.0120782
-0.339988,0.0104767
-0.293866,0.0134767
-0.130763,0.0213778
-0.0287847,0.0275904
0.0153386,0.0218763
0.0512664,0.00779577
0.0702726,0.0129014
0.0820295,0.0121667
0.0916137,0.00474152
0.182968,0.00237594
0.182126,-0.0249876
0.0591447,-0.0201103
-0.102997,-0.0137078
-0.269754,0.0100066
-0.0367488,0.0274581
0.18285,0.00447314
0.219966,-0.00870265
0.0657309,-0.00481379
-0.0761514,0.00635879
-0.171163,0.012396
-0.130348,-0.0109359
0.136375,-0.0237157
0.310823,-0.00442845
0.347438,-0.0200746
0.236799,-0.0053316
-0.0434311,0.0291665
-0.267983,0.0216115
-0.496909,0.00758606
-0.377097,0.0121261
-0.183029,0.0155395
-0.118052,0.000193052
-0.0101601,-0.0289295
-0.00279146,-0.0587976
-0.114529,0.0293255
-0.10402,0.0556461
-0.00389673,0.0253883
0.014279,0.00346758
0.01586,-0.0389376
0.0702689,0.0198053
0.166153,0.0430429
0.172979,-0.0203702
0.0847032,-0.0249938
-0.0839555,-0.00617706
-0.117987,0.00620648
0.0429268,0.0129019
0.253381,0.0219625
0.423761,0.00769321
0.361568,-0.0210784
0.0290538,-0.0283429
-0.238224,-0.0172193
-0.0665005,0.00744424
0.0823693,0.00175538
0.190585,0.00441243
0.0904616,0.0217871
-0.202391,0.0344769
-0.245739,0.0237704
-0.0203706,0.00398794
-0.0980764,-0.015138
-0.320735,-0.06534
-0.337544,-0.0617285
-0.233031,-0.0295508
-0.165105,-0.0340027
-0.10995,-0.0216215
0.0635548,0.0195024
0.401262,0.0477234
0.784233,0.0329477
0.853097,0.0108014
0.406632,-0.00014387
-0.349257,-0.00158481
-0.727347,-0.00518452
-0.37982,-0.0248813
-0.0620938,-0.0266789
-0.0469043,-0.00346174
-0.126856,0.0108364
-0.332125,0.0195348
-0.0988758,-0.00670531
0.010058,-0.0454111
-0.0979419,-0.0223488
-0.0643766,0.0350321
0.148718,0.045731
0.417868,0.0376409
0.489476,0.0067244
0.210301,0.000736802
-0.191799,-0.0197408
-0.440687,-0.0478351
-0.356549,0.00500062
-0.129778,0.0439469
-0.00428544,0.0469285
0.039292,0.020735
0.0754158,-0.00825252
0.158242,-0.0405443
0.245982,-0.0477341
0.283367,-0.0142396
0.153478,0.0137054
-0.166268,0.00466653
-0.264739,0.0143774
-0.0756578,0.0157536
0.0832342,-0.0523219
0.0969061,-0.0781004
0.0056245,0.0384186
-0.0493938,0.0884227
0.00882968,0.053764
0.080114,0.00617888
0.139754,-0.00929529
0.0688587,0.00386818
-0.0711318,-0.00939693
-0.170525,-0.0450963
-0.234514,-0.0242899
-0.157368,-0.00729679
0.0452812,0.00530661
0.236512,0.0332779
0.242145,0.0140953
0.0969924,0.00573633
-0.0196504,-0.00643399
-0.103356,0.0208399
0.0565037,0.021677
0.34334,-0.0421412
0.289303,-0.069211
0.172279,-0.0046527
0.0521579,0.0305194
-0.133787,0.0310033
-0.355338,0.0641125
-0.826533,0.0393529
-0.692354,-0.00745373
-0.221784,-0.0280534
0.030058,-0.0505093
0.0837766,-0.0567314
0.0297175,-0.0618511
0.0448745,-0.0716622
0.340173,0.0499015
0.778285,0.0816211
1.03861,0.00216526
0.745676,-0.0994418
-0.134423,-0.0511707
-0.811092,0.059637
-1.02314,0.083681
-0.819823,0.0616319
-0.296563,0.0368541
0.0428882,-0.000812418
0.206901,-0.0101461
0.259603,-0.000894066
0.218958,0.00297427
0.4072,0.005052
0.547153,-0.00990242
0.239922,-0.00670019
-0.0354195,-0.0228813
-0.275611,0.00480593
-0.509724,0.0353564
-0.488003,-0.0359604
-0.370911,-0.140411
-0.0647717,-0.0458713
0.10722,0.087636
0.0568264,0.089009
0.0715337,0.0366069
0.168811,0.0126632
0.385306,-0.00121126
0.497953,-0.017541
0.260309,-0.0224878
-0.215541,-0.0126347
-0.219132,-0.0194544
0.03553,-0.0181999
0.0966052,0.0636808
-0.0105115,0.0950478
-0.112422,0.0286902
-0.0393826,-0.0390779
-0.00120319,-0.0423176
-0.0401417,-0.0388618
-0.100717,-0.0682513
-0.099193,-0.0667998
0.18062,-0.0212765
0.174285,0.013356
0.0237274,0.0241369
-0.103022,0.0326078
-0.229479,0.00762569
-0.175849,-0.0377781
-0.0414694,-0.00785646
0.102445,0.0100021
-0.00458568,0.00533981
-0.139787,0.0279375
-0.0881738,0.0903128
0.134817,0.0709449
0.363992,-0.00652827
0.534824,-0.0775902
0.504067,-0.0826964
0.125159,-0.0429352
0.0185941,-0.0582918
-0.120454,-0.0349185
-0.205122,0.055139
-0.409055,0.0587253
-0.655877,0.0308599
-0.478376,0.0160199
-0.16384,0.0153758
-0.118411,0.0228126
-0.13859,0.0481603
0.0350371,0.0473218
0.360415,0.00819745
0.422334,-0.0573419
0.127832,-0.0578192
-0.292277,0.01617
-0.371188,0.0374074
-0.140042,0.0631458
0.0341797,0.0309567
0.117926,-0.00134967
0.581325,-0.0108594
0.816494,-0.0233694
0.659539,-0.081109
0.0203616,-0.0860384
-0.684413,-0.0488793
-0.64499,-0.0328557
-0.227529,0.0137141
-0.00302613,-0.010995
0.306858,0.0361619
0.66449,0.0586293
0.419011,0.039157
-0.174534,-0.0181021
-0.777528,-0.126188
-0.827663,-0.0478455
-0.348294,0.0469254
-0.0395049,0.0569777
0.0613279,0.0774629
0.204978,0.0672536
0.330071,0.0309064
0.386601,0.0259895
0.244366,0.0545026
0.070726,0.0431201
0.119892,-0.0446387
-0.00538802,-0.077382
-0.137716,-0.0171745
-0.0198658,-0.00600358
-0.00653808,-0.0249653
-0.103582,-0.0723596
-0.000154956,-0.0472582
-0.144384,0.0510102
-0.0176834,0.0361382
0.266124,-0.125068
0.153693,-0.0501717
-0.331016,0.0536163
-0.482703,0.0148842
-0.173665,0.0171607
0.0529411,0.0423965
0.0585672,0.0506129
0.0268841,0.0197
0.00275369,-0.00982567
-0.0224443,-0.0118376
0.0317695,-0.0291994
0.17079,-0.0301878
0.377914,-0.00144959
0.394437,-0.0169206
0.0496176,0.000473328
-0.406673,0.092452
-0.434789,0.0658567
-0.107342,0.0333021
-0.0128852,-0.00924026
0.0027567,-0.0334879
0.0907376,-0.0483738
0.171537,-0.0254191
0.178394,-0.0129959
0.256559,-0.0487699
0.346359,-0.0574163
0.379301,-0.0189892
0.0873657,0.0394682
-0.427972,0.0876395
-0.505836,0.0590735
-0.439251,0.0328233
-0.282716,0.0409508
-0.115046,0.0133748
-0.0778668,-0.0256884
0.0421416,-0.0445425
0.12275,-0.0726753
0.115694,-0.0187028
0.0517577,0.0194426
-0.070036,0.0055777
-0.0341663,-0.000499603
0.36926,0.0240698
0.83721,0.000199583
0.659883,-0.0167769
0.117701,-0.0185046
-0.299519,-0.0365478
-0.373981,-0.0569107
-0.113822,-0.0578334
-0.0599357,-0.0478677
-0.0975257,0.0170734
-0.0404844,0.0315311
-0.290624,0.0271213
-0.228387,0.029408
-0.0306514,0.0680703
-0.0542874,0.0647511
-0.0876422,-0.0400585
-0.206238,-0.0560709
-0.158452,-0.0851426
-0.0585552,-0.0570676
-0.0356217,0.00749962
-0.0870206,0.0470782
-0.0443892,0.0998067
0.0505846,0.105992
0.00879381,0.0509457
-0.0610075,-0.00897751
-0.00842953,0.00268236
0.206631,0.00517614
0.450853,-0.0251733
0.444992,-0.046974
0.0189654,-0.0437407
-0.303144,-0.00938667
-0.23662,0.0377379
-0.0308362,0.0767334
0.124967,0.0354503
0.342241,-0.0305761
0.390413,0.0354601
0.265929,0.0356743
-0.158376,-0.0130815
-0.520482,-0.0756555
-0.287799,-0.0898436
0.142611,-0.0583916
0.216504,-0.00455168
-0.00901659,0.0272471
-0.372482,0.0333826
-0.0316299,-0.00235803
0.271942,-0.00597851
0.160017,0.0294607
0.0131078,0.0186389
-0.0641111,-0.0109541
0.0991772,0.0380242
-0.0253203,0.0261135
-0.226507,0.0206212
-0.273638,-0.0247866
-0.242043,-0.0574192
-0.0892226,-0.0835497
0.175179,-0.0257984
0.379179,0.0368362
0.404947,0.00316865
0.254699,0.00487554
-0.00758486,0.0186068
-0.276856,0.0278557
-0.45714,0.0273409
-0.362811,0.00615124
-0.139662,-0.0421145
-0.0184348,-0.0483684
0.074191,0.00633523
0.130947,0.0339396
0.115584,0.0123139
0.043849,-0.00947453
-0.0375201,-0.0279851
-0.0634965,-0.0171224
0.00140784,0.0137047
0.0991112,0.0160852
0.146856,0.000393477
0.0436764,0.0145608
-0.104244,0.0123571
-0.189116,0.00707571
-0.0837059,-0.0290198
0.0389255,-0.00149008
0.0315068,0.0364057
0.0281481,0.0626443
0.234482,0.0631695
0.434361,-0.00895175
0.461127,-0.0697298
0.220116,-0.0313476
-0.325508,-0.0558325
-0.508105,-0.0944035
-0.285707,-0.0535787
-0.0832387,-0.0107037
-0.0626746,0.00769486
-0.10959,0.00230651
-0.0255597,-0.0044071
0.202703,0.0276656
0.397407,0.0379388
0.389517,-0.00873748
0.133253,-0.0257959
-0.250701,0.029603
-0.454388,0.0763266
-0.314798,0.09105
0.138197,0.0843944
0.512596,0.0847973
0.459932,0.0999868
0.053572,0.0476041
-0.409948,-0.100961
-0.390413,-0.183198
-0.329384,-0.0861217
-0.252784,-0.0127595
-0.114574,-0.0550575
-0.0694277,-0.0568409
-0.102533,0.0103854
-0.142223,0.0309911
-0.0765374,0.00351467
0.11935,-0.0267389
0.350332,0.0412543
0.467758,0.0303545
0.387869,-0.0565016
0.227409,-0.0264845
-0.0630404,0.0539798
-0.134577,0.0882472
-0.133636,0.066051
-0.219261,0.0249952
-0.148955,-0.0304606
-0.0315909,-0.088168
0.0270027,-0.0913982
-0.00915274,0.0577718
0.0102683,0.0944449
0.00672449,-0.0024921
-0.0955069,-0.0247902
-0.0312382,0.0195297
0.097203,0.0235913
0.037783,0.0159707
-0.0724427,-0.010873
-0.0434188,-0.0361387
-0.00572219,-0.0274047
0.0411373,-0.0402959
0.110641,-0.0867302
0.0184951,-0.0372013
-0.028325,0.043998
0.0379694,0.0227461
0.0631399,0.0197178
0.00705562,0.0240874
-0.0126498,-0.00181676
0.0468737,-0.0273488
0.0368316,0.00850004
-0.0183063,0.0990154
-0.0818984,0.137123
-0.0687571,0.0534253
0.311814,-0.0865334
0.640333,-0.113602
0.476566,-0.0466115
-0.0999774,-0.0208217
-0.736923,-0.0167685
-0.669216,-0.010291
-0.298101,0.0190902
-0.151447,0.0582561
-0.0631868,0.0418207
0.0323839,-0.00235817
0.212821,-0.00428781
0.269346,0.00234721
0.246642,0.0225197
0.345078,0.014293
0.366751,-0.0258717
0.419501,-0.0487124
0.0918585,-0.038969
-0.532174,-0.0111125
-0.832076,0.00711415
-0.639886,0.0118899
-0.292942,0.00572178
-0.0248875,-0.00713339
0.0958357,-0.010237
0.0945763,-0.00102749
0.0664821,-0.00622598
0.0474605,-0.0161748
0.0145536,0.00380565
-0.0118872,0.036476
0.000279237,0.0453933
0.141939,0.0423531
0.514991,0.0500801
0.755044,0.0341352
0.621904,-0.0390447
0.0744878,-0.0532733
-0.416609,-0.06852
-0.472479,-0.0198948
-0.459066,0.0443816
-0.331728,0.0492173
-0.137974,0.0208172
0.0595703,-0.0148527
0.108226,-0.0227759
-0.000578968,-0.0821346
-0.0684251,-0.0972381
-0.0589714,-0.0337406
-0.0103171,-0.00105437
0.0298106,0.013731
0.114471,0.0271841
0.123196,-0.000821772
0.00630759,-0.00129826
-0.0677251,-0.000412032
0.113176,0.0144031
0.193992,0.0457143
0.0679508,0.0565004
-0.015546,0.0304829
-0.0223103,0.0159669
0.0135802,-0.0212834
0.0256289,-0.0488732
-0.0334856,-0.0153679
-0.0399939,-0.0125108
-0.0257842,0.00596729
-0.0563053,0.019772
-0.0954232,0.0483747
-0.113094,0.0668971
-0.114474,0.0266999
-0.0772685,-0.00588265
-0.0507389,-0.0183524
-0.0287507,-0.0168577
0.0219056,-0.0328239
0.0988588,-0.0447786
0.204724,-0.0390524
0.219381,-0.0374458
0.180836,-0.0376787
0.120194,-0.0272496
0.0729973,-0.0224621
0.141936,0.0809168
0.0496222,0.102002
-0.149883,0.0573437
-0.221103,0.0614056
-0.189231,0.084166
-0.10994,0.0649692
-0.0785719,0.00327238
-0.0646157,-0.0614153
-0.065141,-0.0917723
-0.0818249,-0.0922295
-0.0726522,-0.0683104
-0.0189349,-0.0673939
0.00103918,-0.0426128
-0.00682971,-0.00242866
0.0531936,0.0217818
0.141876,0.0372505
0.215537,0.0557234
0.265026,0.046807
0.220548,-0.0227977
-0.00108647,-0.0172226
-0.176694,0.00736101
-0.269768,0.0366658
-0.3244,0.0131724
-0.22493,-0.0148667
-0.0343287,-0.0524012
0.0385732,-0.0562414
0.075772,-0.0194586
0.120223,0.0243268
0.11963,0.0509293
0.215766,0.0375233
0.2982,0.00913103
0.175345,-0.0254192
0.0224529,-0.0442242
-0.0692816,-0.0174645
-0.0680146,0.0360685
-0.0265683,0.0235068
-0.0585276,0.00285397
-0.163001,0.0170072
-0.257353,0.033615
-0.262171,-0.00316505
-0.152538,-0.0714509
-0.0575853,-0.0455245
0.00718139,0.015181
0.0630841,-0.000841772
0.0944313,0.0119484
0.159195,0.0322557
0.208728,0.0211938
0.253567,0.0311381
0.243357,0.0327015
0.060924,0.0341968
-0.10026,0.0256945
-0.181812,0.00924691
-0.20647,-0.00468088
-0.127954,-0.0213917
-0.0878029,-0.0162853
-0.0373959,-0.0140376
-0.00900222,-0.0130136
-0.0100524,-0.0440508
0.0119009,-0.0864487
0.0608625,-0.0635429
0.115169,-0.0443927
0.0929936,0.028889
0.0356086,0.00586275
-0.0672313,-0.0215351
-0.140903,0.0397095
-0.0887621,0.0690682
-0.0032433,0.0757109
0.034011,0.0538623
0.0158792,0.0125935
0.0369828,-0.0153914
0.149971,-0.0196428
0.231251,-0.0174548
0.196147,-0.00985138
0.0262952,-0.00353203
-0.179677,-0.00549131
-0.277606,-0.0279511
-0.196668,-0.0266725
-0.0965957,0.027656
-0.0261008,0.0471752
0.0190944,0.0339669
0.0478159,0.00479082
0.11247,0.0143771
0.157288,0.00652446
0.105997,-0.0180676
-0.0184934,-0.00880421
-0.0981302,-0.0106327
-0.075884,-0.0339892
-0.10772,-0.0341066
-0.090224,-0.0505472
-0.0182807,-0.060602
0.0293551,0.00844044
0.0861628,0.0331175
0.202886,0.0124498
0.221804,0.0132928
0.148159,-0.0143026
-0.0887423,-0.0218932
-0.273877,0.00636702
-0.160507,0.0199542
0.0260715,0.0242357
0.0358519,0.028683
0.00561867,0.0206757
0.0391588,0.0112608
0.0433935,0.0239216
0.0864771,0.0329256
0.00438413,0.00747195
0.010123,-0.0198442
0.070047,-0.00581742
-0.0616706,-0.00499742
-0.0615897,-0.00446631
-0.0899518,-0.0215574
-0.15652,-0.0204326
-0.0190807,0.0316967
0.134787,0.0022695
0.120038,-0.056816
-0.0199235,-0.0284858
-0.139723,0.0334823
-0.143445,0.0340452
-0.0303568,0.0299176
0.0727163,0.0232342
0.120321,-0.0227068
0.0630419,-0.0684839
-0.0851807,-0.0129646
-0.11339,-0.00267725
-0.031243,-0.0169448
0.0113448,-0.00924852
-7.77e-05,-0.0412736
0.00481013,0.00335629
0.00994303,0.0383421
0.00731931,0.0243878
0.0243178,0.00962675
0.0163833,0.00835708
0.00708008,0.00114848
0.0200097,-0.0266425
0.014209,-0.0452099
-0.00746283,-0.00248985
-0.0185257,0.0329183
0.0339511,0.0307695
0.105348,0.0154155
0.0895813,-0.0147514
0.0347544,-0.0114547
-0.0632036,0.00107644
-0.0845659,0.00978898
0.0355048,0.0387058
0.131451,0.0264422
0.148627,0.00378216
0.106939,0.0037383
0.0578636,-0.00760132
-0.0334494,-0.0172999
-0.101044,-0.00150453
-0.127856,0.00162512
-0.220072,-0.0174614
-0.0986578,-0.00844366
0.200381,0.0131738
0.290918,0.0345938
0.128677,0.0205592
-0.203663,-0.00212642
-0.405192,-0.00858335
-0.258842,-0.00139011
-0.0270476,0.0150553
0.0848026,0.0196832
0.0989622,-0.000633758
0.0339573,-0.0318059
-0.10041,-0.0381057
-0.149356,-0.0091912
-0.0589936,-0.0281612
0.00910365,-0.0771545
0.0408254,-0.122175
0.037135,-0.0485599
0.039849,0.0438192
0.0376665,0.104094
0.00206232,0.104134
-0.000846584,0.0622897
0.0843442,0.0158827
0.278733,-0.0137269
0.340801,-0.0379849
0.292032,-0.0726867
0.158869,-0.020528
-0.138699,-0.0163179
-0.117766,0.00187942
0.305753,0.0315493
0.46664,0.0282281
0.325685,0.0167589
-0.1619,-0.0218047
-0.788235,-0.0308792
-0.702915,0.0238732
-0.406737,0.0283216
-0.296383,0.0527728
-0.14226,0.0304376
-0.0385305,0.000858307
0.000977327,-0.0103198
-0.0106469,-0.0107919
-0.0586076,-0.0100984
-0.0442081,-0.00192182
0.0589529,0.0145999
0.19783,0.0229579
0.256959,-0.0067072
0.200527,-0.0246426
0.0138119,0.0115341
-0.0778095,0.022801
-0.0333099,0.000421562
0.0855532,-0.0361738
0.0880741,-0.068151
-0.0400857,-0.0176392
-0.00577018,0.0435778
0.26926,0.0564225
0.386084,0.03112
0.200841,-0.0136034
-0.0465472,-0.047166
-0.192497,-0.0628088
-0.149338,-0.0293277
0.00273195,-0.00588725
-6.94e-05,-0.00403256
-0.112035,0.0118627
-0.238289,0.0165714
-0.197668,0.0131087
-0.0420826,0.0163006
0.0894853,0.0348555
0.163467,0.00584216
0.117785,-0.0669344
0.0620888,-0.0459965
0.00707186,0.0374173
-0.0507933,0.0317937
-0.0454987,0.00886575
-0.0394133,0.020447
0.00419067,0.0271153
0.167984,0.0108428
0.229523,-0.0360817
0.122945,-0.012458
-0.157378,0.0520856
-0.359828,0.031609
-0.217337,-0.00278768
-0.018722,-0.0229553
0.191901,-0.0480318
0.340819,-0.062465
0.316371,-0.0312536
0.149528,0.0203584
0.0197427,0.0147411
-0.0883455,0.0129351
-0.169264,0.0123522
-0.291007,0.00362582
-0.391713,0.0040731
-0.288059,0.00830849
-0.141545,0.0248158
-0.0651387,0.0338775
-0.0280158,0.0212557
0.02198,0.00269954
0.0495379,-0.00235284
0.0310498,-0.00567093
0.0240942,-0.00624713
0.058066,0.00781084
0.1789,-0.00102752
0.273814,-0.0582617
0.31678,-0.046293
0.354039,0.0308802
0.15392,0.015171
-0.058015,-0.00100854
-0.198099,-4.36e-05
-0.294089,-0.0152657
-0.203115,-0.027528
-0.0859018,-0.0577039
0.0581064,-0.0133659
0.20153,0.0380038
0.182051,0.0620417
-0.00871736,0.0562218
-0.204693,0.0470381
-0.0890717,0.00335606
0.130717,-0.0131369
0.156271,-0.0319762
-0.0564562,-0.0454711
-0.365835,-0.0397696
-0.296653,-0.0737784
-0.145028,-0.0524647
-0.0690617,0.035824
-0.00251551,0.0518932
0.0218002,0.0228435
0.0457242,-0.00568419
0.0665596,-0.0397853
0.0572912,-0.0439716
0.00564235,0.0534891
0.000779585,0.0512744
0.090263,0.0101985
0.168259,0.0380162
0.284964,0.0515539
0.45445,0.0230638
0.326535,0.00707831
0.0285236,-0.0162821
-0.319008,-0.0337942
-0.465225,-0.0151211
-0.22784,0.00346773
0.000562484,-0.00138928
0.0543593,-0.00958031
0.0129703,-0.00951635
-0.0837484,0.00856916
-0.131553,0.020236
-0.124299,-0.00790433
-0.0924506,0.0191944
-0.0270471,0.0169126
0.00480366,-0.00786274
-0.00772897,-0.0114786
0.00992239,-0.0248746
0.0444028,-0.0320219
0.0672772,-0.0189599
0.0660338,0.0117947
0.207426,0.0268434
0.390109,0.0140359
0.372806,-0.0176179
0.211952,-0.0401155
0.0243001,-0.0425216
-0.201173,-0.0727761
-0.236527,0.000873792
-0.180746,0.0721285
-0.190906,0.0411035
-0.106003,0.00549994
-0.033944,-0.0104338
-0.0738259,-0.000462392
-0.169553,-0.00582436
-0.147722,-0.00536752
-0.0145313,-0.034917
0.0727156,-0.00322768
0.0972945,0.0369948
0.0529885,0.0153151
-0.00625032,-0.0259583
-0.00492954,-0.0359044
0.0207475,0.0258907
-0.0496166,0.0513379
-0.0853652,0.0476913
0.00178896,0.0483263
0.0395799,0.0369055
0.0707237,0.0187137
0.0909385,-0.0200129
0.054605,-0.0370945
0.139875,-0.0356437
0.21536,-0.0295681
0.17677,-0.00562417
0.161052,0.0220884
0.0990058,0.0186351
0.0935425,0.0051102
-0.111003,-0.00488897
-0.416373,0.023305
-0.299641,0.021227
0.0451864,0.0130947
0.269797,-0.0251771
0.265342,-0.0521336
-0.0315378,-0.0594031
-0.368923,-0.0193836
-0.416666,0.000254137
-0.255787,-0.0223562
-0.0966012,0.0331138
-0.0323655,0.0288661
0.0303545,-0.028127
0.00719569,-0.0183757
-0.0457111,-0.0072066
-0.0228484,-0.00699846
0.0251786,0.00577587
0.0344301,0.0156954
0.0496551,0.021602
0.0535641,0.0134642
0.0799844,0.0114286
0.111613,0.0264831
0.0820959,0.0262319
0.0578499,0.0205549
0.103421,0.031033
0.21216,0.0304095
0.220769,-0.0289301
0.139972,-0.0732316
0.0146655,-0.0826846
-0.125917,-0.00258425
-0.185253,0.0457863
-0.160102,-0.000847701
-0.122266,-0.0109042
-0.103864,-0.0155737
-0.0437932,-0.0153213
-0.0122476,-0.0100949
-0.00419131,0.0142339
0.014399,0.0177051
0.0195712,-0.00205936
0.0495197,-0.00300341
0.208392,0.0145762
0.31371,0.0123164
0.330743,0.0103251
0.194439,0.00984384
-0.040736,0.028727
-0.047185,0.0223063
-0.122641,0.00411836
-0.194597,-0.0126618
-0.138662,-0.0175479
-0.112435,-0.00385875
-0.0279317,0.00153078
-0.0459995,-0.0109733
-0.154886,-0.00900051
-0.271636,-0.00661644
-0.194908,-6.62e-05
-0.0611361,0.00229945
-0.0396411,-8.56e-05
-0.0251995,0.00220328
0.0182759,0.0111314
0.0476678,0.00649035
0.0332613,-0.00853103
0.0260312,-0.014926
0.0143037,-0.0329371
0.00798438,-0.0248226
0.0224033,-0.028748
0.0398662,0.0255372
0.0480131,0.0619621
0.0600781,0.00610678
0.0632488,-0.0259739
0.0516129,-0.0126729
0.0383837,-0.00788334
0.0287752,0.00691723
0.0227037,0.00805736
0.0281188,-0.0169716
0.0520652,-0.02823
0.0862619,-0.0690687
0.0760598,-0.00918686
0.108357,0.0239598
0.155136,0.0323915
0.16497,0.026812
0.0544359,0.0250328
-0.157153,0.0463641
-0.176855,0.0527873
-0.0514636,0.0481438
0.0429479,0.0152941
0.0706809,-0.00614446
0.000728617,-0.00481372
-0.0691083,-0.0322053
-0.173957,-0.0593968
-0.142531,-0.0198846
0.0277161,0.01061
0.0707129,-0.00369796
0.0287276,-0.0237563
-0.0344638,-0.0451438
-0.159559,-0.0358361
-0.23151,0.0209346
-0.23927,0.0170206
-0.154255,0.000161404
-0.0586293,0.0410058
0.0234714,0.0348476
0.0791022,0.00263422
0.0935878,0.0306108
0.0659118,0.0151119
0.0569724,-0.0104036
0.054769,-0.000913123
0.0402284,-0.00389435
0.113949,-0.0274792
0.272143,-0.00242432
0.352423,0.0228513
0.324933,-0.00144026
0.0707435,-0.00633306
-0.16331,-0.0232266
-0.199677,-0.0216299
-0.275943,-0.00080327
-0.289254,0.000431968
-0.168803,-0.0100022
0.00340054,-0.0108597
0.0600083,0.0119464
0.0483079,0.0100696
0.0510989,-0.021025
0.0853129,-0.0310163
0.145297,-0.0238309
0.124687,0.011504
0.00802143,0.0415741
-0.0923537,0.0387743
-0.190181,0.0196366
-0.236523,0.00497394
-0.154351,0.00147381
-0.0932946,-0.0173868
-0.0351839,-0.0267905
0.0388745,0.0043322
0.126513,0.0120747
0.218249,-0.0171024
0.265228,-0.0264214
0.257514,-0.023034
0.0858156,0.00655248
-0.100166,0.0485582
-0.128416,0.0106177
-0.124825,-0.0510485
-0.0171737,-0.0112937
0.134035,0.0307682
0.132245,0.0269249
0.0672761,0.0352152
-0.0868399,0.0436343
-0.152744,0.00496249
-0.0994147,-0.0721452
-0.150324,-0.0230752
-0.142285,0.0297831
-0.0184118,-0.00627357
0.064527,-0.0307587
0.0612459,-0.0175067
0.0269462,-0.0249624
-0.0337133,-0.0173771
-0.0532111,0.0117463
-0.0239285,0.0171237
-0.0239755,0.00909
-0.0344999,0.00850757
-0.031396,0.0120226
-0.0202829,-0.00274951
0.0143084,-0.0107313
0.0415689,-0.0200468
0.0558851,0.0207225
0.0452969,0.0260734
0.0481705,0.0064227
0.196196,-0.0217735
0.299106,0.00429533
0.22213,0.05559
0.0415062,0.0481431
-0.123543,0.00244978
-0.0475016,-0.0332303
0.0710323,-0.0220469
0.0601994,-0.00542389
-0.0883704,-0.00232311
-0.279759,-0.00847652
-0.27071,-0.00980187
-0.0718782,-0.00188453
-0.0400654,-0.0060159
-0.159804,-0.0114407
-0.18699,-0.000547204
-0.083421,0.00393642
-0.0214612,0.0126664
0.00309203,0.0137447
0.0301709,0.0217618
0.0871633,0.0117372
0.159534,0.00161228
0.207586,-0.00422211
0.243586,-0.00323093
0.229173,-0.00954222
0.170755,-0.0111923
0.160901,0.0426301
0.0905327,-0.0285504
-0.193465,-0.142845
-0.401015,-0.100775
-0.327459,-0.032434
-0.179983,0.0183687
-0.0219868,0.0647011
0.0834863,0.052721
0.0367848,0.0321075
-0.0119552,0.018986
-0.0258295,0.0136907
-0.0248602,0.0174033
-0.0143399,0.0133307
-0.0407474,0.00580608
-0.0425314,0.00603148
-0.0172638,0.00988639
0.0113159,0.00887775
0.0457873,0.0178321
0.114583,0.0251224
0.159229,0.00379627
0.163023,0.0155793
0.166035,0.0234675
0.264345,0.0172097
0.40323,0.0108818
0.444235,0.00361534
-0.0286081,-0.0283053
-0.600132,-0.0513675
-0.594899,-0.0621881
-0.407411,-0.0565327
-0.25576,-0.0106519
-0.0566305,0.000858187
0.185841,0.00465017
0.277281,0.00206311
0.179254,-0.000644651
-0.0765529,0.00659472
-0.277076,0.0146816
-0.221406,0.0129467
-0.148465,0.00785038
-0.0413312,0.00112134
0.0260081,0.00500879
0.0483322,-0.00563536
0.0824774,0.0174774
0.208377,0.019346
0.404776,0.0157152
0.430454,0.00159002
0.265195,-0.0205574
-0.124006,-0.0229719
-0.34192,-0.0175099
-0.206231,-0.00963666
-0.0590448,-0.00415374
0.0102338,0.00435736
0.0176034,0.00479744
0.0857954,0.00073168
0.0680323,0.00280241
-0.118706,0.00671017
-0.169454,-0.00630893
-0.110448,-0.0253762
-0.0213606,-0.0207271
-0.0243812,0.0125701
-0.066256,0.0296813
-0.0383778,0.00465873
9.89e-05,-0.0281708
0.00441017,0.00456177
-0.00673365,0.0325473
-0.0178526,0.0170172
0.00537228,0.00704011
0.0224339,0.0119657
0.0120867,0.0176923
0.00346516,0.0213039
0.0244645,-0.00241685
0.0427974,0.012975
0.110355,0.0366392
0.315333,0.00757977
0.471629,-0.0491779
0.462532,-0.0785454
0.164472,-0.0322011
-0.267773,0.0184362
-0.395238,0.0214755
-0.390543,0.0155332
-0.142987,-0.0247041
0.0498155,-0.036753
0.0638794,0.0172398
0.00391896,-0.0266831
-0.143305,-0.0369337
-0.228287,-0.00719833
-0.234812,0.0280577
-0.168315,0.0265848
-0.0205129,0.01716
0.0758054,0.0280672
0.0865991,0.0106259
0.0808121,-0.00545946
0.100758,-0.00744358
0.0723486,-0.0022244
0.00824484,0.014143
0.0117402,0.0334865
0.0269596,0.0317088
0.0029758,-0.00590649
-0.0336408,-0.0265341
0.039927,-0.0180294
0.171714,0.0196927
0.204461,0.00313213
0.189082,-0.0269111
0.144014,-0.0252659
0.105052,-0.0155343
-0.164242,-0.0134406
-0.507955,-0.00236906
-0.365342,0.0138996
-0.0642907,0.00474503
0.0536293,0.0239877
0.0854635,0.0225636
0.188982,-0.0162758
0.16164,-0.0399774
0.0100791,-0.0297852
-0.130861,-0.0103126
-0.198085,0.00805791
-0.0820835,0.0306571
0.0710261,0.0282551
0.127778,0.0247909
0.136002,0.0242923
0.0913271,0.029526
-0.0053493,0.0338664
-0.030469,0.0126228
-0.0576623,-0.0421851
-0.143351,-0.0881471
-0.138625,-0.115335
-0.0232152,-0.0737554
0.0636721,-0.00747843
0.053026,0.0296155
0.000672397,0.0653505
-0.0252305,0.0547419
0.00797062,0.0246814
0.0416567,0.0116482
0.0525891,0.013698
0.0333074,0.00598021
0.0155567,-0.0183955
0.00557,-0.00551221
0.0190675,0.0244903
0.00496604,0.0145449
0.0280638,0.00110305
0.180543,-0.00298835
0.299958,0.00543502
0.266757,0.0125715
0.0926528,0.00256436
-0.205479,0.00688025
-0.400182,0.0436135
-0.250982,0.0498842
-0.117038,0.00890596
-0.0840568,-0.0193195
-0.0306288,-0.0322664
-0.00806883,-0.0302208
-0.0282314,-0.0136028
-0.0200614,0.0033087
0.0140379,0.0125494
0.0295872,0.00415112
0.013622,-0.0198546
-0.0324719,-0.0359382
-0.0886139,-0.0254738
-0.113686,0.0031703
-0.0145173,0.0141195
0.143802,0.00698641
0.209767,-0.0300225
0.159,-0.011596
0.0205175,0.00739358
-0.00406794,-0.0150236
0.30307,-0.0230443
0.497143,0.000878592
0.455581,0.000123595
0.147102,0.015587
-0.300339,0.0487956
-0.455258,0.0331842
-0.387475,0.00913239
-0.306135,-0.0045093
-0.257425,-0.0258768
-0.144192,-0.0570548
-0.0796399,-0.0346811
-0.045174,0.0455518
-0.0462957,0.0534326
-0.0346259,0.0203796
0.0093625,-0.0227789
0.0133561,-0.0537014
0.00773152,-0.0178878
0.0408988,-0.0334326
0.0487912,-0.0132785
0.044707,-0.00113502
0.0282067,0.011613
-0.000433061,0.0306671
0.0220782,0.0248246
0.0656815,0.0215144
0.0648236,0.0129408
0.0513285,0.0106516
0.0940184,0.0214605
0.0985854,0.00287496
0.140528,-0.028673
0.290927,-0.0184207
0.366232,0.0119576
0.317963,0.0172406
0.00367835,0.0130829
-0.37605,-0.012429
-0.430845,-0.0624297
-0.350051,-0.0434278
-0.179507,0.0147727
-0.0311671,0.0132065
0.0619225,0.00126202
0.0837579,0.0116211
0.0743159,0.00200283
0.0414566,-0.00374205
0.0112402,-0.0049038
0.00644154,0.0119444
-0.0393693,0.0234726
-0.122082,0.0184891
-0.169145,0.0113664
-0.123484,0.00452164
0.0255454,-0.0167597
0.133746,-0.00213865
0.176134,0.0190777
0.12093,0.00898573
-0.0681649,0.00730816
-0.179091,0.0197672
-0.0799896,0.0252677
0.113403,0.0227103
0.258035,0.00582126
0.282699,-0.0340364
0.142444,-0.0308331
-0.0538445,0.00350198
-0.0683139,0.00721744
-0.0295399,-0.0361228
-0.0897496,-0.0672336
-0.182316,-0.00360089
-0.2031,0.0299824
0.012112,0.00304857
0.157859,-0.00871142
0.152562,-0.00451521
0.0469587,-0.0126604
-0.137496,-0.0393593
-0.226283,-0.0152191
-0.163647,0.0258412
-0.105932,0.0227372
-0.0390604,0.0047929
0.0347001,0.00132786
0.00671807,0.0128249
-0.0583979,0.018947
-0.0210517,0.00123147
0.056346,0.0153637
0.209677,0.0238176
0.320228,0.0260556
0.252969,0.0309544
0.119951,0.0306417
0.0776711,0.0246846
0.11357,-0.00266725
0.0108957,-0.024562
-0.155478,0.000967301
-0.348018,-0.0101739
-0.385843,-0.031629
-0.187338,-0.0393214
-0.0367344,-0.0489323
-0.00511296,-0.0545194
-0.0438822,-0.0397623
-0.01285,0.00297859
0.113606,0.0201608
0.168813,0.00638538
0.145238,0.00839735
0.0673364,0.0141413
-0.00174126,-0.00781206
0.22821,-0.00702342
0.479583,-0.0125365
0.308967,0.00708501
-0.18805,0.0451974
-0.577668,0.0335911
-0.467875,0.0205973
-0.208852,0.0113057
-0.0245599,0.00527042
0.102586,0.000566081
0.148935,-0.00968306
0.213862,-0.0495806
0.179767,-0.0153269
0.0949319,-0.00884457
0.044902,-0.0476589
-0.124026,-0.0106924
-0.296256,0.0139317
-0.263728,0.0449049
-0.194243,0.00248899
-0.16958,0.0151364
-0.0682489,0.0458234
0.0810719,0.0472757
0.202234,0.00296887
0.404676,-0.0273381
0.511472,-0.0380273
0.465337,-0.00920031
0.221974,0.00888912
-0.14239,0.0192888
-0.364224,0.0114983
-0.385776,0.00497757
-0.30932,0.0241368
-0.239795,0.0241513
-0.0970714,-0.0132853
0.0514692,-0.00504239
0.108547,-0.0112111
0.0655409,-0.0140993
0.0203807,-0.0515049
-0.0500321,-0.115151
-0.0655074,-0.00864042
0.0190505,0.0396581
0.0652873,0.00485475
0.0525554,0.00958581
0.0463637,0.0209187
0.113488,0.0170502
0.166036,0.00997168
0.0589057,0.015784
-0.139619,0.0268657
-0.176663,0.0127975
-0.0562726,0.0185715
0.0277826,0.0216932
0.0422018,0.020808
-0.0374214,0.0166794
-0.083029,0.0146363
-0.0404201,0.00520059
0.0771939,0.0235874
0.145153,0.0192234
0.085163,-0.0549803
-0.00150325,-0.118376
-0.0445974,-0.0383528
0.0081906,0.0256153
0.117328,0.000174842
0.0837568,0.00029052
-0.037884,0.0127578
-0.113922,-0.0279003
-0.0833339,-0.0442683
0.0692291,0.0183508
0.179611,0.0098662
0.137493,-0.0326288
-0.031072,-0.0195471
-0.157784,0.0416772
-0.127802,0.0190221
-0.0784164,-0.00907947
-0.0770914,-0.00237067
0.0159284,0.0142737
0.0852025,0.00713059
0.0175265,-0.000927696
-0.0307425,0.0109198
-0.0235583,0.0226281
0.00497489,0.0125343
0.110191,0.00174291
0.130701,0.0143262
-0.0283715,0.0303897
-0.14756,0.0191608
-0.142323,-0.0129419
-0.119726,-0.0291324
-0.0623666,-0.0188113
-0.0227233,-0.0113033
0.0293807,-0.0228467
0.127944,-0.0296171
0.18982,-0.00427385
0.161303,0.0196583
0.0173071,0.0121881
-0.142475,-0.00650001
-0.118225,-0.0214303
-0.0150058,0.015467
0.00418527,0.0139194
-0.0441617,0.0183093
-0.0455788,0.0463778
0.0571298,0.0338873
0.132228,0.00291592
0.056764,-0.0275686
-0.126717,-0.0358708
-0.163505,-0.0222906
-0.0562592,-0.0167494
0.031327,-0.0290856
0.0475589,-0.0222589
0.0170793,0.00132363
-0.0108913,0.0135344
-0.0198648,0.0133809
-0.00893166,-0.00191769
0.00796524,-0.0331318
0.0206908,-0.0213507
0.024069,0.0176974
0.0457882,0.0294125
0.0641949,0.0259084
0.117861,0.0251457
0.145333,0.02317
0.0576099,0.0123852
-0.0459034,0.00599622
-0.131175,0.00863548
-0.159003,0.0051289
-0.0643503,-0.00184434
0.0117942,-0.000645999
0.0371743,-0.0182061
-0.0130185,-0.0336684
-0.0502336,-0.0262077
-0.0334401,-0.00554843
-0.033566,0.0128918
-0.011286,-0.00584785
0.0231531,-0.0324967
0.034137,-0.0153877
-0.0117031,0.0214193
-0.0226365,0.0401219
-0.0235493,0.0272459
-0.0522093,0.0132624
0.0733629,0.014569
0.240222,0.0248442
0.500353,-0.00553828
0.601517,-0.00170483
0.441515,0.00146835
0.0960162,-0.000737832
-0.65248,-0.0280463
-0.894689,-0.0651154
-0.524778,-0.0467777
-0.224327,0.000609342
-0.0763956,0.0282216
0.036986,0.0332251
0.118415,0.0238962
0.151747,-0.00271558
0.132234,-0.0220466
0.138895,-0.0235745
0.164657,0.0135897
0.0932918,0.0300776
-0.108441,0.0367126
-0.244885,0.0330427
-0.210177,0.0227426
-0.0137322,-0.00825834
0.157751,-0.0642271
0.134275,-0.108332
0.0110469,-0.0906057
-0.0286625,-0.0107805
-0.0280289,0.0246041
-0.0517674,0.0807867
0.0182848,0.0567937
0.134838,0.0245598
0.158809,0.00723307
0.0669983,-0.00297139
-0.0807427,-0.00838586
-0.214466,0.00162239
-0.183663,0.0129327
-0.0314678,-0.00664823
0.0507603,0.0115885
0.0697582,0.0333257
0.0687041,-0.00242724
0.0901131,-0.0131566
0.0740388,0.0102043
0.039947,-0.00449512
-0.0319136,-0.018071
-0.0272018,-0.0210164
0.00586786,-0.00171213
0.0195745,0.0311302
0.0333014,0.029253
0.00958,0.000155077
-0.0460273,-0.0140226
-0.0345582,-0.0288493
-0.0194831,-0.0279001
0.025413,-0.0040816
0.114379,-0.00464407
0.173025,0.00586588
0.185412,0.0353995
0.143849,0.0316946
-0.0976532,-0.0038812
-0.174847,-0.00539826
-0.163952,-0.0201072
-0.145111,0.00140217
-0.129085,0.00879144
-0.0765528,-0.00556024
-0.0297539,-0.00506766
0.000747574,0.00517863
0.00181502,-0.0247149
-0.0190573,-0.0473659
0.000407775,-0.0319688
0.123681,-0.0104743
0.186567,-0.00270707
0.0911671,0.00485345
-0.0824753,0.00521211
-0.196933,0.00807897
-0.0839405,0.0144986
0.0577533,0.0142699
0.084658,0.0185237
0.0136612,0.032862
0.0410356,0.030524
0.191754,0.0131488
0.24033,-0.0157733
0.0828528,-0.0457397
-0.154776,-0.0101234
-0.265214,-0.006479
-0.239251,-0.0118515
-0.134196,0.00505131
-0.0307087,0.014162
0.0766423,-0.00333843
0.220355,-0.0260171
0.226547,-0.0566739
0.0290403,-0.0323497
-0.185612,0.0234233
-0.167939,0.0610694
0.0210301,0.0714599
0.116131,0.0446404
0.0619957,0.00501128
0.0187913,-0.0237746
-0.00184854,-0.0195212
-0.0306601,0.0096239
-0.143523,0.0178481
-0.219996,0.00749346
-0.134084,0.00517259
-0.0651582,0.0116392
-0.0317549,0.0033599
0.00971785,-0.0153102
0.0574901,-0.0196018
0.204416,-0.0245433
0.389061,-0.0151842
0.35904,-0.00737433
0.16104,-0.00846435
-0.179477,-0.00312888
-0.379414,-0.00345516
-0.178385,-0.000869315
-0.00594284,-0.000451678
0.0456117,-0.0221712
0.0566483,-0.0241962
-0.00618949,-0.0155755
-0.106593,-0.0140191
-0.119761,0.00509394
-0.0829733,0.0260481
-0.0236985,0.0258045
0.0284198,0.0169945
0.0547895,-0.000256885
0.108437,0.0104489
0.140487,0.0339985
0.112356,0.0220602
0.0819369,0.00360078
-0.0374451,-0.00575308
-0.139982,-0.000524126
-0.100211,0.00463103
-0.0483318,0.00335282
-0.000946294,-0.000486198
0.0490328,0.00466532
0.0689224,0.000482123
0.0607052,-0.043619
-0.00335581,-0.049383
-0.0990143,-0.0188385
-0.0842976,0.0135221
0.0219003,0.0189014
0.0976919,0.0126121
0.0992648,0.000788972
0.04744,-0.000853629
-0.0422668,-0.000724068
-0.123618,-0.00999863
-0.0484763,-0.00741018
0.0219479,0.000197442
0.0220745,0.00142105
0.0128962,-0.0244815
-0.0114,-0.0375739
-0.00639291,0.00266222
-0.00787074,-0.00595307
0.0124233,-0.0662742
0.0321726,-0.0412819
0.0160805,0.0460514
0.0245664,0.0498901
0.0794272,0.0321617
0.0618922,0.0521974
0.042777,0.0802715
0.0545173,0.0685162
-0.0307048,0.0318858
-0.162918,-0.011801
-0.157055,-0.00781782
-0.0986077,-0.00397242
0.129174,-0.024537
0.387068,-0.021037
0.412995,-0.0359263
0.164195,-0.0381875
-0.226589,-0.0300553
-0.479922,-0.0150784
-0.444251,-0.0133434
-0.296341,-0.0115644
-0.145385,0.000623275
-0.00117267,-0.0102223
0.111532,-0.00201148
0.149852,0.0292344
0.134418,0.0325821
0.0411325,0.0118493
-0.0340965,0.00641294
-0.0277426,0.0128518
-0.0161833,0.011934
-0.0167877,-0.00230391
-0.00333417,-0.0183294
0.0554079,-0.00123757
0.172221,-0.00747407
0.197279,-0.00916842
0.0892498,0.00941726
-0.100512,0.00245987
-0.200359,-0.0151837
-0.108006,-0.0683096
0.00491753,-0.0443322
0.0415131,0.020707
0.054296,0.0161725
0.0708189,0.0256336
0.0364649,0.0176021
0.0246878,0.0045838
0.131167,-0.0145119
0.17511,-0.0113866
0.149358,0.006253
0.0729942,0.01467
-0.139212,0.0252587
-0.195334,0.0135061
-0.0210379,-0.0266907
0.0332593,0.00293249
-0.0389225,0.00771727
-0.143199,-0.0171501
-0.0674376,0.0468796
0.138151,0.0924925
0.137545,0.0391919
-0.147078,-0.000157668
-0.301448,-0.0313022
-0.0681832,-0.0468582
0.231632,-0.0447468
0.26515,-0.0337893
0.120093,-0.0229113
-0.196129,-0.0117196
-0.388719,0.00312524
-0.194178,0.011219
-0.0890569,0.0137293
-0.0712627,0.00255699
-0.026159,-4.95e-06
0.0429481,0.0228876
0.139508,0.0166464
0.237423,-0.000271829
0.381589,-0.017885
0.398771,-0.0310982
0.125698,-0.0164817
-0.182211,0.00893039
-0.30238,0.0163881
-0.243243,0.0201377
-0.189993,0.0213419
-0.0774894,0.00706395
0.170557,-0.00559415
0.271954,-0.00852117
0.194985,-0.00596406
0.0447159,0.00762799
-0.107091,0.00675816
-0.0920779,-0.0357422
-0.0944718,-0.0351495
-0.158035,-0.00430453
-0.0905045,-0.023393
-0.0202805,-0.0115468
-0.0117816,-0.00182379
-0.025783,-0.0254346
-0.0635188,-0.0262716
-0.0667416,0.0114459
-0.0589455,0.0286752
-0.0348277,0.0252447
0.0333345,0.0180888
0.115036,0.0138291
0.140104,0.00893714
0.133792,0.00594504
0.106377,0.0101948
0.0888894,0.017711
0.0256584,0.0176347
-0.0601884,0.0238571
-0.0832556,0.0361466
-0.0490749,0.0319224
-0.0502682,0.0048717
-0.0101513,-0.0206958
0.0475573,-0.0216494
0.0592343,-0.00977898
-0.00883901,-0.0127252
-0.0987203,-0.0156708
-0.0892409,-0.0107537
-0.0233655,-0.0100878
0.0226161,-0.0215287
0.00835946,-0.0183796
-0.00820714,0.00821599
-0.00824897,0.00940994
0.045345,0.0029359
0.110425,0.0147293
0.136067,-0.00761504
0.221859,-0.0159823
0.299798,-0.0239799
0.184395,-0.0197574
-0.0143581,-0.00712742
-0.272112,-0.00184773
-0.435443,-0.00067738
-0.32127,-0.00126643
-0.126132,-0.00281952
-0.00628552,0.000515622
0.032586,0.00392853
0.111027,0.000436393
0.20029,-0.00367287
0.16032,-0.00170999
0.0437915,-0.00496774
-0.0708392,-0.0220532
-0.153104,0.00653052
-0.0744825,0.0262507
-0.109953,0.0362946
-0.177395,0.0277134
-0.119147,0.0264485
0.00736536,0.0228209
0.0854542,0.00757258
0.0867615,-0.011977
0.0768497,-0.0186054
0.0801555,-0.0166393
0.0554247,0.00240291
0.0335397,0.0215573
0.111454,0.0157174
0.118318,-0.00305179
0.0360626,-0.0184953
-0.0314772,-0.0166952
-0.0579825,-0.0101106
-0.0640463,-0.00914966
-0.0493372,0.00134203
-0.053747,0.00700909
-0.0528407,0.00639243
-0.0144542,-0.00615996
0.0207114,-0.0119544
0.0384487,-0.0154603
0.0412435,0.00472457
0.000971797,0.019412
-0.0134523,0.0223456
0.0519601,0.0297292
0.0864909,0.0178797
0.0240003,-0.00953936
-0.0605291,-0.0223091
-0.110433,-0.0198201
-0.105444,-0.0116935
-0.0317844,-0.0104292
0.0130455,-0.00699205
-0.00129513,0.00106936
-0.0139512,0.00440126
0.0146423,0.00312517
0.0596127,0.00101477
0.082295,-0.0146109
0.0525504,-0.0293085
0.0153551,-0.0208647
0.00272983,0.0103472
0.0145714,0.0135957
0.0102609,0.0249856
0.00924621,0.022904
0.0104367,0.00454689
0.00652886,-0.00569828
-0.0135519,0.00211137
-0.0725706,-0.00061346
-0.0763777,-0.00718806
-0.030084,-0.0229246
0.0125435,-0.0287973
-0.0241505,0.00211961
-0.030519,0.018531
0.0202229,0.0152756
0.0500792,0.0100541
0.0452387,0.0120556
0.013315,0.00680736
-0.00328486,0.000658351
0.0104894,-0.0390264
0.0318519,-0.076561
0.022655,-0.0495164
0.00771055,-0.00454361
-0.0163199,0.0620042
-0.0296936,0.0613261
-0.00570887,0.0284587
0.00909234,0.00602968
-0.0024176,-0.00525567
-0.0446693,0.00182705
-0.0659473,0.0146709
-0.0228463,0.0154701
0.018727,0.00585397
0.0309084,-0.00791932
0.0245771,-0.013402
0.0393411,-0.0201856
0.0382595,-0.0319174
0.0383581,0.00602163
0.0558708,0.0256535
0.00145294,0.0212934
-0.120415,0.0417773
-0.121639,0.0322283
-0.0222819,0.0294489
0.0878395,0.00174714
0.0479932,-0.0358384
-0.03129,-0.0491449
-0.057449,-0.0432362
-0.0357419,-0.0266679
0.0108091,-0.00471282
0.0535267,0.00338238
0.0725395,0.00515347
0.0179469,0.00467286
0.0540917,-0.00836721
0.254505,-0.0395447
0.305867,-0.000720346
0.238569,0.0320412
-0.0370958,0.0212919
-0.442345,0.00495288
-0.529032,-0.00835815
-0.324371,0.006082
-0.145043,0.0109548
0.00177548,0.0104476
0.0630209,0.0087744
0.082794,0.00934819
0.0759424,0.0131153
0.0445857,0.0102692
0.0395101,0.00559035
0.00542081,0.0038022
-0.00848073,-0.00187157
0.00514003,-0.017261
-0.05236,0.00193768
0.070499,0.0238771
0.282612,0.0206308
0.29194,-0.0246047
0.137565,-0.100113
-0.12725,-0.0926215
-0.264103,-0.00145395
-0.178665,0.0520749
0.0104094,0.0476756
0.12982,0.0243781
0.133759,0.0124574
9.3e-05,0.00745213
-0.161212,-0.00692624
-0.165845,-0.016774
-0.0784087,-0.021094
-0.027691,0.0144625
-0.00733495,0.0205242
-0.0240127,0.0258073
0.0196293,0.028839
0.0835324,0.0202069
0.0829609,-0.00886185
0.0710132,-0.0219009
0.0825439,-0.0165123
0.123193,-0.014883
0.117109,-0.014866
-0.01916,-0.00275592
-0.100789,0.0050753
-0.0770454,0.00720243
-0.0374197,0.00434579
0.0112415,-0.00702694
0.0190778,-0.0130904
-0.00882098,-0.00225977
-0.0666709,0.00368606
-0.0965989,-0.0101154
-0.0605219,-0.0250905
-0.0170762,0.00486981
-0.0122962,0.0167267
-0.0433084,0.00210184
-0.0314096,-0.00236239
0.0056051,-0.0114392
0.0405526,-0.0113319
0.0622805,0.000886623
0.114045,0.00596801
0.156645,0.00668194
0.247385,0.00740368
0.287346,0.00855155
0.138382,-0.00567835
-0.0655031,-0.00595997
-0.224498,0.0136158
-0.276009,0.0102924
-0.201323,0.0147189
-0.0595274,0.0151479
0.0147983,0.0118
-0.0283655,0.00768608
-0.115211,-0.00597284
-0.0334673,-0.00737269
0.0891437,0.0031958
0.0864505,-0.00202249
0.024845,-0.0203538
-0.0714275,-0.0329439
-0.119476,-0.0398519
-0.0481222,-0.034505
0.0132414,-0.0160214
0.00676719,-0.00180275
-0.00307334,0.00372478
0.0282528,0.0128947
0.0407479,0.0525706
0.0382841,0.0440301
0.0373514,0.0202658
-0.0364258,0.00237156
-0.0985716,0.00316358
-0.0391,0.00309018
0.0314152,0.00142365
0.0105544,0.00065074
0.0941696,0.00679266
0.379179,0.0163032
0.532755,0.00670725
0.411562,-0.00592373
-0.0213051,-0.00976566
-0.548378,-0.0139511
-0.561719,0.00577507
-0.288326,0.0177987
-0.114128,0.0175667
-0.0164472,0.00429876
0.0421242,-0.0173753
0.0638602,-0.0528125
0.052502,-0.050821
-0.00188978,-0.0101588
-0.0709954,0.0023031
-0.052146,-0.00346336
0.0120444,-0.00729786
0.0354206,-0.00185973
0.00379517,0.00818481
-0.0140878,0.0119249
-0.00859934,0.0145449
-0.00569111,0.00992638
0.0222728,-0.00953318
0.0401158,-0.00423544
0.0447754,0.0120004
0.0516657,0.0133982
0.051134,0.0111251
0.103899,0.011429
0.175283,0.0141487
0.164579,0.00725543
0.0780183,-0.0145948
-0.0254092,0.00731689
-0.125399,0.0184975
-0.116222,-0.000124253
-0.0792652,0.0053923
-0.0352494,-0.00120499
0.0330776,-0.0265127
0.025082,-0.0214873
-0.0455506,-0.00715374
-0.0913545,-0.0056977
-0.0939842,-0.00838181
-0.040984,-0.00324974
0.0121508,0.00198481
0.0312226,0.0049233
0.029737,0.00590287
0.0158298,0.00770176
-0.00348146,0.00538901
-0.0163572,0.000229115
-0.015779,-0.00184678
-0.0122366,-0.00428
-0.0124094,-0.00635748
-0.0101118,-0.00138912
-0.00138426,0.00362365
0.0103576,0.00499904
0.0242458,0.00125702
0.0343797,-0.0129245
0.0406364,-0.0151831
0.0423252,-0.0135941
0.0306737,-0.00725352
0.0271575,0.0117026
0.0288784,0.0142064
0.0197319,0.0108683
-0.00175167,0.0122704
-0.0246181,0.0065348
-0.0296485,-0.00564007
-0.0265997,-0.0133062
-0.0256867,-0.0113385
-0.0255037,0.000803285
-0.0289944,0.0112519
-0.0119931,0.00992975
0.0219131,0.0052611
0.053331,0.00022844
0.0514288,-0.00480889
-0.0156757,-0.0091314
-0.0449891,-0.00100891
-0.0371827,0.00404825
-0.0261892,0.00238502
-0.0175384,0.000494523
-0.0169637,0.00268403
-0.0185131,0.00586198
-0.0151874,0.00465463
0.00288176,0.00552878
0.00864259,0.004757
0.0165735,-0.00166087
0.031252,-0.0012134
0.0316794,0.000820876
-0.0216173,0.00206507
-0.0682284,0.000164739
-0.0429633,-0.00830327
-0.00570805,-0.0138148
0.0377252,-0.0116731
0.0651313,0.000265752
0.0785522,0.00409006
0.0658225,0.00153067
0.0398575,0.00178475
0.00998715,-0.0101966
-0.0138322,-0.0121956
-0.02456,0.00592849
-0.017521,0.00787565
-0.0179817,0.00288302
-0.0258353,-0.00189363
-0.0260843,0.00342046
-0.0240023,0.011532
-0.0290237,-0.00592639
-0.0557994,0.00229073
-0.0431691,0.0144264
0.0050307,0.00229591
0.0117072,0.0167486
0.0160911,0.0180467
0.0508115,0.00884521
0.0620025,-0.0136886
0.0303446,-0.0460072
0.00562436,-0.0476389
0.0493251,-0.00952172
0.0822455,0.0107541
0.0950071,-0.0160075
0.102409,-0.0238977
0.035557,-0.0050748
-0.0673401,0.0332963
-0.097208,0.0271546
-0.116799,0.00987337
-0.123554,0.00455021
-0.0813122,-0.006012
-0.0783599,-0.00100309
-0.114728,0.00638028
-0.134442,0.0104579
-0.0603403,0.0207661
0.0368721,0.0227213
0.0789877,0.00749105
0.0771095,-0.0331123
0.0707749,-0.0488856
0.0440916,0.028499
0.0684405,0.0148265
0.118113,-0.00419242
0.119198,-0.0111155
0.0351279,-0.0167419
-0.0741354,-0.0025761
-0.121608,0.0209082
-0.0763452,0.0204215
-0.0267588,0.00871179
-0.00614297,-0.00166848
0.000904393,0.00175558
0.138035,0.00287555
0.207319,0.0114862
0.154268,-0.00644179
0.116414,-0.02212
-0.029105,-0.0263071
-0.00977713,-0.00163079
0.119476,0.0289225
0.00668469,0.0206869
-0.2258,0.012607
-0.348186,0.014853
-0.235888,0.0128421
-0.0481313,0.00300942
-0.00298208,0.00092215
-0.0299681,0.00160135
-0.0855452,0.000276244
-0.0366525,-0.0314896
0.0240992,-0.0580645
0.0304625,-0.0272401
0.0343206,-0.00640543
0.00525769,0.00269086
-0.0365097,-0.0164964
-0.0367674,-0.048996
-0.0495801,-0.0140845
-0.060509,0.010691
-0.0190708,0.0211831
0.110073,0.0389629
0.278196,0.0375689
0.429115,0.0182091
0.404081,0.00429975
0.205268,-0.00521123
-0.0627388,-0.000862467
-0.282749,0.00745396
-0.263494,-0.0013057
-0.140387,-0.000739098
-0.0517577,0.0126839
-0.00944655,0.0109202
-0.034337,0.00930898
-0.0437371,0.002148
-0.0208087,-0.0151639
-0.0811762,-0.021047
-0.11261,-0.00661871
-0.0427661,0.00227088
0.00834691,0.0122315
0.0365398,0.0212054
0.0166204,0.0122617
-0.0204579,0.00185672
-0.0444248,-0.00624666
-0.0603104,-0.00733044
0.0372995,-0.00169429
0.107021,0.00188623
0.0985733,-0.00193586
0.0688544,-0.0105051
0.0489933,-0.0211627
0.0686167,-0.0115374
0.148826,0.00620972
0.246105,-0.00890875
0.159331,-0.00883914
-0.0509344,-0.00183923
-0.133716,0.000156778
-0.204897,-0.0146295
-0.203802,0.00624627
-0.092546,0.0267784
-0.0788533,0.00939248
-0.00985027,0.00245846
0.116546,0.00522826
0.062073,0.00499859
-0.087823,0.00395444
-0.0975029,0.0100538
-0.0470314,-0.000490962
-0.0384316,-0.00582069
-0.0332664,0.00520564
-0.0348926,0.00362111
-0.0400751,-0.011734
-0.0160633,-0.0338199
0.0394735,-0.0303146
0.0669629,0.0169174
0.0548181,0.0283943
0.0383273,0.012165
0.00647319,-0.00142805
-0.0042059,0.000247842
0.0405398,0.00767829
0.11651,-0.0110261
0.0957264,-0.0358748
0.0243559,-0.0209311
0.0172218,0.021312
0.0282383,0.0231371
0.0735247,-0.0092025
0.069501,-0.0432642
0.00523198,-0.00692056
-0.0167997,0.0124126
-0.0600981,-0.00577124
-0.16913,-0.000287762
-0.183464,0.0119566
-0.0553486,0.0120693
0.0159179,0.00776502
0.0180086,0.000498794
0.0321928,-0.00609783
0.0460993,0.000371867
0.0419209,0.0130166
0.0270565,0.0159927
-0.0104876,0.00978947
-0.0337717,-0.00128479
-0.0635951,-0.00723626
-0.056028,0.0211959
-0.000643249,0.00942024
-0.00158697,-0.0235156
-0.0179978,-0.0123939
-0.0453453,0.00238391
-0.0575328,-0.00290109
0.0762557,-0.01133
0.231132,-0.00623032
0.262321,-0.0159248
0.0945309,-0.0058647
-0.119109,0.00348508
-0.163925,0.00506471
-0.175716,0.0138025
-0.157572,0.019184
-0.0526849,0.00629215
0.0267914,-0.000559417
0.0347345,0.00675433
0.0667464,0.0151524
0.0801385,0.00932891
0.00815181,-0.00113951
-0.0449079,-0.00351548
-0.0268435,-0.00273202
0.0345941,0.00276898
0.0540973,-0.00219906
0.0356609,0.000308566
0.0840354,-0.0036522
0.178077,-0.0111132
0.274633,-0.014401
0.158238,-0.0112157
-0.0280456,-0.00408274
-0.175639,-0.0138431
-0.309161,0.00515392
-0.24358,0.0186768
-0.145148,0.0176162
-0.115026,0.0134414
-0.0487922,0.00576193
0.0642924,-0.00525356
0.194674,-0.0130365
0.171519,-0.00652637
0.0696871,0.00391916
-0.0534438,-0.0179482
-0.18883,-0.0459884
-0.214798,0.00855194
-0.122672,0.0256412
-0.0201606,0.0193073
0.025219,0.0129504
0.05084,0.0119226
0.0686376,0.00908099
0.0634012,0.00530015
0.044428,0.00347553
0.0188984,0.00286973
-0.0224604,0.00702551
-0.0305155,0.00112171
-0.016672,-0.0142014
0.00118472,-0.0213061
0.0434333,-0.00667394
0.0823979,0.00854697
0.0847382,0.0100413
0.0735696,-0.000809041
0.128521,-0.0135667
0.12984,-0.0244224
0.0712575,-0.0308316
0.0379516,-0.0467096
-0.0357001,-0.0270379
-0.134694,0.0171046
-0.122026,0.0382468
-0.0626842,0.0291479
-0.0402145,0.0203365
-0.0340769,0.00947647
-0.0372577,-0.00311433
-0.0382758,-0.00678218
-0.0266112,-0.0065448
-0.0172389,-0.000380469
-0.00738333,0.00983043
0.00511366,0.0146646
0.0244387,0.008267
0.0552596,0.000911051
0.0880986,-0.00610725
0.13061,-0.00471897
0.116025,0.000323446
0.0483373,-0.00573148
0.00241363,-0.00598392
-0.078662,0.0110721
-0.118419,0.0143782
-0.0618656,0.00540972
0.0486472,-0.00441189
0.121236,-0.0101831
0.113365,-0.0127856
0.0127218,-0.0131643
-0.159386,-0.00388851
-0.218256,0.00915315
-0.114448,0.00906921
-0.0346916,0.00415496
-0.0115267,0.000259664
-0.00939424,-0.00275883
0.0144198,0.00122016
0.0302702,0.00772955
-0.00477665,0.00749974
-0.032087,0.00318336
0.000199202,0.00249162
0.0612791,-0.00203486
0.0921952,-0.015124
0.0473627,-0.0145459
-0.0370479,-0.0111273
-0.0774294,-0.012563
-0.0361516,0.00671751
-0.0353614,0.00803355
-0.0643346,-0.0140182
-0.0289234,-0.0162998
0.0190316,0.00428763
0.0633878,0.0123655
0.108243,0.00194589
0.116063,0.00829714
0.0503077,0.0165002
-0.00394485,0.00154313
-0.0230046,-9.88e-05
-0.0360765,0.013661
-0.0584985,0.0140577
-0.0214482,-0.000111663
0.143243,-0.0151188
0.273959,-0.0125266
0.297522,-0.0125925
0.0776364,-0.00885451
-0.22323,0.00391955
-0.270728,0.0206951
-0.144755,0.00777766
-0.0841619,-0.0148737
-0.0503032,-0.010333
-0.0583493,5.45e-05
-0.0670104,0.0151477
0.0459408,0.0242662
0.109222,0.0112059
0.0530139,8.46e-05
-0.0368542,0.000122666
-0.135624,0.00488046
-0.130761,0.00383048
-0.046606,-0.00432262
0.0173319,-0.00625896
0.0459924,-0.00974882
0.059854,-0.00518371
0.0732389,0.000308079
0.0693433,-0.00166174
0.0504831,0.0013129
0.0458051,-0.0026745
0.0609042,-0.0110145
0.0260849,-0.0133198
-0.0456132,-0.00419662
-0.0850146,0.0025505
-0.137461,0.000554569
-0.186362,0.00181864
-0.191403,-0.00269194
-0.0971933,-0.0104953
0.0394844,-0.0097942
0.142372,-0.00232201
0.214651,0.0047766
0.203705,0.0103713
0.132044,0.0128325
0.0164105,0.0146352
-0.0831921,0.00895647
-0.0996664,0.006187
-0.0381087,0.001331
0.059236,-0.00525872
0.123549,-0.00364318
0.0912276,-0.0155973
0.0121967,-0.00305968
-0.00913554,0.00871397
0.019281,0.00418854
0.0739044,0.0053279
0.0490711,0.00572988
-0.032956,-0.0174638
-0.0974307,-0.0345248
-0.0940051,-0.025516
-0.040852,-0.00123114
0.00661443,0.015217
0.0154815,0.0132849
-0.0152936,0.0115549
-0.0764642,0.0032578
-0.0996938,-0.00252021
-0.129985,-0.0148425
-0.118498,-0.0169488
-0.0639341,-0.011572
0.062207,0.00858845
0.135544,0.0210772
0.122291,0.0145751
0.0731633,0.0181464
0.0239386,0.0225094
0.0121029,0.00150666
0.0388241,-0.016494
-0.0256243,-0.0146197
-0.13732,-0.00725898
-0.141167,-0.00183041
-0.0381847,0.00394137
0.109467,0.0106471
0.196687,0.0163759
0.215526,-7.75e-05
0.181297,-0.0125943
0.0913188,-0.00233941
-0.0143625,0.00330915
-0.115288,-0.00548061
-0.179193,0.000531689
-0.142122,0.00835849
-0.0542337,0.00818153
0.0186018,0.00781349
0.0147607,-0.00115542
-0.297293,-0.0195898
-0.520979,-0.019693
-0.344199,0.00241251
0.0944201,0.0303346
0.427498,0.0350051
0.489625,0.00848713
0.25559,-0.0138454
-0.153876,-0.0241928
-0.311536,-0.0233652
-0.193508,-0.00567809
0.0816019,0.0161895
0.285433,0.020925
0.332714,0.0144189
0.237333,0.00838966
0.100575,-0.00188936
-0.0625579,-0.0153126
-0.138535,-0.0196786
-0.0907451,-0.0157046
0.023634,-0.00860648
0.0607466,-0.000987863
0.0301077,-0.00173421
-0.0319429,-0.00861571
-0.0376714,-0.0253676
-0.00562722,-0.0132307
-0.0221766,-0.00518698
-0.136586,-0.00638611
-0.207709,-0.00219121
-0.124011,0.00870063
0.00254227,0.0201766
0.000789914,0.0218908
0.0201047,0.0159679
0.037146,0.00486718
0.0434234,0.0011094
0.00859654,0.00213063
-0.0536744,-0.0059967
-0.125275,-0.00870423
-0.0700298,0.00163645
0.0480891,0.0108198
0.116598,0.0112884
0.0428644,0.0100867
-0.000871514,-0.00960575
-0.00871568,-0.0214064
0.00127073,-0.000974271
0.00851816,0.00666262
0.0590358,0.0019024
0.120466,0.0105738
0.15772,0.00910976
0.0829894,0.00578323
-0.0688717,-0.00132861
-0.211762,-0.00939063
-0.173812,-0.00522412
0.00205769,-0.00390564
0.169469,0.00976007
0.17266,0.0150558
0.0858685,0.00682922
-0.00521573,0.00180505
-0.0708427,-0.00600061
-0.0833195,-0.0170115
-0.049177,-0.0177599
0.00123088,-0.00704819
-0.00883848,-0.000790639
-0.0249492,0.00222207
-0.043332,0.00377718
-0.107546,-0.00479565
-0.101089,-0.00909288
-0.108368,-0.0048892
-0.0705237,-0.0017186
0.0385458,-0.00154716
0.123274,0.0151799
0.134938,0.0287467
0.0703197,0.0261557
-0.0554453,0.000966082
-0.0389004,-0.0121626
0.0536916,-0.0109303
0.100361,-0.00562461
0.0592959,-0.0260137
0.0584346,-0.0227516
0.119547,-0.00674605
0.167047,0.0118266
0.152445,0.0163653
0.0136834,-0.00517274
-0.162295,-0.0143644
-0.172989,-0.00738703
-0.104464,-0.00151476
-0.0612087,-0.000717905
-0.0271343,-0.00318499
-0.0107128,0.00907209
-0.0228231,0.0196996
-0.047542,-0.00426344
-0.0456911,-0.0182511
-0.0142324,0.0084429
0.00872618,0.0172614
0.00840967,0.019137
-0.00749996,0.011888
-0.025651,0.0187094
-0.0671791,0.0259296
-0.120622,0.0126417
-0.1269,-0.00874153
-0.0378394,-0.0126288
0.0586159,-0.00974523
0.101067,-0.0160937
0.0649553,-0.0132784
0.0214874,0.00445479
0.0258807,0.00937179
0.033051,0.00773217
0.0732321,0.00460584
0.139982,-0.0217793
0.16978,-0.0306211
0.100924,-0.024129
-0.0531364,-0.0210127
-0.106528,-0.0125336
0.0138487,0.00343002
-0.0213643,0.00974173
-0.129102,0.00651776
-0.0560953,-0.00965523
0.000101975,-0.0163205
0.0236653,-0.00521757
0.0342553,0.00806568
0.0604633,0.0171788
0.054084,0.00755363
0.0093499,0.00908449
-0.0460283,0.0165605
-0.0789232,0.0177663
-0.0927353,0.0153676
-0.116329,0.0143435
-0.116081,0.0153654
-0.0641377,0.0142744
0.0342253,0.0216486
0.134132,0.0211261
0.142223,0.00857311
0.122438,-0.00471286
0.0423321,-0.0148108
-0.116973,-0.0206739
-0.185019,-0.0261048
-0.116193,-0.0219877
-0.0147051,-0.0135438
0.078014,-0.0103138
0.12204,-0.00861845
0.127029,-0.00956261
0.104703,-0.0174129
0.0401671,-0.0206781
-0.0538859,-0.00206937
-0.0886744,0.0110695
-0.054815,0.0119883
8.34e-06,0.0133646
0.0383549,0.0154212
0.0285108,0.02791
0.040694,0.021732
0.0451735,0.0139123
-0.0183314,0.00400106
-0.0763365,-0.00979366
-0.0848214,-0.0143383
-0.0184752,-0.00728654
0.049255,-0.0339867
0.0464783,-0.0504966
0.02601,0.0257181
0.00536427,0.028304
