Comp Ch 3,Comp Ch 4
0.470119,0.0351039
0.50787,0.00527277
0.16075,-0.0388648
-0.416617,-0.0431472
-0.643593,-0.0412329
-0.429195,-0.0525866
-0.194343,-0.0303365
0.0468646,0.00183047
0.227931,0.00488073
0.264303,0.00234173
0.0416915,0.00661828
-0.293128,0.0219737
-0.381956,0.0342136
-0.228501,-0.00545175
-0.0424872,-0.0374819
0.000360208,-0.0380261
-0.0174934,-0.0881787
-0.0307833,-0.0255773
-0.0056066,0.00328275
0.0224869,-0.0223476
0.0733737,-0.019786
0.162119,0.000940076
0.230983,0.00982508
0.260832,0.0133639
0.229189,0.0146682
0.225655,0.00782941
0.223433,0.0125529
-0.00405992,0.0217513
-0.217524,0.0325861
-0.348415,0.0359723
-0.393163,0.0220564
-0.169827,0.0121584
-0.00551172,0.0147713
0.12957,0.019265
0.185825,0.00456876
0.151631,-0.015827
-0.0198043,-0.0143877
-0.167931,-0.0096837
-0.184882,-0.0166079
-0.16761,-0.0172802
-0.0948185,-0.0117474
0.00145273,0.000672176
0.0390962,0.0151576
0.0858065,0.019809
0.103991,0.0215644
0.078729,0.0232683
0.0237741,0.0216351
0.0435531,-0.0016847
0.191325,-0.00845475
0.178633,-0.0123349
0.0507671,-0.010914
0.141853,-0.00351894
0.240641,0.000695737
0.0559763,0.00680137
-0.281055,0.00975614
-0.323524,-0.00259381
-0.183574,-0.0112071
-0.100015,0.0059073
-0.0755788,-0.00212098
-0.0548898,0.000346137
-0.0398042,0.0188622
-0.161607,0.00557991
-0.175754,-0.00456019
-0.054104,-0.00358158
0.052924,-0.0238317
0.132115,-0.0381679
0.0939352,-0.0311945
-0.0370719,-0.00628004
-0.0354321,0.0124657
0.146229,0.0121039
0.296337,0.0152682
0.422937,0.0178146
0.477532,-0.00141101
0.288262,-0.0389283
-0.0273942,-0.0231957
-0.306709,-0.0120763
-0.356338,-0.00512132
-0.175677,0.00150489
-0.127745,0.0124914
-0.140465,0.0216973
-0.145593,0.0307245
-0.135121,0.020292
-0.114986,-0.00656976
-0.111283,-0.00389679
-0.0645196,0.00993561
-0.0291404,-0.0130829
-0.0240053,-0.0240967
0.0366237,0.0163596
0.0989289,0.0216899
0.117894,0.00908327
0.184972,0.00182092
0.251425,0.00164805
0.247053,-0.00721051
0.260847,-0.0159184
0.181698,-0.00859473
0.0155766,0.0100157
-0.138626,0.00796335
-0.237947,-0.00573828
-0.252138,0.00563018
-0.188503,0.0177757
-0.147868,0.00997123
-0.156131,0.00957715
-0.045671,-0.024023
0.0702627,-0.0496018
0.118467,-0.0120592
0.119024,-0.00215616
0.145351,-0.014072
0.032339,-0.0051037
-0.18139,0.00426374
-0.090584,0.0133719
0.0782907,0.0214432
0.0999183,0.0176713
-0.120893,0.00800094
-0.306627,-0.000691512
-0.138123,0.00229566
0.00699572,-0.0336436
0.0225524,-0.0406397
0.0692343,0.0108856
0.136896,0.0247406
0.134055,0.0250546
0.118259,0.0218474
0.0279516,0.0131346
0.0159449,-0.00747983
0.049069,-0.0283324
-0.0568932,-0.0084342
-0.107108,0.00902009
-0.0466572,-0.00340436
-0.0283325,0.00648713
0.0204011,0.0149554
0.0595141,-0.0043325
0.0268374,-0.0060036
0.0561488,-0.0110844
0.00436871,-0.00485581
-0.062217,0.00286661
-0.0124723,-0.00514644
0.178953,0.00161468
0.442744,0.0132648
0.485274,0.0245218
0.20146,0.0195802
-0.197937,0.0114569
-0.465524,0.0237239
-0.427384,0.00988701
-0.147502,-0.0245369
-0.0350563,-0.0319997
-0.0244667,-0.0183149
0.0159073,-0.0188554
0.0213963,-0.0222903
0.0171454,0.000627431
0.062904,0.0159985
0.0597523,0.0142112
0.0658998,0.0202348
-0.00454067,0.0125721
-0.103554,0.013364
-0.115852,0.00492765
-0.113437,-0.0398475
-0.0959794,-0.0362875
-0.0636632,-0.00553635
-0.0257806,0.00288023
-0.00202424,-0.00412896
0.0059594,-0.00866496
0.00306737,0.00126339
0.0711005,0.00573169
0.184029,-0.00248817
0.199077,-0.00126743
0.0483887,0.00233335
-0.0578004,0.00326255
-0.00343215,0.00295426
0.0236312,0.00260024
0.0116585,0.00181631
-0.077203,0.00556227
-0.127251,0.00967686
-0.108715,0.0114341
-0.0667376,0.00432143
0.0239176,-0.0113758
0.105735,-0.0124589
0.143606,0.00174054
0.253069,-0.000823403
0.234639,-0.00645801
-0.00835418,-0.00166317
-0.214276,0.0133177
-0.15227,0.0153387
0.0425266,0.00112474
0.0504387,-0.00806464
-0.00671881,-0.0049318
-0.071823,-7.25e-05
-0.178416,0.00778979
-0.179825,0.00391261
-0.127102,-0.00371849
-0.12807,0.00520182
-0.0615709,-0.0123464
0.148093,-0.0119203
0.397305,-0.00790514
0.375887,0.000297326
0.131175,0.00559651
-0.0990281,0.0123213
-0.174017,0.0170662
-0.0929483,0.0212505
-0.0781299,0.0233568
-0.0775103,0.00232736
0.00310845,-0.0029947
0.150719,0.0158947
0.305053,-0.000303538
0.212188,-0.0420029
-0.0594824,-0.0266052
-0.27184,-0.0138878
-0.399242,-0.0138323
-0.287017,-0.00943411
-0.166907,-0.00224286
-0.0619888,-0.00488387
-0.0028093,-0.00299864
-0.0134774,-0.00539494
0.0678426,-0.00682285
0.227577,-0.00112764
0.345894,0.0069499
0.326068,-0.00534773
0.142117,-0.0121711
-0.0241961,-0.0046399
-0.202104,0.00641753
-0.321541,0.0112443
-0.245286,0.0203985
-0.115201,0.0257164
-0.0513403,0.0157423
-0.00767901,-0.00155495
0.0587555,-0.0159751
0.0672951,-0.0168327
0.0327749,0.000924972
0.0204498,0.0136278
0.0675534,0.019391
0.121784,0.0222758
0.0876971,0.0121889
-0.00530894,0.00178921
-0.0940462,-0.0124628
-0.0385779,-0.0301891
0.0456455,-0.0282305
0.0758299,-0.00894129
0.0130582,0.00857969
-0.0665298,0.0257558
0.00593234,0.0309538
0.0990858,0.000882741
0.071445,-0.0248162
-0.0354364,-0.00958685
-0.0116355,0.00806276
0.0786985,0.00177443
0.0898442,0.00529567
-0.0377443,0.0167881
-0.117703,0.0093337
0.0602154,-0.061914
0.0781891,-0.0409527
0.00182746,0.0347818
-0.0857063,0.0337035
-0.100187,0.0211517
-0.05019,0.00910598
-0.0113133,-0.00692524
-0.0118871,-0.00213683
0.014993,-0.000692363
0.0563764,-0.00809923
0.124787,-0.00271427
0.109908,-0.0124781
0.0164163,-0.0382544
-0.127913,-0.0332498
-0.231122,0.0151536
-0.134158,0.0206107
-0.0245292,0.00624539
0.00471344,0.00217969
0.0214132,-0.00757064
0.0274077,-0.0062526
0.0431541,-0.0012531
0.0810071,-0.000800485
0.105138,0.000344135
0.0362439,0.0148687
-0.053756,0.0271023
-0.0512357,0.0176756
0.00864849,0.00683984
0.0542369,-0.0113994
0.0575285,-0.00539236
0.206468,0.0032894
0.412301,0.00773254
0.367284,0.00796163
0.0836565,2.63e-05
-0.239657,0.00824391
-0.489742,0.0376624
-0.445942,0.014117
-0.209103,-0.0254864
-0.086189,-0.0239785
-0.084655,0.0018532
-0.198108,0.0240015
-0.122292,0.0302433
-0.0255121,0.0204085
0.00204503,0.00895909
0.0462703,-0.00909109
0.183957,-0.0239155
0.262917,-0.0141316
0.225304,-0.00975472
0.165122,-0.0286894
0.0561232,-0.0130885
0.062203,0.0125959
-0.0972944,0.00884199
-0.290816,0.00221199
-0.15044,-0.0120386
0.0475892,-0.0161111
0.142705,-0.025763
0.173834,-0.00778003
0.174649,0.00804724
0.0213828,-0.000739123
-0.0755296,-0.00354275
-0.14059,-0.00672249
-0.106842,-0.0102364
0.0448475,-0.00574872
0.0847479,0.000321423
0.0645762,-0.000875798
0.0476485,-0.00445563
-0.041285,-0.00582888
-0.0470599,-0.0016077
-0.115791,0.00624193
-0.134285,0.00280446
-0.00923273,0.00135017
0.0406755,0.00271142
0.0879074,0.00178789
0.143289,-0.00733225
0.131729,-0.0105347
0.0426329,0.00478088
-0.128516,0.0152431
-0.240209,0.00421948
-0.184657,-0.00696549
-0.0785828,-0.00400277
-0.00985578,-0.00651118
0.0407322,-0.00733985
0.0689752,0.00532912
0.0577366,0.0117034
0.0418268,0.00527888
0.0682776,-0.00537252
0.0641573,-0.00670794
0.0338447,-0.0109746
-0.025571,-0.00987148
-0.0390324,0.00580764
0.0024812,0.00890322
0.00620994,0.0110611
-0.0479482,0.0175551
-0.0701679,0.0175477
-0.0644829,0.000918939
-0.0210696,-0.00721992
0.0273839,-0.0139468
0.0585599,-0.0162851
0.0595546,-0.00188251
0.0851807,0.0182638
0.0709059,0.0151674
0.0798464,0.00109943
0.209198,-0.0114705
0.327391,-0.0220217
0.324652,-0.0227876
0.127631,-0.0167514
-0.197346,0.00911195
-0.470343,0.0290098
-0.452672,0.0402624
-0.287256,0.0142363
-0.150876,0.00299054
-0.0635144,0.0050332
0.00207979,0.00241503
0.0102161,0.00301231
-0.0266392,-0.00124154
-0.0408167,0.00156331
-0.0232144,0.0108674
0.0340454,0.0120045
0.137018,0.00136484
0.189379,-0.0125849
0.0399684,-0.0124573
-0.0412245,-0.000178683
0.0150701,0.00454282
0.0535758,0.00134745
0.0705212,-0.00171728
0.0488018,0.0132824
0.0165239,0.015168
0.0426462,-0.0041224
0.0720484,-0.0112593
0.0786195,-0.0190353
-0.00326577,-0.012682
-0.102078,-0.00487178
-0.0303893,0.00809784
0.0915734,-0.00387351
0.183085,-0.0318345
0.152167,-0.0445833
0.0785232,-0.0226908
-0.0464561,-0.00922331
-0.208284,0.00233687
-0.230878,0.0209102
-0.153266,0.0201305
-0.00162089,0.0118492
0.128373,0.0102367
0.148116,0.0102696
0.101806,0.00324711
0.00237751,-0.00286115
-0.126512,0.0110893
-0.0423164,0.0256213
-0.00458198,0.0192266
-0.124474,0.00231098
-0.205057,-0.00429999
-0.168307,0.00361745
-0.11659,0.0160488
-0.0243481,0.00972006
0.045334,-0.0129977
0.0330959,-0.0212728
0.0472636,-0.00790978
0.0875636,0.00255007
0.0801407,0.00136571
0.0261965,-0.00963875
-0.0112159,-0.0122748
0.0226682,-0.0188108
0.0944213,0.00476465
0.130043,0.0324067
0.0129237,0.0164344
-0.129996,0.00811302
-0.115164,0.0105218
-0.00183726,-0.00211924
0.0934,-0.0141195
0.120513,-0.0161824
0.103299,-0.0154224
0.149654,-0.0166423
0.120799,-0.0343217
-0.0819055,-0.0270313
-0.192676,-0.00346766
-0.082041,0.0101808
0.0569082,0.00606716
0.0724656,0.00471503
0.000420452,0.00372038
-0.0468236,0.0126831
-0.110611,0.000208519
-0.154839,-0.00640863
-0.108578,0.00559375
-0.0428823,0.0153433
0.0215914,0.0195557
0.0411662,0.0247015
0.0316916,0.0235611
0.045315,0.00977232
0.0390292,-0.0168488
0.0475752,-0.0204351
0.0365174,-0.0113058
0.0578101,-0.00662359
0.0575991,-0.002448
0.0383659,0.00627643
0.0116229,0.0152874
-0.0808799,-0.000228646
-0.0986399,-0.0234122
-0.0284103,-0.0289877
0.0539132,-0.0132041
0.0805504,0.00998989
0.0291524,0.0169689
-0.00873172,0.0125269
0.0549851,0.00932903
0.0520719,-0.0230151
-0.0316908,-0.00800043
-0.121805,0.0158781
-0.0682793,0.0187175
0.00388566,0.0151439
0.015799,0.00618494
-0.0036605,-0.00247133
-0.0169892,0.00387311
-0.00288059,0.00555436
-0.00538682,-0.0533595
-0.012036,-0.08781
-0.0328381,0.0139588
-0.0555295,0.0311518
-0.0440645,0.0178391
-0.00702682,0.0167823
0.0252118,0.00829384
0.041339,0.00479135
0.0446157,0.0037301
0.0651611,-0.00537715
0.0760891,-0.011064
0.0458346,-0.00262666
0.00652625,0.0065936
0.00651567,0.00899394
0.0389891,0.00873213
0.0434258,0.00612471
0.0160525,0.0082148
-0.0576748,0.0161577
-0.11043,0.0179221
-0.0858986,0.00325873
-0.0715156,-0.0125265
-0.0598155,-0.0146005
-0.0329607,-0.00639733
-0.00919439,-0.00199343
0.0635896,-0.0104515
0.0690085,-0.0144987
0.00877474,-0.00713744
0.0240556,0.00462558
0.045473,0.0038146
0.0285873,-0.00887902
-0.0394534,-0.000653974
-0.0738107,0.0130611
-0.0392624,0.0213133
0.0220076,0.0212848
0.0591878,0.00375245
-0.00225756,0.000758697
-0.0624095,0.0302422
0.0180867,0.0509693
0.0330241,0.0163711
-0.00273271,-0.018466
-0.0232602,-0.0477271
0.00838229,-0.057121
0.0694968,-0.041723
0.111186,-0.0413675
0.136318,-0.0252681
0.16281,-0.00489367
0.094979,0.0125246
-0.0805228,0.0143482
-0.231945,0.0149872
-0.260803,0.013738
-0.138783,-0.0115753
0.0245691,-0.00190671
0.154852,-0.00196885
0.0876117,0.0117012
0.0608552,0.0276391
0.170318,0.0163581
-0.00280164,0.00877719
-0.207549,0.00287383
-0.221113,-0.0111682
-0.191384,-0.00276538
-0.0951509,0.00427231
-0.0142115,0.0146542
0.0363141,0.0233951
0.0669671,-0.000162847
0.0615023,-0.0116612
0.0679987,-0.00785098
0.0308181,-0.00678206
0.0167207,4.43e-06
0.0782098,0.013592
0.105723,0.00981187
0.0193352,-0.01157
-0.0882687,-0.014418
-0.0803235,-0.00296847
-0.0249126,0.000559062
0.0509936,-0.0126733
0.0569422,-0.0404441
0.0182042,-0.011276
0.0146828,0.0327973
0.0251202,0.0331839
0.112599,0.0106664
0.135628,-0.00690839
0.0630689,-0.0157107
-0.0455201,-0.0127237
-0.141015,-0.00114401
-0.134081,0.0057378
-0.0743668,-0.00909022
-0.0457661,-0.038386
-0.0458496,-0.0147643
-0.0254826,0.0223957
0.0153902,0.0239395
0.0313033,0.0136361
0.0236048,0.00707041
0.000672074,0.011581
0.00524753,-0.019094
0.0194249,-0.076499
0.0419994,0.0034545
0.0810824,0.0759713
0.100863,0.0400423
0.06777,0.00448411
0.0561403,-0.0134748
0.00823502,-0.0137325
0.0182026,-0.00328447
0.0930218,0.00486896
0.177271,0.00338998
0.215222,0.00760687
-0.0553926,0.0151852
-0.326234,0.0103907
-0.248443,-0.00285961
-0.281756,-0.00770136
-0.266896,0.00680803
-0.0734452,0.0135613
0.112698,-0.000649648
0.161047,0.000477427
0.118945,0.00227542
-0.0259518,0.00179934
-0.176872,-0.00395333
-0.137537,-0.0183556
-0.0317522,-0.0340943
-0.0204641,-0.0369579
-0.0423757,-0.0167515
0.0281913,0.00377617
0.12964,0.0161848
0.190797,0.00384053
0.217099,-0.00224122
0.149882,0.00814537
-0.018547,0.0103366
-0.0187432,0.00309239
0.00402664,0.0360852
-0.108212,0.0172816
-0.10764,0.0169493
-0.0518721,0.0256868
0.0289976,0.00570295
0.0642736,-0.0262078
0.0660636,-0.0344075
0.0128139,-0.0279856
-0.0532013,-0.0214609
-0.0539965,-0.0251232
-0.0444448,-0.000692192
-0.0428041,0.00893685
0.0439562,-0.00944467
-0.0183705,-0.0134152
-0.110182,-0.00023803
-0.0632231,-0.00635219
0.0230976,-0.0154671
0.0881597,0.00620105
0.105026,-0.00733803
0.122385,0.00862758
0.140208,0.0364667
0.139935,0.0135033
0.132233,0.00135921
0.115665,0.0164955
-0.0717398,0.00838368
-0.131695,0.000304212
0.0149182,0.00588714
0.119385,0.00672568
0.186802,0.000972942
0.21963,-0.00573201
-0.0346068,-0.00862683
-0.43414,-0.0267371
-0.506792,-0.00117389
-0.32019,-0.00739674
-0.128562,0.00741476
-0.031107,0.032119
0.00441555,0.0215015
0.0420489,0.0015932
0.03236,-0.0143413
-0.00928229,-0.00667476
-0.0221513,0.0126341
-0.0146474,0.0177635
-0.00934192,0.00505297
0.0154397,0.00552667
0.0344165,-0.00427353
0.0440663,-0.0230431
0.0601516,-0.0166866
0.0722636,-0.00172438
0.0837736,-0.000862412
0.0862603,-0.00265304
0.0671185,0.0036264
0.0673852,0.00871841
0.0897716,0.00255477
0.0720129,0.00169348
-0.0192271,0.0102456
-0.0287351,-0.0142438
-0.038814,-0.0291635
-0.043119,-0.0202208
-0.00949972,-0.0287032
0.0664281,-0.0350405
0.0824669,0.035577
0.10239,0.0460031
0.0382903,0.00891417
0.0122416,-0.012102
0.0289295,-0.0236035
-0.075546,0.00057909
-0.0949942,0.0270001
0.0307233,0.00144957
-0.00579091,0.00167068
-0.10644,0.0255393
-0.0791411,0.000612232
-0.0684639,-0.0142311
-0.00726455,0.0193645
-0.0333873,0.0035459
-0.102402,-0.0257797
-0.113232,0.0388695
-0.0602684,0.00754975
0.0353903,-0.0293656
0.12858,-0.00223668
0.0978518,0.0128762
0.099629,-0.0133633
0.136052,-0.0122526
0.0341637,-0.0275556
-0.0663151,-0.0165666
-0.0104601,0.0295868
0.00935488,0.0248357
-0.0931739,0.0136167
-0.0938999,-0.00258977
-0.0617961,-0.0155887
-0.0737942,0.00129498
-0.0501013,0.0233901
-0.0278617,0.0108004
0.0603889,-0.0234365
0.0922393,0.0208687
0.0208965,0.0227741
-0.0794182,-0.00861968
-0.154295,-0.00165033
-0.0539921,0.00290128
0.138443,-0.00178404
0.225735,-0.0291068
0.189108,-0.052922
0.0835639,-0.0298402
0.0186873,-0.0476603
0.120112,-0.00665415
0.249296,0.0260088
0.236201,-0.00619498
-0.0815828,0.00327262
-0.412932,0.0195496
-0.367978,0.0190951
-0.226185,0.0115722
-0.1906,0.0143924
-0.130199,0.0199984
0.0127435,0.0255149
0.16879,0.0350177
0.171566,0.0466784
0.0751857,0.0396931
-0.0269997,0.028715
-0.00947417,0.00497544
0.124292,-0.0488035
0.173289,-0.0670188
0.0342874,0.0116575
-0.151723,0.000538889
-0.197149,-0.125657
-0.115642,-0.14248
-0.0145049,-0.0109034
0.00834002,0.0549804
0.000332298,0.0865834
0.00308893,0.0788895
0.0217697,0.0234096
0.037221,-0.00367398
0.0674518,-0.00448742
0.11757,-0.00999089
0.18209,-0.0328339
0.179852,-0.0369246
0.0651097,-0.00356098
-0.0795833,0.0180685
-0.205978,0.0156006
-0.160675,0.000284066
-0.0519667,-0.00479009
0.0226081,0.000530896
0.0913351,-0.0010504
0.135685,0.0074023
0.0945234,0.0252106
0.0021348,0.0562271
-0.0902403,0.0590069
-0.138405,0.0537983
-0.0430033,0.0397647
-0.0252751,-0.0721105
-0.0376585,-0.10631
-0.0374596,-0.0809105
-0.0015582,-0.0443709
0.0520444,-0.00792255
0.0514217,0.0103309
0.0113708,0.00923269
0.0105491,0.0282444
-0.00759935,0.0497745
-0.0618489,0.0351586
-0.0404092,-0.00181156
0.0670325,-0.0126872
0.0753937,-0.0148862
0.0111863,-0.0368328
-0.0186238,-0.0460712
-0.0127378,-0.0098519
0.00619811,0.0226679
0.00486729,0.0239387
-0.0169293,0.000509947
-0.0309976,0.0163893
-0.0139436,0.0240454
0.00581985,0.00610659
0.0286265,-0.0205901
0.0410964,-0.0226707
-0.0132251,-0.00173894
-0.0417697,0.03942
-0.0342816,0.0436659
-0.012981,-0.0538383
0.00228122,-0.0449275
0.0353561,0.0129313
0.044631,0.0203429
-0.0380371,0.044435
-0.0279505,0.0699735
0.123112,0.0783796
0.116026,0.0494912
-0.0439384,0.0031664
-0.115265,-0.0440156
-0.0463939,-0.0647054
0.0683071,-0.0513918
0.021991,-0.0625619
-0.0157844,-0.0545801
0.034707,-0.0151031
0.0247046,0.000692088
-0.0290249,-0.0130792
-0.0509438,-0.012481
-0.000107939,0.0114568
0.10275,0.0206
0.0573476,0.0211685
0.0353272,0.0204618
0.0167458,-0.0242586
-0.0870151,-0.0561245
-0.116668,-0.0325959
-0.0976727,0.0198223
-0.0882664,0.0373297
-0.0604082,0.0482757
-0.0427211,0.0530667
-0.0872131,0.0161797
-0.0790576,-0.0191971
-0.0015234,-0.00166468
0.157618,0.0315678
0.306715,0.0298868
0.308036,-0.0136274
0.0526677,-0.0260274
-0.199463,-0.0127994
-0.21178,0.0397402
-0.20082,0.0408082
-0.134122,-0.0167896
-0.0200333,-0.0329632
0.0857029,-0.0306665
0.157306,-0.0302264
0.174537,-0.0281959
0.105296,-0.0318754
0.0615826,-0.0178626
0.164094,0.0144991
0.0476011,0.0293572
-0.150965,0.0442953
-0.118575,0.0235555
-0.0514566,-0.0245404
-0.0393823,-0.0232444
0.00431824,-0.0195703
-0.0660706,-0.022549
-0.200606,-0.0154387
-0.155862,0.0130005
-0.0197279,0.00676129
0.0268003,-0.0405436
0.0668309,-0.0248578
0.107461,0.0169925
0.0944152,0.000681828
-0.0360476,-0.0107751
-0.113337,0.0520356
-0.0822964,0.0666944
-0.0284948,0.0133298
0.052213,-0.0243026
0.128154,-0.0118162
0.12239,0.0211857
0.0670322,0.0386546
0.0240424,0.016469
-0.0406079,-0.0110431
-0.073077,-0.0186986
-0.0328654,-0.0150621
-0.0213886,-0.00301762
-0.0228359,0.029649
-0.0211633,0.0517265
0.0238761,0.0790487
0.131994,0.105878
0.0451122,0.0209578
-0.0936959,-0.0671008
0.00182014,-0.0811651
0.151217,-0.0770861
0.155362,-0.0570472
-0.0243148,-0.0827855
-0.0710709,-0.0888297
-0.0264389,-0.00150029
-0.0540448,0.0372082
-0.0695482,0.0384138
0.0107273,0.00340823
0.0855971,-0.028965
0.0862256,-0.00230051
0.0689821,0.0153239
0.0590821,0.0188256
-0.0224285,-0.00567185
-0.0671662,-0.0107703
-0.0336978,0.0512301
-0.00897376,0.0692904
-0.047937,-0.010368
-0.0305062,-0.0362579
-0.00760445,0.0140712
-0.0964884,0.0499902
-0.17469,0.0363384
-0.108922,0.0436328
-0.00216346,0.0290018
0.100045,-0.0126305
0.0472531,-0.073461
-0.032333,-0.106025
-0.067698,-0.0989066
0.0171157,-0.0147889
0.132234,0.030658
0.144792,0.0321236
0.0448008,0.0437037
-0.11918,0.0486758
-0.195032,0.0467278
-0.0578002,0.0394334
0.0916303,0.0189318
0.0387207,0.01353
0.0202858,0.0197308
0.0800458,-0.020661
-0.00946003,-0.0580629
-0.0922882,-0.0338941
-0.0648202,-0.0469518
-0.0167994,-0.0268166
0.025063,-0.0094389
0.0233163,-0.073674
0.00234527,-0.0604308
-0.0139606,-0.00612293
-0.0164543,0.0403827
0.0233583,0.0916649
0.101998,0.0540762
0.0688728,-0.0165698
-0.040062,-0.00859147
0.0270657,0.0227859
0.109762,-0.00109336
0.0520052,-0.0299921
-0.0172616,-0.0182075
0.0534527,0.0376141
0.280723,0.0790504
0.43105,0.0413447
0.0292582,-0.0255521
-0.351283,-0.00214301
-0.410128,0.0402472
-0.307606,0.0401659
-0.145731,-0.00391578
-0.0540741,-0.0506121
-0.01667,-0.0632828
-0.0170348,-0.0594342
-0.00922197,-0.0736677
0.0301764,-0.0598434
0.0920577,-0.0204964
0.0681402,0.0300927
-0.0138314,0.0699047
-0.0131189,0.032046
0.0534075,-0.0213775
0.0702947,-0.0189422
0.0497193,0.00292388
0.00591606,0.0525109
-0.0350899,0.0513393
-0.0299615,-0.00971889
-0.00674556,-0.0569736
-0.00254478,-0.0319181
0.000575068,0.0201294
0.0249647,0.0432535
0.035411,0.027263
-0.0172947,-0.000994781
-0.0564231,-0.020756
0.00574079,0.00196783
0.15651,0.00521251
0.206912,-0.00220195
0.13034,0.0059237
-0.0931025,-0.00242301
-0.226769,-0.0146301
-0.111772,0.005494
0.173962,0.025108
0.348831,-0.0407604
0.239486,-0.0159377
-0.0396243,0.113998
-0.157702,0.134074
-0.192686,0.0670111
-0.291169,0.0340724
-0.266123,0.0228239
-0.133425,-0.022538
-0.021075,-0.141858
0.0572219,-0.163654
0.0156412,-0.111703
-0.0855602,-0.0421703
0.022912,0.0171542
0.248855,0.0210645
0.321173,0.0147688
0.260394,-0.0102921
0.112885,-0.0181091
-0.0795196,0.00644788
-0.268332,0.0500844
-0.319768,0.00527173
-0.197132,0.00256551
-0.114392,-0.00600068
-0.054481,0.0182604
0.0109117,0.0126132
0.030878,0.0198172
0.0345466,0.0300487
0.0374365,0.0398454
-0.0203047,0.0250008
-0.0377482,0.0083353
0.00858968,-0.0247097
0.0929761,-0.0575951
0.164113,-0.0118299
0.227279,0.0175144
0.234337,-0.00925663
0.104144,-0.0315367
-0.0252554,0.000796623
-0.0422124,0.028519
0.0217924,0.0236397
0.12076,0.000649258
0.108898,0.0119021
-0.124299,0.0416406
-0.282863,0.0134587
-0.189434,-0.0314554
-0.0795113,-0.0607933
-0.0806098,-0.0519008
-0.0681908,-0.0232886
-0.0307138,-0.0130007
-0.0453678,0.0105967
-0.102255,0.042338
-0.0771298,0.0500856
0.0887335,0.0166568
0.244282,0.000555558
0.240934,0.0145033
0.0479504,0.0388086
-0.0585963,-0.0132582
0.0236972,-0.0582149
0.059715,-0.00755944
-0.0379493,0.00330786
-0.115187,0.00838134
-0.0383497,0.00709257
0.136291,-0.00601548
0.200684,-0.0434425
0.150826,-0.105044
0.0097055,-0.0636786
-0.154007,0.0524305
-0.147365,0.0406414
-0.0939015,0.0326977
-0.0585506,0.0307371
-0.0869108,0.00421934
-0.116879,-0.0249694
-0.0775963,0.00530368
0.0131872,0.0305841
0.12528,0.0353947
0.144834,0.0241108
0.0429213,0.00924856
-0.0431727,0.00457977
-0.0706002,0.0106782
-0.147951,0.0160186
-0.161342,0.0139842
-0.119488,0.0118562
-0.0621163,0.0168926
-0.0305211,-0.0141483
-0.013781,-0.0501237
-0.00292815,-0.0648516
-0.00804267,-0.0405371
0.0400335,0.0652937
0.301257,0.0969228
0.460545,0.0228258
0.378193,-0.030334
0.12836,-0.042964
-0.203815,-0.0361264
-0.282077,-0.0509945
-0.0566917,-0.0428369
0.0479922,-0.0348482
0.0663142,-0.0054094
0.0849359,0.0234126
-0.0027379,0.0411865
-0.0981759,0.0210409
0.0800293,0.00679098
0.168696,0.00372982
0.105395,-0.0365213
-0.142953,-0.0629183
-0.373769,-0.0163985
-0.265681,0.0679107
-0.10115,0.0555931
-0.0626346,0.0178817
0.0184646,0.0396496
0.081573,0.0115043
0.0299478,-0.0215377
-0.00866787,-0.036541
0.0824477,-0.0340804
0.219623,-0.000988986
0.283206,0.0234609
0.236666,0.00592691
-0.0395492,-0.0418092
-0.330628,-0.0264345
-0.37331,-0.0404033
-0.311697,0.0410573
-0.14911,0.0552991
-0.00724056,0.0039452
0.0225495,-0.0144995
0.0488735,-0.0115901
0.0747476,-0.000176789
0.0728841,0.00589115
0.0618246,0.0051301
0.052571,0.00623104
0.0324314,0.0122687
0.0168795,0.0299389
0.024972,0.0404818
0.00387476,0.0288122
-0.00807331,0.0170131
-0.00346605,0.00554797
0.0650488,-0.00768459
0.151588,-0.00323425
0.169591,-0.00688054
0.12616,-0.0273264
0.0513703,-0.0596837
0.118366,-0.107144
0.18477,-0.0460412
0.153779,0.0238793
-0.0399541,0.0310306
-0.344139,0.0111266
-0.420187,0.00149176
-0.24141,0.0371909
-0.12444,0.0418186
-0.0147628,0.0134235
0.067357,-0.00580321
0.0356669,0.00345716
-0.0576234,0.0430698
-0.0519794,0.0700366
-0.0421617,0.0495403
0.0707139,0.0443982
0.225481,0.0223887
0.0845077,-0.0382343
-0.139242,-0.0823602
-0.120931,-0.0982234
0.0163241,-0.0557672
0.138905,-0.0279276
0.21043,-0.0333707
0.14314,-0.0193264
-0.0589524,0.0286665
-0.160324,0.00488707
-0.0819341,-0.0344868
0.0400851,0.00835577
0.127172,0.000230867
0.113175,0.00915551
0.0557852,0.00678498
0.0755206,0.0040345
0.101251,-0.016615
0.0194021,0.0157388
-0.119994,0.0209975
-0.127107,0.0373183
-0.0563434,0.0517095
-0.122963,0.0104148
-0.15672,-0.00819895
-0.00597573,0.0138382
0.113561,0.0044688
0.146523,0.0181716
0.00693011,0.0294921
-0.15219,0.0116397
-0.152839,-0.0564621
-0.108285,-0.0730693
-0.0803172,0.0208088
-0.0242169,0.0330755
0.0479047,-0.0128818
0.115762,-0.045414
0.0942331,-0.0396602
0.0288438,-0.0189999
0.0145269,-0.00166363
0.0415378,0.0186347
0.0803458,0.0302512
0.104991,0.0246523
0.0268394,-0.00304636
-0.092605,0.00902851
-0.112219,0.00970988
-0.0652685,0.00218598
-0.022681,0.00558937
-0.0122565,0.00753874
-0.0261653,-0.00143087
-0.035923,-0.0138167
-0.0135468,-0.0149004
0.090395,-0.0106439
0.180126,-0.0223297
0.17109,-0.00831561
0.0433691,0.0246369
-0.12586,0.0176596
-0.102359,-0.0230198
0.0312378,0.00422939
0.0838064,0.0339436
0.0396537,0.0268826
-0.0423767,0.0139629
-0.0877856,0.00129852
-0.0354564,0.015304
0.0157616,0.0333728
-0.0143788,0.0360663
-0.055744,-0.00868833
-0.11076,-0.0595665
-0.116917,-0.0843121
0.00216521,-0.0394506
0.0925138,0.00561581
0.131674,0.0156752
0.111236,0.017041
0.0801392,0.0172846
0.0904893,0.00240057
0.0405778,-0.00730595
-0.0536248,-0.0044552
-0.170297,0.00250942
-0.195322,0.0119219
-0.0711487,0.0182948
-0.0372494,0.0253787
-0.0975299,0.0196826
-0.0965548,0.00560707
-0.0148267,-0.00296019
0.0274882,-0.0154401
0.106794,-0.0461113
0.278313,-0.0538471
0.331975,-0.00339022
0.319067,0.0298646
0.162194,0.0174293
-0.0542042,0.016271
-0.216967,0.00397722
-0.355853,-0.00782928
-0.281983,-0.00103595
0.0108583,-0.00449691
0.174054,-0.0109083
0.18854,-0.0225776
0.0327469,-0.0119734
-0.269735,-0.0110791
-0.340764,-0.032981
-0.201899,0.0152376
-0.101919,0.0557305
0.000734117,0.0473022
0.234298,0.00508733
0.299498,-0.0146843
0.116565,-0.0300182
-0.0503997,-0.0307613
-0.165193,-0.0202332
-0.140515,0.00652885
-0.0431722,0.0399813
0.0292369,0.0478758
0.0685979,0.0239242
0.0634608,0.0273607
0.0664673,0.00506881
0.0530224,-0.0400322
0.0250513,-0.0556699
0.0421835,-0.0274315
0.0411899,-0.0129903
0.021036,-0.00822704
-0.019101,0.0163551
0.00603704,0.0551035
0.169507,0.0508277
0.0981261,-0.00951741
-0.0436919,0.0167493
-0.0726477,0.0470692
-0.0636924,0.0241505
-0.0582514,-0.00135374
-0.0416772,-0.0274402
-0.0479958,-0.0625785
-0.0274247,-0.043337
0.0599393,-0.0404238
0.128886,-0.101587
0.103204,-0.0673146
0.0213461,0.00478846
-0.0796856,0.00956101
-0.0809393,-0.0213976
-0.0562083,0.0170319
-0.0615233,0.0369826
-0.0509124,0.0334999
-0.0513838,0.0254063
-0.00638743,0.00698911
0.161742,0.00263058
0.225489,0.0127776
0.14435,0.0234193
-0.0636273,0.0328532
-0.270896,0.0404769
-0.22026,0.0329535
-0.0671041,0.0229652
0.0133292,0.0166923
0.0828787,-0.00376058
0.15088,-0.0401076
0.177997,-0.00459262
0.177991,0.026075
0.0850982,0.0176327
-0.0646296,0.0192129
-0.218951,0.013823
-0.314462,-0.0226504
-0.160914,-0.0573019
-0.0381549,-0.0617747
-0.0103796,-0.0217917
0.0104,0.0144521
0.0717907,0.025669
0.118541,0.0296097
0.0990122,0.0239546
0.0240467,-0.00922618
-0.049704,-0.00958791
-0.112286,0.00841577
-0.0955229,0.0053801
-0.0472699,-0.00697848
-0.00922617,-0.036076
0.0438011,-0.0195882
0.0827933,0.00814336
0.104744,0.00146899
0.113587,-0.00872953
0.141121,-0.0133645
0.196685,-0.00498947
0.174519,0.00352266
-0.019466,-0.00842697
-0.229776,0.0109542
-0.262174,0.022189
-0.118081,0.0164276
0.0456076,-0.0027275
0.207152,-0.0168827
0.252144,0.00721657
0.178168,0.0315004
-0.0341629,0.0076153
-0.31354,-0.00455427
-0.376271,-0.00522548
-0.213294,-0.00150982
0.0756723,0.00940492
0.109964,-0.027884
0.00846177,-0.0199403
-0.0330911,0.00470831
-0.0796447,-0.0249615
-0.0699287,-0.0192849
-0.0183094,-0.000931496
0.0293968,0.0114558
0.0404129,0.0167634
0.0378284,-0.00113755
0.0205344,-0.0428287
0.00702364,-0.0284501
-0.0127326,-0.0106624
-0.00176924,0.00874351
0.0827364,0.0238309
0.15462,-0.000145055
0.222431,0.00952442
0.200944,0.0101887
0.0421745,0.0157223
-0.138252,0.0253487
-0.171028,0.000409856
0.0389951,0.00138855
0.251777,0.0203965
0.191156,0.0207799
-0.109921,0.00183775
-0.330968,-0.00385673
-0.284896,-0.00309299
-0.178339,-0.00937484
-0.120567,-0.00650169
-0.0645368,-0.00317935
0.0197423,-0.00320769
0.0707552,0.0084529
0.0888211,-0.000738023
0.0770014,-0.00191279
0.0597844,-0.00769627
0.0534957,-0.0231322
0.00144255,-0.0253248
-0.0442458,0.01994
0.0179392,0.0271015
0.125411,0.0170808
0.261159,0.0357922
0.296206,0.0197322
0.13993,-0.0110234
-0.115402,-0.0225038
-0.245752,-0.0148919
-0.222442,-0.0155692
-0.0462094,-0.0236485
-0.0754314,-0.0235819
-0.0382458,-0.0300841
0.1079,0.0124915
0.0417939,0.0434701
0.0349886,0.0301183
0.0432796,0.0142552
-0.0581707,0.0156073
-0.0517493,-0.000446301
-0.158349,-0.044013
-0.244942,-0.0344929
-0.159911,0.0233807
-0.0269687,0.0310062
0.024419,0.0263016
0.0279604,0.0276551
0.0506313,-0.00708798
0.150324,-0.0584281
0.187335,-0.0527521
0.121835,-0.0212034
0.0266206,-0.0135248
-0.0793741,0.00136689
-0.120262,-0.0211077
-0.0531472,-0.0175075
0.0145777,-0.00441179
0.107957,-0.00294413
0.188051,0.00559592
0.145471,0.0555829
0.00283581,0.0309578
-0.124225,0.00892901
-0.152937,0.0151328
-0.106526,0.0467818
-0.0509981,0.052222
0.00199612,0.0119843
0.0249895,-0.027904
0.0650172,-0.0381246
0.128143,-0.0307444
0.104245,-0.0186374
0.0200266,-0.00384699
-0.130539,0.0110414
-0.175441,0.00863359
-0.0452316,-0.017501
0.0502766,0.00722123
0.0730838,0.016372
0.0717181,0.00571803
0.0907106,0.0220731
0.0610073,0.0135182
0.00712278,-0.0149665
-0.0500149,-0.0378396
-0.102245,-0.00973681
-0.101146,0.0333
-0.082892,0.000611992
-0.0551116,-0.015881
-0.0333861,-0.0336459
-0.0203148,-0.0641669
-0.014161,-0.026785
0.0292708,-0.00207967
0.127965,0.0135494
0.187103,0.0366485
0.213383,0.0131451
0.102405,-0.0079822
-0.0624997,0.0108781
-0.16191,0.0222918
-0.113956,0.0315722
-0.0208715,0.0356347
0.0409744,0.035173
0.0732034,0.0123195
0.145012,-0.0103459
0.179533,-0.0120895
0.0969625,-0.0138456
-0.109171,-0.0169791
-0.296734,-0.0256823
-0.319498,-0.00643012
-0.174137,0.0181838
-0.0788576,-0.00826402
-0.0450671,-0.0328751
0.0104723,-0.0106096
0.108002,0.0113113
0.193359,0.00178808
0.209116,0.00141554
0.11157,0.00585427
-0.0427235,0.00705149
-0.114126,-0.022189
-0.111753,-0.0252492
-0.102925,0.0190034
-0.089857,0.0350952
-0.0220314,0.0312653
0.0586153,0.0248927
0.0170684,0.00432805
-0.0226789,-0.00604658
-0.0216857,-0.00694091
0.0198493,-0.00813843
0.104927,-0.0170168
0.150517,-0.0216688
0.223635,-0.0156196
0.197642,-0.00314456
0.0488354,0.0127018
-0.0706669,0.00294472
-0.216008,-0.0120521
-0.212361,-0.01784
-0.0828549,-0.0232785
-0.039258,-0.00321806
-0.0369501,0.00400025
0.0381476,0.00673337
0.131577,0.0121664
0.124442,0.0269508
0.110371,0.0308558
0.0330486,0.0088879
-0.122265,-0.021623
-0.140563,0.00211721
-0.088425,-0.00733901
-0.0796199,-0.00448554
-0.0060712,0.00590045
0.0418497,-0.016034
0.0123982,-0.0125499
-0.0123282,0.00312141
0.010183,0.0157533
0.0455588,0.00756712
0.0279408,-0.00977308
-0.0122062,-0.0201013
-0.0198473,-0.00608061
0.000299589,0.00876847
-0.0202497,-0.00111583
0.0279944,0.0054784
0.0645633,0.00925431
0.010882,-0.000477098
-0.0453489,0.00994539
-0.0585636,0.0189665
-0.0298871,0.0196279
0.00750958,0.0130382
0.0218144,0.00637715
0.0402668,-0.00925276
0.0472791,-0.0186179
0.0527819,-0.0131189
0.0534396,-0.00101354
-0.00109928,-0.00340127
-0.0802122,-0.01236
-0.0880482,-0.0418361
-0.00811944,-0.0251401
0.0589246,-0.00932064
0.0672074,-0.0102934
0.0245131,-0.0186503
-0.0417516,-0.0193213
0.00891024,0.0279784
0.202435,-0.00334409
0.332103,-0.0186123
0.298503,0.0305136
0.0185551,0.0410176
-0.320476,0.0266871
-0.425269,0.010293
-0.302189,-0.0102805
-0.150305,-0.00826878
-0.0564987,0.00267086
0.0461054,0.0173136
0.13019,0.026523
0.113499,0.0234789
0.0406004,0.0337973
-0.0785609,0.0344729
-0.139184,0.00173051
-0.0442598,0.00833526
0.019225,-0.0124296
0.0725615,-0.0752753
0.110918,-0.0287952
0.0852143,0.0160973
-0.0446524,0.0261779
-0.120032,0.0202526
-0.0428014,-0.0141155
0.00820537,-0.0172915
-0.00127745,-0.0176965
0.0465671,-0.0261971
0.221762,-0.0311633
0.265942,-0.045972
0.145485,-0.0274086
-0.0014302,-0.00180566
-0.0969651,-0.00421399
-0.0147987,0.00565725
0.0759121,0.0370866
-0.051709,0.0176975
-0.246385,0.00535427
-0.276202,0.0180779
-0.199056,0.0257962
-0.049416,0.0282582
0.0593678,0.0333202
0.0849705,0.0234967
0.00626531,0.0121986
-0.0455046,0.0137788
0.077918,0.0134015
0.306132,2.69e-05
0.278698,-0.0094094
0.102324,-0.00334034
-0.0658884,-0.0277227
-0.161542,-0.0866877
-0.0980468,-0.0843063
-0.0147164,0.0582701
-0.0710336,0.0376516
-0.169607,-0.0526379
-0.0752944,-0.00849661
-0.00636111,-0.00941513
0.00472017,-0.00374293
-0.013704,0.00455492
-0.00702638,0.00198257
0.0208084,0.000197475
0.0356729,-0.000524043
0.0169984,0.0046272
-0.056414,0.0135583
-0.120591,0.0252164
-0.0876424,0.0282207
-0.0145369,0.0143518
0.0408006,0.00437466
0.0381877,0.0085155
0.0466909,0.0205662
0.136629,0.0322912
0.282345,0.0511825
0.256759,0.00225823
0.0463268,-0.0497285
-0.123809,-0.0516195
-0.0895269,-0.0359241
-0.00323751,-0.0206968
0.008875,-0.0114536
-0.0231377,-0.0206821
-0.114659,-0.0184359
-0.15115,0.00675814
-0.0468379,0.0182808
0.0393367,0.00838822
0.0506356,0.00679823
0.0650547,0.0149921
0.17282,0.0102993
0.26731,-0.0123109
0.199353,-0.0200436
-0.0336412,0.0108235
-0.238289,0.0191142
-0.241227,0.0116171
-0.208832,0.0316699
-0.168716,0.0527026
-0.0733844,0.025245
-0.0248801,-0.00469115
-0.0384474,-0.0321059
-0.077229,-0.0572636
-0.0694854,-0.0529112
-0.0438898,-0.0156341
-0.0165216,0.00170809
0.0221475,-0.0108692
0.0792542,-0.00741174
0.129532,-0.00998738
0.124067,-0.00810897
0.11031,-0.000928888
0.112168,0.00364755
0.0912387,-0.00995134
0.111311,0.00609689
0.170731,0.046841
0.14202,0.0397131
0.144059,0.0177389
0.265286,-5.51e-05
0.219353,-0.00582771
-0.106719,-0.00430502
-0.487369,5.71e-05
-0.547666,-0.00124941
-0.361631,-0.00653416
-0.195795,-0.00582258
-0.0811073,0.00236838
-0.0103062,0.0120215
0.0628603,0.0131442
0.122346,-0.0288958
0.129207,-0.0665963
0.0667538,-0.00793642
-0.0240322,0.0559928
-0.0247624,0.0679624
0.0283054,0.0224235
0.0632802,-0.0178632
0.0529187,-0.0248723
-0.0143802,-0.0111792
-0.0502479,-0.00159328
0.00817396,0.00284753
0.113116,0.00070574
0.233504,0.0218394
0.24045,0.0345688
0.103795,-0.00942801
-0.0708391,-0.0679119
-0.21693,-0.0231077
-0.233772,0.0125982
-0.112002,-0.00490707
-0.0454563,-0.00709164
0.0324857,0.0054623
0.14388,-0.000774913
0.186577,-0.0148758
0.125253,-0.0017687
-0.0145298,0.0076312
-0.225882,0.00718815
-0.25059,0.00425435
-0.120375,0.0200359
-0.046511,0.00389883
-0.025834,0.0140623
0.0843528,0.0296118
0.22162,0.0103891
0.276022,-0.00310006
0.192202,-0.0366007
0.0403912,-0.0145658
-0.0604772,0.0198841
-0.00238117,-0.0103713
0.118706,-0.0230673
0.101374,-0.0324664
-0.0740921,-0.0273552
-0.250995,0.00240124
-0.287639,0.0428525
-0.159896,0.020374
-0.0744634,-0.0277431
-0.0464829,0.0189825
0.00485711,0.0200655
-0.0325014,-0.0231469
-0.0791364,-0.0166213
-0.0330887,0.00535978
-0.00333544,0.00882545
0.000672677,0.0144041
0.00981694,0.0165831
0.0352708,0.0221626
0.0611779,0.00032253
0.0650514,-0.0583021
0.0387467,-0.0318407
0.0374189,0.0392908
0.084903,0.0640456
0.112623,0.0706999
0.106074,0.0415326
0.0902414,-0.0113062
0.00205341,-0.0208361
0.00294009,-0.018398
0.139339,-0.0777519
0.103375,-0.0709237
-0.0540531,-0.00345717
-0.219282,-0.0202332
-0.185187,-0.0295103
0.0123118,0.0119232
0.0691649,0.0326477
0.0655552,0.027058
0.0212937,0.00893155
-0.0143797,-0.0247528
0.0464204,-0.0119904
0.160527,0.00782444
0.232285,0.00348516
0.126586,0.000923173
-0.136518,0.0151858
-0.308006,0.0201523
-0.383479,0.0145371
-0.268307,0.00511985
-0.0539671,-0.00501945
0.0556783,-0.0104764
0.0543838,-0.00659146
0.0511805,0.00185244
0.0833772,-0.0182605
0.117892,0.0148668
0.0893959,0.0100486
-0.0216387,-0.0144157
-0.145873,-0.0107748
-0.0121265,-0.028613
0.117979,0.00231669
0.108276,0.026502
0.0647061,5.66e-05
0.0333555,-0.00256367
0.0493306,-0.00162733
-0.0841591,0.00326972
-0.24776,0.00654966
-0.199087,0.00439726
-0.0635639,0.00899151
0.0297462,0.0150305
0.0941381,0.0136959
0.149369,0.00519358
0.111373,-0.00633301
0.0449824,-0.0109486
-0.0231195,-0.00956149
-0.105177,-0.0146376
-0.0792356,0.0223389
-0.0386598,0.0248743
-0.044112,0.00747442
-0.0132081,0.00262231
0.0687413,-0.0138458
0.124273,-0.0115737
0.118518,-0.00449699
0.0835147,-0.00347417
0.0239252,-0.00795469
-0.0492948,-0.00259457
-0.0415113,0.00879798
0.0269838,0.0171747
0.0843388,0.0105266
0.0745808,-0.0101139
0.044479,-0.026847
0.0102146,-0.0124275
-0.125218,-0.00645629
-0.192853,-0.0583257
-0.1163,-0.0113047
-0.0224915,0.0542302
0.0444248,0.0285168
0.0627148,-0.00225358
0.0162201,-0.0247841
-0.058214,-0.0309488
-0.0441589,-0.0213067
0.00390418,0.00985296
0.0420162,0.02565
0.0583689,0.0129054
0.0283811,0.00810676
-0.0119608,0.0191882
-0.0247042,0.00720776
0.0161387,-0.00112108
0.144321,0.00320623
0.228311,0.0179981
0.186582,0.0228915
0.00595206,0.014824
-0.223341,0.00700393
-0.248387,-0.00420624
-0.077745,-0.00637996
-0.0326279,0.00670765
-0.0400493,-0.00620579
-0.0342422,-0.0148459
-0.0465772,-0.00802077
-0.0269153,-0.0222984
0.0279705,-0.0383388
0.0390258,-0.0315057
0.0313198,-0.0056638
-0.0108445,-0.00160269
-0.0743527,-0.00415237
-0.0457973,0.00664799
0.0568997,0.00783174
0.125292,-0.0161449
0.0901597,-0.0229261
-0.0297626,0.0104447
-0.0854361,-0.0125428
-0.0474958,0.0192719
0.0804601,0.0319579
0.280399,0.0197183
0.31349,0.0293255
0.113536,0.0215386
-0.224492,0.0414584
-0.371826,0.049969
-0.190883,-0.0234385
0.0191021,-0.0734826
0.107057,-0.0631158
0.0949677,-0.0176972
0.0318132,0.04251
0.00466097,0.00375374
-0.0938511,0.0176726
-0.19811,0.00563366
-0.162567,-0.0124248
-0.0173206,-0.0126666
0.0365225,-0.00849216
-0.000265177,-0.00548055
-0.0025706,-0.000414186
-0.0370483,0.00787305
-0.00907013,0.00953645
0.0776727,0.00782506
0.083436,0.00390347
0.068598,0.00792635
0.0933297,0.0125941
0.0921416,0.0231222
0.0515389,0.0161836
-0.0560101,-0.000841364
-0.191391,0.00101838
-0.12425,0.00506705
-0.00839279,0.00753058
0.0373794,-0.0124917
0.0583228,-0.0119491
0.067768,-0.015404
0.106854,-0.0234637
0.113085,-0.0194308
0.0893984,-0.0120465
0.0123046,-0.00653756
-0.086037,-0.00410227
-0.0939742,0.0173101
-0.0760982,0.0195778
-0.0525346,0.00671299
-0.0284164,-0.0100174
0.00856371,0.00369548
0.0207205,0.012313
0.0109539,0.000275536
0.015698,0.00871721
0.0492818,0.0173963
0.0915286,0.00977617
0.110295,-0.000404059
0.0631241,0.0204135
0.00694742,0.0113093
-0.0437248,-0.020153
-0.0986701,-0.0144892
-0.0941087,-0.030635
-0.077412,-0.0422757
-0.0641786,-0.0399037
-0.0453559,-0.0398776
-0.0412428,-0.0394191
-0.0169539,0.0213449
0.0325164,0.012737
0.0725473,-0.00991585
0.07639,0.0241276
0.0956011,0.0371207
0.130527,0.0273355
0.0712543,0.02231
-0.000795474,0.0256673
-0.0416215,0.0179808
-0.141256,0.00334428
-0.159174,0.00222463
-0.0148764,0.014146
0.0856832,0.0195927
0.0914507,-0.000181206
0.0310214,-0.0160204
0.00674698,-0.0334391
0.0408907,-0.028718
0.0220882,0.00546911
-0.0608749,0.00400092
-0.0535923,0.00304654
0.0156583,-0.00385545
0.0442689,-0.047367
0.0691971,-0.0206525
-0.0922482,0.000810003
-0.214327,-0.0145132
0.0233267,-0.00993127
0.201075,0.00703978
0.132949,0.0162447
-0.0222004,0.018864
-0.142706,0.0213704
-0.124003,0.0229132
0.0975774,0.0208911
0.0623444,0.0134827
-0.199542,-0.00362722
-0.24429,0.0235059
-0.105256,0.0359056
-0.0396146,-0.00523643
-0.0351421,-0.0244569
-0.0347265,-0.0133171
0.0189698,-0.00582054
0.0656962,-0.0053835
0.0763357,-0.00842293
0.0527857,-0.00484341
0.0406733,-0.00709572
0.0432488,-0.016105
0.0390656,-0.021131
0.0405373,-0.0139482
-0.00837578,-0.00778552
-0.0356798,0.00401614
0.00324558,0.000331512
0.0501988,0.00721973
0.0727456,0.0253569
0.0312744,0.0384973
0.018761,0.00703967
0.082034,-0.0280292
0.111853,-0.015039
0.0909638,0.0184666
0.0286615,0.0291501
-0.0355319,0.0183415
-0.0529965,-0.026456
-0.0622286,-0.0512861
-0.0721994,-0.0367547
-0.0475948,-0.0195735
-0.0171995,0.00718242
-0.0309683,-0.00572221
-0.0278174,-0.00836064
0.0581907,0.0185206
0.14967,-0.00763587
0.147924,-0.0215746
0.0384526,0.00659651
-0.0723056,0.0231882
-0.119194,0.0245385
-0.0683561,0.0186572
-0.00399416,0.00505226
-0.0580546,-0.00727504
-0.156535,0.00477178
-0.117464,0.0150745
0.0202819,-0.000969316
0.225005,-0.00580005
0.356957,-0.0169122
0.243515,0.0224707
0.0166571,0.0401897
-0.129788,0.0287761
-0.0967023,0.00088202
0.0500012,-0.0174992
0.0338619,-0.0217438
-0.157153,-0.0141803
-0.239722,-0.00239497
-0.188137,0.0169566
-0.188099,0.0258926
-0.116998,0.0137833
-0.0302511,-0.00555377
-0.00193032,-0.00710625
0.00497133,-0.0105672
0.0172599,-0.0151024
0.07866,-0.00658142
0.0927504,0.00253684
0.0831988,-0.00263952
0.0429986,-0.0237728
-0.0701048,-0.0337651
-0.0920438,-0.0424219
-0.0228686,-0.00657246
0.0247171,0.024119
0.0358038,-0.00567395
0.0893106,-0.00458967
0.233557,0.0277284
0.208759,0.0334778
0.059967,0.0157833
-0.0915156,0.00355835
-0.165882,-0.00289179
-0.0404653,-0.00726733
0.0398468,0.0103084
0.0125576,0.01695
-0.0109722,-0.00404405
0.0699093,-0.00625063
0.30528,0.00317708
0.28218,0.00660165
0.104926,-0.00280399
-0.105422,-0.0113674
-0.278537,0.00654054
-0.428832,0.00351244
-0.401315,0.000560885
-0.148667,-0.00302344
-0.00367135,-0.0304539
0.00658701,-0.0582477
0.0101678,-0.023523
0.065488,0.0341444
0.11896,0.0350433
0.107969,0.0154606
0.0605223,0.0031821
-0.022842,0.00219573
-0.0887069,0.0141768
-0.00393863,0.017244
0.0499386,0.00652601
0.0577223,0.00536039
0.0447198,0.00156823
0.00418547,-0.0102794
0.0167174,-0.015695
0.0311969,-0.00559755
0.0597099,-0.00402982
0.123774,-0.0391413
0.178244,-0.013989
0.130972,0.0343551
0.0392806,0.0387154
-0.0560009,0.012772
-0.0970504,-0.00111732
-0.0864596,-0.00157357
-0.145132,0.00105668
-0.131843,-0.00121153
-0.026087,-0.0250627
0.0318228,-0.0315414
0.0522121,-0.0139554
0.0345119,-0.0053773
-0.029686,-0.00930223
-0.0688038,-0.00790382
-0.0264368,-0.00126753
0.0427748,-0.00484593
0.046612,-0.0299011
0.0125069,-0.00116276
-0.0329258,0.0351689
-0.0521202,0.0354412
-0.0495428,0.0165523
-0.0400179,-0.00623226
0.00738003,-0.0127425
0.0622184,-0.0186845
0.0957857,-0.0153985
0.00176647,-0.00460145
-0.0808573,0.00909241
0.0108029,-0.00253418
0.0735788,0.0109894
0.0780115,0.0293577
0.0545735,0.02063
0.0133856,-0.000107261
0.0102935,-0.00908567
0.0386449,0.00154173
0.0475428,0.0102339
-0.0115547,-0.012154
-0.115338,-0.0121927
-0.130928,0.00865547
-0.10359,0.0152023
-0.0728967,0.0067559
-0.0368858,-0.00305705
-0.0114126,-0.00886786
0.00279569,-0.00554828
0.0020201,0.00175102
-0.0147962,0.0287889
-0.000947963,0.0392303
0.026523,0.0192394
0.0435563,-0.00520218
0.0293562,-0.0252439
0.00480686,-0.00955943
0.0254821,-0.019554
0.0314022,-0.0149068
0.0537008,0.00388277
0.103522,0.00449987
0.13557,0.00459461
0.210337,0.00521027
0.334727,-0.00102705
0.31692,-0.00776553
0.132281,-0.0402636
-0.181954,-0.072844
-0.484451,-0.0279737
-0.510515,0.0369331
-0.287694,0.036326
-0.0737388,0.0278653
0.0503484,0.0157559
0.0598726,-0.0040931
0.0426868,-1.64e-05
-0.0360584,0.0076413
-0.139819,0.01574
-0.126763,0.0179662
-0.068118,0.00492049
-0.0323307,0.00536834
-0.0248513,-0.00436945
-0.0168012,-0.00484868
0.0196304,0.00947336
0.0391647,0.00695408
0.0536939,-0.00282308
0.103989,-0.00270706
0.156282,-0.0114164
0.168265,-0.017255
0.211123,-0.02762
0.278257,-0.0395161
0.235132,-0.0104539
0.0669857,0.00676448
-0.0956438,0.00784498
-0.152726,0.0226906
-0.0327714,0.0389903
0.0988064,0.0106796
0.194149,-0.0116373
0.0957269,-0.00522346
-0.209389,-0.007049
-0.405178,-0.00178708
-0.374285,0.0025711
-0.23705,-0.00493174
-0.0997205,-0.00530501
-0.0281551,-0.0105869
0.0487412,-0.0169974
0.0670788,-0.00916019
0.0506447,0.0122918
0.0317683,0.0189232
0.0103996,-0.00413344
0.0155141,-0.00871846
0.0293624,0.00510164
0.0163084,0.011818
0.000469227,0.00355985
0.00321861,-0.00630877
0.0139151,-0.00147467
0.0287952,0.00976676
0.076019,0.016903
0.0815484,0.0138278
0.0181664,0.00271272
0.00359746,-0.0119966
0.0428286,-0.0186333
0.078511,-0.00970692
0.0717417,0.00987428
0.0965693,0.0148619
0.123785,0.0079731
0.0476918,-0.0195286
-0.0749035,-0.026247
-0.105842,-0.0180641
-0.0855741,-0.0288875
-0.0674141,0.0075235
-0.0475787,0.0268796
-0.0197701,0.0149836
0.0593271,-2.24e-05
0.120933,0.00176174
0.151962,0.0084438
0.110368,0.00529281
-0.0639916,-0.0125201
-0.186439,-0.0123087
-0.19156,0.0226173
-0.168104,0.0431116
-0.102563,0.017774
-0.0482697,-0.0201642
-0.00875338,-0.019126
0.0145494,-0.0161047
0.0337983,-0.0093316
0.0479935,0.000277112
0.0542777,0.00284648
0.100025,-0.00257348
0.0907461,0.00155399
0.0363519,-0.021668
-0.00696082,-0.0276414
-0.104663,-0.00293113
-0.113528,-0.0104929
-0.00870153,-0.0140219
0.0771307,0.00810905
0.111708,0.023388
0.18549,0.0314629
0.214254,0.00798362
0.123086,-0.00291207
0.046093,0.00676324
-0.110954,0.015803
-0.236471,0.0256476
-0.136559,0.0266537
0.011301,0.0249267
-0.0253803,0.0183304
-0.157393,0.00913275
-0.181101,-0.00883282
-0.0974865,-0.0253768
-0.0110945,-0.0337722
0.0554547,-0.0223793
0.0281036,0.00105242
-0.0338215,0.00741897
-0.000717899,0.00759284
0.0187946,0.00315258
0.00126493,-0.00165931
-0.00732387,-0.00540268
0.00135002,-0.00912589
-0.00233419,-0.00932288
-0.0268026,-0.00668564
-0.0394432,-0.011617
-0.0183548,-0.0199131
0.0373105,-0.0311662
0.0890099,-0.00878978
0.185558,0.048533
0.310343,0.0271515
0.334174,-0.00933184
0.24698,-0.00540213
0.00437004,-0.0158697
-0.217426,-0.00592548
-0.214357,-0.00122791
-0.20674,-0.0164069
-0.162702,-0.00905569
0.0316135,-0.0111719
0.138509,-0.0153018
0.0775199,-0.00621125
-0.145166,0.0132263
-0.283132,0.0114091
-0.220685,0.0144643
-0.0769577,0.0191187
0.0881167,0.0159928
0.156455,0.00849261
0.111098,0.0104969
0.067881,0.0155235
-0.0189547,0.023359
-0.0925057,0.0156712
-0.0295843,-0.0291564
0.00968604,-0.0775466
0.106157,-0.0720811
0.27013,0.0403258
0.330683,0.0655111
0.178904,0.0828992
-0.218291,0.0566856
-0.443886,-0.00180853
-0.31547,-0.0362685
-0.0869756,-0.0459887
0.0417402,-0.0388487
0.0685193,-0.0326116
0.0454877,-0.0271787
-0.0134247,-0.0367345
-0.0558976,0.00232566
-0.0295103,0.0458908
0.0162431,0.0380693
0.038682,0.020555
0.0347968,0.0247509
0.0183531,0.00284163
0.0171529,-0.0110362
0.0285696,-0.0150271
0.0276036,-0.0182954
0.0252084,-0.00690054
0.00935343,0.0040281
0.00842823,-0.00843849
0.0382033,-0.0162204
0.0957524,0.00738666
0.103935,0.0243293
0.0264199,0.0204312
-0.0738287,0.0251094
-0.0896474,0.00289045
-0.0291145,-0.0198333
-0.000609116,-0.0594492
-0.00889107,-0.0269014
0.0459954,0.0229518
0.133785,0.0101178
0.105344,-0.00529524
0.0562296,-0.0121589
-0.0419305,-0.00241333
-0.176571,0.01624
-0.206393,0.0183407
-0.124377,0.0198493
0.015189,0.0180296
0.17674,0.00629273
0.209624,-0.00894622
0.118113,-0.00245903
-0.0502644,0.0144324
-0.111308,0.0185166
0.00814102,0.00242212
0.122716,-0.00213966
0.119913,-0.00591478
-0.0604324,-0.0103752
-0.24192,-0.0267655
-0.17115,-0.0405238
-0.0885267,-0.0471007
-0.0626236,-0.0308779
-0.0714597,0.00272502
-0.0485378,0.0244085
-0.0118609,0.0243672
0.0218967,0.0253965
0.0333343,0.0178609
0.00174029,-0.0071124
-0.0151913,-0.0108692
0.00304346,0.00625098
0.0346404,0.0159744
0.0208267,0.013533
0.0130934,0.0184046
0.0220773,0.0134466
0.0259768,-0.00461571
0.0162455,-0.0150313
0.0133891,-0.00551766
0.0286705,0.0112755
0.0894487,0.0247129
0.128488,-0.0184728
0.130544,-0.0302142
0.107219,-0.0149085
0.0113226,-0.0086993
-0.057724,-0.00888315
-0.0158279,-0.00953376
0.00254238,-0.00324073
-0.0474209,-3.62e-05
-0.0187466,-0.00532026
-0.00485183,0.0111684
-0.0837098,0.0295468
-0.0214136,0.0265677
0.07344,0.015564
0.205164,-0.00754149
0.17864,-0.0198747
0.028118,-0.00710515
-0.130908,-0.00306272
-0.30815,-0.0274856
-0.315982,-0.0404342
-0.162657,-0.00481542
-0.112737,0.00503241
-0.0774861,-0.0100301
-0.00609238,-0.0102182
0.0437492,-0.00474014
0.0254107,-0.0221278
0.0417486,-0.00511396
0.150788,0.0421697
0.220108,0.0412916
0.185496,0.0203042
0.0671811,0.00453486
-0.147507,0.00794979
-0.216346,0.0285097
-0.0996032,0.0280768
0.0173141,0.0193202
0.0585786,0.0137139
0.0567533,0.00693685
0.0723548,-0.00806011
0.097303,-0.0205547
0.0807805,-0.0049083
0.0140965,0.0150986
-0.0374073,0.0139206
-0.0442972,-0.00217442
-0.0308127,-0.00662868
-0.048017,0.0162384
-0.0377483,-0.00217806
-0.00978039,-0.0650545
0.00216927,-0.0487444
0.0143777,-0.0186967
0.0358704,-0.0133885
0.112828,-0.00238451
0.147102,0.00451232
0.0722809,0.00746049
-0.0616356,0.00951008
-0.150734,-0.00373174
-0.137891,-0.0117699
-0.0629179,0.00137565
-0.0202167,0.0110123
0.00198752,0.0184894
0.00431782,0.0169634
-0.000925659,0.0103959
0.0426057,0.0116767
0.0758076,0.0153911
0.103218,0.0298612
0.090306,0.0308009
-0.0530941,-0.00802128
-0.124497,-0.0442222
-0.00374351,-0.0573682
0.081089,-0.020994
0.107974,-0.000946946
0.0827125,-0.00161824
-0.0528231,-0.00760833
-0.15363,-0.0327858
-0.110566,-0.0125668
-0.0785929,0.0332849
-0.0032742,0.0195462
0.0904285,0.00240696
0.160534,0.0081182
0.141338,-0.000884387
0.00323099,-0.0392216
-0.110438,0.0172413
-0.156896,0.0481641
-0.162982,0.0134156
-0.0762351,-0.019401
-0.0100776,-0.0166836
0.0281827,0.00272716
0.055305,0.0256838
0.0395504,0.0123475
0.00265692,-0.0146479
0.0227944,-0.00439751
0.0524953,0.0149051
0.014145,-0.000270678
-0.0468374,-0.00408243
-0.037948,0.00522713
0.0178934,0.011992
0.0311934,0.00913667
0.00888355,-0.00571762
-0.0404739,-0.0185493
-0.0332502,-0.0193996
-0.00895287,-0.00330702
-0.0498433,0.00666605
-0.0470204,0.0107541
0.0467016,0.0121648
0.181871,0.00568569
0.227327,-0.0379343
0.150137,-0.0149793
-0.00649868,0.0349323
-0.160176,0.00990109
-0.182647,-0.0119654
-0.106867,-0.0111648
-0.00102894,0.00400855
0.0252193,0.0116519
0.00882825,-0.000994902
-0.0209397,-0.0158878
-0.0163791,-0.0153939
0.0628274,-0.0104938
0.0913874,0.00315313
0.0302028,0.0157841
-0.0209568,0.0196801
0.00612631,0.0127876
0.00784387,0.00246856
-0.0538934,-0.00485691
-0.120591,-0.00408292
-0.0668098,-0.0174695
-0.00591191,-0.0049204
0.0413393,0.003484
0.0782023,0.00194235
0.127425,0.00638012
0.121326,0.00454871
0.0391245,-0.0138221
-0.103418,-0.0164265
-0.17248,-0.00056651
-0.0265231,0.00519153
0.0593248,0.016054
0.0263856,0.0281772
-0.0790596,0.0275236
-0.144689,0.00525415
-0.037732,-0.00241937
0.0830478,0.00267034
0.0928252,-0.0283066
0.0535158,-0.0359607
-0.0349937,-0.00526983
-0.121194,0.00554171
-0.0756664,0.0023682
0.116308,-0.00766872
0.322185,-0.0186223
0.370367,-0.0108415
0.235184,0.00237431
-0.103589,0.00259161
-0.44235,-0.000738249
-0.40422,0.00407538
-0.194068,0.0136378
-0.0555631,0.0170548
0.0202432,0.0151286
0.0567203,0.0171664
0.0630071,0.0188608
0.0165402,0.000883354
-0.0125358,-0.0147463
-0.0101123,-0.0169443
0.00719451,-0.0176053
0.00477302,-0.00166622
-0.0251962,0.0102806
-0.0224887,-0.0119696
0.0141401,-0.0571717
0.03597,-0.0439642
0.0343499,0.0113011
0.0245571,0.0449927
0.021959,0.0282927
0.0424996,0.0118167
0.0848128,0.00687683
0.0917689,0.00731365
0.0456485,0.00554094
0.000729478,0.00717531
0.0433283,0.0161466
0.13582,0.00780679
0.158349,-0.0361699
0.0337909,-0.0258142
-0.108134,0.00938021
-0.0930581,0.0155568
-0.00976876,0.00373031
0.0366734,0.00130036
0.00203253,-0.00199035
-0.0677043,-0.009179
-0.145867,-0.0154194
-0.177081,0.0168553
-0.0705725,0.00789536
0.0225219,-0.00896057
0.0430195,-0.0109193
0.071552,-0.0164272
0.0933466,-0.0129998
0.10651,-0.00115682
0.0598757,0.00870526
-0.0841221,0.0105015
-0.147745,0.0100147
-0.128654,0.00909233
-0.152483,0.00630755
-0.113347,0.00443578
-0.0146621,0.0079184
0.0536455,0.00203739
0.0832428,-0.00112604
0.0687414,0.00025383
0.0497269,0.000931447
0.0267533,0.00117696
0.0115919,-0.000301806
0.0148852,-0.00239403
0.00759847,-0.0118675
-0.00944049,-0.0140401
-0.0108126,0.0067847
0.012344,0.0231597
0.0359023,0.0169088
0.0368622,0.00866814
0.00426799,0.00551321
-0.0442976,0.000216143
-0.0304647,-0.00926955
-0.0188765,-0.00906149
0.029453,-0.0120167
0.0697735,-0.0181105
0.0479622,-0.0167865
-0.000567822,-0.00994651
-0.00696323,-0.0013094
0.0465313,0.00152952
0.109461,0.00219787
0.146725,0.00241005
0.0937433,-0.00341612
-0.00581367,-0.00224427
-0.170322,-0.00830115
-0.251313,0.0120361
-0.113209,0.0358626
0.176606,0.0388462
0.314377,-0.00790116
0.145815,-0.035654
-0.0513889,-0.0158577
-0.250542,-0.00886653
-0.33258,-0.00836426
-0.180648,-0.00725134
-0.0480073,0.00324161
0.030403,0.00481322
0.0787889,0.00429386
0.0659587,-0.00571828
0.051903,-0.024062
-0.0190632,-0.0205037
-0.0532817,0.0055322
-0.0226557,0.000193288
-0.0659466,-0.00578609
-0.0550814,0.00908681
0.0279721,0.0188847
0.0657783,0.0142983
0.0972655,0.00702177
0.10823,-0.00149541
0.106814,-0.00982544
0.0389418,-0.00292602
0.00871321,0.0105603
-0.0498819,0.0629288
0.0500472,0.0328189
0.174666,-0.00250669
0.0908548,-0.0176133
-0.0638874,-0.0230576
-0.133477,-0.0232173
-0.182786,0.0031543
-0.19171,0.0378801
-0.144725,0.0330233
-0.0815055,-0.00864852
-0.0399938,-0.0339597
0.00111302,-0.0369777
0.0382799,-0.0206488
0.0684062,-0.00991273
0.0699918,-0.0184926
0.0517579,-0.0116672
0.0976666,0.0278183
0.173754,0.0317043
0.215489,0.00888596
0.179002,-0.00146786
0.0787527,0.0191586
-0.0504172,0.0124167
-0.0458742,-0.00402808
-0.0673832,-0.0113028
-0.181067,0.00833295
-0.161512,0.00429616
-0.0367842,-0.0285769
0.0280154,-0.0163846
0.00819101,0.0017895
-0.03999,-0.00640428
-0.0606018,-0.00696548
-0.0310501,0.0289894
-0.0813327,0.0112695
-0.10772,-0.0118955
-0.0493286,-0.0264511
0.00134617,-0.0200445
0.00863883,-0.0080837
0.0020087,-0.000521424
0.0150954,0.00764032
0.0530453,0.00679958
0.103116,0.00671309
0.142512,0.00734003
0.145865,0.0115669
0.0451977,0.00975987
-0.0732585,0.00729675
-0.0836183,0.0154505
0.0310796,0.00381301
0.163807,-0.0212964
0.171219,0.00183471
0.082228,-0.00183718
-0.0838422,-0.0195957
-0.166674,-0.0062676
-0.109692,0.00763415
-0.0733686,0.00503019
-0.09553,0.00248178
-0.109178,0.00556994
-0.0480127,0.00536748
0.0122071,0.00174199
0.0140749,0.00197277
-0.00598056,-0.0017773
0.0171655,-0.0111868
0.112108,-0.0148384
0.161969,-0.00730566
0.138824,-0.00575466
0.0577703,-0.00103565
-0.101757,-0.000375993
-0.223621,0.00233732
-0.117653,0.0111895
-0.0292845,0.0212956
-0.020267,0.017196
-0.00357363,0.0139329
0.059209,0.0155422
0.152775,0.00242223
0.218161,0.00482877
0.231545,0.0101525
0.163999,0.0244023
0.0277183,0.0192991
-0.11801,-0.0187797
-0.191927,-0.0477825
-0.252602,-0.0594954
-0.257641,-0.0441141
-0.139715,-0.0124427
-0.0144259,0.0046744
0.0451459,0.008767
0.0523419,0.0107195
0.0406057,0.00856573
0.00287307,-0.00405402
-0.0616311,-0.00669036
-0.0605246,0.0123716
-0.0274704,0.0148041
-0.00372177,-0.00279892
-0.00316338,-0.0112863
-0.010375,0.0022261
0.0256139,-0.0055596
0.125021,0.00713449
0.213935,0.0023746
0.235884,-0.0159839
0.134461,0.00131744
2.37e-06,0.0251073
-0.111672,0.0211126
-0.143239,0.0198875
-0.039844,-0.0193163
0.00780914,-0.0447336
-0.0767389,-0.00793455
-0.129151,-0.00480299
-0.0282573,0.0140224
0.103138,0.0338232
0.200751,0.0238991
0.179632,-0.000955886
0.0526255,-0.010612
-0.117736,-0.00358213
-0.179919,-0.0049932
-0.105263,-0.00167963
-0.00388357,0.00448338
-0.0126524,0.00898793
-0.076896,0.00221149
-0.0646586,0.00785694
-0.0147575,0.0217265
-0.00645849,0.0151938
-0.000975887,-0.00437736
0.0110508,-0.0197586
0.0104675,-0.0168277
-0.00253808,-0.00935711
-0.00212046,0.00209148
-0.0052054,0.00902306
-0.00815367,0.00512095
0.0259645,-0.013161
0.0881221,-0.0151226
0.128417,-0.00465059
0.0983344,-0.00610649
0.0626914,-0.00237174
0.00570416,0.00089872
-0.0390675,0.000564376
0.0105908,0.00416626
0.00529366,0.0134804
0.00512465,0.0259879
-0.0111819,0.0262748
-0.0850246,0.0134833
-0.0942792,0.0116932
-0.0581141,-0.00520851
-0.0672195,-0.0230496
-0.0776734,-0.0263171
-0.0473422,-0.0130554
-0.0106756,-0.00729456
0.0186072,-0.00878648
0.0357404,-0.0125371
0.0410937,-0.0138415
0.0312755,-0.00194383
0.0253138,0.009529
0.0570703,0.0127541
0.0766155,0.0102495
0.0518354,-0.000457317
-0.0137812,-0.00371785
-0.026896,-0.00378262
0.025071,-0.00643029
0.0151029,-0.0126981
-0.0276796,-0.0128369
-0.0251685,-0.00113508
-0.017541,0.0120534
-0.0132157,0.0134091
0.0106176,0.00623425
0.0578498,0.00822788
0.064303,0.00385893
0.0184737,0.00961306
-0.0328891,0.0149141
-0.118901,0.00803406
-0.112072,-0.00177751
-0.0451503,-0.00655719
-0.0134788,-0.0123737
1.14e-05,-0.0153251
0.0195937,-0.0107105
0.0311359,-0.00037119
0.0307884,0.0031724
0.0168282,0.00268041
-0.0107624,0.0052659
-0.00660404,0.0097098
0.134482,0.00316877
0.301463,-0.00280159
0.255982,-0.00181186
0.0453961,-0.00902618
-0.191351,-0.00770401
-0.366614,0.00169539
-0.299947,0.00513276
-0.102672,0.00803572
-0.027383,0.00489944
-0.020323,-0.00653533
0.0284294,-0.0112969
0.178183,-0.0103658
0.265874,-0.00663491
0.219651,-0.002172
0.163246,0.000201604
0.145695,-0.00257926
0.0640426,-0.00748748
-0.18982,-0.00302184
-0.473269,0.00624904
-0.472831,0.00286787
-0.202965,0.0121027
-0.0244194,0.0190413
0.0510815,0.00862474
0.136499,-0.0067102
0.177193,0.00318404
0.120985,0.0202651
0.0314987,0.00549098
-0.0523059,-0.00883668
-0.0689692,-0.00181192
-0.0363038,0.00360539
-0.037956,-0.0153487
-0.00127061,-0.0337454
0.051287,0.00471776
0.0840028,0.0173662
0.0240655,-0.00290221
-0.0752485,-0.00320141
0.0554551,0.00348806
0.203946,0.00239971
0.275284,0.00268994
0.288186,0.000716734
0.176209,-0.00563683
0.046275,0.0149874
-0.0861146,0.0180745
-0.226039,0.00599271
-0.202349,-0.0183961
-0.0917734,-0.0423718
-0.133251,-0.000702755
-0.197246,0.0195264
-0.150073,0.0171855
-0.0721704,0.0103942
-0.0544061,-0.00124148
-0.0102612,-0.00627366
0.0209367,-0.00493319
0.0219321,-0.00581454
0.0186661,-0.00620071
0.0515668,0.000101944
0.113398,0.00549509
0.17188,0.00240395
0.163621,0.000603077
0.0711913,-0.00961524
-0.0446539,-0.00951931
-0.0930726,0.00115427
0.0108855,0.00349523
0.134676,-0.00167844
0.103277,-0.00552643
-0.00706136,0.00780889
-0.190835,0.0126007
-0.249937,0.00224097
-0.127404,0.0267829
-0.0111746,0.0394863
0.105327,0.0256554
0.28967,-0.00698217
0.382276,-0.0355624
0.218901,-0.034102
-0.0512243,-0.0201684
-0.244842,-0.0133874
-0.174407,-0.0182869
-0.0177909,-0.0206057
-0.0340617,-0.00563833
-0.162058,0.0105319
-0.178505,0.0181347
-0.0694634,0.0138782
-0.0445485,0.0114243
-0.100343,0.00942309
-0.0755022,0.000525919
-0.0154597,-0.00533481
-0.00246749,-0.000820306
0.0148106,-0.0136742
0.0672217,-0.0186932
0.0954048,0.00249981
0.136608,0.00402755
0.202137,0.0109373
0.144526,0.0113727
0.0369035,-0.00208841
-0.0631559,0.00169926
-0.109028,0.00985744
-0.0781614,-0.019158
-0.0418506,-0.0170936
-0.0504304,0.00508981
-0.0295624,0.0139802
0.00855732,0.00813696
0.0135027,-0.00373855
0.0164666,-0.00405034
0.0314481,-0.00176758
0.0420141,0.00109961
0.0160242,0.0063128
-0.0489533,0.00724762
-0.0459657,0.00145827
-0.0117548,0.00318961
-0.00205046,0.000892318
0.00810362,-0.00302021
0.0624776,-0.00178692
0.124465,0.00236428
0.120562,-8e-05
0.057959,0.00120467
-0.00469161,0.00468781
-0.0728809,0.00696949
-0.122103,0.00219796
-0.0877526,-0.00154687
-0.0500484,-0.000344772
-0.0337233,-0.000875927
-0.0142264,0.001329
0.000102277,0.0030415
0.00660702,0.000660756
-0.00171102,0.00102687
-0.0143652,-0.00114381
-0.021364,-0.00645293
-4.77e-05,-0.00836316
0.0311241,-0.00232815
0.094286,-0.00515629
0.132303,-0.0116395
0.107984,-0.00249361
0.0367175,0.00912459
-0.0440476,0.00721919
-0.0961332,-0.00305538
-0.0329832,-0.00719432
0.0181203,-0.00338006
-0.00161181,0.000385454
-0.00902378,0.00457257
-0.0211762,0.00560266
-0.0884345,0.00751506
-0.148608,0.0086943
-0.12507,0.0055487
-0.0071511,0.00156912
0.106703,0.00273394
0.130382,-0.00204001
0.0700533,-0.00767451
-0.0515277,-0.011931
-0.100094,-0.00735503
0.036958,-0.00254828
0.213275,-0.00336783
0.288664,-0.00764075
0.116954,-0.00587534
-0.105636,-7.04e-05
-0.184264,0.00636336
-0.186336,0.0108657
-0.158734,0.0198165
-0.0225296,0.0215638
0.0476516,0.0170975
0.0611101,0.0200926
-0.00655057,-0.0010478
-0.104521,-0.0209854
-0.154344,-0.0227707
-0.0531289,-0.0133489
0.0936753,-0.00757833
0.144188,-0.00513616
0.158748,-0.00322653
0.0451966,-0.00704288
-0.0621505,-0.00541644
-0.108681,0.000468698
-0.140232,-0.00687577
-0.0368525,-0.0169163
0.0569704,0.00553406
0.0473989,0.0179911
-0.00995858,0.0150854
0.0154386,0.0074316
0.104413,-0.0107161
0.208233,-0.0413489
0.265398,-0.0340882
0.12768,0.0119481
-0.0339231,0.0123357
-0.180646,0.00241486
-0.243149,0.00784732
-0.133043,0.00577459
-0.0609595,-0.000482784
-0.0859233,0.00632192
-0.105949,0.0119112
-0.0440433,0.00630072
0.00824272,0.00737219
0.0319513,0.0134794
0.121817,0.0146856
0.205612,0.0141496
0.152228,0.0101608
0.0526618,0.00367001
-0.0903403,-0.0179889
-0.201037,0.00488459
-0.0897531,0.00289699
-0.00647866,-0.0189846
0.0137496,-0.0141182
0.0163385,-0.0117218
-0.00211176,0.00845308
-0.0306366,-0.0189575
-0.024527,-0.0457914
0.00688409,-0.0172303
0.026098,-0.0270222
0.0177588,-0.00500283
0.00239747,0.0555222
0.00224957,0.0276775
0.0240154,0.0280137
0.0899158,0.0251891
0.13408,0.00987768
0.241039,0.00348686
0.32147,-0.0088518
0.219199,-0.00350768
-0.000335566,0.00480497
-0.23562,0.00350168
-0.309845,0.00151428
-0.166364,-0.00490752
-0.0953351,-0.0120068
-0.111121,-0.0146625
-0.11803,0.00297584
-0.0695649,0.0173612
-0.0704331,0.0117321
-0.0882456,0.00350553
-0.0571926,-0.00558567
-0.0192635,-0.00782105
-0.00131422,-0.00936518
-0.00496505,-0.00755079
-0.00756297,-0.00131639
-0.00595867,0.0003005
0.00676589,-0.000899512
0.0327981,0.00117424
0.0626017,0.00614733
0.088111,0.00648962
0.0977971,-0.00409658
0.0923779,-0.0106486
0.0780006,-0.00830467
0.0692301,-0.00669962
0.0605846,-0.00395752
0.0482755,-0.000528904
0.0209162,0.000749493
-0.00237299,0.00222107
-0.0297492,0.000523307
-0.0582794,0.000306218
-0.0528626,-0.000202508
-0.0491503,0.000683044
-0.0331205,0.000683815
-0.00858355,-0.000668457
0.00894281,0.00396611
0.0158269,0.00484502
0.00445445,0.00137458
-0.0150363,-0.00619954
-0.00902274,-0.0040433
0.0172234,0.00113628
0.0262538,0.00302714
0.0203772,0.0096474
0.00886255,0.0112224
0.0162034,0.0114535
0.0520171,0.0119495
0.0568973,-0.00579872
-0.00165404,-0.0248618
-0.100637,-0.0219809
-0.11946,-0.0100102
-0.0808615,-0.00269262
-0.0038607,0.000619891
0.045697,0.00242761
0.0531388,0.00533851
0.135074,-1.83e-07
0.208559,-0.005322
0.143136,-0.00214014
0.0512274,0.00111947
-0.0965397,0.00427599
-0.251476,0.00830235
-0.232343,0.00709851
-0.042113,0.00119312
0.223004,0.000803202
0.34986,0.00125634
0.241085,-0.00394511
-0.123821,-0.0098683
-0.49963,0.00362004
-0.468453,0.0118982
-0.205812,0.00538748
-0.0511459,0.00489943
0.0518367,0.00496443
0.190303,-0.00412777
0.210799,-0.00978836
0.115302,-0.00513217
-0.0544808,-0.00107196
-0.193429,-0.00226657
-0.119123,0.000670275
0.111821,0.00748053
0.258206,0.00695194
0.309396,-0.00232846
0.228932,-0.00752636
-0.00684998,-0.00724816
-0.155758,-2.23e-05
-0.133,0.00325786
-0.0758873,-0.00509128
-0.0742408,-0.00282335
-0.183085,0.00456867
-0.137608,0.00355756
-0.00443216,-0.00264535
0.00459863,0.000811317
0.016904,0.00287479
0.0286137,-0.000830116
0.00438741,-0.0019492
0.016743,0.00814999
0.0282855,0.00889005
0.00835033,0.00293064
-6.08e-05,-0.00274355
-0.0109439,-0.00258734
-0.00351759,-0.0038245
0.013018,-0.000121889
0.00316159,0.00250996
0.0192987,0.00506897
0.108405,0.0055618
0.150656,-0.00572781
0.12611,-0.0104294
0.0369381,-0.00759653
-0.0557261,-0.00440189
-0.019699,-0.00185817
0.0522772,-0.00255923
0.0824844,7.55e-06
0.0609843,0.00411618
-0.0261954,0.0083098
-0.0996467,0.00718391
-0.129362,0.00230749
-0.128536,-0.00229756
-0.0781251,-0.000107112
-0.0552322,0.00953651
-0.045366,0.0187814
0.0199844,0.00856226
0.168019,-0.0072667
0.26496,-0.00787558
0.205297,0.00458862
0.00644727,0.000205235
-0.186876,-0.0146539
-0.203367,-0.00558646
-0.10994,0.00584425
-0.0423304,0.00601416
-0.0165438,-0.000102063
-0.00538958,-0.00734713
0.00742426,-0.00367018
0.0318322,-0.0433155
0.018875,-0.0611047
-0.0509587,0.00571241
-0.0551359,0.0440147
0.043976,0.0245303
0.117963,0.00732644
0.135758,0.00983091
0.097419,-0.000313897
-0.0375916,-0.0171068
-0.138808,0.0132812
-0.0934235,0.00166811
-0.021803,-0.0084859
0.0280004,-0.0201016
0.0175804,-0.0101273
-0.026733,0.0187584
-0.0522384,0.011205
-0.051322,0.00400767
-0.03057,0.00310861
-0.00646292,-0.000466147
