Comp Ch 3,Comp Ch 4
-0.144245,-0.00717304
0.0554873,-0.0261312
0.141571,-0.0231578
0.0382134,-0.00939266
-0.0638836,0.00309
-0.00429509,-0.00506316
0.0991222,-0.0153729
-0.0116823,0.00146148
-0.264131,0.00285173
-0.334853,0.000411022
-0.111092,0.0147621
0.203488,0.0129589
0.429484,-0.0053184
0.429632,-0.0148572
0.131194,-0.0159237
-0.191072,-0.0162297
-0.273071,-0.00906076
0.0530147,0.0102684
0.466178,-0.0158462
0.515333,-0.0382743
0.311083,-0.00945653
-0.254028,0.00524679
-0.612486,0.0175133
-0.334627,0.0297495
0.0274795,0.0230738
0.2383,-0.0055069
0.172828,-0.00858517
-0.00542264,-0.00634301
-0.0576145,-0.00731775
-0.277907,0.00329104
-0.28645,0.0137286
0.0935456,-0.00355831
0.247454,0.00602777
0.184739,0.0476077
0.0815288,0.0997422
0.0391955,0.042324
-0.0599159,-0.0426323
-0.307246,-0.0582214
-0.157691,-0.0503361
0.198587,-0.0416178
0.379998,-0.0168514
0.280006,0.0129396
-0.0608073,0.0110707
-0.404703,-0.00491088
-0.517086,-0.00640746
-0.322378,0.00989865
0.00126404,-0.0044835
0.241772,-0.00750417
0.191927,0.00422112
0.011569,0.00861474
-0.112934,0.0187272
-0.0741886,0.017687
0.0821332,0.00272163
-0.0126533,0.00714228
-0.0479002,0.00125722
-0.0241295,-0.0117006
-0.0855713,-0.0111398
-0.0186402,-0.0102638
0.0246932,-0.0138632
0.0925839,-0.00271489
0.164073,0.0259085
0.0988477,0.0164154
0.0875846,-0.0225108
0.182437,-0.0305073
0.220947,-0.0253434
0.136214,-0.0175666
-0.139224,0.00194287
-0.116936,-0.0147376
0.2561,-0.0198594
0.236296,0.0548263
0.0105728,0.0387572
-0.331184,0.00324048
-0.511342,0.00899611
-0.197797,0.0109964
0.151357,0.0231987
0.576332,0.0134144
0.508523,-0.00413775
0.0541021,-0.0144489
-0.34736,-0.024393
-0.438869,-0.0217422
-0.160364,-0.0183238
0.117534,-0.00653037
0.202648,-0.0136415
0.0820778,-0.00679714
-0.168645,0.011785
-0.338433,0.0219938
-0.231637,0.0102154
-0.158533,0.000520956
-0.158239,-0.00723247
-0.122254,0.00317191
-0.0898535,0.0116634
0.0113472,-0.00047487
0.200062,-0.019573
0.488184,-0.0201378
0.669927,-0.00464699
0.46262,0.00133145
0.162104,0.00520547
-0.011218,0.0267298
-0.107075,0.0552566
-0.269829,0.020467
-0.536801,-0.00592466
-0.585061,0.00363646
-0.361461,0.00729688
-0.173454,0.000548263
-0.014781,-0.0347946
0.241382,-0.0361393
0.521646,-0.00603034
0.384798,-0.0055854
-0.0858976,0.0149016
-0.503513,0.0031669
-0.330019,-0.0367583
-0.0780028,-0.0306084
-0.0174512,-0.00149278
0.00287813,0.0256234
0.0437463,0.0172952
0.0800909,0.00813361
0.128796,0.00972866
0.168277,0.0149734
0.188073,0.0203467
0.108877,0.0104105
0.103243,-0.000243107
0.219573,0.000918885
0.289521,0.00644265
0.0864892,0.0223838
-0.231835,0.000298404
-0.274003,-0.0345335
-0.178766,-0.030881
-0.115833,0.000304243
0.00433504,0.00209693
0.127108,-0.0114091
0.101525,-0.0192851
0.00492812,-0.00305224
-0.00817518,0.0189965
-0.0764072,0.0156055
-0.0772474,-0.00325171
-0.00596005,-0.045887
-0.0157063,-0.0677487
-0.0393393,-0.0330904
0.0432822,-0.00736168
0.144679,0.00385271
0.156021,0.00687338
0.0837786,0.0179383
-0.0126386,0.0237213
-0.0368606,0.0139794
0.0469824,0.0200895
0.157853,0.0235756
0.256198,0.00638695
0.136074,-0.00415145
-0.355339,0.0252818
-0.290076,0.0227513
-0.117663,0.0133155
-0.0127164,0.0296081
-0.0546919,0.0204103
-0.060876,0.0286042
0.158169,0.0323226
0.349841,0.0117668
0.218515,-0.0317189
-0.184349,-0.0368454
-0.44497,0.0116427
-0.462894,0.00824529
-0.283976,0.001579
-0.0624405,-0.0141756
0.0174347,-0.0278329
-0.0256983,-0.0264683
-0.0263814,-0.0160686
0.112189,-0.00648756
0.17269,0.0268649
0.125951,0.0428325
0.0682193,0.0161146
0.0698283,0.00990171
0.105046,-0.0139037
0.169304,-0.020998
0.130088,-0.0244868
0.107912,-0.0347413
0.0942067,-0.0313817
0.0549571,-0.0323856
-0.101735,-0.0292127
-0.433457,-0.00842692
-0.301763,0.00254161
-0.0260636,-0.0108111
0.0450857,-0.00726275
0.0486533,0.00994694
0.169133,0.0113655
0.402898,0.0176365
0.513178,0.0193874
0.364495,0.0254755
-0.0275462,0.0370409
-0.236164,0.021391
-0.366412,0.00838655
-0.410534,0.000744123
-0.231588,0.00126816
-0.207365,-0.00686724
-0.175077,-0.0134924
-0.0631333,-0.0229609
0.0295883,-0.0171574
0.0916231,-0.0157666
-0.0231913,-0.0104787
-0.042362,-0.00294603
0.125196,0.00221495
0.353871,0.00351515
0.431258,0.00529464
0.207472,0.0175354
-0.206177,0.0314222
-0.421057,0.0421966
-0.222686,0.0300191
-0.0422368,-0.0200987
-0.0152766,-0.036042
0.0774409,-0.0280641
0.181314,-0.0331253
0.17566,-0.00943547
0.0910272,0.00914036
-0.0540118,-0.00322509
-0.0731063,-0.0333227
0.0599637,-0.00615635
0.193796,0.0134713
0.178748,0.00801919
0.0398668,0.000963692
-0.152194,0.0252153
-0.133165,0.0295746
0.19265,0.015404
0.243911,-0.00362755
-0.105615,-0.0127545
-0.420715,-0.0070006
-0.271291,-0.0142953
-0.0517947,-0.0271068
-0.0036705,-0.00504046
0.0488115,0.00265592
0.00922882,-0.0132755
-0.0310224,0.0122168
-0.0955625,0.0107176
-0.127491,-0.00507697
-0.0422399,-0.0197625
-0.00628562,-0.0147351
-0.0320567,0.0190352
-0.00235347,0.0378665
0.0639137,0.0222481
0.139923,0.0132179
0.0918426,6.59e-05
0.00903428,0.000550621
0.0101101,0.00975425
0.0529246,0.0237757
0.126421,0.016335
0.146709,0.00584983
0.0204703,-0.000843594
-0.193065,0.0096051
-0.0330685,0.0090385
0.398179,-0.00751032
0.548981,-0.0234188
0.323825,-0.0359437
-0.0956178,-0.0194391
-0.275701,0.00608407
-0.379629,0.0116818
-0.440252,-0.00589342
-0.221209,-0.0213844
0.0891227,-0.0195986
0.122027,0.00606293
0.000143581,0.0132706
-0.168864,0.010487
-0.211518,0.00496423
-0.181977,-0.000437929
-0.12141,0.00343288
-0.0261179,-0.00166327
0.00144056,-0.0178361
0.0141914,-0.0264667
0.00976145,-0.0158733
0.0173233,-0.0201779
0.0833758,-0.00950752
0.221666,0.0150919
0.250784,0.0274695
0.190886,0.0272104
0.205138,0.0570815
0.140871,0.0431754
-0.0271407,-0.0118519
-0.160835,-0.0450887
-0.214948,-0.0352222
-0.120223,-0.0166292
-0.0609762,-0.00428469
-0.0493832,0.00618447
-0.045356,0.0152963
-0.0413502,0.00778135
-0.0473747,-0.00955307
-0.00301447,-0.0199581
0.0789875,-0.0117802
0.113353,-0.00393211
0.101014,-0.00498265
0.00783337,0.00491711
-0.0162732,0.00857551
0.0218486,0.00435219
0.102754,0.00703282
0.413584,0.00945507
0.547747,0.0161684
0.210402,0.000994387
-0.293803,-0.00591243
-0.50015,0.00166907
-0.409994,0.00459993
-0.243597,0.00292139
-0.0780498,-0.0035478
0.105332,-0.0151731
0.228019,-0.0225316
0.179291,-0.0189538
-0.11302,0.00450978
-0.402203,0.0293169
-0.160143,0.0380176
0.0619648,0.0253628
0.0104629,-0.00136348
-0.0054551,-0.0130089
-0.0284732,-0.0103013
-0.0382862,0.00843643
0.0445957,0.013875
0.00588021,-0.000952181
-0.081057,-0.0268935
-0.00707352,-0.0165261
0.0865266,0.00826302
0.0515014,-0.00960387
-0.0269916,-0.0411516
-0.0805782,-0.0234173
-0.0358752,0.00466394
0.0531549,0.00605706
0.0300579,0.0102077
-0.000174613,0.0122192
0.0679442,0.010808
0.148469,0.0135471
0.2124,-0.00490894
0.23666,-0.015645
0.163932,-0.0144331
0.0548361,0.00740884
-0.102193,0.0198132
-0.158062,0.0221998
-0.0582737,0.00862943
-0.0179186,0.00193291
-0.0463921,-0.00271946
-0.0461237,-0.0081148
-0.0176803,-0.00879305
0.0135154,-0.006866
0.0295624,-0.0227421
0.0194544,-0.0365902
-0.0174725,0.00639626
-0.101122,0.033864
-0.0683257,0.0230932
0.0572387,0.0140324
0.138198,0.0124048
0.185562,0.00696798
0.109487,0.00548102
-0.121748,0.00593165
-0.223962,0.00992859
-0.0989266,0.0121415
0.102908,0.00640026
0.185068,-0.0131162
0.275915,-0.0185804
0.383149,-0.0227043
0.158757,-0.00811884
-0.204978,0.00358408
-0.618792,0.00350147
-0.576149,0.00738137
-0.191617,0.00748504
-0.0122403,-0.00845446
-0.00733321,-0.0100595
-0.0753012,0.0132118
0.0318695,0.0209492
0.119387,-0.0136718
0.103756,-0.0331785
0.371456,-0.0204164
0.841798,-0.00403844
0.832033,-0.00139221
0.304657,-0.0115635
-0.800601,-0.0139407
-1.16638,0.00330914
-0.606178,0.0227153
-0.247265,0.0325589
-0.117126,0.0279823
0.00254789,-0.00809802
0.12326,-0.029643
0.15889,-0.00532817
0.10203,-0.0155771
0.0465765,-0.0244844
0.0338452,0.019339
0.0358576,0.0234281
0.0928103,0.0136838
0.090232,-0.0126427
-0.0274164,-0.0207766
-0.144127,-0.00760422
-0.0833156,0.00169695
0.0613197,0.000461745
0.0934184,0.00249646
0.0534419,0.00814464
0.0531326,0.0101431
0.0693016,0.0146506
0.13944,0.0157219
0.160349,0.00579265
0.122535,0.00320784
0.0534969,0.00574077
0.0106304,-0.0152631
0.000447933,-0.0324214
-0.0448142,-0.0235543
-0.129947,0.00566135
-0.135668,0.0119026
-0.108648,0.00184969
-0.0530808,0.00304626
0.0288476,0.00384068
0.0625086,0.00552579
0.0444617,0.000817294
0.00876575,-0.000336536
0.0178897,0.0038987
0.00832563,0.00531998
0.0212749,0.0038152
0.0306369,-0.00888848
-0.00696771,-0.00880966
-0.0212855,-0.0117951
0.00865404,-0.014019
0.104854,0.0215024
0.222671,0.0383312
0.262646,0.0251949
0.0699284,-0.0199346
-0.16981,-0.0387309
-0.186976,-0.0133914
-0.235321,0.011871
-0.24025,-0.00415093
-0.123679,-0.00890893
-0.0586293,0.0141411
-0.00472152,0.0241092
0.0560724,0.0155569
0.0931325,0.00121263
0.0524302,-0.00549372
-0.0189963,-0.00718239
-0.0585023,-0.00230043
-0.0884157,-0.00228693
-0.0486541,-0.00276497
-0.0150228,0.00255439
-0.0456031,0.010942
-0.0443936,0.0205962
0.0280276,0.0120413
0.0700353,-0.0135384
0.0707207,-0.0196517
0.0720688,-0.0133188
0.0925191,-0.00776659
0.134643,-0.00704704
0.231791,-0.015082
0.304514,-0.00664633
0.239011,-0.0136719
0.119775,-0.0202504
-0.0870934,-0.00365514
-0.30896,0.00990278
-0.318374,0.0208189
-0.225242,0.0236323
-0.180927,0.0177343
-0.0496751,0.00478058
0.074592,-0.00466602
0.101642,-0.0104113
0.0363877,-0.013159
-0.100949,-0.00531788
-0.130079,0.00532519
-0.0627946,0.0101236
-0.00646621,0.00239443
0.0598049,-0.0112258
0.106738,-0.00384049
0.0873698,-0.00164566
-0.0450329,0.000335502
-0.0999096,0.00358352
-0.0317653,0.000273939
0.0998906,-0.00193996
0.235024,0.00221535
0.274418,0.00740937
0.141821,-0.00350393
-0.12841,-0.00506651
-0.223967,0.00592421
-0.129369,0.00622526
-0.0236987,0.008031
0.00721133,0.0139185
-0.00584659,0.0241914
-0.0195015,0.0174371
-0.0156945,-0.00150437
-0.0402226,-0.0168281
-0.0728309,-0.0203115
-0.0986175,-0.0106979
-0.103394,0.0025177
-0.0786595,0.0088831
-0.0345954,0.0110395
0.0185961,0.0107412
0.104952,-0.00536232
0.171981,-0.0185731
0.28419,-0.0218416
0.21801,-0.0184539
-0.0330103,-0.00899444
-0.131498,0.00772853
-0.0728461,0.00532961
0.0870263,-0.0111013
0.108737,-0.0256733
-0.0533076,-0.0133949
-0.184473,0.00338911
-0.149847,-0.000379945
-0.072047,0.008181
-0.0202383,0.0212978
-0.0110854,0.0169
-0.00281019,0.00659654
-0.0140031,0.0214563
0.0278947,0.0436775
0.104606,0.0317537
0.0689458,-0.00899424
-0.0905629,-0.0438779
-0.128192,-0.0354714
-0.0405178,-0.0145747
0.0188667,-0.00547509
0.0367172,0.00324232
0.212215,0.0047758
0.40354,-0.0166961
0.38322,-0.0387276
0.104183,-0.00202684
-0.220114,-0.000339065
-0.320496,-0.0258239
-0.205407,0.0213152
-0.0855739,0.0304718
-0.116798,0.0170807
-0.101885,0.0220826
-0.0532926,-0.00541065
-0.069034,-0.000373586
-0.054469,0.0157824
0.0170417,0.0193106
0.0280553,0.0108009
0.00626757,-0.00663488
0.0121347,0.00680718
0.0328547,0.0135083
0.0516567,0.000933442
0.046478,-0.00258758
0.00822048,-0.0013041
0.000582069,0.00341464
0.0598587,0.00958363
0.153992,0.000176664
0.169,-0.00804285
0.0633636,0.00221298
-0.100837,0.00369559
-0.1583,-0.00460404
-0.0898678,-0.0129061
-0.0324235,-0.00603266
-0.00791166,0.00514182
-0.0107633,0.00153148
0.00112225,-0.00437631
-0.000680738,0.00861994
0.000481094,0.00945397
0.022566,-0.00374827
0.0192083,-0.024818
-0.0103317,-0.0373128
-0.00156919,-0.0251462
0.0586362,-0.00966397
0.106532,0.000904558
0.0525766,0.00411892
0.0580546,0.00749838
0.155181,-0.000260805
0.191358,-0.00361133
0.13134,-0.00905685
-0.0682479,-0.00144952
-0.344902,0.0197933
-0.353287,-0.0128786
-0.167212,-0.0428237
-0.0436973,0.0138592
-0.0306611,0.0299935
-0.0301306,0.00760717
0.021754,0.0135466
0.0527552,0.0351893
0.0243664,0.0231851
-0.0240601,-0.00173101
-0.0271653,-0.0107146
0.0162744,-0.0064978
0.116732,0.00113609
0.136774,-0.00439508
0.0661853,-0.00715652
-0.0387788,-0.0098461
-0.0623529,-0.00558212
0.0065499,-0.00648491
0.115781,-0.0064544
0.115876,0.000318682
0.0137424,0.0114641
-0.0367125,0.0073004
-0.0715777,-0.0101458
-0.136355,-0.0184495
-0.0984873,-0.00486704
-0.0248713,0.0065263
-0.00341768,0.00987062
0.0475704,0.0177871
0.0611277,0.012829
-0.0337157,0.00699763
-0.0620281,-0.00176363
0.096841,-0.0406925
0.174444,-0.0332843
0.0368947,0.0053743
-0.124435,0.0232629
-0.15368,0.0204606
-0.0830643,-0.00998561
0.0749362,-0.0297978
0.182286,-0.0143828
0.194171,0.0277726
0.0639187,0.0216914
-0.134489,0.00128147
-0.122816,0.00376828
-0.102157,0.013038
-0.0702751,0.0245729
-0.0246452,0.0134226
0.00524929,-0.0107263
0.043533,-0.0112088
0.0474459,0.00467882
0.0984366,0.0023209
0.0687347,-0.00943386
-0.0194134,-0.0139863
0.0426737,-0.0162722
0.0943586,-0.0112779
-0.0600639,-0.00199234
-0.0640994,0.00513723
0.021623,0.0117026
0.0415542,0.00248984
-0.056397,0.00532368
-0.136147,0.0171605
-0.0844192,0.0123679
-0.0381436,0.00343421
-0.0195373,-0.00193494
-0.0155642,-0.0105648
-0.0226104,-0.0164446
-0.015736,-0.00355277
0.00753412,0.0113874
0.0290401,0.0155046
0.0667592,0.00828081
0.0679623,-0.00599289
0.0310304,-0.00759644
0.0394344,-0.0100795
0.042737,-0.0403728
0.00202299,-0.0218579
0.0384656,-0.00515481
0.101856,0.0077672
0.131301,0.0150644
0.00460176,0.0145378
-0.137278,0.0174719
-0.148534,0.00600081
-0.113085,-0.00105988
-0.120596,0.00189581
-0.087413,0.00565482
-0.0374944,0.014856
0.0109778,0.0363586
0.0710405,0.0274825
0.0701617,0.00125452
0.0957406,-0.016923
0.156767,-0.030917
0.120018,-0.0363456
0.00776161,-0.0227338
-0.128137,-0.0044878
-0.0893283,0.00720471
-0.00174886,0.00601336
0.014485,-0.00400774
-0.00729582,-0.0047374
-0.0928934,-0.00213486
-0.0956717,-0.00498188
0.202098,-0.00589654
0.426638,-0.0293047
0.381082,-0.0578955
0.00389462,0.00364461
-0.412781,0.047718
-0.394536,0.0344311
-0.256138,0.0193249
-0.155668,0.0112047
-0.0748618,-0.00989646
-0.0684775,-0.0189052
-0.0352076,0.00141823
0.0541094,0.023986
0.175729,0.0195465
0.137615,0.0114151
0.0783255,0.00643166
0.0109942,-0.003033
-0.071708,-0.0151714
-0.0234037,-0.0190882
0.0272789,0.00246194
0.0156394,0.00367831
-0.0160606,-0.00493687
-0.025408,-0.0259017
0.0343857,-0.015971
0.0909311,0.0246661
0.106663,0.00388687
0.0555675,-0.00409309
-0.0122439,0.0172308
-0.0489538,0.0283837
-0.0526065,0.0189857
-0.035432,0.00666362
0.0243831,-0.0024829
0.0756596,-0.00548057
0.0867103,0.00922526
0.00647151,0.00353946
-0.0918596,-0.00785597
-0.0625499,0.00176576
-0.0355052,-0.0203329
-0.0299844,-0.0367717
-0.0132463,-0.0042015
-0.00555227,-0.000199072
0.0135777,-0.0152123
0.0493257,-0.00781118
0.10246,-0.00270435
0.136954,-0.00317272
0.0826086,-0.00198102
-0.0550664,0.00332726
-0.102,0.0144192
-0.0125,0.0242304
0.10939,0.023721
0.146346,-0.00638179
0.0504994,-0.00777597
-0.100056,-0.00394602
-0.143525,-0.0353052
-0.0598192,0.00585593
-0.0926973,0.0109088
-0.0850316,0.000485546
-0.0752421,0.0110245
-0.0874715,-0.0118745
-0.0429491,-0.0256055
0.0271697,0.0181658
0.0759632,0.0338585
0.121482,0.00645266
0.152616,-0.00803425
0.117727,-0.0191357
0.0871293,-0.0106777
-0.0916596,0.0174953
-0.230444,0.0503386
-0.169271,0.0667853
-0.0823241,0.0349318
-0.0801835,-0.0194928
-0.0857254,-0.0337732
0.0103718,-0.0579137
0.191417,-0.0807948
0.358066,-0.0542405
0.404605,-0.0556288
0.251394,-0.0318103
0.0110174,0.0611577
-0.0140837,0.0334304
-0.0365658,-0.0384042
-0.20825,0.0076032
-0.291037,0.0256024
-0.324545,0.0132683
-0.140097,0.0212044
0.0616599,0.0155485
0.0440634,0.0160761
-0.131675,0.0152275
-0.338149,0.0183756
-0.217028,0.0309299
-0.0106465,0.0346755
0.0550515,0.0228615
0.0464194,0.000334565
0.0189117,-0.0277349
0.0429664,-0.0198025
0.203621,-0.00531982
0.304133,-0.00177054
0.238055,-0.0108399
0.0610242,-0.0237166
-0.173138,-0.00533295
-0.0997687,0.0264263
0.163596,0.0200121
0.208968,-0.0264534
0.0329864,-0.0299632
-0.135542,-0.0150823
-0.15299,0.00947085
-0.126769,0.0221821
-0.107253,0.0205398
-0.0434427,0.00777281
0.113676,-0.0113154
0.280438,-0.0507544
0.230376,-0.0628438
-0.0753179,0.011712
-0.194592,0.0609106
-0.208687,0.0576107
-0.146193,0.0186171
-0.033296,-0.00910123
0.0225605,-0.0306883
0.0150697,-0.0382705
-0.00621923,-0.012154
0.0258007,-0.0164043
0.0919648,-0.0617704
0.0980925,-0.057478
0.08913,0.0102669
0.0705328,0.0556221
0.0521951,0.043387
0.0714078,0.00446918
0.0277601,0.0183312
-0.0653676,0.0476684
-0.116515,0.0502873
-0.240132,0.0198941
-0.111106,-0.00604841
0.141501,-0.00213666
0.211548,-0.0270578
0.0810279,-0.039705
-0.131338,-0.00804879
-0.15397,-0.00462517
0.139585,-0.0249253
0.371795,0.026058
0.234171,0.074518
0.110221,0.0477415
0.13854,0.0140687
0.328944,-0.00105673
0.0224134,-0.0364896
-0.491721,-0.067506
-0.456168,-0.0471788
-0.0931459,-0.0484858
-0.0712049,-0.0542362
-0.236197,0.00425576
-0.297417,0.0367892
-0.0478432,0.0092707
0.172774,-0.0122207
0.210827,0.0196879
0.0335282,-0.00369241
-0.203813,-0.0229046
-0.200914,-0.0177394
-0.0841464,0.0298656
-0.0317714,0.0708956
-0.035497,0.0126811
-0.083823,-0.00759703
-0.0851149,-0.0247467
-0.000704582,0.00235449
0.140755,0.0557298
0.250694,0.0382555
0.317069,0.0154215
0.266328,-0.00155544
0.0889891,-0.00505701
-0.04419,0.0230623
-0.0661937,-0.00423564
-0.11852,-0.0522254
-0.123687,-0.0412393
-0.00603139,-0.0137578
0.0877686,0.0027425
0.0711448,0.0184792
0.065155,0.0138389
0.0609674,0.00628719
0.0664835,0.000293507
-0.0842204,0.00859912
-0.302058,-0.0105319
-0.190858,-0.0610051
-0.0437156,-0.0409653
-0.0177129,0.0134484
0.0601993,-0.000680647
0.129848,-0.0168374
0.162132,-0.03948
0.20872,-0.00963979
0.303228,0.0286423
0.30832,0.0711359
0.134062,0.063805
-0.263339,0.0515849
-0.497445,0.0396509
-0.350885,-0.028845
-0.152057,-0.0589952
-0.0554681,0.00414453
0.0316335,0.00832894
0.0462738,-0.0107896
0.0357869,-0.0437273
0.164141,-0.0348024
0.33627,-0.0116434
0.376305,0.000332989
0.281159,-0.011891
-0.108923,-0.00270386
-0.504274,0.0548439
-0.498843,0.0604541
-0.243215,0.0420074
-0.00524494,0.0240383
0.0913954,-0.0392231
0.0469179,-0.0567413
-0.0253328,0.0283279
-0.0698113,0.083143
-0.0195239,-0.0450035
0.121997,-0.117408
0.260808,-0.102497
0.305896,-0.0920787
0.0329676,-0.0251225
-0.208947,0.0517714
-0.069033,0.103251
0.164691,0.114088
0.29107,0.0319545
0.157146,-0.0268045
-0.192815,-0.0207984
-0.351366,0.0123961
-0.265077,-0.00189515
-0.196966,-0.0273273
-0.0757167,-0.0154618
0.0559487,0.00910025
0.0586146,0.012544
0.0498554,-0.0138609
0.040578,-0.0361048
0.0654076,-0.0924791
0.00936022,-0.0180745
-0.0859148,-0.00119803
-0.145038,0.0222096
-0.179495,0.12141
-0.156512,0.0978905
-0.0253309,0.0255924
0.267415,-0.00653491
0.640932,-0.0261912
0.808219,-0.0385434
0.831021,-0.0355072
0.459645,-0.013009
-0.148126,0.00525451
-0.529085,0.0209086
-0.824573,0.0685861
-0.75309,0.0997393
-0.502497,0.0412452
-0.448009,-0.000882707
-0.293264,-0.0187246
-0.0399964,-0.070991
0.0863154,-0.0498673
0.164605,0.0126309
0.212024,0.0189099
0.276657,-0.0812341
0.316779,-0.0380256
0.181716,-0.0269277
0.0756617,-0.087944
0.40281,-0.111701
0.708948,-0.078044
0.459605,0.0331992
-0.194814,0.0581983
-0.435109,0.0569999
-0.262192,0.0263943
-0.289197,-0.000409934
-0.217775,0.0291788
-0.130603,0.0497658
-0.122023,0.0348524
-0.190744,0.0203752
-0.242916,0.0179149
-0.159562,0.0129739
-0.119792,0.00385149
-0.0729645,-0.000764532
0.111101,0.0567029
0.182099,0.0803942
0.0284753,0.0506504
-0.0926181,0.0358824
0.0313424,-0.00468086
0.200033,-0.12169
0.212634,-0.135228
0.0873145,-0.0644732
-0.0797343,0.0427348
-0.0149481,0.0443727
0.0960297,-0.0233624
0.12291,-0.040336
0.0910542,-0.0182372
0.0405281,-0.0639041
0.0487622,-0.0529277
0.0945757,0.0371746
0.0493591,0.0549214
-0.0741321,0.0306749
-0.146359,0.0112387
-0.0964914,0.00486811
0.0154904,-0.00588618
0.024087,0.00854343
-0.0513882,0.0507043
-0.101471,0.0551956
0.0103429,0.0440133
0.181934,0.074865
0.193023,0.109137
0.106568,0.0705674
-0.0493025,0.007549
0.112563,-0.0477745
0.199073,-0.0837816
0.121811,-0.128087
0.0886855,-0.148006
-0.153985,-0.107231
-0.193757,-0.0282949
-0.292614,-0.000828373
-0.455383,-0.0178189
-0.288032,0.0250712
-0.0503252,0.0219396
0.168344,0.0180125
0.221995,0.090656
0.0366045,0.0490807
-0.110209,-0.029825
-0.160943,-0.0415505
-0.0958486,0.0355016
0.0816298,-0.0524113
0.0567352,-0.124248
-0.0967435,0.0383391
-0.0724912,0.0981353
0.028659,0.0643486
0.0283827,0.0348539
0.0467262,-0.00403348
-0.00670854,0.0169073
0.00701812,0.130181
0.0101364,0.153673
0.0672255,-0.00285796
0.182444,-0.137762
0.179707,-0.148954
0.0734768,-0.111335
-0.0061683,-0.105705
0.0779139,-0.0582845
0.25761,0.082425
0.307,0.0694984
0.0291366,-0.0485157
-0.214482,-0.0764495
-0.225689,0.00584854
-0.0996239,0.0708311
0.131957,0.0978028
0.238813,0.0808903
0.344959,0.018867
0.144518,-0.0443683
-0.261263,-0.0607935
-0.296738,-0.0363461
-0.454458,-0.0111219
-0.53451,0.00883706
-0.395067,0.0326838
-0.0428205,0.0115183
0.7559,-0.00687438
1.15742,-0.0247133
0.913513,-0.00468533
0.0416552,0.00200675
-0.886486,0.0142446
-1.07983,0.00879738
-0.873904,0.0588622
-0.603513,0.0654073
-0.217179,0.0370709
0.0637128,0.032766
0.210963,0.0185587
0.343725,-0.0161984
0.346929,-0.0318855
0.31382,-0.0281705
0.10138,-0.000290325
-0.151788,0.0245283
-0.112995,-0.0034307
-0.0270407,-0.0335851
0.0360173,0.00943812
0.0978407,0.00838188
0.120682,-0.023075
0.0907723,-0.0321237
0.197584,-0.0251268
0.322579,0.0121811
0.240705,0.0336567
0.132358,0.00144322
-0.0682012,-0.0509596
-0.194884,-0.0855794
-0.0637131,-0.094522
0.0330192,-0.0545557
0.0147818,0.0537072
-0.062373,0.153382
-0.107941,0.0870391
-0.115778,-0.0295368
-0.145308,-0.0573096
-0.141456,-0.0228931
-0.0854094,-0.00885602
-0.0476227,0.0288267
0.0445591,0.091402
0.128581,0.0576604
0.0220867,-0.0524245
-0.0642917,-0.059333
0.052205,0.00709437
0.345668,0.0222398
0.49132,-0.0219311
0.410503,-0.0391559
0.379648,-0.0511444
0.0797528,-0.0335556
-0.16769,0.00403841
-0.542444,-0.0179274
-0.782005,0.00504514
-0.419904,0.025659
-0.0604462,0.0142451
0.237381,0.000209607
0.361511,-0.00460176
0.197315,0.000594875
-0.112134,0.0101735
-0.439481,0.0179242
-0.525286,0.00639217
-0.200428,-0.00196428
-0.00573504,0.0133153
0.0608687,0.0107516
0.112221,-0.0014665
0.185229,0.0141408
0.360665,0.0184477
0.62407,0.012847
0.718356,0.0112124
0.384587,0.0170733
-0.177054,-0.00501948
-0.666935,0.00638845
-0.730699,-0.017104
-0.403639,-0.0422063
-0.115577,-0.0238881
-0.0594278,0.00914026
-0.0432994,-0.000232496
0.0161889,-0.0271648
0.0524215,-0.0164238
0.0406851,-0.000727771
0.0109186,-0.0139592
0.0112766,-0.0124313
0.0475166,0.0142359
0.0766025,0.00937132
0.0546282,0.0165845
-0.0265325,0.026033
-0.00710727,0.0531012
0.150111,0.0642769
0.191202,0.0165099
0.158356,0.000561786
0.0353913,0.0315367
-0.00643085,0.0413981
0.0791319,-0.0038628
0.120518,-0.0473191
0.058998,-0.0673645
-0.134507,-0.0574194
-0.14327,-0.0611481
0.0543146,-0.0264881
0.0554305,0.00544014
-0.021618,0.0337557
0.0792341,0.0430067
0.182416,0.0088363
0.0642089,-0.012853
-0.147272,-0.000514028
-0.195928,0.00838572
-0.119574,-0.00465526
-0.147144,-0.0263452
-0.114367,-0.0677797
-0.0129274,-0.0710805
0.0346508,0.043279
0.00867499,0.133367
-0.0137995,0.0471247
-0.0414022,-0.0304663
-0.0864855,-0.0788036
-0.0774785,-0.0448661
0.0449495,0.00529133
0.180294,0.029425
0.211396,0.0330627
0.153289,0.0291961
0.0492772,-0.0136286
0.0416348,-0.0197637
0.00751797,0.0473065
0.391401,0.0231449
0.186029,-0.0642944
-0.360055,-0.0542705
-0.679139,0.00674975
-0.270674,0.0182097
0.2503,-0.0176109
0.383632,-0.0266166
0.244413,0.0275883
0.013324,0.0422817
-0.209389,0.0233178
-0.153305,0.00473336
-0.0316775,0.0505882
0.160055,0.0518866
0.213491,-0.0279359
0.0404462,-0.0800593
-0.18536,0.00706709
-0.38025,0.0338328
-0.374828,-0.0150094
-0.261822,-0.0432426
-0.117107,-0.0463613
0.0289232,-0.0230391
0.0884319,-0.015654
0.0987588,0.00263115
0.0899624,0.0247453
0.0702852,0.0379629
0.0503399,0.0353929
0.0309458,0.0218586
0.00199662,0.010018
-0.0241876,0.0169702
-0.0228364,0.0320076
0.0517577,0.0158551
0.105431,0.0023533
0.0994253,0.0242206
0.0943398,0.0442079
0.0725042,0.0170119
0.0846628,-0.0413894
0.170237,-0.057671
0.191454,-0.0473761
0.144914,-0.0404262
0.0375978,-0.0223555
-0.100622,-0.00337396
-0.111477,-0.00346856
-0.12487,0.00348076
-0.148579,0.00524501
-0.114678,0.000809736
-0.0781134,0.00810452
-0.0556532,0.00374836
-0.0453205,-0.0290076
-0.0258021,-0.0351766
0.0181562,0.0202416
0.114472,0.0260802
0.184366,-0.0411843
0.140293,-0.00357476
0.128921,0.0339291
0.129978,-0.00459438
0.0589259,-0.0116793
-0.0273558,0.0161597
-0.209769,0.0415717
-0.240268,0.0330302
-0.167131,0.00276502
-0.13208,-0.0298587
-0.0877326,-0.0343547
-0.0550587,-0.00436381
-0.060446,-0.000530043
-0.0718234,0.00174404
-0.0336079,-0.00298132
0.0832219,-0.0154213
0.188335,0.025085
0.167707,0.0133362
0.157604,0.0029418
0.0693651,0.020233
0.0226592,0.00537891
0.0494244,-0.0275544
-0.0512747,-0.0421012
0.0325648,-0.00981826
0.266514,0.0143507
0.290296,-0.0102303
0.0967375,-0.0273275
-0.275792,0.0244022
-0.402472,0.0957404
-0.289955,0.0673365
-0.254444,-0.0148392
-0.0619893,-0.0595293
0.198944,-0.0643729
0.267638,-0.03714
0.132699,-0.0104066
-0.136274,0.0306433
-0.302984,0.0544816
-0.201509,0.0623553
-0.0226606,0.0614843
0.00103377,0.00790683
-0.0315206,-0.0633611
-0.00698123,-0.054731
0.0288722,-0.00519689
0.0455193,-0.0288308
0.0850922,-0.0100935
0.155356,0.0369047
0.112267,0.0487559
-0.0433618,0.0185198
-0.119516,-0.0300819
-0.0547551,-0.0465733
0.0319796,-0.0238413
0.0356658,0.0425286
0.0418918,0.0761627
0.165926,0.0571721
0.182562,-0.000997189
0.086711,-0.0623929
0.0334953,-0.103563
-0.0179224,-0.109497
-0.119759,-0.0103985
-0.142074,0.0092819
-0.104775,0.0150636
-0.018041,0.0286031
0.106349,-0.00237452
0.116833,-0.0405922
0.0806302,-0.0052767
0.00794109,-0.000460273
-0.190234,0.00122574
-0.26466,0.0622083
-0.104043,0.0924645
0.0872416,0.0501537
0.171339,-0.00939538
0.204114,-0.00357119
0.199616,0.0196642
0.223612,0.0164835
0.177758,-0.0169279
0.0958624,-0.0310049
-0.0687617,-0.0289153
-0.243165,-0.0176824
-0.185447,0.00545959
-0.106392,0.0192838
-0.115078,0.0138386
-0.00810838,-0.00198478
0.0383149,-0.03352
0.0137383,-0.0755865
-0.0474401,-0.0524622
-0.170922,0.0237081
-0.272365,0.063185
-0.157567,0.0387849
-0.0361156,0.0259502
0.0210829,0.0196906
0.109013,0.0120755
0.125047,-0.00444442
0.0194703,-0.0183312
-0.131031,-0.0371115
-0.14613,0.018412
0.0120776,0.0408345
0.14428,0.00492184
0.195066,-0.0278442
0.0928301,-0.0638547
-0.000882892,-0.0251002
0.0545284,0.03434
0.102938,0.0353472
0.232748,0.0137505
0.413064,0.00630772
0.439759,-0.00360164
0.204131,-0.0449112
-0.259954,-0.0455443
-0.397682,-0.0602932
-0.177653,-0.052262
-0.2085,0.0264594
-0.251627,0.024238
-0.299382,0.0334766
-0.216966,0.0635976
-0.0508853,0.0252219
0.0130388,0.0166112
0.0129552,0.0186187
0.013563,-0.0191338
0.0202973,-0.0583055
0.0161117,-0.0254395
0.00597631,-0.01578
0.028046,0.00990416
0.0604543,0.0476029
0.0985109,0.032586
0.115157,0.01719
0.059368,0.0165501
0.0147067,0.00520674
0.0137313,-0.0253259
0.0341217,0.00943184
0.0548283,0.0529485
0.0664676,0.0145
0.0242055,0.0053657
-0.0160353,0.013959
0.00278223,0.0408913
0.0351029,0.0387623
0.0265365,0.0036419
-0.0195154,-0.0402093
-0.0799777,-0.0748956
-0.0872167,-0.0848764
0.035586,-0.0705438
0.18573,-0.0439335
0.243166,-0.0990489
0.161949,-0.0485873
0.0260808,0.0884408
-0.0569474,0.064567
-0.168724,0.0170386
-0.227675,0.0315926
-0.154911,0.0288637
-0.0756933,-0.000745871
-0.0682009,-0.0191892
-0.0593013,-0.0105374
0.0256856,-0.0221872
0.0946874,0.0138387
0.119299,0.0462553
0.0979815,0.0296165
-0.00722171,0.0419698
-0.216234,0.0596215
-0.265611,0.0294855
-0.191085,-0.0292605
-0.109365,-0.0515298
0.0137329,-0.0470076
0.0825681,-0.0291077
0.107447,-0.0179386
0.18943,-0.041185
0.24864,0.00679723
0.324517,0.0175176
0.267924,-0.0252125
0.0604552,-0.0214929
-0.191667,-0.00764978
-0.364327,0.0118752
-0.308987,0.0102406
-0.131717,0.0192752
0.124465,0.0500376
0.334996,0.048977
0.426054,0.00857692
0.214631,-0.0246342
-0.201007,0.00943682
-0.279921,-0.00899669
-0.106509,-0.0144462
0.0998069,0.00735482
0.183626,0.0138256
-0.0708052,0.0132555
-0.278514,-0.00792791
-0.260933,-0.0307371
-0.136763,-0.0389915
-0.0121077,-0.0160568
-0.113512,0.00753607
-0.236283,0.0270938
-0.124205,0.0268414
-0.0237987,0.011778
0.0135642,0.00177344
0.038434,0.00431071
0.0174206,-0.00798858
0.0351956,0.0137204
0.203838,0.0802285
0.366384,0.0828209
0.33226,0.019053
0.0973506,-0.0168721
-0.0786611,-0.0427684
-0.120213,-0.0838999
-0.0613817,-0.123885
-0.0586888,-0.0962428
-0.125778,0.0301356
-0.0997711,0.112566
0.143607,0.0778414
0.526152,0.00306605
0.603738,-0.037149
0.340616,-0.0267197
-0.257089,-0.0376867
-0.725631,-0.0359679
-0.491709,-0.0312097
-0.0799456,-0.0345982
0.0812794,-0.00467718
0.018087,0.00593123
-0.0889709,0.0350051
-0.167699,0.0441753
-0.119515,0.0214794
-0.0464773,0.000449625
-0.014571,-0.0112235
0.0820416,-0.0315977
0.246301,-0.00375687
0.28216,0.0355756
0.15295,0.0214086
-0.0644258,0.0337216
-0.186334,0.038411
-0.0764087,0.000164162
0.111494,-0.0529761
0.230548,-0.0476535
0.19578,0.00144206
0.0722639,0.0250018
-0.0655506,0.0353774
-0.24093,0.0252886
-0.154619,-0.00838914
-0.0620528,-0.0242596
-0.133484,-0.011564
-0.0863218,0.0104841
-0.021039,0.0109966
0.116966,0.00103742
0.273138,-0.00603789
0.283712,-0.0131487
0.0121189,-0.013645
-0.325573,-0.0303432
-0.270673,0.00288746
0.0124762,0.0537885
0.0780048,0.047088
-0.109932,0.0208739
-0.21333,0.0282634
0.0427897,0.00868938
0.168045,-0.0688995
0.0294551,-0.0759362
-0.0357928,-0.0435744
0.0048728,-0.027283
0.0330498,-0.0310175
-0.011976,0.0435046
-0.0541653,0.0684084
-0.00960026,0.0194152
0.0144391,0.00662962
0.0385178,-0.00191088
0.0122158,0.0152216
-0.0610049,0.00622799
-0.0674399,-0.00800071
-0.0218925,-0.0114195
0.0301659,-0.00247473
0.100745,0.00233295
0.143692,0.0173908
0.106199,0.0387714
0.0555819,0.0544083
0.14207,0.0418338
0.178789,-0.00895316
0.0695563,-0.0862596
-0.0470726,-0.0873056
-0.0843019,-0.079119
-0.109558,-0.0347797
-0.169771,0.0133974
-0.188856,-0.0015022
-0.0830329,-0.00372551
0.00736112,-4.92e-05
-0.0290509,0.00151986
-0.0769858,0.0134732
-0.0353571,0.0336879
0.103469,0.0498395
0.199712,0.0651035
0.121079,0.0452186
-0.0282233,0.00314778
-0.0560912,-0.0290035
-0.0139685,-0.00206398
-0.0223444,-0.0311941
-0.0126917,-0.10037
0.0855399,0.00242371
0.103601,0.0689982
0.0140754,0.0344353
-0.0658904,0.0110601
-0.131445,-0.0277808
-0.0739816,-0.0684412
-0.00273548,-0.043045
-0.0455384,-0.00417728
-0.0181511,0.0211429
0.205521,0.0153435
0.334123,0.0149735
0.419256,0.0177382
0.213209,0.0242446
-0.122421,0.0375126
-0.19342,0.0194815
-0.250653,0.0156795
-0.408937,0.0422186
-0.513893,0.0349378
-0.30576,-0.0028946
-0.0366166,-0.0121738
0.0727418,-0.0239462
0.080524,-0.0394092
0.0162921,-0.0227575
-0.0917207,-0.0076539
-0.0616814,-0.0187173
0.171519,-0.0187193
0.316792,-0.0184286
0.230317,-0.0243389
0.0968648,-0.085614
0.0400834,-0.0268912
0.0993158,0.085213
0.272997,0.0921428
0.229545,0.0323141
-0.122609,0.00669937
-0.291769,0.00745965
-0.325941,-0.00801339
-0.143005,-0.00443695
0.151826,0.00628309
0.204868,-0.0167389
0.0614183,-0.0642826
-0.198972,-0.0409872
-0.281832,0.007192
-0.123837,0.027404
-0.038887,-0.0158392
-0.0130634,-0.0361167
0.0388003,-0.0092088
0.0929208,0.0119102
0.076144,0.0204186
0.0178312,0.0201719
0.0158815,0.0306084
0.120394,0.0641392
0.285778,0.0741474
0.192407,0.0132437
-0.0973655,-0.0343236
-0.188363,-0.027626
-0.105786,-0.0315495
-0.0497908,-0.0529688
-0.0356495,-0.0328967
0.00796184,0.0335601
0.0729841,0.0300512
0.0608653,-0.0174526
-0.0180995,-0.0179882
-0.0981114,-0.0176156
-0.120086,-0.00952339
-0.0694223,-0.00851705
-0.0321198,0.00160482
-0.0194597,-0.00201678
-0.0236235,-0.010556
-0.0183756,0.00775798
0.0348298,0.011735
0.0897768,0.00308941
0.123596,0.00106945
0.201384,0.0116824
0.245283,0.014839
0.211023,0.00357574
0.146401,-0.0107902
-0.0105582,-0.00885459
-0.163703,0.0108102
-0.181316,0.0347831
-0.0412682,0.061453
0.135868,0.0273803
0.138859,-0.024597
-0.167233,-0.0655424
-0.387672,-0.0478402
-0.183169,-0.0322725
0.0264306,-0.0352205
0.0639028,-0.0057586
0.155327,-0.0071843
0.342902,0.00762574
0.446843,0.0397668
0.104162,0.0580315
-0.348366,0.037423
-0.496588,0.0187661
-0.436262,-0.0298311
-0.324669,-0.0649857
-0.157851,0.0281044
-0.00685182,0.0369295
0.064512,-0.0171863
0.0692739,-0.0412162
0.0268566,-0.010542
-0.0119969,0.00693074
-0.0306058,0.014971
-0.0278391,0.0170911
0.0284343,0.01436
0.0884792,0.00780229
0.0844923,0.00864898
0.0636207,0.0112009
0.0422152,-0.0119752
0.0694005,-0.0188709
0.2417,-0.000366362
0.481349,-0.0289159
0.452347,-0.0362598
0.126995,0.0011858
-0.237673,0.0135045
-0.470018,-0.00955356
-0.327201,0.0150266
-0.0766276,0.0376557
0.0274004,-0.000902817
0.0669691,0.00388854
0.0387597,0.0270519
-0.0813485,0.0388739
-0.100421,0.0552206
-0.0557652,0.0241053
-0.0218221,-0.0238844
0.0292421,-0.0281716
0.120707,-0.0256513
0.263689,-0.043532
0.243548,-0.0354363
-0.00485299,-0.0178394
-0.270622,-0.0277691
-0.174689,-0.0282094
0.0233563,0.00389255
0.0356243,0.0296599
-0.0492397,0.0224041
-0.0366015,-0.00846239
0.108606,-0.0342927
0.13143,0.00213482
0.0591816,0.0401088
0.0147141,0.0303422
-0.0254166,0.033111
-0.0311401,0.0266267
0.0684785,-0.0191015
0.147909,-0.0382799
-0.0507339,-0.00543517
-0.286808,0.0319791
-0.29606,0.00713066
-0.0980409,0.00114947
0.106667,-0.0265782
0.195097,-0.0316376
0.061038,-0.0162176
-0.0413106,-0.0033688
-0.0778976,0.0138602
-0.0647494,-0.00724229
-0.0661263,-0.00754837
-0.146486,0.0111701
-0.160009,0.00582088
-0.021176,-0.00836952
0.115077,-0.0151241
0.233599,-0.00975612
0.209067,0.0161687
0.0148669,0.0442986
-0.115403,0.0375258
-0.130301,0.00897442
0.0302998,-0.013795
0.158036,-0.0273509
0.112522,-0.00922643
0.00895389,-0.00786359
-0.0103429,-0.0259154
0.0284741,0.0114704
0.094239,0.0298966
0.0779948,-0.00596941
-0.0193652,-0.0192327
-0.0254036,-0.00828368
0.0312772,0.0173268
0.0291869,0.0376648
-0.010582,0.0392612
-0.20096,-0.00196261
-0.270665,-0.0339827
-0.15785,-0.0341778
-0.0179483,-0.0147121
0.0958541,0.00733235
0.252868,-0.0108852
0.285557,-0.00775892
0.178073,0.039516
-0.0569512,-0.0642852
-0.2679,-0.0452324
-0.230233,0.0292783
-0.103753,0.011057
-0.0318338,-0.0103643
-0.0322908,-0.0203167
-0.0296199,0.0192083
-0.0610079,0.0460324
-0.0966856,0.0450958
-0.0429919,0.0580276
0.0876115,0.0632186
0.120762,0.00570464
0.0687182,-0.0744186
0.0177908,-0.0633206
-0.0148724,-0.0177512
0.0456041,0.0162937
0.121147,0.0184015
0.107195,0.00071754
0.0315265,-0.0199947
-0.0479089,-0.0294569
-0.0248858,-0.0224075
0.0676005,-0.034795
0.151399,-0.0411801
0.145548,0.00187695
0.0660888,0.0500021
-0.136738,0.0296134
-0.25587,0.0096965
-0.123893,0.0116174
0.0358335,0.00488091
0.086175,-0.0152411
0.0613788,-0.0331241
0.016808,-0.00725846
0.0533515,0.0508536
0.1799,0.0787525
0.0503208,-0.00576372
-0.223141,-0.0298218
-0.207324,0.00818126
-0.0809252,-0.0153783
-0.0118899,-0.0109995
0.114229,0.0112693
0.236355,0.012188
0.246697,-0.0205169
0.0104992,-0.0518796
-0.267524,-0.0229787
-0.319067,4.49e-05
-0.251252,0.00169688
-0.0989347,0.00724139
0.0138574,0.0199303
0.0633097,0.0295443
0.0507445,0.0208007
0.00722155,0.00984086
-0.00170798,-0.00398483
0.0304939,0.00195093
0.063164,0.00448397
0.0446928,-0.00160211
-0.00772921,0.000228216
-0.0209587,0.0202151
-0.0131006,0.039368
0.00978858,0.0395626
0.0354001,-0.0157478
0.0408533,-0.0464535
0.00429271,-0.0186
0.0184681,-0.0141686
0.0785772,-0.0631531
0.135248,-0.0541153
0.0800724,0.00240072
-0.0964288,0.0163852
-0.151988,0.0137138
-0.120616,0.0144802
-0.0543675,0.0122838
0.0054201,0.0010307
0.0622431,-0.00164114
0.139278,-0.00457515
0.275909,-0.00408196
0.407211,0.00882632
0.400986,0.0186063
0.16617,0.00624654
-0.138819,-0.00501968
-0.317951,-0.012492
-0.327596,-0.00670282
-0.344325,0.00947073
-0.347613,0.0304264
-0.202373,0.0364013
-0.0736683,0.0237321
-0.112135,-0.00633473
-0.0654636,-0.0441087
0.233686,-0.0570333
0.436021,-0.066993
0.419963,-0.00269233
0.146663,0.048608
-0.21957,0.0398187
-0.289709,0.0170831
-0.339244,0.0144342
-0.263128,0.0575717
-0.0416029,0.0501815
0.0403119,-0.0111067
0.0372711,-0.0368353
0.0249377,-0.0355182
0.0639291,-0.0304145
0.0826714,-0.0129519
0.0901315,-0.0159509
0.22448,-0.0471309
0.39115,-0.0299238
0.391036,-0.0141644
0.0290057,-0.00309383
-0.433334,-0.0133296
-0.446253,-0.0130644
-0.18821,0.0494205
0.11172,0.0658312
0.164849,0.0255961
0.143179,-0.00618787
0.0889887,-0.00346201
-0.057127,0.0105679
-0.112478,-0.0153811
-0.101687,-0.0275925
-0.0921217,0.0368962
-0.00812487,0.047131
0.0146915,0.0233257
-0.0113202,-0.00102443
-0.0313309,-0.0462604
-0.0259419,-0.032043
-0.00705359,-0.0103416
-0.0244827,0.00682294
-0.0428669,0.0150505
-0.00305751,0.0154873
0.0410139,-0.00872135
0.0786708,-0.0200866
0.114372,0.0167037
0.103499,-0.0281622
0.0612033,-0.0178918
0.0362761,0.0210112
0.0418725,0.00278585
0.0455609,0.00801905
0.0455966,-0.00492862
0.0198753,-0.0839601
-0.0247571,-0.0403357
-0.0677612,0.0864665
-0.100346,0.0564703
-0.102701,0.0251728
-0.0704008,0.0267885
0.0133167,0.0453338
0.0636522,0.0425813
0.0597151,0.0384263
0.0415229,0.0113534
0.0632634,-0.0392591
0.0464643,-0.0589413
-0.027524,-0.0560042
-0.0649357,-0.0535638
-0.0186105,-0.0233798
0.018025,-0.00630827
0.0117437,0.00785759
-0.020687,0.00828807
-0.0502874,-0.0160109
-0.0668592,-0.00727905
-0.0592855,0.0138863
-0.00798175,0.00784351
0.0557879,-0.000679612
0.0750709,0.0117045
0.0344733,0.0396401
-0.036733,0.0489341
-0.0897818,0.00981143
-0.0685024,-0.0134144
-0.0192085,-0.0276189
0.0160461,-0.0357236
0.055651,-0.00620235
0.0611854,0.0203595
0.0490492,0.020567
0.00746752,-0.012514
-0.0295435,-0.0292035
-0.0494805,-0.0234324
-0.0784471,-0.0176303
-0.0977289,-0.0129649
-0.0824119,-0.0157672
-0.0532261,-0.0183214
-0.0254775,-0.0106248
0.00702974,0.0250938
0.107484,0.0713349
0.285444,0.0481298
0.324449,-0.0332365
0.229676,-0.0475208
0.0744566,-0.000524345
-0.0792408,0.0330516
-0.151294,-0.0120172
-0.158848,-0.00582323
-0.165639,0.0186219
-0.17339,-0.0373104
-0.175404,-0.0283797
-0.0803493,-0.00452237
0.00479371,-0.00316544
0.0108829,-0.0119986
-0.01039,0.000227914
-0.0627318,0.014462
-0.0659688,0.0150768
0.0308181,0.00343168
0.0698625,-0.00290969
0.0325106,0.0115729
-0.0442059,0.0369019
-0.0579424,0.048439
0.0647022,0.0174671
0.146028,-0.0142583
0.142345,-0.0315694
0.158989,-0.0208402
0.342494,0.0316238
0.373436,-0.00639571
0.250326,-0.020635
0.0196045,0.0038636
-0.275219,0.0118949
-0.421599,0.0158224
-0.438832,0.00034385
-0.338874,-0.00230206
-0.162888,0.000712466
-0.0205361,0.0138874
0.0508208,0.0194078
0.0462664,0.00169133
0.00596673,0.00779539
0.00209821,0.0208932
0.214349,-0.00180254
0.343701,-0.00256793
0.180942,-0.0112235
-0.119607,-0.0365045
-0.370232,-0.0122685
-0.240852,0.00860629
0.220605,-0.00509486
0.490723,-0.00809783
0.414976,-0.0139249
0.0964559,-0.017383
-0.273298,0.0339003
-0.38364,0.0327544
-0.208369,0.00483926
-0.0362124,0.00757565
-0.0261104,-0.0382348
-0.0865084,-0.0711194
-0.102519,-0.128185
-0.0674107,-0.0888326
-0.0202101,-0.0217583
0.0246188,0.10021
0.125226,0.103316
0.176387,0.0457195
0.093222,0.0117747
-0.010831,0.0141246
-0.0894232,0.00500411
-0.0901563,0.0189292
-0.0487198,0.0209625
-0.00154069,-0.0188304
0.0313338,-0.0301317
0.0445673,0.0245801
0.0576839,0.0279809
0.04286,0.00757793
0.0638185,0.0237173
0.0511417,0.0260759
-0.00787554,0.00528768
-0.0281148,-0.00577571
0.0431214,-0.00565387
0.089609,-0.0115431
0.0641226,-0.00401394
0.0803222,0.020377
0.0155887,-0.0272432
-0.0290648,-0.0613471
-0.0761186,-0.0493542
-0.0863455,-0.0330748
0.0226855,-0.00105089
0.0668322,0.0171834
0.0335369,0.0153205
0.0175579,0.00674139
0.0534963,0.011219
0.0756879,0.0058433
-0.0292159,0.0139082
-0.197269,0.0254347
-0.246914,0.0150948
-0.164157,-0.0117965
-0.112291,-0.0189198
-0.0642976,-0.00590712
0.0334691,0.00410495
0.167324,-0.00461438
0.214009,0.0126269
0.127795,0.0480062
-0.0164006,0.0242398
-0.149267,-0.0655675
-0.0619541,-0.0638533
0.203421,0.0103187
0.295431,-0.00830035
0.200989,-0.00968042
-0.0137532,0.00181732
-0.232309,-0.00976971
-0.268677,0.00181834
-0.131706,0.0175909
0.0818318,0.0114571
0.194979,-0.0112525
0.121093,-0.0227264
-0.0884986,-0.027273
-0.228612,-0.0360432
-0.182526,-0.037585
-0.0256994,0.0253493
0.0734586,0.0571874
0.0888799,0.0366427
0.0104101,0.011831
-0.130762,-0.011824
-0.187509,0.00489491
-0.137049,0.0416654
-0.0456207,0.053119
-0.0131573,0.0707435
-0.0172216,0.0658867
0.0181393,0.0219759
0.0935904,-0.0333745
0.16213,-0.0534476
0.218876,-0.0584596
0.192609,-0.0470694
0.163695,0.00670484
0.186311,0.006068
0.1661,-0.0332984
0.0535521,-0.0379864
-0.201522,-0.0195633
-0.382679,0.0126941
-0.257295,0.0219684
-0.0976878,0.0359222
-0.0175106,0.0173551
0.00877005,0.00459949
0.00775634,0.00340199
-0.0199645,0.0141839
-0.0353067,-0.0231025
-0.0459592,-0.0253176
-0.045761,0.0218636
0.00217605,-0.00167687
0.0681685,-0.0228675
0.108857,-0.0356332
0.147172,-0.0511692
0.105405,-0.0352208
0.0715684,-0.0443549
0.103927,-0.0409732
0.0638534,-0.0398664
-0.0296843,0.0602573
-0.0536784,0.0549296
-0.0187228,0.0203427
0.0852032,0.0508719
0.136187,0.0491202
0.109614,0.0341496
-0.0079756,0.0266137
-0.149173,-0.00103481
-0.153831,-0.0102186
-0.138522,0.0110946
-0.135288,0.0433603
-0.0719167,0.0434102
-0.0991503,0.0178401
-0.107964,-0.00940892
-0.0278496,-0.033297
0.0216833,-0.0258931
0.037648,-0.014198
0.0662405,-0.0140206
0.0922434,-0.0114552
0.0855225,-0.00420546
0.0570938,0.00354285
0.0333531,-0.00999431
0.00766918,-0.00358163
-0.0256616,0.0112547
-0.0411747,0.00806562
-0.0127274,0.00590525
0.0697089,-0.0285618
0.0889811,-0.0496165
0.0368461,-0.0176529
-0.0647906,0.00771215
-0.13432,-0.00429847
-0.0717673,-0.00372082
-0.0121068,0.00822415
-0.00172911,0.0100634
0.00925534,0.0043113
0.0147571,-0.00226737
0.00833183,-0.00275263
0.00889975,0.00359555
-0.0239166,-0.000124655
-0.0574053,-0.0257727
-0.069905,-0.0326316
-0.0707166,0.00864009
-0.0310994,-0.00128154
0.0715714,0.0476178
0.165239,0.0291998
0.318958,0.0131976
0.374594,0.0176009
0.466297,0.0079511
0.539004,-0.0336027
0.272626,-0.0561196
-0.189022,-0.0465849
-0.645423,0.00995754
-0.746063,0.0450904
-0.456747,0.0391399
-0.249365,0.0522586
-0.13568,0.0354863
-0.0402942,-0.0259313
0.0754183,-0.0554093
0.147967,-0.038781
0.0645881,-0.0144215
-0.0923439,-0.00734704
-0.211329,0.0079964
-0.193146,0.00404808
-0.0848577,-0.009287
0.0490266,-0.00592758
0.107163,-0.00120829
0.140077,0.0300258
0.170524,0.032972
0.228805,0.0216993
0.180876,0.00821751
0.0452629,0.000331708
-0.0172644,0.023233
-0.00430253,0.0238678
0.0260355,-0.0313859
0.0719214,-0.0574433
0.192803,-0.0441664
0.325176,-0.0266496
0.311121,-0.00916057
0.0679799,0.0128869
-0.252714,0.030597
-0.358463,0.0273158
-0.273173,0.0132382
-0.0877592,0.00706804
0.0414502,0.0111602
-0.0494226,0.0416046
-0.159195,0.0441181
-0.110034,0.00714146
-0.05189,-0.0141803
-0.0510995,-0.0161872
0.000790786,-0.0112134
0.040324,-0.0255366
-0.00491534,-0.0359213
-0.0768363,0.00221549
-0.100424,-0.00801215
-0.0595694,-0.0405407
0.0138133,-0.0405299
0.0642518,-0.0734413
0.146666,-0.0372119
0.279645,0.0608827
0.330753,0.0480096
0.33746,0.0230108
0.187326,0.0071584
-0.0407299,0.0433415
0.0643561,-0.00284381
0.0387289,-0.0326451
-0.190636,-0.0402511
-0.305531,0.00433057
-0.179224,0.0351536
-0.000718719,0.0382993
-0.0418328,0.021865
-0.159162,0.0144493
-0.254048,0.0219542
-0.203024,0.0230996
-0.0776443,0.00589644
-0.0301917,-0.00787292
-0.00734099,-0.0205561
0.0551148,-0.0248042
0.129715,-0.0175276
0.145665,-0.0118235
0.0960616,-0.0025848
0.0372356,0.0149308
0.0318444,-0.0192528
0.0672123,-0.00722837
0.0722106,-0.00362108
0.125402,-0.0188227
0.172884,0.013859
0.0528339,0.0393658
-0.102578,0.0197911
-0.150843,0.0120773
-0.0926486,-0.0167331
0.000482645,-0.0336461
0.0165114,-0.0305704
0.0261483,-0.0104465
-0.0249603,0.0186904
-0.125053,-0.00849638
-0.096749,-0.000658848
-0.0217958,0.0125396
-0.0325727,0.00931361
-0.00152282,-0.0216817
0.11741,0.0188098
0.285731,0.0805956
0.324888,0.0702723
0.197272,0.00309535
-0.0584008,-0.0599364
-0.319851,-0.0212252
-0.293581,-0.00444984
-0.16188,-0.00904568
-0.133322,-0.0186793
-0.0681455,-0.014212
0.0519546,-0.0181541
0.13659,-0.0276539
0.16991,-0.0383448
0.049128,-0.0555724
-0.0772815,0.00111732
-0.103461,0.0296373
-0.0746249,0.0326
-0.027895,0.0269821
-0.000286657,0.0305087
-0.0185017,0.0273863
-0.0417043,-0.000667582
-0.0519946,-0.00557028
-0.034938,-0.00821235
0.0161498,-0.0101478
0.0402169,0.00306613
0.0210948,0.00312525
0.00494336,-0.0041452
0.0237224,-0.00705936
0.0684283,-0.00870472
0.0916654,0.000214083
0.0606881,-0.0166754
0.00441294,-0.00510718
-0.026408,0.0275349
-0.010968,0.00636337
0.053494,-0.00242011
0.0986556,-0.0116394
0.161015,0.00860982
0.231011,0.00279899
0.153062,0.00790043
-0.0633268,0.0391763
-0.204829,0.0248242
-0.252339,-0.0029535
-0.0421148,-0.0100721
0.331829,-0.00469114
0.417698,-0.000663236
0.145428,0.00217248
-0.209578,0.00387248
-0.412997,-0.00153572
-0.313791,0.00383431
-0.199897,0.00674998
-0.224161,-0.0333857
-0.136705,-0.0401482
-0.0387407,-0.0148004
-0.0315106,-0.0165592
-0.0724246,-0.0161617
-0.080571,0.0036798
-0.00976621,0.00186936
0.0686124,-0.00438351
0.10088,0.0114681
0.0779863,0.0311922
0.0836907,0.00408053
0.117182,-0.0492667
0.135566,-0.0389634
0.124373,0.00790794
0.0329431,0.0083815
-0.0164522,0.0267912
0.0924217,0.0193892
0.17529,-0.00754802
0.0741329,0.00719072
-0.0317497,0.0374811
0.0307927,0.0219872
0.141003,0.00748187
0.0880062,0.0208817
0.07518,0.0112655
-0.0826656,-0.0219391
-0.408947,-0.0363411
-0.349362,-0.00878247
-0.0660539,0.014485
0.135724,0.0137942
0.259461,0.0145653
0.263159,0.00805738
0.187787,-0.00258102
0.160324,-0.00854503
0.0794699,-0.0173015
-0.155863,-0.0423807
-0.428981,-0.0365419
-0.43525,-0.00393081
-0.319417,-0.0168472
-0.168472,0.0177361
-0.0486816,0.0263317
0.0486925,0.0102728
0.120376,0.00101982
0.138973,-0.00782076
0.0902771,0.00882117
0.0434104,0.0347123
0.0423985,0.0517475
0.0978472,0.0467917
0.0794732,0.0330243
0.0339877,0.0116209
-0.0180921,-0.000783207
0.0124322,-0.0384136
0.130382,-0.0913267
0.200896,-0.0768079
0.135748,-0.0401606
-0.0663858,-0.00916993
-0.157955,0.019641
-0.127128,0.0173448
-0.121434,0.00410461
-0.0282223,-0.00598887
0.00418775,-0.0032023
-0.0410629,0.00541093
-0.0381448,0.0305494
0.0158357,0.0299642
0.0342945,-0.0222108
0.0223355,-0.0540418
-0.0210861,0.00863022
-0.014844,0.0367568
0.0641331,0.0385851
0.0657354,0.0559259
0.0543318,0.0553952
0.0633871,0.0300298
0.0353395,-0.00284055
0.0198877,-0.0356318
0.00871334,-0.0458209
-0.0289633,-0.047436
-0.00534615,-0.0281019
-0.0229533,-0.00507642
-0.0607345,-0.0156015
-0.04096,-0.0103449
0.0127321,-0.00856983
0.0389649,-0.000519592
-0.00880323,0.0104068
-0.0674763,0.00915274
-0.0520378,0.00565713
-0.0649665,0.0186066
-0.112872,0.0437851
-0.0606806,0.068042
0.0883542,0.072945
0.11186,0.0058933
0.0374087,-0.0422626
0.0192272,-0.0322082
0.0146723,-0.0240998
0.0494946,-0.0170402
0.136504,-0.0164801
0.173666,-0.0185927
0.108277,-0.038239
0.0941452,-0.0448913
0.139652,-0.00954559
0.0522612,-0.0334028
-0.0923392,-0.0132065
-0.250402,0.00391275
-0.317852,0.0109903
-0.136396,0.0149517
-0.0228603,-0.00148164
-0.0597577,-0.00403734
-0.108605,0.0150861
-0.0756465,0.0231432
0.0112596,-0.00192128
0.0278792,-0.00237304
-0.0123233,0.0275781
-0.0328741,0.0241101
-0.000827215,0.0160191
0.0553689,0.0110597
0.0779846,-0.0064307
0.0444901,7.44e-06
-0.018878,0.0209535
-0.0504613,0.0156092
-0.00539099,0.00599381
0.0357222,-0.00929121
0.0726668,-0.0350665
0.146066,-0.0259598
0.105917,0.00813097
-0.0183209,-0.0244161
-0.0480104,-0.032375
-0.00360761,0.00381467
-0.00536648,0.0348389
-0.0478637,0.0267244
-0.0572745,-0.00125374
-0.0430806,-0.0173353
-0.00726335,0.0246309
0.0310034,0.0315788
0.0606632,0.00467674
0.179138,-0.0282979
0.225433,-0.0558095
0.171462,-0.036887
0.0287037,0.00791535
-0.205596,0.0208549
-0.324536,0.0304308
-0.156907,0.0374482
0.119603,0.0213388
0.187682,0.0149405
0.125661,0.00484996
-0.0862309,0.00388722
-0.272771,-0.000113226
-0.202477,-0.0141365
-0.115674,-0.037011
-0.0538575,-0.0448993
-0.00642217,-0.0187573
-0.00259395,0.0226318
-0.010518,-0.001279
0.00512435,-0.0609276
0.0142786,-0.0264594
0.051077,0.0529563
0.136706,0.0614035
0.153679,0.012904
0.0939609,0.000198262
0.00364813,0.0122996
-0.0661805,0.0161573
0.0150742,-0.0102202
0.177846,-0.0329471
0.208371,-0.0116242
0.232903,0.0381312
0.13774,0.0345561
-0.0777257,-0.0445345
-0.221725,-0.048875
-0.301304,-0.00126754
-0.286651,0.0346812
-0.146632,0.00857297
-0.0165756,-0.0126491
0.0604023,-0.0256722
0.099148,-0.0244291
0.121079,0.0272522
0.0626128,0.0419451
-0.0511411,0.0118502
-0.0110884,0.00956318
0.0238223,0.0162441
0.00389555,0.00521844
-0.0730387,-0.0144539
-0.089488,-0.0177149
0.0225611,9.02e-05
0.117717,-8.88e-05
0.0863148,-0.00701451
-0.0270734,0.000332794
-0.148835,0.00210606
-0.131045,-0.00873293
-0.0224122,-0.00944071
-0.00320693,-0.0100163
-0.00283506,-0.0103191
0.0400175,-0.00965032
0.109133,0.00547274
0.127811,0.0182402
0.0879406,-0.00371267
0.0250653,-0.00601905
0.0121181,0.000893287
0.0322251,-0.0148656
0.0132335,-0.0185574
-0.0204365,-0.00523603
-0.0754382,0.00310015
-0.091197,-0.00117733
-0.0564259,0.00449679
-0.0180972,0.0217056
0.0215737,0.0154368
0.0514525,-0.0186432
0.0394044,-0.00817876
-0.0444562,-0.0133822
-0.0897576,-0.0202283
-0.0435499,0.00277877
0.00363954,0.0225851
-0.00301205,-0.000648982
-0.0301996,0.0150825
0.0230414,0.0519368
0.134846,0.0333019
0.148203,0.0200868
0.134373,-0.013886
0.123087,-0.0247126
0.0532352,-0.0150173
-0.0587816,-0.0180017
-0.161502,-0.0145114
-0.145333,-0.0075538
-0.0959562,0.0111396
-0.0500446,-0.00135484
-0.0200116,-0.0141365
0.0348842,-0.00474345
0.0987626,-0.00174297
0.0772451,0.00288782
-0.00927374,0.00689653
-0.100408,0.0144129
-0.143261,0.0132672
-0.0981596,-0.00500363
-0.0566298,-0.0263408
-0.0589483,-0.0273011
-0.0372458,-0.000460504
0.00784848,0.0140432
0.0250385,0.00643305
0.0703428,0.00871297
0.146662,0.0145501
0.252176,0.00879687
0.25052,-0.00435226
0.151001,0.00600043
0.0690062,0.0272656
0.00581513,0.0491759
0.039973,0.0427276
0.0418512,-0.0093169
-0.202965,-0.0347613
-0.337043,-0.0345314
-0.145311,-0.0155534
0.0377638,0.00460725
0.137229,-0.000952804
0.120827,-0.0351507
-0.0817588,-0.0328461
-0.298323,0.0190004
-0.288284,-0.0253449
-0.137187,-0.0354192
-0.0566824,0.00438358
-0.0236419,0.0100644
0.00408724,0.0011853
0.027718,0.0237323
0.0147964,0.0404702
-0.0118872,0.0234343
-0.0129919,-0.0306991
0.0681231,-0.0297892
0.194654,0.0149739
0.27313,0.0141688
0.210019,0.0183667
0.0580912,-0.00406297
-0.00819585,-0.0209737
0.0203175,-0.0229204
0.191937,-0.017367
0.280059,-0.00293774
0.0620908,0.000311112
-0.196808,0.0055133
-0.322887,0.0125888
-0.218021,0.00621325
-0.00187511,-0.001627
0.0759763,0.00186913
0.0210533,-4.36e-05
-0.08589,0.0126383
-0.189319,0.0272168
-0.140743,0.0210606
-0.0409118,0.013286
-0.0119464,0.00867476
-0.00773198,0.0173925
0.0307666,0.000661999
0.0543593,-0.0175174
0.021397,-0.0119287
-0.0189911,-0.0273773
-0.0212441,-0.0316183
0.0247451,-0.0400337
0.0833282,-0.00681563
0.0615347,0.0170311
0.0393997,0.0353192
0.0803324,0.0379665
0.183472,0.0207507
0.128993,-0.0150978
-0.0378637,-0.0213305
-0.0850115,0.0181949
-0.0427864,0.0271663
-0.00697876,-0.0189521
0.0282571,-0.0588997
-0.0106914,-0.0492934
-0.0854348,0.00314701
-0.0744309,0.0108689
-0.0722007,-0.0119919
-0.0613584,-0.00189651
-0.0233677,0.0336692
0.0162546,0.0270653
0.0538525,-0.0257971
0.0667937,-0.0813327
0.0572322,-0.0107735
0.0542282,0.0419911
-0.0124385,0.0295535
-0.064922,0.0226777
-0.0165696,0.0304865
0.0229723,0.016845
0.0545467,0.0102307
0.0737707,0.0188459
0.095521,0.0121132
0.114442,0.00984596
0.0368184,0.00802482
-0.106527,-0.0146234
-0.16408,0.00321352
-0.0365441,0.0162884
0.0655903,-0.00506905
0.0212238,-0.0127563
-0.0992657,0.00129302
-0.211508,0.00794331
-0.177514,-0.00435158
-0.00125961,-0.0111319
0.0878687,-0.0112304
0.100704,0.00855943
0.0883885,0.0135471
0.0367848,-0.0215704
-0.0145068,-0.037495
-0.160315,-0.0332129
-0.172432,-0.0289426
-0.0731357,-0.0245473
0.000270954,-0.0154239
0.0909583,0.0280339
0.184092,0.0341912
0.186574,0.00735869
0.108307,-0.0167872
0.00383329,0.0151568
-0.0543485,0.0479903
-0.0440346,0.0283681
0.0744376,-0.00358263
0.115961,-0.0317529
0.00845414,-0.0339702
-0.00640577,-0.0203983
-0.0112318,0.00220874
-0.0481342,0.0368937
0.00897528,0.0277201
0.00341277,0.00477311
-0.106841,0.00419313
-0.0883158,-0.0311987
-0.0377393,-0.0883525
-0.100708,-0.0398137
-0.136087,0.02857
-0.0842131,0.0216844
-0.0345259,0.0138616
0.00708422,-0.0419257
0.0306103,-0.0192285
0.0205244,0.0354042
-0.00238802,0.0286646
-0.00229101,0.0193661
-0.00781732,0.0192358
-0.00589164,0.0276451
0.0466045,0.0153421
0.0921068,0.0129362
0.101704,0.0277168
0.0867551,0.0299541
0.098962,0.012236
0.12432,-0.00990819
0.0699124,-0.0139435
-0.00860102,-0.0278687
-0.0713873,-0.0380167
-0.0175681,-0.0373322
0.143952,-0.0142365
0.214228,0.00203028
0.151032,0.000973013
-0.00876169,0.0060236
-0.179671,0.0217861
-0.227598,0.0307777
-0.238931,0.0278489
-0.23871,0.00861987
-0.0890362,-0.0106984
0.0377802,-0.0230901
0.129447,-0.0148392
0.114559,0.0234097
0.0412813,0.00311997
0.0176089,-0.0144429
-0.0616449,-0.0251676
-0.137372,-0.0268748
-0.105984,-0.0131067
-0.01709,0.00399988
0.0189785,0.00597026
-0.0127673,-0.00512681
-0.0125547,-0.00205349
0.0168639,-0.000633923
0.0327037,-0.00632821
0.0481202,0.0342001
0.0611189,0.0419052
0.064909,0.0169384
0.0892356,-0.0421716
0.0606801,-0.0538508
-0.016942,-0.0209007
-0.02897,-0.000968922
0.00428353,0.00973784
0.0261666,-0.0336817
0.0285878,-0.0267964
0.010522,0.0281617
-0.011629,0.0299403
-0.0127034,0.00775403
-0.0106366,0.0132512
-0.00845466,0.0166246
-0.0315788,0.00353529
-0.021823,0.00256366
0.00920296,0.0290515
0.0708347,0.06836
0.0458482,0.0496662
-0.0284183,0.00420897
-0.0421661,-0.0132903
-0.0347594,-0.020485
-0.0383922,-0.0307468
-0.0332661,-0.0285181
-0.0270284,-0.0134988
-0.0193795,-0.0231364
0.00902098,-0.0517451
0.0322313,-0.0413634
-0.0102803,-0.0157628
-0.0368027,-0.000125415
-0.00912261,0.0264661
0.0199229,0.0270703
0.0122914,0.0160109
0.00853757,0.0072592
0.0275763,-0.0190815
0.0401805,-0.0278085
0.0160351,0.0125686
-0.00226907,0.0350024
0.0122579,0.0244473
0.0363095,0.0146433
0.0528877,0.0246902
0.00514536,0.0329266
-0.0324912,0.0111989
-0.0573401,-0.0098163
-0.0677028,-0.0219329
-0.0491233,-0.0239699
-0.0208856,-0.0152062
0.000409736,-0.0026867
0.0151306,0.00438492
0.0282102,-0.000954099
0.0286322,-0.0143474
0.00688763,-0.0339497
-0.0156993,-0.0254845
-0.0129012,0.00696522
-0.00828682,0.01191
-0.00935604,0.0204644
-0.00890545,0.0191458
-0.0107019,0.0146732
-0.0171965,0.0128339
-0.0153289,0.00518407
-0.00190829,-0.0062749
0.0220088,-0.00743461
0.0402114,0.00146423
0.0125717,-0.00530292
0.0082457,-0.0131458
0.048689,-0.00644086
0.0655429,0.00384928
0.0755406,-0.00519845
0.052933,-0.00459296
-0.0298638,0.0346157
-0.0767374,0.04244
-0.0624326,0.0301304
-0.0382659,-0.0175517
-0.0337728,-0.0515411
0.00590067,-0.0377793
-0.0205506,-0.0159875
-0.014192,-0.00553708
0.114538,0.0173295
0.195603,0.0314066
0.146976,0.0129905
0.0220793,-0.00135634
-0.188677,-0.00465336
-0.252444,0.00184641
-0.124026,0.0126979
-0.0430655,-0.00648492
-0.0208417,-0.0389342
-0.00179551,-0.0531691
0.00397632,-0.0130677
-0.00467743,0.0308317
-0.0102355,0.0533905
0.00782343,0.0264012
0.0177113,-0.0126046
0.0123296,-0.0228245
-0.0189958,-0.0179905
-0.0146513,-0.0158761
0.0361589,-0.0131178
0.0544891,0.010645
0.0847192,0.0228092
0.127544,0.00409707
0.113805,-0.00898792
0.031784,-0.0253088
-0.0323794,-0.0682104
-0.0515023,-0.0117765
-0.0468964,0.0511773
0.000301702,0.038917
0.049524,0.00606221
0.0432543,-0.00391859
-0.000896853,0.037539
-0.0439946,0.0484498
-0.106576,-0.0118101
-0.127521,-0.0290584
-0.0976625,-0.0146743
-0.0292726,-0.00487745
0.00551604,0.013238
0.0250266,0.0220396
0.0438962,0.00571983
0.0373278,-0.0142633
-0.0029786,-0.0162983
-0.0219362,-6.16e-05
0.0146158,0.00912695
0.0397204,0.00738957
0.0349718,-0.0054212
0.0118259,-0.0213106
-0.0098426,-0.00279823
-0.0182147,0.0435755
0.00580276,0.0380098
0.0400193,-0.000422935
0.0430238,-0.0242432
0.002488,-0.0211224
-0.0307956,-0.0188949
-0.0124918,-0.0117537
0.00278245,-0.0132443
0.00639014,-0.00954031
0.00930503,0.00760349
0.0114843,0.00738312
0.0149865,-0.00408457
0.0195863,-0.00140498
0.0344884,0.00894416
0.0222381,0.00391932
0.0205575,-0.00685573
0.00612161,-0.00852495
-0.0563078,-0.00217529
-0.049354,-0.0022947
-0.0100295,-0.0012787
-0.0282194,0.00170106
-0.0503418,0.0050249
-0.0356014,0.0190497
-0.0146643,0.0147464
-0.000562515,0.00854649
0.0075155,0.00339211
0.0253184,-0.0200953
0.0240866,-0.0247986
0.0305587,-0.00381556
0.0670829,0.0129904
0.0810157,0.0303261
0.0272306,0.0219627
-0.0522127,0.0247566
-0.100354,-0.0122309
-0.0917406,-0.0538555
-0.0351186,-0.0496174
0.0185984,-0.0271889
0.0239961,-0.013112
0.0230062,-0.00381784
0.0405391,0.0127383
0.0809045,0.0141428
0.0855857,0.00380325
0.0661904,-0.00379606
0.0213603,-0.00261871
-0.0928038,0.0162519
-0.124564,0.0305677
-0.0455529,0.0190075
0.0154073,0.00284191
0.0221286,0.006268
-0.0332007,0.0158283
-0.111992,0.0164144
-0.110019,0.00633947
0.0172819,-0.00816716
0.104063,-0.00952763
0.137494,-0.00329582
0.140593,0.00113379
0.0542976,0.018987
-0.0404786,-0.020319
-0.0888278,-0.0281022
-0.172526,-0.0095564
-0.177507,-0.0103878
-0.0529176,0.000854568
0.0578171,0.000819732
0.0938621,0.000844749
0.0850511,0.00356098
0.0715508,0.0131472
0.0351256,0.0217824
0.0335705,0.00264124
0.0754045,-0.00855546
0.0267592,-0.00827076
-0.0533442,-0.0055793
-0.0124326,0.000250783
0.0836318,0.00891823
0.0907833,0.0130182
0.0138044,0.014786
-0.0692165,0.0146446
-0.142464,0.00193214
-0.182269,-0.00599941
-0.0928604,-0.00768535
-0.005884,-0.00781695
0.0135048,-0.0142101
0.00573464,-0.0115242
-0.0149237,-0.00519428
-0.0154492,-0.00272158
0.00323446,0.00314138
-0.0185319,-0.00165526
-0.0290868,-0.000802437
-0.0045864,-0.00422089
0.0181754,-0.00722404
0.0302579,0.00159058
0.0471357,0.0113128
0.0700989,0.00747812
0.117543,-0.00498871
0.0929756,-0.0188185
-0.00352185,-0.0162963
-0.0512986,-0.00918702
-0.0242245,-0.0104311
0.0158233,-0.00406833
0.00673736,0.00758236
0.0050016,0.020178
0.0482574,0.0338431
0.10151,0.0488598
0.0803293,0.0430979
-0.0565795,-0.0189849
-0.137892,-0.0549693
-0.10307,-0.0390911
0.00582456,-0.00936749
0.0630568,-0.00335962
0.0488575,-0.00287555
-0.0452928,0.00618553
-0.0924618,0.0106904
-0.0330125,0.00805685
0.00159966,-0.00224952
0.00724954,-0.00882453
0.0125301,-0.00379557
0.0193142,0.00610978
0.0218227,0.0116521
0.0118333,0.00157782
-0.0145094,-0.011544
-0.0340902,-0.0110653
-0.0202648,-0.00152701
0.00107056,0.00712044
0.0106033,0.010545
0.00314175,0.0109708
-0.00361069,0.0106838
0.00556508,0.0135885
0.0264745,0.00737964
0.0385604,-0.00659732
0.0292495,-0.0100051
0.0106463,-0.00761761
-0.000178562,-0.0123579
-0.0129525,-0.0180626
-0.0219236,-0.00119568
-0.013228,0.00835726
-0.0167838,0.000962552
-0.0333772,0.00417375
-0.0366082,0.00613372
-0.0183985,0.00192074
-0.00321707,0.000954617
-0.000380482,0.00219152
-0.00136079,0.00326361
0.0267689,-0.00111155
0.0815252,-0.00553617
0.08959,0.00951062
0.0647933,0.0122732
0.0410508,0.0152345
-0.0133883,0.00310477
-0.104351,-0.0225421
-0.100685,-0.0152103
-0.038473,-0.0165883
0.00237477,-0.015205
0.048077,-0.00673838
0.0765127,-0.00863897
0.0453351,-0.00377259
-0.0130264,0.0031128
-0.0946628,0.00939556
-0.143392,0.00620445
-0.0924846,0.0078358
-0.0431933,0.0176605
-0.0122157,0.0206124
0.0221586,0.0146398
0.0405307,0.0149465
0.062329,0.0332732
0.0856171,0.0359356
0.107402,0.00198629
0.13353,-0.0376116
0.0670463,-0.0401673
0.0169651,-0.0274745
0.0568642,-0.0309655
0.0616912,-0.0406377
-0.0494141,-0.0220076
-0.0888782,0.00425569
-0.0592282,0.00564725
-0.0285586,-0.000819569
-0.0622933,0.0036424
-0.135348,0.0138837
-0.153182,0.0127543
-0.0870265,0.00222513
-0.0242917,0.00137957
0.0516434,0.00912464
0.142138,0.00129732
0.195788,-0.0076563
0.203205,-0.00228079
0.0621691,0.0101651
-0.160514,0.0252315
-0.22661,0.0193614
-0.213388,0.0114302
-0.134998,0.00879532
-0.0160394,0.00760313
0.0364619,-0.0114222
0.0433606,-0.0274624
0.0420513,-0.010562
0.0300778,0.00339828
0.0167187,-0.0263813
0.048154,-0.0326262
0.114531,0.00215522
0.0600018,0.0382647
0.00203077,0.0277584
0.0487513,0.00590629
0.0826898,7.84e-05
0.0303877,0.00599452
-0.078265,0.00464211
-0.141106,0.000404289
-0.0597877,0.000542124
0.0107089,0.00315686
0.038093,0.0004859
0.0329126,-0.00481623
0.0313786,-0.00286383
0.039251,-0.000487651
0.0575589,-0.00050392
0.0901556,-0.0056003
0.0750293,-0.00921517
0.0288057,-0.0120168
-0.0280528,-0.0181863
-0.106184,0.00322537
-0.154851,0.0237763
-0.111312,0.0166635
-0.0436056,0.0039368
-0.00862565,-0.00805202
0.0135458,-0.00804164
0.0475093,6.24e-05
0.0861909,0.00452578
0.134449,0.0107809
0.139935,0.0142737
0.0856814,0.00965084
-0.00685213,0.00565
-0.12301,0.00220658
-0.130107,-0.00525164
-0.0521316,-0.00895351
-0.00610771,-0.0153141
-0.00969554,-0.0113954
-0.0556307,-0.00194187
-0.0478504,0.00200304
-0.0338343,0.00167277
-0.016935,-0.0148679
0.0094661,-0.0248647
0.0246491,-0.00281916
0.00388318,0.00878943
-0.00177797,-0.000932773
0.00778384,0.00243363
0.0108689,0.0034917
0.0409586,0.00991776
0.0522173,0.0129178
0.0240082,0.00724707
0.000438372,0.00190922
-0.0142672,-0.0012966
-0.0241724,-0.00309999
-0.028111,-0.0033622
-0.0153415,-0.00430781
0.021285,-0.00592149
0.0207113,-0.00910557
0.0308545,-0.0256369
0.0467584,-0.0249785
0.0451711,0.00730063
0.057515,0.0115658
0.01966,0.00522433
0.0039404,0.00705527
-0.00741202,0.00922134
-0.042386,0.00778591
-0.0552079,0.00564185
-0.0363957,-0.00641065
-0.00685594,-0.00365192
0.00715035,-0.000488004
0.0172559,0.00620213
0.00665633,0.00774403
-0.0320754,0.0107605
-0.0659294,0.00941197
-0.0620603,0.00282766
-0.0423848,-0.00200619
-0.027166,-0.00243129
0.0103697,-0.00219042
0.0428287,-0.003369
0.0510233,0.00256208
0.0403091,0.00821985
0.0267321,-0.000567693
0.0243585,-0.00159006
0.0244705,0.0096528
0.0128879,0.003484
-0.021946,-0.00998228
-0.0648278,-0.0116897
-0.0311288,-0.00932483
0.00211286,-0.00458409
0.016296,0.00603401
0.0193662,-0.0156272
0.00723326,-0.0501474
-0.0048851,-0.0137713
0.00631222,0.0173676
0.0156015,0.0192341
-0.0353005,0.0166122
-0.0715676,0.0133568
-0.0328108,0.00938157
-0.00868717,0.00566418
-0.00803202,-0.00546344
-0.00973913,-0.00089032
-0.0141697,0.000795617
-0.0167127,0.00290355
-0.0101515,0.00818359
0.0183661,-0.0165137
0.034393,-0.0277066
0.00972916,0.0167318
-0.00803507,0.0239235
0.0653085,0.0146642
0.137485,0.00545346
0.20265,-0.0114749
0.242114,-0.0479474
0.159395,-0.0521516
0.0178723,0.00670406
-0.104549,0.0306208
-0.208025,0.013824
-0.258532,0.00682427
-0.185728,0.00309886
-0.138335,-0.00051976
-0.0785288,-0.00666156
-0.0153907,-0.00914752
0.0117182,-0.0037191
-0.0115294,0.0108921
-0.0264805,0.0167004
0.0351146,0.0151879
0.113771,0.00599198
0.15533,0.00301381
0.142032,0.00939185
