Comp Ch 3,Comp Ch 4
0.0386577,0.001592
0.0424112,0.00802108
0.094527,-0.00124538
0.196404,-0.0131149
0.212313,-0.00220343
-0.0288813,0.00867651
-0.124122,0.0152341
0.0153226,0.0147294
0.0517599,0.0140936
-0.0177441,0.016005
-0.0138275,0.0228338
0.0355916,0.012452
0.0300931,-0.0122646
0.0117834,-0.0235981
-0.0598414,-0.0142237
-0.0827467,0.00313362
-0.00331665,0.00151991
-0.00813853,-0.0293068
-0.0752737,0.0124278
-0.0593162,0.0134862
-0.0237946,-0.00345492
0.000711612,0.0148455
-0.00513204,-0.017058
-0.0270171,-0.022049
-0.0452926,0.043634
-0.0142595,0.0496139
0.0765233,0.00535109
0.10886,-0.000444722
0.120837,-0.0310651
0.20246,-0.0652733
0.283602,-0.0564802
0.262514,-0.0222088
0.306213,-0.00603192
0.231378,-0.00235634
-0.156866,0.0270534
-0.358716,0.0397447
-0.362882,0.0336239
-0.372854,0.0277337
-0.188871,0.0301037
-0.177294,0.028918
-0.244719,0.0250526
-0.0863123,0.0265119
0.124629,0.0203295
0.31669,0.00334086
0.272961,-0.0148621
0.0769769,-0.0338932
-0.0697963,-0.0445622
-0.205506,-0.038599
-0.161559,-0.0293061
0.036374,-0.0369799
0.0384138,-0.037465
-0.0325949,-0.0246106
0.0875025,-0.00778049
0.249406,-0.0135366
0.197605,-0.00365055
0.0297064,0.0284463
-0.19243,0.0355708
-0.310157,0.0368786
-0.172454,0.0541121
-0.0694011,0.0632917
-0.0035037,0.0633545
0.0797695,0.0488097
0.0168142,-0.00207467
-0.0564007,-0.0286226
-0.0269283,-0.0300367
-0.0155255,-0.0370494
0.0779993,-0.0408498
0.127901,-0.0408345
0.0337392,-0.0318279
-0.00750985,-0.0235567
0.0262711,-0.0190028
0.0262747,-0.00689987
0.0505124,0.00315074
0.127407,0.0127273
0.119093,0.0153186
0.0415151,0.0259831
-0.0289225,0.0327611
-0.0596196,0.00557041
-0.0302927,0.00598769
0.00771682,0.000880369
0.065976,-0.0163299
0.0283493,-0.0199391
-0.116629,-0.0120121
-0.163918,0.000269925
-0.0973512,0.00616764
-0.0260751,8.32e-05
0.0116837,-0.0104684
-0.000484195,-0.0065078
-0.0133905,0.00810888
-0.0189798,0.0198109
-0.00432842,0.0300607
0.0622041,0.0400555
0.0941373,0.016249
0.0288838,0.00485244
-0.0782717,0.000907085
-0.14763,0.00550055
-0.0344462,-0.00676203
0.0575283,-0.045392
0.0315617,-0.0490223
0.00997649,-0.0352092
0.218688,-0.0317784
0.56101,-0.029351
0.698865,-0.0229149
0.457453,-0.00918178
0.0285802,0.00322066
-0.221423,0.0405729
-0.111681,0.0541463
-0.158739,0.0368412
-0.164475,0.00233352
-0.158561,-0.0251659
-0.461542,0.00671593
-0.437493,0.00215708
-0.225871,-0.0149906
-0.283077,-0.0282916
-0.353482,-0.0215356
-0.137357,0.00978658
0.064437,0.0164752
0.00270753,0.00248818
-0.209014,-0.0175787
-0.223307,0.0145423
-0.0347398,0.00852319
0.120322,-0.00186391
0.241389,-0.00311604
0.334469,0.00811904
0.198219,0.0371506
0.0760108,0.0362104
0.0286371,0.0169205
0.151522,0.00359108
0.465643,0.00256213
0.676422,5.9e-05
0.517046,-0.0238755
0.00799721,-0.0375883
-0.627778,0.00699013
-0.607566,0.0270954
-0.173986,0.00929402
0.0498177,-0.0101226
0.0660034,-0.0223058
-0.199139,-0.0219126
-0.453338,-0.0117567
-0.208214,0.00601049
-0.00516306,0.0172397
0.032858,0.0187824
0.088596,0.0124004
0.122637,0.00213245
0.087373,-0.00535019
0.0879366,0.00128892
0.0924458,0.00516463
0.00698021,0.00240599
0.0227996,-0.00964946
0.0758105,-0.0191373
0.0150135,-0.0189306
-0.0538525,-0.0109375
-0.0532835,-0.0112332
0.000760626,-0.0144547
0.0613414,-0.00322344
0.0592448,0.00704567
0.0139974,0.0135714
0.000476601,0.00269485
0.0671144,-0.00381343
0.166593,0.000267045
0.147544,0.00226919
-0.0765708,0.0077371
-0.232266,-0.000531407
-0.196874,-0.00916799
0.0296806,0.00179792
0.341073,0.00704838
0.471606,-0.000851557
0.387291,0.00191574
0.14827,0.00774881
-0.110126,0.00101092
-0.0413096,0.000802532
-0.00394137,-0.00549658
-0.303155,-0.0177539
-0.508535,0.00849795
-0.452877,0.0365341
-0.187921,0.0328732
0.0526573,0.0278982
0.12221,0.000674957
0.126776,-0.0262867
0.12522,-0.0231614
-0.0134075,-0.014654
-0.144707,-0.0113084
-0.201341,-0.00252335
-0.108247,-0.00547307
0.136001,-0.00750958
0.296606,-0.0167756
0.228382,-0.0236897
0.000294865,-0.00907886
-0.127632,-0.00388086
-0.225086,-0.00284314
-0.145643,0.0111723
0.0485836,0.0271651
0.0981031,0.0328585
0.0210105,0.0287882
-0.148517,0.0178842
-0.226029,0.0095187
-0.126455,0.000586607
-0.0704829,-0.0128156
0.00690945,-0.0184133
0.123224,-0.01035
0.140176,0.00394423
0.0675236,0.000131632
-0.00629312,-0.0191554
0.0169782,-0.0240025
0.175147,-0.00938524
0.330489,0.005998
0.275322,0.00851992
0.00424714,0.0136391
-0.115677,0.0268333
-0.104335,0.0251806
-0.0959547,0.0244673
-0.063105,0.0109356
-0.0660465,-0.00724924
-0.0539034,-0.0486765
-0.0103885,-0.021697
0.0385133,0.00135527
0.0686407,-0.00382093
0.0413389,-0.0106092
-0.052682,-0.000525796
0.0146423,-0.00126124
0.136794,-0.00667129
0.234068,-0.0233181
0.323585,-0.0166301
0.107775,0.0207551
-0.167683,0.0498175
-0.259987,0.0384242
-0.294581,0.0161268
-0.258593,-6.17e-05
-0.22235,-0.00997895
-0.152599,-0.0012129
-0.0909494,0.0143703
-0.0512032,0.00588142
-0.0404822,-0.0341908
-0.000298061,-0.0200406
0.125378,-0.00251625
0.2213,-0.0236185
0.329673,-0.0486422
0.375967,-0.0036066
0.190504,0.0177305
0.0571175,0.00760505
-0.114792,0.0189518
-0.179186,0.0338682
-0.0728046,0.0208373
0.0595625,-0.00133212
0.271847,-0.0132837
0.171378,-0.0261511
-0.26644,-0.0182441
-0.314202,0.00578518
-0.250579,0.00838401
-0.237127,-0.00291089
-0.000354475,-0.0185817
0.209979,-0.0248391
0.0706226,-0.0344867
-0.227372,-0.0272306
-0.344546,0.000420923
-0.236617,0.023261
0.0703152,0.0329443
0.125142,0.0334083
0.0808749,0.0124838
0.138889,-0.00403591
0.0896586,-0.0016349
0.0471344,-0.0026412
0.136113,-0.00759779
0.216927,-0.00859855
0.327276,-0.00535715
0.188187,0.00170421
-0.0370239,0.00245952
-0.20487,0.00237143
-0.432801,0.0065142
-0.292889,0.00452815
-0.0854671,0.00835564
0.0156178,0.0175194
0.120476,0.0124914
0.179059,-0.0214555
0.207026,-0.00138925
0.252672,0.00642808
0.201908,0.00591757
0.0900573,-0.00033449
-0.048975,-7.71e-05
-0.2257,0.000816971
-0.256675,0.00133351
-0.109207,0.0164718
0.0295223,0.0112092
0.106381,0.0134778
0.165643,0.0215882
0.186111,0.0197068
-0.0164964,-0.00552718
-0.373372,-0.0286349
-0.343281,-0.0237863
-0.182203,-0.00983412
-0.105093,0.000203975
0.000413329,0.00358441
0.0831037,-0.0119977
0.0915701,-0.0100489
0.0608617,0.00414022
0.0244561,0.00421757
0.0192419,-7.35e-05
0.00493139,-0.0109415
0.0260463,-0.0117685
0.0615109,0.00342286
0.0334136,0.00751893
0.0399685,0.0100834
0.0509524,0.0129058
0.0792336,0.00594258
0.183191,-0.00152519
0.182644,-0.00384827
0.294759,-0.00569762
0.407882,0.00330704
0.225265,-0.00177762
-0.074868,-0.0213851
-0.432425,-0.0263519
-0.522493,-0.0178254
-0.213653,-0.0129765
0.0279878,-0.00609603
0.0286372,-0.00156142
-0.00124263,-0.00150462
-0.124219,0.00262708
-0.151703,-0.00133075
0.0313712,-0.00228264
0.0267895,0.0106295
0.00770357,0.0201878
0.00720567,0.0123988
-0.00637219,0.00344746
-0.120114,0.00092245
-0.21173,-0.00204883
-0.195127,0.022337
-0.0674651,0.0369038
0.0549615,0.0135915
0.0516529,-0.0100628
0.0194967,-0.0169906
0.0312159,-0.0118579
0.0461982,-0.0204271
0.0316466,-0.0174514
0.0233134,-0.00443392
0.0755985,0.00187976
0.22688,-3.66e-05
0.46866,-0.00175027
0.620751,0.00539896
0.470715,0.0032096
-0.0161919,0.00669714
-0.560278,0.0284438
-0.638891,0.0332856
-0.272887,0.0198187
0.0966722,0.00651177
0.225432,-0.00763017
0.0767667,-0.00855433
-0.256813,0.00162296
-0.296379,0.0107451
-0.134319,0.00939949
-0.0700953,0.00386444
-0.0338315,0.00615096
-0.02394,0.0126256
-0.0375104,0.00270277
-0.0565675,-0.00530898
-0.0644283,-0.00598128
-0.0065851,-0.00717091
0.0695411,-0.0089552
0.104219,-0.00955907
0.111914,-0.0127113
0.148365,-0.0283785
0.200477,-0.024466
0.25779,-0.0198983
0.298781,-0.00148082
0.114582,-0.00669657
-0.119613,-0.00305974
-0.125211,-0.000146796
-0.0520472,-0.0116195
0.085026,-0.00843055
0.125422,-0.00744931
0.0368171,-0.0144185
-0.0672556,-0.0109917
-0.147465,0.00336119
-0.130851,-8.26e-06
-0.108147,0.00270081
-0.137052,0.0159181
-0.185685,0.0208022
0.0225158,0.0132143
0.250265,0.00458004
0.17621,0.00657644
-0.0717157,0.0007621
-0.260779,-0.0198101
-0.186093,-0.00268768
-0.115908,-0.00579564
0.00670056,-0.015282
0.162953,-0.0145365
0.187542,-0.0166455
0.0351164,-0.0147864
-0.0373817,-0.00162421
0.109799,0.00637508
0.0237769,0.00527785
-0.187509,0.00140396
-0.317653,0.00708945
-0.189075,0.00697278
0.0597242,-0.00279465
0.120506,-0.0172253
0.14863,-0.0271309
0.198698,-0.0337707
0.245419,-0.0120504
0.20215,0.0251731
0.0401554,0.0430018
-0.181408,0.034928
-0.32255,0.0238563
-0.213862,0.0176925
-0.124379,0.0180951
-0.0685607,0.0106617
-0.0313126,0.0315468
0.0132368,0.038578
0.0936697,0.0386778
0.130467,0.0204966
0.13182,-0.00102766
0.102849,0.00510892
0.061511,0.00401129
0.0498073,-0.0268652
0.0501765,-0.0111886
0.0177586,0.000266823
-0.00712975,-0.00142197
-0.00194511,-0.000714132
-0.0431846,0.00127459
-0.0705775,-0.0151879
-0.0653263,-0.00889912
-0.0549008,0.00619332
-0.00794748,0.00234227
0.0228829,-0.00612526
0.00561645,-0.0035647
-0.0757415,-0.00187432
-0.055566,0.00352347
0.0339828,-0.00417454
0.0103179,-0.02998
-0.0527246,-0.0204494
-0.0209262,-0.00372137
0.0821667,-0.00390897
0.1636,-0.00393371
0.298021,-0.00588376
0.474475,-0.00428676
0.421994,0.00265075
0.374406,0.00239815
0.0586691,-0.00697271
-0.49195,-0.00641481
-0.68435,0.00380752
-0.466414,0.00600027
-0.239315,0.00786108
-0.120666,-0.00475663
-0.00949402,-0.00469862
-0.141343,0.00529239
-0.228441,-0.0001486
-0.100408,-0.0101825
0.0967166,-0.0131593
0.3471,-0.00799155
0.390358,-0.00522555
0.233499,-0.00203909
-0.103462,0.00665863
-0.397887,0.0128635
-0.226615,-0.00060822
-0.00943583,-0.0252394
-0.00943714,-0.0252136
-0.00692968,-0.00340589
0.0379767,0.0100427
0.140708,0.0204957
0.179426,0.0234461
0.114684,0.0145361
0.103782,0.00425134
-0.019446,0.00750042
-0.0599515,0.00337246
-0.013616,-0.00187128
-0.0131198,-0.00580223
-0.0326053,-0.00658943
-0.0714987,0.000427463
-0.0442813,0.0102103
0.0121407,0.00852996
0.0734096,0.00136875
0.169924,-0.000574729
0.264136,0.0113674
0.222206,0.00561167
0.0181119,-0.0199027
-0.160044,-0.0208047
-0.15457,-0.00253552
-0.10648,0.00702088
-0.0819098,0.00119543
-0.049466,-0.00276673
-0.023536,0.00354596
-0.0515717,0.00723001
-0.119599,0.0118617
-0.122604,0.0149571
-0.110199,0.00729048
-0.0976053,-0.00511398
-0.0567122,-0.00932257
-0.0257377,-0.0128501
0.00232882,-0.0151821
0.100111,-0.0144589
0.445939,-0.0121478
0.864517,0.00203167
0.936037,0.0117411
0.518526,0.00790685
-0.445347,0.00637386
-1.05557,0.00855594
-0.706968,0.0106488
-0.277926,0.0260582
-0.0994331,0.0140792
-0.0643881,-0.013314
-0.0157749,-0.0199664
0.0466584,-0.0122156
0.0431365,0.00152676
-0.0588057,0.0292008
0.0752028,0.0249614
0.165213,-0.00276036
0.126709,-0.0194417
0.0389486,-0.0442398
-0.216292,-0.0390674
-0.310431,0.00688647
-0.109087,0.010767
0.051619,0.000295684
0.0846674,-0.0124555
0.0594079,-0.0293366
0.0119074,-0.0570386
0.0339702,-0.0292419
0.0956897,-0.0245556
0.247262,-0.00771009
0.430061,0.0014464
0.416377,0.0138031
0.154657,0.0199216
-0.174522,0.00302516
-0.395547,0.0124173
-0.326361,0.0287942
-0.283748,0.0257606
-0.210571,0.0323592
0.0655916,0.0242064
0.234071,0.0162573
0.185568,0.00701033
0.0560578,-0.00921571
0.00210181,-0.0113705
-0.0194446,0.0093644
-0.0833902,0.0128656
-0.209835,0.00607861
-0.226718,0.00502211
-0.170491,0.00214354
-0.11918,0.004455
-0.0191311,-0.0145941
0.210301,-0.027792
0.37097,-0.0135294
0.331675,-0.00275775
0.0485803,0.0005703
-0.248843,-3.73e-05
-0.192823,-0.00195607
-0.0378202,-5.59e-05
0.082685,-0.000651673
0.162381,-0.00792382
0.209692,-0.009036
0.26857,-0.00710805
0.222524,-0.0152641
-0.0817532,-0.0124049
-0.335588,0.00609597
-0.350345,0.00550634
-0.221212,-9.79e-05
0.00950274,0.00905132
0.221475,0.0150337
0.270625,0.0167505
0.130085,0.0161648
-0.192521,0.0270445
-0.269981,0.0331867
-0.0439602,0.0339407
0.0188382,0.0426431
-0.0698238,0.0377468
-0.000646038,0.0240961
0.0219509,0.013437
-0.00409665,0.0177992
0.19634,0.0293956
0.326714,0.0267107
0.121972,0.0136406
-0.175776,-0.0119288
-0.418685,-0.0368988
-0.36945,-0.0395856
-0.147694,-0.0354665
0.0378082,-0.0341639
0.222099,-0.0338815
0.250623,-0.0299373
0.17223,-0.0269699
0.0123577,-0.0227516
-0.0661525,-0.0115852
0.0139548,-0.0283923
0.0622494,-0.0363173
0.0318841,-0.0137014
0.00619063,0.00294341
0.0815045,-0.00363607
0.175481,0.00511941
0.130884,-0.0139401
-0.0948446,-0.00515501
-0.320268,-0.0105807
-0.291398,-0.0210519
-0.177102,-0.0133172
-0.0522082,-0.0120673
0.0422843,-0.00557289
0.125754,0.00540196
0.174064,0.0154128
0.052126,0.0197337
-0.0201667,0.0182041
0.00447629,0.0148093
0.0248639,0.0197499
0.066251,0.0270344
0.128961,0.0275748
0.260255,0.0177191
0.353784,0.0120663
0.209522,0.0146936
-0.173556,0.0108547
-0.349526,0.00142846
-0.491738,0.00289989
-0.376089,-0.0121232
-0.0932752,-0.0285834
0.0324532,-0.0138856
0.114921,-0.0203831
0.071708,-0.0183252
-0.0287654,-0.00490122
0.0235446,0.00466663
0.0972365,0.0080826
0.191958,0.008332
0.236767,0.0104551
0.0483422,0.0121015
-0.0672944,0.0124906
-0.146816,0.0165041
-0.106409,0.00935771
-0.0406622,-0.00579364
-0.170464,-0.016083
-0.121868,-0.0174671
0.0938643,-0.0207738
0.147465,-0.0142116
0.101121,-0.00166541
-0.0165741,-0.00690912
-0.0345233,-0.00716214
0.0406484,0.0110009
0.145543,0.00875144
0.193354,-0.0093447
0.0932724,-0.0161648
-0.027209,-0.00295139
-0.128864,0.00961295
-0.145586,0.0039847
-0.232991,0.00186069
-0.31217,0.00595495
-0.118777,-0.00201311
0.0769292,-0.0164429
0.126333,-0.0173798
0.105113,-0.00310276
0.159256,0.00793539
0.23916,0.0113954
0.187726,0.0151202
0.0484514,0.0182373
-0.124405,0.0248908
-0.204767,0.0169132
-0.144033,0.0153341
-0.0555585,0.0286911
-0.0207008,0.0345468
-0.0363827,0.0229274
-0.025362,0.0172465
0.00399972,0.0237437
0.0453168,0.0316446
0.0278068,-0.00637834
-0.00641182,-0.0475574
0.0117968,-0.0487142
0.00585146,-0.0353094
0.046112,-0.0146369
0.0694923,-0.00690759
0.0594685,-0.015903
0.00581276,-0.0241327
-0.0260807,-0.0386475
0.108552,-0.0329838
0.193482,-0.0189897
0.203335,-0.00690667
0.111344,0.0221036
-0.0566957,0.0315857
0.058682,0.0350888
-0.053897,0.0389564
-0.22166,0.0239077
-0.210875,-0.00560283
-0.223096,-0.00201261
-0.13367,0.00541087
-0.00505295,0.00264517
0.194956,0.000492404
0.26625,0.0070535
0.179021,0.0146226
0.0808169,0.0165369
-0.0678718,0.00897895
-0.169356,-0.0183804
-0.31002,-0.019535
-0.404547,0.000357538
-0.181433,-0.000864819
0.0719482,-0.00648466
0.130397,-0.00685792
0.106443,-0.00696891
-0.0166056,-0.011395
-0.187532,-0.0140341
-0.079855,-0.0122647
0.0483618,-0.013452
0.201235,-0.0166497
0.317773,-0.0170474
0.272871,-0.01642
0.105773,-0.0109906
-0.136989,-0.0048144
-0.0712441,0.00450998
0.0850793,0.00712276
0.0966421,0.00173623
0.0983479,-0.0167447
-0.0697837,-0.0022034
-0.27789,0.019343
-0.286595,0.0202832
-0.20343,0.00371607
-0.023611,0.00552971
0.0885684,-0.0249315
0.159861,0.00153504
0.23829,0.030215
0.197315,0.0352625
0.0650429,0.027306
-0.0895388,-0.0149062
-0.164528,-0.0538713
-0.127393,-0.00650688
-0.118908,0.0164943
-0.102229,0.012339
-0.0593745,0.0136184
0.00738658,0.0112408
0.0323533,0.0177438
0.00900065,0.0163824
0.0253512,0.00793988
0.0595086,-0.00247513
0.0621681,-0.000320356
0.0288596,0.0153065
0.00724159,0.0153976
-0.0255852,0.00626284
0.0915473,-4.26e-05
0.395948,-0.00184897
0.624791,0.00430202
0.581003,0.00270532
0.10421,-0.0187182
-0.326025,-0.0313662
-0.387944,-0.0249473
-0.465847,-0.00930492
-0.369432,-0.000946747
-0.261429,0.0081701
-0.107927,-0.00622314
0.0450191,-0.0138054
0.0374329,-0.00601029
-0.0713609,-0.00785225
-0.123644,-0.00973466
0.017156,-0.0124011
0.138718,-0.0119302
0.117857,-0.000329392
0.00639807,0.00623891
-0.135859,0.0199874
-0.0848394,0.0208453
0.00529948,0.00975684
-0.0141103,-0.031319
-0.1081,-0.0341234
-0.110539,0.00920947
0.0154537,0.011322
0.144239,0.017792
0.194211,0.0122019
0.192727,-0.0172819
0.168209,-0.0240693
0.0714146,-0.00348492
-0.134049,0.0114592
-0.151955,0.00516515
-0.0357276,0.0141901
0.0541632,0.0254231
0.0431624,0.0280617
-0.0104552,0.0325051
-0.0585229,0.0075097
-0.085018,0.000563585
-0.0200619,-0.0121621
0.0436033,-0.0794815
0.0260731,-0.0305561
-0.0115595,0.00753173
0.049268,0.0227202
0.129075,0.0342868
0.128118,0.0312751
-0.0135028,-0.00218549
-0.121414,-0.0326583
-0.120905,-0.0333181
-0.0980173,-0.00844135
-0.0225473,0.0125999
0.202018,0.0221178
0.334776,-0.0342687
0.156971,-0.0425867
-0.179328,-0.0108596
-0.26791,0.0242379
-0.0243226,0.0307412
0.120098,0.0176312
0.0983377,-0.000508441
0.198283,0.0164017
0.221941,0.0277336
0.0593777,0.0182094
-0.124671,0.00088698
-0.334163,-0.00494314
-0.254333,-0.0198735
-0.0233133,-0.00129123
0.127606,0.00202787
0.0485693,0.00483898
-0.103436,-0.00702705
-0.326952,-0.00474132
-0.352318,-0.0131854
-0.117779,-0.0669081
0.10313,-0.0215737
0.273235,0.0631009
0.331608,-0.00740333
0.197728,-0.0493352
-0.065687,0.00528269
-0.26366,0.0593692
-0.282198,0.0424349
-0.140669,0.0125733
0.0750436,0.00365458
0.121176,-0.00479005
0.100637,-0.0198177
0.0513501,-0.026372
-0.0158859,-0.00823701
0.0854006,0.0224018
0.22461,0.0298279
0.345136,0.0353952
0.190131,0.0140016
-0.0322128,-0.00200525
-0.147453,-0.013626
-0.2843,-0.0291804
-0.183823,0.00150147
-0.097513,0.0224856
-0.112881,0.0147085
-0.0329379,0.0180801
0.0227794,-0.0350252
0.0414862,-0.113133
0.0368128,-0.0214802
0.0841541,0.0265415
0.0841053,-0.0128418
0.131553,-0.0201374
0.141219,-0.0396831
0.0317749,-0.0240376
-0.0512716,-0.0132849
-0.172636,-0.0268608
-0.224379,-0.00737546
-0.08953,0.10252
0.0109427,0.154507
-0.0267288,0.0598619
-0.0808794,-0.0565132
-0.0628606,-0.0358156
0.000942822,-0.0247931
0.0543252,-0.0793315
0.0683739,-0.0540555
0.0558968,0.00930007
0.149857,-0.00995066
0.37201,-0.0298804
0.587947,0.0814292
0.601175,0.0572875
0.137431,-0.00415514
-0.373541,-0.0429605
-0.537382,0.0426959
-0.267852,0.0892934
0.140723,0.067255
-0.0213002,0.0727596
-0.172021,0.0537335
-0.279773,-0.0015218
-0.349056,-0.0325341
-0.26895,-0.036579
-0.0846227,0.0154647
0.085973,0.0473023
0.0959708,-0.0696283
0.063185,-0.118995
-0.0170493,-0.0548543
-0.191019,0.0195862
-0.174893,0.00848882
-0.0343951,-0.0521159
0.0100236,-0.0153093
0.0531428,0.00579957
0.06833,-0.000978492
0.0758686,0.00175601
0.121803,-0.00393666
0.15767,-0.0158243
0.148046,-0.0464332
0.118566,-0.0705205
0.0934077,0.0383429
0.0851627,0.0568391
0.0791515,0.0319984
0.0633128,0.0232576
0.00275094,0.0229681
-0.0725479,0.0180806
-0.0437033,0.0161184
-0.0824553,0.0150959
-0.0377271,0.0151651
0.161934,0.0332101
0.0925349,0.00517976
-0.221848,-0.0286244
-0.344327,-0.0461003
-0.205288,-0.0257256
-0.00188157,-0.0191643
0.106453,-0.0272684
0.159303,-0.0130531
0.160615,-0.0139616
0.0599876,-0.0185409
0.00470548,0.00844823
0.411125,0.0334337
0.948412,0.00839346
0.832315,-0.0140702
0.0419061,0.00148981
-1.00144,-0.0132462
-1.25012,-0.161394
-0.697301,-0.114336
-0.223901,0.0460409
0.0181239,0.0640269
0.30195,0.01646
0.537949,0.0128351
0.514428,0.077511
0.177091,0.0647083
-0.358053,0.0501287
-0.624057,0.0558353
-0.530005,0.0586455
-0.219547,0.0309878
0.0981112,-0.0560225
0.216788,-0.0458682
0.307794,0.0127864
0.127882,0.00853448
-0.0134963,-0.0740979
0.128341,-0.0607738
0.100487,0.00946382
0.0614333,0.0421917
-0.0484453,0.0123964
-0.0959184,0.000507015
0.089493,0.015429
0.028886,0.0205188
-0.186586,0.0354805
-0.201969,0.0332742
-0.0482741,-0.0291963
0.125039,-0.0931734
0.167653,-0.0739712
0.175057,0.010133
0.119262,0.0303398
0.197001,0.043809
0.290449,0.0609038
0.084762,0.0213444
-0.107879,-0.00114643
0.0110356,0.000659962
0.2684,-0.0326227
0.331242,-0.0468753
-0.00676364,-0.0046356
-0.592356,0.0267513
-0.716227,0.0357676
-0.309219,-0.00382078
-0.0636424,-0.0151671
0.159546,0.0010015
0.380699,0.0188716
0.386045,0.042251
0.294207,-0.00389893
-0.149116,-0.0530496
-0.555612,-0.026838
-0.474582,-0.0566056
-0.306625,-0.0666832
-0.118699,0.0152086
-0.00242313,0.054009
0.108886,0.0460651
0.21065,-0.00355938
0.210512,-0.0625966
0.186833,-0.0209721
0.132716,-0.0162098
0.106386,-0.090548
0.332602,-0.0694043
0.492943,0.0974204
0.262402,0.153387
-0.153695,0.128861
-0.520904,0.0925234
-0.55108,0.0332162
-0.307213,-0.0104429
-0.0970868,-0.100568
0.0587351,-0.114584
0.124038,-0.0424825
0.124587,-0.00905539
0.0664822,-0.0342019
0.126473,-0.0582649
0.0406405,0.00661752
0.159327,-0.029191
0.133559,-0.0199568
-0.0719911,0.0560205
-0.18776,0.0331011
-0.120654,0.0112224
-0.134759,0.0579105
-0.21949,0.0603539
-0.135611,0.0420458
-0.0295169,0.0662008
0.0207923,0.058265
0.00840538,0.0218932
0.0778794,-0.0228844
0.39873,-0.0534369
0.617196,-0.105071
0.468744,-0.180682
-0.0597114,-0.133685
-0.591898,-0.00506263
-0.523191,0.0544946
0.0083627,0.041114
0.474191,0.0140947
0.610155,-0.00588362
0.340705,0.014971
-0.338039,0.0591713
-0.663976,0.0355936
-0.564383,-0.000161077
-0.245912,-0.0266126
0.185967,-0.0231239
0.383273,-0.00551029
0.240358,-0.0456373
0.0253612,-0.034652
-0.185746,0.00796196
-0.395309,-0.00457953
-0.287247,-0.00863533
0.0514703,0.013628
0.241379,0.0461127
0.324665,0.0623625
0.229251,0.0735976
-0.140882,0.0854646
-0.189204,0.107889
-0.23996,0.11432
-0.517567,0.0885045
-0.454235,0.0766205
-0.134704,0.0728133
0.112725,0.0560731
0.223117,0.0179117
0.213684,-0.0822879
0.225435,-0.198566
0.371717,-0.146356
0.651271,-0.109875
0.74942,-0.0552458
0.57549,0.00456696
-0.102421,-0.0754998
-0.452863,-0.0667383
0.18335,-0.00862173
0.766,-0.020435
0.343324,-0.0282798
-0.783901,0.0229979
-1.4984,0.0450332
-1.13707,0.0294312
-0.319378,0.0316372
0.365553,0.032978
0.487954,0.0120736
0.261308,0.00336409
-0.199607,-0.00524464
-0.533261,0.00743567
-0.296117,-0.00541794
-0.000621284,-0.0267783
0.243021,-0.0192373
0.348764,0.0430883
0.260564,0.0142846
0.237366,-0.0605024
0.145045,0.00454468
-0.0658317,0.0484007
-0.139602,0.0194623
-0.0117783,0.0637717
-0.0076225,0.0239602
-0.0993075,0.000441091
-0.0406849,-0.016673
0.12503,-0.0323984
0.203061,-0.0270066
0.154671,0.014578
-0.0510825,0.0295094
-0.26285,0.00530831
-0.174609,0.00558923
0.0937438,0.00187108
0.294316,-0.0346537
0.337442,-0.0557472
0.162932,-0.0249476
-0.107788,-0.0112299
-0.268236,-0.0886074
-0.188758,-0.104084
-0.160918,-0.0676624
-0.0809511,0.00208833
0.263081,0.0793871
0.330756,0.0633614
-0.0696932,-0.0471297
-0.379022,-0.0859946
-0.37801,0.0371411
-0.118955,0.0921149
0.146839,0.0681646
0.339398,0.00960049
0.482399,-0.0761546
0.717374,-0.0925105
0.676876,-0.128047
0.320375,-0.069053
-0.197325,0.0127797
-0.600072,0.0640477
-0.540952,0.0960672
-0.520543,0.0877631
-0.60405,0.0694212
-0.438796,0.053594
-0.330042,0.042176
-0.164163,0.0390167
0.0230928,0.0282472
0.0801577,0.0386719
-0.0492482,0.0497494
-0.16806,0.00479609
-0.0805798,-0.0309878
0.033655,-0.013256
0.135648,-0.0633714
0.471167,-0.131522
1.00447,-0.0645463
1.00912,-0.0270766
0.742103,-0.0427961
0.454466,-0.0275555
0.0065695,0.0451878
-0.201015,0.0871793
-0.294544,0.102957
-0.872206,0.125116
-0.952138,0.0389698
-0.531491,-0.0524864
-0.243959,-0.00851928
-0.187872,0.0298296
-0.15525,0.0181432
-0.128583,-0.00250602
-0.138084,-0.0392196
-0.15505,-0.0261881
-0.00827602,0.0134111
0.149012,0.0434874
0.380533,-0.00540396
0.614374,-0.089131
0.632003,-0.0438497
0.790468,-0.0397132
1.11064,-0.0743106
0.995194,-0.0729642
0.630473,-0.0354077
-0.477639,0.104696
-1.52858,0.141514
-1.38714,0.0641138
-0.660197,-0.0222796
-0.25624,-0.00967628
-0.147559,0.0319356
-0.141933,0.0204628
-0.118612,-0.00390972
-0.192332,-0.0124148
-0.245277,-0.0111003
-0.155998,-0.00665257
0.0194491,-0.00993844
0.109747,-0.00264643
0.102767,0.00899762
0.0998488,-6.21e-05
0.122059,0.00023116
0.212352,-0.0186179
0.5023,-0.0523233
0.928618,0.0380846
0.864317,0.113208
0.410106,0.0883396
-0.415718,0.0291603
-0.805644,-0.0214307
-0.447879,-0.0319402
-0.385595,-0.090976
-0.343434,-0.0738986
-0.15323,0.000280968
0.00395325,-0.00507206
0.140789,0.00661564
0.00832952,0.00378945
-0.245431,-0.0149668
-0.114569,-0.0244337
0.0404702,-0.0132554
0.121673,-0.0137937
0.207135,0.00467252
0.0491051,0.0376404
-0.0869375,0.0571834
0.0800922,0.0586077
0.412293,0.0146904
0.774521,-0.000895737
0.743172,0.00630209
0.675619,-0.0124365
0.604741,-0.0636663
0.259347,-0.165864
-0.127022,-0.158244
-1.05637,-0.0377204
-1.47331,-0.0436532
-0.821562,-0.0358156
-0.0397549,0.027181
0.288557,0.0813405
0.0308304,0.0881111
-0.211012,0.0387472
-0.0735963,0.0565758
-0.0916082,0.0298263
-0.374355,0.0203243
-0.320104,0.0301311
-0.146397,0.0238516
-0.109496,0.0173524
-0.115266,-0.0017227
-0.0879506,-0.0080056
0.0507135,0.0116179
0.282887,0.0222996
0.557979,0.018902
1.18542,0.0119295
1.76538,-0.0089824
1.39751,-0.0383335
0.605383,-0.0281806
-0.799622,-0.0643613
-1.67381,-0.0337207
-1.05246,0.0451984
-0.469239,0.0338666
-0.216241,-0.0149423
-0.178407,-0.0400192
-0.296753,-0.0191357
-0.341674,0.00406969
-0.340959,0.0288738
-0.28786,0.0220831
-0.0756016,-0.00425892
0.152006,-0.0187123
0.293159,-0.00361615
0.317052,-0.0104993
0.205779,-0.0422812
0.168161,-0.0455555
0.135299,0.0384672
0.10236,0.0519339
0.203174,-0.030931
0.0791359,-0.028798
-0.0512784,0.0377864
0.075794,0.0299081
0.195416,0.0155531
0.188097,0.0115149
0.351737,0.00237678
0.487354,0.00022554
0.309756,-0.0178639
-0.28051,-0.0285564
-0.85151,0.0047273
-0.536788,0.0325395
0.0711504,0.0348981
0.173737,0.0196217
0.0984182,-0.0180419
0.0238255,-0.0521326
-0.0754904,-0.0230197
-0.127564,0.0509931
-0.160045,0.0305377
-0.132601,-0.0151956
-0.0494165,-0.0250463
0.0619749,-0.0323197
0.0244636,-0.0195809
-0.175612,0.00803277
-0.309693,0.0303433
-0.181008,0.0257681
0.0776562,0.0158735
0.196944,-0.00288717
0.132092,-0.0105834
0.0312112,-0.0279128
0.0473397,-0.0223457
0.236378,0.0113688
0.4956,0.0457056
0.470001,0.00766369
0.172458,-0.105408
-0.17741,-0.0723324
-0.335099,0.0527055
-0.0822276,0.0757649
0.0513879,0.0459078
-0.0698152,0.0122845
-0.262207,-0.0054706
-0.34221,0.00938096
-0.228636,0.0106421
0.0366254,0.0060483
0.194586,0.0234847
0.195183,0.0159478
0.0734622,0.000572427
-0.0340266,-0.0367117
0.0889302,-0.151669
0.159039,-0.113532
0.224934,0.0826885
0.117333,0.0905039
-0.181274,0.0501015
-0.137303,0.0445937
0.00397313,0.0331264
0.0087614,-0.00274435
-0.13707,-0.0334143
-0.219934,-0.0384155
-0.185482,-0.0239699
-0.241239,-0.0455029
-0.0897083,-0.0491334
0.0597004,0.00765658
-0.0650069,0.025124
-0.136322,-0.0207521
-0.00429812,0.00754933
0.240993,0.0681421
0.327207,0.0288127
0.103746,0.00703612
-0.164594,0.0254607
-0.124218,0.0573912
0.172042,0.069498
0.217732,0.00788773
-0.0354263,-0.051273
-0.087534,-0.0389805
0.256377,-0.0200194
0.503064,-0.00483883
0.374406,-0.00472388
-0.0916087,-0.0189316
-0.39944,-0.0160146
-0.250037,-0.0312268
-0.0137192,-0.073382
-0.076268,-0.0340061
0.00209895,0.0107347
0.00977045,0.0190071
-0.299958,0.00889007
-0.310418,-0.0269422
-0.113745,-0.029228
0.109497,-0.0188644
0.29444,-0.0360333
0.238468,-0.00463332
0.0255396,0.0619311
-0.263058,0.0641117
-0.480231,0.0563254
-0.331595,0.0519384
-0.0670439,0.0222398
0.0333041,-0.0184095
0.0448257,-0.0270532
0.158131,-0.00435836
0.317715,0.0426073
0.451945,0.0418082
0.427252,0.0273695
0.113881,0.0419806
-0.255842,0.00186621
-0.301176,-0.0245819
-0.102921,-0.0304516
0.0140363,-0.0692635
0.00169245,-0.0647743
-0.0537867,-0.0310942
0.0547839,-0.0063974
0.231561,0.00240784
0.244633,-0.0211168
0.0982247,-0.0159748
-0.172481,0.00239269
-0.206316,0.00875494
-0.100381,0.0476946
-0.0538508,0.0497135
-0.036995,0.0229333
-0.0133409,0.00361933
-0.0428495,-0.0121238
-0.0325065,-0.0155358
0.00750833,-0.0285007
0.0182884,-0.00842056
0.0101227,0.0373132
-0.0242421,0.00909989
0.0179821,-0.0287577
0.12472,-0.0192155
0.310549,-0.0143492
0.226406,-0.0696278
0.00574201,-0.0398767
-0.238923,0.0372593
-0.276532,0.0547439
-0.0210067,0.0315356
0.0924867,0.0158048
0.0261121,-0.00500585
-0.110954,-0.00858612
-0.10057,-0.0425734
-0.0633066,-0.0830989
0.0244396,-0.0146669
0.123866,0.0546237
0.177306,0.0542409
0.22924,0.0156982
0.138414,-0.0058709
-0.146804,0.0283614
-0.320086,0.0546904
-0.30205,0.0262683
-0.0683414,0.00318225
0.073178,0.0143924
-0.0101912,0.0073517
-0.0811365,-0.0384441
-0.09607,-0.0555048
-0.0668357,-0.00220781
0.00885281,0.0128939
0.130435,0.0441167
0.135903,0.0566429
-0.00616257,-0.0120224
-0.0356776,-0.0215568
0.0427276,-0.0470125
0.155465,-0.0835738
0.268435,-0.0242884
0.237198,-0.00116038
0.0130922,0.00894251
-0.195931,-0.00302985
-0.230324,0.00261325
-0.144541,-0.0229679
-0.182264,0.0108753
-0.137765,0.0545069
-0.0647657,0.0553953
-0.0347739,0.0484505
0.0656474,0.0599763
0.101938,0.0230721
0.0766449,-0.0391429
0.290718,-0.0322168
0.527739,-0.0347767
0.448196,-0.0498453
0.0478974,-0.0248654
-0.434182,-0.0740826
-0.549593,-0.106065
-0.321378,0.0190608
-0.13823,0.0631834
-0.0804674,0.025315
-0.0784322,0.00212181
0.042734,0.00384474
0.226068,0.0435006
0.274596,0.049415
0.142315,0.0226256
0.0451428,0.0209456
-0.000336394,0.0256008
-0.0946906,0.0218468
-0.121779,0.00800793
-0.124672,-0.0177031
-0.149304,-0.00558021
0.00688266,0.0179718
0.153433,-0.000566718
0.110877,-0.0262577
-0.12021,-0.00580799
-0.227134,0.0181398
-0.129065,-0.0231993
0.0870671,-0.0726646
0.313759,-0.020586
0.35173,0.0188791
0.201573,-0.00532855
0.0713697,-0.0594624
0.00544153,-0.0111263
0.0106008,0.0578231
0.106071,-0.0198227
0.0190011,-0.0369469
-0.259517,0.00601323
-0.585829,0.0176116
-0.555645,0.0312075
-0.199174,0.0314825
0.0619691,0.0082665
0.208849,0.0122942
0.398785,0.010762
0.683593,-0.0043081
0.673307,-0.0111102
0.23948,-0.0199966
-0.311302,-0.0794256
-0.620871,-0.0557643
-0.408535,-0.037352
-0.0909477,-0.0282861
0.15462,0.0651885
0.212861,0.0592924
0.0618648,0.0241584
-0.225857,-0.00428827
-0.441609,-0.00718734
-0.169244,0.0222818
0.256807,0.014234
0.242546,0.00492663
0.132256,0.0420308
-0.0809223,-0.00401252
-0.409174,-0.0208284
-0.413835,0.0222853
-0.181226,0.0613332
0.191625,0.032435
0.451009,-0.0120159
0.339349,0.0214391
0.223088,0.0434181
0.0605866,-0.0363509
-0.152769,-0.0857132
-0.114237,-0.0515954
-0.0126334,-0.041205
-0.040364,-0.0289514
-0.145808,0.0090076
-0.156805,0.0393887
-0.056921,0.031896
-0.0190799,0.00736538
-0.0449363,-0.00589633
0.0319932,0.0013224
0.161577,0.013202
0.242071,0.00142566
0.228441,-0.00617875
0.118102,-0.0103311
-0.0017497,-0.0241166
-0.133327,-0.0187017
-0.224705,-0.0521422
-0.206137,-0.0160387
-0.119543,0.0863391
0.0326299,0.084554
0.206142,0.0355549
0.372612,-0.0145772
0.381059,-0.0405158
0.214349,-0.0242146
-0.0846959,-0.00208817
-0.177819,0.00872727
-0.132841,-0.0205554
-0.109908,-0.0406577
-0.131231,-0.0712828
-0.154118,-0.0335525
-0.0113457,0.0373475
-0.0415072,0.0407255
-0.119894,0.0404959
-0.0906828,0.0506132
-0.162145,0.0518057
-0.211336,0.0363634
-0.105415,0.0280295
0.0393546,0.0213203
0.121735,0.00185011
0.168892,-0.0178135
0.223816,-0.0200742
0.186213,-0.0163049
0.00825826,-0.0503237
-0.161641,-0.0851087
-0.0996761,-0.0865089
0.144782,-0.0237034
0.343852,-0.0176129
0.299107,-0.0153802
0.107338,0.0291702
-0.21873,0.0621462
-0.371454,0.0611144
-0.147245,0.0168167
0.000835305,-0.0135424
0.01786,-0.00711408
-0.00756835,0.0216507
-0.104271,0.00864265
-0.142857,-0.0195607
-0.108958,-0.0220973
-0.124015,0.016066
-0.0704031,0.0408611
0.218917,-0.00740492
0.579589,-0.127695
0.620157,-0.059193
0.263244,0.0556676
-0.181751,0.0564992
-0.536928,0.0362981
-0.461611,0.0323643
-0.241571,0.0247321
-0.133994,0.00495552
-0.0665423,-0.0105977
0.100979,-0.00754222
0.305442,0.00587984
0.291225,0.0193428
0.111976,0.0141188
-0.127864,-0.0121854
-0.245642,-0.0235876
-0.208453,0.00517815
-0.11414,0.0395063
-0.0565542,0.0247884
-0.0271159,0.00395901
0.00961197,-0.0120187
0.0817654,-0.021073
0.126651,-0.0257816
0.10182,-0.0433652
0.0374115,-0.041151
-0.0095319,-0.00181855
-0.0297596,-0.0566575
-0.020227,-0.00380814
0.0834532,0.0324027
0.179609,-0.000108462
0.16598,-0.00507728
0.1081,0.0027277
0.0382083,-0.00764684
-0.0235452,0.00852116
-0.0735301,0.0198686
-0.175778,0.0152309
-0.247148,0.0254236
-0.0687656,0.0254723
0.227475,0.0174334
0.381953,0.0107796
0.283706,0.0113776
0.0568807,0.0211039
-0.387108,0.0106644
-0.599446,-0.0397552
-0.188323,-0.0506028
0.227421,0.0270279
0.297486,0.0443876
0.175199,-0.0249011
-0.0566093,-0.0917281
-0.107761,-0.081428
0.090367,-0.00953445
0.10336,0.0287336
-0.00780529,0.035171
-0.172832,0.0341882
-0.372411,0.0355081
-0.158393,0.0354035
0.0753631,0.0127269
0.03566,0.00530175
-0.0937414,0.00527631
-0.146045,0.00634362
-0.0558347,0.0110802
0.00766855,0.0152631
-0.00340126,0.0324309
-0.036967,0.0408892
0.00695957,0.0127829
0.102061,-0.0006683
0.241566,-0.00494443
0.201098,-0.021834
0.118781,-0.0686013
0.165911,-0.0785037
0.170599,-0.0671041
0.102254,-0.117587
0.139312,-0.18068
0.134983,-0.00173519
-0.0614708,0.119496
-0.0656443,0.100188
0.0527255,0.0637201
-0.0734657,0.0467883
-0.291733,0.0459322
-0.511105,0.0287585
-0.395524,0.00224621
0.0872176,0.00199573
0.422829,0.00279418
0.383968,-0.0112186
0.088,0.00798552
-0.216348,0.0448609
-0.273801,0.00924702
-0.187589,-0.0486497
-0.114544,-0.0186892
-0.040054,-0.0052312
0.00148753,-0.0249997
-0.0190448,-0.0151544
0.0130435,-0.00708418
0.049933,-0.00794577
0.0638313,0.00847859
0.10307,0.0108794
0.0524883,-0.000310948
-0.0180171,0.00325934
-0.0441377,-0.00398218
-0.10247,-0.030285
0.0319981,0.00208721
0.297854,0.0320279
0.383103,0.0186608
0.24291,0.0186505
-0.163744,0.0406498
-0.35403,0.0434839
-0.152017,-0.0033859
0.0352376,-0.0251217
0.174847,-0.0164886
0.22564,-0.0112539
0.0734204,-0.00738676
-0.159935,0.00526554
-0.277384,-0.0175848
-0.151744,-0.0147357
0.0744436,-0.00355968
0.120628,-0.0099539
-0.0161014,-0.01111
-0.201611,-0.0333999
-0.217088,-0.0497697
-0.104943,0.0233169
0.00795109,0.0583863
0.139607,0.00397989
0.205218,-0.035627
0.15332,-0.0270607
0.0849947,0.0104017
0.0309329,0.00920118
0.0108361,0.0207309
-0.0561146,0.0143403
-0.131531,0.0138703
-0.154037,-0.00132384
-0.151367,-0.012772
-0.0849312,0.0052614
0.028663,0.0300327
0.0956572,0.0195127
0.0726535,-0.0410974
0.0305829,-0.0204456
0.0693573,0.0252427
0.253621,0.014833
0.540976,0.0021842
0.681829,0.0122114
0.541053,-0.0068951
0.0489328,-0.0735869
-0.358142,-0.126378
-0.427138,-0.0471045
-0.657024,0.0457512
-0.738921,0.0607473
-0.435338,0.0491452
-0.152005,0.0355756
-0.0335999,-0.0133071
0.0044599,-0.00142143
-0.00272981,0.0313113
-0.0140287,0.030356
0.0177988,0.026758
0.134552,0.0283862
0.241883,0.0346358
0.192952,0.0272317
0.0258029,-0.00149033
-0.093516,-0.0118845
-0.0314523,0.00291669
0.159871,-0.0214769
0.188314,-0.05589
0.00637505,-0.0393595
-0.0836617,0.0159952
-0.00479001,0.024977
0.0695648,0.0116686
0.0804441,-0.0109375
0.049445,-0.0206955
-0.0107038,-0.0293818
-0.125428,-0.0201822
-0.161951,-0.00361594
-0.0559476,-0.00270821
0.06966,0.0215407
0.139991,0.0395838
0.153056,0.0188406
0.183122,-0.013799
0.180985,-0.035076
0.125837,-0.0559256
0.0649083,0.0152708
-0.0736953,0.0528882
-0.337792,0.0351862
-0.313463,0.002039
-0.0767686,-0.000605937
-0.0238197,0.00725542
-0.0423514,-0.0453633
0.019713,-0.125653
0.168411,-0.0853265
0.226934,-0.019569
0.135856,0.0201801
0.0333869,0.0712914
0.0119266,0.0743207
0.0423333,0.0446546
0.0418994,0.00200434
-0.220081,-0.0130819
-0.374171,0.00628266
-0.182199,0.01966
-0.0447488,0.0346721
-0.0430544,0.0214401
-0.0248674,0.00281878
0.0550309,-0.00534766
0.162293,-0.0298399
0.240138,-0.0859963
0.242988,-0.0937446
0.200202,0.025457
0.044103,0.0918669
-0.201726,0.0567276
-0.32001,0.0351222
-0.248955,0.0192645
-0.0959946,-0.0202672
0.066983,-0.0504379
0.018252,-0.0633352
-0.0572458,0.0102359
0.00150625,0.0445
0.0367094,0.0245124
0.0289678,0.0213343
-0.00897466,0.0177829
-0.0225961,0.00385626
0.0829883,-0.0119482
0.191113,-0.0226908
0.245396,-0.0136586
0.134161,0.0127561
-0.00387206,0.00926454
-0.186193,0.0230017
-0.311952,0.0182737
-0.229603,-0.0458754
-0.153244,-0.0569154
0.0423668,-0.0120373
0.217721,0.00987783
0.322382,-0.0223002
0.276522,-0.0448783
0.0346144,-0.0341898
-0.0994814,0.0331886
-0.0962509,0.0342362
-0.0336958,0.0122668
0.140432,0.0119112
0.239799,-0.00244452
0.136894,-0.0628157
-0.0899844,-0.0242604
-0.348059,0.0240526
-0.408665,0.0206738
-0.323506,0.0435767
-0.211084,0.0427994
-0.014709,0.0357901
0.16387,0.0195324
0.171371,-0.0157928
0.081939,-0.0165674
-0.0016382,-0.000939891
-0.0067346,-0.0181247
0.0539331,-0.0200188
0.0881828,-0.00931243
0.0819656,-0.0058841
0.0874495,0.0171711
0.127582,0.0274054
0.2174,0.022751
0.242255,0.0151629
0.118089,0.0178787
-0.0826004,0.0376738
-0.233084,0.0471202
-0.13178,0.0224005
0.0171513,-0.0176596
-0.0729534,-0.0315302
-0.201694,-0.0357391
-0.206636,-0.040507
-0.0790637,-0.0414133
-0.016017,-0.0135234
0.05592,-0.0120725
0.145829,-0.034812
0.149348,-0.0466687
0.0526319,-0.037583
-0.0138773,-0.041465
-0.145192,-0.0330518
-0.209431,-0.0108378
-0.0189432,-0.00769906
0.0760098,0.0575704
0.0772578,0.0657685
0.240866,0.0229453
0.32855,0.0135757
0.261039,0.0220455
-0.00306072,0.00724718
-0.41707,0.00432634
-0.393114,0.0353978
-0.0967934,0.0451953
0.0483584,0.0192767
0.116273,-0.031713
0.117791,-0.0140764
-0.0203222,-0.0102725
-0.178031,-0.028848
-0.241505,-0.0167469
-0.172938,0.0143869
-0.0286431,0.0122132
0.084643,-0.00646763
0.159336,-0.0112429
0.196372,-0.00293632
0.135833,-0.00331787
0.0436739,-0.0120002
-0.0472005,-0.0236364
-0.0653345,0.00102697
0.0818589,0.0144873
0.301699,0.026267
0.379865,0.0304902
0.27366,0.0221196
-0.0611821,0.000329235
-0.467877,0.00690768
-0.516393,0.0250559
-0.314166,0.0122902
-0.105595,-0.0224146
0.000673213,-0.0182454
0.0197591,-0.00252603
0.00787611,-0.00263334
0.0204654,-0.00209746
0.0555095,-0.00641875
0.101851,0.000413556
0.116088,0.0116677
0.0949807,0.0114832
0.086243,-0.0134004
0.0278804,-0.0397366
-0.0253792,-0.0272877
0.0604147,0.0170898
0.203716,0.0185809
0.171968,0.00600721
-0.00131394,-0.00373105
-0.195811,-0.00411623
-0.237108,0.0182401
-0.0336913,0.0162962
0.168881,-0.0224862
0.0999222,-0.0312082
-0.131786,-0.0250926
-0.203592,-0.00274998
-0.0783601,-0.00169183
0.00355909,-0.0040529
0.0200865,0.00451853
-0.00302626,-0.00833755
-0.0551096,0.0102944
-0.0476175,0.0188943
-0.0235909,0.0111339
0.0381902,0.0130557
0.258184,0.0171751
0.354745,0.0184162
0.218651,0.0150153
-0.158838,0.00119636
-0.41414,-0.0240355
-0.217227,-0.0559768
-0.0361746,-0.0242457
0.111778,0.014437
0.17277,-0.00476179
0.0804249,-0.0243608
-0.0746927,0.00502392
-0.190083,0.0314492
0.0220251,0.0388478
0.0556712,0.0128559
0.176052,0.00154629
0.162767,0.0216505
0.140598,-0.00910095
0.135749,-0.0203263
-0.101161,0.0169855
-0.208008,0.0347384
-0.22358,0.0290682
-0.102131,0.0439112
0.0936646,0.0111095
0.0322699,-0.0474877
-0.0964776,-0.0434648
-0.178343,-0.0192268
-0.116548,0.00433074
0.0474347,0.00253635
0.0775616,-0.0478511
0.0362146,-0.0425054
-0.00723478,0.0104067
-0.0858044,-0.054214
-0.124261,-0.0943331
-0.0108055,-0.0518043
0.0939725,0.00528595
0.0811358,0.0483048
-0.00245911,0.0514337
-0.0185361,0.0523952
-0.048219,0.0234888
-0.0129544,-1.53e-05
0.0547313,-0.0174976
0.106978,-0.00842714
0.169251,0.04069
0.21131,0.0541068
0.149588,0.0386177
0.102589,0.0276234
0.0407177,0.00967718
0.0195754,-0.0101311
0.0923958,-0.0336137
0.0311788,-0.0532958
-0.0616304,0.0287872
-0.146052,0.0289961
-0.267786,-0.0317686
-0.410717,-0.055705
-0.345303,-0.0448774
-0.152628,-0.000841481
-0.0338169,0.0187658
0.067772,0.0152193
0.15263,0.0113085
0.169851,0.0186243
0.0908859,0.0241949
-0.0336443,0.0230323
-0.0104731,0.0178825
0.120144,0.0149057
0.262416,0.017872
0.348745,0.0244417
0.18023,0.0315907
-0.034019,0.0124123
-0.0798259,-0.0240732
-0.0966332,-0.0586285
-0.189084,-0.0474394
-0.0819453,-0.0152629
0.101858,-0.0349263
0.152048,-0.0611064
0.155966,0.00618503
-0.0270275,0.0295087
-0.256409,0.0162754
-0.313417,0.0595432
-0.266169,0.03097
-0.203604,-0.0422798
-0.159043,-0.0456783
-0.0723716,0.00975672
0.0555234,0.0305706
0.179065,0.0155414
0.198953,0.0207531
0.146188,0.0289906
-0.0175361,-0.0137215
-0.0526555,-0.101139
0.0727404,-0.094411
0.267438,0.0069689
0.32202,0.0313573
0.270884,0.010439
0.252985,0.00813485
0.203489,0.00143692
-0.063908,0.00736598
-0.43025,0.024634
-0.563703,0.0272984
-0.348869,0.0277496
-0.0910121,0.0324494
-0.0363145,0.0228884
0.00635238,0.0142713
0.0723536,0.0192906
0.0835834,0.0399652
0.028273,0.00252075
-0.0390135,-0.0129358
0.0105322,-0.0281173
0.058205,-0.060204
0.0276151,-0.069863
-0.0197756,-0.0435641
0.0238811,0.0222036
-0.00496855,0.0485148
-0.169991,-0.01415
-0.127664,-0.0382894
0.0689948,-0.0174463
0.163896,0.027423
0.163479,0.036706
0.0765879,0.0268163
0.151448,0.0112627
0.470246,0.011473
0.511751,0.0162319
0.18356,-0.00614443
-0.456275,-0.00138195
-0.64517,0.015751
-0.352113,-0.0136391
-0.233446,-0.0718567
-0.058399,-0.062019
0.090985,-0.00641091
0.135213,0.0399988
0.108767,0.0319795
-0.0365312,-0.000802232
-0.0900872,-0.00484551
-0.0371285,-0.0296469
-0.0414054,-0.0204415
-0.116413,0.0207423
-0.18961,0.0332365
-0.106731,0.0268911
0.0498677,0.025591
0.238151,0.0221629
0.436191,0.0108051
0.43447,-0.000234023
0.129189,-0.0120385
-0.223468,-0.0572851
-0.212216,-0.101922
0.0217437,-0.0135893
0.0357965,0.0606267
0.0188541,0.0411795
0.119934,0.00899533
0.201782,-0.00494541
0.0699608,0.025926
-0.214122,0.0206077
-0.319355,0.0112191
-0.227944,0.0117686
-0.137636,-0.00480187
-0.187694,-0.0498288
-0.186681,-0.0804495
-0.0122706,-0.0159731
0.216874,0.0271585
0.351369,0.00769158
0.358809,0.0191457
0.340045,0.0341381
0.0540429,0.00666609
-0.165864,-0.00696539
-0.34819,-0.0177258
-0.365062,-0.0172075
-0.161356,-0.00676486
0.00750301,0.016694
0.125299,0.0193303
0.208406,0.02232
0.193461,0.0419871
0.145333,0.0422271
-0.00611095,0.0288741
-0.185999,-0.00984047
-0.241424,-0.0290587
-0.19827,-0.0577705
-0.098749,-0.042055
0.0178883,0.0124421
0.0841915,0.0430498
0.066404,0.0282231
-0.00332817,0.0217592
-0.0607289,0.00861604
-0.0520399,-0.0159391
-0.0103379,-0.0182948
0.0508348,-0.0074368
0.122083,-0.00899919
0.215264,-0.0046123
0.3688,-0.0447919
0.376159,-0.0212102
0.195245,0.0352523
0.0523305,-0.0107719
-0.0435843,-0.101241
-0.184189,-0.0548632
-0.241605,0.0239564
-0.212561,0.0292385
-0.240248,0.0164366
-0.304636,0.0174556
-0.216888,0.00295102
-0.123536,-0.00160312
-0.0716013,0.0329758
-0.0257221,0.0480152
0.0169386,0.0444859
0.0900898,0.0461137
0.179249,0.029456
0.341012,-0.0169208
0.400347,-0.00416874
0.279979,-0.00667508
0.178646,-0.0342111
0.0567117,-0.0327777
-0.0873952,-0.00834419
-0.231612,-0.00525617
-0.376789,-0.00673554
-0.223179,-0.0254974
-0.0447072,-0.033674
-0.0148767,-0.0477572
-0.067163,-0.00443569
-0.139535,0.00690129
-0.156131,-0.0118359
-0.0628648,0.0272165
0.0074298,0.0174335
0.00632788,0.0163633
-0.0243744,0.0441649
-0.0823213,0.00119161
-0.0599974,-0.0324355
0.0633995,-0.0438264
0.148775,-0.0280111
0.195342,0.0126593
0.285116,0.0301086
0.364056,0.0255527
0.272478,0.00316168
0.0747817,0.00224379
-0.181321,0.0142249
-0.23494,0.0155142
-0.0405465,-0.00271143
0.0835502,-0.00777091
0.0403328,0.0296016
-0.178004,0.00776208
-0.246665,-0.0461944
-0.149015,0.0314351
-0.0685503,0.0560179
0.0359986,0.0097792
0.0632221,0.014885
-0.0168128,-0.00616945
-0.0822176,-0.067157
-0.0258545,-0.0707851
0.0541106,-0.0699612
0.0771571,-0.0173138
0.069218,0.0518854
0.0212927,0.0312474
-0.0306709,-0.0104968
-0.012522,-0.00613722
-0.01551,0.0323821
0.027311,0.0401714
0.172845,0.0125961
0.221107,-0.0171927
0.205266,0.01316
0.0936971,0.0100937
-0.0720702,-0.00845272
-0.0900586,-0.0144463
-0.261977,-0.00547392
-0.326719,0.0188518
-0.124317,0.0242126
0.0320626,0.0113478
0.132162,0.00548214
0.182312,0.0116988
0.193272,0.0119731
0.0383678,0.00849326
-0.143063,-0.0108074
-0.170702,-0.0426479
-0.233856,-0.0349031
-0.269649,0.0286461
-0.116541,0.031572
0.0679899,-0.00340154
0.152211,-0.0272702
0.283472,-0.0195048
0.470414,-0.00505072
0.368049,0.00352379
0.249374,0.00407057
-0.0609799,0.000728206
-0.370573,-0.00516399
-0.259992,-0.012029
-0.178161,-0.0413446
-0.199036,-0.0653117
-0.194446,-0.0424462
-0.180117,0.0351723
-0.0710199,0.0240826
0.00468081,-0.018997
0.0325471,0.0333151
0.0502444,0.0966295
0.0522277,0.0414649
-0.016562,-0.0188841
0.0262991,-0.0257304
0.0827276,-0.0118453
0.111303,0.0150205
0.127961,0.0236655
0.163906,-0.00187406
0.12391,-0.0128881
0.00551048,-0.064068
-0.0311184,-0.0667297
0.0566489,-0.0436556
0.178811,0.0519094
0.197608,0.039381
-0.0159341,0.0140582
-0.302596,0.0447893
-0.357624,0.0302305
-0.218876,0.0270128
-0.0708082,0.00336676
0.0238231,-0.0033847
0.0271311,0.00609048
0.070508,-0.0249913
0.171752,-0.013913
0.224502,0.00302424
0.205804,0.000335022
-0.0202435,0.00976454
-0.226972,0.0327659
-0.0846954,0.0306935
0.106396,-0.00434701
0.0231801,-0.0444574
-0.206898,-0.0607328
-0.245457,-0.035866
-0.102484,-0.0271236
-0.0313656,0.0124613
-0.00891827,0.0497221
-0.00657967,0.00136719
0.277246,-0.0262593
0.64941,-0.00486345
0.636669,0.00913318
0.199004,0.00726021
-0.388355,0.0295646
-0.482072,0.0369817
-0.347385,-0.00788685
-0.111464,-0.018026
0.0999935,-0.0105981
0.101464,0.00655305
-0.00529136,0.0154511
-0.213498,0.0138099
-0.29412,0.0208128
-0.203984,0.0121188
-0.165981,-0.019636
-0.114306,-0.0336226
-0.0178523,-0.00323034
0.0146111,-0.00201877
0.00491885,-0.0372157
0.0761652,-0.0341049
0.109036,-0.021687
0.222024,-0.0340753
0.402524,-0.0690783
0.37005,0.0187011
0.190528,0.0233842
-0.135717,-0.0160562
-0.309468,0.00923759
-0.1779,0.0219976
-0.0806382,0.0112546
-0.056097,0.0384591
-0.050267,0.05374
-0.0241377,0.0422391
0.011983,0.0123566
0.00725475,-0.00807657
0.00889493,0.00804145
0.0347712,0.0127864
0.0467045,-0.00883908
0.0331984,-0.00509976
0.0491724,0.0306255
0.253892,0.0154441
0.626374,0.0125229
0.823128,-0.000826827
0.514622,-0.000860519
-0.266517,-0.000146792
-0.862526,-0.0210176
-0.806524,-0.0105743
-0.493614,-0.0136783
-0.199408,0.00058738
0.00248067,0.00136359
0.0543752,-0.0504982
-0.0189621,-0.0291723
-0.0224329,0.01013
0.0412472,0.00584419
0.107375,-0.0404685
0.18008,-0.0418246
0.0155967,-0.0192841
-0.179923,0.0170426
0.00494168,0.0261093
0.133418,0.00215469
0.144358,-0.0127952
0.0240194,-0.00419237
-0.121912,-0.00271013
-0.0525916,0.0158838
0.0944327,0.0362033
0.098507,0.0256653
0.0309141,0.00935307
-0.090972,0.0148968
-0.166578,0.0252199
-0.114243,0.0031449
-0.148705,-0.030858
-0.116226,-0.0403847
-0.00843049,0.0309214
0.146694,0.0225315
0.330234,-0.0187399
0.451016,0.00808532
0.468854,0.0410267
0.167927,0.0329243
-0.249651,0.00526472
-0.343885,-0.0188676
-0.311626,-0.0328376
-0.220585,-0.0268118
-0.063227,-0.0210842
0.13755,-0.0149832
0.139007,-0.0127866
0.000748791,0.00200484
-0.194211,0.0467062
-0.264666,0.0311386
-0.134948,0.00054961
0.00423961,-0.0328412
0.0482539,-0.0761625
0.0012672,-0.03612
-0.0484393,0.0440814
-0.0120371,0.0425522
0.089413,0.0208734
0.169776,0.0234038
0.200096,0.00894919
0.27592,-0.0182732
0.402861,-0.00948954
0.389991,-0.00434121
0.126076,-0.00753628
-0.292655,-0.00115258
-0.455451,0.0415075
-0.233388,0.00294899
-0.0294626,-0.0242709
0.030062,-0.0536235
0.00162066,-0.0464651
-0.133757,0.000546305
-0.26275,0.0123497
-0.0813569,0.0112988
0.173335,0.00144403
0.346246,0.00309112
0.359717,0.0107102
0.291461,0.024658
0.219732,0.0213147
-0.0638256,0.00428279
-0.477808,-0.00321075
-0.575211,0.00801144
-0.380635,0.0179064
-0.24482,0.00767745
-0.173554,0.00464776
-0.0871828,0.01247
0.0490676,0.0419928
0.194098,0.061082
0.148827,0.0243547
-0.0567849,-0.0245288
-0.121488,-0.0474958
-0.00803944,-0.061972
0.234239,-0.071638
0.309153,-0.0448071
0.320619,-0.0378244
0.498966,-0.0110512
0.553632,0.0169327
0.4817,0.00850338
-0.0117065,0.0251267
-0.632228,0.0241205
-0.702606,-0.00120436
-0.511247,0.00710447
-0.294033,0.020335
-0.0585862,0.0230061
0.0162674,0.0410907
-0.0266584,0.0261569
-0.0612853,-0.035039
-0.0705757,-0.0649881
-0.0306127,-0.0551194
0.0546653,-0.0528426
0.0775237,0.00707761
0.0447797,0.0256232
0.0424209,0.0270718
0.137213,0.0206485
0.325084,0.0107381
0.520168,0.0225383
0.57005,0.0324503
0.361729,0.0258964
-0.0219917,0.0138634
-0.28432,0.0208853
-0.28874,0.0284125
-0.214289,0.0143064
-0.235656,0.00220241
-0.354851,-0.0520483
-0.323686,-0.125013
-0.214736,-0.132831
-0.136189,0.0113625
-0.070631,0.0796278
-0.0600751,0.0532984
-0.0111249,0.0324154
0.203708,0.0374372
0.422964,0.0331612
0.437921,0.0148943
0.254357,-0.00196874
-0.211002,-0.0228219
-0.32846,-0.0263466
-0.0679326,-0.0112711
0.0525434,0.00259618
0.0731653,0.0153738
-0.00668786,0.0187154
-0.0878159,-0.00357442
-0.0462204,-0.0256702
0.0290808,0.00917571
0.0537642,-0.00359279
0.023525,-0.053086
-0.0276031,-0.0415515
-0.0220574,0.0150419
0.067558,0.0281923
0.0297421,0.00237749
-0.0701522,-0.0139462
-0.113539,-0.0136335
-0.125464,0.00901362
-0.0426525,0.0364808
0.0543115,0.0348398
0.123293,0.0163614
0.187682,0.000541345
0.231696,-0.017264
0.273822,-0.027488
0.174142,0.0127256
-0.0774969,0.0417052
-0.207848,0.0165416
-0.35372,0.00315619
-0.347857,-0.0344262
-0.164445,-0.0779997
-0.0346069,-0.0198778
-0.00519491,0.00410428
-0.00135343,-0.0131132
0.011218,-0.00425428
0.060655,-0.00931834
0.0983029,-0.0104098
0.109216,0.0269112
0.13309,0.0273846
0.151567,0.019302
0.120189,-0.0101956
0.14325,-0.017086
0.193521,0.0127375
0.298208,0.0113319
0.367722,0.00877734
0.042493,0.0126829
-0.448572,0.0303521
-0.589166,0.0333518
-0.44218,0.0150913
-0.175391,-0.00876471
-0.0946837,-0.0372634
-0.0768799,-0.0313204
0.124266,0.0230608
0.318794,0.0288268
0.308716,0.0101573
0.131418,0.00479358
-0.150905,-0.00372674
-0.222866,-0.0102242
-0.0909275,-0.0223377
-0.0347234,-0.0273681
-0.0765103,-0.0164656
-0.0883039,0.012177
-0.116334,0.0184202
-0.0561627,0.00722949
0.0691998,-0.00726527
0.0973605,-0.0122315
0.0548477,-0.0098028
-0.0289957,-0.00905729
-0.0173739,-0.0207099
0.0734496,-0.0262711
0.121809,0.00450988
0.134686,0.00494239
0.118033,-0.0219587
0.0146033,-0.00771724
-0.129043,0.0202252
-0.170092,0.00774374
-0.0518874,-0.0170351
0.113353,0.003056
0.216402,0.0341248
0.271022,0.0488518
0.160282,0.0375144
-0.0485234,0.0158257
-0.150425,0.00601524
-0.209847,0.018983
-0.162685,-0.00605401
0.0331225,-0.0447017
0.0948835,-0.0129617
0.0294408,-0.00267263
-0.0752545,-0.0156129
-0.123389,-0.0206863
-0.00371114,-0.000421727
0.0933108,-0.00672231
0.0164769,-0.00849311
-0.0307669,0.00712054
0.0124582,-0.0148482
0.0389232,-0.0790022
-0.0334078,-0.0181871
-0.125615,0.0384409
-0.0524722,0.0172207
0.0467604,-0.00106921
0.00831845,-0.0103859
-0.0148864,0.0110842
-0.0327132,0.0328658
-0.0766637,0.0412289
-0.0542307,0.0369574
0.063568,0.0255861
0.256073,0.00931422
0.386015,-0.00647
0.331505,-0.0158806
0.0425769,-0.0107462
-0.297772,-8.52e-06
-0.529329,0.00598081
-0.404198,-0.0121121
-0.117305,-0.0101919
0.042485,0.0104272
0.149861,-0.016983
0.304709,-0.0516495
0.352985,-0.00880416
0.349442,0.03614
0.217361,0.0210248
-0.193043,0.0194266
-0.329204,0.0155585
-0.355422,0.00952309
-0.383343,0.0110748
-0.229137,-0.0263466
0.0653704,-0.0667323
0.324763,-0.0264147
0.349406,-0.00180194
0.190418,-0.00375705
-0.129124,-0.00767793
-0.34146,0.0470796
-0.220614,0.0200108
-0.0720189,-0.0302325
0.00514133,-0.0120671
0.0420688,0.0421931
0.0554888,-0.0107137
0.0710535,-0.0506763
0.079324,-0.0204323
0.0691841,0.0169311
0.0642391,0.0224531
0.0689658,-0.0124232
0.0663398,-0.00453242
0.0287617,0.0304509
-0.0383345,0.0220118
-0.0652692,0.0121088
-0.00712579,0.0156415
0.0459336,0.0084155
0.044852,-0.00376553
0.0256848,-0.012836
0.111757,-0.0130948
0.178558,-0.00194402
0.115653,0.00781519
-0.0137626,0.0151755
-0.132328,0.014705
-0.158619,0.00539064
-0.115014,0.0017677
-0.135204,0.00451869
-0.165261,0.0100461
-0.120743,0.00651369
-0.00365986,0.00844159
0.0442489,0.00387802
0.0107304,-0.00157957
0.071862,-0.0359213
0.268096,-0.0429963
0.334993,-0.0135578
0.171548,-0.012979
-0.170197,-0.0141088
-0.321478,0.00138725
-0.142342,0.019393
-0.0468012,0.0238323
-0.0243432,0.00876907
-0.0135387,0.000264624
0.0224426,0.00630599
0.0579487,0.00703144
0.0325259,-0.000875715
-0.0221692,0.000558091
-0.0773305,-0.0290221
-0.0933621,-0.0827911
-0.0255795,-0.0278648
0.0324551,0.0170259
0.0973211,0.0127124
0.216932,0.00457309
0.211499,0.00151733
0.116082,0.00715843
-0.0921519,0.0150035
-0.187991,0.0132357
0.0246794,0.0189608
0.262031,0.0137238
0.272543,-0.00533681
0.0334089,0.0170446
-0.282205,0.012279
-0.358069,0.00619024
-0.318938,0.00871861
-0.245443,0.0100028
-0.117986,0.0146164
-0.0137516,0.0140759
0.0253835,-0.00516622
0.054728,-0.0226043
0.0740713,-0.0389129
0.125814,-0.0261815
0.182866,0.00787663
0.206571,-0.0173458
0.154899,-0.00473375
-0.0346497,0.031659
-0.116789,0.0234264
-0.0842306,0.00216585
0.014572,-0.0193849
0.191634,-0.0387346
0.24398,-0.0249622
0.128694,0.0233392
-0.129353,0.0163815
-0.282022,0.00981389
-0.222919,0.0157423
-0.11454,0.00948612
-0.09324,-0.000909433
-0.0592442,0.00141514
0.0379002,0.0115101
0.0855142,0.0126057
0.0422101,0.00326821
0.0297074,0.00452748
0.0550452,0.0114432
0.0711013,-0.00104206
0.108298,-0.0129522
0.0404572,-0.0105427
-0.110969,0.000949881
-0.128184,-0.0498072
-0.0373906,-0.0312372
0.0274337,0.0120268
0.0561629,0.00766837
0.0425396,-0.00498009
0.0870635,-0.0100762
0.137087,0.0153054
0.138579,0.0170605
0.0530323,0.0058709
-0.108353,0.00524883
-0.219215,0.0171107
-0.167674,0.0158797
-0.079797,-0.0148411
-0.0180716,-0.0320672
0.0175504,-0.0508244
0.0236854,-0.0127466
0.0351915,0.0326129
0.104305,0.0383073
0.168424,0.0300188
0.110869,0.0100181
-0.0201985,-0.00141947
-0.124008,0.00848644
-0.0937331,0.00349153
-0.0565611,-0.0189439
-0.0302708,-0.0683609
-0.0165537,-0.0735762
0.0063772,0.0206892
0.0111483,0.0766871
0.0130347,0.0435916
-0.00554808,0.00240574
-0.00378548,0.0276149
0.0295887,0.0257316
0.0189635,-0.0265323
0.00701176,-0.0357253
0.0198508,-0.0552413
-0.0188362,-0.0262339
-0.0572284,0.000839624
-0.0295298,0.0183519
0.0486591,0.0383852
0.0827461,0.0353102
0.0593548,0.0520033
0.0031383,0.0928028
-0.0238724,0.0836192
-0.0380103,0.0437808
-0.044415,-0.00382396
-0.0384102,-0.0486845
-0.0177321,-0.0774934
0.00266303,-0.0855434
0.0114246,-0.0886459
-0.00210284,-0.126035
-0.0242291,-0.0471474
0.00422008,0.0876333
0.0394426,0.0286451
0.0275937,0.0303382
0.0144509,0.00233184
0.000406656,-0.070647
-0.00658812,-0.04568
0.0470873,0.0262818
0.127967,-0.0334773
0.127887,-0.0412969
0.0695635,0.0095549
-0.0547047,0.0274532
-0.128009,0.0367388
-0.124315,0.0128897
-0.148116,0.0168237
-0.159082,0.0348351
-0.0809575,0.0273133
0.025724,0.0182626
0.116452,0.0182024
0.144011,0.015527
0.110568,0.0174526
-0.0424461,0.0198346
-0.125424,0.011019
-0.0376345,-0.00691575
-0.0359937,-0.0177753
0.0103389,-0.0113795
0.181272,-0.0039731
0.280121,-0.00685028
0.308946,-0.00616763
0.170056,-0.00258058
0.0748641,0.00573819
0.0702958,0.00898251
0.0358232,-0.0023706
-0.177134,-0.0137548
-0.596939,-0.0193255
-0.607191,-0.00722976
-0.311379,0.00185836
-0.0698019,0.0109065
-0.00164103,0.0160996
0.00655387,0.00140375
0.0448916,-0.0226233
0.101062,-0.0292598
0.0947541,-0.00846634
0.0454128,0.023918
-0.0267444,0.0220382
-0.072966,0.0120557
-0.00709425,0.00317781
0.0555245,0.00598332
0.0783459,0.0127717
0.108779,0.0112359
0.222953,0.0123002
0.381373,0.0189314
0.421664,-0.010093
0.278936,-0.0169718
-0.00544777,0.0144676
-0.183804,-0.000827916
-0.214594,-0.0218638
-0.212895,-0.0424507
-0.189478,-0.0263718
-0.215907,0.0205584
-0.126916,0.00129217
-0.0401258,-0.0319476
-0.0259951,-0.0495004
-0.0376355,-0.0471315
-0.0273488,-0.0043258
-0.0012764,0.0341522
0.0393425,0.0277758
0.0555046,0.00665129
0.0764247,-0.0219161
0.0558476,-0.00169842
0.0571404,0.0220846
0.0825648,0.0296418
0.0320581,0.0170922
-0.000319778,0.00747975
0.0668422,0.0085521
0.0755022,0.0118713
0.0768921,0.0031425
0.0998741,0.00426889
0.0628073,0.00549938
-0.00300997,0.000797794
-0.0626076,0.00876665
-0.114022,-0.00135531
-0.0563191,-0.0325847
0.0269548,-0.0119345
0.0554287,-0.0106761
-0.0149903,-0.0408396
-0.086276,-0.00321656
-0.0504215,0.0934392
-0.0378099,0.0554192
-0.0703926,-0.024338
-0.129073,-0.00238281
-0.134365,0.0579004
-0.05964,0.116537
-0.019387,0.0734322
-0.00412119,-0.020527
0.00696122,-0.113027
0.0140397,-0.112929
0.0248757,-0.0654249
0.0326679,-0.0400366
0.0273455,-0.0193881
0.0216175,0.000418948
0.0249187,0.0175983
0.0305426,0.0159318
0.0321515,0.00151015
0.0394872,-0.00222856
0.0586222,0.00257817
0.0762925,0.00495934
0.0686896,0.000392308
0.0886567,-0.0115182
0.0744058,-0.0139772
0.00336078,0.000443534
0.027855,0.0186009
0.00159563,0.0150063
-0.0216684,0.0124278
-0.0533588,0.0242972
-0.164914,0.010968
-0.145476,0.00970046
-0.0196638,0.0226348
0.0418714,-0.0190292
0.077246,-0.0246645
-0.18647,0.0116093
-0.180243,-0.0124547
-0.0791179,-0.0329041
-0.0435818,-0.0256679
0.0287706,-0.0106254
0.257441,-0.0113083
0.58808,-0.0125637
0.596745,0.00239327
0.197848,0.0243121
-0.401514,0.0319186
-0.686915,0.0270007
-0.40692,0.00999636
-0.16859,-0.00295579
-0.0790823,0.0128922
-0.0083936,0.0107402
0.0725804,-0.0155951
0.131612,-0.0210338
0.132242,0.0031088
0.113316,0.000481666
0.130905,-0.00245697
0.0845884,0.000571552
-0.0685051,-0.0126256
-0.200927,-0.0244306
-0.17652,-0.0129211
-0.104926,0.00795368
-0.0545448,0.0211043
0.0167431,0.025706
0.0675531,0.0152348
0.105408,0.000662217
0.121438,-0.00223727
0.122925,0.0114676
0.131895,0.0212797
0.130183,-0.00703442
0.103936,-0.0229002
0.065158,-0.0173612
0.0183861,-0.0101943
-0.0898571,-0.000683385
-0.174057,-0.00431033
-0.142994,-0.0309005
-0.0821741,-0.0201762
-0.0406143,0.00921868
0.0222312,0.0203938
0.0821969,0.0226183
0.0730643,0.0227649
0.0154108,0.0118273
-0.0234809,0.00339273
-0.0665403,0.00357871
-0.0854928,0.00717586
-0.030599,0.00382227
0.0155141,-0.00370532
0.0437115,-0.0134088
0.064591,-0.0198026
0.102497,-0.0167851
0.12707,-0.00483229
0.107878,-0.0321429
0.0647884,-0.034525
-0.00708591,0.0149413
-0.115167,0.0318301
-0.19691,0.0182871
-0.17763,0.0041565
-0.0503498,-0.00370177
0.00814791,0.0138026
0.0156422,0.00715655
0.0205723,0.00393133
0.0260944,0.00482349
0.0151885,0.00248897
0.000421945,-0.00975516
-0.0164207,-0.0240874
-0.0318843,-0.0248652
-0.0227116,-0.0190751
0.00772662,-0.0102898
0.0308334,0.00893488
0.0142323,0.00989839
-0.0208604,0.0119889
-0.0336396,0.0183813
-0.0103651,0.021884
0.0413365,0.0248491
0.0593475,0.0174172
0.0494158,-0.00107894
0.0328161,-0.00117668
0.0425434,0.00526999
0.045245,0.00216239
0.0105148,-0.00583783
-0.0349134,-0.0162337
-0.0633155,-0.0410197
-0.0775487,-0.0263641
-0.0697826,0.0140705
-0.0431057,0.0168063
-0.0238849,0.00736035
-0.0199097,0.00896657
-0.0124431,0.0151159
0.0133155,0.0215683
0.0699493,0.0216445
0.105252,0.0167246
0.0855867,0.00254039
0.033152,-0.011472
-0.0512854,-0.0185432
-0.0473143,-0.0159597
0.0318497,-0.0140267
0.106694,-0.0174802
0.114313,-0.0185476
0.101693,-0.0147403
0.0521028,-0.0120874
0.00811767,-0.00421755
0.0195189,0.00308661
-0.0241652,0.00610398
-0.129467,0.0114027
-0.190864,0.0173138
-0.185235,0.0240648
-0.116223,0.0293196
-0.0325079,0.022584
0.0113003,0.00447539
0.058371,-0.0278926
0.0982461,-0.0109681
0.0965716,0.0140235
0.0486753,-0.0182977
-0.0751432,-0.0207314
-0.113418,-0.0186277
-0.061101,-0.0200623
-0.0453378,-0.019123
-0.00262779,-0.0134365
0.0927975,-0.00465998
0.144008,0.00102501
0.126589,0.00623472
0.000377352,0.0151137
-0.156177,0.0254539
-0.119179,0.0202255
-0.00916521,0.0064631
0.023346,-0.00136093
0.0227159,-0.0041187
0.0230986,-0.00533899
0.0233032,-0.00800322
0.0114569,-0.0121855
-0.0169755,-0.0174118
-0.0410683,-0.015723
-0.0493708,-0.0107708
-0.0427159,-0.000440559
-0.0155375,0.0120499
-0.00219754,0.0189914
0.000901138,0.0220486
0.0192687,0.0282098
0.0542188,0.0305784
0.0829352,0.0232134
0.0757553,0.0101265
0.0473815,-0.00683209
0.0272577,-0.0201191
0.0209586,-0.0223689
0.014131,-0.0136356
-0.00309706,-0.020302
-0.0188583,-0.0188223
-0.0221458,-0.00125918
-0.0185276,-0.000328188
0.0029308,0.0020731
-0.0183984,-0.000446515
-0.0402343,0.00631963
-0.0299562,0.0105141
-0.00815444,0.0107408
0.0153441,0.0173275
0.0374651,0.0202533
0.0491915,0.0214219
0.0502647,0.0178451
0.0422651,0.00638361
0.0363882,-0.00138908
0.0294431,-0.00886153
0.0159325,-0.0143543
-2.58e-05,-0.00529332
-0.0220922,-0.000253682
-0.043229,-0.00152072
-0.0543733,-0.00479417
-0.0595547,-0.00914306
-0.0609764,-0.00683219
-0.0561778,-0.00165823
-0.044036,0.000294166
-0.0249881,0.0024842
-9.06e-05,0.00235424
0.0185636,0.00369137
0.0355041,0.000963087
0.0582064,-0.00568565
0.0638129,-0.00975205
0.0478842,-0.0224758
0.0117166,-0.0696844
-0.0761249,-0.100715
-0.0971476,-0.0948633
-0.0472637,-0.0341308
-0.0321504,0.0018336
-0.0420789,0.0187327
-0.0544297,0.0239415
-0.0516467,0.0408343
-0.0294102,0.0445719
-0.010618,0.036114
0.0024985,0.0368457
0.0230787,0.0346625
0.0725111,0.0336919
0.0752286,0.0324074
0.0615938,0.0238704
0.198808,0.0130618
0.2999,0.0128739
0.29981,0.0244432
0.377661,0.0267738
0.285727,0.015564
-0.0548055,0.00986443
-0.430238,0.0037441
-0.646916,-0.0133921
-0.502303,-0.0307824
-0.225355,-0.0184807
-0.248915,-0.0128991
-0.318767,-0.0204408
-0.257488,-0.00909773
-0.124131,0.00485544
0.0739789,0.0184158
0.246397,0.021184
0.548888,-0.00165161
0.904676,-0.0183015
0.768302,-0.0199138
0.299637,-0.0155701
-0.423658,-0.0119275
-0.832449,-0.00421046
-0.434914,-0.0134983
-0.0606601,-0.0294064
0.0726516,0.00810128
0.167675,0.00086224
0.193221,-0.0150963
0.170728,-0.00857204
0.139547,-0.000836276
0.0411791,0.00881579
-0.0433917,0.0121341
-0.180443,-0.000195455
-0.339746,-0.0134827
-0.306594,0.0318216
-0.235436,0.057868
-0.144396,0.0320601
-0.00121965,0.0101692
0.130567,0.0101429
0.163903,0.020499
0.127947,0.00714456
0.13332,-0.00461832
0.127285,-0.0145291
0.122005,0.000479159
0.11848,0.00278629
0.101286,-0.0112965
0.073932,-0.0144728
0.0394254,-0.00728506
0.0185838,-0.00666219
0.00761592,-0.012748
-0.0153307,-0.0156542
-0.0564249,-0.0100689
-0.0817325,-0.0117142
-0.0658379,-0.0082493
-0.0257821,-0.0120729
0.00476112,-0.021665
0.0164111,-0.0320129
0.00768984,-0.0413081
-0.00319243,-0.0498769
0.0103239,-0.055969
0.0320479,-0.0618697
0.0397268,-0.0721231
0.0147968,-0.0851199
-0.0136881,-0.019887
-0.029311,0.0498044
-0.0319923,0.0717337
-0.0380767,0.0742369
-0.0566292,0.066001
-0.0733092,0.0577249
-0.0706862,0.0545652
-0.0397662,0.0515914
-0.00307134,0.042792
0.0165154,0.0278775
0.0182242,0.0202345
0.00528161,0.0158679
-0.0551479,0.00137245
-0.0780415,-0.0125388
-0.0466737,-0.014257
0.0307867,0.00148745
0.0933405,0.00838199
0.109713,0.00401764
0.0972865,0.00309008
0.0590885,0.00222143
0.0152969,-0.00257204
-0.0308803,-0.0113341
-0.0496395,-0.0176112
-0.0343568,-0.00402983
-0.00693877,0.00490337
0.0158678,0.00221906
