Comp Ch 3,Comp Ch 4
-0.0571869,0.0021384
-0.00995869,-0.000495385
-0.0175032,6.7e-05
-0.0104811,0.00621531
0.00425008,0.0101949
0.00476158,0.01757
0.0150055,0.0239692
-0.00888921,0.0150764
-0.0415592,0.00367328
-0.0183113,-0.00283411
-0.000782227,-0.0146484
-0.00513013,-0.0195361
-0.016119,-0.00576339
0.00890792,0.0054311
0.0879369,0.00749363
0.129326,0.0129985
0.127038,0.0114775
0.106129,0.00246627
0.0340593,-0.00310133
-0.0698607,0.00435497
-0.0330685,0.0012422
0.0299488,-0.00307182
0.0131112,0.0105567
-0.0110492,0.0173767
-0.0310441,0.00709338
-0.065999,0.000242548
-0.0668669,-0.0100321
-0.0770654,-0.0175053
-0.108873,-0.0100577
-0.0585911,-0.00358033
0.0515398,0.00255918
0.104327,0.0149777
0.0550537,0.0250193
-0.0112503,0.025937
0.0560578,0.0131217
0.137994,0.00180331
0.209016,0.00940155
0.241975,0.0120092
0.159146,0.00650439
0.0991347,-0.00297569
-0.0828454,-0.00159245
-0.3936,0.0017071
-0.319993,-0.0115999
-0.107736,-0.0329731
-0.0858149,-0.0308097
-0.117678,-0.0215346
-0.0243917,-0.00650417
0.0707851,0.0104285
0.0481103,0.00529297
-0.0225821,-0.00466237
-0.00578987,-0.00496113
0.104135,-0.0248222
0.0171401,-0.0323597
-0.134875,-0.015692
-0.177642,-0.00196836
-0.137783,0.00669403
-0.0197211,0.0029131
0.0877781,-0.00264562
0.106976,-0.00212373
0.0576795,-0.00381599
0.0468445,-0.010109
0.0901704,-0.00834167
0.164599,0.0048651
0.314513,0.005877
0.380471,-0.00434532
0.254155,0.0113861
0.0753063,0.030941
-0.199441,0.0119701
-0.432685,-0.025774
-0.201574,-0.0166412
0.114042,-0.00237385
0.253409,-0.0117396
0.217357,0.0026529
0.0498814,0.0145674
-0.0607808,-0.0139878
-0.246867,-0.0139188
-0.479203,-0.00332639
-0.365314,-0.00611164
-0.176513,0.00425638
-0.0727816,0.0240159
-0.0301438,0.0275306
-0.029667,0.0202626
-0.0702304,0.0424845
-0.0671182,0.0231414
0.0302813,-0.0432203
0.101123,-0.0186079
0.122168,-0.0109154
0.0881806,0.00713924
0.0105304,0.0353462
-0.00300634,-0.0245989
0.0342751,-0.0852272
0.0712907,0.00120752
0.0786603,0.0502304
0.0434622,0.0297708
0.130475,0.00833177
0.243929,0.00202288
0.28733,-0.00302531
0.185249,-0.00804157
-0.133501,0.000397921
-0.284431,0.013651
-0.174656,0.0143152
-0.0987874,0.000940542
-0.0377061,-0.00439171
-0.00839355,0.00102729
0.0154294,-0.000358676
0.0556946,0.00738277
0.103052,0.0158596
0.175964,0.00660297
0.0989824,0.00270019
-0.0606037,0.0051246
-0.108858,-0.000686999
-0.139439,0.00361828
-0.150009,0.00886926
-0.0483001,-0.00549292
0.0536093,-0.0186181
0.110815,-0.0239004
0.0999026,-0.0196936
0.0114307,-0.0120094
-0.0409843,-0.00488785
-0.0187972,0.00242407
0.0412041,0.0037732
0.0321498,0.0105055
0.0033265,0.0187508
-0.045586,0.0232585
-0.158279,0.0199118
-0.257238,0.0186197
0.00237364,0.000287688
0.316389,-0.0334965
0.365076,-0.0310692
0.260541,0.00361332
0.146451,0.00354547
0.102243,-0.0113746
0.260163,-0.0119463
0.25322,-0.00966505
-0.0420698,-0.00539279
-0.556821,0.0124819
-0.903331,0.0377767
-0.673525,-0.00319327
-0.20528,0.00602154
0.0838657,0.0548704
0.200873,0.053988
0.177759,0.02595
0.213695,-0.00189183
0.413998,-0.0365863
0.281119,-0.0696972
-0.123724,-0.0901177
-0.137136,-0.11796
-0.23155,-0.148866
-0.33259,-0.133352
-0.165436,-0.0337038
-0.0849229,0.0931932
-0.179182,0.137431
-0.211303,0.0977693
-0.00308767,0.0509124
0.216862,0.0461845
0.21796,0.0399981
0.117251,0.0402063
0.0826953,0.045566
0.196842,0.0348161
0.350378,0.0148541
0.491697,-0.00907348
0.351049,-0.00912739
-0.0934991,0.0112959
-0.349221,0.0153588
-0.352286,0.0398432
-0.192545,0.0589849
-0.266582,0.00478071
-0.243556,-0.100625
0.020238,-0.0764705
0.400368,-0.0365497
0.74972,-0.0138384
0.790144,-0.00196594
0.481728,-0.00817399
-0.287078,0.0233423
-0.940941,0.032587
-1.04467,0.0388652
-0.692177,0.00971248
-0.202777,-0.0149149
0.335374,-0.0291967
0.970352,-0.123855
1.21708,-0.144566
0.702491,-0.0307492
-0.334525,0.0177514
-1.11683,0.0362784
-0.959681,0.0241688
-0.262555,-0.0120817
0.0225369,-0.0550204
-0.101397,-0.0335495
-0.0229408,0.0184714
0.278608,0.063409
0.419041,0.0835653
0.105891,0.0165042
-0.214758,-0.0229333
-0.0747108,0.00803486
0.0555591,0.0234357
-0.013392,0.0253876
-0.0138002,0.00887104
0.0553393,0.0530095
0.0955819,0.0448807
0.27777,-0.00541231
0.295756,-0.0289032
0.120541,-0.0384063
-0.154491,-0.0135478
-0.443671,0.0125744
-0.399971,0.0144318
-0.0625761,0.0239608
0.169025,0.0459557
0.363024,0.0908695
0.517705,0.0807944
0.250651,-0.0155425
0.0336299,-0.0329437
0.00521944,-0.0162312
-0.0822155,-0.0119227
-0.120597,-0.00161232
-0.240206,-0.0279547
-0.327056,-0.0674296
-0.224002,-0.0513841
-0.0151678,-0.0178714
-0.00953418,-0.0140532
-0.308953,-0.0112807
-0.231794,-0.00364647
0.117848,-0.0197932
0.15855,-0.0380551
0.0710912,-0.0229366
0.00107145,-0.0157418
-0.098164,0.00414305
-0.164984,0.0314421
0.04214,0.0213
0.48612,-0.00463139
0.731964,-0.00871643
0.638722,-0.00886433
-0.0720966,0.00182443
-0.697994,0.0384597
-0.459335,0.05935
-0.066077,0.0298038
0.262579,0.00195775
0.355444,0.0099208
0.00703266,0.0217529
-0.211541,0.012572
-0.262987,-0.00161635
-0.326215,-0.00150409
-0.319161,-0.00651398
-0.0928939,-0.0183932
0.106181,-0.0317182
0.0824814,-0.025836
-0.190316,-0.00784409
-0.380933,-0.0460819
-0.194817,-0.0325993
0.063471,-0.0245342
0.263273,-0.0422625
0.470895,-0.0528074
0.765234,-0.0491737
0.6958,-0.0272726
0.305303,0.0183428
0.216311,0.0475784
0.0617909,0.0637484
0.0964453,0.0670659
-0.0976531,0.0602398
-0.917896,0.0554741
-0.970654,0.033402
-0.560554,-0.00983973
-0.384933,-0.0261942
-0.0964963,-0.0226043
0.276685,-0.0164433
0.427049,-0.0170254
0.359961,-0.0165056
0.212445,0.021412
0.0586448,0.0194063
0.190097,-0.0229989
0.317557,-0.034669
0.0623227,-0.0189339
-0.176515,0.0100175
-0.315974,0.025197
-0.554172,0.0235954
-0.275239,0.0230452
0.0204249,0.0186211
0.158202,-0.00118556
0.105698,-0.0040289
-0.0210118,-0.00410705
0.0765652,-0.017434
0.335667,-0.0125446
0.632061,0.0223818
0.815598,0.0429008
0.288002,0.0418289
-0.530554,0.0182959
-0.904519,0.00726288
-0.732641,-0.00918693
-0.253221,-0.017592
-0.0575366,-0.0200068
-0.110826,-0.0189068
-0.0164827,0.0120802
0.170002,0.0239563
0.25497,0.0102059
0.0334173,-0.0138102
-0.300848,-0.0275825
-0.172679,-0.0257726
0.022752,-0.00777977
0.028958,0.0175251
0.186768,0.0269792
0.652069,-0.00144717
1.17565,-0.0460673
1.67553,-0.0648003
1.40058,-0.0485437
0.243804,-0.00792388
-0.733203,0.014189
-1.6514,0.0106312
-1.98539,0.0195443
-1.19285,0.0407659
-0.326313,0.0288512
0.0404349,-0.0163089
0.0902216,-0.0172329
0.00867501,8.62e-05
-0.0835531,0.0196053
-0.150959,0.0221053
-0.150523,-0.000954649
-0.0969446,-0.0133185
0.0280421,-0.0146845
0.282633,-0.00670113
0.540863,-0.00306877
0.694902,-0.0399037
0.426974,-0.0419752
0.0812959,-0.00507702
0.0137528,0.00377693
-0.0433393,0.00760824
0.0190213,0.00262033
0.260672,-0.0190999
0.260451,0.0108265
0.0225598,0.0373216
-0.229506,0.00308964
-0.136862,-0.0165283
0.206297,0.00695301
0.108193,0.019465
-0.502015,0.0218635
-0.508362,0.0136312
0.0854262,-0.0146199
0.215267,-0.0124302
0.0160165,0.0024758
-0.279156,-0.0147472
-0.284998,-0.0263343
0.0195581,-0.00841545
0.20486,0.0306171
0.435615,0.0294029
0.533239,0.0105929
0.32993,-0.0202735
0.0405219,-0.0241964
-0.130067,-0.00293345
-0.0769052,0.0057463
-0.0431794,-0.00334648
-0.172932,0.00111887
-0.649647,0.0245297
-0.758269,0.0439707
-0.379926,0.0243201
-0.0657373,0.0016843
0.101464,0.00446849
0.282825,0.00392012
0.413569,-0.00928935
0.211049,0.00329722
0.128583,0.00739075
0.0024889,0.0016846
-0.2216,0.00512158
-0.0201399,-0.0115548
0.0931722,-0.0109996
0.0991674,0.00727838
0.0933798,0.0243145
0.216587,0.0305244
0.253491,0.0353858
0.0718949,0.0200302
-0.0352094,-0.00770095
-0.393271,-0.0175476
-0.611007,-0.0166006
-0.302776,-0.0211311
0.192569,-0.0241282
0.436687,-0.0292282
0.364569,-0.0269408
0.193765,-0.000639147
0.0638788,-0.00511326
0.161838,-0.0188422
0.336545,-0.00922619
0.305728,0.00382206
0.0763107,0.0201172
-0.463149,0.0251836
-0.715895,0.000951792
-0.464159,-0.00865584
-0.271983,-0.0139886
-0.134878,-0.0209293
0.0055827,-0.0339748
-0.0296158,-0.0320547
-0.0702398,-0.010888
0.0712655,0.00878826
0.13771,0.0221205
0.0578144,0.0215151
0.0316164,0.0269092
0.0564552,0.0356615
0.196494,0.0162449
0.236112,-0.00652452
0.076938,-0.0410802
0.0429078,-0.0239988
0.263943,-0.0041073
0.541708,-0.00244097
0.672794,-0.00588298
0.476392,-0.018356
0.0637382,-0.0135368
-0.311333,-0.0169239
-0.827597,-0.00456253
-1.06078,0.00307428
-0.748565,0.0201612
-0.185541,0.0306793
0.0552932,0.0262986
0.388721,0.015062
0.77147,-0.00463907
0.730705,0.0111793
0.214331,0.00885728
-0.566898,-0.0155851
-0.834723,-0.0215824
-0.550034,-0.0260514
-0.334441,-0.0197413
-0.21023,-0.00222621
0.0189668,0.00931061
0.143622,0.0210176
0.0888756,0.0308875
0.15533,0.0230609
0.234302,0.0160943
0.262438,0.0148662
0.222345,0.00774495
0.172987,0.00230383
0.296375,0.0191189
0.5468,0.0186161
0.608545,-0.0117376
0.279932,-0.0520974
-0.258052,-0.0546896
-0.568026,-3.91e-05
-0.786397,0.0463873
-0.596551,0.0576714
-0.194946,0.0520175
-0.0427466,0.015025
0.0761512,-0.0180857
0.366181,-0.0268018
0.548347,-0.0495799
0.626835,-0.071318
0.676449,-0.0247277
0.0738107,0.00292939
-0.339397,-0.000706986
-0.793715,0.0143651
-1.07583,0.0219174
-0.432681,-0.00600755
0.0300922,-0.0351826
0.286418,-0.0187385
0.37433,0.0180097
0.37935,0.0257056
0.101967,0.0231011
-0.198491,0.0192796
0.199914,0.00159831
0.458017,-0.0110763
0.213003,-0.0189666
0.0315449,-0.0466405
-0.262031,-0.01447
-0.406869,0.0624922
-0.0771737,0.055509
0.0601252,0.012395
-0.307957,0.00350565
-0.388742,0.0138466
-0.249596,0.0215112
-0.159899,0.000875019
-0.014543,0.00421766
0.0476673,-0.0219497
0.0700097,-0.0497181
0.155879,-0.00413031
0.273259,0.0403765
0.250556,0.0196323
0.0615,0.00339582
-0.0443037,-0.00797787
-0.0500827,-0.0447424
0.0457728,-0.0598792
0.285546,-0.0332078
0.443358,-0.00439387
0.497237,-0.00686746
0.388777,-0.00409965
0.00195642,0.020166
-0.144733,0.0606005
-0.437171,0.0358624
-0.673273,-0.0280892
-0.460048,-0.0291033
-0.175838,-0.0296289
-0.0752587,-0.0139047
-0.151805,0.00370991
0.052001,0.0279023
0.167419,0.0408019
0.141487,0.0268016
0.0117,-0.00898212
-0.0760767,-0.013764
0.108771,0.000118767
0.330778,-0.00534213
0.407182,-0.0274925
0.155047,-0.0303044
-0.227672,-0.00475956
-0.169335,0.00860002
-0.00240303,0.00810662
0.11957,0.00740801
0.125695,-0.00409537
-0.0456508,-0.0140039
-0.162195,-0.0144778
-0.44726,-0.0151849
-0.224862,-0.0159734
0.275715,-0.0114158
0.409026,0.010605
0.239482,0.0267713
-0.195244,0.0295652
-0.308926,0.0194053
0.109082,0.00346577
0.299502,-0.00416408
0.210469,0.00295321
-0.0796787,0.0201868
-0.484462,0.0340161
-0.536413,0.0222147
-0.228555,-0.0154284
0.00458797,-0.0310154
0.137519,-0.0247364
0.123864,-0.0166253
-0.004861,-0.00364442
0.0576072,0.0110758
0.189225,0.016151
0.317928,0.0232402
0.192665,0.0152978
-0.128349,0.00217461
-0.235572,-0.00991543
-0.182856,-0.0144627
-0.197031,-0.0265428
-0.0848574,-0.0347679
0.185306,-0.0139881
0.379929,-0.0153232
0.372077,-0.0235783
0.24223,-0.0124931
-0.0475365,-0.0128187
-0.234331,0.00212792
-0.292436,0.0170726
-0.203807,0.0368061
-0.0101018,0.0470852
0.210208,0.0235642
0.0869852,0.00971359
-0.241696,0.00691889
-0.327973,0.0165845
-0.282033,-0.00178302
-0.00830392,-0.0102507
0.293585,-0.000264978
0.575861,-0.00136958
0.757373,-0.0128555
0.657905,-0.0335172
0.121808,-0.0226616
-0.111224,0.00566066
-0.255659,0.00775876
-0.358745,-0.0223837
-0.458203,-0.0179281
-0.571101,0.0251197
-0.641201,0.00867904
-0.474513,-0.000795549
-0.1605,0.0300082
0.0254421,0.0302916
0.238064,-0.000168845
0.440557,0.00910526
0.514409,0.0114165
0.381967,0.0048182
-0.0556664,-0.015161
-0.486423,-0.0373685
-0.369392,-0.0418531
-0.00186327,-0.0237988
0.150722,-0.00616354
0.0767875,0.00685712
-0.0875666,0.0260336
-0.0582997,0.0258516
0.0493893,0.0164111
0.0990186,0.0211042
0.154645,0.0384265
0.242792,0.0359552
0.342082,0.0292973
0.224982,0.0315253
0.0830641,0.0286538
0.0170546,0.00354588
-0.171706,-0.0156836
-0.321375,-0.0107031
-0.201889,-0.00814076
-0.074183,-0.0145351
-0.0897292,-0.0131394
-0.0529061,-0.0252221
0.171451,-0.0372011
0.405751,-0.0166246
0.418259,0.00164676
0.146902,0.0053105
-0.202766,-0.00761749
-0.216045,-0.0345921
-0.120112,-0.0348084
-0.203259,0.0068281
-0.282656,0.0114844
-0.164566,-0.0476571
0.00639231,-0.0179568
0.0412283,0.00821965
-0.0367516,-0.00451511
-0.0985499,-0.0117428
-0.0899542,-0.00388206
-0.0319197,0.00892514
0.123672,0.0178613
0.308919,0.0120809
0.331409,-0.000205701
0.20702,0.000989864
-0.178059,-6.67e-06
-0.411651,-0.00776642
-0.179761,0.00481788
0.0742059,0.0264513
0.134659,0.0322178
0.178479,0.0294455
0.139967,-0.00351728
-0.0128054,-0.0195717
0.130051,-0.0165162
0.186497,-0.00655914
0.170784,-0.0122172
0.091061,-0.00214293
-0.0924011,0.0206658
-0.406673,0.0295454
-0.535166,0.00577084
-0.044701,-0.0158596
0.263187,-0.00738942
0.246301,-0.00716308
0.11674,-0.00406336
-0.0485896,0.00148979
-0.286903,0.0337811
-0.356401,0.0185822
-0.249674,-0.0145849
-0.147427,0.00531446
-0.0580927,-0.00455441
0.060533,-0.0332115
0.106948,-0.0327004
0.0966574,-0.00426237
0.0739555,0.0284062
0.0581461,0.0244645
0.169267,0.0110236
0.209322,-0.00297043
0.17896,-0.0211545
0.250935,-0.0165905
0.204185,-0.0116205
0.211699,-0.00681086
0.275771,-0.0214068
0.0771561,-0.0218611
-0.162771,-0.009412
-0.205887,-0.0239754
-0.294312,-0.0286716
-0.46059,0.00152638
-0.407683,0.0246815
-0.309617,0.0193412
-0.147774,0.0120594
-0.0380176,0.0120119
0.0355717,0.0314506
0.119052,0.0295657
0.104876,0.00413676
0.00849415,-0.00489738
-0.0144732,0.00338534
0.0150682,0.00796032
0.173577,0.0246396
0.525375,0.0419512
0.630161,0.0266273
0.302915,-0.0102569
-0.192635,-0.0271189
-0.399311,-0.0308992
-0.112681,-0.0619564
0.158611,-0.0521221
0.154844,-0.0122632
-0.133074,0.0337203
-0.107548,0.0256751
-0.0692288,0.0103171
-0.20351,0.0062594
-0.256607,-0.00770832
-0.22403,-0.0106318
-0.0519548,0.0130659
-0.00583038,0.0271929
-0.0972811,0.0219741
-0.0928062,0.0255267
-0.0706185,0.0260497
-0.0186947,0.00540868
0.0861789,-0.00441379
0.197571,0.000201525
0.202254,0.00261518
0.138604,-0.000135637
0.0347202,-0.00550401
0.141598,-0.0104447
0.51181,-0.0111621
0.493804,0.000446434
0.100455,-0.0057131
-0.338709,-0.0158003
-0.171346,-0.00872335
0.115436,-0.031588
-0.097195,-0.0492565
-0.475908,-0.0269657
-0.441373,0.00581834
-0.309566,0.00318246
-0.183069,-0.0205708
-0.0581092,-0.0215867
0.0248188,0.0102561
0.0968514,0.00519498
0.102001,0.00979803
-0.0557988,0.0287731
-0.180707,0.042934
-0.0540434,0.0227575
0.245398,0.021756
0.459938,-0.00417301
0.400276,-0.00479782
0.145717,0.00603934
-0.106785,0.00361247
-0.185985,-0.00105691
0.0306121,-0.00244631
0.321356,0.00139173
0.467238,0.00851385
0.367037,0.00591349
-0.0307344,-0.0117597
-0.500446,-0.0270289
-0.535939,-0.0127349
-0.250826,0.0306264
-0.269131,0.0149463
-0.288169,-0.00163477
-0.122544,-0.0251971
0.0272433,-0.0324859
0.205286,-0.025359
0.27379,-0.0241011
0.132115,-0.0123173
0.0754322,0.0121204
-0.0610471,0.0255191
-0.0182536,0.0203045
0.137787,0.027722
-0.091432,0.0136155
-0.295995,-0.0118034
-0.0868819,-0.0211889
0.172153,-0.0356693
0.16248,-0.0308925
0.0505819,-0.0376653
0.0372371,0.0231169
0.0706786,0.0588905
0.00965852,0.0386418
-0.212718,0.00465779
-0.207332,-0.0160772
-0.0702189,-0.013452
0.0439816,-0.0154856
0.0982062,-0.0202145
0.0877102,-0.00198226
0.0175326,0.011795
-0.0291986,0.00149562
0.0090022,0.00179999
0.0946282,0.00295894
0.0982989,0.00457695
0.0957158,-0.019253
0.00786313,0.00798584
-0.207863,0.0386944
-0.243641,0.0422756
-0.0369084,0.0268779
0.0207064,0.000398557
-0.0345077,-0.0196816
-0.0525095,-0.0173723
-0.0684285,-0.00739388
-0.0218547,-0.00181583
0.142724,0.00870311
0.604725,0.00707689
1.08479,-0.0220193
1.06736,-0.0398646
0.465729,-0.024706
-0.684802,0.00607806
-1.0727,0.0440491
-0.531906,0.0637059
-0.379476,0.0651947
-0.409149,0.0378253
-0.229273,0.00754165
-0.124472,0.00202097
-0.0266741,0.0112195
-0.0756047,0.00177007
-0.124947,-0.0200737
-0.0381278,-0.0150577
0.00883281,-0.0134886
-0.0568635,-0.0366472
-0.122234,-0.0435522
-0.041153,-0.0208219
0.0380513,-0.00665539
0.137668,-0.00183363
0.191354,-0.00912492
0.124969,-0.0457084
0.0762504,-0.0588901
0.0359936,-0.0327416
0.0876644,0.0034058
0.165003,0.0123454
0.265077,0.00710739
0.302583,-0.00043685
0.245897,0.000529752
0.178228,0.00822001
-0.0351897,0.00560671
-0.157922,0.00410911
-0.00953265,0.0170166
-0.0473253,0.0271498
-0.0359553,0.0202914
0.0608759,0.0115986
-0.066303,-0.0141112
-0.226049,-0.0247255
-0.290432,0.0228813
-0.31727,0.0388954
-0.153534,0.000210437
0.0177157,-0.00064225
0.136325,0.0255581
0.0968737,0.0247253
0.0390393,0.00400788
0.0483772,-0.00354604
0.100597,-0.00389514
0.145764,-0.00884772
0.0872198,-0.0145774
-0.158983,0.0135619
-0.280898,0.0230706
-0.0309387,-0.0107147
0.297778,-0.0179107
0.385249,-0.00371769
0.104374,-0.0267308
-0.406039,-0.0283991
-0.446598,-0.00668611
-0.219645,0.0154425
-0.0417366,0.0385911
0.193549,0.0379558
0.326032,-0.00565464
0.346696,-0.0403967
0.304543,-0.0717523
0.146473,-0.0650068
-0.109139,-0.0221715
-0.289246,0.0335482
-0.442553,0.0583357
-0.380583,0.0580233
-0.111898,0.0193688
0.120358,-0.00988833
0.183416,-0.0439069
0.141219,-0.0258111
-0.0179081,0.0311577
-0.0978255,0.0424267
0.00452036,0.0264896
0.185067,-0.0234942
0.385251,-0.0201017
0.401912,0.00449506
0.148376,-0.00430464
-0.228434,0.0222407
-0.488713,0.0395702
-0.413568,0.0229289
-0.187311,-0.0310704
-0.113522,-0.0534609
-0.0821247,-0.0187407
-0.0166451,-0.0483917
0.0939521,-0.0527606
0.262524,-0.00489926
0.407952,0.0474293
0.402946,0.0344215
0.181195,0.0174341
0.0575052,0.0277885
-0.133772,0.0374889
-0.325105,0.031585
-0.242735,-0.00270201
-0.148252,-0.0109583
0.0137228,-0.0348466
0.178521,-0.0318801
0.17831,0.00208144
-0.0611878,-0.0264106
-0.322606,-0.0533794
-0.253147,-0.00658362
-0.0435972,0.00678306
0.0773671,0.00915473
0.176495,0.0126002
0.106418,0.0149465
-0.0596705,0.0235243
-0.0614945,0.0183786
0.132105,0.00425643
0.262611,-0.00656733
0.228861,-0.0218106
-0.023039,-0.0236681
-0.29795,0.0302133
-0.149335,0.0359777
0.0848718,-0.0167611
0.0882343,-0.0501713
-0.0259224,0.026765
-0.322001,0.0385445
-0.357418,-0.0127191
-0.0617767,-0.0170928
0.255899,-0.0137422
0.574063,-0.00248439
0.454709,0.0120834
0.191202,0.0149275
0.0401949,-0.00111448
-0.11952,-0.00627667
-0.102652,0.0396129
-0.337797,0.0262682
-0.435299,-0.00224391
-0.166389,-0.00241806
0.0457445,-0.0037997
-0.0302123,-0.0187857
-0.0593118,-0.0173444
0.0684874,0.0204
0.119549,-0.0537877
-0.112508,-0.0374252
-0.248226,-0.0109606
-0.191924,0.010013
-0.0366827,0.0390309
0.0588477,0.0372841
0.0657355,-0.0450474
0.0618265,-0.0687929
0.0127403,0.0142706
0.01693,0.0406978
0.102621,0.0294002
0.113699,0.0088226
0.100696,0.0036529
0.101789,-0.002533
0.106639,-0.0070292
0.172349,-0.013853
0.223082,0.00241113
0.205183,0.0256771
0.255714,0.032821
0.343841,0.0126615
0.0860301,-0.013313
-0.484399,-0.0195
-0.724391,-0.00399221
-0.427253,0.0104955
-0.112108,-0.0117067
0.00864236,-0.0574658
-0.00373609,-0.0417278
0.0151133,-0.00904223
0.07572,0.0259376
0.0508764,0.0240964
0.00614712,0.0338764
-0.026925,0.0330809
-0.102821,-0.0166141
0.038436,-0.0214114
0.216546,0.000620382
0.27037,0.0156604
0.272548,-0.0107447
0.401645,-0.0354564
0.645998,-0.0015217
0.43301,0.0221293
-0.400385,0.0115563
-0.963536,0.0171583
-0.798999,0.0388522
-0.359283,0.0278771
-0.0798234,-0.0599767
0.0729636,-0.0687842
0.351151,0.0203059
0.379911,0.0686277
0.398115,0.0415988
0.13476,-0.00237142
-0.351227,-0.00519482
-0.246774,0.00169221
-0.213373,0.0114092
-0.281268,-0.00103531
-0.0813919,-0.0201073
0.0526827,-0.00895264
0.0164689,0.0124417
0.0758389,0.000384708
0.126963,-0.0246143
0.0162024,-0.0266598
-0.0537598,-0.0135532
-0.0529877,-0.0491157
-0.0583307,-0.0270481
-0.00625732,0.0405675
0.0103187,0.0524432
0.00213056,0.0301465
0.012977,0.00619586
0.0289218,0.0143094
0.0804162,-0.00704614
0.266553,-0.0128408
0.520434,-0.0164079
0.652647,-0.0428463
0.531062,-0.0640029
-0.199049,0.0201696
-0.85371,0.0475795
-0.651597,0.0443332
-0.197477,-0.0210899
-0.0478451,-0.0566024
-0.0990183,-0.013873
-0.138238,-0.0173939
0.0292935,0.0180151
0.348282,0.034228
0.568073,0.0242535
0.517101,0.0201577
0.0181679,0.0313042
-0.567203,0.0287132
-0.721593,-0.012844
-0.259833,-0.0422852
0.209673,-0.0260399
0.324788,-0.0142016
0.137682,0.0161205
0.127597,-0.050914
0.163924,-0.0528749
-0.14068,-0.00781749
-0.381317,0.00556809
-0.17151,-0.0221832
0.155882,-0.00851126
-0.0112782,-0.00815009
-0.154617,0.0168125
-0.0264603,0.0381137
0.0714749,0.0161832
0.0818703,0.00955358
-0.0605315,0.0218305
-0.0273583,0.0265834
0.165884,0.0363926
0.386374,0.0393317
0.436316,0.0249055
0.178072,-0.00312261
-0.074977,-0.0273833
-0.343595,-0.00295397
-0.402565,0.00156897
-0.231695,-0.0242845
-0.0349641,-0.0567567
0.0601074,-0.0109859
0.0310459,0.018547
-0.124783,0.0364366
-0.254741,0.054724
0.026122,0.0669761
0.265155,0.0425767
0.204808,-0.0491709
-0.174529,-0.0783181
-0.392246,-0.0371528
-0.0855892,-0.0332379
0.312209,0.0250327
0.553515,0.0145584
0.335757,0.0107764
0.121235,0.0382444
-0.0572829,0.0163029
-0.0379259,-0.0508592
-0.035195,-0.0935681
-0.293453,-0.0297497
-0.145795,0.0665902
0.187026,0.059259
0.195039,0.00637442
0.0342238,-0.0318072
-0.0163427,-0.127742
-0.054227,-0.0840586
-0.307568,0.0377761
-0.395783,0.0567972
-0.214298,0.0509894
0.0322367,0.0365207
0.140544,0.0175431
-0.0165244,0.00682785
-0.104898,0.00616969
-0.042792,0.00628489
0.0517909,-0.0153445
0.124399,-0.0123555
0.189075,0.0102618
0.280985,0.0266476
0.262619,0.0437251
-0.0750213,-0.0124051
-0.377707,-0.0693431
-0.345405,-0.0834236
-0.165566,-0.0496125
0.0434838,0.0255735
0.223119,0.077445
0.215667,0.0686206
0.0906898,0.0309353
0.134336,-0.065611
0.109283,-0.0969954
0.0971811,0.00207026
0.0940077,0.0291552
-0.124491,0.0284745
-0.3248,0.0397415
-0.226694,0.0432832
-0.0819219,0.00404259
-0.0919468,0.020673
-0.110083,0.023945
-0.0767105,0.012765
-0.0743906,0.00702506
-0.0156887,-0.00549545
0.0749287,-0.0379196
0.181428,-0.0396598
0.299147,-0.0378673
0.295347,-0.0600452
0.261007,-0.0601506
0.408535,-0.0475625
0.675209,-0.012483
0.783822,0.0544265
0.340707,0.0581825
-0.25588,0.0753783
-0.951469,0.067394
-1.29554,0.0404234
-0.818771,-0.00373676
-0.163249,-0.00415825
0.229958,0.0197296
0.243531,0.0145229
-0.139015,-0.0143519
-0.488507,-0.044032
-0.177845,-0.0206827
0.133482,0.0364888
0.121152,-0.0398376
0.10944,-0.127973
0.180503,-0.111013
0.289732,-0.0185958
0.170882,0.09287
-0.207574,0.0720581
-0.346989,0.0474093
-0.209501,0.0262538
-0.0441328,-0.00518997
0.0141315,0.0027499
0.020293,0.0254559
0.197162,0.039371
0.526696,0.0459443
0.758104,0.0548451
0.794969,-0.00135964
0.660527,-0.0522054
-0.166722,-0.0669189
-0.710033,-0.100388
-0.292445,-0.0912067
-0.0788194,-0.0421979
-0.129605,0.0638438
-0.48525,0.148776
-0.752917,0.0416922
-0.155277,-0.0785403
0.381777,-0.0775594
0.337455,-0.0746083
0.00208396,-0.0366157
-0.450503,-0.00374726
-0.273833,0.0245404
0.049551,0.0569791
0.201958,0.0669188
0.507032,0.0198907
0.575848,-0.00906682
0.200525,0.00950787
-0.534769,0.058187
-0.641123,0.063645
0.160466,-0.00558651
0.709506,-0.0233868
0.662029,-0.0136171
-0.117822,-0.0307942
-0.909209,-0.0413815
-0.852097,-0.0332765
-0.180253,-0.0782256
0.54328,-0.0515843
0.998463,0.034625
1.17811,0.0624255
0.371685,-0.00017282
-1.00025,-0.0118776
-1.33453,-0.0064685
-1.06284,0.021314
-0.450749,0.0831936
0.138225,0.049304
0.272223,0.00414502
0.122286,-0.00349201
0.271841,0.0114917
0.408832,0.0213693
0.383686,0.0118837
0.316044,-0.0216642
0.162836,-0.042712
0.32453,-0.0165884
0.3259,-0.00398977
-0.00347514,-0.0452105
-0.112075,-0.104594
-0.247299,-0.0492528
-0.593496,0.0830889
-0.550535,0.100094
-0.378647,0.0911003
-0.262461,0.0647418
-0.0524814,-0.0136622
0.109524,-0.0539775
0.111238,-0.0401284
0.235566,-0.0427225
0.439857,-0.0406692
0.417683,-0.00830044
0.146555,-0.0403576
-0.260821,-0.0944056
-0.36627,-0.120446
-0.241345,0.014093
0.0841137,0.0833238
0.298165,0.0841147
0.151402,0.0616815
-0.0828966,0.0260081
-0.145605,0.0155573
0.00772899,0.030887
0.234552,0.0654017
0.326571,0.0726563
0.199476,0.0473185
-0.0304749,-0.0201892
-0.0765173,-0.0572703
0.504789,-0.0597122
0.822215,-0.079566
0.457075,-0.0562388
-0.415315,-0.0371565
-1.13869,-0.0175211
-0.89177,-0.00186682
-0.392168,-0.0105028
-0.237936,0.0304311
0.0166386,0.0493286
0.272227,0.00526975
0.189588,0.0232086
0.00131912,0.075576
0.198985,0.0719965
0.54809,0.0107841
0.672232,-0.0460639
0.935243,-0.0514054
0.651412,-0.0554243
-0.0948196,-0.0847131
-0.599441,-0.0796604
-1.23146,0.00460585
-1.1433,0.0406393
-0.554639,0.0190135
-0.206956,0.0679002
-0.0929411,0.0818535
-0.0806302,0.039366
0.0621329,0.0188904
0.177091,-0.0216693
0.16274,-0.0289436
0.0367051,0.0521316
0.155087,0.0423515
0.579605,-0.0123844
0.616107,0.017217
0.303931,0.0144313
-0.359589,-0.032705
-0.44157,-0.0818275
0.232636,-0.108736
0.410694,-0.0295966
0.142818,0.00500946
-0.532992,0.0183664
-0.668664,0.0354099
-0.151597,-0.0491046
0.0328483,-0.0492196
-0.0238712,0.0333714
-0.0500253,0.0496923
0.0445886,0.0281442
0.181348,0.0319078
0.178386,0.019925
-0.0105512,0.000913349
-0.244743,0.00964432
-0.278273,0.0185787
-0.0488926,0.0133088
0.29555,0.00991285
0.790925,-0.00546413
1.11686,-0.0306442
0.984802,0.0134031
0.114144,0.00913738
-0.927982,-0.0585558
-0.894285,-0.0486616
-0.522565,-0.0110078
-0.306613,-0.00808154
0.116807,0.0288274
0.326897,0.046834
0.204281,0.0283383
-0.0203506,0.0178826
-0.328067,-0.0272214
-0.300434,-0.0365376
-0.129576,-0.0226599
-0.117934,-0.013846
-0.106581,-0.00290168
-0.102924,-0.00262511
-0.2471,0.0168341
-0.0866989,0.0313778
0.184802,0.0134676
0.263636,0.00621749
0.190843,0.00990023
0.0957322,0.0124961
0.0661649,-0.00689434
0.132125,-0.0544848
0.271666,-0.0421185
0.207771,0.0247512
-0.0292649,-0.0438542
-0.155087,-0.0868719
0.0924892,0.0373594
0.406453,0.0495996
0.363753,0.0473925
-0.167962,0.0566927
-0.32786,0.0726736
-0.057423,0.0446439
-0.128542,-0.0131345
-0.0157351,-0.0943551
0.119019,-0.100476
0.129629,-0.0266338
-0.0207539,0.0368991
-0.30341,-0.00146767
-0.264147,-0.0499914
-0.0888137,-0.0393595
-0.191391,0.0546005
-0.172346,0.0438351
-0.0777042,-0.0304367
0.0227466,-0.0289496
0.127428,0.0109036
0.152145,0.0673638
0.0740447,0.0449426
-0.196809,0.0236308
-0.199996,0.00844679
0.135738,-0.0116431
0.329934,-0.00961297
0.256644,0.00136699
0.00400386,-0.0134688
-0.181656,-0.0447439
-0.193585,-0.0540135
0.182786,0.0142318
0.465266,0.0530449
0.336895,0.0148823
0.062709,-0.00456738
-0.43373,0.0114956
-0.693529,0.0301645
-0.358202,-0.0157194
0.0942198,0.0165596
0.0555275,-0.0171777
0.00425343,-0.0551072
0.0200118,-0.0444994
0.100864,0.00541856
0.119101,0.050125
0.140335,0.059076
0.184202,0.0582422
0.126782,0.0573861
0.129961,0.0224873
0.0757893,-0.0569437
-0.174369,-0.0634197
-0.314788,-0.0154109
-0.263197,-0.022473
-0.166381,-0.0392339
-0.0901134,0.0097128
-0.0436986,0.0442536
0.145282,0.0440684
0.355366,0.0261913
0.416833,0.00191378
0.217955,-0.0959272
-0.0536787,-0.106361
-0.052724,0.00362996
0.0265886,-0.00364364
-0.0787549,-0.0285876
-0.154272,0.0221552
-0.0856771,0.0336755
0.0222775,0.0143222
0.189238,-0.00403087
0.216282,-0.00707145
-0.023023,0.0077373
-0.255537,0.0139039
-0.425537,0.0106516
-0.0772378,0.0116277
0.378534,0.012182
0.187847,0.0323079
-0.154501,0.046242
-0.378572,0.0341449
-0.282123,-0.00110401
-0.0671221,-0.0383157
0.0711654,-0.00857681
0.213238,0.0116465
0.328484,-0.0420857
0.249189,-0.0399431
-0.00975108,-0.00999514
-0.143914,0.0205133
-0.107015,0.00551791
0.0198039,-0.0304541
0.0295327,-0.0445226
0.139247,0.00727952
0.100024,0.0447167
-0.27811,0.011539
-0.343643,0.0546249
-0.195995,0.0465943
-0.00868766,-0.0221676
0.0743735,-0.0532339
0.021062,-0.0383355
-0.03245,0.00572685
0.0450517,0.0217804
0.104556,-0.0295614
0.132369,-0.0492938
0.140983,0.0116432
-0.084459,0.0286409
-0.0891695,-0.00095177
-0.0128038,-0.0128493
-0.111931,0.000467668
-0.0734294,-0.00502668
-0.00480391,-0.00200469
0.294711,0.0244051
0.710301,-0.000155799
0.764867,-0.0231622
0.215946,-0.034441
-0.369845,-0.0661896
-0.28238,-0.00117258
-0.195276,0.0610564
-0.368878,0.057511
-0.487709,0.0798516
-0.361144,0.053086
-0.245498,0.0130484
-0.181292,-0.0145282
-0.0568819,-0.0176892
0.104572,-0.00240567
0.319055,0.00594785
0.486654,-0.0103198
0.406851,-0.0741846
0.0614508,-0.0389866
-0.141516,0.0146436
-0.204906,0.00423525
-0.141017,0.00497221
-0.0626176,-0.0083762
-0.0722937,-0.0187694
-0.0427446,0.0126813
0.071556,0.0244043
0.113293,0.0258638
0.0429668,0.0397509
-0.0167917,0.0183504
-0.0300109,-0.0346439
-0.108113,-0.0429896
-0.115925,-0.00435368
-0.086582,0.0460612
-0.0962412,0.0188246
-0.0600132,0.0240205
0.0954277,0.0330264
0.338019,0.031424
0.48266,-0.00646089
0.480382,-0.0338744
0.252361,-0.0578842
-0.172873,-0.0448572
-0.469029,-0.0300185
-0.385798,0.00558754
-0.113854,0.0280655
0.037926,-0.000896541
0.0987421,-0.0254379
0.0926739,0.00344177
-0.0242339,0.0294089
-0.0466247,0.020604
0.0878725,0.0392503
0.0386124,-0.0724011
-0.324476,-0.125265
-0.343625,-0.057166
-0.107712,0.0111738
-0.00354707,0.0317161
-0.0324652,0.0273414
-0.0128321,0.025287
0.0951351,0.0245517
0.177097,0.0182511
0.162205,0.00951346
0.0793862,0.0122083
0.0262946,0.0190312
0.00691249,0.0203847
0.0611744,0.01083
0.228146,0.00435255
0.0795451,-0.00172551
-0.107536,-0.0215906
-0.225549,-0.0443801
-0.154165,-0.0231421
0.162742,0.0304367
0.253107,0.031021
0.0798626,0.000141952
0.0653413,0.000640212
0.117705,-0.00780195
0.0865148,-0.0239173
-0.172882,0.0285907
-0.381759,0.0127704
-0.225654,0.0242903
-0.0898889,0.0411882
-0.0628799,0.0196289
0.0145279,-0.0167839
0.0229213,-0.0268786
-0.0770988,-0.0068412
-0.139362,0.00357441
-0.176876,-0.0176395
0.0887474,-0.00807208
0.426657,-0.0279919
0.53299,-0.00972805
0.425323,0.00534813
-0.0953671,0.00136942
-0.426296,0.00551781
-0.190838,0.00771807
0.0578056,0.0210403
0.175339,0.0268165
0.0558923,0.0390152
-0.157889,-0.00132818
-0.253385,-0.0442006
-0.2705,-0.0319499
-0.251382,-0.0379053
-0.209885,-0.0220033
-0.159669,-0.00604453
-0.000147421,-0.0555928
0.200458,-0.0548807
0.336205,0.0256271
0.370714,0.0414086
0.238555,0.0285714
0.0690428,0.030119
-0.0573644,0.0141179
-0.130517,0.0165296
-0.0158743,0.00691415
-0.144727,-0.0271941
-0.274347,0.000155671
-0.131108,0.0310467
0.115347,0.00515463
0.372387,-0.013496
0.412134,0.0228423
0.193825,-0.00593689
-0.267159,-0.0555584
-0.591276,-0.00747716
-0.256533,0.0332731
0.12365,0.0393066
0.328497,0.0273863
0.484217,0.00878401
0.433531,-0.0220681
0.146146,-0.0413187
-0.316662,-0.0291031
-0.525803,0.00708836
-0.392504,0.0146251
-0.236013,0.0135935
-0.0224248,0.0170463
0.166828,0.0286806
0.132254,-0.0160652
-0.00169793,-0.0799745
-0.136761,-0.0221504
-0.0903961,0.0291798
-0.0218589,0.0201404
0.0332223,0.00446648
0.0511232,-0.0424607
-0.00359369,-0.0546785
0.0445737,0.0153354
0.223666,0.0822602
0.279625,0.0126284
0.137581,-0.0378211
0.0926964,-0.0104047
-0.024673,0.0714149
-0.207743,0.0747273
-0.0982023,-0.00533514
0.0334263,-0.0790438
-0.0412908,-0.0468423
-0.0593394,0.0189324
0.144745,-0.0185318
0.226451,-0.0505044
0.156775,-0.0606885
0.0380256,-0.00037631
-0.25453,0.0163436
-0.297348,0.0154738
-0.217356,0.0481033
-0.200208,0.0658294
-0.0663002,0.0459229
0.0669416,0.0178552
0.0778416,-0.00577673
-0.00691824,-0.0205296
-0.0482024,-0.0263341
-0.00644245,-0.0142682
0.0369024,-0.00936766
0.118836,0.0228892
0.102902,0.0467251
-0.0664171,0.0464619
-0.144932,0.0418573
-0.0946066,0.0325238
-0.0409271,0.00677511
0.0570816,-0.0404367
0.18795,-0.0848566
0.197232,-0.0382833
0.174657,0.00888488
0.047651,0.0116156
0.0511976,-0.0134488
0.188034,0.00654957
0.20117,-0.00170788
0.0575509,-0.05423
-0.211204,-0.0499697
-0.334586,-0.0106372
-0.104275,0.0209296
0.15212,0.0115894
0.0666169,0.0205669
-0.210071,0.0192303
-0.459001,0.0224975
-0.321801,0.0132467
-0.122572,0.00918927
-0.036504,0.0110645
0.0773321,-0.000410075
0.220105,-0.0162521
0.302877,-0.0205184
0.214676,-0.016898
0.0478185,-0.00511616
-0.044642,0.0282389
0.0257503,0.0291338
0.152541,0.00946736
0.078951,-0.0125586
0.0250744,-0.000767936
-0.0120703,-0.0245869
-0.0672878,-0.0442475
-0.00902598,-0.0458157
0.0106603,-0.0181563
0.096695,-0.0402103
0.198745,-0.0455009
0.0388958,-0.00832298
-0.260285,0.0292559
-0.249766,0.0342896
-0.0289943,-0.0214784
0.015609,-0.00652223
-0.0491435,0.0388369
-0.143317,0.0670954
-0.113196,0.0882202
0.0422033,0.0520459
0.112118,0.00642854
0.0707844,-0.00646465
0.0340087,0.0014192
-0.118872,0.00187844
-0.261993,-0.0253667
-0.16606,-0.0234391
-0.020218,-0.00260246
0.191601,-0.0268872
0.479198,-0.045488
0.520153,-0.0191504
0.335741,-0.0148337
-0.102715,-0.0286655
-0.47831,-0.0226117
-0.403549,-0.0245946
-0.0427342,-0.00850366
0.179094,0.0320426
0.104732,0.0448647
-0.158629,0.0478299
-0.0944763,0.0453763
0.2853,0.0305676
0.445199,0.0187727
0.0917726,0.0206449
-0.622281,0.0216686
-0.532522,0.00969416
-0.186206,0.000262631
-0.0932329,-0.0223
-0.00505095,-0.065296
0.116934,-0.0398617
0.149112,-0.0505105
0.0858877,-0.0368515
0.0537118,0.022004
0.0833982,0.0278802
0.0979689,0.0220211
-0.0742224,-0.000750022
-0.148357,-0.0232584
-0.0799417,-0.0685218
0.00180331,-0.0375188
0.055023,0.0560176
0.171716,0.06104
0.282355,0.0333601
0.279736,0.030687
0.129246,0.0446461
-0.0845293,0.0425164
-0.175738,0.0271109
-0.230124,0.0255843
-0.0659343,0.00822672
0.327562,-0.00533475
0.450955,-0.0581978
0.319733,-0.0694264
-0.0356646,-0.0311349
-0.539995,-0.0761543
-0.557091,-0.0152879
-0.131689,0.0272305
0.182744,-0.0165135
0.424298,-0.0624799
0.387464,0.00230391
-0.0395164,0.0359063
-0.302097,0.014552
-0.436785,0.008411
-0.533537,0.0283692
-0.278854,0.0153736
0.0190473,-0.0246365
0.112229,-0.00611436
0.0716265,0.0322564
0.0374452,0.0206012
0.0180278,-0.00135374
0.0493341,-0.0273332
0.103009,-0.025747
0.121137,-0.0400287
0.064559,0.0138529
0.0379223,0.0189103
0.0848704,0.0420517
0.137444,0.0667277
0.22225,0.0528568
0.192425,-0.0172694
-0.0121776,-0.0537848
-0.230162,-0.017062
-0.272952,0.0120435
-0.0677983,0.00264459
0.10325,-0.0212844
0.110211,-0.0566147
0.0879684,-0.0296657
0.108467,0.00154303
0.0429327,-0.00301991
-0.0723745,0.0269221
-0.138054,0.0482663
-0.198543,0.038302
-0.182877,0.0392407
-0.0395773,0.0111882
0.0667804,-0.0246633
0.0509417,-0.0269048
-0.0293032,-0.0249475
0.016523,-0.0417395
0.144313,-0.022751
0.223902,0.0171145
0.144552,0.0248213
-0.0529389,0.0283322
-0.177157,-0.00250627
-0.152416,-0.0130883
-0.066937,-0.0122184
-0.00841609,-0.00502253
-0.0551945,0.0119413
-0.115595,0.0309139
-0.160042,0.0278024
-0.139431,0.0235836
-0.0179777,0.00518128
0.125306,-0.0141663
0.471993,-0.0481384
0.872789,-0.00688668
1.03366,0.0197843
0.630244,0.000430213
-0.317509,0.00293263
-1.07478,0.00159807
-0.996992,-0.000595006
-0.359404,-0.0251814
-0.000541526,-0.0287925
0.0359316,0.0155506
0.00102035,0.0293037
0.0306602,-0.00400662
0.10548,-0.025426
-0.0384499,-0.00561045
-0.350617,-0.067433
-0.373223,-0.0611443
-0.157811,0.0280935
-0.0544037,0.0314573
-0.0557628,0.0261189
0.0137656,0.0305063
0.161306,0.0254286
0.334613,0.0137596
0.391916,-0.00249877
0.298076,-0.0146295
0.0497787,-0.0198865
-0.0926171,-0.0298685
-0.0383511,-0.0578711
0.00511067,-0.0259055
0.0146458,0.0266189
0.179272,0.0424651
0.357882,0.0321731
0.338694,0.00632767
0.140385,-0.00861982
-0.120717,-0.00683094
-0.191268,-0.00426724
-0.285739,-0.0103378
-0.469876,-0.0168709
-0.338929,-0.000935114
-0.0145942,0.0291276
0.0533548,0.0326486
0.00890785,0.0290965
-0.0130359,0.0346594
-0.0297914,0.0531867
-0.00634961,0.0323584
0.00611918,-0.0120446
-0.0197878,-0.0391383
-0.0468306,-0.0853344
-0.00583666,-0.0420623
0.0342194,0.0119055
0.105489,0.0191892
0.155197,0.00572434
0.0741861,0.00653263
-0.0149186,0.0210869
-0.0488621,0.0161161
-0.026024,0.00478459
0.187373,-0.0202865
0.414593,-0.034182
0.351254,-0.000207617
0.0820296,0.00526201
-0.266421,0.00287274
-0.372011,0.0102057
-0.0281945,0.00113896
0.190499,-0.00118573
0.0994287,-0.00830119
-0.109159,0.00634096
-0.347648,-0.0015047
-0.271821,-0.0144272
-0.141456,-0.0113705
-0.153918,-0.0145386
-0.111783,-0.0491043
0.0576142,-0.0606549
0.171037,-0.00188314
0.143583,0.0447353
0.100066,0.0456011
0.10712,0.0403879
0.164607,0.0381982
0.195097,0.024528
0.0465961,0.0136027
-0.178874,0.0194327
-0.316149,0.0146744
-0.312842,0.0232444
-0.156675,0.00997208
0.0203472,-0.0483339
0.0968375,-0.0453642
0.217354,-0.0127935
0.515515,-0.082718
0.587672,-0.0634112
0.405651,0.012882
0.262047,0.0527281
-0.220723,0.0628739
-0.439316,0.0361926
-0.519634,0.0159991
-0.310306,-0.00898934
0.111546,-0.0405913
0.158601,-0.0222573
-0.0538957,-0.00035648
-0.213576,0.0152892
-0.414412,0.00282326
-0.31595,-0.014108
-0.0413953,-0.00255812
-0.00227941,0.00433932
-0.0537475,0.00473174
-0.0567816,-0.0108461
0.00575755,-0.024816
0.0918762,-0.0154363
0.077532,0.00370435
0.0728595,0.0252491
0.25986,0.0353294
0.422404,-0.00133059
0.40094,0.00951667
0.0782194,0.048618
-0.169361,0.0410175
-0.0499174,0.0487039
-0.00733702,0.0438762
-0.133733,-0.0531692
-0.0979366,-0.0886852
0.0844375,-0.0514198
0.126206,-0.0496469
0.0948525,-0.0412696
-0.0514009,-0.0291296
-0.049686,-0.0565729
-0.0291354,-0.034546
-0.148576,-0.00713784
-0.285538,0.020471
-0.252084,0.0403835
-0.105791,0.0177609
0.0173299,-0.0102721
0.103062,0.0497685
0.114136,0.0689397
0.103255,0.0387467
0.0568602,0.0410004
0.0274983,0.0378742
-0.0172194,-0.0097594
-0.0629193,-0.031035
-0.0495516,-0.0194067
0.0522526,0.00636726
0.19737,-0.0133769
0.221612,-0.0243539
0.0840817,0.0214495
-0.184406,0.002504
-0.294576,-0.00453915
-0.150499,0.00732038
-0.0217409,0.0131994
0.0362305,0.00294243
0.0538093,-0.000505451
0.0430826,0.00565101
0.0325488,0.0122269
0.117598,0.0154798
0.18518,0.0104629
0.14647,-0.00532419
0.146782,-0.0187472
0.137916,-0.0182924
0.118807,-0.0247498
0.128265,-0.00765507
0.242454,0.0124749
0.346734,0.00714434
0.198651,0.0165062
-0.454881,-0.00918507
-0.764839,-0.00120962
-0.47086,0.00654673
-0.236965,0.00633181
-0.229091,0.0342451
-0.179826,0.027318
-0.0145621,0.0183008
0.0687274,-0.0199296
0.0740931,-0.0695269
0.0614898,-0.123187
0.115307,-0.104503
0.0936965,-0.0100532
0.0482632,0.0189129
0.0122924,0.00118416
-0.163236,-0.00795195
-0.137495,0.00103361
0.122502,0.0176556
0.245103,0.0187027
0.253736,0.0214934
0.135953,0.0323098
-0.0322926,0.0229792
-0.00611029,-0.00206269
0.0890495,0.00274863
0.108032,0.0414268
-0.045498,0.0502604
-0.23559,0.0307671
-0.207849,0.00790746
-0.103851,-0.00697898
0.017011,0.0154058
0.16559,0.0326481
0.285575,0.0082763
0.16302,-0.000158209
-0.20613,0.0089263
-0.246055,0.0125307
0.0218278,-0.00485994
0.158623,-0.0446471
0.144963,-0.0825362
0.116586,-0.076394
0.0298475,-0.0454188
-0.0948439,-0.00756994
-0.22337,0.0404188
-0.151689,0.0331301
-0.0348856,0.0125632
-0.013807,0.0111547
-0.0408222,0.0104356
-0.1125,0.0181149
-0.174367,0.0213137
-0.0954283,0.0203028
0.0379622,0.0016297
0.0929977,-0.0314336
0.10314,-0.0403764
0.0453429,-0.0235569
0.0104995,-0.00837407
0.029768,0.00672767
0.022348,0.0097683
0.0444258,0.00017135
0.170806,0.00830127
0.414208,0.034404
0.513795,0.0406256
0.267428,0.0120676
-0.173585,-0.0296189
-0.442322,-0.0339024
-0.334183,0.00166357
-0.150073,0.0123537
-0.102819,0.0249836
-0.108575,0.0111679
-0.0136041,0.00206045
0.00804328,-0.0470339
-0.0733611,-0.0732026
-0.0864611,-0.0520192
-0.0565688,-0.0130274
0.0281854,0.0476468
0.128808,0.0630023
0.23295,0.0692601
0.315002,0.0821675
0.291333,0.0965131
0.0162222,0.0514704
-0.476185,-0.0323568
-0.57743,-0.0616905
-0.26388,-0.0511438
0.0716935,-0.0313322
0.139871,-0.0187779
0.0290997,-0.0162566
0.0117288,-0.0154337
0.0229198,-0.0597501
0.0605229,-0.0363733
0.217041,-0.0111999
0.565486,-0.0132889
0.71483,0.00410765
0.331043,-0.0106772
-0.349672,-0.0073339
-0.892509,0.0274369
-0.797436,0.0427748
-0.301121,0.00510941
-0.0275837,-0.0412768
0.0793007,-0.013032
0.115459,0.0322755
0.126101,0.050438
0.146562,0.0356898
0.0978679,-0.0011069
0.0167489,-0.0410633
-0.0118064,-0.0503046
-0.0125869,0.0177304
0.0314945,0.0289955
0.0585817,0.000689565
0.0792148,0.00406316
0.0628737,0.00616062
-0.00937581,0.00660071
-0.0558169,0.00308098
-0.00886051,-0.00534683
0.0362552,-0.00244612
0.0284685,0.0149609
0.0316259,0.0201683
0.0400137,0.00481362
-0.00518397,0.0153991
-0.0876168,0.0242788
-0.0818878,0.0139393
-0.00201949,-0.00264951
0.102561,-0.0210003
0.31621,-0.016604
0.383195,0.00278427
0.327514,-0.0240635
0.0405389,-0.0230104
-0.298817,0.019459
-0.252279,0.00626911
-0.184587,-0.072607
-0.0454281,-0.101644
0.0507181,-0.128881
0.151332,0.00350532
0.17915,0.0473913
-0.0665046,0.0481893
-0.386972,0.0664964
-0.451139,0.0524161
-0.305052,0.0301803
-0.122188,0.0161366
0.0346488,0.0153883
0.28222,0.001807
0.469703,-0.0131025
0.335479,-0.0274098
0.0612087,-0.0290053
-0.305235,-0.0155752
-0.37574,0.010919
-0.0985094,0.024995
0.113203,0.0241577
0.0953811,0.030491
0.0375109,0.0113244
0.0564902,-0.0689802
-0.0227294,-0.0408718
-0.114297,0.0375342
-0.112408,0.0443048
-0.0751068,0.0296289
-0.0205174,0.0133074
-0.0168861,0.00411935
-0.0356351,0.001214
-0.0315505,0.0132575
-0.00855592,0.0223683
0.0331815,0.0207981
0.0534076,0.0101955
0.0596404,-0.00241247
0.119448,-0.0166278
0.203422,-0.0236354
0.248207,-0.0235344
0.211278,-0.0268532
0.0428851,-0.0182834
-0.168146,-0.00715867
-0.202918,-0.0100106
-0.0795217,-0.0146908
0.146632,-0.00756766
0.246887,-0.00854851
0.133778,0.000882478
-0.0943104,0.0402436
-0.259258,0.0408485
-0.272364,-0.00312286
-0.198806,-0.0354143
-0.144256,-0.0173326
-0.0708356,-0.019718
0.0695583,-0.0289337
0.263625,-0.0108651
0.324799,0.0116216
0.214407,0.00910838
-0.011361,-0.0351155
-0.163518,-0.0218517
-0.105045,0.0195428
-0.110454,0.0202285
-0.139015,0.00592037
-0.0900637,0.0146628
0.112594,0.0151658
0.191748,0.0043433
0.138264,0.00368366
-0.0209204,0.0144848
-0.184661,0.0140341
-0.138559,0.00821554
-0.1482,-0.00352642
-0.235257,0.00568308
-0.0711487,0.02457
0.204283,0.0157998
0.318461,-0.0200906
0.29642,-0.0286268
0.0738268,0.0134942
-0.0416241,0.0192415
-0.0473534,0.00792976
-0.150278,0.0349433
-0.109789,0.0161246
-7.41e-05,-0.0344241
-0.00438658,-0.0376852
0.0103187,-0.048832
0.145232,-0.0323056
0.211192,0.0061516
0.0458199,-0.0177532
-0.151151,-0.000119715
-0.234989,0.0347666
-0.29298,0.0192596
-0.218239,0.0148209
0.0186997,0.0168992
0.190645,-0.0176266
0.189499,-0.016059
0.00216167,-0.00463036
-0.186549,-0.0178331
-0.152907,0.019651
-0.0230662,-0.00115349
0.0173094,-0.0417049
0.0662495,-0.022129
0.168373,0.0238599
0.134062,0.0207407
0.0270828,-0.00307631
-0.12184,-0.0277935
-0.135765,-0.00341764
-0.000184229,0.0121973
0.0756939,0.00843935
0.109422,0.0268721
0.168778,0.0237311
0.221403,0.0165625
0.171036,0.0263496
0.0019295,0.0262335
-0.0904195,-0.00874576
-0.10876,-0.0376369
-0.137675,-0.0242771
0.00662935,-0.00663916
0.213298,0.0109425
0.326632,0.012593
0.199234,-0.0132364
0.0167432,-0.0124938
-0.235035,-0.00743485
-0.359434,0.00693744
-0.319434,0.0323745
-0.350617,0.0405332
-0.200963,0.0361632
-0.0183198,0.0205606
0.0508136,0.00129364
0.0211529,-0.0014034
0.0151373,-0.0291608
0.0417751,-0.0511212
-0.00363386,-0.00912233
-0.011942,0.00992423
0.118233,0.00589452
0.325539,0.0100816
0.478317,-0.0330223
0.372493,-0.0423538
0.144157,0.00573147
-0.0537789,-0.0989424
-0.331487,-0.0848074
-0.357623,0.0226943
-0.267495,0.0363663
-0.171111,0.0162957
-0.0844985,0.0268943
-0.0501034,0.0230794
0.00459867,0.0086502
0.00532642,-0.0138076
-0.024699,-0.00162485
-0.0131713,0.0180242
0.0811224,0.0427403
0.145838,0.0182736
0.152638,-0.0259111
0.0730823,0.0198019
0.0335358,0.045339
0.34317,0.0204365
0.439357,0.00555881
0.10182,-0.0129677
-0.413476,-0.0114267
-0.570899,0.00732221
-0.178252,0.00660414
0.102821,-0.000171916
0.173588,-0.00173312
0.103342,0.000568451
-0.0936422,0.00366201
-0.0525781,0.0115184
-0.00766108,0.00844025
-0.0460579,0.0179784
-0.126441,-0.0389477
-0.302159,-0.116044
-0.319774,-0.0801065
-0.17745,0.0371695
-0.0845012,0.0678066
0.119287,0.037847
0.573768,0.0195294
0.893745,0.007686
0.710992,0.00301751
0.130871,0.00676316
-0.674945,0.0073878
-0.771537,0.00379752
-0.216501,-0.00848944
0.17869,-0.0152499
0.244969,-0.020066
0.0788572,-0.0337101
-0.160459,0.00219253
-0.195972,0.0145646
0.00632092,0.00451311
0.0085581,-0.00939064
-0.0880199,-0.00175711
-0.171467,0.0154512
-0.138338,0.0113005
0.0803231,0.0023649
0.0709273,-0.00594141
0.0150293,-0.0126406
0.0305745,-0.0172716
-0.0033172,-0.0314656
0.0241725,-0.0399142
0.120092,-0.00212745
0.246681,0.0116143
0.261651,-0.00144768
0.118525,0.00634754
-0.176974,0.0337549
-0.380274,0.0590624
-0.270352,0.0553735
-0.131285,0.0120601
0.00903133,-0.0100573
0.145338,0.00525833
0.277933,-0.00152709
0.394821,-0.0414016
0.288531,-0.0849746
0.113229,-0.0508594
-0.135371,0.0347738
-0.286289,0.0477541
-0.0332966,0.0515483
0.0844912,0.0428547
-0.0460335,7.93e-05
-0.131912,-0.0259318
-0.1813,-0.0254134
-0.181361,-0.0217945
-0.102773,-0.00776586
-0.0915186,-0.00103466
-0.0813757,-0.000697714
-0.0245497,-0.00375064
0.0333314,0.000849284
0.0517497,-0.00111591
0.0419476,-0.0343489
0.0417969,-0.0471353
0.0534601,-0.0240435
0.0729848,0.0249883
0.0668614,0.0381051
0.0266347,0.0145585
-0.00325283,0.00946602
0.0222313,0.00434682
0.129449,-0.0072952
0.23617,0.00474351
0.215424,0.029281
0.0850106,0.0238658
-0.0893635,-0.00528009
-0.138977,-0.00947935
0.159415,-0.0189211
0.403727,-0.0205552
0.230218,0.0131827
-0.163936,0.0199545
-0.520897,-0.00595087
-0.532034,0.0131056
-0.282221,0.00779688
-0.0595986,-0.0254439
0.0560368,-0.0168207
0.0461072,-0.00400952
-0.0712697,0.00181139
-0.114425,0.00651181
-0.0716927,0.0106284
-0.0830728,0.0177286
-0.0690917,0.029649
0.0183983,0.0278279
0.156699,0.00909842
0.235746,-0.0101073
0.242384,0.0015729
0.120401,0.0117064
0.0241395,0.00892569
0.171879,0.00695946
0.249434,0.00103091
0.19637,-0.0299122
0.162311,-0.0732138
-0.143759,-0.0787799
-0.381873,-0.0551548
-0.279494,0.0316058
-0.176004,0.0388955
-0.0364688,-0.0214705
0.0803942,-0.0172247
0.114477,0.0530083
0.0128959,0.0469356
-0.250963,0.0106006
-0.374429,0.00243017
-0.203307,0.0122979
-0.0471694,0.020108
0.0707749,0.0156363
0.140408,0.0153346
0.13503,0.0117573
0.0888961,-0.000892619
0.00962433,-0.00959206
-0.000206068,-0.00974553
0.0919528,-0.0155216
0.197792,-0.0127383
0.191034,0.00652258
0.168232,0.0103613
0.0120455,-0.0200151
-0.21708,-0.0436912
-0.0264436,-0.0267144
0.359704,-0.012557
0.462213,0.000961655
0.189136,0.0189623
-0.368757,0.0123958
-0.597238,-0.0115222
-0.16991,-0.0266197
0.187474,-0.049439
0.155786,-0.0148667
0.000383084,-0.000356715
-0.140403,0.0126944
0.0365463,0.0268062
0.312645,0.0371176
0.17528,0.0523038
0.0661148,0.0639644
-0.140628,0.0500754
-0.433661,0.0050435
-0.322311,-0.03392
-0.400863,-0.0545538
-0.400253,-0.0322793
-0.0685484,0.0104735
0.167753,0.000540299
0.222308,-0.00325694
0.208487,0.00461596
0.186126,0.0178922
0.197323,0.0121645
0.184598,-0.0138044
0.0899611,-0.00955309
-0.121833,-0.00747838
-0.296733,-0.00256642
-0.204903,0.00443834
-0.035533,-0.00517986
0.0654867,-0.0155445
0.0833341,-0.00183851
0.0535333,0.00912794
0.029628,0.00783688
0.0291431,0.0106845
0.076892,0.0129886
0.129275,0.009508
0.13554,-0.0042008
0.071786,-0.0134572
-0.00233115,-0.0183278
0.0289383,-0.0277245
0.0995786,-0.0385056
0.125974,-0.0298716
0.0370285,-0.036234
-0.138032,0.00431456
-0.245861,0.0239553
-0.176332,0.0214824
-0.0486068,0.0219616
0.0109043,0.0204497
-0.00308207,0.014338
-0.0221836,0.0110427
-0.00703988,0.0143376
0.0357106,0.0163107
0.0552825,0.020552
0.0180216,0.0283244
-0.0245386,0.0239341
-0.0541119,0.0102898
-0.0591463,0.000471259
-0.0241445,-0.00230294
0.0262276,-0.00999555
0.0385249,-0.0146555
0.00640132,-0.0111609
-0.0144767,-0.00467315
-0.0168158,-0.0244949
-0.011736,-0.0309609
0.133043,-0.0126315
0.318126,-0.0113155
0.392499,-0.00627972
0.439324,-0.00321742
0.241668,-0.00626783
-0.0944465,-0.0135404
-0.332279,0.000110331
-0.613748,0.00405567
-0.517201,0.00294644
-0.202696,-0.0052473
-0.0410658,-0.0077007
-0.0424034,-0.0146471
-0.103006,-0.00670915
-0.121685,0.0155517
-0.0942301,0.0308359
-6.55e-05,0.0186751
0.17125,-0.025413
0.212847,-0.0192382
0.133931,-0.00298005
0.00154159,0.0114218
-0.131117,0.015979
-0.0407017,0.0117418
0.220642,0.0186434
0.372648,0.0318701
0.330631,0.00695964
7.38e-05,0.00353997
-0.317671,-0.00279926
-0.327965,-0.0444263
-0.158916,-0.036781
0.096648,0.001675
0.406054,0.0331344
0.62529,0.051618
0.460454,0.00808499
-0.0424729,-0.0172924
-0.515626,-0.0255989
-0.397433,-0.0333186
-0.143382,-0.0193288
-0.171137,0.0130795
-0.204669,0.00384382
-0.284325,0.01263
-0.213764,0.00257191
-0.0642075,-0.026542
-0.00518932,-0.0234356
0.0707631,-0.00591608
0.152949,-0.0133146
0.138764,0.00521951
0.0722696,0.028647
0.000617121,0.00874958
-0.0655547,-0.00309472
-0.0254313,-0.0140802
0.0795786,-0.0189327
0.0737722,0.0251396
-0.0158402,0.0550446
0.0130279,0.0412645
0.0788719,0.00976292
0.183673,0.00271353
0.359431,0.00900923
0.460907,-0.00634375
0.338726,-0.0140783
0.0660125,0.00655655
-0.119959,0.0280331
-0.292137,0.0292485
-0.38081,0.0127555
-0.376463,-0.0347798
-0.295872,-0.0825521
-0.13063,-0.0339229
-0.0391144,-0.0139811
-0.0251092,-0.0213153
-0.114018,-0.00652325
-0.127491,0.0342529
-0.00321321,0.0449317
0.105568,0.0225406
0.149548,0.0168118
0.200835,0.00265978
0.249203,-0.014848
0.23386,-0.0180812
0.144199,-0.0157435
-0.0908555,-0.0179857
-0.193499,-0.00861938
-0.117537,0.00266666
-0.0808705,0.00782463
-0.0372532,0.000729353
0.0341256,0.0124956
0.0801507,-0.0072162
0.0197523,-0.00323096
-0.0674566,0.00831225
-0.0824778,0.00844997
-0.0245397,0.00642193
0.0753611,-0.00387524
0.216243,-0.013458
0.257903,0.000257174
0.146444,-0.00608334
0.0674722,-0.0267647
-0.118478,-0.0158671
-0.153552,0.00400699
-0.035283,0.00400775
-0.0268487,0.00325128
-0.000563784,0.00971377
-0.033894,0.0180116
-0.205039,0.0325173
-0.261101,0.033046
-0.158733,0.00822753
-0.103575,-0.0143545
-0.0364708,0.012348
0.119089,0.0329441
0.305748,0.0198633
0.304152,0.000876873
0.137016,-0.0132844
-0.130436,-0.0525111
-0.233302,-0.0764735
-0.160104,-0.0225038
-0.0822898,0.0066669
-0.0252146,0.00827018
-0.022715,0.00578882
-0.0318223,-0.0462622
-0.0238723,-0.035831
0.0135024,0.0212522
0.0635958,0.0194702
0.0874475,-0.00587662
0.25421,-0.0457968
0.433551,-0.0333679
0.335008,0.0143572
0.0963854,0.0708908
-0.178398,0.065566
-0.134804,0.032531
0.079165,-0.0345319
0.085114,-0.0302881
-0.0327197,-0.00862924
-0.241143,0.00503626
-0.261107,-0.012048
-0.23649,-0.000521194
-0.30964,0.0258347
-0.12277,0.0288572
0.129325,0.0255252
0.144172,0.0159457
-0.0495238,0.00455576
-0.215089,-0.0127359
-0.244393,-0.00210115
-0.126308,-0.00705597
0.00536326,0.00444088
0.0480746,0.00575145
0.0750023,-0.0058818
0.0820246,-0.00652469
0.102751,0.00120763
0.128438,-0.00369635
0.112187,-0.00489882
0.094861,-0.00637184
0.0940816,0.00556103
0.0789176,0.0181223
0.0895611,0.00980311
0.0608376,-0.00864853
-0.0319213,-0.0121367
-0.0853619,0.00323363
-0.0675824,0.0206801
-0.0237343,0.0190707
0.0193027,0.0102588
0.0109481,0.0141372
-0.0214538,0.00750424
-0.030644,-0.00652952
0.0158406,-0.0185768
0.0592521,-0.0326473
0.0645329,-0.0529016
0.0355661,-0.0494324
-0.0127004,-0.0304183
0.0697727,0.0118735
0.248728,0.017794
0.260179,-0.00958054
0.127626,-0.0403594
-0.132245,-0.0120951
-0.260721,0.0172655
-0.271915,0.0196584
-0.219446,0.0146376
-0.0587194,0.0163891
0.0372347,0.0146733
0.0395305,0.0091483
0.0275361,0.00478667
0.121247,0.00594974
0.18247,0.00321632
0.0834125,0.00947455
-0.0185349,0.0139188
-0.08413,0.0181572
-0.0214861,0.0200668
-0.0627835,0.00740558
-0.215636,-0.0354226
-0.183669,-0.0541162
-0.140145,-0.0053764
-0.0843638,0.0382206
0.0129644,0.0253095
0.07201,0.0119818
0.143515,0.0109313
0.276746,0.0106498
0.282482,-0.00387906
0.134024,-0.0352082
-0.0701718,-0.0411872
-0.198732,-0.000273988
-0.222035,0.0238319
-0.207443,0.018499
-0.111218,0.0155845
0.0442112,0.0154908
0.134426,0.0318036
0.13379,0.0109421
0.0914369,-0.0468375
0.0572437,-0.0383646
0.0767665,-0.0111434
0.00445544,-0.00997274
-0.213075,-0.00538182
-0.238935,0.010332
-0.138385,0.021575
-0.0649244,-0.0019055
0.0264196,-0.0228726
0.110421,-0.0202799
0.100579,-0.0172183
0.038467,-0.00462432
0.00947353,0.00711611
0.0205467,0.0106904
0.058367,0.00953483
0.0782753,0.0101176
0.0540744,0.00470919
0.0177718,-0.00446949
-0.0183449,0.00765204
-0.051967,0.0241064
-0.0215998,0.0230661
0.0383211,0.0193586
0.0565415,0.0129123
0.00641154,0.00300004
-0.0284559,-0.0028497
-0.0228874,-0.00727673
-0.02051,-0.00770745
-0.0129925,-0.0117772
-0.01436,-0.00578145
-0.022952,-0.00616861
0.00985567,-0.0280619
0.0514415,-0.0121889
0.0665877,0.0128985
0.0577356,-0.000529404
-0.0268576,-0.00912481
-0.117202,0.00204538
-0.108059,0.0172574
-0.0124186,0.00113422
-0.00877311,-0.0460282
-0.0342014,-0.0326764
0.0646632,0.0014131
0.158317,0.00266851
0.178543,0.00363099
0.103438,0.00256232
-0.0764074,-0.0066741
-0.17938,-0.00946467
-0.122014,0.0173471
0.135715,0.0385175
0.463862,0.0372455
0.493584,0.00685992
0.194991,-0.0128994
-0.305576,0.0197954
-0.527617,0.0343396
-0.295339,0.0249529
-0.0843873,-0.00311243
-0.140876,0.00230476
-0.205628,0.00629599
-0.00844979,-0.0402006
0.109015,-0.108634
0.121044,-0.0671205
0.00172225,0.0125901
-0.133609,0.0211675
-0.164168,0.0219666
-0.194448,0.0237232
-0.127389,0.0188598
-0.0499654,0.0136649
0.00813886,0.00213333
0.0590064,-0.00628915
0.0806739,-0.00280984
0.0547885,0.00432282
0.028443,0.00752191
0.08546,0.0182877
0.306327,0.0154321
0.551353,-0.00632532
0.561175,-0.0187005
0.185151,0.00302836
-0.290741,0.0127637
-0.44993,-0.012149
-0.334886,-0.0172571
-0.0332887,-0.000426342
0.21463,0.00534831
0.210417,0.00316609
0.0125733,-0.00507928
-0.252937,-0.0124256
-0.256008,-0.0120695
-0.146516,-0.00132648
-0.12794,0.0102569
-0.097971,0.0127646
-0.0459295,0.015359
-0.00696254,0.0212336
0.0162292,0.0191743
0.0215197,-0.00919459
0.0152463,-0.0220483
0.0524161,-0.0137107
0.105696,-0.0071307
0.114402,0.00622694
0.0589945,0.0112504
0.0144016,0.0113395
0.0274232,0.00710464
0.0937927,-0.00193049
0.188261,-0.00986798
0.212578,-0.0133098
0.126243,-0.030028
-0.0396465,-0.06761
-0.202567,-0.0265375
-0.242245,0.0572213
-0.114043,0.0408489
-0.0322407,0.0120073
-0.0346385,0.00449573
-0.0538365,-0.0189843
-0.0449802,-0.0390014
-0.0138617,0.00335473
-0.00317103,0.0331211
0.024506,0.0385453
0.064175,0.0348403
0.0683265,0.0135582
0.0731473,-0.0219518
0.0229076,-0.0289421
-0.0377598,-0.0146176
-0.00980892,0.00962337
0.0951829,0.0197268
0.211861,-0.00593183
0.287162,-0.0176531
0.137065,0.000573485
-0.190508,0.00269484
-0.378201,-0.00127822
-0.31496,-0.0200287
-0.116977,-0.02085
0.0330882,0.00780015
0.124822,0.0148415
0.110646,0.0139471
0.00222515,0.00561226
-0.0434283,-0.00460463
-0.137399,-0.0153414
-0.163,-0.0178922
-0.0154251,-0.0134549
0.198789,-0.00147924
0.325555,0.00443775
0.252582,0.0156658
-0.00645121,0.0183377
-0.238405,0.00784135
-0.220238,0.012208
-0.114778,0.0251814
-0.0642233,0.0198413
-0.0953102,0.00807776
-0.0880685,0.0075811
-0.0157495,0.0104656
0.0137212,0.00625871
0.0384327,-0.00405842
0.0676053,-0.0214993
0.0753875,-0.0410517
0.0762222,-0.0464601
0.0294642,-0.0454542
-0.0668391,-0.00606717
-0.074588,0.0285285
-0.0163059,0.0147096
0.0227615,0.0088473
0.036198,0.0103727
0.146317,0.0118145
0.389892,0.0161331
0.449163,0.0088048
0.252396,0.000832416
-0.186344,-0.00069148
-0.479437,0.00192043
-0.278683,0.00142126
-0.0987526,0.000442827
-0.059741,-0.0106342
-0.0265819,-0.051553
-0.022258,-0.0384112
-0.0611755,-0.0191808
-0.0864475,-0.00747968
-0.0755327,0.0147099
-0.0268725,0.0221673
0.0368459,0.0235142
0.0530254,0.015847
0.0597832,0.00759796
0.116569,0.00611707
0.159354,0.0101796
0.156852,0.0169779
0.104245,0.0135409
-0.0427944,0.00622747
-0.158626,0.00306079
-0.114705,-0.00845608
-0.040546,-0.0274776
-0.00943157,-0.020433
-0.0150684,-0.000340263
-0.0461583,0.00619537
-0.0574121,0.000837102
-0.0150771,-0.00542956
0.0681843,-0.00735386
0.198371,-0.0115894
0.210477,-0.00220768
0.0782208,0.00295688
-0.0860868,0.00224164
-0.279994,0.00491099
-0.152147,0.0029963
0.175703,0.000278769
0.256298,-0.000738426
0.109907,-0.00262629
-0.143864,0.000425486
-0.300486,-0.00508647
-0.173673,-0.0110986
-0.055776,-0.00854409
-0.0525569,0.00240351
-0.115583,0.012073
-0.08494,0.0228661
0.0950441,0.025459
0.370087,0.0182897
0.62638,0.00923924
0.600124,0.00282231
0.268697,-0.00319297
-0.219386,0.00470775
-0.524484,0.00105478
-0.448337,-0.00516833
-0.330053,-0.00139815
-0.239908,-0.000578617
-0.168983,-0.00294449
-0.0473844,-0.00618967
0.0311024,-0.00861163
-0.0112841,-0.0101105
-0.045351,-0.0111031
-0.0219141,-0.0142756
0.0199558,-0.0143347
0.0282622,-0.00199874
-0.00429476,-0.000279141
-0.0262916,-0.00368482
0.00951856,-0.00037186
0.0834226,0.0053461
0.14327,0.00869992
0.143905,0.0137702
0.10156,0.0143599
0.0802056,0.00619665
0.0987749,-0.00186984
0.113507,-0.00834883
0.0848507,-0.00943859
0.0166016,-0.00225508
-0.0536135,0.0048191
-0.0762218,0.0062163
-0.047517,0.0118329
-0.0172205,0.0119272
0.0313781,-0.00606136
0.106474,-0.00787672
0.0953276,0.00567113
0.077607,0.011869
0.00474426,0.00963156
-0.0884661,0.0119685
-0.0814839,0.0127389
-0.109434,-0.00967165
-0.107823,-0.00282757
-0.0041458,-0.00713507
0.0444731,-0.0253865
0.0143802,-0.0228906
-0.0367567,-0.0227414
-0.0745103,-0.00472486
-0.0740641,-0.00280481
-0.0446841,-0.00129769
-0.0353467,0.0103385
-0.0516565,0.00940007
-0.0165191,-0.000224322
0.058977,-0.000699048
0.112109,0.00279558
0.0932312,0.00157199
-0.0331888,0.00539112
-0.0723819,0.00774693
0.0446854,0.000140653
0.112049,-0.00121359
0.125793,-0.00519468
0.0800251,-0.0139333
-0.0269111,-0.0111221
-0.0446767,-0.00167202
-0.00638437,0.00523602
0.0014399,0.0105655
-0.050711,0.00755837
-0.202372,0.00448204
-0.267575,0.00287527
-0.186723,-0.000958473
-0.100303,-0.00200292
-0.0126211,-0.00229904
0.0767466,0.0014989
0.224412,0.00584724
0.404701,0.00551022
0.457358,-0.0043405
0.355519,-0.0155563
0.0225053,-0.0177126
-0.193289,-0.0117824
-0.219356,-0.00321944
-0.207341,0.0103458
-0.0205278,0.0186854
0.099269,-0.000345777
0.108955,-0.0147329
-0.0794645,0.00148479
-0.37988,0.00361435
-0.436714,0.00247281
-0.258974,0.0051131
-0.0426623,0.00706434
0.0870883,0.0172259
0.0937906,0.00443371
0.0554663,-0.020559
0.0146873,-0.0199998
0.0120338,6.43e-06
0.0572752,0.00393693
0.0894651,-0.0068521
0.0743658,-0.0104948
0.0357218,0.013199
0.00286191,-0.00970819
0.00911555,-0.011422
0.0187468,0.01115
0.0222119,0.0134536
0.0615092,0.00586185
0.121171,0.00523908
0.184873,0.00399154
0.16304,0.00264043
0.0514216,0.00864942
-0.00230094,0.0215528
0.0158699,0.0242767
0.0435297,0.0115676
0.0199499,-0.00293724
-0.132298,-0.013436
-0.245158,-0.0142032
-0.209809,-0.00557828
-0.102158,-0.00327306
0.0927813,-0.00400719
0.19162,0.00696315
0.176663,0.0096676
0.00504644,0.00478747
-0.225754,0.00175273
-0.164826,-0.0113421
-0.130115,-0.00662202
-0.148782,0.00432624
-0.0422474,0.0110718
0.0374152,0.00248505
0.0197476,-0.00664369
0.0156771,-0.00898466
0.0493837,-0.00237428
0.082158,-0.00501049
0.0809168,-0.00861324
0.0362596,-0.00759333
-0.00892644,-0.00552839
-0.0146946,-0.00304494
0.0119452,0.00240274
0.0278022,0.00664583
0.0100662,0.00339926
-0.0262924,0.000469496
-0.0542567,0.00394506
-0.0306018,0.00738734
0.0193733,0.00804029
0.0450915,0.0097069
0.0528865,0.0113833
0.0585186,0.00760305
0.0914881,0.00254242
0.122666,-0.0114829
0.114857,-0.0237733
0.0458739,-0.0203933
-0.0430238,-0.0145326
-0.0573886,-0.0155858
-0.0516489,-0.0133054
-0.0601104,-0.00876657
-0.0751138,-0.00811536
-0.0636848,-0.00913201
-0.0603775,-0.00402628
-0.0423523,0.0118779
0.00504508,0.0230659
0.0496978,0.0261322
0.0556405,0.0262669
0.0260451,0.023104
8.89e-05,0.013634
0.00281042,0.00638326
0.024644,-0.000400088
0.0255783,-0.00323391
-0.0091043,0.000673128
-0.0529281,0.00213377
-0.0621429,-0.00511002
-0.0364452,-0.0116307
-0.000632424,-0.0131993
0.00537917,-0.030515
-0.0124718,-0.0576748
-0.0238472,-0.0166326
-0.00146051,0.00721755
0.034586,0.010678
0.0432587,0.0202893
0.0249943,0.0285741
-0.00173863,0.0229305
0.00176205,0.00722894
0.0383276,-0.00301156
0.0470304,-0.00893549
0.027895,-0.00944571
-0.0177145,-0.0013664
-0.101479,0.00815479
-0.119629,-0.00249792
-0.05519,-0.0158816
-0.00326901,-0.0120474
0.0420292,-0.004277
0.0543509,0.00460377
0.0648146,0.00254199
0.119641,-0.001994
0.0815578,-0.00145677
0.0689464,0.00992315
0.0106609,0.0136187
-0.112746,0.00591761
-0.0670888,0.000297641
0.0156416,0.00107673
0.0599094,6.42e-05
-0.0302925,0.000199105
-0.173542,0.000789182
-0.140198,-0.00111308
-0.0567391,-0.00242619
-0.0312357,0.00201053
-0.0351569,-0.00026289
-0.0144265,-0.00731266
0.0350979,-0.0306991
0.0976923,-0.00302225
0.136275,0.0297429
0.108005,0.0109428
-0.0268265,0.00489477
-0.153109,0.0154344
-0.13415,0.0118975
-0.0296729,0.00825211
0.0334026,-0.0113027
0.0962287,-0.0258621
0.143682,-0.00480709
0.136981,0.00791907
0.0815596,0.00842317
0.0222353,-0.000330769
-0.0589129,-0.00855801
-0.0406095,-0.0270152
0.0199099,-0.0197965
0.00212741,-0.0155592
-0.078099,0.00626207
-0.170391,0.0117275
-0.0376979,0.0156143
0.228728,0.0174472
0.247617,0.00964485
0.184194,0.00457975
-6.15e-05,-0.00563006
-0.271231,-0.00813531
-0.273447,-0.00189926
-0.115328,0.00489376
0.085604,0.00295925
0.129668,-0.00656158
0.0152109,-0.00773003
-0.161963,-0.000585629
-0.259138,0.00515002
-0.209951,0.00628897
-0.0935327,0.00826039
0.00792292,0.00545137
0.0994577,0.00450114
0.150913,0.0126757
0.128391,0.0205778
0.0909342,0.0164388
0.0790883,0.0083494
0.0926692,0.00282816
0.0731862,-0.0011977
-0.0646647,-0.00245588
-0.151831,-0.00370005
-0.0710262,-0.0177891
0.0746662,-0.0341706
0.155326,-0.021314
0.150664,0.0151701
0.0537643,0.0163665
-0.123648,-0.00727062
-0.181463,0.0102364
-0.0795905,0.0190933
-0.0164471,-0.00831441
0.0152267,-0.00402588
0.04559,-0.00353457
0.0486166,-0.011617
0.0251247,-0.00778217
0.00717579,-0.0367321
-0.0329589,-0.0214387
-0.0581115,-0.00860807
-0.0211054,-0.0144453
-0.000561908,-0.0101436
0.0323752,9.66e-05
0.0497272,0.00827484
0.0807438,0.00323642
0.0656468,-0.00206853
-0.0258737,0.000541267
-0.160795,0.00935987
0.0389728,0.0183538
0.398378,0.0138477
0.6798,0.00523396
0.543218,-0.00299803
-0.0321405,-0.000804638
-0.671283,0.00888422
-0.69555,0.0083849
-0.23744,-0.00296564
0.048099,-0.0128233
0.0312581,-0.0115095
-0.155717,-0.00569512
