Comp Ch 3,Comp Ch 4
0.0490647,8.02e-06
-0.0210243,-0.00578359
-0.110723,-0.0180583
-0.0967581,-0.0287083
0.0510254,-0.0342528
0.123037,-0.0504172
0.0659501,-0.0564422
-0.00106504,-0.0568073
-0.0659639,-0.0855599
-0.106856,-0.121325
-0.0159822,-0.0221733
0.0996402,0.0511456
0.0405309,0.0676471
0.0248471,0.0710667
-0.0039858,0.0620726
-0.0432507,0.0382293
-0.000929937,0.0263399
0.0599107,0.0188139
0.0691852,0.0162906
0.00038459,0.0206156
-0.102328,0.0297033
-0.121563,0.0342233
0.0117294,0.0181701
0.100386,0.00413075
0.0492468,0.0192029
0.0308637,0.0379843
0.197039,0.0347687
0.222935,0.0341342
0.126263,0.035126
0.0537807,0.0289761
0.0227499,0.0221779
0.0355183,-0.0028711
0.0861517,-0.0197828
0.0678133,-0.0139914
-0.0398876,-0.0211666
-0.0124509,-0.0423907
0.0202036,-0.0565946
-0.0835945,-0.0451356
-0.123652,-0.0208603
-0.215421,-0.00603763
-0.283397,0.00711593
-0.185465,0.0217841
-0.114559,0.00790132
-0.194068,-0.00345269
-0.188704,0.00207745
-0.111471,-0.000482085
-0.0881774,-0.0127189
-0.0488872,-0.0210672
-0.0438063,-0.024669
-0.00109114,-0.0306824
0.0563228,-0.0260234
0.0877184,-0.0117629
0.169357,0.00325791
0.291197,0.0198019
0.278303,0.0336764
0.187759,0.0325583
-0.00401476,0.0275401
-0.275302,0.032541
-0.241053,0.040708
-0.0779506,0.0399668
-0.0192295,0.0342751
0.0284497,0.0379869
0.137695,0.0375772
0.241213,0.00825823
0.223692,-0.0369996
0.127078,-0.0613349
0.0104607,-0.0479075
-0.0084084,-0.0396946
0.021279,-0.0499088
0.0297328,-0.0491887
-0.0259743,-0.0242728
-0.107297,-0.00790956
-0.0630865,-0.0233652
-0.0287915,-0.0539094
-0.0469252,-0.0539315
-0.086544,-0.0441294
-0.0248448,-0.0569396
0.11298,-0.0733265
0.124907,-0.0462249
0.0483219,-0.00108468
0.0213776,0.00586909
-0.0825807,-0.00844387
-0.133595,-0.0374516
-0.0311134,-0.0565774
0.106813,-0.0478713
0.178088,-0.0142292
0.211417,0.0271239
0.044877,0.0667325
-0.307173,0.0978831
-0.374342,0.102272
-0.148317,0.0815067
-0.0306715,0.0763447
-0.064009,0.0744443
-0.0350561,0.0681597
0.0344516,0.0664754
0.189569,0.0553035
0.238909,0.0439691
0.08998,0.0494265
0.0591039,0.0514152
0.0676875,0.0331794
-0.018376,-0.00185433
-0.0684447,-0.0323614
-0.206216,-0.0368841
-0.182932,-0.0346028
0.150413,-0.0488025
0.450137,-0.0607215
0.434084,-0.0571042
0.0685763,-0.0414425
-0.33942,0.000449776
-0.438368,0.0193435
-0.350648,0.0203792
-0.300825,0.0189704
-0.173233,0.00582057
-0.012176,0.00141711
0.0619108,0.000826636
0.0646753,-0.0127919
0.00575928,-0.0187794
-0.0511603,-0.00367453
-0.0351383,0.00897085
-0.00333191,0.0152761
0.0599902,0.0218378
0.162927,0.0234859
0.130947,-0.0108533
0.0177167,-0.0551992
0.00658827,-0.0550139
0.0348012,-0.0305136
0.104773,-0.00848986
0.210207,0.0039245
0.237345,0.00859621
0.0960175,0.0196262
-0.0696101,0.0313105
-0.103214,0.0186791
-0.184815,-0.00619677
-0.189231,-0.0142019
-0.00454591,-0.00109936
0.214346,0.00296995
0.436213,-0.031204
0.49118,-0.0245759
0.304073,0.0172802
0.197482,0.00974909
-0.0784328,-0.00385358
-0.430792,-0.0220634
-0.414333,-0.0297517
-0.422202,-0.0167228
-0.505569,-0.00455084
-0.247019,0.00758623
0.0578413,0.011165
0.116546,0.00928691
0.00509041,-0.0114214
-0.170985,-0.013312
-0.100603,0.0116658
0.167699,0.0417419
0.359929,0.034078
0.269873,-0.00558011
0.0389195,-0.0450196
-0.0823073,-0.0419554
-0.105993,-0.026786
-0.0494181,-0.0124199
-0.0458764,0.0132779
-0.140522,0.0273353
-0.0969918,0.0155166
-0.0354812,0.00746538
0.0565128,0.00635558
0.272693,0.00275166
0.375221,0.00256292
0.331681,-0.00533348
0.250249,-0.00336021
-0.0627325,0.0128193
-0.411264,0.0128804
-0.477762,0.0125651
-0.382978,0.0137136
-0.148444,-0.0007451
0.0259382,-0.00973569
0.0838206,-0.0269432
0.127923,-0.0147543
0.0248403,0.000259331
-0.0672733,0.00560024
-0.0132323,0.00649844
0.0559726,0.0101148
0.170427,0.0179579
0.253413,0.0183752
0.220792,0.0160566
0.123682,-0.00267037
0.00144652,-0.00975756
-0.154781,-0.00440293
-0.324428,0.00660675
-0.361557,0.00558764
-0.0988769,-0.00750963
0.201388,-0.00534364
0.378697,-0.00403315
0.520543,-0.0131876
0.407746,-0.0155186
0.258216,-0.0141973
0.271739,-0.0102147
-0.118795,0.00625506
-0.533954,0.0117113
-0.474327,-0.00972413
-0.312946,0.0144293
-0.142654,0.00367135
-0.0381515,-0.0130081
0.0500456,0.00386662
0.0498248,0.0189368
-0.129347,0.00496578
-0.239916,0.00800456
-0.291465,0.0200275
-0.259233,0.00953865
-0.0826559,-0.00802301
0.0538096,-0.00670531
0.122516,0.00884454
0.150384,0.0176481
0.152847,0.00698775
0.125557,-0.0158182
0.104504,-0.0226486
0.0943474,-0.0122309
0.0797521,0.00190008
0.0579783,-0.00190307
0.0460331,-0.00469684
0.0602254,-0.00415412
0.0500545,0.000960283
-0.0636026,0.0171767
-0.0696197,0.0234524
0.0358143,0.00396394
0.189559,-0.0173129
0.281754,-0.0353702
0.290867,-0.030572
0.105438,-0.006889
-0.216346,0.00914847
-0.373508,0.0121458
-0.30017,0.0137317
-0.0860737,0.0218269
0.0517914,0.00627695
0.159171,-0.0221472
0.309749,-0.0169598
0.273943,-0.00949963
0.157841,0.00307242
-0.0630339,0.00622063
-0.358798,0.00164557
-0.391788,0.00543263
-0.173161,0.0150892
-0.0568573,0.0142269
-0.105463,0.00359536
-0.0272219,0.00532728
-0.0469977,0.00598832
-0.170745,0.00303983
-0.101605,0.00541259
0.0323489,0.0116597
0.0635058,0.00222189
0.195757,-0.00491803
0.393629,-0.0193784
0.541884,-0.0303316
0.537534,-0.0110383
0.167895,0.0204821
-0.132951,0.0349092
-0.296671,-0.00872172
-0.449153,-0.0384953
-0.393129,-0.0227018
-0.267843,-0.0088306
0.0630025,-0.0053674
0.237029,-0.00944055
0.0683192,-0.00616266
-0.091172,0.00289621
-0.208919,0.00279478
-0.28155,0.00451761
-0.179456,0.00150855
-0.111291,0.00383845
-0.0133367,0.00994592
0.0793231,0.0119222
0.0804102,0.0128609
0.0264148,0.00857397
-0.0667554,-0.00484693
0.011182,0.00114645
0.279559,0.0106271
0.377022,0.00238465
0.268866,-0.00797523
0.146229,-0.00165935
0.0192824,0.00757463
0.0861492,0.00810456
0.189035,0.00737602
0.146933,0.00751913
-0.0259184,0.00534626
-0.351544,0.0117675
-0.443064,0.0144525
-0.245438,-0.00582915
-0.172674,-0.0211733
-0.16479,0.00197836
-0.0889345,0.00591056
0.072166,-0.0275204
0.305646,-0.0134832
0.432848,0.0173615
0.409173,0.0103077
0.164098,-0.0115249
-0.27783,-0.0159977
-0.463133,-0.0106021
-0.268047,-0.000339721
-0.0756553,0.0105589
0.0645278,0.0106223
0.0974293,0.00173696
0.0746769,-0.00482911
0.0307909,-0.0110576
-0.0617305,-0.018673
-0.146514,-0.0142879
-0.121688,-0.00320679
0.0997627,0.00505603
0.342194,0.013017
0.461532,0.0201385
0.411875,0.0113821
0.124213,-0.000811419
-0.214834,-0.0209831
-0.271305,-0.019024
-0.238465,-0.00459312
-0.155914,0.00404549
0.0116704,0.00522009
0.116206,0.0120658
0.00274168,0.00995175
-0.227211,0.00299959
-0.247883,0.00224578
-0.155585,0.00467179
-0.0664944,0.0014582
0.00586981,-0.00344424
0.0412735,-0.0115188
0.0180348,0.00143936
-0.0222523,0.017299
-0.113348,0.00690392
-0.11763,-0.00427909
0.00685277,-0.00417935
0.0966435,0.000359751
0.121618,-0.00398252
0.0893179,-0.00567594
0.0515193,0.00201407
0.0932906,0.00557894
0.214796,0.00724085
0.278342,0.00432581
0.282627,-0.0124935
0.213098,-0.0228362
0.121141,-0.00855431
-0.0325896,0.00603319
-0.268321,0.0134903
-0.18351,0.0338717
-0.214918,0.0217063
-0.363313,-0.00522032
-0.275565,-0.00772739
-0.192827,-0.0148008
-0.0655529,-0.031307
0.0185735,-0.03744
0.0229478,-0.027639
0.0326083,-0.00685796
0.0850698,-0.00303227
0.123759,0.00275744
0.180835,-0.00547533
0.176401,-0.0127839
0.156038,-0.00655867
0.224767,0.00395746
0.316565,0.00811692
0.345166,0.0191074
0.180702,0.0346801
-0.342614,0.0397168
-0.591103,0.013087
-0.383562,-0.00954214
-0.235305,0.00218917
-0.0100519,0.00657707
0.295128,0.00824381
0.363534,0.00270661
0.171161,0.00401069
-0.0896816,0.00992216
-0.185608,0.00563825
-0.171351,-0.0103023
-0.261942,-0.015823
-0.250191,-0.00635513
-0.0697275,0.000998149
0.0226336,0.00811664
0.0366135,0.0233087
-0.0034391,0.0331228
0.00307182,0.0089351
0.123449,-0.00795657
0.0651525,-0.00685267
-0.0739993,0.00134687
-0.0310627,0.00818942
0.028854,0.00256167
0.0753354,-0.0131943
0.149393,-0.0173794
0.132501,-0.0142511
0.105842,-0.0150208
0.0603959,-0.0232961
-0.129623,-0.0201079
-0.237186,-0.00612558
-0.0909676,0.00515842
0.21202,0.0150226
0.361073,0.00202994
0.287647,-0.00907849
0.0567732,-0.003812
-0.136997,-0.00442225
-0.218209,-0.00548582
-0.27532,0.00377724
-0.139869,0.0102538
-0.00868315,0.0147568
-0.00600713,0.0239414
0.0524695,0.0248812
0.0969841,-0.0169187
0.00343649,-0.0231067
-0.0769964,-0.0212933
-0.161751,-0.0106542
-0.126064,-0.000162495
-0.041659,-0.00663259
-0.0308707,-0.018512
0.0785738,-0.00776378
0.197016,0.00914423
0.231465,0.00709566
0.18076,-0.00560632
0.0730775,-0.00793205
0.19452,-0.00611185
0.335801,-0.0015201
0.240568,0.00222121
0.171174,0.00124369
0.00523041,-0.00286463
-0.246798,-0.00182664
-0.367038,-0.00768244
-0.507885,-0.00304189
-0.37405,0.00721965
-0.127924,0.0174702
0.0229687,0.022037
0.110236,0.0260646
0.064414,0.0229781
-0.0856668,0.023857
-0.0315401,0.0196556
0.184552,0.00371452
0.0315124,-0.00374852
-0.243371,0.00316137
-0.158085,0.00246445
-0.0549395,0.00593729
0.00443655,0.0105706
0.0904015,0.00376348
0.0359967,-0.00734306
-0.0431804,-0.0231605
0.0222084,-0.0353734
0.120426,-0.0273981
0.187665,-0.0177481
0.202551,-0.0118012
0.0618103,-0.00457664
-0.171285,0.00505637
-0.250156,0.00940499
-0.107892,-0.001578
0.0275048,-0.00799886
0.116039,-0.00838034
0.177232,0.000371146
0.154881,0.0249856
0.109074,0.0248648
0.0862572,0.00781318
0.0561227,0.00317813
0.00120883,0.00244877
-0.117124,0.0017366
-0.199903,-0.00324601
-0.0995261,-0.0189059
0.0072285,-0.0184786
0.0017922,2.25e-05
-0.0776013,0.0153333
-0.0390776,0.011457
0.0487761,-0.0102193
0.0405157,-0.01319
0.0778369,0.0180132
0.0703739,0.0145967
-0.0565395,-0.00478218
-0.0629443,0.0161057
0.0819616,0.00633376
0.132405,-0.0205456
0.076666,-0.0166577
0.000184856,-0.0206591
-0.111801,-0.0144863
-0.133183,-0.00338376
-0.0649843,-0.000523245
0.0421865,-0.00254514
0.11106,-0.000427624
0.0103114,0.003621
-0.137716,-0.00799077
-0.100586,-0.0136672
0.147338,-0.011141
0.442275,-0.0086796
0.531006,-0.0100094
0.359868,0.0145217
0.0484362,0.0343014
-0.306676,0.0340434
-0.645611,0.0259025
-0.566245,0.0113941
-0.283139,-0.00635409
-0.08995,-0.0169392
0.0279639,-0.021877
0.0298908,-0.0125729
-0.0545091,-0.00289675
-0.133994,0.00862489
-0.0551618,0.0110651
0.082561,-0.00144024
0.186106,-0.00386932
0.150017,0.016044
0.0245981,0.0224028
-0.0948482,0.00743373
-0.118975,0.00129436
0.00639351,-0.00138882
0.0770022,-4.77e-05
0.120011,0.0111202
0.229141,0.0103121
0.292117,-0.00861839
0.253151,-0.0182912
0.105477,-0.0113029
-0.210209,-0.00162711
-0.423935,0.0150359
-0.227252,0.00861628
-0.00153992,-0.00640112
0.0834517,-0.00775364
0.241889,-0.0239221
0.249372,-0.0171941
0.0973272,-0.00530386
-0.0989091,0.00846088
-0.221212,0.0216273
-0.185296,0.010223
-0.0503959,-0.00764716
0.126801,-0.00365376
0.155019,-0.000629584
0.050671,-0.00478465
-0.123123,-0.0210438
-0.208655,-0.0111014
-0.178612,0.0041742
-0.0902324,0.00410968
-0.0146672,0.0103376
0.0781219,0.0124185
0.183657,-0.000898294
0.209324,-0.00939292
0.124914,0.00303171
-0.0631869,-0.00468023
-0.165803,-0.00278248
-0.0848437,-0.00761128
-0.00868949,-0.0112772
0.00270791,-0.00399057
0.0451841,-0.00214297
0.127091,-0.0125963
0.126376,-0.0150731
0.0471994,-0.00413962
0.0299398,0.00106786
0.0130541,-0.00251508
-0.0173603,0.00297892
0.0307379,0.0151316
0.0117698,0.00898425
-0.101746,-0.00335574
-0.121549,0.000744593
-0.126235,0.00956655
-0.07147,0.0134159
-0.0224918,0.0191334
0.0341496,0.0207402
0.0649721,0.0132826
0.0489747,0.0084827
-0.0111869,0.00890991
-0.0326059,0.000505334
-0.0168973,0.00152836
0.00844312,0.0075808
-0.0159014,0.0132314
-0.0431652,0.00766009
-0.0578546,0.00344653
-0.0514544,0.0145347
-0.035443,0.0122176
-0.014344,-0.00519074
0.0626711,-0.00359875
0.193606,-0.0021645
0.31546,-0.00236181
0.311776,-0.00399495
0.138871,-0.00862876
-0.153586,-0.0106532
-0.32531,-0.0102598
-0.158994,-0.0181334
0.0641199,-0.0239711
0.119518,-0.0224588
0.0979498,-0.0123447
-9.72e-05,-0.00479942
-0.235577,-0.00739212
-0.328602,0.00845592
-0.201181,0.0179466
-0.123733,0.00663923
-0.0660265,0.0107505
0.0163649,0.0100622
-0.0319851,-0.0161045
-0.0204072,-0.0204257
0.0978219,0.000585346
0.186348,0.000911943
0.203377,-0.021962
0.162943,-0.0214163
0.161809,-0.0104139
0.118855,-0.0124416
0.239425,-0.0108353
0.28314,0.0031623
0.12265,0.0134017
-0.00573956,0.00975537
-0.313859,0.00736557
-0.439958,0.0155593
-0.299978,0.00952532
-0.213,-0.00257209
-0.129363,-0.00846229
-0.0837792,-0.00299741
-0.0207423,0.00174654
0.0912063,0.00330428
0.160206,0.0060704
0.127998,-0.00514751
0.0193885,-0.0121223
-0.101663,-0.0137886
-0.134915,-0.00692539
-0.0693679,0.0108925
0.0572452,0.0124998
0.11727,0.00706962
0.0988192,0.00966752
0.0193493,0.0167929
-0.0816295,0.017263
-0.0423043,0.00522521
0.10608,-0.00791603
0.117223,-0.0138588
0.0680828,-0.00539918
0.164837,-0.00160763
0.306038,-0.0128481
0.340397,-0.00299283
0.201557,0.00994114
-0.150829,0.0127505
-0.44875,0.0085961
-0.504649,0.0113687
-0.330316,0.0167505
-0.108737,0.0131704
0.0524327,0.0083895
0.138528,0.00232453
0.233517,-0.000421794
0.341202,-0.0019718
0.272066,-0.0201036
0.128441,-0.0463789
-0.170789,-0.0239461
-0.500398,0.0124306
-0.347406,0.0381036
-0.102333,0.0329208
-0.00200073,0.0269072
0.0146031,0.014321
0.0367436,-0.0278614
0.142139,-0.0135621
0.283296,-0.0176951
0.374475,-0.0266004
0.297037,0.000985724
0.0747502,0.0282911
-0.166366,0.0235121
-0.359243,0.00113116
-0.355377,-0.0300545
-0.193578,-0.0264395
-0.037751,-0.0173877
0.0563668,0.00546554
0.0963362,0.0189751
0.138128,0.0172592
0.0838588,0.0183292
-0.0599228,0.00667487
-0.189654,0.0026856
-0.129951,0.0104101
-0.00170202,-0.0192056
0.00751246,-0.0534962
0.00545566,-0.0145382
0.250841,0.00664826
0.460032,-0.0121451
0.385705,0.00216921
0.132345,0.0224433
-0.24424,0.0168915
-0.28589,0.00238352
-0.0891331,-0.00574784
-0.0492488,-0.000479503
-0.186035,0.0158281
-0.224295,0.00208331
-0.00349658,0.0165668
-0.0312104,0.0175073
-0.0282874,-0.000221896
-0.0293367,-0.0158404
-0.0620097,-0.0205791
-0.0810111,-0.0193098
-0.0399512,-0.00345353
0.107746,0.00820663
0.249589,-0.00201204
0.250903,-0.0121872
0.133147,-0.0161228
-0.109494,-0.0122244
-0.271165,-0.000332395
-0.105441,0.00675483
0.0840816,0.00727917
0.158106,0.0108127
0.219966,0.00963659
0.334499,0.00869869
0.288908,0.00574427
0.070752,0.00577219
-0.262302,0.0117209
-0.533439,0.00850585
-0.387406,-0.0328068
-0.130985,-0.0241644
0.0157381,0.0138549
0.116648,-0.0135801
0.040247,-0.0272091
-0.131588,0.0195384
-0.110595,0.0166664
0.0949038,0.00905336
0.273548,0.00863144
0.30022,0.00135928
0.178182,0.0107405
0.0176302,0.0306849
-0.0309043,0.0230712
-0.0120949,-0.0273785
-0.0847886,-0.0278161
-0.165248,0.00679811
-0.249892,0.0135677
-0.233238,0.0168885
-0.110337,0.0241617
-0.0102742,0.00853355
0.0470498,-0.0260738
0.0716185,-0.0467966
0.079803,-0.019698
0.0479372,-0.0255183
-0.0110728,0.00556841
-0.00418879,0.0267998
0.0428998,0.0103019
0.0347038,-0.0151508
0.015531,-0.0360939
0.0152358,-0.0291459
0.00439023,0.0113868
-0.00303175,0.0241947
0.0550091,0.020617
0.114043,0.0014386
0.0549566,-0.000927579
0.0801399,0.00115415
0.283952,0.00848691
0.406429,-0.0258333
0.268522,-0.0644811
-0.0140433,0.0216462
-0.237488,0.0147121
-0.334173,0.00117622
-0.370086,0.0150702
-0.256492,0.0209117
0.122674,0.0335757
0.334847,0.0111971
0.16544,-0.0437332
-0.0872064,-0.0286095
-0.364744,0.0228023
-0.450838,-0.0031827
-0.18445,-0.0406638
0.00119425,-0.00210014
0.0537883,0.0180698
0.0111806,0.0279882
-0.0387231,0.0172975
-0.060504,0.0156594
-0.0445038,0.0444372
0.00787886,0.0271296
0.0537005,-0.0180055
0.104918,0.00549027
0.146558,0.0130316
0.117804,0.0223877
0.0764588,0.0209718
0.0911289,-0.0186105
0.164323,-0.00754118
0.230098,-0.0520719
0.243789,-0.0415955
0.128073,0.0264857
-0.109695,0.0281472
-0.224239,0.0251777
-0.164184,0.0110221
-0.124495,-0.00754296
-0.145646,-0.00542818
-0.0725114,-0.0203503
-0.0585531,-0.0314552
-0.0226837,-0.0272414
0.0362607,0.00361157
0.0879676,0.0278735
0.121969,-0.0425221
0.00956074,-0.0136735
-0.129673,0.0235726
-0.10396,-0.0205702
-0.0176773,-0.0200695
0.0346523,0.00679911
0.0592371,-0.00546534
0.0438591,-0.00598485
0.00767231,-0.012572
0.0268603,-0.0181912
0.00179678,-0.035282
-0.033697,-0.0467007
-0.0112038,-0.0104483
0.0490612,0.0253102
0.0274074,0.03605
-0.0134486,0.0146911
0.0167128,-0.000787048
0.0288587,0.0138349
0.00417839,0.008382
0.0225577,-0.00531128
0.0991456,-0.0377281
0.14,-0.0254902
0.0516682,0.0175634
-0.119653,0.0191023
-0.198186,0.0322766
-0.0631835,0.0308226
0.079122,0.013161
0.0178046,0.0156557
-0.0973912,0.0182976
-0.0429331,0.0278459
0.0359247,0.0358775
0.0377202,0.0435572
0.078439,0.0463661
0.0912381,0.0260943
-0.0966094,0.0203568
-0.211477,-0.00610941
-0.154397,-0.0693962
-0.0818429,-0.0417523
-0.0458994,-0.0117171
-0.0399481,0.0156098
0.00147481,0.000800172
0.0523206,-0.00196479
0.098684,-0.0148418
0.148967,-0.0364538
0.172561,-0.0138612
0.19301,-0.0342438
0.213356,-0.059397
0.21521,-0.0875842
0.0714152,0.0218265
-0.075477,0.0769645
-0.124645,0.0534921
-0.0499719,0.0503481
0.0712131,0.0123703
-0.0457869,-0.0745805
-0.244182,-0.0932635
-0.158205,0.0165241
-0.0330133,0.0683575
0.024294,0.0407864
-0.110502,0.0362424
-0.284094,0.0170794
-0.0726645,-0.0402894
0.0174899,-0.0132637
-0.0090085,-0.00119016
-0.110467,0.0231269
-0.206831,0.0331537
-0.117465,-0.0103238
0.158165,-0.00593104
0.357396,0.00068126
0.422621,-0.0431073
0.300588,-0.0355223
-0.060661,-0.0496081
-0.31151,0.00328612
-0.326844,0.0261806
-0.259459,0.0225986
-0.0145337,0.0334192
0.112539,0.0228383
0.124719,0.00359192
0.170822,-0.00334234
0.136573,-0.0151939
0.134524,-0.0114673
0.0813753,-0.0206676
0.0172565,-0.055572
0.0614582,0.0158162
0.0327818,0.0104667
-0.117882,-0.000852915
-0.156114,0.0252382
-0.164055,0.00650444
-0.125666,0.0144993
-0.0370489,0.0181211
-0.0210489,0.00309835
-0.00913483,-0.000692156
0.0408313,0.01148
0.0510093,0.0162679
0.0243727,0.00434147
-0.0401966,-0.0116772
-0.0779772,-0.0174156
-0.0398092,0.0101595
0.0572602,0.0475895
0.0724915,0.0365515
0.027523,-0.018511
0.146122,-0.0195131
0.394749,0.0122647
0.522494,0.00196636
0.392782,-0.039681
0.0551008,0.0102638
-0.336228,0.0215728
-0.262745,-0.019071
0.136296,-0.0474337
0.171271,-0.0529603
-0.0475192,-0.029359
-0.516422,-0.070897
-0.692822,-0.0151093
-0.372894,0.0190444
-0.143477,-0.0338801
0.0772428,-0.0730068
0.440218,-0.0278502
0.644749,-0.0152096
0.435199,-0.051633
-0.0881666,-0.0855468
-0.556865,-0.0061379
-0.661831,0.0499233
-0.429201,0.0613875
-0.0984558,0.0529984
0.130315,0.0314629
0.174106,0.029492
0.122108,0.0509717
0.103791,0.0705558
0.0898131,0.0651584
0.0301,0.0573852
-0.0311025,0.0495795
-0.0460114,0.0552117
0.018298,0.0701678
0.037938,0.0699026
-0.00838898,0.0409337
-0.018765,0.00336048
0.0117029,-0.0450584
0.100391,-0.0356967
0.203609,-0.036153
0.187335,-0.101994
0.0712973,-0.116112
-0.101429,-0.0441551
-0.103444,0.0158007
0.000894351,-6.07e-05
0.0640521,0.0134946
0.0321121,0.0327385
0.0160786,0.0124686
0.175291,-0.012395
0.365358,-0.0173472
0.384716,0.0223642
0.160166,0.0661509
-0.249302,0.055298
-0.615325,0.0460995
-0.680347,0.00209959
-0.479717,-0.00540447
-0.130163,-0.0072675
0.103683,-0.0722213
0.281604,-0.0736437
0.758165,-0.0377331
1.15048,-0.00954514
0.911271,0.0147933
0.190157,0.0117596
-0.55946,-0.020116
-0.918816,-0.0267459
-0.886431,-0.000578301
-0.53349,-0.00534171
-0.0790724,-0.0105643
-0.00960152,-0.0460662
-0.107332,-0.0360279
-0.0187639,0.0171894
-0.0133678,-0.0101824
-0.0842021,-0.0532885
-0.0991135,-0.0360989
-0.00829673,0.00445822
0.0814054,0.045976
0.113948,0.0622731
0.134509,0.0783987
0.122788,0.0473272
-0.0148061,0.0182572
-0.167804,0.0229413
-0.090653,0.0550167
0.0348775,0.0660934
0.0834766,0.0354864
0.167285,0.0522297
0.357042,0.0234917
0.379646,-0.0433322
0.236814,-0.099647
0.347042,-0.0848167
0.389235,-0.0076777
0.209511,-0.0249868
-0.175798,-0.0503913
-0.652556,0.0137939
-0.799996,0.0485372
-0.53175,0.00517034
-0.223953,-0.0322325
-0.0512741,-0.0273327
0.0558496,-0.0264595
0.172183,-0.0271203
0.198645,-0.00191862
0.130352,0.0218474
0.154231,0.0243748
0.159728,0.00352567
0.244305,-0.0352692
0.438476,-0.129647
0.473436,-0.0776324
0.255668,0.038139
-0.0903215,0.0764357
-0.414323,0.068247
-0.433633,0.039022
-0.48163,0.00308355
-0.357858,-0.0190545
0.125406,-0.0264906
0.449616,-0.0135117
0.468927,-0.00815768
0.196135,-0.0390667
-0.410082,-0.000202766
-0.651631,0.0691096
-0.398985,0.0376222
0.0567036,-0.0447622
0.343793,-0.0613781
0.324287,0.0274682
0.112371,-0.00573603
-0.120243,-0.0686055
-0.219024,-0.029064
-0.281349,0.020561
-0.362691,0.0593491
-0.251945,0.0595533
0.0197514,0.0831344
0.279608,0.069168
0.408657,0.0188753
0.324207,-0.0241877
0.14281,-0.0149628
-0.0406303,0.015338
-0.0834889,-0.0338333
-0.0244902,-0.0898021
0.0968025,-0.0482123
-0.100989,0.0721747
-0.318851,0.0473343
-0.138879,-0.0280494
0.461711,-0.0170858
0.896752,0.0137358
0.874398,-0.00811971
0.266802,-0.0166657
-0.58889,-0.00915357
-0.891634,-0.00620913
-0.733293,-0.013538
-0.328451,0.0235962
-0.0128419,0.0161256
0.0813537,0.00227232
0.00600752,0.0317081
-0.141644,0.0820461
-0.230738,0.0557307
-0.245504,-0.00304234
-0.0831585,-0.00201918
0.145899,-0.0360006
0.301291,-0.0829821
0.369901,-0.0215827
0.327576,0.0229738
0.410989,-0.00161604
0.31165,-0.035689
-0.416126,0.000975912
-0.790759,0.0716134
-0.380293,0.0323098
0.20337,-0.00243016
0.816432,-0.0244026
1.34534,-0.024036
1.29265,-0.0118244
0.800888,-0.0906599
-0.0385818,-0.0628887
-0.820729,0.0517593
-1.44642,0.0485999
-1.70359,-0.00373193
-1.283,-0.0309483
-0.533641,-0.0322453
-0.010488,-0.0104362
0.359011,0.0113705
0.819647,-0.0227609
1.21776,-0.100947
1.24263,-0.0572666
0.471279,0.0610993
-0.0834086,0.161423
-0.289727,0.134854
-0.952135,0.0909285
-1.15991,0.0649234
-0.742943,0.00112214
-0.286599,-0.0294249
0.0017533,-0.0497136
0.0665161,-0.0493681
0.096164,-0.00815501
0.0555339,0.00426011
0.0137806,0.0262486
0.0997923,0.0229132
0.117828,0.000655325
0.17389,0.0149056
0.370452,-0.0465359
0.515095,-0.154374
0.821012,-0.179274
0.714394,-0.0770933
0.0638855,0.0689426
-0.436666,0.1299
-0.646771,0.120109
-0.596664,0.0351852
-0.23586,-0.064652
-0.0413616,-0.0866478
0.0955549,-0.0383377
0.225644,0.0048163
0.330857,0.00474451
0.166256,-0.0302267
-0.260688,-0.070992
-0.456119,-0.114366
-0.390902,-0.088648
-0.195008,0.0375497
0.0760473,0.0548747
0.31502,0.0146277
0.759872,0.0133819
1.1919,0.0785254
1.06047,0.132083
0.49292,0.153475
-0.276704,0.126369
-1.06678,0.0921915
-1.00553,0.0688709
-0.158746,0.0273457
0.279465,-0.00232815
0.412846,-0.0731387
0.158256,-0.113055
-0.464308,-0.16248
-0.674977,-0.106131
-0.351116,-0.00455326
-0.0714807,0.000522693
-0.274443,-0.0285701
-0.560477,-0.0105302
-0.530385,0.0296531
-0.287427,0.0457824
-0.0381849,0.0565897
0.119123,0.0415348
0.348483,0.0733786
0.522811,0.0400917
0.48426,-0.197625
0.263137,-0.229095
0.0107278,-0.0553716
0.0131541,0.0332599
0.0567686,0.104368
0.0369081,0.127554
0.0311135,0.121662
-0.0808083,0.127947
-0.0352141,0.0733402
0.450326,-0.00656092
1.04767,-0.0350219
0.914851,-0.0268134
0.302641,-0.00638632
-0.836109,0.0194392
-1.62255,0.0273366
-1.02275,0.0440699
-0.213842,0.0197895
0.148555,-0.0283313
0.237719,-0.0531022
0.100957,-0.025162
0.00329586,0.0059723
0.311213,-0.0416216
0.57298,-0.0655314
0.636633,-0.0481396
0.583244,-0.0413628
0.324257,-0.110686
0.342463,-0.17107
0.296447,-0.153415
-0.140411,-0.0567358
-0.684393,0.000235378
-1.0875,0.0672281
-0.989699,0.0834881
-0.537747,0.0642852
-0.192215,0.0582788
0.00797322,0.0767744
0.174153,0.0618711
0.21981,0.0503206
0.153117,0.05841
0.0361775,0.0737171
-0.071472,0.0693465
-0.155131,0.0430762
-0.212277,0.0187103
-0.193345,0.00905627
-0.124289,0.00523025
0.0348483,-0.0227799
0.349126,-0.0638072
0.588774,-0.05105
0.584375,0.0175106
0.369515,-0.00933819
0.176596,-0.116352
0.0773749,-0.161487
0.164964,-0.129226
0.0786651,-0.0548118
-0.136998,-0.0254518
-0.171649,-0.031005
-0.121669,-0.0501409
-0.0624874,-0.0912299
-0.0634576,-0.0425012
-0.154403,0.0237428
-0.301808,0.0379214
-0.373122,0.0495021
-0.271453,0.0304585
-0.223159,0.0390337
-0.165659,0.042208
-0.00130928,0.077604
0.193512,0.0973022
0.370149,0.054886
0.517443,0.0624705
1.26692,0.029457
1.89805,-3.34e-05
1.42961,0.0254894
0.341765,0.0464252
-1.21857,0.0204258
-1.83806,0.0204302
-1.57188,0.0413333
-1.19102,0.0581349
-0.659962,0.0273663
-0.366732,-0.0152972
-0.172393,0.0418313
0.0841466,0.0527805
0.213332,0.0228707
0.165167,-0.011882
0.149844,0.027819
0.192759,0.0567324
0.214146,0.0128595
0.169822,-0.0186436
0.108895,-0.0164749
0.0640297,-0.00541239
0.066105,-0.0138359
0.115292,-0.0205975
0.156638,-0.0407351
0.206288,-0.0537729
0.272917,-0.0422999
0.308484,-0.0261608
0.216311,0.000202606
0.0268642,-0.017999
-0.162507,-0.0630391
-0.177575,-0.0870399
-0.0822614,-0.0434004
-0.0550514,0.0214677
-0.0599799,0.0138158
-0.099265,-0.0438236
-0.044819,-0.0910313
-0.0105501,-0.0928859
-0.0165745,-0.0676077
-0.0961733,-0.0965956
-0.167688,-0.0936398
-0.0808502,-0.0846282
0.0653036,-0.120758
0.144397,-0.174417
0.17247,-0.208849
0.191937,-0.124123
0.215595,0.00466915
0.123493,0.0713777
-0.0759175,0.12404
-0.0976148,0.187025
0.105122,0.20455
0.374013,0.186319
0.477855,0.161715
0.0814822,0.158918
-0.575342,0.164513
-0.761162,0.152143
-0.399481,0.203678
-0.00992591,0.225905
0.295818,0.18728
0.456587,0.180865
0.332969,0.158972
0.182035,0.069073
-0.123085,0.0261202
-0.367803,-0.00189279
-0.551404,-0.0393834
-0.565825,-0.0396731
-0.291483,-0.0606726
-0.00979995,-0.099157
0.161289,-0.123849
0.103799,-0.172738
0.0213381,-0.18818
0.0999227,-0.178749
0.212859,-0.100745
0.310488,-0.0283908
0.248457,-0.121464
0.0229517,-0.0805315
-0.168243,-0.00320137
-0.185517,-0.0476771
-0.0733611,-0.132101
-0.0423588,-0.135567
0.0545234,-0.054436
0.105774,-0.0716458
0.0768994,-0.174392
0.08215,-0.185053
0.00854322,-0.0502116
-0.000313039,0.0497134
0.054822,0.0763459
-0.0108381,0.0881433
-0.148245,0.0974207
-0.167615,0.110429
-0.146384,0.0641559
-0.103312,0.00196759
-0.050223,-0.000465634
-0.0230395,-0.00384766
-0.00115585,-0.00701766
0.0890118,0.0265219
0.210663,0.0299931
0.275377,0.00326684
0.336811,-0.00368462
0.267195,0.021344
0.0987167,0.0348645
-0.0704667,0.0405657
-0.0979304,0.0581614
0.0711939,-0.00843518
0.245798,-0.0380393
0.19407,0.0729159
-0.00275722,0.116635
-0.0304661,0.0919721
-0.176802,0.0347393
-0.305438,-0.0364911
-0.304006,-0.0747129
-0.353548,-0.0709883
-0.327304,-0.012963
-0.13334,0.0131368
-0.165423,0.00618692
-0.112425,0.0197884
0.0639906,0.0320496
0.151783,-0.000632015
0.113245,-0.044925
0.0718448,-0.0560834
0.22972,-0.0404487
0.213674,0.0192153
-0.00108623,0.0951025
-0.282566,0.077403
-0.285414,0.0268034
-0.0139604,0.00947485
0.0536567,0.0102621
0.133837,0.00968816
0.24676,0.000258938
0.286552,-0.0102452
0.324553,-0.0126243
0.0922857,-0.00210638
-0.254527,0.0300314
-0.166897,0.0545642
0.049308,0.0530695
0.0917412,0.0365051
0.0345232,0.0293075
-0.135112,-0.0118617
-0.146173,-0.0448047
0.0990757,-0.049426
0.174831,-0.0394318
0.064388,-0.0561042
-0.145905,-0.0186161
-0.466265,0.0340556
-0.407573,0.0203173
-0.087686,-0.0118526
0.0573003,-0.0372189
0.0617182,-0.0305024
0.0478247,-0.0114412
0.0829095,0.0160842
0.178315,-0.0818293
0.392896,-0.183822
0.67259,-0.119178
0.719889,-0.015279
0.338621,0.0495134
-0.222517,0.0971679
-0.529748,0.1137
-0.433785,0.0829451
-0.466205,0.0586642
-0.550574,0.0349084
-0.265511,-0.0196221
0.012146,-0.0519728
0.245586,-0.0429524
0.43324,-0.0247422
0.379779,-0.015398
0.0846964,-0.00984391
-0.321232,0.0113809
-0.414001,0.0346566
-0.206256,0.0413139
-0.087172,0.0505692
-4.72e-05,0.0431514
0.0422252,0.0235813
0.0476644,0.0151297
0.0451395,0.0188991
-0.0449312,-0.00320979
-0.020637,-0.0287383
0.102819,-0.0373504
0.149524,-0.0386743
0.114272,-0.0435291
0.0195546,0.00317207
-0.0131044,0.00953743
0.0593099,0.00277397
0.174456,-0.0247992
0.196814,-0.0888393
0.151744,-0.107744
0.129237,-0.0138917
0.0436348,0.0824328
-0.0519796,0.0602455
-0.142126,0.0359812
-0.328505,0.0392807
-0.292092,0.0453372
-0.00677208,0.027643
0.185848,-0.0065061
0.191778,-0.0128922
0.0640635,0.0039677
-0.00130453,0.00775825
-0.00207972,-0.00758194
-0.104735,-0.0313509
-0.134598,-0.0383559
-0.122922,-0.0238889
-0.182087,-0.0199702
-0.186838,-0.00810537
-0.163854,0.00586494
-0.0864198,-0.0254474
0.0676494,-0.0839197
0.193584,-0.0179583
0.22816,0.0675018
0.232047,0.0277912
0.133159,-0.00400077
0.110044,-0.00528701
0.0246516,0.00366032
0.00495743,-0.0039416
0.0757411,-0.00668134
0.124915,-0.00157719
0.144482,0.00848131
-0.0768413,0.0320578
-0.205605,0.0247887
-0.314602,0.0120161
-0.44314,0.0246572
-0.166757,0.0252803
0.211611,0.0466207
0.319156,0.0756435
0.184087,0.070307
-0.264579,0.011836
-0.321704,-0.0619918
0.0845689,-0.0813628
0.394764,-0.055346
0.597045,-0.0354569
0.394173,-0.0021707
-0.181527,-0.0341622
-0.562573,-0.0535441
-0.510175,-0.00104719
-0.287296,0.059122
-0.0712692,0.055243
0.0549894,0.047731
0.0542908,0.0118426
0.021277,-0.00324112
-0.118565,-0.0332534
-0.11548,-0.062754
0.000828931,-0.052407
0.0755945,-0.0208049
0.0966286,-0.0224755
0.112609,-0.0701052
0.104092,-0.0469395
0.107708,0.000547487
0.165315,-0.0102862
0.130394,0.0487191
0.0320176,0.0776676
-0.0194524,0.0345856
-0.0085356,0.00776948
0.107704,0.0277053
0.288728,0.0346398
0.275013,0.0339121
0.0124055,0.0321199
-0.294259,0.0242596
-0.373828,0.020216
-0.194789,-0.0504221
-0.0495479,-0.0847914
-0.000319102,-0.0875933
0.0748201,-0.0772804
0.112446,0.0373706
0.240179,0.0858268
0.300565,0.0401409
0.129061,0.0144702
-0.0908234,0.0050626
-0.327866,0.00769925
-0.365716,0.0188284
-0.169754,0.0217541
-0.0413825,0.016054
0.000538596,0.00908526
-0.00221595,0.0165694
-0.0499178,0.0246995
-0.0279304,0.00871781
0.0243451,0.022034
0.0157453,0.0162763
0.0492851,-0.0065097
0.233488,-0.0154625
0.324328,-0.0114075
0.193386,-0.00301414
-0.0172426,0.00636457
-0.323226,0.0160938
-0.316646,0.00513242
-0.0567003,-0.0174164
0.0816207,-0.0211905
0.118391,-0.0111299
0.0822664,-0.0761497
0.00434943,-0.0941038
-0.0601285,-0.0573213
-0.103926,0.0121046
-0.0986543,0.0735665
0.0606573,0.0877396
0.233351,0.0633102
0.169949,0.0131185
0.0220506,-0.00478059
-0.122329,-0.00794378
-0.248371,-0.0155377
-0.223993,-0.0157461
-0.102173,-0.0145641
-0.0551764,-0.00755597
0.0275444,-0.000953169
0.187142,-0.0143303
0.262187,-0.0249917
0.209798,-0.0270892
0.055966,-0.0418763
-0.199815,-0.00836464
-0.21541,0.0292789
0.00310128,0.00174405
0.20033,-0.0576519
0.443902,-0.0243566
0.559037,0.0573886
0.401218,0.0364072
0.0106308,-0.0209144
-0.590167,-0.0288534
-0.851257,-0.0178946
-0.613999,0.00115358
-0.275358,0.00710163
0.0310052,-0.00324684
0.127951,0.0321634
0.141863,0.0297372
0.109776,0.00821254
0.035216,-0.0298602
0.0393819,-0.0442469
0.0292302,-0.0266067
-0.0549134,0.0157265
-0.12422,0.0490525
-0.0544245,0.00172336
0.0235818,-0.0369507
0.0653626,-0.0209849
0.143371,0.0140047
0.236151,0.0314658
0.257845,0.00409782
0.214591,-0.0293583
0.0564367,-0.00557312
-0.187941,0.0271393
-0.204574,0.0197875
-0.017628,0.00844143
0.0004996,-0.0243266
-0.0598986,-0.0166621
-0.0125684,0.00469486
0.0570056,0.0200504
-0.0153096,0.0134281
-0.110137,0.0247651
-0.121953,0.0251044
-0.0461886,0.0229727
0.1823,0.00078574
0.362665,-0.0317438
0.324694,-0.0609265
0.166994,-0.0199319
-0.140096,0.00946955
-0.299813,0.014531
-0.13004,0.0388738
-0.0921868,0.0362175
-0.140673,0.0376219
-0.122492,0.032113
-0.0268692,0.0185622
0.105734,-0.0388202
0.165342,-0.0656876
0.039507,-0.00274015
-0.157778,0.0187573
-0.246171,0.0138672
-0.197444,0.0214894
0.0270434,0.019221
0.248154,-0.0148015
0.318524,-0.0143022
0.293326,0.00160832
0.280396,-0.0391464
0.147784,-0.0840133
0.000288553,-0.0028373
-0.206788,0.0146732
-0.380341,0.0271557
-0.0516052,0.0709717
0.238995,0.0443053
0.0548733,0.0261997
-0.340489,0.0202865
-0.505645,0.0204787
-0.332513,-0.00859317
-0.202763,-0.0366952
-0.110646,-0.0459231
-0.0450335,-0.0110957
0.147067,-0.00800972
0.334196,-0.0274483
0.306077,0.00320679
0.169043,0.0257031
0.160034,0.00657181
0.140331,0.01217
0.20298,0.000947859
0.235501,-0.0229361
0.292381,-0.026413
0.288607,-0.00365632
-0.151489,0.00670982
-0.522896,-0.0247355
-0.484338,-0.0160311
-0.360366,0.0228262
-0.206832,0.0105624
0.0315264,-0.000993006
0.21591,-0.0382395
0.238594,-0.030995
0.0780277,0.0192138
-0.248097,0.0303444
-0.434792,-0.00436029
-0.233807,-0.0437382
-0.0218585,-0.0189562
0.0684727,0.0310958
0.114036,0.0277311
0.163145,0.0239929
0.152645,0.0274594
0.101993,0.0170094
0.00507132,0.00588371
-0.0411206,0.0177696
0.160684,0.05916
0.323738,0.0147016
0.174476,-0.100462
-0.0234585,-0.0717514
-0.129347,-0.010764
-0.134039,0.00829059
-0.013577,0.00632327
0.285276,-0.0213978
0.408999,-0.00140912
0.299764,0.00579464
-0.0716424,0.00729791
-0.438458,0.0157434
-0.319285,0.0160992
-0.134105,0.00995226
-0.0628494,-0.0268525
0.0540742,-0.0155062
0.163951,0.0209611
0.118555,0.0233235
-0.0310706,0.0170393
-0.176202,-0.00855141
-0.222117,0.0078512
-0.10098,0.0228736
0.0283998,0.0148413
-0.0103069,0.0179839
-0.188381,0.0130653
-0.207354,-0.010517
0.0135152,-0.0448406
0.141162,-0.0363548
0.173185,0.0139594
0.176787,0.0149923
0.226222,-0.0283062
0.223986,-0.0405663
0.180101,-0.0464799
-0.0120448,-0.0175031
-0.187349,0.0293042
-0.193252,0.0212271
-0.182194,0.0176204
-0.144563,0.0187208
-0.0460717,-0.021904
0.029326,-0.0520103
0.082976,-0.0090055
0.00268266,0.0437886
-0.120408,0.0466801
-0.11149,0.0455934
-0.0535922,0.00827799
0.0648916,0.0186683
0.133231,0.0244101
0.0469167,-0.00688214
-0.0288559,-0.0194215
-0.00700662,-0.0213045
0.0340887,-0.0234432
-0.00769104,-0.0310148
-0.057077,-0.00322814
-0.0161211,0.0274215
0.0720882,0.0104887
0.218179,-0.0229535
0.197459,-0.0101885
0.101125,0.0144154
0.04497,0.0220276
-0.0794814,-0.00383124
-0.194206,-0.0200529
-0.241302,-0.00309465
-0.232325,0.00805185
-0.0930302,0.00998623
0.0553789,0.0175503
0.178689,-0.00104426
0.164704,-0.0335944
0.0433605,-0.0539447
0.0807435,-0.0478831
0.218966,-0.00342003
0.312409,0.0376973
0.254117,0.0580502
-0.0961435,0.0166883
-0.404053,-0.0485664
-0.341926,0.0141222
-0.211454,0.0412407
-0.2437,0.00673258
-0.180541,-0.00949438
0.0217529,-0.0111906
0.232866,0.0013853
0.386428,0.0113402
0.334876,0.012136
0.0387591,0.0160677
-0.300945,0.0178367
-0.381706,0.00906819
-0.185021,-0.00520892
-0.0225052,-0.027645
0.0238563,-0.0461087
0.175241,0.00657599
0.458824,0.00276489
0.427222,0.0166582
0.110759,0.0210608
-0.3737,0.0147945
-0.635366,0.0158974
-0.324753,-0.0451271
-0.0188526,-0.0507304
0.17742,0.0442735
0.296082,0.0425286
0.319198,-0.00174129
0.24761,-0.0192429
-0.00398039,-0.0192777
-0.148248,-0.0297591
-0.117711,-0.0522878
-0.302445,-0.0147627
-0.323915,0.0580911
-0.125509,0.0270597
-0.0140156,-0.010027
0.0209925,-0.0428158
0.0518866,-0.0143398
0.0528798,0.0205236
0.0387417,0.018301
0.0438733,0.0137178
0.0922146,0.0199529
0.149739,0.0288656
0.292422,-0.0050104
0.550004,-0.0153646
0.504592,-0.0227941
0.161484,-0.0075763
-0.318118,-0.00379222
-0.742868,-0.0244765
-0.624843,-0.00495557
-0.328997,0.0361965
-0.130774,0.0534715
0.184049,0.0323091
0.578024,0.0115209
0.742547,-0.0210336
0.679407,-0.0739348
0.2975,-0.0763567
-0.148278,0.00148299
-0.502399,0.0555595
-0.728865,0.0375893
-0.651806,0.0075367
-0.431007,-9.38e-05
-0.200457,-0.00147518
-0.0499025,-0.00241413
0.0544884,0.000381496
0.0794798,0.0134002
0.0405564,0.0184217
0.0690045,-0.00746671
0.126329,-0.00256571
0.137955,0.0286998
0.105507,0.0121091
0.113566,-0.0341069
0.130739,-0.0220733
0.110009,-0.00457611
0.0905441,-0.0613835
0.122654,-0.0516831
0.146714,0.00882582
0.142537,0.00869138
0.136017,-0.0140628
-0.0123535,0.00451135
-0.0635701,0.013345
-0.145127,0.00811408
-0.215816,0.0344753
-0.0739597,0.0159847
0.0325485,-0.0113376
0.0332203,0.00803246
0.00170636,-0.0120526
-0.0458805,-0.0378246
-0.104358,0.00902977
-0.112677,0.00306719
-0.067797,0.0309755
-0.034111,0.0271163
-0.0294611,0.00215134
-0.0168254,0.00783825
0.00300542,0.0140723
0.0296306,0.0137066
0.0566682,0.00572509
0.0591085,0.00145491
0.0248893,0.0101744
-0.00925,0.0164089
-0.00847305,0.0191354
0.00837669,0.00257498
0.0120145,-0.0193988
0.00594738,-0.0226465
-0.0160968,-0.0153063
-0.0488969,-0.0237836
-0.0330849,-0.0204403
0.0557711,-0.000212538
0.159323,0.00864133
0.260038,-0.00640066
0.290561,-0.0163673
0.194355,-0.00878111
-0.0217026,0.00985468
-0.193842,0.0110998
-0.29031,-0.00354575
-0.292411,0.008268
0.0358565,0.0238269
0.3977,0.0113649
0.680129,-0.0240476
0.629091,-0.039165
0.0184446,0.0020291
-0.572872,0.0567049
-0.775256,0.104218
-0.629081,0.0459247
-0.199482,-0.0328819
0.0753704,-0.0634829
0.0670018,-0.0753051
-0.146343,-0.0442613
-0.340053,-0.0109953
-0.192547,-0.00846459
-0.0690689,0.00311981
-0.0345854,0.0119435
0.0396693,0.0273065
0.116208,0.0275054
0.126221,-0.014033
0.115558,-0.0599771
0.0929949,-0.0199617
0.0304448,-0.0266109
0.0131978,0.0115555
0.0537411,0.024518
0.117222,0.00786622
0.185852,0.0321793
0.254446,0.00913909
0.21703,-0.0198579
0.0511494,0.00448697
-0.095211,0.0283155
-0.136332,0.0302934
-0.0686143,0.0256151
0.0233847,0.0198359
0.0502493,0.0149955
0.0296906,0.017648
0.00112796,0.00239501
0.0644237,-0.0574393
0.119801,-0.0481716
0.0837324,0.0227903
-0.0227676,0.00356212
-0.156408,-0.00395983
-0.121049,0.00545411
-0.0485124,-0.00804874
-0.0867048,-0.0547671
-0.0769151,-0.048797
-0.0313537,0.0419888
-0.00928011,0.0397179
-0.0255778,0.0466812
-0.0531576,0.0414887
-0.0646966,0.0135863
-0.0323106,-0.00619273
0.0860921,-0.00982248
0.278423,0.0030816
0.371692,0.0189408
0.337776,0.0116619
0.23592,-0.0511068
0.145602,-0.0770034
0.17771,-0.045351
0.103852,0.0109541
-0.347403,0.0573638
-0.669939,0.0598155
-0.506909,0.00720336
-0.0476468,-0.0259456
0.130608,-0.056217
0.0328477,-0.0428568
-0.167412,0.0281466
-0.267392,0.0275125
-0.189986,0.00253917
-0.11662,0.00737817
-0.0960656,-0.0050374
-0.0412939,-0.0248755
0.0315992,-0.013228
0.0781412,0.00151174
0.127734,0.0159563
0.159443,0.0151409
0.176541,0.0155819
0.150659,0.0223116
0.135157,0.0138856
0.0864385,-0.00342711
-0.0753533,-0.0140729
-0.193054,-0.0170755
-0.113436,-0.0649831
0.138281,-0.124197
0.266422,-0.0595787
0.249848,0.0560459
0.146546,0.0767926
0.174223,0.0235361
0.424686,-0.00387712
0.340379,0.0251238
0.0623982,0.0421731
-0.523304,3.35e-05
-0.804232,-0.0439458
-0.460067,-0.0129273
-0.189179,0.0639848
-0.0776255,0.0705821
-0.0588495,0.0172038
-0.0523016,-0.012763
-0.0117991,-0.0227334
0.0263801,-0.0342965
0.0381484,-0.00783327
0.0368556,-0.00206354
0.0329974,0.0084695
0.123075,0.020242
0.27313,0.0246263
0.299066,0.0050389
0.182951,-0.0114141
-0.112247,-0.0073042
-0.318978,0.00186229
-0.138303,-0.00353666
0.110986,-0.00338276
0.278055,-0.006764
0.44142,-0.030845
0.438077,-0.0826254
0.0676509,-0.00665083
-0.363797,0.0503546
-0.50342,0.0407866
-0.32803,0.0062637
-0.0535331,0.00297181
0.0701339,0.00651061
-0.00720908,0.0164383
-0.149574,0.0072691
-0.14079,-0.00704396
-0.0639026,-0.105719
0.00231486,-0.115341
0.0409519,-0.0100472
0.0241027,0.00159645
0.0190935,0.0176152
0.048293,0.0820893
0.0518213,0.0972276
0.105397,0.0440909
0.0810778,-0.0141315
-0.0107476,-0.0298988
-0.014274,0.00520079
0.0999219,0.0349196
0.208632,0.0345007
0.211906,0.0299218
-0.0139352,0.0106016
-0.221181,-5.79e-07
-0.14979,-0.00532847
0.01145,-0.00467187
0.0273569,-0.00432686
-0.0398139,-0.0128081
-0.0702072,-0.0105659
-0.0374228,-0.00118418
0.0304619,0.0017689
0.0733085,-0.00575628
0.0117324,-0.0171604
-0.0245401,-0.0499617
0.0385907,-0.0315514
0.0949301,0.00253596
0.205912,0.00811345
0.335129,0.0195642
0.292231,0.0161782
0.0514614,0.0124424
-0.305345,-0.00527586
-0.676584,-0.0147407
-0.68394,0.0128381
-0.30257,0.0383456
0.0706916,0.017114
0.270857,-0.0338262
0.304761,-0.0652254
0.19454,-0.0343151
-0.0663096,-0.0589646
-0.192121,-0.0468611
-0.0747249,0.0250166
0.0294851,0.0240104
0.105595,-0.00459676
0.272333,-0.00874387
0.40385,-0.00255352
0.40791,-0.00117676
0.260917,0.0209415
-0.136661,0.0211782
-0.576776,0.0226681
-0.750198,0.0375541
-0.413537,0.0574083
-0.0310033,0.0450888
0.184656,0.0198843
0.316349,0.0018593
0.463683,-0.0301849
0.49147,-0.0886558
0.26142,-0.0457199
-0.13557,0.040819
-0.407088,0.0494333
-0.467881,0.00598041
-0.299188,-0.0353488
-0.168723,-0.0145913
-0.118101,0.0209264
-0.0456915,0.00352327
0.0528881,-0.0077455
0.265971,-0.00629256
0.469348,-0.00795966
0.454107,-0.0144352
0.206807,0.00859777
-0.224239,0.0343479
-0.372192,0.0364885
-0.153843,0.026833
-0.0330763,0.0144981
-0.0224114,0.00984116
0.00148291,0.00253219
0.0302642,-0.00960453
0.0111899,-0.0170149
-0.0420317,-0.0225534
-0.0727679,-0.0274177
-0.0647045,-0.0185422
-0.013119,-0.026185
0.0357723,-0.00472635
0.0370523,0.0229476
0.0197114,0.0148486
0.0654756,-0.0369604
0.159077,-0.0971541
0.250229,-0.0647531
0.153665,-0.00304377
-0.000663138,0.0681503
-0.0616025,0.036633
-0.0602151,0.0321628
0.0277193,0.0136905
0.0877936,0.0114506
0.0461758,0.00815193
-0.116626,-0.000268182
-0.234468,-0.00541028
-0.191313,-0.00205964
-0.114559,-0.00369691
-0.0496323,-0.00461342
-0.0116904,0.00661815
-0.0166514,0.0220348
0.00418731,0.0291283
0.0780799,0.0340612
0.110373,0.0233043
0.0870257,-0.0148569
0.0350243,-0.0289775
-0.00468865,0.0044054
0.00559092,0.00900568
0.0323002,-0.00842478
0.0103223,-0.00957098
-0.0588806,0.0109667
-0.111417,0.0210684
-0.0965669,0.0144249
-0.0606897,-0.00974426
-0.0192409,-0.0231114
0.00415964,-0.0508869
-0.00555302,-0.0397382
0.000182807,0.0334956
0.0555901,0.0277706
0.130231,0.0129934
0.169212,-0.0302625
0.10791,-0.0822096
-0.0434291,-0.0145141
-0.112048,0.0343945
-0.0518877,0.000645216
0.0979166,0.00245551
0.221413,0.0196398
0.105694,0.0240075
-0.219442,0.0184812
-0.283759,0.0156459
-0.00424613,-0.00278312
0.329634,-0.0221627
0.497417,0.00764111
0.42551,0.00983503
0.149047,-0.049562
-0.313615,-0.048224
-0.552437,-0.0170277
-0.618963,0.036732
-0.482707,0.0578215
-0.120849,0.0294306
0.0691016,0.0159269
0.128251,-0.000227763
0.174722,-0.0119245
0.137717,-0.00377793
0.208402,0.0156945
0.264469,0.0130462
0.198981,0.0539225
-0.0674265,0.0316984
-0.467378,-0.0209293
-0.566262,-0.0281141
-0.306292,-0.0129988
-0.123699,-0.0117769
0.0393931,-0.058255
0.152519,-0.0595202
0.228271,-0.00275045
0.335921,0.0172238
0.276389,-0.000497997
0.18611,-0.00062613
0.156357,0.00863332
0.0587909,0.00556392
-0.0373171,-0.0119081
-0.113782,-0.0677675
-0.272174,-0.0841795
-0.277355,-0.00724921
-0.114108,0.0327767
-0.0162732,0.062216
0.145123,0.0776397
0.264287,0.02627
0.267057,0.00472872
0.24386,0.0204004
0.132624,0.0144526
-0.0228613,0.00883085
-0.107737,0.00924315
-0.0181791,0.00504683
0.286654,0.0149118
0.366873,0.00402708
0.104663,-0.0577319
-0.450035,-0.05572
-0.660955,-0.00539515
-0.0953086,0.00184143
0.240991,0.00979071
0.0741708,0.0244972
-0.104214,0.0164358
-0.0680304,-0.00157648
-0.0557387,-0.00618238
-0.0997215,0.00470343
-0.213176,0.0101617
-0.261529,0.0104234
-0.0834654,0.0278666
0.00904884,0.00949906
0.011113,0.00460477
-0.0345165,-0.00598118
0.00928244,-0.0168523
0.13405,-0.015543
0.119776,-0.043806
0.0495786,-0.0547402
-0.0190508,0.0295075
-0.00997415,0.0466595
0.118167,-0.0102077
0.24525,-0.017358
0.226742,-0.00529183
0.118557,-0.0245099
-0.0608962,0.00729667
-0.189797,0.0337826
-0.108214,0.0243701
-0.00945621,0.00276701
-0.00180764,-0.0113101
0.00483539,-0.0261503
0.0364202,-0.0177041
0.0512503,-0.00102362
0.0103643,0.0211098
-0.0697908,0.0238803
-0.108482,0.0163292
-0.052787,0.0100343
0.0115082,0.0035855
0.10401,-0.0229022
0.117481,0.00815397
-0.013325,0.0303769
-0.0225523,0.0179253
0.0317835,0.0150961
0.00449456,0.00622673
0.133277,-0.00885254
0.369055,-0.026672
0.315496,-0.023612
0.0466555,-0.00954305
-0.29994,-0.010565
-0.400261,-0.0116446
-0.101827,-0.00121371
0.110659,-0.000450542
0.112056,-0.0366848
0.0296573,-0.0429219
-0.214012,-0.0348452
-0.306503,-0.0156876
-0.239904,0.019828
-0.222484,0.0393421
-0.159655,0.0450139
-0.0108529,0.0352607
0.103662,0.00726437
0.0988973,-0.0114913
0.0895602,-0.0089225
0.193563,0.00769427
0.380193,-0.013177
0.416677,-0.0271651
0.229107,-0.0223028
-0.0423728,-0.0337376
-0.0690622,-0.0761296
0.0844223,-0.105921
0.0698796,-0.0407054
-0.179586,0.0425624
-0.547389,0.0421623
-0.462748,0.0591213
-0.164239,0.0592366
-0.0845256,0.0289981
-0.0646046,0.0242608
-0.0191737,0.0460596
0.0598438,0.0349896
0.10596,0.0120427
0.11164,-0.0218874
0.0674699,-0.0213029
0.0284308,0.0220387
-0.0680036,0.0447715
-0.0186496,0.0449238
0.0525294,0.0502779
0.0914477,0.0479745
0.0549782,0.00615871
-0.0207656,-0.0397886
-0.0173787,-0.0446964
0.0730127,-0.0265076
0.161805,-0.00737132
0.207061,0.0142524
0.2172,-0.0163819
0.144369,-0.0491264
0.0101439,-0.0351012
0.0588583,-0.0187757
0.110195,-0.058741
-0.0213855,-0.0356064
-0.24321,0.0248999
-0.420845,0.0240821
-0.351634,0.0211047
-0.196574,0.0213408
-0.0370742,0.0173499
0.131273,0.00338332
0.294067,0.00214192
0.353244,0.0262356
0.234368,0.0363289
0.0758821,-0.00671757
-0.00322067,-0.0362104
-0.0662127,0.00771597
-0.123134,0.0303232
-0.243822,0.00333042
-0.327547,-0.0313635
-0.287006,-0.0475551
-0.153375,-0.0473017
-0.0280302,-0.0102079
0.0362828,0.0201533
0.033685,0.0160658
0.0932452,0.0206618
0.236931,0.0208041
0.301209,0.00155074
0.24554,-0.0303841
0.0955686,-0.00444876
-0.0137108,0.0366505
0.0603908,0.0403973
0.119098,0.0400149
0.147883,0.0405476
0.315138,0.0154027
0.313605,-0.0304311
-0.00488498,-0.0828982
-0.387917,-0.120761
-0.687342,-0.0166261
-0.546257,0.0397658
-0.215072,0.0221052
-0.12373,-0.00444184
-0.068196,-0.0251317
0.0276243,-0.0193144
0.0883319,-0.0068712
0.115957,0.021356
0.103097,0.0251371
0.0184983,0.0127792
-0.0860685,0.0348913
-0.0580601,0.039071
0.0371872,0.0106168
0.143101,0.00594871
0.170393,0.000140702
0.125192,-0.00659591
0.0927662,-0.0707822
0.108677,-0.119977
0.17072,-0.0363954
0.221095,0.0502157
0.103677,0.0638062
-0.0889298,0.0345665
-0.232417,0.0118012
-0.205503,0.00214732
-0.0910656,-0.00456039
-0.0208323,0.00300647
0.074809,0.019504
0.0541226,0.026992
-0.004268,0.0190213
-0.0421225,0.00338617
-0.190287,-0.00661799
-0.230744,7.09e-05
-0.127714,0.020616
0.0183929,0.0239572
0.139136,0.0114158
0.167507,-0.00456075
0.204562,-0.00418901
0.21947,-0.0114621
0.129591,-0.016583
-0.0314739,-0.0249483
-0.211678,-0.0205404
-0.218074,-0.00592904
-0.082502,-0.00685803
-0.0388352,-0.0232846
-0.0840306,-0.0276887
-0.0277163,0.0122499
0.0491818,0.0311614
-0.0330776,-0.00482004
-0.104402,-0.02154
-0.0219837,-0.00924825
0.131314,-0.00420565
0.187267,-0.0120833
0.169842,0.0157645
0.0870825,0.0292279
-0.0206161,0.0184559
0.145924,-0.0106869
0.445055,-0.0664234
0.447739,-0.0657127
0.176181,0.0145036
-0.311015,0.0187048
-0.592263,0.00440651
-0.460795,0.02842
-0.295516,0.0235857
-0.197764,-0.00060171
-0.104573,-0.015406
-0.0156986,-0.00616137
0.0751582,0.0121595
0.174652,0.0142623
0.184929,0.000696043
0.166367,-0.0226877
0.19434,-0.00462351
0.114271,0.0359232
0.0270883,0.0370226
-0.152074,0.0375269
-0.370412,0.0122836
-0.295231,-0.015966
-0.11898,-0.00400343
0.020533,0.0184495
0.0933747,0.0212779
0.104105,0.0062727
0.108062,-0.00510824
0.0990453,-0.0299839
0.106846,-0.0233353
0.108119,-0.0229906
0.0433808,-0.0246366
-0.0172338,0.0037962
-0.0548589,0.0248303
-0.0250215,0.0213819
0.0281459,0.0059185
0.0477685,-0.00816297
0.142713,-0.0027865
0.105468,0.00154689
-0.0294343,0.000675273
0.0228442,-0.0678793
0.0492146,-0.0782963
0.0726588,0.0168021
0.053767,0.0429149
-0.199663,0.0301057
-0.39243,0.0275355
-0.195943,0.0212542
0.0746335,0.0172794
0.204516,-0.00593387
0.222417,-0.00367185
0.132477,-0.000963902
0.0145259,0.00802595
-0.0249919,-0.00416538
-0.0770345,-0.0853486
-0.161257,-0.0681329
-0.18477,0.0228583
-0.120057,0.0488593
-0.030911,0.0363418
-0.0220105,0.0446902
-0.0576669,-0.0112047
-0.0181547,-0.0769984
-0.00796231,-0.0362825
0.0272994,0.0338055
0.0977219,0.038862
0.126091,0.0351297
0.0750087,0.0250612
-0.110253,0.0182719
-0.21854,0.0135237
-0.108069,0.00340488
-0.00818702,0.00300052
0.0372867,0.00825059
0.0758514,0.00741404
0.0945665,0.00176203
0.116093,0.0100916
0.168953,0.0103743
0.250007,-0.0164897
0.303568,-0.0279904
0.334814,-0.021436
0.144833,-0.0189643
-0.102281,-0.0172448
-0.289808,-0.000191774
-0.395738,0.00853108
-0.253926,0.00610391
-0.100821,-0.00010323
-0.070686,-0.00647262
-0.0567227,-0.0264259
-0.0683155,-0.0446673
-0.0517946,-0.0496658
-0.0202045,-0.00194553
7.38e-05,0.0370684
0.0517876,0.0314344
0.0987332,0.0260735
0.100126,0.0156943
0.138111,-0.0081154
0.228872,-0.0125848
0.250227,-0.0038019
0.178873,0.0198798
-0.0364085,0.0163806
-0.223099,-0.053657
-0.182319,-0.0590872
-0.162667,0.00261529
-0.269822,0.0579367
-0.221815,0.0194599
-0.0509789,-0.0381389
-0.00480354,-0.0353625
0.00686114,0.0266122
0.0673878,0.050113
0.103875,0.0242573
0.0921142,0.000384739
-0.0041447,0.00857166
-0.103102,0.00919138
0.0845803,0.00157041
0.444418,-0.00705024
0.633854,-0.0067231
0.519802,-0.00350332
0.0461927,-0.00466584
-0.421549,0.0201596
-0.53222,0.0241444
-0.559576,-0.00915208
-0.357878,-0.00534444
-0.0971195,-0.00285893
0.0147932,-0.00460854
0.041878,-0.0144911
0.0410334,-0.0212537
0.0362685,-0.00191662
0.0291147,0.00717311
0.00248308,-0.00498665
-0.0233369,-0.0106136
-0.0305102,-0.00817537
0.000831037,0.00148539
0.0448927,0.0240941
0.0574035,0.0362694
0.00925417,0.0307802
-0.0481374,0.0215536
-0.0278904,-0.00880743
0.124841,-0.0449877
0.280149,-0.0209967
0.359733,0.0189293
0.416421,0.0186873
0.432456,-0.00425145
0.275168,-0.00749132
-0.0235385,0.0221261
-0.463349,0.00742012
-0.640285,-0.0378313
-0.383599,-0.0590253
-0.0717906,-0.0610943
0.0220541,-0.0271149
-0.0623966,0.0232196
-0.238857,0.040116
-0.229354,0.0271481
-0.0602428,-0.00277712
0.0379787,-0.0321326
0.0516981,-0.0580479
0.0627458,-0.045551
0.10585,0.0213149
0.130819,0.0537085
0.140915,0.0387093
0.197508,0.0176518
0.198958,-0.00451292
0.0690551,-0.00734987
-0.0910441,-0.00507697
-0.200936,-0.0094147
-0.175035,-0.000128785
-0.127652,0.0168325
-0.0206688,0.0291364
0.138808,0.0255334
0.185144,0.0138696
0.108237,0.0125925
-0.0209564,0.0142085
-0.118729,0.0130161
-0.0827627,0.0128869
-0.0142549,0.00765205
-0.0818993,-0.0179065
-0.114132,-0.037961
0.00563919,-0.0288726
0.0602515,-0.0678496
0.032299,-0.0761062
0.0178679,0.01143
0.202563,0.0457044
0.480442,0.0229538
0.695743,0.030465
0.602931,0.0389824
0.108192,0.0113751
-0.337017,-0.000805583
-0.616248,0.0165838
-0.749803,0.00107193
-0.563911,-0.0153834
-0.21804,-0.000516325
0.0100322,0.00368564
0.041384,-0.00839735
0.0375301,-0.000913653
-0.0260775,0.021427
-0.142096,0.0188584
-0.123587,-0.0159098
-0.0165537,-0.0268066
0.0588183,-0.0058488
0.0586568,0.0174678
0.0691499,-0.00449049
0.0827638,-0.0621701
0.0896278,-0.0327112
0.155247,0.0282676
0.221767,0.0199468
0.210053,0.00317007
0.068152,-0.00120327
-0.0320453,0.00145124
-0.0139098,-0.0102887
-0.0318508,-0.00654082
-0.0414587,0.00978701
-0.0259835,0.00368078
-0.0183094,-0.0200338
-0.0228216,-0.00816023
-0.0307451,0.0196618
-0.0509003,0.0226058
-0.0669201,0.0147967
-0.0299523,0.013961
0.0462233,0.0247371
0.0973531,0.0121668
0.0716478,-0.00422421
0.0252038,-0.0148289
0.00300513,-0.00989936
0.0305252,0.00173733
0.0471857,0.00869707
0.0460512,0.00426678
0.00802748,0.00041435
-0.0532766,0.00201624
-0.0637514,0.014139
-0.0452266,0.0157716
-0.0635994,-0.00906464
-0.0683848,-0.0269796
-0.0474768,-0.0107277
-0.0233618,0.0111741
0.0157921,0.00904422
0.0293912,-0.0134405
0.00117827,-0.00759658
0.0454357,-0.0144861
0.1761,-0.0626494
0.233776,-0.0722096
0.200502,-0.0236412
0.00965164,0.0332182
-0.227838,0.0176152
-0.28334,0.0248375
-0.173617,0.0358283
-0.100864,0.0343818
-0.0657306,0.0148127
-0.0430434,0.00506961
-0.0455313,0.00698542
-0.0798142,-0.00378101
-0.0843938,-0.0186234
-0.0397121,-0.00444394
0.00532046,0.0440768
0.115356,0.0440167
0.338568,0.00482078
0.423287,-0.0566471
0.373754,-0.118479
0.241301,-0.0743676
0.0258699,-0.000838784
-0.0339439,0.00931238
-0.042423,0.0395667
-0.253607,0.0512238
-0.344687,0.0226285
-0.31419,-0.0171355
-0.257517,-0.00198398
-0.166637,0.0286777
-0.0346323,0.032285
0.0549162,0.0362222
0.122762,0.0319343
0.189377,0.00692505
-0.0135367,-0.0121684
-0.265269,-0.0112393
-0.161755,-0.00167407
0.0416412,-0.0142327
0.239911,-0.0164388
0.285077,-0.0269193
0.155536,-0.025611
-0.0627224,0.0302697
-0.241891,0.0315392
-0.19086,-0.0035205
-0.0370293,-0.0177657
0.0253361,-0.00759751
0.0837267,-0.0153379
0.229611,-0.0132697
0.339567,0.0108299
0.255769,0.0144985
0.00113269,0.00756957
-0.255812,0.0137617
-0.311339,0.00603072
-0.195434,-0.000374719
-0.066211,0.00884634
0.0211751,0.00911338
0.0241019,0.00284483
0.0230328,0.00586849
0.0399591,0.0104214
0.0551125,0.00373575
0.0368748,-0.0157093
-0.0229743,-0.021033
-0.0507335,-0.00595596
-0.0389653,0.00332677
-0.0373038,0.00566643
-0.0420083,0.00862783
-0.0401205,0.00361864
-0.0290188,-0.00285062
-0.00410279,-0.00972369
0.0300642,-0.0106558
0.0737773,-0.00306151
0.124192,0.00399256
0.202445,-0.019702
0.245472,-0.0325434
0.169905,-0.000247883
0.0743925,0.0308646
0.00162576,0.01088
-0.0679473,-0.0708015
-0.0245505,-0.0615081
-0.0154063,0.0042622
-0.116234,0.000323143
-0.107595,-0.0126172
0.0505054,0.0129605
0.248068,0.0143763
0.258848,0.0117344
0.000928809,0.0111729
-0.23976,0.0157796
-0.396439,0.0103551
-0.373847,-0.00301916
-0.12759,-0.000417113
-0.0946586,0.0136821
-0.107654,0.0169526
-0.0315582,0.0213124
0.055746,0.0169612
0.0521575,-0.003833
-0.0305178,-0.00878949
-0.0730937,-0.00407271
-0.082257,0.00671705
-0.0734173,-0.001457
0.0705191,-0.012987
0.308457,-0.00629118
0.474453,0.0152257
0.435663,0.012654
0.181613,-0.0180029
-0.238284,0.0122377
-0.465803,0.0134261
-0.30272,-0.0236396
-0.0949043,-0.0256693
0.0341243,0.0135501
0.0864098,0.0186766
0.0800701,0.000656892
0.0427995,-0.00576413
0.014085,-0.00295141
-0.00878525,0.00507607
-0.0179516,0.0174014
-0.00580981,0.0238436
-0.0213915,0.0135451
-0.0872737,0.00648812
-0.0832977,0.0028111
-0.00256396,-0.00529779
0.0614526,-0.00876755
0.0650313,-0.00303817
0.0679357,-0.00486111
0.0877986,-0.00689146
0.101785,-0.00734187
0.0965266,0.00426199
0.09547,-0.0108862
0.0931373,-0.0327487
0.0305192,-0.0207881
-0.0411078,-0.00252232
-0.0530073,0.0167176
0.0888849,0.0138361
0.13869,0.00545543
0.0443867,0.0113249
-0.16062,0.00800169
-0.299068,-0.0050367
-0.207857,-0.00606273
0.0162177,-1.33e-05
0.219271,0.00036393
0.248847,-0.00733247
0.176205,-0.0173493
-0.0583604,-0.00575623
-0.291158,-0.00244491
-0.315846,-0.00197381
-0.235124,0.00211208
-0.14212,0.00569166
-0.0799097,0.00196739
-0.038509,-0.00233394
-0.0219398,0.00983356
-0.0231187,0.0202892
-0.00536483,0.00930004
0.0118996,-0.0406637
0.0985608,-0.0473697
0.251685,-0.0124652
0.36846,0.00399256
0.475339,0.00829892
0.400118,0.000777175
0.147368,0.00747656
-0.113929,0.0165704
-0.364148,0.012693
-0.430565,0.0175421
-0.324378,0.0160053
-0.162914,0.00879004
-0.0531502,0.00548643
0.0219522,0.0110756
0.0461044,0.0129622
0.0425595,-0.0238459
0.0356996,-0.0490846
-0.00506766,-0.0183461
-0.0618771,0.00537733
-0.099248,-0.00326789
-0.0754147,-0.00308216
-0.0197914,0.00124488
0.0439137,0.00886436
0.139339,0.00708097
0.205347,0.00601959
0.183844,0.0113915
0.0907672,0.00100914
-0.0482244,-0.00491864
-0.0770034,-0.00353022
-0.00404391,0.00159814
0.0174822,0.0107462
-0.0191656,0.0202191
-0.0744784,0.0238045
-0.0749739,0.0146533
-0.0396796,-0.006179
-0.0145676,-0.0184397
-0.00741922,-0.0157101
-0.00305519,-0.00781707
0.00947359,-0.00231732
0.0290688,0.000277002
0.0603892,0.00557828
0.0819892,0.00762986
0.0770972,0.000958419
0.0630472,-0.00307516
0.0682154,0.00247857
0.0675623,0.00297602
0.0398767,0.000533209
-0.0343039,0.0153498
-0.148095,0.0199713
-0.166145,0.00912179
-0.0950624,0.00225194
-0.0460838,-0.00113597
-0.0301377,-0.00483834
-0.0121118,-0.00359314
-0.00442741,-0.0240324
0.0472912,-0.0570148
0.133029,-0.0386089
0.144832,0.0149852
0.117373,0.0215645
0.0761635,-0.00202706
-0.0377231,-0.00276742
-0.0785516,0.00467461
-0.0944236,0.00111549
-0.12599,0.00202726
-0.0560173,0.00440079
-0.0183038,0.00524726
-0.0626661,0.0129418
-0.151317,0.0236852
-0.124954,0.0118569
5.72e-05,0.00324344
0.0446312,0.00373683
0.045803,0.00232923
0.0541177,-0.00204632
0.0451495,-0.00174676
0.0594008,0.00526561
0.0477395,0.00596836
-0.0159153,-0.00426934
0.00183908,-0.00807891
0.15906,-0.00499179
0.419153,-0.00372456
0.622726,-0.003874
0.524124,0.00658934
0.289017,-0.0393433
-0.176017,-0.0545207
-0.484213,-0.0390814
-0.43521,-0.00900998
-0.640143,0.0428664
-0.6398,0.045267
-0.336878,-0.00238559
-0.129359,-0.0190192
-0.0515622,0.010845
-0.0009553,0.0137856
0.0417456,0.000194185
0.0601815,-0.00435446
0.0556833,0.0012024
0.0426749,0.00250914
0.0329768,0.00329197
0.0404523,-0.00163127
0.0627459,-0.00662594
0.0783013,0.00959265
0.0932002,0.000478757
0.117072,-0.0393066
0.109944,-0.0341333
0.0883155,0.00152967
0.0847574,0.0214795
0.0820525,0.0207172
0.0810368,0.0216613
0.0786202,0.0220119
0.069654,0.0153283
0.0563734,0.00853224
0.0415283,0.00297537
0.0651255,-0.000703071
0.163144,-0.0101866
0.306069,-0.0146604
0.26276,0.0118182
0.0667699,0.043037
-0.227168,0.0255176
-0.483636,0.000232228
-0.484928,-0.00723497
-0.239219,-0.0065505
-0.0748617,-0.0178855
-0.00659396,-0.0175107
0.0420326,-0.00858455
0.0622022,0.000704864
0.0569739,0.00211459
0.0538137,-0.00474563
0.0318305,-0.017844
0.00624144,-0.0193143
-0.0138318,-0.00539179
-0.00102728,0.00507859
-0.0367503,0.00678682
-0.134571,0.0110959
-0.161865,0.0136736
-0.0957637,-0.00678477
0.0334803,-0.0239315
0.285826,-0.0333385
0.4881,-0.0195335
0.595337,-0.00299149
0.484996,0.00655624
0.139597,-0.00248426
-0.191887,-0.00906938
-0.391483,0.00458792
-0.407791,0.00449847
-0.20673,-0.000209623
-0.161101,0.00878965
-0.181016,0.0148763
-0.26523,0.0194411
-0.319004,0.0281989
-0.255852,0.029803
-0.112433,0.027673
0.0335556,0.0224554
0.0833306,0.00109464
0.122713,-0.0099362
0.168859,-0.0110114
0.185114,-0.00354553
0.168286,-0.00751024
0.0637071,-0.026233
-0.0423508,-0.00850712
-0.00876555,0.0134121
0.0281416,-0.0105491
0.0256916,-0.0268863
0.0599724,-0.00743444
0.108182,0.00341296
0.10344,0.0039382
0.0409991,0.00960724
-0.047367,0.016664
-0.107558,0.0133761
-0.0769552,-0.0178039
-0.00944104,-0.00887774
0.0127422,0.00510063
0.0151572,0.00154739
0.0223115,0.00395577
0.0368402,-0.00422933
0.0459723,-0.0313059
0.0297804,-0.0230446
0.0302134,0.000168635
0.037157,0.00513546
0.0705344,-0.00129624
0.0866647,0.00270731
0.0303787,0.00583641
-0.0451641,0.00916527
-0.0117012,0.00833876
0.0672581,0.00326337
0.034566,0.0131311
-0.111974,0.0244612
-0.145128,0.0178106
-0.0247798,-0.00407838
0.0880768,-0.0176912
0.11971,-0.0235443
0.175945,-0.0161785
0.0876798,-0.00138324
-0.061235,-0.0394066
-0.139093,-0.0631081
-0.172288,0.00309588
-0.0978871,0.0547112
-0.0453846,0.0392918
-0.0999818,0.00594735
-0.127644,-0.00638659
-0.202991,0.000729116
-0.232607,0.00730108
-0.104409,0.00940306
0.0112867,0.00653242
0.0528468,-0.0047524
0.0715092,-0.0163937
0.116953,-0.00294041
0.202279,0.00474186
0.333067,0.00731985
0.431409,0.00936841
0.301651,0.0114489
-0.047348,-0.00238802
-0.384097,-0.0117205
-0.370622,-0.000887122
-0.150452,7.66e-05
0.0327795,0.00612332
0.138808,0.0161433
0.16193,0.00859202
0.0323838,-0.00812234
-0.114584,-0.00746597
-0.106842,0.000694252
-0.0273188,-0.00642377
-0.0448074,-0.00725338
-0.110527,0.00336308
-0.090859,0.012356
0.0132844,0.00317249
0.0407124,-0.0144468
0.00506703,0.00375058
-0.00650635,0.00168721
-0.0251466,-0.00143604
-0.0306011,0.00399425
0.00294463,0.00201438
0.0164852,0.00134554
0.0218527,0.00285339
0.0500959,0.000876615
0.0950076,-0.00121881
0.0869925,0.00385201
0.0356842,0.00373647
-0.0305594,-0.00130369
-0.0680714,0.00130438
-0.0556251,0.00770325
-0.00426518,0.00956007
0.107192,0.0078394
0.221574,0.00194281
0.268822,-0.00926145
0.194912,-0.0337951
-0.004196,-0.0268316
-0.175991,0.00132975
-0.246843,0.00137659
-0.245511,-0.00938819
-0.0722335,-0.00247148
0.0627962,0.00591449
0.085929,0.00194592
-0.0171337,-0.00809519
-0.178015,-0.010015
-0.208322,0.00125078
-0.0898964,0.00825657
0.0528984,-0.00383271
0.210863,0.00266259
0.312323,0.0177308
0.37108,0.0103824
0.300793,-0.00418143
0.0406944,-0.00833477
-0.161614,-0.00292193
-0.22273,0.00378483
-0.224982,0.00457321
-0.0616524,0.00470427
-0.0658426,0.0107061
-0.243238,0.0158094
-0.253407,0.00937195
-0.0801745,-0.00839245
-0.0247297,-0.0211957
-0.0171679,-0.0130775
0.00012538,-0.0150902
0.0143828,-0.0309122
0.00459026,-0.0411439
-0.0202736,-0.0463317
-0.030987,-0.0661671
-0.00753589,-0.0345872
0.0401909,0.00760682
0.0746,0.0301717
0.0800918,0.0378673
0.0716553,0.041044
0.0760318,0.0445189
0.101929,0.0304114
0.130983,0.0100247
0.162735,0.00749739
0.158583,0.0166055
0.141351,0.0249335
0.125579,0.0255126
0.0674811,0.018763
-0.00605072,0.00477144
-0.0438124,0.00496115
-0.130434,0.0168461
-0.20807,0.0172652
-0.256967,-0.0209527
-0.204321,-0.0120859
-0.0477374,0.00438227
0.029211,0.00551679
0.06382,0.00312728
0.0813963,0.0118899
0.0715327,0.0163316
0.0595804,0.00946325
0.0245379,-0.0112225
-0.0306038,-0.0175999
-0.0662213,0.0189274
-0.0829176,0.0381479
-0.0700089,0.0362585
-0.0422787,0.0402474
-0.0299303,0.0178923
0.0214267,-0.0148216
0.0918044,-0.0287373
0.121844,-0.0316127
0.0636033,-0.0254889
-0.0635653,-0.016653
-0.132202,-0.0152179
-0.0322903,-0.0127156
0.0479179,-0.00893785
0.0681711,-0.00796051
0.0562063,-0.013699
-0.0059667,-0.0308089
-0.0928538,-0.029067
-0.10546,-0.0199506
-0.0678927,-0.0149306
-0.0263336,-0.0139406
0.0719479,-0.0113565
0.228635,-0.00564848
0.414326,-0.007161
0.456484,-0.0172392
0.297988,-0.0195502
-0.0796141,-0.0100384
-0.487487,-0.00489863
-0.523764,-0.000775352
-0.373817,0.00226319
-0.199055,0.00159072
-0.0380546,0.00469898
0.0442272,0.00714783
0.0450867,0.00337986
-0.00605164,0.00105456
-0.0440715,0.00373344
-0.0440972,0.0200774
-0.025901,0.0229252
-0.0177867,0.00442921
-0.0309656,-0.000561849
-0.0384677,-0.00702901
0.0124719,0.00241271
0.123741,0.0115567
0.249806,0.0116054
0.320571,0.0137832
0.3426,0.0169507
0.233118,0.0165031
0.0461387,0.0124722
-0.0668094,0.00889059
-0.0828921,-0.000137039
-0.113737,-0.00662939
-0.131126,-0.00538641
-0.0822354,-0.00892824
-0.0662798,-0.0174899
-0.129169,-0.0261928
-0.199211,-0.0239074
-0.17252,-0.0169907
-0.116262,-0.00809293
-0.0572451,-0.0139008
0.0136016,-0.0145565
0.0625293,0.00658518
0.0644224,0.0225863
0.0535354,0.0297404
0.0671842,0.0248242
0.0973649,0.0175632
0.114569,0.0119446
0.0941295,0.00491582
