Comp Ch 3,Comp Ch 4
0.0980842,0.0241658
0.209985,-0.00171669
0.318713,-0.0199756
0.133279,-0.017929
-0.328024,-0.010885
-0.397505,-0.00809358
-0.21994,-0.00902272
-0.105665,-0.00498639
-0.130596,0.00624875
-0.197536,0.00995848
-0.239872,0.00510612
-0.135407,-0.00217126
-0.0488211,-0.00518567
-0.0654236,0.0133362
-0.078187,0.0184661
-0.0244997,0.016089
0.063911,0.0198888
0.129894,0.0152841
0.15371,0.0151666
0.148263,0.00987744
0.028224,-0.00955283
-0.17278,-0.0170547
-0.190997,-0.00424488
-0.0276887,-0.0145138
0.169752,-0.0300391
0.371413,0.000887139
0.440039,0.0115843
0.293674,-0.000202052
0.0621488,-0.0422382
-0.141723,-0.0473948
-0.0608912,0.0111049
0.347898,0.0110147
0.574583,0.0201294
0.433137,0.0206944
-0.0858414,0.0229112
-0.736442,0.0297219
-0.935975,0.030886
-0.620738,0.0195172
-0.0827049,-0.0125791
0.132926,-0.0372547
0.16284,-0.0329889
0.203044,-0.00731714
0.120447,0.00288519
0.433739,0.000150149
0.837526,0.00709207
0.6676,-0.016911
0.0559349,-0.0172052
-0.810645,0.00269827
-1.20891,-0.00173193
-0.75347,0.0197692
-0.244507,0.0565072
0.0753998,0.0415907
0.202496,-0.0259075
0.183417,-0.0290745
0.0303274,0.00299043
0.0170474,-0.00340716
0.147836,-0.0190027
0.269983,-0.0251118
0.22624,-0.0274378
0.00619058,-0.01011
-0.183313,0.00675143
-0.191122,0.0124432
-0.119547,0.0232472
-0.0483187,0.0319243
0.0509596,0.0262933
0.0583072,0.0278163
0.0777874,0.0380944
0.152299,0.0280116
0.0732103,0.0309439
0.0307649,0.0310112
0.170655,0.00109643
0.276313,-0.0355478
0.222628,-0.0420837
0.117753,-0.0273252
0.336118,0.00591186
0.381507,0.0176062
0.0264748,-0.0244137
-0.651615,-0.0607943
-0.80507,-0.0398755
-0.0889405,-0.0680597
0.23896,-0.0190995
0.23044,-0.00168318
-0.130752,-0.0069534
-0.216424,-0.0436711
0.0485709,-0.113784
0.136211,-0.225404
0.0543363,-0.269767
-0.238216,-0.113834
-0.38765,-0.0165663
-0.236063,0.0362412
-0.0652417,0.079368
0.0190486,0.109658
0.0158679,0.131509
-0.107437,0.149004
-0.168613,0.159809
0.0337845,0.135315
0.257143,0.148547
0.333222,0.134969
0.207927,0.0713333
-0.00340556,0.0539114
-0.108457,0.0569681
-0.0715018,0.0497284
-0.0235723,0.0451662
0.031037,0.0288962
0.0621517,0.00851087
0.0439324,-0.00572294
-0.00863755,-0.0240816
-0.0583314,-0.0459945
-0.00381818,-0.0736586
0.207467,-0.0531932
0.352469,-0.0119178
0.278926,-0.0230116
-0.0856682,-0.0332947
-0.508451,-0.00714477
-0.483642,0.00993428
-0.0224416,0.0140019
0.282913,0.0159553
0.294417,0.0171919
0.234403,0.0154034
0.305199,-0.00690738
0.605551,-0.0429053
0.57145,-0.0573895
0.0251227,-0.0398239
-0.568495,-0.0108975
-1.00703,-0.0227872
-0.969405,-0.0469363
-0.604998,-0.0610145
-0.0399535,-0.0583717
0.613081,-0.0449986
0.981705,-0.0290899
0.911837,-0.00299826
0.303191,0.00265995
-0.306173,-0.00804639
-0.406489,-0.00861746
-0.0237736,0.0051379
0.498047,0.0213255
0.638467,0.0106355
-0.0026171,-0.0176105
-1.20383,-0.0235086
-1.47438,-0.00939032
-0.619598,0.0104196
-0.123814,0.0227796
0.0603206,0.020452
0.0755831,-0.0173927
0.0126336,-0.0570269
0.206848,-0.0346925
0.410503,0.0151524
0.369165,-0.00763575
0.327525,0.00110712
0.0993225,0.0273828
-0.293972,0.0312428
-0.459579,0.0533359
-0.277752,0.0505088
0.0177876,0.0288038
0.162087,0.00267369
0.166374,-0.0338115
0.18677,-0.0152118
0.288688,-0.00577304
0.190755,-0.0231034
-0.0402888,-0.0135641
-0.17092,0.00795868
-0.120097,-0.00161009
-0.0595547,0.00519085
-0.0891293,0.0155382
0.00187292,0.0268806
0.179014,0.0115138
0.151749,-0.00302431
-0.00112279,0.00843084
-0.0641043,0.0180505
0.249803,0.0110699
0.561907,-0.00641167
0.69388,-0.0109308
0.591158,-0.0150882
0.213078,-0.0193465
0.0865343,-0.0417709
-0.300379,-0.0452244
-0.40446,-0.0259749
-0.231306,0.00154301
-0.173645,-0.00399162
-0.309804,-0.0218218
-0.381366,-0.0277214
-0.135029,-0.0115557
-0.0853956,0.0664049
-0.300892,0.103044
-0.289957,0.066291
-0.173653,0.0462537
-0.0825722,0.0315918
-0.174636,-0.00215928
-0.168486,-0.0291824
-0.10522,-0.0182063
0.11371,-0.0037264
0.253047,0.00200638
0.217502,-0.00617093
0.0206778,-0.00152741
-0.185264,0.00989855
-0.0562788,-0.00358622
0.0453236,-0.0279379
0.0833742,-0.0258397
0.286001,-0.0010064
0.444922,0.00476464
0.279503,0.0138149
-0.108488,0.0279
-0.281764,0.0366877
-0.240278,0.0199173
-0.138947,-0.0262864
0.0714252,-0.0507409
0.2796,-0.0307389
0.179905,0.0079387
0.0360619,0.0136975
0.0687334,0.00254391
-0.0381742,-0.00716586
-0.165072,-0.00795077
-0.0683618,0.00567096
0.242481,0.021211
0.593881,0.0205916
0.643358,0.0219096
0.344327,0.0218355
0.105265,0.0158309
0.0914709,0.00652486
0.0670585,-0.00937344
-0.0855811,-0.000584739
-0.825163,0.037344
-1.22141,0.0297144
-0.686554,0.000771253
-0.224159,0.000504931
-0.162173,-0.0261641
-0.160523,-0.0436969
0.00542009,-0.0235345
0.0479301,-0.0289903
-0.10927,-0.0212568
-0.154123,-0.0108817
0.0522535,-0.0273924
0.308383,-0.00697353
0.49171,0.00964442
0.481216,0.00325311
0.254299,-0.0179343
0.100039,-0.0418417
-0.109052,-0.0176027
-0.0703366,0.0270447
0.274463,0.0168667
0.225551,-0.00321962
-0.0487268,4.95e-05
-0.297595,-0.0156965
-0.193822,-0.0201593
0.0456655,-0.0272246
0.2711,-0.00782157
0.463707,0.0192511
0.480655,0.010664
0.130849,0.0087905
-0.492514,0.0171499
-0.532573,0.0166922
-0.404975,0.0197413
-0.466261,0.0217305
-0.260968,0.00641947
0.0631167,-0.00783227
0.226092,-0.0103343
0.213694,-0.000428543
0.155818,-0.032411
0.177517,-0.0595281
0.0186369,0.00557344
-0.11009,0.0516683
-0.123398,0.0403609
-0.175774,0.034808
-0.131461,0.03411
-0.0173464,0.0180501
0.0391877,0.00545344
0.218501,0.00300809
0.677121,-0.00435892
0.870937,-0.00654793
0.533241,-0.00573877
-0.352016,-0.00502027
-0.786555,-0.0252615
-0.3564,-0.0350412
-0.0720625,-0.0239023
0.0594831,-0.0133274
-0.00578054,-0.00872048
0.0349906,-0.0156708
0.102431,-0.031941
0.0215233,-0.029049
-0.199612,-0.00156391
-0.445609,0.0629215
-0.275312,0.0928684
-0.073782,0.0224256
-0.133283,-0.0287751
-0.18365,-0.0127297
-0.153538,0.0109917
-0.0837381,0.0126045
0.116636,0.00553796
0.26025,-0.00459673
0.304756,-0.00962143
0.360379,-0.0196562
0.359072,-0.0172138
0.312509,-0.0178037
0.185671,-0.0541836
-0.143265,-0.0464447
-0.423221,-0.00771246
-0.390442,0.00536925
-0.240286,0.00153784
-0.100052,0.0130758
0.0284705,0.0323139
0.0796555,0.0419073
0.135795,0.032625
0.231275,0.0158206
0.33171,0.00712946
0.298005,0.0163471
0.0852175,0.0339202
-0.0287176,0.0281696
-0.265417,0.0124427
-0.367243,-0.00187082
-0.166021,-0.0202315
-0.0120239,-0.0284576
-0.0290489,-0.0306808
-0.078824,-0.011111
-0.0825525,-0.0011549
-0.0642553,-0.0184961
0.0911242,-0.0352663
0.336675,-0.0274946
0.535836,-0.0118747
0.534599,0.0154056
0.166149,0.0242501
-0.368642,0.0186145
-0.618863,0.0197368
-0.378297,0.0175957
-0.141501,0.0159175
-0.0907808,0.0184384
-0.0141162,0.0159063
0.0573482,0.0180508
0.0584549,0.00639273
-0.0185004,-0.0131313
-0.126808,-0.00978515
-0.166398,-0.00460525
-0.0907105,0.00548382
-0.0091516,0.020367
-0.0367906,0.0130001
-0.101432,0.00576091
-0.10422,0.0135067
-0.0197691,0.00936098
0.104141,-0.00869018
0.244312,-0.0109453
0.352227,-0.0133723
0.382741,-0.0256581
0.452263,-0.0352276
0.696161,-0.0371303
0.593306,-0.0447713
0.159807,-0.05803
-0.503266,-0.0400439
-0.768457,-0.0242323
-0.106592,-0.0115262
0.369208,0.0122545
0.193088,0.029812
-0.295503,0.0481215
-0.877954,0.0375358
-0.778545,0.0213541
-0.366998,-0.0122891
-0.123828,-0.0125197
0.100805,0.0120079
0.241378,0.029053
0.288119,0.0316862
0.134635,0.0160535
-0.113711,0.00277248
-0.174503,-0.00735206
-0.0636208,-0.0222554
0.0110234,-0.0257114
0.0302371,-0.0144999
0.0636105,0.00205118
0.193283,0.00861295
0.353644,-0.0105501
0.477303,-0.0362036
0.46748,-0.0122415
0.271408,-0.000664333
-0.00980871,-0.0160143
-0.282062,-0.00990586
-0.206464,-0.00727941
-0.22492,0.00245631
-0.33537,-0.00372215
-0.314247,0.0172046
-0.156325,0.0246427
0.00927789,0.0126595
0.0479003,-0.00998426
-0.0961446,-0.00554054
-0.140656,0.00684138
-0.0337584,0.014065
0.0702735,0.0256641
0.11026,0.0320085
0.0731839,0.0248041
0.0319144,0.0236779
0.185445,0.0128366
0.350658,0.00334058
0.396836,0.00641972
0.309095,0.0173321
0.103108,0.00812671
-0.157372,-0.00752708
-0.22869,-0.0109202
-0.0672844,-0.00734842
0.076228,-0.0220594
-0.0903857,-0.0309678
-0.317815,-0.0197718
-0.31222,0.00514895
-0.138094,0.0312914
-0.0384573,0.0119928
-0.194234,-0.0131614
-0.237642,-0.00768461
-0.106128,-0.00751546
0.0554127,-0.0167223
0.344959,-0.0158878
0.53452,-0.00820176
0.398107,-0.00959464
-0.00277315,-0.0148487
-0.363744,0.011225
-0.245405,0.0275397
0.0292462,0.0189928
0.126654,-0.0145358
0.0746784,-0.0419964
-0.00255249,-0.0319992
0.0388502,-0.0125182
0.0732801,0.00548499
0.0618583,0.0267946
-0.0974547,0.0256293
-0.23703,0.0117522
0.015657,0.00234078
0.232648,-0.00106773
0.1194,0.00713046
0.0126333,0.0121935
-0.178436,0.00812025
-0.279818,0.00248921
-0.13788,0.00107062
0.0997416,-0.00287861
0.277677,-0.00523888
0.265401,0.00848455
0.026962,0.0138741
-0.258435,0.018925
-0.291998,0.0235196
-0.169122,0.0203954
-0.15976,0.0182741
-0.149095,0.0163724
-0.0405254,0.0120548
0.0179681,0.00367439
0.0226856,-0.00868849
0.0501419,-0.0159768
0.104474,-0.0195679
0.135231,-0.0297135
0.11996,-0.0284332
0.0876303,-0.0206238
0.0721287,-0.0201309
0.028312,-0.0431365
0.0398746,-0.0200415
0.01167,-0.00157504
-0.0808212,0.00655372
-0.0494567,0.0153737
0.0511808,0.0156061
0.0488129,0.000994512
-0.030999,-0.00885558
0.0853655,-0.0121371
0.290327,-0.0137285
0.334489,-0.0145005
0.291377,-0.00471784
0.215057,0.0140174
0.149345,0.0177315
-0.130364,0.00649118
-0.438806,0.00682249
-0.256938,0.0169566
0.0326856,0.0218573
-0.113872,0.01598
-0.37162,0.00608478
-0.524854,0.00793193
-0.337894,0.0207019
-0.012791,0.00874491
0.193698,-0.00440037
0.222176,0.00023339
0.0940388,-0.00790814
-0.198355,-0.017582
-0.340455,-0.00875208
-0.103122,0.00511462
0.219421,-0.00339952
0.415434,-0.0371261
0.454596,-0.0247993
0.389939,-0.00944459
0.147693,-0.0321561
-0.179934,-0.0258806
-0.399846,0.00180655
-0.322462,0.00925036
-0.129336,-0.00278566
-0.0341204,-0.00366345
-0.0389743,0.0150589
0.0302379,0.0409256
0.137364,0.0397822
0.183627,-0.00209588
0.167622,-0.0280421
0.12025,-0.0252133
-0.06162,-0.00823308
-0.311679,0.00667463
-0.243427,0.0108001
-0.0906726,0.00500154
-0.00948519,0.0071211
0.0607229,0.00560483
0.180527,-0.00460842
0.314906,-0.000560715
0.520273,0.00206659
0.553369,0.00493809
0.216198,0.0147987
-0.34348,0.0262906
-0.671857,0.0297697
-0.321316,0.0187621
-0.0196575,0.000129544
-0.11975,-0.0290026
-0.192809,-0.038546
-0.114478,-0.00890943
-0.00699285,0.00225203
0.223034,-0.00123467
0.373911,0.00206674
0.343408,0.00964867
0.0885718,0.0106131
-0.209235,0.00661555
-0.285756,-0.00444667
-0.320558,-0.00991121
-0.254611,0.00485962
-0.0577311,0.0312067
0.094701,0.0262032
0.137821,-0.00634814
0.0572328,-0.0244366
-0.0205812,-0.0231046
0.000734803,-0.0163963
0.114332,-0.00391368
0.29101,0.00631364
0.350495,0.0100899
0.0158047,0.0158483
-0.0374978,0.0266133
0.263338,0.0264001
0.280933,0.00429951
0.0974038,0.000693246
-0.443046,-0.000921136
-0.691111,-0.0122904
-0.310006,-0.00823931
0.0384873,-0.00581392
0.131428,-0.0198711
0.0917799,-0.0131932
-0.0612176,-0.0301695
-0.224578,-0.0392182
-0.182089,-0.00842439
-0.00323536,0.00999344
0.12564,-0.00542986
0.114619,-0.0195694
-0.0193296,-0.0013887
-0.140758,0.0114169
-0.103394,0.00829307
0.0182314,0.000129977
0.14567,0.0180729
0.155124,0.0160793
0.0843585,0.00580309
0.031258,0.0108835
0.0371266,0.013935
0.0818395,0.0150598
0.121017,0.0137684
0.0980118,0.00142313
0.024079,-0.0173317
-0.0854151,-0.0133218
-0.0642107,0.00521722
0.0496477,0.00482011
0.0755009,0.00559177
-0.0451443,0.0139296
-0.181651,0.0131852
-0.111544,-0.000320661
0.0232497,-0.00119231
0.131572,0.00663572
0.198855,-0.00693074
0.092731,-0.00365669
-0.0828638,0.0145211
-0.0554748,0.0150655
0.116591,0.0136721
0.17504,-0.00565795
0.0181049,-0.0333132
-0.12318,-0.0229081
0.0864177,-0.00353665
0.195034,-0.00819601
0.010205,-0.0133954
-0.321754,0.00215394
-0.470353,0.00116459
-0.209611,-0.0326213
0.0535738,-0.0401555
0.263342,-0.0244803
0.381444,-0.0120167
0.249287,0.00313268
-0.051279,0.00889321
-0.316945,0.0189293
-0.348655,0.0265542
-0.309161,0.0172713
-0.183647,0.000998376
-0.046728,9.78e-05
-0.0269627,-0.00123315
-0.00908644,0.00259303
0.0384056,0.0112085
0.0745948,0.00524926
0.150354,-0.00829817
0.203308,-0.00840628
0.183824,-0.000136814
0.0384855,0.0028068
-0.0983678,-0.00282518
0.045135,0.00291152
0.203661,0.00738292
0.195616,0.0196383
0.0468377,0.0238657
-0.185693,0.0183764
-0.145597,0.00550867
-0.0300891,0.00700122
-0.0510742,0.00302369
-0.0595572,-0.0114652
0.0132916,-0.0218766
0.0551173,-0.0189343
-0.0217295,-0.0128326
-0.0306752,-0.0108798
0.109964,-0.0114138
0.159534,-0.0175031
0.0253616,-0.00180191
-0.155431,0.00746313
-0.172105,-0.0174981
-0.0856776,-0.000439255
-0.0110391,0.0326967
0.0406697,0.0256947
0.0706401,0.00138734
0.103977,-0.0209527
0.186638,-0.0221086
0.169902,-0.00162892
0.108068,-0.0101231
-0.0237555,-0.0200713
-0.280255,0.0143357
-0.246906,0.01832
-0.0729625,0.00979334
0.0154627,0.00612226
0.0356286,0.0145307
-0.0164362,0.0183727
-0.0858707,-0.00628845
-0.0291554,-0.0257117
0.0311362,0.0331816
0.0522399,0.0141495
0.0576846,0.02107
0.0539492,0.048335
-0.0333398,-0.0364634
-0.0976183,-0.0496181
-0.0505881,0.0312032
-0.0600289,0.0288361
0.0929129,-0.0157936
0.333802,-0.0382707
0.398027,-0.0484768
0.210822,-0.00631341
-0.0496658,0.00885433
0.10503,-0.0148957
0.226068,-0.0127042
-0.00803095,-0.0121806
-0.262598,-0.0117114
-0.44434,0.0391392
-0.365507,0.0504991
-0.234184,0.0168922
-0.23302,-0.00562416
-0.179397,0.00367811
-0.111207,0.0135171
0.013932,0.022729
0.180922,0.0373965
0.180204,0.0109594
0.0241148,-0.0407944
0.0353496,-0.0247419
0.161806,0.00278428
0.15277,0.00364713
-0.0632433,-0.0468807
-0.240161,-0.0473137
-0.116875,-0.0429182
0.117699,0.0134093
0.186367,0.0426207
0.290649,-0.0106705
0.255188,0.00114465
0.0265607,0.0222841
-0.161876,0.0189087
-0.157355,0.015311
-0.0243678,-0.0206633
0.0460881,-0.01582
-0.0804501,0.00576843
-0.202175,0.0244306
0.0129491,0.0209375
0.193608,0.0245483
0.214075,0.0315336
0.00409448,-0.0231486
-0.36081,-0.0322989
-0.211823,0.00260492
-0.0273713,0.0192765
0.0182332,0.0648892
0.235525,0.056475
0.406354,0.0317996
0.226097,0.00681799
-0.0704258,0.00615385
-0.196483,0.00316624
-0.252687,-0.0321218
-0.0511934,-0.0751985
0.24044,-0.0607547
0.215548,-0.0331146
-0.0270484,-0.0459088
-0.416199,-0.0340832
-0.433822,0.00861519
-0.0750751,0.0227628
0.0997984,0.000943871
0.12909,-0.0338529
0.105423,-0.044742
0.0548825,0.0149784
-0.0185957,0.0543987
-0.143341,0.021959
-0.0201557,-0.0365195
0.25549,-0.0560339
0.330182,-0.0205607
0.193606,-0.012083
-0.0734122,0.00470432
-0.198593,0.0232456
-0.0553268,-0.00106998
0.0638147,-0.00104354
0.219819,-0.0292672
0.0955683,-0.000701649
-0.329174,0.0212439
-0.341509,0.022471
-0.0980677,0.0581857
0.0318576,0.0362404
0.318017,-0.0208102
0.473289,-0.0769218
0.359939,-0.0568953
-0.0203995,0.0134406
-0.376683,0.0485976
-0.451278,0.0307847
-0.434665,0.0154073
-0.362207,0.0393114
-0.157066,0.0816136
0.00406141,0.0388012
-0.0546629,0.00912083
-0.0863815,-0.00173872
0.0624032,0.0186718
0.309801,0.0454241
0.489501,0.0119671
0.458742,-0.0565469
0.238001,-0.0696635
-0.0764567,-0.0576091
-0.206625,-0.0178301
-0.150667,-0.0139802
0.0258861,-0.0619343
0.245281,-0.094745
0.316362,-0.0625929
-0.00566172,0.0707926
-0.396751,0.075484
-0.279054,0.0542396
-0.247029,0.0307549
-0.184137,0.000632614
0.138259,-0.00525213
0.386577,0.00298147
0.389098,0.0106276
0.150444,0.0538485
-0.125843,0.0715588
-0.255799,0.0422961
-0.232031,0.00794604
-0.104536,0.0053283
-0.173514,-0.0485424
-0.26531,-0.0757937
-0.118136,0.00251872
0.153637,0.0188794
0.314755,-0.00245102
0.158491,0.00279441
-0.0992858,0.0162309
-0.168892,0.0123875
-0.087954,0.000905544
-0.0501397,-0.0129582
0.000442741,-0.0168259
0.0487603,-0.0268176
0.0379679,-0.0469973
0.0386329,-0.0505028
0.0178882,-0.0438871
-0.00278434,-0.00508472
0.137819,0.023083
0.272711,-0.0177931
0.145331,-0.0148439
-0.0897805,0.0397176
0.0367487,-0.00112237
0.373713,-0.0316195
0.272845,0.0519853
-0.100239,0.0688035
-0.518442,-0.0124369
-0.507661,-0.0465976
-0.172037,0.0118987
0.409509,-0.0305
0.721334,0.0186206
0.458892,0.0992692
-0.244448,0.106366
-0.756007,0.0706918
-0.484901,0.017981
-0.212135,-0.0187752
-0.0704628,-0.0315519
0.00905408,-0.0367527
0.0448739,-0.0501829
0.141281,-0.0476259
0.201638,-0.022583
0.188974,-0.0184618
0.122206,-0.0332943
0.0813047,-0.0669651
0.026106,-0.125184
-0.221528,-0.0276484
-0.333537,0.0604019
-0.106368,0.0437596
0.00887948,0.00316293
-0.0374921,-0.0199302
-0.040309,-0.00370706
0.124144,0.0286784
0.341142,0.0244429
0.544282,0.0190184
0.49857,0.0144047
0.126688,0.015569
-0.365231,0.0349728
-0.679248,0.0529998
-0.468391,0.0150482
-0.0775928,-0.0436963
0.301757,4.41e-05
0.363484,0.00640657
0.176145,-0.00257902
-0.0779564,-0.0770708
-0.327245,-0.0962736
-0.339589,-0.0156239
-0.0250198,0.00729052
0.295826,0.0223011
0.47107,0.0586353
0.441107,0.0132174
0.280154,-0.0222234
0.0474858,-0.00858468
-0.473268,0.0152757
-0.644657,0.0390382
-0.454563,0.0724386
-0.23688,0.0779687
-0.059681,0.0423691
-0.0379549,0.00804512
-0.0941021,-0.0143437
-0.00765387,-0.0354749
0.0942189,-0.0711892
0.110041,-0.0512913
0.085225,-0.0469789
0.000242181,-0.0419519
-0.0407805,0.00668675
-0.00993403,0.0110162
0.0270686,-0.0193906
0.038986,-0.0485777
0.179092,-0.0152
0.366882,0.0661189
0.479249,0.0663895
0.406682,0.029977
0.266061,0.02759
0.154383,0.0240786
-0.0573096,-0.0312051
-0.167356,-0.10206
-0.25578,-0.00767712
-0.23762,0.0833493
-0.337105,0.0860044
-0.48632,0.0447874
-0.399194,0.0227723
-0.237359,0.0152286
0.0119528,0.00727711
0.20923,-0.0341484
0.357912,-0.0183342
0.209505,0.0401006
0.0959837,0.0483931
0.172329,0.0190608
-0.0479057,-0.0110278
0.012255,-0.00500221
0.12792,-0.0108962
0.0348342,-0.0603341
0.269715,-0.0567955
0.441966,-0.0165238
0.213461,-0.0478499
-0.32595,-0.103668
-0.722036,-0.032098
-0.294974,0.0123493
0.114038,0.0325081
-0.0165675,0.0597491
-0.227398,0.0220459
-0.129032,-0.0541123
-0.0779677,-0.0358555
-0.251207,0.0108679
-0.175252,0.0421357
0.154536,-0.0342035
0.238211,-0.0626754
0.0787206,0.012399
-0.00314357,0.0695541
-0.0376035,0.0790555
-0.114581,0.0543188
-0.185149,0.077217
-0.0167165,0.0573546
0.228841,-0.00530148
0.271532,-0.144147
0.0974938,-0.196219
0.00453349,-0.0421118
0.0325402,0.0672068
0.233295,0.066061
0.418598,0.0158137
0.357189,-0.0298792
0.0543626,0.00621148
-0.188263,0.0373043
-0.314369,0.0481019
-0.59602,0.0620559
-0.406768,0.0572325
0.275305,0.016227
0.70509,-0.0455979
0.610912,-0.0868051
0.0935419,-0.0220324
-0.0435656,0.00165215
0.0319828,-0.0043189
-0.202394,0.0014383
-0.528561,-0.0154866
-0.327101,-0.0425156
-0.0174023,-0.00618141
-0.0749158,-0.0101536
-0.222086,-0.0991121
-0.218161,-0.131563
-0.273401,-0.0163322
-0.277205,0.0744204
-0.044149,0.0725494
0.691882,0.0255662
1.04662,0.0513246
0.890757,0.0553482
0.183605,0.0499352
-0.794419,0.0255494
-1.05069,0.00174594
-0.64421,0.02318
-0.234468,-0.0149278
0.0406,-0.0486454
0.147788,-0.0541141
0.0761894,-0.0938024
-0.169914,-0.0205637
-0.0339225,0.0650821
0.415201,0.0696904
0.413723,0.05621
0.0391923,0.046605
-0.505667,0.0197553
-0.581567,-0.0513296
-0.307554,-0.0508756
-0.173682,-0.036559
0.0582581,-0.00538673
0.437255,0.0205008
0.647129,0.0101078
0.434669,0.026219
0.157381,0.0144709
0.987099,0.00141287
2.36725,0.000638939
2.34024,0.0679733
0.571958,0.0343025
-2.46382,-0.0299911
-3.36267,-0.0530962
-1.44487,-0.0580907
0.285956,-0.0643134
1.12345,-0.0254052
0.939619,0.00815597
0.0213327,0.0342722
-1.00294,0.0688634
-1.25952,0.0243359
-0.997346,-0.0488384
-0.702864,-0.034217
-0.243109,-0.0121426
0.0733135,-0.0796382
0.129071,-0.0896825
0.167244,0.0212244
0.620376,0.0741552
0.875588,0.0661455
0.567437,0.0447467
-0.00200954,0.0589413
-0.524912,0.0445984
-0.319561,0.0161428
0.00811122,0.00983028
0.544871,-0.0321703
1.28241,-0.079741
1.352,-0.071796
0.706539,-0.0115423
-0.36243,0.0706618
-0.820857,0.117525
-0.590004,0.0864872
-0.377298,0.027111
-0.563003,0.0261596
-0.756009,-0.00606604
-0.50392,-0.0717157
-0.332265,-0.0898254
0.0716974,-0.0278694
0.616864,0.0150248
0.831379,-0.0425912
0.674191,-0.0554009
0.183355,0.00619763
-0.332491,0.0629169
-0.303595,0.0593411
-0.356572,0.010296
-0.414143,-0.0117299
0.0341695,-0.0237124
0.821657,0.00133671
0.89383,-0.021291
0.198792,-0.0178685
-0.758163,-0.0163641
-1.11213,-0.0648182
-0.656694,-0.101024
-0.0943959,-0.0110525
0.309975,0.0908129
0.524082,0.0914624
0.492952,0.0153128
0.424195,-0.0159169
0.654006,-0.0977841
1.09227,-0.19245
1.33735,-0.0651393
0.668527,-0.00530545
-0.280803,-0.0250558
-1.16883,0.00234154
-1.70173,0.0408585
-1.44399,0.082692
-1.00331,0.108238
-0.490073,0.0657471
-0.253454,0.00538297
-0.0732797,-0.000127125
0.056657,0.0369796
0.0228934,0.0443981
0.0550186,0.00888656
0.00944531,0.00461294
0.0564242,0.0457854
0.110807,0.0624935
0.105601,0.0453593
0.0540233,0.0519935
0.161842,0.04788
0.502247,-0.0214933
0.64151,-0.100897
0.376482,-0.0494909
0.373068,0.0395146
0.737906,0.0590468
0.984763,0.00303949
0.476115,-0.0202117
0.0223286,0.0312757
-0.565985,0.0301622
-0.669731,-0.0475684
-0.219266,-0.101606
-0.281229,-0.151938
-0.413417,-0.162426
-0.0628738,-0.106799
0.0344746,0.0136974
-0.100976,0.0613676
-0.161866,0.0425197
0.100595,0.00219822
0.322204,3.6e-05
-0.352197,0.0289487
-0.736706,0.0867229
0.00659609,0.0147149
0.452292,0.00796239
-0.0576878,0.0524678
-0.633112,0.120655
-0.607839,0.0781441
-0.0118264,-0.0424927
0.127155,-0.100307
0.132484,-0.0895981
0.217514,-0.0170902
0.112626,0.016416
-0.0837741,0.0262809
-0.217966,0.055365
0.0140318,-0.0101794
1.04374,0.0219578
1.48461,-0.00594905
1.24192,-0.0302163
0.069343,-0.0292758
-1.13613,-0.0214519
-1.27988,-0.00583556
-1.17418,0.0202213
-0.408174,-0.0302592
0.352466,-0.128276
0.682593,-0.0725586
0.490478,0.0853798
-0.187282,0.154906
-0.588199,0.0557964
0.0157277,-0.0200282
0.58018,0.0228417
0.460095,0.125636
-0.540596,0.0741926
-0.722569,-0.0468808
-0.451148,-0.0693169
0.161769,-0.0619116
0.962916,-0.083352
1.03466,-0.0797144
0.664231,-0.0911605
0.138894,-0.0704274
-0.179572,-0.000683255
0.0294048,-0.0311035
0.17121,-0.0359876
-0.0650797,0.0661012
0.00592418,0.144736
-0.46645,0.109995
-1.06002,0.00534541
-1.25108,-0.0427328
-1.04613,-0.0641492
-0.539975,-0.0148307
-0.0193299,0.169204
0.592429,0.372699
1.10396,0.272935
1.13004,0.0621784
0.386789,-0.0324358
-0.419928,-0.141626
-0.491476,-0.219912
-0.509938,-0.201693
-0.452526,-0.116565
-0.139732,-0.0337617
0.0745358,-0.0210403
0.269471,-0.0589373
0.459606,-0.129782
0.402384,-0.115723
0.305603,-0.0978638
0.124129,-0.110893
0.0142263,-0.061478
-0.0249622,0.0292162
-0.294189,0.0942404
-0.0639607,0.10229
0.810237,0.0862251
1.03656,0.112453
0.349212,0.15133
-0.528414,0.0996566
-0.980669,0.0546784
-0.490792,0.0266407
0.0830294,-0.00161623
0.301507,0.0194081
0.380605,0.0729812
-0.000971189,-0.000436625
-0.349762,-0.0845256
-0.834656,-0.0666169
-0.891202,-0.0277353
0.228674,-0.0902821
0.901767,-0.0780721
0.619304,-0.0252066
-0.214121,-0.0530134
-0.22127,-0.082621
0.643857,0.0104662
0.692304,0.110719
-0.184093,0.152934
-1.18483,0.121815
-0.970469,0.0605475
-0.0531795,0.0037035
0.485782,-0.0844264
0.48158,-0.117203
0.014056,-0.0709804
-0.631615,0.04661
-0.490407,0.051832
-0.136539,0.039698
-0.0773889,0.0177105
0.467328,-0.0853653
1.10605,-0.114804
1.2092,-0.0381007
0.583445,0.0204146
-0.772702,0.0343663
-1.37083,0.0637422
-0.79024,0.0795929
0.0546827,0.0291372
0.628033,-0.00637276
0.78315,-0.0108571
0.45107,-0.0666669
-0.0526419,-0.121278
-0.135252,0.0114243
-0.461841,0.0679034
-0.68226,0.0151433
-0.465028,-0.0500431
-0.196382,-0.0588164
0.0441079,-0.0954084
0.0991794,-0.0759209
-0.00163955,0.0481526
-0.0732375,0.105241
0.104753,0.0731319
0.303025,0.0605457
0.397339,0.0399576
0.310358,-0.00359034
0.164542,-0.00949404
-0.0566338,0.0502112
-0.230808,0.077476
-0.0599316,0.0854241
0.213295,0.0425286
0.115075,-0.0465522
0.0203354,-0.0532139
0.422007,-0.0727473
1.03497,-0.0921871
0.718356,-0.0803704
-0.146148,-0.0746647
-1.05484,-0.0263611
-1.28744,0.0434742
-0.837578,0.0473448
-0.365469,0.00652531
-0.0241498,0.0470986
0.139821,0.0529564
0.170666,0.0347539
0.0586227,-0.0061907
-0.0328945,-0.0184149
-0.00568049,-0.0221302
0.0620873,0.00184648
0.236655,0.0327661
0.277777,0.0422825
0.124292,0.0068505
-0.165727,-0.0110037
-0.244764,0.0311344
-0.0150203,0.00522692
0.371477,-0.0434653
0.873851,0.047747
0.789613,0.128407
0.378832,0.0883263
-0.456017,-0.0872221
-0.841325,-0.228485
-0.363148,-0.246106
0.29971,-0.124732
0.558352,0.0377053
0.274937,0.0426669
-0.363328,0.0456954
-0.562193,0.0757498
-0.518768,0.0923568
-0.546201,0.0531651
-0.414118,0.0172373
-0.177782,-0.0665142
-0.103748,-0.0847978
0.07531,-0.0176503
0.300922,-0.00914002
0.269973,-0.0107131
-0.12076,0.0945599
-0.0177173,0.127752
0.493568,0.0596827
0.703559,-0.0305262
0.522835,-0.0562541
0.0808114,-0.0317595
-0.141224,-0.00046506
-0.0536662,0.00229427
-0.287976,-0.0552652
-0.625596,-0.0901797
-0.445738,-0.0334779
0.306362,0.0391312
1.64012,0.0499112
1.65817,0.0784525
0.270712,0.176298
-1.43062,0.197617
-1.81788,0.051476
-0.948027,-0.0950822
-0.412112,-0.135544
-0.193169,-0.125576
-0.0323445,-0.0896809
0.0605512,-0.0516918
0.11563,-0.019753
0.169912,0.0095066
0.36919,0.0392201
0.542637,0.0300761
0.924032,-0.0145164
1.11253,-0.0496918
0.765351,-0.0303893
-0.216584,0.0244317
-1.20137,0.0597571
-1.13357,0.0448146
-0.463962,0.0198063
-0.093755,-0.000453586
-0.151455,0.00828758
-0.127675,0.069273
0.117942,0.0997383
0.172714,0.0410927
0.0620979,-0.0463763
-0.0354546,-0.0999964
-0.124915,-0.0777221
-0.153492,-0.044653
-0.127017,0.0215951
-0.0197016,0.0258834
0.209666,-0.0194401
0.335597,-0.0261281
0.371472,-0.00293685
0.228942,0.0239089
-0.0384385,0.000395607
0.0755192,-0.024654
0.275425,-0.0192042
0.377364,-0.00676472
0.39267,0.000796767
0.0158803,0.0224823
-0.359465,-0.00486719
-0.436593,-0.0417727
-0.285803,0.0673963
-0.0155064,0.0448648
0.373318,-0.0369928
0.564553,-0.0628109
0.178897,-0.0414267
-0.38163,0.0123532
-1.03635,0.042845
-0.987669,0.0322695
-0.208278,-1.95e-05
0.353853,0.0156031
0.553739,0.0587696
0.559058,0.0667077
0.43883,0.0102117
0.116436,-0.0509617
-0.0188193,-0.0518586
-0.0671258,-0.0141885
-0.443135,-0.0132988
-0.39539,-0.0133421
0.0100198,-0.0494656
0.242109,-0.0402435
0.367808,0.000808847
0.526157,0.0264658
0.0274942,0.0267174
-0.443404,0.0215151
-0.650512,0.0146631
-0.50335,-0.00374368
-0.103222,-0.0240471
0.152215,0.0138989
0.240259,-0.0508782
0.158058,-0.11937
0.0630176,-0.0463623
-0.0605336,0.0226815
-0.110573,0.0561291
0.0982408,0.0533764
0.337616,0.0451981
0.313046,0.0582149
-0.0156256,0.0630359
-0.328214,0.0195039
-0.404901,-0.0145641
-0.245324,-0.00123561
0.104468,0.0744092
0.395377,0.11664
0.273033,-0.0116456
-0.0240531,-0.0822325
-0.0965935,-0.0692887
0.0890011,-0.0450585
0.140155,-0.0296679
-0.000540365,-0.0238787
-0.148736,0.0023816
-0.0827408,0.0388588
0.0919359,-0.00696635
0.193826,-0.119083
0.0968148,-0.0931473
-0.10411,0.0362058
-0.260447,0.0491571
-0.391387,0.00534829
-0.338086,0.00506712
-0.189259,0.00960976
-0.0712565,0.00961081
0.0507067,0.019564
0.214288,0.0292453
0.344973,0.0341192
0.389107,0.0277737
0.354998,0.0364173
0.166255,0.0465301
-0.133675,0.0174504
-0.0511402,-0.0139021
0.0892563,-0.0749191
-0.188524,-0.0579519
-0.104088,0.0434561
0.422108,0.0490871
0.73075,-0.00426225
0.244459,-0.0245271
-0.847344,0.00839464
-0.840613,0.039643
-0.37771,0.0106947
-0.196907,-0.0294053
-0.0180883,-0.0626242
0.157232,-0.0639605
0.1798,-0.0439744
0.155145,-0.0303189
0.134236,-0.0113899
0.0889272,0.0565785
0.118088,0.0831311
-0.0148303,0.0667632
-0.408334,0.0548297
-0.419951,0.0289095
-0.0767839,-0.0241368
0.162884,-0.0741094
0.271318,-0.085637
0.227788,-0.0454244
-0.0273743,-0.0261881
-0.0953197,-0.0379259
-0.00359559,-0.053913
0.0740575,-0.0766988
0.286995,-0.0459413
0.399157,0.0638545
0.428146,0.110048
0.386179,0.0657824
-0.0659048,0.0394665
-0.415142,0.0579009
-0.471484,0.0353645
-0.456121,-0.0138686
-0.360227,-0.0230248
-0.300417,-0.008219
-0.189813,0.00306277
-0.060554,-0.0214934
0.00617061,-0.0190458
0.138526,0.00567116
0.42402,0.0201192
0.705281,0.0238204
0.726913,0.00368558
0.348855,-0.011769
-0.236059,-0.00272593
-0.512771,0.0075739
-0.252752,-0.00407257
0.0614691,0.0505791
-0.0133602,0.0565658
-0.218228,0.0256692
-0.445158,-0.00853479
-0.560064,-0.0291435
-0.41194,0.0014725
-0.123399,0.046268
0.289753,0.00992925
0.474285,-0.0572863
0.403444,-0.065829
0.166678,-0.0593748
-0.129598,-0.0367123
-0.215804,-0.030532
-0.0729476,-0.04311
0.00916963,-0.0429668
0.0763624,-0.0147439
0.18836,0.00896054
0.346723,0.0171741
0.588293,0.0179734
0.422745,0.0234539
0.208505,0.0469402
-0.378061,0.000703924
-0.611756,-0.00972404
-0.3468,0.0257422
-0.166122,0.033356
0.0532116,0.0210106
0.160502,-0.0366762
0.117035,-0.088028
-0.0208237,-0.030035
-0.0543175,0.0644208
-0.0919058,0.0827152
0.0150559,0.0402
0.178459,0.00760776
-0.0146868,-0.00997268
-0.392676,-0.000884572
-0.4799,0.0227159
-0.272512,0.0204271
-0.126452,-0.00221619
0.0175085,-0.0316677
0.259079,-0.0454698
0.380156,-0.0372375
0.345428,0.0155956
0.283972,0.100393
0.23479,0.0801302
0.161397,-0.00353297
0.0558889,-0.0396584
0.0611555,-0.0259717
0.0457403,-0.0599661
-0.291738,-0.0788294
-0.578614,-0.0319054
-0.398058,0.0145093
-0.179988,0.0190479
-0.110435,0.0184798
-0.0578384,-0.00436649
0.0456554,-0.0439972
0.169409,-0.021702
0.268221,-0.00581855
0.326217,0.0104284
0.161632,0.0170387
-0.126682,-0.00236312
-0.16011,0.0166697
-0.0828917,0.0350022
-0.0180061,0.0202706
0.160011,0.0165698
0.723953,-0.00704168
0.884352,-0.0216936
0.372701,0.00744067
-0.321964,0.00805591
-1.04947,0.0100971
-0.721412,0.0320991
-0.135619,0.0122137
0.0553743,-0.0265083
-0.0775949,-0.0284825
-0.146354,-0.018555
-0.144264,-0.00265153
-0.0658291,-0.0185191
-0.0620712,-0.0345974
-0.0897636,0.00239466
0.0678324,0.0333552
0.181127,0.0240842
0.214612,-0.0219901
0.170472,-0.0332748
0.179064,0.038251
0.361853,0.0755848
0.547832,0.0796564
0.366293,0.00101568
-0.231099,-0.0406
-0.652641,-0.00272889
-0.321383,-0.0284305
-0.0301192,-0.0670993
0.0117192,-0.0521247
0.0940663,-0.0205641
0.15331,0.0016986
0.00360577,0.0315404
-0.0789665,0.0293739
-0.166327,0.0153975
-0.196117,-0.00935642
-0.160554,-0.016874
-0.224141,-0.00443467
-0.187091,-0.00764377
-0.060629,-0.000669094
0.0163319,0.00715477
0.0469893,-0.0155979
0.0751589,-0.0275179
0.0942015,0.00829998
0.123333,0.035617
0.154358,0.0275458
0.134591,0.0299222
0.0928709,0.0320169
0.0488116,0.0427198
0.133556,0.0272116
0.304674,-0.00730663
0.275541,-0.0477445
0.0211225,-0.0388305
-0.280396,0.00205495
-0.272482,0.00936298
-0.0308376,-0.00288651
-0.00960307,-0.00225807
-0.165341,0.00534576
-0.288773,0.0152703
-0.22311,0.011374
-0.0992204,-0.0139135
-0.0335879,-0.0453349
0.00132191,-0.0320908
0.0226668,0.017174
0.191882,0.015969
0.659893,0.0047291
1.05631,0.0120054
0.824887,0.00209783
-0.0129163,-0.000833706
-0.680508,-0.0314779
-0.708395,-0.0235986
-0.234363,0.0165709
0.064343,0.0294992
0.0675249,0.0270837
0.147308,-0.0142294
0.42677,-0.0430836
0.361525,-0.0569289
-0.355187,0.016349
-0.73274,-0.0151106
-0.826432,-0.0481764
-0.705644,-0.0236922
-0.330431,0.0134199
-0.108601,0.0308503
-0.0613231,0.0276625
-0.0011026,0.0201299
0.0960882,0.0169128
0.146651,0.0118197
0.121509,0.013662
0.104653,0.0164547
0.133168,-0.00624333
0.190339,-0.0304299
0.267528,-0.00879511
0.259239,0.0155366
0.229442,0.0298105
0.218449,0.0274116
0.202562,0.0227744
0.0954296,0.0217913
-0.0509426,0.00699273
-0.0583945,-0.0189692
0.0329384,-0.0120607
0.0819753,0.0021502
0.0421044,-0.0189879
-0.0993961,-0.0403319
-0.158957,-0.0122335
-0.213148,-0.0101022
-0.208931,-0.0105314
-0.118711,0.010369
-0.0133336,0.00480507
0.0997584,-0.00244284
0.159588,-0.00605356
0.122226,-0.0256918
0.0618058,-0.0259561
0.013594,0.0109932
-0.0239468,0.0425554
0.00712421,0.0835471
0.147129,0.114727
0.223715,0.0499432
0.111618,-0.0269663
0.17228,-0.0357864
0.261976,-0.0662819
0.20671,-0.0859587
-0.0303757,-0.0964898
-0.378251,-0.061412
-0.556532,-0.000872086
-0.63396,0.0272032
-0.333162,0.041095
-0.08105,0.0197037
0.0180404,-0.0108658
0.136127,-0.0307072
0.15358,-0.0533211
0.0541494,0.00349213
0.134343,0.0535279
0.170547,0.0491271
0.148679,0.0180325
0.0340343,0.016246
-0.225698,0.0256483
-0.266568,0.000601573
-0.208771,-0.0200185
-0.030246,-0.021317
0.42231,-0.0388373
0.723066,-0.00847474
0.703886,0.0229363
0.094451,0.0450014
-0.743786,0.0369813
-0.650041,0.00927775
-0.258987,-0.000896474
-0.000857549,-0.00766789
0.0742364,-0.0206718
-0.054496,-0.0180681
-0.16051,-0.000876308
-0.0210904,0.0291928
0.205036,0.0393674
0.355311,0.00949765
0.278864,-0.0145185
-0.144247,0.0137704
-0.460223,0.0172234
-0.278614,0.000367231
0.0079546,0.00422214
0.13754,0.0173213
0.0979167,0.00481871
-0.0283733,-0.00191636
-0.0704868,0.00477196
0.00724563,-0.00208095
0.132728,-0.018991
0.2056,-0.0488539
0.147191,-0.0743452
-0.0399974,-0.0433292
-0.179644,0.035949
-0.215786,0.0676712
0.0191993,0.0370159
0.655428,0.035922
1.0413,0.00836794
0.664992,-0.0255022
-0.367925,-0.0707477
-0.860958,-0.037291
-0.544566,-0.0204968
-0.367311,-0.00236232
-0.212449,-0.011971
0.0437643,-0.105453
0.0991892,-0.104448
0.0610268,-0.0247308
0.0292776,0.0245848
-0.0274279,0.029845
-0.021303,0.0487109
-0.00265597,0.0795034
0.0502281,0.0628331
0.113126,0.0282851
-0.119342,0.0110471
-0.241174,0.0122176
-0.102346,0.0257903
-0.0737798,0.0287281
-0.0258029,0.035417
0.0702566,0.0279026
0.0807629,0.0121683
0.0517493,-0.00436537
0.0880855,-0.00131375
0.116743,0.00803569
0.0102843,-0.00971266
-0.0315232,-0.0297439
0.0245871,-0.0240443
0.0962332,-0.00619912
0.133022,0.00370018
0.179394,-0.0212667
0.174387,0.0107856
0.204986,0.0134663
0.00447523,-0.0391917
-0.255557,-0.072556
-0.33718,-0.0126626
-0.35488,0.0290951
-0.138581,-0.000809247
0.0281904,-0.0150805
0.106467,0.00564386
0.173039,0.0123001
0.133896,0.0162471
0.0286489,0.0084433
-0.0712542,-0.00733806
0.00553815,-0.00104316
0.232794,0.00981776
0.440667,-0.0142421
0.383369,-0.0230677
-0.0897496,0.00208669
-0.58055,0.0122422
-0.490442,0.028779
-0.020266,0.0131394
0.236449,-0.065067
0.163607,-0.103679
-0.0741355,-0.0998788
-0.151007,-0.0419144
-0.182697,0.0235206
-0.161195,0.059953
-0.112718,0.0911548
-0.0543253,0.0489102
-0.043875,0.0145051
-0.100723,0.00164162
-0.160004,-0.000260522
-0.174385,0.0246703
-0.0994579,0.0412258
-0.0272495,0.0460347
0.048668,0.0375478
0.209601,0.0312846
0.545007,0.0170108
0.769464,-0.00902659
0.751923,-0.0162012
0.377588,-0.00334995
-0.101158,-0.00197157
-0.151304,-0.0105706
0.0917244,-0.0160326
0.20032,-0.00654149
0.00833881,0.00149859
-0.640535,-0.0321555
-0.828945,-0.0205598
-0.458883,-0.0177276
-0.329846,-0.0186664
-0.379736,-0.010367
-0.282118,-0.0256509
-0.0225494,-0.0309282
0.163186,-0.00403595
0.252129,0.0201159
0.207177,-0.0104767
0.146528,-0.00648166
-0.00838432,0.0197681
-0.0331668,0.033707
0.18495,0.0156631
0.368066,0.00650184
0.337234,0.0120632
0.0825773,-0.00390097
-0.167706,-0.0308779
-0.266624,-0.0032616
-0.0431346,0.00732857
0.294147,-0.0531423
0.277383,-0.0719257
0.102015,-0.0371446
-0.0392889,0.0518965
-0.180051,0.0514597
-0.127028,0.0415824
-0.0596784,0.0346519
-0.0946052,0.00212937
-0.028215,-0.0121069
-0.0326676,-0.00064684
-0.199177,0.00867263
-0.228275,-0.00873185
-0.157694,-0.000380163
-0.088224,0.0119046
0.010991,-0.00231652
-0.00156511,-0.0161427
-0.0603385,0.0177083
-0.0345731,0.0281556
0.0197584,0.0211347
0.0692783,0.0191341
0.120597,0.0272264
0.109721,0.0292351
0.12614,0.00634102
0.296336,-0.0118396
0.626308,-0.0283679
0.812253,-0.0417014
0.461761,-0.031104
-0.150518,-0.0244682
-0.738705,-0.0319477
-0.778091,-0.00117297
-0.460053,0.0373634
-0.209553,0.0182796
0.0957738,-0.0534103
0.190726,-0.0608955
0.119389,-0.00224589
0.0687297,0.0203036
-0.0583616,0.0150154
-0.0923509,0.0152127
-0.204981,0.061145
-0.0715816,0.0671895
0.343415,0.0449426
0.647969,0.00117162
0.393611,-0.0476851
-0.11359,-0.0625537
-0.359426,-0.0461664
-0.470041,-0.0253859
-0.44792,-0.0364084
-0.274964,-0.00304343
-0.0977025,0.040559
0.0221808,0.0314454
0.0307873,-0.000246122
0.0311364,-0.0442219
0.05975,-0.0357739
0.0383611,-0.0387868
-0.0327882,-0.0622461
-0.0130259,0.0340949
0.00469029,0.068858
-0.0381955,0.0351248
-0.0265614,0.0297698
0.0430616,0.0158538
0.164145,0.00419517
0.321938,0.0117877
0.432187,-0.00229186
0.35939,-0.00148941
0.0969234,0.0132936
-0.0188199,0.0252614
-0.155513,0.00900873
-0.247763,0.00472555
-0.000247598,0.0220119
0.34669,0.0237683
0.353487,-0.00621142
-0.0575512,-0.0367847
-0.634563,0.00328559
-0.61335,0.0226008
-0.253478,0.00680273
-0.0564851,-0.0431752
0.0375828,-0.0881026
0.130404,-0.0471309
0.150335,0.00410935
0.119056,0.023468
0.133055,0.0276544
0.0200316,0.0266644
-0.107234,0.0254411
-0.107247,0.0169911
-0.0520239,0.00558745
-0.0423063,-0.0036548
-0.101827,-0.00446882
-0.143958,0.00910998
-0.0733143,0.0215409
0.0668666,0.0198135
0.33196,0.00503451
0.766441,0.000321924
0.929746,0.00675208
0.580839,0.00342772
-0.0156486,-0.0352595
-0.534217,-0.0635203
-0.721417,-0.0356273
-0.734156,-0.0286707
-0.49797,0.00667167
-0.19754,0.00828252
-0.0721971,-0.0162191
0.000138416,0.00679583
0.0205645,0.00965087
-0.00903847,0.0232989
-0.0319771,0.0366868
-0.0298862,0.0298106
0.00909681,0.0191627
0.0436388,0.00525255
0.0333676,-0.0239269
0.0334701,-0.02121
0.0764403,-0.00673941
0.138815,-0.0155144
0.242242,-0.0142073
0.308751,0.00187219
0.266221,-0.0298159
0.19298,-0.059207
-0.0937973,-0.0832005
-0.386691,-0.0230934
-0.326678,0.0732568
-0.141869,0.0529993
-0.0432817,0.0251597
-0.0490034,0.0169738
-0.00779417,0.0135754
0.29937,0.00613238
0.944734,0.000799081
1.30333,-0.00280627
1.07678,0.00800175
0.0900504,0.0220612
-0.920412,0.0148685
-1.25115,0.0221177
-1.05685,0.0620333
-0.407512,0.0791672
-0.223786,0.00182281
-0.318432,-0.0730697
-0.146664,-0.0629211
0.0146718,-0.055553
-0.0198401,-0.0294891
-0.0432168,0.032041
0.0118758,0.0303744
0.0276101,-0.00571148
0.0588849,-0.0116337
0.0794139,0.0236829
-0.0101719,0.0305441
-0.0745453,0.0127518
0.0672273,0.00758475
0.601688,0.000109872
0.484247,-0.0119506
0.0851431,0.0100594
-0.129535,-0.0198566
0.0454579,-0.0760952
0.278504,-0.0404451
0.294498,-0.0582925
0.0734337,-0.0431891
-0.149485,0.0624847
-0.206107,0.114006
0.0989092,0.0577475
0.376739,-0.0783521
0.158389,-0.166853
-0.331758,-0.101481
-0.681456,0.0333957
-0.499329,0.0888827
-0.253414,0.0810486
-0.0504293,0.0399069
0.101824,0.0116124
0.175079,0.00208129
0.200612,0.00276634
0.143831,0.0122024
0.0378018,0.0215389
-0.0101957,0.0157374
-0.0679267,0.0124288
-0.090227,0.0155779
-0.0597614,0.0198728
-0.0190317,0.0184001
-0.0322509,0.0109247
-0.0207471,-0.0223249
0.141221,-0.0262598
0.435889,0.006642
0.603175,0.0262003
0.509762,0.00375397
0.280674,-0.0159186
0.0187095,-0.0314533
-0.177014,-0.0389707
-0.436613,-0.0235107
-0.583651,0.0119071
-0.238642,0.026415
0.0681982,0.00556406
-0.0347194,-0.0170346
-0.0673306,-0.0206178
-0.0544735,-0.0136588
-0.189103,-0.00201834
-0.3733,0.00838876
-0.284997,0.0237172
-0.0536508,0.0334892
0.029643,0.0212484
0.0135712,-0.0051035
-0.057997,-0.0154372
0.00461235,0.00203196
0.132011,0.0117058
0.158343,0.00518366
0.236431,-0.039163
0.313931,-0.0903315
0.230647,-0.0603342
0.0523137,0.0128273
-0.141328,0.0129868
-0.175302,-0.0386085
-0.100144,0.000299847
-0.0149755,0.0630277
0.0379266,0.027323
0.120342,-0.0401806
0.0724392,-0.0786736
-0.0799182,-0.040483
-0.163162,0.0229184
-0.128375,0.044012
-0.053948,0.0415419
-0.0325495,0.0357112
0.0447218,0.0252428
0.257158,0.0238006
0.356045,0.030979
0.194917,0.00529296
-0.0751049,-0.0373784
-0.0742168,-0.00263371
0.220512,0.0234179
0.380881,0.0102385
0.208397,0.00894176
-0.266241,0.0130505
-0.560577,0.0118843
-0.45145,0.0103584
-0.265778,0.00236057
-0.0296004,-0.0135325
0.1546,-0.00682571
0.203143,0.0211154
0.166586,0.00772935
-0.00224009,-0.00738394
-0.0310048,0.0171559
0.198516,0.0164219
0.0955021,-0.00597367
-0.174807,-0.0290784
-0.0749135,-0.0209993
0.0885886,-0.0235322
0.134591,-0.0324619
0.0341144,-0.0399049
0.0488348,-0.0536085
-0.0992018,-0.0218665
-0.407798,0.029415
-0.411376,0.035186
-0.169934,0.00916853
-0.0853342,0.0192165
-0.14692,0.0266657
-0.00440757,-0.00114745
0.155425,-0.00572297
0.151832,-0.0130442
0.12738,-0.0257024
0.158777,0.0150702
0.168676,0.0413335
0.144777,0.0332839
0.0579085,0.0309053
-0.132576,0.0248671
-0.0897879,0.00533576
0.104407,0.00162018
0.0881443,0.00401322
0.0583627,-0.0170537
0.206346,-0.0680249
0.294665,-0.0750894
0.181049,-0.00482225
-0.0824158,0.0296645
-0.290061,0.0285415
-0.194469,0.0258752
-0.0277935,-0.0191988
0.107915,-0.0364073
0.157333,-0.0282101
0.0798929,-0.0146065
-0.126294,0.00926789
-0.276339,-0.012773
-0.184318,-0.0185169
-0.113877,0.0241735
-0.138895,0.0345919
-0.0556882,0.0249283
0.0120693,0.00924356
0.018379,-0.0126885
0.0163335,-0.0147104
-0.0071083,0.0095971
0.0340758,0.0100537
0.10372,0.0024011
0.115763,0.0163219
0.104884,0.0389032
0.137632,0.0345373
0.102634,0.0251107
-0.0192633,0.0194268
-0.102313,0.0169022
-0.158542,0.0147092
-0.105418,0.011167
-0.0852151,-0.0170157
-0.0330191,-0.0620566
-0.00944791,-0.0854906
-0.0748021,-0.0736707
0.0305119,-0.00655026
0.194093,-0.0124696
0.291345,-0.043339
0.165041,-0.0172968
-0.132574,0.0146947
-0.280333,0.0277312
-0.139102,0.029406
0.295182,0.0112229
0.854123,-0.00801371
1.16501,0.00426457
0.945491,0.0359206
-0.154074,0.0528217
-0.927979,0.0328296
-1.29507,0.0126026
-1.2996,0.0103061
-0.58006,0.00980668
-0.0735995,-0.00433321
0.0706593,-0.0462116
0.0349727,-0.0492323
0.0843579,-0.0110996
0.154771,-0.00158274
0.0623068,0.00191133
0.0328286,-0.010487
0.112691,-0.0129755
0.160982,-0.0100736
0.141256,0.0114553
0.0247291,0.0348297
-0.0849722,0.0326454
-0.0983706,0.0249296
-0.0539153,-7.07e-05
0.0492628,-0.0115133
0.176801,-0.0203812
0.245523,-0.0378617
0.177356,-0.0103956
0.0186904,0.0201876
0.00535263,-0.0182772
0.0340893,0.00176556
-0.00254687,0.0437152
0.00810096,0.0492552
0.0699278,0.0397827
0.194129,0.016184
0.362211,-0.00650488
0.366999,-0.00764689
0.14961,-0.00950242
-0.334766,-0.0296661
-0.714632,-0.05534
-0.582022,-0.142448
-0.252769,-0.106615
0.128211,0.04411
0.53723,0.0588528
0.682331,0.0234547
0.328212,0.041942
-0.269231,0.0253419
-0.622684,-0.0185248
-0.16677,-0.00138262
0.178017,0.0156349
-0.00163199,0.0365234
-0.274861,0.0517865
-0.212273,0.0200918
0.0690344,-0.0184798
0.0610628,-0.00726434
0.0427024,0.0256493
0.275354,0.0323323
0.348552,0.0165136
-0.0334919,-0.0120881
-0.140305,-0.0227954
0.27001,-0.0206545
0.297487,0.00263967
0.0586333,-0.00943614
-0.453936,-0.0433724
-0.561828,-0.0275705
-0.295698,-0.0113513
-0.154128,0.0190197
-0.00959832,0.021812
0.187702,0.00316227
0.0945938,-0.0307256
-0.0289779,-0.0767397
-0.0877454,-0.00716711
-0.255587,0.0464092
-0.184984,0.0267013
-0.028181,0.0161308
0.141813,0.027692
0.219901,0.0180362
0.18941,0.00164557
0.135433,0.0134665
0.153571,0.0282826
0.140749,0.00183733
0.0290261,-0.0379056
-0.0536356,-0.0163939
-0.0930495,-7.11e-05
-0.0651233,0.00686924
-0.0270226,0.014912
-0.0162847,-0.00679053
-0.00843964,-0.0122115
0.0262822,0.00435799
0.154925,0.00119083
0.360929,-0.0123278
0.426705,-0.0194127
0.187355,-0.00782565
-0.0439037,0.00173957
-0.24728,0.0201672
-0.151271,0.00378906
0.0407706,0.00154318
-0.0458436,0.00364217
-0.130702,0.0219195
-0.174996,0.0131395
-0.199565,-0.038565
-0.0429775,-0.0567946
0.0490053,-0.0294333
-0.0514211,0.00590007
-0.102109,0.011804
-0.22951,0.0125247
-0.24477,-0.00300715
-0.119321,-0.0418141
-0.0565686,-0.0264175
0.146517,0.0330352
0.468245,0.0484164
0.487176,0.0188604
0.244389,0.0273915
-0.0854278,0.0305902
-0.122661,0.0270175
0.0253113,0.0138057
-0.261985,-0.00407945
-0.482382,-0.00968151
-0.337249,-0.0123917
-0.104836,-0.0125136
0.0554805,-0.0269754
0.142324,-0.0165061
0.314189,0.00751322
0.540773,0.020159
0.41776,0.0129887
-0.00794,-0.0231881
-0.524422,-0.0664731
-0.321082,-0.0566581
0.0836007,-0.0230687
0.118062,0.00300282
0.146826,0.0337931
0.0810012,0.0429969
-0.105388,0.0169365
-0.221118,0.0169853
-0.206178,0.0353167
-0.129379,0.0287579
-0.0787698,-0.00241509
-0.0681142,-0.0245786
-0.0832684,-0.0131221
-0.103272,0.00702877
-0.0833146,0.0281733
-0.00445349,0.0176301
0.0613652,-0.0190829
0.0270148,-0.0111739
0.0627575,0.0252398
0.219903,0.00912016
0.454832,-0.0447023
0.632061,-0.056908
0.518685,-0.0266074
0.152822,0.0233297
-0.169237,0.0308064
-0.218128,-0.00416765
-0.127836,-0.0273171
-0.0812267,-0.0134007
0.158534,-0.00151582
0.231405,0.000855755
0.00735912,0.00357121
-0.459258,0.0102884
-0.860123,0.0244431
-0.570072,0.0331926
-0.170718,0.0201736
-0.0418444,0.00906256
0.00339429,0.00224201
0.0226098,0.00745212
0.0356843,0.0131096
0.0976913,-0.0081793
0.288292,-0.0240756
0.433434,-0.0533258
0.463839,-0.0617261
0.299246,-0.0351465
0.0441838,-0.0123695
-0.254253,0.023331
-0.559745,0.0103117
-0.417565,-0.0177496
-0.028337,0.0271695
0.231367,0.0376197
0.386183,0.0340372
0.402701,0.0248566
0.108879,0.0255183
-0.118974,0.0473602
-0.0947603,0.0501788
-0.0474728,0.0235744
-0.0520444,0.0036069
-0.214379,-0.0206376
-0.124663,-0.0493278
0.142621,-0.0771716
0.11211,-0.234349
-0.234277,-0.188715
-0.297981,0.0680986
-0.249783,0.146784
-0.157811,0.110593
-0.0381139,0.0614686
0.0342377,0.0289573
0.0844594,0.00868855
0.183429,-0.000697728
0.366535,0.00693397
0.454117,0.0108898
0.395395,0.0263541
0.138169,0.0031796
-0.18776,-0.00706373
-0.283898,0.00576515
-0.201703,0.0238357
-0.00743751,0.026141
0.152746,-0.0152811
0.157496,-0.00885595
-0.0907959,0.0105617
-0.396458,-0.0215308
-0.367077,-0.0372377
-0.161004,-0.0243228
0.0672401,0.000740991
0.175648,-0.0149455
0.161437,-0.033031
0.192363,-0.0164155
0.129258,0.0271057
-0.12404,0.0309721
-0.368369,0.00330005
-0.0731026,0.00645155
0.482253,0.00423982
0.644763,0.0136822
0.49661,0.00830271
0.0101459,-0.0092019
-0.488921,-0.0298514
-0.758629,-0.0346889
-0.643333,0.00975045
-0.238865,0.0332643
0.119361,0.0069992
0.35029,-0.0201914
0.286361,-0.0231704
-0.046812,-0.00976156
-0.291368,0.0130129
-0.204966,0.0151477
-0.0667896,-0.0177985
0.0727136,-0.0568547
0.106969,-0.0888438
0.0448352,-0.00151648
0.00768715,0.0907749
0.0355836,0.0587095
0.113998,0.0233792
0.234417,-0.00443949
0.263567,-0.0217289
0.128742,-0.0135141
0.0377403,-0.00752106
0.0543295,0.0281587
0.135446,0.0228113
0.0800162,0.00408049
-0.013116,0.00895839
-0.140719,0.0255698
-0.23248,0.0142672
-0.15834,-0.0126259
-0.0665452,-0.0218857
-0.0925947,-0.0240603
-0.117331,-0.00476886
-0.053232,0.0137748
-0.0329916,0.0130743
-0.0439019,0.0274166
0.0162257,-0.000809335
0.12534,-0.0684518
0.180957,-0.0647896
0.12066,-0.00593703
0.103899,0.0261047
0.287841,0.0336149
0.501824,0.0209932
0.232184,0.0166563
-0.247953,0.00104105
-0.36343,-0.0187654
-0.250543,-0.0187819
-0.115923,-0.0117486
-0.0492612,-0.0109333
-0.0773677,-6.17e-05
-0.141934,0.0220977
-0.241517,0.0253058
-0.274542,0.00787121
-0.170653,0.00641988
-0.0850229,0.0266963
-0.0267376,0.00999587
0.010913,-0.0207594
0.0411875,-0.0570509
0.0693097,-0.0479688
0.0727327,-0.00957191
0.0634991,-0.0012446
0.124082,-0.0357142
0.223039,-0.0054406
0.315608,0.0192581
0.304419,0.0120312
0.144967,0.0173911
0.113591,0.0345569
0.157492,0.0491631
0.0261737,0.0443572
-0.263674,0.0245451
0.0870074,0.0137981
0.439205,-0.00319722
0.175309,-0.0351707
-0.307443,-0.0251948
-0.71411,0.0164901
-0.505364,0.0135879
-0.187878,0.00588199
-0.182305,0.0127644
-0.229741,0.01482
-0.112899,0.0120356
0.058612,0.011206
0.0460785,-0.0202817
-0.00340629,-0.0427259
0.112868,-0.0432599
0.244962,-0.0763303
0.230987,-0.0767658
0.0737448,-0.0203178
-0.0120778,0.0196966
0.055814,0.012098
0.147346,0.013463
0.229591,0.0389631
0.207372,0.0324846
-0.107393,0.0267854
-0.270856,0.0323195
-0.233097,0.0266042
-0.0241673,0.0073251
0.36637,-0.009471
0.616858,-0.00725129
0.416564,0.00450569
-0.148333,0.00686844
-0.554093,0.00288608
-0.415106,0.0101601
-0.143312,0.0116354
-0.02106,-0.0197038
-0.0286223,-0.0263845
0.0744177,0.00704254
-0.0192876,0.0153233
-0.218232,0.00981525
-0.166162,-0.00283576
-0.0434147,-0.00925997
0.0493215,0.000160216
0.0618967,-0.00870584
0.0402158,-0.0260418
0.12518,-0.0126264
0.367621,-6.75e-06
0.373844,-0.0321764
0.0193322,0.00318626
-0.339472,0.0297925
-0.18799,0.020508
0.00575702,0.0344225
-0.0227089,0.0389329
-0.115578,0.000651093
-0.144983,-0.0352308
-0.0593127,-0.0269503
0.0679712,-0.0255812
0.0924891,-0.0167359
0.104232,-0.00234828
-0.0504458,0.00313449
-0.096277,0.00138192
-0.0789261,0.00946447
-0.0826996,0.0269759
-0.0648874,0.028487
0.0368265,-0.0140096
0.174756,-0.0439578
0.300232,-0.00424856
0.253354,0.00713983
0.167006,0.0116691
0.272927,-0.0117437
0.356373,-0.113943
0.154656,-0.147015
-0.300066,0.017573
-0.700697,0.0927987
-0.528273,0.0586487
-0.24867,0.0210721
-0.106818,0.03059
-0.0217356,0.01929
0.0947615,-0.00783303
0.197351,-0.00902797
0.20007,0.00444246
0.0952085,0.0202016
-0.0802483,0.0334067
-0.208204,0.0285838
-0.126626,0.00911739
0.0228756,0.00542889
0.0891745,0.0150487
0.0653469,0.0146802
0.028603,0.014544
0.232028,0.0214299
0.438971,0.0241331
0.52526,3.3e-06
0.225624,-0.0399846
-0.0895631,-0.0506822
-0.00965789,-0.0368816
-0.0733917,-0.0321337
-0.232314,-0.020914
-0.555971,-0.000956113
-0.665246,-0.002251
-0.352408,0.0235166
-0.0578904,0.0149421
0.0361506,-0.0511751
-0.0138363,-0.047502
-0.0209167,0.046444
0.102829,0.0602421
0.23855,0.0273458
0.223811,-0.00591579
0.0979115,-0.0192625
-0.00261292,-0.0100883
-0.0749228,0.00383183
-0.0412195,-0.00529339
-0.00495809,-0.00878607
-0.0156034,-0.00628638
-0.0146272,-0.00739935
0.0461569,-0.00122392
0.209551,0.00202104
0.333764,-0.00291202
0.326048,-0.00471645
0.237667,0.0129364
0.111605,0.0066676
-0.0688029,-0.0031738
-0.254463,0.0126678
-0.43883,0.0259145
-0.303326,0.0104223
-0.119387,-0.00927421
0.031363,-0.00491418
0.136831,0.00815905
0.0953422,0.0196461
0.0555887,0.00373349
-0.00993507,-6.32e-05
-0.0653819,-0.00414974
-0.0799354,-0.0292841
-0.00268067,-0.0534011
0.0668328,-0.054572
0.0355633,-0.00653256
0.0313648,0.0471775
-0.0248582,0.0477887
-0.180589,0.0482966
-0.0923711,0.0241143
0.145465,-0.0305864
0.227467,-0.0434727
0.126882,-0.0346996
-0.0835322,-0.0131301
-0.252157,0.00285799
-0.202521,-0.00800091
0.205479,-0.0401304
0.487553,-0.0265493
0.525864,-0.0050211
0.164418,0.0150702
-0.513025,0.0598922
-0.628522,0.061306
-0.381018,0.0255914
-0.168109,-0.0178462
0.0478766,-0.0277587
0.200913,-0.00818174
0.21248,0.000867627
0.0328237,-0.00101848
-0.162167,-0.0020403
-0.200155,0.00600831
-0.0818452,0.0127765
0.14738,0.012066
0.267777,0.0035156
0.207779,-0.000449618
-0.0423762,0.00908849
-0.171425,0.020024
-0.071646,0.00376167
0.0965946,-0.00220354
0.203608,0.000953853
0.189053,0.0026002
0.263443,0.000886959
0.224769,-0.00283528
0.0785517,-0.00351279
-0.162032,0.00241425
-0.341645,-0.00555027
-0.269442,-0.00871894
-0.181937,0.0131674
-0.176304,0.0186785
-0.145582,0.020675
-0.0890162,0.0197114
-0.08962,-0.00610307
-0.0349839,-0.0302773
0.171405,-0.0100741
0.359884,0.00801394
0.299668,-0.00520855
-0.0250301,-0.00982923
-0.335171,-0.0168623
-0.311338,-0.0605927
-0.0911686,-0.0931596
0.0606217,-0.08825
0.152595,-0.0156635
0.374875,0.0544233
0.573856,0.0347207
0.555425,0.00363071
0.129604,0.0250117
-0.372852,0.0162447
-0.466369,-0.00856157
-0.474762,0.0373668
-0.309417,0.0631647
0.0664651,0.0551912
0.247217,0.039369
0.230583,-0.00355945
0.117068,-0.043672
-0.0600513,-0.0446422
-0.116679,-0.00820626
-0.165643,0.0189294
-0.0547905,-0.00141966
0.103968,-0.0187324
0.0557731,-0.0157873
-0.188055,-0.00309404
-0.283296,0.0402596
-0.0979467,0.0360465
0.0565932,0.0147618
0.196778,-0.00818967
0.289452,-0.0490773
0.253039,-0.0233902
0.0601533,0.0298517
-0.0181011,0.0483644
-0.122397,0.0339181
-0.222093,0.0045453
-0.153949,-0.0208581
-0.0924517,-0.0229913
-0.0270569,-0.0172692
-0.0615347,-0.0223801
-0.113754,-0.01432
-0.00625974,-0.00427026
0.188944,-0.00347977
0.34916,-0.0068073
0.42935,-0.0106638
0.186082,-0.0180063
-0.141302,-0.0207604
-0.412291,-0.00580283
-0.261575,0.00579061
0.274299,0.00046335
0.371665,-0.00180598
0.0518366,0.0158694
-0.230707,0.0460961
-0.221687,0.0500271
-0.152444,0.0206718
-0.173169,-0.0129553
-0.0754146,-0.038435
0.0177524,-0.0361874
-0.0157367,-0.00825957
-0.121195,0.00594494
-0.0963959,-0.00529832
-0.0253785,-0.0191517
-0.0132402,-0.0104169
-0.00782898,0.000959169
0.00246898,-0.00166457
0.0169499,0.00875921
0.0505376,0.0360123
0.0963683,0.0362617
0.132194,0.00996561
0.173595,-0.00730472
0.199973,-0.0189524
0.207217,-0.0445012
0.152569,-0.0570778
-0.0407613,-0.00560567
-0.0954958,0.0489661
-0.0629539,0.0583356
-0.0800101,0.0299664
-0.0808321,-0.0196794
-0.0841018,-0.0350201
-0.0999248,-0.0210284
-0.0904194,-0.018382
-0.0607086,-0.00689759
0.103953,0.0247534
0.346648,0.0399779
0.390594,0.0249357
0.110609,0.00551029
-0.282993,-0.00932812
-0.369119,-0.0165589
-0.189061,-0.010041
0.0516693,0.00113192
0.142701,-0.000492404
0.152581,-0.0010578
0.136154,0.00770365
0.0326093,-0.00257814
-0.0195933,-0.0122965
0.0943571,-0.0154447
0.210985,-0.0106179
0.175886,-0.00460852
-0.137464,0.0135149
-0.510423,0.0334881
-0.519187,0.040218
-0.274539,0.0301257
-0.0268217,0.0236626
0.0521488,0.0134542
-0.0197091,-0.00194388
-0.0345726,-0.0129914
0.00290346,-0.0224487
0.0580729,-0.0241821
0.0713924,-0.0223754
0.0669524,-0.0189654
0.0658605,-0.0138515
0.0320856,-0.0104964
-0.0314598,-0.00998149
-0.0586349,-0.0159949
-0.0302911,-0.0195
0.0272913,-0.0123849
0.0712958,0.00689033
0.0866432,0.0154231
0.0809704,0.012598
0.0586599,0.0140107
0.0563425,0.013563
0.0904894,0.00711708
0.160925,0.0106045
0.251112,0.0180956
0.178875,0.00318264
-0.01621,-0.0109438
-0.178845,-0.0089953
-0.219625,0.00768797
-0.1711,0.000978457
-0.0940308,-0.00830637
-0.0308883,0.00323302
0.0839443,0.0134853
0.119485,0.0294518
-0.0367544,0.00600738
-0.0922412,-0.0280013
-0.0490621,-0.0218762
0.0164579,-0.0109219
0.0651472,-0.0211236
0.0875322,-0.00637336
0.0508075,-0.00835484
-0.0418173,-0.0330038
-0.0747898,-0.0147255
-0.0337758,0.00260789
-0.0324662,-0.00823703
-0.0554341,-0.0257469
-0.0493142,-0.0118731
-0.0600328,0.02823
-0.100401,0.0290125
-0.097006,0.0272573
-0.0529512,0.0238187
-0.00524249,0.0462757
0.0645895,0.055668
0.100592,0.0276806
0.0699341,-0.0327856
0.0137146,-0.0594948
0.0135221,-0.00530575
0.140407,0.0315444
0.391715,0.0175212
0.536461,-0.0218467
0.383341,-0.0414375
-0.0926588,-0.0529279
-0.512193,-0.035493
-0.390369,0.00533151
-0.215439,0.0120501
-0.214628,0.0185304
-0.242951,0.0159468
-0.120843,0.00300863
0.0287951,0.00974712
0.123002,0.00942711
0.236583,0.00884348
0.19726,0.0102503
0.123564,0.0082205
0.0912184,0.00261044
0.0205528,0.00374353
-0.188582,0.0104669
-0.326511,-0.00444196
-0.152121,-0.0234479
0.0356505,-0.0303487
0.0522754,-0.018555
-0.0285022,-0.00360396
-0.114664,0.0115432
-0.101059,-0.0243757
0.0142184,-0.0180868
0.0722647,0.0463905
0.0768287,0.0321075
0.0548435,0.0111575
0.0691873,0.0102696
0.194296,0.0100581
0.265395,-0.00198558
0.165538,-0.0198793
0.0167802,0.00477509
-0.196864,0.0311026
-0.211057,0.0182369
-0.0608119,0.00715856
0.00601778,-0.0055723
0.00479205,-0.0138172
0.0285392,-0.0232451
0.0231664,-0.0220048
-0.00195033,-0.00455223
0.011509,0.01009
0.0116484,0.00472491
-0.0137869,-0.00262021
-0.0301996,-0.0066034
-0.0365504,-0.00587825
-0.0119496,-0.00396863
0.0382614,0.00106839
0.081844,-0.00331195
0.0852877,-0.00501946
0.0462662,0.000232553
-0.0418204,0.014832
-0.115587,0.021726
-0.0785754,0.00112352
-0.0451335,-0.0154663
-0.0366261,-0.0231574
-0.0235333,-0.0056264
0.0108795,0.0139667
0.0526501,0.0196539
0.00395181,0.0117629
-0.0473216,0.0111585
0.0164529,0.0131077
0.105587,0.00733076
0.0525784,-0.0141316
0.00323395,-0.018256
0.0362319,-0.0157187
0.122088,-0.011743
0.188225,0.00373213
0.195263,0.0120129
-0.0275863,0.00267819
-0.0167034,-0.00691042
-0.0400521,-0.00968447
-0.250475,-0.00763493
-0.245117,-0.00631885
-0.217452,-0.0121753
-0.168366,-0.0100616
-0.102691,0.00538049
-0.0671179,-0.00446848
-0.00675873,-0.0189226
0.135255,-0.0091559
0.356423,-0.00532436
0.470755,-0.0159516
0.331703,-0.0100864
-0.000563054,0.00533651
-0.298436,0.0136445
-0.287969,0.0245705
-0.161666,0.0180988
-0.190394,-0.000167098
-0.208991,-0.00310595
-0.119342,0.0142118
-0.00424634,0.0201487
0.054767,0.00639614
0.0445065,-0.000867603
0.000564663,-0.00351033
-0.0190004,0.0011026
-0.00278675,0.00235455
0.0345285,0.00592381
0.066619,-1.35e-05
0.035294,-0.00854293
-0.00300388,0.00658083
-0.0459881,0.00725821
-0.034833,0.00625131
0.0536556,0.00748667
0.162327,0.00411859
0.257018,-0.00234554
0.271162,-0.00523504
0.179252,-0.00312882
-0.0357373,-0.00474635
-0.185407,0.000237537
-0.170327,0.0057752
-0.0772368,0.00495929
0.0691395,-0.00111331
0.27681,-0.00857952
0.362154,-0.0269237
0.171182,-0.0522331
-0.247066,-0.0428483
-0.425563,0.0150839
-0.332612,0.0362757
-0.220515,0.0286949
0.000233935,0.01321
0.0332995,-0.0244434
0.00646,-0.0349534
0.00512761,-0.00399146
0.0212179,0.0157132
0.073057,0.0289847
0.142299,0.0264884
0.14477,0.0143828
0.0750786,0.00757351
-0.0685009,0.0014031
-0.226697,-0.00304264
-0.209723,7.8e-05
-0.12947,0.0105444
-0.0715367,0.0135565
-0.0109167,0.000816273
0.0672154,-0.00951221
0.11794,-0.0039932
0.142224,0.00598819
0.132434,0.00559804
0.0904394,-0.00421511
0.0954122,-0.0154259
0.115598,-0.000680042
0.0423288,0.0284853
-0.071718,-0.0122935
-0.110345,-0.0693688
-0.0472576,-0.0381088
0.0496611,0.0109803
0.174902,0.0205363
0.129038,0.017179
0.0165566,0.0104413
-0.18991,0.00283479
-0.319487,0.00483135
-0.204986,0.00954602
0.048466,0.00435298
0.261308,-0.0092457
0.294199,-0.0178917
0.154879,-0.0170214
-0.161267,-0.00597539
-0.307543,0.0122033
-0.143119,0.0203033
-0.0096163,0.013638
0.00121843,0.0084798
-0.0910003,0.00316049
-0.113105,0.0006398
-0.00608289,0.0101121
0.0922844,-0.00868576
0.0428295,-0.00620314
-0.0557201,0.00819723
-0.103344,0.00237653
-0.000120106,-0.00809349
0.121952,-0.00543627
0.143273,-0.00309568
0.121458,-0.00168372
0.00534079,0.000728015
-0.0385033,0.00208011
0.0365307,0.00614025
0.0438997,0.00984486
0.0509951,0.00942868
0.127869,0.011234
0.0930284,-0.0034807
-0.0605197,-0.0175513
-0.301684,-0.0140441
-0.151502,-0.0039629
0.326734,-0.00279356
0.471927,-0.00295128
0.264016,0.0012084
-0.243184,-0.00683173
-0.593605,-0.0105217
-0.332616,-0.00130642
0.0814219,-0.00516277
0.218349,-0.0119696
0.119407,-5.34e-05
-0.143314,0.0132497
-0.201302,0.0099981
-0.0201815,-0.000792068
0.00983129,-0.0114551
-0.0600207,-0.0115527
-0.136186,-0.00456461
-0.0419858,0.000948014
0.0787371,0.00666673
0.0329861,0.0102336
-0.0694139,0.00761
-0.0181346,0.00820368
0.102689,0.00250245
0.0851086,-0.00415583
0.00265035,-0.00489083
-0.0775955,-0.00704628
-0.0426958,-0.00817738
0.160845,-0.00449126
0.355531,0.00255207
0.439252,0.0111609
0.261948,0.0156277
0.00185872,-0.000480817
-0.278308,-0.01115
-0.365718,0.0132281
-0.337897,0.032811
-0.15603,0.0357929
0.0303426,0.0255894
0.0273916,-0.0197979
0.023168,-0.0508799
-0.0213303,-0.0470669
-0.088188,-0.0281836
-0.100264,-0.0062483
0.0144599,0.00203463
0.210239,-0.000993867
0.35809,0.00582801
0.193875,0.0195898
-0.117187,0.0198619
-0.278463,0.00600872
-0.209986,-0.0153177
0.0671879,-0.0178511
0.228531,-0.00934455
0.140032,0.00424322
-0.062561,0.00917566
-0.18979,-0.000839971
-0.0995017,-0.00576389
0.152799,-0.011763
0.345048,-0.0164926
0.41333,-0.00373619
0.276171,-0.00433464
-0.0190266,0.00281302
-0.186167,0.0143932
-0.379964,0.0376495
-0.491256,0.0473121
-0.373396,0.040525
-0.199993,0.0272168
-0.0107778,0.00239398
0.0643371,-0.00997473
0.0324458,-0.011941
-0.0261108,-0.014684
-0.0785822,-0.0270251
-0.0487419,-0.0101979
0.0735256,-0.00948923
0.230592,-0.0265712
0.657284,-0.028096
0.936432,-0.00748521
0.679363,-0.000232028
-0.0807592,-0.00441825
-0.926888,0.0073985
-0.924459,0.0325907
-0.475445,0.0265186
-0.13276,0.00677177
0.0929656,0.0027804
0.188045,0.00992156
0.140473,0.0158982
-0.0256321,0.00791442
-0.139388,-0.0117253
-0.0342373,-0.0205577
0.0887386,-0.00593275
0.101416,0.0120589
0.0054613,-0.000288959
-0.142313,-0.0248994
-0.150638,0.000800787
-0.0340146,0.0155503
0.0967215,-0.0133326
0.151537,-0.0126877
0.131318,0.023993
0.0681144,0.0234054
0.046292,0.0195297
0.0916745,-0.00135562
0.130945,-0.0195479
0.102074,-0.0184103
0.0348354,-0.0325978
-0.00555237,-0.0300015
-0.0114998,0.00634246
-0.0544685,0.018296
-0.112889,0.0163058
-0.109027,0.0101159
-0.0886364,0.00304298
-0.0295443,-0.00623629
0.0811345,-0.0206677
0.15465,-0.00898273
0.139335,0.00763873
0.0800089,0.0118405
0.0249267,0.00860771
0.0573772,0.00636023
0.013914,-0.0046561
-0.100508,-0.0150361
-0.166693,-0.0108648
-0.194808,0.00567513
-0.161627,0.00561728
-0.0805972,0.00350036
0.00245471,0.00470215
0.0559977,0.0041273
0.0511121,-0.00193712
-0.00311482,-0.00185495
-0.0512215,0.00413196
-0.0324544,0.0109625
0.0728142,0.0113892
0.088702,0.00644193
0.00830066,-0.00130163
-0.0427745,-0.00336691
0.0328397,-0.0104985
0.182363,-0.0142537
0.251618,-0.0160393
0.143794,-0.0244347
-0.123002,-0.0120239
-0.32865,0.0122371
-0.192053,0.0259728
0.135432,0.0310571
0.225536,0.00709202
0.0135575,-0.0200319
-0.246773,-0.0189316
-0.284058,-0.0148547
-0.104382,-0.00488416
0.0359016,0.00366677
0.0885658,0.00351681
0.097868,0.00315865
0.0753882,0.0029945
0.0630027,0.000983502
-0.00938562,-0.000441836
-0.128516,-0.000811869
-0.0911838,-0.00266887
0.0402297,-0.00186548
0.208746,0.00250922
0.29187,0.00344785
0.237349,0.000775341
0.0387044,-0.00254238
-0.0501078,-0.00220235
-0.000650455,0.000135622
0.0206843,-0.00375252
-0.0293743,-0.00382099
-0.237259,-0.000559561
-0.315916,0.00261433
-0.1767,0.00134908
-0.00910188,0.00439666
0.0774894,-0.000495315
0.0500428,-0.00499245
-0.0411428,-0.00148458
-0.116193,0.00289388
-0.0561745,-0.00209342
-0.0165613,-0.00223583
-0.0430965,0.0143445
0.000248746,0.0199498
0.0367192,0.0114655
0.0241241,0.00282547
-0.0410459,-0.0031436
-0.0486083,-0.00683578
0.0434508,0.00322429
0.0942367,0.0108614
