Comp Ch 3,Comp Ch 4
-0.0389798,-0.00345601
-0.00355773,0.00256635
0.0823762,0.00951775
0.18965,0.00652773
0.159379,-0.0147774
-0.00980027,-0.0269045
-0.134357,-0.0160616
0.0298719,0.00243883
0.225476,0.0066252
0.331313,0.00536886
0.239047,0.00152467
-0.183253,-0.000155043
-0.405624,0.00501761
-0.332167,0.0195513
-0.178651,0.0423095
0.0210852,0.0190918
0.170277,-0.0201341
0.203292,-0.0404265
0.111271,-0.0319395
-0.163804,-0.0104494
-0.311893,0.00224077
-0.279531,0.016533
0.00882699,0.00943203
0.157836,-0.00160572
0.006645,0.000428235
-0.215791,0.00192295
-0.347847,0.0165509
-0.102546,0.0136282
0.28578,-0.02795
0.378076,7.34e-05
0.0884587,0.0250915
-0.273922,0.0295688
-0.275843,0.0202961
0.0153016,-0.00691795
0.209966,-0.00290873
0.303874,-0.00442565
0.384469,-0.0342089
0.216969,-0.0340525
-0.159246,-0.00488843
-0.455796,0.029014
-0.286186,0.0108227
0.201173,-0.0175986
0.499136,-0.00405332
0.655698,0.00834573
0.630976,-0.0033443
0.155231,0.000582971
-0.361068,0.0509346
-0.373905,0.0591424
-0.465567,-0.0349116
-0.522596,-0.109496
-0.526889,-0.0238684
-0.353156,0.0101634
-0.206104,-0.036161
-0.274606,-0.0805055
-0.172242,-0.119491
-0.195445,-0.216431
-0.0922662,-0.165728
0.284325,0.0135432
0.512184,0.0578372
0.48117,0.0982419
0.24603,0.131417
0.259225,0.112838
0.425557,0.0817245
0.146739,0.0585823
-0.199926,0.0655065
-0.32142,0.0556691
-0.294988,0.0410783
-0.170533,0.0488825
-0.00637672,0.0540045
0.157155,0.0385047
0.178362,0.0261529
0.0251759,0.0326343
-0.13829,0.0293131
-0.17503,0.0131527
-0.07305,-0.00472165
0.105405,-0.00522606
0.278074,0.00590329
0.41996,0.0053594
0.42416,-0.0065802
0.133494,-0.0206715
-0.293383,-0.0254002
-0.53919,-0.0310027
-0.363341,-0.0361115
-0.111455,-0.0246364
-0.0157951,-0.00515769
0.0820291,-0.00998151
0.199468,-0.022265
0.199633,-0.0272263
0.00102514,-0.027886
-0.214604,0.00831465
-0.180129,0.0261963
-0.0136402,0.000629369
0.0595431,-0.0145422
0.00341865,-0.0310551
-0.085251,-0.0151751
-0.113843,-0.00521329
-0.0292721,-0.00934782
0.128063,-0.0231141
0.262005,-0.0221314
0.295496,0.00158751
0.414969,0.0144229
0.60198,0.0149146
0.514175,0.0166806
0.100772,0.0100633
-0.430933,0.016309
-0.564966,0.0208759
-0.373485,0.0233493
-0.25567,-0.0139088
-0.248105,-0.0524999
-0.306293,-0.0466203
-0.196319,-0.024677
-0.0790945,-0.0244442
0.0114554,-0.0421645
0.202158,-0.0683085
0.243625,-0.100681
0.239951,-0.135274
-0.0428574,-0.107275
-0.383527,-0.00354194
-0.205726,0.0494146
0.122733,0.0551682
0.200006,0.0577586
0.0107232,0.0530985
-0.125399,0.0448139
-0.0875985,0.0714469
0.0456626,0.0572289
0.110201,0.0414393
0.0444206,0.0472165
-0.0498014,0.0339946
0.0135324,0.0201107
0.0387261,0.0171122
-0.0265354,-0.00541751
-0.0676882,-0.00297339
0.0287535,0.021529
0.0498029,0.0246778
-0.0106185,0.00419961
0.0167413,-0.019827
0.0531693,-0.0239021
0.104886,-0.000449918
0.0998603,0.0137771
-0.00163202,0.000996726
0.0575784,0.00659594
0.191383,0.0203502
0.221625,0.0111859
0.138453,0.00776489
0.134563,0.0110473
0.246867,0.0195448
0.0870468,0.0142853
-0.248036,0.0064768
-0.642202,0.00937694
-0.579683,-0.00627978
-0.210102,-0.0133235
-0.0412683,-0.00393997
-0.00566598,-0.0011484
0.0539986,-0.000732541
0.0827686,0.00305577
0.0785239,0.000715065
0.0517029,-0.0167728
-0.0562027,-0.0587577
-0.0691448,-0.047331
-0.0259159,0.0110707
-0.0545601,0.0352036
-0.0865542,0.0349442
-0.0434509,0.0127142
0.0276373,0.0038568
0.109464,-0.00844062
0.343752,-0.0187317
0.572507,-0.0251818
0.571232,-0.0257461
0.34281,-0.0228925
-0.0420988,0.014501
-0.242334,0.0383958
-0.200964,0.0233547
-0.238718,0.00548518
-0.463139,-0.00429957
-0.423918,-0.00871216
-0.163844,-0.0148188
-0.145204,-0.0268649
-0.123369,-0.0566688
0.106798,-0.073496
0.413199,-0.0237036
0.531054,-0.00413646
0.32097,-0.0238639
-0.103293,-0.00964448
-0.310142,-0.00463061
-0.146719,-0.0255142
0.0304584,0.00997737
-0.021581,0.0201364
-0.133845,0.0184168
-0.0982216,0.0144988
0.0974238,0.0137339
0.0673846,0.0141039
-0.225647,0.0252541
-0.275052,0.0298869
-0.0503301,0.0217004
0.0983676,0.0184032
0.0710079,0.0193561
0.0132002,0.00950425
-0.0340261,0.000340781
0.0698574,-0.0155216
0.262124,-0.0248617
0.201604,-0.0168338
-0.0511845,-0.0110231
-0.284013,0.0119944
-0.159098,0.0216124
0.0529151,0.0130556
0.141068,-0.00046022
0.168728,-0.050141
0.10649,-0.021717
0.0673558,0.00946519
-0.0185094,0.00435759
-0.0746237,0.0214648
-0.13312,0.0309272
-0.238721,0.025459
-0.135165,-0.00693851
0.00606183,-0.0241832
0.137198,-0.00983213
0.27289,0.00342075
0.326152,0.00741398
0.194907,0.00697625
-0.10527,0.0172262
-0.327432,0.0280271
-0.203362,0.0265766
-0.0424849,0.0169229
0.108139,0.00492156
0.391751,-0.00546628
0.493876,-0.00923797
0.396886,0.00530511
-0.0367044,0.0171171
-0.425811,0.0151068
-0.503086,-0.00120921
-0.333231,-0.0199135
-0.128906,-0.0260439
-0.107915,-0.0269923
-0.0665499,-0.014772
-0.0010275,-0.0020488
-0.020929,-0.0211865
-0.0717511,-0.048405
0.0358489,-0.0394614
0.161902,0.00301414
0.237103,0.022896
0.266659,0.00563165
0.164155,-0.0487253
0.0117298,-0.0267683
-0.113892,0.0428255
-0.0392313,0.0414998
0.0229811,0.0264412
-0.143782,0.00646647
-0.3523,-0.00367903
-0.371505,0.00626821
-0.204595,0.00942027
-0.0551392,0.0136186
0.0793894,0.0294317
0.322793,0.0385203
0.522215,0.0270605
0.50114,-0.00745002
0.138774,-0.0163396
-0.277995,-0.0251759
-0.373291,-0.0270195
-0.190757,-0.0212991
-0.179553,-0.0261234
-0.111616,0.00302986
0.0549575,0.00198801
0.0928268,-0.0108768
0.063735,-0.0037179
0.048131,-0.000945006
0.0488266,-0.00441296
-0.0282093,0.00680063
-0.0589034,0.0161891
-0.0235147,0.00812593
-0.0404445,0.0048627
-0.0381011,0.011193
0.103954,0.00758938
0.14642,-0.00288555
0.0890671,-0.0123483
0.030403,-0.0117714
0.0233326,-0.00669677
0.0529923,-0.00803207
0.0683782,-0.0176976
0.0914972,-0.0158982
0.0150414,-0.00940276
0.168454,-0.00684151
0.293557,-0.0130998
0.12467,-0.0107384
-0.131222,0.0117467
-0.400246,0.0273141
-0.354081,0.0226553
-0.254075,0.0256538
-0.218297,0.0280031
-0.0528588,0.0127443
0.00717086,-0.00176427
-0.0489606,-0.00365918
-0.0603036,-0.00571763
0.0372193,0.00238681
0.300208,0.0106225
0.451078,0.00668921
0.370844,-0.00776605
0.0471398,-0.0135217
-0.363052,-0.00829883
-0.307043,-0.00421627
-0.174344,-0.00464429
-0.125228,-0.00568582
-0.0512431,0.00532699
0.0373639,0.00364994
0.211095,0.00617552
0.272359,0.0215313
0.15613,0.039216
0.0636155,0.0495902
0.000710721,0.0284717
0.0107234,-0.0309979
-0.0501187,-0.0539145
-0.263756,-0.0370483
-0.306743,-0.0197002
-0.251658,-0.00734518
-0.12853,0.0110988
-0.00747062,0.0110056
0.0508536,0.00910042
0.0484292,0.00827838
0.0577472,0.00667722
0.0631306,-0.000538052
0.143955,-0.00488461
0.254475,0.000790915
0.272679,-0.0102143
0.267487,-0.0461196
0.135248,-0.0221713
-0.107462,-0.0013318
-0.208601,-0.0133092
-0.24484,-0.0250039
-0.113165,-0.0032472
0.00743823,0.0243475
-0.00919223,0.00712293
0.0596391,0.000561966
0.191691,-0.00819249
0.265679,-0.0275692
0.0366583,-0.0215968
-0.225737,0.0105715
-0.155563,0.0137008
-0.0485486,0.0100629
-0.0640644,0.0093103
-0.195342,-0.00111318
-0.257444,-0.00789685
-0.116522,-0.0105322
0.0989504,-0.0110438
0.250461,0.00518435
0.406001,0.0238917
0.362257,0.0235315
0.110464,0.0189083
-0.151841,0.0158171
-0.384838,-0.00186736
-0.246854,-0.0208799
-0.0228033,-0.0009668
0.026985,0.0230098
-0.0542538,0.0207502
-0.130287,0.00658518
-0.0294439,-0.0106534
0.0535962,0.00782397
0.0102763,0.0177246
-0.0509668,-4.72e-05
-0.0215319,0.00467624
0.066891,0.00610586
0.0555443,-0.00231872
-0.0676987,-0.000784369
-0.156849,0.0144136
-0.0556286,0.00905407
0.171811,-0.016262
0.292402,-0.0304116
0.327402,-0.0246928
0.257649,0.00597968
0.0974749,0.0174806
-0.0671663,0.000764513
-0.100367,-0.00918332
-0.0303394,-0.0039843
-0.0589102,-0.000777417
-0.147071,-0.0182388
-0.250876,-0.017656
-0.207171,0.00213783
-0.0292337,0.00175529
0.160582,-0.00781819
0.211571,-0.00924802
0.110616,-0.0205742
-0.114766,-0.0154847
-0.254686,0.0336762
-0.0947046,0.0208154
-0.0415162,0.00301747
-0.163695,0.0165006
-0.118757,0.0185423
0.0335745,0.00792928
0.0940983,-0.00788784
0.111102,-0.0194881
0.0592472,-0.0271973
0.00744219,-0.0443937
0.0444853,-0.041437
0.0266914,0.0054786
-0.0632348,0.0433291
-0.103226,0.0251361
-0.0417802,0.0167463
0.0398443,0.0252587
0.135496,0.0238789
0.207152,0.0101916
0.285887,0.00066067
0.467049,-0.00878691
0.478982,-0.0136643
0.54478,-0.0107577
0.0376011,0.00590955
-0.515656,0.0242369
-0.544891,0.0206621
-0.545684,0.0160488
-0.372318,0.0121197
-0.057504,-0.00745334
0.147271,-0.0202074
0.124091,-0.0135541
-0.0852858,-0.00611299
-0.294529,-0.0143584
-0.358201,-0.0217578
-0.21938,-0.000283763
-0.000990775,0.00912844
0.151001,0.00788238
0.174201,-0.00254012
0.102403,-0.00945905
-0.019426,-0.016958
-0.063672,-0.0110487
-0.0372139,0.00899185
0.022851,0.0166949
0.123328,0.00432044
0.294228,-0.00343988
0.423648,-0.00995772
0.317821,-0.00762725
-0.0268963,0.00646289
-0.342524,0.0204045
-0.251994,0.022201
-0.0900313,0.00314898
-0.0701664,-0.0165926
-0.0472603,-0.0257426
-0.0555068,-0.00650879
-0.0734172,0.00371088
0.0278468,-0.01001
0.135987,-0.0112351
0.139579,0.007254
0.0640815,0.0139342
0.0890004,0.00498385
0.126444,-0.0179676
0.13137,-0.0147342
0.0775728,-0.00564672
0.0152537,-0.00428222
0.0306318,-0.00169098
-0.0296176,0.00533567
-0.14807,0.0137551
-0.207134,0.000538499
-0.127128,-0.0133168
-0.0958759,-0.0192401
-0.108854,-0.0173297
-0.0834368,-0.00930688
-0.00149665,-0.00899665
0.0390089,-0.00736464
0.0424635,0.012945
0.0371377,0.0191689
0.0556752,0.0108461
0.132321,0.00777382
0.178223,0.0154673
0.178766,0.0160469
0.0930596,0.020104
-0.029238,0.0235364
-0.040465,0.0148681
-0.122854,0.000603732
-0.179458,-0.00112662
-0.172163,-0.000635534
-0.195802,7.09e-05
-0.111482,0.000881456
0.0569677,0.00165241
0.135471,-0.00282341
0.176089,-0.00230174
0.173352,0.00789822
0.0880649,0.00417425
0.121221,-0.0110005
0.206118,-0.0138817
0.208674,-0.00614633
0.0667494,-0.00635831
-0.120824,-0.0117389
-0.0486725,0.0301597
-0.187829,0.00850292
-0.427442,-0.00115997
-0.421579,-0.0041696
-0.205031,-0.0011676
0.0650762,-0.00763559
0.135629,-0.0203313
0.0513866,-0.0179667
-0.0522488,0.000900145
-0.0806621,0.0122509
0.00293574,0.00971333
0.114442,-0.00316801
0.0898055,-0.0356894
-0.0293891,-0.0364439
-0.0617596,0.0130593
-0.0666881,0.0435975
0.073391,0.0440934
0.269376,0.0292221
0.290938,0.0103969
0.0418147,-0.0016449
-0.24597,-0.00666194
-0.144837,-0.010817
0.0547319,-0.0111685
0.170637,-0.0156455
0.137755,-0.0188922
-0.0133811,-0.00785827
-0.113883,0.00353647
-0.0519081,0.0104541
-0.031324,0.00681616
-0.0872293,0.00926824
-0.0509484,0.00904289
0.113163,0.00662826
0.117521,0.00299022
-0.0464087,-0.00189705
-0.21622,-0.00360983
-0.151157,-0.00189132
0.0132442,-0.00581807
0.0812163,-0.00949384
0.114113,-0.0170916
0.161152,-0.0280558
0.135347,-0.0299772
0.0827358,0.000330454
-0.0228795,0.0200501
-0.128448,0.00797213
-0.137156,-0.0127486
-0.100356,-0.0103465
-0.0455943,-0.00125144
0.0494858,-0.00868029
0.100534,-0.00626298
0.067151,0.0209235
0.0430754,0.0220933
0.00443339,-0.00962745
0.0273685,0.00811166
0.00542867,0.0167724
-0.0472923,-0.00806656
0.10002,-0.0115333
0.194656,-0.0197285
0.213748,-0.0338269
0.0828067,-0.0109204
-0.244175,0.0260068
-0.355695,0.0362987
-0.307529,0.0163581
-0.214313,0.00449121
0.0391741,0.00560501
0.300269,0.00875137
0.32136,0.0136373
0.138329,0.0126499
-0.194234,0.010488
-0.376188,-0.00948632
-0.223792,-0.0129095
0.101517,-0.00714545
0.309628,-0.0178558
0.255421,-0.00997456
-0.0404965,0.00394012
-0.278585,-0.00667211
-0.17776,-0.00905983
-0.126552,-0.00259883
-0.0427603,-0.00494849
0.114833,-0.0185855
0.11531,-0.0192725
0.0109794,-0.00661739
-0.0801136,0.0142005
-0.0126298,0.0263167
0.114964,0.0194981
0.0726733,0.0138117
0.0712728,0.00566757
0.209461,-0.0044058
0.213889,-0.0111799
0.0627366,-0.00655584
-0.25566,0.00750396
-0.332087,0.00525245
-0.145059,-1.62e-05
0.0285811,0.00982695
0.102201,0.0231159
0.169483,0.0318638
0.152841,0.0127802
-0.0259163,-0.0192247
-0.177609,-0.0293319
-0.154627,-0.024002
0.0455884,-0.0160813
0.18255,0.00232211
0.203399,0.0193928
0.144057,0.0132793
-0.146848,-0.00611038
-0.32107,-0.0189863
-0.143723,-0.011995
0.0714869,0.0011675
0.177134,-0.00641608
0.158126,-0.0185905
0.0289373,-0.0096635
-0.0575165,-0.00346469
-0.183872,-0.00396254
-0.205106,0.0104066
-0.0825462,0.022858
-0.0125525,0.0251541
-0.0089347,0.0221039
-0.0307265,0.0243981
-0.0242473,0.0252797
0.0767484,0.0211456
0.190291,0.00978222
0.191413,-0.000919455
0.173676,-0.00752359
0.12519,-0.00813571
0.0955821,-0.0100625
0.107659,-0.0148347
0.0428346,-0.0100474
-0.0732456,-0.0177451
-0.168168,-0.0306123
-0.130366,-0.0262142
-0.137226,-0.00593374
-0.188962,0.0076273
-0.188821,0.00609151
-0.0669844,0.0122672
0.148246,0.0143355
0.285377,-0.00413271
0.247431,-0.0122675
0.0655052,-0.00940092
-0.12221,-0.0177364
-0.251612,-0.0134305
-0.280185,0.00113765
-0.205742,0.00400239
-0.0798103,-0.00352542
0.018247,-0.00660768
0.0128492,-0.000585915
0.0220792,-0.00356015
0.0595176,0.000245086
0.214459,-0.00176967
0.366652,0.00143101
0.253842,0.0124177
-0.0668929,0.0157797
-0.377983,0.0249365
-0.312524,0.0217047
-0.0373569,0.00695221
0.126306,0.00636176
0.1262,-0.000338497
0.0620567,0.00151202
-0.0808776,-0.00769759
-0.0920545,-0.0099052
0.0245286,-0.000500633
0.0624198,0.00704723
0.0317719,-0.00612066
0.0330885,-0.0138961
0.0352958,0.00419584
0.0160248,0.006796
-0.000219422,-0.00554704
-0.010237,-0.00736079
0.117815,0.00169126
0.20343,0.00264929
0.103621,0.00517424
-0.0439564,0.00139528
-0.132355,-0.0183246
-0.0848403,-0.0152768
0.0292446,-0.0115155
-0.0140023,-0.00465292
-0.183537,0.0129765
-0.149928,0.00837751
0.000533406,0.00269568
0.0682248,0.00209125
0.0836542,0.00571562
0.0208845,0.0101378
0.0423936,0.0115898
0.217118,0.000853347
0.442249,-0.00371632
0.43032,-0.00138031
0.100252,-0.00539236
-0.524994,-0.0171382
-0.699476,-0.0139523
-0.392823,-0.00248293
-0.166181,0.00194245
-0.0421198,0.00541919
0.0401788,0.0155004
0.0978419,0.0084895
0.115088,0.00573004
0.113462,0.00146295
0.121063,-0.0120523
0.137598,-0.0205352
0.143753,-0.0115505
0.0536485,-0.00365505
-0.0597448,-0.00559312
-0.15887,0.0123647
-0.226533,0.0175598
-0.191945,0.00574829
-0.0655969,0.00390071
0.109858,0.00011142
0.151808,-0.00331582
0.0999401,-0.00107485
0.0575944,0.00460347
0.175356,0.00968776
0.257602,0.0148787
0.127672,0.0177533
-0.0923523,-0.00969908
-0.267994,-0.0427796
-0.168251,-0.00889148
0.0180706,0.0109148
0.116151,0.00762657
0.0671446,0.00124738
-0.0656547,-0.008288
-0.158591,0.00135984
-0.14787,0.0180046
-0.052058,0.0105647
0.0184098,-0.00681976
-0.0380268,-0.002982
0.0761341,0.00817444
0.239132,0.00371324
0.308106,-0.00397363
0.214539,-0.00692263
-0.0798377,-0.00662867
-0.18474,-0.0104046
-0.177179,-0.0155365
-0.178005,-0.00415665
-0.111457,-0.00502123
-0.0933726,-0.0102915
-0.0641008,-0.00534176
-0.0430554,-0.0133844
-0.025044,-0.0151333
0.0059758,0.0132244
0.0409605,0.021069
0.109247,-0.00582556
0.184031,0.00523609
0.207389,0.0311058
0.11688,0.0192683
-0.000364124,0.00234209
-0.0602151,0.00150685
-0.0661156,0.00610406
-0.0510985,-0.00294859
-0.0665321,-0.00836287
-0.049787,-0.00150801
-0.0289824,0.00669309
-0.0221105,0.00880385
-0.0150526,0.016132
-0.00884554,0.0255543
-0.0171757,0.0114129
-0.00464446,-0.0287549
0.031637,-0.0553021
0.0605257,-0.00754024
0.0602181,0.0151009
0.0545284,-0.0209386
0.0654993,-0.0439084
0.0517843,-0.0068419
-0.00369728,0.0139591
-0.0453562,0.0164897
-0.0294295,0.00930323
-0.0461353,-0.00252099
-0.0510194,0.0123356
-0.0100973,0.00649868
0.0207464,-0.0085786
0.000331161,0.0106374
0.00192376,0.0248307
0.0500469,0.00946441
-0.0166672,0.00334561
-0.0855233,0.00611115
-0.0049245,0.00986505
0.167813,0.0148718
0.257622,0.0079886
0.204563,-0.0112324
-0.0336481,-0.0155796
-0.318127,0.00133493
-0.328656,0.00650993
-0.228323,-0.00279841
-0.0970588,-0.00978405
0.0460619,-0.00918057
0.0547616,-0.0151648
-0.0422871,-0.0237048
-0.0854147,-0.016472
-0.0168366,0.00801279
0.138164,0.0224862
0.335956,0.0229865
0.352852,0.0119321
0.0953408,0.00536299
-0.177328,0.0147826
-0.293984,0.0181645
-0.193309,0.00544343
0.0286347,-0.0225794
0.179542,-0.0369381
0.223598,-0.0518022
0.0367514,-0.0531993
-0.172545,0.00721955
-0.154496,-0.0146468
-0.0971838,-0.00319028
-0.0829571,0.0320683
-0.128695,0.0247724
-0.106719,0.027971
0.064723,0.0102802
0.155461,0.00456754
0.137929,0.0100338
0.151954,0.00779813
0.151591,-0.00273751
0.0821963,-0.00246394
-0.0632962,0.0193037
-0.0789609,0.0394584
0.0988632,0.0295199
0.1854,-0.0318303
0.0119571,-0.0548464
-0.375108,0.00932211
-0.314822,0.0518605
-0.0150086,0.0502944
0.0492569,-0.0102285
-0.0465031,-0.0598519
-0.18238,-0.0535827
-0.12077,-0.0256735
0.0703062,0.0144178
0.247534,0.016031
0.258832,0.0232272
0.129809,0.000746893
-0.0242628,-0.0906502
-0.0484408,-0.157098
0.0197887,-0.0291378
-0.105141,0.0466134
-0.0890435,-0.0117402
0.125878,-0.0232572
0.233789,0.0249218
0.169835,0.0179862
-0.0901014,0.0153772
-0.268687,0.0493255
-0.016161,0.0567301
0.240793,0.043621
0.207369,0.0255724
-0.0782221,0.0201803
-0.370023,0.0290009
-0.291742,0.0435252
-0.107393,0.0244389
-0.131526,0.0225133
-0.0780524,0.0265402
0.0913366,0.0190308
0.190777,-0.00688512
0.165997,-0.0141594
0.0684184,0.00772795
0.0798788,-0.00410512
0.180158,-0.0406117
0.120048,-0.0637191
-0.0387851,-0.0267815
-0.141286,0.0287911
-0.202427,0.0110839
-0.135079,-0.024023
-0.0498313,-0.0137803
0.0125705,-0.0451816
-0.0119473,-0.060621
0.0213753,0.02911
0.0329393,0.0421992
-0.0356616,-0.0198429
-0.0270805,-0.0483411
0.0473343,-0.0128617
0.107329,0.0275475
0.141549,0.0628108
0.133859,0.0220132
0.118413,-0.0194692
0.134606,-0.0275828
0.210129,-0.0183196
0.162711,0.0141421
0.0678024,0.00287126
-0.0957922,-0.012792
-0.14685,-0.0168553
-0.206202,-0.00055116
-0.410933,0.0127987
-0.390626,0.0411676
-0.127863,0.031716
0.034189,0.00311032
0.109515,-0.00209815
0.188847,-0.0101964
0.0913496,-0.0115113
-0.129468,-0.0147286
-0.18325,-0.0066524
-0.0509771,0.0100298
0.0673128,-0.0100503
0.0663662,0.0151484
0.105302,0.0214081
0.0465534,-0.0033697
-0.134571,-0.0159091
-0.154853,-0.0073033
-0.0471566,0.00699696
0.0315838,-0.00491105
0.0905489,-0.023607
0.106918,-0.0285743
0.13964,-0.0139522
0.277077,0.0178397
0.392673,0.0154798
0.273906,0.0133002
0.0651684,-0.0303802
-0.151373,-0.0373928
-0.200467,0.0264719
-0.0491828,0.0311732
-0.059688,-0.0035865
-0.136337,0.00103943
-0.163072,-0.010049
-0.0838561,-0.0691788
-0.0112218,-0.0419452
-0.0565891,-0.0469633
-0.133142,0.0255036
-0.0335028,0.084363
-0.0305906,0.0649826
-0.144765,0.0383697
-0.0991464,-0.00298922
-0.00830136,-0.0177977
0.0452251,-0.0291892
-0.0082442,0.00418383
-0.129536,0.0515538
-0.135497,0.0540452
-0.110319,0.0131745
-0.0505472,-0.00346027
0.129115,-0.00710101
0.35352,-0.0166182
0.54469,-0.00968689
0.545515,-0.0253018
0.292202,-0.0622251
-0.0926619,-0.0544388
-0.141644,-0.0165762
0.0778959,-0.0174619
0.187133,-0.02146
0.225739,-0.0267887
0.124941,-0.0021611
-0.223532,0.00740365
-0.486016,-0.00765934
-0.338905,0.0447657
-0.0547637,0.112903
-0.209374,0.063235
-0.591771,0.0256877
-0.461234,0.0122819
-0.079676,-0.0165975
-0.00389751,-0.0114839
-0.011473,0.0157823
0.0374281,2.03e-05
0.146702,-0.00177634
0.218442,0.0364065
0.134851,0.0449235
-0.00594173,0.0201398
0.0667743,-0.0156477
0.168639,-0.0231307
0.178332,-0.0116504
0.0666213,-0.0021782
-0.0993889,0.00479875
-0.107715,0.0141495
0.00179899,-0.00560196
0.0167175,-0.0171384
0.054595,0.00704427
0.141461,0.024733
0.118629,-0.0251827
-0.0257207,-0.0534879
0.00145672,-0.0792853
0.204216,-0.0815655
0.421051,-0.0498541
0.44863,-0.0424206
0.205729,0.00752871
-0.220702,0.0494028
-0.550035,0.0512929
-0.478271,0.00921612
-0.332448,-0.0351232
-0.265467,-0.0736283
-0.108192,-0.11147
0.0114231,-0.062197
0.121896,-0.0752617
0.480251,0.0176098
0.700119,0.106353
0.454688,0.077442
-0.0250835,0.0404143
-0.394709,0.0378137
-0.344176,0.0265644
-0.223325,0.0169936
-0.314913,0.0433796
-0.42801,0.065282
-0.338899,0.0523652
-0.163263,0.0371683
0.00839336,0.0725443
0.073328,0.116381
0.0643664,0.087241
0.21946,-0.036357
0.476638,-0.123152
0.688355,-0.110161
0.966624,-0.0851583
0.798919,-0.142777
0.143282,-0.0823279
-0.684778,0.0678627
-1.02737,0.10416
-0.799526,0.0397768
-0.469095,0.0154559
-0.216391,0.0170491
-0.1296,-0.00492185
-0.114679,-0.0362834
0.025681,-0.0153895
0.295332,-0.023338
0.309544,0.00123133
0.221553,0.0311355
0.19578,0.0564991
0.231419,0.0354787
0.440367,-0.0165973
0.281698,-0.0527641
-0.0686893,-0.0406809
-0.173186,-0.0049974
-0.555171,-0.000532681
-0.833339,-0.015162
-0.472119,0.0085637
0.0799841,-0.0258326
0.403622,-0.0569393
0.628419,-0.00144057
0.644142,0.0372284
0.801107,0.106798
0.685145,0.120102
-0.0379704,0.0508828
-0.87975,0.000660304
-1.06636,0.0356178
-0.329771,0.0452875
-0.0808957,-0.0194151
-0.388965,-0.0142439
-0.391775,-0.0210379
-0.15217,-0.0469799
-0.0451675,-0.00907967
-0.00866422,0.00838932
0.0508622,-0.0089517
0.260397,-0.0285763
0.457869,-0.0342312
0.539391,-0.0188776
0.495369,-0.0527956
0.231602,-0.0342747
0.0190965,-0.0143089
-0.0225203,-0.0689807
-0.104406,-0.0508827
-0.248981,0.0505533
-0.218327,0.0342494
-0.229758,-0.0556016
-0.286133,-0.0502644
-0.152489,0.000500867
0.0613969,0.0176957
0.125159,0.00372656
-0.0634513,0.00649288
-0.125065,0.037954
-0.0858915,0.0429049
0.0150887,0.035639
0.22838,0.0081224
0.421558,-0.0136439
0.525456,-0.0126884
0.289525,0.00662284
0.129965,0.0152361
-0.159396,0.00421864
-0.611076,0.00614575
-0.646643,0.0049368
-0.502031,-0.0673957
-0.21658,-0.0817479
0.0697863,0.0101387
0.115705,0.0175294
0.0366145,-0.0663069
0.359204,-0.0705951
1.27376,0.0189418
2.17162,0.0735348
2.1275,0.0786011
0.800364,0.0421202
-0.930627,-0.0186477
-1.93879,-0.0026756
-2.03206,0.00759189
-1.25256,-0.0381473
-0.638771,-0.0810504
-0.0916737,-0.0569932
0.140479,0.038261
-0.091559,0.094643
-0.320754,0.0971087
-0.0366204,0.119345
0.12042,0.122706
-0.141304,0.0419947
-0.362019,-0.0466925
-0.263754,-0.0852149
-0.00442594,-0.0880228
0.193802,-0.039265
0.40134,0.00871352
0.517298,0.0204907
0.317561,-0.0291456
0.0174743,-0.0140576
-0.31857,0.0418939
0.102214,0.0525135
0.631892,0.0396274
0.58267,-0.000579096
0.169742,-0.0504235
-0.429224,-0.0425119
-0.385349,-0.00999226
0.549154,-0.00997684
1.22881,-0.0466341
1.49084,-0.0324774
0.677682,0.0172267
-0.857654,-0.018148
-1.62836,-0.06024
-1.45375,-0.0334958
-0.747395,0.100718
-0.139394,0.156415
0.0603325,0.0702908
0.00135509,-0.021903
0.0112189,-0.0989068
0.10838,-0.0902146
0.11409,-0.0363316
0.0982027,-0.0167236
0.0265595,0.0278895
-0.00434588,-0.0012163
-0.0196659,-0.0457012
-0.0790017,0.0148838
0.146071,0.0297999
0.665324,-0.00454908
1.0041,-0.0435499
0.756869,0.00469253
-0.0235212,-0.0014691
-0.657639,-0.0252599
-0.393452,-0.00612477
-0.197638,0.0530778
-0.224861,0.0612919
-0.174277,0.0358332
-0.210369,0.0103849
-0.0769425,0.0038193
0.12799,0.0292813
0.169505,0.0479559
-0.000862206,-0.00195395
-0.0443479,-0.111121
-0.0876996,-0.0773741
-0.146407,0.0426829
-0.333473,0.0146313
-0.42334,-0.0406054
-0.209525,-0.0114702
0.0992488,0.0379384
0.271467,0.0138056
0.227621,-0.020929
0.104966,-0.0176887
-0.017009,0.00513977
-0.0132942,-0.00365931
-0.0159092,0.0130165
-0.0841311,0.0399507
0.00625942,0.0250974
0.46842,0.0380357
1.44519,0.0321876
1.81868,0.00340104
1.30269,-0.0103641
-0.334144,-0.000491464
-2.04806,0.0214168
-1.90237,0.0291937
-1.01835,0.0903607
-0.30803,0.0490223
0.362124,-0.0958102
0.592296,-0.137479
0.182808,-0.116566
-0.274735,-0.0282806
-0.042163,0.0338271
0.345081,0.0249385
0.171833,-0.00343696
-0.24399,-0.0220021
-0.602234,-0.0400268
-0.516822,-0.0554003
-0.342445,0.0592811
-0.136149,0.048352
0.201155,0.0103825
0.61024,0.0234726
0.76443,0.0305368
0.314767,0.0123615
-0.261631,0.0548286
-0.17715,0.071559
0.0372701,0.00435421
0.193688,-0.027291
0.0889071,-0.024676
-0.0750307,-0.0683547
0.0362946,-0.10279
0.125281,-0.0752676
0.0172878,0.00546512
0.00989082,0.0530874
0.207333,0.0418684
0.230868,0.0249398
-0.0375167,0.0102746
-0.466543,0.0107963
-0.596045,0.00138876
-0.226369,-0.00919765
0.0528301,-0.00441189
0.0775636,-0.0204122
0.0806912,-0.0089953
0.260028,0.0095253
0.279699,-0.0206209
0.133227,-0.0474507
-0.132564,0.00249339
-0.257735,0.0620108
-0.0637877,0.089658
0.117005,0.0829056
0.118799,0.00747545
0.281121,-0.09518
0.687706,-0.0283298
0.625369,0.045879
-0.0124434,0.0397983
-0.755621,-0.04643
-0.929908,-0.0619444
-0.496081,-0.0248158
-0.214328,0.00957436
0.0573661,-0.0301024
0.323534,-0.121948
0.328233,-0.104466
-0.0453878,-0.00148301
-0.417094,0.153351
-0.302208,0.16161
0.132919,0.0599806
0.342155,0.00540194
0.155957,-0.0301899
-0.3922,-0.0468179
-0.746583,0.0388989
-0.038048,0.0738448
1.19181,-0.0347509
1.458,-0.0760594
0.833256,-0.042054
-0.364442,-0.00492299
-0.510483,-0.0228818
0.687975,-0.0608164
0.935176,0.00986282
-0.0740063,0.0907554
-1.38467,0.0452281
-1.43297,-0.041511
-0.617611,-0.106292
-0.242049,-0.0685379
-0.134742,0.0261947
-0.131042,0.0721232
-0.142016,0.0643299
-0.135564,0.0437691
-0.0798381,0.0270818
-0.0273994,0.0257141
0.0728562,0.0281328
0.172683,0.0114441
0.178576,-0.0278962
0.16534,-0.0548962
0.248947,-0.0628142
0.320553,-0.0613175
0.309008,-0.0244598
0.296327,0.0302848
0.440655,0.0192947
0.535987,0.0234208
0.277317,0.0465521
-0.170791,0.0454728
-0.707879,0.0350641
-0.722091,0.0560284
-0.317359,0.0793791
0.146783,0.0529326
0.316187,-0.0394385
0.235266,-0.0761386
0.075768,-0.0939339
-0.114033,-0.121175
-0.200983,-0.108549
0.101408,-0.03802
0.522384,-0.00239664
0.478978,0.0506186
0.147886,0.0351193
-0.287733,0.0173683
-0.307528,0.0537606
0.118588,0.0624011
0.262313,0.024506
-0.183848,-0.00886027
-0.881812,-0.00674229
-0.83138,-0.0078226
-0.271711,-0.0283652
0.0149054,-0.0320368
0.108317,0.0100699
0.125721,-0.00312411
0.104489,-0.00313902
0.103189,0.0122953
0.095403,0.0212597
0.157209,0.030972
0.181366,0.0533696
0.280123,0.0954844
0.235046,0.0573044
-0.00504173,-0.0226463
-0.158478,-0.048809
-0.199129,-0.0580991
-0.167232,-0.0950535
-0.115671,-0.0778976
-0.10294,-0.0149691
-0.113057,0.0226888
-0.114918,0.0306563
-0.036773,0.00341264
0.129592,-0.0293202
0.342218,-0.0442716
0.401117,-0.013739
0.367132,0.0213512
0.241123,0.0191274
0.118481,-0.00835618
0.193544,-0.0237055
0.265208,-0.00878708
0.493431,-0.00629157
0.705308,0.0210265
0.523835,0.038782
-0.312771,0.0469216
-1.40046,0.0928779
-1.45727,0.087346
-0.715305,0.0262618
-0.289307,-0.0147521
-0.0505028,-0.0310674
0.0381713,-0.0607006
0.0909394,-0.0841567
0.128998,-0.0875574
0.0678475,-0.0513342
-0.00524236,-0.0369382
-0.0306241,0.00670871
0.00351488,0.0395288
0.0132831,0.052229
0.000413506,0.0521637
0.00858781,-0.00453567
0.0138896,-0.0544137
0.0648777,-0.0187255
0.343707,0.0646855
0.552846,0.0609783
0.42988,-0.0106458
0.225545,-0.0484444
0.0753071,-0.0775899
0.0142067,-0.0855893
-0.23448,0.00976407
-0.38131,0.0721445
-0.223797,0.0753405
0.162185,0.0272125
0.348321,-0.0157147
0.183795,0.0133389
-0.125305,0.0513977
-0.453061,0.0660353
-0.454191,0.0125789
-0.143318,-0.0723943
0.0179948,-0.0829227
-0.000182588,-0.038118
-0.0072407,0.0178817
-0.0209752,0.0578348
-0.0411249,0.0429357
0.0371972,0.0083167
0.0974614,0.014486
0.0975754,0.0221865
0.158384,-0.0388223
0.219102,-0.0286004
0.187218,0.0218096
0.0959385,0.0085923
-0.0512467,-0.0149341
-0.168301,-0.0253598
-0.213582,-0.00790095
-0.159383,0.000356702
-0.0751072,0.0225736
-0.017943,0.0302525
0.0386363,0.0157989
0.111161,0.00339939
0.102255,0.0067328
0.161616,0.0188145
0.35367,0.0392817
0.335451,-0.0362196
0.0301139,-0.0517092
-0.217255,0.0329417
-0.334887,-0.0120818
-0.258263,-0.0501088
0.0560932,-0.033226
0.258911,-0.0307717
0.210074,-0.0324619
-0.0523346,-0.0168201
-0.168287,0.0174828
0.0996059,0.0140324
0.346083,-0.0187553
0.240178,-0.0176097
-0.195695,-0.014117
-0.649397,0.0177951
-0.678371,0.0295904
-0.338582,0.0158881
-0.0768957,-0.00648155
0.0949437,0.0359301
0.13601,0.0716901
0.0740662,0.0375589
0.0122039,0.000744883
0.0136525,-0.00664046
0.157689,-0.0208922
0.406471,-0.0256831
0.509975,0.066191
0.406465,0.0542456
-0.0371762,-0.0360866
-0.515184,-0.0479027
-0.40902,-0.0475599
-0.137682,-0.0597538
0.187407,-0.0526764
0.383322,-0.0532121
0.236017,-0.028142
-0.0962991,0.0269857
-0.0571801,0.0316457
-0.100083,0.0262336
-0.205006,0.0218107
-0.309159,0.00311623
-0.30185,-0.0263142
-0.189216,-0.0127865
-0.0268576,0.0395023
0.0941906,0.0393241
0.132266,0.0107623
0.0479284,-0.00940021
-0.0710061,-0.000770707
-0.0440627,0.0126689
0.0474277,0.0125939
0.0949224,0.0220176
0.134844,0.0309329
0.187673,0.00833476
0.145763,0.00183834
0.0768145,-0.0307722
0.0876915,-0.0383555
0.172035,0.0322726
0.180242,0.0336154
0.0974757,-0.0159435
-0.19255,-0.037609
-0.349472,-0.0353867
-0.208006,0.0076898
-0.0756277,-0.0237966
-0.0153684,-0.0670377
0.00928251,0.0113924
0.023425,0.046058
0.0298722,0.0117258
0.0107119,-0.0414422
-0.0124988,-0.00891345
-0.039565,0.0525762
-0.00583059,0.0617893
0.132405,0.0241275
0.198268,0.0100496
0.143242,0.0177969
0.0465863,-0.00939119
0.0041207,-0.041773
0.1426,-0.00742995
0.435743,0.00673175
0.554114,-0.0218103
0.0514755,-0.0459736
-0.527318,-0.0463871
-0.640912,-0.0160219
-0.491306,0.0172544
-0.332728,0.0204164
-0.0799827,-0.000301441
0.105655,-0.0134476
0.0812774,0.00790033
-0.0558615,0.0278543
-0.0801203,0.0133356
-0.0127348,0.017573
-0.0393642,0.0659602
-0.0684901,0.0710394
-0.0982046,0.0142526
-0.0820713,-0.0210558
-0.0541166,-0.0554862
0.0217181,-0.0585842
0.227252,-0.0299376
0.344307,0.00693974
0.28504,0.0212288
0.118608,0.0221199
-0.0232729,0.0339253
0.0540613,0.00630743
0.27216,-0.0447889
0.266137,-0.0197159
0.189773,0.0171902
-0.0137584,-0.00331748
-0.341585,-0.0235902
-0.48335,-0.0439491
-0.341055,-0.0517646
-0.0610043,0.0326537
0.12902,0.0568116
0.179963,0.0090696
0.113571,-0.000331899
-0.0554542,0.0217134
-0.0296765,0.0122147
0.106647,-0.00406021
0.0637309,-0.00692774
-0.0583102,-0.0081127
-0.265119,-0.0399839
-0.263961,-0.0448755
0.114842,-0.0282621
0.32965,-0.0245772
0.248661,-0.0263471
-0.0470165,-0.00102502
-0.420333,0.0690146
-0.299811,0.0701191
0.0413276,0.0347702
0.146374,0.00481323
0.0827874,-0.00469437
-0.0224616,-0.00121203
0.0412404,0.0197504
0.0187632,0.00462283
-0.125624,-0.0299297
-0.0578553,-0.0111791
0.164292,0.0258697
0.251383,0.0370627
0.175588,0.0185518
0.0598075,-6.67e-05
0.00487126,-0.00254993
0.0951535,-0.0217486
0.188897,-0.0108322
0.0436166,-0.00193979
-0.327812,-0.00178861
-0.505973,-0.00529165
-0.312275,-0.0314035
-0.103476,-0.0521337
0.0250807,-0.0499468
0.113519,-0.0105024
0.116171,0.0220232
0.0461453,0.0178722
-0.0557472,0.030324
-0.0679637,0.0434025
0.0222572,0.0269013
0.0715723,0.00415358
0.101936,0.00505171
0.124901,0.0101298
0.19489,0.0183706
0.335906,-0.00237986
0.33935,-0.00553875
0.236375,-0.0350679
-0.0956919,-0.0440457
-0.42532,0.010911
-0.297027,0.0327577
-0.0303591,0.0196795
0.0478443,-0.0355348
0.0434583,-0.0636485
-0.113898,-0.0154895
-0.141262,0.0447323
0.0941308,0.0480298
0.194842,0.0284315
0.12835,0.000478481
-0.0640137,-0.0595779
-0.296988,-0.0757191
-0.339917,-0.0170257
-0.188406,0.0421288
-0.0742093,0.024153
-0.00129094,-0.0247362
0.114928,-0.008525
0.232377,-0.00581183
0.230128,-0.0433788
0.0752,-0.0109884
-0.141629,0.0349023
-0.181908,0.0557736
-0.0386451,0.0533403
0.055547,0.0392975
0.147638,0.0106596
0.230291,-0.0211232
0.248766,-0.0558399
0.20662,-0.0374556
-0.0260103,-0.0225991
-0.263283,0.0252224
-0.274526,0.0460461
-0.238585,0.0174155
-0.12458,0.0223821
0.0016912,0.0282176
0.322306,0.0182836
0.420588,0.0144762
0.0397977,-0.0014112
-0.121577,-0.0351479
-0.0899916,-0.10684
0.00556718,-0.0875092
0.141434,-0.0295268
0.0688314,0.0031798
-0.263839,0.0403517
-0.367189,0.0457715
-0.26156,0.0192355
-0.197986,-0.0101936
-0.0955437,-0.00748128
-0.0239084,0.0330411
0.0129063,0.0312701
0.0951919,0.02077
0.1175,0.017778
0.114242,0.0123068
0.109922,0.00154761
0.039421,-0.00735357
-0.0292986,0.014604
-0.0446445,0.0115454
0.0307357,0.00885966
0.161993,0.0176584
0.450507,0.00492025
0.557418,-0.032446
0.408372,-0.0563186
0.0521378,0.0134593
-0.58878,0.0368982
-0.696907,-0.0371537
-0.362411,-0.0360689
-0.148064,-0.0215675
-0.0588632,-0.0627359
-0.0541152,-0.0638321
0.0465191,-0.00589806
0.214903,0.00306702
0.245553,0.00582818
0.128972,0.0408065
-0.162388,0.0106396
-0.331814,-0.0303213
-0.0408317,-0.0159254
0.377009,0.0284271
0.540072,0.0511603
0.280137,0.0711434
-0.161234,0.0915072
-0.161211,0.112078
0.120134,0.068174
0.130706,-0.0283128
-0.105161,-0.0787323
-0.444624,-0.0741582
-0.463612,-0.0526448
-0.186181,-0.0627976
-0.0900382,-0.0236772
-0.0488693,0.0322416
0.0160109,0.0400163
0.0783869,0.0272584
0.128555,0.0133481
0.183496,-0.0352213
0.280445,-0.0973691
0.246933,-0.0561991
0.0795681,-0.0109409
-0.0691673,-0.00435694
-0.208529,-0.0102335
-0.11025,0.0152734
0.0176031,0.0617428
0.0218888,0.0421006
-0.0022012,0.0271456
-0.00332182,0.0351477
-0.0599596,0.0406156
-0.0739372,0.0151362
-0.0494713,-0.00879094
0.0107907,-0.0171531
0.0573585,-0.0196299
0.0813339,-0.0231111
0.112623,-0.0107731
0.118125,0.0307001
0.143068,0.0165239
0.0109972,-0.0108687
-0.060806,-0.00437553
-0.0269509,-0.000980798
-0.0431979,-0.0091104
-0.0343794,-0.0264225
-0.0139725,-0.00492946
-0.0494023,0.00550821
-0.0297862,-0.0126706
-0.0344948,-0.00952097
-0.0727776,0.00625817
-0.0596436,0.0219663
-0.00382192,0.0096921
0.00099245,-0.000891754
-0.0808175,-0.00406187
-0.175937,0.00280616
-0.106067,0.0200256
0.187803,0.0346098
0.319375,-0.00156976
0.166653,-0.0560111
-0.0979964,-0.0691895
-0.175753,-0.0258246
0.0360279,0.0156267
0.226984,0.0273779
0.277792,-0.0183121
0.369646,-0.046829
0.391713,0.00222179
0.208051,0.0105227
-0.0718772,0.0107494
-0.365323,0.0335373
-0.488963,0.0323138
-0.382482,0.0460102
-0.255329,0.0675457
-0.170794,0.0534276
-0.194438,-0.00619093
-0.177628,-0.0907213
-0.15521,-0.111076
-0.139221,-0.072157
-0.0690946,-0.0287962
0.0458584,-0.0230896
0.120011,-0.0448508
0.136319,-0.0122689
0.114507,0.0586277
0.0574041,0.0565368
0.0218038,0.0290067
0.024502,0.0528651
0.0629864,0.0438149
0.135731,0.0233788
0.156394,0.0135152
0.163231,0.00960449
0.264161,0.00719502
0.304486,0.00807278
0.15864,0.00766176
-0.146598,0.00561326
-0.31776,0.0058851
-0.242172,0.00161019
-0.136469,-0.0118537
-0.0168389,-0.00899065
0.069525,0.00697598
0.0709954,0.00896691
0.0754042,-0.0137371
0.13568,-0.0177516
0.136114,-0.0123967
0.190046,-0.0271247
0.114035,-0.0307812
-0.114833,0.0226455
-0.248066,0.0316839
-0.335445,-0.0128792
-0.361774,-0.0352189
-0.238239,-0.014649
-0.0809185,0.0125706
-0.000288487,0.0208412
0.067593,0.0241948
0.196788,0.0201818
0.246556,0.00867275
0.211478,-0.00806637
0.0627448,-0.0106877
-0.134607,-0.00966062
-0.126728,-0.0284481
0.00029898,-0.0284998
0.0776208,0.00873354
0.213035,0.0311717
0.396944,0.0222613
0.258475,-0.0453275
-0.113577,-0.119127
-0.284268,-0.0225024
-0.228758,0.0487949
-0.186979,0.00903963
-0.153769,-0.0191377
0.00780264,-0.027403
0.174542,-0.0480701
0.219373,0.00618209
0.196393,0.0504086
0.163572,0.0720244
-0.0212944,0.0543839
-0.334325,0.0289017
-0.448003,-0.0422095
-0.266729,-0.0770475
-0.0697611,-0.0292968
-0.0517705,0.0190522
-0.107115,0.027562
0.0540253,0.0304411
0.158162,0.0453208
0.139732,0.0134794
0.206679,0.0109447
0.27962,0.0127177
0.195502,0.0213903
0.0897859,0.0539449
0.14191,0.00377664
0.186716,-0.0263415
0.101162,-0.000301685
-0.131685,0.0172506
-0.4374,0.0227574
-0.499344,0.0201989
-0.363832,0.0115023
-0.11121,0.00716134
0.123966,-0.0128726
0.182164,-0.0527236
0.21831,-0.0482554
0.206716,-0.0352487
0.129168,-0.0236761
0.0649105,-0.00863444
-0.0792918,-0.0272678
-0.0737246,-0.0188991
0.100228,0.0256197
0.157277,0.012095
0.107088,-0.0602868
0.145107,-0.0948451
0.0583607,-0.0381059
-0.0853067,0.027231
-0.100579,0.0341637
-0.284244,0.0224503
-0.402977,0.00551113
-0.23416,-0.0110758
-0.0193363,0.0285026
0.0378459,0.0403011
0.0207507,0.0372047
-0.0128749,0.0425133
-0.029184,0.0394748
0.00827272,0.0401001
0.0791363,0.0564441
0.151645,0.0402584
0.111855,-0.0103946
0.0306488,-0.037487
0.00853217,-0.037455
0.0147228,-0.0274518
-0.0064825,-0.0370197
-0.0487429,-0.0316613
-0.0497523,0.0231182
-0.00813724,0.0580157
0.116861,0.0511488
0.227894,-0.00607084
0.224161,-0.0841163
0.140947,-0.111319
-0.00457394,-0.10163
-0.168431,0.00211081
-0.200071,0.0322616
-0.0332857,0.0352602
0.114392,0.0280693
0.117259,0.0116078
0.0296059,0.00427325
-0.166055,-0.000711282
-0.251427,-0.00271724
-0.175091,0.000464594
-0.0775259,0.0142969
-0.000328245,0.0140372
0.0905363,0.0149837
0.275664,-0.00673621
0.328509,-0.0559016
0.187872,0.0224666
0.0519666,0.0769599
-0.0542273,0.043023
-0.113491,0.0134339
-0.258298,0.00367045
-0.240435,-0.00585034
0.118346,-0.0318223
0.382356,-0.0524855
0.352828,-0.0375144
0.10978,-0.0234138
-0.33348,-0.0108647
-0.647691,0.038071
-0.546667,0.0153641
-0.235754,-0.0209065
-0.0161466,-0.00900029
0.0961526,0.0106334
0.143694,0.0152859
0.070777,0.00253556
-0.089229,-0.00246255
-0.102114,7.49e-05
-0.0132243,0.00546801
0.0666978,0.0280797
0.0558856,0.041436
0.0584869,0.0274941
0.221358,0.00381237
0.360695,-0.00983206
0.365711,-0.0171436
0.206076,-0.0056723
-0.00099143,0.0132645
-0.094424,0.00862633
-0.0920231,0.00661983
-0.0320666,0.0187853
0.00535138,0.0124537
0.0468713,-0.00946415
0.0674203,-0.0205151
-0.119841,-0.0401076
-0.214525,0.00807385
-0.124243,0.0643904
-0.0891726,0.0217823
-0.167067,-0.0397511
-0.137705,-0.106049
-0.00785165,-0.143189
0.0682246,-0.08039
0.0683607,0.0117359
-0.0750535,0.0375654
-0.104201,0.0130785
-0.0614215,-0.0185913
-0.0397723,-0.0282769
0.136396,-0.00872568
0.326494,-0.0251267
0.286174,-0.0275158
0.0537965,0.0291628
-0.220687,0.0643069
-0.302755,0.0668061
-0.150612,0.0540954
-0.0374011,0.053273
0.0041885,0.0508131
0.01508,0.0343862
0.0709178,0.0388505
0.291827,0.0168981
0.588334,-0.0396722
0.573678,-0.0510868
0.333061,0.0141951
0.0660442,0.0605203
-0.0633716,0.062129
0.126267,0.0416749
-0.0596345,0.010393
-0.590816,-0.024059
-0.726316,-0.0107278
-0.642635,-0.000833562
-0.377216,-0.0214257
-0.0224297,-0.0616778
0.155436,-0.0275144
0.204829,-0.0242325
0.152539,-0.0300554
-0.0119274,-0.00501702
-0.130025,-0.0106687
-0.0899522,0.00697491
-0.0182477,0.0366875
-0.155054,0.0236083
-0.132131,-0.00999953
0.0473814,-0.0291363
0.167685,-0.0325048
0.289641,-0.0171706
0.352906,-0.0145614
0.253791,-0.0180955
0.120297,-0.0134811
-0.0635004,0.00594343
-0.188027,0.022589
-0.190435,0.0148088
-0.123781,-0.014678
-0.00155881,-0.0200278
0.172506,-0.00466678
0.258639,-0.00155951
0.157967,0.00152367
-0.0130784,0.0116122
-0.0957046,0.0230894
-0.0905046,0.0172526
-0.0726922,-0.00807326
-0.0706043,-0.00128208
-0.0957481,0.00178739
-0.0506649,-0.0261689
-0.00264341,-0.0556221
0.0604661,-0.0756586
0.174309,-0.0511856
0.138905,0.0287659
-0.0464148,0.0462172
-0.214639,0.0337621
-0.183612,0.0533828
-0.0837556,0.042457
-0.0360713,0.012437
0.0108546,-0.000362412
0.0650065,0.00892511
0.0690533,0.0115643
0.00300515,0.000419335
-0.0740293,-0.00551632
-0.0856523,0.00137365
-0.0198073,0.0150019
0.00753029,0.00653548
0.00138118,0.0034453
0.0426866,0.00406776
0.174294,0.0127532
0.241747,0.000247954
0.216328,-0.0134096
0.231349,-0.00974465
0.381463,-0.02174
0.543634,-0.0404824
0.517554,0.0205708
0.181036,0.054481
-0.279557,-0.00787365
-0.68977,-0.0397487
-0.839373,-0.00774999
-0.664358,-0.00458477
-0.33756,-0.0377603
-0.0640396,-0.0348107
-0.0376368,-0.00181531
-0.101552,0.0148471
-0.0839857,0.022419
-0.0454138,0.0276457
-0.0317015,0.01726
-0.0136267,0.00304318
0.00482473,0.0052056
-0.0226763,0.0106937
-0.0389051,0.00959465
0.0207484,0.00677662
0.101804,0.00574482
0.161356,-0.0195336
0.183599,-0.0287194
0.231551,-0.0048025
0.338872,0.0129115
0.413826,0.0233819
0.336959,0.0164857
0.0895587,0.0155595
-0.125071,0.0230851
-0.162337,0.0278216
-0.159139,0.0196541
-0.125523,-0.00207891
-0.0319374,-0.0176815
0.0819947,-0.0292558
0.148199,-0.0027959
-0.0788134,-0.0339822
-0.353572,-0.0876758
-0.364977,-0.0578657
-0.174527,-0.0251113
-0.00498984,0.0223177
0.077708,0.0476808
0.148394,0.0137681
0.245427,-0.00645668
0.262771,0.0188652
0.164469,0.0356093
0.0723562,0.0232975
-0.0633144,0.00186194
-0.175693,0.00184259
-0.190254,0.0186433
-0.0416172,-0.0257055
0.120005,-0.0197964
0.146159,-0.00717992
0.0148484,-0.00628506
-0.114256,-0.0359408
-0.13484,-0.0113419
-0.133341,0.0192278
-0.12688,0.00814273
-0.136064,0.00333548
0.00858389,0.0140226
0.153164,0.0173882
0.124806,0.00781177
-0.0440868,0.00660776
-0.207902,0.00212329
-0.162571,-0.00791286
-0.0291331,-0.00498417
0.141959,-0.00520056
0.401417,0.0043152
0.541911,0.000903665
0.551876,0.00608978
0.208438,0.0388906
-0.208812,0.0510653
-0.36976,0.0307113
-0.449768,-0.00724524
-0.351949,-0.0304414
-0.158282,-0.0109736
0.0214283,-0.0037131
0.10111,-0.00027907
-0.0013361,0.00518284
-0.0650018,-0.0137175
0.0334979,-0.0306101
0.0977626,-0.0340908
-0.00612604,-0.0231371
-0.168891,-0.0267138
-0.227433,-0.00966057
-0.193624,-0.0955346
-0.176981,-0.126937
-0.0885393,-0.0173933
0.0796035,0.0416739
0.188005,0.0487174
0.26094,0.0500223
0.258076,0.0437155
0.132819,0.0279325
0.138961,0.0123702
0.204041,0.00947035
0.193596,0.0110797
-0.0389504,0.0261088
-0.24877,0.0555041
-0.0762306,0.0562321
0.0601141,0.0314017
0.0618255,0.0137363
-0.0877068,0.00631567
-0.228504,-0.00372451
-0.210685,-0.0101484
-0.167024,-0.00896536
-0.0523175,-0.0126882
0.0455534,-0.0239444
0.0865943,-0.0158146
0.0988875,-0.011288
0.11127,-0.0275782
0.156309,-0.0233019
0.0834253,-0.0225374
-0.073678,-0.0199971
-0.0891679,-0.00149242
-0.070802,0.00730853
-0.0611557,0.0397238
-0.00263164,0.0383802
0.0522908,0.0350112
-0.0178363,0.0245349
-0.0755939,0.00418812
0.0284312,-0.00464442
0.177275,-0.00423211
0.205971,-0.0121966
0.111257,-0.0163543
0.0128339,-0.0157004
-0.108736,-0.0160295
-0.105793,-0.0274096
0.00650119,-0.0383039
0.0829405,-0.0267026
0.120402,-0.0177151
0.0685387,-0.0158887
0.0666769,-0.00248693
0.0768158,0.00014933
0.101931,-0.00347316
0.0617933,-0.0156525
-0.0275914,-0.0230473
-0.0566287,-0.0154164
-0.0634432,-0.0272943
-0.214396,-0.00319584
-0.504926,0.0328895
-0.447982,0.048972
-0.236148,0.0367177
-0.0397458,0.0206923
0.0889513,0.00949739
0.0905537,0.0110444
0.0413932,0.0244167
0.0298885,0.0329821
0.101409,0.0279302
0.34312,0.020454
0.384483,0.0138526
0.208872,0.0123882
-0.129112,0.0332163
-0.33599,0.0497096
-0.214002,0.0136726
-0.118024,-0.023088
-0.107519,-0.0342405
-0.0486455,-0.0713328
0.0820996,-0.127342
0.188261,-0.0975339
0.193481,-0.0237483
0.129328,0.0103831
0.069289,0.0240218
-0.0479494,0.00674827
-0.0914281,-0.0010159
-0.00746991,0.0359184
0.0265758,0.0360584
0.0492142,0.0120446
0.0356338,0.0119839
-0.0116855,0.0220682
0.0184312,0.0177602
-0.0527035,0.0209943
-0.0987229,0.0439482
-0.0835267,0.0323497
-0.0276781,0.0255619
0.0918138,0.0280127
0.139981,0.00348054
0.0502482,-0.0924195
0.0290387,-0.110499
0.0974109,-0.0333684
0.11095,0.00599568
-0.0985047,0.0182028
-0.265738,0.016781
-0.27973,-0.00301063
-0.179948,0.00740368
0.00215869,0.0136469
0.193865,0.00954073
0.350163,0.00813962
0.505773,-0.00194665
0.481639,-0.0123625
0.432652,0.00963924
0.143248,0.0420753
-0.373571,0.0235806
-0.667149,0.00657262
-0.600066,-0.00434875
-0.382423,0.00434711
-0.193631,0.000325103
-0.0598843,-0.00434748
-0.0134586,-0.00273095
-0.0211382,-0.0389106
-0.000656596,-0.042585
0.0461594,-0.0166558
0.105377,0.00196451
0.0719564,0.0233158
-0.00905923,0.0115678
0.150438,-0.0312695
0.300163,-0.0182791
0.190284,-0.0117487
0.036522,-0.0104867
-0.107716,0.000838387
-0.0900034,0.00714144
0.00972076,0.00836219
0.0257054,0.0142646
0.0014908,0.0112704
-0.0350532,0.0138804
-0.0231035,0.0161547
-0.034657,0.0111443
-0.0810829,0.00445546
-0.0648457,0.00631921
-0.0371031,-0.0121293
-0.0229619,-0.0146863
-0.00267129,0.0077326
-0.016687,0.0261199
-0.0341394,0.0334359
0.0174573,0.0275292
0.108588,0.0104036
0.135169,0.0100361
0.0892664,0.00697246
0.0591358,-0.0117386
0.0324758,-0.0695717
0.0157347,-0.0502717
0.0289608,0.00343684
0.0226003,-0.0226096
-0.0461565,-0.0747989
-0.128777,-0.0629467
-0.18808,-0.0206537
-0.144562,0.00638815
0.0032662,0.00888343
0.0300783,0.0157936
-0.028997,0.0214612
-0.00398154,0.0267529
0.166452,0.0291779
0.294408,0.0264118
0.224672,0.0309226
0.150881,0.0544596
0.0434634,0.0465787
0.0343745,0.0135669
0.0940137,-0.00135429
0.100217,-0.00428794
0.206832,-0.0318908
0.27783,-0.0386658
0.0291119,-0.00449265
-0.385708,0.027854
-0.674125,0.021621
-0.61562,0.000970897
-0.333813,-0.00410517
-0.0829305,-0.0106956
0.0907156,-0.0182487
0.177193,-0.0164054
0.19579,-0.0184737
0.120407,-0.0107925
-0.122024,0.0106787
-0.214563,0.0202899
-0.118943,0.00351859
-0.137721,0.00841256
-0.107708,0.0207653
-0.0283959,0.0144473
0.00921573,0.00567834
0.0543026,0.0139706
0.188844,-0.0145037
0.324697,-0.0539897
0.236245,-0.0794208
0.138225,-0.0303628
0.0953863,0.0316605
0.186171,-0.0098908
0.33672,-0.0782065
0.233272,0.00663622
-0.0941932,0.0396719
-0.265201,0.0304581
-0.271987,0.0389681
-0.19774,0.0434649
-0.138407,0.0463627
-0.12649,0.0209806
-0.120916,0.00540831
-0.0847077,-0.0264347
-0.0232391,-0.0580671
0.0288508,-0.0219957
0.0804192,0.0261561
0.0729435,0.0327912
0.0303411,0.0272506
0.0840221,0.0275423
0.0431356,0.0141891
-0.0962844,-0.00499096
-0.095124,-0.0159335
-0.0464438,-0.0151738
-0.0227487,-0.00176681
0.056071,0.000762148
0.168641,-0.0165711
0.349725,-0.0139892
0.606369,-0.0103135
0.74787,-0.02755
0.563693,-0.0547628
0.155757,-0.0304495
-0.497699,0.0203494
-1.02296,0.024729
-0.880336,0.0230626
-0.524197,0.0288621
-0.169172,0.0379431
0.13637,0.0271835
0.23316,-0.00230864
0.114332,-0.0259951
-0.0616991,-0.024413
-0.202668,-0.0110158
-0.182751,0.00720067
-0.0298157,0.0183976
0.0288706,0.0208631
0.0236407,-0.0167593
0.179747,-0.0899105
0.384739,-0.16285
0.488952,-0.0357339
0.336292,0.0885541
-0.0596778,0.0441729
-0.2209,0.0124308
-0.295332,0.00815558
-0.275172,0.0358306
-0.140156,0.0234719
0.00332921,-0.0147301
0.0911503,-0.0151155
0.104186,0.00288261
0.0979305,0.0134323
0.0801626,0.0211598
0.0870856,0.0222009
0.0890027,0.0263214
-0.0145034,0.0294906
-0.120521,0.0168311
-0.231016,-0.0123762
-0.251513,0.00443165
-0.0931838,0.010074
0.0206306,-0.00683734
0.0355059,0.0107221
0.0592828,0.0118044
0.102662,0.00606915
0.139678,-0.00796337
0.128444,-0.0250943
0.101632,-0.0166991
0.108846,0.00614673
0.141724,0.00843309
0.163192,0.00312174
0.0858167,0.000358057
-0.0142147,-0.000198254
-0.143032,-0.000240463
-0.177169,-0.00614113
-0.0640765,-0.0046586
-0.0784427,-0.00572308
-0.215614,-0.024326
-0.214679,-0.0146141
-0.00407508,0.0116323
0.120825,0.0170087
0.129524,-0.0133746
0.11322,-0.0364655
0.022826,-0.0186437
-0.0508604,-0.000308403
-0.19319,-0.00396399
-0.242829,-0.00731458
-0.142096,0.00430631
-0.053127,0.0152071
0.25414,0.00757152
0.673247,0.000813388
0.834589,-0.00045773
0.536072,-0.00298636
-0.128328,0.00258268
-0.423286,0.0197147
-0.326136,0.0342704
-0.123878,0.0112637
-0.0506585,-0.0149207
-0.316118,-0.0211261
-0.341351,-0.00728256
-0.10634,0.0131133
-0.11409,-0.00402803
-0.295881,-0.0157426
-0.283468,-0.000559621
-0.139893,0.0101392
-0.047965,-0.011012
-0.0510496,-0.0187241
-0.0883169,-0.00359124
-0.045416,0.00125888
0.0810755,-0.00389373
0.174403,0.00152202
0.195588,0.010385
0.182822,0.010118
0.167397,-0.0058629
0.174703,-0.0216193
0.198401,-0.011359
0.202912,0.0198316
0.158237,0.021084
0.075419,-0.0178105
0.00901666,-0.025519
-0.0171986,-0.0184999
-0.0270349,0.0017016
-0.0664365,-0.00543245
-0.121082,-0.00980906
-0.158694,0.0272979
-0.129812,0.0390763
-0.0601825,0.0291941
0.000790909,0.0286689
0.0369807,0.0154404
0.019717,0.0094619
0.0108784,0.0072799
0.068745,-0.00589649
0.140532,-0.014752
0.257625,-0.0033653
0.271434,0.00937394
0.140613,0.00755538
-0.0683475,0.00874778
-0.347531,0.00194242
-0.391246,-0.0154599
-0.223128,-0.0377521
-0.0471139,-0.00507583
0.070518,0.00411023
0.168462,-0.0252121
0.145529,0.0105439
0.125828,0.0221691
0.1551,0.0184931
0.0915139,0.013604
-0.078972,0.00378263
-0.273093,-0.0114562
-0.308204,-0.0218888
-0.127608,-0.0270234
0.00606682,-0.0132164
0.108777,0.0122422
0.0747403,0.0065923
-0.08751,-0.0014201
-0.0911446,-0.0202412
0.0541285,-0.0394097
0.19985,-0.0169689
0.204746,0.0144567
-0.0194546,0.0151491
-0.201976,0.00396683
-0.0392229,0.00316531
0.29484,-0.0127555
0.603267,-0.0244404
0.548656,-0.016143
0.150852,0.00379872
-0.337226,0.0257494
-0.632323,0.0316757
-0.476113,0.029655
-0.235289,0.0109187
-0.202126,-0.0129388
-0.22658,-0.0129462
-0.132646,0.0153376
-0.140077,0.02213
-0.165636,0.0159819
-0.0626834,0.00579791
0.0840909,-0.00307608
0.147833,-0.00828688
0.0814954,-0.0069391
0.0575513,-0.00458541
0.0573499,-0.02416
0.124998,-0.00195834
0.340966,0.0198115
0.461996,0.0258696
0.331389,0.011249
0.0629622,0.0183452
-0.0401593,-0.00220018
-0.0492236,-0.0266885
-0.0775206,-0.0255239
-0.0614573,-0.00470953
-0.0517407,-0.00806118
-0.0355323,-0.0385137
-0.0845871,-0.0331056
-0.164184,0.00779504
-0.196771,-0.0305773
-0.157823,-0.0233723
-0.0571921,0.0478282
-0.0126591,0.0336158
0.0492607,-0.00458131
0.0766445,-0.00142545
0.140305,0.0122707
0.153903,0.00881876
0.127349,1.88e-05
0.0800295,0.0034388
0.0847566,0.00542809
0.117416,0.00329558
0.0291729,-0.00465047
0.050286,-0.0296376
0.185608,-0.018873
0.155435,0.0400781
0.0339804,0.0569615
-0.402931,0.0366953
-0.756636,0.0315592
-0.382691,0.00910444
0.0236525,-0.0293492
0.18988,-0.0515191
0.178935,-0.0456288
-0.0122419,-0.0246997
-0.218986,-0.00772608
-0.177268,-0.00771354
0.00735045,0.0155297
0.146266,0.0275442
0.147011,0.0159819
0.105389,-0.00196509
0.0561142,0.00478905
0.0758581,0.0105934
0.137913,0.00141719
0.0368659,-0.00113141
-0.119165,0.0019121
-0.0512133,6.77e-05
0.0850426,-0.00620108
0.130149,-0.00802007
0.0386059,0.00427873
-0.0449111,0.0152493
-0.0430371,0.0425982
-0.0380498,0.0423685
-0.0421681,-0.0133948
-0.0205247,-0.0390415
0.0366838,-0.0489219
0.0455348,-0.0444911
-0.113149,-0.0188872
-0.168886,0.00695393
-0.0575259,0.0029207
0.032494,-0.00427425
0.129868,-0.00336207
0.0853129,-0.0114084
0.0489954,-0.0146256
0.242743,-0.00887624
0.296384,0.00190376
0.120962,0.0160766
-0.158104,0.0152186
-0.344313,0.0121514
-0.231846,0.0158115
-0.11344,0.0169158
-0.0106899,0.0297906
0.0705458,0.0278398
0.0225418,-0.00024155
-0.0728286,-0.0226075
-0.135192,-0.0261311
-0.107671,-0.0374276
-0.0777075,-0.0143584
-0.0398837,0.0152475
0.0122286,0.0240614
0.0252927,-0.00203556
0.0635449,-0.0090563
0.229123,-0.016391
0.587701,-0.0235377
0.817106,-0.0174035
0.536183,0.00890288
-0.0741782,0.0161779
-0.509245,0.000769279
-0.408902,-4.03e-05
-0.124296,0.0335762
-0.235888,0.0127258
-0.453043,-0.0016358
-0.387069,-0.000287868
-0.213052,-0.00298308
-0.112844,0.00599803
-0.0366495,0.0119219
0.0329856,0.0108358
0.0659835,0.00797717
0.241572,0.00613845
0.352511,-0.00159241
0.307534,-0.00270576
0.140039,-0.0122778
-0.120401,0.0101666
-0.166541,0.0210669
-0.201387,0.0255396
-0.186518,0.0223206
-0.137428,-0.00296173
-0.0678432,-0.0296919
-0.00507339,-0.0248831
0.0507928,-0.0176933
0.054516,7.58e-05
0.065324,0.00991628
0.182474,0.00251348
0.293305,-0.0128931
0.252047,-0.0395692
0.118054,-0.0303032
-0.0197037,-0.00130529
-0.115902,-0.00954917
-0.0871453,0.00446409
-0.0910286,0.015019
-0.0572413,0.0258013
0.077423,0.0245662
0.067022,-0.00574405
-0.0931065,-0.0261067
-0.0974491,-0.00576432
-0.0420865,0.0132552
-0.125148,0.0172383
-0.120818,0.0167892
-0.042455,0.0168903
0.00760488,0.00322423
0.0168813,-0.0188069
-0.0159783,-0.034503
-0.0199799,-0.0499807
0.0220591,0.0145038
0.0769716,0.0455735
0.085166,0.0246606
0.0752936,0.0222876
0.129345,0.0307344
0.172164,0.0185376
0.0635996,-0.0070873
-0.12413,-0.0148075
-0.164914,-0.0119891
-0.144892,-0.00309086
-0.0967667,-0.00090616
0.0281288,-0.0325679
0.190358,-0.09042
0.290877,-0.0531137
0.218717,-0.00198319
-0.0499966,-0.00100665
-0.170612,0.0305882
-0.0168344,0.00849052
0.0610554,0.0193797
0.0447187,0.0278143
-0.117725,0.000846908
-0.107048,-0.0152314
0.120071,-0.0054468
0.248253,0.0023904
0.184799,0.00060392
-0.194635,0.00534426
-0.482711,0.0128247
-0.382336,0.0192296
-0.188422,0.019931
0.0358776,0.010147
0.194309,0.00248939
0.189377,0.00534823
-0.0210741,0.00455716
-0.304858,-0.00295871
-0.265631,-0.00438384
-0.0170887,0.00222659
0.17038,0.0025691
0.211609,0.00464327
0.144108,0.0069908
-0.0585395,-0.00251989
-0.122422,-0.0114728
-0.0423373,-0.00710714
0.0620772,0.0033107
0.180772,0.00481837
0.249269,0.00790584
0.214578,0.00939003
0.0409642,0.00280897
-0.104655,-0.00131814
-0.0988781,0.00501826
0.0465531,-0.0101555
0.195671,-0.020715
0.10727,-0.00573994
-0.222292,0.0168815
-0.36703,0.0294435
-0.0913627,0.0377171
0.168296,0.0108
0.112695,-0.057754
0.0097781,-0.126489
-0.0299544,-0.0701109
-0.022148,0.0244099
-0.0625741,0.0306455
-0.156346,0.0130181
-0.161552,0.0275431
-0.0949564,0.0337762
-0.0331956,0.0250301
0.016893,0.00580382
0.0849396,-0.00918162
0.195178,-0.0225302
0.213347,-0.0226136
0.167627,0.00422451
0.113328,0.0274373
-0.0392804,0.0216247
-0.00957013,0.0113877
0.0787654,0.00414944
0.0731755,0.00113659
0.0713375,-0.012152
0.0836658,-0.0260532
0.0290711,-0.0302631
-0.0465884,-0.00836599
-0.0223707,0.050745
-0.0537382,0.0402487
-0.275198,0.00820691
-0.506479,-0.0132488
-0.404064,-0.0250584
-0.212005,-0.0195186
-0.0749343,-0.00659619
0.0108523,-0.00180597
0.135611,0.00210245
0.419228,0.0103503
0.573077,0.0166871
0.422404,0.00909879
0.0849924,-0.00225948
-0.165657,-0.00209217
-0.0398832,-0.0213519
0.10007,0.00654328
-0.0947042,0.0363858
-0.283518,0.0118231
-0.288712,-0.0157522
-0.265625,-0.00717644
-0.179408,-0.00753009
-0.0436843,-0.0228893
0.00863182,-0.00382152
0.0175667,0.00462065
0.0804065,0.00475155
0.137124,0.0090741
0.105627,0.0110693
0.00663326,-0.000372619
-0.0243695,-0.00794363
0.173917,-0.00339945
0.344336,0.00283278
0.298383,0.0136617
0.162899,-0.00509863
0.037617,-0.069763
-0.0712506,-0.0542405
-0.122909,-0.00869775
-0.277089,0.00152575
-0.340956,0.00516021
-0.174567,0.00365515
-0.0582723,0.0190214
-0.0200247,0.0266079
-0.010077,0.0216501
0.0103395,0.0180626
0.00442894,0.0200897
-0.0530945,0.0204346
-0.04733,0.0177735
-0.0159173,0.0109792
0.043563,0.0053533
0.127405,-0.019378
0.165918,-0.0127674
0.226482,-0.017725
0.158616,-0.0105624
0.0545502,0.00794549
-0.0246326,0.00384333
-0.145623,0.00307143
-0.0766865,0.00144783
0.0837369,-0.00505771
0.183126,-0.0160093
0.160921,-0.0155727
0.0389352,-0.00137505
-0.0927434,0.0174627
-0.110404,0.0316689
-0.0867489,0.02676
-0.0697152,0.0159595
0.0281576,-0.000903826
-0.00620295,0.00502157
-0.167989,0.0294386
-0.317737,0.0329227
-0.251277,-0.00510368
-0.0799277,-0.0492425
0.00770688,-0.0499242
0.0803509,-0.0286672
0.160904,-0.0200281
0.191373,-0.0202261
0.196829,-0.0197178
0.127648,-0.00427445
-0.0438384,0.00763435
-0.276719,0.0134326
-0.269053,0.0100737
-0.0862936,0.0069604
0.162642,0.00353982
0.362561,0.00836827
0.293887,0.00546484
0.0579076,-0.0401424
-0.189358,-0.0501783
-0.218551,0.0232759
-0.14102,0.0445015
-0.0708825,0.0208229
0.00939392,0.0165474
-0.0311503,-0.0011587
-0.0612764,-0.0347001
0.0870882,-0.0151572
0.34576,0.00733327
0.431181,0.00895114
0.305974,-0.00105566
-0.0269798,0.0018904
-0.346173,0.0119775
-0.373234,0.0177936
-0.367869,0.0144529
-0.269851,0.00368115
-0.00351533,-0.013251
0.191435,-0.0072549
0.233463,0.00384927
0.129957,-0.00134204
-0.0465123,-0.00357194
-0.13025,0.00387678
-0.0902876,0.0155334
0.0660095,0.0107489
0.16752,-0.00427895
0.134948,-0.0404806
-0.0345052,-0.0137312
-0.222006,0.0271987
-0.184215,0.00600591
0.09039,0.00463766
0.422273,0.0228681
0.560721,0.00331492
0.333369,-0.0140096
-0.17018,-0.0180066
-0.574595,-8.26e-05
-0.477696,-0.00925412
-0.202632,-0.0179619
-0.0807153,-0.0214075
-0.0197567,-0.0178375
0.0156848,-0.00284046
0.0278723,0.00257888
0.15198,-0.00135348
0.263928,-0.00411993
0.235747,-0.0159294
0.0668534,-0.00727781
-0.12521,0.00970142
-0.05506,0.00458396
-0.00457662,0.00564265
-0.0506982,0.0158717
-0.159212,0.0170208
-0.224263,0.0202968
-0.00289027,0.0113701
0.140761,-0.00413744
0.115236,0.00258019
0.125268,0.0311089
0.104245,0.0379599
-0.0481855,0.0137446
-0.146282,0.00570699
-0.231369,0.00818797
-0.127034,0.00911985
0.110936,0.00285617
0.216561,-0.00505415
0.103144,0.00365598
-0.0820307,0.00279016
-0.142122,-0.0113741
0.0873276,-0.0291437
0.347093,-0.0107541
0.22486,0.0159961
0.0262564,0.0103537
-0.231242,0.00969658
-0.352136,0.0188807
-0.0614422,0.0217644
0.15657,-0.00630101
0.113185,-0.0509813
-0.0669875,-0.0667475
-0.236631,-0.0181834
-0.242686,0.0244772
-0.152661,0.00308188
-0.0788214,-0.0323811
-0.0202109,-0.0294909
0.0448616,-0.0199998
0.117175,-0.0207471
0.198156,0.0118204
0.2455,0.0373056
0.325262,0.0190988
0.311541,-0.0262173
0.18136,-0.0295767
0.021368,-0.010116
-0.161336,-0.0200937
-0.255941,0.00228538
-0.226798,0.0247137
-0.142623,0.0328981
-0.083875,0.0358331
0.0233796,0.0299544
0.157578,0.0165177
0.198434,0.00834943
0.0120183,0.00136123
-0.274526,-0.0162774
-0.268264,-0.0313417
-0.126331,-0.0178953
-0.0181368,0.00780942
0.0438228,0.00271931
0.00645596,0.00530006
-0.000334004,0.0129331
0.155708,-0.00569265
0.23275,-0.0146964
0.196889,0.0011318
0.0905441,0.0106604
-0.0900074,0.0131628
-0.210197,0.0123256
-0.152606,0.000570466
-0.00331166,-0.012825
0.0194313,-0.0194723
-0.0215939,-0.0114029
-0.0970018,0.00908536
-0.115084,0.0230719
-0.0080069,0.015491
0.0899752,0.00608139
0.156963,-0.0047425
0.176355,-0.0178633
0.146642,-0.0187855
0.0360744,-0.0176663
-0.155885,-0.0253539
-0.217573,-0.0311888
-0.061814,-0.00169739
0.055365,0.035191
0.0852384,0.0288344
0.0674009,0.014488
-0.0146611,0.00201261
-0.0133698,0.00657078
0.00670047,0.00783896
-0.0901729,0.00913737
-0.115664,0.0144193
-0.0542417,6.93e-05
0.0276254,-0.0116318
0.116169,-0.0124187
0.149199,-0.0398216
0.117286,-0.0305984
0.0953268,0.0223195
0.0353841,0.0256318
-0.0072984,-0.00759697
-0.0957005,-0.0121968
-0.26568,0.00352136
-0.215115,0.0156225
-0.0977227,-0.0110165
-0.0499523,-0.0480834
-0.00785705,-0.0284329
0.0826576,0.00858053
0.220655,-0.00267446
0.281074,0.00901461
0.213567,0.0463996
0.0798448,0.0483659
-0.0266883,0.0359926
-0.0561655,0.0061249
-0.00387845,-0.0248448
0.0514237,-0.019728
-0.0762658,0.0106623
-0.153803,0.0171379
-0.044819,0.00851239
0.0415634,-0.00223508
-0.03028,-0.0196208
-0.229992,-0.0206896
-0.169185,0.00123708
0.0786048,0.000589545
0.15806,-0.00857407
-0.014893,0.00278949
-0.280851,0.0172202
-0.204798,0.0151445
0.0823485,0.00651337
0.204634,-0.00246145
0.154457,-0.00851204
-0.0127579,-0.00470133
-0.157872,0.00167243
-0.0228971,0.00169204
0.19334,0.00141106
0.194,0.00439714
0.0863343,-0.00118499
-0.0574729,-0.00420431
-0.140646,-0.00460601
-0.0982333,-0.00283
-0.0482483,-0.00463377
-0.0199306,-0.00424744
0.0711319,0.00544088
0.104904,0.00989728
0.0235042,0.00355457
-0.105392,-0.00157288
-0.13897,0.00129959
-0.0571311,0.00230247
0.00552918,0.0034585
0.0447063,-0.0170104
0.063207,-0.0787168
0.0518189,-0.076585
0.0250039,0.00918722
0.0120283,0.033756
0.0132899,0.022592
0.0170067,0.0121524
-0.0129508,0.0135509
-0.0513619,0.019985
-0.0264888,0.0259161
0.0363955,0.0328632
0.0658318,0.0233253
0.0486964,-0.00190153
0.00521874,0.00479934
0.0214179,-0.00284816
0.078364,-0.0164886
0.141653,-0.0086149
0.177393,-0.0120299
0.0908902,-0.0147638
0.0180144,-0.00977535
-0.0118313,-0.0110937
-0.126002,-0.0123533
-0.167417,0.00460736
-0.21879,0.0171943
-0.200507,0.00356252
-0.147115,0.00403276
-0.0908338,0.00639569
-0.0184795,0.00963235
0.0215817,0.0208796
0.0230443,0.0219579
0.0375677,0.0064413
0.183496,-0.0165286
0.314574,-0.0195772
0.273738,-0.00979147
-0.0144433,-0.0171583
-0.309906,0.00238454
-0.152612,0.00118092
0.0620943,-0.0154661
0.136312,-0.0210715
0.167675,-0.0134322
0.170909,-0.0107609
0.0959893,-0.00586393
-0.103134,0.0115929
-0.344448,0.0206767
-0.396124,0.0198904
-0.232676,0.0138872
-0.0414416,0.0061712
0.029144,-0.00458985
0.0724837,-0.00963458
0.0979852,-0.0019681
0.108444,0.00394742
0.148874,0.00345347
0.0923425,0.00184675
0.0564864,-0.00142718
0.00495469,-0.00682726
-0.141643,-0.0097981
-0.110798,-6.44e-05
0.0111809,0.00354932
0.0527499,0.00054594
-0.0013638,-0.00583351
-0.100584,-0.00267835
-0.0629799,0.0104748
0.0409471,0.0166834
0.0478635,0.0118556
-0.0146989,0.00406975
-0.0655818,-0.00256493
-0.0421582,-0.00565812
-0.0182731,-0.00530027
-0.0178759,-0.00805094
0.0322966,0.0067171
0.17068,0.0149289
0.280186,-0.000126788
0.261313,-0.00381773
0.0677024,0.00710499
-0.0969188,0.00471157
-0.0708023,-0.0114345
-0.0264985,-0.0359495
-0.0940328,-0.0303164
-0.0988768,-0.00249215
0.0012224,0.0145207
0.126665,0.0139727
0.161914,0.00874638
0.199226,0.00340737
0.0840307,0.000658032
-0.164897,9.41e-05
-0.3215,-0.00511235
-0.404271,-0.0092946
-0.319999,-0.00845642
-0.125888,-0.00882048
0.00560689,-0.00657485
0.180846,-0.00674284
0.33531,-0.0153137
0.305706,-0.00186937
0.129695,0.0221615
-0.123602,0.0228909
-0.141788,0.0179727
-0.0667474,0.00855255
-0.142058,-0.000471294
-0.104821,-0.00414215
-0.0134639,0.00808618
0.0458693,0.0112307
0.0880953,-0.000890592
0.11458,0.00223815
0.0548749,0.0135078
0.00592147,0.0164323
-0.042067,0.0120068
-0.0805301,-0.00376325
0.0106387,-0.0232432
0.0891354,-0.00186786
0.0810428,0.0142852
0.0434564,0.0131169
0.039772,0.000513364
0.0779934,-0.00272875
0.163816,0.00680856
0.0657494,-0.00917372
-0.110531,-0.0203052
-0.161791,-0.0145342
-0.112603,-0.00769147
-0.0235692,-0.00609605
-0.0178859,-0.00681264
-0.0844306,-0.00522829
-0.156906,-0.00706316
-0.102945,-0.00781429
-0.00181311,-0.00247315
0.0245843,0.00170339
0.0238646,0.00209208
0.0375665,0.00608347
0.0598802,0.0123312
0.119108,0.00955021
0.127388,-0.00151645
0.0661532,-0.0017174
-0.00976997,-0.00149423
-0.0812469,-0.0106913
-0.113096,-0.00756293
-0.0574079,-0.00278897
-0.0299105,-0.00218042
-0.0468839,-0.002602
-0.041331,-0.000140253
0.0139924,0.00117703
0.049693,0.00281657
0.102333,0.00929854
0.181271,0.00586307
0.288018,-8.55e-05
0.395272,0.00124217
0.320954,0.00355344
0.031615,0.0019434
-0.283047,-0.00442042
-0.339173,-0.0151262
-0.326838,-0.0294024
-0.302636,-0.0266497
-0.216364,0.00448667
-0.101397,0.00484097
-0.0487028,-0.00543985
-0.0417941,-0.000223224
-0.0237684,0.00520667
-0.000689509,0.00570387
0.0229921,0.00911677
0.0269469,0.0113247
0.0274765,0.00393925
0.0545052,0.00353978
0.0810437,0.0181478
0.122502,0.0148949
0.192558,0.0125917
0.246093,0.00947439
0.195966,0.00739333
0.0511197,0.00340856
-0.111753,0.00585175
