Comp Ch 3,Comp Ch 4
0.011149,-0.000258582
0.0891886,0.0206215
0.212775,0.00236169
0.293954,-0.0151615
0.207843,-0.00663904
0.0505156,0.015559
-0.145527,0.0280527
-0.227295,0.0219132
-0.0561375,0.0123446
0.179637,-0.00718718
0.35162,-0.0226435
0.545175,-0.037132
0.545055,-0.0323115
0.383113,-0.0115668
-0.109734,0.0198825
-0.706536,0.0532499
-0.691518,0.061046
-0.318128,0.0550534
-0.13751,0.0373224
-0.079057,0.00263315
-0.0621178,-0.0413131
-0.0289554,-0.0599243
0.0703587,-0.0465361
0.148403,-0.0164081
0.0966684,-0.00277511
-0.076747,-0.000106172
-0.16027,0.00946128
-0.047735,0.0141522
0.0196365,-0.0272443
0.105387,-0.0210917
0.174734,0.016218
-0.0127514,-0.0104316
-0.0507062,0.0129264
0.118703,0.0404937
0.106993,0.000292536
0.0177295,-0.0805521
-0.0527899,-0.153568
0.0157141,-0.152863
0.0959542,-0.067054
0.0861843,-0.0231911
-0.0283287,0.0096469
-0.174737,0.0319256
-0.157255,0.0482349
-0.0519432,0.0569125
-0.00703729,0.06322
-0.0289162,0.0633813
0.0063901,0.0646172
0.075849,0.0661105
0.183841,0.0756616
0.256068,0.0763134
0.272457,0.0497921
0.281455,0.0253962
0.0380712,0.0262431
-0.294861,0.0206272
-0.31555,0.0130068
-0.190153,0.00974301
-0.113312,-0.0109877
-0.0361488,-0.0404794
0.107142,-0.0455931
0.182806,-0.0383906
0.0779207,-0.0327135
-0.115428,-0.0272742
-0.150345,-0.0134181
0.0364711,0.0243904
0.206254,0.036114
0.14978,0.00330728
-0.130084,-0.0164866
-0.346057,-0.0400842
-0.26803,-0.0525302
-0.0791327,-0.0440123
-0.00183629,-0.056619
-0.0110592,-0.0535094
-0.0197011,-0.00185754
0.00775999,0.0210985
-0.0103814,0.0208248
0.0171544,0.0218559
0.25256,0.0102673
0.501286,-0.0152577
0.433414,-0.0317096
0.0288938,-0.00889366
-0.440203,0.0380096
-0.522979,0.0578689
-0.188885,0.0706163
0.135449,0.0714643
0.319512,0.0807337
0.283757,0.0593458
0.123005,0.00652705
0.0335978,-0.0200571
-0.110202,-0.0285336
-0.20452,-0.0277036
-0.232479,-0.0285545
-0.0315074,-0.0394992
0.120953,-0.0470644
0.130209,-0.0291205
0.0740571,-0.014672
-0.279719,0.00919187
-0.381658,0.0179353
-0.144824,-0.00317783
0.157429,0.005807
0.305845,0.0210584
0.225067,0.0293353
0.0842586,0.0229742
-0.164605,0.00386202
-0.344674,-0.00933054
-0.268877,-0.00551715
-0.213812,0.00123653
-0.0226382,-0.0216276
0.307871,-0.0246155
0.375137,-0.0166366
0.277795,-0.022223
-0.0361567,-0.0293696
-0.33337,-0.0324186
-0.0690132,-0.0199614
0.118496,-0.00570527
0.0736509,0.00601142
0.00808564,0.028682
0.0677891,0.0291134
0.168887,0.0168972
0.188685,0.0134168
0.16935,0.0172176
0.142481,0.0149578
0.227524,0.0120803
0.102629,0.0112349
-0.261581,0.00630297
-0.381807,-0.00388747
-0.258201,-0.0264186
-0.117178,-0.0493188
-0.165209,-0.0420582
-0.394307,-0.0169059
-0.341625,-0.0104951
-0.185433,-0.043086
-0.0296957,-0.0267201
0.136926,0.0358456
0.294003,0.0501919
0.368126,0.0354964
0.386523,0.0131627
0.180655,-0.011157
-0.0955403,-0.00262199
-0.275581,0.0192357
-0.0815419,0.0101324
0.33577,0.000133811
0.583214,0.000403526
0.456261,0.00863309
-0.0265145,0.0220274
-0.693871,0.0216196
-0.537719,0.00278688
-0.159385,-0.025459
-0.0233201,-0.0272801
0.117712,-0.000506926
0.222529,-0.00260702
0.135706,-0.03318
-0.105759,-0.0175682
-0.260681,0.00939494
-0.143326,0.00682152
0.0063585,-0.0052407
-0.0252818,-0.00316727
0.027959,0.0154216
0.356019,-0.0185957
0.526474,-0.0421881
0.303599,0.00620639
-0.0344537,0.0159563
-0.346576,-0.00461751
-0.455343,-0.0153026
-0.303727,-0.0300649
-0.115505,-0.0386879
0.0820661,-0.0161959
0.356209,0.014176
0.350075,0.0138643
0.0768574,0.0344608
-0.247963,0.0607727
-0.473026,0.0648869
-0.331268,0.0276928
-0.0536756,-0.0116247
0.0911246,-0.006547
0.171748,-0.00319804
0.260632,-0.0170779
0.299789,-0.0247262
0.17611,-0.0284535
-0.0633993,-0.0126486
-0.171619,0.00194739
-0.128976,-0.000824076
-0.0864678,0.0197381
-0.00995818,0.0571221
0.0339533,0.0175348
-0.0431406,-0.02724
-0.0588234,0.0106642
0.0728254,0.000549985
0.279798,-0.0502243
0.239581,-0.0320095
0.0594612,0.00117312
-0.0960236,0.0148216
0.0550981,0.0244598
0.388713,-0.00462715
0.182285,-0.0102979
-0.507748,0.00570015
-0.618474,0.00424419
-0.207822,0.00780909
-0.00578355,0.0158786
-0.0360052,0.0387202
-0.125097,0.0403989
-0.06296,0.0169981
0.0143868,0.0118482
-0.0136587,0.010205
0.0221236,-0.0362377
0.0717321,-0.035209
0.0797453,-0.0335931
-0.0226763,-0.0255105
-0.0934964,0.00345806
0.0659872,-0.000456962
0.277064,-0.0108123
0.260657,-0.0163342
0.157109,-0.00612112
0.0139516,-8.23e-05
0.00306609,0.00903618
0.164262,0.0183522
0.161824,0.019593
-0.0869268,0.02226
-0.332606,0.0300989
-0.286439,0.0321563
-0.111768,0.0238133
-0.0127594,0.00297846
0.0296999,-0.0112018
-0.0660844,-0.00385549
-0.243311,0.00532256
-0.208338,0.0190183
-0.105238,0.0245838
-0.0105263,0.0130264
0.221779,0.00755666
0.403817,-0.0296287
0.48018,-0.0751837
0.432253,-0.0535815
0.411164,-0.0109119
0.314,-0.00860963
-0.0841716,-0.0131151
-0.303146,-0.0301814
-0.419117,-0.0401736
-0.45237,-0.0344128
-0.435451,-0.00751112
-0.246242,0.00992287
-0.035083,0.00970719
0.0654392,-0.0044817
0.207068,-0.0139923
0.384111,-0.00936015
-0.0833008,0.00792474
-0.221184,0.0200568
-0.010791,0.0207647
0.208405,0.0226213
0.115891,0.033194
-0.0530264,0.0396094
-0.163175,0.0276814
-0.155631,0.0128857
0.0188694,0.0135464
0.0375371,0.0174643
-0.0166812,0.0144867
-0.091732,0.00570786
-0.0286207,-0.0167367
0.0127298,-0.0292453
-0.111309,-0.0219212
-0.0947917,-0.0152143
-0.000824458,-0.0162207
0.0698022,-0.033909
0.0601492,-0.0354399
-0.0626337,-0.0167956
-0.0992219,0.0108189
-0.0639785,0.0266811
0.0984308,0.0332364
0.380398,0.0245007
0.494944,0.00732828
0.342455,0.00264913
-0.0049468,0.000656467
-0.380041,-0.00346285
-0.216082,-0.0123897
0.121637,-0.0153464
0.257217,-0.0151627
0.216088,-0.0108455
0.0415703,-0.00233105
-0.108208,0.000521443
-0.0576173,-0.00852578
-0.068908,-0.0018649
-0.248764,0.0126651
-0.360151,0.0241175
-0.154675,0.0191484
0.0985704,0.00441975
0.0986795,0.011724
-0.101447,0.00451993
-0.182889,-0.00347401
-0.154127,-0.00383158
-0.0545383,0.00793978
0.0690905,0.0176138
0.186852,-0.0037823
0.210575,-0.0184418
0.131806,-0.0096184
0.0681491,0.00393742
-0.0941595,-0.00460727
-0.275343,-0.0129077
-0.148488,-0.00562425
0.0396549,0.00401601
0.17143,0.00425114
0.267688,0.000722939
0.276554,0.00663282
0.339022,0.0087542
0.346042,0.0136106
0.206942,0.0122075
-0.134295,0.0078822
-0.539469,0.0188465
-0.465442,0.0106973
-0.149046,-0.00700676
0.00492319,-0.0152515
0.0119465,-0.0144639
0.0315688,-0.020547
-0.0883898,-0.0130094
-0.186669,0.00496625
-0.173843,-0.0120428
-0.21166,-0.0432781
-0.157795,-0.0210945
-0.0629108,-0.00993567
0.125933,-0.000318926
0.242193,0.00488258
0.191444,0.0128437
0.0929065,0.00282921
0.0926374,-0.00410122
0.0752496,0.00237145
-0.0699835,-0.00981867
-0.0478179,-0.0162571
-0.0213344,0.0201988
-0.0168867,0.0336796
0.00337804,0.0123551
0.0256309,-0.00536307
0.0114869,-0.00422628
-0.0109181,0.00464599
-0.0144024,0.00629333
-0.00435554,0.00185713
0.0282625,0.0047234
0.0804875,0.00739148
0.0814789,0.00981713
0.0316523,0.0069653
-0.0287526,-0.00420959
0.000874908,-0.00249539
0.145118,-0.00546702
0.207721,-0.0014689
0.278408,0.00260656
0.433305,0.000869628
0.387549,-0.0113915
0.0484528,-0.0221146
-0.33496,-0.00657727
-0.445406,0.014635
-0.353048,0.0122547
-0.176829,0.0120575
-0.113999,-0.00217092
-0.136872,-0.0111795
-0.0406058,0.00386163
-0.100808,0.00665292
-0.183615,0.000592495
-0.253514,2.61e-06
-0.180937,0.00542203
0.0455458,-0.00123148
0.155031,-0.0133232
0.0959142,0.00150643
-0.0669336,0.0170585
-0.118288,0.00898673
0.051944,-0.0150482
0.117223,-0.0200781
0.040754,-0.0065707
-0.00229365,-0.00175268
0.0647148,-0.00149599
0.396164,0.00549396
0.743917,0.00407345
0.604582,0.00122745
0.161479,0.000151491
-0.349858,-6.21e-06
-0.364389,-0.00479768
0.133246,-0.0058622
0.386301,-0.00641327
-0.0312244,-0.00705319
-0.697684,0.0216113
-0.652843,0.0326627
-0.377135,-0.00169732
-0.232855,-0.0145885
-0.154761,-0.0156105
-0.0241354,-0.013429
0.0731839,-0.00590046
0.0376828,0.00697568
-0.0226425,0.0191639
0.000536112,0.0156825
0.0561285,0.00518875
0.0833865,0.000787232
0.0860047,-0.000365428
0.0712798,0.0031848
0.0787262,0.00378111
0.0858386,0.000171478
0.0890021,0.00281683
0.0802047,0.00708316
0.0434179,0.00638795
0.0197458,-0.00340813
0.00903874,-0.0117761
0.00768329,-0.0122724
0.0131146,-0.00642173
0.0342056,0.00569483
0.143177,0.0123634
0.334397,0.0136037
0.388127,0.0150505
0.251408,0.0256946
0.00207268,0.0199169
-0.0851028,-0.00242632
0.00779199,-0.0357963
-0.012795,-0.052646
-0.240479,-0.0435673
-0.21767,-0.0182878
-0.0771601,-0.000479004
0.00634918,-0.000845417
-0.124945,-0.00686842
-0.445786,0.00768293
-0.418765,0.0186753
-0.200227,0.0170393
-0.0331894,0.0248566
0.0792237,0.0422177
0.136985,0.0284283
0.228913,-0.00718413
0.283442,-0.018655
0.321685,-0.011063
0.153149,-0.00284691
-0.188431,-0.0246426
-0.238971,-0.025224
-0.244743,-0.00893551
-0.172463,-0.00799179
-0.0494199,-0.00809216
-0.00895067,-0.0071088
0.0301709,-0.00794771
0.0472521,-0.00411041
0.0446811,0.00275002
0.0194381,0.00664142
-0.0013776,0.0121085
-0.0238461,0.00774915
-0.00249418,-0.00690462
0.0349354,-0.00623122
0.0470329,-0.00876734
0.0511081,-0.0151204
0.0899672,-0.0163843
0.230458,-0.0168509
0.28817,-0.00358643
0.142605,0.0233219
-0.115719,0.0203542
-0.089416,0.0131735
0.0966778,0.00842083
0.268567,0.0202492
0.328166,0.047429
0.101555,0.0298491
-0.222416,-0.00142464
-0.389472,0.00189279
-0.382368,0.0090379
-0.282431,0.00454867
-0.161588,-0.00143838
-0.039518,-0.0146713
0.0931176,-0.0166961
0.155374,-0.016346
-0.0371803,-0.0221967
-0.203307,-0.0196263
-0.102608,-0.00925565
0.0437567,-0.0118089
0.114097,-0.00840515
0.0976963,-0.0135437
0.0559747,-0.00421685
0.171012,0.0102962
0.274695,0.00868782
0.0297407,0.0106342
-0.281646,0.0200348
-0.344394,0.0343328
-0.232297,0.0257812
-0.0913308,0.00205948
0.0604132,-0.0115396
0.171158,-0.00718028
0.142778,-0.00110086
0.0360113,0.00451886
0.0720282,0.00930242
0.222868,0.00295283
0.329017,-0.00479329
0.190121,-0.0141024
-0.160806,-0.0210153
-0.24274,-0.0148328
-0.0576401,-0.00215648
-0.0130153,0.0154287
-0.0583837,0.0227539
-0.232387,0.0144949
-0.312843,0.00232179
-0.181579,-0.00210524
-0.0229548,-0.0112777
0.10495,-0.022735
0.267724,-0.0213985
0.459502,-0.00127289
0.464677,-0.00249778
0.306959,-0.0148985
0.192301,0.0213698
-0.0955461,0.00457733
-0.271771,-0.0202762
-0.103427,-0.00467769
0.14689,0.0111305
0.0789094,0.0160747
-0.151167,0.0136059
-0.482889,-0.000149157
-0.381554,-0.00690852
-0.0861986,-0.00414158
-0.056428,0.00145796
-0.118661,0.00587211
-0.220567,-0.00353541
-0.207436,-0.00870184
-0.0726043,-0.00465868
-0.0127892,-0.00573415
-0.00709746,-0.00561063
0.0333893,-0.00212672
0.0998556,0.00220975
0.131254,0.00140949
0.124173,-0.00388422
0.106438,-0.00698004
0.100164,-0.00510884
0.109204,-0.000398461
0.111031,0.0096923
0.0901407,0.015005
0.0376544,0.0100319
0.00166263,0.00595764
0.0362516,0.0012267
0.115093,-0.00370727
0.154317,-0.00472276
0.064052,-0.00298373
-0.00506541,-0.00297219
0.133369,0.00433917
0.153723,0.0153454
0.0770682,0.0117951
-0.133125,-0.00217813
-0.384674,-0.00350264
-0.156737,-0.00263865
0.115909,-0.00225877
0.157303,0.00174122
0.00669764,0.00616366
-0.160446,0.0100618
-0.0575145,-0.00222615
-0.0461034,-0.0177184
-0.0679027,-0.013736
0.040711,0.00661065
0.117956,0.0275432
0.14031,0.0329258
0.0203779,0.0154637
-0.197985,-0.0114881
-0.199985,-0.0258011
-0.16691,-0.00447352
-0.134385,0.00312455
0.00323008,-0.00958708
0.0970691,-0.00490646
0.0870655,-0.00674572
-0.0560384,0.00195838
-0.0703469,0.0113702
0.096628,0.00598236
0.113013,0.000709455
0.0155415,-0.00453287
-0.098321,-0.0120152
-0.159056,-0.0101403
-0.0850492,-0.00262458
-0.0448006,0.00015973
-0.0459,-0.00398358
-0.0119665,-0.000478297
0.0468589,-0.00119981
0.078936,-0.0185809
0.0920173,-0.013652
0.111512,-0.00158445
0.161263,0.000333575
0.188234,-0.00133426
0.166647,-0.0166303
0.066025,-0.0162215
-0.082049,-0.0178552
-0.115215,-0.0210247
-0.073233,-0.00599609
-0.0622629,0.00370073
0.0417641,0.00880232
0.120813,-0.0018754
0.157874,-0.0082336
0.28727,-0.00944429
0.194979,-0.00844092
-0.134092,0.0051115
-0.32387,0.0126359
-0.330821,0.0199421
-0.292757,0.0347325
-0.0818816,0.0606712
0.126222,0.0582012
-0.0150901,0.0215151
-0.102389,-0.00235739
0.0176408,-0.0216145
0.137359,-0.0253446
0.177018,-0.0187485
0.139685,-0.0206785
0.00886385,-0.0328853
-0.103229,-0.0141862
-0.155217,-0.0143825
-0.116378,0.00292225
-0.0504211,0.0105413
0.0351687,-0.00808626
0.056466,-0.0053056
-0.0804235,0.00839908
-0.123339,0.0102102
-0.0490252,0.00983047
0.0484178,0.0136214
0.208487,0.0124905
0.24737,0.0071498
0.143323,-0.00746969
-0.0600062,-0.00619956
-0.217193,0.0188794
-0.19049,0.0411511
-0.103829,0.0484198
-0.0792097,0.0212418
-0.0604917,0.00374157
0.0919758,-0.00236602
0.269083,-0.00994288
0.32422,-0.00813834
0.277103,-0.00564548
0.14941,0.000799329
0.107923,-0.00571294
-0.00467938,0.00410698
-0.166028,0.0297991
-0.0984706,0.026793
-0.034666,0.00466878
-0.175614,-0.0156228
-0.329721,-0.0339588
-0.275992,-0.0364536
-0.13635,-0.0268519
-0.0249643,-0.0150977
0.113037,-0.0175827
0.150268,-0.0256821
0.0501394,-0.0196764
-0.0466234,-0.00919065
-0.0800478,-0.0131677
-0.0850152,-0.00847032
-0.0922061,0.00332219
-0.0471736,0.0109228
0.0129289,0.00110968
0.0841307,0.0181257
0.118425,0.0203425
0.149984,-0.00182414
0.285627,-0.0116964
0.458076,-0.0178451
0.38527,-0.0149465
0.127397,-0.0172154
-0.338106,-0.0375741
-0.590336,-0.0254857
-0.358256,-0.00607379
-0.0468699,0.0145121
0.128347,0.0181199
0.17989,0.0153309
0.106241,0.0224989
0.0320221,0.0272802
-0.0583072,0.0119338
-0.176844,-0.00104655
-0.154884,0.00261963
-0.0732911,0.0168211
0.00554268,0.0191455
0.0416781,0.0138277
-0.0186635,0.0135202
-0.0349442,0.015878
-0.0644317,0.0204625
-0.1079,0.0238182
-0.0866103,0.025193
-0.0504831,0.0252864
-0.00165272,0.0167792
0.187972,-0.000417881
0.517109,-0.00854412
0.538444,-0.00738454
0.321538,-0.0101553
-0.154315,-0.0170684
-0.490521,-0.0103157
-0.212884,-0.00375615
0.0620392,-0.00346571
0.142363,-0.0123233
-0.00289575,-0.0250829
-0.173409,-0.0215475
-0.212503,-0.0185492
-0.103035,-0.034475
-0.0173296,-0.0233621
0.0279873,0.00094649
0.0527882,0.0192965
0.0316956,0.0147071
-0.0937517,0.00653521
-0.0979321,0.00840093
0.0875061,0.0105052
0.227531,0.00057333
0.246408,-0.0111756
0.00873687,-0.00793977
-0.204999,-0.00709381
-0.0983575,-0.0126284
-0.0110586,-0.0102592
0.0112496,-0.0163684
0.0260698,-0.0168728
-0.0320714,-0.00637161
-0.120243,0.00399407
-0.234295,0.0129075
-0.217012,0.00540948
-0.0851177,-0.00363817
0.056587,0.00108949
0.126661,-0.00456785
0.164902,-0.020431
0.144881,-0.023864
0.0995869,-0.020759
0.0600912,-0.0137258
-0.0133977,-0.00206747
0.00278708,0.0121662
0.0186537,0.0141971
-0.00476462,0.0129007
0.0701989,0.0106152
0.102141,0.0104556
0.0615922,0.0197533
-0.0714592,0.0237571
-0.215457,0.0141032
-0.151344,0.0136127
-0.00650362,-0.00030871
0.0751629,-0.00904246
0.0183955,-0.00766926
-0.101618,0.00188807
-0.0985911,0.00628651
-0.0696084,0.0083002
-0.0315786,0.0142528
0.147693,0.0143744
0.419883,0.0261737
0.563322,-0.0029299
0.520113,-0.0808758
0.133341,-0.0672107
-0.0602483,0.0179066
0.151552,0.0291493
0.0829088,0.0168617
-0.257027,0.0260615
-0.669313,0.0487605
-0.772878,0.0649996
-0.354368,0.0304603
-0.143516,-0.0191208
-0.183366,-0.042834
-0.105299,-0.0360715
-0.029695,-0.0192674
0.017741,-0.00423918
-0.000223852,-0.00772277
-0.0544998,-0.00798458
0.000753779,-0.0119689
0.231931,-0.0150684
0.438424,-0.0195574
0.38291,-0.0243115
0.133921,-0.0161777
-0.0148096,-0.00469176
-0.0465269,-0.000114695
0.0450307,-0.00380466
0.102047,-0.00800335
0.0619339,-0.0174855
0.0435279,0.0102746
-0.122958,0.0264516
-0.256583,0.0293083
-0.0584579,0.0393898
0.0753437,0.0372779
0.0749028,0.0126808
-0.0175878,0.0344458
-0.189555,0.0638702
-0.185321,0.0499388
-0.101513,0.0198581
-0.0728665,-0.0038357
-0.0410253,0.00495785
0.0137732,0.0201595
0.0753554,0.0184386
0.149686,-0.00476429
0.242977,-0.0142882
0.175829,-0.0180509
0.0602733,-0.0456715
-0.0225074,-0.0652773
-0.0661514,-0.0468668
0.063489,-0.00092065
0.101717,0.0204946
0.096313,0.0215153
0.0212594,-0.00562653
-0.186602,-0.0616237
-0.268923,-0.019484
-0.110512,-0.0471258
0.0303362,-0.00623433
0.129669,0.0142858
0.239132,-0.00691783
0.290057,-0.000271286
0.467357,-0.0044916
0.537748,-0.0141026
0.369299,-0.00627444
-0.158401,-0.0062065
-0.8359,-0.00835375
-0.861926,-0.00682695
-0.512824,-0.00712862
-0.242249,0.00706327
-0.177748,0.000666456
-0.086119,-0.0268318
0.0298237,-0.00852531
-0.00506317,0.0180319
-0.030959,0.0132708
-0.0080782,0.0267507
0.0738579,0.0413997
0.193013,0.0372327
0.196684,0.0276119
0.127431,-0.0121892
0.20478,-0.0292834
0.311116,-0.0189077
0.330477,-0.0232049
0.171351,-0.0143245
-0.164243,0.0101068
-0.346957,0.0232335
-0.196566,0.0356999
0.143054,0.0360193
0.310894,0.00805041
0.248433,-0.0218761
-0.20348,-0.023777
-0.571771,-0.0191554
-0.350089,-0.00287759
-0.138576,0.0187014
0.0458979,0.0558531
0.182916,0.0485522
0.152981,-0.00399206
0.0872058,-0.0576515
-0.0749685,-0.05909
-0.0454181,-0.0228006
0.126002,0.0107262
0.161157,0.00263698
0.146688,-0.0518883
0.170128,-0.0468769
0.252751,-0.00529385
0.30107,-0.0018574
0.273699,-0.0155544
-0.138066,0.0206987
-0.49555,0.0832161
-0.343398,0.104892
-0.307443,0.0793341
-0.106506,0.0139542
0.333194,-0.049985
0.440963,-0.0608836
0.084941,-0.067484
-0.183435,-0.0281629
-0.310969,-0.0108787
-0.243297,-0.0107319
-0.020706,-0.00806155
-0.0474709,0.00867777
0.0799595,0.0222674
0.291668,0.00459593
0.317975,0.0060246
0.0290415,0.00782525
-0.519399,0.0214072
-0.432521,0.0165066
-0.258672,-0.00374832
-0.206434,0.023999
-0.0692421,0.0523532
0.143685,0.00148715
0.282299,-0.0290379
0.297576,-0.0190328
0.200176,-0.0148132
-0.0245971,-0.0210617
-0.123797,0.0164931
-0.103923,0.0560885
-0.0754018,0.0244912
0.00332355,-0.05599
0.0930652,-0.0481412
0.146102,0.0148212
0.129063,0.0190284
0.0795029,-0.00903993
0.135716,-0.00871519
0.0784193,-0.00902964
-0.110219,-0.000943807
-0.140278,0.0199723
-0.115024,0.0147416
-0.0331854,0.00397284
0.154954,0.000943527
0.360217,-9.43e-05
0.448445,-0.00339416
0.369977,0.00345062
-0.0100647,-0.003413
-0.431265,-0.0160085
-0.645302,-0.0701571
-0.535712,-0.0420455
-0.223858,0.0375977
0.0542867,0.0610946
0.23337,0.0547999
0.180845,0.0387689
0.0207404,0.00869294
0.0606808,0.0108428
0.0934297,-0.00141201
-0.031084,-0.051983
-0.277591,-0.0411956
-0.459071,-0.00475557
-0.299544,-0.0144706
0.185899,-0.0179338
0.84385,-0.0397547
1.21705,-0.0477288
1.08042,0.0150632
0.114996,0.0550969
-0.784881,0.0282051
-0.82913,-0.036774
-0.773112,-0.0181636
-0.471346,0.0151859
-0.220825,0.013827
-0.0488014,0.0266878
-0.00934238,0.0226925
-0.0936936,0.00749357
-0.00711814,0.0131389
0.220504,-0.0059871
0.276614,0.000774595
0.257073,0.049015
0.140377,0.0729302
-0.143452,0.0361949
-0.159021,-0.015889
0.0554147,-0.0528863
0.0399524,-0.0377146
-0.0677248,-0.0204771
-0.174417,-0.0115677
0.000498091,-0.00482274
0.170133,-0.0139943
0.158025,0.0121327
0.0793699,0.0208462
0.181467,0.0152663
0.209248,-0.0583988
0.237026,-0.0833078
0.257664,0.0180891
0.127942,0.0677077
0.0294832,0.0292473
-0.422941,-0.0262844
-0.700153,-0.000705784
-0.434061,0.00567817
-0.248807,-0.0825546
-0.0525776,-0.119015
0.139331,-0.122486
-0.0118558,-0.133479
-0.214604,-0.101633
-0.0072621,-0.0316427
0.249197,0.0187231
0.255689,0.0368713
0.297835,0.0275177
0.360888,-0.00442087
0.299033,-0.00447982
0.180689,0.0565564
-0.0483764,0.115411
0.152515,0.131398
0.0762169,0.100519
-0.257635,0.119345
-0.626969,0.160732
-0.507078,0.0898433
0.10229,0.0343858
0.415129,0.00274421
0.298791,-0.0173174
-0.119533,-0.0608572
-0.256156,-0.037544
-0.212609,-0.0273851
-0.0598775,-0.104873
0.172754,-0.109681
0.221045,-0.0375618
-0.020253,-0.00166799
-0.187206,0.00533633
-0.16277,0.00748368
-0.147636,0.0277127
-0.105169,0.0288532
-0.0188281,-0.0090907
0.0575877,-0.0371063
0.193612,0.0271322
0.211072,0.0253513
0.0244658,0.0335425
0.141918,0.0619338
0.212525,0.0976419
0.130547,0.0241493
-0.0875253,-0.0915769
-0.286415,-0.0774792
-0.191113,0.0202229
0.153706,0.0627581
0.287359,0.0634618
0.187002,0.0678071
0.0327878,0.071803
-0.0210344,0.082379
-0.0270256,0.0549646
-0.0543794,-0.00651544
0.0838346,-0.0857798
0.400918,-0.0806084
0.443886,-0.00332512
0.0468544,-0.0118012
-0.625165,-0.0112483
-0.900701,-0.047591
-0.612388,-0.0972997
0.143324,-0.101975
0.523102,-0.0428222
0.416597,0.0188722
-0.0225478,-0.0570335
-0.67742,-0.0338611
-0.658157,0.010609
-0.228548,-0.0337948
-0.0788274,-0.02374
-0.0649548,-0.0098196
-0.0142008,-0.0183291
0.127435,-0.0279934
0.189291,-0.0204996
0.161402,0.0112982
0.180866,0.0233824
0.322802,0.0255369
0.513799,-0.0166155
0.522982,-0.0427191
0.318056,0.00402326
-0.0612787,0.0389654
-0.371028,0.0125178
-0.203066,0.0520202
-0.168016,0.0592642
-0.268123,0.0389677
-0.0845845,0.0450112
0.141824,0.000304845
0.344345,-0.0323839
0.179899,-0.0231734
0.00546557,-0.0804527
-0.0376809,-0.0681547
0.0208947,-0.0447214
-0.0182817,-0.0216999
-0.00498877,0.00265942
0.234899,-0.0454103
0.295445,-0.0770819
0.000918627,-0.0201674
-0.427633,0.00598812
-0.439912,0.00948794
-0.398487,0.0287593
-0.389313,0.0649966
-0.246187,0.10274
0.0478173,0.0995628
0.398863,0.0742581
0.585288,0.0608185
0.359868,0.0447036
-0.159502,0.0386319
-0.432749,0.0304488
-0.333745,0.0156946
-0.0655988,-0.0550005
-0.0463388,-0.051127
-0.174464,0.0382874
-0.156474,0.0543622
-0.0262475,0.0311258
0.379452,-0.0118846
1.37992,-0.0467014
1.57009,-0.029405
0.84899,-0.0664105
-0.254737,-0.0270436
-1.3205,0.0444082
-1.19113,0.0399811
-0.845848,0.00388059
-0.585461,0.00753192
-0.0431515,0.0390934
0.179373,0.0244973
-0.0334441,0.0112846
-0.0724153,0.0461419
0.00392591,0.0254549
0.121192,-0.0292677
0.26904,-0.0801825
0.319228,-0.0731588
-0.0405871,-0.0634189
-0.121866,0.0131725
0.199987,0.0417448
0.425448,-0.00722966
0.170937,-0.0562528
-0.428917,-0.0535713
-0.485,-0.0588197
-0.0943822,-0.0883138
0.348409,-0.0825125
0.530176,-0.0703005
0.120544,-0.0187344
-0.338112,0.0946784
-0.310418,0.0931444
-0.0168952,0.00792494
0.186036,-0.0042865
0.230113,-0.01893
0.217363,0.0151157
0.0515044,0.0733735
0.16997,0.0833326
0.874369,-0.0171424
0.522579,-0.0737761
-0.378991,-0.115863
-0.871186,-0.0947754
-1.08504,0.0281415
-0.125574,0.0619128
0.582321,0.00607888
0.373349,0.00343288
-0.202169,0.0205595
-0.641435,0.000710928
-0.285259,0.0184055
0.131397,0.0788206
0.0871688,0.103465
0.0372167,0.0963449
-0.102373,0.0121938
-0.30417,-0.0891218
-0.130478,-0.0814102
-0.0347803,-0.0653949
0.0586827,-0.0224903
0.0665759,0.0311563
-0.135683,0.0307015
0.106679,0.0183688
0.399757,0.0179333
0.816792,0.021428
1.00466,0.026857
0.655865,-0.00265371
-0.00527529,-0.00714174
-0.356891,0.0192647
-0.168513,0.0183048
-0.115209,0.0337921
-0.521413,0.00338527
-0.776786,0.00234432
-0.618454,-0.0253528
-0.620793,-0.04478
-0.432366,0.0049085
0.189976,-0.0122884
0.676763,-0.0267894
0.512073,-0.00464063
0.157647,0.0666871
-0.0140732,0.11352
-0.0808369,0.0670846
-0.080417,-0.000859264
-0.0143951,-0.0410332
-0.0125098,-0.0622652
-0.0657906,-0.0457872
-0.0986183,-0.0393026
-0.0501003,-0.0205785
0.119332,-0.0143233
0.178213,0.0146893
0.109639,0.00319104
0.0213857,-0.0547687
-0.0252951,-0.0249938
0.0439586,0.00160876
0.201964,0.0117956
0.202021,0.0115766
-0.0170496,-0.0212099
-0.144743,-0.039656
-0.0973791,-0.0312611
0.0304485,0.0126796
0.122924,0.0384241
0.0498935,0.0585325
-0.123746,0.0726441
-0.147148,0.072787
0.030974,0.0485425
0.18626,0.0375513
0.0748478,0.068711
-0.081234,0.0542032
-0.2365,-0.0136151
-0.225206,-0.0253507
0.104658,-0.0182653
0.297669,-0.073454
0.133257,-0.0928952
-0.0975331,-0.0780983
-0.0599552,-0.0676148
0.0325637,-0.0879824
0.106485,-0.135211
0.132318,-0.103921
0.199615,-0.0106294
0.247148,0.034798
0.126911,0.0557361
-0.259133,0.0409866
-0.478208,0.054589
-0.0125896,0.103963
0.266131,0.0349422
0.0140003,-0.04986
-0.0184137,-0.00991965
0.129558,0.0341389
-0.0591788,0.00479104
-0.476413,-0.00985336
-0.585596,0.0651685
-0.401957,0.18454
-0.11743,0.28448
0.00167322,0.388829
0.00125523,0.241286
0.112148,0.075032
0.246785,0.0561978
0.140744,-0.204615
-0.0572658,-0.57983
-0.0366854,-0.648273
-0.033092,-0.453111
-0.0907016,-0.243889
-0.0287309,-0.105277
0.265613,0.034521
0.621662,0.104096
0.733731,0.10828
0.404787,0.126493
-0.0814111,0.167459
-0.353309,0.174127
-0.179973,0.14182
-0.065408,0.0670381
-0.259916,0.0192641
-0.380549,0.0181847
-0.290972,0.0258122
0.0382728,-0.00845398
0.422877,-0.0146711
0.488554,0.0062318
0.0263785,-0.0131504
-0.56347,0.0145688
-0.707481,0.0623587
-0.489936,0.0305333
-0.172926,0.0269076
0.0603067,0.0332087
0.196474,-0.0107595
0.270862,-0.0289788
0.275732,-0.00123182
0.219151,-0.00776435
0.137745,-0.0516764
-0.070738,-0.0118026
-0.10597,0.00868131
-0.00614982,-0.0516772
0.0635544,-0.037691
0.0789887,0.0645742
0.0314281,0.10825
-0.0412385,0.0576536
0.083629,-0.0129499
0.386151,-0.0448631
0.415753,0.0322983
0.190578,-0.00255059
-0.211607,-0.0317756
-0.400076,-0.0175733
-0.20598,-0.0612449
-0.0262099,-0.0673918
0.0287814,-0.0381909
0.0467721,0.00370965
0.191709,0.0332782
0.277957,0.0514492
0.194041,0.0860421
-0.0295654,0.14574
-0.0996907,0.133316
-0.0283473,0.006156
-0.0854438,-0.0427234
-0.26171,-0.0642961
-0.276062,-0.0941089
-0.18239,-0.0556074
-0.193614,0.00874387
-0.224977,-0.0201782
-0.0407972,-0.173366
0.159697,-0.150494
0.261427,-0.0754448
0.221818,-0.0553883
0.200911,0.0678906
0.0290278,0.128003
-0.0335259,0.0969914
0.138758,0.0224332
0.168197,-0.029124
0.229602,-0.0311245
0.0870185,0.00305368
-0.475014,0.0767882
-0.490645,0.0737402
0.0289845,0.0270914
0.222604,-0.0181218
0.155607,-0.0406862
-0.141919,-0.0526115
-0.39338,-0.0501751
-0.179875,-0.0344454
-0.00418783,-0.00183479
-0.0367592,0.0323261
-0.0119744,0.0524138
-0.0576775,0.0668872
-0.125331,0.0545975
-0.0987619,0.0357158
-0.0917611,0.0307568
-0.0544067,0.0184019
0.0232797,-0.00190235
0.143274,-0.00722822
0.158703,-0.0219311
0.16038,-0.0360127
0.193578,-0.0433703
0.382057,-0.0438081
0.513503,-0.0417821
0.507194,-0.0109999
0.266353,0.0282067
0.0904024,0.0140856
0.0213483,-0.0388148
-0.254403,-0.0775057
-0.529894,-0.0395563
-0.66341,-0.00147986
-0.445247,0.0288259
0.0465342,0.0412576
0.182602,0.024611
-0.106781,0.0185055
-0.0713114,0.00254421
0.0165284,0.02903
0.0451027,0.0159522
0.0934737,-0.00368353
-0.01099,-0.0160971
-0.136431,-0.0496772
-0.142491,-0.0170481
-0.079203,0.0695795
0.0778659,0.0696904
0.147813,0.022572
0.019477,-0.0341774
0.0265598,-0.0559643
0.146056,-0.0530462
0.360058,-0.0569449
0.421708,-0.0598372
0.227541,-0.010687
-0.173956,0.0501132
-0.57115,0.0518445
-0.398685,0.0335485
0.0331097,0.00632062
0.116965,0.00587678
0.0468912,0.0238505
0.010635,0.0159546
-0.107049,-0.0375089
-0.200963,-0.0608989
-0.149323,0.0275736
-0.095509,0.0695421
-0.0395183,0.0420604
-0.00155293,0.0306741
0.00717855,0.0035282
0.00900566,-0.0157438
0.0438806,0.00741024
0.138797,0.0156756
0.355807,0.00300107
0.526254,-0.0222662
0.563448,-0.0318713
0.372151,-0.0264083
-0.017237,-0.00688045
-0.0784216,0.0325341
-0.146754,0.0543
-0.221506,-0.0167526
-0.386656,-0.0457837
-0.492697,-0.021046
-0.213912,0.00212571
-0.0814322,0.0117024
-0.150235,0.0257706
-0.20318,0.0134925
-0.142426,-0.0210525
-0.0223086,-0.0559563
0.0414206,-0.0802163
0.0605654,-0.00564244
0.0199138,0.0424459
0.0430505,0.0371515
0.285688,0.0282745
0.397511,-0.00582359
0.274829,-0.0320688
-0.034413,0.00709094
-0.134071,0.054742
0.169982,0.063912
0.386846,0.0541459
0.248928,0.0267894
-0.131273,-0.030476
-0.230152,-0.0399824
-0.179501,-0.0391901
-0.226141,-0.0633389
-0.213594,-0.0531017
-0.237484,0.00246132
-0.231508,0.0279122
-0.0473038,-0.00387118
0.00213458,-0.0697286
-0.0772545,-0.0317144
0.0128613,0.0357514
0.129911,0.0123696
0.171847,-0.00694482
0.0525547,-0.0243834
-0.10882,-0.0165528
-0.0336013,0.0326544
0.124747,0.0618089
0.208913,0.045132
0.21012,0.00768246
0.118476,-0.0108588
0.0686885,-0.0226584
-0.111648,0.0314844
-0.118486,0.0641258
0.0535457,0.0599405
0.0282575,0.0204924
-0.0277669,-0.042351
-0.091542,-0.0707903
-0.171427,-0.070993
-0.181254,-0.0396048
-0.0921834,0.00182391
-0.00576764,0.025005
0.0239484,0.0122057
0.0274135,-0.0366058
0.023827,-0.0144131
0.0374893,0.0319612
0.0225819,0.0366943
-0.00244551,0.00308388
-0.0153288,-0.0150207
0.040161,-0.00447672
0.149777,0.0148715
0.303845,-0.0182853
0.340663,-0.0884857
0.19108,-0.011506
0.125736,0.12993
0.0576926,0.170988
-0.124736,0.107847
-0.46469,-0.00801826
-0.505871,-0.0785507
-0.281698,-0.117109
-0.120619,-0.0925531
0.00208765,-0.0542154
0.102224,-0.0360485
0.180567,-0.00910326
0.276247,0.0145859
0.296304,0.0334216
0.273841,-0.0177144
-0.0655758,-0.0328285
-0.342972,0.0121889
-0.415125,0.0377666
-0.354538,0.0196061
-0.00148345,-0.0246236
0.185503,-0.0502981
0.141073,-0.0185212
0.0150662,0.0155127
-0.089019,0.0508504
-0.00996216,0.0646956
0.207136,0.0499606
0.349011,0.0304482
0.325579,0.0236647
-0.0371876,-0.000872214
-0.383042,-0.0176002
-0.349089,0.0121917
-0.198297,0.0276606
-0.00988596,0.00838971
0.30247,-0.000978103
0.539538,-0.0312053
0.441687,-0.070628
0.11064,-0.049735
-0.317101,-0.0237089
-0.383223,-0.00736732
-0.174684,0.0116263
-0.0368878,0.000926537
-0.184515,-0.00621857
-0.381046,0.0551556
-0.280867,0.0732116
0.0733014,0.0531252
0.24107,0.0196919
0.1482,-0.0278259
-0.0200985,-0.0337837
-0.0407327,-0.0247268
0.0463204,-0.0388391
0.0542626,-0.0339606
0.00384768,-0.00936829
-0.0671134,-0.0101548
-0.0429639,-0.0463798
0.081884,-0.0373737
0.119331,0.0090232
0.114449,0.0071038
0.0909245,0.00734431
0.0454101,0.0297927
0.0211069,0.0158537
0.0746797,0.0333501
0.164844,0.016016
0.270513,-0.0128022
0.34177,-0.00815051
0.171498,-0.0249103
-0.215831,-0.000997379
-0.50391,0.016619
-0.390376,0.0300341
-0.265202,0.0397111
-0.250067,0.0285415
-0.211843,-0.00612499
-0.0147969,-0.0158102
0.144073,0.00687222
0.246388,0.00639354
0.297264,-0.030467
0.240382,-0.0217024
0.420591,0.00387253
0.474572,-0.00432554
0.182674,-0.0278501
-0.195913,-0.030801
-0.497405,-0.025029
-0.408409,-0.00480193
-0.281704,0.00888334
-0.329576,0.0332396
-0.282745,0.0513625
-0.120677,0.0512756
0.0667111,0.016807
0.197814,-0.0417667
0.291259,-0.081917
0.223456,-0.0661261
-0.0328179,-0.00795477
0.0172517,0.0690812
0.124876,0.0782493
0.0994749,0.0384837
-0.0753392,-0.00555772
-0.246137,-0.0314244
-0.124021,-0.0255348
0.0766605,-0.0491176
0.022053,-0.10321
-0.107962,-0.0669287
-0.102482,0.0407868
0.0504789,0.0772878
0.357955,0.0499284
0.523948,0.0257386
0.302271,0.00781488
0.0505603,-0.0188839
-0.0815587,-0.0301671
-0.0269182,0.0110919
-0.0541372,0.0331458
-0.208069,0.0391384
-0.202622,0.0642168
-0.114175,0.0847577
-0.283175,0.0433085
-0.403008,-0.0199018
-0.213192,-0.0326385
-0.0391409,-0.0929365
0.0446736,-0.11974
0.0496493,-0.0286443
0.0155293,0.0401323
0.0121029,0.0229687
0.0226809,-0.015009
0.0439347,-0.0234537
0.0637664,-0.0050518
0.0579927,0.0030064
0.0326091,0.00587711
0.0793857,0.0170953
0.270935,0.0352538
0.496319,0.0253551
0.48164,0.00475992
0.183152,-0.00416028
-0.21609,-0.0312237
-0.251283,-0.0449081
0.189804,0.0114289
0.463835,0.0172552
0.273768,0.0281245
-0.0737101,0.0473729
-0.42684,-0.00796554
-0.637978,-0.0643847
-0.551024,-0.0801281
-0.35072,-0.0268688
-0.217321,-6.75e-05
-0.203257,0.0156841
-0.137828,0.0360913
-0.0723358,0.026706
-0.0341113,0.0115608
0.0455702,0.0103951
0.153737,-0.0123837
0.220976,-0.0465899
0.295854,-0.017391
0.407285,0.026414
0.351629,0.0575512
0.226512,0.0688381
-0.00191033,0.083697
-0.344711,0.0654207
-0.207327,-0.00708997
0.125086,-0.123168
0.346147,-0.118194
0.332135,-0.0343089
-0.0982293,0.0111002
-0.433066,0.0226188
-0.381529,-0.00552571
-0.299265,0.0215013
-0.132904,0.10176
0.0724326,0.0763853
0.155759,-0.00152501
0.0111778,-0.020074
-0.153254,-0.0085981
-0.119211,0.0135057
0.108765,0.0149301
0.505298,-0.0198714
0.668884,-0.0539748
0.41761,-0.0523721
-0.16153,-0.0285904
-0.541723,-0.0378101
-0.470617,-0.0731259
-0.187806,-0.0543975
0.17506,-0.0136816
0.525762,-0.0333848
0.455928,0.00384925
0.0248884,0.0266537
-0.524683,0.0335544
-0.664677,0.0665215
-0.316763,0.0674894
-0.0549882,0.0457799
-0.0164522,0.0326128
-0.0488395,-0.0103137
-0.0660933,-0.0353679
0.025375,-0.0244483
0.171985,-0.0161879
0.254531,-0.00656936
0.292614,-0.00452936
0.246408,0.0207741
0.120946,0.0552078
-0.0589829,0.0669157
-0.187268,0.0494088
-0.185445,-0.0064833
-0.101934,-0.0485984
0.0027983,-0.0546427
0.0652554,-0.032223
0.0829167,-0.0173904
0.0176615,-0.00236112
-0.101309,0.0116508
-0.116598,0.0104197
0.0731215,0.000910413
0.177289,0.0127578
0.110958,0.0190299
0.0179714,-0.00601999
-0.00654922,-0.0267944
-0.0186648,-0.0542307
-0.0336732,-0.0326559
0.0800503,-0.0162416
0.160033,-0.0463055
0.217318,-0.0479361
0.176318,0.0549184
-0.026467,0.0951975
-0.269674,0.0211848
-0.436165,-0.0021685
-0.259494,-0.000142987
0.0616317,-0.000904191
0.272949,-0.0183777
0.221583,-0.00234716
0.020505,-0.0130375
-0.140788,-0.018989
-0.315215,0.0331161
-0.266107,0.0497854
-0.117745,0.0324182
-0.034953,0.0196605
-0.0080503,0.021232
-0.0306704,0.0263884
-0.00747886,0.000414003
0.120734,-0.0340519
0.236422,-0.0527625
0.276854,-0.0472855
0.322021,-0.00455727
0.262261,0.0280301
0.0239513,0.00730146
-0.202945,0.00807077
-0.287812,0.00528297
-0.250684,0.000607923
-0.0758638,0.00586516
-0.0275822,0.00101458
-0.0295241,0.0165872
0.0118632,-0.00586129
0.0388278,-0.0319629
0.0260508,-0.0429524
0.0365194,-0.0448367
0.0623355,0.00488602
0.267334,0.0368089
0.379198,0.0344695
0.180824,0.0225449
-0.228896,0.00864876
-0.486957,-0.00779519
-0.179783,-0.0153552
0.0340519,0.00947905
-0.0633776,0.0138858
-0.217613,0.00951844
0.0211032,0.00526026
0.246612,-0.0152003
0.191169,-0.00837111
0.0956922,-0.00973318
-0.00793852,-0.00133062
-0.0644382,0.0189261
0.013096,-0.00560684
0.0382218,-0.0241399
-0.0832983,-0.02137
-0.0857219,-0.0214571
-0.0992561,-0.00189834
-0.222194,0.0130316
-0.0717274,0.00175731
0.088715,-0.0119206
0.0254369,-0.00870544
-0.107017,0.00739462
-0.0557288,0.0168177
0.147291,0.00437613
0.197147,-0.0351385
0.10891,-0.0170871
-0.00438857,0.0137301
-0.0697519,0.0208657
0.0553494,0.0061321
0.295503,-0.00881061
0.265625,0.00598637
0.0010361,0.0254549
-0.134515,0.0379967
0.0383884,0.0460774
0.125983,0.0159436
-0.147237,-0.0383434
-0.273584,-0.0749345
-0.0695201,-0.0708651
0.135619,-0.00495773
0.100379,0.0219501
-0.214668,-0.0234903
-0.337136,-0.0640065
-0.199561,-0.0440914
-0.109181,0.0403799
-0.0974702,0.0613925
-0.0851991,0.0523747
-0.0180186,0.0358359
0.150286,0.0242544
0.271886,0.0139673
0.308789,0.00802523
0.223121,0.0154438
-0.0473806,0.0131325
-0.141357,0.00302344
-0.0750071,0.00158711
-0.0319768,0.0051995
-0.00825271,0.0246429
0.0201784,0.0246512
0.0637994,-0.00491649
0.0744175,-0.0162527
0.0471251,-0.0155382
-0.00652213,-0.0114684
-0.0868592,-0.0204875
-0.0908243,-0.0201105
-0.00614915,-0.0285554
0.0216603,-0.0212361
-0.0155508,0.00469373
-0.0835203,0.0203719
-0.0877935,0.0438871
0.187532,0.0865229
0.448308,0.0685769
0.270126,-0.0369489
0.0462677,-0.0916922
0.106386,-0.0748448
0.136348,-0.0304448
0.00375696,0.00185144
-0.236775,0.00400318
-0.357865,0.0175233
-0.251548,0.0198954
-0.198111,-0.0437768
-0.254409,-0.0249598
-0.232705,0.0268212
-0.130983,-0.0144773
-0.0382078,-0.0677891
0.009114,-0.0184344
0.0302533,0.0339627
0.100366,0.0344072
0.18433,0.0166155
0.142752,-0.00739279
0.119446,-0.0162778
0.207414,-0.00461677
0.12645,0.00837528
0.046045,0.0188273
-0.0150419,0.0407008
-0.0679305,0.0705722
0.0255105,0.0401799
0.122688,-0.0295341
0.112852,-0.0248691
0.0628591,0.0231682
0.21435,0.0225235
0.266977,0.000258034
0.0480019,-0.0504135
-0.267424,-0.0815203
-0.438219,-0.0472599
-0.290589,-0.0215751
-0.214093,-0.0150641
-0.274545,0.0351618
-0.179335,0.0518932
-0.0158006,0.0489437
0.0539968,0.0461407
0.036737,0.0267224
0.0188841,0.00510081
0.00642315,-0.0150126
-0.00879038,-0.029276
0.013837,-0.0255611
0.0285523,-0.0207373
-0.0057101,-0.00636336
-0.00618426,0.00115762
0.0863293,-0.0304486
0.280091,-0.0267595
0.363611,0.00755476
0.257294,0.0224375
-0.00907932,0.0345108
-0.198131,0.0361557
-0.116931,0.0392311
-0.0111135,0.0189182
0.131456,0.000613008
0.158479,0.0614051
0.0130147,-0.0449078
-0.0683604,-0.117942
0.0236518,-0.14887
0.197438,-0.0832316
0.232133,-0.0273812
-0.0111022,0.014378
-0.304921,0.0498966
-0.531404,0.075776
-0.417874,0.0433262
-0.14954,0.00497022
-0.00468878,-0.00454294
0.0429631,0.0236364
0.073677,0.0484354
0.266511,0.0471123
0.416288,0.0111861
0.462147,0.0166479
0.480764,0.017306
0.237537,-0.000296243
-0.144183,-0.0173307
-0.561913,0.00285425
-0.707285,0.017328
-0.463833,-0.0223757
-0.20999,-0.0133371
-0.108913,-0.000845918
0.000878041,-0.0042495
0.0625982,-0.0222734
0.0541351,-0.0462927
0.0660042,-0.0429488
0.1454,-0.033435
0.22601,0.00415688
0.168599,0.0216954
0.0136973,0.0194715
-0.082991,0.0208776
-0.0934907,0.0213141
0.0209735,0.0231674
0.154944,0.0109796
0.15912,0.00241933
0.180954,0.00251702
0.128039,0.00716407
-0.0946555,0.0182244
-0.25344,0.0243692
-0.129918,0.00881159
0.157239,0.000417008
0.406191,-0.001866
0.516869,-0.0512347
0.160341,-0.0692054
-0.204031,-0.0241242
-0.472641,0.0208075
-0.618203,0.0290187
-0.388461,0.0404969
-0.110312,0.0440344
0.0474363,0.0343774
0.158229,0.00868515
0.182502,-0.0308455
0.209192,-0.023368
0.100141,0.0122444
0.0595465,0.00454882
0.254353,-0.0127183
0.295743,0.00390009
0.0176611,-0.0451454
-0.285314,-0.0905114
-0.256827,-0.0355236
-0.145012,-0.0168457
-0.206286,-0.0146853
-0.156891,0.000418929
-0.0138606,0.0465972
0.204987,0.0459945
0.298199,-0.000308581
0.156373,-0.0198566
-0.155003,0.0140424
-0.262904,0.0110665
-0.0157366,-0.0109105
0.224277,-0.0420665
0.256914,-0.0268356
0.232068,-0.0337149
0.158442,0.0227384
-0.207077,0.0340373
-0.344143,-0.00474245
-0.229547,-0.0127963
-0.160796,-0.0459355
-0.101119,-0.0182323
-0.0265007,0.0568919
0.00036999,0.0569128
-0.0599131,0.0498668
-0.0774475,0.043343
-0.0499981,0.0339935
-0.0246937,0.02787
-0.00173732,0.0207058
-0.00675382,0.0159336
-0.00592616,0.00248948
0.0197583,0.00418656
0.0747835,0.00208779
0.122049,-0.00973005
0.114875,0.00127717
0.135976,-0.0105431
0.370245,-0.0337973
0.70812,-0.0677946
0.521868,-0.0469479
0.00152733,-0.0519549
-0.250937,-0.0196942
-0.0950916,-0.000361096
-0.136797,0.0138234
-0.278918,0.00282351
-0.384627,0.00270424
-0.422627,0.0214491
-0.290801,0.0460067
-0.0106453,0.0527992
0.221665,0.0337937
0.218197,0.0143664
-0.0524564,-0.00642795
-0.21806,-0.0281686
-0.113517,-0.037021
-0.0389579,-0.0414796
-0.0501285,-0.0230557
-0.0425239,0.00353279
-0.104797,0.00305026
-0.132618,-0.0121403
-0.0690083,-0.0254729
-0.0063212,-0.0119492
0.0966153,0.0202837
0.201396,0.0229476
0.299337,0.0109176
0.252147,-0.0101878
0.126956,-0.0028342
0.224295,0.04287
0.163726,0.0473282
0.0345214,0.0317238
0.0747051,0.0323493
0.0889074,0.0155453
0.196966,-0.0116933
0.0801942,-0.0176466
-0.341425,-0.0361111
-0.350747,-0.0551892
-0.26842,-0.0615472
-0.245134,-0.00810564
-0.151145,0.0211381
-0.119565,0.0123319
-0.0660473,0.0151863
0.0149401,0.0163496
-0.000827109,0.0164573
-0.0252249,-0.0016692
0.0611298,-0.0141447
0.122791,-0.00345989
0.133787,-0.00723879
0.113251,-0.0165291
0.102253,-0.00767145
0.00304399,-0.00446683
-0.0880988,0.0166422
-0.0599968,0.0422506
0.0439155,0.0431368
0.0320876,0.0187633
-0.0474221,-0.00742473
-0.0756707,-0.0318715
-0.089121,-0.04094
-0.0391651,-0.0481944
-0.0292307,-0.0353867
-0.0591953,0.00450415
0.0517977,0.0394297
0.2285,0.0285774
0.598712,0.0150125
1.09882,0.013549
0.967095,0.00516592
0.236542,-0.00474808
-0.72963,-0.0152816
-1.07705,0.00783224
-0.694333,0.0165515
-0.620622,-0.0151526
-0.468336,-0.0370761
-0.143631,-0.0616472
-0.00606372,-0.0313719
0.0399784,0.0249172
0.0240469,0.0220039
-0.0322659,0.00940469
-0.0629413,-0.039087
-0.0300174,-0.0153988
0.0239674,0.0321517
0.0899849,0.0460965
0.215381,0.0378364
0.312709,0.043801
0.354004,0.0436935
0.203077,0.0120145
-0.0225606,-0.00842836
-0.0574461,-0.0185782
-0.0207163,-0.0160594
-0.0176685,-0.0102108
0.0951841,-0.00267436
0.251468,0.00753806
0.243057,0.0125662
0.0775286,-0.0117689
-0.257414,-0.0235467
-0.509841,0.002715
-0.354852,-0.00405072
-0.153173,-0.0221741
-0.0770377,-0.0221955
-0.0579116,0.00237321
0.0937777,0.0121395
0.314926,-0.00432681
0.464201,-0.00654189
0.402299,-0.00794302
0.223355,-0.0211121
0.0158472,0.0197324
-0.079526,0.0394169
-0.136809,-0.0280764
-0.0488665,0.00394278
0.192773,0.053888
0.20241,0.0471796
-0.110107,-0.00486588
-0.501543,-0.0794018
-0.596602,-0.106945
-0.402353,-0.0709369
-0.160168,-0.0084621
-0.00769561,0.0497574
0.0902344,0.0559429
0.0843498,0.0305188
-0.0401321,0.00340153
-0.0714454,-0.00949235
0.0653732,-0.00250312
0.168262,0.00953356
0.224095,0.0239383
0.258679,0.0103214
0.152991,-0.00156466
0.164753,0.000769837
0.186825,0.0131025
0.13796,0.00937284
-0.0285807,0.0127277
-0.256848,0.00959191
-0.323933,-0.0178601
-0.299146,0.00686816
-0.0839816,-0.000279723
0.0866582,-0.0114605
0.23244,0.026287
0.264835,0.00530158
0.149863,-0.0607554
0.0651549,-0.0430898
-0.0762672,0.032855
-0.154891,0.0267708
-0.0531644,-0.0347426
-0.13127,-0.0522098
-0.14455,0.0167063
0.0287566,0.0470083
0.10495,0.0255194
0.17677,0.00806437
0.0221328,0.000419131
-0.249246,-0.00585138
-0.224512,0.00663819
-0.120331,0.0119626
-0.0848981,0.0159118
0.0466904,0.0190689
0.0719557,0.0193593
-0.0141983,0.00574615
-0.0191917,-0.0146319
0.0212735,-0.00705367
0.0591738,-0.00525136
0.142666,-0.0337371
0.206734,-0.0562482
0.13779,-0.0250833
0.0797182,0.0222823
-0.0144832,0.0318851
-0.0786412,0.013812
-0.0668945,-0.017102
-0.0252879,-0.0290786
0.111149,-0.00907135
0.12431,0.00406422
0.178575,0.0238715
0.292489,0.0355502
0.194842,0.0564951
-0.215652,0.0360224
-0.581157,-0.0282547
-0.405846,-0.0496302
-0.127055,-0.065402
0.0561283,-0.0462858
0.1787,-0.00326571
0.056429,0.0125774
-0.137315,0.0116264
-0.0477302,0.0156676
0.274561,0.00908741
0.3297,0.00182019
0.0301243,-0.0052279
-0.424406,-0.00506039
-0.564647,0.0073196
-0.235926,0.0349964
0.0154574,0.0631904
0.15633,0.0313799
0.247021,-0.0217331
0.303618,-0.0227974
0.223125,-0.0103958
0.135151,-0.0199795
0.172983,-0.00884277
0.354708,0.0068462
0.300606,-0.00252446
-0.0324273,-0.040539
-0.299808,-0.0290731
-0.31718,0.0108226
-0.28758,0.00601947
-0.34675,-0.0087299
-0.216437,-0.00826325
0.04804,-0.00544552
0.185759,-0.00773137
0.126559,-0.000427802
-0.0950914,0.00359374
-0.217267,0.00233409
-0.138317,-0.0162904
-0.0268733,-0.00339548
0.00838314,0.0325975
0.0187412,0.0376592
0.105299,0.0381686
0.165846,0.0261785
0.123132,0.0169245
0.0677997,0.00577837
-0.0879775,-0.0574167
-0.107186,-0.0485762
0.0350717,0.00664609
0.10712,-0.0102097
0.0386988,0.0114041
0.0676541,0.0448442
0.213364,0.0460406
0.275062,0.00807771
0.116366,-0.066437
-0.114177,-0.0584269
-0.045358,0.0297915
0.192406,0.0583941
0.237104,0.0317896
0.00900481,0.00805155
-0.289922,0.000554167
-0.481316,0.0302311
-0.385046,0.0124101
-0.0994325,-0.0725137
0.0253873,-0.132754
-0.0452705,-0.108217
-0.113954,-0.00129033
-0.00211081,0.0585479
0.194626,0.0503458
0.359386,0.00457535
0.239444,-0.0112704
-0.0205653,0.00781943
-0.261532,0.0196169
-0.271245,0.0216964
-0.0108251,0.0197551
0.178511,0.0175447
0.219207,0.00128874
0.020375,-0.0195226
-0.16188,0.00323229
-0.182819,0.0301166
-0.170506,0.00428235
0.154105,-0.00878737
0.596662,-0.00382046
0.835266,0.00280252
0.420782,0.0189584
-0.296082,0.0204579
-0.372888,-0.00580177
-0.229698,-0.0086207
-0.290509,-0.00805353
-0.473906,-0.0127781
-0.586436,-0.0071272
-0.353522,0.00521751
-0.134707,0.014967
-0.0245908,0.0163148
0.121179,-0.00620118
0.190957,-0.0156794
0.0969819,-0.00519058
0.0156167,-0.00563067
0.147764,-0.00431446
0.270243,0.017957
0.27157,0.0114393
0.139603,0.00246989
-0.0388216,0.0074209
0.00624332,0.01295
0.0219102,-0.0240168
-0.0515882,-0.0638756
-0.0415993,-0.0547297
-0.00279818,-0.0169505
-0.0111617,0.016363
-0.0325068,0.0359329
-0.000270784,0.0289388
0.0300116,0.0113653
0.0163002,-0.00336569
-0.0257148,-0.0075271
-0.0782189,0.00269594
-0.0692585,0.0104177
-0.0182376,0.00698953
-0.00147807,0.00749796
0.100787,0.023828
0.283122,0.0433422
0.353973,0.0340935
0.258053,0.0197366
0.0773566,0.00566362
-0.0700749,-0.0110367
-0.117223,-0.0175565
0.0219225,-0.0461683
0.0772012,-0.0435519
-0.103197,-0.0253356
-0.166724,0.00185672
-0.165485,0.027178
-0.188044,-0.0148932
-0.244001,-0.068438
-0.259889,-0.0806954
-0.195626,-0.0542564
-0.112769,-0.0176765
-0.144571,0.0258307
-0.165768,0.0426678
-0.0386076,0.0349555
0.178812,0.0186125
0.361781,0.00640179
0.343554,-0.00599395
0.0765832,0.00609236
-0.171873,0.0341414
-0.210898,0.047619
-0.0719715,0.033883
0.145075,0.00644794
0.268503,-0.0145108
0.568309,-0.0212507
0.832145,0.0181412
0.683945,0.0290141
0.172471,0.0108071
-0.623106,0.0176612
-0.798122,0.0721433
-0.510666,0.0699194
-0.400539,-0.0226883
-0.293607,-0.0723983
-0.231188,-0.0911706
-0.185449,-0.0954204
-0.13436,-0.0507078
-0.108713,0.00494794
-0.0574698,0.0153146
0.048699,0.015996
0.117009,0.0124682
0.0894567,-0.00728407
0.0309519,-0.00639513
0.00470689,0.0187214
0.19471,0.0260081
0.492954,0.0148944
0.533762,0.00167179
0.205614,0.00425541
-0.21273,0.0130967
-0.212813,0.0202546
-0.0197884,0.0133355
0.113695,0.00517395
0.178513,0.0202169
0.127511,0.031025
-0.0576622,0.035952
-0.218479,0.0230874
-0.205191,-0.016844
-0.0803882,-0.038801
-0.0546665,-0.0255767
-0.0881521,0.0140598
-0.0867438,0.044581
0.00228475,0.0110089
0.204381,-0.0597838
0.34221,-0.0822969
0.300728,-0.0439867
0.150517,-0.0552335
0.038675,-0.0627335
-0.0192963,-0.00918884
-0.162097,-0.0169783
-0.204268,0.0187878
-0.150601,0.058115
-0.131474,0.050307
-0.132278,0.0613072
-0.0536145,0.0301022
0.0679637,-0.0145925
0.0649476,-0.0221454
-0.048557,-0.00148461
-0.146156,0.0166954
-0.188666,0.012081
-0.109208,0.00328365
-0.0550931,0.00481658
-0.0393493,-0.000723849
0.0472147,-0.0118889
0.327815,0.000218258
0.537907,0.0359947
0.378763,0.00463027
-0.0698804,-0.0389853
-0.417052,-0.0178099
-0.377595,0.0124154
-0.137598,0.0228906
-0.06757,0.0244816
-0.0696637,0.0250286
0.050412,-0.00708317
0.0699449,-0.0595618
-0.0481093,-0.0555816
-0.122255,0.00428146
-0.0654448,0.0118518
0.0843341,0.00438099
0.162547,-0.00449139
0.157618,-0.00487067
0.0428188,0.0128221
-0.0938015,0.0168941
-0.0651576,0.0109006
-0.0413335,0.0093503
0.0290991,-0.00149269
0.222887,-0.0109573
0.307621,-0.0190377
0.292219,-0.00350725
0.194305,-0.000949217
-0.0812871,-0.0104148
-0.189823,-0.000203478
-0.225839,0.0381799
-0.205619,0.0116628
-0.0802697,-0.0223856
-0.169615,-0.0146728
-0.273211,-0.00109364
-0.102833,0.0103246
0.124903,-0.0131792
0.192449,-0.0486888
0.276768,0.00399617
0.587196,0.0300611
0.572158,-0.0340878
0.101243,-0.0853134
-0.45786,-0.00406412
-0.64332,0.0500402
-0.513145,0.0350607
-0.385989,0.0302243
-0.262546,0.0573528
-0.0495893,0.0560861
0.0379669,0.0180454
0.0296946,0.00154668
0.125766,0.0133883
0.253183,0.0189454
0.357767,0.0178503
0.375762,0.0198719
0.323646,0.0121575
0.140407,-0.0213805
-0.253617,-0.0254542
-0.442403,-0.0462214
-0.239726,-0.0572331
-0.0698357,-0.0373105
0.163102,-0.0388014
0.39669,-0.0520129
0.354269,-0.02393
0.0703317,0.0267205
-0.328532,0.0397072
-0.434607,0.0259112
-0.239845,0.0119831
-0.133881,0.0135939
-0.0900115,0.0194992
-0.0326198,0.0120026
0.00902289,8.66e-05
0.0522185,0.00973602
0.101972,0.0139014
0.145566,0.00736135
0.175463,-0.0133452
0.154585,-0.0359012
0.0411657,-0.0494213
0.0193541,-0.00813834
-0.00765647,0.0251172
0.0980482,0.011158
0.510755,-0.0013672
0.602609,-0.00378532
0.302692,-0.001053
-0.314578,0.0109184
-0.615239,0.0217686
-0.319273,0.0291197
-0.169522,0.0363834
-0.166981,-0.000791735
-0.124091,-0.0632631
-0.125785,-0.053731
-0.0896378,-0.0432154
-0.0700595,-0.0490401
-0.037412,-0.00694665
0.0140445,0.0304816
0.0599338,0.0268482
0.0889227,0.0222022
0.0546633,0.0223972
-0.00810568,0.0129091
-0.0368065,0.00119539
0.027604,-0.0077396
0.02715,-0.0292259
-0.0312607,-0.0212723
-0.0182211,0.0266979
0.00551145,0.014815
0.00117897,-0.000908724
0.00442289,0.00553259
0.0148263,0.0203264
0.0318724,0.0245119
0.0520128,0.0267206
0.0727234,0.0190653
0.0736431,0.00446236
0.0583856,0.00540537
0.175379,0.0242511
0.379725,0.0390402
0.492317,0.0165996
0.321669,-0.0241868
-0.11516,-0.0391374
-0.404962,-0.0497221
-0.520812,-0.0424478
-0.424356,-0.0167233
-0.240404,0.000516804
-0.0935438,0.00835951
-0.021091,0.0232386
0.00784847,0.0393986
0.00803447,0.0249
-0.0100518,0.00122464
-0.0576171,-0.0442157
-0.0584125,-0.0663608
-0.00564754,-0.0211906
0.0315088,0.0179722
0.0528187,0.00339645
0.0684133,-0.00612215
0.0639149,0.0226599
0.0948577,0.0314177
0.116789,0.0123815
0.152562,-0.00598228
0.123786,-0.00964873
0.0502161,-0.00287454
0.000723872,0.0102595
0.105293,0.020624
0.299948,0.0146654
0.208948,-0.000120075
-0.0972913,-0.00885297
-0.366886,-0.00451748
-0.366476,0.00875305
-0.113905,0.0295843
-0.0123819,0.0553555
-0.082588,0.0290876
-0.146738,-0.0141712
-0.171313,-0.0233233
-0.105354,-0.0313636
-0.0238092,-0.0463237
0.178815,-0.0581795
0.508362,-0.0312823
0.582972,-0.00112493
0.339634,-0.00219203
-0.0934347,-0.00422079
-0.393321,0.00739627
-0.392415,0.0307876
-0.302378,0.0205588
-0.193905,-0.0274363
-0.0236211,-0.0440689
0.0756756,-0.0253974
0.0211999,-0.00557368
-0.164313,-0.0233536
-0.139091,-0.0117901
0.124503,0.0391131
0.318727,0.046039
0.397106,0.0373454
0.508988,0.0411743
0.412632,0.0333228
-0.0305655,0.0166685
-0.311847,-0.0154496
-0.45385,-0.0274732
-0.517333,-0.00676945
-0.240779,-0.0153681
-0.0277713,-0.0480023
-0.0519329,0.00105372
-0.0556171,0.00339752
-0.0266561,0.0109753
0.00899405,-0.00225637
0.0240693,-0.0286088
0.0298266,-0.0387137
0.0488325,-0.039316
0.0590054,0.0043289
0.026925,0.0241577
-0.0252413,0.0249682
-0.0332107,0.0197217
0.00846744,0.0195686
0.092109,0.023406
0.243792,0.0251033
0.39321,0.0253398
0.495168,0.0187041
0.390125,0.00955922
0.12582,0.0185286
-0.0966544,0.0117964
-0.305609,0.0075033
-0.483259,-0.00992955
-0.418825,-0.013928
-0.127274,-0.0254097
0.209193,-0.0373019
0.30154,-0.0122222
0.147162,-0.0191709
-0.210084,-0.0383396
-0.269194,-0.0441232
-0.125729,-0.00437628
-0.147023,0.0267358
-0.0627133,0.0285685
0.0752278,0.0231781
0.032306,0.0200015
-0.110519,0.0146565
-0.194587,0.00825054
-0.129331,0.00905587
-0.0264048,0.0135202
0.0750649,0.0187003
0.211768,0.0132588
0.21898,0.0131319
0.0863792,0.00575829
-0.0969237,-0.00933917
-0.138714,-0.0165979
-0.0242019,-0.0135349
0.0380719,-0.0063419
0.0253925,0.00219087
0.0305585,-0.00576134
0.0730769,-0.0177103
0.0804673,-0.0147368
0.0137707,-0.0156688
-0.0154249,-0.0118526
0.0422901,-0.00617427
0.173093,-0.0080782
0.308447,0.00496743
0.212599,0.0082992
-0.0735327,0.0210768
-0.176312,0.0210713
0.0582932,-0.00297033
0.307235,-0.0165979
0.242037,-0.0107003
-0.11983,-0.00521345
-0.378094,0.000180704
-0.488948,0.00618545
-0.389624,0.00774108
-0.0849198,0.0151854
0.141635,0.0229331
0.187164,0.0123234
0.123148,-0.0114771
-0.136875,-0.00765254
-0.220351,-0.00771592
-0.117268,-0.0396355
-0.0657654,-0.0202857
-0.0314359,0.0177687
0.000716653,0.0191143
-0.00307003,-0.00935467
0.0423373,-0.030041
0.028898,-0.0338507
0.0317179,-0.0176275
0.10645,0.0033737
0.152714,0.000264512
0.0595791,-0.0120544
0.179547,-0.0058901
0.450111,0.0174916
0.526917,0.0195695
0.342997,0.00337451
-0.128706,0.00929097
-0.550847,0.0146263
-0.62783,0.0206083
-0.443899,0.0286079
-0.166538,0.029636
0.096804,0.0248078
0.275639,-0.00199021
0.285287,-0.0169341
0.161483,-0.0206448
-0.0438507,-0.00821316
-0.210454,0.00887663
-0.179934,-0.00269195
-0.145694,0.00988126
-0.138043,0.0127069
0.0455268,-0.00233646
0.276535,-0.00421803
0.337796,0.00209957
0.174419,-0.00260296
-0.144997,-0.0219969
-0.27051,0.00186798
-0.186049,0.0167139
-0.0475125,0.0033159
0.0174893,-0.025767
0.0026231,-0.0615457
-0.0407833,-0.0323654
-0.0401686,0.0109089
0.00263375,0.0302607
0.0478102,0.0269031
0.0663161,0.0115634
0.0938155,0.00262651
0.102237,-0.00734461
0.10094,-0.0180837
0.0628547,-0.0149562
0.0313356,0.00452009
-0.0501318,0.0219509
-0.100136,0.0108049
-0.0469756,-0.00095779
-0.0206884,-0.00302983
0.0110755,0.000805935
0.0222286,-0.00495733
-0.00966891,-0.00730907
-0.0298473,-0.0116127
-0.0104705,-0.00542652
0.0607105,0.00831334
0.145944,0.0204083
0.186931,0.019273
0.147665,0.00616472
0.0241828,-0.013255
-0.0522774,-0.0079376
-0.136116,-0.0107738
-0.23767,-0.00161939
-0.244439,0.0157426
-0.15486,0.0234816
-0.0182286,0.0103959
0.0594162,-0.00569616
0.0790843,-0.0339572
0.0697019,-0.0249936
0.13423,-0.00318244
0.207173,0.00384904
0.209865,0.00805528
0.100686,0.0149409
-0.180561,0.023507
-0.21701,0.0303561
-0.114228,0.0367353
-0.193721,0.00161155
-0.150508,-0.0307382
-0.0146479,-0.0326678
0.0524746,-0.0169539
0.0313988,-0.00084962
-0.0186561,0.00917689
-0.0532241,0.0144136
-0.0312037,0.013963
0.0308485,0.00128896
0.126683,-0.0163219
0.156011,-0.00800509
0.0829393,-0.00502506
0.00186325,0.00137631
0.0867619,0.00299778
0.156749,-0.00620794
0.0570324,0.000393055
-0.0213915,-0.0303978
-0.12544,-0.0676007
-0.100844,-0.0205758
-0.0140387,0.00104987
-0.109975,0.00313432
-0.17117,-0.0107908
-0.0829992,0.00633615
0.00663821,0.0375141
0.0275276,0.0387657
-0.00701439,0.00529728
-0.0454631,-0.00516716
-0.0777991,0.0170183
-0.0251254,0.00161354
0.0360228,-0.0269113
0.039845,-0.00244911
0.11974,0.0172833
0.3202,-0.00168439
0.3448,-0.00612323
0.230017,0.00235108
0.00848134,0.00704112
0.0877859,0.0386189
0.453099,0.0532543
0.218696,0.00429461
-0.264158,-0.00305936
-0.514267,0.00992516
-0.481548,-3.45e-05
-0.293095,-0.0163098
-0.175535,-0.0177615
-0.183221,-0.0132716
-0.198861,-0.0151699
-0.114532,-0.0166025
-0.0193657,-0.0144381
0.0222236,0.0128673
-0.0251991,0.0177445
-0.0397128,-0.00284165
0.0391987,-0.0171843
0.124203,-0.0217683
0.138905,-0.0111413
0.0623225,0.00566755
0.0703753,0.00787986
0.181459,0.0123333
0.251321,0.0192159
0.200202,-0.00700344
0.0543238,-0.00951832
-0.00606694,0.0273819
0.140716,0.0206766
0.195538,-0.0256332
-0.00167688,-0.0556731
-0.311516,-0.00739882
-0.337109,0.0324841
-0.102432,0.0283857
0.0386247,0.0119537
0.0623416,-0.000161454
-0.0525663,-0.0148463
-0.122123,-0.012168
0.09663,-0.00750208
0.278343,0.000267279
0.276078,-0.00807704
0.0614092,0.000965533
-0.243087,-0.00241252
-0.346979,-0.0393883
-0.24694,-0.0172125
-0.115233,0.0314216
0.0742335,0.0477583
0.253102,0.0335837
0.300525,0.0179191
0.236888,0.00627796
-0.0177686,-0.00530138
-0.268447,-0.0150993
-0.156696,-0.0229208
0.10583,-0.0200891
0.331921,-0.0021397
0.36208,-0.00174987
0.143474,-0.000654443
-0.0684935,0.00191037
-0.339031,0.0113088
-0.462826,0.00154104
-0.25344,-0.00577782
-0.127711,-0.0033241
-0.00377675,-0.0216067
0.0600343,-0.0340769
-0.00664799,0.035383
-0.030907,0.063068
-0.0678462,0.00999386
-0.0148211,-0.00427319
0.0258781,-0.0114874
0.0102889,-0.00782273
-0.136731,-0.0056858
-0.149595,-0.00594367
0.0480332,-0.00149341
0.184082,-0.0107609
0.199225,-0.0398927
0.167799,-0.0664214
0.174949,-0.0507196
0.139252,0.0126831
0.0873643,0.0451592
-0.00513214,0.0248165
-0.142201,0.0322879
-0.11376,0.0401582
0.028427,0.0197409
0.0144257,0.00441981
-0.0783904,0.00344365
-0.0933724,0.00358215
-0.0821404,0.00100847
0.0105459,-0.00930335
0.082831,-0.0202142
0.0580978,-0.0219514
0.0635308,-0.0408439
0.0128922,-0.0277303
-0.0586222,0.0186321
-0.0539095,0.0350785
-0.093713,0.0182865
-0.0392218,0.00191495
0.155638,-0.0286013
0.235523,-0.023475
0.222324,-0.0059907
0.109063,0.0170062
-0.138285,0.0183539
-0.285306,0.0146052
-0.270061,0.0139505
-0.153152,0.005486
-0.0173134,-0.0108123
0.0408413,0.00152327
0.0235758,0.0180726
0.011615,0.0162788
0.000604394,0.00664308
-0.0473275,-0.00199122
-0.0713266,-0.0121235
-0.0300167,-0.00353407
0.0361139,0.0156697
0.130621,0.024318
0.171366,0.0187155
0.18773,0.00399296
0.131378,-0.00431158
0.00818794,-0.00605959
-0.0793146,-0.0106002
-0.109921,-0.0105417
-0.0220699,-0.0153132
0.166212,-0.0202866
0.188132,-0.0132075
0.0259047,-0.00448281
-0.150548,-0.000949432
-0.289763,-0.00335536
-0.186087,-0.00495942
0.119278,-0.00616649
0.210243,0.00213905
0.0924395,0.0174212
-0.140355,0.0170165
-0.349373,0.00967826
-0.269163,0.00504254
-0.150209,-0.0058658
-0.0395765,-0.0278606
0.0726382,-0.000245365
0.133943,0.0143651
0.0818006,-0.000292705
0.0469914,-0.0150327
0.123455,-0.0156274
0.172817,-0.0202344
0.123156,-0.0261744
-0.053071,-0.0157249
-0.183331,0.0115103
-0.100215,0.0210549
0.00508108,0.0208797
0.118921,0.0289642
0.219648,0.0226783
0.182499,-0.00124341
0.0894255,-0.00789688
-0.0365819,-0.00974969
-0.0977045,-0.0139181
0.011758,-0.0155847
0.121017,-0.0220211
0.0902305,-0.0208182
-0.0162833,-0.00205011
-0.21406,0.0108398
-0.238771,0.0125981
-0.0351328,0.00792761
0.134123,-0.00274736
0.13485,-0.00149023
0.0260448,0.00641818
-0.0557757,0.00950065
-0.0839588,0.0132678
-0.0748922,0.0170744
-0.0650842,0.0217484
-0.06393,0.0148031
-0.0513052,0.00575599
-0.134844,0.00324067
-0.0960172,-0.00418439
0.0333625,-0.0129065
0.0825242,-0.0197553
0.107195,-0.0185873
0.117831,-0.0139529
0.0582579,-0.00222434
-0.00268812,0.0149758
-0.0327488,0.00610298
-0.080586,0.00480272
-0.0703861,0.0109085
0.00360409,0.0187509
0.0415288,0.0197929
0.0367124,0.00738138
0.000901319,-0.0141146
-0.0181144,-0.0257439
-0.00161345,-0.0127791
0.0331213,0.00155392
0.0497896,-0.00456493
0.0241715,-0.0062033
0.00755757,-0.0110544
0.0176443,-0.0135303
0.04457,0.00551134
0.050363,0.0174917
0.00400013,0.00329607
-0.042611,0.00210655
-0.0504363,-0.00394003
-0.0170824,-0.0115639
0.0241779,-0.00765139
0.0387686,-0.00434029
0.0128582,0.0267332
-0.0117895,0.0279372
-0.00411163,-0.000294174
-0.0180257,0.0116368
-0.0212566,0.0188267
0.0197846,-0.00255471
0.0103184,-0.0248246
-0.0352941,-0.00737229
0.00377476,0.00266516
0.073549,0.000215099
0.102571,-0.00295012
0.083239,-0.00160858
-0.0254833,0.0058272
-0.10101,0.0144549
-0.0882733,0.0174207
-0.0808893,0.0120933
-0.0559402,0.0127434
-0.035761,0.0134908
-0.019062,0.0022583
-0.0202412,-0.0114586
-0.00996907,-0.0162828
0.0136328,-0.0244125
0.0126408,-0.031848
-0.031817,-0.0245532
-0.0524527,-0.0135511
-0.0166319,-0.00781998
0.0234098,-0.00954387
0.0417847,-0.0118698
0.0309705,-0.00687566
0.0220919,0.00220621
0.0328581,0.0083814
0.0410389,0.0132208
0.0173268,0.0150107
0.0136068,0.0113279
-0.00118371,0.00378683
-0.0186019,-0.00547354
-0.0167847,-0.00914362
-0.00820294,-0.00901845
-0.00242835,-0.006073
-0.00831695,-0.0118858
-0.0116971,-0.0137533
0.0548487,-0.0109113
0.14448,-0.0111949
0.151253,-0.00814287
0.0250072,-0.00619133
-0.177343,0.00848086
-0.237433,0.0166342
-0.123507,0.0209375
-0.0239186,0.0177105
0.0244967,0.00736813
0.0512598,0.00106688
0.074344,0.000111367
0.154138,-0.00184895
0.380188,-0.0142111
0.431188,-0.0183105
0.231387,-0.0148047
-0.136354,-0.0108022
-0.549635,-0.00799849
-0.532593,-0.00228401
-0.219251,0.000976949
-0.0673682,0.00194503
-0.0145361,0.00938839
0.0308609,0.0239011
0.0818257,0.0417882
0.117072,0.0360177
0.0849008,-0.0189351
-0.00804257,-0.0307154
-0.0595982,0.0143651
-0.0428656,0.0292123
-0.0534302,0.0158704
-0.0595951,0.00155835
-0.00917148,-0.00535654
0.0794925,-0.010123
0.160715,-0.0133171
0.157647,-0.00880055
0.087698,0.000249294
-0.0260701,0.00414815
-0.117817,0.00530853
-0.0720029,0.00885471
-0.00296515,0.00883295
0.0101637,0.00761633
0.0098968,0.0135302
0.0110261,0.0204325
0.0159882,0.0179696
0.0148444,0.0110403
0.0244947,0.00589795
0.0518689,0.00436774
0.0219514,-0.00657088
0.0459528,-0.00558488
0.106616,-0.00469165
0.0210789,-0.0240075
-0.12118,-0.0274847
-0.171729,-0.00947123
-0.0872886,-0.0159277
0.00140135,-0.011405
0.0375923,0.00276755
0.0409597,0.00640928
0.0313532,0.00300412
0.0196065,0.0121097
0.00560055,0.0159108
-0.00515783,0.0113576
-0.016762,0.00370843
-0.0282019,-0.00593886
-0.0345697,-0.0112175
-0.0353953,-0.0129291
-0.0231312,-0.00487834
-0.00789398,-0.0021259
0.00401268,-0.00357524
0.00998643,0.00137514
0.0233029,0.0126938
0.0361822,0.01851
0.0500478,0.0122437
0.0771347,0.00815314
0.0601328,-0.0207527
0.00907517,-0.0355039
-0.0281365,-0.00926784
-0.0315849,-0.00174008
-0.0314662,-0.00316195
-0.0374889,-0.00108986
-0.0175494,-0.00620946
0.0244917,-0.0329661
0.0791718,-0.0355469
0.0807223,-0.00685695
0.0255297,0.0187321
-0.0775349,0.0147831
-0.155414,0.0122037
-0.100015,0.0121651
-0.0642481,0.0044976
-0.0674456,0.00151167
-0.0291084,1.43e-05
0.0319061,0.00328074
0.0651971,0.0119389
0.0631073,0.0143305
0.0412444,0.00794513
0.0806604,-0.00460462
0.167278,-0.00889348
0.271743,-0.00776293
0.518891,-0.0115189
0.519655,-0.0169975
0.14245,-0.0225156
-0.354309,-0.0229432
-0.689533,-0.0104094
-0.63126,0.00466475
-0.385934,0.0125114
-0.220258,0.00844604
-0.0770869,0.00614448
0.0169855,0.0068846
0.0535307,0.0117389
0.0491188,0.0202197
0.0361639,0.0245499
0.0309539,0.0122693
0.0563152,-0.00672982
0.126494,-0.00591782
0.12692,0.00132988
0.0606454,0.00468095
-0.0247841,0.00825041
-0.103478,0.00460444
0.0238735,0.0027903
0.161257,0.00645355
0.136956,0.00486067
0.0567557,-0.0130202
0.00765857,-0.0310452
0.042103,-0.0158155
0.0986194,-0.00103292
0.126734,0.00282605
0.102118,0.0101741
-0.00618619,0.0131119
-0.135642,0.00296853
-0.264079,-0.00127501
-0.262511,-0.00373029
-0.131627,-0.00932701
0.127108,-0.0105218
0.342051,-0.0146618
0.349364,-0.0122164
0.155352,-0.00403215
-0.205682,0.00126949
-0.288808,0.00504025
-0.0913314,0.00604811
-0.0488359,0.0115055
-0.0218337,0.0125556
0.0104755,0.0118974
-0.00999282,0.017717
-0.0411751,0.0252619
-0.0683102,0.0211341
-0.0583895,0.0111181
-0.0322632,-0.0049237
-0.0278606,0.00178254
0.0115268,0.0108967
0.12741,0.00566224
0.235346,-0.00864324
0.24443,-0.0247308
0.108763,-0.00792705
-0.1477,0.000690245
-0.241803,-0.00481255
-0.118019,-0.0121179
-0.0382299,-0.00770046
-0.00424514,-0.00130458
-0.0593092,0.00525531
-0.0672233,0.0107244
0.0268621,0.0100993
0.061297,0.00494474
0.0424963,-0.00137436
0.0058168,-0.00785714
-0.0467803,-0.0110099
-0.0872376,-0.00883849
-0.0815505,-0.00237911
-0.0206496,-0.00243059
0.0548867,-0.00255266
0.104267,-0.00265603
0.117739,-0.00199504
0.105343,-0.00502447
0.0918607,-0.0114694
0.0929822,-0.0105035
0.0909343,-0.00718603
0.0552551,-0.00342844
-0.0350613,0.00337059
-0.112797,0.00717194
-0.140412,0.0069939
-0.108407,0.00314817
-0.0565108,-0.00309771
-0.0699103,-0.00588895
-0.0648489,-0.00133219
-0.0223227,0.00611582
0.00959008,0.00510268
0.0450745,0.00182219
0.0821773,0.00117637
0.0865658,-0.00579338
0.0719865,-0.00840938
0.0606644,-0.00602796
0.0607061,-0.00185684
0.0366674,-0.00130309
-0.0098584,0.000285945
-0.0407014,0.00722563
-0.0528609,0.00874107
