Comp Ch 3,Comp Ch 4
0.0998587,0.0120369
0.213486,0.0160837
0.200349,0.0205802
0.150445,0.0191346
0.00418283,0.0165144
-0.17038,0.0166115
-0.152256,0.00203981
-0.0461848,-0.0180272
0.00150285,-0.0169086
0.00554449,-0.00130542
0.00896025,0.000861725
0.00773351,0.00204093
0.0269957,-0.0154441
-0.00699648,-0.031413
-0.0201287,-0.0184867
0.0695238,-0.00565169
0.258763,-0.0201614
0.423251,-0.0293641
0.264021,0.00342193
-0.173252,0.0349442
-0.44806,0.0516562
-0.3729,0.061737
-0.177653,0.0302188
-0.00701166,0.014717
0.161055,0.0017936
0.288767,-0.0185992
0.364544,-0.0404928
0.501872,-0.0377156
0.340336,0.00228913
-0.0224242,0.0101709
-0.360083,-0.0389046
-0.597489,-0.0056344
-0.67099,0.0169534
-0.407419,0.0122024
-0.18263,0.0023233
0.0842728,-0.0116836
0.32938,-0.00253162
0.381913,0.0136044
0.310937,-8.75e-05
0.258063,-0.0415692
0.164868,-0.030817
0.107018,0.0186572
0.021573,0.0193535
-0.179088,0.0127548
-0.34442,0.0136121
-0.367737,0.0116767
-0.404975,0.00862129
-0.337433,-0.000876682
-0.181114,0.0037655
-0.0594011,0.0133025
0.0685605,0.00518273
0.187692,-0.00815871
0.175477,-0.0136708
0.0552141,0.00392878
0.00253148,0.0181122
0.132735,-0.0124458
0.338588,-0.031823
0.478598,-0.0273525
0.374517,0.00276689
0.275246,0.00269705
0.26177,-0.0409095
0.026296,-0.0264047
-0.203984,0.00567775
-0.405589,0.0161574
-0.574132,0.0250946
-0.394705,0.0445457
-0.188095,0.0240218
-0.086855,0.00733462
-0.0196632,0.0155603
-0.0325262,0.0319085
-0.0692955,0.0288578
-0.0800277,0.0161926
-0.0220944,0.00963544
0.115499,-0.00334603
0.210415,-0.017758
0.25325,-0.0307699
0.17479,-0.045177
0.101106,-0.047731
0.272735,-0.0232653
0.650185,-0.01596
1.04765,-0.0367114
0.97933,-0.0354053
0.0630861,-0.00314143
-0.796241,0.00786801
-0.706246,0.0425755
-0.379499,0.0606331
-0.512502,0.0583004
-0.677539,0.0584055
-0.539245,0.0336604
-0.381697,0.0106579
-0.289788,-0.00206359
-0.0658975,-0.0238784
0.134516,-0.0684702
0.182261,-0.041323
0.0890494,0.0134441
-0.185734,0.0104219
-0.322348,0.0108013
-0.0801017,-0.00788708
0.139527,-0.0223963
0.179412,-0.0189076
0.0672955,0.0111758
0.0419172,0.0487338
0.416819,0.0390889
0.749393,0.00084768
0.697404,-0.0322874
0.378137,-0.0281832
-0.109718,0.0006909
-0.108125,-0.0117242
0.0544318,-0.0248383
-0.202654,-0.0231563
-0.0596985,-0.0272259
0.161968,-0.0138874
-0.0869239,-0.0129807
-0.368204,-0.0158318
-0.331866,-0.0106964
-0.0390229,-0.00355478
0.109754,-0.00555341
-0.121008,0.00961148
-0.195066,0.0304135
-0.208751,0.0199558
-0.333211,0.0149635
-0.306465,0.024866
-0.0866144,0.00856817
0.125483,-0.00426948
0.165242,0.003874
0.0710289,0.000663601
0.00636402,-0.00477551
0.00996115,0.0009385
0.0783893,-0.00129819
0.28171,-0.0053514
0.416906,-0.0228366
0.367255,-0.0114832
0.181627,0.00840281
-0.098943,0.0152729
-0.112788,0.00774238
0.231756,0.0107487
0.277946,0.0328952
0.177538,0.0304832
0.030039,0.0112484
-0.335387,-0.00196189
-0.494614,-0.0125542
-0.36312,0.00395845
-0.19029,0.0251733
-0.137744,-0.0120331
-0.148656,0.00138919
-0.0374626,-0.0305216
0.223791,-0.107469
0.498874,-0.0715961
0.499374,0.0149531
0.218203,0.0551564
-0.165682,0.0700642
-0.524829,0.0528065
-0.495905,0.0107794
-0.367682,-0.00237022
-0.0444148,-0.00740924
0.13516,-0.00401763
0.182385,0.000718941
0.128184,0.00438957
-0.205955,0.00322587
-0.29213,-0.00942935
-0.100435,-0.0177282
0.197807,-0.00791556
0.502651,0.00586923
0.799839,0.00958103
0.512643,-0.000433891
-0.163656,-0.0212162
-0.540321,-0.035376
-0.674802,-0.0126595
-0.252288,-0.00203432
0.24693,0.00870547
0.401989,0.0137062
0.346823,0.00438088
0.0131454,0.0151498
-0.159313,0.00119596
0.03408,0.0102993
0.090236,0.00624134
0.0301074,0.00370226
0.0326301,0.0159804
0.107497,-0.015337
-0.17489,-0.0666299
-0.511081,-0.0479451
-0.572034,0.0058541
-0.42704,0.0259771
-0.0830168,0.0241976
0.171395,0.0181712
0.128017,0.0292488
0.171478,0.0362831
0.423621,0.0297266
0.536247,0.0148831
0.470274,0.00829264
0.0656412,0.0186038
-0.341543,0.0406374
-0.288405,0.025439
-0.117311,-0.052167
-0.189672,-0.0595164
-0.308125,-0.0137513
-0.200206,-0.00683116
0.0747805,-0.0782313
0.1061,-0.228239
-0.0376306,-0.213312
-0.12249,-0.0570215
-0.129025,0.0278185
-0.0244251,0.0755349
0.0782979,0.105443
0.11761,0.0955773
0.128974,0.0813648
0.240654,0.0575223
0.388753,0.0274883
0.226849,0.0423148
-0.021261,0.0769354
-0.0108348,0.0603277
0.0910756,0.0350386
0.0921409,0.0273331
-0.00158481,0.00340213
-0.0886516,-0.0102012
0.18977,-0.0281629
0.307908,-0.0451182
0.260185,-0.056131
-0.159822,-0.0708556
-0.230461,-0.0932432
-0.255064,-0.0861832
-0.445393,0.0217917
-0.324769,0.0828102
-0.233798,0.0228803
-0.267273,-0.0252705
-0.259867,0.000656253
-0.227444,0.0354138
0.0473603,0.0522242
0.364172,0.0587023
0.208923,0.0657453
-0.0297984,0.0488912
0.0877909,0.0186094
0.566747,0.0170326
0.536597,-0.00415266
0.0208025,-0.0348519
-0.416557,-0.0161882
-0.588691,-0.0132144
-0.355428,-0.00530044
-0.0438155,-0.00130866
0.150317,-0.0170865
0.233269,-0.0286895
0.234779,-0.0265968
0.0232835,-0.0175116
-0.205208,-0.00308136
-0.177166,0.00454058
-0.0593709,0.00797354
0.115315,0.0198571
0.208949,0.0262497
0.341346,0.0163315
0.354613,0.00082838
0.22299,0.00511025
0.157979,-0.00487901
-0.0683427,-0.0232483
-0.303331,-0.0319069
-0.232613,-0.014375
-0.0676021,-0.0490963
0.000993895,-0.0495197
0.185831,-0.039907
0.322064,-0.018029
0.346154,0.0211451
0.189953,0.00379242
-0.204781,0.0325839
-0.456525,0.0494653
-0.381637,0.0330466
-0.13836,0.0347753
-0.0598007,0.0357542
-0.142765,0.0242149
-0.234755,0.0130899
-0.252346,0.0207408
-0.140681,0.0305213
-0.0153474,-0.00561893
0.0275711,-0.0297534
0.0899568,-0.0444469
0.135701,-0.0630127
0.0754412,-0.0648042
-0.0493044,-0.0588466
-0.0718759,-0.0820216
0.154824,-0.114676
0.367777,-0.0951725
0.314028,-0.0227899
0.156908,0.00751613
-0.123013,0.0273684
-0.291594,0.0320757
-0.101191,0.0247797
-0.00428188,0.0346503
-0.0786548,0.0563864
0.037795,0.0608616
0.302836,0.052821
0.402147,0.035208
0.140592,0.0239884
-0.332041,0.0134134
-0.500471,-0.00793644
-0.224999,-0.012896
0.195838,0.00544084
0.398931,0.0224098
0.287709,0.0268701
-0.0755015,0.0255303
-0.22534,0.0225701
0.192351,0.0257749
0.234202,0.011932
-0.193804,-0.00714853
-0.511657,-0.00699501
-0.396164,0.0213751
-0.145388,0.0269336
-0.0530567,0.0120235
0.130572,-0.011214
0.373256,-0.0431172
0.453821,-0.0210292
0.0130557,-0.000426129
-0.548437,-0.00536098
-0.42325,-0.0212756
-0.0590965,-0.0273471
0.219242,-0.0328119
0.289936,-0.0670101
0.0602269,-0.0874089
-0.100852,-0.0558282
-0.0872073,0.0147265
0.0685284,0.0809916
0.244862,0.0852821
0.327289,0.0852318
0.0755705,0.0679002
-0.236066,0.00811714
-0.201187,-0.0277216
0.0539908,-0.0259849
0.280605,-0.0064615
0.347509,0.00198018
0.102838,0.0061515
-0.419379,0.00507827
-0.55462,-0.0130207
-0.281674,0.0154806
-0.176929,0.0186061
-0.0408843,0.00106383
-0.00904178,-0.0116952
-0.0324841,-0.0201619
0.139891,-0.0243542
0.453988,-0.0028179
0.607685,0.0141245
0.600047,0.00714097
0.372043,-0.0207089
0.170226,-0.0202667
0.0576104,-0.00550774
-0.407789,0.00400619
-0.801916,0.0281297
-0.518717,0.0227898
-0.268411,0.00978996
-0.246692,-0.000959126
-0.129559,-0.0192324
-0.0800418,-0.0407131
-0.0451208,-0.035599
0.0263377,-0.0225359
0.100193,-0.0061964
0.143434,0.00887428
0.116836,0.0175071
0.0405615,0.0179571
0.0289135,0.0149356
0.0624208,0.00325142
0.111709,-0.00881998
0.197867,-0.00832123
0.264679,-0.00342806
0.310526,0.0061594
0.186224,0.0225917
0.0209406,0.0294575
-0.118386,0.0125524
-0.220516,-0.0210041
-0.232376,-0.0228932
-0.266515,0.0183826
-0.173618,0.0284176
-0.00951529,0.0206271
0.0165976,0.0196653
0.0220413,0.0265572
0.166079,0.0185405
0.298442,-0.000323399
0.313243,-0.0179041
0.145417,-0.0202291
-0.231664,-0.00178799
-0.271637,0.0071073
-0.0428748,0.0159037
-0.132601,0.0099758
-0.109649,-0.0113367
0.150072,-0.0473877
0.377963,-0.0627666
0.294037,-0.065186
-0.179358,-0.0866142
-0.582773,-0.109573
-0.389609,-0.106002
-0.0811994,-0.0782237
-0.0250693,0.00313037
-0.0247864,0.0398852
-0.00793988,0.0349889
0.0380548,0.0202973
0.130119,0.0242848
0.302665,-0.00969143
0.350074,0.0124655
0.188426,0.0774723
-0.106095,0.0933816
-0.347037,0.075213
-0.273987,0.0543554
-0.0190474,0.0419139
0.145531,0.0225962
0.165649,0.0324062
0.0197566,0.0236519
-0.05784,0.0157286
0.0159446,0.0216647
0.0373803,0.0151133
0.0487213,0.00232858
0.038731,-0.00577035
-0.019581,-0.0130465
-0.0698211,-0.0614145
-0.152811,-0.0248583
-0.230261,0.0231056
-0.183969,0.0120972
-0.0183578,-0.00460924
0.18151,0.0100234
0.269945,0.0102969
0.223323,-0.00817653
0.015332,-0.0189066
-0.280279,-0.013888
-0.196043,0.00697133
0.0552297,0.0138777
0.465471,0.00882196
0.770786,-0.0036706
0.798295,-0.00850591
0.355708,-0.0306388
-0.164705,-0.0584007
-0.509556,-0.049544
-0.82853,-0.0230879
-0.440526,-0.00441117
-0.130216,0.0193286
-0.149448,0.0250834
-0.296464,0.0194841
-0.409202,0.00571765
-0.250951,-0.00666075
-0.00723268,-0.00591006
0.170351,-0.00130034
0.324431,0.0109904
0.321995,0.0248031
0.0904045,0.0273532
-0.0693009,0.0357964
-0.0691667,0.0197326
-0.0311315,-0.0180188
0.195762,-0.0484407
0.239042,-0.0365141
0.190421,-0.00672277
0.0109617,0.00656357
-0.235023,0.0107766
-0.0826845,-0.0122032
0.0590983,-0.0264437
0.0240337,-0.0218207
-0.0934255,-0.0223905
-0.138456,-0.0061856
-0.0343335,0.0234148
0.00386572,0.0386297
-0.0141623,0.0295405
-0.0761142,-0.00828024
-0.0943597,-0.0249304
-0.0313235,-0.0141679
0.0151289,-0.00752627
0.00527871,0.00387569
-0.0205824,0.0167132
0.00100398,0.0173658
0.0654156,0.0181853
0.178674,0.0249897
0.353392,0.00570571
0.380389,-0.0206933
0.359054,-0.0266231
0.314508,-0.018093
0.104828,-0.0164388
-0.0344063,-0.00460286
-0.248695,0.010099
-0.375808,0.00199192
-0.311968,-0.0107607
-0.242539,0.000887998
-0.264873,0.0271358
-0.206912,0.0187141
-0.106836,0.0160945
-0.0703284,0.0131392
-0.0631188,0.00172939
-0.0203065,-0.00266139
0.0353563,0.0161064
0.077028,0.0242632
0.0937376,0.00570759
0.0319582,-0.00989468
0.0141916,-0.0197316
0.0582161,-0.0237509
0.135101,-0.00403828
0.174777,0.017534
0.170008,0.01935
0.129542,0.0144468
0.238963,0.00919407
0.442202,-0.010007
0.260057,-0.0202043
-0.136546,-0.0177557
-0.33838,0.00807558
-0.222258,0.013381
-0.0539449,0.00289972
-0.0631871,-0.00609198
-0.0127034,-0.0220494
0.0764452,-0.0462886
0.00932478,-0.0365512
-0.349398,-0.0182061
-0.412729,0.00062695
-0.0111766,0.00995653
0.17549,0.00933428
0.0576309,-0.00923466
-0.163964,-0.0156142
-0.423047,-0.0344728
-0.343167,-0.0454449
-0.11588,-0.018172
-0.0110977,0.0149045
0.0327614,0.021575
0.0990837,0.0131155
0.172567,0.00717475
0.199951,0.0258047
0.162815,0.0332988
0.148087,0.00222671
0.20557,0.000883811
0.198819,0.0163742
0.128732,0.0164421
0.178275,0.0210483
0.242269,0.0339066
0.0591187,0.0227158
-0.242443,-0.00611096
-0.18269,-0.0155262
-0.0841224,0.00895581
-0.19925,0.0256638
-0.279408,0.0158836
-0.148711,0.0091962
0.0476302,-0.00990169
0.118638,-0.0493036
0.0374611,-0.051339
-0.0207413,-0.032468
0.0183972,-0.0211586
0.158169,-0.00733418
0.279582,0.00277291
0.172053,0.0137982
-0.0547912,0.0290151
-0.17938,0.0317347
0.0549853,0.029773
0.275669,0.0219621
0.233615,0.0168221
-0.10262,0.0291628
-0.265187,0.0338034
-0.199205,0.0162404
-0.180023,0.00186729
-0.0255116,-0.017088
0.141139,-0.0239072
0.195366,-0.00440228
0.0918839,-0.0192891
-0.119,-0.0279597
-0.267094,-0.013064
-0.22322,-0.0142389
-0.105217,-0.0106573
-0.0506165,-0.0154758
-0.0308549,-0.0234174
0.0489496,-0.0395956
0.120285,-0.0205047
0.111541,-0.0137232
0.096876,-0.0175813
0.131471,-0.000924673
0.211557,0.000811355
0.160607,0.00351696
-0.117431,0.0163642
-0.353911,0.0186643
-0.333889,0.0101785
-0.18038,0.0201764
0.00396351,0.0376104
0.0753453,0.0358678
0.0697385,0.0363844
0.121207,0.0132232
0.164643,-0.0112591
0.134727,-0.004577
-0.032382,0.00789944
-0.214058,0.0133538
-0.0899903,0.00631682
0.143621,-0.0141292
0.133388,-0.0426419
0.0412778,-0.0489346
-0.0468391,-0.0301788
-0.103533,0.012203
-0.0712501,0.00278871
-0.0125995,-0.00446124
0.0504747,-9.6e-05
0.0953293,-0.0137243
0.109261,0.0187472
0.0287817,0.0163136
-0.0314763,0.0174503
0.0247741,0.0220543
0.146532,0.0165915
0.381542,0.0105655
0.407556,-0.00751804
0.153571,-0.0204357
-0.145342,-0.0125812
-0.470111,-0.00670144
-0.46078,-0.0120666
-0.168225,0.00321349
-0.0658343,0.00651941
-0.0770915,-0.00441758
-0.066074,0.0112218
-0.0545509,0.017149
-0.0575575,-0.00706749
-0.0774792,-0.0150349
-0.048565,-0.00648386
0.0233306,-0.0261616
0.0527087,-0.0229375
0.032707,0.0102435
0.110469,0.0213187
0.270455,0.00234251
0.394226,-0.00671069
0.287327,-0.00151518
-0.156947,0.00175685
-0.436497,0.0103155
-0.305012,0.0137562
-0.108895,0.0137292
0.0810916,-0.000730439
0.188318,0.000731659
0.272157,0.0075789
0.370492,-0.00569625
0.279324,-0.00710277
0.103707,0.00976827
-0.168996,0.0199543
-0.412134,0.0170707
-0.319998,0.00983123
-0.214209,-0.0163092
-0.224383,-0.033462
-0.166302,-0.0337664
-0.00592586,-0.0524048
0.216008,-0.0492533
0.323762,-0.00185665
0.283275,0.0182251
0.0682109,0.0231688
-0.269675,0.0381401
-0.283807,0.027837
-0.109425,0.0235987
-0.0294459,0.028889
0.0111343,0.0334877
0.0102441,0.0131839
-0.0502181,-0.00785844
-0.0240849,-0.0198162
0.0299469,-0.0274739
0.100423,-0.0328295
0.136061,-0.0363886
0.13369,-0.0355944
0.207072,0.0106197
0.172193,0.022387
-0.0338682,0.015741
-0.231347,0.0144342
-0.203111,0.0162797
-0.0307523,0.0114573
0.0540102,-0.000932767
0.0262406,-0.0405075
0.0997854,-0.0266049
0.363343,0.0285252
0.480017,0.0419176
0.35172,0.0456173
-0.0630778,0.0322344
-0.328307,-0.00204753
-0.285049,-0.0343203
-0.403667,-0.0218947
-0.362228,0.0112956
-0.311671,0.0345999
-0.111375,0.0189544
0.229318,-0.0324845
0.325941,-0.024776
0.15305,-0.00141243
-0.181836,-0.0276299
-0.331243,-0.0344516
-0.213578,0.00379919
-0.111011,0.0118683
-0.0366534,0.0143474
0.0879831,0.0156594
0.349531,-0.00643165
0.575847,-0.0111189
0.463098,-0.0122585
0.08857,-0.0210836
-0.35294,-0.00746903
-0.396366,0.013494
-0.225957,-0.00509398
-0.0743932,-0.0310254
0.124574,-0.041732
0.205269,-0.0601948
0.140128,-0.0328417
0.0918784,-0.0216251
0.0159702,-0.0143308
-0.170502,0.0218117
-0.243499,0.0442385
-0.121435,0.0384825
-0.0136774,0.0173402
-0.032819,0.00708379
-0.10123,0.0142358
-0.0862389,0.0147927
0.148401,0.0119265
0.427432,0.0133654
0.511044,0.00577978
0.280406,0.00524585
-0.299689,0.0455808
-0.454722,0.0580701
-0.184921,0.0367395
-0.0242721,0.00857613
-0.0186043,-0.000689212
-0.00330238,0.00572185
0.0430711,-0.0112704
0.0430134,-0.0281828
-0.047521,-0.013502
-0.144882,-0.0142931
-0.0950436,-0.0270853
0.0899463,-0.0194077
0.184162,0.00162657
0.194114,0.0116434
0.238063,0.0076408
0.123927,0.00448643
-0.0887418,0.00185499
-0.190467,0.003431
-0.14814,0.0074451
0.077623,0.000770534
0.240831,-0.0104237
0.253363,-0.00184629
0.149819,0.00792102
-0.11456,-0.0062428
-0.441622,-0.0193278
-0.57227,-0.0520796
-0.4091,-0.036087
-0.190608,-0.0234335
-0.0592528,0.0177066
0.0159278,0.0326715
0.0588522,0.0223135
0.0697796,0.0233716
0.078377,0.0419728
0.0899613,0.033665
0.106533,0.00360374
0.15618,-0.0255176
0.251755,-0.0355623
0.438676,-0.00848685
0.649557,0.0293934
0.54832,0.0232701
0.141562,-0.0125128
-0.303169,-0.0214016
-0.425249,-0.00821636
-0.448593,0.00553601
-0.491741,0.00647443
-0.423979,-0.016043
-0.175274,-0.0231196
0.0904345,-0.0190836
0.199706,0.00649338
0.209049,0.0247635
0.179583,0.0214737
0.213639,0.018222
0.112698,0.00676807
-0.225797,-0.0122013
-0.373843,-0.0212264
-0.240329,-0.0186263
-0.126059,-0.013085
-0.0233785,-0.0284603
-0.0418807,0.00295638
-0.0711399,0.0175022
0.0435974,0.0219041
0.232123,0.0202722
0.34629,-0.0124247
0.444203,-0.0163434
0.260039,0.0143616
-0.0884003,0.00907483
-0.419148,-0.0164968
-0.420594,0.00322267
-0.133644,0.0141952
0.0816275,-0.0284744
0.197144,-0.0928489
0.274093,-0.0410862
0.205597,0.0506932
0.0951031,0.0351715
-0.0531164,0.0238716
-0.201416,0.0233835
-0.236716,0.0233173
-0.0892332,0.0072924
0.115984,-0.00874234
0.218897,0.0203071
0.142621,0.0270096
0.0676897,-0.02355
0.0594105,-0.0774629
0.0112655,-0.0308603
-0.0199417,0.0251743
-0.182551,0.00460651
-0.206519,-0.0613811
-0.052258,-0.0115368
0.0558151,0.0415226
0.118747,0.0121063
0.0877909,0.00329679
-0.0138882,0.0207295
-0.125098,0.00183755
-0.132802,-0.0434089
-0.0657067,0.0233132
0.136955,0.0549778
0.279296,0.0184606
0.27188,0.0192562
0.142713,0.0207618
0.00372206,-0.0215135
0.0508992,-0.0324406
-0.0115594,-0.00745871
-0.290968,0.0286404
-0.501266,0.0272241
-0.433104,0.0104017
-0.259412,0.00290537
-0.0669803,-0.0551735
0.0316283,-0.0335707
0.0187996,0.0353959
0.00574707,0.0318634
0.0712819,0.00631711
0.153268,-0.0187518
0.115864,-0.0346297
-0.0189747,-0.0268017
0.139915,-0.00726917
0.274714,-0.00518704
0.194097,0.00266626
0.190603,0.0151088
0.159364,-0.00213205
0.0934787,-0.0334339
-0.00676664,-0.0280686
-0.350633,-0.00465192
-0.409594,-0.00218276
-0.199297,-0.00451352
-0.110414,0.021476
4e-05,0.00979354
-0.0353935,0.00472234
-0.1444,0.0162874
-0.147997,0.00619318
-0.0801861,-0.0108904
0.158118,-0.00462356
0.399484,0.0117075
0.418443,-0.0219381
0.296708,-0.0350642
0.038285,0.00304665
-0.251409,0.0196718
-0.252901,0.0174293
0.0946959,0.0227917
0.261232,0.0198855
0.095363,0.0498789
-0.197658,0.0621712
-0.334773,0.0738739
-0.0967797,0.0751661
0.188773,0.0769377
0.245882,0.0593941
0.101522,-0.0301795
-0.0834012,-0.116903
-0.30104,-0.0808039
-0.286754,-0.0170468
-0.152299,0.0385851
-0.107915,0.0680283
-0.0336697,0.0504989
0.156212,0.024331
0.312767,-0.0218302
0.380505,-0.0621904
0.419605,-0.052778
0.334305,-0.0255811
0.24998,-0.0306357
0.0317397,-0.00358105
-0.372341,-0.00478295
-0.510628,-0.0671889
-0.364119,-0.0853052
-0.294752,-0.0652542
-0.220983,-0.0768697
-0.133405,-0.0136253
0.136167,0.0418345
0.54578,0.00848143
0.578468,-0.0357847
0.169361,-0.0271043
-0.460561,0.0374498
-0.465167,0.0270775
-0.0659109,-0.0384329
0.0079791,-0.0505716
-0.189923,-0.0313062
-0.25573,0.00998686
-0.0630573,0.0474827
0.0408436,0.0630098
0.146985,0.0559227
0.267055,0.032903
0.355666,-0.0295847
0.227015,-0.0572841
0.0154316,-0.0129841
-0.174486,0.0185934
-0.365925,0.0534242
-0.307814,0.0605711
-0.088124,0.0204119
0.0410962,-0.00225796
0.201881,-0.0054095
0.377166,-0.0632206
0.410138,-0.0148371
0.221305,0.00197163
-0.0949642,-0.0425571
-0.292543,0.027198
-0.335297,0.0342331
-0.225442,0.0453663
0.000999897,0.0200868
0.464224,-0.0241437
0.876966,-0.00505095
0.715909,0.0233221
0.359678,0.0347959
-0.830199,-0.0453751
-0.429089,-0.0385719
-0.169614,-0.00553647
-0.281919,-0.0626829
-0.401446,-0.0884391
-0.345014,0.0572575
-0.259928,0.107774
-0.269819,0.0814428
-0.194762,0.0388846
-0.0477551,-0.0069618
0.0217375,-0.00543526
0.00473766,-0.0609997
0.0150605,-0.0320657
0.133644,0.057383
0.207047,0.0877013
0.14547,0.0577634
-0.0301961,0.007919
-0.188943,-0.0540163
0.0742511,-0.13052
0.284017,-0.0661643
0.261466,0.031891
0.128163,0.0520048
0.17736,0.0335811
0.434817,0.0142203
0.493506,0.00204717
0.117339,-0.00380704
-0.347958,-0.0209209
-0.27154,-0.0218552
0.0295778,-0.0651406
0.2693,-0.0678243
0.292157,0.0116238
-0.0799049,0.0882514
-0.484172,0.107767
-0.489327,0.0812836
-0.215473,0.0428462
-0.0504538,-0.0528893
0.162256,-0.141812
0.597114,-0.145762
0.73891,-0.10549
0.303044,0.0536067
-0.50579,0.144526
-0.959891,0.134152
-0.857548,0.0813577
-0.354247,0.0275179
0.0807265,-0.0121137
0.0102645,-0.00448598
-0.326247,0.0429181
0.0882732,0.0508655
0.685808,-0.0205862
0.674288,-0.0528817
-0.0250567,-0.0216098
-0.392529,0.0102472
0.128876,0.0735394
0.334113,0.0528164
-0.0686572,-0.0586845
-0.518513,-0.1003
-0.237712,-0.0847107
0.209054,-0.0770143
0.358841,-0.0873363
0.111628,-0.0437968
-0.235279,0.0546137
-0.360634,0.0528528
-0.309867,0.0154024
-0.159287,-0.0177985
-0.078818,-0.0479798
-0.0241911,-0.029932
0.0282341,0.00504858
0.0884305,-0.0191793
0.248847,-0.0516734
0.430887,-0.0468592
0.450285,0.0149152
0.214306,0.0734919
-0.154406,0.090899
-0.348136,0.0852006
-0.113109,0.0277934
0.100813,-0.0416683
0.164288,-0.0777661
0.171247,-0.0386251
0.321553,-0.00900983
0.922366,-0.00661846
1.65262,-0.0139342
1.53145,-0.0233989
0.280873,-0.117017
-1.27751,-0.130379
-2.25878,-0.0131704
-1.85008,0.120711
-0.760561,0.160736
0.0561763,0.0671883
0.625984,-0.0140566
0.812983,-0.0427148
0.6544,0.00591041
0.368961,0.0423212
-0.331264,0.0680043
-0.780308,0.110609
-0.743738,0.078348
-0.708559,0.02057
-0.55212,0.0149749
-0.305997,-0.0786065
-0.12832,-0.233104
0.0907454,-0.219106
0.286817,-0.0112476
0.264208,0.108841
0.202034,0.0953172
0.223324,0.0754101
0.249295,0.0266785
0.377678,-0.0260231
0.53702,0.00332929
0.494122,0.00770684
0.175237,0.00288156
-0.0912812,-0.00121682
-0.113827,0.0104407
-0.103661,0.0215666
-0.132225,-0.0137682
-0.245225,-0.00743082
-0.295478,0.0124421
-0.15933,0.0101508
0.0420563,0.000148229
0.19601,-0.013918
0.140365,-0.00363594
0.0629931,-0.0551687
0.227537,-0.0485091
0.531256,0.035612
0.331043,0.111214
-0.163495,0.0916776
-0.496901,0.0177076
-0.290423,-0.00264596
0.278505,-0.0456835
0.9027,-0.104619
0.903407,-0.0199554
0.333644,0.0291233
-0.316903,0.0413785
-0.689665,0.040185
-0.558986,0.0360502
-0.208591,0.0639309
-0.318088,0.0363661
-0.306586,-0.0421908
-0.00304936,-0.0498866
0.157744,-0.0446165
0.164805,-0.0281681
-0.10643,-0.00687561
-0.46822,-0.0015247
-0.535184,-0.058645
-0.321305,-0.102774
-0.205783,-0.0845241
-0.197208,-0.00110193
-0.00513294,-0.00681951
0.0515455,-0.0442588
-0.169484,0.0752056
-0.152749,0.231228
0.0212605,0.200202
0.363595,-0.0138992
0.567613,-0.205873
0.597493,-0.256578
0.378997,-0.0763849
-0.0405675,0.0816514
-0.304556,0.112721
0.207544,0.0851862
0.717434,0.0251689
0.482361,-0.00785619
-0.148474,-0.0486683
-0.443927,-0.0299844
-0.458375,0.0415485
-0.692174,0.0240425
-0.210085,-0.0383451
0.48806,-0.0267971
0.674431,-0.0580889
0.593282,-0.0781472
0.458689,-0.00622138
0.492584,0.122108
0.255826,0.176541
-0.695325,0.0866001
-1.49636,-0.0048803
-1.00891,-0.0774011
-0.335503,-0.0585405
0.0424536,-0.00714251
0.231233,0.0022184
0.314544,-0.0353809
0.261674,-0.0110973
0.0394338,-0.0120054
0.0316839,-0.0113564
0.323569,0.0192512
0.310476,0.0439944
-0.149653,0.0824597
-0.356638,0.0578225
-0.374768,-0.0199913
-0.341304,-0.0497405
-0.167763,-0.0386607
0.0183281,0.00788752
0.165026,0.0159863
0.218167,-0.0717417
0.41591,-0.134386
0.490036,-0.120383
0.541928,0.0163827
0.73679,0.129904
0.60576,0.125932
-0.188608,0.0756249
-1.18163,0.0246496
-1.35108,-0.00600478
-0.619137,-0.0421711
0.084492,-0.102774
0.369931,-0.11065
0.15154,-0.0709209
-0.26842,0.0590217
-0.408396,0.100205
-0.193172,0.0189571
0.366865,-0.029147
0.98216,0.000566739
1.59567,0.0392268
1.81525,0.0245819
1.08032,-0.0145541
-0.0714576,0.038644
-1.64426,0.0836343
-2.27905,0.0217349
-1.39031,-0.0771029
-0.513231,-0.0661407
-0.183708,-0.0255584
0.0660207,-0.0241708
0.45682,-0.00290273
0.792972,0.026809
0.794638,0.00406155
0.507846,-0.0112121
-0.173559,-0.00759543
-0.436445,-0.072205
-0.500749,-0.054883
-0.532776,0.00402351
-0.349881,0.00938395
-0.115008,0.0137296
0.133773,0.00572483
0.378337,-0.00785829
0.331746,0.00456115
0.210473,0.0306944
0.0825245,0.0526039
0.00357956,0.0494644
0.411944,0.0488339
0.611123,0.0835694
0.184903,0.0887042
-0.597692,-0.00644932
-0.715626,-0.0365582
-0.330339,0.0349596
0.0540527,0.0404247
0.126269,0.0228886
-0.0779547,-0.00131834
-0.238246,-0.0653698
-0.16562,-0.065642
0.350902,0.000211162
0.677573,-0.00233914
0.614858,-0.138833
0.487036,-0.165085
-0.0721888,-0.0676978
-0.523124,-0.00141501
-0.0666042,0.10044
0.301412,0.0808891
-0.00278987,0.0241696
-0.474927,0.0121916
-0.712644,0.0214978
-0.489273,0.0480582
-0.160933,0.0859214
0.164032,0.0738607
0.525846,-0.0536564
0.753447,-0.166504
0.450204,-0.0951318
-0.325628,-0.0583077
-0.696253,-0.00847749
-0.822224,0.0265131
-0.408906,0.0520062
0.184508,0.0210978
0.53118,-0.0167763
0.710764,0.0588421
0.836567,0.118046
0.605529,0.0865247
-0.0114409,0.0232434
-0.876109,-0.014137
-0.958326,-0.030764
-0.394698,-0.0737948
-0.0544565,-0.0882103
-0.0391189,-0.0210962
-0.0625094,-0.00830536
0.06103,-0.0548117
0.11201,-0.0508382
0.104231,0.0485607
0.194263,0.0694565
0.184982,0.00389126
0.0931153,-0.0275103
0.0642802,-0.0459435
-0.0415499,-0.00560594
-0.282309,0.0520591
-0.200321,0.0382571
0.0701246,0.00425541
0.227621,0.0386636
0.169972,0.0709137
0.0967742,0.0678498
-0.0435794,0.096001
-0.0369166,0.0995219
0.243137,-0.0195373
0.202306,-0.179302
-0.106979,-0.21558
-0.209121,-0.144321
0.102767,-0.0885765
0.481064,-0.0511739
0.454008,-0.016462
0.205492,-0.00685904
-0.355326,0.0581567
-0.645069,0.0536505
-0.327677,0.0386304
-0.123034,0.0823737
-0.28215,0.0942324
-0.234737,0.10016
0.123749,0.0668041
0.102625,0.0120659
-0.0510676,-0.0257199
-0.065785,-0.0242271
0.355059,-0.0699626
0.755144,-0.0654718
0.467709,0.0112501
-0.252998,0.0639953
-0.76821,0.0608443
-0.466604,0.0735866
-0.0230601,0.0501474
0.149901,0.00255514
0.0903824,-0.0013825
-0.161282,0.0116161
-0.10707,-0.0756674
0.189167,-0.204941
0.0691176,-0.13922
-0.142401,0.0232469
-0.106531,0.104766
0.258562,0.0742272
0.622013,0.0288879
0.470143,-0.0598332
-0.203655,-0.107875
-0.717309,-0.0594568
-0.556727,0.00775649
-0.22937,0.0441844
0.0568368,0.0566084
0.253007,0.0456529
0.421118,0.0180067
0.449958,-0.0212703
0.353804,-0.0171035
0.176912,0.0201978
-0.304676,0.0161844
-0.606084,-0.0173391
-0.401716,-0.0702144
0.339105,-0.0267078
0.795006,0.0610215
0.596994,0.0998662
-0.144035,0.0574486
-0.637029,0.0135401
-0.545837,-0.00550385
-0.443879,0.00732756
-0.346908,0.0298156
-0.0524693,-0.0157654
0.108736,-0.0221138
0.146658,-0.016596
0.113682,-0.0305266
-0.00189539,-0.0317177
-0.0502168,-0.036116
0.0536372,-0.0165447
0.0888459,0.00622475
0.135617,0.00918163
0.172008,0.0207209
0.0984969,0.0129535
0.135276,-0.054345
-0.0452635,-0.0675176
-0.155565,0.0449707
-0.00390832,0.0876647
0.0301339,0.0452518
-0.102241,-0.0155364
0.0157807,-0.00623792
0.203689,-0.0122015
0.491878,-0.0757028
0.70785,-0.111798
0.323976,-0.00678193
-0.456235,0.0782461
-1.07766,0.0865261
-0.581075,0.0855408
0.157884,0.126297
0.345362,0.118299
0.0861505,-0.0232474
-0.0742951,-0.154677
0.22395,-0.189509
0.38623,-0.137661
-0.0552195,-0.0237513
-0.433946,0.0302742
-0.439208,-0.000372064
-0.138882,-0.025293
0.199652,0.00924539
0.185782,0.0169348
-0.015252,0.00214157
0.00397586,0.00894405
0.188602,0.0387507
0.192036,0.0298487
-0.234667,0.00674608
-0.464149,0.04648
-0.169975,0.0667106
0.109789,0.0737567
0.0146855,-0.0323251
-0.160607,-0.0745746
-0.110805,-0.015021
0.0472494,0.00573015
0.123599,0.0214566
0.150621,0.0398801
0.150967,0.0403726
0.105676,0.00891029
0.0122534,-0.033316
0.0259227,-0.0469297
0.214025,-0.0287599
0.312502,0.00675738
0.217185,0.032726
0.00251106,0.0221235
-0.124486,0.00126327
-0.183138,0.0127214
-0.127305,0.0111844
-0.0339101,-0.00594272
-0.112279,0.00920758
-0.205625,0.0182997
-0.0708377,-0.0180156
0.122805,-0.069631
0.207757,-0.0680091
0.179202,-0.0811601
-0.018128,-0.0553575
-0.131868,-0.0105054
-0.218937,0.0119571
-0.182886,0.0935433
-0.00422468,0.113211
-0.0203203,0.0326918
-0.0963411,-0.0521479
-0.0992518,-0.0697532
-0.0971885,-0.0274084
-0.102201,0.0119776
-0.0579649,0.0397691
0.0143426,0.0379948
0.150383,0.0227504
0.349879,-0.00609925
0.754062,-0.0158366
1.11586,0.00614612
0.850661,-0.00281446
0.153016,-0.00397254
-0.76792,0.0312573
-0.895143,0.0430459
-0.457524,0.0341951
-0.548841,0.00242835
-0.667916,-0.0553262
-0.328988,-0.124205
0.0595713,-0.134087
0.175699,-0.037479
0.138151,0.0512608
0.0322265,0.104484
0.0150748,0.114481
0.232462,0.0460656
0.358749,-0.0137971
0.164625,0.030294
-0.15601,0.0640903
-0.249275,0.0367392
-0.0131792,0.0630448
0.242571,0.0335316
0.0555039,-0.10447
-0.173419,-0.117198
-0.260918,-0.110041
-0.112877,-0.153979
0.0327368,-0.151935
0.0337201,-0.00609726
-0.00506051,0.0689555
0.0175829,0.00822509
0.0588282,0.0435453
0.0974466,0.0782021
0.103948,0.0722472
0.0485553,0.0594278
-0.0462311,0.0405553
-0.0751452,0.0290435
0.0367902,0.0115131
0.110548,0.00122826
0.156063,-0.00387711
0.346914,-0.00978292
0.54139,-0.0226506
0.43021,-0.0393359
0.0935771,0.0125465
-0.286492,0.0233112
-0.517172,0.0231176
-0.515479,0.0361908
-0.382476,0.0489013
-0.142533,0.0459081
0.0498995,0.0141204
0.109283,-0.0160609
0.0657411,-0.0427875
-0.0796132,-0.0454084
-0.198632,-0.0315992
-0.185095,-0.0125594
-0.0860463,-0.0218315
-0.0353394,-0.0472644
0.00731097,-0.0378632
0.0674464,0.0264404
0.0888115,0.0443997
0.0628652,0.0333757
0.0495476,0.0338589
0.12828,0.0287516
0.302244,0.01251
0.465076,-0.0216963
0.424539,-0.0253901
0.159018,-0.0394913
-0.173364,-0.0461154
-0.326916,0.021446
-0.371079,-0.00550394
-0.0459087,-0.0687202
0.202782,-0.0421859
0.227844,-0.0148723
0.126145,-0.00902345
-0.176618,-0.00168584
-0.308005,0.0139546
-0.343806,0.0121078
-0.276663,0.033173
-0.0998675,0.069283
0.0355325,0.0387349
0.155214,-0.00467822
0.159142,-0.0142864
0.017298,-0.00542928
-0.10931,-0.00189818
-0.103129,-0.00582891
-0.0104749,-0.0251637
0.0625171,-0.0544841
0.0899393,0.0162784
0.0765566,0.0322675
0.0627053,-0.000350973
0.209994,-0.00956457
0.300495,0.0241278
0.138071,0.0364367
-0.178905,0.0264046
-0.196014,0.0113988
0.0369098,-0.0016192
0.0544781,0.000162041
0.0819718,0.000191678
-0.0365489,-0.00631931
-0.244425,0.00407188
-0.237684,0.0158717
-0.17236,0.0141974
-0.0654571,0.0251905
0.0690266,-0.0304293
0.291009,-0.0664992
0.432063,-0.018307
0.32658,0.0133118
-0.0525912,0.00906544
-0.381887,0.00835214
-0.305213,-0.000406307
-0.113925,-0.0194263
0.103973,-0.00388441
0.108539,-0.00905597
-0.100421,-0.0324618
-0.23094,0.00716396
-0.221161,0.0110713
-0.0567569,-0.0177183
0.230505,0.035657
0.374958,0.103631
0.147942,0.0978069
-0.0752524,0.00745089
-0.244372,-0.086087
-0.178421,-0.119358
-0.0594393,-0.0951924
-0.027157,-0.0444062
-0.00715033,-0.0136845
0.0786191,-0.00335631
0.0309906,-0.00802608
-0.0741414,-0.0445954
0.00388113,-0.0286364
0.153155,0.0460708
0.186504,0.0773089
0.0651526,0.0609318
-0.0858953,0.0414808
-0.0961765,0.0300029
-0.0157867,0.0225314
-0.0407702,0.0228119
-0.0994048,0.0108979
-0.0699064,-0.00785683
0.00990357,-0.0315938
0.10965,-0.044746
0.181166,0.0357053
0.217566,0.0707891
0.305501,0.0533148
0.299766,-0.00034874
0.200494,-0.0295919
-0.00711207,-0.0370914
-0.311847,-0.0286864
-0.427449,-0.0107569
-0.203448,-0.00323254
0.0666386,0.0150329
0.176856,0.0331651
0.320565,-0.00549609
0.240405,-0.0396093
-0.25848,-0.026535
-0.526093,-0.01032
-0.490752,-0.00303369
-0.252794,-0.0152527
-0.0459509,-0.00831805
0.0286459,0.0412984
0.127922,0.0451168
0.165753,0.0308078
0.0128409,-0.0442129
-0.016437,-0.094117
0.0225567,-0.0550734
0.0326121,-0.00921086
0.0566214,-0.0327248
0.0554461,-0.0205338
0.0446161,0.0559582
0.249438,0.0689508
0.43584,0.027961
0.342955,-0.0125562
-0.0336899,0.019531
-0.455381,0.0629365
-0.368523,0.0386583
-0.0811223,-0.0471194
0.017233,-0.0804579
0.0235869,-0.0201646
-0.0137904,0.0154448
-0.0158612,0.00124367
0.0631354,-0.0164513
0.0324862,0.0137528
-0.0512742,0.039903
-0.11276,0.0140345
-0.117024,0.00816665
-0.0584386,0.0180495
-0.0434677,0.021413
-0.0405563,0.00810417
0.0193507,-0.00517788
0.156238,0.00162015
0.31881,0.00959134
0.383942,0.0229947
0.252817,0.0249315
-0.127422,-0.00030541
-0.286779,-0.0174672
-0.128886,-0.0141663
-0.030274,-0.000359486
-0.00698124,-0.00922522
-0.045176,-0.0550772
-0.0856292,-0.0658541
-0.0634967,-0.0970031
-0.0273664,-0.0489799
-0.013011,0.0263814
-0.00214711,0.07927
-0.0749725,0.0883894
-0.0605883,0.0187449
0.0742659,-0.0377162
0.142695,-0.0375229
0.183032,-0.018506
0.200571,-0.0352788
0.035837,-0.0247052
-0.209161,0.0153338
-0.269869,0.0384613
-0.100578,0.0520698
0.0154286,0.0322432
0.0546883,0.00855373
0.0621375,-0.00890162
0.00406164,-0.00690618
-0.0768032,0.0166852
-0.213696,0.0253348
-0.0398215,0.00644827
0.27318,-0.0124308
0.448203,-0.0260572
0.480307,-0.0194393
0.186881,-0.0133975
-0.0648204,-0.0101853
-0.228152,0.0211255
-0.316401,0.0463217
-0.0528492,0.0575348
0.0572755,0.0421758
-0.109608,-0.0347101
-0.140307,-0.0899294
-0.122019,-0.0948213
-0.0622155,-0.0467962
-0.110611,-0.00730556
-0.345204,0.00215029
-0.331422,0.0530167
-0.166366,0.036548
-0.0398739,-0.00234222
0.0065305,-0.0554359
0.0259026,-0.0373647
0.0602959,0.0128856
0.10708,0.0385841
0.167368,0.0555432
0.195927,0.0604592
0.178134,0.0459406
0.244499,0.0142009
0.371014,-0.00999103
0.353382,-0.0108937
0.141233,-0.0255206
-0.185024,-0.0388484
-0.161195,-0.0194664
0.0130028,-0.00853975
-0.0347326,-0.0375772
-0.255594,-0.0155843
-0.336756,0.00128801
-0.222692,-0.0236122
-0.10826,-0.00756175
-0.0102807,0.0200636
0.111267,0.0464311
0.191617,0.085653
0.0628879,0.0634931
-0.0572054,0.031931
-0.0817757,0.0261128
0.0263537,0.0245402
0.110323,0.0295703
0.176618,0.0416504
0.4338,0.0116939
0.497889,-0.116708
0.382138,-0.164312
0.0574009,-0.0804818
-0.298391,-0.0460866
-0.333418,0.0256058
-0.32595,0.0417945
-0.372256,-0.0109065
-0.443174,-0.0237935
-0.383289,-0.0256439
-0.0499643,-0.00987272
0.313181,-0.00278397
0.446465,6.36e-05
0.282655,0.0129052
0.039693,0.0258255
-0.0930937,0.0328808
-0.100329,0.0393388
-0.120495,0.0405829
-0.276322,0.0293576
-0.258815,0.0110516
-0.116455,-0.00136423
-0.0436992,0.00348699
0.0348588,0.00999842
0.0250928,0.0078202
0.00555065,0.00586596
0.174003,0.00919616
0.350134,-0.000370648
0.263092,-0.0170841
0.0203849,-0.0176412
0.00680893,0.0239791
0.195873,0.0241145
0.157386,-0.0285608
-0.137958,-0.0133549
-0.403842,-0.0392734
-0.283503,-0.0461515
-0.140454,-0.0238476
-0.0642475,-0.000460054
0.0316095,0.0126753
0.134092,0.0130836
0.142937,0.00205328
0.102765,-0.0152521
0.0332242,0.00948852
0.0593933,0.0234865
0.137114,0.0100455
0.0952765,-0.00123524
-0.102035,-0.00491959
-0.263081,-8.01e-06
-0.239855,0.00590903
0.0520797,0.0191493
0.739594,0.00384821
1.27663,-0.059032
1.17103,-0.10535
0.0641795,-0.0387254
-1.0315,-0.000667686
-1.22224,0.0316066
-1.02413,0.0857845
-0.596084,0.0697753
-0.268188,0.023374
-0.040367,-0.0284161
0.11892,-0.0770612
0.142515,-0.0543634
0.0486509,0.0246112
-0.0338954,0.0313998
0.0491272,-0.00604427
0.203177,-0.0100069
0.333399,0.00952221
0.372417,-0.0152615
0.16601,-0.0134299
-0.0746712,0.0897308
-0.121531,0.0790332
-0.0419099,0.0267864
0.00493907,0.0162418
0.0411823,0.0130567
-0.0125887,0.00970939
0.0155694,0.00699739
0.177619,0.00672064
0.228589,0.0241399
0.183951,0.0304015
0.0583298,-0.0144406
-0.120905,-0.0566165
-0.263255,-0.0580759
-0.193237,-0.0332561
-0.142756,-0.0100918
-0.287248,0.0127136
-0.220826,0.0189045
0.0101746,0.00241313
0.141953,-0.0572679
0.256782,-0.135801
0.323411,-0.0806509
0.257187,0.0400676
0.156457,0.0443347
0.0173434,0.00892669
-0.0400854,0.0368913
0.0318036,0.0716631
-0.0960763,0.024987
-0.275429,-0.0312293
-0.206606,-0.0776628
0.0117643,-0.0869391
0.146593,0.0240626
0.0732451,0.0664179
-0.246936,0.0629221
-0.220127,0.0532755
-0.0055161,0.0429378
0.0890571,0.019563
0.0486471,0.00213231
-0.0270721,0.000713412
0.0096429,-0.0282719
0.0777448,-0.0428668
0.177411,0.0108781
0.276917,-0.000218297
0.160306,-0.00858989
-0.0232238,-0.0304075
-0.120529,-0.00991927
-0.169892,0.0164405
-0.19251,0.000708935
-0.249659,-0.00547647
-0.262896,0.00875055
-0.190051,0.0127633
-0.0874109,0.0189049
-0.0142878,0.0158376
0.00973252,-0.00295579
0.0449829,-0.000431097
0.170542,0.00748553
0.301463,0.00211527
0.38612,-0.00304313
0.280923,-0.0159957
-0.0219806,-0.0164857
-0.158939,-0.0100012
-0.210654,0.00938708
-0.00420458,0.0266473
0.580881,-0.0552472
0.852257,-0.163565
0.623898,-0.0685872
-0.0426937,0.115789
-0.861389,0.109438
-0.976981,0.0449818
-0.710614,0.0062883
-0.368837,-0.0452803
-0.101718,-0.0721916
-0.00941639,-0.0353859
0.00548289,0.0158008
0.0183478,0.0377096
0.0124861,0.0316243
0.0619883,0.0178273
0.136025,0.014353
0.235851,0.00797102
0.262122,-0.00147082
0.062645,0.0193783
-0.139742,0.0416762
-0.223437,0.0302584
-0.145182,0.00226982
0.0341302,-0.022517
0.0848848,0.000272161
0.083573,0.029934
0.108836,-0.0366746
0.264254,-0.0632368
0.573507,-0.0222549
0.811841,0.0200518
0.833169,0.0729345
0.748097,0.11262
0.0334278,0.048684
-0.738672,-0.0874712
-0.891275,-0.147464
-0.956762,-0.100051
-0.82071,-0.0141253
-0.442092,-0.012146
-0.0993313,-0.00653491
0.0701919,0.00389681
0.101274,0.0169675
0.0901384,0.0189035
0.0742687,0.0100663
0.0639624,0.0051131
0.0653818,-0.00237945
0.0634847,-0.00715122
0.0308416,0.0198641
-0.0244225,0.0277118
-0.0354277,0.0147099
0.0299454,0.0147086
0.122504,0.0160003
0.155651,0.0118843
0.16259,0.00793481
0.198371,0.006018
0.184125,-0.01242
0.158107,-0.00843669
0.078015,0.0377228
-0.0287181,0.0314982
0.148489,-0.0146522
0.208722,-0.050011
0.0320954,-0.0521852
-0.151753,-0.0322876
-0.349238,-0.00254351
-0.331997,0.0143991
-0.20722,0.0154499
-0.112954,0.0136771
-0.0543662,0.0248932
0.000122888,0.0321242
0.0575577,0.0355436
0.0275121,0.0205535
0.0197242,-0.00339702
0.155276,-0.029392
0.291699,-0.0204456
0.409231,-0.00418735
0.333207,-0.00548443
0.125343,-0.00396863
-0.0947981,-0.00206961
-0.168779,-0.00961958
-0.244901,-0.0330114
-0.504154,-0.0219578
-0.47488,0.0283354
-0.275198,0.0354569
-0.128799,0.0255046
0.014978,0.00294021
0.0557938,-0.0683468
0.0267973,-0.113112
0.0233364,0.00235276
0.073598,0.0658056
0.174738,-0.00649395
0.168395,-0.0257523
0.0605841,0.0156897
0.00451391,0.00691294
-0.045978,0.0368306
-0.0427187,0.0832441
0.0898959,0.0526732
0.17326,-0.0129172
0.142751,-0.0641124
0.113341,-0.0608199
0.0398675,-0.021066
0.0517671,-0.000182502
0.0633922,0.0173412
-0.0531562,0.035735
0.0567084,0.0341097
0.31234,0.040192
0.296297,0.0262361
0.0137043,-0.0163356
-0.456231,-0.0283081
-0.631285,-0.0456961
-0.26131,-0.00898357
0.160156,0.0104054
0.275858,-0.00333663
0.0654244,0.00219367
-0.0777956,0.0260713
0.145227,0.0361857
0.223035,0.00647333
-0.0826593,-0.0400258
-0.44575,-0.0484317
-0.417186,-0.0778561
-0.17949,-0.0748577
-0.0639382,0.00619794
-0.0242439,0.0539191
-0.00214771,0.0547985
0.158412,0.0405389
0.195351,0.0446413
0.0722592,0.0296847
-0.0546347,-0.0084914
-0.156197,-0.0429986
-0.0866406,-0.03508
0.0627988,-0.0189661
0.159425,-0.0127001
0.201544,0.00354737
0.214499,0.0360892
0.152419,0.0526926
0.133527,0.0592737
0.175343,0.0258169
0.0692493,-0.00633364
0.0325149,-0.00612306
0.0986163,0.00513541
0.101482,0.0307684
0.169677,0.0399073
0.149161,0.008703
0.243002,-0.0488383
-0.00315087,-0.0539106
-0.498145,-0.0324957
-0.608981,-0.0522563
-0.517699,-0.0668748
-0.311045,-0.0406504
-0.197196,0.0141213
-0.0881994,-0.0265234
0.0212673,-0.0258375
0.11153,0.0277341
0.102905,0.0203114
0.0253885,-0.0175047
0.00417149,-0.0309727
0.183177,0.000469563
0.384222,0.025905
0.332,0.0298626
0.183906,0.013589
-0.00172719,-0.003295
-0.111848,0.0172126
-0.0435785,0.0178387
-0.0416137,-0.00229668
-0.126005,0.00227775
-0.155691,0.0232592
-0.0976349,0.0258481
0.0502775,0.0103486
0.0955941,0.00591923
0.0336522,0.010156
0.0175945,0.00909469
-0.122037,0.00472539
-0.288968,-0.00858311
-0.228698,-0.0112677
-0.0625719,0.0140618
0.0265185,0.0227179
0.0527467,0.0132239
0.0550238,-0.00152158
0.110071,-0.00881914
0.189929,-0.00845905
0.252622,-0.010069
0.19732,-0.00617008
0.0402264,0.0024919
0.0618866,0.0198793
0.266262,0.0190915
0.390544,0.0358663
0.24528,0.0824993
-0.171795,0.0422553
-0.431338,-0.0257938
-0.345909,-0.082719
-0.0996578,-0.10865
0.0546833,-0.102493
-0.0536826,-0.0994389
-0.152381,-0.0667441
-0.154732,0.0203167
-0.105171,0.0252994
-0.136756,0.0268287
-0.120203,0.0275195
0.015035,0.0164421
0.0686821,0.0187854
0.0351288,0.00729045
-0.00523118,0.00472491
-0.0164334,-0.00536316
0.0249741,-0.00422944
0.077248,0.0267591
0.0979724,0.0170046
0.0163632,0.0153167
-0.0545614,0.0337625
-0.0755008,0.0387964
-0.0626224,0.0263399
0.00601554,0.0120929
0.0345638,0.00398701
0.0667988,-0.00710321
0.101939,-0.00929503
0.115958,-0.00959207
0.224779,-0.00600085
0.352831,-0.00215309
0.300873,0.00395203
0.0427868,0.00629163
-0.384897,-0.00886024
-0.50129,-0.0392875
-0.281808,-0.0297343
-0.11188,0.0127608
-0.006812,0.0280506
0.053923,0.0206522
0.0637114,0.0177471
0.0372001,0.0218086
0.0787373,-0.00580885
0.191998,-0.0277182
0.284535,-0.00340771
0.218731,-0.00345656
0.15862,-0.0241423
0.183849,-0.0181216
-0.0624242,-0.00992225
-0.280366,-0.00690555
-0.322093,-0.00602388
-0.323093,-0.0047374
-0.241831,0.0169506
-0.255536,0.0490104
-0.18629,0.0744049
0.121012,0.0779222
0.253763,0.0242631
0.149839,-0.0384193
0.0922349,-0.0415929
0.121202,-0.0507723
0.14623,-0.0861421
0.0700044,-0.0685357
-0.08415,-0.0808444
-0.254479,-0.064582
-0.179766,0.0154656
-0.00735154,0.0623705
0.118597,0.0427413
0.281181,0.0297761
0.39063,0.022931
0.121703,-0.000504459
-0.291876,-0.0166518
-0.484147,-0.0294248
-0.315156,-0.00657891
-0.0368488,0.0448288
0.29786,0.0427435
0.468794,0.0129015
0.319595,-0.00964962
-0.0653235,0.0103401
-0.310241,0.024217
-0.231504,0.0211493
0.0413032,-0.00449187
0.235119,-0.0157081
0.244083,0.0212598
0.140951,-0.00398837
-0.062025,-0.00617115
-0.287766,0.00368486
-0.350748,-0.00605109
-0.26277,-0.0132129
-0.105706,-0.00361228
0.0830537,0.0119352
0.193722,0.00855568
0.202065,-0.000302634
0.0412379,-0.0111752
-0.143316,0.0139588
-0.0735117,0.0627045
0.045572,0.0420709
0.0338476,0.00130858
-0.0350486,-0.0489035
-0.0492249,-0.0833229
-0.0231004,-0.0703537
0.0307913,-0.00350713
0.0360866,0.0471215
-0.0443451,0.0130979
-0.0739506,-0.0232266
-0.0533907,0.00447804
-0.0148185,0.0209669
0.0807165,0.016729
0.131936,0.0116513
0.107339,-0.0247181
0.0279222,-0.0633189
-0.0560349,0.0116855
-0.0642891,0.0594699
0.136907,0.048469
0.508593,0.0450996
0.612577,0.0497897
0.268663,0.0271242
-0.33058,-0.0346934
-0.488207,-0.143065
-0.13291,-0.121213
0.0739466,-0.0387062
-0.0646495,0.0236356
-0.386572,-0.0328932
-0.371833,-0.0239941
-0.182127,0.0512261
-0.0106649,0.0333055
0.149431,0.0111194
0.112581,0.0238925
0.0444271,0.020368
0.0816127,0.0112179
0.109949,0.012692
0.109142,0.0173371
0.0382504,0.0175997
-0.0758492,0.0116998
-0.0771312,0.010134
-0.14279,0.0179143
-0.226887,0.0193044
-0.211723,0.013792
-0.0739778,0.0121606
0.137609,0.00214337
0.225216,-0.0165566
0.241381,-0.00530783
0.200784,0.0131666
0.0701381,0.00225506
-0.0303598,-0.015888
-0.188083,-0.0172954
-0.282383,-0.00766321
-0.146431,0.0013503
-0.0541674,0.00606498
-0.0691053,0.00748479
0.0461778,-0.000682763
0.198586,-0.00273511
0.25624,-0.000374167
0.153934,-0.00769663
-0.0256355,-0.00895539
-0.092998,-0.00455938
-0.0165894,0.00342715
0.0475536,0.0141561
-0.000726809,-0.00394337
-0.0136281,-0.0181568
-0.0164362,0.00668699
0.0100638,-0.00741476
0.0909216,-0.0314559
0.319253,-0.0367913
0.599006,-0.0403564
0.522492,-0.0643917
0.203676,-0.0814945
-0.249103,0.0195648
-0.614571,0.0623647
-0.656881,0.0262155
-0.612378,-0.025379
-0.351234,0.0313878
-0.0641005,0.051552
0.10946,0.0308593
0.136385,0.0423901
0.0653235,0.0213852
0.0122085,-0.0155878
-0.00592935,-0.0252463
-0.0169983,-0.0318656
-0.0439912,0.0121186
-0.0876965,0.0154452
-0.121166,0.0180575
-0.0465145,0.00278667
0.24927,-0.0384872
0.58691,-0.0706673
0.591138,-0.0357507
0.326173,0.0164363
-0.114258,0.0282923
-0.316201,0.0183645
-0.248639,-0.0131178
-0.199249,-0.00192092
-0.107021,0.0466167
0.0350851,0.0555584
0.186419,0.0339016
0.277579,0.0077392
0.170766,-0.00641893
-0.155151,-0.00752295
-0.42642,0.00474142
-0.350006,0.0176868
-0.110098,0.0114997
-0.0290202,0.0162738
-0.0415121,0.0243481
0.0246517,0.0149927
0.0569163,-0.00526197
0.0671945,-0.0450242
0.0968491,-0.0787871
0.125408,-0.0291848
0.113001,0.0214152
0.0657375,0.000710271
-0.0121405,-0.0187446
-0.0534676,-0.00294848
0.0187654,0.0151536
0.163813,0.0107878
0.156844,-0.00404903
0.0244048,0.00272307
-0.150441,0.0111694
-0.277109,0.0140603
-0.197371,0.00585321
-0.0764685,-0.0128902
0.0515364,-0.0406915
0.104778,-0.0347392
0.103944,0.0120266
0.0645863,0.0311467
0.0180421,0.0275202
-0.00588394,0.00432745
0.0474038,0.00787878
0.0767822,0.0206202
0.0232254,0.00243753
-0.10577,-0.0198158
-0.175794,-0.0124196
-0.108909,0.0180515
-0.0364041,0.0289813
0.0309785,-0.0237623
0.172471,-0.0292461
0.390313,0.0168674
0.462028,-0.0515363
0.295406,-0.0735201
0.0577255,0.0324951
-0.072904,0.0649986
-0.145736,0.0355307
-0.33932,0.00308256
-0.448174,-0.00473021
-0.399795,0.0034338
-0.299598,-0.0490999
-0.143488,-0.0677308
-0.00356377,-0.0293756
0.150406,-0.0314532
0.201657,-0.0671156
0.0936684,0.0111918
-0.129103,0.0660972
-0.20508,0.0454401
-0.048901,0.0342905
0.0413317,0.0278898
0.193965,0.0249731
0.249255,0.0222827
0.172421,0.00164438
0.203491,-0.00811257
0.146573,0.0117666
0.0452113,0.0280307
-0.120796,0.0295819
-0.18679,0.00892327
-0.00630628,-0.00429473
0.0752768,-0.00529406
0.0523622,-0.000886444
-0.11859,0.0063259
-0.165552,-0.0152604
-0.132164,-0.0152477
-0.192528,0.0153838
-0.0134716,0.0329336
0.232038,0.0103604
0.310995,-0.00059922
0.146337,-0.0369798
-0.0467055,-0.0992941
0.0811448,-0.10219
0.330446,-0.0571464
0.341778,0.00754292
-0.0387126,0.0525526
-0.548037,0.0272488
-0.541857,-0.0251604
-0.281691,-0.0260611
-0.18847,0.0348424
-0.0378709,0.057095
0.178768,0.0678694
0.261499,0.0403541
0.126644,-0.000278109
-0.161442,-0.013848
-0.323726,-0.0180864
-0.145973,-0.0183415
0.0882777,-0.00480361
0.213722,-0.0062834
0.253813,0.0151473
0.160006,0.0129431
0.0355956,0.00317447
0.0353273,0.00342457
0.0443861,-0.00737455
0.0499241,-6.06e-05
0.0094027,0.00109431
-0.0732721,-0.0151014
-0.053864,-0.0381678
0.0443148,-0.0378474
0.0618693,0.00445547
0.119873,0.00905554
0.132153,0.0312334
-0.0091101,0.0178847
-0.0411373,-0.00262103
0.100897,0.0282968
0.0218913,0.0696201
0.00979936,0.0689855
-0.0604278,0.01192
-0.183828,-0.0286206
-0.219204,-0.0520727
-0.0863504,-0.0753213
0.0287162,-0.0666818
0.0123234,-0.0280427
-0.00173308,-0.00766388
-0.0923287,0.0240557
-0.221693,0.00814191
-0.139506,0.00580702
0.00199866,0.0185631
0.0176689,-0.025613
0.00525369,-0.0640718
0.0655094,-0.0693306
0.11148,-0.000331234
0.043038,0.0750485
0.0236886,0.0689515
0.0193005,0.0357614
-0.0064505,0.000877245
0.010275,-0.0248944
0.0247541,-0.00736761
0.0852342,-0.00402032
0.239767,0.00580293
0.316983,0.0225273
0.223096,0.00250743
-0.0788576,-0.00695694
-0.271391,0.0135496
-0.273315,0.0145175
-0.265841,0.0133261
-0.112432,0.00663504
0.032782,0.0102454
0.0989302,0.025262
0.138578,0.00926709
0.111452,0.00156752
0.0967417,0.0118844
0.0428539,0.00436458
-0.0303871,-0.00953885
-0.044019,-0.00686924
-0.0154226,-0.0106857
0.0783999,-0.000584874
0.079866,0.0240211
0.0512168,0.0326302
-0.00309884,0.00929661
-0.169561,-0.0309566
-0.137647,-0.0791866
-0.0548296,-0.0760837
0.00712367,-0.0225004
0.069316,-0.00348505
-0.018418,-0.0116708
-0.0817845,-0.0263832
-0.0852005,-0.000844479
-0.134551,0.0313181
-0.212321,0.0274862
-0.12873,-0.00893098
-0.0230197,-0.0164054
-0.006998,-0.00942626
-0.00438174,-0.0160904
0.0562605,0.0366445
0.218057,0.066182
0.387906,0.0536177
0.450431,0.0420286
0.285117,0.00865557
0.0851724,-0.0309299
-0.0274512,-0.0233092
-0.053214,-0.00198344
0.0847612,0.00984839
0.0293867,-0.0195638
-0.177766,-0.0366761
-0.280911,-0.0338079
-0.436325,0.0180749
-0.466013,-0.00208662
-0.282175,-0.0566054
-0.122047,-0.0103918
-0.0274026,0.0554114
0.0308645,0.0418278
0.0412864,0.00302104
0.0562347,-0.0245786
0.12023,0.0324029
0.185883,0.0505641
0.179253,-0.0359081
0.28916,-0.0280545
0.525602,-0.0178036
0.54258,-0.0549581
0.255265,-0.0595909
-0.207076,-9.57e-05
-0.453278,0.0560257
-0.340524,0.0430607
-0.28592,0.0319812
-0.243144,0.0222076
-0.151927,0.0063376
-0.0513442,-0.00146512
-0.0310622,0.0166681
-0.0646883,0.0269763
-0.0926133,0.0128763
-0.0913547,0.000771766
-0.0501442,-0.00326541
0.0208238,-0.00534946
0.0875462,-0.00540995
0.0710217,-0.000701969
0.0595574,0.00240469
0.177366,-0.00282036
0.309782,-0.026047
0.422191,-0.0637468
0.373946,-0.0282808
0.456314,0.0323996
0.64727,0.00805144
0.332524,-0.0506691
-0.274757,-0.0527087
-0.894206,0.0249232
-0.907222,0.0566102
-0.418517,0.0317318
-0.100558,0.0108596
0.0224731,-0.0163461
0.067055,0.0195036
-0.0678757,0.0478951
-0.230917,0.0345691
-0.213566,0.00968916
-0.0786002,-0.0115501
0.10244,-0.0566215
0.280966,-0.0543691
0.39115,-0.0451501
0.265421,-0.0302048
0.0968895,0.00552581
-0.0597432,0.0307463
-0.0768815,0.019818
-0.0204947,0.00178516
-0.206835,-0.0171639
-0.262531,0.00183884
-0.0994912,0.00896108
0.132621,0.00769746
0.302653,0.0102356
0.253258,0.0167852
0.101703,0.0176131
-0.126236,0.00577614
-0.231797,-0.0202657
-0.145724,0.0337157
-0.0767305,0.0176086
-0.00581812,-0.0699642
0.0283188,-0.0666465
0.0398143,-0.000582098
0.0854036,0.0096744
0.109449,0.0089278
0.0722344,0.0147509
-0.0382137,0.0194107
-0.0138113,0.0147396
0.235597,0.0072274
0.313039,-0.0083823
0.152428,-0.0242294
-0.0789811,-0.0144026
-0.319969,0.0259875
-0.342305,0.0551885
-0.161633,0.0508824
-0.103102,0.0310044
-0.0681348,0.0192368
0.00951628,0.0294874
0.0304189,0.0390819
0.00470325,0.0099987
0.049726,-0.0240677
0.320549,-0.0639499
0.621302,-0.0807985
0.472608,-0.0292592
0.057401,0.0103616
-0.273052,-0.0102323
-0.468742,-0.00679357
-0.464186,-0.0208368
-0.307399,-0.0374946
-0.118,-0.0475806
-0.044793,-0.0352427
-0.0492645,0.00450534
-0.0109576,-0.0199595
0.0098312,0.0114344
-0.00594926,0.0319083
-0.00912875,0.0167483
0.0827441,0.0220245
0.18036,0.00120862
0.2033,0.0212656
0.168722,0.0134026
-0.00147211,0.000682636
-0.0667586,0.0253013
0.128145,0.0427957
0.298908,0.0136347
0.249224,-0.0136015
-0.0587115,-0.0351216
-0.311965,-0.0490849
-0.291893,-0.00579311
-0.154149,0.0352491
-0.0442434,0.0286941
0.0611118,0.0182594
0.156672,0.0103485
0.193286,-0.00104037
0.100638,0.00532584
-0.0399333,-0.000790286
-0.273368,-0.0113874
-0.420617,0.032719
-0.245202,0.0611748
0.0224316,0.024773
0.109092,-0.0384381
0.0601216,-0.0468468
0.0587527,-0.010305
0.0477874,0.0148224
0.0356972,0.00525962
0.0619468,-0.00734833
0.0614457,-0.0397912
0.0331406,-0.063699
0.024699,-0.00888145
0.162227,0.0084908
0.290447,0.000828921
0.390691,-0.00135464
0.282513,-0.00459223
-0.0798985,0.00193533
-0.391963,0.0157863
-0.51048,-0.000725164
-0.275042,0.0210769
0.0472852,0.0431618
0.263801,0.00516139
0.368817,-0.0277491
0.371877,-0.00517519
0.205584,-0.0250919
-0.144123,-0.0751638
-0.534436,-0.00252762
-0.575373,0.0225902
-0.361342,0.00708582
-0.172411,0.00482102
-0.106323,0.0101798
0.00110902,0.0275076
0.197262,0.0194508
0.365167,0.00396259
0.358542,-0.016452
0.178028,-0.0460113
-0.136165,-0.013268
-0.25268,0.0469109
-0.160518,0.0365279
-0.117905,0.0362126
-0.0221353,0.0472021
0.0868009,0.0390013
0.169469,0.030125
0.157418,0.00425654
0.102831,-0.0214473
0.00155429,-0.0351134
-0.142564,-0.0236339
-0.13882,-0.0059138
-0.00784164,-0.0138066
0.14327,-0.0273029
0.230584,-0.0444471
0.222616,-0.0253886
0.0137496,-0.00788218
-0.163482,-0.0334218
-0.151042,-0.0636839
-0.0310371,0.00166052
0.0157958,0.0425076
-0.0224418,0.0270634
0.0141422,0.0217014
0.0445912,0.0238273
-0.00914918,0.025121
-0.0586159,0.0231322
-0.0475679,0.0198658
0.0225898,0.0310808
0.0228966,0.0253853
-0.00980688,-0.0255998
-0.0644091,-0.0669942
-0.176594,-0.0781533
-0.130809,-0.0420649
0.0282,0.0152595
0.173532,0.0347113
0.289165,0.0526706
0.40164,-0.0304185
0.316662,-0.0729247
0.197338,0.0292357
0.103265,0.0672769
-0.122021,0.0422804
-0.204013,0.012461
-0.185095,0.0529935
-0.234888,0.0640729
-0.19593,0.000286132
-0.176161,-0.0357552
-0.194438,-0.0246601
-0.139033,-0.0289474
-0.114667,-0.0436166
-0.126612,-0.0184045
-0.130952,-0.00647899
-0.0530688,-0.00405147
0.0240466,0.00570901
0.0405994,0.0131033
0.0466555,-0.000360925
0.0691072,-0.0117681
0.0887465,-0.003936
0.0941697,-0.00463749
0.0480611,-0.0279323
0.000421861,-0.0284951
-0.0116693,0.00706365
0.0094351,0.0232952
0.0624785,0.0121645
0.0853608,-0.024559
0.0699266,-0.0479295
0.133256,-0.00472749
0.365889,0.017098
0.548699,0.0191463
0.373169,0.0271831
-0.00970653,0.0512203
-0.448626,0.0379953
-0.601738,0.00118043
-0.250419,-0.00523772
0.241545,-0.00144916
0.473651,-0.0230671
0.245548,-0.0136254
-0.259594,-0.00761639
-0.62796,-0.00251407
-0.536394,-0.0249833
-0.287034,-0.0488102
-0.054754,0.00139325
0.137673,0.0369401
0.175434,0.0251422
0.0211432,-0.00824701
-0.0143518,-0.0121406
-0.122675,0.0164522
0.094113,0.0494842
0.245739,0.0152637
0.13249,-0.0144709
-0.0157632,-0.000612787
-0.0995781,0.0134728
-0.0422828,-0.00126741
0.0695404,-0.0253364
0.131164,-0.0699268
0.107658,-0.0444055
0.0120206,0.0146214
-0.0672941,0.052739
0.0252634,0.0412227
0.211026,0.00653678
0.318232,0.00837488
0.288485,-0.00496069
0.114793,-0.00991783
-0.13434,0.0057303
-0.373448,0.020617
-0.399224,0.00454515
-0.183778,-0.0141525
-0.111951,-0.0277575
-0.0927875,-0.0280014
-0.0384132,-0.0213999
0.0477339,-0.0180013
0.114026,-0.0156793
0.179924,0.0030706
0.18203,0.00694807
0.0499686,0.0179508
-0.0347292,0.0251046
-0.116966,0.0206917
-0.0972574,0.0193223
0.0127842,0.0158198
0.0658036,0.00782548
0.0206092,0.0138211
-0.116574,0.0252127
-0.143992,0.00648273
0.106911,-0.0118128
0.386144,-0.0307908
0.435055,-0.0333123
0.275034,-0.0316776
0.0756182,-0.0445007
0.0231224,0.00691711
-0.138996,0.045084
-0.505051,0.0321641
-0.580011,0.0218724
-0.356125,0.0229793
-0.14847,0.00688896
-0.0256459,-0.00282025
0.045329,-0.0260493
0.117086,-0.0448911
0.0603799,-0.0414405
-0.0162147,-0.050835
-0.00311554,-0.0182718
0.0255043,0.0123
0.171101,-0.0188764
0.369943,0.00889738
0.373481,0.0305108
0.148502,-0.0280673
-0.18188,0.0257827
-0.267783,0.0619113
-0.101543,0.00409891
-0.0555531,-0.0138251
-0.0662768,-0.0218929
-0.0837869,-0.00498855
-0.100672,0.0360665
-0.0608343,0.0646927
0.105731,0.076644
0.183257,0.0552723
0.0634852,0.00287181
-0.0681375,-0.0288097
-0.139036,-0.0380193
-0.107444,-0.0441775
0.037355,-0.0354941
0.146637,-0.0194846
0.195857,-0.0142915
0.110506,-0.0132421
-0.0244971,-0.00920598
-0.0436867,-0.00297887
-0.0578527,-0.015537
-0.0235098,-0.0575302
0.0280882,-0.0224049
-0.0322689,0.047417
-0.0026526,0.0373237
0.145189,0.0230386
0.21191,0.0167766
0.0557824,0.0108384
-0.138428,0.00509215
-0.145529,0.0145741
-0.00567187,0.0315894
0.2431,0.071521
0.288658,0.0775273
-0.00509827,-0.000614252
-0.141889,-0.0579844
-0.221195,-0.0789697
-0.396493,-0.0589679
-0.373669,-0.0301438
-0.172669,-0.0176277
-0.0542346,-0.0124691
-0.0101089,-0.0177315
0.0217794,0.000409312
0.0463648,0.00935595
0.116076,-0.00267547
0.221115,-0.00829535
0.243182,0.00485143
0.109456,0.0211617
-0.133194,0.0333151
-0.277964,0.0412808
-0.0998149,0.0256697
0.191715,0.00443582
0.395292,-0.00773273
0.436708,-0.0327053
0.257641,-0.0525946
-0.1194,-0.0410735
-0.287531,-0.0427316
-0.178214,-0.0448449
-0.0303011,0.035675
-0.11389,0.0573068
-0.198287,0.0192029
-0.0921704,0.0122465
-0.0403518,0.0137611
-0.070056,-0.000418093
-0.115301,-0.00849774
-0.0881911,-0.0094999
-0.013673,-0.00459932
0.0511934,0.025631
0.0734827,0.0217564
0.0346985,0.00385233
-0.0407843,-0.0229413
-0.0404425,-0.0564807
0.0452903,-0.0269591
0.08908,0.0402884
0.239088,0.0502812
0.679294,0.0287244
0.86263,0.0242715
0.638313,0.0258684
0.0210593,0.00335653
-0.639136,-0.0159507
-0.781837,-0.0174974
-0.736661,-0.0204713
-0.524317,-0.0284367
-0.194585,0.013894
0.00608746,0.0198706
0.0737097,-0.00313073
0.0387023,-0.0212763
0.00521973,0.00103685
0.0451308,0.0228163
0.0741826,0.0251976
0.0188324,0.00842336
-0.0432277,-0.0077639
-0.0148501,-0.00537363
0.0100354,-0.00121594
0.0591005,-0.00362351
0.147027,-0.0101701
0.1766,-0.0151706
0.121739,-0.0127267
-0.0155294,-0.00961115
-0.0927409,0.00204847
-0.00344196,0.0161541
0.0892394,0.0236918
0.108476,0.0096989
0.14043,0.0083454
0.246238,-0.00736538
0.319354,-0.0272299
0.199547,-0.0228035
-0.0592428,-0.0417714
-0.419157,-0.0457118
-0.48866,-0.0367858
-0.250294,-0.0096181
-0.0437481,0.0126554
0.0904269,0.0299993
0.204834,0.0314036
0.0799725,0.0230747
-0.12284,0.00891092
-0.137279,-0.00498048
-0.00516393,0.00184699
0.109673,0.0183855
0.131315,0.0218302
0.0147654,0.0164037
-0.149403,0.0143433
-0.109983,0.0098326
0.004299,0.00752393
0.0436372,0.00157825
-0.0717063,-0.0134852
-0.194608,-0.0174892
-0.0154901,-0.00957961
0.362978,-0.00638369
0.628667,-0.0169651
0.603245,-0.0191656
0.154406,-0.0087046
-0.325622,-0.00157237
-0.530258,-0.00646801
-0.526134,-0.0212827
-0.345707,0.00496278
-0.0808204,0.0280965
0.0793347,0.0257309
0.080273,0.00361074
0.0246148,0.00337738
0.0195498,0.0141329
0.0592632,0.0189447
0.0681825,0.0167477
0.0816087,0.00946335
0.067425,-0.00522628
-0.0415131,-0.0072943
-0.0941754,-0.0194625
-0.0397759,-0.0240404
0.027163,-0.027497
-0.0355416,-0.0234923
-0.101137,-0.015787
-0.0494374,-0.00469233
-0.0850298,0.0269846
-0.0501599,0.0312407
0.083344,0.0122226
0.115267,0.00264493
0.0414648,0.00773112
-5.4e-05,0.0144833
0.206134,0.0219263
0.382565,0.0267199
0.264811,-0.0464844
-0.0474307,-0.0828399
-0.390524,-0.0282675
-0.405073,0.0148445
-0.196965,0.0112328
-0.0606592,0.000409746
0.0565212,0.00625706
0.104942,0.0162054
0.103608,0.0125911
0.102152,0.0136244
0.139427,0.025804
0.332228,0.026995
0.397948,0.00310922
0.23361,-0.0235556
-0.11539,-0.0182538
-0.423673,-0.0086486
-0.374912,-0.00394222
-0.250391,0.0018202
-0.153556,-0.00196123
0.0288043,-0.0269913
0.0882197,-0.0140341
0.0920236,0.00233718
0.200359,0.0100607
0.0880805,0.0290859
-0.145826,0.046005
-0.151271,0.0542915
0.0318756,0.0279294
0.0687161,-0.00761078
-0.0323158,-0.0270519
-0.0612564,-0.0344315
0.0808767,-0.0255154
0.163395,-0.0198788
0.00762779,-0.0115612
-0.237262,-0.0106575
-0.295296,0.00306788
-0.0380722,0.00578774
0.236612,-0.0277053
0.286707,-0.0428294
0.167001,-0.0184603
-0.0560155,0.0125054
-0.138327,0.0323228
-0.119362,0.0241543
-0.0855644,0.00947417
0.0624776,-0.0133692
0.26257,0.00101614
0.252176,0.0160726
-0.017598,0.00156167
-0.292829,-0.00310777
-0.345197,0.00719461
-0.202142,0.0132763
-0.0766752,0.00898282
0.000193236,0.0340711
0.0701463,0.0378553
0.0542616,-0.0202367
0.0389787,-0.04702
0.0468585,-0.0231358
0.0649216,-0.0146617
0.0405291,-0.0152429
-0.0285849,-0.0155217
-0.00431044,-0.00558645
0.135968,0.00809983
0.241385,0.0106095
0.245365,0.00340787
0.0710514,-0.00419507
-0.0660543,0.00503677
0.0603114,0.00983497
0.0530383,0.00725151
-0.0810283,0.00834509
-0.0714548,0.0122702
0.0675675,0.0100597
0.12128,0.00326415
0.0690877,-0.00682304
-0.0916806,-0.0262219
-0.227052,-0.026856
-0.358885,-0.000553433
-0.346454,0.0117951
-0.194763,0.0388433
-0.0843304,0.0384018
-0.0203981,-0.00192278
0.02522,-0.00712466
0.0504526,-0.00780579
0.051312,-0.0121853
-0.0122782,-0.00580267
-0.0666299,-0.00402447
-0.0121239,-0.0104349
0.170745,-0.0118912
0.346117,-0.00466571
0.406106,0.00202874
0.46748,0.00949432
0.327655,-0.0149459
0.00317003,-0.0226174
-0.232887,0.0184297
-0.37649,0.0344918
-0.351346,0.0162214
-0.246626,0.0023946
-0.122987,-0.010274
-0.0301572,-0.029797
-0.0125094,-0.0268226
-0.0512374,-0.00286435
-0.0732344,0.00359566
-0.0493945,0.0228009
0.0048059,0.0341149
0.0501884,0.0224371
0.0512346,-0.0100907
0.0333905,-0.0520879
0.0321483,-0.0330749
0.0612988,0.0358529
0.144563,0.00764323
0.30726,-0.00434897
0.383522,0.00739334
0.264316,-5.52e-05
-9.99e-05,0.000401694
-0.20013,-0.0232169
-0.291995,-0.016817
-0.254341,0.0033387
-0.0511739,0.011634
0.0992089,0.0151112
0.198236,0.0205357
0.0901842,0.0184192
-0.162256,0.0143648
-0.211848,0.00387509
-0.290177,-0.0111709
-0.301109,-0.00220526
-0.00704884,-4.06e-05
0.178572,-0.0342212
0.113987,-0.0446786
-0.0571172,-0.0154264
-0.108315,0.00680856
0.0796587,0.0179622
0.272408,0.0235325
0.365538,0.0257355
0.279398,-0.00260387
0.0893764,-0.0280193
-0.0577287,-0.0370322
-0.259694,-0.0321726
-0.340539,0.0286838
-0.241642,0.0454353
-0.241823,0.0226478
-0.223713,0.0159214
-0.0997459,0.00976072
0.0636066,0.000931511
0.147719,0.00292072
0.116474,0.0119596
0.0422636,0.00562201
0.0235758,-0.00227649
0.0779762,-0.012042
0.154881,-0.0193399
0.108386,-0.0267298
-0.017478,-0.010138
0.0107436,0.0164509
0.171959,0.0187305
0.325506,0.0088671
0.218974,-0.00249277
-0.0742547,-0.00642445
-0.0689642,0.0024087
0.3366,0.0088159
0.475853,0.00799418
0.128489,0.00216077
-0.524772,0.00226944
-0.673352,-0.000821498
-0.364802,-0.00608598
-0.31037,-0.0053628
-0.275446,-0.00538077
-0.105103,-0.0117473
0.00569649,-0.0133626
0.0374041,-0.0035201
0.019473,-0.00409723
0.0248047,-0.0184209
0.0630236,-0.0572184
0.102213,-0.0759529
0.120129,0.0102451
0.213514,0.0356596
0.367603,0.0219252
0.389423,0.013747
0.166937,0.0148358
-0.211245,0.0242573
-0.324274,0.0293702
-0.158031,0.0221855
-0.043805,0.0146682
-0.0381566,0.0128281
-0.00490689,0.00908166
0.00450232,0.00736988
-0.0574914,0.000772821
-0.106897,-0.0168795
-0.115274,-0.0184429
-0.0407367,-0.0151448
0.0475567,-0.0172989
0.101135,-0.0158863
0.0865143,-0.0076305
0.050749,-0.000601679
0.0505965,0.00769117
0.0309184,0.019364
0.0309609,0.0138803
0.0659069,0.00907789
0.108023,0.00201542
0.142256,-0.00609118
0.14133,-0.0114409
0.0326481,-0.00809802
-0.0838301,-0.0060031
-0.110802,-0.00921048
-0.160217,-0.00267872
-0.189318,0.00925133
-0.121875,0.0138358
-0.0319935,0.009132
-0.00191332,0.00541771
-0.0278467,0.014227
-0.0376791,0.0164355
0.0251306,0.0159076
0.0991004,0.0168722
0.0999212,0.0254739
0.0856489,0.0241378
0.0396663,-0.00337151
-0.00415966,-0.0216106
-0.0212631,-0.0290241
-0.0697034,-0.0281985
-0.0994781,-0.0189398
-0.113415,-0.0206917
-0.0864159,-0.025592
-0.0305343,-0.0132626
0.0305776,0.00153316
0.0967474,-0.00929486
0.140309,-0.00612866
0.225261,0.00226969
0.25196,0.00441194
0.223734,0.00121759
0.140083,-0.00240657
0.0236257,0.00872809
0.0575507,0.0121242
0.150856,0.00585417
0.118588,-0.00290128
-0.156246,-0.0065056
-0.596706,-0.00818589
-0.536152,-0.00292887
-0.200596,0.0270079
-0.00162462,0.0194731
-0.058158,-0.00222657
-0.232864,-0.009332
-0.181621,-0.00133678
-0.0615337,-0.00426657
-0.030001,-0.00179761
0.00111043,-0.00512571
0.0347312,-0.009634
0.0888454,0.008048
0.081639,0.0145298
0.0102507,0.00769643
-0.0212467,0.00690729
0.0396405,-0.00731089
0.132804,-0.010545
0.204317,0.0102335
0.275376,0.0153087
0.315621,0.0108214
0.268294,-0.00276357
0.330257,-0.00968591
0.407902,-0.00649572
0.250778,-0.0086185
-0.105449,-0.00708477
-0.507223,-0.0105638
