Comp Ch 3,Comp Ch 4
0.168535,-0.0111549
0.274744,0.00786734
0.298387,0.0294653
0.166408,0.03463
-0.144053,0.0274486
-0.410249,0.0176054
-0.382815,-0.00232763
-0.151043,-0.0116394
0.0448629,-0.019073
0.0974191,-0.0465212
0.0023176,-0.0570055
-0.00831886,-0.0373116
-0.0337272,-0.0246813
-0.0314201,-0.0135087
0.0415052,-0.0268923
0.0559834,-0.0038612
0.0339985,-0.00614589
0.0658781,-0.0405415
0.0804385,0.0509996
-0.000362012,0.0695099
-0.0227496,0.0414816
0.0566176,0.0470476
0.00680708,0.0516634
-0.0783934,0.0228677
-0.0903743,-0.0088696
-0.0632643,-0.0205314
-0.00495748,-0.023257
0.037782,-0.00727066
0.0836852,-0.0124005
0.108144,-0.0224411
0.121091,-0.02168
0.153513,-0.0123322
0.130127,0.0128479
0.0183758,0.0276294
-0.108761,0.0391634
-0.0849941,0.0215363
0.00207983,0.00793846
0.255678,0.0139806
0.466508,0.00898295
0.172051,-0.0178715
-0.307459,-0.0559766
-0.32706,-0.0435554
0.210684,-0.0729377
0.789025,-0.118277
0.562065,-0.115929
-0.0214421,-0.086814
-0.53164,-0.015419
-0.596653,0.0201911
-0.259638,0.0549583
-0.424545,0.0736144
-0.517735,0.072959
-0.304505,0.0688367
-0.187765,0.0715747
-0.012663,0.0760992
-0.0620362,0.075287
-0.0370078,0.060554
0.205511,0.0353681
0.345746,0.0169962
0.0434336,0.00544202
-0.31415,0.00968897
-0.198245,0.000985695
0.276078,-0.0258038
0.519525,-0.0568879
0.360779,-0.00756188
-0.0503321,-0.0116132
-0.293965,-0.0293959
-0.134915,-0.00949481
-0.00256603,0.00662356
0.0765799,0.00174101
0.194161,0.00654136
0.190709,0.00909069
0.0817843,-0.00117372
-0.112882,-0.0141222
-0.207535,-0.0229797
-0.105342,-0.0344479
-0.0392958,-0.02711
-0.0538345,0.00186144
-0.197711,0.0264093
-0.235431,0.0155905
-0.0874149,-0.00469071
0.0444051,-0.0126423
0.128664,-0.0149874
0.133215,0.00189229
0.195238,0.0131956
0.254278,0.00173086
0.338009,-0.0254352
0.44655,-0.0267117
0.578934,0.00025604
0.675683,-0.00734174
0.614596,-0.0198159
0.0766739,-0.00510554
-0.424985,-0.0205871
-0.803601,-0.0262529
-1.15664,0.00146547
-0.999012,0.030716
-0.532742,0.042665
-0.111067,0.0247461
0.0977395,0.0132148
0.378382,-0.00540867
0.775519,-0.0632999
0.682281,-0.0465039
0.165186,-0.0045925
-0.528054,0.00746558
-0.647206,-0.00690995
-0.236974,-0.0144667
-0.213276,-0.0038491
0.0623612,-0.016832
0.388293,-0.0202348
0.520972,-0.00487156
0.373006,0.0159718
-0.180146,0.0274268
-0.319083,0.030769
-0.0976436,0.0285065
-0.0264231,0.00822225
-0.0498966,-0.0169883
-0.200911,-0.0081538
-0.203861,0.0209878
-0.029167,0.0473194
0.117584,0.035957
0.176465,0.0113213
0.157306,-0.000765023
-0.02642,-0.00434937
-0.312161,-0.00877488
-0.289699,-0.0340716
-0.0916,-0.0188569
0.0544041,-0.0123635
0.128574,-0.0353547
0.234844,-0.0105546
0.404303,0.00182326
0.435263,-0.00657954
0.24428,0.000687022
0.234214,0.0138717
0.560721,0.02776
0.742011,0.0217646
0.491444,0.0145378
-0.225729,0.0396029
-0.976147,0.0406978
-1.0337,0.0445005
-0.699009,0.0488098
-0.36719,0.040863
-0.103588,0.0305439
0.0386572,-0.00584178
0.0179802,-0.0477239
-0.0543537,-0.0793832
-0.102773,-0.0158512
-0.0424127,0.00501452
0.151016,-0.0259996
0.331729,-0.0377107
0.301549,-0.0621921
0.0474561,-0.065119
-0.138569,-0.00947258
-0.0607107,0.0529457
0.116958,0.0121216
0.16892,0.0109995
0.0117162,0.0300017
-0.074643,0.0151785
0.0972854,-0.00334056
0.263996,-0.0051216
0.32202,-0.0131244
0.0933692,-0.0167234
-0.40651,-0.00041113
-0.363228,0.00761115
-0.0646114,-0.01083
0.135047,-0.0217673
0.312631,-0.0120321
0.302967,0.0187202
0.0551882,0.0367172
-0.231768,0.0372332
-0.353753,0.0190917
-0.257346,-0.00533697
-0.176409,-0.00984438
-0.0788399,-0.00513292
-0.00410918,-0.00769335
0.0779626,-0.0174352
0.141678,-0.0122768
0.163923,-0.00345673
0.0670352,0.00244247
-0.0851423,0.0125522
-0.114275,0.0319259
-0.0270912,0.0173624
0.0901921,-0.00372119
0.120241,-0.036608
0.0284837,-0.0593822
-0.0463912,-0.0607917
-0.133186,-0.0478895
-0.0589096,0.0304958
0.107769,0.0589463
0.253504,0.0341212
0.337318,0.0189833
0.186677,0.00736674
-0.0810341,-0.00608307
-0.0835049,-0.014596
-0.135202,-0.00998537
-0.175191,0.0195332
-0.208709,0.00162005
-0.285638,-0.0130211
-0.162732,0.0166299
0.00845494,0.0168539
0.0386231,0.0188334
0.151293,0.0197292
0.276859,0.000493482
0.226937,0.0113929
0.110428,0.0234355
-0.083692,0.0225421
0.00439719,0.00381737
0.00626015,-0.0169139
-0.37055,-0.0232485
-0.308341,-0.0146425
0.01545,0.0070667
0.095343,0.0246641
0.0734756,-0.00667153
0.114589,-0.0269937
0.102984,-0.0270831
0.0166518,-0.026997
0.0111951,-0.0214625
-0.137358,-0.0011924
-0.192738,0.00739732
-0.19673,-0.00193414
-0.120824,-0.00883888
0.00689188,-0.00337115
0.0790357,0.00812153
0.165103,0.0147262
0.226759,0.00934816
0.281326,-0.0115104
0.166497,-0.0286596
-0.0704949,-0.0143957
-0.178798,0.00318707
-0.115913,0.0159803
0.00120315,0.0131796
0.0860837,-0.0230374
0.286274,-0.041659
0.346761,-0.0275341
0.0792626,0.00944543
-0.24505,0.0211033
-0.269641,0.00220022
0.375583,-0.00349764
0.6852,0.000262987
0.296324,0.0147472
-0.765407,0.0455097
-1.11441,0.0342939
-0.511903,-0.00164704
-0.152614,-0.00977559
0.0527585,0.00047006
0.202613,0.00407813
0.22815,0.00883914
0.0927911,0.0045542
-0.105426,0.0101454
-0.134987,0.0120291
-0.0523165,0.00548508
0.0623295,-0.0207682
0.119691,-0.0268201
0.0644385,-0.0131383
-0.0382858,0.00906707
-0.0996703,0.0132632
-0.00664129,-0.000178011
0.100558,-0.00908732
0.118131,-0.0110782
0.163048,-0.0113909
0.209599,-0.00390711
0.154459,0.00255975
0.0419857,0.013841
-0.0436576,0.0221917
0.0317133,0.00349308
0.177875,-0.0113463
0.233148,-0.00730802
0.212893,0.00582084
0.164538,0.0130391
-0.0170936,0.0100039
-0.0597133,0.0129438
-0.416142,0.0113683
-0.50277,0.00705135
-0.158176,-0.00418474
0.0502815,-0.00554304
0.0943181,0.00494324
0.0586693,0.00733617
0.00146774,-0.016946
0.0238269,-0.0267673
-0.0266047,-0.0108062
-0.155604,0.0109048
-0.191745,0.0200519
-0.179305,0.0225113
-0.106269,0.00822765
0.0843836,-0.00747859
0.149369,-0.0120717
0.090905,0.00691521
0.0228398,0.00122699
-0.0330486,-0.0123222
0.0344254,-0.00592792
0.0974598,-0.0300561
0.0205996,-0.031785
-0.00479001,-0.0040866
0.0418897,0.00295374
0.0420433,0.00503898
0.00395326,-0.000207628
0.0516922,-0.00323518
0.104088,0.00180622
0.0739346,-0.00236498
-0.123542,0.00397213
-0.148929,0.00461833
0.121282,-0.000596432
0.328266,-0.00206986
0.248705,0.00180894
-0.0388518,-0.0107414
-0.346725,-0.0167542
-0.329231,0.0184942
-0.217163,0.029537
-0.0612823,0.0030024
0.0439433,-0.0220397
0.0971488,-0.00937645
0.12723,0.00363405
0.07529,0.0111314
0.0549552,0.0121631
0.0747744,-0.0147065
0.0125592,-0.0173707
0.010363,0.0148661
0.0632573,0.0162213
0.0130681,-0.00760866
0.0163786,-0.0133382
0.0156258,0.0194045
-0.180412,0.0426986
-0.327908,0.0214793
-0.0983554,0.000586344
0.148927,-0.029267
0.101529,-0.0376533
-0.0281921,0.00732161
-0.146654,0.031929
-0.0877898,0.0100127
0.0746586,0.00283993
0.240202,-0.0066699
0.214112,-0.0200228
0.164994,-0.0192768
0.334201,0.000193455
0.423738,0.0046561
0.271369,-0.0237585
-0.272117,0.00730225
-0.817353,0.0150184
-0.691036,0.00218175
-0.0282937,0.00580869
0.372483,0.00503105
0.382247,0.000504818
0.193564,-0.00823102
-0.146296,-0.0253329
-0.279502,-0.0123938
-0.331263,-0.00526788
-0.252808,0.00484986
-0.0899388,0.0170837
-0.0242949,0.012291
-0.0134265,0.00424033
-0.0151355,-0.00918491
-0.03425,-0.0169492
-0.0921956,-0.0191627
-0.0291711,0.0109718
0.0597144,0.00640477
0.110545,0.00291048
0.131343,0.0104676
0.123331,0.015818
0.13342,0.00671305
0.200671,-0.00439659
0.274572,-0.0167569
0.313452,-0.0331052
0.28592,-0.0171421
0.144125,0.0193415
-0.195231,0.0310945
-0.245981,0.0228141
-0.164634,0.00744231
-0.173771,-0.00357836
-0.0114893,-0.013065
0.083273,-0.0228906
-0.00674954,-0.0155186
-0.216996,0.00523802
-0.170616,0.0156762
0.0734565,0.00721691
0.116605,-0.00112605
-0.0459121,0.00236966
-0.147922,0.0142255
-0.0418453,0.0190261
-0.0174258,0.00697027
-0.0968629,0.0028868
-0.0786768,0.0111403
0.0348619,0.0160011
0.0925282,-0.00800456
0.0756563,-0.0177435
0.0650948,-0.0149626
0.131255,-0.00681714
0.215326,0.000251147
0.143573,0.00370977
0.0346389,-0.00465717
-0.0539969,0.000280372
-0.0761115,-0.00191213
0.0898157,-0.0215393
0.101135,-0.0248945
-0.0906196,-0.00747351
-0.184039,0.00851914
-0.151053,0.00409686
-0.0539433,-0.0051294
0.00747762,0.00187879
-0.0171114,0.000643133
-0.075562,0.0161412
0.173993,0.019335
0.209887,0.00495477
-0.00374002,-0.00231651
-0.273472,-0.00318476
-0.276557,-0.0139334
0.03093,-0.00382214
0.114945,-0.00507114
0.00145283,-0.001676
0.00362008,-0.00630506
-0.0564108,0.00485046
-0.0350828,0.0263308
0.073315,0.00101053
-0.0231919,-0.0284726
-0.0611547,-0.00626215
0.0581608,0.0114063
0.171292,0.00456559
0.0926034,0.000588252
-0.135515,0.0150162
-0.210897,0.0324789
-0.122993,0.0231293
0.0200374,0.00437808
0.0772151,-0.00832178
0.0242277,-0.0278752
-0.0355137,-0.0212457
-0.00210573,0.00473964
0.0616102,-0.00433322
0.11488,-0.0105394
0.160202,-0.00142747
0.140693,0.0163634
0.0136738,0.00359405
-0.0399256,-0.0331923
-0.067986,0.00278936
-0.0661798,-0.00529471
0.0538875,-0.00959936
0.13164,0.0137296
0.161145,0.0075744
0.0605672,-0.000115764
-0.0509549,0.00175455
-0.0896106,0.0128573
-0.254758,0.0110732
-0.211247,0.000449376
-0.0791259,-0.000248902
-0.0230223,0.0028766
0.096103,-0.0176925
0.236172,-0.0128101
0.219042,-0.00264909
0.0558613,-0.000189643
-0.115815,0.0152103
-0.166729,0.0208475
0.0204308,0.0064949
0.130191,0.000741082
-0.027551,-0.00687383
-0.246667,-0.0217986
-0.255419,-0.022446
-0.0898791,-0.00872014
0.00052263,-3.62e-05
0.0490401,0.00244257
0.0512784,0.00210001
0.0340814,-0.00678365
0.0882341,-0.00368002
0.154356,0.0053295
0.225645,-5.92e-05
0.210552,-0.00926784
0.0148228,-0.00291586
-0.289485,0.00707998
-0.288807,0.00798749
-0.16154,0.00404223
-0.152508,0.00473758
-0.0690498,0.012158
0.0479551,0.000288918
0.0684836,-0.00681148
0.0910185,-0.000269361
0.251872,0.000874539
0.371456,0.00588618
0.386827,0.0147535
0.341278,0.00737445
0.1407,0.00524146
-0.07989,0.00310404
-0.344051,-0.0184697
-0.523367,-0.0265226
-0.425483,-0.00565175
-0.0105208,0.00756165
0.334375,-0.00647487
0.384398,-0.00182309
0.170202,0.00337818
-0.279782,-0.0160035
-0.442957,-0.0160897
-0.349668,0.00954855
-0.211975,0.00482888
-0.0940621,0.052111
0.0108037,0.0444823
0.0967031,0.0109202
0.0803576,-0.00830388
0.0113587,-0.0120933
0.00208018,-0.0148277
0.0614243,-0.0198227
0.212676,-0.0125866
0.313661,-0.00573787
0.309757,-0.00496419
0.160177,0.00692358
-0.0591523,0.0189671
-0.128174,0.00552779
-0.251328,-0.0169686
-0.350385,-0.00664227
-0.18768,0.00984809
0.0150898,0.0289775
0.119154,0.0136776
0.111821,-0.00678868
0.108447,-0.00387488
0.0690182,0.00680281
-0.0246616,-0.0210623
-0.0328026,-0.0272064
0.103261,-0.0102464
0.290609,0.00319713
0.309616,-0.0157605
0.0443393,-0.0259463
-0.187801,0.0156935
-0.319578,0.0283246
-0.203183,0.0242667
-0.0391732,0.0131771
-0.0381341,0.00451131
0.0552441,-0.00442203
0.0544048,-0.00317818
0.0262775,0.00960667
-0.0279176,0.0109761
-0.0832009,-0.00598958
0.0131627,-0.0227721
0.0603376,-0.0184399
-0.0828199,-0.00894007
-0.165502,0.000422361
-0.0896699,0.0178265
-0.0378344,0.0157368
-0.008529,0.00722117
-0.00105926,-0.000787587
-0.00313729,0.00118203
0.01187,0.00520098
0.0601296,0.00315915
0.103013,-0.00427266
0.103385,-0.0148465
0.0604826,0.000161144
0.0574983,0.0113156
0.0340123,-0.0147036
0.0254379,-0.0261854
0.0516584,-0.0246638
0.160994,-0.0339704
0.275539,-0.0351541
0.210061,-0.0307114
-0.0823729,0.00451315
-0.292487,0.0189741
-0.359939,0.0157405
-0.199227,0.00496266
-0.0217143,0.00409399
0.0669249,0.0271434
0.16942,0.0226034
0.290672,0.0166195
0.386492,0.0127799
0.177118,-0.00683291
-0.22465,-0.00909868
-0.454919,0.0186118
-0.426952,0.0244979
-0.150658,0.0196951
-0.0225502,0.0202812
0.00139523,-0.000974484
0.0804245,-0.0227608
0.285042,-0.0208312
0.553585,-0.00243466
0.375626,-0.00133172
-0.00691594,-0.0066066
-0.512091,0.00209047
-0.610678,0.0209306
-0.117381,0.0148251
-0.108226,0.00407583
-0.228089,-0.00548612
-0.10803,0.00170342
0.0606112,-0.0247246
0.146827,-0.0433276
0.157951,-0.0109796
0.220425,-0.00243215
0.253974,0.00318521
0.195583,0.0113817
0.0194154,0.0131913
-0.133149,0.0108975
-0.146024,0.0210945
-0.175258,0.0180875
-0.12675,0.00769998
-0.0238406,-0.00502108
-0.0156644,-0.00983095
0.0396757,-0.000603365
0.0505776,0.00349148
0.0729185,0.00698672
0.0756248,0.00865431
0.0290353,0.00141864
0.0457585,-0.00720989
0.0818232,-0.0149942
0.0183988,-0.00494521
-0.0801981,-0.0025072
-0.182672,0.000719121
-0.137164,0.00608266
-0.020112,0.0116291
0.026663,0.00416902
0.154482,-0.0121653
0.404126,-0.0164347
0.475117,-0.00971705
0.328929,-0.00786531
-0.0553084,-0.00515086
-0.295949,-0.00705838
-0.21357,-0.0137738
-0.10944,-0.00536188
0.00923548,-0.0119468
0.252799,-0.0433753
0.270666,-0.0489623
-0.0104567,-0.0119633
-0.43996,0.0279814
-0.525555,0.0377521
-0.243907,0.0189897
-0.156014,-0.00115664
-0.178098,-0.00645612
-0.114968,0.0140308
0.00379595,0.030389
0.0909021,0.0294802
0.147166,0.000454774
0.127319,-0.00353961
0.0701298,0.00660329
0.0965387,0.00373634
0.100916,0.0330492
0.0255222,0.0231118
0.00366432,-0.00501608
0.00560599,-0.0052754
-0.0684914,-0.0135022
-0.00219646,-0.0196753
0.0387192,-0.0319255
0.0283282,-0.0265161
-0.0483481,0.0126053
-0.028003,0.0147106
0.134802,0.00610779
0.292694,0.00828158
0.257827,0.00114204
-0.110931,0.00578228
-0.113001,0.00729215
0.0925057,0.00722661
0.0593389,0.00243952
-0.0773975,-0.0171888
-0.209093,-0.0098369
-0.144213,0.0031726
-0.0198783,0.0209522
-0.0695592,0.00162436
-0.145512,-0.0413319
-0.0397826,-0.0533585
0.0672424,-0.0117313
0.0123375,0.0217216
-0.12805,0.0229573
0.0337417,0.00674973
0.331068,0.0117326
0.523497,0.0114328
0.246881,-0.00971976
-0.0392901,-0.0185768
-0.0320725,-0.0125708
-0.253502,0.0139808
-0.145397,0.0571521
-0.0729226,0.0677895
-0.168906,0.00342934
0.165286,-0.0584635
0.302148,-0.0451045
0.116326,-0.0223618
-0.292097,-0.0160363
-0.635421,-0.00805142
-0.489821,0.00726323
-0.0946646,0.0183
0.154802,0.00986218
0.203224,0.0188355
0.13102,0.00405388
0.00836235,-0.00763263
-0.124164,-0.0125678
-0.163572,-0.00351679
0.0335527,0.00826309
0.242697,0.00982146
0.250648,0.00401835
0.0652866,0.00249444
-0.179149,0.0117712
-0.141638,0.0208552
-0.0400278,0.0110482
0.0407333,-0.0281562
0.0900085,-0.036862
0.0599727,0.00658677
-0.0106242,0.0179
-0.0867851,0.0030611
0.0661083,0.0011951
0.298032,0.00171643
0.21876,0.000574755
0.0640019,-0.00423068
-0.0914699,-0.00507324
-0.209162,-0.0040209
-0.211315,-0.00544999
-0.00253489,-0.00188596
0.182972,0.00625668
0.254041,0.013365
0.264928,-0.0117977
0.230534,0.00108373
0.0497181,0.019908
-0.124681,-0.00896026
-0.028408,-0.010158
-0.209913,0.0128253
-0.203921,0.0223121
0.0209321,0.0155398
0.0415581,-0.00375151
0.0969394,-0.0199177
0.0302925,-0.0196102
-0.14681,-0.0496383
-0.119061,-0.0524116
-0.163742,-0.0532593
-0.327346,0.00216765
-0.280821,0.0700821
-0.0973166,0.0513001
-0.0516458,0.0102661
-0.0156063,-0.00279385
0.0690864,-0.0138611
0.18835,-0.00526186
0.219271,-0.0246996
0.186848,-0.0627659
-0.0143844,-0.00365825
-0.232815,0.0422443
-0.111142,0.0486807
0.0272525,0.0334755
0.114158,0.0193411
0.270371,0.0114549
0.308394,0.0119765
0.196311,0.0100867
-0.0257813,0.0103463
-0.168415,-0.0066773
-0.134612,-0.012439
-0.131174,0.0144035
-0.122248,0.0454755
0.0149068,0.0205914
0.0921035,-0.0162224
0.0786423,-0.0421296
-0.0658506,-0.038114
-0.121198,-0.0280082
0.226291,-0.0149204
0.529791,-0.0108544
0.459149,-0.00749524
-0.0367055,-0.00118714
-0.601078,0.00407901
-0.529288,-0.0049333
-0.184956,-0.0018363
-0.142271,0.0153711
-0.125016,0.0174972
-0.054884,0.0348672
0.132828,0.0253787
0.198456,-0.018219
0.2147,-0.0156715
0.123021,-0.0215346
0.105056,-0.0651631
0.335884,-0.0394489
0.385283,0.00134989
0.17203,0.0227232
-0.349708,0.0285092
-0.416042,0.0213517
-0.154583,-0.00646979
-0.059956,0.0251834
-0.052449,0.0428209
-0.181728,0.0168607
-0.293471,-0.044122
-0.249605,-0.00609278
-0.0959712,0.0427472
0.0667664,0.0495153
0.105313,-0.00408929
0.00505583,-0.0672764
0.00527563,-0.015358
0.103991,0.0309164
0.141101,0.00231114
0.100083,-0.0309666
0.0803444,-0.0203831
0.168701,-0.0225293
0.253579,-0.0222826
0.115496,-0.0056765
-0.041407,-0.00391888
-0.258922,0.0171336
-0.140868,0.0355032
0.0784929,0.0213575
0.0639038,0.0147709
-0.0247077,-0.0112264
0.00673096,-0.0648275
0.132352,-0.0536576
0.126514,-0.0184213
-0.13674,0.0234479
-0.391292,0.0111947
-0.283679,-0.0136483
-0.110472,0.0212689
0.00758627,0.0565527
0.0359391,0.04692
0.0306343,0.00343881
-0.00942163,-0.0104885
0.0292753,0.00067388
0.201415,-0.00997683
0.257074,-0.0112201
0.261407,0.0424669
0.388817,0.0391397
0.49999,0.0265036
0.238869,0.0133263
-0.188968,0.00531344
-0.286645,-0.0138958
-0.00873303,-0.00326342
0.133031,-0.00672282
-0.236614,-0.0423496
-0.504112,-0.120989
-0.388463,-0.0453837
0.0363632,0.0553864
0.47928,0.0295065
0.456323,-0.0151931
-0.0736082,-0.0188582
-0.283794,0.0172016
-0.482558,-0.00466917
-0.515157,-0.022428
-0.281102,0.0344049
-0.228817,0.0535664
-0.107155,0.0288276
0.0819984,0.0137906
0.238801,-0.0211255
0.17177,-0.0322162
0.0812618,0.0173277
-0.11422,-0.00249379
-0.182634,-0.016963
0.213418,-0.0246346
0.473008,-0.0439555
0.333619,0.0121352
0.0613232,0.0373206
-0.134615,-0.00470127
0.101698,-0.00122698
0.123396,0.0197941
-0.151521,0.0254625
-0.237097,0.0225618
-0.132954,0.0123675
0.0596058,0.00173638
0.0721109,0.00343038
-0.0517742,-0.00221991
-0.13782,0.00424642
-0.100341,0.0185351
0.000497294,0.0028916
0.0757331,-0.0274976
0.314547,-0.0528853
0.520671,-0.0599467
0.346827,-0.0279866
-0.0699841,-0.0055755
0.0157855,0.00303536
0.334016,0.0165781
0.246762,0.0201142
-0.00321717,0.0024443
-0.446528,-0.00116531
-0.243489,0.0115255
-0.0787304,0.0466914
-0.429729,0.0397397
-0.627164,-0.0067903
-0.416474,-0.0386362
-0.171603,-0.0293499
-0.0725875,0.0182994
-0.00458996,0.0299814
0.0620644,0.02458
0.173741,-0.0151328
0.244088,-0.0301857
0.175733,-0.00270027
0.0818892,0.0270175
0.0643994,0.0237742
0.0723861,0.00126251
0.109288,-0.0496347
0.171302,-0.0625619
0.0409868,-0.0212301
-0.203432,0.0247475
-0.271767,0.06741
0.000227305,0.0174833
0.261496,-0.0629892
0.300793,-0.0285108
0.207103,0.0143899
0.0499121,0.0099149
0.0209575,0.0186194
0.342706,0.0215279
0.530378,0.0112071
0.537597,0.0299717
-0.118087,-0.0392496
-1.00221,-0.0700319
-0.949521,0.00596945
-0.484915,0.0143383
-0.0617871,5.71e-06
0.208793,-0.00241843
0.399461,-0.00553934
0.252866,-0.0298839
-0.148586,-0.000908543
-0.351662,0.0582721
-0.305154,0.0789337
-0.207357,0.0484359
-0.113561,0.00465886
-0.048248,-0.00364518
0.16182,-0.000615043
0.410479,-0.0273414
0.412397,-0.0764744
0.176766,0.00236058
-0.126394,0.0259049
-0.185137,0.0317045
-0.0770614,0.048016
0.0943206,4.16e-05
0.195548,-0.0496468
0.0474905,-0.0523226
0.0956936,-0.0341662
0.259676,-0.00251742
0.21682,0.00370285
-0.0372074,-0.0431414
-0.309738,-0.0545831
-0.164117,-0.0355099
0.0549406,-0.0163869
0.122039,0.012683
0.0968449,0.047524
-0.154589,0.0704454
-0.103393,0.0405805
-0.01145,-0.0173685
-0.127455,-0.0435683
-0.149322,-0.0250036
-0.092798,0.0218125
0.093331,0.0704485
0.419976,0.0845149
0.425929,0.0505698
0.0701083,0.0166069
-0.433909,-0.0176029
-0.478062,-0.0184423
-0.267761,-0.00582252
-0.262327,-0.0182622
-0.208732,-0.0193327
-0.117459,-0.0381728
0.00828288,-0.0535025
0.218187,-0.0350104
0.333961,-0.0225352
0.265984,0.0187677
0.11978,0.0428131
0.0799542,0.0275202
0.233839,-0.00878314
0.252049,-0.00416174
0.186306,0.000364844
0.213454,-0.022956
0.135676,-0.0359236
-0.0182345,0.00405468
-0.0333382,0.0503497
0.018951,0.0443122
-0.504821,0.0074535
-0.864987,-0.0433543
-0.400387,-0.0417919
-0.174742,-0.0407962
-0.121427,-0.0350377
0.129545,0.0013607
0.35469,0.0386239
0.390373,0.0384111
0.103222,0.0168098
-0.180414,-0.000480757
-0.0298196,-0.0136439
0.0747945,-0.00547918
0.150389,8.36e-05
0.388776,0.0130834
0.401458,0.0162564
0.114697,0.00802818
-0.215544,0.0297756
-0.641537,0.018309
-0.651782,0.0320441
-0.189743,0.117603
0.0709892,0.0476904
0.164726,-0.0892649
0.427385,-0.119549
0.599917,-0.0563881
0.563914,-0.00771919
0.192922,-0.0146798
-0.165667,-0.00840859
-0.162081,-0.00161329
-0.372869,0.00656738
-0.630536,0.0332428
-0.677262,0.00183737
-0.205339,0.00383033
0.241347,-0.0115172
0.398714,0.0342518
0.418037,0.0820904
0.315245,0.0633369
-0.160961,-0.00593266
-0.452153,-0.0923154
-0.394116,-0.13778
-0.114013,-0.0239026
0.289955,0.0802391
0.368511,0.0971626
0.0481785,-0.0144685
-0.412292,-0.00985797
-0.282245,0.0258922
0.173788,-0.0043707
0.485033,-0.0616675
0.977176,-0.0395279
1.0697,-0.0274575
0.361374,0.006002
-0.698667,0.0156267
-1.11036,-0.0029322
-0.583971,-0.0378468
-0.0620824,-0.0374036
0.0399026,0.0347693
0.0171417,0.0667447
0.061832,0.0111743
-0.0984636,-0.023699
-0.318955,0.00913946
-0.219085,-0.0203607
0.0342505,-0.064601
0.0220908,-0.0539111
-0.0517639,-0.0100768
-0.0196068,0.0117518
-0.0164495,0.0604076
0.0263044,0.0371017
0.0637362,0.0145356
0.0822896,0.00451535
0.174984,-0.0100256
0.347932,-0.0348729
0.290524,-0.034775
0.154731,0.00288229
0.0816553,0.036052
0.0455507,0.0728396
-0.0248727,0.0591466
-0.108573,0.00525106
0.122734,0.00696165
0.0243554,0.00694756
-0.3484,0.0316809
-0.387286,0.00940603
-0.300684,-0.0252084
-0.153892,0.000158904
0.0982526,-0.00947154
0.255483,-0.0267764
0.374271,0.00030449
0.332259,0.0199216
0.273482,0.0058918
0.0481808,-0.007579
0.0682825,-0.0144791
-0.0303682,-0.0288787
-0.258416,-0.0399711
-0.285198,-0.0333364
-0.275026,-0.00212218
-0.219879,-0.00998878
-0.232787,-0.00532146
-0.2193,0.00374667
-0.0705986,0.00983177
0.180875,0.0320118
0.249798,-0.000775118
0.0515721,0.0191171
-0.233925,0.0368717
-0.155518,0.00217205
0.179953,-0.0188414
0.284623,-0.0159355
0.136943,0.0664542
0.259672,0.159913
0.955507,0.0776652
0.907854,-0.0901586
0.194086,-0.186994
-0.673169,-0.15523
-0.89037,-0.0630278
-0.355999,-0.0108513
-0.372688,0.0055968
-0.337115,0.0452863
-0.0299021,0.0612023
-0.0313226,-0.0319339
-0.0230561,-0.0448709
0.104979,-0.00194784
0.132007,0.0179827
0.0591369,0.0152507
0.0500226,0.0231732
-0.0849888,0.0417251
-0.301657,0.0302525
-0.317564,0.0220701
-0.177871,0.0868446
-0.075594,0.166265
0.0356307,0.158057
0.143443,0.0518271
0.151742,-0.125569
0.111258,-0.247195
0.0980637,-0.183098
0.172664,-0.0659884
0.505832,-0.00347887
0.67312,0.0267478
0.434866,0.0246669
-0.303002,0.00202962
-0.623562,0.00693202
-0.240828,0.00937758
0.120875,0.00911775
0.0912376,0.0303808
-0.0215268,0.0044731
0.0749531,-0.00141698
-0.0764779,0.034234
-0.119639,0.0290622
-0.0413334,0.0550912
-0.037786,0.065598
-0.037233,0.0218824
-0.0718298,-0.0609299
0.0217146,-0.0969653
0.258698,-0.108643
0.321693,-0.052276
0.0235513,0.150723
-0.521915,0.289847
-0.499452,0.206362
-0.189097,0.0202618
-0.0530022,-0.0988321
-0.0522831,-0.149102
0.0514273,-0.202884
0.31579,-0.0958924
0.383985,-0.053493
0.333324,-0.0755366
0.221487,-0.052447
0.0270543,0.00170928
-0.160509,0.0502814
-0.130797,0.0315295
-0.191347,-0.00136876
-0.305007,0.00588492
-0.138765,-0.00523583
-0.00882367,-0.0402512
0.00587238,-0.0200073
0.00699715,-0.0253482
0.0484034,0.0112405
0.046262,0.118905
-0.00290059,0.105367
-0.0302095,0.050743
0.0235294,-0.0238654
0.0961588,-0.0478198
0.17747,0.00616317
0.144803,0.0282229
0.045371,0.00696685
-0.119989,-0.0060217
-0.0376894,0.00384513
0.307448,0.00730138
0.406506,-0.00255688
0.134549,-0.0190544
-0.40487,-0.0136094
-0.466927,0.0060176
-0.0871976,0.00975844
0.239222,0.0141414
0.343754,0.0167046
0.284166,0.00197477
0.118283,-0.0176641
-0.00511569,0.0174725
-0.336062,0.022667
-0.57852,-0.0216833
-0.451636,0.0039991
-0.389943,0.0309831
-0.102298,0.0124675
0.171081,-0.0241266
0.254184,-0.028123
0.33706,0.00588532
0.3135,-0.0128585
0.180752,-0.0201693
-0.221773,0.0152412
-0.616731,0.0559799
-0.367913,0.0219514
-0.0667058,-0.0345011
0.124351,-0.0555163
0.238027,-0.0367776
0.264804,0.0171018
0.0362494,0.0373098
-0.118612,0.0282806
0.154076,-0.00973338
0.29999,-0.0254251
0.0831763,-0.044838
-0.222636,0.000738699
-0.18103,0.0280729
-0.0237237,0.0049382
-0.0881312,-0.00847534
-0.0186711,-0.0144429
0.378036,-0.00463145
0.407267,-0.0326222
0.174545,-0.0328229
-0.0644667,0.0173238
-0.148323,0.0724381
-0.0559774,0.0788208
-0.041076,0.0404615
-0.0799373,-0.0193351
-0.139817,-0.0313114
-0.152447,-0.0231765
-0.0154283,-0.0225548
-0.0154614,0.00373096
-0.0761324,-0.00240051
0.0363866,-0.0440065
0.0560113,-0.0575637
-0.045938,-0.0225395
-0.0832829,-0.0296832
0.0992439,0.0131759
0.244787,0.0457663
0.232641,-0.031737
0.138642,-0.0500004
0.0375545,0.00328958
-0.1188,0.0377209
-0.0778013,0.0453009
-0.0132746,0.0317081
-0.0162176,0.00651779
-0.0237147,0.031466
-0.0572564,0.0357226
-0.0798537,0.00863613
-0.19713,-0.00614112
-0.241674,-0.0323083
-0.148466,-0.0269361
-0.0139486,-0.0371695
0.0509305,-0.0259357
0.0348962,-0.01046
0.0343879,-0.0294378
0.0196982,0.028697
0.064093,0.0238534
0.158734,0.00971087
0.246159,0.0312617
0.185775,0.0517653
0.0690486,0.053146
0.140552,0.0166174
0.22242,-0.0141684
0.103408,-0.0414145
-0.20937,-0.0429983
-0.466435,-0.0174811
-0.393585,-0.029682
-0.198036,0.00380859
-0.0508592,0.0365238
0.0519465,0.0239898
0.189099,0.0103551
0.264973,-0.00228693
0.15017,-0.00322566
-0.162332,0.00496691
-0.238772,0.0117994
0.167701,0.00562619
0.564937,0.00783307
0.339609,-0.0125777
-0.096806,-0.0252065
-0.540935,0.00320451
-0.522647,0.0137936
-0.209507,-0.0291282
0.0142277,-0.042714
0.0985991,-0.0326582
0.0871937,-0.00429376
0.220245,0.0195065
0.30703,0.015668
0.13304,-0.00806397
-0.0806134,0.0240049
-0.322541,0.0617237
-0.222239,0.0161805
-0.0962499,-0.011506
-0.0629049,-0.00287287
0.0941004,-0.0248935
0.235108,-0.0568752
0.251432,-0.0596133
0.0280369,0.0022384
-0.0245291,0.0447791
-0.0767839,0.0462166
-0.17568,0.0184632
-0.0672034,-0.0257884
0.0619146,-0.00640359
0.122955,0.0137326
0.0225196,-0.00633084
-0.135597,-0.0124087
-0.221833,0.027969
-0.0484099,0.0675921
0.0596643,0.03637
0.0479158,0.0164163
0.0533887,0.019355
0.0943885,-0.00807278
0.227803,-0.0407534
0.314645,-0.00861683
0.116952,0.0151513
-0.19632,-0.00161165
-0.240052,-0.023375
-0.0859939,-0.0203112
-0.0289724,-0.0340638
-0.0890451,-0.0463275
-0.0483137,-0.0697155
0.106837,-0.027147
0.146078,0.025228
0.137644,0.0418948
0.0199259,0.0160134
0.0121944,-0.0324693
0.147248,-0.00716061
0.00110682,0.0100261
-0.247692,0.0125998
-0.340581,0.00166875
-0.188722,-0.0581236
-0.04307,-0.0334881
-0.0233585,0.0425684
0.040888,0.0612331
0.264656,0.0517108
0.333097,0.0102288
0.133168,-0.0436732
-0.103992,-0.025767
-0.11252,0.0236519
-0.0683493,0.0379776
-0.118571,-0.0277535
-0.067078,-0.0121402
0.0663514,0.0360283
-0.0265297,0.0201806
-0.219111,-0.00298241
-0.14076,-0.00469544
0.0490492,0.00464281
0.150639,0.0123893
0.156092,0.0310349
0.0783571,0.0364595
0.0334133,0.016952
0.0572523,-0.0222521
0.0591821,-0.0484655
-0.0316134,-0.031198
-0.0713479,-0.0305658
7.33e-05,-0.0321571
0.0670183,0.0272453
0.072742,0.0339774
0.0647925,-0.0356369
-0.0803699,-0.0852695
-0.238388,-0.0319039
-0.160187,-0.0103407
0.0187113,0.00737857
0.265018,0.0372949
0.343025,0.0264687
0.176236,0.0159458
-0.236943,0.0246853
-0.390397,0.0311968
-0.154051,0.0304554
0.000563054,0.0444612
0.0450557,0.0257348
0.0308263,0.00823163
-0.0612773,-0.0157442
-0.0236456,-0.0197616
0.0397853,-0.00514464
0.019062,0.00747546
0.0479428,0.00117204
0.0524635,-0.00611406
-0.0132539,-0.00448184
-0.0463895,-0.00552828
0.0433033,-0.0164257
0.116863,-0.0445953
0.133721,-0.00990206
0.0862128,0.0178484
-0.0344967,-0.00871153
-0.171133,-0.0349123
-0.0709197,-0.0284554
0.0916207,-0.00282976
0.0867702,0.0046594
-0.0330532,0.0153625
-0.103614,0.0453738
-0.0168642,0.0483876
-0.0055455,0.00417171
-0.110512,-0.0255478
-0.144785,-0.0138768
-0.0898621,-0.000676607
0.0106514,0.0110291
0.169757,0.0227923
0.21105,0.017186
0.121009,0.00995337
-0.117975,-0.0250113
-0.164918,-0.0432729
0.0300874,-0.0239229
0.160443,-0.0131921
0.146939,-0.00199028
0.0932,0.00869906
0.0528207,-0.01137
-0.0610744,-0.0106799
-0.0273366,0.00786182
0.151803,-0.00294776
0.203695,-0.00227104
-0.016914,-0.0330001
-0.172578,-0.048168
-0.133414,0.00698856
-0.0532635,0.073913
-0.0730892,0.0859726
-0.107483,0.0354692
-0.140673,-0.0047224
-0.265396,-0.0274787
-0.306883,-0.0279415
-0.154034,-0.0346345
-0.0274434,0.013707
0.0179252,0.0157612
0.0760143,-0.0107947
0.0830601,0.0185125
0.0280767,0.0226304
0.0670429,-0.00520729
0.0909175,-0.0210491
0.162311,0.00276808
0.229526,0.00804827
0.162137,0.00605477
0.0790145,0.00810243
-0.135013,-0.00700569
-0.116731,-0.0231949
0.0509736,-0.0233479
0.206047,-0.0214647
0.312353,-0.0094132
0.232418,-0.0145057
-0.04713,-0.00284704
-0.32233,0.00361944
-0.232082,0.0173866
-0.107266,0.0186326
-0.0729807,0.00267087
-0.0866493,-0.00335534
-0.0644931,0.0111209
-0.0197496,0.0128905
-0.0153633,0.0284275
0.0040095,0.0677327
0.0245369,0.0601243
0.0160709,-0.00744271
0.0194892,-0.0695772
0.0310318,-0.06757
0.0110546,-0.0312718
-0.02438,-0.023396
0.00754397,-0.0194702
0.0879873,-0.00871496
0.143707,0.00188394
0.107889,0.0103319
0.0900733,0.0171898
0.0237906,0.0134385
-0.0681972,0.00767412
-0.0576572,0.00559265
-0.0270685,0.000155943
-0.0451051,-0.00669348
-0.154197,-0.00630693
-0.126191,-0.00161792
0.134513,0.0211349
0.407328,0.0369504
0.4022,0.0260771
0.139141,0.0101748
-0.120852,0.0161772
-0.183584,0.0211546
-0.268445,0.00947461
-0.432931,-0.00509361
-0.31603,-0.0229934
-0.102346,-0.0430512
0.0407868,-0.0212992
0.0833949,-0.000700882
0.108546,-0.000645935
0.106377,-0.0293143
0.0295011,-0.0749203
-0.141712,-0.0611365
-0.148339,-0.00109886
0.00429723,0.0221284
0.110488,0.00521175
0.132891,-0.00576258
0.136593,0.00538257
0.0265621,0.0127671
-0.0639337,0.00553051
-0.0115368,0.0147498
-0.0830995,0.0576685
-0.0558623,0.0948032
0.00116166,0.0670254
0.049239,0.0177003
0.368138,-0.00668822
0.503813,-0.0236868
0.296335,-0.0400942
-0.280529,-0.0579377
-0.447984,-0.0014234
-0.0653737,-0.00177067
0.285688,0.00343803
0.386319,0.00297723
0.347413,-0.0294076
-0.140788,-0.0185357
-0.616015,-0.00173596
-0.734645,-0.00340016
-0.445241,-0.00675549
-0.121505,0.0235735
0.00339743,0.0630641
0.0853658,0.0730078
0.0733656,0.0260859
0.0193432,-0.0515392
-0.000764019,-0.0331237
-0.0248398,-0.0656718
0.0231724,-0.147031
0.0908825,-0.0221915
0.0861714,0.0197132
0.0418284,0.0523065
0.0535802,0.0537434
0.0805731,0.0331699
0.107475,0.00228723
0.214986,-0.0128381
0.314604,-0.0145452
0.357652,-0.0027142
0.238357,0.0108814
-0.0240625,0.0164642
-0.184193,0.010395
-0.227743,0.0207595
-0.2383,0.0361156
-0.21701,0.0131828
-0.141054,-0.01544
-0.0687555,-0.0216339
0.00828424,-0.0179251
0.102233,-0.00178755
0.0946933,-0.0119524
0.0398191,-0.0114111
-0.0745547,-0.00884332
-0.0897064,0.0110377
-0.0012816,0.0198394
-0.0604497,0.0065208
-0.101611,0.0144154
-0.0315507,0.0185084
0.0618918,0.0234647
0.151438,0.0264885
0.264524,0.0180551
0.28517,0.00372158
0.114357,-0.041938
-0.16819,-0.0318545
-0.241841,-0.00639018
-0.163976,-0.00464249
-0.0787813,-0.0130098
0.0207176,-0.0211183
0.0517713,-0.0123354
0.00513274,-0.004671
-0.0239253,-0.0202465
0.0816209,-0.0250183
0.116653,-0.0128645
3.07e-05,0.000841965
-0.117927,-0.0085892
-0.144409,-0.0388298
-0.0246939,-0.0322144
0.0234498,0.0185745
0.0460872,0.0546349
0.107178,0.056309
0.1221,0.0350994
0.0294192,0.0300511
0.0187844,0.0184975
0.0149928,-0.00318969
-0.0664228,-0.00601455
-0.0904382,-0.00159693
-0.0258684,-0.00689404
-0.0144319,-0.0139816
-0.072641,-0.0032774
-0.147742,0.00846848
-0.0776946,-0.00297936
0.072704,-0.00782067
0.0151303,-0.0253591
-0.0613857,-0.0351278
-0.100906,-0.0336829
-0.138166,-0.0281108
-0.0991415,-0.0345149
-0.014664,-0.0194964
0.0319593,0.0307594
0.0895952,0.05899
0.155616,0.0664671
0.165213,0.0415587
0.128416,0.0189312
0.0180721,0.0239499
-0.034342,0.0132936
0.0635751,-0.0121298
0.119594,-0.0344747
0.21778,-0.0240001
0.333966,0.0165362
0.304863,0.023896
0.00964788,0.0293176
-0.237091,0.0449449
-0.318333,0.0287366
-0.233977,-0.0800935
-0.135236,-0.162844
-0.27733,-0.0636512
-0.313221,0.0343982
-0.146291,0.0110592
-0.0177039,-0.0103546
0.0811901,0.0218102
0.129847,0.00435558
0.129885,-0.0159495
0.016918,-0.00664962
-0.0440923,0.00995417
0.10525,0.0154954
0.17225,0.017503
0.00580672,0.0200724
-0.143102,0.0115851
-0.0752767,0.014232
0.0618794,0.0237155
0.0991892,0.0244433
0.128336,0.0190567
0.0883187,0.0182199
0.1064,0.0289761
0.213101,0.0186703
0.129347,-0.0173292
-0.0739969,-0.0277586
-0.14135,-0.0518113
-0.0812103,-0.0805583
-0.0268716,-0.0474338
-0.0721491,-0.0367404
-0.179951,-0.0472546
-0.10591,0.0178677
0.0249721,0.0407943
0.0199693,0.0522007
0.00437232,0.0664708
0.000266856,0.0456219
-0.0218481,0.00915254
-0.029305,-0.00265784
-0.0294189,-0.0031969
-0.0711897,0.000187846
-0.0514372,0.0166313
0.0984464,0.050872
0.105353,0.00975088
0.0186785,-0.0207128
-0.00571282,-0.0254568
0.00141864,-0.030229
0.0363959,-0.0119171
0.0353364,-0.0099952
-0.00458889,-0.0154915
0.0175894,-0.0140815
0.0323444,-0.0102178
0.0142332,0.00297861
-0.0430971,0.0271995
-0.056997,0.0249103
0.00600072,0.00965401
0.04081,0.0106786
-0.0295313,0.0176242
-0.0101865,0.0174889
0.0789184,0.0154439
0.0631604,-0.0206738
-0.0418952,-0.0656258
-0.0802621,-0.0486323
0.134814,-0.021373
0.327722,-0.0346258
0.313423,-0.0153497
0.101343,0.00244173
-0.182045,0.00301328
-0.279423,0.0032883
-0.337302,0.0137819
-0.305615,0.0557204
-0.17607,0.0656847
-0.0935378,0.0504078
-0.0433494,-0.00362649
0.00550024,-0.0787183
0.0484823,-0.0582982
0.133051,-0.0037712
0.280353,-0.00621273
0.235421,-0.0241617
-0.107391,-0.0306919
-0.247102,0.0106348
-0.104253,0.0291392
0.0921555,0.00569548
0.282051,-0.0202095
0.312296,-0.00272817
0.160296,0.0201706
-0.227615,0.0467793
-0.452721,0.0149702
-0.279457,-0.0353247
-0.0112748,-0.0236879
0.146579,0.0365295
0.118287,0.0262941
0.103546,-0.0111769
0.180257,-0.012003
0.117269,-0.0015869
-0.0227183,0.0104049
-0.12005,0.0147241
-0.0678051,0.010661
-0.033277,-0.00523531
-0.153425,-0.0106338
-0.152649,-0.00906291
0.0381668,-0.00915739
0.139601,0.00553746
0.121227,0.015166
0.0206412,0.0155612
0.042708,0.0260843
0.0293885,0.045172
-0.0264877,0.042601
0.0136138,0.0234701
-0.0551252,-0.00528894
-0.197447,-0.0270189
-0.179908,-0.0553966
-0.0754418,-0.0715696
0.0583458,-0.0270902
0.149316,0.0116719
0.171179,0.0109539
0.106798,-0.00224334
-0.00285065,0.000852961
-0.0580719,-0.00195812
-0.0596547,-0.0160887
0.0779567,-0.0170844
0.282253,-0.00832002
0.246095,0.00668717
0.071106,-0.00279223
-0.181076,-0.0181094
-0.279374,-0.00193533
-0.222437,0.0256763
0.00866367,0.0307742
0.314933,0.0136559
0.337635,-0.00240482
0.0226677,-0.00691848
-0.397308,0.00979759
-0.368398,0.0317253
-0.148255,0.00448569
-0.0116198,-0.0124566
0.209057,-0.00174271
0.346899,0.0059329
0.132982,0.00345498
-0.154451,-0.000839118
-0.110439,-0.00829525
0.0114134,0.041384
-0.0241196,0.038866
-0.129574,-0.0211302
-0.27478,-0.017493
-0.211629,-0.011246
-0.0721025,-0.034165
-0.00901868,-0.060251
0.0708561,-0.0691757
0.102705,-0.0613039
0.0439588,0.0190212
-0.0116918,0.0856293
-0.0436649,0.0727481
0.0335727,0.0724973
0.193093,0.0759982
0.274788,0.0204315
0.171804,-0.0615783
0.0851297,-0.115358
0.0054134,-0.0684234
-0.151809,-0.00159069
-0.158371,-0.0108508
-0.0634847,-0.00214251
-0.039504,0.00245768
-0.0559329,0.031738
-0.0357253,0.0534794
0.0185565,0.0288137
0.0431008,0.00495187
0.0153252,0.00530761
-0.00372222,0.0108649
0.105813,0.00803421
0.270587,0.00523116
0.343758,0.00674352
0.166438,0.0116619
-0.188146,0.0150206
-0.340463,0.00428662
-0.0913804,-0.0156697
0.00501102,-0.0315603
-0.116465,-0.0385556
-0.0774587,3.07e-05
0.0244225,0.0221805
0.13784,0.0100671
0.201924,-0.035749
0.0874356,-0.0752227
-0.145331,-0.0736201
-0.223859,-0.0360202
-0.218529,0.0131189
-0.255926,0.0518677
-0.151946,0.0363762
0.0171033,0.0249188
0.102407,-0.00540795
0.118993,-0.0271723
0.100856,0.0021949
0.143746,0.0265187
0.178357,0.0374277
0.096129,0.0557335
0.0866581,0.0564228
0.248358,0.0348047
0.31147,0.0038871
0.214535,-0.0250871
-0.176376,-0.037041
-0.512494,-0.0287966
-0.432798,-0.0175897
-0.268241,-0.0192939
0.00649699,-0.0271249
0.163331,-0.0237857
0.110005,-0.0108186
-0.070457,-0.000625001
-0.120478,0.00478408
-0.0315788,-0.00842834
-0.00273714,-0.00901258
-0.0695322,0.0101408
-0.140918,0.0239647
-0.0871833,0.0211132
-0.0415612,0.0136107
-0.033104,0.0220676
0.0306593,0.0175962
0.13916,0.000231374
0.212922,-0.00688193
0.236281,0.00305524
0.161584,0.0103838
0.133443,0.00526674
0.144403,-0.00626877
-0.044355,-0.00528799
-0.0659187,-0.00983434
-0.0069027,0.000713696
-0.0378271,0.0235976
-0.166452,0.00803968
-0.207343,-0.0413471
0.00143514,-0.0497851
0.203432,-0.0267463
0.212553,-0.031083
0.0998223,-0.0179834
-0.0907288,0.0148883
-0.263883,0.0218362
-0.214054,0.0019674
-0.0908011,-0.0143602
-0.00659496,0.0126279
0.067152,0.0264503
0.0665134,0.0333554
0.0659469,0.0230564
0.0719725,-0.00418476
0.0989075,-0.029606
0.0915639,-0.00956015
-0.00029046,0.00335394
-0.106048,-0.00389762
-0.0416762,0.00432501
0.0478056,0.0107593
-0.0390161,0.00960304
-0.160163,0.00998068
-0.079991,0.00322327
0.135724,-0.00805428
0.226917,-0.00623928
0.114878,0.00075262
-0.113698,-0.00861649
-0.124423,-0.0122676
0.101099,-0.00508372
0.134614,-0.0269991
-0.0967517,-0.0196895
-0.259068,0.0121603
0.00446156,0.0332121
0.174176,0.0167733
0.125932,0.0229819
-0.0475513,0.0486161
-0.173156,0.0199776
-0.0803596,-0.00534587
0.0477966,-0.0252796
0.0539054,-0.0303495
-0.0610318,-0.0286453
-0.0995132,-0.00422959
-0.108641,-0.00705491
-0.0352242,0.00875131
0.0322482,0.0259585
0.0073151,0.0100465
-0.0182655,0.00671681
0.0144184,-3.73e-05
-0.0612595,-0.0174654
-0.0713167,-0.0108294
0.0570198,-0.00894741
0.295246,-0.0170078
0.398453,-0.0119672
0.267394,0.00787198
-0.0762982,0.0144882
-0.317502,0.0167192
-0.292802,0.0190033
-0.0811238,0.0162148
0.143019,0.0162372
0.23119,0.010187
0.0964962,-0.0219097
-0.096612,-0.0312934
-0.0313624,-0.0232968
-0.0179381,0.0115778
-0.0981383,0.0257514
-0.186837,0.013632
-0.13193,0.013354
0.0661621,-5.52e-05
0.119229,-0.0171379
0.0188891,-0.0356322
-0.133291,-0.0460125
-0.0834202,0.0131149
-0.00521481,0.0341677
0.013496,0.000927683
0.015919,-0.0768826
-0.0348157,-0.0407913
0.0631319,0.0320717
0.181277,-0.0125075
0.188197,-0.0111431
-0.0254699,0.0576634
-0.219872,0.0539393
-0.180339,0.0171461
-0.0129845,0.00122045
0.0216887,-0.00172284
-0.0359862,0.00787006
-0.0192792,0.00738239
0.0582994,0.00116857
0.0971695,0.0099627
0.105754,-0.00106551
0.0811394,0.0126888
0.109457,0.0381882
0.101601,0.00068851
-0.0564341,-0.0731959
-0.216325,-0.0231718
-0.111055,0.00817218
0.0825397,-0.0191344
0.21995,-0.0405425
0.174515,-0.072224
-0.0368077,0.00465067
-0.236929,0.072838
-0.173006,0.0984867
0.0875559,0.0409219
0.142344,-0.0279513
0.018681,-0.0422061
-0.0858169,-0.0245294
-0.121373,0.0010048
-0.0147971,0.0105984
0.0788601,0.0122955
0.0582117,0.0033877
-0.0732924,-0.0207382
-0.167404,-0.00874585
-0.0955263,0.00949506
-0.0182792,0.0042812
0.0358701,0.00237481
0.217842,-0.00166444
0.320267,-0.00774493
0.203442,-0.0221553
-0.10753,0.000581633
-0.408935,0.0255201
-0.324843,0.00750816
-0.141345,-0.0034033
-0.0212297,-8.74e-05
0.04001,-0.0221586
0.0471928,-0.0211999
0.0790637,0.0081131
0.189818,0.017444
0.246227,-0.0156262
0.243108,-0.0043179
0.021565,0.0123237
-0.156989,0.0214026
-0.142637,0.0256828
-0.0715398,-0.0185576
0.0823312,-0.0448367
0.144316,-0.0146735
0.0975831,0.0102895
0.119843,0.0146961
0.0793723,0.0154399
-0.0640036,0.00377281
-0.199586,-0.0152569
-0.301924,-0.0519462
-0.145269,-0.0573449
0.0424083,-0.00190339
0.110086,0.0602662
-0.0174409,0.0786884
0.0227193,0.0675611
0.206297,0.0312437
0.0639696,-0.0237843
-0.217218,-0.0394264
-0.273817,-0.0244684
-0.125201,-0.0327397
0.0847704,-0.0398203
0.184033,-0.0245035
0.0366813,0.00396341
-0.0844741,0.0244243
-0.0885751,0.0271846
-0.0313327,-0.0120304
0.042218,-0.019959
-0.0135174,-0.00792733
-0.0654908,0.029607
-0.0301902,0.0304897
0.0444965,-0.000346769
0.0684843,-0.0229491
0.0393454,0.00709734
0.0317775,0.0230163
0.168199,0.0388306
0.3045,0.0453312
0.0927973,-0.0150714
-0.173224,-0.0368376
-0.174123,-0.0172032
0.0158564,-0.00934457
0.0699148,-0.00696831
0.0364159,0.00517559
-0.0402251,0.00540941
-0.0187572,-0.0077954
0.140957,-0.0137729
0.0715756,-0.00499577
-0.0520146,-0.000124632
-0.108376,-0.0145986
-0.028289,-0.0187065
0.00344095,-0.00414721
-0.134617,0.00279016
-0.172281,0.00468792
-0.055959,0.0230639
0.039053,0.0483051
-0.0188215,0.0346315
-0.0715757,-0.000160485
-0.074903,-0.00599637
-0.0243586,-0.00238026
0.0455033,-0.0218526
0.0929083,-0.0309099
0.061462,-0.00741715
0.0529034,0.00953025
0.0521535,-0.0012922
-0.0219404,-0.0276763
0.042278,-0.0335181
0.298828,0.0182416
0.388904,0.044082
0.241941,-0.00582301
-0.125142,-0.0397345
-0.413388,-0.0342427
-0.404109,-0.0211162
-0.200576,0.0266256
-0.103433,0.0461649
-0.038144,0.0149523
0.0364268,0.00441166
0.0945317,0.01907
0.118529,-0.00251718
0.0949751,-0.0247746
0.0214424,-0.0117092
0.0232807,0.0130234
0.0728793,0.00116867
0.0585898,0.00895951
-0.0485876,0.0197162
-0.179161,0.0235369
-0.147874,0.0061192
-0.0279263,-0.0206243
0.110489,-0.0405965
0.274122,-0.0477599
0.221315,-0.0172512
-0.027058,-0.00183761
-0.251661,0.0355092
-0.162138,0.0418696
0.0178018,0.0267954
0.0976705,0.0216908
0.111395,0.0118911
-0.00450559,0.000330645
-0.0411256,-0.0126807
-0.0373162,-0.0274181
0.0368636,-0.0205176
0.199292,-0.00313102
0.124495,-0.00540134
-0.115346,-0.0205806
-0.342511,-0.0117234
-0.185454,0.00580183
0.0255194,0.0186781
0.02684,0.0222693
0.00586767,0.0279456
0.0722267,0.0376305
0.0866422,-0.012964
0.106247,-0.0162619
0.106353,0.00512674
0.0160795,0.00864772
0.00678232,-0.0300981
0.0710569,-0.0386273
-0.0579312,-0.0134654
-0.250315,0.00496012
-0.296063,0.0043196
-0.149674,0.00293007
0.021198,0.013152
0.143436,0.0168522
0.254684,-0.0250863
0.268854,-0.0511447
0.222208,-0.0354556
0.0237024,0.0246785
-0.0738865,0.0658082
-0.230994,0.0519087
-0.330224,0.0280176
-0.224372,-0.0145013
-0.105229,-0.033197
-0.00538742,-0.018434
0.0792502,-0.0132903
0.12908,-0.0196091
0.0808143,-0.0532654
-0.0337619,-0.0557042
-0.0345588,0.0195601
0.0674429,0.0359145
0.0987665,-0.0275167
0.0674345,-0.0549149
0.0313222,-0.00153486
0.0250976,0.0693111
0.0191184,0.0423523
-0.00668548,0.0153811
-0.00475871,0.0327469
0.057357,0.0479001
0.135683,0.0471344
0.12963,0.0148429
0.0468063,-0.00936739
0.00898248,0.00430515
-0.011335,0.0165328
-0.059492,0.0220433
-0.0737034,0.000124163
-0.146167,-0.0399097
-0.152012,-0.0845241
-0.0626211,-0.0693249
-0.0179987,0.0183051
0.0378774,0.025215
0.100168,-0.00196382
0.22782,-0.0206985
0.317055,-0.00659707
0.189362,0.0106006
0.0720202,0.0131577
-0.308691,0.00985229
-0.46029,0.0189767
-0.285217,0.0107642
-0.166029,-0.0053652
-0.0746917,-0.00789409
-0.0110599,0.001284
0.0333089,-0.0123743
0.056677,-0.00924039
0.0781412,0.0147437
0.0453489,0.0075853
0.0208297,-0.0261422
0.0583042,-0.0465287
0.0656636,-0.00108589
-0.0207109,0.0335412
-0.143409,0.0232402
-0.117035,-0.00191942
-0.026984,0.0045819
0.0424422,0.00724769
0.218226,-0.0140229
0.435095,6.91e-05
0.456899,0.0304864
0.314097,0.0344438
0.206775,0.00177334
0.203159,-0.0489999
-0.134879,0.000952497
-0.553478,0.0184265
-0.558084,-0.00547077
-0.355081,-0.0165686
-0.154387,-0.00948116
0.0181151,0.00405936
0.0255832,0.00515922
-0.0839508,-0.00452682
-0.0675601,-0.00645052
-0.0690463,-0.00932925
-0.0905494,-0.0177078
-0.069348,-0.0106391
0.0254121,-0.0217216
0.078625,-0.0279052
0.0704225,0.00952205
0.0378234,-1.6e-05
0.0129776,0.00370545
0.0849219,0.0223752
0.24009,0.0224553
0.275396,0.00829897
0.180751,0.00109725
-0.0211204,0.0105896
-0.110956,0.0445604
-0.0777189,0.0740247
0.0235307,0.0894805
0.148264,0.0589067
0.15449,-0.055215
-0.030242,-0.121862
-0.150589,-0.107404
-0.149683,-0.0942591
-0.27248,-0.0582524
-0.235331,0.0111439
-0.0454796,0.0479526
0.160127,0.0342599
0.245087,0.0118879
0.224708,0.000939034
0.0795198,0.00824855
-0.0482883,0.0223046
0.0017114,0.0250161
0.049283,-0.0155844
-0.0111137,0.00322002
-0.18088,0.0242311
-0.205383,-0.00392375
-0.0924212,-0.00307652
0.0880028,0.0166753
0.381766,0.00652475
0.544861,0.00381643
0.301852,-0.0164445
-0.240231,-0.0175218
-0.577803,0.0200434
-0.544764,0.00318439
-0.299674,0.00528808
-0.123772,-0.000617648
0.00326579,-0.011098
0.09178,0.00486005
0.0513056,0.0223609
0.0700864,0.0207026
0.173538,0.00966524
0.122256,-0.00230543
0.111152,-0.0204985
0.177368,-0.0330591
0.0876606,-0.0141216
-0.0538787,0.00679701
-0.156558,0.0213532
-0.164766,0.0180497
-0.0190713,0.0188817
0.052913,0.00677674
0.0506488,-0.0127067
0.0780031,-0.00702105
0.116979,-0.000860154
0.0818595,-0.00227836
-0.0404056,0.000453963
-0.147306,0.00603656
-0.2101,0.00994422
-0.130798,0.00211902
-0.0266125,-0.0119445
-0.0200337,-0.00937704
-0.0522052,-0.000843631
-0.0823526,0.00896356
-0.0820312,0.0129147
-0.0103988,-0.00399566
0.10323,0.0128055
0.289373,-0.0284121
0.478275,-0.084352
0.745626,-0.031918
0.697318,0.0235849
0.233866,0.0151547
-0.486954,0.00635223
-0.920319,0.0127379
-0.602264,0.00305556
-0.190542,-0.0161191
0.0330311,-0.0101304
0.202113,-0.0304342
0.481187,-0.047126
0.407296,-0.0120089
-0.0339469,0.0113929
-0.438522,-0.000285765
-0.468967,0.017495
-0.286416,0.0688467
-0.0612844,0.0423654
0.00915834,0.00837262
-0.015523,0.00442109
-0.14565,0.00981259
-0.230826,0.012766
-0.0442003,0.0100791
0.206437,0.00542083
0.367085,-0.00929791
0.319269,-0.0251981
0.101123,-0.0224197
-0.158734,-0.00215185
-0.256707,0.0349965
-0.154871,0.0562197
-0.0824866,0.0303531
-0.00568334,0.00659239
0.0443324,-0.0128868
0.0741476,-0.0326939
0.10734,-0.0285035
0.164524,-0.0156722
0.203783,-0.0103851
0.165456,-0.00427466
0.0218958,0.00318372
-0.128851,0.0138907
-0.083059,0.00775426
0.000140858,0.00411193
0.0124797,-0.0183411
0.0445698,-0.0383436
0.0904455,-0.0555767
0.0789399,-0.0427659
0.00971702,-0.00262377
-0.000365757,0.0115899
-0.0864214,0.0358515
-0.187715,0.0491973
-0.130087,0.0403055
-0.0444094,0.0367701
0.00947546,0.0229955
-0.0327928,-0.0234518
-0.0309147,-0.0259146
-0.00312366,-0.0214735
0.016759,-0.0293191
0.0204074,-0.0251142
0.0714059,-0.011345
0.0721484,-0.0130775
0.172505,9.05e-05
0.616594,0.00578434
0.826459,0.00643026
0.532019,0.00690487
-0.366435,0.00565833
-1.02385,0.0234692
-0.750844,0.0235996
-0.409661,0.000320263
-0.189221,-0.0226687
-0.0626601,-0.00908253
0.0466842,0.00467146
0.146336,0.00641651
0.0881969,-0.00945025
-0.036103,0.000637436
-0.0561751,0.0316804
-0.018562,0.0204985
0.00591383,-0.0024576
0.0412292,-0.0225178
0.143872,-0.0320909
0.214416,-0.0581179
0.196839,0.0116553
0.065123,0.0350325
-0.232811,0.0379527
-0.0969278,0.0425888
0.218798,0.00673778
0.237172,-0.0208611
0.140951,0.00188673
-0.0549158,0.00581293
-0.11222,0.00513516
-0.106773,0.0286685
-0.122628,0.0178231
-0.0411806,-0.00784184
0.00121678,-0.0222838
0.0164772,-0.0346112
-0.0156772,-0.0260684
-0.0940384,0.0119641
-0.173976,0.0392555
-0.121377,0.0469137
-0.0180622,0.0307613
0.014793,-0.00300905
0.0386216,-0.0278733
0.0964172,-0.0623998
0.224849,-0.0612657
0.29401,-0.035318
0.267902,-0.0286289
0.177369,-0.0297618
0.0125902,0.00530777
-0.191579,0.0418086
-0.358193,0.0283821
-0.27121,0.012849
-0.0168077,0.00475582
0.0234582,-0.0133932
0.00944371,-0.0061623
-0.0725951,0.00266088
-0.135365,-0.0134314
-0.0373769,-0.0355523
0.0422883,-0.027202
0.282101,0.0147384
0.391868,0.0353342
0.232491,0.0263222
0.0515777,0.0258138
0.0418628,0.0518181
0.0419077,0.0292543
-0.171398,-0.0052389
-0.416837,-0.0132291
-0.275997,-0.0032394
0.000942571,0.0032733
-0.0175241,0.00557421
-0.0627253,0.00174418
-0.0546589,-0.00437249
-0.0120653,-0.0261525
-0.0112428,-0.0320592
-0.152118,-0.0160761
-0.124383,0.00509407
-0.0911081,0.0167159
-0.104274,0.00807876
-0.0601843,0.0219625
0.0928651,0.0472188
0.197829,0.0529494
0.217144,0.0231025
0.352026,-0.00119055
0.432555,-0.019567
0.226423,-0.0182454
-0.0922662,-0.017992
-0.279606,-0.0250756
-0.275556,-0.0302767
-0.332668,-0.0228801
-0.155556,-0.0111543
0.132315,-0.032363
0.413103,-0.0730693
0.556574,-0.0325469
0.332508,-0.00487385
-0.138056,0.00728067
-0.439732,0.0216812
-0.357207,0.0330215
-0.229188,0.039787
-0.0810872,0.0280015
0.0610245,0.0119164
0.145592,0.0132451
0.167881,-0.0047057
0.0197355,-0.0214842
-0.0977543,0.00663449
-0.215698,0.0223839
-0.274979,0.0177251
-0.120559,0.0113619
0.00949644,0.00162724
0.0406934,-0.00586214
0.0263227,-0.015454
0.0263497,-0.0185012
0.168475,-0.0122515
0.509344,-0.00410495
0.602584,-0.003476
0.267618,-0.00490278
-0.364685,-0.00329436
-0.596599,0.00370412
-0.245828,0.0140564
0.0254409,0.0189606
0.0540148,0.0184007
0.0631982,-0.0170886
0.131567,-0.0377119
0.112902,-0.0236932
-0.0169185,0.00205307
-0.174856,0.0244532
-0.130166,0.0268447
-0.0688823,0.0178188
-0.0537125,0.00889303
-0.0523832,-0.0101538
-0.0620979,-0.0196443
-0.0255886,-0.014857
-0.00405067,-0.000948081
0.00559108,-0.00468088
0.0272047,0.0106384
0.059873,0.0171725
0.0637549,0.0179664
0.090155,0.0174756
0.145689,-0.010012
0.168407,-0.0350184
0.0954742,-0.0246931
-0.0755069,0.00729234
-0.205335,0.0102391
-0.141048,0.0104403
-0.0503332,0.00406668
-0.00152182,-0.0201216
0.0165739,-0.0276672
-0.0013137,-0.00556551
-0.0457041,0.00903589
0.0269283,0.0151281
0.19127,0.0212882
0.307286,-0.00292174
0.334224,-0.0479144
0.302667,-0.0099673
0.050739,0.0152789
-0.176014,0.0248423
-0.346545,0.0397901
-0.429103,0.0199253
-0.303362,0.00347136
-0.110931,0.00841887
-0.0668398,-0.00583827
-0.0873484,-0.0119252
-0.0401759,-0.00787116
0.0243064,-0.0056466
0.103292,-0.0034345
0.191475,-3.94e-05
0.255997,-0.0190295
0.17151,-0.0159075
-0.0383614,0.0170278
-0.222836,0.0174502
-0.286348,0.00340663
-0.191793,-0.00868879
0.0047922,0.00540433
0.0131986,0.000767205
0.0512178,-0.0155349
0.119563,-0.050312
0.223001,-0.0273015
0.278979,0.038795
0.337153,0.0552586
0.274541,0.039986
0.0687023,-0.00947546
-0.207583,-0.032809
-0.502159,-0.0195905
-0.336019,-0.00218099
-0.000521661,0.00717414
0.175398,0.0239094
0.186148,0.0365837
0.108782,0.0055322
-0.0542476,-0.0266004
-0.237712,-0.0427641
-0.208357,-0.0223583
-0.0917072,0.0123874
-0.0518394,0.0186617
-0.00915339,0.00801769
-0.00655772,0.00401256
-0.0087362,-0.00534636
-0.00165046,-0.00419283
0.0335266,-0.0112859
0.123881,-0.005543
0.161263,0.00203938
0.117451,-0.00100667
-0.0267001,-0.00513849
-0.171064,-0.0291502
-0.123818,-0.0475144
-0.0426118,0.00210789
-0.00339134,0.0240564
0.0733213,0.00975587
0.171712,0.00861191
0.173726,0.0239477
0.0710877,0.0230825
0.053065,0.0200758
0.297734,0.00997292
0.498942,-0.0126351
0.306543,-0.017918
-0.263038,-0.0328491
-0.579793,-0.00802079
-0.464145,0.0326052
-0.275782,0.0339804
-0.147191,0.00712003
-0.00685027,-0.0106854
0.0226599,-0.0170659
-0.045652,-0.0198199
-0.0324521,-0.0190296
0.0264042,-0.0224418
0.0450566,-0.00337248
0.0573852,0.0317096
0.12719,0.0385067
0.30163,0.00416266
0.450487,-0.0122073
0.377088,-0.0099506
-0.037978,-0.00801416
-0.486442,-0.000510799
-0.537649,-0.000540896
-0.273617,-0.0145633
-0.0788245,-0.025885
0.00694225,0.00287602
0.0688537,0.0136562
0.0871903,4.05e-05
0.0610697,0.00865432
0.03081,0.0253581
0.117087,0.0209258
0.163737,0.0102305
0.130827,0.0163054
-0.0146399,0.0208698
-0.0393918,0.00817053
0.196409,0.00230801
0.183903,-0.0063925
-0.0881454,-0.00278698
-0.376984,0.00139911
-0.216082,-0.00388678
-0.00929187,-0.0183216
0.0268566,-0.0213087
0.0203941,-0.0196908
0.00726901,-0.00500597
0.0311837,-0.0269688
0.00276068,-0.00136457
-0.07394,0.0322844
-0.0667544,0.0244031
0.0828814,-0.00502911
0.153351,-0.0439467
-0.00803081,-0.0170657
-0.113211,0.0125489
0.0122701,0.00309073
0.10711,-0.00250909
0.175325,4.2e-05
0.0600982,-0.00423443
-0.176286,-0.0155833
-0.160907,-0.0203953
0.0533172,-0.0156962
0.184179,0.0029791
0.263612,0.0192477
0.19786,0.0159661
-0.0706702,0.0177007
-0.316719,0.00829454
-0.271313,0.0135946
-0.0484707,0.0199657
0.103486,0.00477285
0.0628537,-0.00576332
-0.115203,0.00505273
-0.158081,0.0250054
-0.0370682,0.0338062
0.00969192,0.0357359
0.155994,0.019509
0.186966,-0.0144732
0.0204216,-0.0279362
-0.0218183,-0.0407933
0.0863597,-0.0495146
0.165419,-0.0326765
0.0976896,-0.013728
-0.102323,0.00310172
-0.278342,0.0187686
-0.307507,0.0246475
-0.16658,0.0154366
-0.0746901,0.00349676
-0.0693613,-0.00481637
-0.0679861,-0.0102901
-0.0190521,-0.000128064
0.0730534,0.00589946
0.215845,-0.00787548
0.289236,-0.0278187
0.19483,-0.0395373
0.0645936,-0.025806
0.100473,-0.00445596
0.185495,0.00480173
0.0720885,0.0221896
-0.176608,0.0208308
-0.204486,0.0105611
-0.0635715,0.0199948
0.0265191,0.0301008
0.00593445,0.0146431
-0.114431,0.00824079
-0.0981044,0.00645599
0.0346445,-0.0020254
0.0457662,-0.00499422
-0.0570816,-0.00216904
-0.160084,-0.00170282
-0.10134,-0.00659574
-0.0170601,-0.00703407
-0.0022008,-0.00520531
0.0121038,-0.00666127
0.0296979,-0.0141059
0.0429601,-0.00650488
0.0527157,0.0114014
0.0679024,-0.0066018
0.144116,-0.0299621
0.30492,0.000794668
0.291339,0.0107295
0.0912478,0.00338885
-0.208913,-0.00845305
-0.355925,-0.000833161
-0.196452,0.00588092
-0.0281892,0.00419333
0.0526544,0.00932499
0.127701,0.0204224
0.141216,0.006117
-0.0188321,-0.0111888
-0.217038,-0.00140124
-0.206792,0.00824988
-0.0175276,0.00638732
0.0503281,0.00902498
0.000490206,0.013753
0.0453224,-0.00224814
0.196718,-0.0257018
0.302933,-0.0161294
0.256753,0.00753698
0.134529,0.00669417
-0.0698865,-0.0180173
-0.403698,-0.0340561
-0.433739,0.0194463
-0.214008,0.0182802
-0.00978071,-0.00081062
0.019572,-0.00108087
0.017934,-0.0113479
0.0664641,-0.0174715
0.0627041,-0.00416846
0.0231119,0.0259784
-0.0552159,0.0388833
-0.109846,0.034818
-0.0784768,0.00398171
0.0315795,-0.00782486
0.0360454,-0.0119677
-0.0403162,-0.0473144
-0.0754506,-0.0310847
0.0205603,0.00100346
0.142602,0.0109445
0.263614,0.0106415
0.244554,0.00347021
0.158346,0.00364466
-0.0224962,0.000942814
-0.135678,0.00694456
0.0362808,0.00713924
0.391204,-0.0113376
0.342226,-0.012177
-0.0323314,0.0302269
-0.456966,0.0233261
-0.483637,-0.0164118
-0.232111,-0.0392414
-0.143491,-0.00689176
-0.0850038,0.0226228
0.0149129,0.0133207
0.107774,0.0122838
0.0977399,0.0093342
0.0146558,-0.00226529
-0.00222353,-0.0334106
0.0285894,0.000972063
-0.0395171,0.00275499
-0.0718702,-0.00556575
-0.0224726,-6.39e-05
-0.00864329,0.00533571
0.100404,0.0117598
0.350034,0.0145828
0.456121,0.0127438
0.278225,-0.000491775
-0.0699519,-0.00944768
-0.198867,-0.0155318
-0.0105867,-0.0461357
0.0434532,-0.00865803
-0.108943,0.00667492
-0.219046,0.00886264
-0.155303,-0.0163549
-0.177132,-0.0140906
-0.245097,0.0374264
-0.0983709,0.0181451
0.165192,-0.011539
0.263516,-0.00493921
0.245608,-0.00292355
0.108199,0.00327103
-0.161086,0.0159056
-0.220425,0.0137125
-0.300516,0.00344533
-0.216549,-0.00948967
-0.0357714,-0.012469
0.0326184,-0.0129889
0.026635,-0.00907151
0.146042,0.0036429
0.353418,0.0133093
0.315614,0.0111561
0.00067079,-0.00485897
-0.300189,0.00226643
-0.215559,0.00876792
-0.0186615,-0.00258531
-0.0153942,0.00286884
-0.0929957,0.0254724
-0.077078,0.031749
0.073935,0.017496
0.0997415,-0.0340775
-0.0115065,-0.0480799
-0.0536519,-0.0538295
-0.0300972,-0.029274
0.110174,0.00499587
0.243584,0.0100515
0.172299,0.0116996
-0.0813778,0.0138092
-0.251342,-0.00335187
-0.102742,-0.023867
0.0543024,-0.00288031
0.0862057,0.0270292
0.0387637,0.0263671
-0.0167075,0.0203151
-0.0288753,0.0383865
0.130757,0.0266639
0.297203,-0.000961451
0.342137,-0.0138656
0.303775,-0.000567276
0.157179,-0.0106559
-0.0360376,-0.028216
-0.418323,-0.00655021
-0.527284,0.00335788
-0.305838,0.00627407
-0.0931276,0.00586052
-0.0454595,0.00412831
-0.0207343,-0.0028551
0.00099201,-0.00899113
-0.00671485,-0.00188564
-0.0324294,0.000310635
-0.0424537,0.000200636
-0.0151976,-0.00369378
0.0241642,-0.00844578
0.0691777,0.00878882
0.0675099,0.0128826
0.0373971,0.00863378
-0.0175579,0.000707384
-0.0351897,0.00172819
0.0579065,-0.00927418
0.189351,-0.0242506
0.31672,-0.00851966
0.311757,0.0100747
0.143699,-0.00916906
-0.0925281,-0.027817
-0.222596,0.0119361
-0.202754,0.0105344
-0.136076,-0.00151005
-0.110109,-0.00522142
-0.0788531,-0.0115997
-0.0391304,-0.0179154
-0.0204254,0.0164812
-0.0874696,0.0247778
-0.0954094,0.00839936
0.00864338,-0.00349953
0.117188,-0.00828466
0.165481,-0.0112368
0.0684866,-0.00178122
-0.0689867,-0.00586513
-0.151392,-0.0343015
-0.0503877,-0.0173953
0.160235,0.0423419
0.230115,0.0301763
0.0819068,-0.0098812
-0.148753,-0.00553642
-0.0916403,0.0275305
0.169431,0.0128107
0.289371,-0.00756023
0.12625,0.014215
-0.19735,0.0125761
-0.191443,0.00189387
-0.189976,-0.000377983
-0.181464,-0.00381607
-0.144327,-0.00597008
-0.16647,0.00826914
-0.00456652,0.00667888
0.183841,-0.00340783
0.278306,-0.00331071
0.250727,-0.0164584
0.112738,-0.0218858
0.014342,-0.00920269
-0.00337737,0.00800342
-0.0617583,0.0146322
-0.152972,0.0149287
-0.201871,0.010716
-0.175054,0.00032613
-0.142427,-0.0119945
-0.138108,-0.0288476
-0.0479929,-0.0320078
0.0232282,-0.00459587
0.0986883,0.0235421
0.28445,0.017331
0.352868,-0.0222405
0.210082,-0.0224502
-0.0983764,0.00885559
-0.259893,0.0101576
-0.0932775,0.00619807
-0.0172599,-0.0137717
-0.0207331,-0.0150799
0.0150158,0.0001693
0.0124814,0.00542765
-0.00239244,-0.0173675
-0.00253836,-0.00750618
0.0700921,0.0166514
0.166236,0.00131705
0.240916,-0.00609318
0.125947,0.00853113
-0.0549991,0.0143318
-0.0697091,0.0221432
-0.0602719,0.0267087
-0.157146,0.0167583
-0.249744,0.00802299
-0.167439,0.0266323
-0.0934102,0.0169395
-0.029089,-0.0269016
-0.010307,-0.043364
0.0095594,0.012058
0.0644729,0.0179355
0.109367,-0.00879373
0.133112,-0.0117253
0.125986,0.0124177
0.134561,0.0103966
-0.00622715,0.00316728
-0.183045,0.00272947
-0.169278,0.000715757
-0.102961,-0.00181728
-0.0266004,-0.0134018
0.0434922,-0.0173616
0.066344,-0.0104541
0.0807737,-0.0145588
0.131694,-0.00670559
0.0857326,-0.00728174
-0.0482751,0.0021206
-0.0184269,0.0162932
0.0517531,-0.000230917
-0.0869457,0.00201749
-0.204741,0.0288096
-0.0824441,0.00586826
0.049829,-0.0398042
0.0706563,-0.011814
0.0453823,0.0243207
0.0320097,0.0384073
0.0325252,0.0174655
0.0572329,0.00328249
-0.0128165,-0.0198385
-0.133667,-0.0670769
-0.0930888,-0.0688671
0.00110859,-0.0359959
0.0504567,-0.0200889
0.118393,-0.0256742
0.184322,-0.00969344
0.244907,0.0463775
0.330372,0.0309957
0.185889,0.0150392
-0.303762,0.0194835
-0.44833,0.0331102
-0.124492,0.0334611
0.18732,0.0136156
0.397611,0.00497536
0.215316,0.0173885
-0.0698557,0.0237661
-0.393509,0.00985451
-0.478587,0.00125987
-0.283559,0.00211
-0.191606,0.0105277
-0.0529657,0.0181036
0.102314,-0.00414849
0.215249,-0.0367346
0.205408,-0.0186251
0.135589,0.00289838
-0.13076,-0.00605155
-0.335873,-0.00768168
-0.0763225,-0.002077
0.219747,-0.00708534
0.25457,-0.0149816
0.176766,-0.00962382
-0.0632965,0.0127661
-0.0778982,0.0163883
-0.104681,0.00609056
-0.108952,0.00171475
0.138601,-0.0173998
0.325445,-0.0174444
0.358173,-0.004509
0.17478,0.00619826
-0.325863,0.0135647
-0.536155,0.0131444
-0.33277,-0.00247317
0.00219107,-0.0074573
0.136212,-0.00520966
0.0412656,-0.00280332
-0.128314,-0.00381624
-0.143622,-0.00344764
-0.0429257,0.00633263
0.0239047,0.0110883
0.0746227,0.000443692
0.10346,-0.00575075
0.079078,-0.00270237
0.059091,0.00313381
0.138205,0.00222968
0.30657,0.00211452
0.469366,-0.00820723
0.373515,-0.0102621
-0.0934169,-0.00493407
-0.312985,-0.0270081
-0.333247,-0.0493236
-0.20461,-0.0179402
0.0778949,-0.00563481
0.125598,-0.0218357
0.0164209,0.000406418
-0.0770703,0.0244443
0.106107,0.00346662
0.168664,-0.0179179
-0.150658,0.0017041
-0.448825,0.0296003
-0.393765,0.0362321
-0.181095,0.0171324
-0.093238,-0.0172505
-0.0197687,0.0219336
0.110788,0.0271213
0.121306,-0.0122981
0.062217,-0.00810417
0.164499,0.00468859
0.261694,-0.0365793
0.182918,-0.0224787
-0.0930934,0.0029766
-0.276039,0.0167637
-0.159156,0.0199614
0.00716182,0.0128058
0.107672,-0.00212995
0.133278,-0.00334408
0.119882,0.0152009
0.104546,0.0187933
0.0891438,0.0174977
0.0743149,0.0265825
0.0847371,0.023083
0.0888334,0.0115714
-0.0629019,0.00222878
-0.264083,0.00337244
-0.25274,0.00841845
-0.0952647,0.00644669
0.0292324,-0.00663011
0.0725505,-0.0198084
0.0227429,-0.0155771
0.0219504,-0.00775375
0.0316849,-0.00318253
-0.0382858,-0.00604426
-0.0539719,-0.00882475
-0.0181748,0.0090203
0.00279916,0.00838522
0.0598931,0.0151542
0.195285,0.0123742
0.412769,-0.00800724
0.48933,-0.00221064
0.213319,0.00311564
-0.220762,-0.00689699
-0.364745,-0.0202477
-0.200413,-0.0686032
-0.167932,-0.0346649
-0.269864,0.031729
-0.236688,0.00417835
-0.0679426,-0.0227868
0.0312921,-0.00439489
0.0279254,0.012577
-0.0303917,-0.00741481
-0.0487308,-0.0101953
-0.0142056,0.0265168
-0.000269879,0.0409559
0.00073913,0.0222201
0.0318556,-0.0150558
0.0716103,-0.0227507
0.124091,-0.00536602
-0.0134736,-0.00473379
-0.122215,5.59e-06
0.104365,0.0129069
0.211216,0.00414305
0.116596,-0.00320235
0.0656747,0.00513662
0.121576,0.00495485
0.169586,-0.00758864
0.0264096,-0.00200361
-0.268277,0.000597824
-0.267252,-0.00286582
-0.0840027,-0.00175835
-0.0861923,0.000490164
-0.108538,0.00586119
-0.0412483,-0.00011696
0.00939495,-0.0117518
-0.0314857,-0.02588
-0.0767002,-0.000648335
-0.070364,0.00174911
-0.0365533,-0.00262233
0.0222162,-0.00153243
0.0889209,0.00988642
0.160083,0.0132101
0.255466,-0.000875668
0.323501,-0.0110976
0.329925,-0.00692562
0.227042,-0.000942439
0.174084,-0.00167017
0.0669453,0.00070863
-0.149985,0.00601381
-0.377087,0.00915167
-0.566163,0.0145054
-0.426242,0.0126149
-0.12085,-0.00152923
0.05336,-0.0191296
0.0828084,-0.0103394
0.0629547,0.00153796
0.00410075,-0.00309695
-0.0467264,-0.00566433
0.00745646,-0.000831408
0.02757,-0.00968421
0.039348,-0.0143318
0.0592048,0.00427081
0.0382965,0.0170769
0.0485471,0.0182612
0.0368235,0.0176525
-0.0306738,0.00671892
-0.0845271,-0.00205873
-0.0324703,-0.00175359
0.0370017,-0.00629853
0.0594273,-0.0021639
0.0614918,-0.00462155
0.0595047,-0.00976092
0.0513419,-0.0166523
0.0187679,-0.00325752
0.0173256,0.00601969
0.060941,-0.0253391
0.0638863,-0.0268456
0.038075,-0.0151086
-0.0554124,0.00192269
-0.0856306,0.018584
-0.0247159,0.0238546
0.00955459,0.0272
0.0173306,0.023502
-0.0514503,0.0131019
-0.079533,0.00398963
-0.0230171,-0.00117863
-0.00595257,0.00238824
-0.0238592,0.00460514
-0.0176435,0.000231791
0.0293155,0.00295686
0.0797952,0.00164258
0.103778,-0.0131803
0.116331,-0.0212273
0.0564593,-0.0115002
-0.0245027,0.0100832
-0.129011,0.0203054
-0.109446,0.0241285
-0.018817,0.0205374
-0.00816482,0.015601
-0.0316912,0.0085418
-0.00248793,0.00482743
0.0428248,-0.0039987
0.043687,-0.00794214
0.0152541,-0.00578252
-3.83e-05,-0.00758228
0.00613578,-0.0103201
0.0256802,-0.00254825
0.0276501,0.000330254
-0.0220832,-0.00092016
-0.0600405,-0.00444845
-0.0249498,-0.00449264
0.0549862,-0.000224485
