Comp Ch 3,Comp Ch 4
0.412683,-0.00699629
0.113772,-0.0329964
-0.184497,-0.0358033
-0.225957,-0.0375344
-0.157534,-0.0257855
-0.00898622,-0.015889
0.0740678,0.0035205
0.140168,0.0038808
0.301942,-0.0066731
0.382603,-0.0140027
0.289898,0.000333393
0.177095,0.0269314
-0.0503718,0.0249097
-0.242788,-0.000390776
-0.253226,-0.00693357
-0.234618,-0.00104082
-0.00388896,-0.0116893
0.0933354,-0.0123837
-0.239188,-0.00601683
-0.537751,0.00331301
-0.543403,0.0195504
-0.329706,0.0411741
-0.115284,0.0711195
0.11932,0.0547849
0.228939,0.0149194
0.208275,-0.0106596
0.103138,-0.0274465
-0.0204502,-0.0672963
0.0154041,-0.0397093
0.155931,0.024888
0.220516,0.0145537
0.142971,-0.0292329
-0.00327839,-0.0320325
-0.159699,-0.0127963
-0.171253,-0.0279367
0.0232387,-0.0687096
0.211901,-0.0197941
0.150474,0.0344193
0.0332685,0.0258535
-0.112107,-0.00967673
-0.209814,-0.0270054
-0.180673,0.0168803
-0.159218,0.0196052
-0.109931,0.0544184
0.194544,0.0658519
0.604545,0.0444132
0.79265,0.0071247
0.604761,-0.0176506
0.0516624,-0.0234846
-0.603735,-0.0290585
-0.885032,-0.0214085
-0.579459,-0.00739222
-0.200582,-0.000768847
0.0194683,-0.0175524
0.221239,-0.071283
0.289646,-0.0598785
0.230607,0.0314575
0.0920448,0.0377391
-0.140644,0.0301639
-0.157638,0.0620021
-0.130222,0.0642945
-0.162213,0.0113398
-0.0269985,-0.0499286
0.226282,0.0021441
0.517474,0.0332151
0.31069,0.0115636
-0.00719375,-0.0127429
-0.00695008,-0.0214985
-0.0707909,-0.00554963
-0.00497293,-0.00117015
0.151062,-0.00974232
0.144068,-0.00342457
-0.0194263,0.00173478
-0.00144164,0.0137823
0.0433716,0.0223809
-0.357577,0.026433
-0.674494,0.0214426
-0.533898,0.00764938
-0.345194,-0.0183357
-0.212556,-0.0277245
0.0202071,-0.0122065
0.22267,-0.00894906
0.28294,-0.0156265
0.178771,0.00208386
0.119033,0.0298373
0.04703,0.000238819
-0.0564832,-0.0546793
-0.0468192,-0.0562872
0.0435193,-0.0162903
0.134909,0.00480521
0.231438,0.0257358
0.24101,0.034033
0.145248,0.0264713
-0.00921508,0.0218482
-0.048841,0.0160559
0.0759692,0.0144189
0.257414,-0.0023109
0.326135,-0.0202886
0.172216,-0.0338035
-0.204594,-0.047054
-0.403392,-0.0464399
-0.286637,-0.01981
-0.210136,-0.00458141
-0.188274,-0.00700847
-0.187437,-0.00294403
-0.267187,0.0151994
-0.212816,0.0338537
0.0426672,0.0417599
0.465979,0.0298018
0.677867,0.0118678
0.631038,0.000109531
0.390843,-0.0133062
-0.0856254,-0.0197124
-0.407752,-0.0128245
-0.419635,-0.00791818
-0.416039,-0.0180382
-0.135062,-0.0264822
-0.0390677,-0.00209788
-0.133943,0.0227468
-0.0731778,0.0226601
0.0124815,-0.00614598
-0.0302565,-0.0343853
-0.0183491,-0.0316038
0.161728,-0.0434559
0.417454,0.0227231
0.431133,0.0645414
0.249518,0.0544188
0.161922,0.0236834
0.186565,-0.0129349
-0.17041,-0.0280178
-0.764952,-0.0024154
-0.673545,0.016678
-0.239438,0.00841952
0.158033,0.0222796
0.262277,0.0275563
-0.0667403,0.00688181
-0.317515,-0.00865053
-0.20451,-0.00434965
-0.0611243,0.0155773
-0.116814,0.0369956
-0.198676,0.0384544
-0.0499282,0.0238489
0.222841,0.0182544
0.334549,-0.00322124
0.611704,-0.0490371
0.941344,-0.0864291
0.783281,-0.081784
0.249034,-0.10544
-0.680496,-0.211154
-0.926962,-0.285105
-0.578801,-0.104891
-0.355324,0.0402052
0.0730891,0.0782935
0.525101,0.109341
0.46494,0.134054
0.0795541,0.143354
-0.355127,0.13588
-0.363899,0.13119
-0.0923043,0.135479
5.99e-05,0.11292
-0.197431,0.0922327
-0.241947,0.0604775
-0.0793163,0.0174498
0.110471,-0.0415019
0.323739,-0.0361824
0.355419,0.0204755
0.258583,0.00892401
0.0744756,-0.0249628
-0.0794597,-0.037175
-0.0702273,-0.0522178
0.0615926,-0.0570982
0.0973997,-0.041761
0.00387763,-0.0264188
-0.0887731,-0.0269425
-0.152232,-0.0252067
-0.202076,-0.025286
-0.155426,-0.0240065
0.0328427,-0.0206728
0.197964,-0.0299266
0.209561,-0.0443319
0.103837,-0.00606194
0.0103222,0.0551984
-0.08901,0.0288002
-0.0281842,-0.00546913
0.0975511,-0.0476167
0.277914,-0.048764
0.572938,0.0378908
0.645586,0.0742319
0.243144,0.0384108
-0.51608,-0.011132
-0.76668,-0.0440476
-0.700473,-0.0366116
-0.454291,-0.0210527
-0.234495,-0.0108913
-0.110843,-0.00909136
0.253439,-0.0213838
0.539027,-0.0117532
0.515612,0.0114528
0.0736851,0.0328179
-0.453784,0.0434971
-0.367788,0.0294861
-0.0342613,0.0160414
0.0818051,0.0131026
0.0725501,-0.00130185
-0.05595,-0.00731765
-0.0152829,0.00305933
0.0891217,-0.00340899
0.0165712,-0.0159788
-0.132043,-0.0194059
-0.240252,-0.00946839
-0.1572,-0.00814279
-0.0809067,-0.0366111
0.0457542,-0.074327
0.169402,-0.0932913
0.133316,-0.137713
0.154376,-0.111949
0.123218,-0.0202922
0.199754,0.0225472
0.57715,0.0236288
0.609882,0.0074048
0.448092,0.0020088
-0.117747,0.0322656
-0.812562,0.0583881
-0.696818,0.0572694
-0.349185,0.0555047
-0.19172,0.058483
0.107725,0.0604677
0.321574,0.0613429
0.276027,0.0514242
-0.0681756,0.0379334
-0.541214,0.0302099
-0.530261,0.029523
-0.177774,0.0338379
0.17037,0.0290215
0.259267,0.00760656
0.171911,0.00791438
-0.00245185,0.000692971
0.00653606,-0.0236038
0.192128,-0.0289843
0.235977,-0.0269678
0.0380964,-0.0133307
-0.244289,0.00923249
-0.320576,0.0246225
-0.108628,0.0334075
0.179309,0.025317
0.259388,-0.000266121
0.231299,-0.00849361
0.297808,-0.0215568
0.318125,-0.0165402
0.360659,-0.0110536
0.125756,-0.0252143
-0.263202,-0.0191911
-0.173959,-0.00184705
-0.0663097,-0.0012927
-0.123079,-0.0290661
-0.362468,-0.0429002
-0.45265,-0.0160326
-0.315085,-0.0230107
-0.10211,-0.00233415
0.280895,0.00865217
0.485207,0.00367503
0.383077,0.0195125
-0.03318,0.010987
-0.497659,0.00940495
-0.482633,0.0182069
-0.242724,0.0213001
0.0378715,0.00735066
0.438503,-0.0310985
0.702911,-0.0403675
0.524307,-0.0294298
-0.0468416,-0.0251282
-0.478173,-0.0168224
-0.398926,-0.0148954
-0.117993,-0.0263767
-0.0655411,-0.0226911
-0.0848546,0.0103543
0.0730174,0.0235751
0.15663,0.0204987
0.0690175,0.0231845
0.0174225,0.0415349
0.0713555,0.0497741
0.11547,0.0185773
0.0659105,-0.00175088
-0.0984433,-0.0110649
-0.332774,-0.0137567
-0.111318,-0.0113252
0.246647,-0.0199522
0.304469,-0.0137067
0.323117,-0.0206677
0.291383,-0.0224401
0.118565,-0.0176342
-0.324851,0.00681245
-0.603296,0.0209201
-0.281244,0.01678
-0.069867,0.0330286
-0.191391,0.014681
-0.270016,-0.00729988
0.0442493,-0.0116662
0.691988,-0.0295769
1.08023,-0.0427744
0.728331,-0.0519994
-0.165672,-0.00610429
-0.738751,0.032496
-0.763398,0.0163423
-0.445819,0.00501276
-0.290119,-0.00600394
-0.185634,0.00543657
-0.0249751,0.034961
0.0726384,0.0306812
0.111096,0.012952
0.0797337,-0.0217054
0.00763598,-0.0402693
-0.0392314,0.0107432
-0.00915813,0.0299592
0.00348113,0.0590786
-0.0636619,0.0360585
-0.0563871,-0.0257701
0.0102468,-0.0303415
0.10882,-0.00684156
0.180881,-0.006416
0.207618,-0.0122393
0.159968,-0.0123795
0.120529,-0.00958185
0.152393,-0.00249268
0.166019,0.00565991
0.152631,0.00191761
0.0760993,0.0137042
0.0455847,0.0325742
-0.0245371,0.0279761
-0.143318,0.00855375
-0.154282,0.00338504
-0.0446379,0.0142479
-0.101604,0.0112037
-0.274565,-0.0356185
-0.17949,-0.0472654
0.0691509,-0.0153692
0.412602,0.0152017
0.52318,-0.00628543
0.272209,-0.0360152
-0.0584527,-0.00407521
-0.402641,0.0231522
-0.19234,0.0208376
0.513944,0.0109421
0.758723,-0.00917734
0.436198,-0.017449
-0.626642,0.0139968
-1.2968,0.0222544
-1.00904,0.00571927
-0.600126,-0.00901262
-0.285685,-0.0016664
-0.00565117,0.0139195
0.223746,0.0252479
0.356459,0.0203144
0.342428,-0.000525777
0.241315,-0.0140877
0.210237,0.00102747
0.0711984,0.0065587
-0.0282651,-0.00741237
0.0867447,-0.00173196
0.24494,-0.00367976
0.324113,-0.0138104
0.171829,-0.0263315
-0.192983,-0.0379283
-0.258599,-0.0283124
-0.196836,-0.0145887
-0.162966,0.000817721
-0.0647665,0.0129909
0.160792,0.00937845
0.420343,0.000168151
0.569064,-0.00424789
0.25129,-0.00356351
-0.301117,0.0126027
-0.500168,0.020499
-0.333362,0.00556717
-0.173222,-0.00110404
-0.158037,-0.0171566
-0.143701,0.00250023
0.0453004,0.0273149
0.246031,0.00368993
0.151822,-0.016273
-0.0329387,-0.0220026
-0.212954,-0.00717374
-0.180701,0.00517626
0.0713492,0.00485922
0.242854,-0.0160466
0.140951,-0.0197469
0.16446,-0.0180515
0.380347,0.0045528
0.392667,0.00336037
0.192014,-0.0122787
-0.0218838,-0.00504634
0.167401,0.0102412
0.410378,0.0259898
0.430007,0.0246811
0.0608991,0.0205282
-0.69264,0.0313332
-1.03839,0.0382243
-0.768553,0.0175878
-0.540416,0.00134253
-0.310974,0.00673769
-0.0266411,-0.000435773
0.134414,-0.0168583
0.175993,6.56e-06
0.121001,0.00459522
0.0425292,-0.00299218
0.116064,-0.000496032
0.230382,-0.00543902
0.271448,-0.00493924
0.170007,-0.00602075
-0.0763388,-0.00699347
-0.189401,0.0045557
-0.086182,0.011677
0.0855695,-0.00423002
0.260227,-0.020467
0.257981,-0.0106248
0.216763,-0.00727459
0.188527,-0.012441
0.257837,-0.00435142
0.257784,0.00191281
-0.0612354,0.00216231
-0.298995,0.00177244
-0.30255,0.00568992
-0.185989,0.00820189
-0.168256,-2.62e-05
-0.404984,-0.00715823
-0.31319,0.00291789
-0.115557,0.00304966
-0.0554582,-0.0136861
0.0503831,-0.00782314
0.149209,0.00117619
0.289272,-0.000295695
0.413175,-0.00134134
0.274375,0.00374407
0.0472265,0.0112545
-0.195659,0.009656
-0.146826,0.00477696
-0.0583406,-0.00570512
-0.197327,-0.0156831
-0.179623,-0.0292835
0.0870332,-0.0414871
0.27058,-0.0253107
0.275107,-6.66e-05
0.173279,0.011425
-0.00336005,0.0150631
-0.11333,0.0131481
-0.172478,-0.000640905
-0.207359,-0.024223
-0.0867697,-0.0105305
0.0759431,0.0167779
0.121341,0.0269177
0.064072,0.0260502
-0.115491,0.0232911
-0.167751,0.00983102
-0.111036,-0.0117027
-0.116642,-0.0150752
-0.0629442,-0.0139378
0.152868,-0.00265055
0.318746,-0.00737472
0.332457,-0.0177277
0.244245,-0.0180762
0.0689841,-0.0364353
-0.126592,-0.00945852
-0.253454,-0.00213084
-0.481921,-0.0169519
-0.286665,0.0497212
0.100808,0.0840721
0.269191,0.0123811
0.197838,0.0126495
-0.00841132,0.0101365
-0.0102913,0.00508036
0.14301,-0.00333878
0.261689,-0.0127397
0.100981,-0.0379511
-0.21299,-0.00525177
-0.30535,0.0177617
-0.339701,-0.00293309
-0.370849,-0.00332403
-0.191132,0.0108203
0.0768902,0.0270005
0.333982,0.0149225
0.526802,0.0112971
0.523642,0.0154866
0.186256,-0.00574322
-0.119584,-0.00959597
-0.331928,0.00234137
-0.439337,0.00870948
-0.28575,0.00303726
-0.178765,-0.00887373
-0.094547,-0.0148781
0.0571345,-0.0196441
0.172528,-0.0241289
0.117706,-0.0181489
-0.06995,-0.00260019
-0.157576,0.0147252
0.0138807,0.0214518
0.174401,0.00907643
0.174805,-0.0202147
0.0459223,-0.021609
-0.0255578,-0.0100793
0.107224,-0.00990311
0.232069,0.002801
0.248906,0.000426126
0.134162,-0.00857709
-0.0991558,0.00286274
-0.112823,0.0212581
0.0132943,0.0302576
-0.040323,0.00290795
-0.0478638,-0.00974666
-0.0584802,0.00378759
-0.192886,0.00514082
-0.203296,0.0119255
-0.0753103,-0.00347471
0.043583,-0.00859304
0.14912,-0.00350509
0.19589,-0.0067103
0.190094,0.00457066
0.0904032,0.0255967
-0.134473,-0.0165244
-0.197667,-0.0455606
-0.160227,-0.034185
-0.0648,-0.00767789
0.0904433,0.00329687
0.194286,-0.00124981
0.216215,0.00641839
0.196418,0.0287895
0.21302,0.0292368
0.194291,0.00216253
-0.228322,-0.00583045
-0.640401,0.0162892
-0.53096,0.0165651
-0.206334,-0.000334431
-0.124044,0.00109513
-0.177483,0.00184904
-0.135533,-0.0180253
0.058449,0.0135276
0.169202,0.0371063
0.0945682,0.00259944
-0.00130442,-0.0379285
0.0864393,-0.0171592
0.26198,0.0185773
0.316842,0.0086032
0.175937,0.0012567
-0.0773967,0.00534729
-0.0742885,0.00760899
0.188994,-0.00916676
0.33436,-0.0369137
0.25582,-0.0268744
-0.0351975,-0.0132843
-0.264373,0.00905298
-0.1138,0.0177147
0.216469,0.00889786
0.238783,0.0128705
0.038148,0.0144281
-0.320262,0.00825034
-0.5801,0.0212626
-0.293522,0.0449171
0.051505,0.0410872
0.340666,0.015102
0.441457,-0.0117483
0.261311,-0.0224978
0.00288799,-0.0310777
-0.354325,-0.0285648
-0.386714,-0.0251519
-0.2318,-0.0359695
-0.157549,-0.0470126
-0.0741675,-0.0376714
0.015819,-0.0225971
-0.0132372,-0.0140481
-0.0220006,-0.00042752
-0.00575567,-0.00545917
-0.0255757,-0.0123632
-0.00435108,7.07e-05
0.0838683,0.00944192
0.142766,-0.0080802
0.143404,-0.0097878
0.0291399,0.0181093
-0.0724741,0.0217938
0.0116131,0.0145538
0.0657015,0.0139383
0.0867394,0.0268244
0.0666917,0.0206516
0.0780107,-0.0221721
0.171963,-0.0135253
0.179339,0.00363634
0.160711,0.0127624
0.1592,-0.00342161
0.152816,-0.0296049
0.0290888,0.00045185
-0.174903,0.0377885
-0.154309,0.0269072
-0.101901,0.0146774
-0.190862,0.0244906
-0.337904,0.038591
-0.396948,0.018552
-0.307716,-0.0330186
-0.134108,-0.052305
-0.00443565,-0.0522181
0.0107028,0.0055156
0.00701155,0.036587
0.171185,0.0248856
0.478071,0.014664
0.601555,0.00762864
0.448709,0.0111462
0.0855644,0.00832994
-0.206908,2.45e-05
-0.176598,0.00746348
-0.0907188,0.017017
-0.264062,-0.0021683
-0.333055,-0.0322863
-0.16708,-0.0388079
-0.0704986,0.000902743
0.00208213,0.0191905
0.142928,0.01462
0.227026,-0.0102344
0.154752,-0.0145509
-0.0952406,-0.00780243
-0.365211,-0.00381726
-0.269892,0.00258798
-0.071897,0.00173153
0.0356996,-0.0143177
0.108733,-0.0345446
0.119725,-0.00882584
0.107425,0.0141775
0.0197747,0.0164433
-0.0220324,0.0165003
0.144102,0.0103451
0.181283,0.00935747
0.163363,0.0056839
0.139653,0.0066662
-0.00352069,-0.00198717
-0.0119753,-0.00735944
-0.0420118,-0.00135754
-0.0995856,0.000434267
0.0804107,0.00688625
0.24823,0.0174795
0.142784,0.00622805
-0.16639,-0.0164965
-0.44703,-0.0215974
-0.381904,-0.00544646
-0.20135,-0.000144603
-0.0183251,0.00263978
0.116715,-0.00175167
0.135711,-0.00935818
0.120279,-0.00130814
0.0934408,0.00538206
0.102039,0.00767036
0.162417,0.00610318
0.075009,0.0107065
0.0398251,0.0131146
0.0473497,0.00732264
-0.0695659,-0.0116227
-0.207348,-0.0232407
-0.274316,-0.00708453
-0.191885,0.00751253
-0.010949,0.00955868
0.0141629,0.00198415
0.0503243,-0.0172008
0.167015,-0.0104657
0.209004,0.000342564
0.280234,0.00344088
0.223616,0.00479735
-0.0179217,-0.0098388
-0.0462064,-0.0220566
-0.178677,-0.00183737
-0.251379,0.0141792
-0.17976,0.0130906
-0.137081,-0.0108322
-0.0563579,-0.0316904
0.0576587,-0.0158865
0.164257,0.0119721
0.141781,0.0157758
0.200342,0.00449833
0.220944,0.00501224
0.0928602,-0.0130153
-0.069597,-0.0677234
-0.315286,-0.0108573
-0.217759,0.0352019
0.163413,0.0284433
0.377792,0.00493389
0.270888,0.00446055
0.0909958,0.0119467
-0.324178,0.021325
-0.595903,0.0330736
-0.355896,-0.00116435
-0.132985,-0.0325663
-0.066549,-0.00818119
0.00353744,0.00534412
0.0658751,0.00733897
0.0763966,0.00929582
0.0162647,0.027061
-0.0138136,0.0567536
0.0897475,0.0565416
0.122373,0.0101632
0.132912,-0.0451197
0.168137,-0.0586803
0.0567201,-0.0425607
-0.126939,-0.0204242
-0.180114,0.0147959
-0.066348,0.054593
0.02123,0.0233812
0.0366735,-0.0297711
0.0611593,-0.0349158
0.0968333,-0.0320018
0.112248,-0.0136407
0.108334,-0.00823016
0.101041,-0.0217212
0.00572486,-0.00166512
-0.0618573,0.0288564
-0.0483422,0.0438948
-0.0892186,0.0335899
-0.189927,0.0220119
-0.130645,0.00692876
0.0341855,0.00250108
0.186031,0.00417059
0.303655,-0.00957645
0.255151,-0.0109233
0.107247,0.0141324
-0.145123,0.0283673
-0.182365,-0.0306925
0.102475,-0.0486035
0.127874,-0.0101855
-0.0364118,0.00833948
-0.153133,0.00150225
-0.147739,0.00166721
-0.0961344,0.012614
-0.118916,0.0002914
-0.232094,-0.0267558
-0.271719,-0.040958
-0.229613,-0.0183333
-0.0499549,-0.020716
0.291969,-0.0255857
0.722978,-0.0163269
0.938219,-0.016727
0.647415,-0.0127824
-0.0264602,0.0145881
-0.614505,0.0204571
-0.891268,0.0242125
-0.744471,0.0447907
-0.395969,0.0431027
-0.0953877,0.0184335
0.0113189,0.00410115
0.0359408,-0.0473776
0.0401564,-0.0228542
-0.0122709,-0.0175907
-0.0292694,-0.0101176
0.00627493,-0.0020214
0.0703332,-0.0236986
0.126371,-0.0144533
0.159391,0.0127904
0.0987541,0.00119619
-0.00542696,0.00316291
-0.0365864,0.0182044
0.0413544,0.0183916
0.155736,0.00545114
0.366022,-0.00231656
0.484321,0.00958421
0.357159,-0.00305416
0.0195636,-0.0039841
-0.315802,0.0097633
-0.253551,0.0310683
0.19018,0.00259806
0.456922,0.00138193
0.392559,0.0678006
-0.150173,0.0498173
-0.608821,-0.00487807
-0.539593,-0.046579
-0.307783,0.00481377
-0.173967,0.027786
-0.0993125,-0.0218846
0.0904323,-0.021193
0.19703,0.0108889
0.243575,0.0263683
0.166556,0.00757335
-0.0761671,-0.00809671
-0.102833,0.00768876
-0.00335661,0.0239912
-0.0125509,-0.00194018
0.0128634,0.0150512
-0.123983,0.0171736
-0.314004,-0.0729576
-0.275766,-0.112258
-0.119153,-0.0342543
-0.0403173,0.0345154
0.166205,0.0662434
0.451689,0.0440552
0.55663,-0.00693562
0.385998,-0.0235717
-0.0209447,-0.00786789
-0.24923,-0.000438331
-0.100986,-0.0484767
0.322765,-0.057171
0.488479,-0.0685341
0.108826,-0.0101344
-0.442502,0.0209132
-0.516594,0.00336646
-0.289038,0.00302568
-0.175133,0.0530514
-0.134859,0.0498095
-0.0720603,0.00877959
0.206821,-0.0123364
0.193963,0.000119257
-0.123639,0.0249149
-0.314323,0.0302556
-0.140555,-0.0129132
0.0327692,0.00814936
0.00223242,0.0127292
-0.161415,0.0122825
-0.148718,0.00743347
0.0854558,-0.0482488
0.202207,-0.0630357
0.0598646,-0.0216956
-0.0545734,0.0394573
-0.0730447,0.0455086
-0.00635004,-0.0147901
0.092949,-0.0396267
0.0779692,-0.0299326
0.139189,-0.0614884
0.271137,0.0105062
0.47907,0.0789553
0.595718,0.0202909
0.390036,-0.0298062
-0.0578819,-0.00304165
-0.55529,0.0106849
-0.424698,-0.0443337
0.0987683,-0.0858723
0.304123,0.0364993
0.560619,0.0663761
0.416432,0.008961
-0.117917,0.0128507
-0.463957,0.0474276
-0.7654,0.0200519
-0.867147,-0.027264
-0.534054,-0.0159995
-0.0869681,0.0213505
0.0713944,0.0765738
0.022562,0.120183
0.0311951,0.0382251
0.0305513,-0.0830738
0.116677,-0.0303136
-0.0254923,-0.0356939
-0.0332039,-0.0266812
0.0529105,0.0216913
0.158526,0.010629
0.179763,-0.000309405
-0.101611,-0.0202132
-0.0544524,-0.0956293
0.442571,-0.0959302
0.630746,0.0439848
0.643822,0.0573935
0.402702,-0.00895895
0.237604,-0.0630097
0.142721,-0.029919
-0.445968,0.0579527
-1.02285,0.022174
-0.813427,-0.0767292
-0.35453,-0.00123174
-0.239326,0.0686627
-0.195565,0.101638
-0.0874896,0.0752144
-0.0194435,0.0172136
0.113705,-0.0229757
0.0968485,-0.0280867
0.0637046,-0.00165529
0.240438,0.0173738
0.342925,0.018336
0.279474,-0.00134594
0.163227,-0.0046863
0.0196036,-0.00398138
-0.0212223,-0.0102619
0.181225,-0.00148123
0.417043,-0.00505923
0.653219,-0.03311
0.845015,-0.0432997
0.622109,-0.0562888
-0.10523,-0.0585384
-0.996917,0.00588319
-1.25412,0.0622166
-0.764557,0.0405265
-0.314547,0.0258718
-0.14624,-0.0262045
-0.135405,-0.0471796
-0.195986,0.0158075
0.137671,0.0315245
0.54595,0.0120212
0.694257,0.0328747
0.526118,-0.0395714
0.0988752,-0.0699408
-0.202142,-0.102262
-0.383386,-0.0206348
-0.544758,0.0912389
-0.501066,0.0839466
-0.142067,0.0268571
0.218676,-0.0113844
0.373973,-0.056056
0.258186,-0.048393
0.0778325,0.0167259
0.237738,0.0113384
0.292138,0.0108976
-0.0667246,0.00647611
-0.58084,0.00526486
-0.596883,0.010312
-0.156901,0.0668114
0.137153,0.0618158
0.234053,0.00479965
0.174688,-0.0116188
0.031529,-0.00497258
0.00404686,-0.00201862
0.0643896,-0.0209167
0.184098,-0.00174364
0.354186,-0.0217132
0.542099,-0.0385081
0.734118,-0.00402982
0.284734,-0.0062563
-0.498304,-0.0100448
-0.759653,-0.0066807
-0.651247,-0.00934262
-0.382119,-0.0383458
-0.0472478,-0.0176658
0.0995294,0.0559896
0.078254,0.0766817
-0.0872358,0.0510163
-0.317993,0.0287696
-0.252688,-0.0184604
0.0400996,-0.0593071
0.296171,-0.0826192
0.503202,-0.0156557
0.436981,0.0223346
0.0897803,0.0721536
-0.236895,0.0588264
-0.246002,-0.012284
0.140329,-0.0488916
0.389648,-0.0420841
0.512939,-0.0905549
0.0697396,-0.119748
-0.465163,-0.020339
-0.488019,0.0474856
-0.466885,0.0258725
-0.444163,0.0114974
-0.349651,-0.00294993
-0.00269848,-0.00189435
0.534593,-0.027868
0.816817,0.0502312
0.54828,0.117542
-0.199227,0.0959362
-0.281225,0.0907787
0.392888,0.0153868
0.965801,-0.0660273
0.975621,-0.118488
0.470919,-0.0668526
-0.354301,-0.00682156
-1.06441,0.0113562
-1.07109,0.0387104
-0.562954,0.0624736
-0.314819,0.030916
-0.408493,-0.0532512
-0.39254,-0.0509015
-0.138549,-0.0193757
0.0680984,-0.0427063
0.0877763,-0.0134296
-0.0340306,-0.00158827
-0.146007,0.0443677
-0.10374,0.0280338
0.107488,-0.0247945
0.328689,-0.0276126
0.451792,-0.00375673
0.361731,0.0293882
0.0866275,0.024514
-0.248847,0.0732378
-0.243134,0.10108
-0.131375,0.0403843
-0.0396401,-0.0436898
0.034447,-0.0436756
0.0977468,-0.0159971
0.0805539,0.0113331
0.0672327,0.046826
0.114387,0.0783581
0.180488,0.0915768
0.138663,0.013525
-0.0483333,-0.0180623
-0.136782,-0.0111796
-0.0663582,-0.0539257
0.105717,-0.160257
0.170545,-0.122945
0.216715,-0.0777039
0.457719,-0.0636897
0.563223,-0.0502743
0.429671,-0.018678
-0.0993995,0.00512159
-0.58176,0.000292226
-0.613403,-0.0544907
-0.65906,0.0194135
-0.336698,0.0916988
0.261668,0.142703
0.871017,0.119358
1.514,0.0314277
1.34446,-0.0614704
0.526877,-0.124069
-1.01631,-0.0526982
-2.02049,0.0765954
-1.6187,0.111625
-1.21211,0.0897955
-0.722131,0.077474
-0.0759714,0.0699567
0.588466,0.0393514
1.1818,-0.0834184
1.58812,-0.176918
1.55711,-0.131712
0.294921,-0.055328
-0.9198,0.0389579
-1.31687,0.0907131
-1.2531,0.00271757
-0.653724,-0.0446764
-0.0402173,-0.028113
0.232288,-0.0136768
0.267238,0.00253805
0.138026,0.029296
0.0650752,0.0650947
-0.061947,0.0160435
0.133159,0.00114811
0.523979,0.0236888
0.665394,0.0144494
0.626674,0.00426549
0.12812,0.00826531
-0.595166,0.0275066
-0.905009,-0.00585052
-0.471294,-0.0425909
0.11299,-0.0306179
0.581478,-0.011024
0.792558,0.019171
0.429276,0.0302001
-0.581476,0.0123038
-0.966731,0.0149797
-0.560049,-0.0176706
0.0740091,-0.088665
0.969429,-0.0509715
1.30243,-0.0444852
0.880623,-0.0629725
-0.180195,-0.00626411
-0.918161,-0.0438813
-0.610938,-0.063145
-0.162748,0.0204063
0.0572687,0.0695696
-0.220561,0.0577634
-0.532764,0.0415496
-0.302473,0.0386389
0.160612,0.0245826
0.778913,-0.0554574
1.00155,-0.0595905
0.465824,-0.0145287
-0.481871,0.043611
-0.899928,0.0918732
-0.134281,0.0510677
0.604454,-0.0135343
0.327471,0.0109876
-0.242757,0.0480032
-0.568245,0.0354857
-0.617229,0.0182302
-0.309223,0.0222735
-0.257122,0.023461
-0.153597,-0.00666727
0.0518216,-0.0155119
0.298344,-0.0173003
0.381657,-0.0577483
0.1093,-0.0754327
-0.379409,0.0271728
-0.464977,0.0603122
-0.21519,-0.0196179
-0.0239732,-0.0787108
0.230842,-0.0413321
0.426087,-0.0374053
0.674124,-0.0297549
0.88019,0.0163729
0.940807,0.0578619
0.719995,0.026421
-0.0713568,-0.0122105
-0.83471,-0.0232463
-0.683996,-0.0405185
-0.294997,0.0205745
-0.473583,0.153601
-0.626667,0.207056
-0.248819,0.133058
-0.0014067,0.020626
-0.107563,-0.0659707
-0.129703,-0.149925
-0.00351061,-0.184945
0.120165,-0.0782945
0.358333,-0.0762331
0.725029,-0.0631663
0.571148,-0.034198
-0.199426,-0.033657
-0.844527,-0.031399
-0.75921,0.00706207
-0.179047,-0.00488789
0.41417,-0.0580852
0.787691,-0.00203902
0.887123,0.0505048
0.424618,-0.00733058
-0.454851,0.0370234
-0.534379,0.0651222
-0.433589,0.0739156
-0.205501,0.12235
0.543877,0.167097
1.24113,0.137119
1.24655,0.0291541
0.285323,-0.0536762
-1.63597,-0.00764462
-2.03426,0.0363927
-0.835623,0.000171535
-0.108501,-0.079858
0.163823,-0.108357
0.210051,-0.0519822
0.147373,-0.0115268
0.162949,-0.0581607
0.573148,-0.0989284
0.799178,-0.0564044
0.593668,0.0281334
-0.0872937,0.0442019
-0.944702,0.0225788
-1.25974,0.0178633
-0.735497,0.0834689
0.543029,0.104075
1.23071,0.0748441
0.936268,-0.0268661
-0.0360106,-0.0777928
-0.706515,-0.0879242
-0.334695,-0.0176811
-0.150537,0.0417545
-0.279763,0.00176636
-0.00199685,-0.0567905
0.248965,-0.0627353
0.531744,-0.0581008
0.589427,-0.0887088
0.548816,-0.0209295
1.07099,-0.00359015
0.782945,-0.0807782
-0.702949,-0.0534181
-1.57066,0.0993876
-1.22818,0.179277
-0.876824,0.0725863
0.0667418,-0.0367983
1.19982,-0.0632331
1.61023,-0.0326108
1.0163,-0.0447286
-0.49297,0.0541993
-1.36236,0.112058
-1.33799,0.120394
-1.03885,0.0861589
-0.272305,-0.00708161
1.02943,-0.0666877
1.48133,-0.0541558
0.901201,-0.0215436
-0.2203,-0.0467473
-1.30284,0.00129726
-1.12855,0.0873971
-0.452236,0.0662372
-0.0653388,-0.0210646
0.115815,-0.0255323
0.164115,-0.00143961
0.114879,-0.0222721
0.156571,-0.0420487
0.185895,-0.0290752
0.236619,0.00232687
0.454426,0.0141785
0.456909,0.0136807
0.243183,0.0103775
-0.0459764,0.00422847
0.180048,0.00621919
0.455865,0.0234844
0.30987,0.0224261
-0.0558497,-0.00681899
-0.387594,-0.0475032
-0.271437,-0.0367455
-0.0914782,0.0177141
-0.151408,0.0744653
-0.114702,0.106009
0.103809,0.0678761
-0.15381,-0.014056
-0.319268,-0.0279371
-0.158103,-0.0309901
0.0591439,-0.0242766
0.0514252,-0.0364077
-0.0856805,-0.0690655
-0.159543,-0.0705217
-0.0599272,-0.0221516
0.0253129,-0.0091418
0.0207025,-0.0569379
0.416534,-0.124516
0.719995,-0.0711698
0.46891,-0.0543637
-0.112687,-0.0742941
-0.560405,0.0224218
-0.369815,0.0429311
-0.0484082,-0.00139517
0.253242,-0.00519896
0.30585,0.0783499
0.190069,0.124837
-0.00559286,0.0878218
-0.472338,0.0722145
-0.789125,0.0617388
-0.564866,0.0578075
-0.196193,0.0410998
-0.117506,0.0063943
-0.0824724,-0.00733645
0.0719185,-0.0519869
0.249488,-0.0609927
0.444049,-0.018202
0.960392,-0.0118838
1.81652,-0.0153912
1.75261,0.0202151
0.486033,0.0250676
-1.42074,-0.0191493
-2.07654,-0.0206682
-1.11385,0.0511572
-0.505438,0.0118435
-0.213788,-0.0618635
0.270786,-0.129685
0.473267,-0.140618
0.173278,-0.0161738
-0.321347,0.106515
-0.654584,0.104586
-0.413024,0.0430784
0.167221,0.0166931
0.562662,-0.000422245
0.506128,-0.0163108
0.167968,-0.0189591
-0.14513,-0.00509765
-0.371399,0.014686
-0.359739,0.0239402
0.00622218,0.0196202
0.217875,0.007427
0.506161,0.0100718
0.604455,0.0267269
0.381874,0.0317721
-0.166806,0.0236631
-0.668809,0.0254982
-0.240172,0.0394682
0.482412,0.0168453
0.792521,-0.0288621
0.399252,-0.0590108
-0.345476,-0.0339083
-0.481342,-0.0738478
-0.439975,-0.0958954
-0.301164,-0.0242326
-0.185295,0.04304
-0.000751349,0.0682093
0.0543548,0.0496065
-0.0296783,0.0192663
-0.127695,0.0135547
-0.156232,0.0152787
-0.0656017,0.0244587
0.224101,0.0926555
0.421949,0.13455
0.0960341,-0.00856858
-0.186901,-0.0880729
-0.10677,-0.139724
0.109047,-0.223945
0.179731,-0.124138
0.0694453,-0.0065227
-0.112149,0.0554343
-0.163281,0.0812081
0.0454041,0.0197959
0.245513,-0.0535378
0.208032,-0.0736656
-0.103718,-0.0381602
-0.293286,0.0153163
-0.111784,0.0076611
0.0557701,0.0281688
0.0235921,0.0537292
-0.101284,0.0589209
-0.111759,0.073272
0.0871926,0.0754606
0.421172,0.0705594
0.350037,0.0665318
0.0987808,0.0321523
-0.240809,-0.0443096
-0.216361,-0.106086
0.0862779,-0.099831
0.290508,-0.0897558
0.240747,-0.0369556
-0.0667759,0.0111035
-0.127341,-0.00190873
0.0506183,0.000309066
0.272244,0.0316792
0.220848,0.0672233
0.0347334,0.0612006
-0.363129,0.0368765
-0.428746,0.0214057
-0.237239,0.0285835
-0.163183,0.0284589
-0.145136,-0.0129924
-0.233319,-0.0331965
-0.39343,-0.0146258
-0.332046,0.00412177
-0.131658,0.00990501
-0.0919773,0.00795177
0.0359148,-0.0126612
0.195718,-0.0212162
0.445332,-0.0105578
0.695057,-0.0130637
0.554276,-0.00689675
0.143375,-0.0230349
-0.466337,-0.0472944
-0.603309,-0.010232
-0.366456,0.0409003
-0.208916,0.0648607
0.193938,0.105462
0.414071,0.0672886
0.231403,-0.063376
-0.035973,-0.108201
-0.120022,-0.0758507
0.0231705,-0.0128115
0.076247,0.0196351
0.0807982,0.00945161
0.116327,-0.0160636
0.0750519,-0.0124922
0.0573313,0.00981114
-0.0498587,0.00534853
-0.144553,0.0052166
-0.126511,0.0249019
0.00135088,0.0168212
0.0661878,-0.0229568
0.0058469,-0.0239144
-0.0152315,-0.0185982
0.0101326,-0.0390683
0.166461,-0.090735
0.287468,-0.0911839
0.229124,0.0461655
0.0165979,0.0551064
-0.187848,0.0360889
-0.326119,0.0533341
-0.324792,0.0597994
-0.277451,0.0101659
-0.241286,-0.0314853
0.183168,-0.0931886
0.938461,-0.0305573
1.23784,0.0621305
0.857443,0.045777
-0.347732,0.043403
-0.917866,0.0301013
-0.578917,-0.0326266
-0.467092,-0.0463211
-0.275606,-0.0101402
-0.202336,0.0315896
-0.110348,0.0207457
0.0617999,0.0040663
0.0514,-0.0108795
0.0936659,-0.0189438
0.436394,-0.00111694
0.491478,-0.00241257
-0.0477869,-0.0152915
-0.827895,0.0129864
-0.962508,0.0500245
-0.62286,0.0602662
-0.264836,0.0177805
0.0323854,0.0203089
0.161789,0.0648988
0.258348,0.0497508
0.267482,0.0113239
0.17146,-0.0262616
0.151473,-0.0313868
0.294234,0.0194802
0.502395,-0.0296818
0.740662,-0.0998682
0.705554,-0.157575
0.415586,-0.080758
-0.137151,0.00461307
-0.704897,0.000368511
-0.659333,0.0135795
-0.339925,0.0304623
-0.152843,0.0279783
0.154231,0.0104659
0.418475,-0.00372353
0.30671,-0.00818933
-0.0633574,-0.0034504
-0.101051,0.00313585
0.118038,0.0295732
0.10848,0.0429983
-0.0733907,0.0274087
-0.430386,0.017196
-0.533449,0.0327815
-0.389968,0.0563973
-0.167232,0.051399
0.13132,0.0164834
0.228191,-0.00950637
0.037059,-0.00571268
-0.0938746,-0.0112493
-0.029631,-0.0482957
0.113003,-0.0525109
0.308242,-0.0315366
0.560656,-0.0106566
0.71843,0.00281286
0.722268,0.0303427
0.69383,0.0720039
0.423807,0.0875504
-0.0903671,-0.00641976
-0.65734,-0.104951
-1.0096,-0.108484
-0.945444,-0.0707844
-0.33614,-0.0466296
-0.00750049,-0.0186736
-0.150456,0.0117428
-0.472319,0.0322341
-0.517277,0.014293
-0.218686,-0.0708905
-0.0162885,-0.0652127
0.0960211,0.0119657
0.118584,0.0183126
0.0645491,0.00333429
0.0591318,0.0619599
0.0597881,0.0605846
0.0971833,0.0184147
0.140729,0.00987437
0.156618,0.0295896
0.134679,0.0171189
0.126912,0.0187039
0.171469,0.0230302
0.280549,0.00479007
0.35096,-0.0110603
0.283261,-0.030125
0.241668,0.0479524
0.129652,0.08628
-0.128146,0.0100412
-0.0389677,-0.0431454
0.120157,-0.0451918
-0.0171715,-0.0461464
-0.335439,-0.0463747
-0.475934,-0.013522
-0.334946,0.0304378
-0.180779,0.0366767
-0.0771197,0.038097
-0.0642762,0.0294774
-0.0535877,0.010816
0.0447659,0.0312113
0.189701,0.0529263
0.323726,0.0352033
0.308903,-0.0136221
0.207417,-0.0776173
0.206139,-0.0986678
0.100767,-0.0543334
-0.197247,-0.0707697
-0.382517,-0.0437949
-0.228422,0.0146537
-0.0592845,-0.0131112
0.0973527,-0.0413276
0.148552,-0.00301392
0.145507,0.0128711
0.102754,0.0114333
0.0222997,0.0168772
0.061273,0.0350948
-0.0425605,0.0525367
-0.151108,0.0483196
-0.109637,0.0386618
0.172065,0.0354827
0.308927,0.0131177
-0.0524724,0.0115089
-0.494757,0.0297112
-0.505599,0.0152017
-0.321873,-0.0317797
-0.203565,-0.0725027
-0.113547,-0.0452428
0.0392065,-0.0173691
0.145647,0.034084
0.156666,0.0613692
0.270224,0.0289604
0.307955,-0.0214332
0.231298,-0.00803485
0.0394439,-0.019514
-0.222552,-0.0880239
-0.255323,-0.0917387
-0.135966,-0.0509363
-0.16429,0.0292405
-0.109778,0.0854089
0.0622589,0.0562362
0.309504,-0.00983582
0.596646,-0.0380382
0.718863,-0.0125752
0.556378,0.0122484
0.221775,0.00366085
-0.345216,-0.0317902
-0.601798,0.0466382
-0.43767,0.072744
-0.236555,0.048044
0.0139695,0.0356912
-0.15504,0.00671782
-0.297279,0.0152393
-0.125919,0.0221825
-0.0931909,-0.0256099
-0.101615,-0.0472491
-0.017214,-0.07134
0.0489583,-0.0799691
-0.00135986,-0.0540262
-0.0360753,-0.0031839
0.00470659,0.0308152
0.083013,0.0200217
0.229731,0.0257011
0.316669,-0.0594708
0.221449,-0.114194
-0.0333295,0.000743786
-0.17501,0.071696
0.189184,0.0676093
0.421477,0.0750269
0.236942,0.0493384
-0.192261,0.0285577
-0.391378,0.0111864
-0.147731,-0.0237142
0.18125,0.00782633
0.303369,0.00195801
0.297558,-0.0292107
0.173888,-0.018556
-0.0424482,-0.00888793
-0.273204,-0.0179588
-0.359206,-0.0183173
-0.386642,0.00243574
-0.442179,-0.011222
-0.337596,-0.0323662
-0.196418,-0.0113154
-0.048943,0.0196386
0.0756149,0.0314515
0.12249,0.0358732
0.214242,0.031054
0.331995,-0.00281849
0.231092,0.00443613
-0.0723724,0.0411422
-0.181751,0.0379235
0.105659,0.063425
0.162918,0.0372086
0.0678968,-0.0641508
0.0826583,-0.0533114
0.232073,0.004724
0.296155,-0.019213
0.195345,-0.0948925
-0.0790209,-0.109542
-0.203165,-0.101332
-0.271699,-0.0391349
-0.295645,0.0362098
-0.227794,0.0463438
-0.106212,0.063614
-0.0622015,0.0395046
0.0737084,0.0204931
0.278007,0.0123317
0.156726,0.0166215
-0.131341,0.0265217
-0.350827,0.0436598
-0.224223,0.0485921
0.0711869,0.0263824
0.172059,0.0101444
0.0554585,-0.0179551
-0.0813946,-0.0461954
-0.0557034,-0.0512743
0.0730525,-0.0321607
0.258248,-0.00799152
0.289928,0.00690013
0.149089,0.0138874
-0.0112378,-0.013545
-0.112947,-0.0597907
0.00744962,-0.0693686
0.162785,-0.0192082
0.209954,0.0257881
0.0873825,0.0368873
-0.0796141,0.0378527
-0.168262,0.0362671
-0.288612,0.0274732
-0.0987246,0.00364037
0.0597769,-0.0135296
-0.052191,0.0165168
-0.0162439,0.046057
0.255129,0.0510822
0.481752,0.0249351
0.421624,-0.0145113
-0.150968,-0.016208
-0.819507,-0.0106763
-0.676249,0.00573443
-0.312769,0.0261522
-0.151371,0.00774664
-0.0638942,-0.0132057
0.0570397,-0.0233556
0.159746,-0.0421916
0.0902082,-0.0746674
-0.0231828,-0.0948307
-0.00757446,-0.0690701
0.0331635,-0.0114294
0.0230358,0.00431242
0.0950898,0.0105093
0.187293,0.0430774
0.275291,0.0404824
0.519919,0.028629
0.860105,0.0468217
0.909211,0.0205548
0.338217,0.000843275
-0.500054,0.00855726
-1.03198,0.0334188
-0.853809,0.0330885
-0.378529,0.0106428
-0.0980981,-0.0388693
-0.149244,-0.0398392
-0.277826,0.00934633
-0.120818,0.0129609
0.000732403,0.0153693
0.02267,-0.0039886
-0.0207205,-0.01728
-0.0597787,0.00974312
0.0637077,0.00633947
0.186097,-0.0348365
0.240471,-0.0383529
0.362346,-0.00312885
0.462698,0.00560035
0.395479,0.00266886
-0.0295935,0.00993523
-0.177956,0.032794
0.141031,0.0618874
0.278961,0.0626203
0.0227379,-0.0141603
-0.509132,-0.0951366
-0.635513,-0.0520731
-0.480773,-0.0144444
-0.239709,0.0100268
-0.0420665,-0.0100203
0.0489128,-0.0143865
0.138913,0.0161579
0.461459,0.0209671
0.572724,-0.038658
0.335056,-0.0690672
-0.122918,0.0260664
-0.457883,0.04576
-0.343632,-0.0453019
-0.291696,-0.039654
-0.312052,0.0586343
-0.074712,0.0748298
0.366,0.0270586
0.693829,-3.27e-05
0.779395,-0.025181
0.644367,-0.00713259
0.354381,-0.00690141
-0.0483862,-0.0123122
-0.455293,-0.0271012
-0.573117,0.0122545
-0.824681,0.0531756
-0.750689,0.0396947
-0.304946,0.0211132
-0.04635,0.0219133
0.308823,0.0239558
0.452893,-0.0256177
0.195001,-0.0334773
-0.0442702,-0.0244443
-0.189771,-0.00570793
-0.119392,0.0113433
0.00672497,0.00328101
0.00436521,-0.0221277
-0.00141603,-0.0234989
0.0646345,-0.00169994
0.160886,-0.000426963
0.108609,-0.00797634
-0.0332475,0.0104249
-0.148848,-0.00187452
-0.0927846,-0.00301407
0.0770928,0.0254745
0.139568,0.0421325
0.180317,0.0309255
0.264042,0.0187437
0.330967,-0.0407493
0.271161,-0.0977828
0.0502853,-0.0695344
-0.13518,-0.0291274
-0.197274,0.007999
-0.215265,0.0370497
-0.164722,0.0436083
0.124908,0.00566877
0.227599,-0.0190424
-0.0523994,0.0242787
-0.457364,0.0231116
-0.452441,0.0018207
-0.18049,0.0136756
-0.00449071,-0.00502201
0.241271,-0.0418355
0.478275,0.00170152
0.439068,0.0433355
0.134287,0.0389392
-0.154157,0.0195515
-0.207042,-0.0440429
-0.077291,-0.0742497
-0.00743651,0.0327212
-0.0896422,0.0896202
-0.0865832,0.0254976
-0.0228332,-0.0827975
0.0304297,-0.0801561
0.0364643,-0.00839791
0.0350735,-0.0209423
0.0366167,-0.00197724
-0.149333,0.00594162
-0.214158,0.0174131
0.0629426,0.0223578
0.00331585,0.0205504
-0.291271,0.0215097
-0.272791,0.0249997
-0.0186756,0.0334751
0.131107,0.00418975
0.149555,-0.0372235
0.14563,-0.0202313
0.145403,0.0171613
0.179885,0.0707885
0.114373,0.0654739
-0.0587332,0.0185255
-0.169209,-0.0652679
-0.197688,-0.115403
-0.0148946,-0.041473
0.317614,-0.013883
0.381145,-0.0301605
0.149212,-0.00499625
-0.119957,0.0235265
-0.371869,0.0363708
-0.160078,0.0376913
0.158213,0.0275045
0.313254,-0.000136862
0.239792,-0.061031
-0.0827173,-0.0733457
-0.201444,-0.0382897
-0.120221,0.0331272
-0.183999,0.049979
-0.264663,0.0672095
-0.141393,0.0771266
-0.0323627,0.0650639
-0.0346397,0.0351324
-0.00539052,-0.01124
0.00980852,-0.035431
-0.0755557,-0.045171
-0.0743478,-0.00447956
0.13238,0.0461175
0.3196,0.0269085
0.313469,-0.0231332
0.254092,-0.0688381
0.0567958,-0.0818126
-0.152306,-0.0610085
-0.340384,-0.0311896
-0.260541,0.00276614
0.0701269,0.0257301
0.277534,0.0102466
0.308113,-0.0193417
0.117493,-0.0194923
-0.232443,-0.00629877
-0.225499,0.00309953
0.0924158,0.0204133
0.229669,0.0405257
0.0427036,0.0437756
-0.306901,0.0222409
-0.305508,0.00848608
0.226621,0.00916793
0.75695,0.021362
0.85013,-0.0264504
0.559345,-0.0766254
-0.412135,-0.00927783
-1.12632,0.0549119
-0.822817,0.0238219
-0.441653,0.00712996
-0.173285,-0.00513344
0.201429,-0.0266984
0.322367,-0.0301552
-0.111356,-0.0150132
-0.395762,0.020227
-0.24585,0.0453062
-0.131251,0.0477212
-0.0401052,0.00402683
-0.0228436,-0.0337649
0.00876715,-0.00473223
0.0511031,0.0198315
0.0948583,0.00637046
0.193584,-0.0440978
0.286423,-0.0370307
0.271889,0.0292901
0.152908,0.0456172
0.0657791,0.0442471
0.0251312,0.00681676
0.202156,-0.0542644
0.367472,-0.0615474
0.30644,-0.00735481
-0.035995,-0.0124188
-0.33858,-0.0449434
-0.184164,0.0169266
0.113628,0.062699
0.144737,0.00783615
0.0501105,-0.0348937
-0.0842509,0.00325575
-0.099982,0.0272945
-0.0524615,0.0219344
-0.101762,0.0210621
-0.190731,0.0114599
-0.255367,-0.0181124
-0.182169,-0.0424268
-0.0431772,-0.0451808
0.0673055,-0.0774689
0.149235,-0.0466936
0.225227,-0.0106434
0.245368,0.0379846
0.0886965,0.0615951
-0.0481146,0.0472862
0.0376344,0.00564465
0.295004,-0.00456937
0.640848,0.022714
0.698455,0.048773
0.607924,0.106406
-0.247073,0.0520794
-1.36133,-0.0207034
-1.15745,-0.0384496
-0.612726,-0.0400022
-0.258722,-0.0445038
0.0212082,-0.0580907
0.0874257,-0.035912
0.0160467,0.0104233
-0.0385806,0.0128784
-0.0725563,-0.00720707
-0.0675746,-0.00112422
0.022275,0.0109928
0.0913205,0.0187265
0.0875233,0.018131
0.0822678,0.00536717
0.14599,-0.00367894
0.356174,0.00296748
0.50488,0.0205748
0.41989,0.0358184
0.106531,0.0324653
-0.207377,-0.00439387
-0.162837,-0.00674133
0.0136304,-0.00735751
0.0483894,-0.0478962
-0.0170134,-0.0914273
-0.125265,-0.0476788
-0.184811,0.0269526
-0.191801,0.0342582
-0.150868,0.0205096
-0.0650219,0.0101756
-0.0184525,-0.0288229
-0.00783392,-0.0479847
0.124153,-0.0140456
0.320591,-0.0378371
0.352457,-0.0539918
0.221795,0.0356337
0.0492405,0.0752163
-0.0549035,0.0670741
-0.157285,0.0446151
-0.193782,0.0375483
-0.0803857,0.0525798
0.0992348,0.0310522
0.225829,-0.061298
0.28639,-0.0882454
-0.00802531,-0.0307791
-0.311245,0.00770403
-0.494426,0.0142838
-0.4386,0.00627701
-0.199592,-0.00509454
-0.0195176,-0.0201729
0.0412355,-0.00930596
0.0159053,0.00479003
-0.0802435,0.0110431
-0.0451128,-0.031028
0.0567387,-0.0557048
0.0399585,-0.047231
0.11139,-0.00521338
0.311276,0.0573745
0.450732,0.0400375
0.444183,-0.00658826
0.304641,0.0083237
-0.0305322,0.0093788
-0.184748,-0.01219
-0.22804,0.0012172
-0.313646,0.0342456
-0.0318189,0.0419344
0.41589,0.0230301
0.377939,0.0124032
-0.190876,0.015384
-0.703246,0.014971
-0.617582,0.00868851
-0.306901,-0.00178102
-0.0980737,-0.00333382
0.00166111,0.00335072
-0.0668166,0.0200191
-0.0386012,0.0252066
0.0180747,0.0146526
0.147551,0.00222888
0.261708,-0.0316567
0.232645,-0.0269943
-0.0217073,0.0127331
0.0328298,0.0156848
0.423516,-0.00269142
0.609489,-0.0296474
0.384184,-0.0521243
-0.0293943,-0.0611721
-0.192027,-0.0413106
-0.302014,-0.000649314
-0.194208,-0.0422738
-0.115372,-0.049926
0.024478,-0.050319
-0.0272294,-0.0457386
-0.237858,0.0214493
-0.311476,0.089974
-0.26054,0.0778797
-0.0761323,0.0274267
0.138698,0.0122324
0.199949,0.0184403
0.107082,-0.0183029
-0.0480969,-0.00951363
-0.152996,0.0290132
-0.0964848,0.0305664
0.106717,0.012472
0.201064,-0.014893
0.104883,-0.019915
0.0504692,-0.0156448
0.198303,-0.0216417
0.298316,-0.0116316
0.244409,0.0152186
0.0781175,0.0275144
-0.104697,-0.00274011
0.0533236,-0.0136975
0.348549,0.035414
0.288904,0.0295236
-0.329581,-0.00175882
-0.748079,-0.00790919
-0.528537,-0.00515564
-0.196258,0.00163416
-0.0142959,-0.00801109
0.0241093,-0.0282873
0.0188743,-0.0435157
-0.0412855,0.00257075
-0.0101974,0.0849822
0.0661425,0.115985
0.128789,0.0560433
0.171435,-0.111511
0.0906557,-0.207344
-0.143779,-0.029887
-0.237667,0.0677478
-0.15343,0.0600708
-0.0635951,0.040754
-0.0797632,-0.0146003
-0.103914,-0.0263111
0.0905981,0.00269798
0.657366,0.00267497
1.29608,-0.0537152
1.21633,-0.088485
0.507098,-0.0292799
-0.467537,0.0326128
-0.735052,-0.00344833
-0.788096,0.00418902
-0.9135,0.0220612
-0.683859,0.011773
-0.389762,0.0428702
-0.165668,0.0660798
-0.0431112,0.0480154
0.0279939,0.0209468
0.0443744,-1.12e-05
0.056692,-0.00423556
0.0162714,-0.0266833
0.0341763,-0.0412331
0.0625373,-0.000171759
0.0392117,0.0442363
0.13002,0.0482851
0.30794,0.0220717
0.431785,-0.0147147
0.442255,-0.0552824
0.253779,-0.0528899
-0.113802,0.0137995
-0.136045,0.0396911
0.150567,0.0162204
0.236701,-0.00816931
0.044001,-0.0173891
-0.329037,-0.00829845
-0.460701,0.00891009
-0.367929,0.0127447
-0.151117,-0.00467267
0.12981,-0.0221549
0.303848,-0.012661
0.451129,0.0112717
0.377141,0.0149048
0.0897343,-0.0385756
-0.187521,-0.0849891
-0.411122,-0.039449
-0.442225,0.0447552
-0.195743,0.0764759
-0.0282701,0.0359367
-0.00117727,-0.0203051
0.0875709,-0.0772946
0.233767,-0.0469194
0.24596,0.0101514
0.101314,0.024541
-0.0710563,0.0280602
-0.228974,0.0196098
-0.239981,0.0123376
-0.126206,0.0293209
-0.0822492,0.0397426
-0.0510035,0.0256367
0.0450858,0.00246444
0.0790093,-0.0285038
0.0691818,-0.0273146
0.0355215,0.00284745
0.103716,0.00788151
0.215843,-0.00920511
0.118326,-0.0133748
0.0291598,0.00208159
0.0828937,0.0194783
0.17812,0.0040834
0.215138,-0.011695
0.22773,-0.00365791
0.270191,-0.00364466
0.218715,-0.0126415
0.0490497,-0.0127816
-0.374713,-0.0191419
-0.884011,-0.0091213
-0.64816,0.00772283
-0.0949911,0.00050582
0.0966676,0.00573132
0.14353,-0.0118277
0.0582947,-0.0695221
-0.0916415,-0.0721155
-0.11652,-0.0347444
0.0322653,0.0220566
0.257911,0.0863492
0.474054,0.115108
0.341252,0.0859831
-0.129276,0.0405644
-0.326792,-0.0355794
-0.225212,-0.0749624
-0.0451462,-0.0491486
-0.0909027,0.00208141
-0.266561,0.0181895
-0.2194,-0.0464388
-0.0393284,-0.0716611
0.0408373,0.0359418
0.129933,0.061091
0.212901,0.0289644
0.238627,0.0200408
0.298116,0.0171242
0.344768,-0.0125845
0.280653,-0.0472221
0.075808,-0.0398568
-0.371171,0.00425703
-0.542912,0.0468363
-0.277904,0.0487135
-0.14535,0.026432
-0.0728904,0.00255488
0.0780811,0.0132769
0.199346,0.0285749
0.256257,0.011706
0.207757,-0.00388907
0.00403432,-0.0438826
-0.0674895,-0.0291387
0.0982208,0.00245893
0.0261375,0.00611396
-0.122716,-0.00229054
-0.263434,-0.0162169
-0.258614,-0.0289664
-0.1075,-0.0332412
0.087888,-0.0183161
0.267003,0.000337921
0.238544,-0.00124098
-0.178122,-0.0145559
-0.382672,0.0286484
0.0808169,0.0287064
0.524459,0.0217089
0.504678,0.0164135
0.399531,0.00765605
0.261018,-0.0360696
0.0278075,-0.0925706
-0.17984,-0.0303526
-0.330721,0.0294833
-0.471086,0.03056
-0.366162,0.035472
-0.143924,0.0120446
-0.0757558,-0.0166298
-0.153378,-0.0186872
-0.286808,-0.0168784
-0.261418,-0.0103276
-0.0631607,0.00164318
0.0907187,0.00734998
0.14961,0.0079127
0.145128,0.0239504
0.120389,0.0135242
0.0761553,0.0136126
0.0642727,0.0202385
0.0775761,-0.00610547
0.0421209,-0.0188081
-0.00608836,0.000407926
-0.0159634,-0.00966294
0.00918355,-0.0134775
0.0484898,-0.00880679
0.0755152,0.00108009
0.0466653,0.00594716
0.0611548,0.00345855
0.134113,0.0104145
0.148088,0.0211957
0.100214,-0.00133842
0.0532557,-0.0354383
0.0519331,-0.0129565
0.0171358,0.0238084
0.0174937,0.0257427
0.0142708,0.0247657
-0.0221364,0.0202216
0.0775743,0.0181794
0.195697,0.0251588
0.111845,0.00841765
-0.181583,-0.013698
-0.446731,-0.00692427
-0.461066,-0.0242249
-0.266793,-0.0458982
-0.105553,-0.0300846
0.0616096,0.0168979
0.17788,0.0412247
0.148195,0.009229
0.0638775,-0.0115685
0.0904265,-0.0281753
0.312621,-0.0178806
0.440933,-0.0513933
0.21196,-0.0319778
-0.384271,0.00849489
-0.637405,0.0328053
-0.266,-0.0018177
0.0866329,-0.029022
0.111074,-0.0176475
0.0835112,0.00754842
-0.133737,0.0192076
-0.35,-0.0371484
-0.210687,-0.0843183
0.0668403,0.0110382
0.280972,0.0965114
0.269218,0.0758816
0.065913,0.054885
-0.144889,0.0382505
-0.115144,0.00211345
0.165523,-0.0190564
0.415042,0.016457
0.339307,0.00668553
-0.123611,-0.0137301
-0.548575,-0.0117944
-0.349277,-0.0220446
0.316389,-0.0218819
0.657794,-0.0168477
0.433827,-0.0180626
-0.302461,0.00621182
-0.865472,0.00536902
-0.527877,0.00965222
-0.0873582,0.0239873
0.154233,-0.00261478
0.215593,-0.00150327
0.16979,0.0169017
0.128289,0.042734
0.248266,0.0429695
0.443623,0.0395082
0.439018,-0.0265426
0.164128,-0.115481
-0.138495,-0.0924126
-0.529956,-0.0149362
-0.785483,0.0153141
-0.502007,0.0310961
-0.0990803,0.028882
0.0973375,0.00287333
0.135711,-0.0142766
0.18748,-0.00464132
0.234263,-0.00330362
0.272971,-0.0223855
0.252431,-0.0235946
0.0832993,0.0104496
-0.153991,0.0233705
-0.308713,0.0119812
-0.255377,-0.00615866
-0.0663812,0.0114286
0.0915302,0.0156292
0.101788,-0.00439052
-0.0245192,-0.0291136
-0.0149312,0.00262492
0.139817,0.0443408
0.19698,0.00462562
0.12786,-0.0102767
0.0883926,-0.0151142
0.143144,-0.0247352
0.110961,0.0114721
-0.0622782,0.0424072
-0.276898,0.0547489
-0.250693,0.0382438
-0.167985,-0.0205453
-0.100488,-0.0564357
0.0533584,-0.0480858
0.257276,-0.0370734
0.27215,-0.0176987
0.179733,-0.018233
-0.0243455,-0.00138386
-0.176875,0.0520023
-0.0139886,0.0432634
0.148447,0.052833
0.221678,0.0255734
0.209161,-0.043905
-0.0557464,-0.0568295
-0.218904,-0.0477784
-0.289311,-0.0638091
-0.278882,-0.0397906
-0.172379,0.0487215
-0.15282,0.0674166
-0.191341,0.0324409
-0.110711,0.00263079
-0.00811759,-0.0265936
-0.016269,-0.0194645
-0.128831,-0.0131701
-0.000677195,0.00498075
0.224155,0.0348929
0.28577,0.04973
0.286291,0.0374376
0.45323,-0.00072622
0.652941,-0.022586
0.664334,0.0317802
0.0824987,0.0641337
-0.531097,0.0267953
-0.727592,0.0101009
-0.687447,-0.0232403
-0.332642,-0.0526818
-0.150452,-0.059246
-0.0214123,-0.108812
0.0512843,-0.0682758
-0.0384259,-0.0198932
-0.0587468,0.0477711
0.0933244,0.0600445
0.256895,0.0197425
0.293511,0.0191422
0.133035,0.0370092
-0.113776,0.0261958
-0.218364,-0.0014846
-0.126912,-0.021182
-0.0552217,-0.0267548
0.0323628,0.00342768
0.189402,0.0298244
0.222207,0.0286332
0.161565,0.0155571
-0.0257233,0.0103748
-0.338298,0.0040601
-0.198826,0.00598373
0.124795,0.000575721
0.221707,-0.0201858
0.1877,-0.0458188
-0.0128324,-0.0286341
-0.0175264,0.0100518
0.177031,-0.0106591
0.154425,-0.0164272
0.0441076,-0.0133744
-0.149283,-0.0260377
-0.127225,0.00439034
-0.0686252,0.0188796
-0.264177,-0.0170082
-0.308098,-0.0415767
-0.116697,0.0154453
0.118633,0.0466512
0.228068,0.0524167
0.149413,0.0388421
-0.00595176,0.0213131
-0.156513,0.0105746
-0.147726,0.00463556
-0.0292406,-0.00814285
0.0924135,-0.0178237
0.0563596,-0.018924
-0.0301824,-0.00448458
0.045889,-0.0143395
0.187317,-0.0461432
0.311336,-0.0268882
0.321165,-0.00583172
0.143667,-0.0279776
0.0183988,-0.0512676
0.218778,0.00372335
0.275271,0.0280766
0.17034,0.00732097
-0.228056,-0.00279628
-0.618922,0.0448136
-0.607978,0.0364374
-0.425185,0.00318949
-0.255424,-0.00830931
-0.192656,0.00848277
-0.0825573,0.0257629
0.0313701,0.0156833
0.073101,-0.0064378
0.103011,0.00989947
0.102531,0.0255405
0.106947,0.0182134
0.0493041,0.00623804
0.00812748,-0.0140051
0.0419849,-0.0669156
0.0898107,-0.0748776
0.191071,-0.0208228
0.313434,-0.0454259
0.274842,-0.059256
0.176704,0.0645766
-0.0045476,0.0777028
-0.194957,0.0474386
-0.219222,0.0105663
-0.141797,0.00603607
-0.0212884,0.0283108
0.0659515,0.0272512
0.00519035,-0.0239534
-0.0410361,-0.0322727
0.0641101,-0.00782397
0.0771828,0.00739956
0.0398543,0.00752369
0.0160821,-0.00443779
-0.0120247,-0.022107
-0.0947612,0.00725931
-0.0329239,0.0325048
0.0814102,0.0202481
-0.0174651,0.0227972
-0.116608,0.0250989
0.0199243,-0.000539979
0.0930822,-0.0249175
-0.0284907,-0.0382372
-0.133765,-0.0637685
-0.252557,-0.0668347
-0.192587,-0.00117086
-0.0519018,0.0448516
-0.0302065,0.0304455
-0.0898591,0.00226696
-0.111217,0.00267438
-0.070194,-0.0190919
0.0411516,-0.0409251
0.358719,-0.0191347
0.646902,-0.0193776
0.646039,0.0061809
0.384572,0.0860891
-0.160637,0.118171
-0.320757,0.0549755
0.134057,-0.0587644
0.445403,-0.0586057
0.147577,-0.0420777
-0.375594,-0.0105024
-0.526288,0.00942101
-0.65321,-0.0214567
-0.667197,0.0168166
-0.413726,0.0128878
-0.122292,0.00252898
0.0181381,0.0119278
0.0260681,0.00686708
-0.0339335,-0.0114328
-0.0577289,-0.0330511
0.00567035,-0.0269403
0.133659,-0.0154637
0.193189,0.00596536
0.320536,0.0183458
0.715438,0.000955327
0.933358,-0.0199817
0.824142,-0.0183183
0.395079,-0.0054227
-0.188307,0.0544219
-0.494491,0.0787676
-0.768529,0.0684182
-0.820984,0.0471856
-0.479425,0.0280744
-0.100003,0.00412256
0.0246578,-0.030633
0.00292871,-0.0522674
-0.0327268,-0.0223759
-0.0557892,-0.0124676
-0.0484907,-0.0346934
-0.00210142,-0.0167505
-0.00191531,-0.0206146
-0.0459669,-0.042851
-0.064026,-0.0405096
-0.000551423,-0.0217994
0.134442,0.00286937
0.299187,0.0111118
0.330599,0.0436812
0.268216,0.0660399
0.209906,0.0399056
0.082467,-0.0087832
0.0640467,-0.0439653
0.104907,-0.0240504
-0.0950554,0.00310317
-0.347427,0.0160619
-0.205455,-0.00459184
0.0929031,-0.0433752
0.34743,-0.0194963
0.476869,-0.0569292
0.241854,-0.0262636
-0.0809674,0.0425019
-0.395253,0.00719897
-0.250913,0.0115017
0.200605,0.0222226
0.113571,0.00527016
-0.197081,0.00262804
-0.244975,0.0195942
-0.20098,0.0381062
-0.28003,0.0156481
-0.321072,-0.0142461
-0.185475,-0.0170821
-0.0520599,0.00766355
0.0288853,0.019874
0.0501199,0.0353373
0.0217565,0.0365738
0.0518921,-0.000523611
0.116946,-0.0230525
0.0437024,-0.0160666
-0.134755,-0.00859336
-0.0745971,-0.0270039
0.0986345,-0.0308429
0.14818,-0.00136187
0.0998049,-0.0197085
0.148195,0.00184332
0.233214,0.0503865
0.127743,0.0341265
-0.0264544,0.000669206
-0.0788144,-0.0225524
-0.0165084,-0.0282419
0.00114164,-0.0167775
-0.0467236,0.00133392
-0.103145,0.00670815
-0.117276,-0.00622673
-0.0554109,-0.00583025
0.038769,0.000761297
0.141241,0.00728012
0.144846,0.00465558
0.0427494,-0.0106485
0.00679213,-0.00788512
-0.00349295,0.0207224
0.00616429,0.021677
0.0282975,0.00806408
0.0314055,-0.00709482
0.0233974,-0.0310922
-0.00104234,-0.0477446
-0.0289898,-0.00246599
-0.112334,-0.0194799
-0.21442,-0.0186992
-0.221413,0.0417233
-0.153304,0.071012
-0.0825659,0.0456986
-0.044246,-0.000876174
0.0435791,-0.00184004
0.140862,-0.000774618
0.171632,-0.00704701
0.231481,-0.024379
0.453103,-0.0458647
0.611749,-0.00807137
0.532407,0.0117009
0.0588776,0.0170436
-0.251131,0.0458441
0.207,0.05071
0.351654,0.00527545
0.0135296,-0.0125709
-0.675104,0.0313578
-1.06241,0.0452783
-0.667134,-0.015846
-0.152462,-0.0885856
0.0310658,-0.113521
-0.132331,-0.0952373
-0.451051,-0.0851404
-0.37274,-0.00621011
-0.103424,0.0537812
0.0218082,0.0606552
0.228796,0.0414786
0.599833,0.0186113
0.637863,0.0122181
0.268433,0.0204823
-0.355546,0.030111
-0.502711,0.0313554
-0.0877653,0.0357969
0.123689,0.047647
0.126615,0.0463194
0.104519,0.0114446
0.0868753,-0.0362054
0.138653,-0.0268901
0.16247,-0.0126469
0.0724102,-0.0243857
0.00928301,-0.0624766
-0.0414607,-0.0136731
-0.0655982,0.0293248
-0.00808355,0.00872499
0.0682099,0.00518643
0.113614,0.0189896
0.148882,0.0269012
0.105169,-0.000920513
0.195588,-0.0457142
0.435793,-0.0822315
0.399469,-0.0650942
-0.0185714,-0.0355454
-0.519289,-0.0175966
-0.671998,0.0244529
-0.384696,0.0541252
-0.153424,0.0138621
-0.0539088,0.0121796
0.00660698,0.0128229
0.0909524,0.0044296
0.205267,0.00930244
0.258404,0.00297335
0.222933,-0.00279144
0.0341608,-0.00417671
-0.179931,0.00584793
-0.290725,0.011696
-0.265063,0.0177862
-0.0343946,0.0339099
0.127029,0.0284706
0.237484,0.00925298
0.327327,-0.00294052
0.459327,-0.000415648
0.406045,0.010131
-0.0473265,0.0160255
-0.253647,0.00284033
-0.355962,-0.0114815
-0.428477,-0.0107224
-0.244054,-0.0078945
-0.222256,-0.0112211
-0.220109,-0.0198585
-0.028916,-0.022512
0.15265,-0.0170688
0.244194,-0.0268963
0.174829,-0.0399918
-0.0279719,0.0134449
-0.216364,0.0534652
-0.17095,0.0441052
0.0287681,-0.00830666
0.151435,-0.0393794
0.172632,-0.00739869
0.139315,0.0382791
0.0485832,0.0276226
-0.0227896,0.00516529
0.0495721,-0.0140666
0.0283694,-0.0233429
-0.0804546,-0.0439486
-0.126342,-0.0570091
-0.107662,-0.0340188
-0.0635012,0.00141194
-0.0371524,0.0129864
-0.0428622,0.0216024
0.0215405,0.0184266
0.13942,0.0124827
0.197687,0.00826702
0.253702,0.0116022
0.175751,0.0195269
0.00134811,0.0274047
-0.139041,0.0333476
-0.273119,0.0118991
-0.127011,-0.011368
0.160297,0.027578
0.302785,0.0401722
0.214873,-0.0251994
-0.0127261,-0.0620993
-0.304653,-0.0464694
-0.39805,-0.0127938
-0.262216,0.017096
-0.130838,0.0315657
-0.06406,0.0074642
0.0387298,-0.0113229
0.276048,-0.000731978
0.378491,-0.000617771
0.236748,-0.0242579
-0.0422277,-0.0274748
-0.064456,-0.000924279
0.176794,0.0242615
0.286607,0.0098685
0.233542,-0.00366174
0.0762373,-0.0122373
-0.0947764,-0.0108816
-0.412324,-0.00424669
-0.519608,-0.0165326
-0.215473,-0.0392027
-0.102995,-0.00695449
-0.0509495,0.0666466
-0.146605,0.0979086
-0.233625,0.0736046
-0.074467,0.0494128
-0.0596747,-0.000573541
-0.111937,-0.0477973
-0.000421193,-0.0563043
0.117461,-0.061971
0.176437,-0.0343228
0.139489,0.0165845
0.0487003,0.00116954
0.00718147,-0.054556
0.0805061,-0.0536188
0.262298,0.0166604
0.351372,0.0351516
0.497004,0.00327901
0.434855,-0.0187398
0.091341,-0.000566446
-0.333297,0.0090628
-0.445868,-0.0663982
-0.0858342,-0.0219243
0.149236,0.0280935
0.246045,0.00228715
0.111638,0.0204531
0.14197,0.0756092
0.0475461,0.0654957
-0.418306,0.0450476
-0.350274,0.0327078
-0.0735197,0.0026213
-0.0498581,-0.0239257
-0.208207,-0.0370523
-0.461587,-0.0360011
-0.456133,-0.0244052
-0.134745,-0.01789
0.126554,-0.0274482
0.192308,-0.00313819
0.143272,0.0130649
0.0252296,0.0114187
-0.0447637,0.0102478
0.0239204,0.0104284
0.0814346,0.0059462
0.0921763,0.0139045
0.0684449,0.0196217
0.0286547,0.0142319
0.0279033,0.00992474
0.109174,0.00725591
0.296866,-0.000124973
0.333051,-0.0287593
0.197054,-0.0237696
0.0648469,0.012203
-0.0231551,0.0139068
0.0376413,-0.00683849
0.0636753,-0.043129
-0.0151733,-0.0636807
-0.148847,-0.0255953
-0.28511,0.0235676
-0.235502,0.0345293
-0.0952777,0.0374157
-0.022866,0.0185348
-0.0279505,-0.00972761
-0.0418219,0.00295518
-0.0255825,0.0108817
-0.00662591,0.00940236
0.0172293,0.0192729
0.0338097,0.00779659
0.00280961,-0.0152305
0.0495717,-0.023382
0.176413,-0.0106847
0.175602,0.000654389
-0.0137721,0.0104552
-0.168218,-0.00375723
-0.116306,-0.00562085
-0.0175806,-0.00820307
0.070502,0.00216081
0.0937205,0.00249277
0.00100389,-0.00229949
-0.0923879,-0.000484252
-0.135893,-0.005209
-0.183455,-0.00148545
-0.11041,0.00261238
-0.00572238,0.00287433
0.0458401,-0.00359648
0.253787,-0.00482838
0.647889,0.00924501
0.822055,0.0153094
0.701593,-0.00518942
0.12651,-0.024048
-0.560512,-0.0045103
-0.817256,0.00352441
-0.775544,-0.0115107
-0.512997,0.0385776
-0.227598,0.0171151
-0.137557,-0.00597302
-0.0798763,0.00688993
-0.0206555,0.00254669
-0.0203241,-0.0338029
-0.0166457,-0.0645323
0.056522,-0.073066
0.132767,-0.00768057
0.109883,0.050299
0.00924722,0.0452102
-0.104231,0.0198518
-0.0472844,-0.0010874
0.107721,0.0118848
0.196124,-0.00459142
0.372041,-0.0421841
0.562814,-0.0463582
0.599349,-0.0435708
0.576437,0.0124211
0.288949,-0.00561125
0.053266,0.00831234
-0.248702,0.030641
-0.801122,0.0378839
-0.737709,0.0197269
-0.389107,0.00386099
-0.311341,0.0350339
-0.185165,0.057155
-0.042828,0.0730867
0.00325045,0.046444
0.00805321,-0.00030318
0.0160316,-0.0173062
0.0213038,-0.0168918
0.0572018,-0.0134808
0.101349,-0.00629565
0.080348,-0.0108516
0.0419815,-0.0125185
0.06401,-0.0194946
0.10601,-0.02148
0.172024,-0.0498133
0.307719,-0.0437425
0.423421,0.00460726
0.348674,0.00844418
0.14241,0.000916353
-0.214296,0.00254943
-0.418213,0.00602813
-0.359235,0.0103101
-0.138459,0.00909835
-0.0182608,0.0172246
-0.111439,0.0245505
-0.133716,0.0460413
-0.0560064,0.0602317
0.0296279,0.0320768
0.143734,-0.0360461
0.179561,-0.0542206
0.161292,-0.0406759
0.0501669,-0.0448596
-0.0833894,-0.0253403
-0.235926,-0.000665967
-0.266001,0.012138
-0.140547,0.00977985
0.0363054,-0.00325526
0.236754,-0.00981656
0.251654,-0.0306175
0.115729,-0.00852212
0.0380461,0.0173528
0.142654,-0.0133675
0.252567,-0.0640245
0.173979,-0.0532284
0.102638,0.00568963
0.0696743,0.0518368
-0.110612,0.0782838
-0.321394,0.0598268
-0.451149,-0.017564
-0.414514,-0.0798497
-0.243372,-0.00544901
-0.0708399,0.0481283
0.0762699,0.0123974
0.178887,-0.0177078
0.145016,0.0105054
0.0393364,0.0102847
-0.0819985,-0.00137076
0.0218112,-0.00143894
0.120397,0.00690134
0.0458792,0.0085838
-0.164131,0.0151859
-0.210488,0.0219709
0.0157943,0.00592918
0.152382,-0.00537984
0.188128,-0.00443619
0.219868,-0.00173541
0.147227,-0.00268979
0.0524086,-0.00377043
0.014371,-0.0046912
-0.0882181,0.00343533
-0.112053,0.00593066
0.122741,-0.00488745
0.241295,0.00777546
0.168497,0.0380182
0.017806,-0.028138
-0.0263162,-0.0694355
-0.0300147,0.0120148
-0.244274,0.0280562
-0.39361,0.0281965
-0.295409,0.00105093
-0.0886717,-0.025501
0.0817216,-0.0420376
0.1504,-0.0258356
0.105925,-0.021138
0.0153149,-0.0250755
-0.115981,0.0115334
-0.130646,0.0462402
-0.0393646,0.0402014
0.0237857,0.00162652
0.0206258,-0.00855717
-0.0421281,-0.00521904
-0.0312855,-0.0120155
0.154245,-0.0206061
0.328163,-0.0205649
0.333447,0.0175137
0.138996,0.0386632
-0.147978,0.0214228
-0.0729665,-0.00323622
0.156123,-0.00117289
0.218235,0.00782463
0.17466,-0.00872987
-0.0834014,-0.00786535
-0.400102,0.000259971
-0.360852,-0.0142545
-0.182796,-0.019724
-0.0781796,-0.00265323
-0.0163868,0.000636221
-0.00315988,0.00321876
-0.0682797,0.0145385
-0.0839937,0.0171306
0.0342666,0.00856652
0.145836,0.0238009
0.208901,0.0345361
0.118858,0.00788407
-0.0764848,-0.012853
-0.182443,-0.010431
-0.159721,0.00958771
-0.012907,0.0129014
0.0705968,0.00282022
0.0649852,-0.00366646
0.0905084,-0.0125056
0.195483,-0.0114463
0.194679,-0.00907577
0.172801,-0.0197699
0.154004,-0.00384916
0.0593481,0.0210035
-0.0936425,0.00694067
-0.318745,0.00643152
-0.449593,-0.000906881
-0.359187,-0.0308771
-0.110112,-0.0795503
0.109004,-0.0481675
0.299502,0.0333257
0.463751,0.0327438
0.344126,-0.0434877
0.0230369,-0.0715201
-0.313449,0.0119865
-0.160538,0.0478631
0.376705,0.0179242
0.548304,-0.0191604
0.108808,0.00482212
-0.607457,0.0305894
-0.661508,0.000895411
-0.256664,0.0141053
-0.104502,0.0404745
-0.149072,0.0385658
-0.0714653,0.041486
0.0973636,0.0392933
0.107604,0.0151313
0.0345053,-0.00873467
-0.0276534,-0.0222182
-0.0301322,-0.0273916
0.0437766,-0.0144602
0.0795883,0.000435119
0.0261498,-0.0144016
-0.0494938,-0.025801
-0.0426033,-0.0194358
0.0387852,-0.00869358
0.115255,0.00480288
0.120455,0.0105055
0.0777917,0.0103786
0.0608372,0.00617103
0.0961993,-0.00660464
0.13697,0.00102859
0.161081,0.00818521
0.125705,0.00466294
0.028507,-0.00110489
-0.0179585,-0.00276833
-0.0232862,0.00195875
-0.0429626,0.00663102
0.0129678,-0.0152565
0.080985,-0.0342511
0.0310911,-0.0170068
0.0260308,0.0329783
0.0445765,0.0201967
-0.161745,-0.0174596
-0.322941,-7.72e-05
-0.239583,-0.00364839
-0.0893232,-0.0178152
0.0321397,-0.00637911
0.116034,0.00717132
0.229781,0.00392479
0.246006,-0.00347604
0.0873534,-0.0102813
-0.113953,-0.00970134
-0.30193,-0.0036102
-0.383882,0.0020664
-0.242948,-0.00897705
-0.119323,-0.0149376
-0.0347849,0.00193269
0.157305,0.0114064
0.379071,0.0179702
0.412929,0.0255663
0.235082,0.0247716
-0.0544874,0.014239
-0.188304,0.00294396
-0.0084053,0.000375409
0.213454,0.00555129
0.157847,0.00397694
-0.200572,0.000777868
-0.464306,-0.0294925
-0.304256,-0.0554778
-0.101873,-0.0194526
-0.0144661,0.0322092
-0.0196147,0.0205477
-0.0299173,0.00384524
0.0108602,0.0021622
0.0631314,0.00442459
0.0807257,0.012036
0.0765591,0.0164145
0.0699027,0.0108722
0.0644251,0.00405626
0.0453615,-0.000858161
0.0246811,-0.00825304
0.00776524,-0.0286633
0.00295917,-0.031122
0.0168433,-0.00209332
0.0508119,-0.0303216
0.0677435,-0.0172305
0.0627185,0.0191698
0.0375074,0.0276529
0.00610865,0.012
-0.0227371,0.00618056
-0.0207059,-0.000889718
0.00888067,-0.00795268
0.0137523,0.00821475
-0.00385697,0.0192655
-0.0284362,0.0166107
-0.0222136,0.0123926
0.013491,0.0099023
0.0396007,0.00291423
0.0603215,-0.00934704
0.0522395,-0.00260568
0.0252385,0.0036822
-0.0284272,-0.0114114
-0.0653234,-0.0209649
-0.00337389,-0.0119084
0.0458364,-0.0214432
-0.00471592,-0.0308686
-0.100013,0.00154071
-0.137043,0.0139662
-0.0690864,0.0153033
-0.0204507,0.012597
-0.0378878,0.0120175
0.00540485,0.0038304
0.11403,0.0109796
0.173825,0.016136
0.133592,0.00994459
-0.00663027,0.00432203
-0.180714,0.000640034
-0.208163,-0.000687759
-0.111197,-0.00246653
-0.0102564,-0.00522191
0.0897365,-0.0122573
0.184379,-0.0247215
0.221529,-0.0259342
0.133538,-0.010261
-0.0600457,0.00377588
-0.143878,0.0138864
-0.115167,0.0161084
-0.135624,0.00502217
-0.142775,0.00305374
-0.101275,0.00825505
-0.0229347,0.000508295
-0.00120934,-0.0044229
-0.0106464,-0.000501075
-0.00487486,0.00766708
0.0682858,0.00202167
0.13449,-0.00414317
0.109875,-0.000991214
0.0555413,0.00254475
0.00473002,-0.00471245
-0.041487,-0.00913188
-0.0650165,-0.0140183
-0.104974,-0.0150448
-0.02772,-0.00721177
0.187835,0.000537951
0.281579,-6.54e-05
0.171457,-0.00238779
-0.125574,-0.00428531
-0.293333,-0.00414405
-0.214285,0.00190335
-0.082108,0.0102659
0.130787,0.00966219
0.231426,0.00368254
0.194863,0.00207273
0.0535075,0.00262445
-0.0858861,-0.00142479
-0.121235,-0.00217187
-0.111001,-0.000424411
-0.0979266,0.00108847
-0.0363034,0.0051126
-0.0551179,0.0142422
-0.0948519,0.01129
-0.0377405,0.00491671
0.0203028,0.00815356
0.0308927,-0.00456306
0.0905414,-0.016808
0.213684,-0.0210471
0.328528,-0.0214305
0.315988,-0.00909485
0.0988071,0.0009069
-0.186442,0.00615305
-0.360964,0.00272351
-0.283556,-0.00768392
-0.0555939,-0.0120345
0.0874952,-0.0076601
0.0909599,-0.00169129
-0.0402618,0.00196739
-0.125763,0.00732752
-0.0858783,0.0223542
-0.00951033,0.0178881
0.0295172,0.0111356
0.0278365,0.00446143
0.029511,-0.0117652
-0.00250248,-0.0155744
-0.0394515,-0.00878986
-0.0355211,-0.0358186
-0.00617115,-0.0489523
0.0126449,0.0313492
0.0160444,0.0460416
0.0294418,0.0240549
0.0360777,0.012797
0.0487457,0.00929988
0.0449674,0.00874394
-0.0185463,0.0124126
-0.0145934,0.0209701
0.0171811,0.0220706
0.0289767,0.0193819
0.0507027,0.0117525
0.0952287,0.00250858
0.0981256,-0.00376347
0.0209981,-0.002014
-0.082741,-0.00112371
-0.194915,-0.0100102
