Comp Ch 3,Comp Ch 4
-0.181461,-0.0197276
-0.146573,-0.00155928
-0.172962,0.0337942
-0.0982582,0.04931
-0.0111981,0.0426483
-0.0233433,0.0236046
-0.00390227,-0.0186402
0.0707596,-0.0361394
0.101601,-0.033574
0.0628109,-0.0172952
-0.0302554,0.00488265
-0.0521537,0.010107
0.00719657,0.0136838
0.0439291,0.00465338
-0.0526253,-0.0128765
-0.0839929,-0.0196118
0.0882867,-0.0243554
0.213531,-0.0055655
0.11926,0.0292923
-0.081605,0.00855633
-0.19648,-0.0173318
-0.0653487,0.0400473
-0.000289791,0.0591148
-0.136512,0.0289379
-0.116562,0.0138243
-0.0240499,-0.0174147
0.0328473,-0.0275961
0.0156082,-0.00598533
-0.0107502,-0.0071012
0.0342092,-0.0313223
0.0206542,-0.0281437
0.0171116,-0.0124101
0.0779166,-0.0111982
0.234792,-0.0189549
0.403035,-0.0213504
0.308717,0.00176208
-0.00901819,0.0263076
-0.245018,0.0414681
-0.167142,0.0438534
0.00852031,-0.000734904
-0.0280837,-0.00803634
-0.200482,0.0133494
-0.272662,0.0220989
-0.241086,0.0154747
-0.12171,0.0127422
0.143814,0.00705107
0.396685,-0.0108053
0.48573,-0.027193
0.220176,-0.0211193
-0.117381,-0.021384
-0.230506,-0.0116656
-0.289392,0.0107958
-0.240351,0.00824562
-0.22076,0.0153414
-0.137472,0.00745783
-0.0647863,0.0066569
-0.0676672,-0.0117309
-0.00522377,-0.0827405
0.0923555,-0.116731
0.226315,-0.152315
0.334263,-0.0986193
0.244468,-0.0154124
0.125802,0.0354896
-0.0469687,0.0531061
-0.222817,0.0475637
-0.153313,0.0456333
-0.0808194,0.0441704
-0.171479,0.0518616
-0.191799,0.0772322
0.0126004,0.0919037
0.111231,0.0958279
0.089637,0.0980833
0.108423,0.0817675
0.182571,0.0287288
0.242509,-0.0146081
0.24282,-0.0144529
0.0808263,-0.0130827
-0.211166,-0.0168931
-0.395974,-0.0126188
-0.258194,-0.015461
-0.0623127,-0.0218769
0.0637298,-0.0293666
0.164351,-0.0426221
0.14586,-0.0456901
0.00178641,-0.00889128
-0.0967954,0.0340499
-0.113738,0.0286423
-0.012486,0.0087742
0.0485417,-0.0358278
-0.130024,-0.0533462
-0.152146,-0.0313124
0.00872504,-0.0233424
0.142938,-0.032442
0.43226,-0.0516531
0.826089,-0.0584934
0.719775,-0.0221097
-0.157418,0.00769432
-0.856573,0.00598467
-0.987089,0.0240313
-0.645842,0.0462324
-0.175085,0.0319917
0.290696,0.0183791
0.603669,0.012491
0.570878,0.0160489
0.13995,0.010672
-0.326802,0.0116275
-0.119089,-0.0153501
0.208664,-0.0424001
0.0545329,-0.0514608
-0.114873,-0.0232429
-0.316934,-0.00580319
-0.399075,0.046092
-0.0265188,-0.0133742
0.366239,-0.102352
0.38541,-0.0251004
0.0564005,0.0344037
-0.323451,0.0295205
-0.409483,0.0342428
-0.21837,0.0529828
-0.017381,0.0595731
0.0881083,0.0493223
0.116867,0.0254363
0.115979,0.00457362
0.104526,-0.0130989
0.0956242,-0.0222451
0.106062,-0.0214146
0.125325,-0.0200386
0.0746226,-0.0357945
-0.00352771,-0.0407312
0.0113008,-0.0183306
0.0902382,0.000823166
0.0752211,-0.0061465
-0.0147504,-0.0019128
-0.0150938,0.010621
-0.0540539,0.0307366
-0.125212,0.0567045
-0.0286683,0.0610911
0.00711443,0.0466939
0.00376236,0.0252976
0.0448642,-0.000775098
0.0434201,-0.0134621
-0.0979254,-0.0048106
-0.163456,0.00298584
-0.0248113,-0.020449
0.157088,-0.0365244
0.355715,-0.0223761
0.339211,-0.0383997
0.0486832,-0.0337284
0.0197062,-0.00431713
0.143717,0.0183054
0.0948819,0.0227247
0.0702602,0.0207439
-0.20941,0.0292663
-0.283087,0.0387151
-0.263288,0.0324169
-0.466937,0.0244989
-0.462966,0.0119872
-0.291622,-0.0104455
-0.175898,-0.0291768
-0.0908209,-0.0381682
-0.0505583,-0.0418317
0.0301483,-0.0382427
0.0503171,-0.0363375
0.1644,-0.0382882
0.344989,-0.0322134
0.443414,-0.021956
0.322148,-0.0128923
-0.0276399,0.00926298
-0.0525429,0.0321023
0.510828,0.0212639
0.840907,-0.00425895
0.598343,0.00203631
-0.139481,-0.0121095
-0.632485,0.0103172
-0.704745,0.0302648
-0.783983,0.0146778
-0.46204,0.0109612
0.0736422,0.00100086
0.254985,-0.027365
0.183488,-0.0348071
-0.187162,-0.0380787
-0.372859,-0.0347438
-0.288572,-0.001713
-0.128267,0.00797092
0.0862818,0.0111485
0.162187,0.0272021
0.149693,0.0486988
0.0876982,0.0337999
0.100265,0.00143321
0.0663336,0.0151957
0.0999674,0.0199295
0.0568361,0.0204871
0.00257709,0.0221375
0.0446201,0.0180974
0.0847458,-0.00449917
0.0672155,-0.0190988
-0.00715762,-0.0071684
-0.0271237,-0.00122828
0.00418889,-0.00936455
-0.0150275,-0.000899884
0.00776158,0.0133439
0.0928971,0.0268377
0.00618424,0.0454562
-0.0827547,0.0224201
-0.101732,-0.0264796
0.000307263,-0.0329921
0.167187,-0.0201316
0.191567,-0.0156451
0.0993813,-0.0235941
-0.0416145,-0.0212464
0.141507,-0.0232363
0.505577,-0.0323192
0.532043,-0.0242865
0.0489927,0.00504419
-0.757839,0.0212508
-0.61433,0.00351625
0.0385255,-0.00470987
0.171415,-0.0078815
0.269815,-0.0124156
0.474604,-0.0149963
0.820778,-0.0163961
0.894377,-0.017662
0.0804278,-0.011234
-1.12657,0.0125003
-1.54351,0.045764
-0.681084,0.0464382
-0.0947361,0.0187202
-0.126585,0.00460787
-0.222945,-0.0116515
-0.0894259,-0.00753281
0.0644025,0.0150041
0.0833223,0.00717022
0.0329616,0.00888236
-0.0342619,0.0144603
-0.0341541,0.0278316
0.143467,0.0414408
0.219439,0.044346
0.123189,0.0257166
0.0206291,-0.00794679
-0.0336631,-0.0361359
0.0208395,-0.033935
0.156467,-0.0122352
0.269323,-0.0321463
0.435005,-0.0451464
0.384608,0.0117659
0.189867,0.0180928
-0.177905,0.00872069
-0.322529,-0.00538998
-0.229788,-0.01337
-0.314871,0.00226328
-0.196955,0.00916428
0.179604,0.00948587
0.495725,0.00529895
0.593356,-0.00851251
0.310459,-0.00737968
-0.29292,0.0279448
-0.302631,0.0228323
-0.33448,-0.00686713
-0.371586,-0.0295119
-0.186485,-0.00409699
0.00444335,0.000561249
0.138279,-0.00502938
0.0926157,-0.0117834
-0.12204,0.00468406
-0.214088,0.0240866
-0.0730246,0.00829088
0.0316029,-0.0054237
-0.0173106,-0.00811535
-0.0987923,-0.00850801
-0.0906757,-0.0081606
0.0248021,0.00822552
0.0111207,0.0179622
-0.0546043,-0.00126231
0.0490435,-0.0249975
0.110038,-0.0254958
0.0769494,-0.0272658
0.0142011,-0.0112053
0.0499642,-0.0240498
0.355944,-0.0181842
0.680457,0.00147837
0.720227,-0.0284006
0.0753201,-0.0191835
-0.712672,0.0105341
-0.458982,0.020196
0.0529322,0.0258695
0.258844,0.00508227
-0.166126,-0.000422707
-0.668872,0.0165775
-0.326615,0.0125227
0.249135,-0.0131648
0.508813,-0.0356931
0.482788,-0.00876338
0.280672,0.0272423
-0.0575261,0.0326122
-0.430413,0.0201898
-0.45971,0.00866764
-0.545922,0.019538
-0.456562,0.0326002
-0.137172,-0.000806459
0.13869,-0.0247482
0.357913,-0.00197816
0.181887,0.0359676
-0.175881,0.0302014
-0.35759,0.00593171
-0.135414,0.00470513
0.138501,-0.00388209
0.235969,-0.0172044
0.323164,-0.0340939
0.351659,-0.0410117
0.390042,-0.00590916
0.28441,0.0117684
-0.0306927,0.00467648
-0.33607,-0.000200454
-0.352738,0.00344719
-0.19596,0.00392569
0.0244167,0.0103792
0.320594,0.00153456
0.379163,-0.0191729
0.255045,-0.0103021
-0.0909225,0.00513318
-0.205559,-0.00149178
-0.0511638,-0.0138284
-0.246531,-0.00294027
-0.395104,0.00444944
-0.304411,0.017061
-0.0438741,0.0239798
0.0717608,0.00506235
0.069296,-0.0121172
0.00582777,-0.0174398
0.0329712,-0.0098065
0.111259,-0.00370219
0.0862073,-0.0142995
-0.0374447,-0.0211979
-0.167554,-0.0185391
-0.177108,-0.00170536
-0.118523,0.0187426
0.0284343,0.0273919
0.264279,0.0271404
0.626741,0.0109263
0.822892,-0.0214813
0.700541,-0.0221838
0.198651,0.000551065
-0.251574,0.0124652
-0.39446,-0.00101402
-0.943333,0.0355215
-0.79649,-0.0077901
-0.260809,-0.0106207
-0.0152232,0.00272346
0.121487,0.00799856
0.338355,0.0120301
0.382362,0.00293255
0.143672,-0.024883
-0.250649,0.012415
-0.414255,0.00987596
-0.0453448,-0.0353032
0.271615,-0.0191158
0.220377,0.00077461
0.244359,-0.00871936
0.273346,-0.0172076
0.389898,-0.00136284
0.0228763,0.0256904
-0.287439,0.0396221
-0.211856,0.028143
-0.218794,0.0131686
-0.263801,-0.00702578
-0.207325,-0.0256677
-0.0861482,-0.00674111
-0.129783,0.0106231
-0.246907,0.0113479
-0.139935,0.0036716
-0.000963465,0.00142539
0.016726,0.0125905
0.00379416,0.0108035
0.0093085,-0.0176735
0.0461,-0.0238728
0.11188,-0.0115158
0.17575,-0.0142928
0.279478,-0.0305544
0.467575,-0.0112106
0.575822,0.00726659
0.241469,0.00504334
-0.239239,0.00694113
-0.515765,0.0206328
-0.339593,0.0101046
-0.162164,0.00628879
-0.035077,0.00503239
0.179285,0.00421292
0.296179,0.0106474
0.119896,-0.000938339
-0.108468,0.0196617
-0.260271,-0.0163756
-0.143422,-0.144484
-0.0103865,-0.11452
-0.123129,0.0718416
-0.197333,0.132834
-0.0586772,0.0493124
0.401209,-0.025836
0.631366,-0.0178183
0.434603,-0.0240011
-0.392597,-0.0244766
-0.8954,-0.000588375
-0.482322,0.0135041
-0.0540961,0.0277023
0.227949,0.0255732
0.568882,0.0138599
0.866403,0.00165277
0.947525,-0.0419426
0.452997,-0.0462934
-0.570368,0.0182923
-1.00261,0.0450907
-0.43978,0.0387416
0.188646,0.0149971
0.0258016,0.000555421
-0.50684,0.0122899
-0.552652,-0.00315378
-0.164625,-0.0297932
0.00624477,-0.0255118
-0.0143248,-0.00569861
0.035897,0.00956003
0.163321,0.00400711
0.20955,0.00723219
0.0398268,0.0301836
-0.12517,0.0146078
-0.0623503,-0.00795331
0.133261,0.0108218
0.219569,0.00872147
0.0732918,-0.0120006
-0.108006,-0.0116532
-0.17004,0.014136
-0.0738426,0.0237604
0.206798,0.00862833
0.466011,-0.00836567
0.449361,-0.0402414
0.0365458,-0.0677932
-0.269948,-0.0472858
-0.333522,-0.0106767
-0.21133,0.00957103
-0.00771429,0.00168362
-0.0661393,0.0112735
-0.133161,0.0190908
-0.0483103,-0.00662758
0.214505,-0.0103788
0.377631,0.0083922
0.365344,-0.00231151
0.0925125,-0.060348
-0.215473,-0.0734972
-0.306137,0.00777019
-0.224315,0.0757553
-0.00300021,0.0347674
0.138625,-0.00445633
0.0929791,0.00478644
-0.00575458,0.0359483
-0.0704972,0.040571
-0.0936876,0.0352433
-0.113633,0.017995
-0.231077,0.0122393
-0.115727,0.0123821
0.223411,0.00903175
0.422195,0.00857576
0.45861,-0.0114891
-0.047184,-0.0261108
-0.377376,-0.00359263
-0.334327,0.0105311
0.0948788,0.00650859
0.480134,-0.0114624
0.396103,-0.032414
-0.0498048,-0.0369564
-0.207837,-0.0298046
-0.13831,-0.015615
-0.0106743,0.00953422
0.0540599,0.0154319
-0.14152,0.0134218
-0.383449,0.0139662
-0.462065,0.00741146
-0.162728,-0.0019007
0.176834,0.00504022
0.299018,0.00628254
0.0233698,-0.00930306
-0.110795,-0.00607573
-0.0366938,0.0306696
0.0198374,0.0248623
0.0994827,-0.019782
0.244464,-0.0394723
0.264726,-0.0373573
0.107886,-0.0266468
-0.0189709,-0.0073934
-0.386677,0.0167442
-0.466435,0.0231464
-0.153005,0.00344244
0.0768659,0.000566755
0.0766102,0.000492106
-0.00653918,0.00320783
-0.10694,0.0113358
-0.134822,0.00782007
0.00867411,0.00450781
0.149651,0.00678101
0.210457,0.00701853
0.229462,-0.00113264
0.2306,-0.0144348
0.191178,-0.0175936
-0.0637381,-0.0335251
-0.246499,-0.0122597
-0.0584395,0.0081246
0.0178929,0.0191596
-0.0533544,0.0218923
-0.129308,0.0141635
0.0740113,-0.0166889
0.468923,-0.0266565
0.742051,-0.00158463
0.82366,0.0223788
0.416088,0.0308073
-0.463034,0.00628852
-1.07834,-0.00827558
-0.877491,-0.0110614
-0.364309,-0.019716
0.142702,-0.0577047
0.318678,-0.0131173
0.205081,0.0327709
-0.0222556,0.0297633
0.126461,0.0138654
0.108388,0.0117798
-0.29669,-0.00317365
-0.626454,-0.0347891
-0.368369,0.00500084
-0.0744376,-0.00935503
-0.0193805,-0.0241149
-0.0268118,0.0198766
0.0894856,0.0417855
0.266334,0.0399046
0.386181,0.0352474
0.238394,0.0119196
-0.0371182,-0.00970919
-0.0827977,-0.0183443
-0.0101159,-0.00416517
0.0966984,-0.00106684
0.0236813,-0.00813214
-0.116862,0.00464323
-0.120606,-0.0247336
-0.0503746,0.00582168
0.056625,0.0368936
0.18347,0.011848
0.273738,-0.00929753
0.229551,-0.0206066
-0.034924,-0.0600984
-0.186585,-0.0149454
-0.216783,0.0388074
-0.086019,0.0353498
0.179474,0.000304098
0.640329,-0.0319637
0.799517,-0.0192068
0.346263,-0.00892537
-0.381713,-0.000884331
-0.918718,0.0242093
-0.591541,0.00748123
-0.23956,-0.0194586
-0.209296,0.00359433
0.0037282,0.0152606
0.227367,-0.014013
0.177821,-0.0355313
0.135146,-0.027005
0.104325,-0.0143633
0.108105,-0.0189696
0.0922528,-0.0197547
-0.113903,0.0394144
-0.50369,0.0293776
-0.529898,0.00837245
-0.114279,0.0110027
0.251041,0.0201559
0.232836,0.00646075
0.0898503,0.00389289
0.080232,0.00184268
0.136977,-0.00261945
0.350884,-0.00319698
0.420966,1.71e-05
0.221697,-0.00717555
-0.185962,-0.0317614
-0.684186,0.0110513
-0.548278,0.0348093
-0.17059,0.0290364
0.0365378,0.0147464
0.0652225,0.00162729
0.0669484,-0.00992941
0.084466,-0.009552
0.121726,-0.00608346
0.209901,-0.00960561
0.238819,-0.00880852
0.114251,0.0152458
-0.00132837,0.0310122
-0.0786019,0.00717833
0.0314825,-0.0165853
0.253611,-0.00519549
0.244741,0.00416076
0.134598,-0.00660553
-0.214395,-0.0148731
-0.370266,-0.00922665
-0.176312,-0.007281
-0.0625544,-0.00204381
-0.108038,-0.00367692
-0.21134,-0.0158216
-0.13142,-0.0194481
0.0291463,-0.00588433
0.065771,-0.00840321
0.0245831,-0.00130371
-0.0349203,0.00934058
0.0305379,0.0175286
0.176001,0.0123574
0.259975,-0.0102906
0.0845213,-0.0215928
0.0390736,-0.00837801
0.189277,-0.00143321
0.289808,0.00546807
0.143508,0.0136031
-0.137288,0.0163277
-0.173105,0.0113206
-0.413736,0.010738
-0.354707,0.0142431
-0.144361,0.0131575
-0.00023296,0.00393416
0.0304142,-0.0213966
0.00393227,-0.00644155
0.0687902,0.00573802
0.167172,-0.0164839
0.170528,-0.0254173
-0.00548855,0.00886757
-0.267956,0.0111746
-0.228224,-0.0180501
0.139955,-0.0106639
0.292583,0.0154684
0.223345,0.0252432
-0.046912,0.0313643
-0.0805337,0.0203401
-0.00803785,-0.00499104
-0.0582097,-0.0203027
-0.128931,-0.00475488
-0.107824,-0.00100632
0.0655443,0.00110889
0.304549,-0.00250227
0.271958,-0.00334946
-0.0854366,-0.000875944
-0.385157,-0.0111031
-0.369405,-0.00716911
-0.186173,0.0323761
0.0620467,0.0344149
0.416964,0.0230953
0.509143,-0.014292
0.321867,-0.0422478
-0.00308135,-0.03008
0.0163319,-0.0430184
0.0161186,-0.023796
-0.170115,-0.00443287
-0.0752801,-0.00340546
-0.0296506,0.0200026
-0.269017,0.0466627
-0.416487,0.0455913
-0.216361,0.0385675
0.176317,0.0247244
0.251149,-0.0117794
0.0566351,-0.0394789
-0.380232,-0.040111
-0.508281,-0.028622
-0.191287,-0.0180827
0.105621,-0.0300309
0.385941,-0.00867997
0.521187,-0.00464776
0.39472,-0.00487821
0.0907926,-0.00544108
-0.00787317,0.0122971
-0.141852,0.0249957
-0.0597162,0.0136489
0.0367169,0.0110259
-0.167335,0.0115304
-0.34147,0.00492097
-0.240652,0.00228492
-0.0878559,-0.00493864
-0.0107201,6.49e-06
0.172028,-0.0167658
0.383367,-0.00141791
0.299301,-0.00744867
0.0673516,0.0290194
-0.151545,0.0348366
-0.0607323,0.00182407
0.0874512,-0.0211233
0.0822895,0.0216581
0.00493592,0.0161792
-0.0255595,-0.0398481
-0.0191833,-0.0236038
-0.153439,0.0167444
-0.13243,0.0320184
-0.0813932,0.00516169
-0.121408,0.00593086
-0.230149,-0.00849664
-0.0973622,-0.0256171
0.00486194,-0.00194618
-0.038254,-0.0212493
0.0473738,-0.0423175
0.37565,0.0123539
0.503504,0.0405437
0.178084,0.00691322
-0.111665,0.0107737
-0.103791,0.0176419
0.203972,-0.0246081
0.311665,-0.0520813
-0.0503683,-0.0548436
-0.475917,0.0237091
-0.321803,0.0665058
-0.0315,0.0408286
-0.0861051,0.0050944
-0.127352,-0.00577046
-0.0298429,-0.0143457
-0.0273747,0.006401
-0.0800294,0.0310472
-0.0550703,0.0230768
-0.0639026,-0.00332643
0.0436646,0.0228319
0.191824,0.0012737
0.193518,-0.0242465
0.115316,-0.0162713
-0.021412,-0.00196888
0.0287788,0.00275105
0.100375,-0.0030651
0.114891,-0.027558
0.00800482,-0.0602418
-0.101507,-0.0261145
-0.076046,0.0112834
-0.0710396,-0.00299268
-0.135283,-0.00365829
-0.0672238,0.02515
0.0357802,0.0370883
0.0833555,0.0221903
0.0339764,-0.00663951
-0.153053,0.00943729
-0.151669,0.0131808
0.0109936,-0.0145829
0.241361,-0.005771
0.375705,0.000796227
0.422611,-0.0031812
0.0748599,-0.000499122
-0.216346,0.00434077
-0.403213,0.00447407
-0.292837,-0.00360814
-0.0488292,-0.0255861
-0.176744,-0.0205497
-0.0703668,-0.00866679
0.373922,0.00013257
0.678919,-0.0206294
0.590104,-0.104007
0.111426,-0.0550045
-0.24873,0.0290829
-0.427591,0.0832639
-0.577851,0.0422966
-0.57889,0.0198926
-0.196961,0.0187093
0.0798793,0.0216903
0.160643,0.0234994
0.2375,0.0240899
0.237538,0.0161242
0.27048,-0.00187545
-0.0170427,-0.0146988
-0.395914,0.00933401
-0.34117,-0.00587817
-0.34488,-0.0180033
-0.189572,-0.0157006
0.224954,-0.0509153
0.403591,-0.0341397
0.264731,0.0240369
-0.157668,0.031065
-0.287527,0.00762031
0.0626933,-0.0522668
0.302701,-0.0202441
0.278563,0.0136872
0.116235,0.0132068
0.0733035,0.0173557
0.251845,0.00357946
0.418872,0.0420892
-0.00623308,0.0413363
-0.553353,-0.0040865
-0.610685,-0.0332423
-0.373855,-0.0162396
-0.158636,0.00327176
0.0519716,0.0057765
0.394443,-0.0203639
0.461564,-0.00897293
0.415129,0.0214363
0.331491,0.0183287
-0.0953926,-0.0127305
-0.450966,-0.0278378
-0.410901,-0.0148252
-0.207133,-0.000305027
-0.117587,0.0122729
-0.0850529,0.00418178
0.122739,-0.0117969
0.198451,-0.0354251
0.155969,-0.0320886
0.107338,-0.00841092
0.224758,0.0711442
0.325233,0.0681404
-0.0541555,0.0168187
-0.448243,0.0121397
-0.26334,-0.00148338
0.231712,0.009199
0.349122,0.00311694
0.187468,-0.00288484
-0.0730976,-0.028873
-0.175572,-0.0226065
-0.366433,-0.00703085
-0.374703,-0.00116278
-0.214155,0.00744503
-0.127937,-0.00759177
-0.0210655,-0.064427
0.056936,-0.0912956
0.164922,0.0256229
-0.0201713,0.0543994
-0.272219,0.0430333
-0.106514,0.0401046
0.273246,0.0271733
0.461292,-0.0293674
0.126212,-0.0629283
-0.501389,0.0105198
-0.491703,0.0359862
-0.0133359,0.0149423
0.297864,0.0703139
0.25661,0.0360834
0.105363,-0.0135592
0.317872,-0.00748647
0.466086,-0.018765
0.800919,-0.0259934
1.20983,-0.0435825
0.5772,-0.102259
-0.498369,-0.0943903
-1.55791,-0.0280501
-1.20874,0.00900186
-0.397752,0.0438651
-0.0098761,0.0701176
0.408925,0.0456242
1.39286,0.02538
1.46665,-0.010555
0.544562,-0.0365404
-0.595756,0.00940624
-1.35337,0.0313858
-1.26293,0.0800707
-0.996351,0.0569146
-0.631199,-0.000914078
0.377464,-0.0468834
0.930319,-0.0315617
0.61057,0.0296411
-0.586498,0.0414266
-1.32297,0.0497975
-0.656924,0.0373717
0.0224565,0.0165519
0.225363,-0.0108826
0.48828,0.0166536
0.404945,-0.00585883
0.808172,-0.137229
1.2997,-0.0944585
0.711483,-0.0404366
-0.282479,-0.031868
-0.68703,-0.0388322
0.0656835,-0.0305444
0.37732,-0.0776643
-0.500573,-0.0134741
-1.12197,0.0606403
-0.581544,0.0469238
-0.0752344,0.0230416
0.0191637,-0.00652194
0.0942003,0.000421847
0.274893,0.0401978
0.310206,-0.0217804
0.209501,0.0242701
-0.0205481,0.086468
-0.112756,0.103794
-0.0377053,0.0735132
-0.134572,0.0418339
-0.137575,0.0185101
0.126789,-0.00626704
0.247764,-0.0424922
0.127528,-0.0465565
0.00118982,-0.0426427
0.150358,-0.0557052
0.421071,-0.0581422
0.308549,-0.0581585
0.00217125,-0.0392469
-0.056908,-0.0591644
-0.0106204,-0.0474379
0.154006,-0.0110652
0.122272,0.0675564
-0.25584,0.0294831
-0.457262,-0.0399664
-0.092792,-0.0447075
0.184825,-0.0223114
0.0717002,0.0334495
-0.0406752,0.0693865
-0.141619,0.0632056
-0.205246,0.0656268
-0.203066,0.0857304
-0.155087,0.0653495
-0.0367337,0.0411192
0.135846,0.0497614
0.369835,0.0120244
0.58999,-0.0141433
0.458752,-0.00028064
-0.0337891,-0.0116444
-0.591895,0.0126976
-0.411302,0.00450277
-0.414677,-0.01146
-0.434566,-0.076555
-0.0765688,-0.0577946
0.313395,-0.00403458
0.502353,-0.0281877
0.27362,-0.0425161
-0.00578473,0.00579919
-0.0680431,0.0161081
-0.154097,-0.0133684
0.069887,0.0133415
0.648415,0.077967
0.489751,0.022089
-0.0491267,-0.0247316
-0.803519,-0.0801255
-0.855892,-0.0791087
-0.0976814,-0.0243852
0.110031,-0.0309855
-0.117474,0.0226164
-0.180588,0.0401699
-0.0817635,0.0331522
0.143843,0.00379474
0.405386,-0.0194775
0.612569,-0.040363
0.430963,-0.0594671
-0.137532,-0.0232236
-0.237164,0.06283
0.2052,0.0875645
0.183169,0.0693102
-0.225865,0.00642033
-0.215551,-0.0811592
0.179174,-0.116513
-0.0671645,-0.150186
-0.416279,-0.0415577
-0.129768,0.0443297
0.0744196,0.0266609
0.0437265,0.0289377
-0.167527,0.0716023
-0.326076,0.0697491
-0.187828,0.0438727
0.169668,0.00192789
0.52797,-0.0318188
0.48028,-0.0389533
-0.176966,-0.0108687
-0.621765,0.037356
-0.392577,0.013148
-0.242338,0.00100997
-0.0778803,0.0515379
0.0812461,0.00744157
0.158507,-0.0300037
0.212053,0.0188437
0.371709,0.0532682
0.444412,0.0252311
0.137481,-0.0213492
-0.201872,-0.0470121
-0.27581,-0.0503576
-0.0646741,-0.0725279
0.15235,-0.00381865
0.240717,0.0495381
0.127132,0.0671819
0.00580267,0.0475684
0.054198,0.00869344
-0.1597,-0.0297138
-0.309804,-0.0915891
-0.189681,-0.0459556
-0.134904,0.0333164
-0.13389,0.0661897
-0.106864,0.050293
-0.024453,0.0187782
-0.0020752,0.0293715
0.0617957,0.00817154
0.14768,-0.0245095
0.336976,-0.015968
0.379986,0.00360906
0.248819,0.0670008
0.0200473,0.060685
0.215175,0.032708
0.619968,-0.0306942
0.692694,-0.0678019
0.702628,-0.0820175
0.417701,-0.0925225
-0.258187,-0.0473373
-1.35969,0.0109813
-1.60032,0.0385359
-0.800303,0.00284927
-0.206908,-0.040505
0.0544112,-0.00149414
-0.0445771,0.0232215
-0.224198,0.0142788
0.00512889,0.0261773
0.355873,0.0495662
0.381901,0.0511918
0.202264,0.0601346
-0.22605,0.0404598
-0.317787,-0.0309935
-0.254819,-0.0162942
-0.354683,0.0128261
-0.167291,0.026951
0.25783,0.0546299
0.396174,-0.0321141
0.334727,-0.121
0.215674,-0.161953
0.463806,-0.193137
1.27338,-0.0629436
1.33852,0.0799185
0.00147005,0.0881108
-1.39443,0.0643863
-1.49202,0.0802319
-0.63083,0.0410295
0.0245963,0.00718283
0.272119,0.00547263
0.201462,0.00709042
-0.0299674,0.00425032
-0.148148,-0.0473382
-0.0580064,0.00757785
0.159013,0.0628595
0.3222,0.00605217
0.135516,-0.00304601
-0.184948,0.0272132
0.0727555,0.0220921
0.491973,0.0407629
0.491963,0.0528028
0.0281375,0.0660573
-0.500212,-0.00991466
-0.323464,-0.0178764
0.0100695,-0.0434824
0.228776,-0.123179
-0.0674123,-0.111477
-0.301546,-0.0211818
-0.362652,0.00495289
-0.180243,-0.0184011
0.0350259,-0.0166748
0.128923,-0.0201832
0.0649029,0.0432767
-0.0611232,0.0692953
-0.0268359,0.0234847
-0.200378,-0.0342891
-0.203369,-0.0500983
0.0263712,-0.0552992
0.331982,-0.0516935
0.521905,-0.0740545
0.620169,0.0452663
0.269681,0.133629
-0.218114,0.077143
-0.546239,0.00473287
-0.603614,-0.0655483
-0.314692,-0.0390386
0.170256,0.0209512
1.91527,0.0387077
2.99735,0.0495226
1.81529,0.02541
-1.04085,0.0245461
-3.19334,-0.00411922
-2.45059,-0.0648228
-1.02712,-0.0483633
-0.336682,-0.020743
0.040001,0.0310276
0.117914,0.048119
0.17541,0.0213643
0.314678,-0.022248
0.471088,-0.0167942
0.603538,-0.00290317
0.294183,0.0299128
-0.110042,-0.0294235
-0.463993,-0.0644535
-0.584578,-0.00896701
-0.333147,0.00652852
0.0313166,0.0124071
0.257333,0.0463267
0.237215,0.042118
0.131593,0.0331165
0.0886125,0.0273573
0.147826,0.0166727
0.213406,0.0166399
0.220654,0.00940461
0.352286,-0.00951268
0.467811,-0.0173426
0.384917,-0.020437
-0.107221,-0.0195332
-0.667408,0.0020352
-0.500362,0.0172794
-0.312835,-0.00899639
-0.235471,-0.0799321
-0.0320038,-0.0382786
0.245081,0.0542274
0.49503,0.0355859
0.344903,-0.0344714
-0.140318,-0.00359802
-0.31392,0.0526584
-0.0285078,0.0116981
0.0380111,-0.0510877
0.181431,-0.0656903
0.337257,-0.0193736
0.26347,0.0559781
0.200395,0.0544305
-0.362889,-0.0340578
-0.563008,-0.0949872
0.0737432,-0.0370651
0.461634,0.0128492
0.355413,-0.0245045
-0.0461987,-0.0815924
-0.234416,-0.0707629
-0.186482,0.0413062
-0.128486,0.0808868
-0.0302375,0.021836
-0.262446,0.0222674
-0.600511,0.105716
-0.323518,0.164407
-0.116937,0.0962835
-0.037127,-0.00697853
0.0758954,-0.061023
0.187277,-0.0713885
0.228991,-0.0293511
0.517013,0.0237553
0.591708,0.00204309
0.282243,-0.0665423
-0.335315,-0.0940922
-0.427383,-0.0884068
0.0877771,0.0264601
0.109841,0.0341513
0.130112,-0.0143575
0.565684,-0.0399965
0.707919,-0.0285227
0.191952,-0.0265989
-0.806673,0.0217956
-0.986847,0.0631036
-0.59726,0.0466944
-0.434502,-0.00713872
-0.136714,0.00790007
0.185425,0.087095
0.350727,0.0513203
0.286326,0.0137764
0.111134,0.0299904
-0.00819692,0.088821
0.154619,0.128169
0.114205,0.0172148
-0.149443,-0.152082
-0.266971,-0.130037
-0.204323,-0.0169954
-0.0836935,0.0179305
0.0719636,-0.0281572
0.118757,-0.0438741
-0.0133161,-0.0402711
-0.143055,-0.0120117
0.0539991,0.00106255
0.327243,0.000244398
0.239431,0.0124477
-0.176965,0.00804855
-0.411717,-0.02646
-0.088422,-0.0142196
0.303171,0.0210483
0.460551,0.0271668
0.342639,0.0106081
-0.103753,0.00757629
-0.0941764,-0.0252215
0.559777,-0.0334773
0.962727,0.014124
0.632204,0.0274973
-0.379042,0.0372997
-1.0738,0.0513779
-1.07936,0.042709
-0.526955,0.0265571
-0.0553133,0.00765465
0.103647,-0.0116378
0.132498,-0.0596044
0.294993,-0.0474853
0.232792,-0.0302057
0.0091493,-0.0127676
-0.0936778,-0.0202659
-0.110804,-0.0685807
-0.0896479,0.01423
-0.213941,0.0275271
-0.0497726,-0.0302193
0.1361,-0.0169906
0.123726,-0.00787829
-0.0523443,0.024984
-0.120826,0.0806287
-0.0740447,0.0744823
0.0214994,-0.003724
0.127968,-0.0626896
0.175348,0.0435741
0.26114,0.0657434
0.0453096,0.0158307
-0.27538,-0.00367546
-0.199971,-0.00114227
0.128487,-0.000648401
0.298705,0.00905245
0.280428,-0.0319753
0.214613,-0.0727029
-0.00841138,-0.0757199
-0.207876,-0.0153575
-0.334271,0.0086907
-0.207126,0.0252091
-0.0171088,-0.0240618
0.144921,-0.0176614
0.195341,-0.000834632
0.227751,-0.00697546
0.416152,0.0123446
0.0914012,0.00700842
-0.276204,0.0110044
-0.49481,0.0279513
-0.15077,0.0293682
-0.0156708,0.0123492
-0.0854979,-0.0193364
-0.117391,-0.0233984
-0.17534,-0.0172467
-0.228187,0.00922241
-0.0925609,-0.0176688
0.104918,-0.0390443
0.0702724,0.0290482
0.358545,0.0693334
0.879107,0.0423351
0.873065,-3.49e-05
-0.0963759,-0.0560364
-0.949043,-0.0481978
-0.713597,0.0315589
-0.206358,0.018343
-0.0162582,-0.0450515
-0.110784,-0.00759492
-0.185158,0.022456
-0.0317651,0.0235589
0.05216,0.00882355
0.0561673,0.0129295
0.236438,0.0237361
0.43094,0.00561773
0.406864,0.0134063
0.0463151,0.0559677
-0.296138,0.088187
-0.382494,0.0561791
-0.288802,-0.0363103
-0.113948,-0.0439696
-0.0252732,-0.0406663
0.0058922,-0.0473289
0.225739,-0.0368622
0.636148,-0.0292512
0.724021,0.000684348
0.562357,0.00939165
-0.00188094,-0.0159588
-0.498173,-0.0611972
-0.309871,-0.0921364
-0.243066,-0.0431492
-0.286037,0.0559419
-0.306933,0.0473906
-0.166578,-0.0129476
-0.0874284,0.00684806
-0.0753387,0.0336457
-0.00340162,0.0180546
0.142759,-0.0301495
0.116621,-0.0482514
-0.100136,0.0255355
-0.168938,0.0488434
-0.0533639,-0.00545821
0.0664992,0.0207317
0.146115,-0.00364598
0.204897,-0.0463356
0.151213,-0.00585196
0.0506466,0.0257798
-0.034583,0.0374548
-9.35e-05,0.0274411
0.0697038,0.00534669
0.00580582,0.0092998
-0.0283277,0.0455474
-0.0210736,0.00559671
-0.0543016,-0.0043421
-0.00323107,0.0334751
0.0479806,0.0125142
-0.0111641,-0.0183459
0.0313555,-0.0314763
0.054949,-0.043061
-0.0453356,0.00732946
-0.0272286,0.0449333
0.0760011,-0.0144007
-0.0286106,-0.065793
-0.129177,-0.0563648
-0.0658919,-0.0107317
-0.0224626,-0.00671157
-0.0203678,-0.00661328
-0.0554251,0.03997
-0.0383873,0.0261824
-0.0223563,0.0256145
-0.0132891,0.0152884
-0.0587014,-0.0322159
-0.157586,-0.0104206
-0.0732618,0.0187789
0.199032,0.00230437
0.427568,0.0244215
0.588995,0.0719482
0.363012,0.0347664
-0.119916,-0.0231926
-0.237688,-0.0406604
-0.0932043,-0.0519574
0.214556,-0.023537
0.320496,-0.0200759
0.173692,0.000193643
-0.301915,0.0158167
-0.773238,-0.00613921
-0.687251,-0.0148467
-0.301834,-0.0281088
-0.0519636,-0.0138168
0.235929,0.0131985
0.588318,0.0108084
0.547879,0.0291649
-0.120597,0.0558359
-0.683233,0.0333201
-0.639001,-0.0400031
-0.244203,-0.0295605
0.043008,0.0440439
0.0839362,0.0177923
0.0705475,-0.0160489
0.120445,0.00206441
0.154247,0.00679457
0.141436,0.000205948
0.101822,-0.00778777
0.0764894,-0.0154547
0.124931,-0.0173147
0.223218,0.00503028
0.254123,-0.00858503
0.0343636,-0.0287889
-0.0619542,0.0129342
-0.0619088,0.029142
0.0052325,-0.0558082
0.137517,-0.0589445
-0.0265159,0.026066
-0.210376,0.0388763
-0.00417901,0.0266391
0.0858738,0.0232921
-0.0281141,0.0154673
-0.074594,0.0112554
-0.0376662,0.0104136
-0.00162483,0.0102873
0.0300047,-0.00503843
-0.00401048,-0.0204637
-0.105146,-0.0296098
-0.124952,-0.0189471
-0.0667348,0.0182099
-0.0186173,0.0102185
-0.0219195,-0.00687626
-0.00789775,-0.0198725
0.0350337,0.0239779
0.0690467,0.0165801
0.0591198,-0.0128311
0.0568845,-0.0208921
0.175259,-0.0328033
0.32995,-0.00409684
0.387639,0.00850731
0.217227,0.0244004
0.0304523,-0.00815732
-0.144826,-0.0506212
-0.316348,-0.054789
-0.428257,-0.0149548
-0.303497,0.00577209
0.0637598,0.0207995
0.372142,0.0334505
0.473684,0.0236996
0.0530202,0.00334056
-0.641586,0.00934074
-0.558908,0.030383
-0.0157623,-0.010254
0.22688,0.025945
0.0304924,0.0472934
-0.280865,0.0171099
-0.240245,-0.00294607
-0.0617595,-0.0313739
0.0230447,-0.0499395
0.0897568,-0.0388998
0.0758719,-0.0423104
0.0509153,0.0279093
0.0253139,0.051861
-0.0185491,0.0309581
0.237882,0.0107168
0.572683,-0.0403433
0.552966,-0.07786
0.141581,-0.0372893
-0.251697,0.0352161
-0.516272,0.0665492
-0.410414,0.0579075
-0.138964,0.0199699
0.00454402,-0.00354292
0.064853,-0.0123435
0.0395686,-0.020603
-0.033492,-0.00336308
-0.0579115,0.00444574
-0.0845667,-0.00660349
-0.0709211,-0.0039709
-0.0304029,0.00487888
0.0101663,0.0153785
0.0507527,0.00874541
0.0735777,0.00188873
0.0731209,-0.00876584
0.0598804,-0.0143985
0.0984894,0.00893496
0.168863,0.0128123
0.109681,-0.00242789
-0.000616434,-0.0115557
-0.0545781,0.00107405
-0.0859904,0.00958071
-0.0467017,0.00742899
-0.0454177,0.00595554
-0.139314,-0.00535792
-0.00988416,0.00818969
0.188003,0.0229834
0.42496,0.0185052
0.404454,-0.0249784
0.0515564,-0.0659384
-0.204309,-0.0655426
-0.310964,-0.0110228
-0.180715,0.0308877
0.11398,-0.0415792
0.106552,-0.0474816
-0.243147,0.0334096
-0.338602,0.0735912
0.0126722,0.0372026
0.348038,-0.0411057
0.325464,-0.0635962
0.0736548,-0.024056
-0.530333,0.00621273
-0.653247,0.0224025
-0.230816,0.0264484
-0.0591472,0.0181378
-0.0404775,0.0223995
0.0388695,0.033898
0.206301,0.0271021
0.32188,0.00948386
0.233794,0.00863063
0.0545358,0.0378233
0.0358808,0.0424965
0.202806,-0.0163436
0.35813,-0.0291534
0.304591,-0.0186682
0.172307,-0.0213099
0.0589284,-0.0130514
-0.103499,-0.0116334
-0.338063,-0.0130957
-0.566522,-0.0373977
-0.401438,-0.0580706
-0.202814,0.000669825
-0.106368,0.00122579
-0.00172898,0.0230279
0.0932236,0.0181437
0.0671264,0.00381825
-0.0277788,0.023127
-0.0626498,0.0439308
0.0214526,0.00893353
0.0910475,-0.0256466
0.078446,-0.0164309
0.030424,-0.00137009
-0.00792887,0.00981776
-0.000226668,0.0116986
0.0839809,-0.0183986
0.246468,-0.0476392
0.307702,-0.00720026
0.26712,0.037203
0.132152,0.0159509
-0.021725,0.00129562
0.0148571,0.0297572
-0.0431728,0.0592377
-0.201515,0.0148005
-0.264966,-0.024163
-0.115585,-0.0243819
0.0341669,-0.0211213
0.0605087,-0.0172635
-0.0249428,-0.0126326
-0.0623046,-0.028042
-0.111103,-0.0288681
-0.146968,-0.0571531
-0.069123,0.00141638
0.0797144,0.0353307
0.166553,-0.0330438
0.0446296,-0.0484078
-0.00863058,0.0301722
0.00835314,0.025515
-0.0561093,0.00978098
0.0329433,-0.00291272
0.132716,0.0158991
0.0258195,0.027845
-0.141749,0.0232604
-0.116742,0.0262054
0.0555104,0.0270834
0.177674,0.0395496
0.116701,0.0226064
0.0619557,-0.0227468
0.129921,-0.0265831
0.184943,-0.00718213
-0.0826632,0.00782468
-0.37126,0.00958437
-0.29898,-0.00159228
-0.274369,-0.00891823
-0.101929,-0.0404368
0.156744,-0.037658
0.18026,-0.000843117
0.0276415,0.0139918
-0.136144,0.0169502
-0.103387,0.019239
0.0383565,0.0203998
0.0787103,0.0149854
0.0432589,-0.00260649
0.0815883,0.00800134
0.140648,0.0154526
0.0491448,-0.00954254
-0.171285,-0.0182782
-0.123512,-0.0354787
0.165334,-0.0381612
0.539628,0.0037457
0.706185,0.0197745
0.328255,-0.00268483
-0.483127,-0.0243279
-0.776536,-0.041406
-0.373175,-0.0207988
-0.167876,0.0210448
-0.101747,0.0160921
0.0175457,0.0265463
0.0619091,0.0368895
0.00880339,0.0198435
-0.0566498,0.00825345
-0.0674559,0.0140593
-0.0226838,0.010284
0.035149,0.000576401
0.0450585,0.00232717
0.01632,-0.00413222
-0.0308466,-0.00268915
-0.0155757,0.00835613
0.0808744,-0.0107384
0.159454,-0.00841995
0.208033,-0.0193479
0.301499,-0.0761833
0.406609,-0.0175567
0.272251,0.0317775
-0.0243,0.0105676
-0.269737,-0.00472565
-0.429007,-0.00425624
-0.304143,0.00246929
-0.101863,0.00163973
-0.012654,-0.000175402
-0.00636672,0.0291815
-0.0445373,0.0312347
-0.0849887,-0.0142279
-0.129793,0.00109407
-0.0956133,0.0270928
0.0609549,-0.000973351
0.134363,-0.0300172
0.126284,-0.0136341
0.192575,0.00907136
0.184871,0.00428364
0.0937689,0.000797781
0.00310134,0.00979791
-0.0524385,0.00781079
-0.0412654,-0.00677235
-0.0536504,0.014594
-0.0136928,0.0336148
0.0263706,0.0364526
0.00414793,-0.0188829
-0.147969,-0.100371
-0.153106,-0.0965083
-0.0783041,-0.022581
-0.0882842,0.0197221
-0.0450218,0.013982
0.248279,0.0319173
0.512504,0.0271813
0.414068,0.0155983
-0.0223436,0.0191911
-0.36705,0.00636985
-0.316465,0.0181475
-0.174319,-0.0139392
-0.176108,-0.0251488
-0.0922045,-0.0270038
0.0872085,-0.00143474
0.241847,-0.0318762
0.160161,-0.0189873
-0.082074,0.0145766
-0.366114,0.0547476
-0.256739,0.0698423
0.0814437,0.0253924
0.368839,-0.0336647
0.378158,-0.0505392
0.16801,-0.0187196
-0.143537,0.024979
-0.134569,0.0246592
-0.0871703,0.00414057
-0.283926,-0.00159577
-0.284335,0.00625138
-0.0424693,0.00644756
0.122742,-0.0152892
0.163105,-0.00645854
0.103978,0.00231614
-0.0242046,0.0034097
-0.0749652,-0.00160172
0.00706351,0.0164806
0.0658882,0.00527844
0.0844431,-0.000830827
0.0745802,0.00309141
0.0595273,-0.00365579
0.0373213,0.00944277
-0.00455329,0.000601333
-0.0147519,-0.0233972
0.018049,0.00320722
0.0611807,0.00925652
0.154423,-0.0447265
0.0356659,-0.0721196
-0.14212,-0.0176855
-0.189612,0.0151945
-0.0788397,0.0663757
0.0890029,0.0562782
0.0160868,0.0317405
-0.109222,0.0572575
-0.040069,0.0690332
0.106067,0.00309047
0.0144012,-0.0851052
-0.117021,-0.0802069
-0.202861,-0.0555269
-0.146749,-0.0242674
-0.00682471,0.0175972
0.109341,-0.00205076
0.134064,-0.0414554
0.0838326,0.01384
0.00869123,0.026436
0.0346717,-0.0277078
0.206839,0.0143305
0.340663,0.00829666
0.214775,-0.0233651
-0.029318,-0.00433924
-0.0603784,0.0310239
0.0878259,-0.00730933
0.177235,-0.0285036
-0.0747095,0.0288709
-0.231563,0.0424617
-0.389472,-0.00441546
-0.384563,0.00633029
-0.0499824,0.0155175
0.0933567,0.0244441
0.133077,0.0383075
0.143516,0.0225952
0.0664679,0.00593192
-0.128484,-0.00824742
-0.338799,-0.0165355
-0.28861,0.00115422
-0.156493,0.000320319
-0.0670719,-0.0151212
0.0465919,-0.0378358
0.119471,-0.0297366
0.147191,-0.00542013
0.179928,-0.00211606
0.130659,-0.0114874
0.0203053,-0.0225678
0.0138274,-0.00909458
0.039969,0.0128446
0.0704877,-0.043922
0.0465897,-0.0766613
0.140213,0.00349863
0.244055,0.0379963
0.284873,0.0095834
0.117586,0.0155758
-0.218469,0.0326308
-0.36674,0.0351577
-0.31639,0.0224161
-0.153451,-0.00727761
-0.0696414,0.0031558
-0.0728991,0.0329027
-0.0536469,0.0293537
-0.0141396,0.000700902
0.0908074,-0.000494603
0.205759,0.0232259
0.180642,-0.000987205
0.0456349,0.0234624
-0.0554441,0.0125495
0.107065,-0.0309869
0.390426,-0.021086
0.493703,0.0108907
0.442699,0.0199344
-0.17567,-0.0140112
-0.499029,-0.0470453
-0.524587,-0.058092
-0.442493,-0.0541861
-0.296718,-0.0223497
-0.159491,0.0512166
-0.01775,0.00460684
0.11766,-0.0427009
0.236573,-0.0168926
0.245503,-0.00248583
0.16743,0.0587385
0.145103,0.0628651
0.21061,0.0131338
0.21123,-0.00327887
-0.133611,-0.0358213
-0.374996,-0.0433189
-0.33307,-0.0122884
-0.150364,0.0200524
0.0434346,0.0242563
0.141862,0.00580365
0.0977791,0.00144843
0.0089389,-0.0254124
-0.0734694,-0.0333827
-0.0909601,0.00134477
-0.00663753,0.0284635
0.0232665,0.05313
0.033721,0.0280915
-0.0597588,-0.00752912
-0.115102,-0.00494923
-0.0382159,-0.00908916
0.123392,0.0175094
0.227225,0.0463841
0.203107,0.0442737
0.100325,0.0378377
-0.0214657,-0.00418933
0.0797028,-0.0317971
0.173612,-0.0321249
0.0566735,-0.0205461
-0.248413,0.000272874
-0.273177,0.000499979
-0.0759719,-0.0482621
-0.0128426,-0.0725038
-0.0318237,-0.0617717
-0.0441382,-0.0351121
-0.0445161,0.0488596
-0.0163913,0.0430616
-0.0406991,0.0222569
-0.0578178,0.0146969
-0.0442259,0.00935675
0.00652735,0.00717945
0.0726715,0.00457724
0.0717834,0.00376219
0.00570157,-0.0124648
0.0137376,-0.0430913
0.0501207,-0.0678449
0.134677,0.00477436
0.211918,0.0453768
0.191085,0.0507361
0.111237,0.043649
-0.0416383,0.0244625
-0.113514,0.0186833
-0.0965685,-0.0342385
0.00473547,-0.0685042
-0.0459783,-0.0258369
-0.105045,0.0334572
-0.149673,0.0404688
-0.134788,0.0352671
-0.00159041,-0.030355
0.033229,-0.0746225
0.0859971,-0.0283903
0.221624,0.0130576
0.104679,-0.0128572
-0.111899,0.030202
-0.0631807,0.0502651
0.146133,0.0368911
0.0865692,0.0193203
-0.150523,-0.00185728
-0.301201,0.000172881
-0.165844,0.00352819
0.0113646,-0.0176679
0.0904202,-0.0386144
0.0138409,-0.0287494
-0.0602853,0.00940918
0.0206402,0.0489445
-0.0529716,0.053554
-0.0885474,0.0241868
0.0859205,0.000181161
0.173147,0.0212722
0.0580835,-0.0129445
-0.142284,-0.0509214
-0.164152,-0.0104553
-0.0550788,-0.00895502
-0.0238537,-0.0296248
0.123826,-0.0451995
0.411894,-0.0431149
0.352276,-0.0608143
0.0262045,-0.106782
-0.257586,0.00254409
-0.299476,0.0595316
-0.26176,0.0434744
-0.139241,0.0920234
0.100195,0.104741
0.195213,0.0423605
0.13461,-0.0344686
0.0907239,-0.0549709
0.134111,-0.0128103
0.20805,-0.00658372
0.20741,0.0112912
0.042536,-0.00181476
-0.0986856,-0.0544933
-0.244758,-0.0720656
-0.271185,0.00675564
-0.0658548,0.0354313
0.0508731,0.0295766
-0.0332858,0.041112
-0.174993,0.0273716
-0.201294,0.0386219
-0.0574475,0.07801
0.0706621,0.079646
0.0621756,0.00798322
-0.0155206,-0.0660255
-0.0639321,-0.0620296
-0.0131596,-0.0443529
0.034481,-0.025552
0.0586999,-0.0019655
0.109652,0.00809127
0.206246,0.00242286
0.243689,-0.0232693
0.0817549,-0.0610167
-0.0851656,-0.0453696
-0.148522,-0.0282491
-0.154873,-0.00816913
-0.0148121,0.0278211
0.125177,0.0516496
0.164393,0.0402954
0.112404,-0.0203883
0.048142,-0.0206954
0.0124612,0.0353856
-0.164454,0.0302114
-0.247317,-0.0114107
-0.171665,-0.00839308
-0.0790277,0.0272147
0.0889816,0.0246677
0.188085,-0.0210808
0.100663,-0.0731541
-0.154976,-0.0224494
-0.19054,0.0295381
0.0571156,-0.0161932
0.212487,-0.0843858
0.191316,0.0001408
0.0442568,0.0547335
-0.0868557,0.0451301
-0.0304735,0.0443229
0.103882,0.0366362
0.0356937,0.0161558
-0.218624,0.00185823
-0.251333,0.00475932
-0.196658,0.0118609
-0.113126,0.0470119
-0.05827,0.0104994
0.0445007,-0.0278072
0.20288,-0.0268183
0.26009,-0.0306106
0.251884,-0.0374559
0.218477,-0.0139054
0.109923,-0.00127956
0.118292,-0.000814686
0.0235561,0.010048
-0.246727,0.026627
-0.397753,0.017289
-0.329523,-0.0141432
-0.136053,-0.0429751
0.0978264,-0.0344109
0.20222,-0.0252607
0.136909,-0.017467
-0.0666207,0.0167446
-0.206369,0.0266669
-0.0863174,0.018051
0.0185541,0.0144799
-0.0233456,0.00709995
-0.115963,-0.00231455
0.00544291,0.0134258
0.205215,0.00941456
0.178383,-0.00649914
0.0319098,-0.0271811
0.052147,-0.0283659
0.200514,-0.0307
0.319943,-0.0188949
0.177177,-0.0236698
-0.100968,-0.0292342
-0.330179,0.0486714
-0.274526,0.0654426
-0.191542,0.0468212
-0.149769,0.0341455
-0.0659624,0.030779
-0.0217516,0.0312236
0.00727114,0.0189559
0.0906871,0.00515705
0.0985298,-0.0142831
0.014736,-0.0264831
0.00966252,-0.0115309
0.067081,-0.0154713
0.0594346,-0.0241143
0.0816898,-0.0110162
0.122899,0.0161468
0.199388,-0.0240815
0.321942,-0.0360132
0.20962,-0.0419291
-0.0142017,-0.021925
-0.257165,0.0521981
-0.45528,0.0270717
-0.262787,-0.00766008
-0.0899078,0.00145137
0.00302069,0.00217549
0.0895307,-0.0527952
0.0854908,-0.069325
0.00783499,0.0112983
-0.148174,0.034799
-0.182522,0.0252856
-0.11939,0.015434
-0.0515772,0.0191355
0.0183787,0.0134685
0.0644736,0.00328379
0.11083,-0.0238655
0.152324,-0.0321858
0.152586,-0.0091307
0.134824,0.0296945
0.179035,0.0410935
0.263074,0.0133176
0.300018,-0.00240549
0.0892458,0.00592226
-0.374322,0.0284821
-0.402703,0.0187924
-0.0141171,0.0036085
0.332904,0.0105238
0.336837,-0.00615228
-0.143843,-0.0311763
-0.608414,-0.0246153
-0.379592,-0.000720246
-0.0479428,-0.0128271
0.049501,0.00956681
0.133373,0.0222637
0.121649,0.0120656
0.0151843,-0.00591417
-0.152432,-0.00571984
-0.144743,0.0102925
-0.0979912,0.0187264
-0.0887514,0.020886
0.0213034,-0.0174014
0.056247,-0.0605235
0.0232374,-0.0505825
-0.00534467,-0.00720572
0.00978263,0.00873725
0.0707658,0.0187304
0.147379,0.0123576
0.2169,-0.0173172
0.144955,-0.0751804
0.0104065,-0.0327908
-0.11237,0.0604207
-0.0286269,0.106233
0.126756,0.0674484
0.0804091,-0.0293893
-0.128494,-0.0594407
-0.124484,-0.154231
0.0885523,-0.103143
0.191366,0.0678289
0.105822,0.0971709
0.0209455,0.0651928
-0.197728,0.0415035
-0.199188,0.0111387
-0.0176084,-0.0169307
0.124213,-0.0170292
0.169279,0.00242882
0.0597549,0.0205746
-0.0721336,0.0203618
-0.132025,0.0129477
0.0150895,0.00481223
0.116277,-0.0155461
-0.0440192,-0.0519907
-0.204125,-0.0167151
-0.116439,0.0149715
-0.144209,0.0223091
-0.138546,0.0223066
-0.00042548,0.00607948
0.018565,-0.00109056
0.150976,0.0036082
0.531067,-0.0180997
0.662392,-0.0318557
0.261106,-0.00688434
-0.420121,0.0180022
-0.640698,0.0159164
-0.467724,-3.9e-05
-0.144841,-0.0122646
0.0684416,-0.0315727
0.0739559,-0.0292844
-0.0172298,0.00694365
-0.0840555,0.0181817
-0.0544079,0.00229817
-0.00740239,0.000248866
0.0619456,-0.00818443
0.130278,-0.0115954
0.239169,-0.0216549
0.243433,-0.00334905
0.0281768,-0.00178556
-0.172128,0.0332385
-0.207676,0.0548935
-0.0407711,0.0297203
0.0810475,-0.0230306
0.0597606,-0.0656783
0.0129226,-0.0395033
-0.012232,0.0171515
-0.0369235,0.031185
0.00137142,0.0115463
0.023332,0.0021794
0.00340879,0.0140005
-0.049686,0.0296344
-0.0722208,0.0228781
-0.00866335,0.0106745
0.0292351,0.00307688
0.0493457,-0.027458
0.105526,-0.0444215
0.101649,0.00109732
0.0385485,0.0109242
0.0399886,0.0225895
0.185427,0.0331029
0.140382,0.0136954
0.0381625,-0.0156785
0.0919779,-0.0241686
0.0446625,-0.00681375
-0.0993277,-0.00849459
-0.253842,-0.0110582
-0.367647,-0.0181387
-0.23361,0.0198199
-0.135175,-0.0325686
0.00216282,0.00307323
0.117749,0.000678712
0.166332,-0.0167327
0.179582,-0.0242443
0.176049,-0.056198
0.109236,-0.0369157
-0.0493341,0.0241394
-0.303756,0.0323639
-0.269456,0.0201233
-0.0400287,0.0182747
0.181003,0.0110579
0.250767,0.00984196
0.11684,0.0166629
0.0566744,0.0155527
0.0442384,0.0200914
-0.017709,0.0339359
-0.151518,0.0432814
-0.286548,0.019698
-0.23798,-0.00955129
-0.153286,-0.0240749
-0.111097,-0.00762194
-0.0530791,0.0566521
0.0453349,0.0855974
0.148734,0.0564733
0.147873,-0.0418252
0.10649,-0.076193
0.0514896,-0.0574799
0.0124261,-0.0630852
0.0325051,-0.0579657
0.14754,-0.11287
0.2062,-0.043858
0.149671,0.00970757
-0.0064265,-0.0481839
-0.181757,-0.0137213
-0.118281,0.0407876
-0.0106612,0.0725588
-0.0592407,0.0420337
-0.1426,0.0185062
-0.0759727,0.0167586
0.0108896,0.0212563
-0.033705,0.016654
-0.0482876,0.0136524
0.0379938,0.0159554
0.252048,0.00735915
0.440471,-0.00808628
0.481155,-0.000249699
0.128988,0.0169239
-0.246811,0.0258427
-0.397877,0.0194914
-0.317817,0.00617913
-0.0162658,-0.00183616
0.185073,-0.0226756
0.229426,-0.0299912
0.0881688,-0.0179271
-0.221075,-0.0168439
-0.354974,-0.0458293
-0.232386,-0.0495886
-0.102476,-0.0175745
0.0186501,0.045754
0.0113399,0.0473503
-0.102663,0.0239642
-0.123313,0.026805
0.0223233,0.0195818
0.190491,0.000142544
0.22462,-0.00146985
0.197247,0.0101698
0.158892,0.0109497
0.199586,-0.00311158
0.0267715,-0.0216369
-0.299895,-0.0196496
-0.360065,-0.0210577
-0.112397,-0.0376406
0.225778,-0.0314479
0.273693,0.0194596
0.13343,0.0351567
-0.154317,0.000309629
-0.127147,-0.038696
-0.0674989,-0.0346943
-0.0723729,0.00268626
0.0119793,0.0191623
-0.0349494,0.0252999
-0.144083,0.00677294
-0.147441,-0.0142643
-0.0461906,0.0146441
-0.0102955,0.0249663
0.0184481,0.00042277
0.0581131,-0.0403942
0.0875227,-0.0183766
0.114225,0.0157745
0.10733,-0.00926685
0.0443651,0.00122243
-0.0079985,0.0306507
-0.00496858,0.0292434
0.0254039,0.00798343
0.0759992,0.00962475
0.120464,0.0272414
0.0984761,0.0488905
-0.0147457,0.0263667
-0.125031,-0.022246
-0.131538,-0.0270068
-0.0842632,-0.0188905
-0.0647454,-0.0365966
0.035847,-0.0483544
0.118404,-0.0281896
0.164793,0.0182107
0.112922,0.0199133
-0.0475312,0.0138612
-0.119927,0.0191739
-0.0668188,0.0158781
0.0486245,0.00195663
0.134818,-0.00457052
0.0350607,0.00260412
-0.109767,0.00482968
-0.125554,0.00548205
-0.0892454,0.00245121
0.00887891,0.00349036
0.102159,-0.0146677
0.0682517,-0.052332
-0.0427485,-0.0603533
-0.145003,-0.0202913
-0.118799,0.00472347
0.039736,-0.00586642
0.188307,-0.0285628
0.183704,0.0361413
0.0685885,0.0439987
0.061594,0.0426964
0.0393068,0.0392081
-0.0722084,0.018429
-0.287811,-0.00258384
-0.38345,-0.00474717
-0.206283,-0.00859513
-0.0498136,0.0148991
-0.0115405,-0.0358573
0.0521127,-0.0390135
0.218189,0.0280605
0.284049,0.0285201
0.235067,-0.0220271
0.0342106,-0.0559419
-0.143313,-0.0216016
0.0364779,0.00764742
0.36972,0.0348046
0.417925,0.0522835
-0.0916863,0.0280651
-0.506988,-0.00667244
-0.421825,-0.0130244
-0.00611449,-0.00460681
0.161722,-0.00830544
0.106359,-0.00957674
-0.0415571,0.00874783
-0.174404,0.0249531
-0.230582,0.0127965
-0.191331,0.00593634
-0.108063,0.00314887
-0.00937029,0.00738864
0.079113,-0.0143191
0.172794,-0.0244591
0.205495,-0.0409347
0.194167,-0.0576084
0.0126825,-0.032371
-0.199814,0.0246054
-0.119995,-0.0127538
0.0299133,-0.0273821
0.0524201,0.0424376
0.0172998,0.0118234
0.0417962,-0.0135116
0.0587697,-0.0239502
0.0533318,-0.0163245
0.0337069,0.026902
0.00121933,0.059354
-0.0126821,0.0295906
0.0100834,0.0160584
0.038331,0.00864233
-0.0395539,-0.013705
-0.17461,-0.00997071
-0.164225,0.012579
0.0407574,0.00843926
0.229834,0.0052858
0.26446,0.00510624
0.148983,0.00111126
0.0714872,-0.0122375
0.120435,-0.0137718
0.161971,0.00585028
0.399083,0.0089987
0.502567,-0.00433211
0.141934,0.00790352
-0.539326,-0.018481
-0.622797,-0.000411128
-0.314368,0.0110996
-0.396688,-0.0592515
-0.445123,-0.0251628
-0.287795,0.0189682
-0.10649,-0.00327604
0.0277844,0.00345123
0.0483096,0.00977142
0.0674541,0.00456677
0.131097,-0.0070604
0.15593,-0.00790706
0.125706,0.00548367
0.0360741,0.0180013
-0.034123,0.0218414
-0.0664588,0.0260784
0.0132426,0.0142818
0.139001,-0.0123542
0.382773,-0.0122948
0.463615,0.00120378
0.274127,-0.000509215
-0.0856412,-0.00897785
-0.388882,0.0241761
-0.295815,0.0256624
-0.062743,-0.0188467
0.0345554,-0.0202479
-0.00456688,0.000438091
-0.0579688,-0.0149369
-0.0125385,-0.0266906
0.0464133,0.0196366
-0.0400672,0.0397254
-0.0461857,0.0250405
0.0475194,0.00505021
0.0926914,-0.0485373
0.0715408,-0.1001
-0.0628508,-0.041267
-0.17778,0.0259923
-0.1161,0.0467613
-0.0482405,-0.0197489
-0.0165996,-0.0275014
0.013162,0.0404465
0.0295677,0.0315547
0.0294438,-0.0180773
0.0128333,-0.00842897
-0.0122975,0.0375036
-0.00624924,0.0306469
0.201733,0.0126255
0.45013,0.00970928
0.41394,0.0171642
0.130584,-0.00333078
-0.0390243,-0.0387955
0.030795,-0.0400732
0.0994271,-0.0257641
-0.0849254,-0.00160682
-0.424907,0.00634456
-0.408076,0.00417227
-0.28671,0.0100442
-0.173529,0.0124989
-0.0784656,-0.00164508
-0.0336933,-0.0151195
-0.0248266,0.0125605
-0.0202015,0.0232386
0.0926155,0.00714513
0.228751,-0.00591854
0.206833,-0.00114509
-0.0012426,0.0166714
-0.28108,0.00326153
-0.27336,-7.47e-05
-0.0667187,-0.00425861
-0.00614392,0.0204966
0.0336221,0.0163632
0.103053,0.00763723
0.14615,0.0264901
0.15068,0.0123009
0.0913371,-0.00317755
0.0584351,-0.0236798
0.103181,-0.0322319
0.146871,-0.0292472
0.157359,-0.0199139
0.01443,-0.0143313
-0.150119,-0.00198549
-0.10741,0.0100529
-0.0288904,0.00164701
0.0934426,-0.0179154
0.0985947,-0.0202128
-0.105468,-0.0399417
-0.162204,-0.062849
-0.109884,0.0194531
-0.0754446,0.063547
0.0466791,0.070694
0.0731252,0.0387303
-0.00563335,-0.0190539
-0.0338184,-0.0281375
-0.0301413,0.00383718
-0.0300166,-0.00346516
0.0166926,-0.0185248
0.026179,-0.011523
-0.001774,0.0235214
-0.00363251,0.0192549
-0.0981566,-0.0148585
-0.152694,-0.00102735
-0.0855715,0.0174023
-0.00905971,0.0187501
0.124592,0.0132332
0.370305,0.00552916
0.608153,0.00198715
0.658732,0.0187006
0.185189,0.026979
-0.351375,-0.0120418
-0.587883,-0.0309121
-0.355385,-0.0573984
-0.0198543,-0.0474501
0.0252255,-0.0202129
-0.0714697,-0.0290714
-0.323587,0.00803806
-0.270618,0.0658368
-0.00326547,0.0443816
0.0919184,0.00889063
0.0708464,-0.00539088
0.0320561,0.00374163
0.0413824,0.0142327
-0.0493282,0.0099834
-0.127684,0.00924327
-0.0848554,-0.00372971
-0.0119126,-0.0385654
0.0308467,-0.0357851
0.0348576,-0.00966425
0.0276086,0.00459097
0.00210387,-0.00256415
-0.0147644,-0.0281476
-0.00258763,-0.00938017
0.0721843,0.0348536
0.190877,0.0276092
0.254415,0.0059534
0.258821,-0.0105575
0.37058,0.000231025
0.356986,-0.000623432
0.102553,-0.00740286
-0.497483,-0.0190304
-0.598416,0.00405679
-0.250429,0.0277482
-0.136889,0.0303657
-0.0660642,0.0243556
0.0790018,0.00848391
0.141988,-0.000434328
0.198572,0.00140296
0.100404,-0.000147734
-0.11271,0.000576278
-0.214553,0.0081693
-0.221446,-0.014045
-0.122823,-0.0447929
-0.00485118,-0.00820488
0.150453,0.00762121
0.286468,0.0137973
0.207788,-0.0084912
-0.0130414,-0.0307073
-0.0768488,0.00633496
-0.0196799,0.0306103
0.0432018,0.000362148
0.0272101,-0.032937
-0.0957532,-0.0600557
-0.0937793,-0.0232118
-0.0165239,0.00267074
0.0976697,-0.00922372
0.202692,-0.0353865
0.188073,0.022071
0.0420035,0.0641699
-0.157236,0.025257
-0.235437,-0.00881442
-0.130263,-0.000924967
-0.0672894,0.030659
-0.0111005,0.0299212
0.0165008,0.00234247
-0.068812,0.0259998
-0.0742849,0.0211938
-0.0105664,0.00473084
0.0511491,-0.00668335
0.11569,-0.0324157
0.091718,-0.0445971
0.0101519,-0.0150889
-0.0620104,0.00706003
-0.122448,-0.000518391
0.0132522,-0.0199809
0.336816,0.0262908
0.502489,0.0227641
0.359201,-0.0255896
-0.109215,-0.0382049
-0.53136,-0.00654662
-0.368365,0.0252787
-0.172262,0.0257553
-0.0834765,0.0313191
0.0123432,0.0317063
0.0474348,0.0207191
0.171587,-0.00678908
0.146844,-0.0722249
-0.00703713,-0.0530069
-0.209382,-0.000135008
-0.281204,-0.013757
-0.0657111,0.0300182
0.0811936,0.043016
0.178403,-0.00645673
0.255738,0.0176969
0.340431,0.02749
0.344409,0.00552384
0.0818033,-0.00565933
-0.253619,-0.00912101
-0.356745,-0.0111543
-0.24236,-0.00822106
-0.172602,-0.0188832
-0.078872,-0.0315784
-0.0231702,-0.0101812
-0.0235969,-0.00810753
-0.0297522,0.0166518
-0.0242864,0.0380063
0.0490948,0.0194256
0.0610949,-0.0102111
0.0768057,-0.0087284
0.152698,-0.0425728
0.215504,-0.0247329
0.107666,0.0321382
-0.092087,0.0506588
-0.122532,0.0178245
-0.00474264,-0.021357
-0.0126534,-0.0140916
-0.07624,0.0122086
-0.00314924,0.0106056
0.00628333,-0.00240534
-0.044944,-0.00760531
-0.094682,0.00239588
-0.0805902,0.0161267
0.0523347,0.0174107
0.281909,0.0122555
0.340022,0.00383294
0.0717565,-0.0152543
-0.358807,-0.0335802
-0.43178,-0.0657343
-0.258399,-0.0514056
-0.0440329,0.0160632
0.076546,0.0159366
0.131806,-0.0183077
0.147074,0.020835
0.120767,0.0515115
0.088013,0.0165353
0.0749749,0.00911808
0.123708,0.0271195
0.136371,0.0251598
0.13961,0.0270902
0.0481674,0.0200928
-0.170612,-0.00756546
-0.303274,-0.0266575
-0.313626,-0.0230686
-0.109011,-0.0100417
0.171669,-0.0387179
0.297027,-0.0768204
0.203602,-0.106727
0.00939732,0.00878966
-0.0551601,0.0537771
0.126169,0.0393667
0.251919,0.032881
0.178187,-0.0221904
0.0365174,-0.0632444
-0.170497,0.0187132
-0.34553,0.0586053
-0.434627,0.0371456
-0.290548,0.00348253
-0.106342,-0.00790315
0.0756334,0.0318905
0.138681,0.0191374
0.0835273,-0.00747602
0.0197117,-0.0238303
-0.0860234,0.00643965
-0.0900545,0.0243855
0.00541771,0.0238153
0.104418,0.0117482
0.113417,0.00584051
0.0489928,0.000136875
0.0101878,-0.00211083
0.0087667,-0.00579223
0.0486257,-0.00821195
0.199077,-0.00166331
0.456721,0.0058292
0.424084,0.0100024
0.124203,-0.0105159
-0.413726,-0.050058
-0.500779,-0.0596216
-0.39228,0.00126543
-0.352832,0.0414814
-0.139505,0.0122559
0.0593951,0.00275868
0.16389,-0.00442312
0.136969,-0.0118701
0.0296019,-0.00220478
-0.0429361,0.0216553
0.101221,0.0360069
0.232547,-0.000664599
0.120834,-0.0358383
-0.0605812,-0.0346645
-0.204975,-0.0175918
-0.200017,-7.12e-05
-0.0882017,0.00406112
-0.0302974,-0.00346895
0.00802041,0.01082
0.0882813,0.00608604
0.156596,0.0133421
0.159877,0.0244305
0.0875291,0.00587677
0.019045,-0.034198
0.0719107,-0.063483
0.0612119,-0.0196064
-0.0423581,0.0306813
-0.118923,0.0129061
-0.0333113,0.0419704
0.135193,0.061983
0.169351,0.0275811
0.112207,-0.00979051
0.0835638,-0.0124763
-0.114213,0.00152949
-0.248387,-0.00351532
-0.255895,-0.035653
-0.167983,-0.0360111
0.0116774,-0.00343875
0.117763,0.0050084
0.0933658,-0.0111919
0.120998,0.0130773
0.253026,-0.0073621
0.286594,-0.050128
0.0767806,-0.0191861
-0.247236,0.038262
-0.293681,0.0188511
-0.310374,0.0106634
-0.266819,0.0102752
-0.0392236,0.0155926
0.106331,0.0126067
0.141363,-0.00514672
0.0357589,-0.00866412
-0.0840142,0.0199072
-0.0873429,0.0222478
-0.0253854,0.0102996
0.0269468,-0.0221078
0.0518144,-0.0428967
0.0514135,-0.0402283
0.0277794,0.0067858
0.0163593,0.023752
0.0477661,-0.00355873
0.136911,0.00955262
0.275055,0.00826927
0.308218,-0.00438772
0.112289,0.00590451
-0.259186,0.0258342
-0.428691,0.0217142
-0.204504,-0.00565892
-0.0610572,-0.0248519
-0.00656258,-0.00248017
0.0738481,0.00936511
0.146417,-0.0322821
0.144537,-0.00580503
0.0503538,0.0113383
-0.0742048,0.0144714
-0.0564732,0.0114709
0.0137171,0.0156648
0.0926052,0.00620014
0.0672019,-0.0184499
-0.0398031,-0.0203937
-0.148985,0.0198977
-0.175369,0.0185857
-0.0242453,0.00120424
0.062805,-0.00212746
0.0022104,-0.0158666
-0.0471453,-0.000462863
0.00198901,0.0165056
0.0663121,0.00197083
0.0747317,-0.0188045
0.120413,-0.0239529
0.1323,-0.0149583
0.018712,-0.010221
-0.112826,-0.0260947
-0.108618,-0.0210183
-0.00996742,0.0019563
0.0111009,-0.0222346
-0.0782333,-0.0134372
-0.0865152,0.0269042
0.0480727,0.0232111
0.241685,0.0218521
0.394901,0.0202304
0.255714,-0.00233873
-0.146168,-0.0097997
-0.249684,-0.00798517
-0.127366,0.0148347
0.0331107,0.0301629
0.120092,-9.6e-05
0.0409249,0.0242646
-0.257053,0.0235807
-0.419796,-0.0307442
-0.224479,-0.0081797
-0.111996,0.0163998
-0.075273,0.0116115
-0.0371028,0.00625688
-0.0112612,-0.0105288
0.0120987,-0.00701837
0.0294762,0.00469515
0.0510254,0.0102248
0.0700067,0.00233939
0.086766,-0.0112191
0.104673,-0.0305571
0.253527,0.000976601
0.318804,0.00924683
0.202669,-0.00423477
0.00766744,-0.00717018
-0.031484,-0.0215436
0.100235,-0.0228154
0.0632888,-0.0296562
-0.198812,-0.022948
-0.361931,0.00523376
-0.264273,0.0195082
-0.0955339,0.018211
-0.00293507,0.035012
-0.00109994,0.020295
0.00794613,-0.00568114
0.0656201,-0.0153831
0.13305,-0.00580565
0.245538,0.0168734
0.327495,0.0467554
0.280059,0.0249165
0.00205519,0.00514628
-0.265848,-0.0614711
-0.302064,-0.0558024
-0.227658,-0.0155565
-0.117274,-0.0144412
-0.0185982,-0.0106626
0.0665814,0.00551545
0.101746,0.0266909
-0.0115231,0.0111571
-0.125696,0.0118496
-0.108372,0.0131548
-0.0377527,0.00601817
0.0108889,0.00253009
0.00390745,0.0161536
-0.022019,0.0343864
-0.011692,0.0412024
0.0160668,0.0094834
0.00478405,-0.00302996
0.0438906,-0.0130303
0.112694,-0.0246621
0.20064,-0.0330446
0.296137,-0.0650418
0.265979,-0.0199169
0.0529499,0.0147065
-0.100602,0.00634529
-0.200715,0.0188105
-0.16405,0.00928084
-0.0874447,0.00263803
-0.0820194,0.0040198
-0.0742138,0.00880112
-0.124273,-0.00125507
0.0303893,-0.0117144
0.266175,-0.00373922
0.248484,0.0173435
0.302286,0.014613
0.336483,-0.00671771
0.259144,-0.0132246
0.0462631,-0.0132319
-0.445498,0.000866634
-0.651827,0.0267755
-0.462348,0.0316386
-0.21127,0.000704658
-0.189939,-0.011845
-0.176486,-0.000234487
-0.0465823,0.00203468
0.0584683,-0.0018188
0.0885533,-0.0109883
0.0411855,-0.0162149
-0.0126704,-0.0118314
-0.0100418,-0.00941758
0.0427789,-0.0025745
0.126184,-0.0113127
0.217841,-0.0196945
0.253512,-0.00366014
0.128615,0.00994722
-0.00396236,0.0143535
-0.0298213,0.00998163
0.0534674,0.0113876
0.114763,0.0122958
0.0280788,0.00273403
-0.00213687,-0.0100742
-0.0208206,0.00474079
-0.0657561,0.00803443
-0.02962,0.0112855
0.0147607,0.00439983
0.0479485,-0.0086405
0.0141602,0.00347312
-0.0165874,0.0140058
-0.0769331,0.0092819
-0.148291,0.00725178
-0.0986714,-0.0425985
0.00330239,-0.0753875
0.0618037,-0.0322135
0.0502899,0.0279696
0.032166,0.0320287
0.0621547,0.0149286
0.0416857,0.0110576
0.0671142,-0.0246089
0.103931,-0.0304631
0.089269,-2.45e-05
0.0210976,0.011758
-0.131506,0.0265554
-0.202489,0.0131076
-0.128675,-0.00762642
-0.0446776,0.00725859
0.0100588,-0.00111081
0.0526161,-0.00626057
0.045874,0.00627854
-0.0364486,0.0234602
-0.111902,0.0194606
-0.0625529,0.00883621
0.0607476,0.0282281
0.0964025,0.0319792
0.0977565,0.0216874
0.0819608,-0.0145671
-0.00642169,-0.0387219
-0.0762805,-0.0425029
-0.081475,-0.0338574
-0.0212062,-0.016446
0.0676857,-0.0019158
0.065991,0.0084597
0.00661503,0.0113774
-0.110961,0.0157383
-0.119605,0.0228222
-0.0544283,0.0107111
0.00834782,-0.0113998
0.07008,0.00135977
0.100343,-0.00146174
0.145063,-0.0116716
0.233866,-0.0275941
0.235478,0.00401838
0.0286111,0.0280858
-0.111178,-0.0304422
-0.0102177,-0.0660952
0.0985327,0.00148306
0.0558364,0.0430123
-0.0142643,0.0182789
-0.222918,-0.0172796
-0.361262,-0.00608926
-0.397237,0.0309091
-0.214206,0.0334444
0.100202,0.021278
0.241802,0.0186233
0.208577,0.0254281
0.0207494,-0.00957972
-0.135295,-0.0303528
-0.0163795,-0.0356849
0.0113929,-0.0196961
-0.0697508,-0.00770123
-0.0969142,-0.0173507
-0.0601257,-0.00313591
0.0487744,-0.00391011
0.0939701,-0.00214752
0.0569085,0.000249171
0.00423955,-0.00397783
-0.100659,-0.00931545
-0.106345,-0.00473468
-0.0453969,-0.00476572
-0.00474008,-0.00646765
0.0526034,0.000247553
0.0947535,0.00698725
0.0798683,0.0117951
0.00798041,0.012754
-0.0476983,0.0112418
-0.0395624,0.00600055
0.0347922,0.00466341
0.128893,0.00398451
0.148332,0.00389441
0.107662,0.0151829
0.121935,0.014395
0.128536,0.00845353
0.242762,0.0121194
0.319836,0.00712208
0.282467,-0.00272158
0.171276,-0.0149695
-0.0591248,0.0184565
-0.299654,0.0465267
-0.427236,0.023013
-0.523225,-0.00599897
-0.361717,-0.00862229
-0.123461,-0.0152976
-0.00756744,-0.0226922
0.0199136,-0.0262779
-0.0510142,-0.0231827
-0.111128,-0.00412333
-0.0947521,0.00650585
-0.0420731,-0.00434166
0.0159008,-0.00688218
0.0462455,-0.00185729
0.0451868,-0.00412027
0.0351847,-0.035767
0.029677,-0.0866391
0.0780966,-0.0432734
0.184664,0.023825
0.233067,0.031768
0.184867,0.0201922
0.0620466,0.0163879
0.0400363,0.000979863
0.0983044,-0.0169268
0.115447,-0.016575
-0.000758226,0.00230222
-0.196979,0.0208486
-0.258784,0.0283793
-0.165678,0.0293269
-0.0203866,0.0197061
0.123438,0.00352218
0.162478,-0.00265946
0.0670959,-0.00117916
-0.0710643,-0.00599031
-0.0394977,0.0170948
0.0848253,0.0178778
0.0565667,0.0130529
-0.0808556,0.0190113
-0.0943812,0.0169476
-0.0128603,0.00666787
0.0291326,-0.00673655
-0.0028419,-0.0097947
-0.00806514,-0.0149796
-0.0467674,-0.00894288
-0.0975421,0.0041956
-0.0570221,-0.000495061
0.00247011,-0.0209679
0.00264205,-0.0227074
-0.0193365,-0.00928391
-0.00634575,-0.00381498
0.012489,0.00188509
0.0467976,0.00681111
0.0729585,0.00788016
0.0423807,0.0108392
0.012218,0.00724927
0.00556026,-0.00274229
0.0119769,-0.0143619
0.0278835,-0.016792
0.0319263,-0.0191713
0.00661518,-0.00207161
-0.0166017,0.0172303
-0.0160731,0.0183481
-0.0381964,0.00192435
-0.0837355,-0.00599644
-0.0810786,-0.0097819
-0.0500958,-0.00905316
-0.0355987,-0.00256782
0.00390768,-0.00246009
0.0511037,-0.0140243
0.0789572,-0.0110772
0.0825359,-0.0126619
0.089275,-0.00282193
0.0925854,0.00795095
0.111933,0.00809976
0.136447,0.00581559
0.118212,0.00807113
0.139976,0.0113486
-0.0288939,0.018014
-0.284317,0.02377
-0.404658,0.0167331
-0.314041,0.000612727
-0.127056,-0.00391827
-0.0696324,0.001619
-0.0475919,0.00798417
0.00538982,0.0148561
0.085104,0.0160681
0.158618,0.0133938
0.131738,0.00225875
0.0717624,-0.0241481
0.0418738,-0.0310656
0.114304,-0.0205575
0.146901,-0.00913316
0.0440019,-0.00640243
-0.0664431,-0.00995282
0.0263598,-0.0173919
0.120545,-0.00698976
0.0915763,0.00570244
-0.061129,-0.0174977
-0.123354,-0.0200402
-0.0334699,-0.00587814
0.0782306,0.0120538
0.196634,0.0224336
0.12282,0.00904934
-0.207739,-0.00102971
-0.319688,-0.000760949
-0.250771,0.000250413
-0.25758,-0.00614757
-0.143482,-0.0550534
-0.063645,-0.0305899
-0.0467919,0.0400475
-0.0459433,0.0427089
-0.00841556,0.0287072
0.0674426,0.0110665
0.0689968,-0.00216422
0.0716068,-0.00390312
0.10796,0.00402867
0.22243,0.0119654
0.451882,0.0107805
0.573676,0.00720678
0.287572,0.0048259
-0.109031,0.00437439
-0.0990382,0.00447507
-0.0153587,-0.00114075
0.00955761,-0.00704921
-0.191072,-0.00424168
-0.481097,0.00449002
-0.363903,0.0068204
-0.209962,0.00704967
-0.171072,-0.000705766
-0.0636859,0.00987846
0.0165577,0.0108841
0.0479374,-0.00589313
0.0618909,-0.020417
0.08362,-0.0340589
0.132692,-0.0168624
0.240395,-0.010139
0.31594,0.00720435
0.180191,0.016013
-0.0790696,0.00785898
-0.243936,0.0135772
-0.130002,0.0285176
0.026145,-0.00850095
0.051834,-0.0595439
-0.0333594,-0.0331296
-0.0900462,0.00803108
-0.0461912,0.0145366
-0.0204728,0.00420295
-0.0165292,0.0027522
-0.0109084,0.0125775
-0.013064,-0.00355355
-0.0403201,-0.00465093
-0.0738335,0.00338268
-0.0504063,0.0164174
0.0160799,0.0173025
0.0751586,0.0118315
0.131518,-0.00878694
0.160881,-0.0169038
0.206483,-0.00992705
0.14768,0.00553141
0.107002,0.0139783
0.101586,0.015732
-0.0160346,-0.00109592
-0.232005,-0.0258508
-0.360241,-0.0112696
-0.186949,0.0102609
-0.027301,0.0023754
-0.0166504,0.000301059
-0.0702885,0.00854891
-0.0744293,0.00241313
0.174843,-0.046913
0.484178,-0.0455925
0.523104,0.0228806
0.246885,-0.000955711
-0.246997,-0.0468838
-0.522678,0.00528331
-0.474128,0.0459306
-0.276852,0.0118849
-0.0471306,0.0120758
0.0951612,-0.0052703
0.136943,-0.0302074
0.0894327,0.00499205
-0.0393845,0.0139707
-0.127444,0.0172737
-0.0511359,0.0183669
0.103077,0.0198286
0.174124,0.0223982
0.119734,0.0204494
-0.0525938,0.0165217
-0.096785,0.00971254
-0.00269344,-0.00335148
0.0236879,-0.00734065
0.0851341,0.00672376
0.0351842,-0.0125224
-0.0176513,-0.0139042
-0.0545764,-0.013244
-0.0717791,-0.00932523
-0.0152406,-0.00334473
0.0240227,-0.0117001
0.0130444,-0.0151096
-0.0266913,-0.0182028
-0.036831,-0.0259186
0.0608746,-0.0356763
0.147127,-0.0128668
0.181901,0.0177786
0.154319,0.00849884
-0.0292855,-0.000785358
-0.237952,0.00774115
-0.359353,0.0204161
-0.230164,0.025106
0.119694,0.0183325
0.388262,0.00560459
0.537619,-0.00550434
0.532743,-0.0122335
0.261257,-0.0087554
-0.0514832,-0.0243056
-0.323881,-0.0493038
-0.494556,0.00819734
-0.427856,0.036649
-0.285165,0.0338936
-0.252259,0.0245179
-0.210314,-0.0403445
0.0221149,-0.0415013
0.195288,0.0222938
0.208675,0.0247742
0.00949591,0.00833255
-0.156563,0.0157153
-0.106881,0.0168258
0.0150892,0.0212049
0.107134,0.019495
0.156248,0.00377932
0.1314,-0.0168256
0.044333,-0.0244171
-0.0362225,-0.00798161
