Comp Ch 3,Comp Ch 4
-0.599839,-0.00771871
-0.32951,-0.00576964
-0.0380388,-0.00465715
0.109827,-0.00279659
0.183093,0.00883719
0.239805,0.0181714
0.223683,0.0249627
0.044888,0.0315652
-0.124228,0.03296
-0.155838,0.0249056
-0.0313475,0.010377
0.0707678,-0.0150723
0.102615,-0.0320887
-0.0727411,-0.0217961
-0.265879,-0.0013012
-0.149995,-0.0012895
-0.0181734,-0.00501674
0.0549844,-0.00490296
0.14447,-0.0211069
0.184765,-0.0388618
0.103107,-0.0256236
0.0501601,0.000179366
0.189518,-0.00123628
0.25442,-0.00763105
0.148385,0.00850795
0.0153835,0.0278811
-0.071612,0.0482328
-0.0728428,0.036296
-0.137876,0.00124641
-0.231204,-0.012401
-0.163936,-0.0121348
-0.0268067,-0.0166371
-0.0792508,-0.0334597
-0.223678,-0.0422526
-0.21548,-0.0216297
-0.177318,0.00262188
-0.044016,0.00480195
0.162391,-0.00963441
0.238728,-0.00782264
0.135979,0.0169302
0.000637765,0.0225945
0.160453,0.0231319
0.404997,0.00983383
0.224631,-0.0113619
-0.28287,-0.00837935
-0.511808,0.0152661
-0.296118,0.00900329
0.0760432,-0.0235562
0.336059,-0.0492455
0.320583,-0.0401829
0.235035,0.00231423
0.0581014,0.0187346
-0.295189,0.0190088
-0.421838,0.00756802
-0.229213,0.00349388
-0.0575803,0.0166589
-0.0122044,0.0379736
0.0665398,0.0545576
0.0104533,0.0424364
-0.0750647,0.0020085
-0.0642579,-0.00914585
0.0217124,-0.0186819
0.0673749,-0.00465615
0.0222531,0.0102871
0.0420512,0.00379855
0.101351,-0.0193267
0.119656,-0.0326393
0.0290278,-0.0279724
-0.0309431,-0.0124904
0.156049,-0.000238774
0.266785,0.00035436
0.288714,-0.00771948
0.202727,-0.0049774
0.0727805,-0.00342439
0.0453217,0.00755501
-0.0605569,0.0112069
-0.241153,-0.0173946
-0.339681,-0.0167599
-0.32155,0.00309608
-0.218222,0.00303204
-0.118836,-0.000718933
-0.107358,0.0126322
-0.0690238,0.0217025
0.102367,0.000878032
0.186028,-0.0271976
0.112075,-0.0216407
-0.0588823,0.0239893
-0.130649,0.0335489
-0.0268255,0.0175809
0.0783984,0.00387729
0.103717,-0.0440146
0.0738339,-0.00472584
0.105146,0.0512105
0.103453,0.0446574
0.106557,-0.00301779
0.0290641,-0.0408517
0.0943122,-0.0535996
0.187429,-0.0264673
0.114534,-0.00888188
-0.100602,0.0303504
-0.284293,0.0451949
-0.0934246,0.017334
-0.0683519,0.00129765
-0.136235,-0.00806063
-0.0234172,0.027925
0.0339532,0.0330286
-0.0898788,0.018197
-0.207419,0.000444452
-0.164614,0.0152898
-0.0423669,0.021767
0.111151,0.00433884
0.188576,-0.00877983
0.230036,-0.0221223
0.181692,-0.0367865
0.143429,-0.0380173
0.0695856,-0.0107548
0.0302761,-0.00678709
0.00912619,-0.0176635
-0.175088,-0.0151179
-0.318962,-0.00117182
-0.332914,-0.00645821
-0.143747,-0.0105527
0.0728011,0.00503439
0.283797,0.00130537
0.433689,0.00437253
0.513958,0.0011628
0.618004,0.0186224
0.549255,0.0187653
0.0941432,-0.00214157
-0.567648,0.0110585
-0.640139,0.0342603
-0.317115,0.0418606
-0.127331,-0.0115342
-0.423268,-0.045105
-0.627412,-0.00290057
-0.340454,0.0166026
-0.0879226,-0.0135365
0.00494152,-0.0313479
0.129095,-0.0199504
0.188906,-0.00595568
0.0218075,0.0233293
-0.104973,0.0400289
-0.110031,0.0216232
-0.0719033,0.00890923
0.0123183,-0.00517646
0.118491,-0.0228231
0.198582,-0.0441714
0.218697,-0.0610966
0.145,-0.075516
0.118145,-0.100359
0.340365,-0.146566
0.420581,-0.112804
0.198462,-0.00437469
-0.0651926,0.0306881
-0.256517,0.046396
-0.193045,0.0551494
-0.0414537,0.0585911
0.00766279,0.0735761
0.0975662,0.075165
0.118014,0.0670651
0.177684,0.0585653
0.0782994,0.0450106
-0.142759,0.0330039
-0.331043,0.0283859
-0.451159,0.0356514
-0.114616,0.0350212
0.334366,0.0208179
0.598517,0.00902671
0.634785,0.00525793
0.185272,-0.00365207
-0.302344,-0.0160126
-0.477408,-0.0102747
-0.429148,-0.00125827
-0.0983771,0.0388168
0.0166165,0.0221262
-0.0162992,-0.00959062
-0.156275,-0.0194647
-0.195262,-0.0195302
-0.141104,-0.0129587
-0.179529,0.00831728
-0.130728,0.0149332
-0.0582754,-0.00694751
-0.00906336,-0.0253455
0.046264,-0.0139591
0.0920347,0.00843516
0.13188,-0.00638762
0.166759,-0.0223907
0.164818,-0.0347042
0.104814,-0.0229815
0.233165,-0.0335016
0.405599,-0.0181262
0.388319,0.00506031
0.164715,0.0148591
-0.085192,-0.00708238
-0.131667,-0.016104
-0.349041,-0.0127149
-0.528494,-0.0219632
-0.434884,-0.0311833
-0.180485,-0.020072
0.0559657,-0.0205362
0.169724,-0.041533
0.0886768,-0.00447863
0.0114312,0.0354813
0.0874914,0.0304782
0.225684,0.000281836
0.269084,-0.00425681
0.0447053,-0.00145861
0.241407,-0.00872366
0.654209,-0.00625852
0.649555,-0.0115501
0.0154643,-0.0550141
-0.908627,-0.0295784
-1.03288,0.0498859
-0.571391,0.0467404
-0.127521,0.009573
0.147945,0.0177066
0.212748,0.0400265
0.145532,0.0208085
-0.0627007,-0.0150819
-0.200104,-0.0252529
-0.182554,-0.00829652
-0.128266,0.0150492
-0.07505,0.0281125
0.0267128,0.020656
0.0843061,0.00422756
0.29989,0.0004631
0.463256,0.00856449
0.418939,0.0086455
0.149543,-0.00126251
-0.241614,-0.00265936
-0.139312,0.00558014
0.220434,0.00349867
0.280646,-0.000927831
-0.0795814,0.00497023
-0.421438,0.0157506
-0.287786,0.0141125
-0.172559,0.0109018
-0.135304,0.0136413
-0.00951328,0.0254222
0.138837,0.0429731
0.144539,0.0193511
0.0942144,-0.00303273
0.0959804,-0.0206811
0.179438,-0.022112
0.0107734,-0.0202021
-0.363014,-0.0241962
-0.303707,-0.0284923
0.0189517,-0.0132101
0.437667,-0.00706037
0.885224,-0.00899827
1.0885,0.00573323
0.562397,-0.021497
-0.325418,-0.066388
-1.04441,-0.024563
-1.09802,0.0236897
-0.533652,0.0212353
-0.0210392,0.018996
0.0920019,0.0151708
-0.0623054,0.0123075
-0.149139,0.0174018
-0.264979,-0.0245107
-0.181588,-0.04097
-0.0108897,-0.0155226
0.065626,-0.0174942
0.08795,-0.00501247
0.0840714,0.0393221
0.0909933,0.00338668
0.135911,-0.0351577
0.20022,0.0082623
0.227778,0.0304592
0.174676,0.0220916
0.0944234,0.0158906
-0.0264817,0.0257863
-0.070072,0.0254882
0.0660772,0.036009
0.0755181,0.0237464
-0.0430602,-0.0240998
-0.118137,-0.054784
-0.0672526,-0.0364877
0.102603,-0.00794857
0.116789,0.00410629
0.129116,0.00601351
0.360739,0.0107702
0.705396,0.00966041
0.529843,0.0130472
0.13625,0.015394
-0.466323,-0.00429744
-0.857708,-0.0845629
-0.573782,-0.060621
-0.375203,0.0194956
-0.25784,0.0281318
-0.104236,0.0201044
-0.0792911,0.0166173
-0.070306,0.0166155
0.0392757,0.0155591
0.16843,0.00385804
0.250781,-0.0129549
0.237865,-0.0129524
0.112445,-0.0248484
-0.0189499,-0.002778
-0.0719531,0.0231352
-0.00403733,0.0161226
-0.0865259,0.00542923
-0.14602,-0.00330834
-0.0214677,-0.00553078
0.180411,0.0108565
0.191146,-0.00350376
0.125617,-0.0251643
0.0729697,-0.00242148
0.102935,0.0130703
0.218175,0.00212942
0.15903,-0.0117513
-0.0534994,-0.0136997
-0.311062,0.00199278
-0.389663,0.0106924
-0.281381,-0.00304421
-0.179438,0.00551869
-0.0808819,0.0171995
0.0631686,0.00170091
0.14259,-0.00490339
0.136191,0.0104878
0.0821439,-0.00231519
0.0293707,-0.013287
0.120014,0.00478676
0.18509,-0.00414897
0.164202,-0.023321
0.0975811,-0.00769994
-0.0915101,-0.00187339
-0.110035,-0.00667516
-0.0706475,-0.0044117
-0.166991,0.00737615
-0.164611,0.0102619
-0.148108,0.00892172
0.00591353,0.0114344
0.151002,0.00120874
0.131688,-0.0129686
0.104242,-0.00718091
0.0479113,0.00524326
-0.032504,-0.00347305
-0.0841878,-0.00502416
-0.0850545,0.00151857
-0.0138315,-0.00052067
-0.0187038,0.0121783
0.0449165,0.0288945
0.141361,0.0356095
0.177319,0.0329433
-0.0675002,0.0119753
-0.268001,0.0118079
-0.0592622,0.00892195
0.101908,-0.0362731
0.0571998,-0.0419759
0.0726135,-0.0329142
0.112861,-0.0214589
0.152117,-0.0280295
0.0986854,-0.00602588
-0.11807,0.021232
-0.222301,0.0187312
-0.117751,0.00419278
-0.066703,0.00152515
-0.153343,-6.48e-05
-0.13509,-0.0031461
-0.0587426,-0.0160903
0.0174504,-0.00697425
0.162674,0.0141161
0.245517,0.010967
0.140595,0.0149931
-0.0529831,0.0225581
-0.241521,0.0152227
-0.176843,-0.00534144
0.0514995,-0.0118929
0.18471,-0.00577503
0.16815,-0.00226898
0.0564241,0.00406114
-0.0281383,0.00192331
-0.0761737,-0.00415888
0.0410447,-0.0113499
0.104156,-0.00392529
0.0545639,0.0048131
-0.0235283,0.0033346
-0.0673932,0.00476923
-0.182862,0.00828809
-0.175891,0.0151695
-0.0120387,0.0141819
0.0341165,0.00302276
0.0240287,0.0066115
-0.0192816,-0.0042962
0.04552,-0.0389158
0.199708,-0.073695
0.240029,-0.0100839
0.105618,0.0256775
0.0361411,0.0157955
0.0179684,0.0160959
0.0496765,0.0155201
0.128626,0.00566419
-0.128809,0.00160213
-0.489382,0.00423457
-0.375378,-0.0160823
-0.18777,-0.00196624
-0.0850085,0.00303196
0.00478602,-0.0324804
0.178575,-0.0479235
0.240854,-0.0159485
0.207658,0.00438661
0.0713157,0.0227026
-0.183264,0.025191
-0.12752,0.0198098
-0.00665736,0.013861
0.131547,0.0122659
0.284756,0.0209129
0.234353,0.00740583
0.130652,-0.0100351
0.091572,-0.000970179
-0.0790694,-0.00168624
-0.415214,0.00183384
-0.341287,-0.0072172
-0.297781,0.00845683
-0.109596,-0.00662175
0.256173,-0.0307421
0.384999,-0.00519002
0.222919,0.0102675
0.0113393,0.00706789
0.0274971,0.0358117
0.013609,0.0355204
-0.299074,-0.053683
-0.35825,-0.0925955
-0.124392,0.00112329
0.0261976,0.0253503
0.0403197,0.00734014
0.112686,-0.00227844
0.395658,0.00092902
0.454252,0.01904
0.199463,0.0383092
-0.156431,0.0309831
-0.405135,0.00656154
-0.323929,0.00321119
0.02095,-0.00630192
0.169068,-0.0153173
0.0600552,-0.0184184
-0.0269706,-0.0282599
-0.0365593,-0.0377783
-0.0772964,-0.0102201
-0.132776,0.00392404
-0.19599,-0.00711452
-0.15089,0.0313238
-0.0375348,0.0298865
0.0609395,0.00719521
0.109135,0.00407824
0.103633,0.00857879
0.0796012,0.00247125
0.117661,0.0117503
0.204684,0.0173508
0.123792,0.000505058
-0.0606054,-0.0105348
-0.0877631,-0.0111083
-0.0154647,0.00235154
0.0340296,0.0031901
0.0145639,-0.00360412
-0.063055,-0.00468564
-0.0492613,-0.0138703
0.0601214,-0.0121582
0.111823,-0.00654182
0.162678,-0.00962789
0.107687,-0.0151358
-0.0796439,-0.0127935
-0.15826,-0.0122807
-0.170349,-0.00365456
-0.128739,0.0152557
-0.105873,0.026221
-0.0168701,0.0214079
0.0599911,0.0115639
0.0137267,0.00166591
-0.108829,0.00215419
-0.106515,0.0108747
-0.000371012,0.0148541
0.0487366,0.00381565
0.0154044,-0.0116902
-0.033119,-0.0157507
0.0281613,-0.0191284
0.189544,-0.0150926
0.204989,-0.00428179
0.0793399,0.00305007
-0.11887,0.00251855
-0.0868298,0.00235349
0.121791,0.00375133
0.410782,-0.00100148
0.452139,-0.0104137
0.183379,-0.019385
-0.263165,-0.00648414
-0.416836,0.00972557
0.159881,-0.0179043
0.717864,-0.00828987
0.51432,0.0109311
-0.0177994,-0.000781121
-0.697333,-0.0018523
-1.21583,0.00285037
-0.839681,0.00102051
-0.398684,0.00167349
-0.112296,-0.00454611
0.0462489,-0.0031064
0.121566,0.0141917
0.125743,0.000774815
0.0884345,-0.0251093
0.0957273,-0.0167278
0.0992146,0.0395652
0.0753459,0.0489199
0.051361,0.0109929
0.0219217,0.0131076
0.0519651,0.0239374
0.1416,-0.000934406
0.14049,0.00347439
0.146272,0.0133272
0.191578,0.00628236
0.165218,-0.0202374
0.153391,-0.0369879
0.124219,-0.0241329
0.0138478,-0.00622081
-0.0285821,0.00355025
-0.04049,0.00636278
-0.117406,0.00676884
-0.0906542,0.00363398
-0.0489971,0.0214134
-0.0741278,0.0176839
-0.0546444,0.00195241
0.0118134,-0.00203367
0.0212685,-0.000912041
0.0339912,-0.0134095
0.0184487,-0.018385
-0.053982,-0.00782905
-0.0481975,-0.000737254
0.0151293,-0.00949078
0.0425028,-0.00603888
0.0888309,0.00734761
0.262444,0.0108463
0.344654,0.0199276
0.168297,0.0211561
-0.110773,0.0111155
-0.2129,0.00787381
-0.268226,-0.00322406
-0.206703,-0.00724634
-0.161446,-0.0101123
-0.176268,-0.0581237
-0.0957258,-0.0861387
-0.00747405,-0.0321803
0.00716001,0.0153257
0.0433506,0.0251788
0.0833378,0.0174289
0.129894,0.0232666
0.124542,0.0245937
0.0477423,0.00675647
-0.118397,0.00535878
-0.224085,0.0156451
-0.0252882,0.0121476
0.18343,-0.00119512
0.196852,-0.0019184
0.140625,-0.000148921
0.112469,0.00529939
0.0600608,0.0105192
-0.0262451,0.0136519
-0.183468,0.0159483
-0.281523,0.00157026
-0.191986,-0.0136911
-0.0966289,-0.00130691
-0.0186058,-0.00226894
0.015661,-0.012108
-0.0304831,-0.0512597
0.0226049,-0.0579511
0.383385,-0.0048136
0.674801,0.0198518
0.581673,0.00836919
0.100438,0.0087596
-0.56002,0.0189407
-0.730586,0.0157203
-0.516122,-0.00426732
-0.193599,-0.00462865
0.0232769,0.0121398
0.0854106,0.0189391
0.0708936,0.00728909
0.0356957,-0.00587901
0.00595084,-0.0188488
0.0139375,-0.018479
0.0352657,-0.00513979
0.0516893,-0.00425847
0.0262461,-0.0104352
0.107779,-0.00566284
0.205251,1.06e-05
0.137476,-0.00347609
-0.0966326,-0.00335872
-0.197073,0.00450118
0.0709847,0.00391045
0.086299,0.0144719
0.115861,0.0202301
0.224283,0.0147615
0.18502,0.00908501
0.0364802,0.00612879
-0.282644,-8.37e-05
-0.337528,-0.00118797
-0.229051,-0.00896992
-0.081821,-0.0224989
0.056655,-0.012237
0.0515965,0.0077318
-0.0314835,0.0108521
-0.0525676,0.0117403
-0.0413797,0.0171325
0.0112577,0.0289156
0.117769,0.0178594
0.172869,-0.00866542
0.0970616,-0.0272044
-0.0859829,-0.0117994
-0.0112519,-0.0137396
0.340617,-0.0260381
0.513463,-0.0170704
0.418295,-0.0112156
0.0111653,-0.00588138
-0.521427,0.00742343
-0.503742,0.00794223
-0.201172,0.00566267
-0.0657238,0.0160036
-0.0428452,0.0231845
-0.0785527,0.0213986
-0.0977473,0.0046951
-0.047876,0.000862977
-0.0261738,-0.00501115
-0.0753972,0.00170932
-0.0752549,0.02072
0.0116873,-0.000302024
0.0920766,-0.0156462
0.125943,-0.0180041
0.108196,-0.013667
0.119039,-0.00754015
0.138214,0.0121949
0.146509,0.0374934
0.105351,0.0330602
0.0254567,-0.00339922
-0.0297906,-0.0156745
-0.120963,-0.013246
-0.227351,-0.0185087
-0.214842,-0.0188491
-0.0951167,-0.00470491
-0.00552831,0.0100565
0.0589494,-0.0122573
0.086637,-0.0547502
0.133485,-0.0562038
0.216921,-0.0319039
0.308974,0.0301742
0.321888,0.0356002
0.178432,0.0180714
-0.192679,0.0154389
-0.35635,0.0222414
-0.255672,0.0188988
-0.116575,-6.35e-05
-0.0620905,0.0010657
-0.0999595,0.0160625
-0.0616598,0.0144664
0.00568031,-0.00290492
-0.080739,-0.0125159
-0.165182,-0.0620213
-0.102253,-0.0533982
-0.029566,0.0281662
0.048177,0.0559893
0.145702,0.0459759
0.0752715,0.0273101
-0.0148711,0.00676033
0.141258,0.00737934
0.232033,0.00823241
0.168403,-0.0117738
-0.0698736,-0.0628675
-0.250581,-0.0200849
-0.192696,0.0556316
-0.059093,0.00899856
0.0881151,-0.0381215
0.320938,-0.0330154
0.425442,-0.00501808
0.352931,0.00645017
0.226571,0.00475891
-0.139674,0.00791286
-0.353315,0.0106357
-0.405029,0.0093735
-0.383997,0.00807477
-0.208114,0.00467842
-0.106866,-0.00845822
-0.0806477,0.00113639
-0.0320296,0.0104618
-0.00691272,0.0253951
0.00298728,0.0367225
0.052991,0.00113255
0.13533,-0.036383
0.193198,-0.0884512
0.119684,-0.0795404
-0.046432,-0.0135161
0.0412728,0.0310554
0.19428,0.126432
0.16082,0.0812465
-0.0865603,-0.0308953
-0.0481892,-0.0795046
0.364076,-0.063501
0.459239,-0.0334422
0.304221,-0.00286787
-0.0943651,0.0163692
-0.43898,0.0424441
-0.491778,0.0442142
-0.378799,0.0230423
-0.0917582,0.0211945
0.0839287,-0.000108131
0.0752665,-0.022921
-0.131451,0.0661249
-0.308777,0.0339858
-0.247492,-0.0351413
-0.121511,-0.0290145
0.0690544,-0.0135292
0.131343,-0.0344755
0.0658286,-0.0517762
0.0501647,-0.0357069
0.17521,-0.0032552
0.366514,0.0294141
0.375587,0.041928
0.113149,0.0217886
-0.0847634,-0.0210619
-0.0728224,-0.0163789
0.0824808,0.00476471
0.223858,-0.00406261
0.166401,-0.0523089
0.10451,-0.00892431
-0.202694,0.00121882
-0.570544,0.0065294
-0.467674,0.00273971
-0.220063,-0.000609204
-0.0207282,0.00731725
0.2993,0.000910547
0.601353,-0.0118842
0.602931,-0.00539845
0.192487,0.0133921
-0.523239,0.0359067
-0.764028,0.0373322
-0.3898,0.0549083
-0.11442,0.0392271
0.00399554,-0.0327966
0.205604,-0.0478816
0.425073,-0.0197112
0.504297,-0.00243788
0.201917,0.000205426
-0.30786,0.00430152
-0.418187,0.00715611
-0.281159,-0.00664947
0.0647697,-0.0183348
0.39539,-0.0215059
0.561035,-0.0475638
0.509496,-0.0529129
0.190152,-0.00146843
-0.0594679,0.0633962
-0.513398,0.0683961
-0.725685,0.0230114
-0.48297,-0.0261204
-0.276246,0.00595745
-0.0984173,0.0469649
0.0157948,0.0439125
0.0178707,-0.0137684
-0.0389671,-0.0534185
0.153948,-0.0164606
0.41065,0.028815
0.508319,0.00472871
0.38329,-0.0145016
-0.11524,-0.0167803
-0.231162,-0.00854367
-0.327811,0.0219242
-0.515459,0.0457868
-0.163492,0.0319464
0.275858,0.0577299
0.327875,0.0416147
0.184294,0.00159587
-0.0247798,-0.0476996
-0.0521152,-0.0761671
-0.101597,-0.0803593
-0.0690883,-0.0441049
-0.00652585,-0.0182859
0.0967708,-0.0176728
0.155743,-0.00513817
0.0377058,0.0142147
-0.0012529,0.0129221
-0.0455848,0.00133106
-0.110513,0.022796
-0.106885,0.0438225
-0.0440763,0.0125137
0.0249783,-0.0227644
0.123307,-0.051099
0.191443,-0.0137696
0.180144,0.00740372
0.183239,0.0308263
0.176059,-0.00866775
0.0165749,-0.0567306
-0.16435,0.0559899
-0.256843,0.0623842
-0.256277,0.0256278
-0.121755,0.0285752
-0.0726909,-0.0092923
-0.132336,-6.98e-05
-0.0498177,0.0117874
0.173675,-0.0357896
0.304706,-0.0346099
0.258421,-0.00299177
0.00598996,0.00903288
-0.179962,0.028679
-0.263651,0.0328715
-0.186129,0.0227905
0.0857511,-0.00841731
0.257416,-0.0217973
0.180443,-0.0185127
-0.05346,-0.0113237
-0.0962806,-0.0376935
-0.144364,-0.0781076
-0.236118,-0.0311391
-0.0798793,0.0681795
0.127022,0.0206309
0.119873,-0.0186529
-0.109873,0.0122155
-0.274014,0.0630006
-0.0894019,0.0907004
0.201687,0.0601406
0.228179,-0.0561552
0.123961,-0.10409
0.178278,-0.0743883
0.279796,-0.0332876
0.166752,-0.00638851
0.0494625,0.0138658
0.0510721,0.0339528
0.149407,0.0237478
0.0811254,0.00619602
-0.195706,-0.000787695
-0.482659,-0.106801
-0.444675,-0.0586384
-0.132546,0.0496794
-0.135756,0.0344584
-0.171032,0.0127709
0.114377,0.0129221
0.287108,0.0113632
0.233096,-0.00873881
0.060395,-0.00122782
-0.240571,-0.00151366
-0.152206,-0.0154517
0.22786,-0.0105849
0.30569,0.0441771
0.177804,0.069025
-0.0104059,0.0301248
0.0177793,0.0375172
-0.0969567,0.0211293
-0.270415,-0.00140329
-0.278793,-0.0258863
-0.202625,-0.0282048
-0.0277375,-0.0192695
0.063179,-0.010123
0.105251,-0.0173678
0.0648759,-0.0233432
0.0327483,-0.00993909
0.067344,0.00569832
0.0767736,0.00132553
0.0646423,0.00821513
-0.0626851,0.0425383
-0.184492,0.0396441
-0.0167486,0.0194716
0.125712,-0.0442109
-0.0372534,-0.0260026
-0.145163,0.0105828
-0.0572959,0.0164245
-0.0711279,0.00792181
-0.066344,0.00163732
0.0573191,0.000251551
0.134238,-0.0248894
0.221287,-0.0839063
0.334949,-0.066844
0.297715,0.0173186
0.0743901,0.0784723
-0.0927474,0.0365339
-0.237611,0.00135242
-0.246404,-0.00941838
0.107879,-0.00908831
0.433244,-0.0196343
0.404766,-0.0413428
0.0581071,0.00881287
-0.525807,0.00696676
-0.61792,0.0261029
-0.319777,0.01378
-0.102759,0.01282
0.15025,0.0399967
0.272838,0.00775424
0.0959873,-0.0547964
-0.139115,-0.0343572
0.164837,0.0253755
0.757316,0.0272578
0.877755,0.0208438
0.253213,0.0254223
-0.795595,0.0216864
-0.948975,0.0400856
-0.387456,0.0404028
-0.112678,-0.00811984
-0.00553919,-0.045069
-0.17095,-0.0548358
-0.363461,-0.0526567
-0.137637,-0.0224501
0.057185,-0.000675263
0.182714,0.0102617
0.217617,0.0370244
0.00577439,0.00262252
-0.257892,-0.0349499
-0.173475,-0.0225109
0.0334067,-0.00822958
0.274941,-0.00339474
0.420004,-0.0273285
0.323926,-0.0357023
0.0130958,-0.0373981
-0.160572,-0.00545985
0.00594483,-0.00577427
0.598508,-0.00559705
0.919202,-0.0278129
0.771628,-0.000762163
0.476384,0.0940114
-0.120268,0.128844
-0.629419,0.0272973
-0.948664,-0.0246341
-1.1207,-0.0253461
-0.685445,-0.000192323
-0.185999,0.0315112
0.175451,0.0642968
0.293229,0.0776217
0.273872,0.0581026
-0.0516829,-0.0220428
-0.326053,-0.0597888
-0.462319,-0.06758
-0.42326,-0.0694864
0.234595,-0.0545552
1.09295,-0.0385324
1.14779,0.0013062
0.482194,0.00206138
-0.578945,0.00087472
-1.04222,-0.00133632
-0.42985,-0.0125641
0.0787623,-0.00202532
0.150619,-0.0081916
0.0781439,-0.0288726
0.0608237,-0.0285368
0.148561,0.0322013
0.15429,0.0684167
0.121021,0.0502029
-0.0583923,0.00446732
-0.0936605,-0.00553456
-0.0468549,0.0249493
-0.1813,0.0421143
-0.2238,0.00183813
-0.132909,-0.0339657
-0.0318343,-0.0262851
0.0555945,-0.0046244
0.097949,0.00108078
0.0852933,0.0228404
0.00867534,0.0481196
-0.0498844,0.0176276
-0.0033501,0.013217
0.161626,0.0262633
0.235734,-0.0341469
0.0813219,-0.0186109
-0.117058,-0.025321
-0.188063,-0.00752831
-0.151109,-0.0424474
0.0207919,-0.0399223
0.196256,-0.00983293
0.292802,-0.00306248
0.244816,0.0467856
0.537208,0.000457032
1.02354,-0.0990265
1.27019,-0.0989412
0.856183,-0.0945118
-0.497144,-0.129176
-1.2355,0.012023
-1.33696,0.160844
-1.30215,0.233801
-0.936141,0.175045
-0.364814,0.0928716
0.361022,0.046458
0.844405,-0.0161603
0.526859,-0.0514686
-0.205849,-0.0449316
-0.400938,-0.091771
-0.375303,-0.126364
-0.17137,-0.0858859
0.284623,-0.0389519
0.477011,-0.0337688
0.164208,0.0254096
-0.133809,0.0699678
-0.306362,0.068652
-0.485451,0.0462028
-0.322698,-0.0316933
-0.0354885,-0.0192277
0.102373,0.0385525
0.149128,0.0222105
0.220345,0.00633968
0.253767,0.0120299
0.251704,-0.00536915
0.449956,-0.0947398
0.713255,-0.0977724
0.456624,-0.03278
0.0781471,0.0352464
-0.198617,0.136595
0.191142,0.139123
0.640768,0.0655781
0.195034,-0.0420514
-0.713996,-0.0708144
-1.01784,-0.0591219
-0.54541,-0.0548126
-0.188625,-0.0307893
-0.0909409,-0.00388586
0.0303476,0.0110889
-0.0123462,0.0141877
-0.0590487,0.0215475
0.0657467,0.0314759
0.179419,0.0297482
0.00281336,0.0301938
-0.275337,0.0310582
-0.381301,0.0231002
-0.260309,-0.0270461
-0.0875264,-0.0642822
0.00697529,0.00684345
0.184416,0.0240138
0.397269,0.00498321
0.453948,-0.0260942
0.367894,-0.0854061
0.224151,-0.0283626
0.163945,0.030417
0.1726,-0.018114
0.279059,-0.0381819
0.184718,0.018364
-0.116315,0.0277533
-0.564303,0.0229076
-0.595577,0.0276154
-0.303257,0.0196431
-0.128489,0.00267313
-0.0250208,0.0060982
0.0384172,-0.0243719
0.115786,-0.0297437
0.193815,-0.0295201
0.172404,-0.00881044
0.0658018,0.0567679
-0.0140037,0.0669454
0.000290521,0.049614
0.069445,-0.0103396
0.123455,-0.0564242
0.0443536,-0.0621292
-0.067832,-0.0402648
-0.0494968,0.0299064
-0.0819342,0.0681287
-0.0844055,-0.000398888
0.0902052,-0.0320855
0.174836,-0.0401203
0.193503,-0.0538559
0.0346178,-0.0317598
0.0378688,-0.0230359
0.126404,-0.0233924
0.0999961,0.00536495
-0.0710367,0.0956747
-0.271007,0.100026
-0.29641,0.0179036
-0.137762,-0.0495419
-0.0250611,-0.0750133
-0.112026,-0.0279539
-0.194506,0.0301246
-0.134472,0.0646068
-0.0919709,0.0515791
0.156345,0.0157498
0.540335,0.0062092
0.535831,0.0367448
0.310052,0.00397706
-0.0765356,-0.0858591
-0.425101,-0.0885027
-0.449515,-0.0240962
-0.196335,0.0162718
0.0630446,0.070562
0.253934,0.0161858
0.202492,-0.0572389
-0.0984355,-0.0157953
-0.248686,-0.0645569
-0.273944,-0.093897
-0.251978,-0.0151974
-0.223868,0.0399987
-0.130659,0.064397
0.0342227,0.085173
-0.0278846,0.0791212
-0.00267396,0.0206427
0.31012,0.0039581
0.50784,0.0419594
0.433057,0.0122851
0.0392641,-0.0411524
-0.243335,-0.00938469
-0.232808,0.0119456
-0.11738,0.00348266
-0.0287216,0.0104758
0.00196994,0.00893092
0.0294062,-0.0140213
0.00441841,-0.0200302
-0.105519,-0.0125625
-0.0847997,-0.0194117
0.393079,-0.0255969
0.77082,-0.0211754
0.693634,-0.0344885
0.0554684,-0.0156435
-0.515454,0.0163023
-0.408286,0.025513
-0.267049,0.0234583
-0.376661,0.0110343
-0.344439,0.00151075
-0.0377702,-0.00412756
0.109721,-0.00820978
0.105901,0.00340018
0.101196,-0.0122079
0.126972,-0.0597034
0.0859878,-0.0106056
-0.046675,0.0368202
-0.326014,0.00955619
-0.35282,0.0053462
-0.112588,-0.0288847
-0.0268361,-0.0315703
-0.0447496,0.0583072
-0.0460917,0.097627
0.0402392,0.086513
0.276157,0.0639902
0.538429,0.0225833
0.383375,-0.0996981
-0.0715091,-0.0816972
-0.0986838,-0.0243693
-0.042882,-0.0312907
0.00282842,-0.0393377
-0.0209597,-0.025291
-0.0635551,-0.00556733
-0.0862951,0.0109474
-0.0271769,0.0322526
0.170089,-0.0108225
0.326792,-0.0864098
0.243884,-0.0250388
-0.000926366,0.0280357
-0.157075,0.0148755
-0.073324,0.010553
0.164642,0.0165895
0.204531,0.0131889
-0.0632053,-0.0237436
-0.4173,-0.0542322
-0.483738,0.032817
-0.221812,0.0703806
0.102113,0.0864873
0.351344,0.094338
0.35321,0.0405566
0.0222433,-0.0456581
-0.517753,-0.0505375
-0.537772,-0.0364671
-0.204695,-0.0444981
0.0257935,-0.0181472
0.14446,0.000906763
0.135783,-0.0207034
0.0304231,-0.0194345
0.0161485,-0.00431918
0.0929726,-0.0160659
0.194687,-0.0242783
0.259939,0.00712551
0.205061,0.0239656
0.100255,0.0239842
-0.119416,0.0265724
-0.29462,0.0264311
-0.199156,0.0148219
-0.0712963,-0.000103823
-0.0420596,0.00929
-0.0678189,0.0190716
-0.0781172,0.0122916
-0.0315584,0.00689703
0.0502135,-0.0200483
0.127256,-0.0229706
0.147123,-0.00489152
0.0904755,-0.0179463
0.0403315,0.00195695
0.0496809,-0.00134016
0.0963374,-0.00462403
0.166956,0.0161767
0.13347,0.0260717
-0.0114922,0.00708137
-0.0739125,-0.0122133
-0.0150915,-0.054129
-0.0498983,-0.0433474
-0.188436,-0.0134726
-0.22156,-0.00058714
-0.159725,0.0337145
-0.0340513,0.0346227
0.14949,0.0166289
0.355206,-0.0203137
0.322689,-0.0259762
0.0463188,-0.0200453
-0.169832,-0.0198383
-0.12604,-0.0167684
0.142661,-0.00727494
0.18527,-0.0206483
-0.0715325,-0.0375435
-0.32078,0.0266177
-0.193455,0.0255823
0.0662489,0.00625805
-0.0190941,-0.000905171
-0.206257,0.018278
-0.26154,0.0522762
-0.205005,0.0321171
-0.0166498,0.00971693
0.182997,-0.00948575
0.179466,-0.0164175
0.0209218,0.00224668
0.0219593,-0.00650416
0.274359,-0.0351006
0.521043,-0.0212848
0.478045,0.0563902
0.0960141,0.0627079
-0.369378,0.00693067
-0.469038,-0.0338707
-0.415222,-0.0431622
-0.319979,-0.0294324
-0.132813,0.010201
0.0314194,0.0171452
0.0493487,0.0191313
-0.00794384,0.0253391
0.00603234,0.012777
0.0670053,-0.0202107
0.013861,-0.0432911
-0.0258162,-0.0202672
0.00972561,0.0222201
0.0617451,0.031086
0.060374,0.018231
0.0302605,0.00348144
0.0537681,0.000550208
0.109174,-0.0122954
0.100192,0.00803478
0.0217376,0.0106575
-0.0717279,-0.0202173
-0.066389,-0.0137242
0.0448697,0.018061
0.182321,0.0283174
0.228459,0.042286
0.147306,0.0331546
-0.0921964,0.00540372
-0.301223,-0.0114423
-0.138388,-0.000509682
0.0480882,0.0341931
0.0771529,0.0144298
0.0551918,-0.0300288
0.0269674,-0.052222
0.00991366,-0.0680094
-0.0527375,-0.050412
-0.100319,-0.0216021
-0.118917,-0.00790141
-0.0472495,0.0182752
0.0894936,0.00218598
0.145144,-0.0483567
0.0568405,-0.0305356
0.00370491,0.00282165
0.182921,-0.0267908
0.281333,0.0212505
0.357667,0.116844
0.401477,0.0176179
0.0851625,-0.0891613
-0.414186,-0.0206205
-0.697227,0.0584703
-0.595334,0.0631473
-0.349753,0.0371277
-0.120421,0.0139755
-0.0355457,-0.00757459
0.0756381,-0.0370684
0.201902,-0.0487909
0.17201,-0.0126965
0.05577,0.0040751
-0.0923681,-0.00604254
-0.174059,-0.0129079
-0.100469,-0.0220679
-0.00138092,-0.0264189
0.0427452,-0.0232846
0.0700015,-0.000423032
0.0453375,0.0420796
0.0271384,0.048572
0.0950172,0.0351805
0.279669,0.0413002
0.490197,0.0357607
0.53532,-0.00362048
0.3917,-0.0334809
0.127809,-0.0305749
-0.139319,0.00304446
-0.330824,-0.0124337
-0.511654,-0.0300154
-0.400166,-0.0382282
-0.332683,0.0114119
-0.287475,0.0183375
-0.117117,0.00830242
0.00922817,0.00193693
0.0445869,0.00125117
0.0618037,0.014568
0.123525,0.012715
0.155281,-0.0134139
0.11466,-0.0386537
-0.0105456,-0.0409739
-0.12309,-0.00874647
-0.05731,0.0351406
0.0390588,0.0184723
0.0510679,0.00161654
-0.00378375,0.0751337
0.0262717,0.074859
0.145186,0.0419692
0.202766,0.00778148
0.118842,-0.0626335
0.0253895,-0.0669479
-0.0639125,-0.035442
-0.129482,-0.0119152
-0.0950894,-0.0028391
-0.0270009,0.00168372
0.0371752,0.00575733
0.0651568,0.00818675
0.0681558,0.00819612
0.0718941,-0.0105802
0.0253201,0.00858644
-0.0638225,0.0288402
-0.141828,0.0246533
-0.184563,0.0096924
-0.0397727,-0.00566882
0.182446,-0.0146944
0.317399,-0.0359841
0.264487,-0.0334246
0.0920391,-0.0189704
-0.00972687,-0.0141727
-0.0913378,0.0260181
-0.138547,0.0673218
-0.192875,0.0723481
-0.21591,0.0396139
-0.152875,-0.031891
-0.147523,-0.0812269
-0.151461,-0.0906433
-0.102098,-0.0495405
0.093334,0.0036108
0.218225,0.0388841
0.18121,0.0618858
0.153679,0.0422424
0.042996,0.0182468
0.00883549,-0.00368944
-0.0830595,-0.0640657
-0.25125,-0.109116
-0.202576,-0.0444557
-0.108148,0.0325288
-0.0486817,0.0254075
0.0169992,0.0117677
0.0556824,0.00118447
0.128384,0.00692321
0.272367,0.0232883
0.316507,0.0257576
0.195466,0.0209019
-0.0852555,0.0198539
-0.137911,0.0166427
-0.00188807,0.00920704
0.129,-0.00548855
0.205295,-0.0401481
0.0092508,-0.0168165
-0.0530725,0.0073443
-0.175036,-0.00576178
-0.306044,-0.0261518
-0.162566,-0.0413054
-0.0996362,0.00653287
-0.150088,0.0281963
-0.119615,0.0204183
-0.0341126,0.0135624
-0.0348809,0.000301204
-0.0512666,0.00734017
-0.025207,0.0190373
0.0596848,0.022659
0.1376,0.0211795
0.0745083,0.0271945
0.0282406,0.0298618
0.183653,0.00987549
0.489106,0.00397343
0.865151,-0.0176255
0.740308,-0.0180661
0.0653632,0.0114105
-0.225228,-0.0367402
-0.563252,-0.00996805
-0.743796,0.00739026
-0.400334,-0.0336747
-0.240629,-0.0210731
-0.200588,-0.0263478
-0.0904213,-0.0357887
-0.0569997,0.0103246
-0.103577,0.0285826
-0.104975,0.0177192
-0.042641,0.0104555
-0.025449,0.00934188
-0.015323,0.00398429
0.0289199,-0.010765
0.138518,-0.0149505
0.232026,-0.0210261
0.193692,-0.0162923
0.0668457,0.0161272
-0.0293394,0.0228155
-0.000507191,0.0109195
0.0631361,0.00739747
0.0995828,-0.0131111
0.090432,0.0068695
-0.00788986,0.0137749
-0.0457068,0.018669
0.0406044,0.018887
0.140522,0.0253637
0.0595737,0.0314511
-0.103004,-0.0264912
-0.0565927,-0.0614862
0.140872,-0.0476585
0.185223,-0.0207089
0.0238092,-0.00668495
-0.250809,0.00302311
-0.219222,0.0156611
0.0993519,0.0040214
0.253808,0.000501068
0.23949,0.0236018
0.226501,0.0218457
0.127895,-0.0249475
-0.106357,-0.0183191
-0.322537,0.00337382
-0.352292,0.00983477
-0.0856947,0.0178658
0.133475,0.0303589
0.00351932,0.035814
-0.250358,0.0322115
-0.328063,-0.00304901
-0.242554,-0.019451
-0.0995346,-0.00140363
0.00682263,-0.0179712
0.0722423,-0.0449195
0.0770393,-0.0447447
0.0602189,-0.0418769
0.0464091,-0.0164144
0.0488351,-0.0433332
0.0520433,0.029872
0.094665,-0.0355912
0.151671,-0.0776644
0.141896,0.0193682
0.114632,0.0502412
0.0607176,0.0483045
0.028348,0.0230692
0.0457161,0.00219532
0.0625049,0.00440032
-0.0312425,0.00828762
-0.173351,0.00740226
-0.0687071,0.0290982
0.14991,0.0368542
0.206501,0.0243398
0.0865393,0.00735545
-0.135239,-0.017038
-0.279931,0.00956
-0.211785,0.0468586
-0.105552,0.0165865
-0.0556176,-0.0385157
-0.00448986,-0.0805388
0.0327452,-0.0183909
0.0790867,0.0380809
0.167255,0.039636
0.19124,0.00558184
0.138349,-0.00531623
-0.100727,-0.00773299
-0.307031,-0.0134869
-0.167265,-0.0120874
-0.0145866,0.00808043
0.177687,0.0601992
0.301506,0.0589386
0.189176,-0.00423021
0.00843907,-0.0541864
-0.12655,-0.0523144
-0.135697,-0.0357464
-0.0970486,-0.0526108
-0.163701,-0.000401479
-0.174092,0.02157
-0.0148716,0.0108057
-0.0134283,0.00298739
-0.163951,0.00028215
-0.146615,0.00891633
0.0452898,0.0222136
0.284967,0.0435719
0.347879,0.0348679
0.224448,-0.00230249
0.031686,-0.0207443
-0.12624,-0.0141877
-0.0870335,-0.0214618
-0.00806154,-0.0324944
0.0452939,-0.0157734
0.206671,0.0252406
0.420562,-0.0202118
0.358331,-0.0238156
-0.00600153,-0.000767662
-0.514485,0.00340554
-0.687141,-0.0276523
-0.407215,-0.039688
-0.129564,-0.00588494
0.0603601,0.0313626
0.153638,0.0526331
0.148119,0.0424932
0.0614731,-0.00153099
-0.0155113,-0.0255161
-0.0454236,-0.0152066
-0.112205,0.00853446
-0.0299122,0.0177061
0.0615777,0.0175757
0.0285136,0.0164905
0.00748675,0.0034018
0.142886,-0.0111782
0.245025,-0.0113597
0.217201,-0.00913418
0.0534036,-0.0116018
-0.196722,-0.00540675
-0.153719,0.00169621
0.122881,-0.00101205
0.198642,-0.0258149
-0.00781958,-0.00129246
-0.242527,-0.00357705
-0.103096,-0.0209686
0.151105,0.0130095
0.230241,0.0033496
0.127566,0.0203065
-0.0867099,-0.00166019
-0.2871,-0.0185281
-0.284397,0.0393083
-0.15348,0.0355505
-0.0395052,0.0021877
0.0278028,0.010524
0.0623383,0.0403972
0.0427876,0.03484
-0.0053711,-0.0137569
-0.0166532,-0.0706923
0.0322972,-0.040909
0.0768878,0.0038733
0.0754036,0.0169488
0.0667076,0.00943107
0.101247,-0.00461091
0.0991746,-0.00304784
0.0794777,-0.000421117
0.0606623,0.00122843
-0.0384052,0.00822967
-0.0674694,-0.0049534
0.0417182,0.00878343
0.129803,1.57e-05
0.0871994,-0.0435926
-0.0842754,-0.0343883
-0.291322,-0.00273423
-0.258847,0.0094757
-0.0590257,0.0140281
0.0492679,0.0116452
0.0500935,0.0104288
0.0141273,0.016257
0.0244381,0.00047646
0.0106297,-0.0377592
-0.00856162,-0.0237541
-0.0722977,0.0262245
-0.0924707,0.051331
0.103807,0.00218415
0.244883,-0.012892
0.212085,0.00812167
0.0116443,-0.00135757
-0.24009,-0.00700989
-0.205162,-0.00408222
-0.0684036,-0.000478753
-0.0346617,-0.00750769
-0.00925052,-0.00359543
0.0397164,0.0012919
0.0623597,7.02e-05
0.0389272,0.00257228
0.0172028,-0.00405914
-0.0418305,-0.00964677
-0.024729,0.0118126
0.067401,0.0330444
0.0662985,0.0428661
0.0304265,0.0295655
-0.0357779,-0.00770242
-0.118172,-0.0297253
-0.0352954,-0.00696011
0.0905317,-0.00670347
0.0687397,-0.0444862
0.0157896,-0.0582903
0.140503,-0.0138392
0.393431,0.0348086
0.463812,-0.0585133
0.377667,-0.0938613
-0.0647884,-0.0318128
-0.649048,0.0474447
-0.65567,0.0434439
-0.404566,0.0289712
-0.221443,0.039491
-0.0048036,0.0180312
0.165071,0.00176059
0.149591,0.000210527
0.11199,0.014786
-0.0259227,0.0326259
-0.0955979,0.0178361
0.040998,0.0145357
0.0146452,0.00679564
-0.106971,0.0344037
-0.0748625,0.057969
0.0192686,0.00571392
0.0451127,-0.0273666
0.0301583,-0.0286382
-0.0144333,-0.0306427
-0.00117501,-0.0427558
0.0400307,-0.029799
0.0563839,0.000339651
0.0668188,-0.00855874
0.12508,-0.0152817
0.111486,-0.0059219
0.0462751,-0.00262057
0.160107,-0.000650871
0.21687,0.00576305
0.196454,0.00227945
0.203771,-0.000512919
0.225145,-0.0287406
0.0873797,0.0122079
-0.374423,0.0348936
-0.646274,0.0100663
-0.466517,0.0191862
-0.20034,0.029063
-0.0393945,0.0135648
0.0101921,0.000138455
0.0468934,0.000805382
0.056471,-0.0106369
0.0475109,-0.0203168
0.00976925,-0.0143663
0.0585957,-0.0151123
0.205487,-0.0150687
0.235037,-0.0172244
0.148714,-0.0387216
-0.108664,-0.0339919
-0.297287,0.0206685
-0.135112,0.00519321
-0.00238611,-0.00716001
0.0953001,0.0221695
0.186843,0.0378572
0.223256,0.040108
0.217488,0.0513239
0.0976465,0.0468665
0.0275387,0.0274324
0.0540721,0.00326448
0.00801717,-0.0215955
-0.0372653,-0.0551037
-0.202976,-0.0295694
-0.338327,-0.016549
-0.227879,0.00298355
-0.181304,-0.00270327
-0.151508,-0.0227012
-0.0346283,-0.0101057
0.0318564,-0.0227851
0.0593766,-0.0467785
0.0779461,-0.00436428
0.0556223,0.0259622
0.0300478,0.0229955
0.0197181,0.0244447
0.0200884,0.02227
0.035679,-0.00273302
0.0717118,-0.00718405
0.0918394,-0.00190795
0.0678224,-0.00369546
0.0129365,0.00344789
-0.0291879,0.0176924
0.0216344,0.019039
0.0550572,0.0091679
0.0317831,0.0101191
-0.00497689,0.000609549
0.00684295,-0.00922806
0.0505413,0.00861933
0.0617331,0.0073848
0.00450141,-0.0150589
-0.03097,-0.0149041
-0.0747209,-0.00967984
-0.0752328,-0.0195614
0.0308715,-0.0155331
0.147023,-0.0212071
0.145506,-0.0206789
-0.0692641,-0.0155973
-0.295878,0.00316643
-0.311978,0.0126365
-0.217482,-0.0104168
-0.088021,0.00257615
0.0176671,0.00437389
0.127574,-0.0247864
0.403181,0.0186591
0.613057,0.0424223
0.427627,0.016425
-0.0558092,0.0169077
-0.353743,0.0193674
-0.208585,0.0131509
-0.0120873,-0.000487698
-0.0450141,-0.020321
-0.184759,-0.00731481
-0.121413,-0.00189863
-0.0558817,-0.0619233
-0.007334,-0.0279263
0.0471643,0.0159875
-0.0397282,-0.00446772
-0.140094,0.0218062
-0.144951,-0.00291204
-0.138315,0.00618687
-0.0769017,0.0249266
-0.0480168,-0.00245439
-0.0484053,-0.00223829
-0.015464,0.0149269
0.0256614,0.0108419
0.0515835,0.00839671
0.0237868,0.0125065
-0.00621639,0.00785696
0.0378316,0.00842429
0.153116,0.00125036
0.297746,0.000818037
0.408785,0.00839628
0.377361,0.0173092
0.2364,0.0436187
-0.0153455,0.0440353
-0.195126,0.0163039
-0.130365,-0.000345083
-0.0597495,-0.00383281
-0.0749139,-0.0469293
-0.187907,-0.0926431
-0.252721,-0.0729804
-0.0525681,-0.0614992
0.108959,-0.0209119
0.0631201,-0.000401192
-0.129697,-0.00101558
-0.33111,0.00804955
-0.222462,0.0086275
-0.0578504,0.00234972
0.0162081,0.0031232
0.0590543,0.010739
0.17033,0.0131175
0.237098,0.021391
0.186493,0.0240701
0.109878,0.0159779
0.00943741,0.0103913
-0.0806734,-0.000152413
-0.0761289,0.028849
0.0548826,0.0576965
0.19348,0.0374871
0.0601712,0.0191513
-0.209236,0.00896342
-0.257556,-0.0271353
-0.16292,-0.0447181
-0.0692183,-0.0374465
-0.0024992,-0.0209826
0.0326847,-0.015692
0.0178926,0.00467974
-0.0345204,0.0236638
-0.00566174,0.0122539
0.110295,-0.0023969
0.172622,-0.00416287
0.259748,-0.023192
0.39105,-0.0494186
0.44348,-0.0329112
0.276559,0.00966583
-0.137774,0.0278035
-0.467635,0.0065657
-0.493364,0.0194433
-0.23566,0.036445
-0.095652,0.00733469
-0.172386,-0.0609585
-0.160513,-0.0543555
-0.0472284,0.0247651
0.0052795,0.0234228
0.0590349,0.00188205
0.0958486,0.00769366
0.0829245,0.00312234
0.0379299,0.00299277
0.0137741,0.00905621
0.00532343,-0.000320703
-0.0565624,-0.00987039
-0.122446,0.00272578
-0.0845865,0.00384254
0.0141592,0.00119216
0.116503,-0.00178679
0.231945,0.0210412
0.429831,0.0249645
0.472793,0.0106166
0.246977,0.0102984
-0.136215,0.0169248
-0.476743,0.0170808
-0.275656,0.00580152
0.0648252,0.0125704
0.0812303,-0.000732868
-0.144002,-0.0236783
-0.276443,-0.0400236
-0.144841,-0.0685109
-0.0822051,-0.0326458
-0.0425031,0.00366345
0.026483,0.0141143
0.14197,0.0142376
0.191023,0.0126108
0.0997143,-0.00469452
0.00397212,0.00194961
-0.0716621,0.017405
-0.182581,0.0328872
-0.0909888,-0.000389626
0.101308,0.0055336
0.116789,0.00936243
-0.00777416,-0.00251565
-0.0535658,-0.023547
0.0737039,-0.0552183
0.0854451,-0.035159
-0.0170531,0.00933346
0.0528421,0.0132718
0.107297,0.0036728
0.088183,0.0191312
-0.0355001,0.0149785
-0.172354,0.00153369
-0.174995,-0.0205635
-0.0639986,0.00084537
0.0722956,0.0116611
0.174532,-0.0276982
0.210801,-0.00525072
0.0795355,0.0125626
-0.158717,0.027824
-0.243885,0.0436846
-0.145528,0.0252413
-0.0671013,-0.0251455
-0.0124109,-0.0700697
0.00596183,-0.0442099
-0.0136464,0.0206585
-0.0302494,0.0363899
-0.0218306,0.0185023
0.0165302,0.00614574
0.0432856,0.00320764
0.0393165,0.00691469
0.0243501,-0.00884932
0.0191949,0.00481599
0.0318964,0.0307284
0.0705172,-0.00500621
0.0716168,-0.034878
0.0111948,-0.0243128
-0.0277619,0.00212224
-0.0472724,-0.00745468
0.0317886,0.0120125
0.262773,0.00800173
0.348162,-0.00265327
0.238437,0.00739814
-0.0407689,0.0211669
-0.308687,0.0154972
-0.307896,0.0114889
-0.0879031,0.00367623
0.0919711,-0.00310026
0.15227,-0.0196321
0.182146,-0.036458
0.0600657,-0.0147494
-0.227706,0.00981457
-0.278208,0.0158176
-0.0823084,-0.0102667
-0.140145,-0.0402638
-0.234811,-0.0126916
-0.149311,0.0158508
-0.0533688,0.0232129
0.0177255,0.0140595
0.101554,0.00307312
0.177003,0.00630887
0.182964,0.0382321
0.15568,0.0623276
0.182014,0.0367841
0.208548,-0.00140928
0.0756791,-0.0167662
-0.165111,-0.0371021
-0.270075,-0.0394947
-0.205427,-0.0277589
-0.10519,0.0229513
-0.0383295,0.0193775
-0.000724713,-0.0214131
0.0298229,-0.0439576
0.0552841,-0.0452694
0.0283046,-0.0279592
-0.00852454,-0.0194992
0.0100928,0.0206243
0.0822663,0.00698163
0.114959,0.0180769
0.0675566,0.0105762
0.0311156,0.00103698
-0.0660792,0.00459548
-0.118424,0.0117366
-0.0366927,0.00449762
-0.0285596,0.0016952
-0.110897,0.0151842
-0.0664577,0.0231687
0.0909897,0.0221664
0.186888,0.0157644
0.284125,-0.00503273
0.319162,-0.0204668
0.18039,-0.0177171
-0.0424431,-0.0116189
-0.406613,-0.00641647
-0.451734,0.0154788
-0.210433,0.00549365
0.0169683,0.00109066
0.203961,0.00717602
0.208622,0.0124571
0.238733,-0.00325867
0.0790806,-0.0221525
-0.230541,-0.0126638
-0.250795,0.00663712
-0.104797,0.010003
-0.0471968,0.0067694
-0.0609502,0.0103599
-0.0171068,0.00846746
0.039445,-0.00595521
0.0287182,-0.0120462
0.0320017,-0.0189131
0.00661447,-0.00932966
-0.0871243,0.0332122
0.0330344,0.0289887
0.205856,-0.018587
0.190273,-0.0378028
0.147153,-0.0120498
0.189025,-0.0130346
0.169871,-0.0295724
-0.0455559,-0.00868629
-0.332415,0.0373943
-0.322253,0.0151278
-0.00901851,-0.00697737
0.188032,0.0123784
0.197708,0.00183746
0.0614612,-0.012434
-0.186624,-0.00570218
-0.308653,-0.00288387
-0.221731,0.00861824
-0.0711793,-0.00508154
0.000636438,0.0102556
-0.00776773,-0.000401826
-0.0353647,-0.0216057
0.0113121,-0.00326693
0.0979608,0.0311986
0.184071,-0.00986139
0.175794,-0.0263903
0.0502669,0.00126868
-0.0467126,0.0479853
0.0204173,0.0562207
0.293552,0.0226251
0.424602,-0.0115974
0.251779,-0.0254167
-0.0915902,-0.0373142
-0.291464,-0.029974
-0.25923,-0.00742466
-0.338998,0.00250495
-0.344182,0.00256647
-0.193731,-7.05e-05
-0.0747166,-0.00316865
-0.0180543,-0.00257724
0.0586457,0.00194284
0.114647,0.0171214
0.138236,0.0227718
0.188041,0.0113204
0.214255,-0.00543132
0.330556,-0.0037871
0.356483,0.00708838
0.179028,0.0119511
-0.255782,0.031872
-0.584141,0.0149996
-0.3729,-0.0224286
-0.171684,-0.0247448
-0.0803938,-0.0394015
0.0283327,-0.0300145
0.112688,-0.00453156
0.13567,-0.00822981
0.101878,-0.00673569
0.0478874,0.00471947
-0.0626802,0.0169344
-0.119394,0.0204219
-0.0446809,0.0217264
0.0147148,0.0302494
0.0632385,0.0256272
0.0849426,0.00527626
0.0642175,-0.036517
0.0376886,-0.0637983
0.0396934,-0.0196732
0.0246639,0.0033235
-0.0915833,0.0126552
-0.122995,0.0343193
0.0494229,0.0436316
0.229388,0.00176482
0.298613,-0.0307182
0.205175,-0.0165154
0.0504314,-0.00365111
-0.12215,-0.00054394
-0.174323,0.0178427
-0.138256,0.0196076
-0.169217,0.000725862
-0.136802,-0.0168246
-0.0710323,-0.00138071
-0.0303853,0.0201825
-0.0542098,0.00508939
-0.0850439,-0.016805
-0.066049,-0.0145666
-0.0213712,-0.00153117
0.0468695,0.0126407
0.0691801,0.015255
0.0965419,-0.0133783
0.188946,0.0218499
0.309723,0.0845777
0.25875,0.0226676
-0.0444841,-0.0672923
-0.294893,-0.0604435
-0.312683,-0.0191551
-0.229903,-0.0352132
-0.0977799,-0.0478163
0.0203499,-0.0446009
0.0572262,-0.0297555
0.0177251,0.0168278
-0.0355922,0.0251761
0.0138303,0.00566406
0.240927,0.0168494
0.56182,0.0164226
0.646897,-0.00522709
0.282572,-0.00289869
-0.170964,-0.000507218
-0.406685,0.00534179
-0.416328,0.0132156
-0.348109,0.021928
-0.322119,0.0235924
-0.179739,0.02463
0.0889181,0.0218453
0.243278,0.0228367
0.180123,0.0133265
-0.00997037,0.00764188
-0.263476,-0.00143872
-0.283298,-0.00362675
-0.053859,-0.0115485
0.143667,-0.00776838
0.178317,-0.000732985
0.111099,0.00145911
0.199162,-0.0016514
0.346036,-0.0183088
0.404791,-0.0273403
0.210533,-0.00260704
-0.300064,0.00647767
-0.591533,-0.0125396
-0.435846,-0.0239514
-0.242553,-0.0264027
-0.0953754,-0.00236085
0.0216912,0.0415432
0.151473,0.0359119
0.316234,-0.000506883
0.192198,-0.000683187
-0.077232,-0.00946236
-0.189465,-0.0224236
-0.238189,0.00863637
-0.156332,0.0642482
-0.0609932,0.0163165
-0.0135053,-0.0331618
0.0944566,-0.0376156
0.329468,-0.0249631
0.447892,-0.0118258
0.34349,0.00284739
-0.00838621,0.0117339
-0.231058,0.0152729
-0.0588234,0.0145967
0.0753296,0.0162937
0.0565694,0.00280762
-0.121917,-0.0138034
-0.2034,0.00592202
-0.0386632,0.00918146
0.0783106,-0.00102415
0.0308222,-0.00902499
-0.163533,-0.00725989
-0.0854713,0.00120353
-0.0142629,0.008645
-0.0585031,-0.00618786
0.0243233,-0.0173376
0.285493,-0.0279023
0.339742,0.00157608
0.163549,0.0191137
-0.108554,0.0260264
-0.256735,0.033498
-0.184578,0.0206533
-0.0964908,0.00103922
-0.0305397,-0.00929197
0.00557517,-0.0168556
-0.0231303,-0.025647
-0.0527056,-0.0445202
-0.00103635,-0.0724241
0.0598039,-0.0812421
0.0672916,0.0173733
0.0125434,0.0576548
-0.0734799,0.0410685
-0.0747891,0.011396
-0.0396733,-0.00474219
-0.0113446,0.0307927
-0.00465317,0.0239005
-0.00187439,0.00437095
0.00864637,-0.00998416
0.00800054,0.0113701
0.0342796,0.0250954
0.103276,0.0308326
0.153936,0.0310805
0.252713,-0.0136563
0.228654,-0.0522786
0.0399379,-0.0432969
-0.191126,-0.038767
-0.321008,-0.0308521
-0.155505,0.00748325
0.0875038,0.0305116
0.265231,0.0234242
0.192882,0.0180859
-0.0520391,0.00981356
-0.240338,-0.0122717
-0.289738,-0.0191045
-0.141021,0.0128709
0.0249772,0.0189811
0.117087,0.0108781
0.138147,0.00750732
0.0458026,-0.0080475
-0.130554,-0.0129803
-0.181862,0.00247135
-0.065184,0.019187
-0.0153707,0.0131178
-0.0503066,0.00709852
-0.0897095,-0.00483853
-0.0289188,-0.00905789
0.0461933,0.00350453
0.048791,0.00942545
0.050795,0.00476675
0.0458545,0.0103665
0.0443903,-4.83e-05
0.0829707,-0.013246
0.11751,-0.0199863
0.0794325,-0.0113588
0.0218247,0.00902801
0.129599,0.0178132
0.288387,0.0341384
0.3022,0.0386124
0.0585245,0.00129746
-0.337638,-0.0143637
-0.418872,-0.0247969
-0.260951,-0.0508626
-0.2671,-0.0715069
-0.131857,-0.0527667
0.142603,-0.0230836
0.311319,-0.0592804
0.32869,-0.00322461
0.174473,0.019071
-0.0602174,-0.000212817
-0.0684396,0.0311792
0.0555954,0.0419534
0.00197455,0.0222074
-0.0622553,0.00345085
-0.109611,0.000740428
-0.206429,0.00820451
-0.137087,0.0121005
0.0257255,0.0277308
0.116809,0.0393692
0.0269289,0.0400371
-0.144379,0.0339411
-0.0980026,0.0168574
-0.0190311,-0.00158241
0.0860165,-0.000252269
0.206083,0.00549573
0.170356,-0.0205108
0.0704812,-0.0319285
-0.0818178,-0.021333
-0.219085,-0.0248814
-0.179898,-0.0142917
-0.134579,-0.000705026
-0.102682,-0.0211681
-0.0424493,-0.040427
0.010894,-0.0270022
0.0412023,0.0113416
0.0402253,0.0432135
0.0383169,0.0521386
0.069459,0.046878
0.0955589,0.0162356
0.0849556,-0.00899477
0.0117915,-0.00724785
0.03419,-0.0169861
0.279413,-0.025301
0.581298,-0.0149129
0.581823,0.0111146
0.270114,0.00137943
-0.182714,0.0255756
-0.413143,0.00828427
-0.397864,-0.022454
-0.291029,-0.0393456
-0.295593,-0.0583896
-0.315196,-0.0634025
-0.160225,-0.0415775
-0.0686256,0.0348306
0.0394407,0.0505567
0.0665546,0.0138714
0.0327324,0.0173868
0.0528642,0.00301662
0.0591905,0.00428933
-0.0244981,0.00133498
-0.0807762,-0.00797469
-0.0326276,0.0140527
0.0345032,0.0278642
0.0703766,0.012491
0.0313963,0.010275
-0.0658912,-0.00485207
-0.0964953,-0.00261264
0.0281883,0.00467317
0.13479,0.00128046
0.202971,0.020601
0.264744,0.0137985
0.203809,-0.019608
0.0608765,0.0164083
-0.066802,0.0224877
-0.134996,0.00131761
-0.0781871,-0.00278844
0.0220528,-0.00305837
0.0263367,-0.000784633
-0.0353254,-0.00450925
-0.00970752,-0.0178121
0.0418875,-0.0280412
0.0275759,-0.00541554
-0.0404176,0.0347671
-0.107386,0.0398621
-0.171969,0.0248738
-0.124666,0.018468
-0.0606918,-0.0121106
-0.0306937,-0.0224485
0.0619008,-0.0327465
0.177479,-0.0380578
0.129942,-0.0440037
-0.000866402,-0.0633673
-0.197614,-0.0353028
-0.26012,0.000414849
-0.0238173,-0.000944444
0.166141,0.00829728
0.164336,0.0196994
-0.00080872,0.0248064
-0.109747,0.0109743
-0.069134,0.0123485
0.00954077,0.020889
0.0600667,0.0241774
0.0188335,0.0203744
-0.0134429,0.00948636
0.0109243,-0.00209577
0.0279198,-0.000829966
-0.00722942,0.000494484
-0.0148711,-0.028067
0.0811638,-0.0149633
0.239817,0.0101144
0.302154,0.0038238
0.144925,0.0178024
-0.0403268,0.0268742
-0.169767,0.00141379
-0.228321,-0.0148121
-0.170719,-0.00886655
-0.214122,-0.0039379
-0.100152,-0.00147462
0.144061,-0.00344227
0.260064,0.0007229
0.336467,0.0198173
0.332568,0.0327604
0.166754,0.00539467
-0.141966,-0.0169804
-0.528808,-0.0551597
-0.55722,-0.042283
-0.288912,0.0198245
-0.109572,0.0217675
0.0359164,0.0189511
0.0974593,0.018686
0.102756,0.0126878
0.0143623,-0.00261785
-0.0757771,-0.0143658
-0.0334628,-0.0289497
0.0281409,-0.0228544
0.0665122,0.00208853
0.0741006,0.01376
0.0823281,0.0049243
0.138451,-0.00365606
0.181221,-0.0107596
0.194195,-0.0163158
0.164719,-0.00420194
0.14153,0.0192326
0.196966,0.012257
0.13866,0.0163234
-0.0502447,0.0125899
-0.268395,-0.00820427
-0.284852,0.0131397
-0.146385,-0.00341618
-0.0934502,-0.00541401
-0.111522,-0.0161535
-0.121115,0.0019382
-0.093809,0.0186056
-0.0700282,0.00797076
-0.0658263,0.00434295
-0.0304531,0.000948653
0.00355052,-0.00767865
0.0212652,-0.00893071
0.00196272,0.00208519
-0.0244738,-0.00731141
-0.0223337,-0.0802035
0.0575381,-0.124792
0.279315,-0.00735091
0.455466,0.0858316
0.661915,0.0483068
0.488342,0.013608
-0.11994,0.0289686
-0.531129,0.00637627
-0.62563,-0.0246241
-0.288753,0.0232365
-0.0304156,0.01986
0.0271066,-0.00327761
-0.0224507,-0.0106365
-0.154871,0.00637607
-0.187646,0.00897729
-0.130451,-0.00420072
-0.0884325,0.000415085
-0.0252555,0.0187348
0.0754972,0.0147513
0.225213,-0.0159403
0.339763,-0.0204944
0.280848,-0.0270906
0.145453,0.0237444
0.0451963,-0.0043508
0.0978301,0.00875756
0.109148,0.0307987
-0.0203957,0.012013
-0.0775688,0.00598216
-0.0828734,0.0192219
-0.0615682,0.0287523
-0.123242,0.0121269
-0.182087,-0.0166229
-0.182741,-0.0328687
-0.19291,-0.0286458
-0.121982,-0.0114855
-0.00315299,0.00028548
0.0758763,0.0106615
0.10898,-0.00082029
0.0317995,-0.0242299
-0.0709256,-0.0270399
-0.058307,-0.00804144
0.0823797,0.0108643
0.108738,0.0351788
0.0559147,0.0265373
0.00450581,0.00118734
0.0575167,-0.0120328
0.122931,-0.0191736
0.116866,-0.0205035
0.0246708,-0.00394463
-0.106291,0.0147787
-0.140178,0.0196753
-0.0776954,0.0205094
-0.00567409,0.0108124
0.0336589,0.00392475
0.0260891,-0.0178572
0.0381101,-0.0252115
0.0940553,-0.0137173
0.0706461,-0.0330154
-0.00950779,-0.0201106
-0.0883265,0.0111936
-0.0778171,0.0271042
-0.00976978,0.0283675
0.0316196,0.0167416
0.0310778,-0.0365392
-0.0195916,-0.0478184
-0.0509442,-0.0176357
-0.0327141,0.0126714
-0.00141181,0.0388788
0.0142215,0.0434934
0.0469911,0.0241581
0.0774675,-0.00631134
-0.0124755,-0.0274848
-0.000537118,-0.0245156
0.259458,-0.0125901
0.345739,-0.0127174
0.149857,-0.00930402
-0.230684,-0.00172734
-0.475784,0.0066602
-0.32333,0.0147755
-0.12211,0.0108632
-0.0486738,0.00780188
-0.0279414,0.011146
0.0812405,0.00679182
0.184536,0.00815813
0.242301,-0.00174546
0.258398,-0.0174677
0.214087,0.00976312
0.205622,0.0262551
0.0914742,0.029442
-0.267718,0.00938183
-0.49649,-0.0267647
-0.416666,-0.0173378
-0.200709,-0.0207733
0.198739,-0.0117715
0.424395,-0.0238131
0.289133,-0.0217401
0.0534053,-0.0133271
-0.159383,-0.00144757
-0.303504,0.0144681
-0.208562,0.0220002
1.77e-05,0.0194428
-0.0132358,-0.00490287
-0.109293,-0.00108947
-0.152794,0.00709193
-0.162365,0.00763687
-0.0332079,-0.0132328
0.0881786,-0.0147996
0.133992,0.00408396
0.115958,0.0143784
0.0397344,0.0112667
0.0438037,0.00823658
0.0560282,0.00977679
0.0399242,0.00813414
0.0494334,0.00108455
0.0431583,-0.00110493
0.0132333,0.00647853
-0.0166665,0.0192862
0.020246,-0.00622397
0.0931889,-0.0212182
0.134773,-0.00136915
0.109482,-0.0129486
0.0194234,-0.0212292
0.0481978,0.000742942
0.213804,0.000197305
0.289182,-0.00647739
0.114085,0.00407544
-0.276404,0.0164553
-0.441717,0.0115069
-0.268399,0.000924824
-0.146803,-0.00264846
-0.0664387,6.85e-05
-0.013424,-0.00280031
-0.0128788,0.000259048
-0.0297977,0.000689214
0.017917,-0.00927501
0.115642,0.001783
0.158627,0.00482329
0.105063,0.0079093
-0.0184354,0.0136366
-0.0927627,-0.00284848
-0.088078,-0.00885105
-0.0447273,0.0122489
0.0551372,-0.00643007
0.229431,-0.0287827
0.376321,-0.0395472
0.347582,-0.0447348
0.115349,-0.0183481
-0.16341,-0.00797074
-0.360157,-0.000398543
-0.353804,0.00864603
-0.233272,0.023062
-0.146529,0.00934882
-0.128851,-0.0284931
-0.0935801,0.0241808
-0.0268464,0.0465486
0.00611715,0.0341659
0.0150911,0.0250983
0.0263918,0.0205596
0.0462966,0.00875546
0.0745864,-0.00305593
0.0951057,-0.00665169
0.076786,0.00267034
0.0443702,0.0166355
0.0491114,0.0205595
0.142772,0.0102253
0.28277,-0.0190068
0.303955,-0.0528372
0.231982,-0.0317141
0.0409647,0.0125183
-0.174529,0.0273483
-0.169895,-0.00876153
-0.101105,-0.0268237
-0.177854,-0.00526418
-0.324916,0.010515
-0.305028,0.0187033
-0.0894652,0.0257458
0.0506451,0.0155081
0.0850563,-0.0131256
0.102646,-0.0240038
0.133292,-0.00420377
0.00252838,0.0119308
-0.112966,0.00267067
-0.0687194,-0.00645557
-0.0311108,-0.0309111
-0.0060474,-0.0338271
0.0234479,0.00837855
0.0665816,0.00834027
0.0586696,-0.0366791
0.0246328,-0.0457415
0.0246794,0.000384722
0.0975583,0.0306192
0.120196,0.00879148
0.0839803,0.00297
0.0552986,0.0175502
-0.0400132,0.0181631
-0.102862,-0.00339433
-0.0799666,-0.00542554
-0.0751238,-0.00358834
-0.0504957,-0.00418297
-0.042868,0.0179157
-0.00273227,0.00978973
0.11729,-0.013508
0.135211,0.00272909
0.0370381,0.0191936
-0.11444,0.00807742
-0.148873,0.00337565
-0.0698346,0.0137772
-0.0333514,0.0114681
-0.0039243,-0.00673755
0.0345179,-0.00151025
0.0630501,-0.000819854
0.110709,-0.00755596
0.264323,-0.0056557
0.494818,-0.0177528
0.570835,-0.0315638
0.272884,-0.0105081
-0.188936,0.0115641
-0.585124,0.00318052
-0.710666,0.00243591
-0.549729,0.00990082
-0.330226,0.00434007
-0.0486609,-0.00305439
0.139025,0.003959
0.155842,0.014771
0.0683825,0.00962042
-0.0658329,-0.00199727
-0.0910463,0.00217856
0.0926303,0.0172399
0.198013,0.0275373
0.22619,0.0221453
0.152217,0.00908387
0.0349725,-0.0106831
0.000181547,-0.0276981
-0.0868337,-0.0317459
-0.111893,0.00214692
-0.0748779,0.00851726
0.0109847,0.0137239
-8.47e-05,0.0167711
-0.0659673,-0.0167481
-0.0199855,-0.0269169
0.121199,-0.0148276
0.205012,-0.0199638
0.174749,-0.0277093
0.0169306,-0.0144316
-0.0142078,0.00668637
-0.0434945,0.0188874
-0.118296,0.0100042
-0.122498,-0.00969183
-0.126474,0.000888466
-0.0487123,0.0228178
0.0508298,0.0191624
0.141737,0.00164237
0.237104,-0.00410349
0.19575,0.0239479
0.038485,0.00845245
-0.224218,0.00817014
-0.302186,-0.000670912
-0.140564,-0.00492642
-0.0224763,0.0130983
0.0614158,0.0282181
0.0763999,0.00198096
0.0962703,-0.0389511
0.0972353,-0.038397
0.0174229,-0.0225412
-0.0534978,-0.00536382
-0.083123,0.00925879
-0.0868103,0.0132728
-0.0284708,0.0144465
0.0539708,-0.0174758
0.108336,-0.0523685
0.0799356,-0.0474547
0.0722371,-0.0163566
0.0851234,0.0166479
0.0517238,0.0217891
0.0860965,0.0211273
0.00742758,0.0121572
-0.0701664,0.00253639
-0.061239,0.00267785
-0.112818,0.0235036
-0.118778,0.0280794
-0.152444,0.00462095
-0.167437,-0.00662196
-0.0533715,0.00355126
0.0452771,0.0154443
0.0284379,0.00150377
-0.0178318,-0.00834468
-0.0820427,0.00790286
-0.0203718,0.0064331
0.172894,-0.00434936
0.233107,-0.00790305
0.130177,-0.00125407
0.0365012,0.0169131
-0.110493,0.017269
-0.136453,-0.00323378
0.0368481,-0.0213776
0.0818668,-0.01744
0.0472615,0.001708
0.0927345,0.00402538
0.144188,-0.000875687
0.140584,-0.00324182
0.07885,-0.00605932
-0.114728,-0.000399849
-0.15941,-0.00463497
-0.137062,-0.0158531
-0.200912,-0.018881
-0.196935,0.00692155
-0.164142,0.00336263
-0.109722,-0.0282863
-0.00267854,0.0152831
0.157452,0.0254255
0.21993,0.00862548
0.129048,-0.0173885
-0.0249427,-0.0177634
-0.174733,-0.00434899
-0.145074,-0.00732379
-0.0211695,-0.00510523
0.134238,0.0223451
0.337404,0.025621
0.376365,0.0206893
0.177921,0.0219539
-0.217232,-0.00427987
-0.416765,-0.0368947
-0.230533,-0.00467349
-0.0882606,0.0192352
-0.0252723,-0.00504732
0.0867498,-0.00233589
0.171084,0.0285441
0.0851865,0.00603245
-0.0383315,-0.0256239
-0.0691734,-0.0317364
0.00908921,0.00748159
0.00489785,0.0112681
-0.00586636,0.00175657
0.0480431,0.000343811
0.0242384,0.00477982
0.0445569,0.00882429
0.072995,-0.00623966
0.110122,-0.0189866
0.0139024,-0.0095819
-0.170816,-0.00667108
-0.148578,0.000212964
-0.000666662,-0.00350396
0.0980095,-0.00623213
0.121267,0.00726161
0.0460563,0.0123584
-0.0962532,0.0159363
-0.149043,0.0105295
-0.0727251,0.00549177
-0.0026774,0.00930514
-0.00638721,0.0245116
-0.0195269,0.0512857
0.0446075,0.0631455
0.0830884,0.0233385
0.0260468,-0.0377338
-0.0107682,-0.0581506
0.000800674,-0.0503825
0.015004,-0.0386006
0.0383515,-0.0434635
0.086978,-0.019314
0.0768092,-0.000961038
-0.00321555,-0.00837549
-0.0337607,-0.0107231
-0.0109376,-0.00219852
0.00112216,-0.00650518
-0.0411495,-0.00560713
-0.0728151,0.0111289
-0.0529567,0.0278565
-0.0301474,0.0243112
-0.0368791,0.0108814
-0.0197196,0.0240066
0.01042,0.0309447
0.0482516,0.0280146
0.120804,0.0113564
0.135271,-0.00341273
0.09984,-0.0109951
0.0261883,-0.0141157
-0.0633132,-0.0183275
-0.133589,-0.0435337
-0.0942909,-0.0240028
-0.0472251,0.0155373
-0.0456634,0.00880151
-0.0106266,-0.0201791
-0.00592158,-0.00710115
-0.0224388,0.000369824
-0.00764686,0.00404627
-0.0307336,0.00953971
-0.0412642,0.0140893
0.00650842,0.00952896
0.039004,-0.00826989
0.0252161,-0.00913072
-0.0017323,0.00376875
-0.00619884,0.00339002
0.0178074,-0.0281135
0.0328813,-0.000615938
0.023171,0.0338642
-0.00695479,0.0302004
-0.0597052,0.0137989
-0.0660935,0.00645887
0.030381,0.0199122
0.127733,0.0168053
0.0874595,-0.0231538
0.0283467,-0.0371025
0.0508622,-0.0201618
0.0705631,0.00526638
0.0440373,0.0170817
0.0022634,-1.55e-05
-0.118503,0.00109158
-0.188217,0.0215336
-0.0335614,0.0158627
0.116508,-0.0100897
0.144316,-0.0312475
0.0788297,-0.0277087
-0.0372543,-0.00896529
-0.138392,-0.00601933
-0.151967,-0.0120775
-0.107974,-0.004608
-0.102224,0.0134589
-0.0317125,0.0148967
0.0481465,0.0135674
0.106907,0.0256302
0.108569,0.0221912
0.0569925,-0.00262969
-0.0366313,-0.0390202
-0.102263,-0.0128653
-0.0080988,0.00528266
0.0963883,-0.0452471
0.115636,-0.0374289
0.0676443,0.00616099
0.0262576,0.015838
-0.0113241,0.0304025
-0.0205862,0.00319684
-0.0235873,-0.00989716
-0.134229,-0.0190867
-0.175645,0.00571953
-0.0816762,0.0164005
-0.0251762,0.0145185
-0.00275786,0.0144755
0.0229121,0.0114255
0.0735031,0.00596326
0.0605131,0.0160582
0.000380238,0.0192051
-0.0249041,0.00977514
-0.0215107,0.000735456
6e-05,0.00852199
0.0134094,0.0120472
0.00845337,0.0119548
0.00655437,0.0129478
0.0228686,0.00601667
0.020399,-9.82e-05
0.0295221,0.00850626
0.0524481,-0.0130074
0.131769,-0.0336005
0.277672,-0.0175573
0.344412,-0.00288177
0.243432,-0.0162092
-0.0481484,-0.0163198
-0.418127,-0.0205158
-0.498902,-0.0336992
-0.311129,-0.0254443
-0.11491,-0.0088407
0.0703375,-0.00185276
0.18547,0.00674858
0.155706,0.0102396
-0.030161,0.00376094
-0.169641,-0.00543582
-0.11174,-0.0037759
-0.0213971,0.00756039
0.23094,0.0165947
0.467187,0.0327754
0.46232,0.0215334
0.142889,-0.014528
-0.205889,-0.0081569
-0.0798208,0.00249532
0.13163,-0.0136389
-0.00931264,-0.0127
-0.189342,-0.00717456
-0.430744,-0.00122166
-0.504672,0.00339865
-0.279304,0.00931706
-0.094729,0.011453
-0.0476518,-0.00309674
-0.0298229,5.73e-05
0.0185031,-0.00307176
0.0343357,0.00587725
0.0201622,-0.00608838
0.0194456,-0.0220013
0.0821755,0.00923208
0.121519,0.0205745
0.106714,-0.00106601
0.068789,-0.00390536
0.120367,0.00416973
0.193205,0.00895253
0.213924,0.0115569
0.170484,0.0137246
0.0036326,0.0114737
-0.143855,0.00955377
-0.111786,0.00209851
-0.0437195,-0.00963677
-0.0101694,-0.0110975
-0.0187583,-0.00453798
-0.0211572,0.0028428
-0.0136762,0.00517289
-0.0232783,0.00771476
-0.0209808,0.00765816
-0.0244932,0.00716382
-0.0479992,0.00634639
-0.0245264,0.00717318
0.0245783,0.000482049
0.0618279,-0.0200699
0.0887247,-0.0229919
0.108733,-0.0113069
0.0809567,-0.00726833
0.0201623,0.00295102
-0.0301742,-0.00702294
-0.0332025,-0.00419764
-0.00784321,0.00776303
-0.0357866,0.00272604
-0.0942012,-0.0105322
-0.0905515,-0.050944
-0.0675398,-0.0438715
-0.0233466,0.0152221
-0.00151717,-0.00634472
0.0080871,-0.0243156
0.0719152,0.00965117
0.148232,0.0205841
0.224336,0.0208564
0.213,0.0506273
0.0765062,0.0386218
-0.0746418,0.0253589
-0.184823,0.0171919
-0.254587,0.00077061
-0.181652,0.00613891
-0.0616234,0.0181928
0.00283283,0.0211024
-0.0055339,-0.0208903
-0.062236,-0.0445963
-0.101132,-0.00519939
-0.0584775,0.00577259
0.00620255,-0.00648378
0.0397551,-0.00444823
0.0331292,-0.00127479
0.0109863,-0.00469398
0.0367572,-0.00232028
0.077994,0.00108548
0.0895412,-0.000509666
0.0634334,-0.00149419
0.0241152,-0.00166152
0.00013523,-0.00914189
-0.00225238,-0.0114677
0.0152644,-0.00614743
0.0388041,0.00032933
0.0251596,0.00752297
0.00321729,0.00982574
-0.00604776,-0.00736134
-0.0524919,-0.0204764
-0.0982703,-0.00323785
-0.057685,0.00171484
-0.0248244,-0.00576188
-0.00333,-0.00276024
0.055515,0.00927544
0.111042,0.0189777
0.118789,0.0231994
0.0728513,0.00774459
-0.0106712,-0.0196688
-0.0525564,-0.0244749
-0.0262412,-0.016128
0.0137688,-0.00329898
0.0204921,-0.00412873
-0.0789152,-0.00871931
-0.145213,0.00105684
-0.104334,0.00816195
-0.02743,-0.00258285
-0.0131613,0.00203977
-0.0197458,0.0154123
0.00553102,0.00572594
0.0202833,0.000711495
0.0385602,0.0133373
0.064686,0.00589884
0.0966374,-0.0143116
0.165619,-0.0226164
0.190793,-0.000673296
0.141064,0.00684625
-0.013722,0.0027872
-0.190094,0.00622273
-0.218896,0.00910399
-0.14131,-0.000611384
-0.0800188,-0.0133261
-0.0235388,-0.0117426
0.023394,0.000759281
0.010124,0.0141837
-0.0254116,0.0159485
-0.0287577,0.0123076
-0.013519,0.0119156
0.0131074,0.00905396
0.0293937,0.00409248
0.0249003,0.00342225
0.00538129,-0.00525061
-0.0093378,-0.0190554
-0.000521499,-0.0215509
0.0166972,-0.00344235
0.0162649,0.0044898
-0.000833126,-0.011523
-0.0160742,-0.0168632
-0.0161905,0.0129847
0.0160998,-0.00323047
0.0746248,-0.0461796
0.0807156,0.0113053
0.0481326,0.0406768
-0.0132252,-0.00617748
-0.0311697,-0.0155777
-0.00864233,-0.00200901
-0.0149168,-0.0030868
-0.0200081,-0.00415556
-0.0220051,0.00201754
-0.0306935,0.0103572
-0.00269514,0.0176915
0.0650723,0.0181387
0.0779197,0.014794
0.0480346,0.014701
-0.0104371,0.0159443
-0.0909735,0.0131634
-0.0611069,-0.0101097
0.0313206,-0.0287145
0.0514898,-0.0202278
0.0266109,0.00459855
-0.0143439,0.0214723
-0.0320144,0.0212305
-0.00925133,0.013853
0.00629061,0.0081682
0.0121501,0.00588692
0.00414889,-0.00361717
-0.0194046,-0.0285494
-0.0159982,-0.0316775
-0.0139658,0.000650795
-0.034946,0.00553001
-0.0243944,-0.00446427
-0.0198019,-0.0212854
-0.0189035,-0.00661115
-0.00424919,-0.0165893
0.0360599,-0.0281678
0.077589,-0.0389353
0.117459,-0.0174672
0.0978638,0.0385424
0.0130073,0.0382343
-0.0457743,0.020952
-0.107827,0.0147948
-0.124557,0.00926564
-0.0571249,-0.00441569
0.0206647,-0.0124096
0.0365326,-0.00752767
-0.0316462,0.0041617
-0.0611541,0.00979937
-0.0356096,0.0111145
-0.00955411,0.0164274
0.0134515,0.0161248
0.0288184,0.00775347
0.0251722,0.00831336
0.0139305,0.00680629
0.0167036,0.00462646
0.0456523,0.00371012
0.0689369,0.0031588
0.0684782,-7.03e-05
0.0403362,-0.00147896
-0.00109351,-0.00749611
-0.025555,-0.0120687
-0.0225785,-0.0146079
-0.00820089,-0.0229227
-0.00810643,-0.0313395
-0.0220345,-0.0178073
-0.0240588,0.00991825
-0.0112454,0.0111758
0.0025945,-0.00282756
-0.0204358,-0.00624652
-0.0343812,-0.0024094
-0.0198883,0.00460331
0.00572445,0.00718907
0.0399361,0.00450303
0.0593958,0.00336706
0.0270588,0.00778957
0.000907069,0.00982951
-0.00608965,0.0020906
-0.00482584,-0.00662004
0.00248136,-0.0157891
0.00980895,-0.0183586
0.0513148,0.00704356
0.0865979,0.0224996
0.0475532,0.0146203
-0.0368744,-9.8e-05
-0.159586,-0.0129166
-0.202188,-0.0129367
-0.0935036,-0.0337413
0.00801198,-0.0286421
0.0522597,-0.0056668
0.0565426,0.00261174
0.0582874,0.0113549
0.0541571,0.0132968
0.00810338,-0.00126473
-0.0205698,-0.0201253
-0.0397427,-0.00763271
-0.0379149,0.0171256
-0.0364839,0.0249128
-0.0279372,0.0289053
0.00568235,-0.0077259
0.0310318,0.0105986
0.0621709,-0.00230162
0.0624133,-0.0148715
0.02333,-0.00320346
0.00594435,0.00160793
-0.00275452,0.0137154
0.00785765,0.0152984
0.0262072,0.0119403
0.0336032,0.011396
0.0194815,0.00497248
-0.00521211,-0.00107527
-0.014888,-0.00298816
-0.0168306,-0.00420824
-0.00729471,-0.00592226
0.00196418,0.000230007
