Comp Ch 3,Comp Ch 4
-0.0677751,-0.00889336
-0.00442356,-0.0150666
-0.04692,-0.0125513
-0.0348123,-0.0429488
-0.0643481,-0.057211
-0.0438703,-0.0274773
-0.00400921,-0.0158105
0.0101564,-0.00919127
0.0258732,0.000232551
0.0258316,0.00504232
0.0212691,0.000101887
0.0654554,0.0331938
0.102769,0.0530638
0.164834,0.0331812
0.253644,0.0355431
0.28263,0.0165418
0.193168,-0.0322515
0.0328277,-0.0609996
-0.16494,-0.0154056
-0.290456,0.0152705
-0.202564,-0.043673
-0.112806,-0.0479732
-0.0979316,-0.0456444
-0.0998482,-0.0434539
-0.0926157,-0.0333957
-0.0515967,-0.013809
0.0320018,-0.0271511
0.167675,-0.0571403
0.241509,-0.053093
0.470907,-0.0562925
1.0188,-0.0629241
1.15773,0.0192655
0.744336,0.0842814
-0.129757,0.0996605
-1.32153,0.0773062
-1.60312,0.0728748
-0.660662,0.0713471
0.0661328,0.0343409
0.289618,-0.00464731
0.328984,0.037791
0.112438,0.0389894
-0.174439,0.069016
-0.259198,0.0808209
-0.406458,0.0688499
-0.232162,0.0514095
0.342348,0.0247328
0.817392,0.0307973
0.900587,0.0390061
0.413435,0.00461175
-0.311014,-0.0333997
-0.739513,-0.0404221
-0.804107,-0.0616616
-0.752488,-0.059344
-0.451092,-0.0452194
-0.197224,-0.0469362
-0.0197343,-0.0721399
0.123264,-0.0432346
0.203201,0.0110728
0.143721,-0.0225888
-0.0104474,-0.0330189
-0.0725469,0.00214908
0.0066042,0.0169406
0.101075,0.0171843
0.121176,0.0153744
0.255899,0.00494717
0.594303,0.00210221
0.957382,-0.00224053
0.951695,-0.022926
0.599241,-0.0441188
-0.295544,-0.0435599
-1.1047,-0.0294054
-0.961019,-0.0174143
-0.173954,-0.0205005
0.236072,-0.0243123
0.185577,-0.0145444
-0.0678897,0.000729986
-0.217179,0.0215562
-0.114917,0.0292013
-0.253714,0.0233898
-0.567329,0.020871
-0.284166,0.00645099
0.31943,-0.00253474
0.478077,0.000922654
0.254514,-0.00108333
-0.202741,0.00767542
-0.370813,0.0129206
-0.222363,-0.00138073
0.166807,-0.0314963
0.693607,-0.0416385
1.60519,-0.0453755
1.95613,-0.0395393
1.44598,-0.021515
0.271323,0.0125116
-1.24244,0.0541336
-2.29192,0.0623737
-2.01651,0.00781202
-1.193,0.0109914
-0.618718,0.0484436
-0.373662,0.0574298
-0.113644,0.0501329
0.304423,0.0232624
0.57065,-0.0131809
0.922242,-0.0175428
1.51994,-0.0212862
1.57704,-0.0462944
0.748174,-0.0788042
-0.712638,-0.0172571
-1.35572,0.073965
-0.857099,0.0603366
-0.0800271,0.0078854
0.226494,-0.0264091
-0.314071,0.0349907
-0.763179,0.06602
-0.521181,0.0420148
-0.328017,0.0371333
-0.0888726,-0.0134083
0.214513,-0.0271963
0.347251,0.0107348
0.17906,-0.00809574
-0.0233359,-0.0317892
0.155914,-0.0289748
0.73357,-0.0337093
1.06978,-0.095195
0.991418,-0.146835
-0.0334658,-0.114204
-1.12325,-0.0868779
-1.21994,-0.0690348
-0.603899,0.0188924
0.0258026,0.0718968
0.354269,0.0777553
0.509216,0.0611584
0.611399,0.0510155
0.626963,0.0506894
0.617006,0.0217616
0.232992,0.0262671
-0.447409,0.0281436
-0.591032,0.03888
-0.305213,0.0193373
-0.388483,0.0210107
-0.506275,0.0662632
-0.298513,0.0327303
-0.167942,-0.030441
-0.028589,0.000739599
0.202782,0.0201592
0.33176,0.0112903
0.443723,-0.00688118
0.495981,-0.0294353
0.319679,-0.0386328
-0.14349,-0.00938209
-0.479528,-0.00159317
-0.232272,-0.00101339
0.019143,0.00887418
0.0411821,0.00364881
-0.241368,-0.013955
-0.348202,-0.0442388
0.0439232,0.013988
0.236161,0.0298486
0.0252199,0.0227778
-0.0057496,0.00585357
0.0712253,-0.0018718
0.14019,0.039019
0.322243,0.0450347
0.486129,0.00859151
0.53796,-0.024674
0.0698615,0.00235822
-0.436999,0.00911101
-0.623177,-0.00951214
-0.441143,-0.0238453
-0.250881,-0.0316395
-0.144921,-0.0175891
-0.0961862,-0.0109938
-0.108543,-0.0165733
-0.156482,-0.00253803
0.00456226,0.00660079
0.181394,-0.00546698
0.193327,-0.00332315
0.165577,0.00126416
0.156206,0.00123516
0.279876,-0.00403994
0.23656,-0.0128474
0.0937499,-0.0385172
-0.0429585,-0.0351508
-0.0859909,-0.0179456
0.0167763,-0.0203268
0.178124,-0.0222049
0.0952753,-0.00884479
-0.225834,0.0287107
-0.472371,0.0173916
-0.449665,-0.0276929
-0.269677,-0.0412403
-0.107505,-0.0209551
0.0989696,-0.0115432
0.28159,-0.00774219
0.372911,0.00617881
0.394383,0.00378947
0.291349,-0.00158688
0.299445,0.0105337
0.359728,0.0241848
0.343231,0.021806
-0.0727029,0.0312292
-0.578962,0.0324448
-0.762106,0.00379878
-0.677398,-0.00570736
-0.19004,-0.0370884
0.0289774,-0.0110985
0.220057,0.0153117
0.597317,0.0193848
0.573272,0.017409
0.10456,0.0178754
-0.300994,0.0217764
-0.554759,0.0258124
-0.311087,0.013043
-0.0510471,-0.00649409
-0.0504824,-0.00235747
0.0334463,0.00497125
0.11079,0.000411334
-0.163712,-0.0022384
-0.27524,-0.00569298
-0.0515983,-0.00198963
0.176158,-0.00229069
0.153003,-0.00234178
0.0207928,-0.00294614
0.0393933,-0.00597512
0.175088,0.000558626
0.280471,0.00674366
0.265595,-0.00706901
0.014974,-0.00808589
-0.111848,-0.00934975
-0.0568516,0.00106805
0.265328,-0.0134698
0.239311,-0.0569473
0.00500548,-0.0632258
0.167814,0.0130428
-0.140069,0.0598658
-0.330863,0.0286497
-0.308044,0.00713335
-0.373466,0.029637
-0.103008,0.0561738
0.114709,0.0403816
-0.0164964,0.000393581
-0.00727135,-0.0080762
0.115144,0.00816795
0.0489592,0.0158313
-0.122451,-0.0169165
-0.237534,-0.0437408
-0.149601,-0.0403362
-0.0212239,-0.00834615
0.350529,0.0274155
0.957889,0.0143154
1.01128,-0.0129437
0.71297,-0.0301025
-0.0449618,-0.0225533
-0.783851,-0.00840115
-0.634426,-0.00593392
-0.76867,-0.00641246
-0.641894,-0.00415871
-0.186177,0.00163428
0.0185074,-0.0148908
0.0665045,-0.0173136
0.0760593,0.0105861
0.181535,0.0102659
0.190268,0.0142769
0.0497871,0.0155132
-0.0908555,0.0187787
-0.269404,0.015977
-0.17984,0.0111659
0.0284228,0.00651468
0.048124,0.00414876
0.178821,0.00568607
0.190356,-0.00988294
0.0643893,-0.00838193
0.0143128,0.000411506
0.0423052,-0.00193906
0.176745,0.000200265
0.252905,-0.000490517
0.277065,0.00345315
0.11629,0.0116394
0.0402736,0.013546
0.107651,0.00807375
-0.00643227,-0.00818207
-0.133622,-0.0245384
-0.375511,-0.0444192
-0.432593,-0.0166845
-0.0847492,0.0212155
0.121255,0.00158455
0.0388407,-0.00769118
-0.0721421,0.0215381
0.00447459,0.0256489
0.321773,0.0108218
0.287142,0.00863262
-0.0411287,0.0185962
-0.26925,0.00771182
-0.35719,-0.00837488
-0.361193,-0.0109453
-0.256566,-0.0180956
-0.0707764,-0.021098
0.202634,-0.00232708
0.571475,0.0193771
0.530943,0.00352145
0.145632,0.00845433
-0.151074,0.00301315
-0.20082,-0.00970047
-0.0353917,-0.0190719
-0.0635982,-0.016983
-0.148595,-0.00917086
-0.263082,-0.00387684
-0.271949,-0.0227295
-0.112466,-0.0286193
0.0016874,-0.0212828
0.156376,-0.00778465
0.334389,0.00524814
0.538127,-0.00015486
0.644754,-0.000605893
0.462216,0.0189527
0.167945,0.0278559
-0.329731,0.0188678
-0.62066,0.023869
-0.830605,0.0187049
-0.734971,0.014559
-0.0528863,0.0101558
0.316895,-0.00779237
0.346102,-0.0100746
0.197665,0.00772177
-0.064815,0.0307961
-0.177299,0.036798
0.00640838,0.0131539
0.0704536,-0.00558648
-0.212476,-0.0286663
-0.183313,-0.053096
0.116907,-0.021381
0.249418,-0.00574196
0.142157,-0.0129438
0.0842692,-0.0175111
0.0816489,-0.0100815
-0.0183136,-0.0052279
-0.0448984,-0.00323056
0.0459439,0.00179252
0.451501,0.00212438
0.464511,0.0207921
0.0446495,0.0286804
-0.188151,0.0193332
-0.262538,0.00625527
-0.230419,0.00170816
-0.207677,0.000161393
-8.45e-05,-0.00260287
0.15969,0.0112765
-0.0760342,0.0125167
-0.405411,0.00259063
-0.543077,-0.00103974
-0.140155,-0.0191163
0.191026,-0.0367368
0.466742,-0.0316175
0.539375,-0.0318425
0.261787,-0.0111313
0.119494,0.000615393
-0.244486,-0.00374449
-0.247474,0.0122648
0.00463171,0.0239664
-0.188509,0.0182948
-0.433192,0.014195
-0.365371,0.0231121
-0.183763,0.0173916
-0.0614948,0.00427366
0.00744657,-0.002291
0.0350101,-0.000679792
0.137221,0.00929201
0.255926,0.0204856
0.28593,0.0279839
0.153512,0.0142784
0.189724,-0.0203868
0.497819,-0.0355761
0.572543,-0.0439301
0.273747,-0.0593827
-0.386268,-0.0521831
-0.524456,-0.00534712
-0.118768,-0.00224065
0.0772478,0.00359116
0.0901624,0.01798
-0.115046,0.0171067
-0.339912,0.0168151
-0.345245,0.01035
-0.151536,-0.00616449
-0.0114433,0.00281661
0.0267138,0.0182066
0.0808039,0.0168062
0.0889948,0.0200717
-0.041861,0.00841794
-0.0226749,-0.0058614
0.130756,-0.0136977
0.27755,-0.0078868
0.200943,-0.00100861
0.090782,0.0105388
0.0514715,0.0102695
-0.043828,0.00986109
0.0206488,0.00336505
0.20543,-0.00184888
0.331854,0.0132405
0.290605,0.0260494
-0.123776,0.00679921
-0.478231,-0.00512763
-0.493667,-0.024089
-0.376532,-0.00940665
-0.199791,0.0383405
-0.0472162,0.0352128
0.118576,0.00234563
0.112506,-0.0244327
0.0675233,-0.03494
-0.0113516,-0.0113059
-0.0376294,-0.0104283
-0.00561997,0.0016174
0.00396251,0.00392008
-0.0878593,0.001471
-0.147456,-6.88e-05
-0.0454644,-0.00123839
-0.0331157,0.00729859
-0.0628459,0.00779578
-0.0200998,-0.00421345
0.0403206,-0.0234146
0.170302,-0.0242905
0.435768,-0.0200092
0.508892,-0.0208892
0.349055,-0.0118332
-0.0876915,-0.00299915
-0.472778,0.00125357
-0.317228,0.00924779
-0.0654332,0.0271769
0.097635,0.000174666
0.0892627,-0.0159348
-0.056438,0.00947418
-0.148092,0.0172203
-0.159701,0.0182307
0.101202,0.0180169
0.506272,0.000700979
0.523256,-0.0138023
0.0490281,-0.026145
-0.639693,-0.0158122
-0.567902,0.00766928
-0.253956,0.0207335
-0.212314,0.0309224
-0.121199,0.0295737
0.0898595,-0.0119731
0.208605,-0.0786722
0.10599,-0.0373249
-0.0481163,0.023552
-0.073632,0.0292338
0.182901,0.0155277
0.800186,0.00400607
1.2108,-0.00238105
1.21693,0.00130073
0.637759,0.0159854
-0.670574,0.0350142
-1.01778,0.0273555
-0.88778,0.00663991
-0.876382,0.00290302
-0.414322,0.00321024
-0.0734528,-0.000393173
-0.139388,-0.000328042
-0.191639,-0.000285474
-0.207027,0.0108026
-0.182675,0.0213451
-0.0999127,0.0228501
-0.0275975,0.00092855
0.0343389,-0.0251195
0.0474601,-0.0232229
-0.0187971,-0.0220405
-0.0474659,-0.0277771
0.0724788,-0.0302773
0.275518,-0.0260892
0.42507,-0.0217655
0.421744,-0.0199123
0.346373,-0.0214352
0.166935,-0.0137045
0.0894001,0.00675631
0.10415,0.0180635
0.100858,0.0149345
-0.0120651,0.027143
-0.060118,0.0261644
0.0420065,0.000617366
0.143971,-0.00744703
0.177001,0.00573823
-0.165156,0.00425996
-0.764522,0.0151518
-0.544579,0.0215878
-0.0519204,-0.00337126
0.149641,-0.0168808
0.118113,-0.0348568
-0.0239308,-0.0167397
-0.0138436,-0.0151439
0.0792234,-0.0092023
0.18369,0.000119019
0.267085,-0.0043997
0.213866,-0.00743714
0.0485629,-0.00901554
0.0342305,-0.00445308
-0.0025658,0.00672512
-0.0657655,0.0213467
-0.217313,0.0330059
-0.338119,0.0403374
-0.300013,0.0344716
-0.198331,-0.011641
0.109274,-0.0443452
0.368848,-0.015722
0.341013,-0.0032434
0.14857,0.00559348
0.10412,0.0045358
0.205237,-0.00948921
0.221503,-0.00968287
0.0785065,0.00574388
0.0294914,0.00298519
-0.0896511,-0.000580167
-0.0891215,0.00160719
-0.508619,0.0150477
-0.657857,0.0407571
-0.176428,0.0472486
-0.139248,0.019305
-0.163902,-0.00595305
-0.0308521,-0.00989064
-0.0620375,-0.00480884
0.0754607,0.0057145
0.321615,-0.0164434
0.402564,-0.0199008
0.274057,0.00111768
-0.0639706,-0.00775569
-0.173972,-0.0494087
-0.0345823,-0.0571958
-0.0380218,-0.00256339
-0.170656,-0.00541495
-0.139173,-0.00187886
-0.0307568,0.0340521
-0.0243194,0.0299473
-0.0374733,0.00152647
0.181699,0.00873499
0.484097,0.0023871
0.563976,-0.0189726
0.312234,-0.0233523
-0.426063,-0.013265
-0.581698,-0.0159376
-0.356018,0.00955041
-0.180673,0.0296486
-0.00531692,0.0204197
0.156467,0.0163128
0.380737,0.0385998
0.561768,0.0246059
0.735975,-0.0447676
0.514985,-0.0372092
-0.094086,0.017514
-0.417096,0.0159512
-0.710396,0.0042062
-0.418552,0.000591357
-0.0767859,0.00172548
-0.111831,-0.0133796
-0.277913,-0.0184031
-0.218903,-0.0124125
-0.17832,0.00509518
-0.0728526,0.0280257
0.120456,0.0234743
0.236068,0.0159448
0.273403,0.00172676
0.167844,-0.0269149
0.123796,-0.0193882
0.143346,-0.00448022
-0.0498511,0.00448469
-0.132369,0.0155923
-0.0615287,-0.00845304
-0.0675898,-0.00547484
-0.118749,0.00205837
-0.0318141,-0.0105671
-0.0878347,-0.0103022
-0.072705,-0.00139102
0.0879147,-0.00321388
0.0468768,-0.0280244
-0.0294177,-0.0125291
-0.0147404,0.0416323
-0.0442488,0.0287306
0.00834717,-0.0107659
0.0794845,0.0193986
0.051878,0.00518643
0.022984,-0.0219144
0.0167328,-0.0019112
-0.10453,0.0100872
-0.055718,0.00354464
0.0489555,-0.00564541
0.0255263,-0.0136338
0.00883242,-0.0142597
0.261466,-0.0132714
0.552127,-0.00492944
0.488241,-0.0040613
-0.0376497,0.00797586
-0.463651,0.0118806
-0.375722,0.0198722
-0.111283,0.0170574
0.106308,0.0144824
0.0815849,-0.0110178
-0.0662221,-0.0238775
-0.273368,-0.00837738
-0.233825,-0.000640773
0.0411087,0.0121698
0.359378,-0.0233243
0.447137,-0.049045
0.337969,-0.0114119
-0.163461,0.0211429
-0.610138,0.0123789
-0.378758,0.00829291
-0.163033,0.017546
-0.127267,0.0294316
0.0850218,0.0331057
0.25976,0.00357369
0.139346,-0.0249256
0.0837182,-0.0154925
0.0923706,-0.0170573
0.0322719,-0.0115389
0.0286823,0.00279242
-0.0411818,0.0115084
-0.0475928,0.0189543
-0.110796,0.0248898
-0.289848,-0.00986186
-0.159142,-0.0312371
0.127445,-0.018425
0.22945,-0.0137678
0.18766,-0.0256811
0.00847504,-0.0211572
-0.189745,0.00656368
-0.113877,0.0341663
0.0365773,0.0319317
0.0515961,0.0182776
0.0197799,-0.0230998
-0.0348692,-0.0317266
-0.104498,-0.0383314
-0.0511677,0.0195935
0.0869868,0.0347259
0.1138,0.00831688
0.0535261,0.00201411
-0.00999287,-0.00542426
-0.0651196,0.0337023
0.0548331,0.00476158
0.137189,-0.0200962
0.119913,0.0123259
0.0754463,0.0198434
0.0624936,0.0104499
0.0955555,0.000645402
-0.00647252,0.00493837
-0.116646,0.0133517
-0.164566,0.0250407
-0.170667,0.0248537
-0.17838,0.01266
-0.0969581,0.0257339
-0.0178199,0.0188145
0.0338887,0.00286696
0.00145524,0.00886286
0.019669,0.00218282
0.0985707,-0.00472308
0.0477105,-0.00314168
-0.0147659,-0.00674173
-0.0174009,-0.0351087
0.0277954,-0.025115
0.0856123,-0.0421443
0.255588,-0.0669093
0.574453,0.0126593
0.440789,0.0250471
0.0857771,-0.0264478
-0.171581,-0.033734
-0.229354,-0.0221624
-0.225388,-0.0180561
-0.369317,-0.0281941
-0.498177,-0.0191041
-0.302002,-0.0179068
0.0335814,-0.0174572
0.077811,0.00256383
0.0438289,0.00589568
0.169217,-0.00253551
0.19062,-0.00257523
0.0444489,0.00816427
-0.219003,0.00391685
-0.252467,-0.00223647
0.0355414,0.011577
0.211104,0.0293694
-0.0450219,0.0188074
-0.40006,0.0344366
-0.190236,0.0469863
0.360062,0.0125123
0.455949,0.00231865
0.204261,-0.0112877
-0.322787,0.0147091
-0.336956,0.0176306
0.0955585,-0.0880322
0.263979,-0.141654
0.213312,-0.0237769
0.032599,0.0762855
-0.0750454,0.013967
-0.103,0.0160613
0.00659019,0.0616788
0.068199,0.04559
-0.00996805,0.0149041
-0.148328,0.000236795
0.0237071,0.0180118
0.138188,0.0375473
0.036856,0.0299213
-0.126886,0.058284
-0.184638,0.0389083
-0.12008,-0.0483509
-0.0741546,-0.0655763
-0.0700395,-0.0295617
-0.0357749,0.0256989
0.0575324,0.0167383
0.191635,-0.0108202
0.32658,-0.0120891
0.44463,-0.0136117
0.329421,-0.008129
0.0848224,0.0189738
-0.151623,-0.0267566
-0.312949,-0.061871
-0.110258,-0.0627012
0.0150365,0.0501375
-0.0367162,0.073415
-0.246183,0.0307515
-0.361889,0.0232365
-0.0525129,0.0259239
0.298445,-0.0129079
0.52586,-0.0331188
0.338866,-0.020425
-0.226895,-0.0900745
-0.386668,-0.0349231
-0.301743,0.048876
-0.247903,0.0498519
0.0453713,0.0371333
0.360477,0.0115108
0.264526,-0.0361965
-0.251901,-0.0648192
-0.619868,-0.0159008
-0.224415,0.00425431
0.147601,0.0322003
0.280625,0.0665611
0.221757,0.0320218
-0.064345,-0.0279367
-0.186249,-0.0918954
-0.126488,-0.0476953
-0.0348448,0.0049085
0.0408044,0.00659664
0.134185,0.0154553
0.14019,0.017758
0.0299312,0.0119601
-0.0590867,0.0128417
0.0498221,0.0164903
0.113328,-0.00363816
-0.0245489,-0.0475775
-0.0954165,-0.0676595
0.0378318,-0.0205601
0.160068,0.0588926
0.260118,-0.0226762
0.191885,-0.0627598
-0.00581729,0.0691886
-0.0706735,0.063746
-0.134955,0.0316806
-0.196883,0.0187652
-0.229405,0.012441
-0.0739044,0.0535969
0.21937,0.0432181
0.125943,0.0211857
-0.164356,-0.0174347
-0.206403,-0.0660689
0.0707318,-0.0701624
0.410934,-0.00146271
0.437665,0.0533656
0.0840163,-0.0237231
-0.259056,-0.0573414
-0.163312,0.0324739
0.142044,0.0195198
-0.00749024,-0.0103571
-0.249381,-0.00601802
-0.234901,-0.00599129
-0.0603287,-0.134875
0.0225451,-0.107785
-0.0591887,0.0604765
-0.0657611,0.0129865
-0.0144792,-0.0311134
0.12785,0.00583051
0.174924,0.0111385
0.0652802,0.0706639
-0.067455,0.0687416
-0.423209,0.0434354
-0.429862,0.0204143
-0.0558327,-0.00439415
0.074798,0.027484
0.335593,0.0326559
0.724434,0.0155109
0.70666,0.0306706
0.274153,0.00662389
-0.362207,-0.0374854
-0.64175,-0.0576186
-0.368249,-0.0517767
-0.182201,-0.0364741
-0.245479,0.0125405
-0.2899,0.0462934
-0.105716,0.0642109
0.0644507,0.0567586
0.122385,-0.046166
0.113533,-0.0574785
0.0581114,-0.00762991
0.0494902,0.04175
0.00373857,0.0637007
0.116662,0.00991282
0.550743,-0.0342155
0.802031,-0.0379712
0.349292,-0.05389
-0.169924,-0.0117304
-0.166909,-0.00358994
-0.0769647,-0.054124
-0.186935,-0.0664497
-0.455075,0.0214118
-0.423092,0.045745
-0.161904,0.037543
-0.0219447,0.0220359
-0.0432535,-0.00414274
-0.0112789,0.00914572
0.133267,0.00599497
0.0155892,0.0297134
-0.126614,0.0814984
0.0271496,0.0226079
0.157637,-0.0641834
0.0856881,-0.0687902
0.0680477,-0.00543175
0.00699858,0.0299721
0.270499,-0.050908
0.413487,-0.129503
0.149409,-0.0258699
-0.247046,0.075301
-0.615829,0.0300064
-0.334567,-0.0314606
0.0348529,0.0027435
0.0781841,0.0650769
0.0461651,0.063154
-0.0569813,0.0199609
-0.0320015,-0.03305
0.0609719,0.0200421
0.0839912,0.0283581
0.0288902,-0.022805
-0.0056525,-0.0301196
0.023277,-0.0508046
-0.0541307,-0.0581549
-0.103122,0.000176415
-0.0949056,0.0743808
0.0262445,0.0158541
0.286603,-0.0489653
0.369236,-0.11498
0.193229,-0.0586127
-0.0107095,0.0891933
-0.213209,0.111311
-0.355459,0.0622533
-0.201611,0.0301007
-0.0976468,0.0309174
0.0170599,0.027081
0.363348,0.00610488
0.479432,-0.0438338
0.335762,-0.0593098
0.195637,0.0191612
-0.417376,0.0509665
-0.856515,0.0394793
-0.591966,0.0519151
0.241795,0.00381559
0.998514,-0.136277
1.10543,-0.162888
0.323598,-0.0429585
-0.702372,0.0645591
-0.82937,0.0339528
-0.180909,-0.00954192
0.1322,0.00884578
0.090407,0.0337042
-0.113043,-0.00117941
-0.420266,-0.0253414
-0.439825,-0.00630594
-0.347801,0.0505508
-0.208722,-0.0394972
-0.15643,-0.108814
-0.0819376,0.0313058
0.0607258,0.0990399
0.347064,0.0293908
0.735927,-0.00224006
0.842779,-0.0185695
0.376671,-0.0302062
-0.513729,-0.0224
-0.668118,0.0257787
-0.169121,0.0610996
0.251728,-0.000800881
0.390213,-0.0195617
0.0796142,-0.00289715
-0.131179,0.0159601
0.203391,0.0319036
0.386391,-0.00158683
0.119865,-0.0672382
-0.196351,-0.0744135
-0.382154,-0.0162528
-0.399728,0.035521
0.0183856,0.0287509
0.341429,0.0306547
0.380199,0.0550862
-0.198469,0.00466075
-0.772674,-0.0408002
-0.577538,-0.00153552
-0.171061,0.0156887
0.016676,0.0301237
0.0888863,0.0224528
0.244807,-0.0144243
0.374126,-0.0164008
0.241129,0.0126327
-0.0515549,0.0331631
-0.260207,0.061888
-0.126654,0.0252739
0.338755,-0.0816448
0.664205,-0.0815711
0.639278,0.0420273
0.427176,0.0568012
-0.195019,-0.0155781
-0.923554,-0.0237284
-0.963989,-0.00492808
-0.497065,0.00506833
0.172877,-0.0115727
0.675812,-0.0461731
0.593261,-0.0589589
0.412114,-0.0472468
0.336118,-0.0337037
0.0304455,0.0100476
0.14779,0.0381259
0.110277,0.0181235
-0.175539,-0.0984161
-0.173296,-0.0814402
-0.407452,0.0668686
-0.951651,0.106096
-0.667425,-0.0442627
-0.0532384,-0.0870412
0.200995,-0.0590871
0.228387,-0.0059417
0.0211785,0.0938491
-0.240663,0.117063
-0.139176,0.112661
0.107038,0.0952374
0.143186,0.070515
0.0468911,-0.0181696
0.16192,-0.0555373
0.295102,-0.0679805
0.294822,-0.0109076
0.149215,0.0526615
-0.234272,0.0525352
-0.562319,0.0352059
-0.476521,0.00907397
0.0608069,-0.043754
0.488809,-0.0358681
0.71078,-0.081043
0.728196,-0.166532
0.193927,-0.128261
-0.19274,-0.0548058
-0.391359,0.0372959
-0.515924,0.0642817
-0.0639568,-0.0140569
0.244917,0.0105065
0.131362,0.143374
-0.263513,0.107058
-0.48768,0.00484753
-0.418294,0.0199276
-0.191409,0.0557629
0.126542,0.0278386
0.935575,0.00789449
1.67955,-0.0331945
1.73815,-0.0741183
0.488895,-0.0582289
-1.71961,-0.0525537
-2.43147,-0.00896358
-1.15859,0.0214441
-0.273545,0.0105672
0.0580468,0.020416
0.24312,0.0346374
0.188961,0.0430847
-0.00306576,0.0575738
-0.00670858,0.0420768
0.164473,0.00216237
0.353257,-0.0450507
0.403861,-0.0804669
0.165275,-0.0404963
-0.126528,-0.0154231
-0.202872,-0.0683154
0.0137292,-0.0463336
0.24873,-0.00378503
0.237553,-0.0179548
0.11852,-0.0538062
-0.0540358,0.03108
-0.104892,0.131053
-0.0821516,0.131172
-0.116016,0.0707329
-0.0654146,-0.00541217
0.0251807,-0.158899
0.0862467,-0.0731561
0.160484,-0.000864501
0.0759223,-0.0483106
-0.0590296,0.00722232
-0.0985115,0.00449886
0.100082,-0.0104836
0.379111,-0.0134487
0.433527,-0.0549668
0.0677481,-0.0422683
-0.264704,0.0250057
-0.117948,0.0345665
-0.0274482,0.0192146
-0.159896,0.0068178
-0.488698,0.0256277
-0.429114,0.0687211
0.129298,0.0529276
0.938838,0.0622452
1.06295,0.0738043
0.489747,0.0278328
-0.68993,-0.00954444
-1.18492,-0.0130857
-0.711004,-0.0178554
-0.368742,-0.0301414
-0.0285759,-0.0279477
0.327727,-0.0304781
0.432325,-0.0439382
0.0629293,-0.0398098
-0.303702,-0.00772994
-0.264699,0.00277975
-0.0454833,-0.0232062
0.06218,-0.018903
0.0891997,0.0339137
0.0283621,0.0696491
-0.202153,0.0694701
-0.445218,0.053679
-0.372994,0.023895
-0.0496501,0.000994912
0.195488,-0.00254895
0.266498,-0.0217471
0.343913,-0.0515542
0.510875,-0.0484311
0.579729,-0.0671646
0.418556,-0.0358798
0.104722,-0.00477541
-0.255458,-0.0161289
-0.319695,0.0252075
-0.0919195,0.0928591
0.134381,0.0797216
0.316367,0.0662749
0.332966,0.0190421
-0.133285,-0.0647094
-0.227705,0.0323552
0.123398,-0.0490156
0.0690558,-0.190767
-0.355642,-0.154798
-0.463776,-0.0197242
-0.205061,0.0153486
-0.00194105,4.83e-06
-0.0148525,0.00199406
-0.272316,0.0462097
-0.131925,0.0616051
0.323997,0.0295432
0.308716,-0.0115045
0.0763612,0.00485821
-0.29799,-0.00802581
-0.246459,-0.0184273
0.257228,0.0538366
0.661871,0.112922
0.704262,0.0534375
0.400805,-0.00102717
-0.222811,0.00400263
-0.859103,0.0374388
-0.810529,0.0572144
-0.453368,0.0184607
-0.0862684,-0.0652895
0.291878,-0.0558548
0.505626,-0.0822439
0.450348,-0.168565
-0.0601413,-0.137312
-0.550401,0.0955804
-0.419731,0.115034
-0.0781946,-0.0140334
0.0853019,-0.0228494
0.0615765,0.0251035
0.0737628,0.0778148
0.141328,0.0524631
0.111953,0.0146296
0.0497141,0.023152
-0.0617429,0.0179668
-0.196723,-0.0199551
-0.11428,-0.0313454
0.0259467,-0.0285153
0.187137,-0.0113931
0.224413,0.027096
0.115967,0.0178534
0.0468726,0.00697259
0.014267,0.0235772
-0.00511178,0.000720103
-0.0140132,-0.00375296
-0.0063018,0.00425079
-0.0223295,-0.0383835
-0.0272631,0.00659345
0.0257072,0.0266787
-0.00080312,0.0145014
0.0153943,0.00893301
0.0124805,-0.0166185
-0.0670011,-0.0532821
0.0714924,-0.0396275
0.219804,0.00433637
0.225873,0.00134392
0.378111,-0.01559
0.363528,-0.0391361
0.0150278,-0.000149033
-0.224196,0.047284
-0.18103,0.0366586
0.119517,0.0218636
0.118905,-0.00592026
-0.300715,-0.0777194
-0.632177,-0.0796135
-0.48992,0.0218353
-0.162086,0.00511825
-0.150329,-0.00264559
-0.159872,0.0640797
-0.0644429,0.0547643
0.0856074,0.0200325
0.256977,-0.00180079
0.271243,-0.00166937
0.158477,-0.0260461
-0.0568032,-0.0171524
-0.207353,0.000955759
-0.0711127,-0.0493678
0.113481,0.000997215
0.133134,0.0650017
0.035371,0.0411434
-0.066098,0.0165527
-0.013076,0.0176509
0.0779827,-0.019829
0.0476278,-0.0418369
0.182741,0.00433984
0.398931,0.0296546
0.387828,-0.027083
-0.0129262,-0.0558206
-0.384922,-0.0380094
-0.145698,-0.00296087
0.0402488,-0.0215869
-0.0672911,-0.0271793
-0.128897,0.031408
-0.111754,0.0377119
-0.254341,0.0249881
-0.374743,-0.0176409
-0.3427,-0.011019
-0.128639,0.0457462
0.0959525,0.0160413
0.244528,-0.014485
0.394666,-0.0291276
0.453088,-0.00165998
0.309277,0.00630131
0.0550712,0.0820349
-0.244557,0.140051
-0.338876,0.0439508
-0.0605441,-0.046171
0.25948,-0.0813637
0.662552,-0.0605505
0.71038,-0.00566934
0.336746,0.00084296
-0.419308,0.0079018
-0.9777,0.0252231
-0.802526,-0.00380172
-0.360411,-0.0489638
-0.00286844,-0.0391247
0.214286,-0.0201369
0.239462,0.00416353
0.262705,-0.00948035
0.216767,-0.0458734
0.195665,-0.00908086
0.101787,0.0115104
-0.258669,0.0394969
-0.525681,0.0398024
-0.351945,-0.00617527
-0.0562871,-0.028456
0.136699,-0.101868
0.136404,-0.100556
0.0654321,0.00206468
0.0618926,0.0929615
0.0261024,0.0997074
-0.0941274,0.0458721
-0.0665166,0.0184319
0.0946461,-0.00283208
0.142335,-0.0526475
0.0849981,-0.0208942
0.0290818,0.0164103
0.0472334,0.00927612
0.0761049,0.0360765
-0.022617,0.0421501
-0.122664,0.0326033
-0.0208966,0.0225697
0.0612584,-0.0245896
-0.0274349,-0.0586123
0.0405539,0.0267769
0.102134,0.0434514
-0.0187963,-0.031955
-0.0938003,-0.0734645
-0.0556422,-0.0543694
0.0238141,0.0391505
-0.0089994,0.0587614
-0.0612863,-0.0158931
-0.00388624,-0.0223136
0.102157,0.0358497
0.180138,-0.0121329
0.330226,-0.0265469
0.597879,-0.0289141
0.64888,-0.129642
0.383684,-0.0679707
-0.14817,0.0659942
-0.662646,0.0403356
-0.730698,0.0455201
-0.636792,0.0950466
-0.396823,0.102907
-0.204574,0.0766794
-0.178658,-0.00219954
-0.110665,-0.0568927
0.00214338,-0.0338377
0.0205352,-0.01924
0.128659,-0.0493629
0.455696,-0.0245958
0.787989,0.0332837
1.00753,0.0769565
0.711482,0.0711555
-0.179885,0.0231881
-0.980992,-0.0115126
-1.00394,-0.0838486
-0.577137,-0.122013
-0.250684,-0.0237499
0.071461,0.0269688
0.231905,0.0106414
0.188504,-0.0486854
0.0432937,-0.0580464
-0.107299,-0.0239034
-0.177115,-0.061743
-0.138742,-0.0284781
-0.102913,0.0592664
0.0302174,0.0811385
0.262528,0.0978698
0.308569,0.0500446
0.123037,-0.0269504
-0.0799291,-0.0498519
-0.0799585,-0.0373857
0.104189,-0.0263733
0.229684,0.0148481
0.251859,0.0533752
0.0999105,0.0568812
-0.120422,0.0621159
-0.0435382,0.0436312
0.151292,0.0176746
0.340365,-0.0824836
0.353297,-0.158179
0.0301492,-0.0589245
-0.346645,-0.00535385
-0.598249,0.0219128
-0.556416,0.0587151
-0.297484,0.0244815
-0.0862055,-0.0271494
0.19376,0.0563838
0.39764,0.000933047
0.330194,-0.0837114
0.0380166,-0.0328735
-0.276101,0.0589409
-0.0897052,0.0868943
0.154807,0.0502365
0.151926,-0.0169361
0.0617523,0.005599
-0.0897955,-0.0031012
-0.0575564,0.00143769
0.0239953,-0.0139364
0.0433753,-0.0309985
-0.0201425,-0.00417126
-0.0602622,0.0255316
-0.0203012,0.00647254
0.0237897,-0.0317169
0.124355,-0.0261083
0.143622,0.0020051
-0.0700641,0.0163947
-0.223198,-0.0748593
-0.166161,-0.140424
0.00057832,-0.000874711
0.168855,0.0744503
0.320007,0.0409106
0.351609,0.0132137
0.228211,0.0293693
-0.0211367,0.0307384
-0.357878,0.0172994
-0.496883,0.0362133
-0.306724,0.032759
-0.304192,0.0259406
-0.381709,0.0182627
-0.162635,0.00368288
0.193162,0.00228931
0.575258,-0.0233079
0.733247,8.01e-05
0.539026,0.00669444
0.0965144,-0.037142
-0.32202,-0.0561287
-0.368109,-0.0623366
-0.15384,-0.0372177
-0.16487,0.0289552
-0.286227,0.0469933
-0.282676,0.00390768
-0.166992,-0.0206921
0.00973839,-0.00163334
0.383043,0.0189547
0.602449,0.0248394
0.593317,-0.00779865
0.361282,0.0116333
-0.201015,-0.0111383
-0.575802,-0.0561098
-0.552934,-0.0413211
-0.332696,0.027925
-0.129983,0.0725894
0.0306138,0.0133823
0.0963211,-0.0510231
0.00803726,-0.0151994
-0.0444244,0.0248822
-0.0228668,0.0194587
0.0541224,0.000505203
0.140455,-0.0164926
0.155449,-0.0337863
0.0627204,-0.0183879
-0.0653458,0.0290965
0.0607163,0.0151667
0.214246,-0.0709605
0.127081,-0.0422458
-0.0776169,0.00556656
-0.200083,0.0712736
-0.0942054,0.0899232
0.0953852,0.0512898
0.177555,-0.0073987
0.142069,-0.0347664
0.00296832,-0.0490304
-0.182272,-0.0121043
-0.16547,0.0203522
-0.00608598,0.0062741
0.10029,-0.0420025
0.155219,-0.0126177
0.0805734,0.0450716
0.0189976,0.00994683
0.0289556,-0.0236752
-0.0376808,-0.00107875
-0.0555038,0.0263848
-0.0833366,0.042262
-0.158857,0.0504084
-0.138912,0.0336594
-0.0212741,0.00480733
0.186036,-0.0306267
0.330507,-0.0388061
0.311454,-0.0533384
0.0501122,-0.061062
-0.23648,-0.037817
-0.270445,-0.0091586
-0.28495,0.00335134
-0.15121,-0.0175796
0.075065,-0.0123852
0.0411036,-0.00622218
-0.0770884,0.020444
-0.10769,0.0476945
-0.00333341,0.0199731
-0.00897161,-0.0186228
-0.0253407,-0.00538793
0.136462,0.0342382
0.151996,-0.00706767
0.376296,-0.0249962
0.564132,0.00284416
0.348721,-0.0429736
-0.141408,-0.0223065
-0.7654,0.040857
-0.695624,0.0518746
-0.118454,-0.00321594
0.119291,0.00387423
0.0541553,0.0557079
-0.0369004,0.0479936
-0.0677172,-0.0147354
-0.162775,-0.0253918
-0.168573,0.00567107
0.0287175,0.0139006
0.282235,0.00697394
0.302972,-0.00268995
0.137698,0.0260623
-0.0669099,0.0428086
-0.0660409,0.00967952
0.173323,-0.0268689
0.374194,-0.0218488
0.389105,-0.00497464
0.251348,-0.0156934
0.00206106,-0.0184828
-0.364931,0.0207903
-0.410859,0.0598607
-0.0997165,0.056623
-0.247492,-0.0139138
-0.282602,-0.0584471
-0.0295654,-0.095136
0.0533828,-0.0601246
0.029475,-0.0378654
-0.0800724,-0.0486976
-0.0772577,-0.00786435
0.00367503,0.0341493
0.123949,0.0176461
0.325348,-0.00801493
0.339952,0.00854149
0.0693575,0.0267041
-0.165114,0.053844
-0.384419,0.0525103
-0.359762,0.0138492
-0.0714604,-0.0159828
0.0710911,-0.057679
0.188835,-0.120589
0.309537,-0.0546077
0.302192,0.0652549
0.303831,0.0377742
0.295224,0.00866423
0.268924,0.0537484
0.155741,0.0242513
-0.275937,-0.0176028
-0.50206,-0.0278517
-0.380237,-0.0192069
-0.329225,-0.0353983
-0.124133,-0.0293856
0.0706764,0.032616
0.0423961,0.0474149
-0.1099,0.0114445
-0.223375,0.00979361
-0.107791,0.0118894
0.0213591,0.0380777
0.0774613,0.0560407
0.2215,0.0319556
0.313018,0.0393973
0.244364,0.0277612
0.00340446,-0.00909706
-0.236572,-0.0302676
-0.190853,-0.0429919
-0.0926376,-0.0419009
-0.015224,-0.0296041
-0.024724,-0.00951526
-0.0720233,-0.0180287
-0.0465647,-0.044647
0.0273376,-0.0285061
0.0680445,0.00558807
0.041248,-0.0158696
0.0221932,-0.0163445
0.0420536,0.0306066
0.153205,0.0154664
0.217565,-0.0452774
0.233222,-0.0268437
0.299962,0.0220107
0.256941,-0.0084289
0.136124,-0.0221019
-0.0219,0.00266214
-0.371086,0.0239143
-0.477379,0.0499148
-0.152427,0.0407167
0.165746,0.0253061
0.158592,0.0340953
0.0244122,0.0223642
-0.27557,0.00876916
-0.444759,0.00646669
-0.157758,0.014643
0.127705,0.0124145
0.25056,-0.0118616
0.209497,-0.0198593
-0.0179601,0.0112618
-0.0341339,-0.0146606
0.0429753,-0.0524043
0.0318262,-0.0244183
0.10151,-0.0365383
0.086048,-0.00871754
-0.122285,-0.010774
-0.440686,0.0222774
-0.372107,0.0399641
0.187594,0.0580539
0.478127,0.0208996
0.231073,-0.0571347
-0.0719458,-0.0777975
-0.219109,-0.0174583
-0.152842,-0.00829621
-0.188942,0.00933502
-0.0599836,0.0420383
0.126951,0.0358848
0.0710304,0.018882
-0.10294,0.0103402
-0.194295,0.0296015
-0.034959,0.0116486
0.0379123,0.00182227
0.0176486,-0.0312198
0.0444094,-0.0417853
0.0287904,-0.0328984
0.0496163,-0.00277142
0.121751,0.00829863
0.203822,0.0139194
0.244404,-0.00156108
0.310863,-0.0753116
0.427935,-0.120085
0.440506,-0.0624459
0.19208,0.0495982
-0.13683,0.064034
-0.417046,0.0891404
-0.460496,0.0705612
-0.493613,0.0623833
-0.477609,0.0272491
-0.201934,-0.0392968
0.0445787,-0.036079
0.135888,-0.00416415
0.0547088,-0.00499196
-0.0946189,-0.0226997
-0.130715,-0.0405831
-0.0115076,0.0100484
0.162876,0.0399551
0.246337,0.0156505
0.210414,0.0374617
0.130802,0.0686272
0.0349308,0.0561127
0.000777321,0.00753376
-0.0777986,-0.0797919
-0.0175945,-0.0809222
0.138384,-0.0228364
0.0908442,-0.0249489
-0.0195951,-0.0540254
-0.191083,-0.00062522
-0.150731,0.0409716
0.0159532,0.0256304
-0.0862268,-0.014618
-0.138861,-0.030132
-0.0744832,-0.0308002
-0.0234263,-0.00368649
-0.0540386,0.037604
-0.0733536,0.0440232
0.10839,0.0188075
0.40097,-0.00529333
0.449996,0.0363569
0.257605,0.033296
-0.109387,0.0117034
-0.192348,-0.0645836
0.0250811,-0.10523
0.0473962,0.0175973
-0.186331,0.0747169
-0.270037,0.0314201
-0.150662,-0.00924112
-0.0878676,-0.0258381
-0.064374,-0.0652448
0.00704316,-0.0378473
0.0479221,0.0279264
-0.0264113,0.0131039
-0.078806,-0.0178501
-0.0336326,0.0430242
-0.0278393,0.0543329
-0.0229225,-0.00252826
0.0550233,-0.00830891
0.17542,0.0103376
0.370738,0.0126924
0.414332,-0.0197072
0.168139,-0.0268745
-0.0217513,-0.055087
-0.0997254,-0.0615482
0.00225852,0.0676595
0.317869,0.0333119
0.0503117,0.00768925
-0.416928,0.0346665
-0.507656,0.0493544
-0.367631,0.0249138
-0.265557,-0.033794
-0.0683951,-0.0118964
0.107636,0.0108102
0.0779687,0.00956027
-0.0649029,0.0125607
-0.117009,-0.0172665
-0.020163,-0.0366217
0.106772,-0.0254736
0.16245,-0.0384153
0.252291,-0.0151205
0.34121,0.043274
0.170276,0.030088
-0.0735429,-0.0178
-0.335497,-0.0198501
-0.331249,0.0262419
-0.119932,0.0376857
0.00149704,0.0142693
0.0511694,-0.018114
0.0341396,0.000990525
-0.00377743,0.0121514
0.0259529,0.00114477
0.0740516,-0.00365055
0.0620817,0.0172061
0.188295,0.0459395
0.539061,0.0281063
0.698899,-0.0256592
0.515357,-0.0660807
0.0972922,-0.126658
-0.602919,-0.134996
-0.92985,-0.0800427
-0.58658,0.0288068
-0.207657,0.0609265
-0.086916,0.0419761
0.00910053,0.0492284
0.0456227,0.0481809
0.0840468,-0.0013979
0.0730825,-0.04583
0.00863311,-0.00721792
0.0969709,-0.00504149
0.132057,0.0346194
0.0981929,0.0611528
-0.0550901,0.0287525
-0.208088,0.0226232
-0.0948124,0.0539276
0.0404983,0.064229
0.150245,0.0130611
0.170091,-0.017005
0.127389,-0.053065
-0.0253014,-0.073111
-0.0564814,0.0170602
0.124742,0.0392791
0.268908,0.000861543
0.228178,-0.0569231
-0.0399246,-0.0870772
-0.381072,0.00337419
-0.45333,0.0704632
-0.271492,0.0376253
-0.0117553,-0.0230165
0.178696,0.000696745
0.376336,0.0255197
0.301678,-0.0159041
-0.0243519,-0.0248198
-0.141575,0.00497324
-0.226132,0.0153525
-0.101185,0.0221481
0.157719,0.00733549
0.187261,0.0016448
0.00159794,0.0178791
-0.238051,0.0414837
-0.238513,0.00983797
-0.0954842,-0.0506921
0.0949754,-0.109439
0.21717,-0.126329
0.248994,-0.00771162
0.30371,0.0795826
0.275697,0.0687752
0.0874062,0.0166142
-0.135735,-0.0171136
-0.403353,-0.00708665
-0.382849,-0.0409875
-0.121727,-0.0652471
0.0490818,-0.010962
0.0443287,0.032907
-0.0497382,0.047188
0.00798271,0.0306126
0.0619729,-0.00664518
-0.000979315,-0.00303773
-0.170368,0.0245345
-0.249816,0.0447967
-0.077537,0.0413033
-0.0102359,0.0217608
0.0168983,0.00367638
0.0702258,-0.00163681
0.0147362,0.00811973
0.125363,0.0123656
0.334267,0.00929641
0.315511,-0.00979396
0.15338,-0.0346554
-0.12295,-0.0719785
-0.113398,-0.0589078
0.0366775,0.026396
-0.040847,0.0243282
-0.201597,0.0307612
-0.277308,0.0135944
-0.167937,0.0120507
0.0417054,-0.00962787
0.302743,-0.0704991
0.442885,-0.111938
0.343033,-0.0567137
0.0858031,0.0614962
-0.143229,0.0367492
-0.0829753,0.00367455
-0.0475489,0.0202427
-0.171048,0.0230529
-0.268869,0.0181646
-0.0947689,0.0362421
0.184858,0.0197678
0.20598,-0.00944889
-0.0773625,0.0127685
-0.332694,0.0112179
-0.264635,-0.0154012
-0.0733427,-0.00237913
-0.0567861,-0.0142309
-0.116602,-0.00529127
-0.0401951,0.0153788
0.202359,0.0132399
0.406813,0.0398047
0.208134,0.0156923
-0.281784,-0.0185198
-0.433981,-0.00952974
-0.145873,-0.00132247
0.107685,-0.00858852
0.265789,-0.0292072
0.399117,-0.0826607
0.405271,-0.0682314
0.280259,0.0370305
0.0241765,0.0808233
-0.153184,0.056234
-0.252937,-0.00174713
-0.333134,-0.0390736
-0.276957,-0.0462733
-0.251925,-0.00146859
-0.16237,0.032959
-0.0816998,0.0386212
-0.0511948,0.0118741
0.0553884,-0.0215891
0.146943,-0.00917502
0.210359,0.00835092
0.240316,0.00335749
0.442167,0.00895677
0.576854,-0.00360045
0.385242,-0.0302039
-0.157729,-0.009624
-0.661987,0.0181738
-0.595649,0.0332386
-0.431587,0.0338522
-0.230118,0.0181289
-0.0121525,0.00320702
0.181031,-0.0217391
0.33415,0.00391283
0.342328,-0.0194889
0.32793,-0.0293568
0.307894,-0.0433517
0.15569,-0.0185138
-0.0922031,0.00614229
-0.325226,-0.016866
-0.310324,0.0115682
-0.206739,0.029745
-0.265126,0.0197306
-0.0938162,-0.00259319
0.181667,0.0132047
0.221653,0.0149111
0.00785105,0.00628381
-0.236553,0.0116579
-0.192301,0.0125301
0.0733148,0.000865378
0.1893,-0.0326045
0.104557,-0.0858405
-0.105686,-0.0674584
-0.200514,0.00307793
-0.0608095,0.0527043
0.0525468,0.0414657
0.081577,0.0281165
0.16483,0.0373225
0.205871,0.00731217
0.140545,-0.0373656
0.0163256,-0.0448764
-0.198725,-0.0159931
-0.229102,0.0156226
0.00478431,0.0134549
0.374074,0.0147495
0.507071,0.0243745
0.2971,0.0170583
-0.1213,0.00700326
-0.275718,-0.00617875
-0.122621,-0.00239981
-0.14539,-0.00587423
-0.231002,-0.0398226
-0.221049,-0.089789
-0.138557,-0.0606847
-0.158581,0.0494486
-0.0386433,0.0292865
0.168212,0.0176521
0.258176,0.0239391
0.220965,0.0141755
0.086093,0.00369343
-0.108331,-0.0102103
-0.255565,0.00451965
-0.193907,0.00423961
-0.0697526,0.00939948
-0.0658873,0.026743
0.0815111,0.0204294
0.19953,-0.00775304
0.135772,0.000545343
0.108018,0.0193928
-0.00917183,-0.0128183
-0.175896,-0.0112832
-0.16779,0.0277117
0.018713,0.0302609
0.21752,-0.00303368
0.221252,-0.0232671
0.0345368,-0.0105985
-0.198711,-0.0217974
-0.253637,-0.0462932
-0.173673,-0.0141691
-0.0214697,-0.0657783
0.154094,-0.0964923
0.228061,-0.00835237
0.16426,0.0458027
0.0236314,0.0249615
-0.135743,0.0260518
-0.167305,0.0456593
-0.0764549,0.0513548
-0.0050039,0.0545073
0.0133867,0.028722
0.0228786,0.00547065
0.110151,-0.00605239
0.224487,0.0147696
0.261332,0.0191424
0.223428,0.00866381
0.134108,-0.00682609
0.154542,-0.0273894
0.195868,0.0158235
-0.0710788,0.0531569
-0.645906,0.00658547
-0.584091,-0.00608414
-0.0299451,-0.0275777
0.151226,-0.0537341
-0.0403697,-0.0266686
-0.230635,-0.0138452
-0.173731,0.00253019
-0.205209,0.0253155
-0.205338,-0.0310607
-0.0648542,-0.0924535
0.132999,-0.028727
0.453954,-0.0155229
0.621626,-0.0332888
0.504574,0.0139448
0.223837,0.0611007
0.0212253,0.0870676
0.0760835,0.0625238
-0.0658242,0.0104263
-0.467606,-0.0236997
-0.560262,-0.0555209
-0.343867,-0.0299977
-0.144083,0.0011671
-0.0481696,0.0174718
-0.0229612,-0.00308076
-0.0139464,-0.060176
0.0112369,-0.0460889
0.0786171,0.0104654
0.0748558,0.007372
-0.0145683,0.0280941
-0.11349,0.0341226
-0.114179,0.0402522
0.0607952,0.0342081
0.257085,-0.0139055
0.405063,-0.0328546
0.375411,-0.00319256
0.244285,0.044998
0.0267559,0.0485361
-0.248463,0.003401
-0.239732,-0.00426646
-0.0365134,0.04226
0.202874,0.0530641
0.315296,0.0159169
0.0767739,-0.0623626
-0.327176,-0.0669139
-0.365208,-0.0429614
-0.149915,-0.0363561
-0.0326525,-0.0352428
-0.018116,-0.038258
-0.0946781,-0.0457094
-0.157054,-0.048769
-0.0559526,0.00633618
-0.00438043,0.0495846
0.0866434,0.0550968
0.254696,0.0395386
0.365211,0.0215296
0.219509,0.0146102
0.00688883,0.0133108
-0.0115783,0.0220283
-0.0106296,0.0304547
-0.102907,0.0140218
-0.241042,0.0106414
-0.279977,0.00120261
-0.249923,-0.00691579
-0.198541,0.00106857
-0.102026,0.00761386
0.00316442,0.00524615
0.0565227,-0.0133072
0.0682836,-0.0220237
0.0617164,-0.0240696
0.0802122,-0.0179773
0.180499,0.00397978
0.417486,0.0132753
0.7338,-0.000355888
0.779135,0.00681488
0.359085,0.00970891
-0.289907,-0.0153315
-0.639455,-0.0475339
-0.501358,-0.206706
-0.354066,-0.273717
-0.455321,0.0115381
-0.317775,0.142826
-0.0828332,0.0960061
0.0197551,0.0740166
0.056649,0.0530904
-0.00672231,0.0351934
-0.0729574,0.0350786
0.0410074,0.0456141
0.141299,0.0291737
0.119666,0.0133912
0.14645,0.00624304
0.153358,0.0081988
0.0721436,0.0158789
0.0196896,0.00484885
-0.055629,0.00403478
-0.103104,0.00718601
-0.0359368,0.01192
0.0258545,0.00926926
0.068163,0.00357034
0.137888,-0.0193
0.125963,-0.0200546
-0.0685369,-0.0102701
-0.22613,-0.0228747
-0.190811,-0.0397254
0.00844675,-0.0105286
0.153,-0.00717053
0.195762,-0.0291775
0.114119,0.00790935
0.0286478,0.0426589
0.159272,0.0264181
0.168025,0.0205127
0.0431848,0.0311541
-0.0550242,0.00491499
-0.0978245,-0.0184349
-0.0544223,-0.0282018
-0.247106,-0.0263002
-0.364078,0.00547262
-0.203804,0.0231914
-0.108375,0.00532401
-0.0576038,-0.014131
-0.00105455,-0.0198724
0.0670287,-0.0225101
0.126459,-0.0472698
0.131971,-0.0593562
0.129637,-0.070125
0.0980203,-0.0282335
0.0742453,0.0399844
-0.0872636,0.0729992
-0.265612,0.0803542
-0.151078,0.0644452
0.058154,0.0320069
0.13464,-0.00154567
0.108313,-0.014016
0.130863,-0.0234872
0.175224,-0.0390388
0.150857,-0.0829006
0.0809114,-0.125607
0.00363203,-0.013236
-0.0538013,0.0572767
-0.0850991,0.0618862
-0.122115,0.0437154
-0.132892,0.0580727
0.0798391,0.0630828
0.152092,-0.0166059
0.12772,-0.0326131
-0.00192323,0.00391457
-0.222566,-0.0275494
-0.236597,-0.0504369
-0.119462,0.0322456
-0.0591755,0.0548402
0.0433674,-0.000390069
0.0668813,0.0149334
-0.00222105,0.0204389
-0.105967,0.0109283
-0.0154751,0.0114389
0.17913,0.00088504
0.251512,-0.00506704
0.148603,0.0155566
-0.0632346,-0.00505742
-0.0554497,-0.0342632
0.0933834,-0.0366115
0.110065,-0.00117463
-0.00867583,0.0127868
-0.103636,0.0133186
0.0842318,0.0032274
0.116998,-0.00503433
-0.206394,-0.000185563
-0.356912,0.00860948
-0.161082,-0.00657343
0.13056,-0.0252831
0.271719,-0.057764
0.353777,-0.0982762
0.539791,-0.0596807
0.163473,0.0372467
-0.50794,0.0784164
-0.864867,0.0446804
-0.657649,0.0243233
-0.251719,0.00458289
-0.0192256,0.00702123
0.130349,0.0324536
0.295316,-0.0166506
0.2821,-0.0681072
0.104016,-0.00504865
-0.0986528,0.0269935
-0.164113,0.0278782
-0.0651687,0.00104513
0.222899,-0.011084
0.41477,-0.0173933
0.347082,-0.0309248
0.0246953,-0.0415685
-0.253398,0.0114519
-0.356095,0.0608669
-0.285741,0.031402
-0.083492,-0.0300228
0.113177,-0.0476788
0.330944,-0.00892395
0.519569,0.0396232
0.422799,0.0517138
0.0585462,0.0242798
-0.253233,-0.0236172
-0.306624,0.0373361
-0.0465644,0.0674569
0.305483,-0.0152646
0.233871,-0.0419392
-0.267835,-0.0187226
-0.303568,-0.00730907
0.00972223,-0.00219858
0.0799114,-0.00913209
-0.0789732,-0.0307721
-0.328155,-0.0194825
-0.296499,0.0108306
-0.14863,0.0135947
-0.0619463,-0.00076543
-0.00210904,-0.00698928
0.054663,0.00268791
0.104608,-0.0343533
0.14754,-0.0225955
0.136768,0.0234586
0.0949771,0.0441112
0.119521,0.0558747
0.0828577,0.0351285
-0.00750949,0.000656477
-0.0807962,-0.0182936
-0.127086,-0.00702472
-0.0956789,0.00974707
-0.00696637,0.000506616
0.114469,-0.00197182
0.209585,-0.010899
0.224724,-0.0321912
0.188809,-0.00480165
0.0440243,-0.00550413
-0.0921165,-0.0153632
-0.188718,-0.0298091
-0.197266,-0.0540601
-0.0513964,-0.0162503
-0.0120137,0.0149917
-0.0600497,0.0111249
-0.128468,0.0202854
-0.0212208,0.0103541
0.0904871,-0.0181463
0.0986968,-0.0243158
0.119876,0.0102711
0.110339,0.0256197
-0.0654014,0.0264571
-0.172832,0.00738272
-0.147689,-0.0433655
-0.159983,-0.0376414
-0.152417,0.0170041
-0.0944161,0.0611735
-0.0127059,0.0305486
0.079028,0.00706177
0.137009,-0.0148178
0.174142,0.0104486
0.222907,-0.0261534
0.11059,-0.0337061
-0.123742,0.00770956
-0.28391,0.0327929
-0.285619,0.0364823
0.0379727,0.0271612
0.556121,0.0057056
0.816923,-0.0446054
0.676906,-0.0978603
0.069931,-0.0316447
-0.429689,0.0412179
-0.253606,0.0677037
-0.0184861,0.0521486
-0.12319,0.0200277
-0.560043,-0.0208369
-0.724918,-0.0182792
-0.443987,-0.00982123
-0.167326,-0.0136325
-0.0505124,0.00259515
0.0105463,-0.00469124
0.0534757,-0.0398316
0.119926,0.00200818
0.309021,0.0250143
0.553081,-0.0156939
0.485871,-0.0350507
0.180305,0.0255047
-0.198684,0.0370794
-0.325432,0.0157993
-0.177258,0.011099
-0.153475,0.0108381
-0.0928209,0.00546451
0.0631062,0.00872861
0.172289,-0.004711
0.215505,-0.0347504
0.102086,-0.0155676
-0.0692739,0.0319297
-0.0422844,0.0461655
-0.0586776,0.0254121
-0.11913,-0.0251951
-0.136615,-0.0741082
-0.129729,-0.0427511
0.0509944,-0.016479
0.156374,-0.00241482
0.101292,-0.0104867
-0.00376046,-0.0353135
-0.164098,0.0203775
-0.119891,0.0495564
0.100551,0.026874
0.239877,0.008598
0.349683,0.0158545
0.246296,7.55e-05
0.02535,-0.0507153
0.0460017,-0.0525944
0.10082,0.00076247
0.180566,0.0178378
0.0672011,0.0226666
-0.424671,0.0325664
-0.622049,0.0275038
-0.272245,0.0173908
0.18849,-0.048753
0.357798,-0.0445103
0.133847,-0.00339974
-0.175221,0.0267532
-0.330743,0.0352794
-0.311919,0.0223723
-0.156449,-0.00649656
-0.0417191,-0.0303315
-0.00908809,-0.0138999
-0.0255391,-0.00334538
-0.00521912,-0.00778277
0.119578,-0.0350253
0.183863,-0.0335223
0.249135,0.0276042
0.31533,0.021708
0.232855,-0.00357629
0.296264,0.00356179
0.404623,0.00815192
0.176429,0.00314895
-0.232629,-0.00174013
-0.49094,-0.0067913
-0.493609,0.0369045
-0.305855,0.0362587
-0.124038,-0.0039758
-0.029517,-0.0116107
0.0287357,0.0284819
0.00235605,0.0192564
-0.0594736,0.0127987
-0.0714914,0.0145916
-0.114271,-0.0459909
-0.0959509,-0.0157411
-0.0529687,0.00537463
0.0127737,-0.000443981
0.0632058,-0.00267689
0.101512,-0.00498981
0.0995636,0.00542983
0.120769,0.0167877
0.145825,0.0167446
0.182645,0.0105503
0.277758,-0.00609867
0.305228,-0.0268696
0.223839,-0.0283902
0.0506437,0.00647987
-0.109296,0.0446322
-0.187136,0.036235
-0.13949,-0.00488763
-0.140722,-0.030677
-0.154695,-0.0501614
-0.0212304,-0.054207
0.0729566,-0.0143348
0.122124,0.00441881
0.0140941,-0.0149315
-0.14229,-0.0348563
-0.0883857,-0.00654506
0.0134933,0.0217271
-0.0267562,0.025853
-0.111953,0.0130551
-0.0997164,3.38e-05
0.011064,-0.000966492
0.104559,0.0124798
0.0844868,0.0116351
-0.0255927,0.00383222
-0.135115,0.00460693
-0.159751,0.015879
-0.102456,0.0172465
0.00136585,0.016905
0.04593,0.00407435
0.0788595,-0.0284727
0.062252,-0.0200695
0.0763417,-0.00561769
0.0689699,0.0102073
-0.00337725,0.00867886
-0.00780891,-0.0103311
0.0933146,-0.0159131
0.217347,-0.0170434
0.28405,0.000784775
0.3685,0.0168906
0.168594,0.0146843
-0.152153,0.0156874
-0.335923,0.0136146
-0.493136,0.00477408
-0.373559,-0.00100795
-0.188843,0.0105137
-0.110643,0.00993233
0.0351779,0.00691781
0.105212,0.0178271
0.120692,0.0332972
0.155489,0.0221359
0.00794187,-0.0169001
-0.103073,-0.0289333
-0.0626682,-0.0258893
-0.000201267,-0.0143636
0.00582749,0.00462116
-0.0580965,-0.00409104
-0.0725384,-0.0172399
-0.00604845,-0.0132349
0.123005,0.00222125
0.232763,-0.00188021
0.198358,-0.00247542
0.061936,0.0186531
0.0474857,-0.00743853
0.2478,-0.0406947
0.273233,-0.0335695
0.146474,-0.0149207
0.074462,0.0308397
0.0325576,0.043942
-0.0303528,0.00484052
-0.228857,-0.0352044
-0.384811,-0.0167549
-0.385147,0.0120268
-0.323217,-0.00176126
-0.230449,-0.0512904
-0.121015,-0.046095
-0.0469796,0.0490428
0.0124795,0.0548464
0.0494094,0.00822609
0.112576,-0.0129
0.239737,-0.0195579
0.326661,0.0187027
0.304803,0.0260416
0.0834037,0.00158137
-0.188507,-0.0120343
-0.206426,0.0235998
-0.101945,0.0194795
-0.000745832,-0.000353208
0.104343,-0.0119868
0.197825,-0.0204745
0.165361,-0.0114937
0.0101019,-0.0317232
-0.0464882,0.0106961
-0.171847,0.0221731
-0.250242,0.00684243
-0.0885703,0.00810662
0.197886,-0.000246936
0.361,-0.0207147
0.255807,0.00146668
-0.0778313,0.0256807
-0.365834,0.0154904
-0.380659,-0.00882644
-0.229859,-0.00410127
-0.0942978,0.0015132
0.0150987,0.000805191
0.104098,0.00192213
0.101742,0.00752777
0.0344658,0.0124182
-0.0131905,0.0105461
0.0191358,-0.0440673
0.189905,-0.0519669
0.334981,0.00299659
0.240634,0.0339272
-0.0576927,0.0212695
-0.379992,-0.00880622
-0.265159,-0.0360898
0.100493,-0.0403816
0.221664,0.0118139
0.192619,0.0428102
0.103267,0.0292051
-0.00286034,0.0181095
0.00153851,0.00324541
-0.00863486,-0.015994
-0.0623104,-0.0108567
-0.159963,0.00208006
-0.229017,0.0161424
-0.164276,0.0326439
-0.102879,0.0141425
-0.0922788,-0.000567395
-0.0647647,0.00448751
0.0243394,0.0112733
0.157713,0.000367514
0.283195,-0.0173016
0.322651,-0.0172242
0.174447,-0.0161264
-0.0410236,-0.020708
-0.176227,-0.0187592
-0.144864,-0.0108967
-0.145485,-0.00694039
-0.111556,-0.00830084
-0.000948993,-0.00265004
0.0563946,0.0134063
0.0886251,0.0342521
0.083158,0.0279919
0.0203123,-0.0040832
-0.0892751,-0.0123219
-0.163833,-0.0118103
-0.120879,-0.0110308
-0.0189085,0.00245429
0.0345188,0.0111914
0.00704538,-0.00248794
0.0331083,-0.0111772
0.0899526,-0.00310027
0.045948,0.0070206
0.165094,0.0214273
0.348654,0.0379926
0.257315,0.0137323
0.0991856,-0.0111468
0.0275036,-0.00870407
-0.0961273,-0.00406523
-0.197431,-0.00956865
-0.32335,-0.0159859
-0.365554,-0.00825646
-0.248537,-0.00281508
-0.174307,-0.00502974
-0.126855,0.000933854
-0.0422077,0.0101862
0.062718,0.00249901
0.113915,-0.00544217
0.117109,-0.00960717
0.118272,-0.0160391
0.0897976,-0.0161139
0.0673189,-0.00572136
0.0797733,-0.0129787
0.108235,0.00960941
0.21312,0.0220367
0.209106,0.00552089
0.132113,-0.0076772
0.0396236,-0.00965644
-0.0865824,0.0124795
0.0136623,-0.00446306
0.0819257,-0.0155308
0.049779,0.00664594
0.0236119,-0.00173636
-0.114162,-0.0201301
-0.23948,-0.0005069
-0.223003,-0.00119052
-0.273446,0.000194375
-0.225227,0.00835103
-0.0691041,0.0145447
0.0123977,0.0116179
0.0165817,0.0141234
-0.000775107,0.0184396
0.00205454,0.0156247
0.018093,0.00393993
0.0591334,-0.00452987
0.0712428,-0.00296128
0.0365114,-0.0068931
0.0188374,-0.00534182
0.0123009,0.000853142
0.0727483,0.00198876
0.310568,0.00544258
0.433674,0.00931301
0.309766,-0.0215596
-0.0601781,-0.0425677
-0.391652,-0.0100977
-0.345607,0.0159339
-0.153289,0.0110644
-0.0628299,0.0147754
-0.0407241,0.0217957
-0.0288087,0.0118719
-0.0174016,-0.00595516
-0.0295652,-0.0323664
-0.0598646,-0.0707583
-0.0643314,-0.0630409
-0.0258388,0.011725
0.0253228,0.0268946
0.045255,0.0163249
0.0276792,0.022269
0.0278299,0.030055
0.0626708,0.0252153
0.135007,0.0169398
0.199667,0.0071349
0.135838,-0.00466329
0.0720007,-0.0178226
0.0141672,-0.00415084
-0.0934777,0.00171467
-0.0753795,0.0135341
0.0560077,0.0183486
0.0421028,0.0210634
-0.0273006,0.0354779
0.0566522,0.0323553
0.143164,0.00909343
0.164461,-0.0178831
0.0121801,-0.0231041
-0.280591,-0.0176534
-0.398777,-0.032346
-0.235884,-0.0324719
-0.0570003,0.00535889
-0.0167255,0.00820376
0.00495841,0.0149247
0.0271766,0.0129576
0.0288064,-0.0245319
-0.047839,-0.055445
-0.0958436,-0.0050138
-0.0380143,-0.000337251
0.0372694,-0.029737
0.10356,0.00184819
0.122653,0.013549
0.117928,-0.0303884
0.0638564,-0.0158339
-0.0357889,0.0292613
0.0163535,0.0160815
0.160729,-0.0369982
0.203194,-0.0229795
0.105222,0.00335596
0.0168103,0.0231128
0.00190981,0.0374304
0.0620091,0.0360891
0.0474435,0.0200725
-0.0822927,-0.0272854
-0.204746,-0.0195489
-0.183582,0.0215307
-0.175153,0.0101423
-0.225354,0.0115972
-0.174174,0.0213032
-0.0584989,0.0158836
0.0284596,0.0131698
0.0495364,0.0140414
0.141391,0.01266
0.250358,0.00485938
0.254733,0.00108296
0.148851,-0.0165979
-0.0944107,-0.027943
-0.268227,-0.0164137
-0.193693,0.0203403
-0.113675,0.00970103
-0.048732,-0.0121875
0.0701661,-0.0206122
0.199144,-0.0238445
0.221851,0.0102939
0.164172,0.0251762
-0.0552736,0.015057
-0.174178,0.00704636
-0.059871,-0.000410661
-0.025828,-0.00163637
0.0310022,-0.0112177
0.0501786,-0.00241057
0.0301538,-0.00251797
-0.0107863,-0.00572189
-0.133164,0.000642791
-0.126295,-0.00131374
-0.0158237,0.00563586
0.119521,-0.00309312
0.459209,-0.0241964
0.623306,-0.0297254
0.284772,-0.0238625
-0.153741,-0.000517885
-0.467456,0.0202968
-0.325128,0.0415527
-0.171396,0.0227805
-0.314408,-0.0130704
-0.233919,-0.0211091
-0.0439082,-0.0124412
0.0167137,-0.00368806
0.00264023,0.00410922
-0.00410028,0.00495803
0.0277643,0.00705014
0.0489343,0.0100424
0.0143591,-0.00379059
-0.0384101,-0.0213344
-0.0357742,-0.00340233
0.0647645,0.00716818
0.147682,0.00716507
0.105383,0.010591
0.0154388,0.0132128
-0.0743885,0.00912418
-0.0630609,-0.00167347
0.0342638,-0.00145825
0.0716053,0.00850317
0.119391,0.00289251
0.152716,-0.00262414
0.156203,-0.0247561
0.110679,-0.0226179
0.00408921,0.0337722
0.0119476,0.0241866
0.0289843,-0.0165961
-0.0230066,-0.0380546
-0.0224439,-0.0110989
-0.00691348,0.00186883
0.00533214,-0.00834227
-0.128469,-0.00576121
-0.292157,0.00605509
-0.231529,0.00296423
-0.0762885,-0.011883
-0.0224525,-0.0254003
-0.00495654,-0.00756599
0.0130386,0.00326711
0.0324851,0.0128633
0.0378423,0.0105564
0.0251173,0.00887767
0.00588944,-0.00838452
-0.008177,-0.00910129
0.0368888,-0.000405298
0.118455,-0.00806665
0.151129,-0.00186315
0.124807,0.00384751
0.0744289,-0.00678779
0.0956825,0.0141134
0.111368,0.00734888
0.118298,-0.00232986
-0.0495391,0.0017825
-0.299747,0.00418129
-0.113022,0.0055585
0.0888569,0.008457
0.0831204,0.00856401
-0.0687734,0.010491
-0.214013,0.0203531
-0.202301,0.0146048
-0.135235,-0.00863359
-0.099551,-0.0101745
-0.0581992,0.00332415
-0.0160344,0.0073903
0.00520476,0.00693884
0.0238874,0.00976885
0.0334477,0.0127763
0.0543429,0.0139755
0.0934206,0.00798255
0.105497,-0.000630108
0.0577899,-0.01028
0.00983013,-0.010579
0.0218209,-0.00877109
0.0520045,-0.00639104
0.0762477,-0.00281246
0.132829,-0.00461234
0.196439,-0.00797781
0.143655,-0.0173972
0.0155225,-0.00731706
-0.113756,0.00389181
-0.213521,-1.85e-05
-0.197918,0.00671802
-0.0943085,0.0165552
-0.060159,0.00711296
-0.0478042,-0.00258127
-0.0162148,-0.0104486
0.0108402,-0.0145891
0.0152198,-0.00816218
0.00746836,0.000619683
0.0195056,0.00746556
0.0631813,0.00457033
0.152488,0.00591682
0.222863,0.0113772
0.191103,0.00575869
0.0374218,-0.00416188
-0.197081,-0.00981907
-0.299995,-0.012871
-0.213977,-0.0706228
-0.148986,-0.0532209
-0.0991826,0.0251268
-0.0305853,0.036971
0.0526227,0.0181447
0.094906,0.00185949
0.0781913,-0.0128335
0.058341,0.00665678
0.139081,0.0119616
0.264764,-0.00449237
0.258239,-0.0102851
0.142291,0.0206676
-0.0679889,0.0268756
-0.0845904,0.0110747
0.146726,0.0126432
0.139133,-0.0112216
-0.0874283,-0.00345752
-0.273378,0.00377637
-0.296926,-0.0188662
-0.189262,-0.0225897
-0.117197,-0.0103102
-0.0964677,0.0188117
-0.038397,0.0185903
0.0233021,-0.000501155
0.00483116,-0.0133641
-0.0335796,0.00168415
-0.0256552,0.00634413
0.00373855,0.00438197
0.0155237,0.00764678
-0.00491758,0.00931383
-0.0303593,-0.00144402
-0.017256,-0.0106094
0.0474617,-0.00840907
0.13339,-0.00116736
0.159519,0.0183464
0.12619,0.0125714
0.0676744,-0.002607
0.00784997,0.00206058
0.0901665,0.00455399
0.159369,0.00234761
0.0761554,-0.00252715
-0.0289319,-0.00289986
-0.131251,-0.00406577
-0.206061,-0.00711369
-0.141869,0.0011618
-0.0604414,-0.000761915
-0.0655396,-0.00361137
-0.0662323,-0.0200734
-0.0276654,-0.0145004
0.105217,0.00651359
0.174379,0.00873725
0.167394,0.00910766
0.118004,0.0125655
-0.0304475,0.0183633
-0.0478907,0.0219516
0.00609619,0.0139457
-0.0290999,-0.00373664
-0.0644476,-0.00950701
-0.0361548,-0.00849287
-0.014264,-0.00845971
-0.010665,-0.0128142
-0.0261734,-0.00838654
-0.0464213,-0.0288582
-0.083389,-0.00543158
-0.129639,0.0106419
-0.0727898,0.0185016
0.0199332,0.024074
0.0447569,0.0163839
0.0378246,0.00455319
0.0445579,-0.0133703
0.0340551,-0.0253182
0.0175056,-0.0157919
0.0352007,-0.00775009
0.0479439,-0.0165349
0.042844,-0.0232198
0.000976225,-0.0143505
-0.0442839,-0.00581428
-0.0223839,-0.00629805
0.0244913,-0.00490357
0.0232629,0.00385672
0.0463354,0.00571454
0.161827,-0.0029479
0.314679,0.00159877
0.209659,0.0141713
-0.0855272,0.0125763
-0.311957,-0.00132546
-0.31751,0.0100232
-0.152571,0.0093903
-0.0324078,-0.00711089
0.0342815,0.0062368
0.000193397,0.000185008
-0.0573666,-0.0080491
-0.0442638,0.00197553
-0.00172079,0.00854297
0.0352063,0.0131061
0.0650196,0.0161486
0.11211,0.0170565
0.102633,0.0083078
0.0165369,0.00249582
-0.0761946,0.00190295
-0.117253,-0.0061705
-0.0519136,-0.00335176
0.0525944,0.00991892
0.0827832,0.00711733
0.0789668,0.00891192
0.0766044,0.0152091
0.0789607,0.00907089
-0.0038395,-0.00906896
-0.101932,-0.0501913
-0.113518,-0.0524386
-0.0769212,-0.0256243
-0.0887736,-0.0149755
-0.063517,0.00351291
0.0316834,0.00612135
0.0856184,-0.0054016
0.0539058,0.00540481
-0.0614023,0.0212217
-0.143853,0.00265378
-0.0904228,0.00902523
0.00812809,0.0306339
0.103916,0.0344064
0.164209,0.0152172
0.163121,0.00505162
0.107374,-0.000476618
0.00416713,-0.00855324
-0.0656152,-0.0128235
-0.0524333,-0.0155178
-0.0455165,-0.0126298
0.00679155,-0.00219456
0.116852,0.00515619
0.136341,-0.00333498
-0.0034157,-0.00501034
-0.188423,-0.000574597
-0.22125,-0.0011697
-0.0805892,0.0115161
0.0281798,0.0131245
0.0305579,0.022921
0.03181,0.0278508
0.10768,-0.00256669
0.143906,-0.0253345
0.0625585,-0.0183079
-0.0571541,-0.00108231
-0.107478,-0.000900612
-0.107027,-0.0124861
-0.0766819,-0.0120789
-0.0549672,-0.00532598
-0.0368683,-6.2e-05
-0.00480284,-0.00455556
0.0278139,-0.00663669
0.0417963,-2.76e-05
0.0260037,-0.00823639
0.0250046,-0.0330943
0.0902063,-0.0310929
0.112835,0.0189137
0.0654828,0.0207396
0.00267327,0.0208956
-0.0334122,0.0306148
-0.0386487,0.0246255
-0.052362,0.0140675
-0.056581,0.00636246
-0.0435072,-0.00124107
-0.031378,-0.00567233
-0.0208263,0.00199947
0.0461481,0.0054409
0.103926,-0.00814514
0.125025,-0.0217223
0.0969339,-0.0195773
-0.0634997,-0.00680439
-0.120586,0.0135155
-0.0482476,0.0243435
-0.0214015,0.00442567
0.0221722,-0.00144166
0.0654838,-0.00689222
0.0481968,-0.00495497
0.0175981,0.00465537
0.0376037,-0.0323177
0.0607729,-0.0369081
0.00495388,-0.00353062
-0.0754846,0.00155992
-0.148152,0.00566746
-0.160799,0.0146496
-0.120231,0.00686211
-0.0643915,0.00763357
-0.00791551,0.0174685
0.0366169,-0.00813797
0.0686987,-0.0145631
0.06729,0.023287
0.0452961,0.0279194
0.0449122,0.0227117
0.0657498,-0.00368959
0.0578726,-0.00262687
0.0317915,-0.00453033
-0.0201306,-0.0112453
-0.0763942,-0.015361
-0.063182,-0.0128452
-0.00975553,-0.00204649
0.0304665,0.00604674
0.012513,0.00323495
-0.0647876,-0.00277077
-0.113478,0.00196027
-0.0261967,-0.00292837
0.0681807,-0.00613459
0.0716428,0.000124781
0.104943,-0.000721468
0.185602,-0.00899016
0.144355,-0.0140444
-0.00220615,-0.0187833
-0.167203,-0.0212985
-0.170483,-0.0170334
0.0929039,-0.012034
0.250223,-0.0225332
0.170682,-0.0324938
0.00706166,-0.0270618
-0.103279,-0.0166702
0.0496981,-0.0191033
0.0905147,-0.0208678
-0.0915988,-0.0177149
-0.204475,-0.00975724
-0.256876,0.012002
-0.260768,0.0261324
-0.141286,0.0201173
-0.071342,0.0208799
-0.0396642,0.0258847
0.00721631,0.0219571
0.0471858,0.0198337
0.0504048,0.0269388
0.00944525,0.0306441
-0.0772323,0.0206024
-0.0901722,0.00842658
-0.0207424,-0.006679
0.0584144,-0.00578743
0.114216,0.0282362
0.13618,0.045121
0.155928,0.0575633
0.153555,0.0657339
0.126044,0.0715437
0.0816368,0.0725805
0.0355847,0.0679729
0.0467102,0.0507913
0.0505088,0.0313342
0.0192625,0.01197
-0.0791479,-0.00671577
-0.12113,-0.0195899
-0.0596977,-0.0302098
-0.0297857,-0.0352131
-0.0705407,-0.035304
-0.168935,-0.0377894
-0.189401,-0.0432206
-0.0938767,-0.0499567
0.00896281,-0.0503929
0.123096,-0.0440356
0.114069,-0.0448737
0.0461672,-0.0469595
0.0283795,-0.0393056
0.016922,-0.0328832
0.0836252,-0.0313061
0.160847,-0.0264532
0.165327,-0.0118689
0.102853,0.00909432
0.0229659,0.0172153
-0.0276747,0.0020224
-0.048909,0.00109349
-0.046925,-0.00124333
-0.0506146,-0.00176713
-0.0731857,-0.00399038
-0.0859447,-0.00417044
-0.0690047,0.00859463
-0.0331842,0.0143183
-0.00308239,0.0204126
0.006347,0.0214398
0.00154061,0.0127107
0.000395199,0.00433107
0.00994671,-0.00334177
0.0133309,-0.0139258
-0.0353871,-0.022542
-0.0750513,-0.0333194
-0.0956017,-0.0334582
-0.10031,-0.00571582
-0.0631411,0.0124177
-0.0118579,0.00497255
0.0112893,-0.0130433
0.0366662,-0.0196933
0.0593008,-0.00841015
0.0814941,0.00802225
0.0917363,0.0196224
0.0896216,0.0259924
0.0761885,0.0270081
0.0151077,0.0219742
-0.0301555,0.0174951
-0.0189144,0.00889842
0.0327342,-0.00458473
0.0744214,-0.0134224
0.0591696,-0.0133116
0.0172216,-0.0108418
-0.00891605,-0.00778505
-0.0164239,-0.000427642
-0.0772798,0.00373003
-0.254973,0.000203228
-0.300959,-0.00798485
-0.212964,-0.00279122
-0.0649021,0.015372
0.049201,0.0220612
0.153627,0.0184551
0.204895,0.0145122
0.15187,0.00903042
0.081294,-0.00342041
0.0535781,-0.0183967
0.0347866,-0.0230506
0.0205171,-0.0181754
-0.0278379,-0.00503222
-0.0233846,0.00344165
0.0134353,0.0111978
0.0543044,0.0174056
0.0954071,0.0189693
0.0835179,0.0203435
0.0473224,0.021537
0.00204627,0.0227685
-0.0262679,0.0266387
-0.0372632,0.0240485
-0.0392484,0.0239479
-0.0376393,0.0229936
-0.0324151,-0.00083649
-0.0182802,-0.0145348
-0.00786294,-0.0124071
-0.00170789,-0.0193934
-0.000395493,-0.0158664
-0.00756763,-0.000641042
-0.0649891,0.00375658
-0.113155,0.0042322
-0.104369,0.00283122
-0.0163076,-0.0030892
0.0688611,-0.0167057
-0.00238715,-0.0375362
-0.265985,-0.0564729
-0.345408,-0.0602627
-0.295304,-0.032372
-0.0871672,0.0119004
0.273319,0.0224056
0.52834,0.00828926
0.428509,0.00191698
0.284617,-0.00254319
0.107779,0.00338936
-0.0654459,0.0204721
-0.0813994,0.0316616
-0.0650986,0.0429899
-0.0344512,0.0533611
-0.0153984,0.0573342
-0.031238,0.0380626
-0.0402957,0.00910078
-0.023959,-0.0107986
0.0047275,-0.0115066
0.0122382,-0.0139327
-0.00065406,-0.0183914
-0.024715,-0.0193402
-0.0402971,-0.0215297
-0.0413583,-0.0215786
-0.075587,-0.0305049
-0.200001,-0.0447492
-0.29302,-0.0468919
-0.169995,-0.0287191
0.0319648,-0.00592263
0.248836,0.0156685
0.352919,0.0296581
0.326279,-0.0213087
0.194558,-0.0444325
0.012971,-0.0115254
-0.158921,-0.00463695
-0.20098,0.000466376
-0.152907,0.00625352
-0.0417561,0.0222724
0.0448781,0.024915
0.0645028,0.0195501
-0.00514225,0.021483
-0.0260163,0.0151116
0.0205032,0.00983494
0.0466444,0.00802654
0.0514944,0.00678484
0.0392815,0.0171632
0.013728,0.0267233
-0.0238105,0.0144752
-0.050899,0.0125236
-0.0361064,0.0140732
0.017613,0.00475689
0.0609911,-0.00344913
0.0403555,-0.0307568
-0.0300073,-0.0484145
-0.238097,-0.0442165
-0.363777,-0.0327062
-0.275499,-0.0113207
-0.0139593,0.00655627
0.168941,0.015626
0.232546,0.0214077
0.208067,0.0272891
0.161476,0.0258581
0.0957157,0.0248342
0.0451272,0.0267346
0.0322835,0.0274972
0.0205536,0.0143033
-0.00199978,-0.00245833
-0.0204943,-0.00837037
-0.0258613,-0.0140787
-0.0194568,-0.0190995
-0.0150661,-0.0234118
-0.0163151,-0.0321082
-0.0307899,-0.0349576
-0.0426248,-0.0251713
-0.045385,-0.0226344
-0.0451124,-0.0232435
-0.0474712,-0.01264
-0.0456679,0.00478844
-0.038636,0.0127116
-0.0186107,0.0225494
0.00188514,0.0334708
0.000215787,0.0317705
-0.00992536,0.0144499
-0.00997829,-0.00236683
0.0262958,-0.00799419
0.0661983,0.000588979
0.0817426,0.000683717
0.0620065,-0.0213702
0.0078454,-0.0261988
-0.0370517,-0.014281
-0.0492198,-0.00350003
-0.0213553,-0.00709465
-0.00417078,-0.00371055
-0.00524462,0.00880185
-0.0166731,0.0221384
-0.0315038,0.0287138
-0.0206392,0.0324157
0.0271756,0.0327832
0.0730548,0.0254533
0.113197,0.00416228
0.188071,-0.0111815
0.138352,-0.0169635
-0.00675255,-0.0256502
-0.195344,-0.0356136
-0.33331,-0.0250422
-0.261389,-0.000985143
-0.0516279,0.00136678
0.109855,0.00817378
0.150374,0.00281914
0.134827,0.00224963
0.0806049,0.0147655
0.0211044,0.0235429
-0.0198313,0.0224145
-0.0317037,0.0191776
-0.0179153,0.0237371
0.000205256,0.0150485
0.00979146,-0.0103865
0.0264623,-0.0244692
0.0441111,-0.0295516
0.0532823,-0.0287966
0.0587356,-0.0170821
0.035982,-0.00921954
-0.0108625,-0.00917229
-0.0530492,-0.00706692
-0.04424,-0.0121727
