Comp Ch 3,Comp Ch 4
0.425349,-0.0250204
0.2333,-0.0408193
-0.0348716,-0.0419617
-0.163609,-0.0529198
-0.405884,-0.0142792
-0.320183,-0.00416693
-0.0468134,-0.00571592
0.0819569,0.000258383
0.218421,0.0349965
0.315068,0.0369749
0.394561,0.0164422
0.317591,-0.000511385
-0.104703,0.00433259
-0.427253,0.0456036
-0.215211,0.0440261
-0.0170136,-0.0443313
-0.0752987,-0.163204
-0.0993374,-0.178021
-0.0580604,0.125786
-0.0881728,0.150052
-0.0964292,0.0686575
0.0100999,0.0355449
0.264277,7.79e-05
0.607598,-0.0283513
0.848626,-0.0554654
0.768284,-0.0201207
0.374695,0.0341956
-0.191988,0.0465866
-0.677366,0.0428853
-0.922777,0.0215885
-0.577616,0.0147115
-0.186614,0.0256176
-0.0114891,0.0245058
0.115358,0.015216
0.0827992,0.00793134
-0.173947,-0.00198496
-0.137061,-0.0359826
0.174837,-0.0368077
0.392468,0.000409365
0.222766,-0.00939855
-0.248408,-0.0401598
-0.607881,-0.0171609
-0.407475,0.0128337
0.0127248,0.0113095
0.0422855,0.02268
-0.0241049,0.0163142
0.0403157,-0.0200075
0.0441472,-0.00845052
0.0658995,0.00728477
0.0647919,0.00614947
0.062626,0.00825363
0.0959998,-0.0140366
0.157556,-0.0212987
0.103547,0.0111475
0.0198385,0.0287607
0.0928758,0.000798121
0.202917,-0.0477933
0.219561,-0.0600524
0.160394,-0.0522467
-0.137132,0.0233156
-0.182306,0.0440041
0.186784,0.0053169
0.382249,-0.00351175
0.440284,-0.0216795
0.390804,-0.00851022
0.0261836,0.0188524
-0.329396,0.0235036
-0.438305,0.0342309
-0.419022,0.0418871
-0.381773,-0.0090827
-0.250897,-0.0603048
-0.148148,-0.0716151
-0.153661,-0.0113599
-0.124561,-0.0247665
-0.068761,-0.0252613
-0.0471383,0.0189591
-0.0915711,-0.0292602
-0.0855153,-0.0135308
-0.0612107,0.0717612
0.0826241,0.0782873
0.308064,0.0395831
0.407164,0.00475112
0.388127,0.00481284
0.228001,-0.00393748
0.254552,-0.0103169
0.246361,-0.0311661
0.314129,-0.0323264
0.25343,-0.0350424
-0.222562,-0.007821
-0.61327,0.0242868
-0.746977,0.0180853
-0.344817,0.00672877
-0.000262514,0.0113347
0.0878341,0.00896477
0.0426763,-0.0190106
-0.0318001,0.00570506
-0.0183641,-0.0304741
-0.0663412,-0.0186321
-0.0737441,0.0608535
0.0027172,0.0334166
0.0860617,-0.0422707
0.00122212,-0.0276549
-0.0779795,0.0338743
0.00904824,0.0238064
0.110312,0.0265951
0.0949542,0.0247288
-0.0219107,0.00454656
0.0309144,-0.00536628
0.177344,-0.00620218
0.0977098,0.000777643
0.115614,0.00596645
0.374748,-0.00511399
0.469311,-0.0166662
0.313655,-0.0704229
-0.150471,-0.0588015
-0.498908,0.00955242
-0.334727,0.0312094
-0.146323,0.0304659
0.0490547,0.00908215
0.0864125,0.00121564
0.0443326,0.0172679
-0.231161,0.0371579
-0.377437,0.0348054
-0.168128,0.011999
-0.119493,-0.0174551
-0.0621003,-0.047803
0.0332027,-0.0240882
0.074722,0.0046604
0.175761,0.00305195
0.267053,-0.00779909
0.243896,-0.0320349
0.147533,0.00214574
0.0963148,0.0210164
0.00491106,0.00201445
-0.105421,-0.00699702
-0.148353,0.0219937
-0.27582,0.0166643
-0.26963,-0.00411363
-0.138503,-0.0352386
0.0686546,-0.0193598
0.190135,-0.0143016
0.162682,-0.00344142
0.0102043,0.0151878
-0.0442478,0.00823779
0.0557974,0.0138746
0.273091,0.0272478
0.45505,0.0275881
0.372818,0.00917508
0.0146312,0.00409253
-0.35377,0.0119249
-0.546493,0.0220041
-0.416036,0.0123155
-0.115814,-0.0106492
0.121135,-0.0175999
0.209701,-0.0267435
0.0871482,-0.091679
-0.206605,-0.105755
-0.26834,-0.00503463
-0.13535,0.027897
-0.0532543,0.0535453
-0.00230667,0.0443445
0.0299118,0.0250084
0.0460973,0.0117233
0.0792425,0.0010285
0.133799,-0.00872209
0.183091,-0.0137432
0.255895,-0.00916173
0.265888,0.00200292
0.315654,0.00663818
0.124861,0.00724563
-0.233346,-0.00220457
-0.255529,0.0154306
-0.151512,0.0261801
-0.0910545,0.0155053
-0.0774246,-0.00217749
-0.0964025,-0.0148994
-0.0758801,-0.0227357
-0.0323429,-0.0313671
0.0168381,-0.035705
0.0578652,-0.0358079
0.0818903,0.011137
0.158205,-0.0163331
0.158743,0.00398506
0.0386424,0.0296772
-0.161641,0.0110874
-0.2112,0.0082611
-0.0688628,0.0306043
0.0740769,0.0346326
0.0722554,0.0114481
0.111467,-0.00442554
0.159598,-0.0136379
0.0269711,-0.0205071
-0.0331542,-0.0286748
0.114669,-0.0159761
0.0729321,0.0439438
-0.179825,0.0411468
-0.320524,0.0127944
-0.262461,-0.0286223
-0.124596,-0.0830764
-0.0549049,-0.0244262
0.0327061,0.0327385
0.0693211,0.0324782
0.0625669,0.0249647
0.0406187,0.0190407
0.0408469,0.0112838
0.075539,0.00804503
0.0697648,0.00171074
0.0348806,0.00797661
-0.0299597,0.010845
-0.0962222,0.0146258
-0.0461939,0.02747
0.09174,0.0237107
0.26248,-0.0202027
0.271199,-0.0253215
0.188022,-0.0150639
-0.052853,-0.0335101
-0.169324,-0.0402755
0.000475279,-0.0267369
-0.0441643,-0.00881276
0.00545502,0.00455635
0.259499,-0.0053092
0.227649,-0.0169916
-0.117379,0.0127273
-0.397725,0.00382068
-0.449413,-0.0255754
-0.346587,0.0088102
-0.143676,0.0249829
0.0683292,-0.0319779
0.368431,-0.0255061
0.530987,0.00883564
0.3341,0.0350421
-0.0823775,0.0415454
-0.409512,0.0135552
-0.144112,-0.0350918
0.112188,-0.00906845
0.0302634,0.0394663
-0.11096,0.0291957
-0.180714,0.00176528
-0.218053,0.0189669
-0.0797798,0.0351424
0.0494203,0.000380894
0.102885,-0.0250912
0.15426,-0.0329763
0.172448,-0.0184499
0.0571495,-0.0058941
-0.146399,-0.00546274
-0.225545,0.00367047
-0.162771,0.00970771
-0.0573987,-0.000515999
0.0327279,-0.00766223
0.0281123,-0.0246319
0.0220806,-0.0463585
0.0903874,-0.0010687
0.217769,0.0143935
0.197164,0.0252938
0.130653,0.0279858
0.107062,-0.0264134
0.0346564,-0.00798125
0.0176036,0.0219518
0.0323571,0.0240787
-0.0696388,0.0268281
-0.156206,0.0266777
-0.138615,0.0140244
-0.155892,0.00853899
-0.0814651,-0.00875083
0.046879,-0.0152601
0.0477541,-0.0125068
-0.0262047,-0.019445
-0.101835,-0.00724127
-0.115553,-0.0021411
-0.051643,0.0119837
0.0298507,0.0222094
0.12188,-0.0204751
0.21248,-0.0682994
0.187693,-0.00342302
0.117779,0.0145919
-0.0018038,0.00567259
-0.104989,0.00258233
0.0040192,0.00531035
0.0715481,0.0110073
0.0344747,-0.00432704
0.056401,-0.0414614
0.0380922,-0.0169346
0.158683,0.0172277
0.360975,-0.00340464
0.130607,-0.0312318
-0.378622,-0.00347457
-0.513125,0.00944345
-0.364756,0.0210324
-0.218645,0.0351809
-0.0765875,0.00768562
-0.00209564,-0.00332243
0.0641126,-0.00106147
0.0863919,-0.00247912
0.0917671,0.0141737
0.0902328,0.0199932
0.00623599,0.00569917
-0.0180658,-0.00203017
-0.0775549,0.000332364
-0.144807,-0.013341
-0.0772782,-0.0186573
-0.0297324,0.00736693
0.0277838,0.0116894
0.0706399,0.0122069
0.113108,0.00150203
0.18798,-0.00695306
0.220634,-0.00428395
0.137518,0.00450185
0.00200872,0.00175564
-0.147295,-0.00145173
-0.0715568,0.0112951
0.0499098,0.0224654
0.0305388,0.0154177
-0.0512644,0.00815362
-0.13444,-0.00805091
-0.0571486,-0.023033
0.0323033,-0.012332
0.118024,-0.00728827
0.119654,-0.0270042
0.0457896,-0.0144407
0.195611,-0.0243161
0.359148,-0.0667878
0.234773,-0.0286666
-0.163007,0.0318871
-0.32408,0.0304976
-0.0634477,0.0177799
0.130375,0.00343327
0.0104245,-0.0125692
-0.219132,0.0110287
-0.413866,0.0124015
-0.305972,-0.000109742
-0.125871,0.00350798
-0.0286633,0.00751106
0.0377286,0.0332007
0.0771578,0.0327616
-0.00601409,0.0172506
-0.0954553,0.0110404
0.0942431,-0.00502075
0.275562,0.00647931
0.2607,-0.0085387
0.184151,-0.0303112
0.0514598,0.0091193
-0.0249423,0.0502998
-0.091651,0.0253903
-0.181147,-0.0585627
-0.10322,-0.0458033
-0.0446948,-0.0120746
-0.0732949,0.00222118
-0.0556034,0.00421716
0.0148137,-0.0355001
0.0880497,-0.0207788
0.063569,0.0231836
-0.0179749,0.00995126
-0.0301637,0.00307325
0.109754,0.0136177
0.180914,0.015747
0.0902497,-0.00480996
-0.106327,-0.0363191
-0.117022,-0.0379105
0.0653539,0.0135748
0.0651159,0.0422866
-0.128712,0.0114185
-0.198346,-0.0213472
-0.111936,-0.0349934
-0.0422251,-0.0401061
0.0212516,-0.00400469
0.233753,0.0178986
0.399281,0.027263
0.347033,0.0173267
0.0155445,0.00940455
-0.314,0.0144821
-0.277164,0.0152546
-0.0927537,0.00678125
-0.0877206,-0.00229459
-0.164646,0.00840438
-0.0598641,0.0166775
0.0481531,0.0146041
0.0442449,0.00955126
0.0140902,0.00877133
-0.0174239,0.00909486
0.0931479,0.00573767
0.185201,-0.000536888
0.0504544,0.000445333
-0.125473,-0.0127066
-0.138301,-0.0117599
0.542712,-0.0732596
0.611869,-0.0265178
0.144024,0.0438857
-0.43197,0.012624
-0.567027,0.00235289
-0.410704,0.00108662
-0.160326,0.00166619
-0.0337828,-0.0156197
0.0242242,-0.0103831
0.0469118,-0.00653213
0.0330352,-0.0103026
-0.000975949,-0.0166755
0.0342477,0.0150926
0.133049,0.0259425
0.160539,0.0221031
0.0702079,0.0191853
-0.120314,0.0108548
-0.225968,-0.0103706
-0.145425,-0.0385263
0.00950672,-0.0290985
0.113573,0.0157293
0.165408,0.0183824
0.240738,-0.000746956
0.192405,0.00835381
-0.025212,-0.00188164
-0.114756,-0.0205836
0.0127568,-0.0528123
0.10711,-0.0215712
0.119308,0.00395006
0.0321023,0.0204548
-0.0879801,0.0428808
-0.0584835,0.0348506
-0.166175,0.0221341
-0.284805,0.00209378
-0.128945,-0.0102878
0.0274424,-0.0103884
0.0180452,-0.00307123
0.00929448,-0.0065931
0.0271909,-0.00258668
0.0853135,0.00408414
0.165983,0.016744
0.194038,0.00989737
0.0823886,-0.0151919
-0.115556,-0.00823623
-0.199924,0.00830573
-0.120664,-0.00365723
0.031686,-0.0183145
0.119594,0.0116484
0.0900911,0.0241322
-0.0215507,0.0094567
-0.084789,-0.00551452
0.0853854,-0.00845069
0.162585,-0.0170926
0.0888858,-0.0230996
0.0728168,-0.0238991
-0.00815928,-0.0151091
-0.0962239,-0.00157213
-0.175492,0.00565038
-0.143678,0.015443
-0.045219,0.0175669
-0.0343374,0.0177147
-0.0888444,0.0142163
-0.0929512,0.00500134
-0.0293096,-0.00125067
0.0416951,-0.0272849
0.0315961,-0.0274709
-0.100244,0.0266195
-0.125375,0.0268167
-0.00782065,0.0132632
0.0651744,0.00393068
0.112612,-0.0144137
0.15019,-0.0132912
0.154517,-0.00706302
0.0902499,-0.0198467
0.0473825,-0.00111669
0.125953,0.0236523
0.217253,0.0140091
0.158611,-0.00328844
-0.0300151,-0.00298202
-0.0361308,-0.0275632
0.00618159,-0.0673709
-0.0587157,-0.0265346
-0.191824,0.0269661
-0.3281,0.00674339
-0.247792,0.00257852
-0.0680602,0.0258441
-0.022195,0.0170406
-0.0103394,0.00504864
0.0307875,-0.00193201
0.0858583,-0.0049843
0.0652223,0.00172687
-0.0126279,0.0049818
-0.057043,0.00114421
-0.00902106,0.0134423
0.0564075,0.00553145
0.0567418,-0.00951043
-0.0598297,-0.0311706
-0.0901473,-0.00461474
-0.0284394,0.0376011
0.0455143,0.0283515
0.0611107,-0.00086608
0.0492681,-0.00298547
0.0393232,-0.00877041
0.0256756,-0.0121379
0.0320386,-0.00658729
0.125453,-0.0118904
0.165166,-0.0146522
0.097839,-0.00835358
0.0312908,0.00275408
-0.0444356,0.0492267
-0.0445223,0.0115323
0.0225746,-0.0079668
0.0236355,-0.0192746
-0.0196644,0.0020563
-0.0955141,0.0202494
-0.190545,0.012177
-0.137747,-0.00422841
-0.0587988,0.00491067
-0.00408693,0.0170129
0.0673863,0.0105717
0.050898,-0.00366513
0.00693738,-0.000724572
0.0161118,0.0103556
0.0428434,0.0150996
0.0479864,-0.0207946
0.0393357,-0.0180221
-0.0203132,0.0234345
-0.0657963,0.00432423
-0.046527,-0.0191801
-0.0293443,-2.15e-05
-0.0573752,-0.0169272
-0.053374,-0.0524489
-0.0161603,-0.0225659
-0.00786517,-0.0576571
0.0209769,-0.0196298
0.0351263,0.0219039
0.0582562,0.036603
0.0872178,0.0194431
0.0952674,0.00712858
0.138257,0.0103889
0.0758329,0.011838
-0.0608469,0.0178114
-0.10509,0.0202169
-0.0335457,0.0114927
-0.00412886,0.00392733
-0.023296,-0.004528
0.0829481,-0.02344
0.0405553,-0.0199483
-0.0461614,0.00134074
0.0423695,0.0158217
0.0223097,0.00204409
-0.0453474,-0.0331299
-0.0190667,0.0114861
0.00538388,0.00079859
-0.119785,-0.0277929
-0.185016,-0.0233981
-0.12457,0.00948345
-0.110989,0.0321778
-0.0291618,0.0296828
0.11291,0.0210278
0.122396,0.00355074
0.0370318,0.0237068
-0.133622,0.0243964
-0.203703,-0.0161037
-0.0206512,0.00686614
0.104577,-0.0174891
0.123051,-0.0525836
0.102334,-0.0638483
0.0360975,-0.0256869
0.0688757,0.011232
0.247456,-0.025935
0.291637,-0.00727599
0.14601,0.0254597
-0.0831334,0.0345383
-0.323627,0.0249816
-0.329388,0.0199378
-0.204976,0.0154081
-0.0813499,0.00804297
0.00413093,0.0291841
0.0735036,0.0198163
0.124766,0.00198611
0.107454,-0.00132079
0.105897,-0.00815463
0.150405,-0.00503347
0.126766,0.00761247
0.0199711,0.00641435
-0.070962,0.0154531
-0.0646316,0.0155882
-0.0521197,-0.0036262
-0.0398196,-0.0142095
-0.0558525,0.00278822
-0.0204499,0.0282939
0.0267609,-0.0249414
-0.0662603,-0.109801
-0.231349,-0.0231491
-0.18999,0.0337172
0.00801776,0.0394716
0.178369,0.0232413
0.270356,0.0245326
0.224458,0.00782134
-0.0114089,-0.0360097
-0.258932,-0.0422675
-0.146106,-0.0215984
0.0861061,-0.04229
0.27479,-0.0371004
0.259802,-0.0514791
0.177454,-0.0949806
0.0632081,0.044897
-0.226173,0.110835
-0.302587,0.0577225
-0.157151,0.00172569
-0.143811,-0.0228512
-0.0800492,0.0074089
0.0836006,0.0200316
0.175706,-0.0165315
0.152283,-0.0143087
-0.0341657,0.0131867
-0.0407094,0.0181334
-0.139309,-0.0326195
-0.30443,-0.03173
-0.195947,0.0393371
-0.016738,0.0543556
0.136263,0.0296057
0.196397,0.011065
0.129276,0.00417537
0.0267036,-0.00476838
0.0224234,-0.00276841
0.0306037,-3.08e-05
0.00253128,-0.0380261
0.113007,-0.071286
0.27494,-0.0613464
0.0950067,0.00600443
-0.290565,0.0616269
-0.344824,0.0434712
-0.129204,0.0470394
0.000884236,0.0348391
-0.0104048,0.0147859
-0.0746696,-0.00364935
-0.0625172,-0.00845161
0.0131927,-0.00275964
0.0391472,-0.0213054
0.0376777,-0.0516107
0.127205,-0.0290348
0.167066,0.0158643
0.069233,0.0373423
-0.0556157,0.0534151
-0.139403,0.0252027
-0.0993769,-0.0210621
0.119157,-0.0859267
0.580942,-0.0380384
0.915777,0.0121125
0.681389,0.000322257
-0.0769334,-0.0969381
-0.51062,-0.0573567
-0.291413,0.0365842
-0.183664,0.0335193
-0.477237,0.0360704
-0.68065,0.0670205
-0.421442,0.0559325
-0.110966,0.00903317
-0.0489531,-0.0744166
-0.125678,-0.0607806
-0.0802298,0.0575319
0.19071,0.0959412
0.257793,0.02681
0.154196,-0.0408115
-0.0575926,-0.0328448
-0.182474,0.00910708
-0.127772,0.0110155
-0.0217472,0.0121825
0.0380771,0.0624169
0.11283,0.0471728
0.219086,-0.0096365
0.258979,-0.0199928
0.249577,-0.0331158
0.253568,-0.0641413
0.155931,-0.0244506
-0.00946786,0.0277032
-0.0701074,0.00643543
-0.0722765,-0.0357788
-0.146903,-0.0374025
-0.141885,-0.0241836
0.0151912,0.00821927
0.139921,0.0396992
0.196431,0.0285767
0.0166366,-0.00068265
-0.236922,-0.0129396
-0.299875,-0.00499713
-0.194147,-0.00075147
0.0102439,-0.0106538
0.132756,-0.0108814
0.0916816,0.000973671
-0.0261105,-0.0134726
-0.100952,0.0184028
-0.116351,0.0800171
-0.0277948,-0.00313771
0.206894,-0.0112844
0.178903,0.00107756
0.0571017,0.0156099
0.0861905,0.0295919
0.218039,-0.0107141
0.378533,-0.0957014
0.354719,-0.0686824
0.018279,-0.0901009
-0.343022,-0.0393139
-0.457539,0.0412632
-0.483765,0.0480443
-0.275635,0.0433258
-0.093016,0.00737141
0.0312676,-0.0134034
0.0668487,-0.0220888
0.104633,-0.0422543
0.134381,0.0138336
0.128556,0.0251931
0.0126316,0.0437163
-0.0893337,0.0734275
-0.0932301,0.103595
-0.146203,0.0754499
-0.0705876,-0.0331244
0.277358,-0.0581521
0.614435,-0.0269022
0.527282,-0.00489056
-0.0841457,-0.000828182
-0.735771,-0.0208878
-0.568882,-0.0227871
-0.134485,-0.00844997
-0.000665822,-0.00906495
0.0803565,-0.00369327
0.113078,0.00247146
0.0505346,-0.00558428
-0.0809431,0.00516376
-0.195084,0.00497554
-0.169249,-0.00399171
0.0813817,0.00908687
0.214946,0.0258576
0.147541,0.0294899
-0.0778162,0.0070948
-0.17282,-0.00042538
0.0867522,-0.0741586
0.236904,-0.100035
0.187358,-0.0391157
-0.0642905,0.00131498
-0.150055,0.032973
0.0784991,0.0286583
0.23357,-0.00722288
0.402669,-0.0519467
0.544656,-0.0159678
0.349815,0.0179951
-0.0929965,0.0497715
-0.546976,0.018899
-0.526586,0.000799853
-0.253839,0.0167176
0.0130012,0.0432558
0.26195,0.00211368
0.362822,-0.0497613
0.238231,-0.00440812
0.0214121,0.0849807
-0.278414,0.126525
-0.570958,0.0906884
-0.486303,-0.0229811
-0.213051,-0.0836831
-0.0271762,-0.0509827
0.0404533,-0.029432
-0.00400213,-0.0374709
-0.0731748,-0.0300384
-0.0929389,0.0327182
-0.0439393,0.0510402
0.0275559,-0.00933121
-0.0281003,-0.0253718
-0.0544929,-0.0372204
0.0580536,-0.0213682
0.122069,0.0305014
0.162823,0.000194775
0.207668,-0.0487692
0.322195,-0.0616417
0.460578,-0.0605335
0.452029,-0.00731025
0.519299,0.086704
0.453317,0.0286546
0.144076,-0.0382962
-0.116908,-0.0696436
-0.530227,-0.0530931
-0.728246,-0.0371721
-0.700648,0.00905933
-0.809189,0.146958
-0.449548,0.229256
0.436528,0.119615
0.926865,-0.00679996
0.942936,-0.108719
0.664999,-0.111453
0.0130266,-0.0618748
-0.533134,-0.016581
-0.73103,0.0210441
-0.303592,0.0320608
0.129949,0.0247149
0.0146912,0.0178077
-0.466885,0.00277012
-0.490607,-0.0149043
-0.208016,-0.0224019
-0.0809973,-0.00639678
-0.0439644,0.043894
0.122808,0.0507697
0.168331,-0.00949478
0.000106784,-0.0342184
-0.0916305,-0.00925045
-0.0155254,0.00230976
0.104702,-1.44e-05
0.200022,-0.0127825
0.293263,-0.0599218
0.342144,-0.0474632
0.208626,0.0427801
0.00585106,0.0109321
-0.141105,-0.0109434
-0.0642078,0.0259799
0.0545622,0.0110259
0.0793445,-0.0216164
0.0963253,-0.00828325
0.204947,0.00406738
0.17943,0.0140616
-0.16757,0.0344671
-0.377472,-0.0196957
-0.313762,-0.0322278
-0.220563,-0.0308031
-0.0632768,-0.0182817
0.0516765,0.00694988
0.064446,-0.0101384
0.0096963,0.018164
-0.0362338,0.0655229
-0.0191069,0.0642225
0.21332,0.0293682
0.414219,0.0100296
0.46743,-0.0105771
0.163435,-0.0474499
-0.288747,-0.100339
-0.393136,-0.057823
-0.30693,0.0238061
-0.0658822,0.0250682
0.0183181,0.0118627
0.0445455,-0.00312072
0.10303,-0.0127432
0.2136,0.0232748
0.249141,0.0447516
0.126222,0.000476919
0.19638,-0.0818739
0.377217,-0.0650931
0.511861,0.013964
0.354964,0.0551446
-0.234395,0.103902
-0.342488,0.0853224
-0.461155,0.0134157
-0.750953,-0.0714558
-0.717332,-0.0789038
-0.377365,-0.0529024
-0.0397113,-0.0086726
0.0174328,0.0161468
-0.0463111,0.0299675
0.0316095,0.0599014
0.192665,0.101189
0.200853,-0.00530948
0.0186267,-0.0903186
-0.20319,-0.034134
-0.233223,-0.0141385
0.0180891,-0.0612216
0.174187,0.00941026
0.136692,0.0693996
0.00924489,-0.0238242
-0.00369711,-0.0471361
0.136435,-0.00856099
0.265629,0.00770679
0.406396,0.00459681
0.413741,0.00583437
0.267548,0.0336221
-0.224044,0.0351944
-0.737533,0.0579051
-0.462723,0.0809529
0.0473083,0.00295398
0.0972642,-0.0578907
0.0869552,-0.0454825
0.327994,-0.0593027
0.726162,-0.0839691
0.808049,-0.0942887
0.0848325,0.00224609
-0.696804,0.0752554
-0.587944,0.0232196
0.00870468,-0.0149549
0.320187,-0.000960489
0.287488,-0.00818268
-0.204633,0.0188055
-0.220545,0.03929
-0.119431,0.0538352
-0.318744,0.0466241
-0.468676,-0.0521058
-0.3091,-0.019393
-0.0950184,0.0424925
0.0932247,0.0641179
0.104137,0.116059
-0.0764942,0.077367
-0.0669531,-0.00498591
-0.0154642,-0.0838448
0.0611166,-0.108857
0.118391,-0.0726708
0.10775,-0.0529881
0.111922,-0.0300183
0.191135,-0.00974573
0.27247,-0.000458821
0.228599,0.0115313
0.0714288,-0.00524958
-0.0698903,-0.0612364
-0.175699,-0.0328513
-0.161828,0.056137
-0.0924908,0.0532575
-0.0647956,0.0180633
-0.0699865,-0.00237079
-0.00509621,0.00843523
0.0412905,0.0512544
-0.00542535,0.0958417
0.00623962,0.0925528
0.0559971,0.0276118
0.0558278,-0.0788264
0.0453213,-0.090288
0.0791292,-0.0251569
0.0400997,0.028903
0.0054796,-0.0123771
0.092437,-0.105218
0.210859,-0.078644
0.330103,-0.0544192
0.352366,0.0243352
0.0955289,0.0346576
-0.239088,0.0137231
-0.250825,-0.00900574
-0.186271,-0.0121994
-0.216407,-0.00869239
-0.239259,0.0134804
-0.0600654,0.0319461
0.136099,0.0382836
0.00258517,0.0305557
-0.278313,0.0247117
-0.249173,0.0193023
-0.0667956,0.0274304
0.0106178,0.0473007
0.0230681,0.0609246
-0.0185348,0.0342319
-0.0357327,0.00587852
-0.0399447,-0.0224082
-0.0595807,-0.0288718
-0.0787713,-0.0170481
0.00496296,-0.0120993
0.101818,-0.0235803
0.0690752,-0.0300309
0.0602674,-0.00326306
0.0809985,0.0578889
0.0453521,0.0506657
0.212539,0.00588344
0.393001,-0.0191767
0.441042,-0.0329638
0.337903,-0.0146838
0.000934689,-0.00514108
-0.348444,-0.0445329
-0.452877,-0.0475901
-0.0692531,-0.0436386
0.307507,-0.041177
0.301244,-0.0232544
-0.0853233,-0.0080696
-0.603004,0.00301746
-0.574649,0.0198858
-0.283435,0.0224212
-0.137745,0.00102116
-0.0546249,-0.0139059
0.0329736,-0.00810866
0.102918,0.0151824
0.243529,0.0247306
0.413256,0.0108056
0.341087,0.00621804
0.0952171,-0.0106002
-0.17681,-0.00580089
-0.280298,-0.00983309
-0.209285,-0.0678307
0.0498066,-0.0982262
0.240528,-0.0849667
0.308417,0.0246587
0.0884284,0.0877614
-0.202387,0.0505725
-0.210795,-0.00485849
-0.165216,-0.0175212
-0.144388,0.0525058
0.105047,0.0630112
0.645915,0.0306849
0.915236,0.00446722
0.896834,0.00558727
0.567706,0.0637829
-0.288352,0.0660672
-0.58217,0.0813973
-0.781353,0.0959246
-0.772895,0.0507065
-0.522714,-0.0517579
-0.543656,-0.0839594
-0.633882,-0.0430664
-0.426102,-0.0246339
-0.120803,-0.0222589
0.100096,-0.0292895
0.438563,-0.0425179
0.695586,-0.0312161
0.859526,-0.00182312
0.485186,0.016635
-0.150562,0.00101993
-0.349034,-0.0387051
0.122702,-0.103363
0.523966,-0.0850735
0.578861,-0.0333518
-0.128658,0.0318424
-0.992144,0.0180078
-0.881202,0.00737315
-0.353469,0.0451707
-0.0434227,-0.0536385
0.0709288,-0.0263905
0.088193,0.0437801
0.0658908,0.0605863
0.0406762,0.0347823
0.0166534,0.0351078
0.0742941,0.0188795
0.147785,0.0237703
0.179958,0.0432536
0.218834,0.0492175
0.0946146,0.00491538
0.0421503,-0.0454316
0.0573744,-0.00495937
-0.0354117,0.037085
-0.124687,0.0321685
-0.0687658,-0.00459648
0.0863104,-0.0243037
0.110112,0.0169581
0.0831872,-0.00991352
0.041355,-0.0114611
-0.00588698,-0.00548276
-0.0412149,0.00311179
-0.0694256,-0.00361024
-0.0877849,-0.0248588
-0.0815641,-0.0277687
-0.0410178,-0.0228212
-0.058286,-0.0323046
-0.1262,-0.0283073
-0.0274918,0.0403321
0.232509,0.0535651
0.480738,0.0673203
0.497274,0.0699769
0.285227,0.0365884
0.210909,-0.000999916
0.162287,-0.0627283
0.0742064,-0.0586908
-0.152986,-0.08743
-0.470109,-0.0936411
-0.469021,-0.0665272
-0.426939,-0.0474623
-0.415524,0.0223293
-0.312416,0.0281768
-0.164182,0.00370629
-0.0760334,-0.0391322
-0.0899223,-0.0619059
-0.0968969,-0.000861458
0.00206988,0.0687826
0.242178,0.0434618
0.44878,0.0634297
0.497594,0.0974685
0.445627,0.031279
0.298492,-0.0518209
0.187071,-0.049648
0.0367961,-0.0142039
-0.164039,0.000765621
-0.324835,0.0189601
-0.369493,0.0400892
-0.17061,0.0318149
0.0529921,-0.008788
0.0735469,-0.0396424
-0.239536,-0.0356766
-0.389082,0.00897142
-0.161769,0.0395194
-0.0124756,0.0329256
0.0226813,0.0196061
0.0406019,0.0194656
0.084773,-0.00648277
0.15793,-0.0294575
0.196188,-0.0207273
0.130318,-0.00412685
0.10569,0.00461137
0.0449702,0.0054814
-0.0109372,0.0126475
0.00578963,0.0403202
-0.0271567,0.0455269
-0.110598,0.00797097
-0.111342,-0.0191391
-0.018167,-0.0447334
0.0209731,-0.0405053
-0.0204109,-0.0163261
-0.0017083,0.00531384
0.0510091,0.00441438
0.0923052,-0.0091939
0.142276,-0.0261022
0.14127,-0.0268311
0.0826573,-0.0190323
-0.0522378,0.0103432
-0.112288,0.0265468
-0.0727774,0.00530685
0.0129821,-0.029109
-0.0454386,-0.0376915
-0.0633319,0.0130686
0.0770504,0.046479
0.102683,-0.0021696
-0.0210592,-0.0229904
-0.0924776,0.0302483
-0.155139,0.0387749
-0.113648,0.0344168
-0.00740046,0.0243135
-0.0548392,0.00653095
-0.0399789,0.00332417
0.0325541,-0.018286
0.0289857,-0.0383163
0.129811,-0.058064
0.370135,-0.0837728
0.577211,-0.039348
0.33736,-0.0191756
-0.0570663,0.0423806
-0.399019,0.0489797
-0.723581,0.0387846
-0.41107,0.0272241
0.00591469,0.016697
0.115656,-0.00354165
0.0198148,-0.0101508
-0.123893,-0.00637798
-0.0990878,0.0121876
-0.043894,0.00838728
-0.0304123,0.0260457
0.0229218,0.0274823
0.132129,-0.00670255
0.207243,-0.0167678
0.137949,0.0416918
-0.00492425,0.0599703
-0.094254,0.0304451
-0.133296,-0.0194682
-0.0820307,-0.0551949
-0.0391488,-0.0514791
0.0113594,-0.0404045
0.145175,-0.0364264
0.384987,-0.00200105
0.414455,0.0106317
0.231336,-0.0388794
-0.0785749,-0.0960002
-0.386196,-0.0222482
-0.253038,0.0318643
-0.0404854,0.00703789
0.00609973,0.0177294
-0.00175854,0.0632032
-0.0474327,0.089638
0.00172106,0.086127
0.0369782,0.0301139
-0.0565047,-0.0252452
-0.0440813,-0.0371103
0.0104279,-0.0169137
-0.112701,0.00668027
-0.157542,0.00117735
-0.041414,-0.010687
0.0233476,0.0107653
0.0296524,0.00862234
0.0455662,-0.0215216
0.0949301,-0.0283326
0.231613,-0.0213287
0.323466,-0.0420042
0.299021,-0.105959
0.00672668,-0.0919079
-0.311625,0.0712531
-0.299692,0.101442
-0.178085,0.075034
-0.01838,0.0554714
0.000873892,0.0178282
-0.0896715,-0.0213026
-0.0600558,-0.0373421
0.0961765,-0.0264771
0.210205,0.00288519
0.267478,0.0251663
0.23108,0.00784765
0.105211,-0.0172341
0.153954,-0.0136286
0.179017,0.0236267
-0.0351333,0.0145482
-0.416253,-0.0318437
-0.636556,-0.00860574
-0.322534,-0.00684243
-0.0163483,0.0173295
-0.0205066,0.0141103
-0.0585471,-0.00388708
0.0909481,-0.023367
0.155595,-0.0980548
0.051355,-0.0691138
-0.124375,0.0211743
-0.190992,0.0739652
0.00113565,0.0785784
0.142054,0.0493199
0.0951548,-0.0230421
0.0255643,-0.0793326
-0.0340809,-0.0376517
0.0372758,0.0271358
0.196943,0.00145787
0.276483,0.0121344
0.146432,0.0510628
-0.130976,0.0309742
-0.142454,0.0184755
0.0779932,0.0124431
-0.00372672,-0.005261
-0.0587484,-0.0028634
0.0356289,-0.0117057
0.105743,-0.037423
-0.0206143,-0.0208408
-0.156404,0.0246514
-0.0998004,0.0185454
-0.0206357,0.0111911
-0.041002,-0.0116375
-0.0501475,-0.022223
0.0561499,-0.0321217
0.124658,-0.00673644
0.0930396,0.0221819
-0.00683687,0.0323757
-0.0637691,-0.00541549
-0.0601237,-0.0288157
0.0103057,0.0131115
0.166141,0.0198914
0.177627,-0.00580118
0.0548523,-0.0122241
-0.151149,-0.00478605
-0.202563,0.00457343
-0.062139,0.00863463
-0.026378,0.00672853
-0.0774877,-0.0020159
-0.111769,-0.00292697
-0.0729216,0.00844847
0.0767643,0.012635
0.213954,0.0079381
0.279435,0.0102937
0.19473,-0.044039
0.0800593,-0.0429241
0.0828985,0.0140424
-0.0383875,0.00576573
-0.0784908,-0.0413338
-0.170989,-0.0251566
-0.289088,0.00867836
-0.13729,0.0248817
-0.00216455,-0.0710317
0.068124,-0.080205
0.274304,0.0593107
0.306835,0.043219
0.108147,0.0100843
-0.26839,0.0246277
-0.484662,0.00860741
-0.416121,-0.000886174
-0.363256,0.00869677
-0.221102,0.048406
0.170604,0.0591409
0.539233,0.0300862
0.528375,-0.0191578
0.220264,-0.053777
-0.165764,-0.0220723
-0.355186,0.00256792
-0.235565,0.00828303
0.0153233,0.0181215
0.18354,0.0193944
0.233928,0.00270265
0.189275,-0.025447
0.190052,-0.0659799
0.0899868,-0.0195643
-0.0463755,0.043898
-0.25505,0.0459014
-0.368428,0.0152636
-0.190727,-0.0246144
-0.0497932,-0.0210352
0.00219537,0.0117831
0.0587857,0.00984113
0.112005,-0.00732584
0.0916828,-0.0150452
0.0130345,-0.00317794
-0.0135566,0.024704
0.0167493,0.00977645
0.0348351,-0.0134815
0.0201442,-0.0201124
-0.0181068,-0.00657823
-0.00261238,0.00566451
0.0399355,0.01288
0.0404655,0.0242522
0.0053908,0.0229801
-0.0304934,-0.000460795
-0.0465552,-0.0634846
-0.0132434,-0.0649588
0.125616,0.00758784
0.184793,0.012869
0.129595,-0.00483436
0.0227066,0.0350794
-0.134361,0.0153183
-0.0733533,-0.0743455
-0.0654924,-0.0245879
-0.138791,0.0399087
0.0235003,0.0583244
0.503312,0.171303
0.600141,0.114903
0.219024,-0.0873656
-0.162935,-0.118078
-0.396816,-0.0346643
-0.186524,-0.054621
-0.239482,-0.0987135
-0.383202,-0.041808
-0.284182,0.0316026
-0.0461725,0.0365658
0.0328194,0.0171878
-0.00818471,0.0117691
-0.100678,0.0178714
-0.0901212,0.0144692
-0.0203823,0.00263691
-0.000241354,0.00477684
-0.012693,-0.014621
-0.0222815,-0.0178739
-0.00348375,-0.00317862
0.0330699,-0.0699854
0.0597933,-0.0334498
0.115938,0.0839157
0.223026,0.0596627
0.24371,0.0143634
0.206298,0.0148634
0.124024,0.0202598
0.166773,0.012441
0.298246,-0.00089767
0.223105,-0.00854393
-0.146406,-0.0102059
-0.341944,-0.00210683
-0.265983,0.0226895
-0.193273,0.0151615
-0.224007,0.00864036
-0.190724,-0.000888285
-0.0598019,0.00435485
0.113336,0.00926886
0.302673,-0.0328849
0.38015,-0.0856965
0.0890868,-0.0334118
-0.280713,0.060463
-0.226572,0.0733468
-0.132003,0.0341403
-0.119051,-0.00992215
-0.0539026,-0.0366981
0.113143,-0.0286734
0.164332,-0.00364965
0.0415399,0.00104644
-0.0510461,-0.00863135
-0.16053,-0.0649144
-0.175224,-0.0881633
-0.102142,-0.00999331
-0.0229937,0.050454
0.0329255,0.0594606
0.0362169,0.0327503
0.0136916,0.00693597
0.0175431,-0.00838644
0.0417276,-0.0145376
0.0614301,-0.0124754
0.119879,-0.00697461
0.205782,-0.00308437
0.201379,0.00591505
0.109654,0.016765
-0.0519681,0.0233543
-0.171954,0.0126335
-0.134958,-0.00216471
-0.0793578,0.00229733
-0.0111212,0.0299414
0.0836883,0.0493759
0.129851,0.0204172
0.0977035,-0.0279539
0.0169605,-0.0453867
-0.0436891,-0.0380924
-0.0807158,-0.0211232
-0.150381,0.0103445
-0.0533872,0.0293869
0.243745,0.0131549
0.490901,-0.00279874
0.527273,-0.00433824
0.227875,-0.00823539
-0.222906,-0.0226148
-0.379065,-0.0256058
-0.518665,-0.0222752
-0.556489,-0.00946877
-0.354626,0.00368184
-0.146985,0.00737758
0.0262397,0.028202
0.10123,-0.0348758
0.0334671,-0.10786
-0.0552974,-0.0367449
-0.041847,0.041572
0.0238386,0.0392323
0.0641653,0.00849684
0.0627349,0.0114802
0.0894478,0.0349952
0.176375,0.0231618
0.244772,0.0272771
0.267307,0.0459923
0.236348,0.0175603
0.367493,0.011947
0.42849,0.0446342
0.151147,0.024916
-0.194823,-0.0217165
-0.357992,-0.0240643
-0.37094,0.0241067
-0.340303,-0.0303915
-0.311855,-0.0647546
-0.221767,-0.02383
-0.135963,0.00940752
-0.0244307,0.0113214
0.0944945,-0.0288364
0.148974,-0.000432487
0.188938,0.0180124
0.121143,0.000751966
-0.123431,0.00558821
-0.136715,-0.00128224
0.044098,-0.0144
0.137865,-0.00764559
0.14827,-0.00255129
-0.000928131,0.0188712
-0.168109,0.0416241
-0.208805,0.0327574
-0.115535,0.00918326
-0.0370117,-0.0139048
0.0486483,-0.0384085
0.148785,-0.0738445
0.13737,-0.0436334
0.0887182,0.0410965
0.0146603,0.0155783
-0.0802895,0.00319089
-0.00645019,0.008489
0.0780624,-0.00141279
-0.0136094,-0.00649179
-0.142779,-0.00451208
-0.0897151,0.0150604
0.086727,0.0031496
0.273809,-0.0259376
0.327744,0.0085542
0.158418,0.0261211
-0.0767364,-0.0274449
-0.278781,0.0316463
-0.185004,0.0204654
0.0838841,-0.0415015
0.12902,-0.067342
0.0258189,-0.0189883
-0.0776379,0.0614647
-0.156492,0.0398855
-0.143476,0.00292822
-0.000831268,0.0234364
0.160229,0.0029246
0.281664,-0.0123861
0.639141,-0.0132873
0.816926,-0.0177643
0.531376,0.0234219
-0.218507,0.0362863
-1.05495,-0.00247805
-0.955514,-0.00260738
-0.524839,0.011671
-0.205524,-0.00675561
-0.103904,-0.00172834
-0.116333,0.0029013
-0.0532328,-0.0202302
-0.010147,-0.00813728
-0.028114,-0.000295994
0.02431,0.00176654
0.0955058,0.011327
0.11463,-0.00181662
0.0866321,-0.0354186
-0.00463066,-0.0379741
-0.0304014,-0.0155602
0.0895212,0.0197608
0.126954,0.0130567
0.124619,0.00188931
0.116547,-0.000460438
0.0854496,0.0110674
0.113716,0.0243321
0.147475,0.0148961
0.125462,0.000877592
0.200331,-0.00785052
0.24662,-0.0101103
0.151429,-0.0076758
0.00306619,-0.0119438
-0.26352,-0.0157506
-0.417374,-0.00554879
-0.290246,0.0103222
-0.127719,0.022791
-0.0271932,0.0349655
0.0681542,0.0480103
0.0223254,0.0465835
-0.0138055,0.0153072
0.0164447,-0.0287711
-0.0168211,-0.0229878
0.0351528,0.0122518
0.0614006,0.0117586
-0.00136385,-0.0372745
-0.0405596,-0.0990495
0.0249923,-0.109144
0.164624,0.0119019
0.268683,0.0390907
0.326403,0.00424034
0.217629,0.00165834
0.0246446,0.030955
-0.16895,0.0178536
-0.188043,-0.0243522
-0.252452,-0.00427349
-0.364763,0.0264655
-0.223283,0.0350421
-0.0176477,0.0418075
0.0760347,0.0343773
0.0529923,0.010035
0.0325109,-0.0316834
0.115415,-0.0952953
0.144794,-0.0437795
-0.0416425,0.0445222
-0.277435,0.0165451
-0.26502,-0.00784713
0.0719725,-0.00487666
0.485585,0.0198389
0.498923,0.00385896
0.124589,-0.0301119
-0.180644,-0.0168163
-0.22768,0.00890574
-0.168777,-0.00196958
-0.037306,-0.0236596
-0.112331,0.0160676
-0.118524,0.0471493
0.00294542,0.0459271
0.0104002,0.0124989
-0.0688847,-0.0139952
-0.0476538,-0.0195329
-0.019623,-0.0175046
-0.0700486,-0.0115889
-0.183675,-0.00296108
-0.154761,0.0118432
-0.0475788,0.00832591
0.13438,-0.000826461
0.330397,-0.00325531
0.349027,0.00140765
0.129306,-0.00585357
-0.146848,-0.0226042
-0.059459,-0.0177985
0.102884,-0.0156529
0.154703,0.00825415
0.0878888,0.0271467
-0.0290472,0.0138761
-0.0768443,0.0203838
-0.064912,0.0287108
-0.0573882,0.0374373
-0.0521236,0.0111274
-0.0749473,0.0013029
-0.0934792,-0.00178266
-0.0483101,-0.0179291
-0.0405589,-0.03239
-0.0304746,-0.0354067
0.0795099,-0.00874898
0.113331,0.00467151
0.0522175,-0.0380168
0.0302172,-0.0694938
0.0582863,-0.00517833
0.0813544,0.0172568
0.0686862,0.020848
0.0129273,0.00891605
-0.0860234,0.0136679
-0.152083,0.028369
-0.140058,0.0370021
-0.0702969,0.0289237
-0.0156099,-0.00463019
-0.0125371,-0.0291337
0.0271312,0.0124452
0.0848584,-0.00483239
0.100881,-0.0163643
0.0857603,-0.0245891
0.000417554,-0.028121
0.0124406,0.0244842
0.0859024,0.0328583
0.0712558,0.0230416
-0.0227086,0.0197195
-0.0355235,0.0230794
0.0662076,0.0244784
0.139986,0.0382305
0.122874,0.0408147
0.105656,0.0127872
-0.0966544,-0.0335917
-0.306318,-0.0825821
-0.372408,-0.0610582
-0.29963,-0.0297997
-0.0688962,-0.0667631
0.0726967,-0.0383726
0.0358934,0.0388434
0.00475134,0.0393451
0.0907384,0.0201386
0.331631,-0.0071784
0.582893,-0.047948
0.463762,-0.0627781
-0.0529348,0.00327323
-0.514711,0.0344179
-0.62544,0.0269987
-0.506971,0.0140697
-0.223047,-0.00156353
-0.0397759,-0.00242477
0.0408403,0.0129496
0.0798702,0.0344445
0.0800982,0.0299933
0.0757951,0.0224702
0.0788412,0.0175871
0.240814,0.0126146
0.414567,0.00244959
0.380562,-0.0109856
0.0570517,-0.0154127
-0.200105,-0.00849697
-0.123776,4.06e-05
-0.100618,0.00134289
-0.221154,-0.00112695
-0.216858,0.00865196
-0.0866374,0.0220276
0.0689522,0.00662822
0.177914,-0.0230847
0.181917,-0.0249238
0.0639083,-0.00359011
-0.0475577,0.0132205
-0.134964,0.0126331
-0.165355,0.0130994
-0.0409875,0.0151162
0.0665305,0.0181227
0.10151,0.013564
0.0890454,0.00149478
-0.0427221,0.00231718
-0.116456,0.0191005
0.0454987,0.0437512
0.158459,0.038793
0.150813,0.00235423
0.0729856,-0.0905657
-0.0265169,-0.188365
-0.0226925,-0.123936
0.0683463,-0.0031725
0.370926,0.00792003
0.710387,-0.00699794
0.688431,0.0437381
0.237233,0.0320218
-0.561144,0.0157416
-1.07198,0.00458773
-0.963104,0.00105472
-0.535693,0.00686556
-0.162101,0.00945713
0.0113659,0.0201773
0.0854786,-0.00393781
0.0677042,-0.0296114
0.0793392,0.00306011
0.232527,0.0298431
0.288761,0.0253707
0.163849,0.0202664
-0.139593,0.0178875
-0.322215,0.0180077
-0.14978,0.0214258
0.00158747,0.0234041
0.109513,0.021367
0.165595,0.0167696
0.138419,0.00274213
0.112582,-0.00765697
0.0714795,-0.00413532
0.0583914,0.00496062
0.085128,0.00610576
0.100389,-0.0198627
0.047327,-0.0340895
-0.0327331,-0.0338941
-0.0707079,-0.042934
-0.0346691,-0.0184845
0.0193277,0.0161758
0.104622,0.0204084
0.214084,0.033145
0.246604,0.016982
0.134458,-0.000900404
-0.0969555,0.0141243
-0.193735,0.000685481
-0.168506,-0.00230931
-0.145953,0.0358129
-0.0924749,0.0176162
-0.0397801,-0.0192882
0.0136218,-0.0368464
-0.00547665,-0.0443238
-0.0601049,-0.0614914
-0.114627,-0.0491896
-0.107417,-0.0130267
-0.0619425,-0.0163167
-0.0101691,0.0323363
0.0236684,0.0534907
0.00176627,0.0207448
-0.0266056,0.00333465
-0.01112,0.0234271
0.144899,0.036128
0.33057,0.0242246
0.269986,-0.00420477
0.0982614,-0.0231356
-0.111043,-0.0457325
-0.143266,-0.0403681
-0.0420173,0.0078438
-0.0246347,0.0148538
-0.120103,-0.0208039
-0.187021,-0.00593723
-0.15202,-0.00347567
-0.0675545,0.0223648
-0.0461615,0.0153825
-0.0281432,-0.00850838
0.110898,-0.0094021
0.232338,-0.0172565
0.298104,-0.0230729
0.291696,0.0191195
0.16407,0.0276693
0.0594084,0.0158946
-0.216861,0.0104154
-0.473444,0.0130735
-0.244753,0.0224667
0.0314979,0.0139188
0.0683545,-0.00305388
-0.0386064,0.000254698
-0.143074,0.00589782
-0.0562018,-0.00130626
0.0395595,-0.00197515
0.00545061,-0.00525412
-0.0260134,0.00334292
0.159912,0.023947
0.346526,0.0402976
0.275549,0.0498783
-0.0821506,0.00671109
-0.412967,-0.0445532
-0.339665,-0.0550246
-0.143269,-0.0234119
-0.0327817,-0.00703393
0.0895895,-0.0110224
0.099739,0.00878438
0.0584491,0.0152119
0.127244,-0.0283077
0.258132,-0.0558918
0.23375,-0.0305058
0.208272,0.00468777
0.0779437,0.00352624
-0.187025,0.00569258
-0.250491,0.0351282
-0.233036,0.0155294
-0.0275612,-0.0287985
0.0606857,0.00312318
-0.130772,0.0317535
-0.148474,-0.0298522
0.0809978,-0.047838
0.250317,0.000645434
0.248795,0.0582181
0.044884,0.0219545
-0.22144,0.00336792
-0.330323,0.00613708
-0.204382,-0.000185542
-0.0860166,-0.0219506
-0.00420213,-0.0430681
0.0740272,-0.00411676
0.201986,0.0235728
0.253889,0.0205687
0.165193,0.0233263
-0.0592167,0.0267886
-0.241579,-0.000874638
-0.0949798,-0.0166665
0.0600409,-0.00285579
0.106418,0.0158832
0.114879,0.00850399
0.111324,-0.0204878
0.146832,-0.016858
0.140049,0.0154991
0.0601357,-0.00715062
-0.0690183,-0.0168439
-0.115205,0.00586644
-0.00956539,0.00037021
0.0339366,-0.00733854
0.0607969,0.00234129
-0.139659,0.0182039
-0.259327,0.00835174
-0.136889,-0.00977513
-0.0398924,-0.00556831
-0.00489918,0.0101066
-0.0557791,0.0198704
-0.104114,0.0273744
0.0298343,0.0172229
0.196743,-0.030024
0.198995,-0.00121993
0.0596285,0.0543439
-0.130871,0.0460791
-0.0931397,0.0545712
-0.10989,-0.00240784
-0.190148,-0.0768616
-0.167025,-0.121683
-0.0830699,-0.0886713
0.00840341,-0.0427208
0.0867019,-0.0262483
0.167038,0.0148253
0.193853,0.0297218
0.2119,0.0118149
0.195474,0.012959
0.0866956,0.0205332
0.0285739,0.013726
-0.0511271,0.014456
-0.143866,0.0285896
-0.115769,0.0217951
-0.0774915,-0.0142472
-0.0635754,-0.00677861
-0.0323105,0.0303893
0.00198698,0.0291247
-0.0231793,0.0159301
-0.0545399,0.00727295
-0.0288824,-0.0265399
0.0393468,-0.0370443
0.278486,0.00505339
0.426344,0.0129484
0.374579,-0.020751
0.223322,-0.0307616
-0.0572483,-0.0121597
-0.218021,-0.00189532
-0.398014,-4.03e-05
-0.438164,0.00462685
-0.267127,0.0203968
-0.149042,0.0282927
-0.0856222,0.0302457
-0.0316623,-0.0202612
-0.0186413,-0.0567699
-0.0516354,0.00579636
-0.0330961,0.0404672
0.0742092,0.03063
0.174605,-0.0063357
0.164222,-0.0278625
0.124863,-0.0312606
0.0590886,-0.0242287
0.0788183,-0.0126407
0.14304,-0.0199249
0.0843812,-0.00250518
0.0398569,0.0129747
0.0623724,0.00821715
0.0483115,0.00521705
0.0451713,0.00717132
0.0601809,0.00745509
-0.106949,0.0139389
-0.362595,0.0229757
-0.408367,0.031498
-0.161788,0.0274477
0.0182467,0.00696645
0.115746,-0.0102613
0.159856,-0.0305817
0.101677,-0.0626348
0.0971234,-0.00849136
-0.0173731,0.00959242
-0.166014,0.0119012
-0.152418,0.0257901
0.019841,0.0266175
0.1825,0.00537109
0.218843,-0.0240076
0.200853,-0.00149256
0.150973,0.0361872
0.16048,0.0501947
0.0916229,0.0226151
-0.0604966,-0.0124133
-0.0973216,-0.0124347
-0.0651683,-0.0140954
0.0661201,-0.0039616
-0.0438117,-0.0175209
-0.306784,-0.0173978
-0.311426,-0.00610288
-0.195123,0.000920645
-0.152206,-0.0154571
-0.083564,-0.057157
0.0129364,-0.0908817
0.0406218,-0.0593484
0.0246476,0.0308209
-0.00274915,0.0449556
-0.0138292,0.0374143
-0.00720482,0.0277067
0.00953592,0.0276367
0.0260243,0.0150877
0.0319541,-0.000961506
0.0350281,-0.00947807
0.0499397,-0.0105598
0.0690887,0.000643948
0.0844359,0.00777661
0.0901417,0.00409887
0.0539192,0.00656851
0.0271632,0.00754235
0.0874803,0.0107921
0.270649,0.0130329
0.376329,0.00461109
0.258465,-0.00455985
0.0254272,-0.00573263
-0.155797,0.00122093
-0.136506,0.0175736
-0.00107188,0.0261203
-0.0498068,0.0134699
-0.303532,-0.0131256
-0.394395,-0.0320854
-0.264134,-0.0201881
-0.120886,-0.011711
0.00507659,0.00910619
0.155905,0.0184372
0.288409,0.0121013
0.259544,0.016716
0.0316168,0.0136698
-0.296918,-0.0135777
-0.305801,-0.025101
-0.116122,-0.0345313
0.019734,-0.0222234
0.0268247,0.0131208
-0.0192405,0.0381179
0.00218372,0.043934
0.00348249,0.00910127
0.139454,-0.0319182
0.226303,-0.0388222
0.0857654,-0.0321472
-0.116867,-0.0157331
-0.0954844,-0.00490857
0.119966,0.00741698
0.246077,-0.00206213
0.295416,0.0176575
0.378204,0.0543779
0.333451,0.0386167
0.10871,-0.0460388
-0.335113,-0.0769303
-0.473578,-0.0323915
-0.286845,-0.00426788
-0.33613,0.00844983
-0.351435,0.021227
-0.178896,0.0281936
-0.0451233,0.020733
0.0375104,0.0180974
0.0782051,0.014562
0.08994,0.00284496
0.0537754,0.00054601
0.0442427,-0.0040438
0.0838872,-0.00712309
0.0909434,-0.00195709
0.0461439,-0.00708565
-0.0326697,-0.00530684
-0.129539,-0.0336073
-0.114131,-0.0772661
0.0101965,-0.0123294
0.112607,0.0440538
0.150586,0.0522922
0.145134,0.0376166
0.15936,0.039211
0.255485,0.0298956
0.323749,0.0069158
0.2789,-0.00380325
-0.00796366,0.00140217
-0.255378,0.00581457
-0.336895,-0.0294172
-0.319017,-0.0496256
-0.21389,-0.0454459
-0.140955,0.0106008
-0.0824528,0.0127494
-0.00131896,-0.0072429
0.0377477,-0.00461823
0.0703527,-0.00161473
0.0942796,0.00206439
0.0363851,0.0048253
-0.0870709,0.00609588
-0.110662,-0.000127745
-0.0127825,0.00611552
0.0867337,-0.0132929
0.136019,-0.048088
0.210758,-0.00853969
0.241134,0.0173209
0.135427,0.0339816
-0.0855634,0.0431557
-0.386242,0.0215706
-0.351873,0.0050118
-0.102475,-0.00794726
0.0533795,0.000393625
0.126492,0.00943519
0.156612,0.00701668
0.150412,-0.000157408
0.0171173,0.00338909
-0.00820931,-2.72e-05
0.17287,-0.0103268
0.159531,0.0171026
-0.055447,0.00297222
-0.196213,-0.0479433
0.205584,-0.134293
0.707698,-0.137312
0.612283,0.0337695
0.0247881,0.0886337
-0.724045,0.050013
-0.799243,0.0459597
-0.371881,0.0326502
-0.233712,0.00685138
-0.174063,-0.0058677
-0.101673,-0.00538711
-0.0323802,0.00125069
0.0242916,-0.0125762
-0.00133174,-0.0184392
-0.0399017,0.00198072
-0.0128158,0.00841185
0.0497447,0.0113852
0.0855729,0.0203034
0.0674829,0.0246842
0.0277442,0.0195924
0.0733007,0.012321
0.169734,0.00882496
0.220154,0.0131338
0.190027,0.0173276
0.046553,0.0198823
-0.029198,0.00909735
0.00239888,-0.0134043
0.173281,-0.0174979
0.336239,-0.015127
0.234314,-0.0107816
-0.124212,-0.0133531
-0.450713,-0.016579
-0.358353,-0.00409101
-0.168541,0.00425316
-0.0549403,0.00985047
0.0526222,-0.000761874
0.131078,-0.0184667
0.129222,-0.0208813
0.0344674,0.00208105
0.00149114,-0.0356495
0.0862847,-0.0253483
0.0710879,0.0288404
-0.0646003,0.0167488
-0.161416,-0.0329291
-0.104317,-0.0586661
0.000551574,-0.030541
-0.00131455,0.0523952
-0.0330754,0.0217108
-0.0356896,-0.0741522
-0.00549286,-0.0466973
-0.00251943,0.0255088
0.00741353,0.0340101
0.0468755,0.0196266
0.117842,0.0194711
0.17602,0.0234202
0.171171,0.0177914
0.179407,0.0122467
0.172376,0.0121207
0.0962231,0.00603268
-0.0781151,0.00218422
-0.21113,0.0145559
-0.141044,0.0194334
-0.0624072,0.0199518
-0.0676675,0.0021746
-0.0745335,-0.0121567
0.0222824,-0.00474257
0.0982374,-0.000793068
-0.0697692,0.00465518
-0.323314,0.0037696
-0.332544,-0.0472282
-0.179787,-0.0254325
-0.0772072,0.0253968
0.0549434,0.0116534
0.147296,-0.00244633
0.15197,-7.96e-05
0.126419,-0.0111451
0.0827299,-0.0536252
0.0533864,-0.00652953
0.0314024,0.070035
-0.0811364,0.0309865
-0.132831,-0.0106663
-0.00718019,-0.00540222
0.113334,0.0147788
0.133203,0.00985467
0.096424,-0.00932644
0.0256459,-0.0300563
-0.0772604,-0.0255212
-0.037494,0.00207838
0.00578459,0.000402204
-0.028769,-0.0253679
-0.0583833,-0.0177691
-0.05543,0.00102618
-0.048639,0.0182878
-0.0345749,0.0272663
0.0768517,-0.0202831
0.0995615,-0.0133078
-0.00971182,0.02291
-0.0849331,-0.000671886
-0.00739328,-0.0123935
0.332321,-0.010817
0.837266,-0.00397748
0.909926,-0.00169697
0.458316,0.00277529
-0.385013,0.010328
-0.886312,0.023452
-0.732969,0.0175206
-0.613936,-0.00314444
-0.429974,-0.00363691
-0.153237,0.0132151
0.0181209,0.011874
0.062298,0.0103448
0.0449414,0.0253307
0.0229197,0.0255337
0.0714645,0.00840185
0.113605,-0.00849428
0.149331,-0.0150546
0.116521,-0.0164404
-0.022758,-0.0170042
-0.0825298,-0.00547387
-0.0475405,0.00907729
0.0454611,0.00603314
0.0928793,-0.0105667
0.143562,-0.0126237
0.191724,-0.0175989
0.143913,-0.0174132
0.0395591,-0.00955486
-0.0578826,0.00338656
-0.123429,0.0280934
-0.00479952,0.0493715
0.116816,0.037388
0.215614,-0.00329853
0.198882,-0.039057
0.0417394,-0.0476653
-0.101769,-0.0254335
-0.283457,0.01296
-0.333184,0.0261109
-0.144076,-0.000869016
-0.0187547,-0.0256184
0.0064792,-0.00123226
0.0170866,0.0195788
0.0359233,-0.021237
0.0107262,-0.0468516
0.00415507,0.00571266
0.0351322,0.00916953
0.056922,-0.0333887
0.0460223,-0.0353673
0.000850257,-0.00520811
-0.0225181,0.013174
-0.0330586,0.0186733
-0.0518624,0.018428
-0.0762086,0.00847667
-0.106902,0.0263994
-0.0758303,0.0311368
0.135557,-0.00639366
0.385399,-0.0069565
0.471598,-0.0114643
0.337,-0.0537955
-0.0294247,-0.0147866
-0.138015,0.0314998
-0.193785,0.0274618
-0.351188,0.0190715
-0.26159,0.00869235
-0.129863,0.0189122
-0.0727354,0.0109433
-0.0483398,0.00444482
-0.0349625,0.00641244
0.0240458,-0.00977006
0.0769482,-0.0369089
0.0406259,0.00134064
-0.0204892,0.036368
-0.0859776,0.0272653
-0.110049,0.00813252
-0.00153782,-0.0074854
0.106771,-0.014609
0.157171,-0.0129787
0.177523,-0.0156614
0.161154,0.0035513
0.111536,0.0125739
-0.0187478,0.00402468
-0.14036,0.00185299
-0.087929,-0.00552923
0.0148481,-0.0096966
0.0419287,-0.00442636
-0.0487712,-0.00612358
-0.169981,-0.00639247
-0.233837,-0.00649759
-0.140107,0.00970188
0.163416,0.0175842
0.424719,0.0152403
0.359339,0.0163703
0.140981,-0.0016122
-0.0931117,-0.0224206
-0.146401,-0.0137389
0.00983923,-0.00253933
0.0887868,0.0126545
0.0966955,0.015171
-0.10648,0.00307206
-0.341506,-0.011589
-0.364494,-0.023611
-0.271181,-0.0209771
-0.0726247,-0.00478658
0.0685566,0.0112268
0.103851,0.00293877
0.094419,0.00255188
-0.0152043,0.00616086
-0.0891324,-0.0102026
0.00166682,-0.00405918
0.100764,0.0213678
0.220348,-0.00929676
0.221301,-0.0625146
-0.0289668,-0.0420062
-0.0450788,-0.0368237
-0.00427021,0.00447053
-0.0124563,0.0215812
0.165182,0.0101362
0.191462,0.0280769
0.0577011,0.022742
0.00863264,0.0283234
-0.11262,0.0256288
-0.179148,-0.00508254
-0.229495,-0.0156458
-0.28744,0.0148572
-0.185844,0.00537988
-0.0749077,0.0142569
-0.0125701,0.0352595
0.108615,0.0441315
0.201173,0.0180348
0.191097,-0.0261858
0.160645,-0.0369056
0.17947,-0.0258259
0.177959,-0.0201648
0.0817058,-0.0154814
-0.144612,-0.000859558
-0.293204,-0.00289835
-0.235849,-0.00122487
-0.122103,0.0197722
-0.0544897,0.030058
0.0315376,0.012204
0.0343796,-0.0131903
0.0258266,-0.03797
0.0175589,-0.0427992
0.0314181,-0.00247893
0.0909269,0.017462
0.131124,0.0183457
0.229004,0.0128931
0.3127,0.0138102
0.214912,0.0027844
0.0942851,-0.0179764
-0.144303,-0.0118615
-0.343538,0.00245978
-0.345711,0.00550574
-0.122657,0.00948964
0.113555,0.0118756
0.308658,0.00547079
0.418687,0.00585403
0.212645,0.0213051
0.014363,0.0269531
-0.210127,0.0190688
-0.500881,-0.0115637
-0.43485,-0.0220115
-0.189018,-0.0207135
-0.0611642,-0.0291095
-0.0761049,-0.0327984
-0.103516,-0.01849
-0.0349616,0.000905182
0.0151164,0.00380286
-0.000852681,-0.00328709
0.010565,-0.0258388
0.0481393,-0.0203577
0.113537,0.000345553
0.237995,0.0249071
0.294358,0.0234057
0.213856,0.00202608
-0.0205302,-0.023827
-0.204303,-0.00795537
-0.1412,0.0295032
-0.0156658,0.0504925
0.0880546,0.052444
0.11193,0.0253256
0.0734329,-0.0143302
0.0170393,-0.0339808
-0.0722717,-0.0475717
-0.140305,-0.0497794
-0.132608,-0.0114605
-0.0642787,0.0226074
0.0191944,0.0261858
0.0694809,0.0169885
0.0699213,0.00989164
0.0810947,0.0108602
0.0242799,0.000670893
0.0169355,-0.0135957
0.0917789,-0.0133446
0.104422,-0.0141482
0.0559716,-0.00896608
-0.0700678,0.00566443
-0.134247,0.0100806
-0.0481473,0.0121566
0.0406192,0.003364
0.0211219,0.00181566
0.00622143,-0.00127509
-0.0116527,-0.00134404
0.00183255,0.0220204
0.0306969,0.0349921
-0.021297,0.0265362
-0.123243,0.00672403
-0.182307,-0.00775015
-0.0397399,-0.00748407
0.105484,-0.0147452
0.164466,-0.00506253
0.138058,0.00963998
0.0462818,-0.0129472
0.021336,-0.0235576
0.0322701,-0.018762
-0.114378,-0.00902649
-0.230881,0.00121122
-0.0985514,-0.00675449
-0.071681,-0.0257436
-0.139034,-0.021741
-0.0534354,-0.0114229
0.180592,0.0128271
0.290113,0.0189255
0.329127,-0.0301627
0.255072,-0.024278
0.0511485,0.00999369
-0.0508672,0.0443992
-0.312465,0.0292855
-0.465429,-0.00434316
-0.234116,-0.0133143
-0.0939084,0.0081699
-0.0399583,-0.000354963
0.0344191,-0.0078547
0.0918191,-0.00125261
0.075305,0.00457937
0.00721932,0.0102034
0.00812156,0.0219193
0.104574,0.0125557
0.157186,-0.0101391
0.137306,-0.037793
0.0471316,-0.0394879
-0.112366,0.00825484
-0.144229,0.0180259
-0.0847615,-0.0163868
-0.0823254,-0.014903
-0.0502289,0.0222188
0.0337823,0.0386625
0.0758551,0.036187
0.0784066,0.013703
0.122929,0.00917635
0.132812,-0.00399536
0.0840048,-0.00728058
-0.0289063,0.00140008
-0.192559,-0.00756901
-0.17033,5.66e-05
-0.0884033,-0.00388508
-0.042598,-0.0111662
0.108989,-0.0148838
0.462764,-0.0278591
0.613385,-0.0249701
0.423784,-0.00169293
-0.0726039,-0.00978763
-0.540701,-0.000720124
-0.360898,0.0304299
0.00507055,0.0106033
0.0676961,-0.0049553
-0.0926396,-0.000371757
-0.275065,0.016543
-0.167764,0.0222006
-0.0481759,0.00323714
-0.0373724,0.00179212
-0.0914978,0.0271175
-0.135543,0.0318581
-0.0615994,0.0199134
-0.053992,-0.00729527
-0.0701512,-0.0404078
-0.0247046,-0.060481
0.0851474,-0.059864
0.287561,-0.0125127
0.414643,0.0344897
0.341411,0.0348136
0.105463,0.00208813
-0.188429,-0.00996529
-0.265091,-0.00375718
-0.155164,-0.01281
-0.0197098,-0.00919686
0.0748324,-0.0114188
0.104467,-0.0264269
0.0679368,0.0083027
-0.0768606,0.0304442
-0.238051,0.0216988
-0.213868,0.000599185
-0.12296,0.00777233
-0.0688585,0.0336085
0.00895012,0.0368541
0.154281,0.037868
0.279616,0.0182353
0.271253,-0.00979494
0.263246,-0.0206118
0.220225,-0.0313875
0.0524744,-0.0337398
-0.0429919,-0.0214912
-0.106794,-0.00198044
-0.190503,-0.000201025
-0.214649,-0.00328974
-0.228582,0.00147399
-0.131356,-0.00127098
-0.000258727,-0.0126329
0.0858095,-0.00723023
0.108946,0.00639169
0.0646062,0.0111182
-0.0641655,0.00379141
-0.168355,0.00764495
-0.142009,0.014597
-0.0660528,0.00896176
-0.0114837,0.00473593
0.0335435,-0.00375106
0.07699,-0.00388915
0.109739,0.0115567
0.156248,0.0186598
0.204029,0.0182059
0.144802,0.0088454
-0.0505996,-0.0184801
-0.162712,-0.0321179
-0.129694,-0.0413339
-0.0951558,-0.0268004
-0.0253685,-0.00879717
0.173036,-0.009231
0.258627,-0.00882751
0.168732,0.00491906
-0.0598594,0.0123576
-0.304167,-0.00615101
-0.142985,-0.0107329
0.0308899,0.00463456
0.06076,-0.010559
0.062965,-0.0109937
-0.0370653,0.0105302
-0.0424411,0.03803
-0.0687699,0.0562637
-0.138516,0.0271295
-0.0691413,-0.0132939
0.0026016,-0.0198486
0.0111029,-0.0118732
-0.0135595,-0.00319692
-0.00367861,0.00492638
0.142053,-0.00249423
0.268541,-0.0201422
0.288287,-0.0177936
0.108421,-0.0214053
-0.111509,-0.0140902
-0.231229,0.0190072
-0.300499,0.0282367
-0.191718,0.026751
-0.081861,0.0194025
-0.0247059,0.0128889
0.0316717,0.00666619
0.0531398,0.00100126
0.0259194,-0.00711465
-0.0218136,-0.0134328
-0.0590151,-0.00354476
-0.0212281,0.0127511
0.0621957,0.0211325
0.120609,0.0139784
0.116595,-0.00330943
0.0767942,-0.00735372
0.0761772,-0.0100984
0.143014,-0.0246016
0.242434,-0.0224891
0.155879,-0.0152324
-0.0707975,-0.00365442
-0.227682,0.0158034
-0.209021,0.0147012
-0.107721,0.00887442
-0.0646299,-0.000244978
-0.0849107,-0.0123131
-0.0769612,-0.0196154
0.0091008,-0.0365279
0.0862477,-0.0725578
0.0912962,-0.0156495
0.042125,0.0393957
-0.0792829,0.0318928
-0.0966827,0.0203597
0.0360447,0.0109772
0.117783,0.00691655
0.0943712,0.00772786
0.0343625,0.00430142
0.064286,-0.0112117
0.0856246,-0.00973217
0.141695,0.00358154
0.190752,0.00213675
0.0414298,-0.0142317
-0.112943,0.00700442
-0.278518,0.0372404
-0.308818,0.0353282
-0.149785,0.0156923
-0.0778566,0.00474646
-0.0670122,-7.85e-05
-0.00859513,-0.00104434
0.047087,0.00675714
0.0956617,0.0115463
0.121634,-0.00396265
0.0415467,0.00146461
-0.0648823,-0.00230199
-0.0804081,-0.0226006
-0.0336786,-0.0351957
0.0149231,-0.00951101
0.0180766,0.0252382
0.0257622,0.00988016
0.0121929,0.00133908
-0.00660293,0.000580047
0.017173,-0.0106671
0.0771678,-0.00897482
0.186891,-0.00608542
0.208413,-0.00886744
0.111111,-0.00711317
-0.106766,-0.00242645
-0.189865,0.00234835
0.00740239,0.00643103
0.0860248,0.00365329
-0.00955999,-0.00497306
-0.0691064,-0.015686
-0.0392687,-0.0132833
0.00190239,0.0049874
-0.0197323,0.0247976
-0.0618262,0.0101734
-0.0853313,-0.0184394
-0.0801678,-0.0181339
-0.0774392,0.00432741
-0.0404717,0.00562498
0.0148824,0.0129353
0.035473,0.0144774
0.00120473,0.00461496
-0.0336533,-0.00873575
0.00322606,-0.0317314
0.0472929,-0.0336027
0.110521,-0.0128473
0.209392,-0.000769643
0.235068,0.00915158
0.0984293,0.0176065
-0.0511127,0.0131227
-0.227926,-0.00185382
-0.280197,0.0117238
-0.140619,0.0290655
-0.0162341,0.0285862
0.0429105,0.0261831
0.037735,0.00572671
-0.0511292,-0.0184872
-0.112392,-0.023394
-0.0564691,-0.027356
0.129518,-0.0277898
0.288912,-0.0216513
0.201497,-0.00589736
-0.0178777,0.009933
-0.105021,0.0188756
0.0366406,0.0292398
0.165198,0.0313656
0.209757,0.0195293
0.29684,-0.00400044
0.365131,-0.0170882
0.264962,-0.00176197
-0.167124,0.0194165
-0.532404,0.0106166
-0.519207,-0.000559042
-0.30986,-0.035226
-0.259851,-0.0396914
-0.261526,-0.0151203
-0.167854,-0.00750486
-0.0899428,-0.00161023
-0.0695086,-0.0199724
-0.0158798,-0.0364728
0.0490802,-0.0182879
0.100258,0.0219956
0.118646,0.026589
0.144851,0.0130973
0.177196,0.0101218
0.115874,0.00459959
0.0620994,0.000505875
-0.000125696,0.00604749
-0.0546712,-0.00308759
-0.00733813,-0.0240651
0.0588261,0.0108455
0.106299,0.0356554
0.160503,0.0159112
0.162994,0.0171192
0.0683177,0.0165547
-0.107794,0.0164826
-0.220576,0.0121009
-0.106829,0.0094408
0.040461,-0.000668822
0.15347,-0.00793378
0.250829,-0.00714668
0.263867,0.0032328
0.134202,0.00272293
0.0316547,-0.00943473
-0.0323372,0.00170064
-0.0529482,-0.00518326
-0.074604,-0.0645642
-0.204521,-0.0749947
-0.132554,0.0328279
-0.0457753,0.0548523
-0.0795173,0.0247796
-0.100157,0.00842481
-0.14233,-0.0052344
-0.154649,-0.015665
-0.0859678,-0.0281589
-0.0209912,-0.0218828
-0.0243715,0.000140644
-0.0377528,0.00182665
-0.0534042,0.0259924
-0.0158666,0.0281303
0.0449228,0.0170589
0.0425152,-0.00602602
0.0995117,-0.00732592
0.216617,0.0213995
0.229204,0.0189664
0.164241,-0.0134176
0.0101124,-0.0350362
-0.132017,-0.020977
-0.105483,0.0015894
-0.095512,-0.00142895
-0.0859917,-0.00401637
-0.0690235,-0.00826065
-0.0540341,-0.0237205
0.000460058,0.00432031
0.152686,0.0148328
0.300128,-0.0109191
0.25919,-0.00837104
0.0826874,0.00447049
-0.182001,0.007956
-0.301993,0.00853365
-0.13392,0.0122778
0.00829517,0.0218466
0.0322033,-0.0090191
0.0928018,-0.022868
0.156948,0.0147646
0.185062,0.0390744
0.110934,0.0454271
-0.149795,0.0219388
-0.340868,-0.0191034
-0.236542,-0.0432712
0.0490876,-0.0501679
0.183085,-0.0469046
0.0550116,-0.0665123
-0.0957705,-0.0398266
-0.170757,0.0238905
-0.177667,0.0325538
-0.0814226,0.0248937
0.0632623,0.0297336
0.231078,0.0210875
0.330436,0.00992879
0.265903,0.0159603
0.0304437,0.0223565
-0.289543,0.0278205
-0.418503,0.0272681
-0.119198,0.0277529
0.166318,0.0223427
0.136285,0.00326191
-0.0659871,-0.0190061
-0.0858445,-0.0250712
-0.0345925,-0.0199471
-0.0501529,-0.0306023
0.0639724,-0.0497767
0.07162,-0.0201053
0.159122,0.00843344
0.208675,7.97e-05
0.0686793,-0.0200458
-0.180149,-0.0225003
-0.373454,-0.0012644
-0.198861,0.0181891
0.115128,0.0260485
0.311608,0.0141072
0.289918,-0.00750438
0.169144,-0.0149776
-0.0314842,-0.00590135
-0.183126,0.00280818
-0.21151,0.0108696
-0.273711,0.0183958
-0.219943,0.0144854
-0.0473154,0.00735227
0.104333,0.00762229
0.17158,0.00952649
0.162456,0.0147308
0.188867,0.0179432
0.155355,0.0258579
0.0174169,0.0154234
0.0492605,-0.017685
0.162223,-0.0313824
0.166606,-0.0262113
0.0251463,-0.0191776
-0.336535,-0.0107905
-0.435981,-0.00825006
-0.105696,-0.0122595
0.00123795,-0.00946662
-0.0184698,-0.0043362
0.129039,-0.00349712
0.194418,0.00159597
0.113239,0.0121552
-0.00265844,0.0110914
0.0188395,-0.000466173
0.0213292,-0.00906115
-0.105347,-0.00622084
-0.154838,0.00355017
-0.137804,0.00895632
-0.157285,0.00999638
-0.140984,0.0129602
-0.0250559,0.0121577
0.0582571,0.00786291
0.0723485,0.00453431
0.039711,0.00231138
-0.0164116,-0.023029
-0.0139727,-0.0226037
0.0415023,0.0292563
0.0742258,0.026637
0.0834906,-0.0198231
0.0662087,-0.00680688
0.00579745,0.00755217
0.00442808,-0.022788
0.0215433,-0.0476533
0.109274,0.00593546
0.21799,0.0447442
0.183999,-0.0053108
0.0367862,-0.00392579
-0.0716763,0.0130984
-0.0586779,0.0193682
-0.0608406,0.0108308
-0.103722,0.000754653
-0.206102,-0.0156343
-0.160665,-0.0291491
-0.0512271,-0.0201941
-0.00321751,0.0117961
0.0932449,0.0205126
0.206864,-0.00705665
0.213994,-0.0219363
0.00691931,-0.0138971
-0.09594,-0.00923499
-0.0205368,0.0167042
0.0862025,0.0310785
0.0598401,0.0107678
-0.0434802,-0.0138787
-0.096443,-0.00619891
-0.213241,-0.0169079
-0.272345,-0.0148828
-0.148389,0.00654571
-0.014261,0.0119127
0.118759,0.00752945
0.251749,0.00841954
0.323242,0.00864041
0.272838,0.0060555
0.16031,-0.000182248
-0.0195852,-0.0112864
-0.255172,-0.0119945
-0.408267,-0.0212643
-0.314223,0.0023182
0.0421404,0.0332629
0.16888,0.0219146
0.00295401,0.000883826
0.00880762,0.00770959
0.0443366,-0.00277218
-0.0920833,0.0166611
-0.20356,0.0260283
-0.118968,-0.00748785
0.113625,-0.0196537
0.296286,-0.0162344
0.360315,-0.00617469
0.167056,-0.00130984
-0.124229,-0.000479509
-0.300479,-0.00314822
-0.167341,-0.000693774
0.0785976,0.00299973
0.10287,-0.00743327
-0.0136182,-0.00573645
0.0132822,0.00727259
0.135668,0.0125003
0.0790155,0.0208472
-0.0512946,0.000468869
-0.213954,-0.00507117
-0.361656,0.0156655
-0.244909,0.0161631
-0.0829301,-0.0236445
-0.0439609,-0.0307526
-0.0479345,-0.0372829
-0.0129928,-0.0640642
0.0979025,-0.00506782
0.203534,0.0206887
0.155004,0.0112256
0.178845,0.000793318
0.399579,-0.00491222
0.527461,0.00940412
0.455594,0.0233935
0.0278882,-0.00229266
-0.526757,-0.00264507
-0.548181,0.00879929
-0.339608,0.000518625
-0.225504,0.00698111
-0.0401952,0.00977699
0.0819118,-0.0162625
0.0899594,0.00895931
0.125226,0.0224207
0.233552,0.00998979
0.277838,-0.000694761
0.0629103,-0.00411819
-0.292145,-0.0026111
-0.299099,-0.00636418
-0.110845,-0.00528079
-0.0433739,0.00162677
-0.0311425,0.00883179
0.0570307,0.0125488
0.114636,0.00511837
0.107927,-0.0121708
0.058168,-0.0206358
0.0380581,-0.0156137
0.0473488,-0.00389392
-0.004743,0.00107261
-0.0618296,0.00472235
-0.0763367,0.0162578
-0.0473104,0.0134703
-0.0265995,-0.000697514
0.0429918,-2.4e-05
0.104848,-0.00177299
0.0178124,-0.00707641
-0.05408,-0.00466117
-0.0938462,0.00053895
-0.0246924,-0.000996396
0.0468872,0.00261924
0.0269437,0.00624143
0.0175308,0.00243264
0.0260615,0.000803011
0.0628262,0.00233886
0.0947038,-0.00425424
0.0997639,-0.00528223
0.0598185,0.00134708
-0.0128416,0.00479647
-0.0646008,0.00507191
-0.0692308,0.00483648
-0.113013,0.000827718
-0.154824,-0.000388149
-0.131404,0.00242062
0.0193627,0.00698633
0.259665,0.00539721
0.333476,-0.000718055
0.230678,-0.0152792
-0.0379664,-0.0141143
-0.224051,-0.00339922
-0.158024,0.000774862
-0.0973519,0.00111657
-0.109539,0.000174826
-0.112947,0.00641042
-0.0632665,0.0100822
-0.00380487,0.00377372
0.0111448,-0.00626711
0.00857051,-0.00338723
-0.041103,0.00236807
-0.0313867,0.00419972
0.0572691,0.00258915
0.154976,0.000275297
0.180816,0.0072926
0.152694,0.0138211
0.0698277,0.00994714
-0.112298,-0.00395834
-0.193845,-0.0168188
-0.0827553,-0.0246076
0.000779851,-0.0207815
-0.00588681,-0.00653362
-0.0285221,-0.00201754
-0.090792,-0.00152002
-0.109431,-0.00635703
-0.0967887,-0.00855147
-0.0637105,0.00447777
-0.019772,0.0113751
-0.00193432,0.00881974
0.0110313,0.00723693
0.113536,0.00863397
0.46141,0.00331968
0.72027,-0.0124892
0.556418,-0.0212959
-0.0645502,-0.0220203
-0.684143,-0.00795743
-0.618219,0.0127716
-0.254692,0.0138444
-0.075281,0.0104114
-0.0591362,0.00852117
-0.0193625,0.0109598
0.0488864,0.0106156
0.0798195,0.0069584
0.132182,-0.0176817
0.155808,-0.00314854
0.01527,0.010909
-0.0920327,0.0108482
-0.203554,0.0194
-0.206557,0.0199762
-0.0978129,0.00977852
0.0616055,-0.00253325
0.201919,-0.00898931
0.237948,-0.00405188
0.161425,-0.00226574
0.00185058,-0.0020322
-0.1192,0.00414323
-0.0943289,0.00430571
-0.026659,-0.0104636
-0.0179655,-0.0397064
-0.0497048,-0.0601444
-0.0301917,-0.0180267
0.0944158,0.0300741
0.167419,0.0217354
0.0946711,0.00715658
-0.0532375,0.00223503
-0.134937,0.00156054
-0.0568274,-0.00355141
0.00982492,-0.0104448
0.0412576,-0.0133858
0.0473809,-0.00208475
0.026033,0.00364022
0.00130755,0.00260217
-0.0182309,0.00760216
-0.012135,0.00597877
-0.0178956,-0.0160058
-0.0338042,-0.0174318
-0.0432032,0.00194693
-0.0339974,0.00711525
0.00148055,0.00273755
0.0608583,-0.00163214
0.111412,0.00136687
0.101831,0.0103296
0.0335379,0.0192351
-0.057145,0.0115697
-0.0750819,0.006262
0.000558616,0.00236707
0.0600965,0.00422021
0.0849876,0.00741753
0.0652745,-0.00286646
0.0211955,-0.00737732
-0.00757469,-0.00782584
-0.0731153,-0.00283506
-0.111984,-0.00118746
-0.110402,0.00570021
-0.0846776,0.00520144
-0.0578898,0.00739498
-0.0343225,0.0126296
-0.0138174,0.00970575
-0.0119378,0.00486902
0.0136462,-0.00149187
0.118884,-0.00446997
0.184763,-0.000812839
0.1429,0.00743045
-0.0171868,0.0139438
-0.153907,0.00991361
-0.0996593,-0.00785308
0.0031975,-0.00943572
0.178222,-0.0100144
0.30546,-0.0141067
0.263297,-0.0188113
0.0564197,-0.00960036
-0.266391,-0.00423549
-0.22748,0.000540679
-0.180979,0.00756858
-0.236998,0.00833805
-0.177601,0.00944158
-0.0709493,0.00690899
0.0647007,-0.00285059
0.130853,-0.00545379
0.117854,-0.00199477
0.0583921,0.000537523
-0.0721716,0.00578533
-0.135022,0.0104142
-0.0702322,0.00965744
-0.0376069,0.00710633
-0.044487,-0.0010704
-0.0196865,-0.00658374
0.018903,-0.0139913
0.0350759,-0.0135584
0.039692,-0.00841541
0.068364,-0.0125665
0.16484,-0.0204202
0.223719,-0.00851836
0.128552,0.00126058
-0.0559523,-0.000331248
-0.221487,0.00511056
-0.190364,0.0150788
0.000239389,0.0109891
0.111851,0.00599061
0.0601934,0.00272966
-0.0576972,-0.00167053
-0.0599384,-0.0165571
-0.0137592,-0.0132852
-0.00213226,-0.00271216
-0.0206575,-0.00744809
-1.22e-05,-0.00782646
0.160154,0.00256735
0.261016,0.00654281
0.160383,0.00765244
-0.133948,0.0079977
-0.308247,0.00498496
-0.134022,0.00137549
0.0534578,0.00568917
0.153557,0.0185101
0.166577,0.0233039
0.113347,0.0130642
0.060022,0.00624668
0.0391451,-0.00439135
-0.0947334,-0.00537049
-0.348741,-0.00671427
-0.43856,-0.0138627
-0.273115,-0.0117529
-0.0114622,-0.00157784
0.153486,-0.00194016
0.222736,-0.0359696
0.192135,-0.0135998
0.131578,0.00565742
0.225538,-0.00826296
0.302633,-0.0107584
0.211264,-0.00296102
0.0357795,-0.00234275
-0.319307,0.000578682
-0.348556,0.0212414
-0.155916,0.0336623
-0.0645348,0.0230795
0.0514302,0.0102989
0.156014,0.00842756
0.154779,0.000953117
0.0379813,-0.00855082
-0.139657,-0.00828026
-0.146346,-0.00624324
-0.0662804,-0.00781026
0.0138769,-0.0143675
0.057746,-0.0168018
0.0447273,-0.0190145
0.0059382,-0.0182338
-0.00479223,-0.00963751
0.00767505,-0.000415519
0.0236529,0.00152774
0.030255,0.00585471
0.0111404,0.0153465
-0.097423,0.0165707
-0.2248,-0.000570974
-0.210947,-0.0157127
-0.0833396,-0.00993979
0.0687881,0.0202744
0.176723,0.0321268
0.200476,0.0271268
0.16344,0.0188643
0.0968243,0.00326039
0.0516876,-0.0212053
0.00120318,0.00782663
