Comp Ch 3,Comp Ch 4
-0.104301,-0.0286593
-0.593022,-0.0274545
-0.735661,-0.0272348
-0.5175,-0.025263
0.0454075,0.00552969
0.552998,0.00914064
0.90668,-0.0151516
0.9391,-0.0403327
-0.13728,-0.00904029
-1.27933,0.00350715
-1.30992,-0.00607037
-1.10805,-0.00720565
-0.555912,0.028792
-0.15884,0.0349927
-0.00164193,0.0425521
0.109553,0.0445337
0.207028,0.0153605
0.250642,-0.0135444
0.297884,-0.0168102
0.252736,-0.0183748
0.110954,-0.0190882
0.0948457,-0.0229446
0.127646,-0.0406408
0.127343,-0.0156054
0.171593,0.0209429
0.223941,0.0229631
0.235068,0.00493093
0.108198,0.0309271
0.00564241,0.0525051
-0.177812,0.0561287
-0.274378,0.031965
-0.0803099,-0.0122573
0.0802753,-0.0236185
0.238115,-0.0119559
0.301354,-0.0196492
0.214707,-0.0186818
0.0617183,-0.00414383
-0.29024,-0.0106988
-0.270762,-0.0157937
-0.108225,-0.0557952
-0.0481519,-0.0139404
0.0679951,0.0579064
0.17369,-0.000219428
0.230981,-0.0243257
0.135181,0.0131903
-0.236919,0.0296828
-0.354831,-0.00906766
-0.232576,-0.0346629
-0.135487,-0.0618322
-0.0361773,-0.049336
0.0723501,0.0210066
0.215605,0.00877556
0.32058,-0.0171161
0.264763,-0.00387735
0.018804,0.0318893
-0.117879,0.0249319
-0.24501,0.00152407
-0.250866,0.00839208
-0.0921641,0.00986052
-0.0151871,-0.00248148
-0.0177029,0.0117044
-0.0715669,0.0316932
-0.0527529,0.031215
0.0351593,0.00133056
0.105891,-0.017818
0.120974,0.0142791
0.11446,-0.00405093
0.137942,-0.0140827
0.0999071,0.0206073
-0.0648436,-0.0135129
-0.0912688,-0.0455522
0.0171273,-0.0369056
0.111407,-0.0286119
-0.0250625,-0.0145148
-0.214278,0.0242427
-0.18225,0.0306006
-0.063107,0.0214925
-0.0757667,0.0198808
-0.0369169,0.0130701
0.172965,0.00570973
0.332113,0.00486981
0.314005,0.00771952
0.0659807,0.0137102
-0.19201,0.023546
-0.226875,0.0257893
-0.144043,0.00587347
-0.133966,-0.00745021
-0.130751,-0.00261736
-0.0615616,-0.0104026
-0.0195824,-0.0160892
0.0135704,-0.0130071
0.133564,-0.0147942
0.340127,-0.0120713
0.377481,-0.0135655
0.408056,-0.0130673
0.256124,-0.0227287
0.398855,-0.0113586
0.483945,-0.00592245
0.0852908,-0.0240028
-0.35822,-0.000718867
-0.979093,-0.00458671
-1.13729,-5.86e-05
-0.907532,0.0299023
-0.539539,0.0250569
0.201631,0.0169901
0.55042,0.0157495
0.287845,0.0147423
-0.167103,0.0111325
-0.518395,0.020565
-0.231342,0.0294552
0.177735,0.0103889
0.679802,0.00956554
1.19462,0.0236282
1.30619,0.000485491
1.06947,-0.0112502
-0.13439,-0.0181344
-1.39286,-0.0275335
-1.33979,-0.0575935
-0.687788,-0.0378797
-0.15749,-0.0150792
-0.0306178,-0.00850174
-0.0230221,0.0101176
0.119065,0.00520579
0.243491,-0.00299564
0.288557,-0.0192107
0.182102,-0.0483761
0.11041,-0.0325369
0.18822,0.00386157
-0.0486601,0.006665
-0.379731,-0.00349771
-0.484374,0.0419824
-0.287988,0.0537223
0.198082,0.0526513
0.716832,0.0316057
0.841023,0.00133311
0.407428,-0.0202486
-0.228819,-0.0177428
-0.520069,0.0119243
-0.287922,-0.00216613
-0.0357901,0.00246644
0.0816328,0.0213547
0.0339919,0.0267886
-0.0949352,0.0158502
-0.244902,-0.0090544
-0.212333,-0.0122572
-0.0688517,-0.0252821
0.0563313,-0.0188761
0.269525,0.0102089
0.330997,0.016551
0.318672,0.0106649
0.184419,-0.00714258
-0.141803,-0.029237
-0.164851,-0.0161292
-0.0795597,-0.00318491
0.0239762,-0.0300818
0.188022,-0.0369165
0.221678,0.0072107
0.0158996,0.0216916
-0.275327,0.00228626
-0.322427,-0.000661306
-0.229458,0.0114458
-0.182751,0.0203738
-0.213819,0.0024912
-0.180928,-0.0116274
-0.0600712,0.0250409
0.00440106,0.0455008
0.0158579,0.0153238
0.148884,-0.0229365
0.249084,-0.00936634
0.263318,-0.0182295
0.350427,-0.0497197
0.340539,-0.0276927
0.195092,-0.00944484
-0.105346,-0.00629748
-0.217511,-0.00435719
-0.141474,-0.0154383
-0.186465,0.0039453
-0.270407,0.0333625
-0.232873,0.00419009
-0.0407107,-0.0272101
0.0907562,-0.0430113
-0.0586716,0.00677344
-0.0636169,0.0181881
0.21368,0.045113
0.589437,0.0234785
0.593375,-0.0038036
0.204329,-0.00987324
-0.256674,-0.0139294
-0.120658,-0.00969893
-0.0273741,0.0312729
-0.223802,-0.00491895
-0.320347,-0.0126691
-0.392648,0.0505086
-0.355437,0.0368982
-0.218456,-0.01979
-0.0845108,-0.0451106
-0.0218942,-0.0264645
0.179734,0.0163876
0.548027,0.0331688
0.48966,0.0395722
0.128932,0.0366476
-0.32262,0.00975869
-0.422851,-0.0172342
-0.0997209,-0.011658
0.0688769,0.00651482
-0.0252682,-0.00649161
-0.138557,-0.0112988
0.141232,0.000355653
0.417572,-0.0101353
0.537355,-0.0266069
0.497302,-0.0174406
0.19527,-0.017894
-0.241355,-0.0109182
-0.871972,0.0131218
-0.964593,0.0262327
-0.504552,0.0269888
-0.196299,0.0183644
-0.0261084,0.0034894
0.101286,-0.0178509
0.141285,-0.0192149
0.128807,-0.0125216
0.142078,-0.0593755
0.180063,-0.0422343
0.204124,0.00566861
0.190316,0.0217856
0.193218,0.0184968
0.30014,0.000458768
0.416387,-0.000920468
0.483238,0.0103244
0.354354,0.0203933
0.45741,0.0238498
0.402328,0.017433
-0.179727,0.00601718
-0.807413,0.00983684
-1.12603,0.0243509
-0.458857,0.0127262
0.0239534,-0.00486167
0.0927,-0.00309046
0.0633513,0.0234307
-0.00944573,0.0144507
-0.137646,0.00694133
-0.108218,-0.00920336
0.00712624,-0.0568301
0.00372803,-0.0608866
0.028783,-0.0238775
-0.0237971,-0.000108688
-0.189315,0.026798
-0.212691,-0.00155279
-0.00263584,-0.00698121
0.209821,-0.00598172
0.262706,-0.0339929
0.0409329,-0.00304735
-0.00749653,0.0383963
-0.044901,0.0227632
-0.107073,0.0292926
0.022852,0.0479097
0.0993791,0.0296912
0.0519432,-0.0121536
0.00799276,-0.0302042
0.031769,-0.0190647
0.243682,-0.00553991
0.367176,-0.00969729
0.197314,-0.0108985
0.177691,0.00663514
0.293346,0.0102083
0.268832,0.00632024
0.0783117,-0.0159647
-0.316285,-0.0376431
-0.335972,-0.0477496
-0.401874,-0.0423031
-0.57011,-0.0394998
-0.347516,-0.0549604
0.00068585,-0.078172
0.283114,-0.0481616
0.508933,-0.00408573
0.629105,0.032398
0.280267,0.0698836
-0.32281,0.0955568
-0.86655,0.0879539
-0.658456,0.0371463
-0.436347,-0.00484203
-0.283087,0.00867344
0.0130533,0.0555407
0.280701,0.0462649
0.451265,0.0331739
0.383973,0.0192468
0.304819,0.00444501
0.30433,-0.01214
0.267241,-0.00395632
0.219237,0.0235819
0.103686,0.0222486
-0.197422,-0.0334303
-0.46067,-0.0803453
-0.345496,-0.0299454
-0.308675,0.0282537
-0.258096,0.0168497
-0.0762585,-0.0101769
0.0288332,-0.0328209
0.0481734,-0.0207934
0.187334,-0.0270048
0.350287,-0.0202975
0.403766,0.0128765
0.287438,0.0349162
-0.0881026,0.00438042
-0.229975,-0.0217514
-0.147721,0.000909937
-0.0197187,0.0365853
0.0210189,0.0103386
-0.00798559,-0.0251309
-0.0477172,-0.0175281
-0.107043,0.0108298
-0.13904,-0.0230081
-0.0783318,-0.020558
-0.0142356,0.0172873
0.014893,0.0310285
0.0133656,0.0447268
0.0189079,0.0301213
0.0610607,-0.00874554
0.123617,-0.0166467
0.130707,0.0067961
0.0345139,-0.00517176
-0.0312025,-0.00889604
-0.0448459,-0.00690398
-0.0455185,-0.00729505
-0.0432985,-0.0134952
-0.0168127,-0.0317812
0.066609,-0.0419261
0.221693,-0.0388589
0.367495,-0.00948198
0.396907,-0.00923212
0.241703,-0.0169688
-0.0432624,-0.00445885
-0.421397,0.0225346
-0.264214,0.0213831
0.0368883,0.0263356
-0.00298046,0.0185306
-0.167296,-0.0177155
-0.202162,-0.0220085
-0.225117,-0.0138175
-0.269267,-0.0279033
-0.286896,-0.0169583
-0.172521,-0.00183785
0.139338,0.016717
0.339747,0.0368978
0.318825,0.0251787
0.171321,-0.00697484
0.0532282,-0.015247
-0.0311468,-0.00374529
-0.355537,0.0139253
-0.457652,0.0229196
-0.190633,0.013202
0.0217714,0.00573373
0.151113,0.0110314
0.179029,0.0134642
0.126415,0.0219468
0.109916,0.0202109
0.111805,0.00841896
0.0680706,0.00589427
-0.0239114,0.0105003
-0.114944,0.0170214
-0.137219,0.0268647
-0.161505,-0.00915464
-0.155793,-0.0546581
-0.0078748,-0.0506818
0.260303,-0.025761
0.467135,0.000966174
0.313242,-0.00434647
0.0802762,-0.0195963
0.255135,-0.000718696
0.71594,-0.0213409
0.566228,-0.0315183
-0.230798,0.0209612
-0.753771,0.0373287
-0.427272,0.0234533
-0.277426,0.0180103
-0.399209,0.0209646
-0.27823,-0.010596
-0.154187,-0.0141156
-0.0744272,0.0106867
0.00173866,0.00360529
0.0215223,-0.0166368
0.000116006,0.0032806
-0.0950526,0.0232545
-0.0506876,0.0151748
0.132181,0.00845081
0.215089,-0.0231988
0.180715,-0.0364526
0.0649665,-0.00399559
0.0107411,-0.00616844
0.11524,-0.0393946
0.227964,0.0465771
0.201083,0.0454482
-0.0114134,-0.0292779
-0.171005,-0.0418616
-0.242628,0.00360615
-0.195059,-0.0144209
-0.114785,-0.0132607
-0.0322345,0.0632316
-0.0214581,0.0382581
0.00808477,-0.0025996
0.200197,0.00606971
0.279341,0.0183453
0.234154,0.0245586
0.0880408,0.009388
-0.0668873,-0.0273549
-0.0733173,-0.0684783
-0.111929,-0.026577
-0.224967,0.000803664
-0.18235,0.0280951
-0.0740903,0.0331292
-0.00467461,0.0101526
0.0466912,0.00480194
0.0584126,-0.00994094
0.0881592,-0.0319631
0.107772,-0.0126318
0.107741,0.00926604
0.0665143,0.00405032
0.0203246,0.00535995
0.0460935,0.004718
0.00677915,-0.0168104
-0.136182,-0.0409186
-0.0370446,-0.0110745
0.125147,0.0280448
0.152627,0.0133298
0.0120138,0.0212983
-0.189589,0.0270982
-0.175284,0.0120404
-0.0828777,0.000971059
-0.137406,-0.00190462
-0.178915,0.0108162
-0.131388,0.0151461
-0.0221542,-0.0132824
0.103031,-0.0106907
0.17184,-0.0113378
0.200815,-0.0255394
0.188621,-0.0218179
0.227413,-0.0681418
0.270304,-0.0910927
-0.0649258,0.0170881
-0.353687,0.0862566
-0.309316,0.0979301
-0.221266,0.0617913
-0.0680192,-0.0175012
0.10509,-0.0387147
0.0727746,-0.0595331
0.0205164,-0.0323481
-0.0562671,-0.00180048
-0.0899901,0.0126853
-0.00521161,-0.00163606
0.283147,-0.0228577
0.389497,0.0107403
0.130713,0.0134725
-0.253498,-0.0144497
-0.370929,-0.0388138
-0.0903626,0.0345284
0.150685,0.05178
0.282646,0.0209264
0.228796,0.0114409
0.0514837,0.0337623
-0.191248,0.00183685
-0.281864,-0.0771589
-0.183672,-0.0158518
0.0211583,0.0228137
0.163963,-0.00506619
0.163203,-0.0335163
0.0520804,0.0112372
0.199505,-0.00098244
0.26305,-0.0111304
-0.1982,0.0169481
-0.400518,0.0291917
-0.189844,0.0288057
-0.00110518,0.0183038
0.209929,0.00176809
0.207942,0.00595572
0.0532074,0.0285817
-0.178009,0.0362321
-0.429292,-0.0217893
-0.213444,-0.0690702
-0.000668876,-0.0321854
-0.0503979,0.00685947
-0.0537861,0.0226302
-0.0290845,0.0306163
-0.00928168,0.0027232
-0.0142513,-0.0164316
0.0257332,-0.0265043
0.117698,-0.0382202
0.251154,0.000172731
0.328049,0.0166822
0.272347,0.03039
0.178433,0.0246632
-0.0352734,0.00176135
-0.218036,-0.0128736
-0.118662,-0.0134816
-0.026892,-0.00257608
-0.109374,0.00151552
-0.0643547,-0.0124294
0.0535614,-0.0254581
0.0710787,-0.0210777
0.00374254,-0.0156992
-0.118741,0.00662124
-0.0850715,-0.00563648
-0.0632804,-5.65e-05
-0.110264,-0.00892056
-0.052515,-0.0421921
0.016338,0.0140057
0.0361006,0.0632592
0.0465229,0.0295916
0.0649546,0.0127767
0.10056,0.00319698
0.105378,0.00817683
0.0589731,0.00479995
0.114861,-0.0012014
0.270289,-0.00420114
0.2452,-0.0102059
0.0144395,-0.00471051
-0.349774,0.0242524
-0.400615,0.0340624
-0.178017,0.0275668
0.0601476,-0.00919587
0.215289,-0.0362204
0.206203,-0.086953
0.0400345,-0.0725622
-0.245508,0.0515445
-0.248329,0.0617181
0.015595,0.0215282
0.145012,0.0157427
0.145288,0.0229284
-0.0446385,0.00165502
-0.126763,-0.0522761
0.0167375,-0.0807969
0.147356,-0.0339482
0.297033,0.0564651
0.19004,0.0542176
-0.101677,0.00773082
-0.298128,-0.0142668
-0.396318,0.00667947
-0.335242,0.029129
-0.114288,0.0309621
0.0804589,0.00148106
0.120344,-0.0307067
0.160996,-0.0314366
0.123198,0.0102482
-0.00570967,-0.00500496
-0.0986235,-0.00527273
-0.0631957,-0.0330966
-0.00600589,-0.0424025
-0.04265,-0.00395189
-0.0714997,0.0109752
0.0665769,-0.00631204
0.226137,-0.0443069
0.19761,0.0156489
-0.024586,0.0636815
-0.167985,0.0254656
-0.0803168,0.0243084
0.0235691,0.0419303
0.100092,0.0305874
0.121224,-0.0118394
0.141257,-0.0381009
0.143287,-0.00958802
0.201356,0.00924754
0.190344,-0.0183513
0.0345113,-0.0303161
-0.183794,0.000868885
-0.196611,0.0107625
-0.0501313,-0.00959015
-0.0290894,-0.0175322
-0.0654254,-0.0288885
-0.0820072,-0.0696103
-0.214466,-0.00486628
-0.301036,0.0262211
-0.230288,-0.00255937
-0.0665966,0.00904098
-0.00941086,0.0354144
0.0733736,0.0260208
0.236614,0.0110429
0.441989,0.00939512
0.408684,0.0121959
0.0887552,0.00258141
-0.26742,-0.00368404
-0.281328,0.0332252
-0.134676,0.042369
0.0377328,0.0133474
0.160082,-0.0341838
0.113942,-0.0444595
-0.041096,0.0313945
-0.140465,0.029782
-0.0124181,-0.0139979
0.229031,-0.0304118
0.0813409,0.0116021
-0.388824,0.0258988
-0.368556,0.0026381
-0.113474,-0.0124279
0.00913656,0.00275001
0.126671,0.02012
0.23456,-0.0551201
0.114988,-0.148371
-0.112165,-0.0625995
-0.136094,0.0424598
0.0543495,0.0752053
0.218404,0.0290389
0.212876,-0.0282923
0.0787418,-0.072012
-0.0763088,-0.0151518
-0.132501,0.0230979
-0.137614,0.0476318
-0.118736,0.0554489
-0.0236068,0.05686
0.093713,0.0244322
0.096769,0.01022
0.028384,0.0048617
-0.00265283,-0.0198718
-0.0264453,0.0266155
-0.0739188,0.0332773
-0.0814794,-0.038356
-0.018227,-0.0366665
0.0356892,0.0593815
0.0238857,0.0750437
0.0939788,0.0276212
0.151126,-0.0501251
0.268216,-0.123569
0.582792,-0.0720965
0.645459,-0.051017
0.221562,-0.000745064
-0.393745,0.031487
-0.572732,-0.0138391
-0.355107,-0.0507899
-0.29167,0.0458556
-0.301134,0.0665069
-0.0945368,0.032409
0.0316609,0.022225
-0.149262,0.0156982
-0.273425,0.0011877
-0.0749445,-0.0133899
0.0225246,0.000543213
-0.141222,-0.0224871
-0.119875,-0.0238531
0.0268623,0.042948
0.0231926,0.0507853
0.228638,0.0280248
0.489239,-0.00306216
0.384392,-0.0323177
0.104667,-0.0187567
-0.188314,0.0311012
-0.09766,0.0134054
0.0612677,-0.0618694
-0.0636175,-0.0658764
-0.214642,-0.0183878
-0.153329,-0.0709776
-0.0146348,-0.0155434
0.160677,0.0579751
0.186772,0.0562465
0.0511412,0.0410201
-0.116298,0.0350639
-0.142464,0.011977
0.065763,-0.0202235
0.225897,-0.034615
0.268633,-0.0141208
0.172773,0.0309978
-0.124237,0.0159623
-0.244143,-0.0261047
-0.159659,-0.011006
-0.0767999,0.0472016
0.170253,0.0312261
0.203927,-0.0227121
-0.00929477,-0.053919
-0.18312,-0.105821
-0.126963,-0.0546292
-0.0047724,0.00503584
0.0866993,0.00737529
0.184328,0.00311516
0.136446,-0.00160844
-0.0201503,0.0260253
0.0384497,0.0223292
0.0726681,0.00945556
-0.114194,0.0270469
-0.34777,-0.00367172
-0.25724,0.0200143
-0.135742,0.0156108
-0.0546032,0.0120489
0.0382275,0.0263076
0.0692161,0.0375311
-0.0442569,0.0864052
-0.094942,0.0681734
0.0104933,0.0236834
0.123649,-0.0351146
0.100766,-0.0308143
-0.0997775,-0.00085837
-0.0620364,0.0385781
0.220984,0.00448938
0.225766,-0.0897498
0.205262,-0.0690949
0.230947,-0.055945
0.19184,-0.0729079
0.176989,-0.0550362
-0.0545314,-0.041272
-0.181726,-0.0399715
-0.215605,-0.057129
-0.146194,0.058873
-0.0967491,0.0375947
-0.208716,-0.00610099
-0.204604,0.0596539
-0.0360267,0.0684901
0.0333288,0.00319095
-0.125972,-0.0142603
-0.339115,-0.00295461
-0.265618,0.0485599
-0.0190763,0.0397083
0.188838,-0.057489
0.302094,-0.0897184
0.258878,0.0259401
0.13941,0.0576793
0.171804,0.0188506
0.179513,0.0200517
0.0313316,0.0233247
-0.212064,0.0855716
-0.278427,0.0543608
-0.153575,-0.0172803
-0.142432,-0.0531059
-0.0296481,-0.0158858
0.180474,0.045123
0.220871,-0.00365111
0.121415,-0.0140458
0.209089,0.00868787
0.314375,-0.00938162
0.381778,-0.0501263
0.602826,-0.123642
0.63773,-0.148734
0.396231,-0.0675397
-0.562102,0.00307549
-1.25914,0.103465
-0.929721,0.140402
-0.492109,0.058581
-0.167499,0.0132589
0.0723624,0.019508
0.0944439,0.0139096
-0.0771741,-0.023234
-0.164008,-0.0147628
-0.107335,0.079844
-0.0565709,0.182108
0.0262807,0.146714
0.234258,-0.0444626
0.230856,-0.149066
-0.0492422,-0.159825
-0.0234454,-0.158914
0.277243,-0.0855364
0.509909,-0.0137973
0.188782,0.0115574
-0.43274,0.0323611
-0.352243,0.0328421
0.0837367,-0.043267
0.309204,0.00616082
0.288449,0.0294481
0.0811849,-0.00119428
0.0305414,0.0281545
0.417169,0.00474825
1.26379,-0.0207379
1.49398,0.0154642
0.804255,0.0500517
-0.82147,0.0774672
-2.00673,0.0974302
-1.62094,-0.00261432
-0.866389,-0.0961535
-0.419715,0.0274353
-0.0523509,0.00893956
0.178688,-0.0252636
0.135205,-0.0148947
0.036834,0.0135132
-0.0284478,-0.0790882
0.078495,-0.0544193
0.231552,0.0439617
0.347436,0.0367363
0.26493,0.0102628
-0.084278,-0.0514111
-0.305048,-0.021672
-0.289622,0.0719283
-0.0849966,0.0982064
0.113266,0.0417247
0.138839,-0.0372493
0.0757675,-0.0665011
0.157826,-0.0585011
0.437957,-0.0522916
0.546355,-0.00745446
0.399741,0.0434112
0.152756,0.0626078
-0.104142,0.0172496
-0.0321919,-0.0105532
-0.00830865,0.0175892
-0.344401,-0.0132634
-0.587832,-0.056209
-0.459875,0.00932286
-0.0352719,0.112079
0.381341,0.08814
0.400996,-0.0512719
0.261085,-0.147196
0.0733938,-0.091655
-0.160686,0.0702841
-0.329162,0.0737324
0.14,-0.0377574
1.10364,-0.0715866
1.46574,-0.0113561
0.972131,-0.0115535
-0.460489,-0.0441955
-1.12765,-0.0337636
-1.54217,-0.0257804
-1.43722,-0.00940575
-0.879931,0.0540292
-0.45856,0.0261609
-0.154407,0.0497815
0.277008,0.0877501
0.854388,0.0717388
0.994144,0.0061505
0.761554,-0.0704578
0.0830713,-0.0469982
-0.510758,0.00896992
-0.360862,-0.0203146
-0.081068,0.00634654
-0.182855,0.0213151
-0.0509808,0.00111967
0.0550274,-0.0363467
-0.0652175,-0.0670378
0.0178331,-0.0501178
0.10521,0.0437416
0.094737,0.060348
0.341571,0.0665338
0.548349,0.108175
0.17343,0.0462506
-0.112144,0.0158551
-0.244922,0.0352855
-0.305164,0.0158835
-0.371873,-0.0350988
-0.368168,-0.0514165
-0.195628,-0.0251475
-0.192782,0.00416894
-0.21939,2.44e-05
0.0850495,-0.0857578
0.4407,-0.0863687
0.504761,-0.0337543
0.246428,-0.0467303
-0.140041,-0.143502
-0.213598,-0.100021
-0.0132465,0.0332104
0.386591,0.00451418
0.668123,0.0301391
0.902736,0.0500122
0.624932,0.0628949
-0.16359,0.0493977
-0.459033,0.096957
0.0254542,0.125657
0.0373371,0.0320645
-0.69589,-0.0277954
-1.16529,-0.0117353
-0.729455,0.0105912
0.0798602,0.0142333
0.575136,0.000492304
0.427172,-0.00634419
0.081432,0.00360578
0.233712,-0.00626112
0.218886,-0.0220899
0.0185323,-0.0368788
-0.209544,-0.0476998
-0.856569,0.00153205
-0.957333,0.0702841
-0.366041,0.0892991
0.037379,0.123355
0.0835528,0.0619425
0.0659074,-0.0494765
0.123602,-0.161015
0.492176,-0.145205
0.764228,-0.0721418
0.739376,-0.0539972
0.650925,-0.0401741
0.267634,-0.0123069
0.233259,-0.00272388
-0.0366378,-0.0194889
-0.831445,0.0074302
-1.02867,0.0379982
-0.743336,0.0550199
-0.393846,0.0663819
-0.037182,0.0993766
0.323817,0.109504
0.387381,0.0407348
0.0365779,-0.0226086
-0.270088,-0.00151376
-0.193851,0.0275363
0.301588,-0.00580452
0.762161,-0.114455
0.657119,-0.0774776
0.145418,-0.0266478
-0.388025,-0.0307265
-0.293814,-0.0371862
-0.00567683,-0.0598842
-0.479147,0.00421025
-0.551625,0.0284905
-0.107432,0.0772512
0.359654,0.0959038
0.617659,0.0382232
0.463943,-0.119577
0.688643,-0.116755
1.00634,0.00309207
0.998168,-0.0186596
0.136845,-0.0480327
-1.32474,-0.070944
-1.39616,0.0378021
-0.561195,0.16574
0.096925,0.194512
0.146501,0.110578
-0.24654,0.0540597
0.354152,-0.0361586
0.720637,-0.155934
-0.205643,-0.181264
-1.09128,-0.129039
-1.2512,-0.0197037
-0.418787,0.0496045
0.346005,0.112378
0.73246,0.081966
0.586451,0.0342997
0.24682,0.0577526
0.0456066,0.0269603
-0.00863077,-0.0854112
-0.340991,-0.0788077
-0.585738,-0.00819591
-0.316187,-0.0153967
0.0288476,-0.0477603
0.177119,-0.072997
0.206617,0.0147967
0.0200903,0.0782213
-0.0685263,0.0459208
0.104517,0.0422693
0.141,0.0623669
0.143595,0.0520944
0.182212,-0.0430448
0.144417,-0.0629651
0.0621516,-0.000300806
0.0311945,0.0409584
0.316824,0.0368278
0.609788,0.0218953
0.327309,-0.00252779
-0.373006,-0.0101675
-0.812634,-0.00470676
-0.516123,0.00752444
-0.0639205,0.0439846
0.1625,0.0518357
0.202367,-0.00503764
0.0740098,-0.0384094
-0.0170876,-0.0147935
-0.00463669,-0.0231282
-0.0609931,-0.0236615
0.00107468,-0.0146246
0.109686,-0.0118919
0.386841,-0.0317705
0.989973,-0.0589324
1.36839,-0.0896486
0.943415,-0.0364597
-0.285962,0.0137084
-1.25263,0.0398032
-1.38649,0.00304146
-0.863964,-0.0378045
-0.41537,0.00576931
-0.409864,0.0940654
-0.217771,0.0532279
0.188479,0.0364788
0.49763,0.00462361
0.3262,-0.0529371
0.0163194,-0.0819124
-0.348954,0.0112723
-0.46504,0.0869117
-0.300681,0.0568771
-0.0217946,0.0350966
0.151331,0.0815506
0.133495,0.0875117
0.219371,-0.0124231
0.375591,-0.0896156
0.296778,-0.160893
-0.0663351,-0.116198
-0.134228,0.00460113
0.114691,0.0835064
0.218852,0.00715101
-0.100356,-0.0842091
-0.286851,-0.0196414
-0.0503017,0.00830396
0.227338,-0.0346629
0.302912,-0.0385069
0.356616,0.0592722
0.187891,0.0883707
0.323493,-0.00160601
0.424796,-0.0157471
0.152265,0.0599383
0.238736,0.0485063
0.889413,-0.0696399
0.658775,-0.173424
-0.327978,-0.187359
-1.08923,-0.158344
-1.25183,0.0014904
-0.657764,0.12749
-0.187289,0.146746
-0.351796,0.127824
-0.571183,0.105158
-0.440632,0.0598582
-0.249744,0.0186585
-0.147941,0.0419983
-0.0531052,0.101507
0.237863,0.0587355
0.409894,0.00488931
0.285301,0.0175953
-0.0942235,0.0438904
-0.346021,-0.000901629
-0.0884567,-0.0694882
0.230539,-0.0654935
0.388375,-0.0394222
0.452421,-0.0436047
0.38588,-0.0466886
0.259311,-0.0302209
0.19737,-0.017407
0.213395,-0.0229222
0.227372,-0.0744675
0.112681,-0.125928
-0.149929,-0.0607397
-0.335638,0.0407769
-0.217183,0.0541365
0.0220925,0.0462402
0.0531049,-0.0252546
-0.0207476,-0.056691
-0.0299143,0.020009
0.193269,0.0684233
0.430938,0.0804423
0.504233,0.0502806
0.454897,0.0134837
0.135059,0.0129056
-0.300953,0.0323495
-0.346357,-0.00266844
-0.351045,-0.0433931
-0.384174,-0.02913
-0.31953,-0.0167637
-0.486253,0.0305681
-0.537544,0.0258686
-0.288659,0.00212575
-0.0815467,-0.00581715
-0.0250292,0.00636773
0.0200217,0.0225807
0.074191,0.0233158
0.114709,0.0166409
0.167844,0.00936592
0.228743,-0.000438672
0.249634,-0.00264781
0.225653,0.00437038
0.178047,0.0108462
0.13071,-0.0312307
0.0996601,-0.0333672
0.0247277,-0.00343344
-0.0665415,0.0393084
-0.122635,0.057209
-0.154444,0.0215671
-0.0874469,-0.0590586
0.0741665,-0.133337
0.0505037,-0.0519553
-0.117888,-0.00178523
-0.142879,0.00490532
-0.053132,-0.0171973
0.109611,-0.0496392
0.2437,-0.036631
0.276397,0.0379972
0.337896,0.0678351
0.327231,0.0412595
0.0384545,-0.00394895
-0.105463,-0.0152147
-0.203305,-0.0103402
-0.381868,-0.0361174
-0.337687,-0.0498097
-0.1222,-0.0227235
0.0400559,0.010867
0.0419856,0.0347347
-0.0781169,0.0278442
-0.167269,0.0741677
0.000453742,0.0443092
0.10638,7.67e-06
0.0778395,0.0191988
0.163448,0.00157654
0.344337,-0.0328066
0.527113,-0.0422281
0.220881,0.00342316
-0.266487,0.0184977
-0.668479,0.0236519
-0.586655,-0.00184692
-0.17825,-0.0438527
-0.0569216,0.0188312
-0.0342201,0.00759497
0.00932082,-0.0716073
0.0752327,-0.00854717
0.0554592,0.0997888
0.0196838,0.107884
0.0397858,0.0794132
0.0542654,0.0210381
0.268467,-0.04923
0.36844,-0.0848918
0.240151,-0.071534
0.0492009,-0.0521155
-0.138,-0.0642099
-0.0523931,-0.0665977
0.222694,-0.00304353
0.410003,0.0373913
0.108077,0.0546041
-0.556768,0.0372476
-0.705017,-0.0101539
-0.441497,-0.00441479
-0.160551,0.019102
-0.0403424,0.0304785
0.00336887,0.0159863
0.0686703,0.00504307
0.112647,0.00266196
0.0932221,0.0225184
0.156563,0.0443414
0.330861,0.00348101
0.257282,-0.017252
0.107921,-0.0175612
0.0189579,-0.0146323
-0.155861,-0.0317091
-0.163017,-0.035051
-0.00126683,-0.000789853
0.0690059,-0.01475
0.000897755,-0.138986
-0.0942692,-0.146232
-0.0594975,0.0208058
0.00622818,0.107016
0.0359997,0.11471
0.0562828,0.0675439
0.0521612,0.0251613
0.0152291,0.023695
-0.00733767,0.0136414
-0.0666962,0.0025467
-0.0420797,0.00255474
0.114698,-0.00191329
0.210742,0.00446478
0.11994,0.000513359
-0.0816278,-0.00745582
-0.304291,0.00613093
-0.280999,0.0166561
-0.065113,0.0170085
0.123407,0.0150666
0.203918,-0.0509644
0.18895,-0.0849626
0.0720292,-0.0225803
-0.00509871,0.042065
0.0135328,0.0356666
-0.0165426,-0.00486116
-0.0770418,-0.0241963
-0.0932431,-0.0239319
-0.154231,0.0073861
-0.117957,0.0315148
-0.0479547,0.0239527
0.100563,0.00724445
0.247335,-0.0175566
0.201368,-0.0273065
0.0880762,-0.00741161
0.01216,-0.0173077
-0.222213,-0.0130804
-0.349362,-0.00891407
-0.193207,-0.00644013
0.0555795,0.0134145
0.404375,0.0405921
0.455829,0.0262466
0.202157,0.000729079
-0.255039,-0.0136288
-0.446316,-0.0282151
-0.192523,-0.0255234
-0.0444203,0.0335068
-0.0215343,0.0451365
-0.0300697,-0.025441
-0.0254939,-0.0272121
-0.0405162,-0.0308836
-0.0941754,-0.0420954
-0.0822671,0.0597654
0.0048855,0.0335598
0.0460104,-0.02367
0.0156895,0.0342846
0.0109164,0.0298763
-0.00293887,-0.0465942
0.0234492,-0.044815
0.0524105,-0.0171843
0.12562,-0.0115551
0.161916,0.00983264
0.0468593,0.0150872
0.025913,0.0214105
-0.0481162,0.0135487
-0.10794,-0.00355772
-0.0143513,-0.0114174
0.102308,-0.0022753
0.110275,0.0352326
0.219994,0.0469408
0.491708,0.0102702
0.448925,-0.0444524
0.148225,-0.0131668
-0.208673,0.0142179
-0.459595,-0.017363
-0.420821,0.0105266
-0.20594,0.00878181
-0.257395,-0.0118116
-0.260894,0.00452541
-0.101408,0.0207014
0.0328807,-0.00155632
0.051204,-0.0230837
0.0310365,0.0227242
0.0312493,0.0217323
0.000629801,-0.0150175
-0.0307137,-0.012255
-0.0700817,0.0147781
-0.0121933,0.0043616
0.153191,0.0417024
0.132157,0.0453575
0.0126639,-0.0392065
-0.0364625,-0.0738453
-0.0329878,-0.0618985
-0.012171,-0.0194584
0.146147,0.000310139
0.307396,-0.0137958
0.247844,-0.00262974
0.0716333,0.00775994
-0.168197,-4.16e-05
-0.220235,0.00340128
-0.12961,0.013312
-0.0402214,0.0162112
0.00200876,0.00650234
0.0144455,-0.000387289
-0.0360226,0.0120763
-0.128196,0.0250114
-0.0560093,0.0190063
0.106542,-0.034974
0.252039,-0.0871555
0.378267,-0.037303
0.409788,-0.0120691
0.395411,0.0193649
0.134829,0.0861173
-0.445476,0.134793
-0.525893,0.104288
-0.196334,0.0144454
-0.0312304,-0.0259613
-0.076798,-0.0595218
-0.270968,-0.0831117
-0.373303,-0.0522288
-0.247358,-0.0332411
-0.0838918,-0.0223841
-0.0257421,0.00653132
-0.0516895,0.0216188
-0.0183691,0.0194865
0.012381,0.0122463
-0.00122332,-0.00383956
0.0566923,-0.00770332
0.218262,0.00609141
0.36643,0.00959694
0.417953,0.015971
0.32793,0.0159165
0.306565,0.00481652
0.569384,-0.00320882
0.613888,-0.0337154
0.193964,-0.0926883
-0.497681,-0.0402678
-0.821651,0.00523695
-0.505731,0.020628
-0.342189,0.0197246
-0.464743,0.0381065
-0.223639,0.0282664
0.0436731,0.016663
0.0300075,-0.0341645
-0.0362685,-0.0748743
-0.0615614,-0.0309174
-0.0408194,0.0353378
-0.0126816,0.0230536
0.0208355,-0.0182646
-0.0108489,0.0344527
0.00657617,0.0567949
0.0879523,0.0388987
0.163379,0.0338461
0.249637,0.0383189
0.275808,0.0212144
0.200057,0.0103723
0.118713,0.0157418
-0.0454765,0.0165463
-0.159071,0.00955531
-0.0961264,-0.0182917
-0.0631549,-0.0522925
-0.078428,-0.0322827
-0.0586932,-0.00605804
0.0502409,0.0192408
0.129012,0.020264
0.105677,0.00227015
-0.00480771,-0.0197609
-0.101212,-0.0404357
-0.0573262,-0.067331
0.107862,-0.0806589
0.201993,-0.0146984
0.226742,0.0166203
0.356349,0.0048879
0.27603,0.0252808
0.119362,0.0460673
-0.169979,-0.00215391
-0.435126,-0.0284167
-0.350093,0.00374256
-0.281612,0.0122369
-0.201858,0.0116737
-0.142878,-0.00584436
-0.0998999,-0.0312154
-0.0180725,-0.0184905
-0.0137698,-0.00421857
-0.0245502,0.0190023
-0.0407515,0.0249429
-0.0131206,0.0174092
0.0842976,0.0181887
0.160393,0.0263538
0.176132,0.0141125
0.133536,-0.00401495
0.0616204,0.0336909
0.0458209,0.022892
-0.00152293,-0.00797756
-0.0681512,-0.00819611
-0.0874643,0.0478396
0.132379,0.0368316
0.350227,0.0193003
0.298584,-0.101535
0.0415308,-0.157656
-0.25989,-0.0530975
-0.423803,-0.00302844
-0.363363,0.0154529
-0.156793,0.0109269
-0.0452462,0.0166918
-0.00242909,0.0337808
0.0894576,0.0245626
0.160314,0.00502007
0.151374,0.0182208
0.141117,0.0125763
0.114826,-0.00567969
0.059406,-0.00242943
-0.0180084,0.027285
-0.155981,0.0293773
-0.179321,0.0217488
-0.0398851,0.0103172
0.0489598,-0.00950025
0.104885,-0.00387414
0.0849046,0.00650684
0.0259694,-0.0136078
-0.0155804,-0.0288425
-0.1204,-0.00906217
-0.211986,-0.0067158
-0.196309,-0.0304744
-0.0249481,0.0193175
0.210915,0.0123754
0.192459,-0.028331
0.0843809,-0.0733341
0.0574707,0.0214381
0.0679988,0.0745827
-0.004456,-0.00151332
-0.105035,-0.044408
-0.0228792,-0.0216346
0.232318,0.0117378
0.573248,-0.00707039
0.547028,-0.02944
0.187732,0.000869113
-0.442923,0.0460583
-0.692138,0.0827817
-0.593296,0.0174683
-0.421269,-0.0322223
-0.181123,-0.0109717
0.0476316,-0.010651
0.148048,-0.000508003
0.104587,0.00282835
0.0219889,-0.0351539
-0.119144,-0.0296514
-0.0992486,0.0570197
0.00619025,0.0512236
0.0170047,-0.00281829
-0.00776234,-0.00318677
0.00715227,-0.0113085
0.0978995,-0.0145476
0.311954,0.00295594
0.397994,0.0112883
0.332593,0.0129281
0.110364,0.00536924
-0.261112,0.00985644
-0.292617,0.00745224
-0.0910643,-0.0178875
-0.0208314,-0.024495
-0.01939,-0.0322133
-0.0292113,-0.0628913
-0.0258813,-0.0977095
0.0204392,-0.0532419
0.114625,0.0583422
0.133976,-0.00676335
0.092743,-0.00911394
-0.00792143,0.0338804
-0.0225067,0.0594491
0.0722521,0.038549
-0.00923398,0.0237312
-0.117549,0.0233405
-0.0815624,0.018411
0.118915,0.0138291
0.239395,-0.00207633
0.113535,-0.0171387
-0.182528,-0.0103225
-0.279698,0.0242154
-0.141239,0.063155
-0.101963,0.0683427
0.0103684,0.0464291
0.223626,0.0262682
0.0763672,-0.00601011
-0.146418,-0.0576916
-0.144311,-0.0632651
-0.0532052,-0.0542299
-0.0708171,-0.0695454
-0.0801119,-0.0277528
0.0911858,0.028123
0.153612,0.0172103
0.111135,-0.0212989
0.122813,-0.0147996
0.122062,-0.0115353
0.107229,-0.0118583
0.141278,-0.0142052
0.245262,-0.0145488
0.167354,-0.00885325
-0.216973,-0.00997733
-0.510438,0.00596661
-0.424498,0.0368352
-0.273182,0.0330166
-0.140669,0.0201219
-0.0384069,0.0143216
0.0360869,0.0131999
0.0683634,0.0129344
0.0821916,0.0150111
0.0837466,0.0131992
0.0712415,0.00384719
0.055656,-0.00330076
0.0398867,-0.0229266
0.0291984,-0.0186098
0.0190031,-0.0194541
0.00767203,-0.0788545
-0.00302637,-0.0743042
0.0141418,-0.0108295
0.0478382,0.0285688
0.05819,0.021621
0.0676453,0.028103
0.100439,0.0605096
0.123218,0.0261624
0.221374,-0.0134044
0.185598,-0.0230545
0.106894,0.00798464
-0.000532727,0.0116994
-0.132083,-0.00619579
-0.0904553,0.040403
-0.0608406,0.100095
-0.137783,0.0675171
-0.135997,-0.01375
-0.129274,-0.0538504
-0.0865979,-0.0754404
-0.0114636,-0.0183541
0.0349619,-0.0155384
0.0907079,-0.0511383
0.065336,-0.0284877
0.00703921,0.0262202
-0.101549,0.0172737
-0.185619,0.00132199
-0.00606047,-0.00123061
0.107988,-0.0072765
0.107599,-0.0121421
0.0673094,-0.00302485
-0.13405,0.0150997
-0.245854,0.00670311
-0.133515,0.00318026
-0.0772509,0.0288135
-0.0351042,0.0596242
0.103776,0.0831177
0.103719,0.0461984
0.0367449,-0.0150963
-0.0107242,-0.0542021
-0.0102835,-0.0331435
0.0200987,-0.0280308
0.0355114,-0.038878
0.0250867,-0.0189106
0.0302598,0.00251217
0.0623637,0.0136439
0.147005,0.0041911
0.163462,-0.00263057
0.0965695,-0.0149615
-0.0448845,-0.0305276
-0.17935,0.0109752
-0.127124,-0.00092302
-0.0715127,-0.156755
-0.0955351,-0.169659
-0.0941736,0.0592049
-0.0231411,0.0856142
0.0455457,0.033799
0.0340409,0.0359285
-0.0738448,0.066044
-0.00742466,0.0417884
0.280285,0.0145071
0.535955,0.0079176
0.668966,0.00553642
0.481167,0.0120568
0.183743,0.0404471
-0.00778185,0.0427922
-0.284505,0.023417
-0.431091,-0.0199012
-0.327416,-0.0434959
-0.349819,-0.003875
-0.432472,0.0173846
-0.357255,0.00771103
-0.284615,0.0041436
-0.27002,0.00761877
-0.114314,-0.0431849
-0.00366749,-0.068936
0.00627454,-0.00272799
0.0668192,0.00623752
0.125511,0.00339262
0.0989413,0.0101509
0.0357566,0.00182445
-0.000718647,-0.0263717
0.0594775,-0.0291844
0.172413,-0.0242713
0.234869,0.00406527
0.228711,0.0388531
0.174105,0.0364687
0.196816,0.00283436
0.162557,-0.0685852
-0.0499409,-0.0574484
-0.132439,0.038517
-0.124273,0.0446627
-0.119769,-0.00436175
-0.111703,0.0115894
-0.111096,0.0188758
-0.0816669,0.0115613
-0.069787,-0.0189649
-0.0378855,-0.0320737
0.0662149,-0.0210656
0.143475,0.0150458
0.128607,0.0449027
0.00212016,0.0397792
-0.149095,0.0417371
-0.116204,0.0448445
0.0122885,0.0272761
0.104013,0.00202754
0.246191,-0.0279335
0.265155,-0.0264429
0.120279,0.00367534
0.203816,-0.0177813
0.231629,-0.0482141
0.258391,-0.0705903
0.349879,-0.0652106
0.087124,-0.0294595
-0.340218,0.0162294
-0.6499,0.0225306
-0.66439,0.0367062
-0.415071,0.0432677
-0.196463,-0.000710054
-0.0382335,-0.0085299
0.00777088,0.0229436
0.04079,0.0341741
0.0664298,0.0376513
0.0167625,0.0314428
0.00071756,0.0207505
0.056824,0.0245721
0.113133,0.0163923
0.083893,3.3e-05
-0.0789904,-0.0239851
-0.175738,-0.0425869
-0.0942336,-0.0508294
0.0150469,-0.00778071
0.0746327,0.0146309
0.139133,0.00163863
0.218559,-0.0491522
0.33183,-0.0562241
0.341597,-0.020891
0.216396,-0.0634025
0.0266085,-0.00716585
-0.146922,0.0104052
-0.121767,0.00296829
0.0376786,-0.0317583
0.154859,-0.0897582
0.050913,-0.125893
-0.252425,-0.062595
-0.364665,0.0198799
-0.318777,0.0592884
-0.25425,0.0849396
-0.0741144,0.0704517
0.116236,0.0483019
0.133666,0.0502149
0.0426517,0.0279387
-0.0301549,0.0643284
-0.0210499,0.058462
0.076121,0.00786009
0.157025,0.0116027
0.272542,0.016092
0.3222,-0.00347269
0.297194,-0.0145159
0.285583,-0.0116911
-0.0946427,-0.0356023
-0.495597,-0.0340742
-0.482371,0.0492004
-0.4154,0.10534
-0.223334,0.0642994
0.0269614,0.0495346
0.145328,0.0405696
0.168114,0.0134544
0.11773,-0.00349021
-0.0215708,1.16e-05
-0.0430967,0.0077485
-0.107376,-0.00334796
-0.117484,0.00684668
0.0781441,-0.014839
0.196827,-0.0484391
0.149074,-0.055601
-0.0877151,-0.0465556
-0.185908,-0.0323809
0.0473562,-0.0167402
0.297533,-0.0137011
0.329524,-0.0412534
0.208983,-0.0622968
-0.0771441,-0.0393227
-0.167319,-0.000925177
0.0157745,0.0220931
0.111065,0.0115874
0.0583342,0.0136711
-0.193265,0.021846
-0.395623,-0.0324306
-0.302731,-0.130609
-0.154151,-0.0144877
0.00861609,0.0496394
0.178623,-0.0194528
0.288469,-0.03182
0.279938,-0.0199952
0.0648293,0.000211859
-0.118042,0.0980044
-0.121419,0.0714354
-0.0777668,0.00439914
0.00641437,-0.0414201
-0.00600342,-0.0319102
-0.130038,-0.00821112
-0.113676,-0.00331611
-0.0249573,0.00828959
0.0412916,0.0300988
0.047193,0.00742161
-0.000827169,-0.0179423
-0.000767236,0.00881828
0.00956807,0.0280027
0.049945,0.0238643
0.159936,0.0190352
0.130826,0.00820958
0.00423767,2e-05
-0.06681,-0.0038179
-0.00970172,-0.00501531
0.140159,0.00749307
0.213717,-0.00752337
0.0129727,0.0065377
-0.09481,0.00172396
-0.0698603,-0.0187849
-0.0866891,-0.041992
-0.0997194,-0.0325416
-0.128195,0.06504
-0.105746,0.054994
-0.0543469,-0.0388246
-0.0968943,-0.0473115
-0.123391,-0.0175162
-0.0496453,0.0237262
0.0862182,0.045344
0.101659,0.0222098
0.0952528,0.00345885
0.0901351,-0.0054409
0.276405,-0.0212584
0.415544,-0.0335625
0.219984,-0.00496639
0.0164745,0.0158152
-0.0236085,0.0134272
-0.058833,0.0131063
-0.1886,0.0188875
-0.321966,-0.0139349
-0.252701,-0.0206038
-0.151816,0.0526646
-0.0381828,0.0138153
0.158742,-0.0441151
0.0170858,-0.00784494
-0.231521,0.028751
-0.307661,-0.00793568
-0.166968,-0.0377903
-0.0196392,-0.0125697
0.0435416,-0.00186588
0.0560516,0.0110266
0.0724733,0.0141122
0.074424,-0.0195748
0.0708418,-0.0218454
0.120349,0.00797217
0.175876,0.0568793
0.197695,0.0306752
0.190394,-0.0198969
0.0617937,-0.0328165
-0.04532,0.0136289
-0.0177978,0.042942
0.120685,0.0234702
0.254606,-0.00467176
0.120523,-0.0377086
-0.0884254,-0.0416097
-0.242617,-0.000815266
-0.322699,-0.00259011
-0.215418,-0.0434923
-0.102782,-0.00103775
-0.0418188,0.0274571
0.0133728,0.0203059
0.0661476,-0.00988274
0.125421,-0.0507158
0.142492,-0.0729583
0.151782,-0.0204815
0.0865657,0.0546846
-0.0808974,0.0905418
-0.204894,0.0750686
-0.221116,0.0299131
-0.162827,0.0108056
-0.0914091,-0.0191817
-0.0010475,-0.039088
0.105448,-0.0419899
0.219872,-0.0314574
0.253948,0.00346283
0.137924,0.0198683
-0.035797,0.0129978
-0.140362,0.0105808
-0.173092,0.0289364
-0.11227,0.0178599
0.0351695,-0.0415416
0.167674,-0.0199048
0.198791,0.0172712
0.0529306,0.0201101
-0.127749,0.0173431
-0.161606,0.012356
-0.0454754,-0.00151173
0.0769861,-0.0264293
0.150657,-0.0367821
0.087481,-0.0238241
-0.126827,-0.00366769
-0.147033,-0.0386878
0.0078521,-0.0417824
0.0715695,0.0158856
0.0699313,-0.00419311
0.0178689,-0.018258
-0.0169623,0.0240415
-0.118073,0.0386542
-0.139855,0.0205903
-0.154177,0.0075179
-0.177737,0.0125632
-0.0951069,0.00350609
0.0311049,-0.000527794
0.129663,0.0088519
0.168179,0.00348988
0.215536,0.00740002
0.158769,0.0135481
0.0543543,0.023752
0.0149162,0.00893544
-0.0790678,-0.0254008
-0.0203659,-0.00905759
0.124274,0.0185
0.211608,-0.0099104
0.189115,-0.0495901
-0.000187771,-0.059166
-0.171566,-0.00659492
-0.025019,0.0167068
0.0993219,0.0131168
-0.150585,0.0207196
-0.382487,0.00194725
-0.358065,-0.0313546
-0.191963,-0.00967161
-0.107938,0.00636924
-0.0410681,0.00241368
0.0233397,-0.00293696
0.0396449,-0.0443691
0.0244896,-0.00361388
0.0322675,0.0637387
0.0707062,0.0422597
0.116819,0.0317454
0.277262,0.0449543
0.519808,0.051317
0.514993,0.0365432
0.287047,0.00680572
-0.219917,0.00315287
-0.546927,-0.00917881
-0.383816,-0.0218775
-0.213673,-0.0292715
-0.0226449,-0.0409309
0.08602,-0.0385273
0.145491,-0.00713886
0.129199,-0.00695972
0.0391701,-0.0105246
-0.0849141,-0.00500109
-0.183931,-0.0111941
-0.175993,-0.0017988
-0.126086,0.00979121
-0.102315,-0.0496622
-0.0292424,-0.0676944
0.0118728,-0.0239157
0.073778,-0.0120501
0.131267,0.0416409
0.102785,0.0374621
0.076574,0.00428372
0.0931505,-0.0242727
-0.00793672,0.0126161
-0.0794141,0.0213665
0.0106924,0.020282
0.0325247,0.0287482
-0.025414,0.0280966
-0.0254461,0.0314399
0.147157,0.0277507
0.319007,0.0201508
0.289145,-0.00703455
0.0125662,-0.0329821
-0.223334,-0.0141033
-0.265303,-0.00625213
-0.168557,-0.00903354
-0.0552732,-0.0161589
-0.0796751,-0.0012709
-0.154753,0.00481352
-0.0827722,0.00276676
0.00746767,-0.00812914
0.13638,-0.0185135
0.203602,-0.00646028
0.144343,0.0107067
0.00292356,0.0199883
-0.159575,0.0113239
-0.154711,-0.00925902
-0.141105,-0.0293205
-0.118575,-0.0123798
0.0603733,4.1e-05
0.232228,0.0167822
0.265497,0.0222871
0.0437986,0.0197841
-0.0518385,-0.0301969
0.215291,-0.00782339
0.6233,0.0234944
0.73253,-0.0307713
0.435308,-0.0455134
-0.24608,-0.058685
-0.746074,-0.0330718
-0.765864,0.0623346
-0.616441,0.055875
-0.399248,0.0237024
-0.18371,-0.0155317
-0.0368731,-0.0347399
-0.0497468,-0.00912955
-0.0772204,0.0334264
-0.032685,-0.0145094
0.0331743,-0.0567541
0.0898846,-0.0614426
0.0986073,0.0349209
0.0547798,0.0903089
0.0301668,0.0678003
0.0632723,0.045718
0.133724,0.0122531
0.17071,-0.00485559
0.150819,-0.00938236
0.113781,-0.00129043
0.0652309,0.0108117
0.0218601,-0.00986539
0.0177226,-0.010569
0.0489636,0.00987
0.107249,0.0150881
0.267293,-0.0126962
0.433911,-0.0326816
0.301428,-0.019682
-0.0771448,-0.00626376
-0.350524,-0.00494716
-0.409174,-0.0136948
-0.352129,-0.0184222
-0.202003,-0.0110089
-0.040152,0.000531847
0.0520723,0.0122086
0.0846093,0.00954012
0.0454158,0.0039657
-0.0108472,0.00602879
-0.0128691,0.00787277
0.0207675,0.00960722
0.0151934,0.00827405
0.00540814,0.0074835
0.0591981,0.0107374
0.0623914,-0.00310756
-0.0256219,0.000394138
-0.104113,0.0161354
-0.1123,0.00716814
-0.0113088,-0.0086438
0.114445,-0.00924161
0.137036,-0.0188555
0.0946086,-0.0312129
0.00794441,-0.0180533
-0.0392886,-0.0133577
-0.0746918,-0.0130003
-0.139286,-0.00177663
-0.0661601,0.0198828
0.0182272,0.0265607
0.124457,0.022589
0.282637,0.0180156
0.302686,0.00940805
0.17026,-0.00829004
0.0637828,-0.00973836
-0.15541,-0.0204466
-0.320878,-0.0371329
-0.179956,-0.062591
-0.11991,-0.0502768
-0.120568,-0.0164938
0.0116632,-0.0258873
-0.0724101,0.032715
-0.168307,0.0372835
-0.0900136,0.00607145
-0.0322967,-0.0473939
-0.0103417,-0.0159819
0.0369597,0.0984153
0.0913868,0.0634151
0.0243201,0.0148045
-0.000635407,0.00527787
-0.00155356,0.00901839
-0.0238448,0.0296357
0.0202765,0.0457226
-0.0508837,0.0301702
-0.0493794,-0.0135472
0.115025,-0.0316162
0.230764,-0.024001
0.219579,-0.000966428
0.0886788,0.00927142
-0.12253,-0.0066107
-0.188936,-0.0464123
-0.11351,-0.049275
-0.000754091,-0.0254064
0.111289,0.0389888
0.192033,0.0356972
0.198988,0.0109696
0.00535889,0.00344663
-0.204358,0.0171034
-0.313118,0.0121961
-0.142529,-0.00909991
0.172762,-0.0169145
0.429162,-0.0423998
0.497652,-0.0117853
0.50744,0.0135623
0.115022,0.0070484
-0.527078,0.00758391
-0.690575,0.0251629
-0.42892,0.00911412
0.0122789,0.00330577
0.306773,-0.036197
0.224655,-0.0391628
-0.0121972,0.00877059
-0.3253,0.0254491
-0.516442,0.0261463
-0.259931,0.00449158
-0.00359668,0.00110414
0.0645641,0.0115278
0.0680799,-0.00560404
-0.0104294,-0.0181246
-0.0275139,0.00258191
0.0792296,0.00611551
0.173196,-0.0680165
0.30333,-0.0445607
0.38621,-0.000941752
0.297429,-0.00486984
0.15536,-0.00891465
-0.16107,0.0373078
-0.196858,0.0655749
-0.0568565,0.0384373
-0.127388,0.0226666
-0.132671,0.0125263
-0.0890896,0.0017606
-0.0498026,-0.00185705
0.051762,-0.00494197
0.00987092,-0.022071
-0.0537867,-0.0840801
0.0807595,-0.0498785
0.195606,0.0538881
0.15779,0.0405404
-0.0224475,-0.0254954
-0.183305,-0.0439241
-0.133821,0.00477611
-0.0258002,0.0312884
0.00284579,0.000261946
-0.0354194,-0.00163815
-0.0574164,0.00341443
-0.0995624,0.0114912
-0.0877064,0.00738418
-0.0403423,-0.0137066
0.0440541,-0.0193658
0.144365,0.0141515
0.322275,0.042336
0.474002,0.0395052
0.35734,0.00332725
-0.0882839,-0.00309082
-0.452497,0.0202756
-0.342615,0.0173149
-0.120215,-0.0427014
-0.0870176,-0.0393739
-0.00433015,-0.0408293
0.0996862,-0.0261591
0.0971861,-0.00147359
-0.0626497,0.00753721
-0.266779,0.00127735
-0.242255,-0.00798889
-0.0153727,-0.00475843
0.170114,-0.0009526
0.259112,0.00388885
0.218431,0.0106761
0.0652993,0.00941263
-0.0185346,0.0170898
-0.0099,0.00769064
0.0359392,0.00652118
0.199258,0.0208719
0.245109,0.0248537
0.229142,0.0325911
0.141311,0.0244783
-0.104587,-0.000169511
-0.311502,-0.00897209
-0.573285,-0.0169287
-0.558883,-0.0531307
-0.251056,-0.0496275
-0.0603859,-0.0331842
0.094119,-0.0360571
0.194627,0.012438
0.147089,0.0251217
0.155943,0.00956651
0.105269,0.00491016
0.0540194,0.00452364
0.0923282,0.0306219
-0.0101224,0.0536934
0.00117433,0.0255297
0.0735172,-0.0247995
0.0292256,-0.0381276
-0.0611965,-0.020704
-0.132701,-0.000958763
-0.095032,0.0144346
-0.0368098,0.0286854
0.135431,-0.0107285
0.121543,-0.0370672
0.0288882,-0.00657648
0.0410037,0.0258093
0.12591,0.0243315
0.213887,-0.0260641
0.0505527,-0.0599562
-0.228673,-0.00722085
-0.294826,-0.0185915
-0.193889,-0.0285694
-0.0916862,0.0570619
-0.00420732,0.0540729
0.0594518,0.024522
0.105819,0.00968194
0.0925127,0.00336882
0.04238,0.0137783
-0.074109,0.0146159
-0.0866298,-0.000567359
0.0407779,-0.0108573
0.140694,0.000823877
0.133874,0.0102907
0.0380366,0.0101371
-0.0701498,0.00028157
-0.146184,-0.0229154
-0.120659,-0.0207485
-0.0759831,0.00659713
-0.0195189,0.00829979
0.0368947,-0.0313005
0.00421958,-0.00873391
0.119416,0.0535237
0.466768,0.0365826
0.621473,-0.0120756
0.442456,-0.0477539
0.0498311,-0.0974116
-0.240698,-0.0831848
-0.507519,0.0159942
-0.574683,0.0241942
-0.450115,0.0168884
-0.227319,0.0168028
-0.0642357,0.00319818
0.0388228,-0.0117018
0.0435824,0.0198698
0.0316727,0.0267683
0.0324656,0.0137941
0.0594967,-0.0111815
0.0688727,-0.000109836
-0.0743491,0.0160909
-0.124762,0.0175205
0.0702127,0.0203785
0.187177,0.0207484
0.163812,0.00964887
-0.0278769,-0.0151633
-0.200197,-0.0137912
0.00449777,0.0150372
0.35925,0.0208884
0.580054,0.00694234
0.703801,0.00418182
0.313529,-0.00495032
-0.255692,-0.0100136
-0.552975,-0.00263074
-0.685868,0.0163515
-0.376303,0.00520766
-0.0842754,-0.0259375
0.0224955,-0.0281588
-0.0106825,-0.038804
-0.130855,-0.0199054
-0.157978,0.0201917
-0.0620252,0.0355723
0.0815501,0.00747881
0.114938,-0.10515
0.0563913,-0.184338
-0.0529716,-0.0255349
0.016542,0.0952985
0.292273,0.0856566
0.412263,0.0457211
0.282697,0.0371371
0.0344334,0.0308732
-0.132305,0.0132921
-0.181489,0.00125247
-0.168988,-0.0012051
-0.0684767,0.00787255
-0.028017,0.0136099
-0.0927618,0.0217604
-0.0849475,0.0255309
-0.0452969,0.020875
-0.0279216,0.00690475
0.00782496,0.00729522
0.0371385,0.0197691
0.133832,-0.00993912
0.351842,-0.0143844
0.45136,-0.0486661
0.196021,-0.0596551
-0.209607,-0.012653
-0.400344,0.00536761
-0.383925,-0.0120489
-0.24662,-0.0243894
-0.0918287,-0.00369935
0.00160115,0.00712166
0.0193306,-0.000276769
0.0253277,-0.0104893
0.0235689,0.00539254
0.084417,0.0214335
0.145836,3.52e-05
0.104632,-0.00877385
-0.00296736,0.0225454
0.0782714,0.0542179
0.252467,0.0597102
0.255513,0.0329796
0.113012,-0.013278
-0.166891,-0.0437249
-0.23809,-0.0771174
-0.139049,-0.127889
-0.221152,-0.0603296
-0.214636,-0.00886328
-0.0108065,-0.0363768
0.0651001,-0.0228317
0.0666444,0.0717256
-0.0124194,0.0935895
-0.018992,0.0296237
0.0686752,0.0213201
0.0812058,0.0435932
0.0230626,0.0284532
-0.0978607,0.00925449
-0.117932,-0.00327881
-0.0378815,-0.0124723
0.0233338,-0.00738897
0.0345782,0.00484048
0.0219574,0.0115464
0.00918251,0.0282043
0.0875654,0.048662
0.174286,-0.00509389
0.110621,-0.03439
0.0025659,-0.0123353
-0.0341839,0.00637876
0.0322216,-0.00993558
0.0438335,-0.0365964
-0.014514,-0.0241724
-0.0853898,-0.0140685
-0.141742,-0.000410283
-0.0952841,-0.00104687
0.0223145,-0.0124028
0.0582575,-0.000292577
0.0530371,0.0154493
0.0706417,0.0121721
-0.0118179,-0.00547133
-0.0595562,-0.0146299
0.0396055,-0.00529791
0.166217,-0.0215251
0.244059,-0.0153374
0.164457,0.0207977
0.097334,0.0256481
-0.00522542,0.0101585
-0.136109,-0.00437207
-0.24626,0.0117178
-0.32793,0.0201227
-0.280298,-0.000581276
-0.210207,-0.0144269
-0.0777477,-0.00891908
0.0672075,0.00686243
0.0895102,0.00785056
0.0148241,0.00783757
-0.077091,0.00153146
-0.0483429,-0.0271285
0.0300419,-0.0304256
0.0990663,-0.00646916
0.15566,0.02175
0.107236,0.0330712
0.00524395,0.0164305
-0.102264,-0.0125173
-0.168109,-0.0138789
-0.0837613,0.0100064
0.111382,0.0111791
0.319868,0.00940115
0.408201,0.010538
0.377568,-0.0018191
0.233784,-0.0528184
0.106792,-0.0646283
-0.00705029,-0.0122888
-0.331853,-0.0297776
-0.492158,-0.0202657
-0.317073,0.00906237
-0.052955,0.0333737
0.0819412,0.0250477
-0.00992995,0.0205643
-0.144516,0.037333
-0.137891,0.0269754
-0.098283,0.0144824
-0.105455,0.00755857
-0.0448492,-0.00718056
0.0946743,0.0075446
0.156816,0.0133671
0.095364,0.00717964
-0.0828517,0.00411422
-0.0855082,-0.00287165
0.0706999,-0.0134441
0.122148,-0.0177955
0.0408615,-0.0129687
0.0438875,0.00510564
0.121534,0.0150795
0.097659,0.00792689
-0.0979306,-0.00476065
-0.142772,0.00902615
-0.0258902,0.0358378
0.132601,0.0475173
0.300396,-0.0302517
0.333955,-0.141861
0.236283,-0.128151
-0.0174893,0.019768
-0.272539,0.0662523
-0.188218,-0.0232858
0.0511784,-0.0315484
-0.000272445,0.0285204
0.0115848,0.0193958
0.157273,-0.0213561
0.128733,-0.0406349
-0.0613818,-0.00871781
-0.370203,0.0602755
-0.541128,0.052073
-0.303981,0.0330276
-0.127542,0.0159469
-0.0797372,0.0125076
-0.0522698,0.0145246
-0.0199474,0.0137644
0.0207942,0.0166136
0.0524304,0.0200026
0.0389942,0.0200961
0.0581997,0.0136072
0.102105,-0.00835374
0.131057,-0.0210114
0.147924,-0.0191259
0.129487,-0.00839854
0.102845,-0.00352973
0.0881915,-0.00455245
0.0678346,-0.00856128
0.0438862,-0.0104924
0.0122482,-0.011244
-0.0322327,-0.00622518
-0.0188971,0.00456507
0.0376034,0.00870338
0.0824383,-0.0106212
0.0754995,-0.0185358
0.00484162,-0.0180733
0.0754185,0.0130672
0.207962,0.0327746
0.169005,-0.00232993
-0.0906303,-0.026936
-0.241311,-0.0160628
-0.12597,-0.00365682
-0.0606131,-0.00366624
-0.108471,0.0109609
-0.128172,0.012191
-0.0520558,-0.00974534
-0.03208,-0.00676116
-0.0444809,0.00151278
-0.063397,-0.0125623
-0.106534,-0.00986087
-0.134642,0.0281854
-0.0880958,0.0315435
0.0156055,0.0217976
0.0781614,0.00891188
0.0678089,-0.0350784
0.0810367,-0.0482778
0.00856682,0.00337714
0.0885911,0.0194126
0.263949,0.00372042
0.284159,0.0120999
0.173031,0.00266117
0.0229904,0.00585754
0.105791,0.0308562
0.283776,0.0228338
0.104527,-0.0219954
-0.229552,-0.0440315
-0.238434,-0.0371162
-0.031617,-0.0225162
0.0383033,-0.0474827
-0.173817,-0.00649489
-0.496766,0.0192141
-0.37792,0.028999
-0.163836,0.00319729
-0.167118,0.00299591
-0.0649879,0.0101728
0.101816,0.00556359
0.179589,0.0170448
0.188509,0.0178143
0.0477312,0.00544628
-0.164365,0.00394565
-0.217055,0.0089042
-0.0558756,0.0188656
0.207831,0.0172213
0.483743,0.000535947
0.547004,-0.0119396
0.195808,0.00483937
-0.151622,0.0209696
-0.214432,0.0135408
-0.0724559,0.000745943
-0.0865534,-0.00122645
-0.16771,0.00902766
-0.116584,0.000831487
0.0512469,-0.0235288
0.141888,-0.0288963
0.119692,-0.025598
0.0876241,-0.0346378
0.101833,-0.037961
0.083008,-0.00562481
-0.153278,0.0164369
-0.430388,0.0162331
-0.369721,0.0110615
-0.0508904,0.0103016
0.102773,0.0194567
0.107788,0.028579
-0.00706616,0.0188452
-0.152007,0.00742109
-0.0236872,-0.000203491
0.02609,-0.0049655
0.0939544,0.0079778
0.322176,0.0450792
0.363873,0.0567147
0.149381,0.0362294
-0.0916731,-0.0545066
-0.214931,-0.147274
-0.129592,-0.223785
-0.0764435,-0.1173
-0.0534294,0.0769447
-0.0325562,0.0857423
-0.0127551,0.0383544
0.00568862,0.0121562
0.0324207,0.0261885
0.0785395,0.0238145
0.105314,0.012116
0.0890066,-0.0027358
0.106988,0.0108678
0.0732534,0.0230082
0.0485684,0.0248765
0.0566384,0.0152131
0.0899689,0.0121713
0.185616,0.0193975
0.224803,0.0230106
0.0779748,0.0180802
-0.223187,0.01437
-0.333101,0.0100305
-0.220987,0.00438732
-0.182529,0.00783328
-0.225781,0.0102431
-0.17096,-0.00483691
-0.0319288,-0.0221128
-0.00235424,-0.0274855
-0.00550288,-0.0324136
-0.0469028,-0.00659641
-0.0579859,0.017579
-0.0231858,0.0075396
0.0300268,0.00166733
0.0390553,0.00788408
0.0245148,0.00985384
0.113724,-0.00262438
0.195625,0.0059189
0.309698,0.0578101
0.47282,0.0104177
0.543573,-0.0834499
0.276829,-0.136144
-0.331447,-0.140472
-0.657205,-0.0519351
-0.538332,0.0704074
-0.208584,0.0674089
-0.020334,0.0301111
0.158877,0.0102344
0.212268,0.017555
0.0803301,0.0151021
-0.153879,0.000696498
-0.298987,-0.00866683
-0.191277,0.00199781
-0.0681882,0.0284018
0.0185257,0.0286296
0.00285187,0.00201295
-0.0533197,0.00254343
0.0127231,0.0196465
0.10403,0.0267748
0.108408,0.0195556
0.0706737,0.00460564
0.0890972,-0.00411586
0.132634,0.00119021
0.195615,0.0128869
0.14675,0.00795102
0.0639547,-0.00412236
-0.106053,-0.0175842
-0.181183,-0.0166916
-0.108916,-0.00672558
-0.0197416,-0.000718253
0.0901838,-0.0180543
0.0662769,-0.0266772
-0.0976076,8.15e-05
-0.176895,0.0185224
-0.0706824,0.022568
0.0893039,0.0229847
0.15667,0.00773479
0.117684,-0.0486653
-0.0269231,-0.0809011
0.00822957,-0.00867951
0.318095,0.0227584
0.446364,0.000920043
0.282341,0.00158936
-0.165684,0.00352679
-0.635604,0.0151919
-0.502303,0.0420129
-0.239734,0.0237815
-0.0722031,0.00465765
0.113305,0.00217747
0.173276,-0.00439911
0.0874012,-0.00296629
-0.067474,-0.0115086
-0.0929706,-0.0101055
0.053926,-0.0221341
0.148696,-0.0516673
0.0260322,-0.0288189
-0.147453,-0.0160488
-0.0179681,0.0015418
0.234383,0.0357496
0.277327,0.0279683
0.151662,0.00727152
-0.140861,-0.00618266
-0.336042,-0.0225552
-0.272143,0.0132803
-0.131711,0.0271196
0.10975,0.00966074
0.386481,-0.000185243
0.457154,0.0199998
0.304352,0.0338809
0.132181,0.00422369
-0.197607,-0.0341461
-0.568716,-0.014965
-0.402922,0.00495292
-0.184285,0.00240044
-0.0898723,0.00603932
-0.0322379,0.00637049
0.0388009,-0.0175518
0.0768864,-0.0276383
0.0290269,-0.0199704
-0.0306061,0.00115866
-0.0703947,0.00615234
-0.0397315,0.00432168
0.096181,0.00739745
0.145005,0.0148334
0.0635612,0.0188821
-0.0410967,0.0165101
-0.03777,0.0110307
0.0821166,0.00270585
0.203568,-0.00431509
0.202629,-0.0019384
0.101669,-0.00135831
-0.112525,-0.00171751
-0.094884,0.00277782
0.0790425,-0.00247103
0.123482,-0.0025624
0.105372,0.0137948
0.152933,0.0180656
0.12269,-0.0247568
-0.10214,-0.0498249
-0.280784,-0.0120263
-0.270278,0.0210928
-0.224225,0.0265954
-0.166475,0.00581179
0.00582344,0.00869348
0.187929,0.00277504
0.26236,-0.0170436
0.297838,-0.0193368
0.154213,-0.000184665
-0.0749239,0.00893643
-0.151831,-0.00880807
-0.0691266,-0.0177135
-0.0452616,-0.0218876
-0.110902,-0.000570657
-0.181983,0.0320105
-0.119937,0.0275184
-0.0342525,0.00127269
0.0237251,-0.0133822
0.0671152,-0.00659131
0.00554406,0.015264
-0.111171,0.0159863
-0.183528,0.00884495
-0.0702746,0.011674
0.0575876,0.00604073
0.0369766,-0.0139994
0.00549247,-0.023194
0.0138651,-0.0231748
0.094933,-0.00624982
0.267113,-0.00112969
0.336394,-0.0307087
0.259116,-0.0863725
0.0389385,-0.0280412
-0.197809,0.0321814
-0.126523,0.0444086
-0.140558,0.0503577
-0.180547,0.0230452
-0.0335505,0.000570952
0.119554,-0.000635159
0.132914,0.00635759
0.000873842,-0.000705841
-0.0972899,0.00752287
-0.134994,0.0139723
-0.165089,-0.0181073
-0.0633829,-0.112148
0.0566361,-0.022082
0.0618497,0.0531044
0.00638477,0.0258828
-0.0155093,0.0471284
0.0445167,0.0367119
0.155604,-0.000892933
0.113868,-0.01655
-0.0680982,-0.00101437
-0.139951,0.0229551
-0.0741896,0.0341821
-0.00319528,0.0166181
0.0506701,0.0066368
0.0464514,-0.00612215
0.0124434,-0.0237648
0.0985807,-0.0494799
0.223692,-0.0317068
0.250462,-0.00317164
0.0805145,-0.00130521
-0.281737,0.00256894
-0.388638,0.0140208
-0.220742,0.0157137
-0.159951,0.00101862
0.0100573,-0.0210043
0.132989,-0.0507577
0.105373,-0.0352794
-0.0288653,0.0139428
-0.143464,0.0209014
-0.0783652,0.0199709
0.0216214,0.0103811
0.0665975,0.0022213
0.145483,0.00752251
0.234796,0.0154284
0.24601,0.0147513
0.27312,0.0277407
0.388485,0.0588959
0.595512,0.0727642
0.557015,-0.00370772
-0.000108524,-0.0486345
-0.803146,-0.0283723
-1.03043,-0.0140406
-0.635885,-0.0164929
-0.296026,-0.0187335
-0.0984806,-0.0189171
-0.029079,-0.00961385
0.00745038,-0.00568444
0.0473287,-0.0198121
0.024573,-0.018873
-0.0463271,-0.00613913
-0.0747883,7.95e-05
-0.0245026,0.00567117
0.0481391,0.00523386
0.112011,-0.00537151
0.0856908,0.00575092
0.0654186,0.0278936
0.204474,0.0682262
0.207773,0.0369247
0.129429,-0.022159
0.217183,-0.0244436
0.348382,-0.0263983
0.408962,-0.0310221
0.386763,-0.025223
0.0905846,0.00538757
-0.320086,0.0257772
-0.456764,0.00890552
-0.492892,-0.016902
-0.406664,-0.0338525
-0.215498,-0.0389486
-0.0786864,-0.0121857
-0.0504263,0.0153792
-0.0998368,0.0158972
-0.084022,0.0136976
-0.011535,0.00423859
0.0416433,-0.00544096
0.071852,-0.0115639
0.0850161,-0.0276844
0.121235,0.000188022
0.226645,0.0391799
0.383834,0.0108955
0.392682,-0.0164875
0.180208,-0.0132234
0.10115,-0.0030543
0.381139,-0.00805695
0.484889,-0.0221664
0.0800095,0.0211657
-0.546105,0.0428945
-0.691341,0.0156159
-0.598359,0.00272174
-0.456484,0.0178143
-0.154401,-0.0169744
0.0614062,-0.0174284
0.23087,0.00150394
0.245395,0.00839503
0.117494,0.00613551
0.0962008,-0.00855317
-0.00407324,-0.019257
-0.192113,0.0199032
-0.265745,0.0110331
-0.317852,-0.0378466
-0.267123,0.0098172
0.0100646,0.080646
0.439639,0.112227
0.608936,0.0871837
0.473256,0.0232222
0.0317678,-0.00423019
-0.3499,-0.0782185
-0.199908,-0.106524
-0.0748729,-0.093272
-0.0448062,-0.030228
-0.179054,-0.000223671
-0.0743145,-0.0302304
0.247994,-0.0428154
0.270625,0.0220905
-0.00787326,0.0348028
-0.471623,0.00605942
-0.523117,-0.0123938
-0.119432,0.0119788
0.211842,0.045542
0.368697,0.016645
0.359501,-0.0115323
0.0216787,-0.00598311
1.0591,-0.0235738
0.931864,-0.0336087
0.0497837,0.0152444
-0.934746,0.0399197
-0.98423,0.0467438
-0.367213,0.0442232
0.0856556,0.0330253
0.0828483,0.00651123
0.0361691,-0.01854
0.0902845,-0.0194117
-0.0539593,-0.0115365
-0.318945,0.00224766
-0.426533,0.00444478
-0.0871447,-0.0141233
0.335129,-0.0190736
0.606219,-0.0214323
0.400773,-0.0291488
0.0712534,-0.0151422
-0.448808,0.0046846
-0.627218,-0.0129971
-0.229637,-0.0224935
-0.0680476,0.0153794
0.0516888,0.0451184
0.208101,0.018146
0.230813,0.000296122
0.197477,-0.00680621
0.0317045,-0.000712571
-0.133788,0.0127664
-0.109456,0.0121907
-0.00366772,0.000627959
0.242049,-0.0125795
0.306793,-0.0307218
0.150331,-0.0327005
-0.230836,-0.0136803
-0.350174,0.0241351
-0.0540398,0.0381819
0.127569,-0.0101477
0.109505,-0.015562
0.109655,0.0227386
0.0381829,0.00423937
0.126762,-0.0167333
0.28756,-0.00997653
0.262282,0.00994256
0.118808,0.0175834
-0.262415,-0.00337325
-0.452428,-0.0226606
-0.380288,-0.00948864
-0.243996,-0.0190332
-0.0991803,-0.0331564
-0.0413613,-0.0089911
-0.0584018,0.0127129
-0.045553,0.00611697
0.0435079,0.0025952
0.150691,0.00759371
0.345354,0.0115223
0.397824,0.0296954
0.293008,0.0272336
0.254478,0.00689806
0.101482,-0.00437305
-0.0104746,-0.0234735
-0.18801,-0.0344241
-0.444611,-0.0442615
-0.402829,-0.0219043
-0.219561,0.023701
-0.0917795,0.058502
-0.0952182,0.0447587
-0.181296,0.0227979
-0.111272,-0.0011142
0.0506971,-0.0160637
0.355834,-0.000894507
0.686391,0.00737082
0.653217,0.00350953
0.268722,-0.00842727
-0.208163,-0.00250983
-0.496661,-0.0244726
-0.37189,-0.0786589
-0.263763,-0.016549
-0.160733,0.0128289
-0.0898,0.0309052
-0.113915,0.0533857
-0.0425359,0.0524129
0.0691411,0.0144268
0.119052,-0.0149032
0.100584,-0.0134706
0.0176217,-0.00286325
-0.0424532,-0.00276614
-0.138577,0.00531277
-0.177614,0.00855523
-0.0326672,0.00210259
0.281402,-0.0132002
0.513792,-0.0316521
0.509864,0.00779713
0.382158,0.0230105
0.0920827,0.0042166
-0.26457,-0.0089487
-0.422467,-0.0216061
-0.416227,-0.0225131
-0.224627,-0.0392791
0.0409513,-0.0370508
0.118263,0.00651982
-0.037171,0.0171066
-0.284008,0.01224
-0.120133,0.0109926
0.150547,0.01766
0.196107,0.0274417
0.0833981,0.0299943
-0.176633,0.0232604
-0.2582,0.0134371
-0.122261,0.00351035
-0.00680304,-0.00111667
0.0814452,-0.00327259
0.119726,-0.0108424
0.0916646,-0.0124759
0.0511723,-0.0187196
0.0754693,-0.0590296
0.119241,-0.0378885
0.131958,0.00704789
0.0834996,0.00724192
0.0963285,-0.00464161
0.172757,-0.0284606
0.0798133,-0.0267448
-0.176012,0.0425449
-0.310041,0.0690997
-0.230123,0.0483118
-0.111446,0.00165714
-0.0111644,-0.0033909
0.100375,-0.00156076
0.172523,-0.003016
0.131302,0.0130924
0.0798033,0.0206088
0.0765644,0.0036382
-0.00633407,-0.0230645
0.163535,-0.035702
0.383505,-0.0245852
0.34803,-0.0150504
0.138627,-0.0384203
-0.352803,-0.0510383
-0.695327,-0.0426266
-0.524351,0.0143225
-0.109104,0.0421839
0.183051,0.0137003
0.219911,0.012862
0.06398,0.0218489
-0.0497442,0.0338097
-0.0424015,0.0507274
0.0154139,0.0588412
0.023265,0.02842
-0.200007,0.00210921
-0.371088,-0.00712033
-0.191625,-0.0194885
-0.0583432,-0.0469631
-0.00267962,-0.0335896
0.0545189,-0.00994888
0.124208,-0.017435
0.144077,-0.0176434
0.144019,-0.0112898
0.12279,-0.00496189
0.147917,-0.000812141
0.226049,0.00148183
0.192786,0.00517192
-0.00310548,0.00598824
-0.204995,0.00534279
-0.146838,0.00834822
0.067804,0.0109839
0.177521,-0.00198968
0.140882,-0.0143582
-0.0403632,-0.0174584
-0.142128,-0.00905274
-0.131202,0.00318284
0.105246,0.0165741
0.342078,0.0264641
0.216866,0.0254747
-0.164971,0.0155893
-0.412063,0.00993621
-0.310616,0.0112259
-0.132055,0.00513048
-0.0307554,-0.0197213
0.0350852,-0.0208455
0.0736756,-0.00542005
0.0522859,-0.00260813
0.00538372,-0.00236844
-0.0095969,-0.00542964
0.0100285,-0.0115049
0.0192721,-0.00736537
0.0177623,-0.00237258
-0.00665455,0.00297873
-0.044842,0.0142148
-0.0304393,0.0162353
0.0308959,0.00905406
0.0700619,0.0147111
0.0612611,0.00363741
0.0249896,-0.0319499
0.00967849,-0.038268
0.035523,-0.0219963
0.0701365,-0.0123043
0.067415,-0.0126902
0.0559326,0.00278707
0.0714688,0.0127647
0.0815034,0.010144
0.0481706,0.00641997
-0.0926617,0.00658438
-0.198083,0.00755176
-0.1549,0.00786961
-0.0976862,0.0188697
-0.0302471,0.01885
0.0601464,0.00758305
0.104782,0.00475731
0.0678515,-0.00438136
0.0160467,-0.0140404
-0.00222154,-0.00487175
0.0120758,0.00536941
0.0293471,9.31e-05
0.0105937,-0.000944459
-0.0377805,0.00238892
-0.0697227,0.000799461
-0.0577674,-0.00795289
-0.0278837,-0.0107501
-0.011956,-0.00629577
-0.0295877,-0.0024426
-0.0585539,-0.00674517
-0.0543165,-0.0126951
-0.00134281,0.00853402
0.111775,0.0299571
0.188925,0.0204309
0.164426,0.0127972
0.0259777,-0.0023166
-0.163448,-0.0215989
-0.162446,-0.00713849
-0.0432152,-0.0014126
0.0147832,0.00351573
0.0271036,-0.002475
0.0120178,-0.0323677
0.0174102,-0.0287874
0.0366613,0.00237183
0.016294,0.000175707
-0.077868,0.000173811
-0.135737,0.011119
-0.0485329,0.0193013
0.030605,0.0187767
0.0532821,0.00554117
0.0246493,0.000304381
-0.0111557,-0.000380344
-0.0150224,0.00338712
0.0173027,0.00407529
0.0475839,-0.00184731
0.0435596,-0.00140161
0.0136158,0.00372774
-0.0111262,0.00616929
-0.00909905,0.00245518
0.00882324,-0.00607719
0.0154864,-0.00899202
-0.00198881,-0.00946422
-0.0278334,-0.00327485
-0.0267843,0.00921201
-0.00221301,0.0152032
0.0106482,0.00906623
0.0401071,0.00862489
0.0531854,0.0140683
-0.00431034,-0.00282272
-0.0292763,-0.0189571
-0.015283,-0.0208682
0.0374912,-0.0178741
0.0501439,-0.00151785
-0.00916365,0.00793067
-0.0495691,0.00943375
-0.0381955,0.00121665
0.0071619,-0.00940287
0.0289114,-0.0115721
0.0178145,-0.0190287
0.0371602,-0.00350739
0.0799856,0.0186765
0.0870407,0.0162071
0.0366504,0.00950185
-0.0543404,0.00148367
-0.161719,-0.0148869
-0.0720658,-0.0643629
0.0899737,-0.0814962
0.134962,0.01354
0.075441,0.0460569
-0.0738339,0.0281025
-0.202537,0.00599511
-0.161646,-0.0425647
-0.0624431,0.00831091
-0.0334998,0.0352321
-0.0456904,0.0193016
-0.0224717,0.020626
0.0625605,0.0208141
0.169388,0.0162498
0.264253,0.00455963
0.303778,0.00233941
0.163007,0.00258134
-0.0957534,0.00530706
-0.355934,0.0113325
-0.350128,0.00880803
-0.122516,-0.00117676
-0.0354475,-0.00401691
-0.00712032,0.0027765
0.00350324,0.00501698
-0.000376561,-0.00393688
-0.00748278,-0.0174132
-0.00514641,-0.0203653
-0.0033363,-0.0132587
0.0106536,-0.00593717
0.0194202,0.00173648
0.0487521,0.000525708
0.1703,-0.0077024
0.362718,-0.0121084
0.40339,-0.00949076
0.187815,0.00406876
-0.105405,0.0153101
-0.296087,0.012279
-0.307019,0.0128267
-0.209594,0.00209971
-0.0715556,-0.00971306
-0.0222614,-0.00919672
-0.00795514,0.00255823
0.000300321,0.00394417
-0.0105721,-0.0100495
-0.0221504,-0.00838639
-0.0202466,0.00297747
-0.0126095,0.0075787
-0.00313046,-0.00861564
0.0073811,-0.0141573
0.0162412,-0.00083404
0.0174091,0.00189752
0.0264916,-0.000329211
0.0225439,-0.0014139
0.0212768,-0.0056669
0.0421089,-0.00305616
0.0521407,0.0108296
0.0281697,0.0129409
-0.00625644,0.00611353
-0.0590129,-0.00326586
0.0585279,-0.00689548
0.169825,-0.00479773
0.194036,0.00415295
0.027763,0.0155302
-0.21025,0.0190907
-0.137433,0.0120675
-0.0728133,0.0024526
-0.0533258,-0.00488714
-0.0158891,-0.0027399
0.0167003,0.0037708
0.0417742,0.00608762
0.058613,-0.00379626
0.0514853,-0.0106777
0.0325141,-0.0170545
0.0454338,-0.0146487
0.0647806,-0.00322983
0.0507383,-0.000758405
0.0252039,-0.00183682
-0.00187431,-0.0029998
-0.0349249,0.00391242
-0.0622152,0.011892
-0.109522,0.00932202
