Comp Ch 3,Comp Ch 4
-0.154766,-0.0129227
-0.191459,-0.00123263
-0.0940434,0.0048089
-0.0927564,0.00770158
-0.0790754,0.00193887
-0.0130225,-0.00831825
0.0426203,-0.000995007
0.0547204,0.0156449
0.114293,0.0196679
0.175545,0.01517
0.180451,0.0135465
0.0444741,0.0102853
-0.0439951,0.00386031
-0.0574671,-0.00343943
-0.140733,-0.00669276
-0.244145,0.000237349
-0.247233,0.0118806
-0.0999087,0.0031057
0.0862591,-0.0138866
0.265503,-0.0191669
0.406778,-0.046535
0.337845,-0.0302462
0.0758035,-0.00183429
0.0230319,0.0108065
0.0490083,0.0179089
-0.149217,0.026605
-0.276162,0.0333738
-0.254403,0.0269044
-0.202546,0.00716016
-0.226709,-0.00739962
-0.188,-0.0146496
-0.12277,-0.0124272
-0.08013,-0.0105116
0.0145972,-0.0120631
0.129218,-0.0146732
0.173886,-0.019968
0.0668802,-0.0200244
0.0679286,-0.01627
0.161969,-0.00175257
0.200434,0.011538
0.101776,0.0164544
-0.0711049,0.0215961
-0.160868,0.014385
-0.0798065,0.015056
-0.0350882,0.0217058
-0.0284373,0.0174741
0.0141487,0.00954152
0.0858148,-0.00500055
0.0782114,-0.0038795
0.0162454,0.00133061
0.0607076,-0.00542959
0.0533808,-0.0130055
0.00565063,-0.0120518
-0.0312333,-0.00289046
-0.108258,-0.00807431
0.043083,-0.0226421
0.188111,-0.0209744
0.153802,0.0108258
0.00700813,0.0326981
-0.085798,0.0225939
-0.106018,0.00719569
-0.0470724,0.0144038
-0.036638,0.0157015
-0.0517317,0.00651725
-0.079621,-0.000513344
-0.072438,-0.000709018
-0.0308354,-0.0247055
-0.00752019,-0.0291548
-0.026411,-0.0124379
-0.0356399,-0.0498939
-0.0242434,-0.0164941
0.00584013,0.0058737
0.0228609,0.0119733
0.0229442,0.0156345
0.030266,0.01065
0.0142994,0.0120554
-0.00234804,0.0275974
0.0227723,0.025698
0.0375863,0.011167
0.0257563,-0.00734584
0.0171745,-0.0151832
0.0278781,-0.00807519
0.0305832,-0.020756
0.0447366,-0.0403897
0.0226047,-0.0543928
-0.0298236,-0.00158358
-0.0366778,0.0273362
-0.00970146,0.00893472
0.00829639,0.00194464
0.0109935,0.00175555
0.00559001,0.00274771
0.00643364,0.011844
-0.00143942,0.0212986
0.0016271,0.0250389
0.00618244,0.0237975
0.00310881,0.0177013
0.0266315,-0.000429749
0.0118447,-0.00774038
-0.0437906,0.00107641
-0.0314144,0.00468137
-0.0236288,-0.000708188
-0.0278026,-0.00215114
-0.0145087,-0.010656
-0.00836984,-0.0215743
-0.0100844,-0.0202868
-0.0216848,-0.0148305
-0.0276074,-0.00579922
-0.0276919,0.00181951
-0.0242819,0.0119396
-0.0189055,0.0172645
0.00567723,0.0143523
0.0242673,0.00819726
-0.00749786,0.00150024
-0.0475727,-0.0116696
-0.0291894,-0.0186746
0.0068803,0.000241155
0.0251293,-0.00417174
0.0199985,-0.0356993
-0.0233875,-0.00907362
0.00617141,0.0287028
0.078006,0.0131872
0.0594013,-0.0121362
0.030958,-0.0297663
0.187433,-0.042155
0.446608,-0.01024
0.55955,-0.0131187
0.293614,0.0324123
-0.226332,0.0671466
-0.668401,0.0384569
-0.66393,0.00114863
-0.330363,0.00296483
-0.0962361,0.00427077
0.125774,0.0341999
0.289263,0.0226134
0.307504,-0.0154991
0.0448336,-0.0449355
-0.292378,-0.0439701
-0.312117,-0.0234055
-0.105095,-0.00498418
0.0634818,0.0163007
-0.0062462,-0.00888108
-0.182551,0.00239151
-0.162374,0.0143961
0.0158393,0.0142192
0.241351,0.0161619
0.23625,0.0193347
0.192862,0.0184825
0.216971,0.0323279
0.327976,0.0214252
0.422928,-0.0234348
0.261658,-0.0401153
-0.0930832,-0.0280029
-0.476777,-0.00796002
-0.58478,-0.0144717
-0.383791,-0.00612666
-0.149566,0.0131435
-0.0421394,0.00953653
0.00634018,0.00530252
0.0789557,-0.00435367
0.131898,0.00242599
0.107757,0.00954804
0.0478488,0.014343
-0.0460479,0.0059303
-0.0252498,-0.0140719
0.0208116,-0.0156915
-0.0161529,0.000815335
0.0210082,0.00940509
0.0954736,0.00542627
0.104872,-0.00455014
0.10605,0.00915143
0.122944,0.00462936
0.117466,-0.0178013
0.0988148,-0.0203393
-0.0167264,-0.00555051
-0.138613,0.00374373
-0.127584,0.00168541
-0.140033,0.00323073
-0.113847,-0.0010873
-0.0424403,-0.00132217
-0.0168386,7.81e-05
-0.0186141,-0.00442093
-0.0167562,-0.0053841
-0.0204591,-0.00958134
-0.000132704,-0.0131888
0.0438542,0.0133982
0.130829,0.0297462
0.271669,0.0148763
0.271396,0.00105408
0.126528,-0.00277281
0.0198851,-0.00567859
-0.143072,-0.0152891
-0.185211,-0.0195693
-0.209704,0.0101749
-0.257518,0.0054261
-0.158875,-0.00263561
-0.0565089,-0.00159104
0.0385019,-0.00348676
0.192202,-0.0109548
0.286452,-0.00431457
0.343853,0.0143863
0.337293,0.00936084
0.125745,0.00666527
-0.0777472,0.00514241
-0.370852,0.000865333
-0.584719,0.00727757
-0.438403,0.00682296
-0.165279,0.00580224
0.0675496,0.0112336
0.168845,-0.00466284
0.173242,-0.0183582
0.120067,-0.0124638
0.0910593,-0.00712129
0.141089,-0.037748
0.193883,-0.0430479
0.0789752,-0.0276021
-0.0548177,0.0246744
-0.172768,0.0514184
-0.214723,0.0134057
-0.191466,-0.00433376
-0.218055,0.0114125
-0.113603,0.0345079
0.10632,0.0303252
0.206803,0.0187859
0.11746,-0.00529891
0.0199553,-0.0210148
0.0668876,-0.0495755
0.0951324,-0.0132349
0.0684303,0.034046
0.095661,0.0244025
0.0122986,0.00435751
-0.0898896,-0.0383945
-0.0941277,-0.0736856
-0.0730558,-0.00788572
-0.0694273,0.0269325
-0.0963455,0.0223178
-0.043521,0.0342545
0.0469075,0.0432823
0.0957815,0.0133151
0.0784529,-0.0169212
0.0532942,-0.0138584
-0.00168269,0.0042571
-0.0193855,0.0165529
0.00644428,0.020493
0.0709069,0.0168708
0.145225,0.00637831
0.142641,-0.01398
-0.00632775,-0.0191936
-0.0719494,-0.00919343
0.0641947,-0.00731552
0.122786,-0.0123151
0.0957439,-0.00458543
-0.00541494,0.00449611
0.00191419,-0.012462
0.0491845,-0.00732126
-0.128051,-0.0151029
-0.288227,-0.0289912
-0.313938,-0.0340595
-0.202828,-0.027035
-0.0197769,-0.0259545
0.100394,-0.0687662
0.186747,-0.000943973
0.203882,0.0480742
0.129289,0.0187286
0.014262,0.0376656
-0.153829,0.0310461
-0.297146,0.0137679
-0.290544,0.0101612
-0.135225,0.00868919
0.094951,0.00689032
0.179278,-0.0132317
0.140072,-0.0809053
0.159412,-0.0599053
0.161828,0.0369474
0.0688547,0.0928303
-0.012424,0.0715888
-0.111728,0.055493
-0.113403,0.0412382
-0.0582546,0.0193192
-0.0301867,-0.00550967
-0.0161679,-0.00454861
-0.0264883,0.00617266
-0.0170292,0.00433864
0.0532315,-0.0019361
0.104463,-0.00550877
0.112674,-0.0129455
0.0839777,-0.0100262
0.100465,-0.00613363
0.129497,-0.0180145
0.0948486,-0.0271432
0.0205257,-0.0201886
-0.096864,-0.0126011
-0.0552837,-0.013448
0.0762457,-0.0215401
0.00692288,-0.0197454
-0.0608211,-0.0137233
-0.0633853,0.00801907
-0.100353,-0.00447276
-0.193568,-0.00454236
-0.225518,-0.0336963
-0.163885,-0.0238728
-0.0947491,0.0197731
-0.0239466,0.0120431
0.0288931,0.0128196
0.0302317,0.0177994
0.0192896,0.00667386
0.0192144,0.00230385
0.0198274,0.00471558
0.0957626,0.0159189
0.255008,0.0355204
0.291031,0.0231149
0.164397,-0.00792053
0.0269847,-0.0224972
-0.136243,-0.0200902
-0.181725,-0.00987686
-0.123172,-0.0398991
0.00244727,-0.0777248
0.121019,-0.0562318
0.257476,0.0171665
0.260693,0.0267851
0.14111,0.0501131
0.047124,0.044146
-0.0966447,-0.00584614
-0.223769,-0.00593669
-0.234618,0.0159294
-0.253124,0.0227005
-0.221057,0.0258392
-0.138679,0.0219668
-0.0926804,0.00607056
-0.0441918,-0.00569111
0.0106257,-0.0106074
0.0308757,0.00126627
-0.0102872,-0.000155087
-0.0418643,-0.0043283
-0.00329505,-0.00557352
-0.0284009,-0.00026889
-0.0302569,0.00722323
0.0617948,0.00621945
0.0967758,0.00128886
0.0751716,-0.00240043
0.0230245,-0.00799774
0.0165802,-0.00908074
0.0623798,-0.00313815
0.0644759,0.000355135
0.0236435,0.00575319
0.00518044,0.0116015
0.0453992,0.00701193
0.137464,-0.0163518
0.136863,-0.045683
0.0731097,0.00247557
-0.0106158,0.0326374
-0.0966093,0.0138627
-0.0400846,0.00513319
-0.00202421,0.0058926
0.0353922,0.013885
0.0690084,0.00924675
0.033945,-0.026256
0.0558577,-0.0374755
0.0581141,-0.0476584
-0.0954955,0.00554193
-0.159373,0.0277169
-0.0541745,0.0407216
0.0515473,0.0443116
0.0229468,0.00614841
-0.0343584,-0.010369
-0.105977,-0.0123143
-0.164779,-0.00831528
-0.113602,-0.0141854
-0.0174458,-0.0198262
0.0827632,-0.014323
0.100298,-0.0067287
-0.0137627,0.000133429
-0.0581612,0.00425137
-0.0451339,0.00515081
-0.0235699,0.00489747
0.021916,0.00758894
0.0523598,0.0141373
0.0627659,0.0078491
0.0101773,-0.0102835
-0.0333272,-5.08e-05
-0.0557986,0.00724029
-0.036424,-0.00353618
0.0350777,-0.0100043
0.112563,-0.015885
0.143068,-0.0186511
0.152771,-0.0475257
0.0782,-0.0398714
0.0242876,-0.00316229
0.1316,0.0214602
0.125112,0.0241237
0.0392995,0.0166952
-0.125546,-0.00014596
-0.308469,-0.0169506
-0.241441,0.0314479
-0.0845159,0.0274882
-0.0536752,0.0142056
0.0788807,-0.00303595
0.224706,-0.000864187
0.190371,-0.00323656
0.0596046,-0.00731755
-0.113404,-0.00148388
-0.277884,-0.0011757
-0.273003,-0.00409639
-0.14445,0.00495591
-0.0626446,0.0167106
0.0212691,0.032151
0.139019,0.0431358
0.129541,0.00782575
0.082328,-0.0199521
0.106113,-0.0195873
0.114052,-0.0214632
0.12636,-0.0240779
0.0893804,-0.0202021
-0.0404619,-0.000259686
-0.0393116,0.00987853
-0.0714569,0.00561851
-0.162516,-0.000300903
-0.0808084,0.00193277
0.013667,0.00109294
-0.00201152,-0.00855695
-0.0344848,0.00291868
-0.0536267,0.00860545
-0.0468519,-0.00471189
0.0610379,-0.00873824
0.182339,-0.000529952
0.213608,0.00391508
0.101371,0.0108034
-0.0881302,0.0127369
-0.15052,0.0108571
-0.000235146,0.00626866
0.147023,-0.000211363
0.143395,-0.00914146
0.0274825,-0.00461141
-0.134229,0.00374391
-0.259238,0.0025049
-0.189036,-0.00506167
-0.0303766,0.00376437
0.0222518,0.00882988
0.054932,-0.00295136
0.0233654,-0.024076
-0.0314363,-0.019711
-0.000209032,-0.00612736
0.0619838,-0.0077519
0.0785949,-0.0138381
0.0049182,0.00384759
-0.091875,0.0156419
-0.0686472,-0.00332751
-0.037699,-0.0193054
-0.0359075,0.00563819
-0.00721041,0.0140013
0.0223805,-0.0100672
0.00403144,-0.040818
0.0192518,-0.0181574
0.0826672,0.019602
0.136594,0.0427412
0.17359,0.0142095
0.143979,-0.0121257
0.0378853,0.00127855
-0.0558906,0.0124974
0.00430283,-0.0016705
0.117809,-0.0349471
0.132249,-0.0102734
-0.0779573,0.035133
-0.311828,0.0292992
-0.285283,0.00575273
-0.122579,0.00166319
-0.0510954,0.00216557
-0.0559864,0.000577577
-0.0289323,0.0209783
0.029655,0.0236244
0.029551,-0.00862818
-0.0311001,0.0136492
-0.0394877,0.0132962
0.00303845,-0.0099473
0.0535644,-0.0104496
0.0502503,-0.00826555
0.0521423,-0.00983992
0.0637799,-0.00319392
0.0634568,-0.00162973
0.091117,0.00431449
0.0758907,-0.000817598
-0.00795154,-0.00859704
-0.0176259,-0.0043277
0.123112,0.00663383
0.19769,0.00866916
0.142278,0.0122106
-0.0296557,0.0200837
-0.266061,-0.00376349
-0.255718,-0.0418952
-0.109115,-0.0446708
-0.0595605,-0.00880634
-0.0182842,0.00853075
0.0384564,0.0073511
0.0551833,0.00802543
0.00553181,0.0135589
-0.00587535,-0.0103481
0.0484421,-0.0370476
0.0431818,-0.000188663
-0.0239077,0.0259563
-0.0669075,0.018048
-0.0491616,0.0302543
-0.0231806,0.0191098
0.0060124,0.00824306
0.0139729,0.0064472
-0.00468486,0.0014949
-0.0119612,-0.0401093
0.000376313,-0.0808261
0.021487,-0.0491598
0.0491403,-0.00859183
0.0537572,0.0134538
0.0542165,0.0244911
0.152152,0.0233169
0.351294,0.0215138
0.405573,0.0118648
0.186522,-0.0216158
-0.189061,-0.0173597
-0.415999,0.0242673
-0.376691,0.036063
-0.26329,0.0389294
-0.1532,0.0271203
-0.0106609,0.0132431
0.113628,-0.00465915
0.142258,-0.0137931
0.0891481,-0.00576211
-0.0180087,-0.00828667
-0.103901,-0.0136239
-0.0780228,-0.0122249
-0.0419377,-0.0317619
-0.0267611,-0.021766
-0.0177032,0.0178525
-0.008903,0.0140652
-0.0228616,-0.00477763
-0.0416244,-0.010377
0.00541311,-0.0146771
0.0922234,-0.0197366
0.164781,-0.0034386
0.157767,-0.00334878
0.0770625,0.0132092
-0.00189888,0.0182307
-0.0925083,0.000963827
-0.0959372,-0.00292223
-0.0462034,-0.00325668
-0.00896561,0.000713926
0.0210328,0.00574737
-0.00330327,0.00302184
0.000898063,-0.0127572
0.0435204,-0.0121465
0.0590357,0.00417631
0.050806,0.0139272
0.00962461,0.0102404
0.0253807,-0.0121758
0.0637663,-0.014899
0.0490974,0.00873204
0.0284513,0.0237836
-0.069787,0.0195809
-0.151877,0.00704082
-0.0893389,0.00123491
-0.0718558,0.00208136
-0.0636969,0.00512216
-0.00149554,0.00803486
0.0174536,0.000527389
-0.00262121,-0.00360179
-0.020791,-0.00160213
-0.0233678,-0.00139917
0.0261501,-0.004265
0.0423471,-0.00733272
0.0199192,-0.00784484
0.0365253,-0.0137185
0.0917359,-0.0174368
0.138838,-0.0101029
0.0942768,-0.0066515
-0.0679693,0.00538483
-0.162035,-0.00386695
-0.115649,-0.0268731
-0.050239,-0.0113489
-0.0121433,0.0182622
0.0328696,0.0225949
0.117615,0.0183816
0.180967,0.0103058
0.135497,-0.00248953
0.011591,-0.00685643
-0.0478929,-0.00650358
0.0170072,-0.00415364
0.141346,0.00932834
0.149547,0.0126023
0.00250132,0.00892466
-0.190421,0.00846765
-0.155631,0.00781241
-0.040828,-0.000237524
-0.0809942,-0.00618939
-0.0804048,0.000766866
-0.166868,-0.00549675
-0.198685,0.0051463
-0.0902586,0.019837
-0.035979,0.0247128
-0.0469539,0.0196488
-0.0373351,-0.0113848
0.0102395,-0.0712557
0.0376293,-0.0454627
0.036724,0.0214463
0.0112255,0.0382401
-0.00916922,0.0219221
0.0277283,-0.00195408
0.0473584,-0.00864668
0.0535456,-0.000989819
0.0596474,-0.0330459
0.0508239,-0.0117542
0.0964665,0.0189954
0.383608,0.0199934
0.635307,0.0119389
0.552742,-0.014262
0.255843,-0.00561867
-0.343672,0.0133982
-0.705837,0.0174357
-0.457753,0.00423787
-0.222735,-0.00107521
-0.153945,0.000228901
-0.0667613,0.000382351
-0.000102941,-0.00910555
-0.0340221,-0.018617
-0.0759165,-0.0157827
-0.021754,0.00125344
0.0440047,-0.0049664
0.0210951,-0.00938321
0.01516,-0.0190703
0.0132097,-0.0329645
-0.00328257,-0.0185945
0.00689817,0.000389647
0.0290584,0.0380988
0.0768964,0.0292732
0.101485,-0.00666412
0.0401527,-0.0360319
0.0588594,-0.0088581
0.153805,0.000697812
0.137933,0.0115252
0.0583154,0.00839557
-0.107449,0.0265668
-0.186215,0.0301243
-0.140962,0.0160569
-0.0742981,0.000173674
-0.0255061,-0.00835602
0.0299265,-0.0563818
0.00712851,-0.0751811
-0.068522,0.0418148
-0.0656921,0.060129
-0.0489503,-0.00251278
-0.0170403,-0.0378205
0.0651111,0.0255144
0.165223,0.0395936
0.204859,0.00683545
0.169244,-0.00975523
0.041652,-0.00602827
0.0315767,-0.00254688
0.0664312,0.0191623
0.0169064,0.00466449
0.0220827,-0.0162628
0.00741567,-0.00505901
-0.125276,0.0210875
-0.230544,0.0141286
-0.236679,-0.00160851
-0.0647677,-0.00277802
0.0377093,-0.00139259
0.0505944,-0.00182503
-0.0142895,-0.0038271
-0.137729,-0.0238029
-0.150021,-0.020422
-0.0672637,-0.0134813
0.0678888,0.000768742
0.198016,0.0101712
0.19843,0.00409331
0.0499807,0.00999596
-0.109465,0.0199049
-0.0824278,0.0109775
-0.0120637,0.000364646
-0.0285024,-0.00319478
-0.0441905,0.00768404
0.0104989,-0.00326818
0.0619627,-0.0113041
0.0769759,-0.0236139
0.056238,-0.0199246
-0.0300512,0.0151219
0.000196782,-0.00981846
0.293328,-0.0243678
0.51614,-0.00471228
0.441913,0.0031463
0.211192,0.00900514
-0.305536,-0.00606167
-0.661329,-0.0224273
-0.446283,0.0257297
-0.162641,0.0658852
0.0298328,0.033608
0.091962,-0.00172746
-0.0103547,-0.00956713
-0.118258,-0.0446481
-0.145999,-0.0249524
-0.11203,0.0215461
0.0517899,0.0226595
0.236122,0.0108036
0.223578,-0.00196904
0.0957479,-0.00279667
-0.0278963,0.00142704
-0.152732,-0.00657969
-0.235356,0.0114994
-0.105897,0.0274547
-0.00520647,0.00768424
0.0271918,-0.0128221
0.0235062,-0.0254827
0.0068162,-0.00241392
0.0338945,0.00840108
0.0395199,-0.039947
0.00656026,0.00161374
-0.0246128,0.0306906
-0.0148102,-0.0178229
0.0138865,-0.0646167
0.017489,0.026809
0.0167947,0.0384194
0.0010812,0.00302406
-0.0192002,-0.00454323
0.0548452,-0.000189144
0.161607,0.00799336
0.191145,0.00569333
0.0807978,0.00932805
-0.0673057,0.00201476
-0.0115757,-0.0230511
0.0713794,-0.0747325
0.079147,-0.0431126
0.0208402,0.0601285
-0.0889334,0.0272712
-0.110731,0.0158447
-0.145753,0.0317851
-0.073493,-0.000478827
0.165859,-0.0412703
0.183936,-0.031362
-0.051603,-0.0203905
-0.280996,-0.023232
-0.288045,0.00867016
-0.0193533,0.00161046
0.214746,-0.0265899
0.245066,0.0181314
0.118775,0.0469189
0.00669677,0.0418183
0.0520161,0.0346018
0.123817,0.0265786
0.297978,-0.00537682
0.339548,-0.0955014
0.0789784,-0.0729835
-0.174209,0.0082804
-0.385094,0.0571503
-0.509764,0.0710602
-0.348146,0.0358237
-0.146402,-0.052613
0.028137,-0.0414802
0.0556797,0.0252299
-0.123329,0.0336305
-0.209258,0.013409
-0.0867715,-0.0185444
0.0170538,-0.0292381
0.077459,-0.00182599
0.0884064,0.0432618
0.115176,0.0371057
0.059404,0.0236746
-0.0096545,0.0230672
0.0886321,0.00541901
0.206613,-0.0193828
0.13439,-0.0357765
-0.0280849,-0.0435125
-0.0313628,-0.0885823
-0.0514211,-0.102697
-0.164253,0.00234748
-0.0766254,-0.0108792
0.0593582,0.018327
0.0760039,0.0858989
0.0364098,0.0430021
0.156338,0.0289567
0.476434,0.034482
0.793251,-0.00283941
0.613053,-0.0501379
-0.0824341,-0.0285609
-0.462673,0.0379664
-0.363137,0.0358541
-0.192815,0.00186459
-0.259883,-0.0158714
-0.546388,0.0078381
-0.536385,0.0230179
-0.175937,-0.00177164
0.0435242,-0.0452038
0.0957654,0.00774483
0.0903578,0.030952
-0.00708957,-0.0107511
-0.0203587,-0.00890034
-0.0508543,0.0146502
-0.101628,0.0210559
-0.0663067,0.00699477
-0.0548576,0.00599247
-0.0733912,0.0104155
0.0368316,-0.00410306
0.248785,-0.00416926
0.392164,-0.0262582
0.466878,-0.0496883
0.268459,-0.0246346
-0.0325981,0.0060499
-0.0514629,-0.00192475
0.0634883,-0.0141078
0.16058,-0.00778702
0.149754,0.00801774
0.0106574,-0.00451154
-0.151068,-0.0210779
-0.237987,-0.0421336
-0.259904,-0.0344008
-0.22355,0.054974
-0.0902403,0.0770984
0.142029,0.0283324
0.101814,0.0241287
-0.0496096,0.0156038
-0.161598,-0.0626985
-0.227534,-0.0692471
0.0233838,-0.0108719
0.238482,0.0159667
0.270912,0.0337829
0.342618,0.0497605
0.349725,0.0305878
0.019581,0.0123289
-0.269795,0.0126459
-0.344686,0.00493419
-0.340111,-0.00767137
-0.225507,-0.0366866
-0.0146736,0.0102835
-0.00666216,0.0208136
-0.0750312,-0.00302884
-0.0762438,-0.0119107
-0.0636355,0.00264446
-0.0510069,-0.0417672
0.0335693,-0.0887438
0.291961,-0.0553205
0.464567,-0.00640732
0.245844,0.031794
-0.0836885,0.0800263
-0.29876,0.0655791
-0.352992,0.0174751
-0.155708,0.000120986
0.010117,0.0232695
0.00751117,0.0369549
-0.0610921,0.00677542
-0.0187556,-0.0123401
0.0409924,-0.0346408
-0.00989483,-0.038559
0.0521469,-0.0269713
0.146008,-0.00942032
0.122627,0.00749318
0.00769346,0.0247219
0.0253023,0.0230984
0.344335,0.0139143
0.46112,-0.00507423
0.254198,-0.0515037
-0.136968,-0.0512543
-0.451409,0.0229947
-0.283357,0.0395125
-0.213638,0.00236824
-0.188808,-0.0161851
-0.0650274,-0.03586
0.0290881,-0.0406214
0.157329,-0.00121261
0.168083,0.0556154
-0.0229064,0.0366841
-0.0408416,0.000826536
0.09396,-0.0283392
0.163009,-0.0483624
0.156737,0.0208202
-0.00471988,0.0380794
-0.176079,-0.00150742
-0.0271277,-0.0205416
0.150664,-0.00739403
0.0722767,0.00776358
-0.0481544,-0.0210234
-0.10018,-0.0349794
0.0140175,-0.00412716
0.152636,0.0199435
0.0584505,0.0225991
-0.109747,0.0215837
-0.203358,0.0263467
-0.00451486,0.0196438
0.265777,0.00615862
0.239506,0.0108309
-0.136587,-0.00888704
-0.414979,-0.0205642
-0.285265,-0.0203335
-0.11202,-0.0585085
0.0285859,-0.0103768
0.124079,0.0272874
0.163498,-0.0142471
-0.077827,-0.00772988
-0.268549,0.0646055
0.251724,0.0380063
0.644295,-0.00825461
0.361598,-0.00442466
-0.295495,0.0269318
-0.656649,0.0199093
-0.44142,0.0115975
-0.260087,-0.0435722
-0.0863581,-0.0854953
0.0438018,-0.0587405
0.0641559,0.0318685
0.0719874,0.0551521
0.0437136,0.0750796
0.021555,0.0711119
0.140831,0.0353103
0.349638,0.00748964
0.316974,-0.0273154
0.135047,-0.0570699
-0.0742065,-0.0262838
-0.203452,0.0295531
-0.0997588,0.00122745
-0.0104041,-0.0576766
-0.07011,-0.0222243
-0.100363,-0.0566108
-0.0569155,-0.0692129
0.00998933,-0.0272878
0.13386,0.0114778
0.314238,0.0147325
0.468191,0.00827741
0.401085,0.00753436
0.0959387,-0.0135325
-0.408127,-0.0610645
-0.652391,-0.00379244
-0.385974,0.0341187
-0.153873,0.0408941
-0.0477259,0.0655944
0.103503,0.0393567
0.165018,0.0292961
0.0625972,-0.010341
-0.0261736,-0.0326006
-0.140176,-0.0340281
-0.21532,0.0312713
-0.0398212,0.0707814
0.209086,0.0526844
0.567029,-0.00774891
0.820404,-0.0110705
0.813541,-0.0522983
0.565629,-0.0908252
0.114117,-0.0331877
-0.322798,0.0575328
-0.897252,0.058105
-1.16891,-0.00841818
-0.673964,-0.0320401
-0.236576,-0.0463142
-0.0387771,-0.0306917
0.115947,-0.00779764
0.133575,-0.00774586
0.0392794,-0.0117536
-0.0685591,0.0226167
-0.0186409,0.0724941
-0.0131638,0.09944
-0.118673,0.0607753
-0.176176,0.0229255
-0.0297671,-0.0156244
0.107185,-0.11914
0.178584,-0.0677706
0.206846,-0.0206568
0.148378,0.013544
0.101738,0.0275473
0.104163,-0.0088999
0.114813,-0.0163097
0.103873,-0.00753058
0.0480665,0.00173166
0.00175634,-0.0413347
-0.0324539,-0.0481539
-0.0582321,0.0284658
-0.0435627,0.0617819
-0.046141,0.032604
-0.0606912,0.0156658
-0.00836511,0.00955517
0.109592,0.0292758
0.137513,0.0623317
0.0752747,0.0494767
-0.0152872,0.0489511
-0.120421,-0.00987629
-0.11463,-0.119939
0.0417672,-0.0547229
0.324568,0.00646027
0.464815,-0.00780471
0.316832,-0.0340651
-0.101761,0.0621164
-0.488811,0.0357071
-0.399782,-0.00982309
-0.207789,-0.0300887
-0.0800796,-0.0467338
0.0483729,-0.0253235
0.101744,-0.0473994
-0.00953222,-0.0448929
-0.15759,-0.00273844
-0.160591,0.0227714
-0.144742,0.0164225
-0.135287,0.024726
-0.0746906,0.0335213
-0.0287859,-0.00489233
0.0253218,0.0363669
0.175677,0.105736
0.660607,0.0836694
1.43856,0.0400368
1.61547,-0.103547
0.59784,-0.0828085
-0.892919,0.033882
-1.2349,0.0511034
-0.7469,0.0159542
-0.240463,-0.02659
-0.557062,-0.0542294
-0.74255,-0.0351623
-0.391688,-0.0439212
-0.262172,-0.073176
-0.171271,-0.0880614
-0.0156248,0.060654
0.167543,0.132487
0.226723,0.0464856
0.104086,-0.0321838
-0.0413169,-0.0551625
0.121181,0.00243741
0.274747,0.0140748
0.267038,0.00804831
0.0672134,0.0783
-0.162789,0.100917
-0.18686,-0.0117055
0.0718297,-0.102618
0.394468,-0.0530405
0.345542,0.00506258
0.108992,0.0378633
-0.0845196,0.0796686
-0.162365,0.0724878
-0.106998,-0.0413073
0.0571618,-0.186619
0.177385,-0.13779
0.0994399,-0.0493006
-0.0636951,0.00227003
-0.190959,0.0180964
-0.161594,0.0175903
-0.0733003,-0.0102849
-0.0512797,0.00378392
-0.102261,-0.05425
-0.1233,-0.0535047
0.000665941,0.130681
0.0895953,0.166731
0.203128,0.097809
0.275376,0.0364142
0.281253,-0.00603773
0.327121,0.00452979
0.366874,0.0452817
0.27746,0.0139147
-0.198938,-0.056975
-0.535454,-0.0912671
-0.439423,-0.0700263
-0.299935,0.022302
-0.182876,0.0724099
-0.0378442,0.0216929
0.166506,-0.0513674
0.180481,-0.0466556
0.0158605,0.0146421
0.0649493,0.028336
0.271267,-0.0810945
0.510321,-0.157212
0.244115,-0.0770159
-0.25201,-0.0247352
-0.491316,-0.00178432
-0.407269,-0.00171014
-0.266379,0.102086
-0.205864,0.159963
-0.135682,0.170644
0.0465615,0.0511855
0.0516362,-0.0344763
0.00814575,0.0610633
0.336477,0.109368
0.598004,0.0340363
0.416505,-0.124444
0.129632,-0.197258
-0.0813785,-0.128794
-0.385058,-0.0554075
-0.264616,-0.0188037
-0.0625008,0.0329145
-0.130461,0.0563053
-0.173231,0.0303962
-0.0805862,-0.002312
0.0616885,-0.0349332
-0.047979,-0.0412912
-0.230513,-0.0373291
-0.314748,0.0110116
-0.188876,0.0222803
0.594165,-0.00862615
1.34015,-0.0100858
1.13601,0.00210373
0.0736095,0.0537876
-1.03337,0.0536773
-1.06792,0.00804932
-0.58193,0.0140561
-0.19036,0.049053
0.00958401,0.0460256
0.204355,0.0195428
0.312206,0.00859015
0.193549,0.066771
-0.169647,0.12097
-0.313336,-0.00620274
-0.161982,-0.0772534
-0.0375064,-0.0593258
-0.0833968,-0.0604418
-0.0452758,-0.0552142
0.0289862,-0.00699862
0.0180925,0.0121237
-0.0172197,0.00680538
0.0987069,-0.011425
0.310348,-0.0529864
0.342563,-0.107083
0.198231,-0.0770226
0.043122,0.0101903
0.0803482,0.0547436
0.0577831,0.0539069
-0.10364,-0.00329556
-0.119926,-0.0644765
-0.0217151,-0.0371312
0.0370246,0.112172
0.0826835,0.207439
0.175651,0.120334
0.220499,-0.0269
0.0970433,-0.0968025
-0.144991,-0.0447578
-0.381203,0.0830345
-0.228661,0.10566
0.107034,-0.0544512
0.37473,-0.116267
0.259364,-0.11277
0.00135326,-0.140059
-0.163839,-0.0567118
-0.294682,0.00239583
-0.248393,-0.00767153
-0.184546,-0.00309925
-0.0254356,0.0183483
0.121445,0.0329374
0.058175,0.00560102
-0.131737,-0.00637621
-0.289398,0.0506689
-0.20775,0.0500639
0.124373,0.0999755
0.285384,0.112553
0.212408,0.00538232
0.000806197,-0.0863996
-0.101838,-0.0228784
0.0645394,0.0392949
0.188635,0.0244365
0.253429,0.00930528
0.0160042,-0.0410126
-0.0581863,-0.093466
0.134902,-0.0139803
0.0883956,0.0822874
-0.131491,0.0521994
-0.2795,-0.00800931
-0.124719,-0.0468977
-0.113764,-0.0254963
-0.237096,0.01071
-0.236044,-0.0144505
-0.0956518,-0.0520541
0.0228034,-0.0346244
0.0783619,0.0137617
0.0758504,-0.000952501
0.0841378,-0.0227509
0.172945,0.0408659
0.327435,0.0488532
0.330486,0.0324381
0.17279,0.0137606
-0.0944224,-0.0104348
-0.31453,-0.0345895
-0.187232,-0.0160248
-0.0177538,-0.0108981
-0.00163237,0.015426
-0.0361156,0.018006
-0.0227895,-0.00716516
0.183207,-0.0696745
0.252359,-0.0717222
0.224871,-0.0110501
0.116407,0.0586521
-0.0616527,0.0738791
-0.130012,0.0645307
-0.198285,0.0281487
-0.270025,-0.0327411
-0.237683,-0.0116945
-0.100008,0.0159561
-0.017399,0.00496591
-0.00742241,0.00146341
-0.0130419,-0.010829
-0.019479,-0.0315539
-0.0333468,-0.000723923
-0.0229406,0.0433424
-0.00683149,0.0270564
0.0101066,-0.0478677
0.0556196,-0.0495042
0.109251,-0.0534309
0.0611125,-0.0342978
0.0169139,0.0270748
0.0331303,0.0352715
0.0396735,-0.0158504
0.036959,-0.0455305
0.0936665,0.0186368
0.113048,0.105377
0.0565056,0.0147574
0.107249,-0.0254579
0.282002,0.0206295
0.0593902,-0.0168289
-0.302971,-0.100339
-0.278995,-0.0528132
-0.126195,0.0664959
0.103316,0.0575288
0.0966211,-0.0207269
-0.0775884,0.0104025
-0.196518,0.149699
-0.0344581,0.172857
0.216665,0.0270354
0.276216,-0.10908
0.0575998,-0.158326
-0.0867941,-0.114379
-0.203021,-0.0557959
-0.285835,-0.0256571
-0.212038,-0.0228465
0.0305079,0.0100628
0.409453,-0.0264356
0.559641,-0.0344758
0.374868,-0.0123975
-0.161095,0.00533716
-0.450725,0.0628954
-0.424266,0.0717743
-0.22007,0.052209
0.0176497,0.0259216
0.0328809,0.0169813
-0.0499997,0.0503603
0.025,0.0524076
0.123868,0.0257322
0.0234776,-0.00362579
-0.177357,-0.0118924
-0.219238,0.0100484
-0.0046802,0.0298517
0.131875,0.0108813
-0.01971,-0.0421339
-0.122403,-0.0361459
0.0120751,0.00396008
0.113058,0.00418707
0.179436,-0.0490034
0.208772,-0.0689267
0.1861,-0.00773665
0.0922712,0.00274201
-0.0262971,-0.0626226
-0.0434057,-0.0448094
-0.0504588,0.0306468
-0.0636013,0.0485674
-0.0564009,0.00344895
-0.0532613,-0.0318269
-0.0524588,-0.0292435
-0.0226731,-0.025173
0.021934,-0.0107096
0.0337403,0.0362654
0.106721,0.0896365
0.163426,0.114092
-0.00184903,0.092836
-0.109451,0.0250929
0.0623153,-0.0611677
0.261925,-0.0881702
0.299318,-0.0738871
0.00671971,-0.0538249
-0.238521,-0.0179973
-0.126869,-0.0209737
-0.0379104,-0.0718702
-0.0554109,-0.0285364
-0.0629678,0.0239594
-0.173092,-0.00247056
-0.162108,0.0302641
-0.080432,0.0669376
-0.0950669,0.0975392
-0.0601567,0.0612008
-0.0755717,-0.0239479
-0.0961921,-0.0501278
0.00266417,-0.0159747
0.04039,-0.0359766
0.0336007,-0.0918292
0.0646441,-0.0686294
0.187199,0.0426491
0.44383,0.0951542
0.489633,0.0507837
0.231303,0.0162954
-0.297216,-0.0219162
-0.519742,-0.0525087
-0.121272,-0.000826581
0.112426,0.0361955
0.0549442,0.0337823
-0.0485621,0.0137027
-0.0239024,-0.0165439
-0.00441641,-0.0121269
-0.0570176,-0.0138503
-0.155162,-0.0174185
-0.196555,-0.0194564
-0.0620305,0.0530486
0.0307219,0.0675746
-0.000604225,0.036391
-0.0290921,0.0198365
-0.0241364,0.00921154
-0.00449836,-0.0202862
0.029358,-0.022654
0.0328286,-0.00674164
-0.019126,-0.0132894
-0.0584897,-0.0131153
-0.034562,-0.0238651
0.0219791,-0.0313469
0.0689968,-0.0157185
0.0641319,0.0120974
0.0496733,0.0225494
0.0951034,0.0482136
0.149869,0.0494499
0.223975,0.0276694
0.246542,-0.0629415
0.132345,-0.0490789
-0.0407913,0.0355933
-0.13613,0.045906
-0.0687332,0.0542799
0.0455333,-0.0331346
0.00468595,-0.0956507
-0.120019,-0.0813196
-0.159665,-0.0430986
-0.102778,0.00309872
-0.027532,0.00923239
0.0492325,-0.00977644
-0.0250328,-0.0244585
-0.0950722,-0.00604569
0.0726866,0.0473951
0.226878,-0.0105751
0.180589,-0.0494686
0.0606898,-0.0190045
-0.2242,0.0521377
-0.395056,0.0710531
-0.173906,0.0265065
-0.0221924,0.000329863
0.0240107,-0.00837957
0.0312423,-0.0207709
0.135669,-0.0381835
0.130274,-0.0116685
-0.0276475,0.0562705
-0.119411,0.0947876
-0.099999,0.054588
-0.0135624,-0.00180031
0.0290347,-0.00751933
0.0751887,-0.00674513
0.0967766,-0.0246749
0.0265177,-0.0182232
-0.00966407,-0.00771674
0.00524848,-0.0075293
-0.0163577,-0.00817656
-0.0642304,-0.00339408
0.000355148,0.0136705
0.00933207,0.0245871
-0.0814898,0.00609073
-0.0359756,-0.0172129
-0.0367625,-0.00912873
-0.0372761,0.0219321
0.0348987,0.0305474
0.106798,-0.0324693
0.160565,-0.0162817
0.223575,-0.0201347
0.248542,-0.0893749
0.172273,-0.0454268
0.0833441,0.0413111
-0.0630938,0.00926577
-0.221784,-0.0456425
-0.216159,0.0012415
-0.113374,0.0704716
0.0024476,0.0725455
-0.0399931,0.0513344
-0.158917,0.0179131
-0.152067,-0.0296471
-0.091045,-0.0589692
-0.0473258,-0.0419979
-0.00415441,-0.0167104
0.0214206,0.00782985
0.02518,0.0117007
0.0202437,0.0067599
0.00354107,0.00586253
-0.0125868,0.00733927
0.00602859,0.00897243
0.0671,0.00325327
0.19139,-0.0134415
0.438251,-0.00400516
0.56209,0.00821888
0.354727,0.028034
0.168683,0.0225313
-0.162467,-0.0435114
-0.631211,-0.124084
-0.650204,-0.0580178
-0.234562,0.0867898
0.143842,0.147878
0.154699,0.0949283
-0.0534255,0.0145706
-0.258133,-0.060936
-0.259979,-0.0824438
-0.143385,-0.0479315
-0.0441131,0.0226234
0.0430108,0.0430544
0.0818831,-0.0150203
0.0706584,-0.0702636
0.0217432,-0.0806071
-0.0372651,-0.0543944
-0.0413895,0.0487933
0.0192051,0.0713689
0.0484186,0.0376433
0.0720619,0.00350248
0.0746728,-0.0154703
0.1388,-0.0135691
0.256995,0.00965071
0.333247,0.00619588
0.240948,-0.0350352
0.0499166,0.0105891
-0.0283695,0.00383282
-0.0160073,-0.0599785
0.0112019,-0.0167476
0.0243704,0.0417164
-0.0319385,0.00925322
-0.134085,-0.0636948
-0.406344,-0.0367515
-0.279206,0.0567511
0.0402275,0.0896611
0.0740922,0.0363194
0.0273882,-0.0166947
0.121901,-0.0390392
0.0587173,-0.0354994
-0.0852567,0.00910775
-0.144323,0.0580075
-0.195945,0.0335289
-0.205447,-0.0055624
-0.0791422,-0.0250714
0.0462646,-0.0108524
0.126608,0.0239117
0.0805374,0.0259292
0.0346349,0.004726
0.0125579,-0.0155168
-0.0372278,-0.007571
-0.0300994,0.00333942
-0.00286017,-0.00119039
0.0337222,-0.0132922
0.0302777,-0.0718583
0.048586,-0.0505654
0.0635975,0.0367962
-0.00292137,0.0182985
-0.00619537,-0.00324571
0.041732,0.00934584
0.0950046,0.0294906
0.0783239,0.0407715
0.0290277,0.0399694
0.0904309,0.0384888
0.280264,0.0314619
0.419549,0.0109928
0.375772,-0.0285769
0.0059848,-0.0365671
-0.530346,-0.0106752
-0.611195,0.0112252
-0.284158,0.0136869
0.0120105,-0.0021277
0.106001,-0.0340298
0.097103,-0.0189728
0.050404,-0.0421472
0.0395191,-0.0694868
-0.100346,0.0579955
-0.267657,0.0844676
-0.164045,0.054189
-0.0368936,0.00791192
0.0405525,-0.0130718
0.0775017,-0.0614218
-0.0524389,-0.112014
-0.0482831,-0.139934
0.0423963,-0.0695765
0.0856066,-0.0223469
0.0621751,0.00558215
0.0710499,0.0394217
0.130266,0.0326663
0.160885,0.0111509
0.0779131,0.0162318
-0.0200161,0.00420019
-0.0505149,-0.00865657
-0.104303,0.0392803
-0.112665,0.0207366
-0.0337558,0.0196468
0.00297632,0.052932
-0.0162478,0.0515461
-0.0271259,0.017096
-0.00512142,-0.0225741
0.0320187,-0.0319419
0.0435902,0.00676417
0.0375372,0.0739736
0.0390803,0.040941
0.0384691,-0.0222122
-0.00237612,-0.0559092
-0.0254082,-0.0379293
-0.0213486,0.0083108
-0.0226125,0.0229073
-0.0418489,0.037371
-0.0378569,0.0233504
0.012046,-0.0216298
0.0436807,-0.0425112
-0.00632934,-0.0171244
-0.0184103,0.0136528
0.0972611,-0.00494535
0.209396,0.00145636
0.27407,0.0522929
0.229558,0.0637389
0.0521463,0.0644295
-0.0360354,0.0683969
-0.159968,0.0146357
-0.283481,-0.065061
-0.214546,-0.0531601
-0.142318,-0.0827821
-0.0883363,-0.0221073
-0.0733097,0.0342989
0.0201641,-0.00426719
0.0949989,0.0348458
0.114796,0.0532671
0.0408705,0.0159559
-0.142359,-0.0130144
-0.239004,-0.0451826
-0.166052,-0.0491872
0.0024687,0.0212631
0.107631,0.0220097
0.138178,0.0032125
0.091455,-0.0106383
0.0300422,-0.00969495
0.068833,-0.00395982
0.163091,-0.00633017
0.121377,-0.0327063
-0.0698909,-0.00783824
-0.194227,0.0426582
-0.178747,0.00427398
-0.159521,-0.0233293
-0.0591916,-0.0428607
-0.00963805,-0.0168233
-0.00109427,0.077423
0.0220151,0.0711411
0.0889609,0.00392035
0.271766,-0.015802
0.597879,0.00280401
0.627183,0.0216945
0.294341,0.00790091
-0.0768413,-0.0425919
-0.344088,-0.0807277
-0.390343,-0.0811394
-0.175022,-0.0395783
-0.183813,0.00937274
-0.345499,0.020321
-0.255992,0.0295057
-0.0979653,0.00291169
-0.0562282,-0.0250622
-0.073722,-0.0352585
-0.0859314,-0.0239549
-0.027379,-0.0060567
0.0475254,0.00938223
0.034846,0.0176948
-0.0122379,0.00391081
0.0099861,0.0049648
0.0775418,0.0312367
0.126255,0.0287088
0.0967379,0.00715782
0.0434059,0.00192869
0.0458051,-0.000121693
0.0979286,0.0164579
0.100399,0.025476
0.0298376,0.00930034
-0.0244798,-0.0385034
-0.034339,-0.0798768
-0.00889085,-0.0376594
0.0299566,0.00987582
0.022913,-0.00335514
0.0106393,-0.007688
0.0512429,0.0111116
0.113416,0.016449
0.227535,0.00414879
0.183892,0.0464855
-0.0191286,0.0656968
-0.0744846,0.0970175
-0.0863345,0.0638876
0.015539,-0.013254
0.14125,-0.0303282
0.0769717,-0.0516257
-0.107903,-0.108162
-0.163269,-0.0854848
-0.0706416,-0.0577675
-0.00415509,-0.108426
-0.0506715,-0.0563904
-0.299832,0.0238978
-0.415065,0.0793668
-0.267789,0.0764414
-0.109392,0.0571331
-0.00572573,0.0263294
0.137286,0.00474499
0.227013,-0.0176841
0.182472,-0.0157881
0.0593801,0.00144868
-0.0729012,0.0179519
-0.0778788,0.0360926
0.0412706,0.0450117
0.0830807,0.0411556
0.042349,0.0320643
0.00619575,0.0213422
-0.00321167,0.0120816
0.00662635,-0.0147282
0.0251806,-0.0358424
0.0338967,-0.0432637
0.119361,-0.0208196
0.182593,-0.0191806
0.235843,-0.053867
0.12737,-0.0105665
-0.119955,-0.00307643
-0.249733,-0.00246503
-0.19064,-0.00790469
-0.0635426,0.0135389
-0.0239714,0.0379876
0.0937644,0.0330281
0.224497,0.0386339
0.191908,0.0515758
0.097759,0.0386462
-0.0371799,-0.0105901
-0.200961,-0.0392057
-0.272113,-0.0292897
-0.21336,0.0212293
-0.0675223,0.0692841
0.046498,0.0490639
0.055306,-0.0192001
-0.00591956,-0.049031
-0.0424548,-0.0832617
0.00447285,-0.110746
0.0916621,-0.101571
0.138524,-0.0444688
0.135359,0.00197772
0.0318026,0.0195601
-0.032662,0.0606335
-0.00823398,0.0335806
0.0375146,0.00981967
0.070998,0.0291169
-0.0221232,0.0319584
-0.153212,0.0259015
-0.166129,0.0141706
-0.168355,0.00600822
-0.110502,0.00312532
0.0471545,0.0093433
0.172529,0.0214439
0.203227,0.025106
0.117066,-0.0178275
0.0136722,-0.0336702
0.0270813,0.0137836
0.114463,0.0370965
0.212557,0.0154424
0.0915111,0.0057364
-0.263356,0.0137058
-0.422718,0.018804
-0.181674,0.0270221
0.0360359,0.0126654
0.00499954,-0.0454229
-0.0490735,-0.0562395
-0.0685892,-0.0380725
-0.0754448,-0.0242197
-0.0283126,0.00200186
0.0512638,0.0312396
0.114427,0.034878
0.217289,0.00249696
0.206888,0.0141285
0.141774,0.0504512
0.137082,0.0529577
0.148446,0.0123144
0.150899,-0.0358372
-0.0829349,-0.0675283
-0.268494,-0.0630823
-0.175422,-0.0589597
-0.100832,-0.0485407
-0.111182,-0.0167291
-0.0894686,-0.0153319
-0.111602,-0.0146622
-0.11911,0.0239514
-0.0362911,0.0225097
-0.00801956,0.00907519
-0.00880246,0.00929866
0.000650817,0.0207655
0.013705,0.0187093
0.0238875,0.0209832
0.000914229,-0.0411777
-0.00517915,-0.112749
0.0052562,-0.0612821
0.0296074,0.0292226
0.104907,0.0408683
0.164303,-0.0204186
0.140459,0.0151068
0.160793,0.0554174
0.160285,0.0580146
0.0785276,0.0450071
-0.0443269,0.0203248
-0.193337,0.0203536
-0.181039,0.0366452
0.00923701,0.0535538
0.0618206,0.0780299
-0.00407817,0.0646868
-0.119314,-0.00489848
-0.171267,-0.0760386
-0.0892572,-0.0943923
0.0536052,-0.0704425
0.250995,-0.0470931
0.28146,-0.0464137
0.163717,-0.011159
-0.0843202,0.0148726
-0.351818,0.0158569
-0.294517,-0.00925304
-0.0977008,-0.0180592
0.0187099,0.00134724
0.0934859,0.0135913
0.207812,0.013742
0.272555,-0.00490414
0.174385,-0.00504406
-0.0829596,0.0160387
-0.271065,0.0242372
-0.188863,0.0234343
-0.0301296,0.0368053
-0.0284505,0.0296753
-0.0401801,-0.00119171
0.0189594,-0.0273181
0.00611499,-0.0200714
-0.013154,-0.0250062
0.019545,-0.0353316
0.0362924,-0.0181503
0.0236949,-0.00227351
0.128176,0.0270665
0.175992,0.0301279
-0.0470518,-0.000286838
-0.155225,-0.0425896
-0.13106,-0.0199728
-0.0479086,0.021356
0.0792451,0.01373
0.103747,0.0115533
0.0939962,0.0438633
0.0864546,0.0435425
0.083012,-0.00828692
-0.0186027,-0.124376
-0.213172,-0.0791044
-0.242684,0.006603
-0.116106,0.00883093
-0.0244842,0.05025
0.0330796,0.0317909
0.0409123,0.00749989
0.00484589,0.000447207
-0.0349782,0.00648088
-0.0353179,0.00705677
0.00334632,0.0020341
0.00758722,0.0311936
-0.000267827,0.072123
0.00716326,0.0571944
0.136576,0.0334025
0.423777,-0.0352685
0.58636,-0.0395679
0.44666,-0.0283635
0.0688555,-0.0413595
-0.422643,-0.031921
-0.499568,-0.053286
-0.286171,-0.0585722
-0.190764,0.024015
-0.0871788,0.0297784
0.00147371,0.0148996
0.0414704,0.0066342
0.00890862,4.81e-05
0.00804449,-0.0165823
0.0198755,-0.0103766
-0.0116215,0.00404454
-0.0206838,-0.0122457
-0.0379579,0.0104012
-0.0927107,0.0554217
-0.034173,0.0531878
0.112027,0.0630836
0.18796,0.0441518
0.0661363,0.00390311
-0.119974,-0.0207098
-0.166926,-0.0464383
-0.0758155,-0.0931498
-0.00440299,-0.123079
0.0109464,-0.101783
0.0484366,0.00278631
0.108547,0.0836648
0.124761,0.0568133
0.0976886,0.0170355
0.00280533,-0.0204568
-0.0957351,-0.0140807
-0.0660511,0.0170415
-0.101037,0.0191788
-0.179732,0.00702698
-0.0987366,-0.00152846
0.0168469,0.00508171
0.0592789,0.0449642
0.11101,0.03542
0.176204,-0.00383774
0.288387,-0.0120353
0.374135,0.0434574
0.339506,0.0292724
0.0609208,-0.0185405
-0.270657,-0.0303092
-0.451162,-0.026232
-0.347433,-0.0207764
-0.12718,-0.00704234
-0.0547403,0.000984692
-0.0852481,-0.00995115
-0.0917692,-0.0147307
-0.0308033,-0.00225604
0.0688038,0.0172482
0.133397,0.0221074
0.228125,0.00953828
0.251226,0.0122233
0.156736,0.00960899
0.0365995,-0.0117456
-0.141646,-0.0187646
-0.211047,-0.0167468
-0.0118513,-0.000634217
0.0202697,0.0197854
-0.104374,0.00631424
-0.187713,-0.0182609
-0.181004,-0.00321528
-0.0751483,-0.000146355
0.00160201,0.00467077
0.0392869,0.0217117
0.047457,0.0349904
0.08457,0.0366534
0.198854,0.0243433
0.231449,-0.000475198
0.215742,-0.017819
0.1091,-0.0193418
-0.0607483,-0.0119665
-0.15343,0.00433686
-0.171321,-0.00299153
-0.200202,-0.0138242
-0.162639,-0.0159019
-0.0406508,-0.043633
0.149744,-0.157443
0.27517,-0.0987512
0.261215,0.0358013
0.192877,0.0357051
0.0513607,0.0554156
-0.0787647,0.0730973
-0.19477,0.0452068
-0.207543,0.00707103
-0.168648,-0.010438
-0.135529,0.0113165
-0.0899317,0.0361373
-0.0954042,0.0481144
-0.0601028,0.0348865
0.0514089,-0.0048486
0.149889,-0.0117828
0.122259,-0.00884614
-0.0322977,-0.0214447
-0.0964536,-0.0446841
-0.0893494,-0.0341296
-0.0235341,0.00729469
0.0468215,0.00182531
0.08928,0.000656208
0.0763016,0.00922038
0.061329,0.00742256
0.0332786,0.00217162
0.000908458,-0.00522674
-0.000318974,-0.000728358
-0.03091,0.0176834
-0.00567167,0.0251263
0.0608624,0.000715709
0.120933,-0.0158326
0.15091,-0.0199565
0.101419,-0.0244049
-0.00148269,-0.0133047
-0.072893,0.0252922
-0.0584789,0.021963
-0.0446925,0.0026802
0.00291325,-0.0305646
0.0221888,-0.0184615
-0.0558087,0.000957068
-0.150312,-3.8e-05
-0.0686799,-0.0107205
0.0221963,-0.00184811
0.0336944,0.0139489
0.0213738,0.0197402
0.0252122,0.0222612
-0.0107798,-0.0326784
-0.0819646,-0.0246517
-0.0926088,0.0327797
-0.0523566,0.0199334
0.000594603,0.0204376
0.0414583,0.00173692
0.0699429,-0.00106396
0.0326437,0.00279629
-0.0083955,-0.000513763
-0.104633,0.0147564
-0.0716273,0.0058727
0.0159255,-0.0435286
0.0492005,-0.0380003
0.0379249,-0.00115164
0.0177807,0.00650465
0.0333975,0.0137483
0.142892,0.0170003
0.296933,-0.00777106
0.380702,-0.0167644
0.266877,-0.029712
-0.0723483,-0.0404078
-0.459076,-0.00612886
-0.373542,0.00660071
-0.104252,-0.0010696
0.008945,0.0169767
0.0962832,0.0433837
0.0688214,0.0176402
-0.0349448,-0.0144162
-0.149201,0.0126976
-0.26523,0.0339259
-0.238221,0.0255488
-0.0933211,-0.0108639
0.0671685,0.00244497
0.185865,0.0480402
0.267386,-0.0107218
0.119563,-0.0514051
-0.0249586,0.00829938
-0.163161,0.0485311
-0.174383,0.0194877
0.0552686,-0.0237305
0.0689319,-0.0524255
0.0142824,-0.0656277
0.00889648,-0.0636102
-0.0127183,-0.00972955
-0.0885686,0.0340461
-0.0863939,0.0390725
0.101464,-0.00213559
0.403993,-0.0281648
0.582279,-0.0152585
0.463902,-0.0479431
0.11788,-0.0503439
-0.40142,0.00462891
-0.615998,0.0783461
-0.385558,0.0128732
-0.278094,-0.0225014
-0.0963294,0.0447309
0.0857306,0.0640853
0.151876,0.0214795
0.174306,0.00343613
0.0822213,0.0139248
-0.0628327,0.0139221
-0.119982,0.00162988
-0.11202,0.00745891
-0.0512169,0.00390557
0.00535367,0.00381006
0.00432196,-0.0172749
0.0184539,-0.0397002
0.0324016,-0.0162767
0.0107738,0.010977
-0.0127752,0.00321447
-0.016367,0.00567661
0.191588,0.00787879
0.22011,0.0261881
0.189631,0.0722237
0.11392,0.0823071
-0.0327555,0.0112118
-0.0773153,-0.0406244
-0.042515,-0.0633475
-0.0526528,-0.0767018
-0.00724902,-0.0690851
-0.0142449,-0.0171472
-0.0984721,-0.034173
-0.0915752,-0.0383154
-0.022205,0.0152068
-0.0121861,0.03229
-0.123134,0.0228687
-0.145149,0.00793068
-0.0310488,-0.00178415
0.0353629,0.0154098
0.0312904,0.0147415
0.00518413,0.000430588
0.0149226,0.000369189
0.0539192,0.00260766
0.105333,0.000841325
0.141406,-0.0111187
0.0964758,-0.0283641
0.0150847,-0.0113276
-0.0829575,0.00391079
-0.102729,0.0005997
-0.0154935,-0.0173082
0.0515226,0.00440531
0.0512646,0.00836321
0.0195915,0.0020504
0.0383248,0.0132105
0.114497,0.0356441
0.154147,0.0208693
0.159361,-0.0175023
0.0767673,-0.0500498
-0.0113268,-0.0257539
-0.0899781,-0.0034504
-0.24997,0.00567781
-0.265693,0.0480456
-0.19134,0.000305071
-0.0875654,-0.0266835
-0.0168237,0.0156714
0.0115124,0.0275531
-0.0145028,0.0259038
-0.0489459,0.0358968
-0.0365886,0.0241587
0.000114167,-0.0186611
0.0661109,-0.00910743
0.105903,0.0115927
0.086026,-0.0187914
0.044633,-0.0450566
-0.0390455,-0.00967802
-0.076925,0.0110609
0.0372906,0.00851969
0.105666,0.0308036
0.0210551,0.0356241
0.00460514,0.0182455
0.0814387,-0.0061798
0.0817391,-0.0133137
0.0411715,-0.00938577
0.119081,-0.00843399
0.30754,-0.00907465
0.285122,-0.0209099
0.0133943,-0.0261306
-0.289531,0.0127594
-0.386205,0.0464657
-0.259782,0.0172433
-0.245733,-0.00598948
-0.21745,0.0195619
-0.020701,0.0204549
0.0891024,0.00867804
0.0397577,-0.0567947
0.00237138,-0.0501439
0.0641945,-0.0199583
0.146046,-0.0188599
0.145234,-0.0233499
0.00395386,-0.0189659
-0.138712,-0.0243137
-0.160168,-0.0578915
-0.113283,0.0670111
-0.0323733,0.0853228
0.0775434,0.0264219
0.104448,0.0362429
0.0775449,0.0199894
0.044078,-0.00180982
0.0711463,-0.0420251
0.136671,-0.0377991
0.132763,-0.0042013
0.123525,0.0120193
0.116995,0.0277553
0.0602475,0.0239961
-0.0537395,0.0058916
-0.220997,-0.0220845
-0.247168,-0.0293714
-0.19372,-0.00714769
-0.138602,-0.00352348
-0.0208055,-0.00339773
0.0718947,-0.0210609
0.0780344,-0.0213501
0.0606624,0.0144438
0.126654,0.00301256
0.28963,0.00138518
0.312563,0.0310699
0.125603,0.0443326
-0.0533974,0.0234392
-0.109622,0.00406529
-0.0499376,-0.0052033
0.00418622,-0.0227092
-0.0209461,-0.0454192
-0.0915458,-0.0522443
-0.192947,-0.0451275
-0.288431,0.000257655
-0.27316,0.0214691
-0.147868,0.0120775
0.00968182,-0.0111961
0.126651,-0.0124711
0.226996,-0.00792006
0.31151,-0.00800282
0.178679,0.00759575
-0.0441734,0.0211853
-0.169243,0.0309519
-0.218416,0.0269515
-0.201353,-0.0011527
-0.156114,-0.0183989
0.024969,-0.00758428
0.17611,0.0103247
0.16933,0.0129449
0.0375501,0.00656104
-0.0912128,0.00916422
-0.0481562,0.0143589
0.0286428,-0.00148339
0.00414742,-0.0156175
-0.0168452,0.00612581
-0.00576045,0.0104329
-0.0130225,-0.00310602
-0.0339599,0.0161684
-0.0143921,0.0298587
0.0321096,0.0411284
0.0305013,0.0419102
0.0164413,0.0278773
0.0607836,-0.0202693
0.0669089,-0.0545969
0.0772508,-0.0454732
0.0906146,-0.0251795
0.0910461,-0.0132391
0.175642,-0.00526782
0.221613,0.00380777
0.133437,-0.0230153
-0.0966925,-0.0118047
-0.183409,0.00524979
-0.0902879,-0.0104988
-0.0446183,-0.0358304
-0.107508,-0.0415057
-0.179993,0.000342987
-0.158886,-0.00408453
-0.0972141,0.00994873
-0.0642806,0.0214314
-0.0320571,0.00624315
0.0164703,0.0129585
0.060295,-0.00661858
0.0453065,-0.00829681
-0.00389026,0.0466232
-0.0178336,0.0308393
0.0210457,0.0034105
0.0857937,0.00797715
0.185507,0.0158289
0.191071,0.00171768
0.0691702,-0.0036922
0.00119451,-0.0103346
-0.0388728,-0.0206161
0.0164114,-0.0192724
0.0363586,0.0129264
-0.0681168,0.0254789
-0.139434,0.0144167
-0.1494,0.00798553
-0.0746121,0.0116569
-0.0051852,0.0124536
0.00216707,0.0102562
0.00239026,0.00886877
-0.0245498,0.0106539
0.0233008,0.011377
0.147308,0.0127049
0.152057,0.00640964
-0.0719539,-0.00921321
-0.316392,-0.0175211
-0.330486,-0.0149365
-0.122687,-0.00558479
0.0224999,-0.00131009
0.0442584,0.00766871
0.192814,0.0249126
0.458263,0.00912522
0.608401,-0.103182
0.57913,-0.135601
0.127985,-0.067353
-0.28291,0.00593449
-0.374741,0.106798
-0.506063,0.0546342
-0.4511,0.0118005
-0.241739,0.0234747
-0.0564484,-0.00468611
-0.0169675,-0.032163
-0.0415109,-0.0496841
-0.0194151,-0.0416918
0.00460038,0.00567296
0.0104345,0.031647
-0.000957055,0.0182643
0.00422906,-0.00143308
0.0250884,-0.000228435
0.0327904,0.0184032
0.0364298,0.0236154
0.0537515,0.0152757
0.0789197,0.0117141
0.108616,0.012215
0.153831,0.0130622
0.155762,0.0137725
0.116181,0.00290221
0.0833995,-0.0150193
-0.00136998,-0.0248877
-0.0227715,-0.0149818
-0.0488656,0.000977
-0.0722802,0.0151607
-0.0281134,0.0103708
-0.0437193,0.0146902
-0.11049,0.0200368
-0.183245,0.0198141
-0.156326,0.0223884
-0.0308055,0.0226396
0.109855,0.027515
0.379314,-0.00187408
0.587641,-0.0336363
0.576149,-0.0351661
0.375191,-0.0233614
-0.0083855,-0.0331049
-0.163156,-0.0608708
-0.185285,-0.0198695
-0.313102,0.00472352
-0.506565,0.0180198
-0.405923,0.0022282
-0.289989,-0.0225676
-0.173589,-0.0165344
0.0717143,-0.00593519
0.150584,-0.00926027
-0.0125854,-0.00309957
-0.212032,-0.0115577
-0.244526,0.00649237
-0.0706695,-0.000305999
0.0485452,0.00146094
0.0330877,0.0300781
-0.0607394,0.0332934
-0.00575323,0.033998
0.170043,0.0248404
0.207128,0.00971293
0.168321,0.0145877
0.0670098,0.00807989
-0.0448135,-0.00132687
-0.0173349,0.00195964
0.0570765,0.0149503
0.0521655,0.00576852
0.0131922,-0.0106425
0.00558089,-0.0116853
-0.000987397,-0.00823461
-0.0445277,-0.0011817
-0.0678612,0.00415325
-0.0433227,0.00511795
0.000361617,0.00442146
0.032964,0.00390482
0.0544492,-0.00569358
0.0506587,-0.0256948
0.046927,-0.0190537
0.054683,0.00194969
0.138015,0.00857945
0.28549,-0.00310978
0.29621,-0.0273322
0.153001,-0.0232856
-0.0945826,0.0390146
-0.187306,0.058033
-0.185713,0.00398454
-0.233732,-0.0251324
-0.203976,-0.0292306
-0.108647,-0.0137119
0.0187758,-0.00721409
0.130825,-0.0075094
0.109353,-0.0142028
-0.0751023,-0.0108669
-0.158328,0.00703414
-0.075366,-0.00256307
-0.0215439,0.0157231
0.0491163,0.0235684
0.0712253,0.0242481
0.0444369,0.0140145
0.0430231,-0.00995551
0.0294812,-0.0259273
-0.0259519,-0.0173105
-0.0342557,-0.0099033
-0.0520934,-0.00921209
-0.120204,-0.00152621
-0.0830314,0.0197975
-0.00416396,0.026263
0.00808752,0.0213755
0.0371006,0.00677578
0.080556,-0.0111514
0.111198,-0.0381467
0.0547858,-0.065192
0.115446,-0.0160194
0.344215,0.0228973
0.382773,0.000317978
0.12487,-0.0172324
-0.156117,-0.0233321
-0.292127,-0.0748782
-0.38195,-0.0365158
-0.360729,0.0638295
-0.191958,0.0491717
-0.0545628,0.0498065
0.0301344,0.0454408
0.106077,0.00581951
0.169135,-0.00597081
0.176279,0.00207465
0.0936716,0.00502107
0.00546078,0.0192045
-0.0561189,0.0284501
-0.0992502,0.0203129
-0.121027,-0.00181855
-0.132815,-0.0287784
-0.0773076,-0.0499352
-0.0134067,-0.0639006
0.0486642,0.0413868
0.0630349,0.0648805
0.0432636,0.0130163
-0.032067,0.00581422
-0.113883,0.00347018
-0.0368181,0.0171542
0.107443,0.0160443
0.199182,-0.0131869
0.164535,-0.0291976
-0.00116653,-0.0181507
-0.126661,-0.00105048
-0.0749958,0.00243736
0.121088,-0.00105469
0.215967,0.00992021
0.172993,0.00226498
0.0493357,-0.00946225
-0.155763,0.012836
-0.137807,0.0372797
-0.00655889,0.0120815
4.81e-05,-0.0214406
-0.0725951,-0.00238566
-0.0903065,0.000423498
-0.0488343,-0.00979222
-0.0137589,-0.0323372
-0.0650788,-0.024174
-0.0355663,-0.00251249
0.149828,-0.0106565
0.173763,-0.0415193
0.0918286,-0.0179837
-0.0186113,0.0447341
-0.032182,0.0344443
0.0475814,0.00020857
0.0184365,0.00692825
-0.0458096,-0.0129109
-0.123254,-0.0106708
-0.111392,-0.00391407
0.0264311,0.00232601
0.102307,0.0023925
0.0767607,-0.00478756
-0.00973585,0.000854015
-0.059063,0.00508765
-0.0989147,-0.00146097
-0.174055,0.0101836
-0.134123,0.0243045
-0.0558685,0.0194742
-0.018572,-0.0116511
0.0308898,-0.00740288
0.0885088,-0.00160447
0.10714,0.0314193
0.109258,-0.00902493
0.0521091,-0.0534556
-0.0354427,-0.0393399
-0.0445329,-0.0135002
0.0532981,0.000557975
0.118981,-0.00996334
0.114969,-0.0131811
-0.0269686,0.000999873
-0.187472,0.00282833
-0.163894,0.00334002
-0.112713,0.0120273
-0.0610674,0.0268842
0.00838216,0.0299183
0.0770199,0.0238366
0.119956,0.0200827
0.247633,0.0334606
0.347455,0.0161064
0.295342,-0.034245
0.251972,-0.0448959
0.0565962,-0.0210757
-0.159103,-0.0186079
-0.276613,-0.00699822
-0.383022,0.0213206
-0.303507,0.0208267
-0.144194,0.0131083
-0.0813564,0.00352369
-0.0433112,-0.0138405
-0.0295288,-0.0186058
-0.0306615,0.0173078
0.00336113,-0.00642837
0.0259683,-0.00986048
-0.00464941,0.0128627
-0.0708351,0.0216589
-0.100361,0.0458541
-0.0396548,0.0453635
0.13746,0.0647454
0.234142,0.00994792
0.14622,-0.0897942
0.0511003,-0.115744
0.0636693,-0.093707
0.100394,-0.0159495
0.0999625,0.0225314
0.00773274,0.034456
-0.0575817,0.0105653
-0.0220953,-0.00717572
-0.00668461,-0.0454169
-0.0559027,-0.0478075
-0.073662,0.0001833
-0.084205,0.030766
-0.0915005,0.0338116
-0.0557581,0.0302013
-0.00456037,0.0269808
0.0360828,0.0425892
0.0494942,0.0348181
0.08094,0.0236698
0.0899846,0.0132721
0.0744873,0.00491337
0.0583331,-0.00796592
0.0813553,-0.0089604
0.167534,0.00625378
0.102916,-0.00113847
0.0377769,-0.0118398
-0.037566,-0.019146
-0.198553,-0.0182894
-0.193852,-0.0109577
-0.13572,0.00216537
-0.153394,0.0158465
-0.149263,0.0304742
0.00730281,0.0464386
0.122588,0.0334161
0.15756,0.00172237
0.132671,-0.0188705
-0.0643004,-0.011482
-0.183312,-0.0342949
-0.120738,-0.0332734
-0.0274348,-0.0329319
-0.0421475,-0.0270087
-0.04751,-0.013398
0.00440844,0.00187053
0.0852255,-0.00210597
0.12677,-0.0132449
0.105103,-0.00928752
0.0637994,-0.00800092
0.00331391,-0.00451371
-0.0549396,0.00825388
-0.0660428,0.0092311
-0.103698,-0.000932306
-0.0789131,-0.00500969
0.0179103,0.000916348
0.128546,0.00605455
0.144408,0.0145933
0.0943298,0.0137347
0.0119383,0.00745399
-0.119186,0.0158105
-0.098194,0.0315141
-0.0309547,0.0319871
-0.0103249,-0.0175058
0.0170163,-0.0622659
0.132524,-0.0258544
0.266988,0.0177005
0.3785,-0.00252729
0.27875,-0.0459363
0.00877823,-0.0130725
-0.201488,0.0264005
-0.349845,0.0285858
-0.332739,0.0335283
-0.148134,0.0324214
-0.000447539,0.00940855
0.0590396,-0.0194052
-0.0609251,-0.0284271
-0.135869,0.0134599
-0.00807657,0.0509434
0.0339931,0.016893
-0.00889905,-0.0111631
-0.0243747,-0.0138614
0.00286072,-0.0274353
0.0106717,-0.0196313
-0.0884734,-0.00679913
-0.15704,-0.0154181
-0.0562193,-0.0297497
0.0513632,-0.0158619
0.0860306,0.00372166
0.0692493,0.0111354
0.0289596,0.0111523
-0.000956023,0.0171147
0.0308534,0.0121324
0.0396573,-0.0017724
0.0897644,-0.0292541
0.193119,-0.0461152
0.23024,0.0150242
0.13586,0.0226996
-0.0487861,0.00670955
-0.192811,0.0199247
-0.17871,0.0409073
-0.0559278,0.0376808
-0.00592607,0.0216304
-0.0426488,0.01181
-0.0444406,0.00725705
-0.00462328,-0.0258872
0.02371,-0.0522314
0.0586573,-0.0246007
0.0746786,0.0170206
0.0283203,-0.0170596
-0.0258083,-0.0253967
-0.0385518,-0.0141774
0.0204334,-0.0213071
0.0669658,-0.0429248
0.0546043,-0.0147943
0.0618616,0.0471156
0.0499754,0.0680051
0.0518075,0.0276053
0.00234778,-0.000708075
-0.0992261,0.0273631
-0.117998,0.0240565
-0.0193528,0.00781334
-0.0192015,-0.0122778
-0.084228,-0.0331635
-0.0878459,-0.0209183
-0.0276175,-0.00329039
0.0454475,-0.00258721
0.0815646,-0.0266908
0.0713575,-0.0319008
0.0654137,0.00469369
0.0798934,-0.0132335
-0.0125669,-0.0220209
-0.170518,0.00374841
-0.246313,0.0386011
-0.174108,0.041535
-0.0402666,0.0193623
0.0579145,0.0114557
0.186382,0.0111573
0.420785,0.0209025
0.579572,0.0224699
0.406526,0.00117165
-0.0298038,-0.000637788
-0.374437,0.00272308
-0.464252,-0.0616352
-0.374258,-0.105556
-0.261601,-0.0167316
-0.140675,0.00702003
-0.0449788,0.0220537
0.0120911,0.0117498
0.00766954,0.000819655
-0.00783028,0.00929151
0.00130634,0.00460892
0.0271482,-0.00343952
0.0645603,-0.00441693
0.098585,-0.000482677
0.0820258,0.00276426
0.0281593,0.0174938
-0.0207055,0.0254146
-0.0170748,0.0183307
0.0147713,0.0197616
0.0374318,0.0297195
0.0613834,0.0411734
0.178408,0.0571016
0.28946,0.0689499
0.143876,0.00900331
-0.0558219,-0.0378845
-0.190277,-0.0450926
-0.202137,-0.0511044
-0.0845207,-0.0596983
0.0237146,-0.0790072
0.0510699,-0.0836394
0.030728,-0.075215
-0.00593165,-0.0407774
-0.0719458,-0.0158038
-0.087438,0.0342583
-0.0211916,0.0502693
0.0500574,0.0293922
0.0146727,0.0281556
0.0489869,0.0333492
0.16231,0.0440924
0.193972,0.0436159
0.124296,0.022866
-0.0633952,0.000904058
-0.254415,-0.000167035
-0.235256,0.0076808
-0.123168,-0.00664892
-0.0431505,-0.0377021
0.00739914,-0.0280926
0.0347349,0.0220384
0.045819,0.0176162
0.0302667,0.00643728
0.00690626,0.00660606
-0.00547069,-0.000257813
-0.0102149,-0.00501294
-0.0184165,-0.000869729
-0.0162573,-0.00184312
0.033326,-0.00541713
0.0716638,-0.00876118
0.0782989,-0.000717502
0.0499072,0.00698051
-0.0194516,0.0119303
-0.0261122,0.00722125
0.0318387,-0.00240125
0.0526949,-0.0137686
0.0229145,-0.0195211
0.0157575,-0.0150813
-0.00445943,0.00205873
-0.0952181,0.0166406
-0.128315,0.0090879
-0.0799404,-0.00307942
-0.00726558,-0.00318423
0.0570959,-0.00217254
0.0802612,-0.00250363
0.0672075,-0.00780921
0.00492977,-0.00460361
-0.0599565,-0.0127827
-0.107778,0.0124857
-0.118953,0.0470504
0.0416764,0.0490941
0.284539,0.00426893
0.339851,-0.0147495
0.193228,-0.00744817
0.0590682,0.0151438
0.027799,0.0203364
-0.159505,-0.0318402
-0.293665,-0.0452733
-0.263646,-0.0388004
-0.165306,-0.0342883
-0.0663249,-0.0241817
-0.0564886,-0.0199095
-0.096537,-0.00482135
-0.0682679,-0.0037793
0.0036406,-0.0275055
0.0410721,-0.0133225
0.0243967,0.0160502
-0.00217345,0.0217422
0.00659266,0.0171121
0.0454686,0.0220538
0.0926313,0.019326
0.115967,0.0139089
0.0814954,0.0145025
0.0262893,0.0117949
-0.0354454,0.0158446
-0.03699,0.020743
0.0200985,0.00350479
0.034287,-0.00246459
0.0199597,-0.00537151
0.0162973,-0.0259176
0.0663404,-0.00470651
0.140884,0.0131085
0.122301,0.00176129
0.0305119,-0.00375088
-0.105994,-0.0098705
-0.145512,-0.0257267
-0.100207,-0.0420636
-0.0519877,0.00197347
-0.0405831,0.04301
-0.0607233,0.0136031
-0.0224243,-0.0243529
0.138156,-0.00453906
0.259739,0.0459968
0.253225,0.0389926
0.1645,0.00473978
-0.0641214,0.0149912
-0.175435,0.0444521
-0.166002,0.0465152
-0.21947,0.0360999
-0.181923,0.00147695
-0.0829341,-0.0363939
-0.0189383,-0.0548697
0.0486497,-0.0529418
0.179225,-0.05079
0.248259,-0.129398
0.0927775,-0.0911392
-0.0480799,0.0219201
-0.10745,0.0571477
-0.0996172,0.0415689
-0.0135388,0.0249698
0.072319,0.00677494
0.0779526,-0.00337806
-0.0924513,0.00968652
-0.181101,0.0199801
-0.146472,0.017155
-0.104847,0.0281595
-0.0564354,0.0286641
-0.00922746,-0.00599209
0.0245649,-0.018915
0.0338625,0.0245377
0.024999,0.0282442
0.00884498,0.0101109
0.00291772,0.0139038
0.0182161,0.0152589
0.0374639,-0.0173989
0.0465396,-0.0465368
0.0526246,-0.00855853
0.0561975,0.00384725
0.0653322,-0.0091537
0.0963442,-0.0211557
0.170457,-0.0152811
0.222913,0.031585
0.177423,0.0631001
-0.0304972,0.0229519
-0.151262,-0.00927793
-0.13635,-0.00669883
-0.146557,-0.00463896
-0.135018,-0.00486855
-0.0552317,-0.0193147
-0.0188095,-0.0188693
-0.00747374,-0.00965945
-0.0614589,-0.0172901
-0.116193,-0.0375985
-0.0954565,-0.00902852
-0.0419789,-0.00227526
0.000207977,-0.00846333
0.0324681,0.00162279
0.0547475,0.00955188
0.0682071,0.00191119
0.12513,-0.0157069
0.254087,-0.0344976
0.336653,-0.0350212
0.233883,0.0125336
0.0343798,0.0212791
-0.195847,0.0359748
-0.349882,0.0496974
-0.274924,0.0446909
-0.113835,0.0306212
-0.089308,0.00188568
-0.0609408,-0.0294059
-0.0119659,-0.0404271
0.0162796,-0.0352088
0.0507291,-0.00457406
0.220249,0.0286444
0.351651,0.0290181
0.201269,-0.000818458
-0.0579707,-0.02311
-0.320331,-0.0267803
-0.341149,-0.0128837
-0.142466,-0.00300268
-0.0557624,0.00365994
-0.00428065,0.011833
0.0337631,0.0151454
0.0622875,0.0123277
0.10579,0.00467818
0.113252,-0.0168042
0.0861627,-0.0165138
0.073923,-0.0208036
0.0496312,-0.0161542
0.0037403,0.00981084
-0.0106309,0.016494
0.0511458,0.0110107
0.105873,0.0070868
0.117964,0.00112947
-0.00210398,-0.0113831
-0.212771,-0.00368634
-0.236178,0.0304563
-0.0817451,0.026254
0.0206915,0.0226336
0.0511929,0.0318791
0.00987897,0.0107509
-0.0122558,-0.00831852
-0.00481923,-0.0154368
-0.0328101,-0.0302989
-0.0425787,-0.0315071
-0.0352725,-0.0186096
-0.0221965,-0.00746341
-0.00606522,-0.00394114
0.00098765,-0.000898151
-0.00217333,0.00300442
0.026912,0.00681337
0.0700609,0.0186111
0.083252,0.0208388
0.0850049,0.0115708
0.0539268,-0.00118969
0.00256079,-0.0172914
0.0187304,-0.0350873
0.0585659,-0.00984576
0.0687019,0.030852
0.0449961,0.0130308
0.00590643,-0.0134937
-0.0514744,-0.028046
-0.125246,-0.0132413
-0.117495,0.00058162
-0.0764503,0.000294698
-0.0875608,-0.000991929
-0.0721005,-0.000946476
-0.0142898,0.00853422
0.0546363,0.0292788
0.134924,0.0439948
0.176481,0.0346937
0.100632,-0.000908949
0.0206161,-0.0197125
-0.0523203,-0.0128382
-0.0731352,0.000578953
-0.087587,-0.00156955
-0.0718496,-0.00481837
-0.0254971,-0.00663168
-0.00788397,-0.0135384
0.0235083,-0.015569
0.104285,-0.000233828
0.142144,0.0109694
0.130962,0.0145966
0.0103532,-0.0165865
-0.104097,-0.0256502
-0.105747,-0.0205619
-0.0876874,-0.019258
-0.0748427,-0.00944473
-0.0714778,0.00400556
-0.0535335,0.0221924
-0.010267,0.0282304
-0.0116863,0.0160402
-0.0358009,0.0119057
-0.032588,0.0102589
-0.0296161,0.0110561
-0.0282046,0.00270641
-0.0178537,-0.00279319
-0.0232585,-0.00158486
-0.000539685,0.00294737
0.0705522,-0.00231104
0.166881,-0.0162282
0.258133,-0.0152637
0.182777,-0.0209286
0.0392152,-0.0233649
-0.11771,0.0185637
-0.20334,0.0278398
-0.0476133,0.0160126
0.203686,0.00408573
0.306424,-0.0324694
0.252103,-0.0446299
0.0598568,-0.00542153
-0.219074,-0.0119147
-0.273217,-0.0270401
-0.286514,-0.0169713
-0.342345,0.0160109
-0.20623,0.056084
-0.0229442,0.0460834
0.0878932,0.030189
0.116566,0.010089
0.107929,-0.00524131
0.0668859,0.00398857
-0.0126777,0.0195077
-0.0780363,0.00713904
-0.0635379,-0.0120409
0.00331236,-0.0225002
0.0643497,-0.0149438
0.0953543,-0.00911072
0.0768283,0.00588118
0.0506402,0.0103409
0.00914118,-0.000418443
-0.0279386,-0.00193352
-0.0634498,-0.00383582
-0.0480117,-0.0043108
0.0115471,-0.00440258
0.0247133,-0.00644685
-0.0089792,0.00221205
0.0079191,0.0037534
0.0681963,-0.0101358
0.183417,-0.015463
0.325194,0.000300109
0.308067,0.0102135
0.0766097,0.000750894
-0.225704,-0.0120902
-0.394507,-0.00596251
-0.26505,0.00389172
-0.101776,0.00728108
-1.72e-05,0.00519517
0.0353668,0.00393161
0.039418,-0.000188095
-0.0236888,-0.00778861
-0.108517,-0.0121806
-0.0992881,-0.00338591
-0.063931,-0.0163193
-0.0531636,-0.00615795
-0.0198571,-0.00507989
0.0166356,0.00569138
0.0385147,0.00806956
0.0407908,0.00519652
0.0174178,-0.00344372
-0.0158711,-0.0167719
-0.00502882,-0.0198923
0.0221188,0.00964218
0.0646838,0.0289617
0.155301,-0.000275293
0.405515,0.00795583
0.64482,0.0301192
0.513747,0.0109054
0.127295,-0.00283024
-0.209318,0.0066368
-0.375865,0.0240236
-0.373223,0.00669631
-0.250006,-3.7e-05
-0.236225,0.00789602
-0.276116,-0.00973582
-0.120567,-0.0210277
-0.0593539,-0.0164657
-0.131236,-0.0159265
-0.129721,-0.011001
-0.0453369,-7.71e-05
0.0170376,-0.000108565
0.0336635,-0.00369528
0.0640753,0.00741077
0.14275,1.15e-05
0.160109,-0.00512277
0.102698,-0.00197152
-0.0045674,0.000648287
-0.111004,0.000977299
-0.0527596,0.0107083
-0.0115465,0.0175933
0.0354156,0.00650564
0.0821929,0.000863281
0.0897969,0.00645924
0.0635801,0.00631937
0.041042,0.00898281
0.00312221,0.0182183
-0.0104731,0.0129783
-0.00905046,0.00376689
-0.0456424,-0.0274694
-0.0500662,-0.0344179
-0.0282823,0.000159763
0.0335354,0.0019844
0.0927988,-0.000350141
0.0936806,-0.00390084
0.0400072,-0.00324654
0.00987855,-0.00227704
0.0105991,0.000344972
-0.0110481,-0.0252504
0.0109096,-0.0441176
0.035964,-0.0283002
0.022575,0.00343006
0.00851951,0.00354816
-0.0337905,0.0165532
-0.0696275,0.030667
-0.0254727,0.023786
-0.0105001,0.00751085
-0.0491291,0.0042135
-0.103242,0.000195281
-0.123105,-0.00723692
-0.0871027,0.00709503
-0.0383418,0.00268252
0.00625752,-0.0181218
0.0859466,0.0198111
0.111594,0.0257081
0.133519,0.0246388
0.169844,0.0112116
0.161622,-0.00761292
0.0531632,-0.011809
-0.113182,-0.029978
-0.198054,-0.0327892
-0.148773,0.000455329
-0.0956854,0.0101892
-0.084924,-0.00527168
-0.06191,-0.0214256
-0.0319444,-0.0200254
-0.00349187,0.00122246
0.0413263,0.0206324
0.100711,0.0346686
0.220988,0.0403394
0.246534,0.0210356
0.151259,-0.00853751
0.00554281,-0.0010127
-0.0782017,0.00652055
-0.13136,-0.00432634
-0.121992,-0.00816906
-0.128901,-0.0117296
-0.0870781,-0.0209913
-0.0478054,-0.0204428
-0.0359999,-0.0124697
0.0560146,-0.0370784
0.0644985,-0.00380223
0.0107959,0.0171445
-0.0469571,0.0112656
-0.131911,0.00889057
-0.153414,0.00629662
-0.0940121,0.00768304
-0.0504499,0.0111178
0.0196427,0.00111665
0.0964013,-0.0160415
0.163026,-0.0222398
0.265969,0.000229993
0.316683,0.00963947
0.256842,-0.00431097
0.101027,0.0112412
-0.0857591,0.0171559
-0.0785233,0.0151694
-0.0827338,-0.0102107
-0.0769555,-0.0216184
-0.0210049,-0.00596945
-0.107069,-0.00666624
-0.156293,-0.0160917
-0.248871,-0.00188969
-0.254119,0.0266837
0.00234687,0.0165437
0.162421,0.00369563
0.0862396,0.0149527
-0.075988,0.0265708
-0.118562,0.0216898
-0.0241933,-0.00860977
0.102782,-0.0204112
0.146533,-0.00591127
0.13184,-0.0109607
0.0587566,-0.0103988
-0.070295,-0.0066187
-0.160886,-0.0250446
-0.13861,-0.0515542
-0.0515097,-0.00788257
0.0363874,0.021466
0.0826017,0.011757
0.101417,0.0183437
0.0797039,0.0141083
0.0685204,0.00726379
0.103043,0.0121905
0.147549,0.00803528
0.108627,-0.00303144
-0.024673,-0.00627227
-0.0998206,0.0135863
-0.061332,0.0191237
-0.0395265,0.01011
-0.0307314,0.0017782
-0.0953815,-0.00378659
-0.154454,-0.00379274
-0.0837977,-0.00720025
-0.00748444,-0.00978169
0.0135523,-0.00451439
0.0284272,0.00370147
0.0449735,0.00989488
0.0538705,0.0208931
0.0450438,0.0218182
0.0156323,0.0256056
-0.00396984,-0.00391609
-0.000615345,-0.0429964
0.0589213,-0.0374064
0.109832,-0.0213228
0.0639572,-0.0149876
-0.0189653,-0.0202915
-0.0744713,-0.00492789
-0.0842856,0.00193791
-0.0174312,-0.000101876
0.0218484,-0.00196646
0.00206013,-0.000213894
0.00497207,-0.000603047
-0.00779466,-0.000709225
-0.00808897,0.0123661
9.68e-05,0.013431
0.0224196,0.00245115
-0.000156493,-0.00187518
-0.047251,0.0021297
-0.0268439,0.00243171
