Comp Ch 3,Comp Ch 4
0.111645,-0.0725036
0.168288,-0.0184122
0.202927,0.00199457
0.206926,-0.000355958
0.150388,0.0101399
0.116859,-0.00668271
0.0811571,0.000171192
-0.0372423,0.00932547
0.0177584,0.0182022
0.267268,0.0184889
0.166369,0.0156557
-0.16088,0.0141023
-0.426333,0.0133416
-0.349164,0.00926771
-0.1274,-0.00584957
-0.0908772,-0.0181326
-0.0543712,-0.0116365
0.0630056,-0.0253568
0.241074,-0.0405669
0.238341,-0.0448351
0.0616515,-0.047903
0.00561999,-0.0471559
0.326359,-0.0831348
0.432053,-0.0560093
0.215884,0.0167677
-0.230037,0.0433128
-0.832566,0.061682
-0.612025,0.0584219
-0.232243,0.055174
-0.131467,0.0529934
-0.0468741,0.0532611
0.0334349,0.0360933
0.169865,-0.00229072
0.387405,-0.0190869
0.364038,0.00723209
0.0555528,0.018699
-0.307441,0.00737038
-0.0429386,0.00396902
0.343735,0.00361029
0.311697,0.0101779
0.112707,0.0124889
-0.214132,0.00596945
-0.380737,0.00439948
-0.212666,0.00325317
-0.0274094,0.0126546
0.184995,0.023351
0.202762,0.0112987
0.118962,-0.0009905
0.0713703,-0.00389859
-0.0262079,-0.00293762
-0.0855664,-0.00207243
-0.129626,-0.0049485
-0.114267,-0.0207966
-0.027653,-0.028652
0.00723177,-0.0270255
0.199763,-0.035685
0.317831,-0.0199874
0.230652,0.00436481
-0.0724302,0.00406451
-0.170882,0.00693853
-0.143662,0.00279704
-0.283918,0.00551019
-0.248293,0.0115187
-0.155137,0.0102273
-0.0344454,0.00890202
0.0236266,0.00750266
0.0328311,-0.000955826
0.0705381,-1.9e-05
0.0616024,0.0177264
0.0665209,0.0283817
-0.0661333,0.0222816
-0.193268,0.0262593
-0.101673,0.0190272
0.0844806,0.00172593
0.328388,-0.0188523
0.528858,-0.0251727
0.444074,-0.0239971
-0.0855967,-0.0216329
-0.300269,-0.0210687
-0.14223,-0.0104616
0.251703,-0.0102714
0.448383,-0.0189864
0.0183146,-0.0127766
-0.519692,-0.00510043
-0.591706,-0.0140149
-0.126257,-0.0194507
0.172375,-0.0174627
0.129717,-0.00360518
-0.10219,0.0151918
-0.233697,0.021092
-0.193272,-0.00474901
-0.10162,-0.0199146
0.00145285,-0.0205879
0.0132995,-0.0064367
0.0560711,0.0089431
0.0900294,-0.0069185
0.100377,0.00917925
0.0834248,-0.0137777
0.0012143,-0.0424481
-0.0549083,0.0095319
-0.104759,0.0276896
-0.0737868,0.0187119
0.0869762,0.00640335
0.248572,0.00368802
0.28171,0.00687532
0.149155,0.0036165
-0.00154832,-0.00527682
-0.113679,-0.00547869
0.039852,-0.00418219
0.375866,0.0087308
0.790975,0.00938032
0.847904,-0.006442
0.177658,0.000264359
-0.46575,0.00279185
-0.687882,0.0116616
-0.737593,0.0378513
-0.528137,0.0275415
-0.443504,-0.00410324
-0.269088,-0.0219896
-0.0402658,0.00173765
-0.0343444,0.0128537
-0.11323,-0.0491288
-0.165492,-0.00875384
-0.112725,0.0266132
-0.0291778,0.0223643
0.0566528,0.0348642
0.116945,0.0357801
0.0699857,0.0102772
0.0459192,-0.014834
0.132705,-0.022316
0.190819,-0.0209636
0.127853,-0.00406556
0.0778643,-0.00621373
0.133479,-0.024612
0.240009,-0.0539831
0.276242,-0.0159669
0.248496,0.0390043
0.142836,0.000427857
-0.0514011,0.0112209
-0.0947375,0.0242026
0.118197,0.0125764
0.185826,0.00840219
0.0936477,-0.0136329
-0.0991309,-0.0429488
-0.27712,0.00655241
-0.352063,0.0255239
-0.230904,0.0122326
-0.0774076,-0.0168403
-0.0798736,-0.0478327
-0.0862867,0.018373
-0.0872014,0.0366633
0.00882542,0.0305842
0.158049,0.0207783
0.366158,0.00887825
0.354535,0.0135683
0.0283424,0.0153894
-0.251359,0.0105577
-0.0716207,0.00514111
-0.0543653,0.000438035
-0.244686,-0.00226618
-0.236027,-0.00420615
0.0729788,-0.036568
0.293997,-0.058015
0.130526,-0.0419785
-0.0799168,0.0148716
-0.196523,0.0257553
-0.19766,0.0028233
-0.050019,-0.00362001
0.0149875,-0.00248363
0.0329287,0.00699692
0.0209257,0.00672272
-0.0582317,-0.0120653
-0.0456773,0.0197741
0.0647244,0.0203758
0.120221,5.03e-06
0.0831926,-0.00783952
0.0820194,0.0032559
0.147658,-0.00782098
0.0920879,-0.00816977
-0.100668,-0.0066325
-0.24745,-0.00869163
-0.0387586,-0.000947182
0.238267,0.00231381
0.354565,0.000556675
0.253613,-0.00421872
-0.127669,-0.00616356
-0.354283,-0.0190917
-0.159161,-0.0265199
0.0633618,0.0215152
0.0447393,0.0226581
-0.0952394,-0.00608405
-0.060081,-0.00969617
-0.191296,-0.00852684
-0.268049,-0.00780211
-0.0740873,0.00249702
0.154775,0.00728873
0.213723,0.0225538
0.107046,0.0175735
0.0633583,0.00372077
0.134516,-0.000494068
0.194985,-0.00764415
0.256456,-0.0126442
0.097346,-0.000654267
-0.0624003,0.00779949
-0.122322,0.00554114
-0.235132,0.0180907
-0.323915,0.0219467
-0.226329,-0.00398601
0.0050183,-0.0257765
0.0304386,-0.0205434
-0.0346285,-0.00839726
-0.0615703,-0.00442989
-0.0372226,0.00698154
0.0403349,0.0126438
0.0996455,0.00977624
0.112742,-0.00189928
0.151121,-0.0148286
0.169651,-0.0134954
0.0578868,-0.0072888
-0.083617,-0.00386942
-0.0701201,-0.00117464
-0.0319589,0.0191405
0.060209,0.00810478
0.0531105,-0.00906415
-0.0241737,-0.0453049
-0.12535,-0.0607766
-0.18399,-0.0109529
-0.07841,0.0415063
0.068581,0.0151087
0.162643,0.0114993
0.195939,0.0270795
0.167829,0.0248055
0.0862235,0.0279261
0.0205867,-0.00822028
-0.0477584,-0.037082
-0.116998,0.0220423
-0.16118,0.0212128
-0.240945,0.0272217
-0.202157,0.0209282
-0.104546,0.0059382
0.0652488,-0.00729194
0.264314,-0.0197898
0.301881,-0.0222389
0.0749178,-0.0174637
-0.294507,-0.00987893
-0.22158,-0.0101945
-0.0493069,0.0106296
0.0364739,0.0284615
0.192989,0.0211639
0.292951,0.000367777
0.224684,-0.00537299
0.0274062,-0.00233429
-0.178472,-0.00870645
-0.195953,-0.00829237
-0.305124,-0.00029885
-0.212201,0.00019646
-0.0336982,-0.0107666
0.0274286,-0.0183105
0.0559293,-0.0202548
0.117631,-0.0079246
0.191203,0.00537423
0.225334,0.0148368
0.138181,0.0213512
-0.168785,0.00929357
-0.110369,-0.00380673
0.129959,-0.0217853
0.352149,-0.00772486
0.311248,0.00938102
-0.111726,0.0140124
-0.537004,0.0200928
-0.511715,0.0151476
-0.26171,0.00605911
-0.128847,0.000668982
-0.0053999,-0.0155259
0.101621,-0.022381
0.1768,-0.00761993
0.174752,-0.0175345
0.112427,-0.0394174
0.0852452,-0.0147946
0.0880773,0.03017
0.0239405,0.0237292
0.0152926,0.0121703
0.00292699,0.00645396
-0.0695393,0.00725153
-0.054872,-0.00413909
0.0233312,-0.00987858
-0.0580363,-0.0107519
-0.0937286,-0.00878791
-0.0137542,0.0087583
0.0388625,0.00184771
0.0513223,-0.00739454
0.0575344,-0.0105416
0.0677702,0.00649747
-0.00506331,0.0204292
-0.0631563,0.0129182
-0.07328,0.00663104
-0.0495993,0.0134857
0.0622773,0.0202784
0.132868,-0.00876558
0.130167,-0.0244085
0.0705752,-0.00621617
-0.0253535,0.00335012
0.0360039,0.00859747
0.195785,0.00919381
0.196376,-0.00396389
-0.0451496,-0.0124503
-0.272321,0.00284649
-0.0988714,-0.00328991
0.0229875,-0.0827339
-0.0542224,-0.0525251
-0.148745,0.0500808
-0.109337,0.0393574
-0.00530319,0.0357633
0.0098842,0.0248859
-0.0201197,-0.00422864
-0.00765491,-0.0202229
0.0489359,-0.0187949
0.0865598,-0.0188166
0.0797482,-0.0140821
0.0583493,0.0192961
-0.0577024,0.0153113
-0.147406,0.0141837
-0.110349,0.0195312
-0.064497,-0.0134704
-0.00404014,0.00426155
0.0182396,0.0124652
-0.0202421,0.00466648
-0.0592475,0.00446509
-0.028449,0.011268
0.101025,0.00803818
0.171502,-0.000382295
0.0888548,-0.00311628
-0.0979672,-0.0196192
-0.235582,-0.0339504
-0.0805629,-0.0137865
0.217508,-4.32e-05
0.490658,0.0060061
0.5052,-0.00015273
0.185599,-0.013896
-0.305257,-0.00242967
-0.269554,0.0241728
-0.0271979,0.0137245
0.161871,-0.0177013
-0.0730727,-0.00146839
-0.361145,0.0291485
-0.363884,0.0300706
-0.23369,0.0218141
0.032026,0.00518777
0.0846743,0.000518991
-0.0154042,0.00371961
-0.025143,-0.0184271
0.113116,-0.0324793
0.150065,-0.0204954
0.114149,0.0147917
0.0427305,0.0274799
0.0781582,0.00758221
-0.0400731,-0.0412069
-0.295327,-0.0812938
-0.230006,-0.0386963
0.0167496,-0.00628877
0.310384,0.0347802
0.323165,0.0203966
0.153369,-0.0242525
-0.163367,-0.00217881
-0.310281,0.0261129
-0.221299,0.00969054
-0.135646,-0.0095255
-0.0524036,0.00306718
-0.0200219,0.0141561
-0.0094971,0.0243047
-0.000424447,0.041517
0.059159,0.0177506
0.206668,-0.0206204
0.207992,-0.0234305
0.0804012,-0.00573184
-0.0760771,0.00651506
-0.143577,0.0109082
0.0145847,0.00684095
0.341507,0.00200733
0.58247,-0.00288916
0.540096,-0.0129276
0.0981272,-0.0199863
-0.380352,-0.00904425
-0.578036,-0.00953778
-0.470859,-0.0405259
-0.166339,-9.09e-05
-0.0446715,0.0416886
0.0192519,0.0278989
0.0708067,0.0167511
0.0387376,0.0097687
-0.047791,0.00052181
-0.0707274,-0.00161195
-0.049855,-0.00640757
-0.0260322,-0.0190776
0.00163199,-0.00609448
0.0216843,0.0165467
0.0196721,0.0202757
0.00745562,-0.0104561
0.0153153,-0.0260812
0.0922414,-0.030283
0.227673,0.0214538
0.245954,0.0534023
0.0701884,0.0135179
-0.148452,-0.0109049
-0.100419,-0.00287471
-0.0117255,0.000611192
-0.0777973,-0.00228515
-0.0474713,-0.0114108
0.117263,-0.0103642
0.240592,0.00445284
0.294792,-0.00966895
0.121667,-0.0187058
-0.27804,-0.0263895
-0.430882,0.0231323
-0.174347,0.0751968
0.102383,0.0362264
0.0435766,-0.025096
-0.206817,-0.0487795
-0.142257,-0.0928159
0.140127,-0.0876908
0.394106,0.0315147
0.452749,0.0546705
0.169862,0.0421111
-0.326525,0.0285454
-0.414159,0.0190935
-0.307956,0.00572014
-0.143306,-0.00537513
-0.00997625,-0.0109018
0.000772682,-0.00308311
-0.0509566,0.00446522
0.04035,0.0176412
0.100619,0.0122222
0.0944241,0.00339659
0.0728994,-0.0539602
0.00342423,-0.063109
-0.0942871,0.0181559
-0.103788,0.0508283
-0.0344092,0.0462224
0.044938,0.0263229
0.10849,0.0352519
0.075286,0.0233154
0.024333,-0.00686818
-0.0250182,-0.0440231
0.0204191,-0.0428119
0.154338,-0.0341816
0.227038,-0.0143342
0.148734,0.0135037
-0.0522895,0.0190191
-0.160542,0.00173441
-0.210272,-0.0322679
-0.014078,0.00661837
0.25928,0.0118134
0.221578,-0.0148197
-0.0804215,-0.0297241
-0.317934,-0.017705
-0.277138,0.0585042
-0.0614857,0.0547624
0.214266,-0.00672517
0.216974,-0.030634
0.0833481,-0.0354947
-0.0895982,-0.0110054
-0.157915,0.0295006
-0.035717,0.0255754
0.0504534,-0.0282584
-0.0128889,-0.0871361
-0.0763487,-0.0331059
-0.142898,0.00989201
-0.034988,0.03404
0.0533832,0.0359955
0.0486635,0.0158524
0.043105,-0.00803743
-0.0474515,-0.00480137
-0.119659,0.00477147
-0.0326823,-0.00340285
0.0291466,0.0343414
-0.00910645,0.0499757
-0.0362043,0.0153885
-0.0186786,-0.0210922
0.0250949,-0.0309162
0.0775209,-0.0209237
0.096026,0.0080126
0.0993377,0.0218302
0.0825254,-0.000500212
0.166285,-0.0125198
0.305333,-0.0128233
0.333013,-0.00932542
0.233841,0.00848244
-0.0166683,0.0200331
-0.298181,0.00823621
-0.350099,0.00929228
-0.406114,0.00627102
-0.379029,0.0142005
-0.184109,-0.02505
-0.0452291,-0.0323361
0.0491333,0.0229572
0.126469,0.00895321
0.260242,-0.0157686
0.332671,-0.00518375
0.0994052,-0.000279871
-0.179082,-0.00302141
-0.262492,0.00427441
-0.245295,0.0214906
-0.0885644,-0.0219905
0.0214907,-0.0315654
0.111265,0.0200717
0.214551,-0.0188661
0.356808,0.00546869
0.414707,-0.0155889
0.339178,0.00483993
0.1244,0.0298835
-0.17334,-0.0025826
-0.353209,-0.0010986
-0.324241,-0.00460097
-0.331034,0.0102837
-0.312346,-0.0130601
-0.179572,-0.0696112
-0.0447069,0.00546403
0.0449944,0.0656591
0.0590468,0.0244978
0.0291979,-0.0205517
0.0247091,-0.0280205
0.0768528,0.0329964
0.120659,0.034497
0.0986999,-0.0124172
0.0312155,-0.0355932
-0.00653679,0.00298062
0.0495511,0.0160694
0.080919,-0.0163917
0.0351212,-0.0169597
-0.0238399,-0.0163938
-0.0561403,0.0116549
-0.0137892,0.0417926
0.130383,0.023375
0.205136,0.000464265
0.203274,0.0345672
0.1551,0.0254377
0.156605,-0.0139869
0.0293561,-0.0237546
-0.299145,0.0165496
-0.40546,0.0391149
-0.117064,0.0139882
0.0695742,-0.0675093
0.185631,-0.0542558
0.291777,0.0175752
0.0981774,0.00211164
-0.224112,-0.0539635
-0.377146,-0.0244496
-0.279762,0.00842065
-0.0367434,-0.0205011
-0.0722609,0.000290043
-0.10332,0.0718403
0.0590001,0.055587
0.0782888,0.00781085
0.0237404,-0.0549839
0.05244,-0.0138051
0.0835498,-0.00920602
0.0856196,-2.31e-05
0.0793377,0.00678999
-0.0980506,0.00312528
-0.225679,0.00735818
-0.121429,0.0161669
0.0219226,0.0264436
0.0331723,0.0167647
0.0190688,-0.00575166
0.0746681,-0.00821838
0.205569,-0.00782625
0.435927,-0.0200016
0.479311,-0.0312941
0.220578,-0.0361071
-0.0378428,-0.0207041
-0.143247,0.0315279
-0.237211,0.0317598
-0.335396,-0.0103549
-0.285999,-0.0114266
-0.160733,-0.00866123
-0.0457892,-0.0206681
0.0343888,-0.0103614
-0.0486457,-0.00131123
-0.0762078,0.00441691
-0.0239846,0.0110477
0.00463649,0.0072691
-0.0258114,-0.00372455
-0.0470664,-0.0214413
-0.0302551,0.00742548
-0.0055245,0.027616
-0.0119229,0.0575002
-0.0311725,0.048918
0.0115663,-0.0296603
0.154556,-0.0415167
0.31419,0.000263044
0.306299,-0.0143263
0.0918341,0.00124624
-0.174322,0.030926
-0.156599,0.0412947
0.0466701,-0.0251278
0.0898798,-0.0627102
0.09818,-0.0786196
-0.00464552,-0.0186998
-0.15064,0.0645483
-0.236392,0.0934353
-0.170013,0.0514399
-0.0474587,0.0241113
0.172372,-0.0197927
0.532718,-0.0712535
0.66178,-0.0557226
0.234552,-0.000851516
-0.338045,0.0309368
-0.507088,0.0316095
-0.294872,0.0410175
-0.12234,-0.00834955
-0.137183,-0.0584593
-0.0599249,-0.0477792
-0.0918559,0.00399865
-0.0972806,0.0708013
-0.0282511,0.035043
-0.0438698,-0.0531314
-0.135102,-0.0471317
-0.0536574,-0.0391303
0.0929986,-0.0265689
0.186266,0.0256902
0.287016,0.0221987
0.2155,0.0294476
0.0603108,0.0555081
-0.109513,0.057228
-0.232135,0.0240345
-0.227205,0.000107298
-0.0319823,-0.016518
0.409126,-0.0611375
0.694015,-0.0469322
0.528659,-0.000775257
-0.130304,0.0198413
-0.767715,0.0413294
-0.629482,0.0253211
-0.239002,-0.0107285
-0.0730888,-0.0216054
-0.00370264,-0.0145403
0.0293543,-0.0118367
0.117144,-0.00724847
0.215225,-0.0277581
0.231756,-0.0422022
0.201864,-0.0299296
0.0500403,-0.0710289
-0.0660808,-0.0940974
-0.0171289,0.0847715
-0.0165443,0.153511
-0.0600379,0.0878855
-0.0592575,0.0532082
-0.0311724,-0.000582315
-0.0222556,-0.0409108
-0.000761662,-0.0381228
-0.0248007,-0.0235219
-0.036045,-0.00677463
-0.0683574,-0.00468385
-0.111098,0.00920047
-0.0544522,0.00199072
0.0315152,-0.00326349
0.136958,0.00723059
0.192021,0.00309291
0.134563,0.00104286
-0.0434443,0.0222768
-0.184588,-0.00172724
-0.103734,-0.0238898
-0.0857527,0.0335656
-0.0559043,0.0327843
0.0174732,-0.0161446
0.0469124,-0.0307511
0.0279772,0.00337227
0.0684739,0.0136445
0.247371,-0.0231679
0.362817,-0.0522822
0.250261,-0.00998482
-0.0168123,0.0264665
-0.354337,0.0206159
-0.414443,-0.00395845
-0.154102,-0.0527053
-0.00680245,-0.0676284
-0.000103519,-0.0504572
0.101612,-0.0083079
0.12726,0.0567474
-0.0314516,0.0739839
-0.0870625,0.0578432
0.0433398,0.052412
0.107214,-0.0317835
0.103817,-0.095369
0.0982473,-0.0256703
-0.0608876,0.00391718
-0.213708,0.00754017
-0.34413,0.0438507
-0.274186,0.0341269
0.0376812,0.0175764
0.376185,-0.0477055
0.539661,-0.0458844
0.35246,0.00900187
0.0190963,0.0447952
0.147924,0.0229225
0.306969,-0.0657538
0.0873394,-0.0419258
-0.258843,0.0412205
-0.535356,0.0533593
-0.555065,0.00505923
-0.404751,0.0149626
-0.214792,0.0199831
0.012298,0.00363687
0.139806,-0.0119934
0.0419977,-0.0123748
-0.0715809,0.01018
0.0868982,0.0406413
0.223112,0.039765
0.204848,0.00948368
0.0912206,-0.0212192
-0.21243,-0.0177954
-0.260653,-0.000753373
-0.0799746,0.0209316
0.0716915,0.0282838
0.140625,0.0126537
0.156116,-0.0374433
0.149364,-0.0837406
0.0774164,-0.0668361
-0.0465692,-0.0203007
-0.159644,-0.0074839
-0.00975505,-0.0251825
0.369484,-0.0443251
0.466623,-0.0014877
0.152982,0.032475
-0.302087,0.0492668
-0.478153,0.0506104
-0.23845,0.0302931
0.142786,-0.0194822
0.23799,-0.0356247
0.0864371,0.0168715
-0.243306,0.0243025
-0.385563,0.0238652
-0.205621,0.0130016
-0.0464816,-0.019589
0.168048,-0.0587761
0.45919,-0.03971
0.610441,0.00180125
0.283708,0.0419255
-0.0262974,0.0560022
0.157722,0.0611585
0.261793,0.0560193
0.0922899,0.0327665
-0.481888,0.0166009
-0.84755,0.0228899
-0.544529,0.0115028
-0.290018,-0.104851
-0.106087,-0.140558
-0.0218651,-0.0834868
0.10321,-0.0829026
0.116703,-0.0480082
-0.0401494,-0.0243385
-0.1613,0.025691
-0.14514,0.0562513
0.191398,0.0522491
0.518123,0.0287126
0.573157,0.0396295
0.53624,0.0807711
0.454684,0.0719861
0.238285,-0.0270261
-0.291743,-0.0817349
-0.605774,-0.0535615
-0.222909,-0.0738091
0.284281,-0.0283168
0.452462,0.0481226
0.274701,0.067128
0.00632904,0.0434295
-0.455677,-0.0102602
-0.427908,-0.0585285
-0.112256,-0.00261042
-0.344113,0.0801025
-0.732713,0.136804
-0.656908,0.190249
-0.210101,0.222432
-0.0456838,0.13919
-0.0851447,0.0299197
0.0390592,-0.144734
0.173516,-0.340293
0.234599,-0.388201
0.277435,-0.186062
0.358484,0.00575665
0.439289,0.0587137
0.424943,0.0939733
0.232224,0.153371
-0.0370021,0.0975908
-0.155521,-0.037805
-0.205234,-0.116554
-0.217358,-0.101859
-0.0654951,-0.0535233
-1.36e-06,0.0274484
-0.0466577,0.111056
-0.115329,0.099617
-0.0678132,0.0580345
0.153374,0.0237322
0.440772,-0.0489267
0.492977,-0.107125
0.263588,-0.0685846
-0.115493,-0.0610941
-0.353358,0.02108
-0.0122453,0.0902542
0.273731,0.00386531
0.206033,-0.0862713
-0.00371757,-0.0663285
-0.224703,-0.00909423
-0.363462,0.113194
-0.325608,0.0820235
-0.261587,0.0648652
-0.242773,0.0172987
-0.262863,0.0173326
-0.194172,0.067245
-0.0764915,0.0656519
0.13341,0.091621
0.410575,0.0715369
0.580424,-0.0498032
0.440359,-0.138937
-0.0740076,-0.0723582
-0.456201,0.0207214
-0.449742,0.0172995
-0.403367,0.0261214
-0.208942,0.0335249
0.179001,0.0274702
0.476295,-0.0349183
0.648291,-0.00340837
0.542038,-0.0214343
1.24896,-0.138234
2.14903,-0.250694
1.93768,-0.216809
0.204752,-0.0216173
-2.70066,0.144336
-3.18584,0.107194
-1.52201,0.139162
-0.593242,0.149548
-0.11723,0.0849131
0.42701,0.0213365
0.510491,-0.0253224
0.0185235,0.0159584
-0.548948,0.00827657
-0.442358,-0.0473893
-0.0308846,-0.106313
0.0623017,-0.102668
-0.0614878,0.00823831
-0.122363,0.0505094
-0.0674015,0.0432519
0.099625,-0.0127075
0.345084,-0.0230874
0.540874,-0.0212303
0.546194,0.0116556
0.413586,-0.0216005
0.366635,-0.0687761
0.214272,0.0637661
0.12688,0.303498
0.134007,0.254019
0.0320145,0.0834603
-0.264853,-0.0433473
-0.324022,-0.193383
-0.12716,-0.280341
-0.119982,-0.186402
-0.115549,-0.0592755
0.119552,0.0187055
0.447611,0.00539085
0.474683,-0.0168364
0.226266,-0.011167
-0.123506,0.0136008
-0.483852,0.0572081
-0.491675,0.0832787
-0.264167,0.0658703
0.0805861,0.000721572
0.303015,0.00460104
0.150481,-0.0117168
-0.0593476,-0.0335226
-0.138833,0.0577549
0.0968412,0.121209
0.31659,0.132362
0.0678321,0.0655259
-0.345203,-0.0603734
-0.393424,-0.18814
-0.282901,-0.236204
-0.182958,-0.206807
-0.22322,-0.093958
0.114928,0.0221761
0.649477,0.0956857
0.762398,0.122724
0.463823,0.0878787
0.304933,0.0175683
0.0705517,-0.0378113
-0.371299,-0.0284359
-0.515746,-0.0223932
-0.586032,0.0214146
-0.567625,0.0540738
-0.212576,0.0506694
0.370441,-0.0340074
0.675199,-0.0177989
0.546274,0.0747104
0.0777619,0.0989818
-0.427649,0.0777771
-0.869919,0.0808445
-0.572856,-0.0105041
-0.214624,-0.0505845
-0.0555423,0.0211272
0.178595,0.0111809
0.327485,-0.0378807
0.350373,-0.0825366
0.241422,-0.141851
0.146185,-0.0850576
0.452939,-0.0165825
0.644509,-0.0109261
0.311216,0.0236555
-0.554492,0.0950123
-1.01313,0.135096
-0.624906,0.0901027
-0.175181,0.0207945
0.186512,-0.0415243
0.431528,-0.0766555
0.422662,-0.0497578
0.324868,-0.0794302
-0.0126111,-0.0614517
-0.203141,0.145239
-0.0865851,0.0915077
-0.0681431,-0.0490579
-0.138115,-0.0851783
-0.173327,-0.0748166
-0.153263,-0.0302344
-0.0989,-0.0150967
-0.050755,-0.0237158
-0.0119789,-0.0106344
-0.00714462,0.0407739
0.0246762,0.0546967
0.0910828,-0.0185927
0.0729475,-0.0137369
0.136979,0.0233868
0.182778,0.0362354
0.251231,0.019754
0.465507,0.0150075
0.731426,0.021263
0.674653,0.0107154
0.18716,-0.0159202
-0.289428,-0.0622005
-0.664602,-0.0139378
-0.746737,0.0123556
-0.664666,0.00259698
-0.363393,0.0330176
0.15485,0.0531296
0.207053,0.0321865
-0.0512417,0.0377427
-0.37013,0.0518282
-0.228959,0.0431864
-0.00599315,0.0256846
0.0529385,0.036933
0.155059,-0.00255458
0.320365,-0.0689742
0.245785,-0.129352
-0.0661077,-0.155608
-0.167457,-0.0817966
-0.128948,0.0193627
-0.0941928,0.0522758
0.0142832,-0.0536411
0.094224,-0.11122
0.151602,0.0212169
0.194125,0.200578
0.208753,0.277478
0.259125,0.168061
0.149736,0.021948
0.00962724,-0.114614
-0.00974973,-0.16519
0.081189,-0.154821
-0.0481663,-0.0922801
-0.166525,-0.00383369
-0.199231,0.047261
-0.231031,0.035729
-0.204525,-0.0227845
-0.21424,-0.0205563
-0.125314,-0.0434483
0.00582735,-0.0617098
0.0555894,-0.0334713
-0.0124042,0.000249239
-0.0679369,-0.00622397
-0.0363524,-0.0115849
0.130882,0.00773883
0.249939,0.0287683
0.153143,0.0460305
0.0301253,0.0662444
0.0737238,0.0518093
0.310017,0.0317268
0.537824,0.0140163
0.278473,-0.00918591
-0.208261,0.00868731
-0.554636,0.0322792
-0.478269,0.0271396
-0.206495,0.00475956
-0.0639198,-0.00787116
-0.020781,0.0296028
-0.0347399,0.0383891
-0.0344542,-0.0162212
-0.0172934,-0.0633839
0.00540688,0.0203744
0.0348609,0.00724221
0.0244564,-0.0218149
0.16906,-0.0193778
0.353572,-0.000871329
0.332687,0.0132992
0.0465811,-0.00609449
-0.257276,-0.0678067
-0.163137,-0.0982
-0.0818349,-0.0668393
-0.0395869,0.0743926
0.0130633,0.175393
0.325404,0.110892
0.694948,-0.0122197
0.488201,-0.0985099
-0.0933422,-0.116495
-0.627274,-0.0610911
-0.585926,-0.00338781
-0.358446,0.0576164
-0.269991,0.129406
-0.153629,0.0507141
-0.0629097,-0.00750975
-0.0881299,0.00339285
-0.0223729,-0.0301999
0.104849,-0.135578
0.126861,-0.161086
0.0247064,-0.0240542
-0.0540704,0.00600736
0.0789881,0.0406008
0.218192,0.0545236
0.206384,0.0473568
0.109687,0.0373425
-0.0112047,0.015512
-0.0436092,0.0016088
0.0665896,-0.000222088
0.167012,0.0137429
-0.01717,0.0264689
-0.16046,0.0236913
-0.0753209,0.00433622
-0.0506987,-0.0278178
-0.0593749,-0.0268255
-0.0401468,-0.00496529
-0.041161,-0.00159044
0.0370038,-0.00768672
0.235612,-0.00458668
0.409062,-0.000877973
0.353405,0.00221852
-0.0266764,0.0189651
-0.460664,0.0375287
-0.514974,0.0506066
-0.158964,0.0598524
0.123071,0.0282781
0.096822,-0.0350096
-0.00636575,-0.0425113
-0.10886,-0.00138221
-0.158082,0.0286203
-0.0715056,0.0351923
0.123812,0.0197918
0.168464,-0.0316147
0.124954,-0.08389
0.133065,-0.0492964
0.0784387,-0.036384
-0.0235876,-0.00698488
-0.14584,-0.0297906
-0.105993,-0.0607114
0.0334555,-0.00573093
0.153605,0.0337097
0.204171,0.00267368
0.0932819,-0.0235766
-0.114112,-0.0401746
-0.180941,0.00300398
-0.107906,0.00278688
-0.0311697,0.00685766
-0.0480417,0.0453502
-0.0750443,0.0628401
-0.0527614,0.0436677
0.0480114,0.0146109
0.180127,-0.000578457
0.207806,-0.0202862
0.157214,-0.00570351
0.0538133,0.0360255
0.0571787,0.0354711
0.00688267,0.000440598
-0.282399,-0.0404957
-0.351749,-0.0375987
-0.157584,-0.0198919
-0.0188799,-0.0122684
0.0337765,0.0034003
0.083929,0.0289705
0.160574,0.0136762
0.174963,0.000639128
0.0695129,0.00428734
-0.0742986,0.0239138
-0.177847,0.0258307
-0.0946733,-0.0416593
-0.0124034,-0.0300897
0.0298486,0.00616066
0.00912397,0.0125523
-0.0618012,-0.0287599
-0.083338,0.00238424
-0.0390498,0.026603
0.0490745,0.0149969
0.192835,0.00225315
0.31763,-0.00616515
0.262023,-0.00531606
-0.00168433,0.00634501
-0.21515,-0.0694641
-0.0943559,-0.054946
-0.0109761,0.0291791
-0.02443,0.0401661
-0.0224564,0.033748
0.0148446,0.0172107
-0.077561,0.0113084
-0.196126,0.0120996
-0.0267528,-0.036927
0.265478,-0.0845577
0.311578,-0.0597629
0.0663298,0.0327755
-0.287694,0.0546013
-0.364401,0.0222584
-0.163543,0.0303082
0.0173216,0.0274279
0.0447993,0.0065946
-0.0116866,-0.00811928
-0.0268299,0.000106546
-0.0186958,-0.000101951
-0.0279102,0.0117169
0.00646135,-0.0094227
0.0412373,-0.0292329
0.0716171,0.00990242
0.116526,0.0367492
0.103203,0.0073808
-0.00156293,-0.000321436
-0.121157,0.0329344
-0.13428,0.0455169
-0.0644245,0.0153421
-0.0197475,-0.000563518
0.00324459,-0.00405936
0.0909829,-0.02714
0.210594,-0.0711431
0.28822,-0.045759
0.233519,0.0069506
0.0425101,0.045389
-0.0523257,0.0112361
0.0133183,-0.0394826
0.199181,-0.0196482
0.060486,-0.0571531
-0.225897,-0.141763
-0.346161,-0.000282809
-0.254296,0.110539
-0.106088,0.0869285
-0.015412,0.0040333
-0.0291872,-0.0481629
-0.105288,-0.0403392
-0.0308605,-0.0247183
0.142873,-0.0174977
0.200681,-0.00198611
0.180203,0.0249799
0.130188,0.0334741
-0.07634,0.0325314
-0.215205,0.0223248
-0.259323,-0.00371475
-0.196509,0.014499
-0.0796819,0.0127912
-0.0131948,0.00452681
0.0321991,0.00972826
0.0606482,0.0105941
0.0825173,0.0105802
0.0972423,-0.0105989
0.10105,-0.00827234
0.127644,-0.0170147
0.182007,-0.000563227
0.167446,0.011985
0.0673399,0.0113554
-0.118064,0.01883
-0.202818,0.0446743
-0.0668904,0.0406933
0.0373019,0.00373588
0.0430964,-0.0126373
-0.0271755,-0.0262325
-0.103874,-0.0337603
-0.0553928,-0.0298448
0.0761497,-0.0228469
0.310843,-0.00469591
0.330695,0.0310236
0.16128,0.0520825
-0.0586672,0.00943849
-0.258674,-0.00844516
-0.154089,-0.0429008
0.0349784,-0.0688089
0.192387,-0.0406646
0.141152,0.0114189
-0.0338266,0.0057504
-0.20404,-0.0454975
-0.316189,-0.0917132
-0.415662,-0.0166748
-0.392737,0.0767175
-0.192945,0.0250402
0.0286381,0.0129249
0.140262,-0.00439326
0.0162723,-0.0196238
-0.0430231,0.0190596
0.1367,0.0535724
0.44247,0.0534113
0.495342,0.025793
0.300367,-0.00252128
0.0254112,-0.0185631
-0.183229,-0.00791942
-0.0813341,0.0223971
-0.0258818,0.0313323
-0.224414,-0.00783583
-0.33729,-0.0610531
-0.158054,-0.0162518
-0.0508052,0.0687244
-0.0507763,0.0749967
-0.0816684,0.0142008
-0.0595587,-0.0284875
0.083103,-0.0586511
0.125051,-0.11648
0.0989395,-0.0637999
0.207568,-0.00161954
0.441522,0.0429078
0.42373,0.0417109
0.0521083,0.031313
-0.428388,-0.0148256
-0.476035,-0.0202908
-0.153823,0.00797136
0.0527531,0.000168823
0.155684,0.0052354
0.258944,0.0125539
0.246381,0.0119511
0.0848563,0.0110391
-0.121486,0.00936885
-0.295128,-0.00741768
-0.196881,-0.0109015
-0.0207124,0.0248926
0.060601,0.0723239
0.0867326,0.0432152
0.0261384,-0.0394272
-0.0392035,-0.0919542
-0.037857,-0.037337
-0.101164,0.0361602
-0.155311,0.0745395
-0.0899666,0.0209549
0.0113486,-0.0388745
0.069651,-0.0384801
0.0582062,-0.00487103
0.109866,0.00862823
0.184339,-0.00344386
0.176461,-0.0319264
0.0302637,-0.0283548
-0.140909,-0.00509175
-0.210118,0.00548978
-0.175193,0.00668111
-0.111713,0.00576904
-0.0647398,-0.000347655
-0.0121078,0.00598371
0.0344994,0.0132382
0.0592677,0.00639556
0.0593801,-0.0153451
0.0600819,-0.00990979
0.112946,-0.00932903
0.173767,-0.0308376
0.178355,-0.0208225
0.107269,0.0259169
-0.0293221,0.0500951
-0.115058,0.0597789
-0.0885172,0.0290864
-0.0989686,-0.0201117
0.0393347,-0.0267826
0.189527,-0.0172972
0.236185,-0.0120312
0.176224,-0.00995439
-0.118553,-0.00878929
-0.280479,0.00299891
-0.228434,-0.00616215
-0.099852,-0.0352688
0.0272407,0.0319662
0.0860175,0.0149548
-0.00268046,-0.0288131
-0.16726,6.87e-05
-0.105362,0.00537987
0.0417475,0.0212282
0.0541673,0.0165623
0.00109839,0.00326012
-0.116079,0.0109661
-0.144645,0.0241667
-0.106341,0.0240441
-0.090756,0.0170723
-0.0294578,0.00714347
6.47e-05,-0.0176855
0.0218379,-0.028731
0.037641,-0.0202113
0.0357127,0.00454393
0.173406,-0.00670116
0.414979,-0.0298529
0.497999,-0.0368946
0.386661,0.0139238
0.00566612,-0.0107608
-0.189183,-0.0467556
-0.169207,0.0142596
-0.200223,0.0702151
-0.0470568,0.0843584
-0.0854894,0.0461306
-0.215957,0.00352692
-0.044797,-0.0338801
0.126397,-0.0663516
0.0925525,-0.0449719
-0.182967,-0.0439859
-0.327634,-0.0142056
-0.173043,0.0429518
0.036476,0.0273497
0.15759,-0.00644233
0.2769,-0.0142862
0.210593,-0.0584151
-0.177267,-0.0566348
-0.291714,0.0291006
-0.19206,0.0816301
-0.059932,0.0524035
0.0144034,-0.00164757
-0.0243563,-0.0294199
-0.0375009,-0.0224007
-0.00735809,-0.0109903
0.0508035,0.0116694
0.11737,0.0316585
0.116993,0.0283165
0.0527681,0.0127483
0.0969373,0.0188899
0.144439,-0.0182611
0.150688,-0.0469929
0.115087,-0.0207003
0.0162183,-0.0116735
-0.0569811,3.5e-05
-0.159742,-0.0224419
-0.155562,-0.0348213
0.162271,0.00298057
0.341557,0.00357789
0.269843,-0.00162903
-0.0845015,-0.0159833
-0.408143,0.00590093
-0.286719,0.0585227
-0.178491,0.0938193
-0.128861,0.0699025
-0.0172513,0.0308667
0.0627418,0.00567307
0.0425223,-0.00538567
-0.0212299,-0.0444697
-0.0500203,-0.041315
-0.0388828,-0.0258104
0.114596,0.00272797
0.317867,0.0107485
0.273153,-0.00391242
0.0637922,-0.00409264
-0.18383,-0.0188029
-0.102637,-0.0122494
0.134822,0.000677544
0.185453,-0.0258195
0.107101,-0.0157216
-0.0557744,-0.0162852
-0.274426,-0.0327006
-0.228358,-0.0494522
-0.0774129,0.0115623
-0.041579,0.0499003
-0.0501763,0.0254265
-0.0156747,0.0018213
-0.00234394,-0.00375246
-0.0616518,-0.00643831
-0.0991208,-0.0528587
-0.0527244,-0.0162772
0.00519322,0.0162361
0.0619909,0.0235522
0.103424,0.0413323
0.100768,0.0328821
0.0568192,0.0221979
0.00925127,0.0067281
-0.0256765,0.0152913
0.0425807,0.015856
0.0805443,0.028538
0.0216569,0.0252927
0.0518347,0.00627936
0.179473,-0.0284742
0.2041,-0.039875
0.158581,-0.0495101
0.0806604,-0.0213423
0.00140746,0.0193263
-0.0351348,0.0115309
0.00588089,-0.00197751
0.022505,-0.005263
-0.0985202,-0.0290045
-0.366351,-0.0328863
-0.481849,-0.0181905
-0.232376,-6.54e-05
0.152976,0.00327795
0.225394,-0.00353305
0.0383049,0.0211678
-0.224996,0.0275466
-0.267271,0.0192184
-0.0542156,0.004774
0.0683266,0.0106864
0.129142,0.0347434
0.108583,0.0594638
0.0492841,0.0513607
-0.0301872,0.00736903
0.0559559,-0.0254543
0.251028,-0.0414616
0.240998,-0.0259578
0.0180368,-0.0161775
-0.144013,-0.0670718
-0.0654754,-0.0851674
-0.145395,0.00541219
-0.121119,0.0326487
0.0874243,-0.0077813
0.189703,-0.00225294
0.119837,0.00718023
-0.0861999,0.00135053
-0.0916738,0.0024214
-0.110414,-0.00322179
-0.168661,0.00130342
-0.0823506,0.0162043
-0.0938089,0.0252099
-0.0812652,-0.00876346
-0.0156471,0.0265985
0.00811317,0.0466141
0.124734,-0.0637632
0.341516,-0.0640485
0.56184,0.0292549
0.507686,0.0819455
0.102293,0.061338
-0.347115,-0.00582668
-0.518097,-0.0255926
-0.360022,-0.0338083
-0.192815,-0.0403512
-0.132315,-0.0324032
-0.0514727,-0.0304386
0.0189283,-0.00461765
0.0823977,0.00153445
0.170243,0.0198868
0.235635,0.000837218
0.20833,-0.0129768
0.16514,0.0348069
0.0760559,0.0156657
-0.0947756,0.00995333
-0.195426,0.0099188
-0.156516,0.0100525
-0.0559332,0.00393511
-0.0510088,-0.0311736
-0.0408319,-0.0527972
-0.0138874,0.0331845
-0.0289702,0.0328704
-0.0407347,0.00192218
-0.0108847,0.0057616
0.0353031,0.0232118
0.0506077,0.00133212
0.0222839,-0.0029979
-0.0174029,0.0182369
-0.0300661,0.00970728
0.0226844,-0.00210563
0.0946606,0.00276215
0.170193,0.00624026
0.178125,0.00669299
0.0958789,0.0121186
-0.0416158,0.0292341
-0.162435,0.037777
-0.122629,0.0278366
-0.0708669,-0.00253623
-0.0727625,-0.0266256
-0.0597776,-0.0357871
-0.0366024,-0.0343928
-0.0330189,-0.026681
-0.0469534,-0.0200527
-0.0754355,-0.0210548
-0.0723823,-0.0316141
-0.0287934,-0.0285425
0.0309528,0.000816068
0.0510951,0.0142696
0.0213195,0.00553917
-0.02126,0.00527594
-0.0289655,0.00263806
0.0994647,-0.0122273
0.397587,0.00633443
0.822786,0.011326
0.941166,-0.00276183
0.62555,0.010652
-0.162884,0.0202873
-1.00184,-0.0109247
-1.02482,0.0167855
-0.770053,-0.00265063
-0.410175,-0.0200364
-0.0683035,0.00948278
0.202965,-0.0128151
0.274401,-0.0548611
0.227532,-0.0791947
0.173021,-0.0228905
0.127881,0.0190051
0.0582085,0.021081
-0.10946,0.0455573
-0.436151,0.0467776
-0.397762,0.0118591
-0.0791193,0.00906661
0.18842,0.0393938
0.204957,0.0238066
0.14417,-0.0308156
0.0353629,-0.0420742
-0.0364499,0.00146509
0.0107301,0.0301335
0.0657116,0.0272548
0.0605913,-0.0109235
0.0735831,-0.02307
0.109158,0.00182877
0.12835,0.0110066
0.115466,-0.0118895
-0.0299839,-0.0220608
-0.162659,-0.00092455
-0.180804,0.0298919
-0.125841,0.0197873
-0.0882028,-0.00454558
0.0143645,0.00130107
0.0962136,0.00631507
0.101308,0.0257927
0.0275398,0.0478314
-0.0195694,-0.00541194
-0.0177598,-0.0566472
0.0101982,-0.0112764
0.0446879,-0.025799
0.0240621,-0.0182799
-0.0242504,0.0256939
-0.045689,0.0207745
0.064193,0.00443636
0.284271,0.0204651
0.401861,0.0440847
0.370405,0.0101574
0.326629,-0.0886832
0.127673,-0.0590499
-0.0913566,0.0309783
-0.282268,0.0243928
-0.399449,-0.0719002
-0.495662,-0.0614882
-0.41454,-0.0465365
-0.202868,0.00331604
-0.0488964,0.0510877
0.0164228,0.0366046
-0.00443145,0.012373
-0.0458372,0.0176717
-0.061945,0.0193213
0.0235612,0.0099879
0.218737,-0.0273732
0.279199,-0.0344414
0.179116,0.0452506
-0.0925232,0.0296749
-0.214434,0.0128344
0.0561248,-0.0201503
0.182234,-0.00548325
0.0497549,0.0165447
-0.137685,0.0170467
-0.158083,0.0245419
-0.0365675,0.0128769
0.0312848,0.00540516
0.0303289,0.0323653
0.0409914,0.0416996
0.13967,0.0234148
0.364132,-0.0163249
0.510017,-0.0262806
0.342379,-0.0433922
-0.125526,-0.0314506
-0.627042,-0.00706912
-0.641738,-0.00258328
-0.281274,-0.00350259
-0.0622538,-0.00476845
0.0752693,-0.00858414
0.155286,-0.00208731
0.0794939,-0.0291432
0.0159514,-0.0234595
0.0346775,0.00307256
0.0725677,-0.0262644
0.0516504,-0.0396656
0.0358447,0.00474392
-0.0219403,0.0209552
-0.102035,0.00611105
-0.117346,-0.0109238
-0.176268,0.0112039
-0.0986101,-0.00538783
0.0795886,-0.0188922
0.172702,0.00820091
0.183261,-0.000133806
0.144551,-0.00690777
0.147716,0.0183341
0.234686,0.0133374
0.15693,0.00689291
-0.100066,0.011266
-0.250812,0.0131883
-0.168113,-0.00472293
0.0893935,0.016448
0.203485,0.0882006
0.113644,0.0725473
-0.0342561,0.016426
-0.00573403,-0.0231051
0.00914322,-0.0222737
-0.221338,-0.0140216
-0.41889,-0.0194792
-0.331138,-0.0249011
-0.107197,-0.0225094
0.0403735,-0.0100361
0.108173,-0.0359498
0.133406,-0.0208934
0.126978,0.0114626
0.0647935,0.0203527
-0.0115002,0.0223124
-0.0476272,0.0284074
-0.0249109,0.0278807
-0.0363963,-0.0263497
-0.0410829,-0.0490443
-0.0254083,-0.0246715
-0.0599039,-0.00541501
-0.103516,0.00190828
-0.0228441,-0.0377946
0.0457135,-0.0166332
0.107942,0.0165998
0.155031,0.00869086
0.165554,0.0126222
0.261114,0.0182149
0.30157,0.0098613
0.449654,-0.00156218
0.596631,-0.0108935
0.598837,-0.00714455
0.302181,-0.015909
-0.309588,-0.0338423
-0.734949,0.00378612
-0.922482,0.0320248
-0.797618,0.0345888
-0.446617,0.0291053
-0.24563,0.0103938
-0.0975577,-0.0139451
0.0446933,-0.0229107
0.112249,-0.0334459
0.058008,-0.00811645
0.0342058,0.0227344
0.0555448,0.0293459
0.0797446,0.016752
0.0971483,0.017206
0.104304,0.00562477
0.0809153,0.00708266
-0.0172685,0.0137445
-0.00910672,0.0331966
0.0636186,0.00238152
0.1082,-0.0248956
0.303586,-0.00232233
0.4718,0.0139557
0.528009,-0.00152262
0.306728,-0.0280407
-0.172236,-0.0519221
-0.545514,-0.0232087
-0.404198,0.0151786
-0.139735,0.0116573
-0.0561696,-0.00112302
-0.0506503,-0.0157912
-0.0886781,-0.0191988
-0.0739693,-0.0162383
-0.1009,-0.00712672
-0.122145,0.00153776
-0.0743492,0.00118152
-0.0240815,0.00883492
0.049177,0.0297026
0.160165,0.042653
0.220055,0.0429653
0.13562,-0.00175603
-0.0855404,-0.0214767
-0.122078,-0.0238275
0.020092,-0.025631
0.104191,0.00824741
0.102186,-0.0176697
0.108928,-0.0214682
0.0212053,-0.0116783
-0.0737571,-0.00650712
-0.00841806,-0.00370436
0.0915803,0.00376771
0.169895,0.00469727
0.0790299,0.00264622
0.154106,0.00203134
0.105789,0.00983872
0.0516542,0.0265853
0.00448612,0.0424829
-0.226237,0.0105202
-0.180322,-0.0455043
-0.184584,-0.0178215
-0.190638,0.0058718
-0.0556781,0.0113227
0.0762294,0.0279175
0.0273204,0.00256601
-0.201809,-0.0417229
-0.158434,-0.0627802
-0.00873348,-0.0144223
0.0038919,-0.00928866
-0.0105684,-0.0186781
-0.0461077,0.020174
-0.090887,0.00715826
-0.0379207,0.00285017
0.0309341,-0.000366159
0.0333098,0.0228198
0.0132258,0.0759863
0.0845845,0.0686797
0.169788,0.0396825
0.115817,0.0181417
0.0327442,-0.0367676
0.0240458,-0.0815425
0.0339504,-0.0607343
0.0402196,0.0136626
-0.00297308,0.0198597
-0.0827555,0.00210127
-0.102556,-0.0212232
-0.0596229,0.0063183
0.0426538,0.0167773
0.134552,0.0120429
0.118327,-0.0117472
-0.0118714,-0.0130451
-0.121449,-0.00687897
-0.0643316,-0.0208847
0.116527,-0.00632787
0.18785,0.020196
0.132673,0.0218096
-0.0259674,0.020128
-0.119111,0.0144824
-0.123261,0.0202545
-0.00237776,0.0304846
0.276572,0.00728318
0.368671,-0.0100438
0.246497,-0.0106247
-0.261355,-0.00117756
-0.511004,-0.00640155
-0.141274,-0.0105536
0.0811035,0.00853021
0.157891,0.0203063
0.168135,-0.00318354
0.186554,-0.0073043
-0.0175675,-0.0173325
-0.441543,-0.0340378
-0.592661,-0.021572
-0.2629,-0.0525774
-0.0154835,-0.0535395
-0.00368882,0.00617996
0.00541849,0.00833044
0.0148543,0.00944831
0.0324486,0.0284707
0.073871,0.0245063
0.0875785,0.0132698
0.0132095,-0.00357789
-0.0524457,-0.00774476
-0.0116975,-0.00722807
0.0495266,0.0143262
0.120341,0.0217255
0.18622,0.0195811
0.167702,0.000364594
0.0636023,-0.0585632
-8.11e-05,-0.00555432
0.0175529,0.0452142
0.0605841,0.0201483
0.0144397,-0.00122361
-0.0622714,6.64e-05
-0.0995674,0.00470974
-0.108567,0.00215027
-0.0666681,-0.000881785
0.0687409,-0.00315223
0.250692,-0.00313423
0.248557,-0.00175494
0.0495119,0.0187166
-0.266957,0.0370338
-0.0626099,0.0294626
0.419871,0.00366716
0.564831,-0.0303812
0.255372,-0.0324413
-0.218978,-0.0208879
-0.324286,-0.069259
-0.238281,-0.0495344
-0.11608,0.0142807
-0.167345,0.0336742
-0.271315,0.0193048
-0.229265,0.00399038
-0.220681,-0.00027997
-0.153672,-0.0245169
-0.0687262,-0.010309
-0.0596728,0.0391981
-0.0157074,0.0516306
0.00917035,0.0170678
0.0435541,-0.00532526
0.0578735,-0.0326558
0.0519472,-0.0286576
0.0433381,0.00556587
0.0661219,0.0106743
0.119827,0.00276603
0.188887,-0.000785134
0.220029,-0.0131622
0.144344,-0.0507427
-0.0170154,-0.0888596
-0.120638,-0.0365567
0.073431,0.0394659
0.434435,0.0599509
0.494294,0.0260459
0.188998,0.0131726
-0.355222,0.0212601
-0.618627,0.0393767
-0.277426,0.0714659
0.0657741,0.0753148
0.0120497,0.00341905
-0.135416,-0.0393835
-0.125655,-0.0245926
-0.0076738,-0.0142139
0.0278293,-0.00469501
-0.0296495,0.00676625
-0.105055,-0.00430524
-0.101746,-0.0305588
-0.012445,-0.0295694
0.000547594,-0.0345745
-0.100969,-0.035355
-0.0940351,-0.0224569
0.0216887,-0.013652
0.11589,0.0256229
0.138635,0.0735013
0.120004,0.0505483
0.124424,0.0245125
0.128195,-0.000213312
0.290195,-0.0238502
0.452914,-0.0537069
0.316731,-0.0544188
-0.116081,-0.00401816
-0.442283,0.0157546
-0.359703,0.0162315
-0.190096,0.00215351
-0.0335419,-0.0384986
-0.0549141,-0.0291031
-0.124222,0.0182736
-0.0906201,0.0201658
-0.0491043,0.00912756
0.0870157,0.00330312
0.273997,-0.00119957
0.181571,0.000112006
-0.0996805,0.0100557
-0.300728,0.0220752
-0.217598,0.0263294
-0.0631478,0.0292762
-0.00338093,0.0182243
0.0740406,0.00193207
0.238709,-0.0165048
0.43337,-0.0383001
0.382104,-0.00597749
0.0245225,0.0234698
-0.26167,0.0206984
-0.108462,0.0189007
0.0185045,0.00485322
0.00836412,-0.028045
-0.1084,-0.0329433
-0.247873,-0.02702
-0.200296,-0.0238633
-0.00474717,0.000611687
0.262289,0.0313275
0.494295,0.0193531
0.32513,-0.00370642
-0.0159891,-0.00271945
-0.327056,-0.00307481
-0.470558,-0.0176618
-0.508937,0.0030086
-0.24677,-0.00730846
-0.0549492,-0.0683114
-0.0506037,-0.00289313
-0.0964435,0.0340506
0.0246367,0.0102289
0.38238,-0.00695819
0.459291,-0.0116395
0.217152,0.00178388
-0.103578,0.00858674
-0.100125,0.0231822
0.143454,0.00822503
0.260607,-0.00154967
0.363942,0.0302612
0.331031,0.0185117
0.152547,-0.0120329
-0.282676,0.00749155
-0.716293,0.0398257
-0.648958,0.0131587
-0.294679,-0.00696612
-0.100108,-0.0354045
0.00259139,-0.0987684
0.063716,-0.0923475
0.0684528,-0.00515777
0.0504469,0.0160942
0.0519436,0.0109503
0.204551,0.0336247
0.509205,0.0395649
0.647228,0.0361256
0.35705,0.0319791
-0.441274,0.0414913
-0.739178,0.0258812
-0.366713,0.0100844
-0.0677459,0.00723888
0.0774956,0.00739156
0.176042,0.00220309
0.254254,-0.00358089
0.319141,-0.0141236
0.31969,-0.0252962
0.171798,-0.095585
-0.0604648,-0.0651716
-0.315914,0.0524086
-0.421334,0.034868
-0.300113,-0.0101526
-0.106249,0.000783206
0.0665395,0.0180055
0.100998,-0.00247722
0.12438,0.0236208
0.195456,0.00118021
0.135396,-0.0163028
-0.0332255,0.0011404
-0.0956936,0.00527523
-0.00197514,-0.00533963
-0.0718765,-0.00391267
-0.149333,0.0206922
-0.0801898,0.0173936
-0.0399621,-0.000793258
-0.0218176,0.00682237
-0.00900125,0.00563135
0.0235483,0.0165152
0.0459403,0.0346023
0.0216997,0.0272564
-0.00806899,-0.00824894
-0.0280893,-0.0193041
-0.0120232,-0.0290384
0.0874714,-0.0625271
0.165095,-0.0311678
0.255297,0.0043605
0.286809,-0.0117354
0.289151,-0.0452405
0.220038,-0.0279041
0.0308624,0.0020033
-0.197027,-0.00642104
-0.439578,-0.0331864
-0.490316,-0.00896224
-0.288393,0.0307604
-0.081143,0.0562821
0.0439715,0.0318486
0.0586726,0.00485736
-0.0160042,0.0369825
-0.0691911,0.0601869
-0.037312,0.0362347
-0.00969467,-0.00886179
-0.0268937,-0.0253738
-0.00459025,-0.0393076
0.0823637,-0.0399725
0.138973,-0.0191379
0.111531,-0.00324961
0.0391031,0.0157621
-0.0231385,0.0212576
0.0511997,0.0228687
0.138735,0.00260317
0.126494,-0.0270097
0.0191912,-0.0241283
-0.0575699,0.00525786
-0.153071,-0.00318918
-0.150361,-0.0230934
-0.0101528,-0.00494217
0.0707073,-0.00224184
0.200065,-0.000795439
0.25644,0.0168093
0.127663,0.0118564
-0.110396,0.00377484
-0.349274,0.0119662
-0.265481,0.011981
-0.13319,0.000195406
-0.0347528,0.0105435
0.0453791,0.000689538
0.103625,-0.0503079
0.197303,-0.0537545
0.203856,-0.000246549
0.106368,0.0294745
0.00833483,0.0395678
0.119221,0.0337263
0.174718,-0.0390173
0.028575,-0.0657226
-0.21116,0.0246255
-0.265188,0.0453426
-0.166555,0.0133863
-0.149853,0.00830641
-0.0602484,0.00247651
-0.0183484,0.0167896
-0.0254002,0.00781146
0.0424865,-0.0188894
0.126689,-0.0177901
0.079349,0.0243894
-0.0164378,0.0295932
0.00672062,0.00258698
0.000947085,-0.00795033
-0.139548,-0.0094027
-0.185493,0.0038377
-0.0876985,0.00966165
0.0014232,-0.0311539
0.192784,-0.00953018
0.296754,0.0314863
0.188616,0.000550778
0.00742939,-0.0180042
-0.187497,-0.00492885
-0.146609,0.00068775
0.0261615,-0.00410714
0.064079,-0.0109875
0.0652415,-0.00781381
0.126675,0.0111
0.120151,0.0145492
0.0761544,-0.0079451
-0.127495,-0.0182261
-0.336906,0.00326449
-0.20436,0.00927244
-0.0953646,0.00806906
-0.0605339,0.0171041
0.0397288,0.0221533
0.0856206,-0.0174908
0.0365427,-0.0339991
0.0443079,0.00621885
0.10456,0.0258952
0.174337,0.0173844
0.186229,-0.0104153
0.114734,-0.00854609
0.072072,0.0103076
0.065675,-0.0181858
-0.0633202,-0.0397114
-0.14811,-0.0717174
0.0114064,-0.0530858
0.149718,-0.0281207
0.0264644,0.0235241
-0.210203,0.0738056
-0.266459,0.0587342
-0.212726,0.0239783
-0.101589,0.00514148
-0.0208791,-0.00526236
0.018759,-0.0101764
0.0412828,-0.00467421
0.0764527,-0.00615171
0.160241,-0.0106569
0.16963,-0.0194311
0.120762,-0.0122364
-0.0405435,0.00883974
-0.218825,0.0222242
-0.216402,0.023143
-0.125526,0.0162218
-0.0288013,0.0138702
0.0307896,0.00288658
0.0625751,-0.012895
0.0342971,-0.0210681
0.0133712,-0.0133046
0.101171,-0.0061856
0.169808,-0.0291004
0.360682,-0.00772647
0.577307,0.0308181
0.499826,-0.00748414
0.0610247,-0.0272045
-0.623013,0.019452
-0.856231,0.0230652
-0.47009,0.00926336
0.022959,-0.0169195
0.430624,-0.000557596
0.528335,-0.00535529
0.213482,0.0022861
-0.348407,-0.00147687
-0.579907,-0.0172417
-0.359843,0.00836444
-0.130837,0.0410149
-0.0242504,0.0371607
0.0450964,0.0145954
0.0871276,-0.00277918
0.0665799,0.0222553
0.021313,0.0453983
-0.0293501,0.0160868
-0.00240158,-0.0188416
0.0803697,-0.0314855
0.101605,-0.0263489
0.100322,-0.01712
0.236413,-0.0140885
0.378697,-0.00996458
0.283887,-0.00907057
-0.097575,-0.0090873
-0.343361,-0.00776933
-0.192838,-0.00106556
-0.0883608,-0.000529332
-0.021268,-0.00631747
0.0131146,-0.000845127
-0.0238071,0.00935933
-0.0631458,-0.00177152
-0.0846646,-0.0477117
-0.0839555,-0.0272239
-0.0447533,0.0160614
-0.00531003,0.015282
0.0172135,-0.0339648
0.0165593,-0.0278854
0.00786347,0.048034
0.0908516,0.0504308
0.280977,0.0347228
0.516346,0.0196526
0.645722,-0.00312728
0.459778,0.000282263
-0.137988,-0.0171496
-0.540879,-0.0391999
-0.489078,-0.00371034
-0.340955,-0.0122084
-0.223686,-0.0107963
-0.194378,-0.0115395
-0.179624,-0.00566716
-0.106924,0.00111544
-0.052468,0.0103708
-0.0499148,0.0112801
-0.0358471,0.0181249
0.010699,0.000582437
0.0476632,0.0134953
0.09762,0.0191395
0.139065,-0.00691669
0.268774,-0.0105851
0.495245,0.00600516
0.567863,0.0171006
0.254389,0.0172078
-0.250393,0.0109593
-0.345349,0.0040817
-0.250538,0.001314
-0.274893,-0.00770796
-0.249628,-0.0118113
-0.0568026,-0.0122025
0.0774268,-0.0102074
0.0416533,-0.00147902
-0.133052,0.0188539
-0.246082,0.0226623
-0.107995,0.0150537
0.0599323,0.00453068
0.0453,-0.013868
-0.0302393,-0.0103299
-0.0426714,-0.00179009
0.0262802,-0.008709
0.0959057,-0.0111556
0.102415,-0.00627135
0.0699901,0.00200716
0.074537,0.00710398
0.139191,0.00335897
0.204259,-0.00634967
0.239593,-0.00909259
0.163192,-0.0146214
0.057962,0.001944
-0.0290719,-0.00596094
-0.198826,0.0060246
-0.231487,-0.00306395
-0.0930247,-0.0418194
-0.0200082,-0.00708988
-0.0426086,0.0179509
-0.0744009,-0.0114761
-0.0272744,-0.0535853
0.0610761,-0.0355299
0.00455006,0.0154198
-0.106377,0.0222283
-0.0406135,-0.0111933
0.173115,0.0163021
0.318835,0.0248366
0.384701,0.0141223
0.193524,0.0395267
0.0317223,0.0264584
-0.28346,0.0176543
-0.519613,0.0149228
-0.324784,0.00153828
-0.127053,0.00212005
-0.0619936,0.0204529
-0.0758504,0.0215874
-0.085477,0.0210144
-0.0342109,0.0025628
-0.0115531,-0.0255468
-0.0144299,-0.0426348
0.0198729,-0.0366181
0.0777087,-0.0560751
0.149208,-0.0262092
0.228602,0.014847
0.304911,0.0272329
0.325719,0.018087
0.120983,-0.00780069
-0.0408465,-0.0150551
-0.104316,-0.0058288
-0.0740652,-0.00167645
-0.0237783,0.00357139
-0.192799,0.019936
-0.186088,0.0318376
-0.0445532,0.0203952
-0.0841006,-0.00062202
-0.108708,-0.00550119
-0.0609898,-0.0128444
0.0691309,0.000577316
0.209955,0.00119705
0.259045,-0.00508804
0.0895368,-0.00222886
-0.140885,0.0106733
-0.298054,0.0241791
-0.279106,0.0118076
-0.0874142,0.00149809
0.0331244,-0.0136148
0.0569645,-0.0146114
0.0667048,-0.00226666
0.140372,-0.00704038
0.254542,-0.0384115
0.249829,-0.0219315
0.103029,0.0190633
-0.097275,-0.0126135
-0.0969451,-0.0242605
0.0551955,-0.0698232
0.0719753,-0.031925
-0.0199126,0.0532362
-0.20842,0.0403348
-0.257359,0.0185319
-0.126565,0.00838768
-0.0166963,0.0130909
0.0348598,0.00271883
0.0414391,0.0146793
0.0346983,0.0122913
0.030957,0.0194149
0.0271487,0.034243
0.0316348,0.0280025
0.0451724,0.00555382
0.0315093,-0.0206096
0.00793214,0.0049442
-0.00872475,0.00101387
-0.0194414,-0.0424375
-0.0143809,-0.0217078
-0.0476529,-0.000680539
-0.0858361,0.00289841
-0.0533857,-0.00606205
0.0630313,-0.0284168
0.111382,-0.0212813
0.0889404,0.00359436
0.0145901,0.00621492
0.0281389,-0.000261682
0.096876,-0.0180122
0.0521454,-0.0244057
0.0203276,0.0109979
0.250928,0.033365
0.449911,0.0190741
0.268976,0.0199878
-0.220122,0.0206779
-0.579096,0.00850529
-0.388126,-0.0103436
-0.0171334,-0.00814478
0.377026,0.00933297
0.383803,0.0121843
-0.109503,0.00640661
-0.548223,0.00386451
-0.480942,0.00664859
-0.240064,0.00295624
-0.122084,-0.00219936
-0.0218,-0.00715849
0.0952977,0.0102808
0.120733,-0.00226461
0.0703983,-0.0104842
0.0120486,-0.0406495
-0.0330846,-0.0453152
-0.0400968,-0.0121104
-0.018124,-0.0152239
-0.0131701,-0.0154735
0.030366,-0.0185947
0.102578,-0.00156523
0.210805,0.0140177
0.238299,0.0134059
0.181466,-0.00141394
-0.0219129,-0.00793857
-0.19256,0.00841461
-0.122139,0.0208643
-0.00763652,0.0199161
0.0473798,0.0165404
0.0449283,0.0156496
0.00861166,0.0160211
0.0451187,0.0210004
0.114207,0.0178434
0.103396,0.00346079
-0.00279189,-0.0107186
-0.16925,-0.017719
-0.181741,-0.00467675
-0.0841546,0.00831279
-0.0143051,-0.00442177
0.0716406,-0.0189307
0.14762,-0.0105159
0.14184,-0.00303423
0.0423753,-0.00904107
-0.0664398,-0.00821467
0.0128351,-0.00694589
0.255346,-0.00196672
0.270548,0.00752375
0.00159682,0.0208751
-0.230938,0.0421442
-0.213247,0.0347832
-0.0298028,0.00654201
0.138352,0.00197224
0.148361,0.015578
0.129338,0.00568939
0.0790524,-0.022647
-0.0749876,-0.017609
-0.335138,0.00532121
-0.467651,-0.0186087
-0.255325,-0.0523777
-0.0867304,-0.0664282
-0.00681024,-0.0160671
0.0363914,0.0195038
0.0465333,0.00272537
0.0243155,-0.0155166
-0.0184195,0.0032534
-0.0387694,0.0152309
-0.0255757,-0.00331545
0.00588456,-0.00561542
0.0347758,0.0313115
0.0774532,0.016776
0.106392,0.0134958
0.0928952,-0.0031627
0.089023,-0.0028929
0.0876853,-0.0174038
0.0640013,-0.0292636
0.153132,-0.0121957
0.242536,0.00821256
0.237713,0.0162029
0.158115,0.0209284
-0.0438222,0.0358188
-0.11856,0.0211854
-0.187025,-0.0301815
-0.28499,-0.014921
-0.225354,0.00963969
-0.132823,-0.00732171
-0.0619891,-0.0264605
-0.0296948,-0.00716535
-0.0496454,0.0267687
-0.00131479,0.00738601
0.0832693,-0.00793408
0.147438,0.00658024
0.186066,0.00474218
0.126606,0.00458909
-0.0498856,0.00192051
-0.0482719,0.0289985
0.0174504,0.0193408
-0.0668697,0.00978259
-0.138645,0.00927701
-0.117607,0.0127745
-0.0719512,0.00995619
-0.0293884,-0.00746799
-0.000980911,-0.0194972
-0.00743437,-0.0166718
-0.0337376,-0.00799141
-0.0378029,-0.00265021
0.00393633,-0.0240411
0.0827384,-0.024874
0.20467,-0.00452697
0.245715,0.0106581
0.103796,0.0214454
-0.0496199,0.00820781
-0.168334,-0.00238363
-0.106205,-0.00384381
0.0560467,-0.008961
0.109231,0.00492179
0.139544,0.00903482
0.106257,-0.0058707
0.289198,0.00319962
0.46637,-0.0100701
0.240961,-0.0244247
-0.343372,-0.00612286
-0.747171,0.00985301
-0.42282,0.0107578
-0.19191,0.00927127
-0.21097,0.00159715
-0.156195,-0.0104953
-0.0351625,-0.0174016
0.0281949,-0.00924008
0.0592098,0.000175379
0.0365307,0.00473803
0.0101754,0.0110074
0.0963351,-0.00145266
0.212778,0.00381996
0.262358,-0.013824
0.156953,-0.0191101
0.0408423,-0.00505947
0.0391375,0.0189923
0.0975242,0.0288728
0.0316121,0.00424087
-0.161725,-0.0294417
-0.236665,-0.0587594
-0.0641004,-0.00409186
0.0925025,0.0126224
0.11972,0.0159178
0.0136034,0.00149918
-0.132613,0.0127344
-0.113276,0.0293097
-0.0478321,0.00253546
-0.0142357,-0.0102742
-0.0287034,-0.00562214
-0.0677694,0.0066157
-0.0638697,0.0274436
-0.0396242,0.0353463
0.0278998,0.024883
0.254473,0.0098491
0.465343,-0.00807385
0.433183,-0.019105
0.126742,-0.015818
-0.226629,-0.00459144
-0.295856,0.0101097
-0.287215,-0.00826844
-0.145422,-0.055488
-0.0366849,-0.0421192
-0.0388117,0.0196322
-0.0195218,0.0262451
-0.00247135,0.0060567
-0.000275321,-0.00481461
0.0337016,0.00729202
0.0866245,0.0202131
0.0928443,0.00655573
-0.0177509,0.00734371
-0.148973,0.0163319
-0.128446,0.0142457
-0.0368015,-0.00142376
0.0215328,-0.00753888
0.0440615,-0.00346684
0.0638411,0.00374029
0.0883694,0.00796463
0.13232,0.00404484
0.177123,-0.00781675
0.127247,-0.00166618
0.00151767,0.00758576
-0.122094,-0.00294348
-0.109586,-0.00519447
-0.0673626,-0.004656
-0.0999178,-0.0425765
-0.151259,-0.0355693
-0.0744253,0.0194772
0.0753064,0.0222834
0.163286,-0.000463222
0.17217,-0.0199708
0.160821,-0.0199997
0.155666,-0.0131988
-0.0300945,-0.00407803
-0.206368,0.0139913
-0.199237,0.0115243
-0.128393,0.00841461
-0.0800389,0.00583269
-0.0484233,-0.00784628
-0.0385202,-0.0160954
-0.0398662,-0.0148004
-0.0409471,3.62e-05
-0.0158725,0.0144819
0.0983167,0.0179745
0.185025,0.0278429
0.165343,0.0305648
0.0130099,0.00559196
-0.149092,-0.0165975
-0.112261,-0.0313686
-0.0279612,-0.041853
0.0292251,-0.0134016
0.0900492,0.0247156
0.145063,0.0113496
0.129592,-0.00155878
0.0863852,-0.00460899
-0.0212474,-0.00804895
-0.160824,-0.00442203
-0.125035,0.000868065
-0.023374,0.00964908
-0.000353034,0.0130276
-0.0356852,0.00810065
-0.0213338,0.00210827
0.0227203,0.00938021
0.0491935,0.0257445
0.0344597,0.010708
0.0116899,0.00460867
-0.0456148,-0.00661667
-0.0390031,-0.0219762
-0.00660879,-0.0311386
-0.00241397,-0.022201
-0.00915006,0.00489586
-0.013395,0.00464926
-0.00515797,-0.000687
0.00418043,0.00267666
0.00530458,0.00368087
-0.0119608,0.00707118
-0.0300719,0.0123875
-0.00865974,0.0121468
0.0192561,0.0195129
0.0194671,0.0255565
0.00809454,0.0180049
0.0151904,0.00240275
0.0352982,-0.00644849
0.0673773,-0.00197204
0.0735692,0.00276816
0.0408729,-0.000786665
-0.00607909,-0.0063626
-0.0395496,0.00320776
-0.0382868,-0.00720374
-0.0270259,-0.0132928
-0.0214467,-0.00835271
-0.0265998,-0.010931
-0.0373754,-0.0241189
-0.0317548,-0.023114
-0.00621949,0.00069304
0.0154192,0.0102113
0.0189996,0.0160468
0.0109387,0.0137639
0.00116499,-0.00261529
0.0071683,-0.0195344
0.02106,-0.0208526
0.0256614,-0.00732255
0.0130037,0.0115252
0.00695364,0.0121029
0.00566795,-0.00351406
-0.00115286,5.79e-05
-0.013451,0.000402644
-0.0400103,0.00206574
-0.0335074,0.00662572
0.0196355,0.011507
0.0575267,0.0179435
0.0105205,0.00958449
-0.0552269,-0.0183359
-0.095457,-0.027159
-0.0783454,-0.0237857
-0.0764441,-0.00969856
-0.0567751,0.0238939
0.0126249,0.0288467
0.165318,0.010552
0.216885,-0.0181155
0.0953618,-0.0533791
0.027188,-0.0876315
0.00234762,-0.0264296
0.0492355,0.0303007
0.230867,0.0384183
0.309744,0.0250798
0.20878,0.0214563
0.0568359,0.00953704
-0.074957,0.00912896
-0.166555,0.00907763
-0.367669,0.0113592
-0.485694,0.0174987
-0.392233,0.0206768
-0.203494,0.00938787
-0.0462744,-0.000161687
0.0495078,0.0257465
0.108332,0.0608172
0.108179,0.0524885
0.0360604,-0.00020509
-0.0647828,-0.0484598
-0.086933,-0.0559944
-0.103485,-0.0710415
-0.118382,-0.0385718
0.00165312,-0.00732637
0.143456,0.0062791
0.168561,0.00205339
0.121564,-0.000681437
0.0882639,0.00928035
0.12777,0.0138809
0.140616,0.00971834
0.0569791,0.00187823
-0.0686747,0.00220907
-0.0581482,0.00611227
0.0124497,0.0123442
0.0433165,0.00917924
0.211986,0.0107425
0.362111,-0.00506217
0.254095,-0.0328428
-0.154471,-0.0236582
-0.513384,0.00885267
-0.405372,0.0115676
-0.134838,0.0354541
0.018197,0.0138473
0.0607646,-0.0551915
0.0912262,-0.041745
0.131004,-0.0086352
0.199216,0.0316097
0.189664,0.0275615
0.0881096,0.0167467
-0.0367927,0.00775178
-0.154537,0.0081026
-0.121851,-0.00968331
-0.0670422,0.0135224
-0.0523825,-0.0138055
-0.0826729,-0.0472125
-0.0419297,-0.00996369
0.0559273,0.014448
0.0316368,0.0103321
0.00867855,0.00556596
-0.0159881,0.0104953
-0.0536629,0.00690165
-0.00540255,-0.00576633
0.0230763,-0.0122584
-0.0353785,-0.00824652
-0.087459,0.00548682
-0.0545462,0.00993066
-0.0245179,0.00977389
-0.0203294,0.00874591
0.00328916,-0.00803551
0.0767695,-0.0290667
0.210511,0.000251719
0.355289,0.00929413
0.305447,0.00137148
0.155525,-0.00429694
0.0719897,-0.000438843
0.0638104,0.00365637
0.0351723,0.00171322
-0.108242,0.00108054
-0.177928,-0.0120587
-0.28451,-0.00612841
-0.37194,0.012686
-0.295502,0.0189284
-0.179969,0.0177665
-0.096229,0.0192713
-0.0438421,0.0166283
-0.0145085,0.00729495
-0.0255085,0.00595709
0.0221847,0.00677164
0.0615895,0.00154709
0.0544168,-0.0094117
0.0131127,-0.0136091
0.0424032,-0.00848265
0.246026,-0.0120867
0.318576,-0.024651
0.135595,-0.0344036
-0.143089,-0.0327586
-0.0323452,-0.0196649
0.13672,0.00349312
0.0900659,0.014085
-0.0574044,0.0110778
-0.130123,0.0111692
-0.0821167,0.00273465
-0.0743927,-0.000760725
-0.125084,-0.000621538
-0.100311,-0.0060281
-0.0152002,-0.00621969
-0.0254571,0.00738198
-0.0557814,0.0104761
-0.015155,0.00636592
0.00820277,0.0156431
0.0286879,0.0253368
0.077757,0.00279802
0.107282,-0.0010485
0.0981482,0.0186224
0.0634068,0.0269214
0.00840844,0.0181064
0.0065287,0.00566411
0.0338832,-0.0211993
0.0760644,-0.0523819
0.182517,-0.0579948
0.274304,-0.0386227
0.239879,-0.0118452
-0.0386175,0.0163075
-0.320204,0.0202517
-0.34953,0.00990713
-0.222446,0.00882847
-0.136218,0.0167002
-0.046876,0.0106321
0.109803,-0.0166912
0.158244,-0.0213325
0.108637,-0.0147221
-0.0599952,0.00909262
-0.157048,0.0226722
-0.0836352,0.0276138
-0.00771525,0.0250093
0.067893,0.0114508
0.185431,-0.00392244
0.146475,-0.0108471
-0.0651568,-0.0288604
-0.146585,-0.0682913
0.0217683,0.00941532
0.207028,0.0485204
0.214069,0.0254467
0.172203,0.009314
0.0384444,0.00445307
-0.219249,0.00975334
-0.368457,0.00640215
-0.213929,-0.000444229
-0.0734891,-0.0368782
-0.0150176,-0.0634872
-0.0352524,-0.0104443
-0.0606632,0.0121061
-0.0615434,-0.00573401
-0.0845251,-0.00540665
-0.0709068,0.0296261
-0.00631068,0.040638
0.0570961,0.0349809
0.0637141,0.0310236
0.0344161,0.0180951
0.0376854,0.00807877
0.0897099,0.00069759
0.187034,-0.0121056
0.236319,-0.0206256
0.186182,-0.0183557
0.0640855,-0.009131
-0.0909385,0.00817083
-0.0919939,0.0126579
-0.00344706,-0.00368807
-0.0105545,-0.0188733
-0.070233,-0.024513
-0.0981375,-0.0150234
-0.0732679,-0.0030307
-0.0283077,-0.00572298
0.0124582,-0.00412708
0.022565,-0.00102707
0.0281696,-0.000338447
0.00684504,0.0027427
-0.00146176,-0.00513127
0.0450395,-0.00810669
0.0592148,-0.000997921
0.0284852,0.0101848
-0.00387058,0.013401
-0.00542587,0.0158083
0.0122121,0.0147714
0.0240639,0.00931912
0.00500122,-0.000763544
0.0130742,0.000823004
0.0783959,-0.00269822
0.0850089,-0.00528927
0.0243554,0.00663523
-0.123505,-0.00630947
-0.227877,-0.0506821
-0.146905,-0.0288875
-0.0268337,0.0140442
0.0650523,0.0213528
0.0995834,0.00521253
0.0754615,-0.00294016
-0.00547619,0.000918633
-0.0611529,-4.89e-05
-0.0314701,0.000955776
0.0121068,0.0142504
0.0167606,0.0241294
-0.0260866,0.0166962
-0.0586019,0.00827054
-0.0455967,0.002802
-0.0278207,0.000865237
-0.0179684,9.84e-05
-0.0032984,-0.00295152
0.00349223,-0.00817625
0.00627686,-0.00840018
0.029494,-0.00497873
0.0635227,-0.0115703
0.0742239,-0.0144291
0.0486508,-0.00977544
0.012979,-0.00291728
-0.00457996,0.00369434
0.00193566,0.0123877
0.0102335,0.0106714
-0.00277303,6.1e-05
-0.034541,-0.0109129
-0.0605634,-0.00264241
-0.0509203,-0.000734768
-0.0218482,0.00259358
0.00291549,0.00540278
0.00781008,0.00382162
0.00196357,-0.000170124
0.0034839,-0.00115552
0.0273359,0.00375261
0.0522899,-0.002457
0.0527527,-0.00719453
0.0279695,-0.00334619
-0.000286373,-0.00408699
-0.00828403,-0.0183632
-0.00283731,-0.00561646
-0.00141185,0.0123222
-0.0171977,-0.00357353
-0.0483196,-0.000865659
-0.0607174,0.00464668
-0.0437461,0.00472698
-0.0129851,0.0044981
0.0075865,0.000938576
0.00617344,-0.0102607
-0.00244168,-0.00111078
0.00544155,0.0309615
0.0339905,0.0182724
0.053727,-0.00860799
0.0541982,-0.0225072
0.0363924,-0.0273418
0.0212852,0.0203661
0.0260242,0.0030728
0.0371506,-0.0125785
0.0324819,-0.000601223
-0.0110734,0.0120718
-0.0850226,-0.00277603
-0.129301,-0.0258799
-0.0569119,-0.0507459
0.0181002,-0.0541184
0.00989725,-0.00454713
-0.0121363,0.0313202
-0.00636207,0.0381171
0.031536,0.0430477
0.0418619,0.0242534
0.0867669,0.0142146
0.129946,0.0146985
0.107829,0.00507017
-0.0611457,-0.000948404
-0.207058,0.0046564
-0.147049,0.00562849
-0.0844568,0.00566569
-0.0488872,0.00121828
0.0169104,-0.00124492
0.102073,-0.00176842
0.11535,-0.000719551
0.00966305,0.00352452
-0.0717634,0.00866394
-0.0593474,0.00272582
0.0261285,-0.00415393
0.0833326,-0.00243913
0.0182477,-0.00263655
-0.0314563,-0.00719374
0.00824147,-0.00803787
0.0496032,-0.0120181
0.0176019,-0.01188
-0.0413777,0.000865051
0.0793962,0.00910119
0.348696,0.00371098
0.342949,-0.000651656
0.0146555,0.00169595
-0.342222,0.0113386
-0.506244,0.015097
-0.358932,0.00273795
-0.13464,-0.011904
-0.0243529,-0.00246916
-0.0139676,0.000850621
0.00807856,-0.0110041
0.0871487,-0.0164883
0.168428,-0.0117021
0.35038,-0.00411349
0.469865,-0.00685088
0.326325,-0.00927319
-0.178044,-0.00107631
-0.607683,0.00400326
-0.479785,-0.00158327
-0.211008,-0.0083412
-0.0230938,-0.000862183
0.12078,0.00373138
0.291116,0.0124032
0.410921,-0.00243214
0.248902,-0.00121444
-0.0113997,0.00991618
-0.127674,-0.000547712
-0.00445499,-0.00737967
0.228656,-0.00398819
0.169047,0.00178549
-0.170172,0.00796086
-0.342211,0.00678077
-0.187734,0.00192134
-0.0355668,0.00210931
-0.0512414,0.00428056
-0.0945962,0.00268232
-0.17656,0.000859768
-0.144737,-0.00105846
0.0943284,0.000274834
0.356886,0.00120571
0.446965,0.00230246
0.28233,0.000273267
-0.102339,-0.00534985
-0.398725,-0.0137026
-0.319023,-0.0192512
-0.235099,-0.00597493
-0.17199,0.00704208
0.133348,0.00270707
0.318873,0.00133459
0.273191,0.00806111
0.0426562,0.00736402
-0.260266,0.00286409
-0.183166,-0.00929426
0.0101891,-0.00886575
0.0709536,0.00302627
0.0923578,0.00597854
0.0452061,0.00227078
-0.0195262,0.00050571
-0.0266121,0.00157531
0.0456355,-0.00330197
0.121468,-0.0116661
0.119312,-0.00938539
-0.0307247,-0.00148416
-0.167845,0.00396074
-0.113889,0.00553409
0.0328182,0.00718789
0.0889553,0.0145067
0.0751581,0.0169764
0.0599192,-0.00397811
0.00269439,-0.0120898
-0.0279773,0.000964605
-0.00975645,0.00503787
-0.00376958,0.00821793
-0.024619,0.0110512
-0.0431498,0.0130083
-0.0413666,0.00659485
-0.029937,0.000495281
-0.0110277,-0.00514268
-0.0192904,-0.00925463
-9.68e-06,-0.00451904
0.180681,0.00204345
0.442585,-0.00156657
0.481459,-0.00475397
0.162218,-0.00244247
-0.298537,-0.00842636
-0.432409,-0.00539402
-0.322761,0.00850823
-0.242192,0.0102898
-0.213516,0.00370782
-0.0589606,-0.0106134
0.0762521,-0.0356008
0.097352,-0.0252084
0.0756834,-0.0081152
0.0381668,-0.00752918
-0.046715,0.00627843
-0.101341,0.00889361
-0.0749392,0.00124449
-0.0461094,0.0189603
-0.0146367,0.0213085
0.0261933,0.0141464
0.0853236,0.0129731
0.146507,0.00527063
0.144662,-0.00399514
0.111123,0.000555466
0.0927226,0.00838315
0.0404102,0.00759448
0.0145349,0.00492493
-0.0351775,0.00769893
-0.141046,0.00512395
-0.117532,-0.000126123
-0.0618721,-0.00876463
-0.0734566,-0.0103148
-0.13121,-0.00320685
-0.130663,-0.00469666
-0.0888142,-0.00671758
0.0081423,-0.0015696
0.122543,0.00103687
0.178605,0.00262058
0.137357,-0.0169939
0.0751342,-0.0288981
0.0343821,-0.000654493
0.0264447,-0.000219587
0.0178933,-0.00457693
-0.00600887,0.00827874
-0.0189947,0.0127865
-0.0132684,0.00375147
-0.000688694,-0.0105033
0.0260702,-0.00807948
0.042431,-0.00864351
0.0213405,-0.00914978
-0.00735235,-0.00064897
-0.0211191,0.000542947
-0.0385658,0.00203967
-0.0402093,0.0051192
-0.0285604,0.00724575
-0.00455952,0.00421628
-0.0148248,0.00181591
-0.0642801,0.00255189
-0.0574229,0.0096867
-0.0118302,0.0160647
0.0331733,0.0208318
0.0540502,0.0110726
0.0538402,0.00112927
0.0502622,-0.00245257
0.0531464,-0.0179381
0.0179746,-0.0248473
-0.03051,-0.0131282
-0.0392666,-0.00806002
-0.0146084,-0.0199762
0.0184003,-0.0214618
-0.00751235,0.0115597
-0.0626532,0.0116327
-0.0706955,0.00452843
-0.0499008,0.00699074
-0.0127057,0.00831534
0.0165253,0.00483891
0.0426785,0.00197266
0.0545477,0.0127658
0.0560829,0.00694311
0.041956,-0.00174511
0.0267495,-0.00114532
0.0138643,0.000269013
-0.0122837,0.00614998
-0.0413466,0.0130108
-0.0993449,0.0106039
-0.162858,0.0062025
-0.144784,0.00568597
-0.0582587,0.00421546
0.0506159,0.00436448
0.121677,0.00233411
0.206181,-0.00474188
0.260601,-0.00950792
0.212888,-0.00621135
0.0241883,-0.00753126
-0.229541,-0.00945842
-0.118696,-0.00426402
0.101458,-0.0030115
0.132109,0.00189142
-0.0907648,0.00328007
-0.249226,-0.00224956
-0.0853595,-0.00818022
0.00591399,-0.0188452
0.00862743,-0.00604199
0.0175603,0.0123608
0.0306469,0.0145385
0.0225076,-0.00114559
-0.025303,-0.00589274
-0.0624886,-0.00794539
-0.067247,-0.00688912
-0.0251898,-0.000120208
0.0219575,0.00610267
0.0168969,0.000594442
-0.0511077,-0.00816173
-0.064795,-0.0153179
-0.0022719,-0.0180051
0.119406,-0.00654358
0.15168,0.000572377
0.0143242,0.00314219
-0.199665,0.000370179
-0.253009,0.00265055
-0.107227,0.0149436
0.111505,0.0234507
0.227856,0.0078574
0.201559,-0.00229295
0.110727,-0.000960724
0.0451996,-0.00452261
0.0104115,-0.000425682
-0.011379,0.000774766
-0.0196512,0.00127323
-0.00893445,0.00402252
0.0115718,-0.00337424
