Comp Ch 3,Comp Ch 4
0.0414894,-0.0138183
0.0399986,-0.00750327
0.0123975,-0.00329985
0.0262567,0.00209022
0.0467073,0.0122259
0.0513416,0.013215
0.0564625,0.00531187
0.0656932,0.00169718
0.07197,-0.0123393
0.0564029,-0.0208833
0.034527,-0.00736966
0.0193438,0.00268415
-0.0150408,-0.000714998
-0.0379761,0.00481521
-0.0273086,0.0152253
0.0244578,0.0167546
0.0680316,0.00570645
0.0363163,-0.0122538
-0.0199759,-0.0261017
-0.0480408,-0.0276019
-0.0535439,-0.00616345
-0.0229204,0.00895438
0.0440876,-0.010603
0.129135,-0.0108041
0.132629,0.00498122
0.0474872,-0.00605687
-0.111351,-0.0108914
-0.219547,0.00501634
-0.181721,0.0191485
-0.0731889,0.0165176
-0.00113458,0.0111688
0.096016,0.00591607
0.152127,-0.00732193
0.132795,-0.0192477
-0.00684567,-0.00356256
-0.205928,0.0116066
-0.132894,0.00860434
0.0191974,0.0116387
0.0664853,0.0239707
0.0731139,0.0225365
0.0589833,0.00156721
-0.0078297,-0.0232991
-0.122945,-0.0348929
-0.0992831,-0.0188696
-0.0285396,0.0122653
-0.00146224,0.00997297
0.00376238,0.00295243
-0.00928964,0.0113778
-0.0256145,0.014211
-0.0347684,0.0025385
-0.0187768,-0.00887049
0.0199551,-0.00902398
0.0307408,-0.00276058
0.0274877,0.00146532
0.0191181,0.00995175
-0.0103044,0.0148531
0.0347281,0.0118327
0.0962102,0.00273701
0.165551,-0.0151355
0.220616,-0.0216942
0.110125,-0.00403183
-0.0569091,0.0105211
-0.108305,0.0192389
0.0230256,-0.00202688
0.197416,-0.0234293
0.182769,-0.00134354
0.0157467,0.00528484
-0.148693,0.00196042
-0.15811,0.00250325
-0.0131513,0.00421528
0.0819507,0.0136451
-0.0810461,0.0270579
-0.236087,0.00618425
-0.272096,-0.0452943
-0.147734,-0.0831222
0.0208076,-0.107137
0.0586348,-0.093299
0.0333862,-0.0396903
0.019899,0.0290773
-0.0482615,0.0523419
-0.0706334,0.0869891
-0.0386873,0.0749243
-0.0440156,0.0307955
-0.0877883,0.0139209
-0.0712883,-0.00103561
-0.00114477,0.0459721
0.0588227,0.0507925
0.130593,0.0384307
0.173496,0.0370836
0.159058,0.0262316
0.0980749,0.0159208
0.024694,-0.00761593
-0.0347114,-0.0368313
-0.0744704,-0.0671827
-0.0844706,-0.0870252
-0.0820773,-0.110935
-0.0527062,-0.155842
0.0168229,-0.109364
0.061735,-0.00586728
0.0316379,0.0110088
-0.00388486,0.0206452
-0.0478687,0.0522851
-0.0179568,0.0678062
0.0492007,0.0712173
0.0809295,0.0711236
0.0978005,0.0671823
0.0659049,0.068001
-0.0471284,0.0681465
-0.0850314,0.0437465
-0.0339904,0.0164149
0.0325264,0.00417719
0.0459251,0.000531416
-0.0281758,-0.0053598
-0.0134613,-0.0132363
0.0628282,-0.00066709
0.0890387,-0.00174701
0.0922525,-0.0124805
0.08093,-0.0200666
-0.00283526,-0.00840901
-0.0967915,0.0119332
0.0648493,-0.01059
0.170044,-0.00306064
0.143424,0.0178118
0.0718354,-0.00447245
-0.0330733,0.018724
-0.0442884,0.0765536
-0.0226661,-0.0020543
-0.063597,-0.0552083
-0.189193,-0.0324387
-0.354932,-0.0055298
-0.347654,0.0114584
-0.105156,-0.018729
0.0348326,-0.0471803
0.0732901,-0.058008
0.268352,-0.00757641
0.274574,0.0102908
0.0690046,0.0101585
-0.0433489,0.0273551
-0.140001,0.00777143
-0.188031,-0.0254033
0.0980101,-0.0217256
0.24498,-0.0269939
0.0845515,-0.0446103
-0.057929,-0.0349016
-0.078849,-0.0233423
-0.213061,-0.027429
-0.284029,-0.0312409
-0.217923,-0.0235599
-0.139868,-0.0158167
-0.0758157,-0.0208648
-0.0170357,-0.0302571
0.0119446,0.00785622
0.00290178,0.0345543
0.0170299,0.0441535
0.0748822,0.0432188
0.102662,0.0317357
0.0907134,0.0311171
0.0842506,0.0285337
0.0944171,0.010689
0.0746932,-0.00388763
0.0326486,-0.00523365
0.0793624,0.0042411
0.174762,0.00397503
0.131161,0.00649223
0.000954558,0.0142426
-0.125897,0.0232726
-0.00506245,0.0258177
0.184725,0.0248223
0.291617,0.0243023
0.241648,0.0187464
-0.0249629,0.0241874
-0.260499,0.0283231
-0.190426,0.0072073
-0.0856926,-0.0104637
0.12537,-0.0272996
0.228281,-0.0383053
0.225382,-0.0393174
0.112855,-0.0408186
-0.0129141,-0.0268288
-0.0613961,-0.0472186
-0.0864005,-0.0372007
-0.0846627,-0.0089257
-0.0345676,-0.00387788
-0.0341888,-0.0296007
-0.244427,-0.0291056
-0.427616,0.00330742
-0.420626,0.0294229
-0.399463,0.0334997
-0.314322,0.0366921
-0.0787443,0.0429591
0.167268,0.027025
0.232306,-0.0147791
0.185016,-0.0354431
0.189096,-0.0725282
0.329306,-0.0578669
0.289399,0.0090839
0.187407,0.036273
0.0928981,0.0472074
-0.132618,0.0291378
-0.31607,0.00685136
-0.204432,0.00143223
-0.0248391,0.00904161
-0.0142318,0.0157872
-0.0496771,0.0177551
-0.00575475,0.0184028
0.0750643,0.0184768
0.0251895,0.0186981
-0.117809,0.0221896
-0.170482,0.0129757
-0.105662,0.00391895
0.0188333,0.00360503
0.177282,-0.00156401
0.548041,-0.0184489
0.949239,-0.0378647
1.11542,-0.0663061
0.842928,-0.0646977
-0.0720727,0.00695535
-0.813426,0.0495984
-0.889469,0.0336847
-0.764625,0.023135
-0.562442,0.0236043
-0.457127,0.0268707
-0.248284,0.0231252
-0.00935312,0.00639527
0.0514742,-0.00516028
-0.0366405,-0.0134263
-0.132857,-0.0203531
-0.0829206,-0.0247513
0.0120015,-0.0159842
-0.00503383,-0.0165056
-0.0175628,-0.021996
0.0367731,-0.00111807
0.0436708,0.0219744
0.108971,0.0226192
0.281157,0.00741483
0.400681,-0.0171102
0.357758,-0.0147432
0.214196,0.000343905
0.0415619,0.00651077
-0.0985003,-0.0182428
-0.108527,-0.0151554
-0.0517805,0.00615486
0.0622224,0.00865107
0.241859,0.00352052
0.369191,-0.00113894
0.361864,0.00397736
0.0279499,0.0123822
-0.450776,0.0178497
-0.471958,0.00401114
-0.292116,0.0099776
-0.173324,0.0135036
-0.00280326,-0.0133602
0.0774387,-0.0332105
0.0764718,-0.0199636
-0.00797665,-0.00781704
-0.155124,0.00140143
-0.145158,0.0149126
-0.107657,0.0132118
-0.0179213,0.00852693
0.144204,0.00586724
0.198553,0.00341938
0.0951936,0.00112519
-0.113315,0.000303574
-0.184196,0.00147195
-0.11245,-0.00288378
-0.0613498,-0.00164445
0.106379,-0.00158241
0.334751,-0.00964146
0.554973,-0.0457089
0.71811,-0.0443113
0.601391,-0.0097609
0.153377,0.015507
-0.347642,-0.00816793
-0.659572,-0.00417008
-0.701767,0.0139502
-0.622995,0.000766966
-0.535698,-0.00832662
-0.277166,-0.0116675
-0.0506867,0.0104847
0.0167247,0.0152748
0.000302881,0.00233319
0.0123033,0.00783755
0.0780121,-0.00636514
0.267926,-0.00226548
0.449044,0.0252397
0.506233,0.0253896
0.367034,0.00833139
0.0880212,0.0230717
-0.21342,0.0371067
-0.177333,0.0414637
-0.117845,0.0473957
-0.124338,0.0322924
-0.0779864,0.00893232
0.0885419,-0.0103525
0.130268,-0.0163352
0.027962,-0.0128157
-0.118341,-0.0146783
-0.252774,-0.0202473
-0.24608,-0.0161602
-0.0936954,-0.0144367
0.015701,-0.0429396
0.0710308,-0.0444069
0.135843,-0.0234347
0.268425,-0.00775044
0.465873,-0.00470777
0.556831,-0.00932392
0.208264,-0.00764693
-0.149078,0.0157929
-0.292539,0.0292279
-0.354411,-0.00632045
-0.206865,-0.0193535
-0.0530746,-0.00625328
-0.127855,0.0167067
-0.176342,0.0197347
-0.165337,0.0141207
-0.0129097,0.0212125
0.0926435,0.00276138
0.0665637,-0.0304707
-0.032902,-0.0119896
5.55e-05,0.00223478
0.211752,0.00903262
0.300024,-0.00587032
0.277255,-0.0183012
-0.0100227,-0.00995454
-0.318038,-0.0107257
-0.201819,-0.0200088
0.0554876,-0.0100512
0.201587,0.00830965
0.229957,0.0175367
0.143505,0.00849885
0.0210966,0.002763
-0.0608035,0.00868901
-0.328341,0.00640588
-0.622138,-0.0296783
-0.452382,-0.0163134
-0.135352,0.0121267
0.0178525,-0.0077381
0.1751,-0.0133123
0.250811,0.00616665
0.263171,0.0191207
0.238719,0.0137493
0.0416752,0.0156708
0.0123723,0.020045
0.115317,0.0239256
0.110207,0.0274806
0.098293,0.00964869
0.0501169,-0.00273669
-0.198731,-0.00256624
-0.300923,-0.00702912
-0.246678,-0.0119306
-0.25793,-0.0121695
-0.158813,-0.012535
0.0784047,-0.00736316
0.264631,-0.00830202
0.307581,-0.0184815
0.291644,-0.015592
0.0949404,-0.0174179
-0.20017,-0.00296408
-0.239705,-0.00972289
-0.0567878,0.0316704
0.172641,0.0273076
0.261806,-0.00546278
0.307102,-0.0226652
0.324148,-0.0130536
0.0800253,0.00138091
-0.407528,0.049697
-0.542204,0.034779
-0.241156,-0.00727351
-0.00411745,0.00231365
0.10012,-0.000248249
0.0258869,-0.00406545
-0.0498195,-0.0107257
0.28618,-0.0098865
0.580629,-0.00891517
0.462448,-0.00263447
-0.135493,0.00112273
-0.569948,0.00130394
-0.534712,0.00874149
-0.290285,0.0105762
-0.0242545,0.0018643
0.182611,-0.0244945
0.259144,-0.035739
0.0877606,0.00933263
-0.123253,0.00246336
-0.3266,-0.0117709
-0.333518,0.0200317
-0.0758092,0.0347632
0.109516,0.0139109
0.124117,0.00697977
0.133358,0.00789023
0.131302,0.0227124
0.0543625,0.0267476
-0.0686393,-0.00816796
-0.0897971,-0.0224216
-0.00471977,-0.0024624
0.0799544,0.00232524
0.0523248,-0.0059716
0.064122,-0.00184552
0.137337,0.00334994
0.152929,0.00312275
0.0791501,-0.00945073
-0.0815686,-0.0125705
-0.159765,-0.0180901
-0.0481786,-0.014316
0.00487333,-0.000566103
0.066921,0.00463836
0.119364,-4.21e-05
0.116941,0.00822587
0.0293495,0.00305896
-0.0965311,-0.00572947
0.0035896,0.0103057
0.122005,0.0141305
0.0115808,-0.0181556
-0.138039,-0.0210681
-0.150192,0.00318453
0.0414613,0.0167305
0.370849,-0.00114724
0.502208,-0.028681
0.287453,-0.0216387
-0.0864645,-0.0042993
-0.44974,-0.000280178
-0.695817,-0.00217642
-0.501774,-0.0101761
-0.160922,0.00505883
0.0181951,0.0270172
0.0973736,0.0217889
0.0788563,9.28e-05
0.112806,-0.000742578
0.102193,0.0142297
0.00840133,-0.000774111
0.0374257,-0.0177692
0.0181452,-0.00712289
0.0301533,0.0224783
0.341139,0.0217548
0.399654,-0.00647785
0.218698,-0.0180228
-0.0533541,0.000335913
-0.433172,0.0227141
-0.505892,0.0271356
-0.30501,0.0103786
-0.236495,-0.00918218
-0.0359572,-0.0223129
0.134164,-0.029648
0.191266,-0.0252776
0.158218,-0.0106954
0.0100682,-0.00270945
-0.0575089,-0.00449956
0.10829,-0.000761606
0.174092,0.00140955
-0.00441867,-0.00374224
-0.196782,-0.000746251
-0.15868,0.00611158
0.263978,0.0143645
0.661007,-0.010182
0.806992,-0.0336078
0.575816,-0.0324121
0.0656013,0.0183172
-0.585988,0.0383146
-0.957245,0.00127305
-0.645651,-0.0179337
-0.370264,-0.0138935
-0.222921,-0.011115
-0.0697923,-0.0110032
0.00417365,-0.00680933
-0.0105192,0.0117863
0.0792868,0.0150581
0.346019,0.0133134
0.49014,0.00556669
0.499377,0.00162794
0.198872,-0.0112437
-0.195063,-0.0174306
-0.429865,0.00752646
-0.461718,0.034575
-0.251325,0.0406467
0.0549439,0.0239918
0.272081,-0.00989452
0.386718,-0.0234622
0.435069,-0.0161223
0.118347,0.0140356
-0.225457,-0.00217196
-0.252105,-0.0190166
-0.212792,0.00562153
-0.216081,0.0159544
-0.104015,0.0109804
-0.0218326,0.0100921
0.0102506,0.0115338
0.0460418,0.0170114
-0.0103058,0.0167496
-0.0897012,0.0163563
-0.0164983,0.0205644
0.0913459,0.012161
0.172374,-0.00500318
0.204697,-0.0126332
0.0685862,-0.0167223
0.00602427,-0.0349927
0.0397889,-0.0128038
0.0757007,0.0104532
0.262897,0.00561904
0.365735,0.0122113
0.318839,0.0155801
0.150521,0.00738106
-0.339589,0.0100523
-0.636228,0.0109286
-0.467177,-0.0248058
-0.176428,-0.0188962
0.12886,0.00708472
0.36479,-0.00554625
0.435842,-0.0201456
0.311048,-0.019474
-0.347347,0.00442377
-0.447908,-0.00550882
-0.368798,-0.0244495
-0.245541,-0.0232959
-0.100376,-0.000796536
0.0150664,0.0187782
-0.0621133,-0.00433497
-0.0892569,-0.0180437
-0.100898,0.000590398
-0.0501374,0.000446274
0.0972381,-0.00755057
0.214114,0.00193673
0.219013,0.0306905
0.150929,0.0214089
0.145456,0.015405
0.171068,-2.05e-05
0.104206,-0.00749764
0.00621119,0.00340192
-0.089007,0.00754744
-0.0433006,-0.00276543
0.0469341,-0.00365107
0.0736343,0.00963641
0.131736,0.00327071
0.115689,-0.0105366
0.0381543,-0.0183857
-0.10168,-0.0176168
-0.278854,-0.00823384
-0.25694,0.00210963
-0.26075,0.0161159
-0.206906,0.0173932
0.00196773,0.0181238
0.161638,0.0223863
0.243735,-0.000460743
0.425115,-0.0170442
0.523728,-0.0173962
0.371506,-0.0358694
0.0146971,-0.0432782
-0.515869,-0.0106
-0.387972,0.0132406
0.00996321,0.0122044
0.0657199,0.00819853
-0.141452,-0.00771207
-0.434679,-0.00955777
-0.391539,-0.00538098
-0.107744,0.00186477
0.0265132,0.0152787
-0.000814116,0.0202942
0.0259557,-0.00254366
0.219733,-0.0127493
0.416631,-0.0128142
0.502717,-0.00945964
0.455888,-0.0177669
0.172198,-0.0165887
-0.277438,0.00255893
-0.552672,0.0263458
-0.542525,0.0392774
-0.28159,0.0139269
-0.115789,-0.0305692
-0.029271,-0.0207008
0.071453,0.00556347
0.119653,0.00697332
0.144676,0.0173461
0.279036,0.0290643
0.283701,0.0214453
0.1221,0.0153928
0.00580824,0.0082621
-0.199837,-0.0116593
-0.20771,-0.0221481
0.00480987,-0.0154887
0.261937,-0.007517
0.333834,-0.0150617
0.164377,-0.0137746
-0.208565,-0.00614597
-0.424024,-0.00820956
-0.197587,-0.00898097
-0.0443308,-0.00220248
-0.0432773,0.00135321
0.00438248,0.00523669
0.029882,0.0135959
-0.0153871,0.0196547
-0.0158874,0.0084386
0.0269829,0.00134111
0.0546102,-0.00752349
0.0304144,-0.00370748
-0.00297119,0.00121014
0.025357,0.00450934
0.107947,0.0142594
0.248182,0.0015019
0.39457,-0.0174338
0.199458,-0.0136208
-0.0948298,0.0121602
-0.234361,0.0218364
-0.292093,0.0116915
-0.189667,0.0128759
-0.0858295,0.0273832
-0.0620432,0.025146
0.0567875,0.0152862
0.145975,0.0133943
0.133918,-7.07e-05
0.0674739,-0.0147192
-0.0469064,-0.0174247
-0.146873,-0.00175696
-0.203678,0.0115328
-0.170249,-0.00515697
-0.0433297,-0.0446665
0.0392866,-0.0342221
0.03826,2.94e-05
0.0359204,-0.0116114
0.0410262,-0.00370518
0.0204997,0.00784129
0.0148837,0.0100546
0.0281966,-0.00202132
0.0173129,0.0118724
0.0396061,0.015803
0.0972058,0.0146966
0.144321,0.00839592
0.120345,-0.0104922
0.060921,-0.0207053
-0.0275403,-0.00463897
-0.0850591,0.0105624
-0.0373074,0.0102474
-0.0433813,0.00858072
-0.0995599,0.00379261
0.0178816,-0.00612027
0.129783,-0.0101933
0.0416569,-0.00695061
-0.107415,0.0148449
-0.106642,0.0238015
-0.0660918,0.0302567
-0.0651006,0.0264145
-0.10261,0.0164633
-0.0218811,0.0208751
0.0778442,0.0038077
0.0391021,-0.0188802
-0.0334509,-0.0528729
-0.00758419,-0.0666163
-0.0537727,-0.0545974
-0.101253,-0.0376748
-0.0212034,-0.00692833
0.0350534,0.00607439
0.0629945,0.010875
0.0822858,-0.00335326
0.0808895,-0.0150776
0.0468347,-0.0165562
0.0250571,-0.000775525
-0.0151189,0.0121468
-0.0384541,0.0301231
-0.0324296,0.0212288
-0.00217151,-0.0313384
0.0200926,-0.0144049
0.0445204,0.0235265
0.0842938,0.0255493
0.158961,0.0283241
0.210066,0.0253705
0.148397,-0.0131215
-0.0676085,0.00276386
-0.288919,0.0129282
-0.223998,0.0102899
-0.0352698,0.0107504
0.0531581,0.0126834
0.0779645,0.0248118
-0.0413708,0.0328636
-0.0167404,0.00966557
-0.0092046,0.00403557
-0.0786297,-0.0160514
-0.0482758,-0.0449099
-0.0596587,-0.0578678
-0.0992774,-0.0370294
-0.0104664,-0.0189687
0.123392,-0.0309299
0.198048,-0.0361224
0.0584282,-0.0311459
-0.151729,-0.0310781
-0.128248,-0.0269393
-0.0740607,-0.0225718
-0.0555907,0.0107827
0.0353737,0.0261458
0.203548,0.00459175
0.448241,-0.0276839
0.494449,-0.0489625
0.235993,-0.00561602
0.00972334,0.033225
-0.249048,0.020394
-0.47529,0.0064255
-0.502563,0.0330018
-0.408906,0.0745516
-0.242474,0.0869028
-0.103973,0.0739766
0.0332392,0.0454207
0.134523,0.0325769
0.166129,0.0127178
0.1591,-0.00424331
0.066941,0.00339684
-0.0520153,0.0141423
-0.014998,0.00866353
0.0370681,-0.0251666
0.000227137,-0.0357081
-0.00587807,-0.0143078
0.0588131,0.00159967
0.136091,0.00183968
0.0980136,0.00386843
0.0159747,0.0192777
0.0273436,0.0132923
0.0901519,-0.00259856
0.130076,-0.000344294
0.0776654,-0.00057157
-0.0328743,-0.0337486
-0.0701641,-0.0696683
-0.110732,-0.0407991
-0.0453877,-0.0212237
0.226326,-0.0166281
0.361312,0.00600604
0.188516,-0.0100086
-0.169895,-0.0184125
-0.51485,-0.0196204
-0.46897,-0.01596
-0.152057,0.00743921
-0.00260381,0.0227788
0.0188866,0.0353009
0.0308683,0.0515649
0.163626,0.0521523
0.358899,0.0391877
0.541958,0.00681785
0.53351,-0.0214856
0.214969,-0.0406999
-0.0992854,-0.0465149
-0.367163,-0.0251749
-0.527952,-0.00402736
-0.321409,0.00403978
-0.0999955,-0.0107574
-0.125562,-0.0092261
-0.13733,0.0152191
-0.117345,0.0161191
-0.0887787,-0.00524705
0.00424812,-0.0279265
-0.0216092,0.00324842
-0.028618,0.0365872
-0.0238454,0.0332594
-0.0244801,0.0237202
0.0297743,0.00464906
0.0518593,-0.0173894
0.162433,-0.0109018
0.173447,-0.0330665
0.216051,-0.046228
0.199285,-0.0136748
-0.081605,0.0163425
-0.216663,0.0252319
-0.0351309,0.0216207
-0.0873082,0.00851584
-0.107488,-0.00560009
-0.00202739,-0.00402071
0.00159895,0.00992002
0.0122954,0.0357806
0.126164,0.0719662
0.193132,0.0517984
0.192521,-0.00121798
0.108565,-0.0264698
-0.073061,-0.02506
-0.170464,-0.0723391
-0.181436,-0.0761413
-0.16225,-0.0319788
-0.0498063,-0.00760153
0.046544,-0.0062696
0.0731545,-0.0333252
0.0442228,-0.0315387
0.0168783,-0.00417751
0.0254627,0.00573667
0.0054007,0.0380447
0.0761229,0.0543866
0.391563,0.0369857
0.542037,0.0103574
0.387347,0.0093101
-0.107348,0.0127031
-0.499994,0.00641079
-0.43026,0.0108614
-0.223943,0.0308695
0.0201727,-0.00677506
0.104393,-0.0418039
-0.1572,-0.011224
-0.268947,0.000235909
-0.117777,-0.00229858
0.0397165,0.0113837
0.226558,-0.00880581
0.434256,-0.0597571
0.515297,-0.0878074
0.223195,-0.0745373
-0.379169,0.0261655
-0.745606,0.0595961
-0.52212,0.0303482
-0.227516,0.0317378
-0.0431571,0.0303698
0.120695,0.0243803
0.229067,0.0293458
0.200818,0.00836469
0.0601603,0.00717103
0.119432,0.00816885
0.136905,-0.0046712
0.0873999,-0.00248222
-0.0299522,0.00113502
-0.175656,-0.00286105
-0.122901,0.00254072
0.0178471,0.000587649
0.0436732,0.00465877
-0.00618008,-0.00190963
-0.0809346,0.0117412
-0.0814957,0.0379905
-0.000496692,-0.00185851
0.0367202,-0.0269498
0.0899783,-0.0718745
0.10132,-0.0709446
-0.00187419,-0.00269325
-0.0416642,0.0307399
-0.0138923,0.0353912
0.0442269,0.0193132
0.0832816,-0.000633904
0.102999,-0.00109149
0.0297123,0.00343698
-0.123783,0.00938028
-0.0661726,0.011367
0.30749,0.00174246
0.538871,-0.00472223
0.324452,-0.0206434
-0.0577506,0.00158755
-0.43609,0.00189259
-0.384153,-0.0197927
-0.0927451,0.00843106
-0.0934702,0.0491802
-0.0725907,0.0406905
-0.104765,-0.00472235
0.106864,-0.00258826
0.510846,-0.0387169
0.541577,-0.0452114
0.158606,-0.00368276
-0.335322,0.0189542
-0.526995,-0.0356316
-0.503468,-0.0453383
-0.347359,-0.0149589
-0.21678,-0.00737776
-0.0704978,0.0244602
0.100026,0.0139315
0.280428,0.0228315
0.262536,0.0195966
0.120777,0.0167233
0.0415262,0.0135175
-0.0263982,0.00195857
-0.0318989,-0.00510332
-0.0600373,0.00831765
-0.129084,-0.0324927
-0.0925568,-0.0194828
-0.048461,0.0112187
-0.0215568,-0.0471875
0.0149605,-0.0444187
0.0594209,0.0239468
0.177011,0.0421245
0.22149,0.0181754
0.131501,0.0374348
-0.099898,0.0818561
-0.177641,0.0453476
-0.116501,-0.0340662
-0.0535722,-0.0468783
0.0569852,-0.0192987
0.20422,-0.0217297
0.308489,-0.0178918
0.225433,0.00291969
0.0107533,0.00191707
-0.173344,-0.0237863
-0.193107,-0.0152568
-0.117859,0.0189523
-0.107798,0.0114182
-0.11959,0.0374587
-0.0732478,0.0454348
-0.00756491,0.000476449
0.10349,0.0310922
0.272357,0.0472892
0.257624,-0.00638103
0.136282,-0.0614032
0.0125645,-0.0382379
-0.177735,-0.0614494
-0.17629,-0.0579801
-0.130318,0.00150967
-0.133706,0.0335729
-0.0291461,0.0388629
0.110645,-0.0301475
0.172319,-0.0228102
0.137367,0.0432627
-0.00429569,0.0150037
-0.198185,-0.0506612
-0.19323,-0.0811562
-0.0534648,0.0165547
-0.0505644,0.0860816
0.0408651,0.0474676
0.202257,-0.0288382
0.168017,0.0112444
0.0421546,0.0273481
-0.113978,-0.0119252
-0.20541,-0.0232535
-0.135836,0.0269498
-0.0556807,0.0393923
-0.00747586,-0.0272124
0.0411915,-0.0193
0.0069271,0.0224268
-0.0384666,0.0109795
0.0312832,0.00436745
0.232878,-0.0366855
0.46311,-0.0696002
0.443586,-0.0515553
0.156009,-0.022695
-0.191362,0.0239509
-0.50061,0.0364622
-0.501584,0.0307504
-0.22142,-0.0129394
0.0196568,-0.0319388
0.11819,0.0120387
0.0995419,0.0312648
0.018406,0.0296427
-0.0263547,0.0221726
-0.122029,0.0230224
-0.131806,0.0299509
0.000886601,0.0161013
0.12421,0.00686729
0.199808,0.0197544
0.133178,0.0157754
-0.0130723,-0.0169294
-0.0328266,-0.0154538
0.0089769,-0.0184938
0.15173,-0.0207754
0.264091,-0.0125981
0.0708854,-0.00409513
-0.290268,0.00149625
-0.392488,-0.0382713
-0.257411,-0.0966317
-0.126157,0.017027
0.0171327,0.0692908
0.125466,-0.00584753
0.108808,-0.0203332
0.0365354,-0.00890047
-0.0848832,0.0207635
0.000918557,0.0177151
0.116138,-0.00173879
0.235646,-0.0149037
0.192098,-0.00786606
-0.088204,-0.0233805
-0.289468,-0.0218617
-0.188284,0.00222525
0.0842755,0.0116985
0.396194,0.0341508
0.521174,0.051668
0.437966,-0.010122
0.110445,-0.0354031
-0.284565,-0.0165721
-0.367513,-0.0051453
-0.29689,-0.0056652
-0.358746,0.0270361
-0.190617,0.0350205
0.134308,0.0150124
0.228253,-0.0261094
0.112293,-0.0249732
-0.134457,0.00210925
-0.251339,0.0181278
-0.0249219,0.0175673
0.105966,-0.000385125
-0.00420292,-0.0254966
-0.222441,-0.0363482
-0.176404,0.00770815
-0.00284151,0.0326706
0.0450373,0.0258256
0.0910137,0.028366
0.0944931,0.0139793
0.0574095,0.00676651
0.0433847,0.0256174
-0.0130807,0.00812679
-0.0219818,-0.0509949
0.0468893,-0.022485
0.108556,-0.0333538
0.171814,-0.0507647
0.257856,-0.0162341
0.200692,-0.0119728
0.223424,-0.0274629
0.271728,0.0038631
-0.0382985,-0.0330428
-0.234937,-0.0694734
-0.311628,-0.0424518
-0.278251,-0.0164951
0.0107481,0.0173011
0.144257,0.0290029
0.0587156,0.00815174
-0.106281,0.0443362
-0.350902,0.0438266
-0.388527,-0.00751574
-0.275021,-0.0526497
-0.058529,-0.0176227
0.0769457,0.0593756
0.111123,0.0992818
0.0462619,0.0986916
0.0224877,0.0739917
0.0409225,0.0644216
0.0457953,0.0790515
0.232166,0.0977143
0.314009,0.0695114
0.151192,-0.0296231
-0.067458,-0.0667626
-0.169136,-0.119005
-0.129906,-0.122967
-0.0457802,-0.0396611
0.241564,0.00884222
0.428634,0.00890657
0.318462,-0.00646937
-0.0741631,-0.0189868
-0.185672,-0.00455702
0.199722,0.0173189
0.277009,0.0179767
0.0828518,-0.0480496
-0.243375,-0.0060748
-0.416877,0.067956
-0.336626,0.0638262
-0.348242,0.0177271
-0.244012,-0.0476555
-0.0480814,-0.0804289
0.020206,-0.0931147
-0.0761269,0.00834028
-0.1483,-0.0109865
-0.106875,-0.0733801
-9.62e-05,-0.0289768
0.0716707,0.0461135
0.0361751,0.0624641
-0.0234472,0.0437997
-0.0789775,0.0289965
-0.0233577,0.00411836
0.129601,-0.0703834
0.170993,-0.00545603
0.25032,0.0653842
0.39891,-0.00630462
0.432113,-0.0263243
0.413871,0.0141077
0.24973,0.0520418
0.155142,0.0584544
0.087163,0.010831
-0.178774,-0.0900831
-0.366568,-0.11242
-0.243629,-0.0740844
-0.362444,-0.0897248
-0.519363,-0.102509
-0.42817,-0.0740534
-0.298351,0.0532484
-0.161512,0.0879094
0.0846205,0.0755767
0.395863,0.0500235
0.859106,0.0230915
1.04098,0.0185055
0.764427,-0.0284554
0.053744,-0.0285206
-0.743532,0.0493962
-0.964101,0.046025
-0.738336,-0.0217875
-0.445236,-0.00803009
0.113279,0.0214197
0.281527,-0.0324167
0.104414,-0.0758109
0.00882595,-0.0541701
-0.150297,0.00208428
-0.286726,0.0581064
-0.175566,0.0849887
-0.0186716,0.0874158
0.0538021,0.0883312
0.136877,0.08452
0.215172,0.0499404
0.227258,0.00367547
0.158411,0.0204161
0.00302655,0.00675704
-0.105629,-0.0359071
-0.0734992,0.0478938
-0.0346659,0.0480372
-0.0671641,0.0210185
0.0321833,-0.0109184
0.137056,-0.0933502
0.082406,-0.0371406
-0.0420116,0.026211
-0.0800207,0.0659463
0.0081739,0.03546
0.0852031,-0.0167293
0.122758,-0.0702956
0.0641738,-0.0467417
-0.0662448,0.012454
-0.0591993,-0.000259977
0.0415599,-0.0507999
0.247184,-0.071978
0.382893,-0.0567487
0.469547,-0.0364342
0.678778,0.007771
0.629521,-0.000588227
0.242738,-0.015098
-0.0628787,-0.0589932
-0.609281,-0.0138995
-0.777246,-0.0192079
-0.515531,-0.0195663
-0.52162,0.0321231
-0.440519,0.0411118
-0.127509,0.0190678
0.0128507,-0.0141994
-0.130452,-0.0280298
-0.259096,-0.0611135
-0.225049,-0.0260465
-0.0688632,0.0312436
0.164681,-0.00239943
0.295768,-0.00266787
0.205109,-0.0240247
0.161047,-0.0463307
0.190589,0.0118911
0.109387,0.0679474
0.0753956,0.0597599
-0.0262682,0.0345985
-0.224421,0.0264302
-0.209944,0.00564952
0.0191513,-0.0244128
0.135706,-0.049536
0.0784541,-0.0194593
0.0123468,0.0142581
-0.10397,0.0030959
-0.148341,0.0139429
0.0195203,0.026009
0.270345,0.0105925
0.400136,0.0376248
0.284876,0.110486
0.0887781,0.121523
-0.108884,0.0563431
-0.255286,-0.0757501
-0.315285,-0.097952
-0.23847,-0.0839973
-0.0422477,-0.0935462
0.126797,-0.0447996
0.352668,0.00425394
0.584281,-0.00520898
0.563268,-0.0197081
0.290443,-0.0223306
-0.338737,0.0287072
-0.824021,0.00385729
-0.582217,-0.0697246
-0.315429,-0.0498969
-0.322355,0.040733
-0.177172,0.120839
0.0362081,0.0747135
0.0704837,0.00258744
0.0264471,-0.0144759
0.0320807,0.025955
0.224097,0.0203458
0.550505,-0.00347867
0.713656,-0.0193208
0.587857,-0.0488443
0.151098,-0.074239
-0.480498,-0.0596479
-0.715286,0.0135192
-0.597042,0.0193664
-0.382417,0.0491815
-0.0397178,0.106027
0.0890036,0.088162
0.00622773,0.0409588
0.0530523,0.0210723
0.059913,-0.0204708
0.0420936,-0.0345754
0.0674161,-0.027022
0.178609,-0.0171063
0.320899,-0.0160635
0.379927,-0.0284403
0.166907,0.000311061
-0.19292,0.0112949
-0.169446,-0.0183007
0.223608,0.0113489
0.498955,0.057602
0.499898,0.0577145
0.086461,0.0159129
-0.39405,-0.0435327
-0.539548,-0.0930563
-0.547082,-0.166698
-0.395411,-0.0770403
-0.154468,0.0947625
-0.0646984,0.121732
-0.0438339,0.0412658
0.00282785,-0.0101148
0.0552478,0.0149096
0.0549688,0.0272003
-0.0232946,0.0146944
-0.0874016,0.0107091
-0.000276407,-0.000680242
0.112172,-0.00759213
0.12367,0.00474289
0.0455698,0.0233013
0.133372,0.0147833
0.601983,0.00509289
0.72657,-0.021462
0.370484,-0.0157158
-0.336292,-0.0336027
-0.7458,-0.0269414
-0.337465,-0.05901
0.0495205,-0.0465206
0.126391,-4.15e-05
0.015628,0.00747716
-0.179873,0.00297031
-0.337481,0.00308734
-0.364371,0.0064322
-0.254812,0.00176579
-0.105527,0.00804205
0.0494849,0.0100837
0.198254,0.0205848
0.33764,0.0454607
0.400526,0.0458534
0.372325,0.0183145
0.190746,-0.0645848
-0.0721857,-0.0376956
-0.0665175,-0.0178261
0.130187,-0.0622019
0.188675,0.0106904
0.110408,0.0347258
-0.218564,0.00981005
-0.42723,0.0246679
-0.309062,0.00999638
-0.118783,-0.0517979
-0.00345865,-0.00784638
0.0726225,0.0240276
0.0148075,0.0213676
0.0484893,0.0464736
0.0716305,0.0603231
-0.0232505,0.048066
-0.0144349,0.0427639
-0.0638057,-0.0206893
-0.0253107,-0.0587316
-0.00659674,-0.0688372
-0.0232319,-0.0449017
-0.0302155,-0.00919301
-0.0716099,0.0011426
-0.0803611,-0.00170329
-0.0283026,0.0363068
0.0163171,0.042598
-0.0292048,-0.0336828
-0.125349,-0.0743503
-0.0425049,-0.0482802
0.112711,0.00765096
0.163135,0.0453411
0.0552507,0.0424576
0.0741747,0.0103522
0.192407,-0.0677562
0.174074,-0.0824896
0.105367,-0.00307178
0.0939768,0.0374711
0.0614115,0.0522088
0.0479958,0.0322602
0.0745676,0.0612377
0.175428,0.0573402
0.186971,-0.0372661
-0.140211,-0.101098
-0.46185,-0.0329
-0.42047,0.0180684
-0.17446,0.00458823
-0.0540186,-0.0101641
-0.148269,-0.0512251
-0.318059,-0.0463162
-0.262644,0.0540553
0.0117457,0.0706898
0.229399,0.0378116
0.244895,0.00571299
0.105372,-0.0181587
0.13977,0.0089352
0.693405,0.0113927
1.10708,-0.0158453
0.912704,-0.0110763
0.184542,-0.00345487
-0.738235,-0.0026234
-0.981485,0.00869766
-0.796222,0.0127883
-0.613071,-0.00559993
-0.302839,0.0212486
-0.0701413,0.0237493
-0.00728362,0.0379162
0.0349312,-0.020082
0.0836499,-0.0278528
0.106511,0.0302608
0.103452,-0.0124095
0.0348812,-0.0148448
-0.0358561,-0.00929585
-0.00942813,-0.0319587
0.144054,-0.0293979
0.113863,-0.0150788
-0.00964301,-0.0535401
0.101057,-0.0197869
0.237876,-0.0212394
0.24607,-0.0548817
0.0805609,-0.0294964
-0.0423048,0.0662381
-0.0302158,0.0863734
0.00832612,0.0526364
0.0223578,0.0380446
0.0617146,0.0448645
0.0700782,0.0294499
-0.10841,0.0229729
-0.287664,0.0358023
-0.217298,0.0322002
-0.093806,0.00333817
-0.0516064,-0.0299471
-0.0649418,-0.0447925
-0.0667326,-0.0277675
0.00348226,-0.0337263
0.0996619,-0.0354075
0.424777,-0.0644714
0.431052,-0.0646342
0.233313,0.00230006
-0.0576003,0.119434
-0.190978,0.135745
-0.145683,0.0276789
-0.0759555,-0.086162
-0.0892468,-0.163145
-0.0743998,-0.139775
-0.0123474,-0.00928591
-0.00673961,0.0529473
0.0417866,0.0408135
-0.0582849,-0.00414233
-0.239165,0.0143847
-0.151414,0.0454655
0.0289083,0.0378855
0.115613,0.0329518
0.163509,0.0321286
0.219928,0.0393898
0.136442,0.0219763
0.0513097,-0.00326779
-0.0306676,-0.0100512
-0.150244,0.0158447
-0.236524,0.0203078
-0.233017,0.0212389
-0.0999912,0.0120741
0.117281,-0.00586786
0.20806,-0.025467
0.125169,-0.00896169
0.0527785,-0.0108534
-0.0783155,0.0142311
-0.184116,-0.0110479
-0.0991073,-0.03522
0.00780809,-0.0213197
-0.0166063,-0.00159285
-0.0535949,0.0101432
-0.0629351,0.0271079
0.0512888,0.0360945
0.200182,0.0239077
0.125687,-0.00991386
-0.0206479,-0.0896128
0.0115196,-0.111336
0.118268,-0.0306117
0.192621,-0.0128536
0.24551,-0.0718539
0.0794161,-0.070419
-0.354735,-0.0067731
-0.445801,0.0498835
-0.0945822,0.0907497
0.208919,0.0439416
0.353806,0.0363414
0.307729,0.0223169
0.142082,-0.0415965
-0.00495063,-0.0678536
-0.146581,0.0787017
-0.169189,0.0882453
-0.267771,-0.000953707
-0.348799,-0.0362155
-0.18462,-0.0468386
-0.0953285,-0.0243975
-0.11539,0.017114
-0.114164,0.032
-0.0738479,0.0484817
-0.0391368,0.0689063
-0.0826902,0.0323411
-0.0302173,-0.00640171
0.147694,-0.0134151
0.175178,-0.0193515
0.195561,-0.0129172
0.247149,-0.023476
0.222021,-0.013466
0.0645426,0.00999205
-0.0883318,0.0198036
-0.0240062,0.0123052
0.107737,-0.00582992
0.118674,-0.0339074
0.0451608,-0.0510569
-0.0776781,-0.00311625
-0.0882392,0.0224487
-0.0327188,-0.00999792
-0.0255552,-0.0594927
-0.0851326,-0.000256097
-0.136446,0.0281354
-0.068251,0.0254901
0.0240361,0.00456087
0.0672289,0.00110391
0.0839525,0.034781
0.0546836,0.0232127
0.0220714,-0.00127995
0.109043,-0.00777436
0.250808,0.0119196
0.392281,-0.000816124
0.36546,-0.0321811
0.0419374,-0.0374164
-0.312622,-0.0664299
-0.42158,-0.0567778
-0.360321,0.0280341
-0.282955,0.0630858
-0.199648,0.0382983
-0.0941296,0.00489208
0.00850138,-0.0499867
0.021822,-0.0390196
0.00899948,0.0251753
0.00476811,0.0358621
-0.00917902,0.0484078
-0.0253933,0.0357932
0.0703658,0.00458289
0.18308,-0.00846007
0.13223,0.00574047
-0.0172254,-0.0245498
-0.0515052,-0.0147078
0.126839,0.0317334
0.342914,0.0391219
0.265517,0.0226943
0.0786438,-0.0056134
-0.0383467,-0.0392706
-0.215081,-0.0401561
-0.110544,-0.0145735
-0.0242428,-0.0286649
0.0759953,-0.0114018
0.19587,0.0220637
0.0995744,0.0289065
-0.235514,-0.0309178
-0.437906,-0.0663092
-0.363412,0.00601723
-0.308244,0.0201984
-0.216717,0.00563654
-0.0900753,-0.00905946
0.10198,-0.0188088
0.368685,0.0375352
0.504508,0.0467929
0.538638,0.0151623
0.464685,-0.0406131
0.0412428,-0.0183221
-0.284044,0.0440673
-0.49276,0.0369004
-0.569357,0.00311018
-0.336234,0.0170959
-0.0951737,0.0367137
0.130037,0.0158829
0.284602,-0.0219039
0.278518,-0.0688712
0.0665378,-0.0553165
-0.220307,-0.00282888
-0.216954,0.000152443
-0.0403633,0.00766528
0.0172904,0.0182519
0.0451077,0.00755495
0.0392734,-0.00967153
-0.0738252,-0.0164949
-0.100209,0.000429019
0.17413,0.00860581
0.547481,-0.00287443
0.63114,0.00332049
0.463131,0.0139164
0.177029,0.00760614
-0.225718,-0.00292053
-0.329419,0.00948052
-0.215632,0.0181904
-0.379663,0.0192608
-0.413511,0.0239341
-0.23945,0.038422
-0.105596,0.0163793
0.00870413,-0.0136091
-0.0370088,-0.0198908
-0.0270342,-0.0391854
0.105414,-0.045581
0.1047,-0.0355308
0.031863,-0.020552
-0.0252619,-0.0158226
-0.0539264,-0.0545128
-0.0176143,0.00720137
0.081422,0.0558937
0.112892,-0.0171025
0.00765603,-0.0245953
0.0404391,-0.00457609
0.269486,-0.00828542
0.302462,-0.0366234
0.20067,0.00812679
-0.0515795,0.0142619
-0.305358,-0.0241948
-0.303525,0.0248232
-0.128216,0.0268341
0.0792025,0.0160471
0.173005,0.0215661
0.0565412,0.0140012
-0.181507,0.00104155
-0.219186,0.0432529
-0.0255505,0.0652239
0.107631,0.037084
0.143298,-0.0119737
0.164457,-0.0652422
0.116704,-0.0411132
0.0100525,0.0690647
-0.0205805,0.055387
-0.0608316,-0.0181822
-0.158527,-0.0954833
-0.146029,-0.0599096
-0.0195121,0.0234112
0.0300685,0.0428391
0.0420871,0.012127
0.000883353,0.0148272
-0.0902447,0.0459737
-0.08292,0.0261317
-0.0189858,-0.0146102
0.0590306,-0.0571
0.118356,0.000210557
0.116876,0.0474818
-0.00446555,0.0289104
-0.136864,-0.0188383
-0.0732126,-0.0474017
0.0980472,-0.0281344
0.209448,0.010457
0.218788,0.00345471
0.107347,-0.0206687
-0.00792184,-0.02692
-0.0291367,-0.0204188
-0.0744347,0.00980824
-0.183207,0.0417629
-0.242649,0.0503852
-0.140063,0.026466
-0.111388,-0.00425111
-0.0786454,-0.010195
-0.000222558,-0.0171825
0.0682828,-0.000570443
0.187451,-0.0192759
0.304904,-0.0155371
0.26633,-0.00962344
0.119544,-0.0616039
-0.164167,-0.0183557
-0.407713,0.019169
-0.259747,-0.0184116
-0.0432695,-0.0176006
0.0691808,0.0407641
0.212707,0.0235315
0.234777,-0.0234342
0.120513,-0.0841197
-0.0493114,-0.0429072
-0.197888,-0.00477741
-0.156828,0.0202595
-0.0737044,0.0790969
-0.0636504,0.0801316
-0.0602764,0.032568
-0.0154305,0.00668838
-0.0262784,0.0126746
0.00116667,0.0220001
0.0663471,0.0145519
0.144915,-7.23e-06
0.227752,-0.0172689
0.275055,-0.0646971
0.14211,-0.0654168
0.0600549,-0.0101493
-0.0280449,0.00577321
-0.122844,0.0413694
-0.161686,0.0358731
-0.291664,0.0308863
-0.279008,0.00158053
-0.0362601,-0.0584175
0.147976,-0.0100119
0.309511,0.0090177
0.321019,0.0140661
0.106865,0.00437662
-0.125657,-0.00799369
-0.384383,-0.0132125
-0.457646,-0.0169213
-0.278447,-0.0173432
-0.111624,-0.0328983
0.0640044,-0.016524
0.239494,0.0324594
0.285425,0.0318229
0.202695,0.0131695
0.0637532,0.0102096
-0.0322797,0.0244091
-0.0945785,0.0416256
-0.134497,0.0335781
-0.116767,0.0214917
-0.10882,-0.019889
-0.0829634,-0.0452501
0.0492435,-0.0305658
0.290929,-0.0198269
0.513476,-0.00623619
0.481176,0.0213624
0.205113,0.0178445
-0.196344,0.0164129
-0.232095,0.0339784
-0.197562,0.00572511
-0.292619,-0.0144184
-0.344408,-0.0382158
-0.354698,-0.051082
-0.224345,-0.0489251
-0.0701234,-0.0834542
0.167024,-0.0600255
0.537049,0.0137547
0.625707,0.0742859
0.451756,0.0677612
-0.0055911,0.0445278
-0.207103,0.0216099
0.194755,-0.0109859
0.303344,-0.00345908
0.0157055,0.0033097
-0.390215,0.00447168
-0.479823,0.00913378
-0.396714,0.0253834
-0.475999,0.0252042
-0.296597,0.0208007
0.0400259,-0.00975237
0.351825,-0.0314518
0.505808,-0.0103109
0.387028,0.00669579
-0.0269646,0.020845
-0.505303,0.0165012
-0.592761,0.0217686
-0.28875,0.0305015
-0.0359695,0.0130063
0.0541877,-0.0280357
0.101321,-0.061869
0.172397,-0.0801708
0.181868,-0.0124369
0.186538,0.013544
0.171046,0.0206084
0.108776,0.0239325
0.0746486,0.0112971
0.0857923,-0.00704201
0.0530557,-0.0501957
-0.00211654,-0.0349679
-0.0411357,-0.0207191
-0.129737,0.00728691
-0.0520222,-0.0180498
0.0476683,-0.0420458
-0.0227351,-0.0262107
-0.034966,0.0122042
0.124249,0.0396436
0.305615,0.0217525
0.309261,-0.00147182
0.156126,0.0107528
0.0633356,0.0102832
0.0637857,0.0125034
0.0752069,0.0103077
-0.124498,0.014762
-0.395493,0.0304396
-0.418535,0.0402759
-0.250623,0.0231099
-0.141587,0.0116278
-0.134903,0.00126428
-0.0948556,0.0395362
-0.0340152,0.0360753
0.00257477,0.0192387
0.00860684,0.00332258
0.0103809,-0.0171042
-0.0131494,-0.0303668
0.0233785,-0.0393378
0.172254,-0.0560258
0.224706,-0.0345563
0.158047,-0.0229798
0.128316,0.00782622
0.184413,0.0233454
0.297836,-0.0202936
0.265288,-0.0815549
0.0361674,0.00514356
-0.156192,0.045382
-0.244896,0.0059294
-0.204763,0.0109908
-0.23353,0.0298622
-0.282074,0.0147656
-0.115003,-0.0114794
-0.0578332,-0.0305143
-0.0664851,-0.0224565
-0.0185381,-0.00566681
-0.00451187,0.00666536
-0.00908068,0.00493543
0.193747,-0.0078398
0.367458,-0.00621702
0.30338,0.00671634
0.130019,0.0189158
-0.0808326,0.00917534
-0.128933,-0.0131738
-0.252237,0.0271923
-0.322828,0.0541389
-0.194448,0.0381551
-0.0695636,0.0243977
-0.0644957,0.00667306
-0.0399296,-0.0147949
0.018204,-0.0199747
0.116535,-0.00820398
0.189497,-0.00223054
0.181657,-0.0242687
0.0692409,-0.0300826
-0.0204137,-0.0451173
-0.0534105,-0.0239236
-0.0042115,-0.0146991
0.0164951,0.0153266
-0.0344533,-0.015485
0.11866,-0.0487793
0.363699,0.0264936
0.393679,0.0457787
0.313081,0.0127675
0.00391255,0.0224812
-0.267297,0.00675785
-0.232229,-0.00894494
-0.157863,-0.0340091
-0.228994,-0.0311729
-0.276339,0.000752676
-0.244737,0.0158013
-0.17712,0.034686
-0.058118,0.0204816
0.0952374,0.0393888
0.0960085,0.0404935
0.0677037,0.00827413
0.0147501,0.0015949
-0.0876381,-0.0124138
-0.116141,-0.00848102
-0.0280399,0.0178514
0.154481,0.00215621
0.30022,-0.00452128
0.298636,-0.00194505
0.161797,-0.038587
-0.00558901,-0.143726
-0.045291,-0.0611852
0.0695844,0.0802164
-0.0281688,0.0698929
-0.244243,0.0213539
-0.225388,-0.0140997
-0.0810614,-0.00694335
-0.0577164,-0.0282722
-0.0607823,-0.0255514
0.0399754,0.0149207
0.186743,0.0210265
0.201406,0.0261518
0.235992,0.0285185
0.236109,0.0175382
0.0925393,0.00949054
0.0296752,0.00321007
-0.290564,-0.0101738
-0.608612,-0.0190497
-0.383085,-0.0295502
-0.071205,-0.0453667
0.011156,-0.0419279
0.0193857,-0.00450671
0.0712823,0.0064255
0.120047,0.0377226
0.196113,0.0434522
0.274787,0.0235016
0.263341,-0.00164435
0.166359,-0.0129556
0.041053,0.0144354
0.0399172,0.0279138
0.21113,0.0211378
0.231549,0.00549566
0.0169423,-0.011316
-0.415331,-0.0198367
-0.654857,-0.0232615
-0.415732,-0.00164602
-0.0805273,0.0184123
0.0564371,-0.0157899
0.0705863,-0.0581742
-0.038942,0.011863
-0.0650286,0.0607652
0.00659178,0.0376644
0.0695251,0.0107981
0.121077,0.00138807
0.16491,-0.000382202
0.160608,-0.00372749
0.0661679,-0.00269559
0.0903524,-0.00837188
0.120102,-0.00347095
0.0168464,0.0134705
-0.0436353,0.0235507
-0.0498519,0.0352307
0.0186965,0.0424521
0.0514814,-0.043297
0.0750681,-0.183962
0.0612367,-0.205601
-0.0743125,-0.0020789
-0.260538,0.135246
-0.286068,0.0756395
-0.135256,-0.00512644
-0.0260323,-0.0217716
0.011489,-0.0226719
-0.0468374,-0.0094601
-0.124703,-0.00496542
-0.0856718,0.013428
-0.0715506,0.0308724
0.00164051,0.032856
0.109881,0.0145865
0.155957,0.0005524
0.167481,-0.00249877
0.251316,0.0226748
0.358387,0.0416924
0.339654,-0.00911303
0.171239,-0.0168539
-0.0356048,0.0221367
-0.103592,0.0328414
-0.148405,0.0167047
-0.0996021,-0.0220227
-0.0651475,-0.0279036
-0.161597,-0.0252999
-0.233246,-0.0267852
-0.295675,-0.0103927
-0.278056,0.0110263
-0.0650905,0.0105267
0.185577,0.00565144
0.323248,0.00491907
0.292573,0.0176272
0.124892,0.0211624
0.0234063,0.0358243
0.0232175,0.0195605
-0.0490526,-0.0072782
-0.252402,-0.0100005
-0.345163,-0.0106763
-0.243988,-0.0126673
-0.0245556,0.0156291
0.113528,0.0258561
0.150199,-0.0672945
0.153366,-0.179847
0.0392959,-0.0826161
-0.0733134,0.0839309
0.0205224,0.0806689
0.110973,0.0259668
0.156486,0.00714968
0.21165,0.00299444
0.14009,0.00558683
-0.0764454,0.00420193
-0.161897,-0.0354822
-0.0569586,-0.0370687
0.0251015,0.0358229
-0.0206823,0.0382362
-0.0871724,0.0135507
-0.0234875,0.00336243
0.00772888,0.00528833
-0.0741704,0.00802755
-0.111211,0.0112861
-0.0753919,0.0110447
-0.0684866,0.0103884
-0.00794831,0.00652138
0.0892632,0.00966638
0.132897,0.0114375
0.0409144,-0.00528415
-0.0973492,-0.0421888
-0.0840994,-0.0207633
0.097272,-0.00187854
0.151306,-0.026559
0.0454525,0.0115908
-0.0222517,0.000478549
-0.0858307,-0.0103847
-0.0525914,-0.00370317
0.0888042,0.00801485
0.159087,0.0196502
0.0463482,0.0121616
-0.13232,0.0115522
-0.175858,0.00505457
-0.147886,-0.00484011
-0.0996632,-0.000328961
-0.0293074,0.0203526
0.0344281,0.0195597
0.114942,0.00628466
0.155376,0.00497208
0.115929,-0.0195228
0.00608951,-0.0238699
-0.153863,-0.0113335
-0.143506,0.0178966
0.0170839,0.00814126
0.119645,-0.00906472
0.125146,-0.0358095
0.0031609,-0.0988211
-0.0487435,-0.106019
0.159959,0.036442
0.49225,0.0919418
0.53642,0.016646
0.21408,-0.0263434
-0.496916,-0.0280293
-0.78049,0.00473522
-0.370604,0.0413695
-0.114137,0.0385117
-0.0924692,0.0113772
-0.169003,0.0178123
-0.117582,0.0362713
0.11009,0.0188684
0.258079,-0.00393614
0.27625,-0.00556761
0.212815,0.00218368
0.0734762,0.00518497
-0.0528875,-0.00064968
-0.0509247,-0.00474852
0.285982,-0.00986886
0.481961,-0.0215681
0.229919,-0.0346032
-0.224838,-0.00176434
-0.566897,0.0295255
-0.498025,0.0378003
-0.349115,0.0298609
-0.169119,0.000382868
0.010792,-0.0412235
0.0866542,-0.0422484
0.0492322,0.0119048
-0.0497088,0.0173145
-0.0309818,0.00789032
0.145833,0.0139411
0.277982,0.0144373
0.217084,0.0069833
0.118159,-0.0127588
-0.0315736,-0.0154044
-0.171939,0.0185839
-0.0641786,0.0237756
0.10186,-0.0317607
0.0567991,-0.0920439
0.0150339,-0.100543
0.0179072,0.0044025
0.0429321,-0.0128292
0.0594473,-0.0108783
-0.00149919,0.0109055
-0.131604,0.00768817
-0.135251,0.0132074
0.0620534,0.0398435
0.296912,0.0327391
0.288763,0.00834508
0.0959209,0.0248811
-0.125789,0.0141858
-0.134285,0.00546037
0.0265991,0.0286082
-0.0165356,0.0317575
-0.232934,-0.00710222
-0.307379,-0.00918842
-0.169645,0.0207972
-0.0663102,0.0116282
-0.0101874,-0.0107048
0.148885,-0.0301964
0.220305,-0.0280079
0.101556,0.00943094
-0.129496,-0.00204348
-0.225721,-0.0160767
0.0192383,0.0264459
0.324527,0.0387193
0.424019,-0.010952
0.30904,-0.0321537
0.0792019,-0.0295932
-0.030478,-0.00759665
-0.153756,-0.0137057
-0.407449,-0.0242578
-0.373758,0.0108043
-0.186086,0.0295575
-0.0499104,0.0189916
0.0516199,-0.0130591
0.0847017,-0.014162
-0.0382668,0.0131941
-0.108269,0.00765143
-0.105687,-0.00120508
-0.101049,0.00564424
-0.0765284,0.0161162
-0.00425771,0.00530024
0.0782796,-0.0147698
0.126038,-0.0100784
0.193195,0.021142
0.210347,0.0411072
0.132932,0.000641891
0.109266,-0.0228427
0.133747,0.0084587
0.108441,0.0256639
0.104655,0.0171817
0.00611756,0.000976049
-0.121429,-0.0253658
-0.166424,-0.0768993
-0.119644,-0.0828882
-0.114423,0.00260661
-0.0922359,0.0471047
-0.0937865,0.0510143
-0.139716,-0.00797731
0.0221209,-0.0688006
0.303531,-0.0375217
0.468005,-0.0283589
0.374791,-0.0125829
0.0256367,0.0460199
-0.329689,0.0643721
-0.349747,0.0563964
-0.197199,0.036732
-0.176851,0.0182668
-0.0823375,0.0140624
0.0792588,0.00944122
0.073195,-0.00204408
-0.0406386,-0.00349927
-0.13908,0.00938618
-0.0231415,-0.024107
0.158284,-0.0151712
0.0679129,0.0416381
-0.0430471,-0.0230023
-0.168029,-0.0675916
-0.174474,-0.0408922
-0.0452938,-0.0478684
0.0458,-0.0191114
0.121134,0.0328575
0.116279,0.035106
0.0373543,0.014785
0.151743,0.00609791
0.478579,0.011975
0.529427,0.00557096
0.274508,-0.0172722
-0.129759,-0.00386518
-0.594984,0.0556634
-0.666517,0.0549621
-0.393485,0.020317
-0.125921,0.000318705
-0.0333825,-0.0302956
0.111024,-0.0355885
0.270474,-0.0183997
0.410378,-0.0450481
0.277404,-0.049358
-0.0898829,-0.0989716
-0.281576,-0.0892521
-0.18879,9.88e-05
-0.0306943,0.034294
0.0140435,0.059114
-0.0209988,0.0650135
-0.0140721,0.0319011
-0.0217975,0.00970576
-0.0221073,0.00255732
-0.0482458,0.0244873
-0.0581621,0.0337972
-0.0284822,0.0204281
-0.0450407,0.00770073
-0.0434494,0.00895511
-0.0310409,-0.00241517
0.0513635,0.00539227
0.224951,0.0219582
0.438088,0.0132954
0.442145,0.00481269
0.231465,-8.95e-05
-0.106862,-0.01333
-0.169205,-0.0253648
0.0786403,-0.0173336
-0.0340103,-0.0437994
-0.289467,-0.054073
-0.0156587,0.0176892
0.536024,0.0339153
0.656192,-0.00104538
0.284172,-0.00407059
-0.490159,0.0075074
-0.959323,0.0217802
-0.762079,0.0247996
-0.423332,0.0251581
-0.0643351,0.0240598
0.169388,0.013292
0.185423,0.0212058
0.0894571,0.00247729
0.0298186,-0.0340387
0.0414547,-0.0602651
-0.0747965,-0.0435845
-0.241621,0.00596789
-0.138363,-0.000476032
-0.0114539,-0.00501327
0.0305282,0.00535829
0.116422,0.00880381
0.135648,-0.00179517
0.11827,-0.00769021
0.133983,-0.0173341
0.119582,-0.0520033
0.0667536,-0.0491613
0.0913977,0.00897819
0.156352,0.0171454
0.144812,0.0115127
0.150404,0.0294318
0.165036,0.0358905
0.0612675,0.0115538
-0.0208322,0.0259217
-0.0933726,0.0507739
-0.238764,0.0357298
-0.205123,-0.0300205
-0.077196,-0.0653232
0.00250661,-0.00951386
0.0171849,-0.0248519
0.0808523,-0.0747061
0.0225759,-0.0402714
-0.0788798,0.059851
-0.0731374,0.0720085
0.0210238,0.0560617
0.177795,0.016465
0.202298,-0.0146019
0.0441461,-0.020326
-0.216275,-0.0361735
-0.275662,0.0119315
-0.176985,0.0276946
-0.0485376,0.0089032
0.0365524,0.00329939
0.120045,-0.0108065
0.125799,-0.0216219
0.0689751,-0.00257361
0.0382136,0.00195538
-0.0112629,0.00938189
-0.11229,0.00404406
-0.112672,-0.00139049
0.151995,-0.0124059
0.352857,0.0239896
0.345415,0.0131171
0.0929208,0.0120128
-0.301352,-0.019714
-0.218064,-0.0564271
-0.0508698,-0.066628
0.218365,-0.0613585
0.191597,0.0232715
-0.0956688,0.066344
-0.495796,0.0556564
-0.513942,0.0193845
-0.250447,-0.0291561
-0.0876793,-0.0148041
0.0558296,0.0217177
0.194439,0.0212661
0.167329,-0.00706387
0.0806945,-0.00611768
0.0286441,-0.0044471
-0.0159893,-0.0111101
-8.47e-05,0.00629705
0.0856645,0.0208723
0.122607,0.00819059
0.0291399,-0.0374936
-0.089047,-0.0220841
-0.114004,0.00579697
-0.0341926,0.0106535
0.00799572,0.0259215
0.00333773,0.0256598
0.00225803,0.0279797
0.0257394,0.0127459
0.0787164,-0.0228194
0.119911,0.0156768
0.0938566,0.0192799
0.0428846,-0.0506172
-0.00656662,-0.058927
-0.0769543,0.00803746
-0.0310712,0.0222976
0.0574467,0.00273432
0.0658188,0.0124823
0.0455521,0.00943542
0.0152536,-0.0550087
0.195605,-0.130454
0.399122,-0.0424389
0.349777,0.0304075
0.124784,0.0641387
-0.223568,0.073278
-0.25831,0.0261374
-0.155889,-0.0248096
-0.322714,0.000362787
-0.457625,0.029366
-0.342614,0.0375731
-0.104806,0.0217843
0.0181667,0.0153836
0.0144812,-0.00443681
-0.0606934,-0.0181658
-0.110356,-0.0331018
-0.091968,-0.0456349
-0.0379284,-0.0302035
0.0640655,0.0483898
0.241346,0.0632391
0.393242,0.0197105
0.60235,-0.0290457
0.747669,-0.0282306
0.71876,0.0124272
0.28224,0.0227376
-0.369321,-0.0149873
-0.779057,-0.00970368
-0.817841,0.0242152
-0.537373,-0.00434391
-0.228777,-0.0158849
-0.0728405,-0.0147741
-0.0112296,-0.00126255
-0.0023728,0.0161604
-0.000714722,0.0075392
-0.014283,-0.00744427
-0.029435,-0.00582803
0.0146659,-0.0230575
0.088073,-0.0526267
0.0978175,-0.0140133
0.126224,0.0127912
0.266386,-0.00268141
0.306252,-0.0178477
0.325635,0.013146
0.257434,0.0544054
-0.0617617,0.0336858
-0.217318,0.0078078
-0.168951,0.017578
-0.163687,0.0162825
-0.0353141,0.014539
-0.010121,-0.0211366
-0.0677597,-0.0852539
-0.117662,-0.04775
-0.137129,0.0110299
-0.126984,0.00530029
-0.101737,-0.00178591
-0.0500358,-0.00831075
0.0257766,-0.0258099
0.0530414,-0.0012092
0.0697063,0.0523062
0.0984508,0.0438355
0.11331,0.0112827
0.116859,-0.00282734
0.115632,-0.00355589
0.0937031,-0.0374919
0.0263042,-0.0585649
-0.00905785,-0.037535
-0.0180857,0.0216643
-0.0610118,0.0426676
-0.0769452,0.0259338
-0.074823,0.0219841
-0.108192,0.0188768
-0.0559712,-0.0135867
0.0243865,0.021898
0.0584151,0.0342024
0.0403439,0.0067508
0.0937132,-0.00318208
0.322557,-0.0223954
0.497503,-0.0192365
0.654373,-0.0149822
0.550017,-0.0163114
0.126921,-0.0211381
-0.459678,-0.0158552
-0.888875,0.00572749
-0.903708,0.0315026
-0.456727,0.0299988
-0.0682617,-0.0073234
0.0571149,-0.0349734
-0.00793236,0.0123227
-0.135454,0.0361745
-0.116812,0.0284866
0.0534875,0.0306393
0.103461,0.0383284
0.0393569,0.0391601
-0.0111778,0.00414516
-0.00983397,-0.0357843
0.105136,-0.036026
0.164894,-0.0215578
0.1069,-0.013448
0.0653065,-0.0178769
0.0867656,-0.00120131
-0.0483763,-0.00375287
-0.0389359,-0.0499344
0.140977,-0.0140036
0.254435,0.00474333
0.244753,-0.0128949
-0.0279268,0.0122581
-0.250958,0.0374201
-0.28621,0.041912
-0.238289,0.0279176
-0.0941413,-0.0154005
0.103149,-0.0453108
0.148447,-0.0189227
0.100477,-0.0159977
0.135784,0.00703618
0.0935383,-0.00141755
0.0134106,-0.0489311
0.0425672,-0.0649547
0.094516,-0.0186103
0.0783626,-0.0346199
-0.0702488,-0.0626505
-0.148861,0.0285273
-0.121385,0.0808441
-0.0916461,0.0595047
-0.0183952,0.0418616
0.0219863,0.0329706
0.0199166,0.0253033
-0.04594,0.0198138
-0.114565,0.0124091
-0.0411059,-0.000642384
0.00637027,-0.0178245
0.00578504,-0.0165422
0.0250768,-0.0131059
0.0838816,-0.00627365
0.109228,0.0196552
0.0868593,0.0123006
0.0911696,-0.0426973
0.10092,-0.0301308
0.159552,0.0250242
0.140591,0.0444109
-0.0293433,0.0283759
-0.0606835,-0.0124249
0.013257,-0.0205878
0.0684266,-0.0130282
-0.0337994,-0.00427329
-0.165444,-0.0111813
-0.1585,-0.0425336
-0.0955859,-0.00328102
-0.0188658,0.00978332
-0.0986419,0.00792901
-0.137309,0.0194663
-0.00964397,0.0336622
0.0289244,0.0223191
-0.0724695,0.00453829
-0.219619,-0.0020272
-0.19877,0.00015351
0.00600851,-0.000558609
0.129105,-0.0571642
0.173283,-0.0996341
0.143901,-0.0504624
0.085247,0.0548151
0.13547,0.0753445
0.0971659,0.0242989
-0.132288,0.00777006
-0.172315,0.0119959
-0.0542279,-0.00521678
0.0248741,-0.00957047
0.0443663,-0.0393564
0.0417728,0.00943167
0.0990698,0.0594237
0.125825,0.0349684
0.0799431,0.00411272
-0.0919005,0.00430508
-0.21715,0.0137604
-0.160748,0.0137591
0.0116858,0.0299174
0.133768,0.0390256
0.151183,0.00261861
0.0885078,-0.0338033
0.00685311,-0.0442909
0.0428786,-0.0307406
0.144923,-0.0318381
0.130742,-0.0829254
0.0632826,-0.121601
-0.0403064,-0.100723
-0.0599556,0.0303139
-0.0658986,0.0744694
-0.196219,0.0436109
-0.307454,0.0339379
-0.213646,0.0385499
-0.0304256,0.0379455
0.157312,0.0158089
0.26835,0.00565046
0.204933,0.0117898
-0.0478092,0.0205736
-0.202087,0.00662522
-0.0986572,-0.0210119
-0.062739,-0.00950569
-0.0627764,0.00311004
-0.0839643,0.00459998
-0.00504449,0.0146372
0.135584,0.0111526
0.110777,-0.00447189
0.0596506,-0.00973969
0.117788,-0.0150099
0.1619,-0.015357
0.118425,-0.0152809
0.0402711,-0.00080743
-0.178871,0.0207295
-0.240937,0.0252269
-0.039903,0.00952311
0.102268,-0.0257435
0.102026,-0.0470402
0.0871477,-0.0197112
-0.0446453,0.0164845
-0.203236,0.0128549
-0.244692,0.0121128
-0.136436,0.0103475
-0.0110073,0.0133294
0.0448745,0.0146231
0.0658667,-0.0146076
0.106732,-0.0198922
0.0933789,0.00320447
0.00355294,-0.0150191
-0.0216306,-0.0509116
-0.106612,0.00247112
-0.157963,0.0406975
-0.0482129,0.035911
0.0522095,0.0245702
0.0619352,-0.0063697
0.0657643,-0.0348294
0.0808943,-0.0988953
0.12268,-0.0663653
0.157101,0.027366
0.189764,0.048961
0.322365,0.0223047
0.346492,0.0175332
0.19109,0.0118683
-0.157828,0.0107899
-0.39219,0.0318904
-0.289371,0.0288534
-0.214572,0.0079855
-0.233051,0.035566
-0.19616,-0.00334049
-0.0374023,-0.0242896
0.181644,-0.0293763
0.231118,-0.0152949
0.102993,0.00252965
-0.0898657,-0.00555955
-0.188828,-0.0022079
-0.195761,0.00592637
-0.158028,0.019673
-0.0596707,0.0193152
0.0178451,0.00876629
0.0438951,-0.0154176
0.184657,-0.0131642
0.449614,0.00195023
0.649988,-0.00941833
0.449918,-0.0145608
-0.129794,-0.0942487
-0.47303,-0.134121
-0.452667,0.0424527
-0.255947,0.133022
-0.0393519,0.0855318
0.0372534,0.0386871
-0.0136064,0.0179933
-0.117292,0.00696539
-0.193907,0.00888841
-0.138238,0.0133935
-0.0254212,0.0095081
0.019596,-0.0250181
0.0579296,-0.0689231
0.0110346,-0.0598309
-0.076967,-0.0249647
-0.100026,-0.0387749
0.00129712,-0.0525965
0.187618,0.0266904
0.332884,0.07023
0.311478,0.0259789
0.0892854,0.00620162
-0.206404,0.0200109
-0.212188,0.0315812
-0.0265841,0.0218474
0.0617681,0.00768338
0.0672091,-0.00026236
0.0414023,-0.00223283
0.0850834,0.0106428
0.165083,0.00782054
0.127413,-0.0169759
-0.0724095,-0.0281899
-0.253061,-0.024581
-0.269102,-0.00493686
-0.117804,0.00523719
0.128734,0.0101703
0.248766,0.00939369
0.360214,-0.00920829
0.370387,-0.0278807
0.144146,-0.013015
-0.0198516,-0.00282144
-0.24902,-0.00741385
-0.424554,-0.00612933
-0.275915,-0.00865387
-0.0927895,-0.028809
-0.0148849,-0.00333545
-0.0102521,-0.00171284
-0.0902858,-0.00954198
-0.141495,-0.00712893
-0.0566043,0.00685749
-0.00556307,0.031081
0.0309626,0.0251372
0.0877471,0.0179707
0.114684,0.000831903
0.0681408,-0.02265
0.00158474,-0.0070448
-0.0337259,0.0152676
0.00812625,0.0226054
0.138383,0.0238397
0.188595,0.00479731
0.103373,-0.0488089
-0.0137457,-0.0240826
-0.116575,0.0458806
-0.143234,0.0397796
-0.112345,0.015891
-0.100007,0.0111277
-0.0526974,0.0156519
0.0751558,0.0188632
0.278248,0.0249831
0.325625,0.0130493
0.215209,-0.0212873
0.0704273,-0.0393761
-0.0807218,-0.047504
-0.125917,-0.0443266
-0.105001,-0.0359295
-0.221275,-0.0317767
-0.293907,-0.0464537
-0.185312,-0.0546826
-0.0933843,0.0248127
-0.0381289,0.0473508
0.0124794,0.0283955
-0.0231565,0.0203312
-0.0676082,0.027262
-0.0203079,0.0254
0.0464757,0.0192427
0.15881,-0.0207416
0.311355,-0.0193358
0.406887,-0.00484001
0.292975,0.00607585
0.0511595,0.0186514
-0.206484,0.0075846
-0.286254,0.00390527
-0.0398165,0.020829
0.180598,0.0335818
0.0757131,0.00383291
-0.153775,-0.0326604
-0.22486,-0.0428064
-0.205568,-0.0294252
-0.12723,-0.0156404
0.0085894,0.00204397
0.0693743,0.000911558
0.0484882,0.0103056
0.0333606,0.0208126
-0.00536385,0.0200758
-0.0535534,0.0142515
-0.117485,0.00680643
-0.172279,0.00794719
-0.118946,0.00954042
-0.0307591,0.0118307
0.0587102,-0.0127302
0.0787597,0.00528827
0.121,0.0359646
0.36165,0.0269647
0.623032,-0.003498
0.552871,-0.0290035
0.155261,-0.0265465
-0.432391,-0.00805757
-0.682926,-0.00110593
-0.306498,-0.00536038
0.0813531,0.0274785
-0.00355339,0.00477691
-0.248575,-0.0359223
-0.243523,-0.0201967
-0.000831514,-0.00363913
0.146461,-0.019547
0.144454,-0.0189707
0.0155409,0.00580799
-0.0372825,0.00714934
0.075279,-0.0013487
0.138219,0.0106212
0.0539195,-0.00272563
-0.123998,-0.0277257
-0.223953,-0.0451611
-0.16535,-0.0145028
-0.0524664,0.0465397
0.0263971,0.0474357
0.0959943,0.0247138
0.203031,0.00792043
0.239957,0.00140564
0.274225,-0.0054313
0.304763,-0.00933748
0.195966,0.0163862
0.146791,0.0165252
-0.0382519,0.00901304
-0.26842,0.000950151
-0.0400184,-0.0107115
0.181499,-0.00993957
0.08361,-0.0127143
-0.26257,-0.00749771
-0.598088,0.00728535
-0.500415,0.00872238
-0.257389,-0.0148737
-0.112705,-0.0434797
-0.0122621,-0.0316615
0.0589882,0.0168816
0.110209,0.0154695
0.14899,0.00773168
0.190541,-0.0223953
0.215722,0.00565943
0.284724,0.0312538
0.237628,0.0223886
0.0201642,0.0107565
-0.121384,0.00680339
-0.135442,-0.0140955
-0.162112,-0.0131161
-0.187183,-0.000843755
-0.087159,-0.00862469
0.0577615,-0.000338572
0.137445,0.0106866
0.112089,0.0102931
0.0629646,0.00657935
-0.0222677,-0.00230716
-0.0678408,0.000181195
-0.0643436,0.0110888
-0.0653501,0.013079
-0.0368973,0.0195605
0.0606002,0.00714954
0.13304,-0.00883631
0.0681835,-0.00123052
-0.0775492,0.00499735
-0.130833,-0.0231552
-0.0823283,-0.0211052
0.0413935,-0.0508242
0.25147,-0.0551282
0.367571,-0.00253214
0.304737,0.0291712
0.0651166,0.0481001
-0.258802,0.0436266
-0.408065,-0.0220942
-0.305854,-0.0966403
-0.174699,-0.154569
-0.0786755,-0.0240889
0.0513538,0.108655
0.148981,0.071725
0.159838,0.0292445
0.0333167,0.0160558
0.0117469,0.00215411
0.0642977,-0.0307464
0.0315352,-0.011787
-0.012642,0.0242192
-0.00198221,0.0157031
-0.085757,0.0182737
-0.155835,0.0320161
-0.0932923,0.0229427
0.0128037,-0.00154195
0.0645583,-0.00141981
0.00604626,0.0193176
-0.000856494,0.00665298
0.000668692,0.000520699
0.0258221,0.0143537
0.149323,0.0151762
0.308189,0.00706964
0.392521,-0.0121279
0.31548,-0.025079
-0.0102921,-0.0581067
-0.351175,-0.107843
-0.290117,-0.0127866
-0.161174,0.0663376
-0.155799,0.0489536
-0.250236,0.0228626
-0.326545,0.0155861
-0.125859,0.0116778
0.00488341,0.00641966
0.0186695,0.0145982
0.0465709,0.0140141
0.093059,0.00930724
0.155241,0.00809091
0.179283,0.00774691
0.0655498,-0.00634916
-0.0632724,-0.0545219
-0.0320095,-0.0644654
0.0610107,-0.025021
0.0735141,0.00136275
0.0748427,0.0177344
0.0939498,-0.00260207
0.0433672,-0.0116286
0.0153129,0.000624525
-0.0243197,0.0182589
-0.0708275,0.012741
-0.0181382,0.00235059
0.0233263,-0.00640199
-0.0428216,0.00158378
-0.108536,0.0251147
-0.146972,0.0312492
-0.0932895,0.0249868
-0.0100737,0.0121777
0.0431973,-0.00147247
0.115166,-0.00842055
0.172341,-0.0100655
0.107056,-0.00617673
0.0638054,-0.00868068
0.0482515,-0.0158674
0.0684007,-0.0115915
0.186355,-0.0547035
0.0848979,-0.0388149
-0.162485,0.02291
-0.310383,0.0200264
-0.267483,0.0266014
-0.0888024,0.0237088
0.0138017,0.0196374
0.0554027,-0.00630647
0.0592965,-0.0388004
0.00704151,0.00326291
-0.00355284,0.0141316
0.0253971,-0.00352198
-0.032799,-0.00689041
-0.103295,0.00550137
-0.0688746,0.00604407
0.0052006,0.00116488
0.0967217,0.0100877
0.188416,0.0141233
0.171676,0.00314514
0.023177,0.00424747
-0.0481192,0.00995227
-0.0314016,-0.0237862
0.160727,-0.0702451
0.31081,-0.0453654
0.21382,-0.0313207
-0.0555841,0.0170628
-0.36096,0.0346797
-0.481439,0.0176791
-0.366105,0.00935045
-0.116347,0.0185603
0.0613571,0.0145419
0.0732177,-0.00834117
0.0974309,-0.0103582
0.25079,-0.0172044
0.397291,0.00151412
0.503601,0.00518723
0.230221,-0.0164961
-0.216634,-0.0454561
-0.388334,-0.00654119
-0.391969,0.0358382
-0.317963,0.032873
-0.163912,0.00876254
-0.00481637,-0.00170107
0.114546,0.0044184
0.170363,-0.00101465
0.03543,-0.0108517
-0.0325634,0.0154623
-0.002612,0.0244018
-0.0764411,0.014339
-0.106016,0.0208334
-0.0794928,0.0286404
-0.0234446,0.0119365
-0.004033,-0.0168104
0.0128648,-0.0191156
0.0813843,-0.0123947
0.135996,-0.00498465
0.118595,-0.00208924
-0.0125115,-0.00156751
-0.0564088,0.00109078
0.0138461,3.42e-05
0.0465409,-0.0125588
0.0427521,-0.0224419
0.163771,-0.0301441
0.355884,-0.0253383
0.406259,-0.00909583
0.223015,0.0011422
-0.111516,0.00490904
-0.349641,0.0168793
-0.268954,0.0179311
-0.154697,0.0149174
-0.184253,0.0262042
-0.229368,0.0332536
-0.0947206,0.0277086
-0.0089374,0.0287518
0.0535337,0.0319416
0.167622,0.0210963
0.157918,-0.00341163
0.106987,-0.0315951
0.0242072,-0.0500318
-0.0745154,-0.0567802
-0.131569,-0.0245565
-0.122766,-0.0166186
-0.0552271,-0.0049313
-0.0488125,0.0086451
-0.0224034,0.00775306
0.0416942,-0.00218832
0.0972238,-0.0101674
0.113484,-0.00697796
0.0847917,0.00695839
0.00125892,0.0133917
-0.121157,0.00631033
-0.151681,-0.000209165
0.000629177,-0.0036104
0.133598,-0.00368747
0.11758,-0.00162127
0.0240273,0.000494517
-0.0976453,0.0052796
-0.126051,0.00769048
-0.0955808,-7.88e-05
-0.0481211,-0.00431602
0.0172451,0.000174215
0.0385366,0.00268769
0.0199636,0.00264336
0.0265696,0.0113359
0.0540976,0.0152857
0.0631491,0.0119697
0.119118,0.0177054
0.257754,0.0235906
0.368668,0.00808721
0.27053,-0.0107907
-0.0068573,-0.0217698
-0.357349,-0.0354118
-0.451019,-0.0259213
-0.217878,0.00525089
0.0858048,0.00628669
0.198616,4.71e-05
0.19808,-0.00387246
0.112282,-0.0286562
-0.119665,-0.0374789
-0.171166,-0.0273953
-0.0958638,-0.00789485
-0.163505,0.00112928
-0.224048,0.00695799
-0.182164,0.0419249
-0.186084,0.0401876
-0.161941,0.0265352
-0.106028,0.028517
-0.0348913,0.0257159
0.0447293,0.00759502
0.220847,-0.0278405
0.447811,-0.0472395
0.491067,-0.023898
0.316747,-0.00408596
-0.00298032,0.0200332
-0.163433,0.028703
-0.00910349,0.0272767
0.123725,-3.41e-05
0.0838047,-0.0508061
-0.104007,-0.0460512
-0.0156331,0.00515088
0.107708,0.0292596
-0.192266,0.0129285
-0.470578,-0.0149973
-0.496857,-0.0304114
-0.247726,0.0145245
0.15309,0.0182991
0.33342,0.00286652
0.278882,0.00306485
0.134044,0.014219
0.0511199,0.0243818
0.225143,0.00133461
0.384022,-0.0132953
0.146527,-0.0234749
-0.35724,-0.0067854
-0.504436,0.00636796
-0.269274,0.0213596
-0.0393592,0.0267871
-0.00623414,0.0165113
-0.101737,0.00597063
-0.141018,0.00525176
-0.0706493,0.00287309
0.0582067,-0.0215606
0.10427,-0.0234373
0.0636381,-0.0120951
0.0470394,-0.0359342
0.0660802,-0.0525069
0.0401411,0.00347843
0.0153744,0.0434404
-0.0817166,0.0205141
-0.122892,0.00356669
-0.00135504,0.00504294
0.126857,0.00956322
0.190516,0.00970624
0.148156,0.00485384
0.0927072,0.00134293
0.0662052,0.00690192
0.0664863,0.00779074
0.114637,-0.00633197
0.136411,-0.0196865
-0.0137242,-0.0181005
-0.196889,-0.0190124
-0.253355,0.0138801
-0.224952,0.0252838
-0.103962,0.0187892
0.038441,0.0124518
0.147591,-0.00232508
0.1714,-0.0114854
0.0988768,-0.00155613
-0.0153241,0.0066555
-0.0740488,0.00912757
0.0154515,0.00443392
0.123831,0.00213532
0.208175,0.00418679
0.208402,-0.00545962
-0.0204709,-0.0244916
-0.215504,-0.0290783
-0.0598669,-0.0177767
0.0579526,-0.00741915
-0.0462088,-0.00594866
-0.328829,0.000895928
-0.436292,0.0101241
-0.136946,0.0100259
0.0378323,0.00431244
0.0387383,0.00514487
0.0025624,-0.000158658
0.0254527,-0.0100503
0.165696,-0.0150207
0.230788,-0.0160991
0.107607,-0.0123715
-0.0381819,-0.0122652
-0.150092,-0.00249545
-0.233615,0.00845596
-0.000158654,-0.0043915
0.323684,-0.0204535
0.375718,-0.000761232
0.250377,0.017289
-0.00684708,0.0214933
-0.236244,0.0318098
-0.0964789,0.0233621
0.000158428,0.00923176
-0.0528558,0.0171593
-0.0809583,0.0165721
0.0242031,0.0135552
-0.015484,0.0169951
-0.21834,0.0104463
-0.226553,-0.00537184
-0.17079,-0.0286784
-0.0298587,-0.0387092
0.0503245,-0.0152667
-0.006656,-0.00635349
-0.0948913,-0.00678286
-0.0893455,0.0165577
0.0187331,0.00462692
0.0876288,-0.00298454
0.0849809,-0.0132558
0.0600233,-0.0133293
0.0701626,-0.00245184
0.108517,-0.000722406
0.159682,0.0022688
0.232316,3.34e-05
0.186429,0.00880248
0.0416636,0.00929503
0.114269,0.00313928
0.244552,-0.0156739
0.185382,-0.0298515
-0.0421889,-0.0100098
-0.346043,-0.0100609
-0.530172,-0.0167139
-0.344045,0.00855406
-0.102801,0.0181548
-0.0180029,0.0176315
-0.00109297,0.00867571
-0.00204387,0.00829831
0.00519974,0.0167205
0.0249815,0.0118674
0.0500073,-0.00015566
0.0581045,-0.00585721
0.0414097,0.00556923
0.0404135,0.00788668
0.0873041,-0.00356628
0.196398,-0.00508105
0.278758,-0.0053521
0.167343,-0.00636971
-0.087569,-0.00237306
-0.214591,0.00716954
-0.0518819,0.0106804
0.208903,0.00916105
0.335023,0.00117315
0.124828,-0.00813087
-0.0972698,-0.00765066
-0.19672,-0.00937597
-0.341641,0.00102014
-0.276585,0.0125993
-0.103993,0.0175071
0.009409,0.0166355
0.0817829,0.00522265
0.00659639,-0.010729
-0.204961,-0.00748132
-0.184736,-0.00184603
0.0780889,-0.00350239
0.273001,-0.00314989
0.365239,-0.00126357
0.156861,-0.000560817
-0.122602,-0.00477496
-0.350738,-0.0148433
-0.402925,-0.0109641
-0.139686,-0.00592645
0.0497564,-0.0174916
0.0965339,-0.0099361
0.0641762,-0.0105376
0.0420756,-0.0012859
0.0520258,0.0246971
0.0673525,0.0233135
0.0795806,0.000789137
0.0909952,-0.00228312
0.0976434,0.00653858
0.0773338,0.0113409
0.0765949,-0.00344744
0.155469,-0.0061052
0.222676,0.0120999
0.185157,0.00235232
-0.0868679,-0.00516434
-0.349827,-0.00648409
-0.318233,-0.00845995
-0.163349,0.00741428
-0.0335621,0.0236576
0.035502,0.0115724
0.00754111,-0.00632018
-0.018368,0.00139105
-0.0051452,0.0115239
-0.0102376,0.005846
-0.00416875,-0.00163538
0.0475668,-0.00947091
0.0624788,-0.0131854
-0.00440375,-0.0147285
-0.0315195,-0.0137419
-0.0254321,-0.0117318
-0.0123313,-0.0129506
-0.000414262,-0.00870416
0.036336,-0.00100324
0.0620441,0.0109178
0.0751528,0.0134465
0.0768942,-0.00780749
0.0479294,0.0182582
0.0427972,0.0111004
0.174227,-0.0259662
0.220207,-0.0284962
0.111111,-0.0123494
-0.141543,-0.00632116
-0.424434,0.00617231
-0.391695,0.0139568
-0.138327,0.016029
0.00279269,0.00652319
0.106003,-0.00876068
0.210937,-0.0164877
0.242624,-0.0111224
0.236975,0.00647453
0.168709,0.00910622
0.0693531,0.00669717
-0.0738426,0.0141705
-0.264373,0.027467
-0.313033,0.0303319
-0.227639,0.0266454
0.0171107,0.0148325
0.229072,-0.00174034
0.291795,-0.0116871
0.14436,-0.0162218
-0.210717,-0.0186891
-0.343682,-0.012888
-0.25461,0.00344272
-0.120556,-0.00249679
