Comp Ch 3,Comp Ch 4
0.0597289,-7.42e-05
0.00989727,-0.000508033
-0.0527868,0.00216493
-0.0931247,0.0211372
-0.0502125,0.0200061
0.0276002,-0.000722364
0.0550593,0.00906316
0.0384115,-0.0275615
-0.0134834,-0.0354973
-0.0789734,0.0163807
-0.105614,0.0326715
-0.0816347,0.0024491
-0.0453774,-0.0081617
-0.0132373,0.00771781
-0.00466967,0.0155063
-0.0161737,-0.0285306
-0.0169405,-0.0218961
0.0133277,0.0116369
0.0386518,0.0223249
0.0570505,0.00713024
0.0784611,0.00181188
0.0735791,0.00181977
0.0774393,-0.00522038
0.0547166,-0.00636664
0.00985388,-0.0110674
-0.0384666,0.00633164
-0.0381749,0.0202374
-0.0473643,-0.00503898
-0.0702312,-0.00505383
-0.0448623,-0.00895899
0.0112767,0.0182907
0.0452495,0.0154697
0.033189,-0.0525401
0.0231636,-0.0234869
0.00188781,0.0124582
-0.0375195,0.0113554
-0.0442748,0.00111805
-0.0117263,0.0127604
0.00920854,0.0122578
0.00857294,-0.0162408
-0.00943792,-0.0068162
-0.0261577,-0.00203939
-0.00233451,-0.00521164
0.0292818,0.012942
0.0349426,0.0252443
0.00703061,0.0178626
-0.0209984,-0.023841
-0.0214288,-0.049735
-0.0160564,-0.00907411
0.00391917,0.015138
0.0447664,-0.0028563
0.0785951,-0.0192549
0.0649494,-0.00642652
0.00916884,0.0285669
-0.0427466,0.0282715
-0.0747314,-0.00938767
-0.0615892,-0.0296642
-0.0344237,-0.00552663
-0.0090683,0.00320044
0.00765416,0.0230066
0.0340605,0.0383964
0.0733933,0.0255829
0.0973297,0.0147523
0.0883836,0.0103416
-0.000138985,-0.00377167
-0.0980667,-0.0157068
-0.1415,-0.00492415
-0.112138,0.0269953
-0.0629404,0.0200728
0.0450839,0.00441753
0.210022,-0.0235817
0.25448,-0.0475401
0.196484,-0.0351785
0.0536409,0.00173456
-0.132399,-0.027119
-0.240108,-0.0476673
-0.23312,-0.00233627
-0.165271,0.0687997
-0.0937849,0.052776
-0.0322381,-0.00581083
-0.00346863,-0.00656307
0.00941306,-0.0591696
0.00296753,-0.047414
0.00253921,0.0188793
0.0222828,0.0411173
0.0307958,0.00548352
0.0314748,-0.00696856
0.0275104,0.00279185
0.0121607,-0.0143529
0.000774422,-0.0146328
0.00575475,-0.00574605
0.0101668,-0.00682501
0.0219839,0.0180183
0.0389616,0.048514
0.0506625,0.0451046
0.0582769,0.0511451
0.08422,0.0280935
0.105469,-0.0325627
0.113995,-0.0428701
0.0860622,-0.0704809
0.0218289,-0.0545922
-0.0389914,-0.00648748
-0.0751745,0.0253557
-0.0563788,0.0365856
-0.00459853,0.0336444
0.0120914,0.0290259
-0.021059,-0.00194817
-0.0756983,-0.0411417
-0.127417,-0.0624755
-0.150072,0.0281793
-0.105487,0.0499495
-0.0361817,-0.0425663
0.0146047,-0.0268841
0.0727654,-0.00801254
0.0923897,-0.00268101
0.0652463,-0.0234617
0.0250029,-0.00143144
-0.0189492,0.0486266
-0.0486891,0.0436471
-0.0644576,0.0372652
-0.0558109,0.0141874
0.00550226,-0.011003
0.0563767,-0.00403514
0.0662905,0.00141308
0.0463225,0.00878178
0.00977372,-0.0240117
-0.00905352,-0.00366626
-0.0122861,0.00601049
-0.00816618,-0.0283637
0.00867712,-0.0203857
0.0147955,0.0107174
0.0133478,0.039372
-0.00140186,0.0123863
-0.00536141,-0.0206502
0.00826722,-0.0180345
-0.00303811,-0.0151232
-0.0146203,-0.00609494
-0.00640342,-0.035448
-0.00230997,-0.0368429
0.00196043,0.00911511
0.0164406,0.0425369
0.0155824,0.0222971
0.0132033,0.0342824
0.0445953,0.00170164
0.050085,-0.00619549
0.0290194,-0.0178579
0.0142925,0.0522242
0.0207372,0.0545629
0.0619721,-0.0602717
0.0552596,-0.0571717
0.00278908,-0.00793538
-0.0331147,0.00896833
-0.0794511,0.00175667
-0.119615,4.54e-05
-0.122743,0.000924005
-0.0927758,0.00365574
-0.0540394,0.0281041
-0.016785,0.00528642
0.00444939,-0.0111293
0.0372196,0.00628715
0.0678724,0.0390425
0.0542077,0.0132362
0.0370868,-0.0298289
0.011458,-0.0166042
-0.0419135,-0.0300048
-0.0704824,-0.0412793
-0.0531019,-0.0133362
-0.0167001,0.0168098
0.0578059,0.0221532
0.139746,0.00675397
0.144151,0.0240616
0.0907491,-0.00393917
0.0374366,0.00304822
-0.0141948,0.0935954
-0.0293616,-0.0352721
-0.0606755,-0.0977942
-0.0792307,-0.0252283
-0.0860082,0.000538345
-0.0872291,0.0119656
-0.0561628,0.00803552
-0.0261627,0.00193696
-0.0295371,0.00161751
-0.0376587,0.011752
-0.0209001,0.0254799
0.025792,0.00184121
0.0537622,-0.0105689
0.0618511,0.000321721
0.0523253,-0.0173611
0.0226501,-0.0423692
-0.00415583,-0.0580426
-0.00218955,-0.0514544
0.00418184,0.0592121
0.00146419,0.11087
0.0352946,0.0307514
0.0503886,-0.0111389
0.0197308,-0.0209762
0.00246397,0.00639589
-0.00817129,0.00288366
-0.0451579,0.0148252
-0.0255076,0.0223272
0.00768845,0.0197996
0.0225322,0.0241586
0.0313005,0.0282286
0.0328937,-0.0179714
0.0133189,-0.0257547
-0.0173744,-0.0282164
-0.0311496,-0.00848771
-0.0375361,-0.0261343
-0.0310495,-0.0380756
-0.0269044,0.0110751
-0.0384948,0.0101059
-0.0456229,-0.0360958
-0.0308607,-0.0285526
-0.0114167,-0.0115739
-0.00100187,0.00103021
0.0229537,0.0160988
0.095691,0.0635846
0.151359,0.00600833
0.134909,-0.0116149
0.0907931,0.026117
0.0128629,0.0274348
-0.070812,-0.00477746
-0.113536,-0.0100609
-0.115412,-0.00954968
-0.0962906,-0.0384154
-0.0494375,-0.0145943
-0.00720522,-0.0168817
0.00677083,-0.0142222
0.00420546,-0.00930867
-0.000164625,0.00678024
-0.00714298,-0.00247339
-0.0215729,0.0303294
-0.0193183,0.0846139
0.00442318,0.0254246
0.0173064,-0.00197603
0.0236698,-0.00490455
0.0191691,-0.000451826
0.00738964,0.00514706
0.0158291,-0.0068895
0.0186261,-0.0333011
-0.0157516,-0.0422764
-0.0358516,-0.0177483
-0.0278072,0.0102663
-0.00677955,-0.00858412
0.0308884,-0.0232621
0.0651242,-0.013864
0.0758021,-0.00334905
0.0899267,0.00956739
0.0542047,0.0205332
-0.0233002,0.0296446
-0.0825911,0.0260264
-0.108007,0.0148856
-0.0543151,0.0157027
0.0182946,0.00619412
0.046822,-0.014944
0.0585658,-0.0348334
0.0417449,-0.0365746
0.0389252,-0.0226149
0.0600099,0.0180229
0.0331628,0.0147117
-0.030407,-0.0241326
-0.0878887,-0.0397357
-0.0967014,-0.0102908
-0.0782613,0.0335047
-0.0472538,0.0424361
-0.00615307,0.0320511
0.0214395,0.025316
0.0275698,0.0370094
0.0210449,0.0145972
0.0181359,-0.00290852
0.0157961,-0.0282681
0.00231567,-0.0245669
-0.0141395,-0.01553
-0.0280116,-0.0186677
-0.0401256,-0.021463
-0.0268229,-0.00346986
-9.84e-05,0.086646
0.0163167,-0.0253037
0.0219599,-0.0818971
0.0191694,-0.0248589
0.017993,-0.00937713
0.0119852,-0.00673209
0.0130416,0.00528296
0.0266885,0.0207288
0.0306662,0.0272621
0.0186991,0.0259643
0.00613436,-0.000480679
-0.0172174,-0.00131525
-0.0409115,0.0515997
-0.0331181,0.0300775
-0.0152705,-0.0590147
0.00131347,-0.050937
0.0258763,-0.00393775
0.0324059,0.0237158
0.0131169,0.0148604
0.00487325,0.010847
0.00942565,0.0166819
0.00877178,0.00977695
0.00320905,0.00361927
0.0101557,0.0150058
0.021752,0.0181215
0.0188306,-0.00264267
0.0119186,-0.0112712
0.00118716,-0.0161118
-0.0130889,-0.0261409
-0.0306927,-0.0254591
-0.038298,-0.0126973
-0.0388702,0.00710369
-0.0172503,-0.00198355
0.00935033,-0.0219998
0.0144877,-0.00295594
0.00245686,0.0469707
0.00379903,0.0106085
0.00705694,-0.0311784
0.00605714,-0.0112662
0.00511972,-0.00795244
0.00417297,0.00815852
0.00473088,0.0507168
-0.00188682,0.0433472
-0.000914013,-0.011184
-0.00237614,-0.0139007
-0.0116536,-0.0224828
-0.0225422,-0.0283769
-0.0457351,-0.0126831
-0.0680052,-0.00400204
-0.048993,0.00159625
0.00445514,-0.00981233
0.0373133,-0.015943
0.0468083,-0.00567611
0.0447478,0.000347542
0.0258583,0.00202161
0.00335223,0.00511553
-0.00132252,0.00705496
0.00687373,0.0228267
0.00658476,0.0336926
-0.000514456,0.0321507
-0.00337797,-0.00370259
-0.0155241,-0.0269367
-0.0256748,-0.0160366
-0.027898,-0.0125926
-0.0247245,-0.0112688
-0.0158086,-0.000853843
0.0131522,0.0125661
0.0815948,0.0420002
0.152968,0.0499264
0.165179,0.0356944
0.122437,-0.00934403
0.0267975,-0.0478383
-0.0936313,-0.0287875
-0.151658,-0.00232132
-0.148533,0.00166424
-0.107014,-0.015335
-0.0390817,-0.0115131
0.0332255,-0.0060147
0.0578896,-0.022929
0.0320945,-0.0462648
0.0109878,-0.0144398
-0.0151989,0.0601372
-0.0261947,-0.00315309
-0.0299134,-0.00913299
-0.0456536,-0.0163558
-0.0533445,-0.0394206
-0.043292,-0.0220742
-0.0114779,-0.00924872
0.0170434,-0.00123566
0.0220624,0.0221374
0.0294568,0.0377365
0.0280898,0.0353791
0.0188202,0.0452646
0.0145632,0.0391628
0.00497229,-0.022266
-0.00237124,-0.0293494
-0.0139514,0.0170386
-0.0193698,0.0477922
-0.00538814,0.018059
0.00934414,-0.0309885
0.00854235,-0.00952374
-0.00502564,0.0273859
-0.0046401,-0.027168
0.00620486,-0.0299763
0.00441991,-0.00713842
0.00156829,-0.00921264
0.0021812,-0.00257365
0.0154951,-0.000143692
0.0230377,0.0515313
0.0295469,0.019294
0.0543997,-0.0518693
0.0464794,-0.00898099
0.0148244,-0.00328669
-0.00730566,-0.0240064
-0.0273977,-0.0282529
-0.0303813,-6.85e-05
-0.000547636,0.0485878
0.00572256,0.0268859
-0.0223889,-0.00385519
-0.0355549,-0.000169982
-0.00508076,-0.0139214
-0.00208651,-0.0104755
-0.0298936,-0.00529021
-0.0180098,-0.00479536
0.00471189,-0.000433167
-0.000218374,0.00278334
0.00721541,0.0136939
0.0139404,0.0374717
0.0162872,0.0158697
0.00522441,-0.0366187
-0.00273563,-0.0268386
0.00369876,-0.0189574
0.00150792,0.00968472
0.0163719,0.009285
0.0348144,-0.00783661
0.0234245,-0.00256072
-0.0155244,-0.00347376
-0.0115328,0.00535211
-0.0201482,-0.00322967
-0.0548744,0.0155848
-0.0378428,0.0204336
-8.73e-05,-0.0167071
0.0289434,0.00102368
0.0442772,0.0220148
0.0342278,-0.0139119
0.0117702,-0.0301467
-0.0181514,-0.0172006
-0.0259869,-0.00506122
-0.028532,0.00700128
-0.00677153,0.0293854
0.0230716,0.0392983
0.0339426,0.0212037
0.0173907,-0.0288408
0.00262028,-0.0407759
-0.0181695,0.0101709
-0.0293944,0.00515656
-0.0130278,-0.0195375
0.0121052,0.00306763
0.0101096,0.000309743
-0.00513554,-0.00885836
-0.00407159,0.00743975
-0.0022043,0.00620711
-0.00813422,-0.0103342
-0.015977,-0.00246422
-0.0161683,0.0327299
-0.0110277,0.0488126
0.00211062,-0.0143738
0.0067942,0.0133296
-0.00721026,0.0114578
-0.00216422,-0.0237228
0.0246204,-0.0389458
0.0120637,-0.0167898
-0.00793014,0.00194789
0.000362992,-0.00489709
0.0266341,-0.00327708
0.0258003,0.0114816
0.0189324,0.0118675
0.00408412,0.0186645
-0.0306597,0.0368979
-0.0480613,0.0211422
-0.03203,-0.0160398
-0.00175405,-0.0393334
0.0211487,-0.0266378
0.0387288,0.00476064
0.0355249,0.0051889
0.0137328,-0.0036308
-0.00261211,0.00153391
-0.0133673,-0.00132429
-0.015249,-0.0157965
-0.0164609,-0.00131923
0.00335276,0.0158859
0.0251706,0.00213954
0.0180501,0.0108922
0.016961,-0.0107232
0.0108442,-0.0170254
-0.00374945,-0.0128493
-0.0158275,0.000127307
-0.0241222,0.00672471
-0.0387138,-0.0204265
-0.0287687,-0.0150137
0.00270414,-0.00152275
-0.00404136,0.00626978
-0.0215119,0.00569459
-0.00107312,-0.00467696
0.0149233,-0.0157895
-0.00754698,0.00494946
-0.0165839,0.0345188
0.0157753,0.00655639
0.036468,-0.0158844
0.0222075,0.0399094
0.0130882,0.0256918
0.00265439,-0.0355075
-0.0130453,-0.023998
-0.0148843,0.0109078
-0.00697747,0.00248752
-0.00173843,-0.00452477
0.0126556,0.0171676
0.0174294,0.0198724
-0.00214887,0.021541
-0.0179817,0.00461222
-0.028319,-0.0144868
-0.0293381,-0.0207849
-0.0221117,-0.0220271
0.00242662,-0.0169073
0.0312038,-0.00837439
0.0264587,0.0104068
0.0204521,0.026645
0.0209832,0.00357975
0.0126732,-0.0130131
0.00455688,-0.0192141
-0.00609578,-0.00749522
-0.0105064,-0.000309359
-0.00584053,0.00913291
0.004928,0.0200659
0.0113533,0.0201498
0.0106186,0.00942034
0.0014151,-0.00390515
-0.01228,-0.00998723
-0.0271143,-0.0121332
-0.0327316,-0.00289692
-0.0121542,0.0105329
0.0126274,0.00762383
0.0123723,-0.00812419
-0.00264398,0.0018117
-0.00901383,0.00854055
-0.0158461,-0.0102586
-0.0119056,-0.0190719
0.00743951,-0.0149478
0.0102636,-0.0127124
0.024913,0.00893288
0.0318217,0.0423714
0.0218885,0.0346718
0.00273536,-0.000821599
-0.00535714,-0.0199605
-0.0153891,-0.00774934
-0.030697,-0.0113598
-0.024457,0.00898839
0.0058405,0.015431
0.0230739,-0.00011347
0.0136382,0.0146762
0.018301,0.0108282
0.0172594,-0.026763
0.000996868,-0.0263237
-0.0155401,-0.0093309
-0.0254481,-0.00433428
-0.0299842,0.00443387
-0.00159638,0.0323938
0.0253457,0.0299326
0.00995949,-0.0301448
-0.00688841,-0.0668685
-0.0067593,-0.0398274
-0.0102508,-0.0235218
-0.0199258,0.0131357
-0.016176,0.0108229
0.00578013,0.00740024
0.026772,0.0327345
0.030026,0.0615476
0.0191796,0.0415685
0.00310467,0.000478191
-0.00703392,-0.0407281
-0.00577663,-0.0233794
-0.0129057,0.00983088
-0.0270776,0.0237917
-0.0251448,-0.0271141
-0.0167486,-0.0313648
-0.00505914,0.0025749
0.030542,0.0120752
0.0515054,0.0220821
0.0250593,0.0106052
-0.00269519,-0.000832986
-0.0024034,0.011182
0.0151289,0.00883869
0.0167884,0.0101149
0.0123369,0.00197406
-0.0183227,-0.00156495
-0.0495641,-0.00314905
-0.0471462,-0.00543986
-0.0193113,0.0223527
-0.00307811,0.0242225
0.021349,-0.00609246
0.0430477,-0.0189469
0.0259802,-0.0333563
-0.00807911,-0.0100283
-0.0203674,-0.018768
-0.0333484,-0.0148469
-0.0505124,-0.00744297
-0.0303673,-0.0390168
0.0194571,-0.022505
0.0286291,-0.000448163
0.0144721,0.00762857
0.0200821,0.0182568
0.0381448,-0.00390515
0.0278383,-0.0145975
-3.58e-06,0.0139827
-0.00696031,-5.13e-05
-0.00781598,0.0194051
0.0185225,0.0295119
0.0312871,0.00248986
0.00919066,0.0195122
-0.0143722,0.0204256
-0.0245648,0.00159466
-0.0333095,-0.0157131
-0.0432064,-0.0110089
-0.0318087,0.00523411
0.001943,0.0163736
0.0231617,0.00814497
0.025535,-0.00128385
0.0266237,-0.0101034
0.024865,-0.019459
0.010946,-0.0142879
0.000927258,-0.0102067
-0.00578321,-0.00990535
-0.0196351,-0.00107476
-0.00753182,0.0246941
-0.00225042,0.0210948
-0.0209165,-0.000774289
-0.0332809,0.0448969
-0.0194627,-0.0285762
-0.0129723,-0.0517632
-0.00659053,-0.0410093
0.00308479,-0.0140613
0.00335058,0.0112208
0.0137865,0.00895683
0.0272498,0.00968045
0.027006,0.0177412
0.0144291,0.00995124
-0.00123715,0.000575321
-0.00518089,0.00413057
-0.00703863,0.00362788
-0.00190007,-0.00585775
0.022737,0.000232062
0.0232715,0.0176248
-0.00344343,0.0509153
-0.00827741,0.0492056
-0.0121219,0.00419618
-0.0199776,-0.0172447
-0.0188029,-0.0443175
-0.0020928,-0.0228713
0.0134936,-0.0147621
0.0134669,-0.0214666
0.00119425,0.00311586
-0.0138619,0.00524864
-0.0208481,0.00216085
-0.008174,-0.0271573
0.0128689,-0.0337681
0.00625758,0.00634537
0.0133786,0.0367201
0.0320077,0.0308515
0.0195125,0.0167911
-0.000428511,0.0187462
-0.00846251,-0.00784627
-0.0224205,-0.0292697
-0.0292987,-0.025413
-0.0132784,-0.0119455
0.00350252,0.0161196
0.0133938,0.0182129
0.0256711,0.00949328
0.028705,0.0217009
0.00213966,0.0359921
-0.00811505,0.00971414
-0.0034403,-0.0191511
-0.00692239,-0.0371622
-0.00372288,-0.0227258
0.014451,-0.00937247
0.0099238,-0.00105381
-0.0123249,0.00788267
-0.0178987,0.0183988
-0.014734,-0.000756018
-0.0240747,-0.020667
-0.0342098,-0.0176769
-0.0148144,-0.00485321
0.0111446,0.01329
0.015818,-0.0209601
0.0133625,-0.00779642
0.0132776,0.0252318
0.00653446,0.00301161
-0.00597487,-0.0158412
-0.00205995,-0.0256985
-0.00274745,-0.00611087
0.00461188,0.0482721
0.0202532,0.0702207
0.015795,0.0830244
0.00694308,-0.00870697
0.0125122,-0.0598246
0.000387828,0.00515318
-0.0271461,-0.0430316
-0.034668,-0.0642059
-0.00892489,-0.0320049
0.0162218,-0.00979192
0.0178244,0.00883441
0.0223353,0.0212548
0.0133065,0.0336937
0.00083367,0.0174103
-0.0138987,-0.00491891
-0.0176064,-0.01323
-0.0174331,-0.0199897
-0.00141622,-0.00429183
0.011942,0.0206801
0.00394325,0.0194574
-0.000364865,-0.000498878
0.00295816,0.00865355
-0.0071574,0.00468008
-0.0109604,-0.031865
-0.00312553,0.00965849
0.0263352,0.0335953
0.0390346,-0.0353009
0.00891957,-0.0161047
-0.00359192,-0.00102783
-0.00079127,-0.00270201
-0.00485835,-0.00060027
-0.000931614,0.00622125
-0.00920492,0.0161935
-0.0159161,0.00782082
-0.0048939,-0.00525469
-0.0018946,0.0680421
-0.015139,0.0703546
-0.0207092,-0.0339722
-0.0200152,-0.0718589
-0.017786,-0.0261381
-0.0140882,-0.0157633
-0.00313472,0.0171442
0.0153231,0.01511
0.0166282,-0.00460151
0.0144672,0.00356273
0.00989311,0.00235393
0.00193061,-0.0115451
0.00327877,-0.0111956
0.00110963,-0.00285237
-0.0153047,-0.0160441
-0.00581459,-0.0265688
0.0243684,-0.0152581
0.0177731,-0.00922054
-0.00103271,-0.00937968
-0.0165368,0.0167879
-0.0302765,0.0182899
-0.0305915,-0.00884723
-0.0269983,-0.0105635
-0.00522418,0.0280791
0.031169,0.0410198
0.0466386,0.0250177
0.0469908,0.0052694
0.0239683,-0.0134071
-0.00377967,-0.0240913
-0.0239219,-0.0257144
-0.0245214,-0.0102865
-0.011342,-0.00568008
0.00356499,0.0168993
0.0116405,0.0335243
0.00158903,-0.00171789
-0.00680798,-0.0276823
-0.00739524,0.00480846
-0.0212622,0.0020526
-0.0353145,0.00975259
-0.0253642,0.0819875
0.0161518,0.0186718
0.0455726,-0.0253564
0.0442935,0.0105573
0.0251797,-0.0110631
0.00610037,-0.0561443
-0.00381238,-0.0357084
-0.00683711,-0.00474852
-0.00898413,0.025012
-0.00683952,0.0455843
0.0193123,-0.0484281
0.0289783,-0.0287995
0.00682397,-0.0159979
-0.017301,0.0183841
-0.0205046,0.0466866
-0.0114582,-0.0392294
-0.0200262,-0.0500026
-0.0470222,0.0144317
-0.0272793,0.0318491
0.0100443,0.00707798
0.0275562,-0.00351055
0.021987,0.00926084
0.00289048,0.0229537
-0.00846792,0.0102092
-0.0103181,0.0178382
-0.0120626,0.00919441
-0.00299534,0.00485836
0.0252428,0.00966267
0.039861,-0.019723
0.0195399,0.00622102
0.00153393,0.0307234
-0.00960551,-0.0340421
-0.0281105,-0.0499334
-0.0400382,-0.00902182
-0.0138547,-0.0146563
0.0121485,0.00327376
0.0333171,0.0251642
0.0468292,0.0302988
0.0317104,-0.00139657
0.00552066,-0.0248753
-0.00873731,-0.0393053
-0.0219883,-0.00527857
-0.0328074,0.0146624
-0.0172466,0.00750793
-0.00391674,0.00693421
-0.0125466,-0.00892885
-0.023658,-0.0127944
-0.0259455,0.00697143
-0.0298927,0.0428118
-0.0290202,0.0243324
-0.0168489,-0.0301613
0.0092966,-0.0242597
0.0265017,-0.0333031
0.0419835,-0.013576
0.0712062,0.0469021
0.0941346,0.00746447
0.0819176,-0.0144546
0.0529048,0.0155499
0.0114109,0.0540681
-0.00728196,-0.0167892
0.00549084,-0.0648632
0.003113,-0.0101827
-0.0274981,0.022129
-0.0495177,-0.00589584
-0.0608822,0.00578713
-0.0744276,0.0213432
-0.083764,0.0106063
-0.0728645,0.00764956
-0.0428392,0.00254175
-0.0335213,0.0155928
-0.00812541,0.00559594
0.012074,0.010769
0.0107198,-0.0229412
-0.0015455,-0.0322894
0.0235101,-0.00110633
0.0312371,0.00409004
0.0262527,-0.000935911
0.0625091,0.0161662
0.0913829,0.0147894
0.0783476,0.00255852
0.0624743,-0.0322029
0.0287692,0.00435005
-0.0257508,0.0649082
-0.0629712,-0.0186819
-0.0692047,0.0143067
-0.0482579,0.00417938
-0.0344853,-0.0608029
-0.0328242,-0.0322878
-0.0333809,-0.00406272
-0.0447032,0.0263925
-0.0238446,-0.00308179
0.00829483,-0.0356288
0.0113128,0.0102678
0.0352084,0.0105027
0.0571628,0.0225742
0.0477976,0.0238259
0.0219254,-0.0127324
-0.00621337,-0.0219696
-0.0227533,-0.0458673
-0.0248118,-0.0571625
-0.0215745,0.00961984
0.00720887,0.0624294
0.0161033,0.0522862
0.0104239,0.0258183
0.00689267,0.0129462
-0.00219005,0.00141186
-0.018342,-2.95e-05
-0.0279221,-0.00517147
-0.0172411,-0.0317301
0.00141994,-0.0606088
0.0365895,-0.0287211
0.058567,0.0430498
0.043205,0.0141797
0.0229903,-0.0549172
0.0122731,-0.0179834
0.00372141,-0.00172983
-0.0205666,-0.00381749
-0.0250237,0.0316526
-0.00107658,0.0524708
0.014798,0.0327605
0.0117536,0.0182832
-0.0122334,0.0138477
-0.0481957,0.025782
-0.0696739,-0.0183561
-0.0689344,-0.0377411
-0.0450555,0.0242427
-0.010481,0.0291311
-0.00689853,-0.0182793
0.00414202,0.000196188
0.0213869,0.090823
0.06269,0.00014551
0.0534458,-0.0948385
0.0368505,-0.0810271
0.035039,-0.0535285
0.0312864,-0.00801564
0.0441256,0.0197246
0.0287993,0.0229525
0.0139206,0.0212019
0.00239313,-0.00761926
-0.0166753,-0.0377193
-0.0389828,-0.0326196
-0.0540364,-0.00100817
-0.0428793,0.0470468
-0.0130531,0.0464256
0.0350337,0.0157464
0.0528248,-0.00609958
0.0157957,0.0151601
-0.0470736,0.0157396
-0.0808183,-0.00619558
-0.0729282,0.0214497
-0.0341003,-0.0275423
0.0239607,-0.0522275
0.0297257,-0.00273566
0.018503,0.0316879
0.0240495,0.0365946
0.0132536,0.0544352
0.00714874,-0.00173186
0.00701369,-0.0947812
0.000337325,-0.0103052
-0.00407899,0.0322451
0.00475502,-0.0294271
-0.0210105,-0.00631411
-0.124366,0.0929314
-0.132947,0.0398633
0.0100427,-0.109077
0.166932,-0.0962633
0.169082,-0.0159203
0.0836773,-0.0173546
0.0324188,-0.0143541
0.00629747,0.0417938
-0.00935021,0.0544686
-0.0512759,0.0405457
-0.093539,-0.00725044
-0.105723,-0.0289676
-0.0461939,0.0105271
0.0563065,-0.0428129
0.0785645,0.159173
0.0751472,0.146174
0.0606857,-0.0129652
0.0240729,-0.0160504
-0.000649409,-0.0695026
-0.01407,-0.0933893
-0.0690824,-0.0443418
-0.0825088,-0.0409797
0.0252046,-0.0111576
0.108802,0.0419753
0.0764295,0.0479446
0.0448892,-0.00961932
0.0125377,-0.0200552
-0.0276446,-0.0037826
-0.0858395,-0.0300967
-0.11998,-0.0467266
-0.0991654,0.0752433
-0.0514827,0.0553639
-0.0105463,-0.0456812
0.00985576,-0.0521432
0.0157669,-0.0243498
-0.00169661,-0.00639984
-0.036341,0.00993253
-0.0445208,0.0614351
-0.02599,0.132303
-0.00198456,0.0203397
0.0121522,-0.0578308
0.0131657,-0.0762197
0.032648,-0.0840443
0.0279139,-0.0311478
0.00377922,0.0589778
-0.00522129,0.000908955
-0.00434693,-0.0404245
0.00530938,0.0407866
0.0423759,-0.0021802
0.0744131,-0.0488083
0.059996,-0.0227358
0.0280975,0.0403715
0.000535933,0.0794071
-0.046257,0.047304
-0.0914368,-0.0302008
-0.0802895,-0.029058
-0.00529051,0.0318758
0.0282747,-0.0465797
0.0848868,-0.0200019
0.189251,0.0921603
0.174267,0.0693391
0.0451529,0.0594926
0.0212072,0.0335801
-0.0260635,-0.103509
-0.145137,-0.125113
-0.117525,0.0520219
-0.000753326,-0.0487149
-0.00281925,-0.0698638
-0.0395477,-0.0209414
-0.0264973,0.0173663
-0.0549112,0.0234254
-0.102606,0.0525644
-0.10477,0.0804053
-0.0688811,-0.0150066
-0.100652,-0.0233768
-0.0886173,0.0324181
0.00104599,0.0511304
0.0900722,0.00545591
0.127658,-0.0829031
0.129591,-0.064014
0.13177,-0.00292108
0.160347,0.000705606
0.174636,-0.0163364
0.118233,0.038113
0.0303683,0.0681572
-0.0303914,-0.0315826
-0.092475,-0.0695102
-0.172561,0.0334552
-0.178808,0.0269597
-0.144947,-0.07251
-0.111454,-0.0207645
-0.090666,0.034641
-0.0603242,-0.00419002
-0.00172271,0.0460641
0.0714039,-0.00348435
0.119469,-0.0350399
0.133391,0.0319933
0.0844306,-0.0267596
0.0638867,-0.069705
0.101128,-0.0204276
0.047976,0.0219513
0.0064258,0.108053
0.0621134,0.118301
0.0864891,0.0136908
-0.00444282,-0.0739531
-0.118311,-0.0703395
-0.137738,-0.0204313
-0.0853628,-0.0219882
-0.0257904,-0.0268659
-0.0178358,-0.0360684
-0.0880904,-0.0494281
-0.193586,-0.0378525
-0.246188,0.0517872
-0.12684,0.0468139
0.0264448,-0.0534948
0.146532,0.00556181
0.241407,0.0515255
0.269208,0.051687
0.196751,0.0630265
0.127191,0.0638976
0.0527779,0.192064
0.0244648,-0.0243301
0.0276044,-0.161986
0.0344031,0.00442477
0.134771,0.0156352
0.209505,-0.0605794
0.0993124,0.00105338
-0.0341049,-0.0684028
-0.144428,-0.00841657
-0.390893,0.0158301
-0.268923,-0.0335556
-0.181978,-0.0465962
-0.178696,0.0411177
-0.156354,0.0806747
-0.0853389,0.0197688
-0.0110007,-0.125756
0.0348635,-0.0792257
-0.0145884,0.0638378
-0.00403122,0.0353363
0.0429427,-0.00359009
0.119592,0.0664142
0.190717,0.0833555
0.154108,0.00698454
0.076819,-0.0580332
0.0122993,-0.0125206
-0.0650783,0.0530482
-0.149449,-0.00146683
-0.155933,-0.0597018
-0.0907445,-0.0304235
-0.0262955,0.00597457
-0.00281832,0.00640845
0.0545717,0.0150219
0.0813942,-0.0221591
0.0765692,-0.0243145
0.1549,-0.0115336
0.173762,0.0672772
0.100845,0.0451839
0.0237709,-0.0927325
0.0131526,0.0124424
0.00582048,0.128731
-0.0116636,0.0182195
0.00323494,-0.0801657
0.0684772,-0.095469
0.0848874,-0.0887752
0.0459042,0.033458
-0.0144615,0.0902293
-0.176493,0.0689358
-0.324419,0.0223636
-0.263789,-0.058851
-0.121348,-0.0167779
0.0327989,0.0734158
0.127479,-0.00463308
0.126281,-0.0759812
0.0749621,-0.038283
-0.00491118,0.0494005
-0.140759,0.0505194
-0.102371,-0.0985625
0.0219732,-0.0468789
0.110593,-0.00350176
0.108807,-0.0392526
0.103371,-0.101078
0.0436315,0.0305722
0.00971596,0.217789
0.0699977,0.0166083
0.0708632,-0.0460236
-0.0226619,0.0149867
-0.0772784,0.0264159
0.000966089,-0.0390944
0.121638,-0.0413778
0.138778,0.029987
0.0241414,0.0582931
-0.126232,0.107419
-0.182229,-0.0329699
-0.158851,-0.119577
-0.101749,-0.0951436
-0.0439963,-0.0252088
-0.105756,0.0331765
-0.179336,0.0171071
-0.149892,0.0295624
-0.0355972,0.0720933
0.0895543,0.133749
0.127978,0.0810638
0.151258,-0.0641659
0.194984,-0.150099
0.149673,-0.0982845
0.124457,0.00547049
0.0538235,0.0276662
-0.0102515,0.00464454
0.00965861,-0.0428974
0.0260766,-0.049925
0.0383967,0.0075975
0.070274,0.0398373
0.0708091,-0.0264284
-0.0743634,-0.0353778
-0.177294,-0.0313219
-0.15233,-0.0438301
-0.115794,0.0479941
-0.0397761,0.0983288
0.0697067,0.10242
0.148038,0.0272138
0.124949,-0.0240173
0.0266179,-0.0305844
-0.0382053,0.0460661
-0.0831128,0.0615974
-0.132704,0.0502769
-0.125058,0.0162694
-0.103553,0.0376971
-0.055659,-0.0049224
0.021513,-0.110453
0.12926,-0.0742527
0.181209,0.0133444
0.153255,0.00999854
0.0220822,-0.0221931
-0.117604,0.00864375
-0.05149,0.0761351
0.128043,-0.0853698
0.166425,-0.0935068
0.0973925,-0.0768275
-0.0565669,-0.0358468
-0.248354,0.00175929
-0.289487,0.0379486
-0.107617,0.0530117
0.0605572,0.0151159
0.114255,-0.0144225
0.142804,0.0027698
0.116162,0.0356801
-0.00367035,0.0326002
-0.0460092,-0.0411888
-0.0572601,-0.0358265
-0.130707,0.072344
-0.137834,0.0384711
-0.0493132,-0.0157726
0.00262927,0.0758089
-0.0336734,0.0783241
0.00603786,-0.0798933
0.078906,-0.0313522
0.145884,-0.0358668
0.114322,-0.0123827
0.0812061,0.0277081
0.122691,0.0106869
0.145747,-0.067224
0.00279375,-0.0720677
-0.148986,-0.0464273
-0.222988,-0.0264263
-0.166823,-0.0392734
-0.0837931,0.042853
-0.0264415,0.158297
0.0233166,-0.00511685
0.0406846,-0.0612176
0.0637086,0.151135
0.149613,0.0401102
0.159655,-0.0300944
0.0909531,-0.0571276
0.0338446,-0.115954
-0.00852522,0.0163975
-0.0945026,0.0493358
-0.140098,0.049839
-0.135505,0.130115
-0.128765,0.186596
-0.142516,0.00371494
-0.143148,-0.114833
0.0347243,-0.171769
0.235145,-0.145996
0.246352,-0.036441
0.167062,0.0538962
0.114831,0.015101
0.0168712,-0.0426843
-0.0746714,-0.0429024
-0.0339759,0.0778765
-0.00139773,0.0355552
-0.0539638,-0.0152354
-0.0902509,0.0541856
-0.0776912,0.0706216
-0.0599658,-0.038382
-0.0403694,-0.105652
0.057161,-0.0622001
0.145723,-0.0139048
0.128371,0.0521802
0.147838,0.0762446
0.107947,0.103205
-0.0836661,-0.0528749
-0.161862,-0.0641588
-0.143894,-0.0258071
-0.129132,-0.0548118
-0.0385058,-0.0741809
-0.0393284,0.00197566
-0.103043,0.0768771
-0.125251,0.0826659
-0.0952039,0.0441013
-0.0309019,0.0811449
-0.0209887,0.0437109
0.0779907,-0.10419
0.190442,-0.0765214
0.145188,0.048445
0.0787292,0.0336411
-0.00232172,-0.0578457
-0.0643429,0.0493588
-0.107812,0.115641
-0.0125322,-0.0236816
0.0921462,-0.127578
0.0676589,-0.0360444
0.0215234,-0.0630931
0.012402,0.00579547
-0.00516746,0.0724678
-0.0112129,-0.0380215
-0.0298532,0.0100613
-0.0485581,0.0365265
-0.035773,0.0174995
-0.00226014,-0.00647615
0.0179477,-0.111581
6.29e-05,-0.0646176
-0.0312709,0.0418415
-0.0276543,0.0417582
0.0231023,0.0747986
0.0657724,0.190927
0.0865406,0.0368642
0.0503793,-0.0719648
0.00892094,0.0578155
0.00679969,-0.0908296
0.053467,-0.200428
0.0432362,-0.093888
-0.0538399,0.0984391
-0.0899598,0.0965903
-0.0420543,-0.0688428
0.0391506,-0.106071
0.0987112,0.0187633
0.125988,0.0634618
0.126622,0.0234636
-0.0175205,-0.0212016
-0.19683,-0.0200214
-0.0992901,0.0186376
0.142091,0.0446063
0.194466,0.152935
0.055113,0.0363888
-0.112021,0.0313972
-0.24084,-0.0427124
-0.191075,-0.112509
-0.0916161,-0.0323927
-0.0109806,0.0980518
0.0764903,-0.0180006
0.180736,-0.156583
0.185081,-0.071992
0.0826762,-0.0311029
-0.0434404,-0.00376831
-0.152507,0.0701939
-0.138079,0.000165981
-0.0847512,0.0202457
-0.0516008,0.0881992
-0.0825343,-0.0334201
-0.0412518,-0.0740729
0.0348262,0.00435138
0.0616954,0.00734089
0.0805203,0.0528001
0.113874,0.0380851
0.0957599,0.0354941
0.0112514,0.0310488
-0.0555659,0.0424295
-0.0597517,0.00901501
-0.0627918,-0.022703
-0.0965798,-0.00138042
-0.0852127,0.0383173
-0.0654532,-0.0243351
-0.0376179,-0.11204
0.0261738,-0.0354144
0.0455702,0.0320229
-0.00786674,0.0220913
-0.140664,0.0359854
-0.150327,-0.0370519
0.0196533,-0.0651284
0.17524,-0.0292196
0.210518,-0.0231084
0.140595,0.0212498
0.0591174,0.0421437
0.0522534,0.0335159
0.0669976,-0.00431735
-0.000279339,0.0444169
-0.0274299,0.00113706
0.0143382,-0.0287594
0.0407739,0.0633783
0.0363037,0.018876
0.0456114,-0.0366176
0.0388651,-0.0664545
-0.0337429,-0.0118369
-0.104587,0.0203283
-0.0848931,0.0211061
-0.0470537,-0.0199788
-0.0112151,-0.0452085
0.0148767,0.0603752
-0.012192,0.113187
-0.0548732,-0.0230794
-0.0810342,-0.0189319
-0.066729,-0.0452928
-0.041667,-0.0247017
-0.0361221,-0.0284403
0.00630192,-0.0484774
0.0607252,-0.0420144
0.08036,-0.0385761
0.0835362,0.010168
0.0723301,0.0340168
0.106176,0.0281737
0.11843,0.0302075
0.0543739,0.143807
-0.00334633,0.159761
-0.0990403,0.019456
-0.192074,-0.164463
-0.151674,-0.0125776
-0.0210315,0.00427039
0.0700202,-0.0940123
0.000207077,-0.0894755
-0.0716256,-0.0611824
-0.0528344,0.0581402
-0.0230018,0.107301
-0.00533307,0.0661564
0.0604921,-0.0157292
0.0952215,-0.048075
0.137024,-0.0253744
0.141591,-0.0607361
0.0486266,-0.0298297
-0.0545494,0.0163897
-0.136712,0.0370524
-0.156309,0.00458018
-0.0706337,-0.0287594
-0.0535758,-0.0178176
-0.0466359,-0.0233784
-0.0239421,-0.0433395
-0.0267653,0.117424
0.0337601,0.0238804
0.0858193,-0.0270308
0.0891002,0.0498496
0.0680152,0.0367076
0.0762594,-0.0583831
0.0700929,-0.0701593
0.0276112,-0.0477261
0.00803136,0.0324464
0.0333065,0.0650256
0.0449692,-0.0211796
0.00205081,0.0335677
-0.0349131,0.134707
-0.0450691,0.207076
-0.0550688,-0.0221541
-0.0307123,-0.218953
-0.016582,-0.100655
-0.0139464,0.00203455
6.15e-05,-0.0112639
-0.000845047,-0.0487906
-0.0647462,0.0494645
-0.0984745,0.081078
-0.0623017,-0.0515792
0.0284788,-0.119946
0.0856448,-0.0195339
0.0291078,0.0416497
-0.0169421,0.0585791
-0.0213138,0.0210075
-0.0225604,0.0308712
-0.0104923,-0.015642
0.0286026,-0.0240081
0.068114,-0.0189045
0.0850339,0.00167881
0.0470363,0.020447
-0.00385217,0.0767422
0.0134008,0.01164
0.0162477,0.0146961
0.00513431,0.012011
-0.0462051,-0.0582723
-0.110775,-0.0902974
-0.122161,-0.0423226
-0.0972307,0.0519688
-0.0370135,0.0978379
-0.0142099,0.0561022
-0.0148828,0.0442051
0.0955107,-0.175337
0.20813,-0.167792
0.152494,-0.0218362
0.0413094,0.0251666
-0.0186697,0.0472275
-0.0794058,0.0972
-0.0932132,0.0138295
-0.0531008,-0.0299704
-0.00983596,-0.0348373
-0.0120082,-0.0506058
-0.0254626,0.0603791
-0.0128204,0.131522
0.0177738,0.000138847
0.00166784,-0.0160333
-0.0290303,-0.0528564
-0.0170266,-0.0817198
0.00469072,0.00216993
0.019851,0.0860999
0.0298605,0.072351
0.0521578,0.081045
0.0955163,-0.0122571
0.064584,-0.076224
-0.0386932,-0.0147068
-0.0871839,-0.019594
0.0240713,-0.0266125
0.135947,0.0646936
0.21478,0.0783985
0.137586,-0.0436398
-0.051778,0.0577983
-0.180334,0.0857016
-0.185427,-0.144235
-0.15376,-0.11663
-0.0829132,-0.0802266
-0.0296695,-0.0380936
-0.0168366,0.0277615
-0.0376344,0.0581545
-0.0821918,-0.0306133
-0.141483,0.00452265
-0.120574,-0.0411275
-0.00137575,-0.069343
0.0524237,0.0580046
0.0695167,0.0744763
0.12369,0.0555402
0.186763,-0.0149968
0.215063,-0.0337783
0.16815,0.013794
0.0818569,0.00279294
0.0286907,-0.00920283
-0.0111192,0.0304575
-0.0377754,0.0663434
-0.0465088,0.0480211
-0.0397902,0.00405893
-0.0608221,-0.0263681
-0.0801179,-0.0417519
-0.112663,0.0254958
-0.152864,0.0765088
-0.100742,0.0063682
0.0247428,-0.110558
0.085545,-0.0541369
0.0779049,0.0149514
0.050771,0.0191503
0.0408974,0.0459079
0.0415495,0.00826083
-0.0423434,-0.0689434
-0.125288,-0.0362473
-0.114563,0.00769552
-0.0196057,0.00156622
0.0747696,-0.0311307
0.0905931,-0.00542427
0.0640368,-0.000962585
0.0660621,0.0624762
0.0373138,0.0316725
-0.017016,-0.0409326
-0.0537845,-0.0310957
-0.0427496,-0.0158632
-0.0429329,0.00576332
0.0450465,0.0459603
0.177835,0.072195
0.158524,-0.0215611
0.0607514,-0.0253307
-0.027153,0.0308141
-0.101628,-0.0497769
-0.104785,-0.03669
-0.0273798,0.00509044
0.0217766,0.0272697
0.0285957,0.013643
0.0378722,-0.00627668
0.056103,-0.0279142
-0.0441345,0.0410023
-0.12711,0.12246
-0.114386,0.0450546
-0.104036,-0.00380802
-0.0760585,-0.211505
-0.0361857,-0.127785
-0.0199842,0.0312789
-0.0168636,0.0110555
-0.0196634,-0.0560562
0.0427376,-0.030244
0.0866587,0.0328909
0.0762351,0.0308105
0.0438574,0.171322
0.0240522,0.0460325
0.0265636,-0.0886783
0.0428259,-0.0282117
0.000733959,0.0588731
-0.0394634,0.100015
-0.0735972,-0.0180718
-0.0688973,-0.106859
-0.0112442,-0.0100043
0.0522055,0.0322584
0.0509619,0.0358021
0.036,0.00377603
0.101992,-0.0490966
0.0945268,-0.0282934
0.0431935,-0.0187071
0.0438387,0.00291561
0.0476926,0.0654699
0.0344876,0.0918332
0.00167193,0.103562
-0.0457916,-0.0194365
-0.0986798,-0.1176
-0.139554,-0.120987
-0.174748,-0.068547
-0.132441,-0.0473654
-0.0533003,-0.0191626
-0.0259509,0.01444
-0.00483895,-0.00268727
0.000176938,-0.0351618
-0.0302695,0.0619486
0.00181182,0.135047
0.128567,0.0646264
0.200831,-0.037552
0.175495,-0.0280433
0.0655001,-0.0203111
-0.0320793,-0.035674
-0.0183268,-0.0239393
-0.0165363,0.0318593
-0.0201485,0.0404428
0.0175052,-0.00178165
0.0141479,-0.03151
-0.0227201,-0.0248602
-0.0702809,0.00279605
-0.168843,0.122547
-0.160255,0.13449
-0.0571036,-0.0500755
0.0102932,-0.0546541
0.0457612,-0.0164108
0.0721045,-0.0128457
0.0764348,-0.0555589
0.0487073,0.0176903
0.0252481,-0.0244004
-0.0142762,-0.0274141
-0.044101,0.0671401
-0.0447565,0.0503058
-0.0333403,-0.0532619
0.00707412,-0.0235853
0.0654229,0.0322262
0.12141,-0.00225926
0.103076,-0.0453042
0.0439885,-0.0447956
0.0321711,-0.0418082
0.0632095,-0.0265439
0.0457367,0.0087066
-0.0328597,0.0460138
-0.0777965,0.0323292
-0.0898613,0.0309943
-0.131375,-0.0406525
-0.135406,-0.0289365
-0.0656843,-0.0273532
0.0305074,-0.0102179
0.0846379,0.028594
0.0891372,0.0196646
0.0626727,0.0213188
0.0568878,-0.000531492
0.0700182,0.054247
0.0664323,0.116507
0.0120462,0.0522632
-0.0490884,-0.102081
-0.117903,-0.113341
-0.131415,-0.071306
-0.0945327,0.101271
-0.0813693,0.129419
-0.0592521,-0.0391003
-0.00864671,-0.0487743
0.0491817,-0.00884726
0.0984006,-0.00260564
0.119879,-0.0219356
0.11149,-0.0288972
0.0627242,-0.0291799
-0.00493178,0.0550363
-0.0174082,0.0437532
-0.0257817,-0.0541443
0.00102037,-0.0106905
0.0416331,0.045175
0.0353997,0.0333477
0.0145114,-0.0135606
-0.0177844,-0.058433
-0.0802775,-0.000780531
-0.10395,-0.0343902
-0.0786491,-0.035227
-0.0335863,-0.0138544
0.036621,-0.0238912
0.100861,0.0188825
0.0798896,0.0886129
0.016897,0.0604621
0.014739,-0.00152524
0.0358518,-0.0511747
0.0325427,-0.0119188
-0.0354552,-0.012955
-0.0851433,0.0485083
-0.0820569,0.0614989
-0.0552374,-0.0322399
-0.0467521,-0.0509532
-0.0483186,-0.0394779
-0.0331515,-0.0273019
0.0515765,-0.00589297
0.0782165,0.0106625
0.0298967,0.0586972
-0.00442205,0.0477605
-0.0266222,-0.0597868
-0.0703717,-0.0611978
-0.103727,0.00192239
-0.0719328,0.0394992
0.00992224,0.00788058
0.0782247,-0.0213379
0.115689,-0.0135678
0.11734,0.00881242
0.0678665,0.0498803
0.0186594,0.068703
-0.014608,-0.023008
0.00399632,-0.00871474
0.0550552,0.051286
0.0470453,-0.0164805
-0.00769955,-0.052798
-0.0555235,-0.0413435
-0.0909724,-0.0218105
-0.0318584,-0.0169316
0.0216224,-0.00527823
0.0167276,0.00885198
0.0670585,0.0191537
0.0880078,-0.0160546
0.0217922,-0.0300688
-0.0330959,0.0462965
-0.0563955,0.056504
-0.0816648,-0.003156
-0.0916161,-0.0117549
-0.118526,0.0332643
-0.116665,0.00974456
-0.0824356,-0.0419031
-0.012239,-0.0684494
0.0523971,-0.045072
0.0771916,0.0137657
0.0670023,0.0849457
0.0442078,0.0450833
0.0348229,0.0504963
0.0368289,0.0776405
0.0527936,-0.0155416
0.0629481,0.0362758
0.0714712,-0.0776066
0.0561121,-0.0452766
0.0259487,0.0384742
0.0158466,0.0759305
0.0306195,-0.0780187
0.00193776,-0.0878509
-0.0408886,0.0119669
-0.0772616,-0.0290514
-0.0873028,-0.0377017
-0.0772818,0.0334087
-0.0693379,-0.0292405
-0.0861614,-0.015635
-0.0927535,0.0144351
-0.0313254,-0.0916172
0.0189353,-0.0206906
0.00507722,0.0174984
0.0167023,0.00729463
0.029654,0.0469076
0.0421997,0.0623426
0.108944,0.0166221
0.141873,-0.00356105
0.0732667,-0.0214449
0.0271292,-0.0176059
0.0054266,0.0017399
0.01926,0.0189914
0.0400272,0.029836
0.018167,0.018117
-0.00418189,-0.011202
-0.0363722,-0.0283149
-0.07016,-0.0175229
-0.0691606,0.023644
-0.0422889,-0.00487908
-0.0136722,0.00227414
-0.00188154,-0.00786634
0.0388293,0.00554966
0.0316705,0.0184838
-0.0162471,0.0235725
-0.0309471,0.00304702
-0.0452657,-0.0248618
-0.0587727,-0.0132159
-0.077582,-0.00873572
-0.0585843,0.0116118
0.00914403,0.0225391
0.0285079,0.0295452
0.016696,-0.0139822
0.000587904,-0.030926
-0.00936926,0.00713152
-1.13e-05,0.00361874
0.00790391,-0.0277343
0.0453454,-0.0210374
0.0664495,0.00354912
0.0822469,0.0240608
0.0917829,0.0559057
0.0690426,-0.0290081
0.0261529,0.0045683
-0.0247472,0.0421588
-0.0685531,-0.0743056
-0.0755282,-0.0462555
-0.0207833,0.0164997
-0.00209446,-0.00393113
-0.0358037,-0.00892213
-0.0416822,-0.0211139
-0.0189088,-0.0239364
-0.0141272,-0.00123126
-0.00883255,0.00302597
-0.0211857,0.0482214
-0.0127836,0.0831433
0.0124656,-0.0116243
0.0299798,0.0319568
0.0542516,0.183387
0.102607,0.0294725
0.142025,-0.126556
0.0951193,-0.0704998
-0.00379432,-0.0152204
-0.0822199,-0.020846
-0.139413,-0.0383714
-0.155559,-0.0446448
-0.120886,0.0259456
-0.0353817,0.0627675
0.10786,-0.0210629
0.134476,-0.052401
0.112077,-0.0863823
0.105257,-0.0476317
0.0523977,0.045819
-0.0561051,0.0911484
-0.0952747,0.0379626
-0.0850692,-0.020442
-0.077491,0.00870062
-0.0747748,0.0231405
-0.0537253,0.0603783
-0.02292,-0.00174284
-0.00945907,0.010637
0.00849757,0.0013613
0.0195975,-0.075225
0.000669923,-0.0591388
0.0204457,-0.038766
0.0204632,0.00288521
0.0149215,0.0101717
0.0389623,0.00526619
0.0336487,0.00660006
-0.00778152,0.00352244
-0.0586135,-0.0192539
-0.0567291,-0.00918484
-0.0116824,-0.000276096
0.0148652,0.078593
0.0313125,0.0554986
0.0371237,-0.104661
0.0190625,-0.0148045
0.0592041,0.017163
0.0979967,0.0317094
0.0865901,0.0795552
0.0407979,0.0443416
0.005599,0.0709477
-0.0168202,0.0275275
-0.0363982,-0.0298804
-0.0582217,-0.0445816
-0.047048,-0.0670564
-0.0324406,-0.074157
-0.0460551,-0.0285464
-0.0744053,-0.00621975
-0.0785695,-0.00178699
-0.0307538,-0.00526314
0.022447,-0.00986036
0.0375561,0.0113915
0.0652581,-0.0124422
0.094756,-0.0313995
0.0930546,-0.01041
0.0471313,0.0255498
0.042181,0.0441961
0.0834601,0.0410716
0.121815,0.00765809
0.0665566,-0.00185321
-0.029815,0.0488815
-0.0849494,0.00524736
-0.129626,-0.0475179
-0.180045,-0.0438335
-0.222513,-0.0193984
-0.193077,0.0299426
-0.10051,0.0622991
0.0133824,-0.0173224
0.0783809,-0.0310886
0.074529,0.0133353
0.0836991,0.0280871
0.0876801,-0.0250825
0.0542972,-0.0406525
0.00748043,0.106374
-0.00716498,0.127172
0.000368157,-0.083807
-0.0170773,-0.0773199
-0.00763674,-0.0630075
0.0103307,-0.0547381
0.0261525,-0.0268076
0.0052404,-0.0216565
0.0124476,-0.00442373
0.0600999,0.0428816
0.0548893,0.0140005
0.0531105,-0.0267362
0.0462312,-0.00463597
-0.00829833,0.0191209
-0.0393192,0.0211801
-0.0445756,0.0276454
-0.046851,0.0205162
-0.0354982,-0.00758229
-0.0129958,-0.0120417
0.0304468,0.00312372
0.0324952,0.0126805
0.0198249,0.0250391
0.015071,0.0141122
-0.00609782,0.0196916
-0.0331645,0.0354976
-0.0170403,-0.0166504
-0.0139742,-0.0589688
-0.0382687,-0.0108902
-0.0625499,-0.0124275
-0.0569057,-0.0262038
-0.0700997,0.00111049
-0.044641,0.0076443
0.0411725,0.096337
0.102211,0.167311
0.153125,-0.101565
0.10345,-0.070561
0.0325719,0.00931267
0.0059279,0.0242429
-0.0460049,-0.0217575
-0.0949324,-0.00660316
-0.100557,0.00314114
-0.090367,0.0146699
-0.0335568,0.0409106
0.0391126,0.0128737
0.099478,-0.116259
0.122193,-0.115668
0.100142,0.0198622
0.00391599,0.0462018
-0.0576906,0.0108159
-0.0544574,-0.00214919
-0.0640747,-0.00300966
-0.0798105,-0.0150015
-0.0673939,-0.0284152
-0.0398331,-0.00779473
-0.00921216,0.00470286
0.0292543,0.0198875
0.0586149,0.0116972
0.0350019,-0.0611693
0.0619622,-0.0453089
0.0659368,0.0516114
-0.0122345,0.0555586
-0.0182937,-0.0241936
0.0133503,-0.0221399
0.020282,0.0213351
0.000344872,0.0110618
-0.0343764,0.0120839
-0.047628,0.030408
-0.0257168,0.00469914
0.00494126,-0.00649756
-0.00230927,0.0479435
-0.0298927,0.015295
-0.0348323,0.0576957
0.0183618,0.0281536
0.0865216,-0.067306
0.0897528,0.0252771
0.0240827,0.052366
-0.0223716,-0.0583166
-0.0475569,-0.0526598
-0.0753539,0.0224787
-0.0650891,0.0220179
-0.0194032,-0.0124449
0.108863,-0.0791676
0.120802,-0.0604269
0.0458126,0.0665346
-0.0391495,-0.0154408
0.0207177,-0.0752406
0.068613,-0.00815444
0.021625,0.00766561
-0.0575462,0.0306287
-0.0730245,0.0355938
-0.0587101,-0.00184941
-0.0782055,0.0101244
-0.0923356,0.0563793
-0.0585746,0.0518209
-0.0426322,0.0240121
0.0108126,-0.012413
0.0608868,-0.0506689
0.076234,-0.0440462
0.0774497,-0.0420003
0.0633193,-0.0190588
0.013403,0.0224833
-0.0168085,0.0165432
-0.0166602,0.000160157
-0.0604855,0.0183323
-0.08743,0.0220335
-0.0357392,0.0526605
0.00410595,-0.0399142
0.056768,-0.0630088
0.138178,-0.0116715
0.121186,0.0335162
0.0756443,0.000824081
0.0582077,-0.00512191
-0.0125567,0.0681782
-0.106732,-0.00549006
-0.100082,-0.0230864
-0.0346012,0.0099713
-0.0178763,-0.0463941
-0.0163138,-0.0290682
-0.0919164,-0.0133379
-0.228617,-0.00956681
-0.240658,0.0137609
-0.215327,0.0454224
-0.0399671,-0.0304541
0.154541,0.00209763
0.25256,-0.0104244
0.292878,-0.0207442
0.193295,-0.0236784
0.0361625,0.0571396
-0.061131,0.077683
-0.0834431,0.0216072
-0.0474716,0.00835222
0.0338167,-0.0276009
0.107911,-0.0358369
0.0958386,0.0264549
0.0550079,0.027974
0.0624351,-0.030221
0.127138,-0.0315809
0.19498,-0.0320669
0.152491,-0.0330002
0.0341178,-0.0143563
-0.0894374,0.0108877
-0.231225,0.0266449
-0.318333,0.0306222
-0.315115,0.0473169
-0.227954,-0.0118972
-0.0577127,-0.017708
0.0228504,0.0558356
0.0837533,-0.0101448
0.0810222,-0.06025
0.0492311,-0.0340138
0.0583165,0.0163734
0.0599131,0.0277971
0.0817238,-0.0551619
0.103557,-0.0276218
0.0533947,0.0760484
0.00184868,-0.0062327
-0.0329883,-0.0071958
-0.0547614,0.0602062
-0.0594269,-0.0686571
-0.0709791,0.0634238
-0.0254605,0.0566458
0.00343139,-0.0539821
0.0046626,-0.0148111
-0.0233932,0.00873954
-0.0458485,-0.0222445
-0.04083,-0.0555384
-0.0225513,-0.0277218
-0.0217559,0.0501289
-0.0396109,0.259307
0.000242781,0.146704
0.0472027,-0.175828
0.0606321,-0.210599
0.0164906,-0.051593
-0.0331744,0.00592022
0.00179432,-0.0734138
0.0582692,-0.0805028
0.0777923,-0.0199899
0.0486222,-0.00364769
0.010558,0.0147351
0.0381783,0.0481275
0.0965791,0.0625261
0.139369,0.0253372
0.121747,-0.0262334
0.0504422,0.022426
0.0105721,0.0332341
-0.00988628,0.00571382
-0.101905,0.00698462
-0.173449,0.0193587
-0.129918,-0.00537895
-0.0270289,-0.026379
-0.0130853,0.0184633
-0.0698711,0.0220864
-0.148682,0.0341402
-0.198973,0.0417826
-0.133478,0.0116432
-0.0231459,0.0455686
0.0272696,-0.0347408
0.093287,-0.0365882
0.181743,0.000176543
0.221899,-0.0477551
0.13782,-0.0801591
0.0346272,-0.0229971
-0.0121256,0.0102757
-0.0603845,0.0123239
-0.0889207,0.000906017
-0.0581809,0.00392751
-0.0131547,0.0187143
-0.00515521,0.0382345
-0.000862261,0.0551247
0.0181571,-0.0311769
0.0274423,-0.0282053
0.0442098,0.00451834
0.118995,-0.0138545
0.151045,0.0155888
0.137882,0.047677
0.0652843,-0.0212585
-0.0463149,0.00568697
-0.101355,-0.000859787
-0.0776181,-0.0141224
-0.0760599,0.00584065
-0.0565503,0.0600172
-0.0263916,0.0695674
-0.0198467,-0.0372131
-0.0400221,-0.0347988
-0.0121357,-0.0205343
0.0112434,0.0137412
0.0192724,-0.0190512
0.0236382,-0.052413
0.0101271,-0.0538187
-0.0711651,-0.00761216
-0.147251,0.0410144
-0.124803,-0.0106175
-0.0629253,0.0103002
-0.0103555,0.0717677
0.0242676,-0.038877
0.0299669,0.000451886
0.0631728,0.0848104
0.100984,0.0333178
0.0938923,-0.135746
0.0513513,-0.0835331
-0.0120895,-0.0178818
-0.0604877,0.0177186
-0.0265131,0.00675732
0.0434629,-0.0253494
0.0741704,0.0375207
0.0508387,0.0326749
0.0334491,0.00856202
0.0158362,0.00101332
0.0295507,0.00567807
0.0470632,0.0274866
0.038241,0.0158991
-0.113618,-0.0117587
-0.222273,-0.0388788
-0.18666,-0.0159637
-0.0896866,0.0604516
0.0149856,0.0670421
0.121001,-0.0357088
0.165239,-0.0621565
0.0924298,-0.00252868
0.0259937,0.00861113
0.00922437,-0.0199247
0.0290149,0.0072155
0.0646461,0.0452435
0.0686282,0.0194934
0.0313174,0.103404
-0.018222,0.0230721
-0.0654772,-0.125544
-0.0951262,-0.0898584
-0.0870906,-0.062332
-0.0706388,-0.0402937
-0.0968476,-0.0121938
-0.050553,-0.00178468
-0.0185759,0.0244461
-0.00362514,0.0440181
0.0313758,0.0392516
0.0137029,0.016192
0.0124214,0.00805522
0.0337663,0.00789017
0.0450713,0.0044236
0.0815961,0.00184041
0.108172,0.0150268
0.112061,0.00684635
0.0860422,0.0333886
0.0578593,0.118733
0.0180056,-0.0261527
-0.0612758,-0.090141
-0.12927,-0.0439434
-0.187684,-0.0372616
-0.145272,-0.0224137
-0.0809824,0.0068698
-0.0316627,0.0623997
-0.0164046,0.0168612
0.0199686,-0.0401249
0.0453,-0.0267867
0.0239451,0.00988382
0.036757,0.0655946
0.0156158,0.0256434
-0.0551434,-0.0404912
-0.0709573,-0.0344668
0.0525306,0.0119104
0.283849,0.010791
0.293676,0.0593232
0.156931,0.038556
0.00669494,-0.0551028
-0.102076,-0.0299377
-0.113213,-0.0147048
-0.0775045,-0.00897674
-0.0600799,0.0399108
0.0107997,0.0270811
0.025858,-0.00834455
-0.0722032,0.0128568
-0.132804,-0.0432807
-0.150792,-0.0651242
-0.11939,-0.0902841
-0.0349851,0.00542678
0.0291907,0.144186
0.0157391,0.0350781
-0.0391984,-0.0292043
0.0166032,0.0136166
0.124153,-0.00275775
0.132805,-0.0184623
0.0958345,0.0134787
0.0592464,0.0250558
0.0309507,0.0189628
0.0191599,-0.0101089
0.00140384,-0.0462004
-0.020773,-0.059124
-0.0628183,-0.0441077
-0.0975385,3.1e-05
-0.10502,-0.022696
-0.0894986,-0.0191285
-0.0276221,0.0190791
0.0430223,0.00387243
0.0686102,0.0755297
0.0221121,0.0404681
0.0349393,-0.0499547
0.0685972,-0.0394619
0.0728977,-0.00533207
0.0137664,0.0357567
0.0102153,0.0506914
0.0106699,0.0400725
-0.0722319,-0.0318806
-0.0560765,-0.0292633
0.0082385,0.0247031
0.0192877,0.0900305
-0.00349927,0.0329569
-0.0198998,0.0405444
0.0100907,-0.041048
0.0176867,-0.130297
-0.0245621,0.00922276
-0.0329569,0.021722
-0.0225885,-0.00774192
-0.0164997,0.00318763
0.0146784,-0.0264872
0.0226655,0.0317274
0.0118406,-0.0283981
9.08e-05,-0.0162967
-0.00426471,0.0198899
0.0122296,-0.0350781
-0.0118702,-0.0278654
-0.0492625,-0.0326684
-0.0343716,-0.0120671
0.0133126,0.0170935
0.0581286,0.00570837
0.0427678,0.0531758
0.00515489,0.0400861
-0.00746621,-0.0638562
-0.000422666,-0.0295913
0.0152045,0.00028664
0.0747524,0.0141808
0.10042,0.0654001
0.0961,0.0327182
0.0337897,0.0129267
-0.0298052,-0.0057124
-0.0460312,-0.0672441
-0.027503,-0.044484
-0.0435149,0.020684
-0.0402997,0.0176213
-0.0356624,0.0512099
0.00861044,0.0355286
0.0258084,-0.00941802
-0.00389473,0.0380456
-0.00148524,0.0190789
-0.0421125,-0.00122136
-0.0960101,0.0214844
-0.119839,-0.0412408
-0.135153,-0.0484478
-0.116647,0.0158723
-0.0666326,-0.0134537
-0.0379496,-0.0048571
0.0455941,-0.0166719
0.154854,-0.0436826
0.175192,-0.0629504
0.159988,-0.0108952
0.145133,0.0233896
0.0512774,0.00399313
-0.0650396,-0.00598098
-0.140507,0.0108056
-0.089999,0.0385517
-0.0334973,0.0208157
-0.0284266,0.00866968
-0.0167334,-0.0305726
0.000135055,-0.0213168
0.00866859,0.00693224
0.0364474,0.100728
0.0362878,0.0932389
0.0278824,-0.051529
0.0356615,-0.0712021
0.0397656,-0.0105683
-0.0169327,-0.000126225
-0.0483331,-0.0274182
-0.0109298,-0.0219037
0.0258685,0.00171496
0.0548092,0.0440361
0.0165705,0.0714795
-0.0513835,-0.00942363
-0.0686749,-0.0272154
-0.0513232,-0.0149263
-0.0606752,-0.0156964
-0.0200009,-0.085595
0.0484537,-0.0395891
0.101126,0.0344873
0.113052,0.0200357
0.102074,0.00138994
0.0496686,0.0163987
-0.0546992,0.0346734
-0.110335,0.0200082
-0.121555,0.0311554
-0.0607384,0.00863457
0.0195721,-0.00654927
0.0263689,0.0158307
0.0345305,-0.024401
0.0162373,-0.0398283
-0.028793,-0.0445517
-0.038283,-0.0231917
-0.0100342,0.00727054
0.0417257,0.00280066
0.0527232,-0.013689
0.0337545,-0.0323002
0.0304997,0.000118974
0.0323887,0.0532505
0.0574545,0.0482552
0.0826446,0.000229846
0.0829388,-0.0280749
0.00818569,0.000781823
-0.0820779,0.13756
-0.133678,0.132381
-0.10334,0.0706943
-0.0408034,-0.0891388
-0.00969342,-0.116199
0.0342592,-0.064326
0.0632291,-0.0741825
0.0758509,-0.0361183
0.0277008,-0.00814677
-0.0579028,0.0100254
-0.116744,0.0296197
-0.118964,0.0361043
-0.10718,0.0288531
-0.0780794,0.0155521
-0.0238257,-0.0318539
0.0163342,-0.0677622
0.0723545,-0.0651699
0.0786541,0.0456429
0.0687338,0.0581957
0.0883382,-0.0203704
0.0822769,-0.004507
0.028647,0.00145825
-0.0121389,-0.00468389
-0.040983,0.00639252
-0.0802658,0.0135036
-0.0746955,-0.020124
-0.0144045,0.00669996
0.0241744,0.0185379
0.0316195,0.0456816
0.0475384,0.0461107
0.0399819,-0.00809711
0.0421725,-0.0175981
0.0662315,-0.0346343
0.0749538,-0.0303235
0.0149713,0.00553132
-0.0723456,-0.0178276
-0.0950654,-0.0177207
-0.0775047,0.0233496
-0.0797547,0.00442707
-0.0565067,-0.0396935
-0.0108459,0.0521442
0.0244012,0.172702
0.0641494,-0.00879857
0.102837,-0.0987775
0.112877,-0.0525095
0.0925599,-0.0424223
0.0266872,-0.0327352
-0.0748056,-0.0570541
-0.119732,0.00892815
-0.109137,0.0484218
-0.0299101,0.0338662
0.0510571,0.0196233
0.0263203,0.00286845
-0.0409617,0.000259879
-0.102597,-0.00852695
-0.0848931,-0.00823251
-0.0489636,0.0501757
-0.0185622,0.0874733
0.0475898,0.00970347
0.154722,-0.0825733
0.23177,-0.0206057
0.205886,-0.0090997
0.0977897,-0.010039
-0.0146921,0.0295732
-0.126711,0.0540918
-0.175802,-0.00205368
-0.105664,-0.0387526
0.00996652,-0.0442614
0.0469594,-0.039155
-0.00552699,-0.0353572
-0.0670591,0.00690819
-0.0915387,0.0329611
-0.117839,-0.014778
-0.0676489,-0.0559263
0.0102578,-0.0144121
0.0323741,0.0454092
0.0184419,0.0481189
0.0120574,0.0226569
0.0295558,-0.0222407
0.1034,-0.00679876
0.106771,0.168233
0.0745797,0.141981
0.050821,-0.0781566
-0.01269,0.0268948
-0.0524017,-0.0531647
-0.00562449,-0.123738
-0.0282725,0.0109501
-0.0288052,-0.017707
0.0198448,-0.0440694
0.0322599,-0.0155171
0.0281316,-0.0338125
0.0791431,0.0188257
0.0736612,0.0480781
0.0134508,0.0151655
-0.0177401,-0.0211989
-0.060188,-0.0686588
-0.105286,-0.00370009
-0.0707159,0.014139
-0.04564,-0.0235887
-0.0702724,-0.00682284
-0.0608678,-0.0137985
-0.0275328,-0.00699484
-0.0220748,-0.0029946
-0.0212108,0.00644354
-0.0296485,0.0264155
0.0125864,0.0108479
0.0499623,0.0183023
0.0549298,0.0159893
0.0465517,0.0102474
0.0347098,0.0381174
0.0204457,0.0966904
0.0244854,0.0640273
0.0600422,-0.0310953
0.0529595,-0.0212258
0.00778913,0.00829787
0.00733596,-0.0337633
0.0376105,-0.0652454
-0.00468519,0.00345007
-0.0314995,0.0309353
-0.034274,-0.0559423
-0.0846079,-0.0556556
-0.100127,-0.0214138
-0.0590452,-0.0147722
0.0132022,-0.0139321
0.0182376,-0.00758026
0.00666952,0.0229642
0.0465013,0.0697047
0.0609426,0.0357958
0.0245987,-0.016873
-0.00905654,-0.00897767
-0.00450142,0.0278553
0.00946378,0.0102173
0.0357116,-0.0158679
0.027095,-0.0232302
0.0421071,-0.0227237
0.0619282,0.00292396
0.00869923,0.0432392
-0.00862026,0.00266504
-0.0145701,-0.0379022
-0.0754653,-0.0031374
-0.10153,0.0234465
-0.088044,0.00676226
-0.0590624,-0.0516608
-0.0315498,-0.00800307
0.00513352,0.0055367
0.0245086,-0.0145159
0.0398792,-0.00812432
0.0179351,-0.00119336
0.0132227,0.0100941
0.0253566,0.0298758
0.0254988,0.0615045
0.0327038,0.0115406
0.0758574,-0.00405918
0.117968,-0.00430624
0.114956,0.00302091
0.0754044,-0.00935292
-0.0233756,-0.0441815
-0.114574,-0.0653359
-0.158191,-0.0156396
-0.110324,0.0390083
-0.0488653,0.0496997
-0.014311,0.0290054
-0.0129274,0.032627
0.0583491,-0.00917533
0.0787801,-0.0499356
0.02567,-0.0178052
-0.0299621,0.0458996
-0.0717036,0.0236153
-0.0357933,-0.0180831
-0.0105257,-0.0275786
0.00732267,-0.0318315
0.0301271,-0.00336512
0.00230309,0.029006
-0.0200372,0.0418829
-0.0332176,0.0601379
-0.0192212,0.0304677
0.0123725,-0.0671212
0.0294588,-0.0316796
0.0407635,-0.0170954
0.0257383,-0.0021924
0.00566327,-0.031126
-0.0113694,-0.0511386
-0.0288846,-0.0264947
-0.0422511,-0.0086032
-0.0281656,-0.00133601
-0.0092332,0.0188077
0.0353869,0.031925
0.0719508,0.0186284
0.0521396,0.00248399
0.0169057,0.00880787
0.0204197,0.0133526
0.0429735,-0.0161098
0.0382433,0.0151766
0.0117767,-0.0395085
-0.0300672,-0.0126806
-0.0485485,0.043112
-0.0229721,0.0155408
0.00199096,-0.0307827
-0.0162631,0.0357835
-0.0221449,0.048231
-0.00235673,0.0175192
0.0175277,0.0137695
0.00196914,-0.0424666
0.00871801,-0.0370068
0.0339403,0.0271457
0.011111,0.00644735
-0.0117994,0.0118531
-0.0281901,0.0155206
-0.00382164,-0.0242748
0.000774477,-0.0717052
-0.0312698,-0.0529821
-0.030352,-0.0251385
-0.0197018,0.0026977
-0.0349214,-0.0221858
-0.0498651,0.0171901
-0.0277919,0.0644834
0.0105984,0.0576189
0.0716562,0.0160364
0.108043,0.00482821
0.0522768,-0.00450147
-0.00640857,0.0391035
0.0375014,0.0111934
0.0685745,-0.0433603
-0.00376661,-0.0221522
-0.0707331,-0.0115705
-0.0885182,-0.00797984
-0.0627888,-0.00103586
-0.030894,0.0301823
-0.00897081,0.0180205
-0.0180173,-0.0319605
-0.0223249,-0.0107246
0.0017919,0.0181607
0.00496018,-0.0323889
-0.0168779,0.00898751
-0.0263777,0.075997
-0.00543474,-0.0105721
0.0411353,-0.0454227
0.0748742,-0.00694541
0.0737794,-0.0094537
0.0534057,-0.00884075
0.0122499,0.00181265
-0.0296862,-0.00645329
-0.0525525,-0.00235012
-0.0320112,0.0145304
0.0105737,0.00843494
0.0319547,0.00138869
0.0067412,0.00792101
-0.0185838,-0.00380125
0.00648525,-0.0230405
-0.0201556,0.00364286
-0.0338463,0.0732437
0.0100998,0.0510482
0.00887428,0.0493255
-0.0281431,0.0525211
-0.0500208,-0.0905182
-0.0579327,-0.0973811
-0.0352992,-0.0152095
0.00881525,-0.00439269
0.0512755,-0.0128671
0.111254,-0.00829506
0.119616,-0.0166322
0.0830048,-0.00900589
0.0411888,-0.00317375
-0.00255133,-0.0374356
-0.0524863,-0.0976885
-0.0711185,-0.0145824
-0.0698152,0.118429
-0.0520162,0.0169146
-0.0111346,-0.0593882
0.00291328,0.00985195
-0.0366722,0.0466214
-0.0438529,0.0127614
-0.0218853,-0.00626305
0.00838061,-0.0120282
0.0339548,0.0399709
0.0391387,0.0657068
0.0384111,0.0179765
0.0540468,-0.041256
0.0439363,-0.00253968
0.0567656,0.0218213
0.0376205,-0.00821763
-0.00129782,-0.00678409
-0.0159012,-0.00679206
-0.0541699,-0.020989
-0.0760672,-0.000718472
-0.0745014,0.0239468
-0.0895672,0.0632739
-0.0677441,0.010333
-0.0243939,-0.051387
0.00829782,-0.0603614
0.0361897,0.0226277
0.0720797,-0.0415972
0.121773,-0.0144932
0.125784,0.0541516
0.0713156,0.0469812
0.000105715,0.0154443
-0.0591494,-0.00469619
-0.0736539,-0.0302678
-0.0357875,-0.0270253
-0.0105375,-0.00689033
0.00435782,0.0251532
0.00992589,0.00440143
-0.00445588,-0.0150505
-0.0244628,0.0268255
-0.0230292,0.0305807
-0.0163538,-0.0525453
-0.0414317,-0.0529807
-0.0760283,-0.00370476
-0.07676,0.0420279
-0.0572371,0.0424776
-0.012409,0.000687433
0.0503155,0.00295945
0.0742714,0.0117046
0.0760359,-0.010796
0.0570622,-0.0147169
0.0454925,-0.0381011
0.0382806,-0.0232357
0.0472281,0.000671243
0.0689802,-0.00128181
0.0434664,-0.0137617
0.000444658,-0.00622536
-0.03298,-0.0158196
-0.0964861,0.00683161
-0.158347,0.0428244
-0.139808,0.0336692
-0.0374869,0.00521376
0.024407,0.00727996
0.0306731,-0.0334834
0.0374277,-0.0386189
0.0559125,-0.0155459
0.0676901,0.00554767
0.0779851,0.0184186
0.0882701,-0.0109716
0.0617909,0.0113015
0.0260785,0.0230998
-0.00212636,0.0145566
-0.0232831,-0.0209467
-0.0408358,-0.0588896
-0.0937156,0.0129858
-0.119005,0.0814948
-0.0914598,0.0386505
-0.0524911,-0.0210079
-0.021304,-0.00871268
0.0227975,0.090068
0.0795325,0.0233529
0.094255,-0.121288
0.0596064,-0.0541987
0.0243852,0.0328413
-0.0490536,0.024347
-0.0832672,-0.0304197
-0.0639253,-0.0306892
0.0124078,-0.0244925
0.0716737,0.0904359
0.0877345,0.0268121
0.0467947,-0.0699373
-0.00418211,-0.0183017
-0.014161,0.0579214
-0.00468595,0.0229079
0.0207865,-0.0165847
0.0477412,-0.0293335
-0.00481674,-0.000591673
-0.0892072,0.017129
-0.0786775,-0.0116024
-0.0219779,-0.00969855
-0.0136503,0.0122577
-0.0332522,-0.00242399
-0.0217686,-0.0218158
0.0190301,-0.0114487
0.0318581,0.00591366
0.0440815,0.00608858
0.050481,0.0176314
0.00765219,0.010756
0.00116808,0.00344814
-0.000559511,-0.0196368
-0.0182,-0.00832349
-0.0444806,-0.00333869
-0.0386273,0.00669931
0.0133593,0.0379688
0.00613359,0.0276326
-0.0357606,-0.0123689
-0.0160586,0.012362
0.0393943,0.0208142
0.0578613,-0.0479246
0.0630891,-0.068995
0.0729355,-0.0143027
0.0701939,0.0896507
0.0920536,0.0458163
0.0819513,0.0315921
0.0269745,0.0701259
-0.0374281,-0.0457221
-0.0895411,-0.126046
-0.118418,-0.0619538
-0.0975251,-0.00927075
-0.0342174,-0.00487871
-0.00508544,-0.00665209
-0.0356015,0.0248009
-0.040234,0.0364881
-0.0340726,0.0132849
-0.0597769,0.0122954
-0.0712126,-0.0233437
-0.0641343,-0.0349907
-0.0109907,-0.0284692
0.0589509,-0.0165504
0.0948027,0.0354561
0.0877409,0.0128402
0.0538263,-0.0144618
0.0190524,0.00822925
0.0301334,0.0284905
0.0614184,-0.0185643
0.0506565,-0.00100555
0.0164362,0.0646189
-0.0117687,0.0307923
-0.027571,-0.022622
-0.03642,-0.0191016
-0.0489164,-0.0181288
-0.0580091,-0.0125435
-0.0552942,-0.0128094
-0.0204401,0.0167482
0.0103725,0.0171868
0.0159382,-0.00923597
0.00845148,-0.00353614
0.011132,-0.0259976
0.0170256,-0.026252
0.0109615,0.00570755
0.0138038,-0.0104452
0.00520187,-0.0106642
-0.00124647,0.0276163
-0.007239,0.0434352
-0.00879569,0.0600013
0.00729491,0.030163
0.00553296,-0.0223385
-0.014777,-0.0451572
-0.0171131,-0.0397713
-0.00958502,0.0221013
-0.00624896,0.0612578
0.0188228,-0.0197657
0.0302865,-0.0134378
0.0172467,0.00287844
0.00784159,-0.0389658
-0.00957667,-0.0139756
-0.0228083,0.072374
-0.00688538,0.071436
0.00469127,0.020732
0.0106662,-0.0909549
0.0244812,-0.0521584
0.0249852,-0.0224056
0.00531969,-0.0321445
-0.0218277,-0.00790967
-0.0698533,0.0732641
-0.0872448,0.0320479
-0.0482908,-0.0451048
0.0168786,-0.0338253
0.0449691,-0.00848828
0.0583057,-0.00321892
0.0535243,0.000507766
0.0566038,0.000898296
0.0388202,0.0316395
0.00303062,0.0291139
-0.0206889,-0.0106636
-0.0467948,-0.00384748
-0.0434018,-0.013487
-0.00103458,0.0259199
-0.00022515,0.0234955
-0.0331015,-0.0124368
-0.0419058,-0.0103914
0.0246145,-0.00140564
0.104371,-0.0135913
0.0759174,-0.0366626
0.00569688,-0.0263616
-0.0463055,0.0301758
-0.0183827,0.0182997
0.0432544,-0.0137225
0.084112,-0.0049905
0.0650534,-0.00888277
0.0408745,-0.00264907
0.00937084,-0.000516523
-0.154813,0.0177877
-0.178386,-0.00607305
-0.131918,-0.0279916
-0.0877482,-0.0122047
-0.0429142,0.00592003
0.00373703,0.0303228
0.0325414,0.0707062
0.0691644,0.0811512
0.0780891,0.0239337
0.0437003,-0.0675221
-0.0183444,-0.00554277
-0.0192793,0.0272153
0.0244974,-0.0352683
0.0385784,-0.0520792
0.0272298,-0.03511
0.00749201,0.0227422
-0.0190459,0.0397775
-0.00208451,0.0168438
0.0179793,-0.00242973
0.00144802,-0.00644736
-0.015449,-0.0426818
-0.0236401,-0.0238398
-0.00940353,-0.0204227
0.00576776,-0.0126959
0.0198515,0.0121509
0.0510262,0.0540478
0.054022,0.0545711
0.0366674,-0.00957716
0.0175255,0.00957934
-0.0011447,0.0130672
-0.0178123,-0.036962
-0.0270146,-0.0496331
-0.0111793,-0.0394751
0.00567764,0.00192583
0.0101817,0.0596799
0.0101277,0.0198301
0.00939159,-0.00400552
0.00921645,-0.0215741
-0.00920412,-0.0734377
-0.0484695,-0.0446935
-0.0551696,0.0525805
-0.022502,0.0729519
0.00115939,-0.00479225
0.00611415,-0.030774
-0.00731468,-0.0050759
-0.0280393,0.0373678
-0.0327418,0.0162652
-0.00528788,-0.0651904
-0.00220259,-0.0183841
0.00503255,0.0284667
0.0138889,0.00788662
0.00481837,-0.00218972
0.00856869,0.0091903
0.0222926,0.0147379
0.00980505,0.0125197
-0.00630043,0.00179695
-0.00219678,0.00137298
0.0166402,0.0881961
0.0440956,0.0443251
0.0741616,-0.0646674
0.110419,-0.0457268
0.0914592,-0.0120023
-0.000859627,0.0155703
-0.0962375,0.0157483
-0.126625,-0.014677
-0.104278,-0.0440655
-0.0439345,-0.0444799
0.0303021,-0.0189
0.0467198,-0.00919844
0.000449803,-0.00135735
-0.0333526,0.0361036
-0.0284869,0.0663468
-0.0507364,0.0642631
-0.0313541,-0.0639705
-0.00122217,-0.061529
0.00211215,-0.0186955
0.0205192,0.00811956
0.0386637,0.0084607
0.0347428,0.0410844
0.00493296,0.00926958
-0.0130153,-0.0403953
-0.0244351,-0.0104378
-0.0255899,0.0105592
-0.0177393,0.0191367
-0.00370562,0.00587981
0.0296886,-0.0157698
0.0469423,-0.00656629
0.0459273,-0.0246681
0.00682076,-0.0247126
-0.0279295,0.0415418
-0.013991,0.0960344
0.0405855,0.00276456
0.0850517,-0.0495318
0.0981108,-0.0197261
0.0758258,0.00174896
0.000675585,-0.00172619
-0.0564927,-0.0138399
-0.072125,-0.0163269
-0.0861056,-0.00435695
-0.0717465,0.00914309
-0.0441038,0.0211934
-0.0208642,0.0110912
-0.00633845,-0.00441322
0.00741693,0.0125384
0.0102577,0.00534646
-0.00898047,-0.0333937
-0.00954963,-0.0128266
0.0126845,0.0184226
0.0206376,0.0519577
0.0150429,0.0444067
0.0235405,-0.0263993
0.0333806,-0.0192002
0.00676085,-0.0317167
-0.0321121,-0.0366964
-0.0619759,0.0402697
-0.0412268,0.138729
0.0131161,0.0108323
0.0297443,-0.108843
0.0179059,-0.0690743
0.0147281,-0.0473618
0.0132251,-0.020651
0.00270313,0.00731803
-0.0117734,0.014365
-0.0100207,0.0086686
0.00382092,0.0101385
0.011917,0.00743098
0.00756624,0.00822454
0.00642554,0.0121141
0.0131611,0.00523124
0.0364857,0.0136328
0.0404648,0.0259633
0.0284499,-0.000500425
0.0038384,-0.014542
-0.00962984,0.0112797
-0.0337011,0.00903867
-0.037612,0.00694269
0.00405155,0.0393106
0.0450324,0.00734262
0.0304944,-0.0438469
0.00727279,-0.0319533
-0.00371061,-0.0163549
0.00197465,-0.0229271
0.00348407,-0.0110646
-0.00670441,0.059497
-0.0283236,0.0611897
-0.0469424,-0.0238062
-0.0662749,-0.063781
-0.0692074,-0.0235481
-0.0413423,0.0590896
0.0031226,0.052052
0.0368187,-0.0482655
0.0345135,-0.0561335
0.0125666,-0.0258997
-0.00766238,-0.0167294
-0.0128727,-0.011314
-0.0136787,-0.0138065
0.00701297,-0.00359581
0.0369124,0.0160443
0.0444986,0.0133592
0.0276556,0.00807992
0.00488653,0.0216706
0.00860076,0.00753116
-0.00729698,0.0046272
-0.0144692,-0.00215425
-0.0167392,0.00195187
-0.027089,0.00604991
-0.0143694,0.0221191
0.00296815,0.0196645
-0.0123185,0.0270243
-0.0171021,0.0224115
0.00742337,0.0889167
0.00428932,-0.00574605
-0.00175757,-0.147305
-0.0095685,-0.0365755
-0.00200934,0.0670544
0.0189809,-0.0184941
0.0375888,-0.0625258
0.0391525,-0.0145396
0.023677,0.0126677
0.00631573,0.00157909
0.00975016,-0.00823299
0.0298187,-0.00439444
0.0414385,-0.00275277
0.0543179,0.00788537
0.0451571,0.0366863
0.000472597,0.0289667
-0.0425946,-0.0122782
-0.0681809,0.011952
-0.0613687,0.0142694
-0.0225585,-0.00826521
0.00528632,0.014498
0.0236634,-0.0151493
0.00595864,-0.0230345
-0.0207813,-0.0177614
-0.0417819,0.0130812
-0.0667296,0.0487618
-0.0620418,0.00752805
-0.0497011,-0.0123062
-0.0285287,-0.0241712
0.00666736,-0.0143287
0.0496963,0.00564694
0.0507827,0.0297633
0.0221435,0.0334066
0.00988273,-0.0250809
0.00630395,-0.0277486
-0.00564634,-0.0152832
-0.0100275,-0.0107021
0.00402308,0.00560823
0.0194326,0.00563851
0.0116072,0.0160776
0.00693462,0.044696
0.0102646,-0.00521898
0.00247436,-0.0548196
-0.00776967,-0.0344604
-0.00811117,-0.017846
-0.00670254,-0.0118434
0.00566891,0.00110039
0.0186753,0.00909297
0.0157693,0.00126286
0.0070849,-0.00320798
0.00292692,0.018761
-0.00653939,0.0588146
-0.0103867,-0.00183684
-0.00629189,-0.0514835
0.00583533,-0.0157542
0.00999908,0.000838631
0.00820671,-0.00379808
0.00511591,0.00125426
-0.0100775,0.00551791
-0.0200205,0.0044314
-0.00937983,0.00528746
-0.000558623,-0.00457454
0.00037365,0.00147007
0.0195583,0.0142747
0.0316802,0.00858351
0.0193471,-0.00248426
0.00196778,0.00228939
-0.0100578,0.00516238
-0.0223449,0.00650627
-0.0286056,0.00177363
-0.0165062,0.0311464
-0.00623629,0.0362703
-0.00266179,0.0130305
0.00201232,-0.0289263
-0.00119616,-0.0194526
-0.0127777,0.00088773
-0.0219335,-0.00574353
-0.0128151,-0.00541446
0.00370105,0.00231478
0.0215468,-0.0176811
0.0279967,-0.0234295
0.025438,-0.0170113
0.0126324,0.00954677
0.00278675,0.044551
0.000966365,-0.0131077
-0.00918151,-0.0262619
-0.0210558,0.0191806
-0.0138686,0.0404966
0.00119005,0.00365821
0.00237036,-0.0314726
0.0010931,-0.0116042
-0.00495987,0.0163549
-0.0135564,0.0478924
-0.00953813,0.0267879
-0.00103947,-0.0318668
-0.00231311,-0.0431502
0.0100141,-0.0094529
0.0272192,0.00156448
0.0214917,-0.0123624
0.0103115,-0.024099
0.00427645,-0.0087004
-0.00600088,0.027237
-0.0118538,0.000163049
-0.00929279,-0.0255388
0.00508382,-0.0180917
