Comp Ch 3,Comp Ch 4
-0.0202155,0.0244014
-0.0382786,0.0171674
-0.0402859,-0.0063854
-0.0355185,-0.00889607
-0.0220767,0.00241159
0.00433942,0.0153051
0.0402561,0.0381429
0.0425848,0.0127588
0.0176842,0.00123396
-0.00824511,0.00901775
-0.0237772,0.013539
-0.0332444,-0.0258528
-0.0267267,-0.0690714
-0.0148004,-0.024395
0.00417191,-0.00653861
0.0295389,-0.0139095
0.0257113,0.0116588
0.000502643,0.0301596
-0.0113575,0.0314899
-0.0119467,-0.00193855
-0.00826,-0.0222599
-0.00145433,-0.0238451
0.0150342,-0.0058621
0.0230438,0.0197147
0.0176929,0.0256689
0.0107276,0.0160828
0.0110972,0.00780835
0.0275258,0.00557802
0.0235516,-0.000610028
0.00764711,0.00382841
-0.0266282,-0.00235787
-0.00423859,-0.00358772
0.0642006,0.00506564
0.0893716,-0.00465847
0.0825744,-0.00634627
0.0481823,-0.0122146
-0.048732,-0.0252749
-0.133748,-0.0237012
-0.161608,-0.0121363
-0.140114,0.00132785
-0.0730395,0.00693869
-0.0111513,0.00260631
0.0185375,0.00612818
0.0214311,0.00559083
0.0163208,-0.0171609
0.014665,-0.00592115
0.0177662,-0.00478673
0.01581,0.000626391
0.0297554,0.0263069
0.043254,0.0105487
0.0197157,0.0166593
0.00584002,0.0117968
0.000526952,-0.025512
-0.0215005,0.085783
-0.0315339,0.0399241
-0.0143598,-0.0641464
0.0134795,-0.0124691
0.0301526,-0.0209677
0.041984,-0.0318451
0.049089,-0.0147445
0.0382724,-0.0023433
0.0201593,0.00211266
0.00377816,0.000316842
0.00252128,-0.00690541
0.00382568,-0.00536376
0.00738328,0.000713377
-0.000525657,-0.00238311
-0.0247476,0.00618569
-0.036197,0.00456481
-0.0406207,-0.0209914
-0.0566971,0.0188348
-0.064222,0.0808378
-0.0320133,0.0344289
0.00688871,-0.0436086
0.00957399,-0.0243628
0.0203417,-0.0215767
0.030913,0.00100059
0.0380624,0.0581465
0.0429714,0.043898
0.0477254,-0.00839762
0.034591,-0.045299
0.0120363,-0.0466095
0.00850875,-0.0128695
-0.00808411,0.0252686
-0.0286177,0.0316831
0.00629796,-0.0161159
0.0573052,-0.0483442
0.0578243,-0.0358443
0.0290096,-0.0102738
-0.00665001,0.0223618
-0.053818,0.00823613
-0.0885877,-0.0135835
-0.0796743,0.000504017
-0.0674167,0.00577904
-0.0324934,-0.00621192
-0.00547349,-0.00425482
0.0112513,0.0104768
0.0094538,0.0160702
0.00962156,0.0103585
0.00694949,0.00643902
-0.0125646,0.00690334
-0.0197244,0.00103921
-0.0145109,0.0089115
-0.0189632,0.0274817
-0.03002,0.00802188
-0.0274868,-0.00959509
0.00435627,-0.00635445
0.030312,0.00771591
0.0404509,0.0410486
0.0409487,0.0328689
0.0281847,-0.0252966
0.013937,-0.036213
0.0235307,-0.00600431
0.0321931,-0.0232905
0.0300197,-0.0191473
0.0293243,-0.00049713
0.015265,0.0118626
-0.019557,0.0163608
-0.0163169,-0.00220371
0.0103694,-0.00475257
0.0280044,0.0131247
0.00461605,0.0325925
-0.00676261,-0.0182912
-0.00415311,-0.087083
-0.0280539,-0.0648549
-0.0171833,-0.0314944
-0.00417466,0.0102386
-0.010433,0.0670409
-0.00175028,0.0572218
0.00343992,0.0284294
-0.0156683,-0.00999307
-0.0236003,-0.0216499
-0.0083105,-0.0166631
-0.00808371,-0.0125632
-0.0186786,0.00480411
-0.0185822,0.0410644
-0.0242085,0.0575804
-0.0259044,-0.00179315
-0.0189943,-0.0300698
0.0124354,-0.0153632
0.0317678,0.00124828
0.027391,0.00506421
0.0250273,0.00476922
0.0200449,-0.000342313
0.00324891,0.013945
-0.00667336,0.0165721
0.00384677,-0.0100003
0.00577994,-0.0348491
0.0176546,0.000105733
0.0213878,0.0506878
0.00203744,0.039371
-0.00864316,0.0353751
-0.00183208,-0.031656
-0.0160798,-0.0932758
-0.0393373,-0.0442781
-0.0365825,-0.0200263
-0.00575053,-0.00250451
0.0120958,0.019932
0.0280664,0.0358683
0.0418532,-0.0130184
0.0396731,-0.0498514
0.0270694,-0.0375419
0.0270179,-0.0217704
0.0168919,-0.00827672
0.00370491,0.00563577
0.0196106,0.0167644
0.0209755,0.0339085
-0.013118,0.0588227
-0.0367144,-0.0165466
-0.0666935,-0.00783398
-0.0793228,0.0259547
-0.0569824,0.0436903
-0.00852533,-0.00495446
0.0382623,0.0158606
0.0780097,0.0202228
0.132814,0.000396359
0.144,0.0100095
0.112218,-0.0146079
0.0397346,-0.0359629
-0.057112,-0.017905
-0.138903,-0.000761454
-0.168554,0.00325845
-0.147325,0.00404037
-0.100983,-0.00534237
-0.0457594,-0.0174652
0.00701435,-0.0205327
0.0243762,-0.0151839
0.000495633,-0.0271958
-0.0366396,-0.023648
-0.0462687,0.0207423
-0.0316613,0.0210923
-0.0108504,6.28e-05
0.00935287,0.000970097
0.0199232,0.0179327
0.0362774,0.0130893
0.0576261,-0.00888423
0.0787273,-0.0100285
0.0744181,0.00333659
0.0625248,0.0394343
0.0450809,0.0270666
0.012387,-0.0131021
-0.0127683,-0.0302469
-0.0294303,-0.0168082
-0.0437441,0.0144777
-0.0488602,0.0204272
-0.0330041,-0.0162678
0.00262403,-0.00733583
0.0212251,0.0151592
0.0208331,0.0191308
0.0131119,0.0178798
0.000151156,0.0227025
-0.0167464,0.0421967
-0.0203606,0.0370916
-0.010153,-0.0353406
0.00522624,-0.0628955
0.0320171,-0.0219435
0.0421343,0.00469521
0.0358442,-0.0115431
0.0384165,-0.0162206
0.0207545,0.0486562
-0.0286515,0.0879507
-0.0426166,-0.00851265
-0.025329,-0.0553723
-0.00103671,0.00834635
0.00709116,-0.028653
0.0261785,-0.0474639
0.0417627,-0.0149103
0.0401275,-0.00997654
0.0163236,-0.00757249
-0.0185048,-0.00068522
-0.0438457,-0.00331888
-0.0285187,-0.00599109
-0.0046124,0.0198177
0.00507332,0.0161616
0.00551584,-0.0107076
-0.00107721,-0.00182487
-0.0179285,0.000116898
-0.0304484,-0.000628488
-0.0336032,-0.00302519
-0.0183518,-0.0222115
-0.000540034,-0.0120593
-0.00763394,0.00816335
-0.00441807,0.00961439
0.00478034,0.025546
0.00867013,0.0290124
-6.07e-05,0.00552608
-0.0121815,-0.00442632
-0.0318001,0.0392401
-0.0247168,0.0285832
-5.1e-05,-0.0177023
0.0127906,-0.00919003
0.0435322,0.0293024
0.0887525,0.0224633
0.107971,-0.0305405
0.108275,-0.047156
0.0954381,-0.0186351
0.0526149,0.00637301
-0.0128031,-0.00583498
-0.0869676,0.0133203
-0.12826,0.0291323
-0.135182,-0.0139916
-0.110352,-0.0277557
-0.0789128,-0.0218974
-0.0489899,-0.0377379
-0.0143817,-0.0349522
0.0291071,0.000617831
0.0364776,0.017017
0.0232491,-8.65e-05
0.0103467,0.0141693
0.00165724,0.0108903
-0.0194928,0.0156901
-0.0331387,0.00426908
-0.00812362,-0.00649135
0.0416538,-0.033492
0.0726089,-0.00392627
0.0846006,-0.0106207
0.0640415,0.015771
0.027758,0.0341573
-0.0054864,0.0284906
-0.0287661,0.0178608
-0.0447647,0.00275425
-0.0257864,-0.00429345
0.0136526,-0.0133288
0.0163466,0.000258356
-0.000497663,0.0144919
-0.00716058,0.0143845
-0.0189113,0.0168015
-0.0386815,0.0664473
-0.0469758,0.0957555
-0.0182005,-0.0638646
0.00821111,-0.0977768
0.0100135,-0.0216696
0.0131354,-0.0251168
0.00641208,-0.0253606
-0.00788842,-0.00393195
-0.0112297,-0.0205025
0.00773148,-0.0300174
0.0182872,0.00640022
0.0449546,0.0302481
0.0579505,0.0156494
0.028532,-0.00763485
-0.0017683,-6.99e-05
-0.0122268,0.00130348
-0.023472,-0.0101592
-0.0417955,-0.0206741
-0.0455869,-0.0118171
-0.0166381,0.00816091
0.0140368,0.0254082
0.0173174,0.0250814
0.0126863,0.0122986
0.00311638,0.00534676
-0.00683806,0.00286991
-0.00772124,-0.000764315
-0.00271564,-0.00738819
0.0055454,-0.0233775
0.0407437,-0.0398694
0.07521,-0.0247129
0.0598024,0.0427472
0.0335427,0.0739264
0.0206077,0.0235059
-0.0179486,0.00910242
-0.0586005,-0.02058
-0.0610332,-0.0133144
-0.0335548,0.0328253
-0.0294577,0.0346509
-0.0353471,0.00876084
-0.0257629,-0.040669
-0.0243942,-0.0347402
-0.0226324,-0.0100898
-0.0102562,0.0131637
-0.00751511,0.00395915
0.00236579,-0.019407
0.0372741,-0.0158562
0.0507879,-0.0135972
0.0298903,-0.00451193
0.00987908,0.0109292
0.00996661,-0.0061365
0.00195195,-0.0271957
-0.0171366,-0.0269416
-0.017,0.00652604
-0.00728758,0.0115953
-0.0160447,0.00660522
-0.0154422,0.00852384
-0.00990685,0.026018
-0.0057677,0.0610413
-0.00431988,0.0445333
0.0035635,-0.024899
0.0050239,-0.0410916
0.0181099,-0.01692
0.0436503,-0.00665851
0.0443626,-0.0110425
0.0240654,-0.00402355
0.0033129,0.0191927
-0.0167007,0.0045867
-0.0394781,-0.0301498
-0.0538748,-0.0308904
-0.0254727,-0.00988381
0.0128703,-5.84e-05
0.0247737,0.000265859
0.026404,0.00868949
0.0131419,0.00859723
0.00204677,-0.00353109
0.00316791,0.0151541
0.00192507,0.0656404
0.0048822,0.0492541
0.024286,0.00309031
0.0309374,-0.0225785
0.015847,-0.0146078
-0.00417213,0.00557524
-0.0255486,0.0124521
-0.05171,0.0385491
-0.0561463,-0.059174
-0.0326018,-0.0812344
0.00887044,-0.0123301
0.0218414,0.0335679
0.0252698,0.0161203
0.0265849,-0.0410742
0.006947,-0.0276847
-0.0178443,-0.00328504
-0.0218975,0.00319826
-0.0136012,-0.000685384
0.00543733,0.00644362
0.0414203,0.00275036
0.0552347,-0.00637912
0.0259972,0.0496375
0.0068825,0.0453658
-0.015736,-0.0101062
-0.0590404,-0.0269894
-0.0649693,-0.0153709
-0.0216832,0.0144858
0.0201424,0.0199241
0.0183297,0.0208989
0.00702649,0.0281195
0.00627337,0.0191421
-0.00495901,-0.0163894
-0.018008,-0.0482555
-0.00589283,-0.0282312
0.0073085,-0.0138158
0.0227924,0.00118483
0.0259576,0.0305235
0.00442863,0.00360457
-0.01631,-0.0209675
-0.00593459,-0.0259108
0.00238886,-0.0235475
-0.00788166,-0.0458583
-0.0144228,-0.0175785
0.00688283,0.0186244
0.00821445,0.0651222
-0.00232961,0.119601
-3.1e-05,-0.000683286
-0.00472115,-0.0379245
-0.0108057,-0.00184419
-0.0131821,-0.0168519
-0.00551931,-0.0340048
-0.00241365,-0.0147892
0.0143069,0.0282599
0.0223314,0.0646499
0.00335246,0.0382136
-0.0101877,-0.0317923
-0.0091443,-0.0678617
-0.0171494,-0.0415557
-0.0304178,0.000664615
-0.013923,0.00266878
0.0215097,-0.00427511
0.0303451,-0.00171518
0.0243201,-0.00220397
0.0187348,-0.00645812
0.0124617,-0.00829726
0.000962278,0.00640189
-0.00582328,0.0212754
-0.00481449,0.0147588
-0.00787478,0.0226141
0.0173257,0.0347124
0.0303412,0.00721542
0.0101252,-0.0230509
-0.00218418,-0.0221251
-0.0128144,-0.0160347
-0.0257755,-0.0123339
-0.0309442,-0.0035309
-0.019626,0.0130469
0.00830253,0.00630745
0.0236411,-0.000193148
0.0351688,-0.00684412
0.0349083,-0.0109549
0.0163457,-0.00251883
-0.00433489,-0.00167326
-0.0143126,-0.00736764
-0.020507,-0.0112283
-0.0147221,0.00444242
0.00437714,0.0283088
0.00605662,0.0131289
-0.00542347,-0.0129426
-0.00920592,-0.0122191
-0.0183036,-0.0201743
-0.0275506,-0.0368164
-0.0318466,-0.0180342
-0.0179669,0.0547418
0.00529697,0.0857708
0.0109354,0.0641199
0.0139184,0.0866038
0.00856207,-0.0305175
-0.00627247,-0.10303
-0.0104328,-0.0341116
-0.00222155,-0.015219
0.000691004,-0.0234825
0.0209087,0.00533844
0.0316681,0.0665006
0.0179391,0.0367484
0.00923923,-0.0329612
0.00403464,-0.0324312
-0.00873941,-0.0072777
-0.026443,0.00133099
-0.014973,-0.0148395
0.0249774,-0.0217191
0.0401993,-0.0146777
0.0305322,-0.0147837
0.0160773,0.00148466
-0.0121822,0.0161387
-0.0398181,0.00490213
-0.0514679,0.000380224
-0.0432239,0.0104244
-0.0191388,-0.0048419
0.0198675,0.00926917
0.0299201,-0.00658298
0.00513226,-0.0364514
-0.00604819,-0.0445405
-0.0018785,-0.0411586
-0.00525409,-0.027829
-0.0271037,0.0272378
-0.0152202,0.0468746
0.0159486,0.0397724
0.00818511,0.0416294
0.000604512,0.0380538
0.00574529,0.0360439
0.00130746,0.0558463
-0.0139849,-0.000799107
-0.00664219,-0.0324527
0.00247315,-0.0528042
0.0149871,-0.0214832
0.0305797,0.017536
0.0216379,0.0171461
0.00523774,-0.00443644
0.00739263,-0.0166782
0.00446492,-0.00466935
-0.0147053,0.00870492
-0.0245246,-0.0116133
-0.00858902,-0.0163298
0.00603862,-0.000928367
0.00265765,-0.00723653
0.000869534,-0.00975206
-0.00424947,-0.0114069
-0.0170828,-0.0132403
-0.0165061,-0.00899099
-0.00661766,-7.82e-05
-0.0124823,0.0202509
0.00311686,0.0569163
0.0345667,-0.039608
-0.0118461,-0.0334543
-0.00715231,0.0141905
0.0045111,0.0152805
0.0151117,-0.00127547
0.0280157,-0.00431292
0.0527848,-0.000670535
0.0694007,0.0079513
0.0664992,0.0398796
0.0487387,0.0476171
0.0162705,0.0126679
-0.0210889,-0.0239322
-0.0595275,-0.0406922
-0.0889088,-0.0424871
-0.105424,0.0243246
-0.0694385,0.0116763
-0.0219471,-0.0496427
-0.0105134,-0.035668
-0.0100056,-0.0163621
-0.00578083,-0.0072199
-0.00550517,0.00557609
0.00266478,0.0525029
0.028997,0.0436494
0.046263,0.00141946
0.0368622,0.0485577
0.0344436,-0.0254941
0.0226479,-0.0469581
0.00438747,-0.0149449
-0.0157448,0.000883795
-0.0270556,-0.00433597
-0.0361685,0.0129898
-0.0166474,-0.0252587
0.0227378,-0.0429862
0.044994,-0.0342921
0.0280661,0.0400783
0.0132929,0.0566166
-0.00110368,0.0333494
-0.000802982,0.0218285
0.00151246,-0.0112393
0.00804117,-0.0112109
0.02545,0.00368694
0.0231874,-0.000215911
0.0123735,0.00725675
-0.0112361,0.0179857
-0.0457646,-0.0029802
-0.0667403,-0.0181085
-0.0621689,0.00326129
-0.048682,0.00600995
-0.0193961,0.0187745
0.010892,0.0180044
0.0189643,-0.0284445
0.0135459,-0.0509938
0.00285451,-0.0307495
0.00353831,0.00538736
0.0123192,0.0217391
0.0233095,0.0283902
0.0454631,0.0283214
0.0575368,0.00877159
0.0495496,-0.0117317
0.0277451,0.0129259
-0.00660548,0.0420133
-0.0214703,0.00764301
-0.0282787,-0.0316653
-0.0329316,-0.0420276
-0.0301169,-0.0255569
-0.00737481,0.00299554
0.00173663,-0.00829263
-0.0140155,-0.0207124
-0.0213921,0.0211805
-0.0202102,0.00615798
-0.0246771,-0.0371624
-0.014233,-0.0396277
0.00984325,-0.001508
0.0281031,0.0230113
0.0269234,0.0108413
0.0322712,-0.00122871
0.0334283,0.00742226
0.0164256,0.00806675
-0.0123395,0.00100442
-0.0342061,0.0497783
-0.0403535,0.0282426
-0.0212769,-0.0617509
0.00303071,-0.0355428
0.00758437,0.028171
0.0064279,0.00700694
0.0160757,-0.0219594
0.00949615,8.62e-05
-0.00159551,0.00113864
-0.00751125,-0.00479927
0.00943811,0.0206504
0.0282346,0.0409481
0.0262215,0.116554
0.0278635,0.0374184
0.0186897,-0.0458544
-0.00561048,-0.0475862
-0.0174519,-0.0895046
-0.0168959,-0.0822692
-0.0134855,-0.0288525
0.0137535,0.027023
0.0324068,0.0581185
0.0134914,0.0450024
-0.000455647,-0.00730507
-0.0104761,-0.011024
-0.0272497,0.0146506
-0.0374313,0.0137291
-0.0330236,0.0425553
-0.00327903,0.0173945
0.0147292,-0.0502547
0.014357,-0.0618382
0.00954834,-0.0287898
-0.0094192,-0.00427044
-0.036246,-0.00503608
-0.0379976,-0.00446813
-0.023012,0.000691189
-0.0195654,0.00870633
-0.00595686,0.0278785
0.00871623,0.0226654
0.00300446,0.0194773
0.00262899,0.00718519
0.0101728,-0.0269479
-0.00243885,0.0210098
-0.0116358,0.00871375
0.00478788,-0.0151459
0.0330167,0.00649757
0.0404621,0.0165641
0.0316243,0.00598022
0.0157299,0.0115856
0.00158171,-0.0212451
-0.0136524,-0.00863051
-0.010322,-0.0245774
-0.00212899,-0.0326342
-0.000667602,-0.0194182
0.0111423,0.0140831
0.0103365,0.0360718
0.00142903,0.0177994
-0.00375968,0.00870521
-0.00456516,0.00218008
-0.00974596,-0.023254
-0.0150818,-0.0119295
0.00123262,-0.00293417
0.0215962,0.0033981
0.00750903,0.0522082
-0.000409947,0.0390932
-0.000287589,-0.0264764
-0.0100957,-0.0261694
-0.0156396,-0.0135103
-0.0162394,0.0268002
-0.0151893,0.0424639
0.000407952,0.0317436
0.0260779,0.0533707
0.0316855,-0.0163771
0.00541218,-0.0520447
-0.00922433,-0.0342225
-0.0199393,-0.0206088
-0.0169929,-0.0114942
-0.00625475,-0.0268555
0.0108759,-0.0396908
0.0239524,-0.0625124
0.0315126,-0.0584091
0.0250368,0.0190892
0.00966452,0.0365564
-0.00992335,0.0491127
-0.0393624,0.122869
-0.0502996,0.0356098
-0.0346944,-0.104932
-0.00113475,-0.0696879
0.0200184,-0.00877335
0.0111697,-0.0253108
-0.00133926,-0.0287859
0.00372152,0.0418795
0.0127415,0.0274059
3.22e-05,0.0357646
-0.00552049,0.0478485
-0.00241778,0.0163339
-0.00246276,-0.00905105
-0.00211175,-0.0172897
0.00231914,-0.00686891
-0.0124824,0.0170433
-0.0339546,-0.00398799
-0.0237557,-0.0369204
-0.00683181,-0.0725464
0.0169327,-0.0473974
0.0612716,0.0400158
0.0521022,0.092416
0.00835307,0.0760458
-0.0109704,0.0581978
-0.0163724,-0.0087984
-0.0261396,-0.0245889
-0.0269372,0.0137205
-0.0125398,0.0829909
0.0140811,0.0607096
0.0215015,-0.117617
0.00927858,-0.0900726
0.0115088,-0.0485411
0.0118745,-0.041164
-0.0185962,-0.0150604
-0.0183665,-0.000532839
0.0212428,0.0224081
0.047328,0.031662
0.0495045,-0.0135984
0.0266225,-0.00378255
0.00438463,1.87e-05
-0.0146676,0.00823942
-0.0244208,0.00984683
-0.0322143,0.00292072
-0.0320646,0.0276407
-0.000325665,0.060936
0.0351992,-0.00556728
0.00983543,-0.0452535
-0.0409749,0.00552596
-0.0180642,-0.0144
0.00981555,-0.0191897
-0.016705,-0.012456
-0.0105399,-0.0162826
-0.000208977,-0.0226937
0.000856514,-0.0173438
-0.0101782,0.00387197
-0.020664,-0.00351635
0.00745615,-0.0191249
-0.00220805,-0.00781981
-0.0426405,-0.0282953
-0.0406792,0.0553002
0.0153007,0.0943314
0.0582883,0.0559892
0.0604137,-0.0261787
-0.0150265,-0.0862025
-0.0721987,0.00701501
-0.0489601,0.0570258
-0.0514359,-0.033729
-0.0496237,-0.0224576
0.0236646,0.00553712
0.0756187,0.00367082
0.0854521,0.0115775
0.0562606,0.00744544
0.0343479,0.0067963
0.0559667,0.00406945
0.0870079,-0.00177316
0.0758036,-0.0192142
0.0358455,-0.0331534
0.0156986,-0.00393596
0.0116909,0.034249
-0.0291052,0.0766091
-0.072322,0.0686816
-0.0824142,-0.0550476
-0.0930337,-0.0811111
-0.103087,-0.0585944
-0.0872524,-0.043166
-0.0906983,-0.0113433
-0.0516862,0.0565198
0.0342877,-0.000179998
0.062513,-0.0271636
0.0337828,0.0155195
0.00332204,0.0375781
-0.0504251,0.0344176
-0.00351144,-0.0672791
0.0722182,-0.0667067
0.0904373,0.0131096
0.10989,0.115438
0.0919179,0.0404732
0.0707633,0.00733643
-0.00778498,-0.0142135
-0.127763,0.0291129
-0.190458,0.0361884
-0.16279,0.00659652
-0.0745041,0.00340139
0.0359854,0.0572055
0.115867,-0.0503644
0.113635,-0.0374673
0.0726705,0.0106969
0.013349,-0.00859914
-0.0300503,-0.0205639
0.00322609,-0.0305811
0.0726889,-0.0786113
0.114343,-0.0534673
0.0789388,0.0146876
0.00365113,0.0466808
-0.0454543,0.00389697
-0.178599,0.0117465
-0.214013,0.0186949
-0.0387937,0.00996143
0.194817,-0.0339026
0.254372,-0.0556283
0.0829646,0.0338668
-0.0825507,0.100668
-0.140875,0.00714553
-0.107011,-0.0307319
-0.0503101,-0.0203309
-0.0359012,-0.0247836
-0.043734,-0.0337109
0.0160592,-0.0309434
0.0676407,-0.00541609
0.0589708,0.00772668
0.0232018,0.0582524
0.00601517,0.0958118
-0.00605865,-0.0215498
-0.0437899,0.025525
-0.0584132,0.107446
-0.0481707,0.0270147
-0.0147348,-0.0049586
-0.00679656,0.0707148
-0.0848201,-0.0645055
-0.139941,-0.0998743
-0.0657337,-0.0765746
0.0838628,-0.0803973
0.148916,-0.104474
0.0765731,-0.0896432
-0.0094917,-0.0191566
-0.0296766,0.037967
-0.060511,0.0438089
-0.0388834,-0.0388268
0.036419,0.00702848
0.0934237,0.0519675
0.125892,0.0129416
0.0756471,0.010381
0.0706748,0.0178458
0.133196,-0.0032713
0.138029,0.027466
0.0393892,0.0646457
-0.0232769,0.0423716
-0.0632956,0.0678128
-0.0816171,0.0690128
-0.0919612,-0.00957172
-0.161673,0.0813764
-0.0227269,0.0968013
0.0770098,-0.0429277
0.0518393,-0.104558
-0.0541531,-0.090075
-0.0999985,-0.0309415
-0.0426773,0.0186069
0.0534353,-0.0465472
0.077933,-0.0361967
0.0231186,-0.00211767
0.0201791,-0.0078029
0.0027559,-0.0289827
-0.0725382,-0.0425686
-0.135105,-0.0100398
-0.157106,0.099865
-0.115621,0.0220549
-0.0226885,-0.0450479
0.0463882,-0.0993791
0.117917,-0.0896814
0.104099,0.0490947
0.0480599,0.0221003
0.0123128,0.0109802
-0.04287,0.0860328
-0.0324548,0.0284722
0.0723171,0.0140015
0.102943,0.0305357
0.0806127,-0.00598808
0.102831,0.000109629
0.0710018,0.00592712
0.000475355,-0.0323448
-0.0285477,0.0140493
-0.041888,0.0903756
-0.0635564,0.00069918
-0.0433986,-0.00390667
-0.0392949,-0.0319975
-0.0887133,-0.0303184
-0.122741,0.0449613
-0.0928145,0.0327339
0.021669,0.0301224
0.108852,0.083026
0.109124,-0.0698616
0.0906301,-0.00269072
0.100925,0.000675621
0.0757296,-0.0963895
-0.00240179,-0.0953093
-0.0585497,-0.0332155
-0.0710939,0.0575179
-0.0771374,-0.00138107
-0.0364135,-0.0826614
0.00899814,-0.0708463
0.0581263,0.0280224
0.0733801,0.0218816
-0.00993356,-0.0521013
-0.109025,-0.0235323
-0.156592,0.0573865
-0.145046,0.118436
-0.077244,0.0754575
-0.0449192,0.0656934
0.0270356,-0.0458434
0.0953387,-0.0879931
0.0198038,-0.0324034
-0.0535488,-0.0203948
-0.0505866,-0.133894
-0.0273939,-0.076147
0.0184448,0.100339
-0.014796,0.143277
-0.073712,0.0626674
0.00657751,0.0419842
0.0797861,0.025661
0.0648001,0.0109528
0.0778179,0.00584856
0.120988,-0.0554709
0.112535,-0.0708666
0.0736201,0.00753431
-0.0179552,0.00276618
-0.0761286,0.0583318
-0.0602739,0.0857947
-0.00734783,0.0036418
0.0683606,-0.0727908
0.0622366,-0.0882068
0.0800504,-0.0275461
0.0872171,-0.0118285
0.044778,-0.0137006
-0.00915565,0.0657944
-0.0176325,0.0243562
-0.0280673,-0.0495804
-0.0667195,0.00701545
-0.09097,0.044543
-0.00891011,0.0016231
0.134346,-0.0150543
0.199961,-0.00873357
0.193859,-0.0151377
0.123475,-0.000484022
0.0134692,0.0591283
-0.0672155,0.0475264
-0.162859,-0.0474481
-0.218187,0.0229451
-0.233387,0.0831564
-0.258768,-0.0509777
-0.230425,-0.163532
-0.0520586,-0.0699162
0.114951,0.0631325
0.119058,0.00421541
-0.0571014,-0.0814524
-0.177451,-0.0306147
-0.164892,0.131541
-0.0217693,0.133703
0.0666126,-0.115991
0.0195993,-0.197289
-0.0013452,-0.034251
0.0895968,0.0925284
0.225351,0.101273
0.305112,0.0369277
0.282334,0.0334565
0.176348,0.0809211
0.0468831,0.10458
-0.0604412,-0.00981086
-0.152769,0.0104821
-0.110739,-0.0328673
-0.00019448,-0.0719678
0.0731828,-0.0462679
0.0866271,-0.0671088
-0.0242241,-0.0219041
-0.210594,0.0688929
-0.209408,0.0395539
-0.0550723,-0.0188976
0.0467795,-0.0196579
0.0517273,-0.0104316
0.0591856,-0.0321306
0.117937,-0.0316798
0.0963061,0.00500404
0.0174145,0.0295538
-0.0451329,0.0274074
-0.127356,-0.0163941
-0.144225,-0.00248431
-0.115533,0.0232163
-0.0737941,0.0159954
-0.0598265,-0.0409033
-0.0624534,-0.0822832
-0.0341373,-0.0423023
0.00939694,0.0917351
0.0688006,0.13797
0.0800135,0.0443899
0.0820371,-0.0964921
0.0806291,0.0241269
0.0436799,0.0910916
-0.00586877,-0.0371339
-0.0761794,-0.0143068
-0.0946385,0.0171661
-0.0512205,-0.00729813
0.0242572,-0.0381751
0.0777853,-0.112929
0.137976,-0.0377296
0.163983,-0.0281146
0.0552763,-0.0654257
-0.0159211,-0.0602411
0.0122903,0.0323036
0.0471163,0.192501
0.0852987,0.0106886
-0.0514011,-0.0889492
-0.321995,-0.0163185
-0.369658,0.0698811
-0.151753,-0.00138562
0.0454689,-0.0912777
0.273646,-0.0525223
0.311151,0.0404964
0.216768,0.041097
0.13386,0.018614
0.050046,-0.00404531
-0.0132632,0.0262183
-0.0254244,0.14655
-0.0119631,0.0757561
-0.013243,-0.031202
-0.11254,-0.0595572
-0.161943,-0.0202561
-0.130375,-0.00376617
-0.060469,-0.0293353
-0.0274278,0.055505
-0.040355,0.119016
-0.0782485,0.0240602
-0.0531299,-0.0671628
0.0242058,-0.125758
0.147319,-0.0827718
0.275074,0.0538031
0.266687,0.0954212
0.108307,0.0222588
-0.0878063,-0.125874
-0.285883,-0.0497987
-0.280177,9.27e-05
-0.154324,0.00624457
-0.128902,-0.0192255
-0.0997502,-0.0201017
-0.0131789,-0.0254618
0.0472965,-0.032018
0.0814654,0.0399085
0.0657294,0.065539
0.0335576,0.0288766
-0.0242585,0.00187061
-0.0139091,0.0106604
0.0589799,0.0122766
0.151991,-0.0408174
0.222866,-0.0452554
0.227365,0.00362092
-0.0023968,0.107752
-0.200718,0.137495
-0.050194,-0.0587161
0.0530672,-0.136853
0.0253941,-0.0641018
-0.0627152,0.00509438
-0.113039,-0.0153974
-0.0409896,0.0113938
0.0361559,0.051527
0.0198726,0.0559748
-0.0191654,0.0367435
-0.0804276,0.0093743
-0.124736,0.0197227
-0.0779655,-0.0364963
0.0177355,-0.0501596
0.0782021,-0.0521248
0.14749,-0.00830615
0.153123,0.00069478
0.0631482,0.0262062
-0.0288557,0.0799874
-0.131739,0.00180439
-0.159967,-0.080504
-0.0636559,-0.0440995
0.0850517,-0.00403561
0.26141,-0.00169142
0.285068,0.0389951
0.187024,0.072369
0.102544,0.0371904
0.0510069,0.0274396
-0.0234615,0.00295959
-0.235007,-0.0409243
-0.34073,-0.0535491
-0.241312,-0.0696665
-0.151873,0.00572106
-0.0828632,0.0349355
0.00610681,0.0264304
0.017529,0.0142744
-0.12715,0.0214327
-0.0807646,0.0304979
0.0839481,0.00937019
0.139274,-0.0163887
0.0475669,-0.0191383
-0.0749465,-0.0243132
-0.126018,-0.0194161
-0.0561292,0.0096281
-0.0146637,0.0103984
0.00618435,-0.0730404
0.0526366,-0.0661901
0.0869825,0.00551238
0.154385,0.0315352
0.185316,0.000589951
0.13918,-0.0402153
0.0933906,-0.00640791
0.0287652,0.0430381
-0.0546489,-0.0033976
-0.114643,0.0329653
-0.0494981,0.105538
0.0527202,0.0390573
0.0682988,0.0280184
0.0177423,0.105821
-0.0385566,0.00452249
-0.0224947,-0.10667
-0.00189379,0.0142976
0.00817018,-0.0424653
-0.000313992,-0.109499
0.0162347,0.00335228
0.150864,0.0610443
0.290337,0.00474594
0.26368,0.00230695
0.0748042,0.00763165
-0.199268,-0.0316741
-0.336194,-0.127803
-0.303745,-0.0424343
-0.215291,-0.028843
-0.127832,-0.0378535
-0.0773977,0.0498036
0.050857,0.00539542
0.159775,0.00807426
0.1287,0.125848
-0.0308377,0.279968
-0.0910933,-0.0835549
-0.0902613,-0.222061
-0.112897,-0.0651834
-0.0637023,0.0318736
0.0192464,0.0340084
0.0474639,-0.0496232
0.0308875,-0.101781
-0.0679206,-0.034591
0.020246,0.060902
0.226451,0.0867349
0.41931,0.119332
0.394534,0.0881746
0.135893,-0.00218307
-0.140602,0.0328439
-0.286617,-0.0398393
-0.350945,-0.0963508
-0.330033,-0.0402571
-0.150929,0.0303086
0.00918282,0.061341
0.021709,-0.0161546
-0.0529717,-0.014422
-0.0381482,0.057534
0.0992279,0.00119155
0.146121,-0.0347289
0.140549,0.012041
0.109702,-0.0752476
-0.0333698,-0.0831006
-0.0731377,-0.0180384
0.0122281,0.0173504
0.100771,0.0420575
0.146307,0.085949
0.0848463,0.0334079
0.00808982,-0.0269009
-0.0118721,-0.0567275
0.00483998,-0.0512199
0.0168005,-0.0139506
-0.0682487,0.0868458
-0.0764728,0.0684077
-0.0710872,-0.10039
-0.0689158,-0.0386451
-0.0312971,0.0354916
0.0516771,0.109124
0.165145,-0.0347139
0.156026,-0.12769
0.0345736,-0.0635769
-0.0329428,-0.0141073
-0.122187,0.0148466
-0.159042,0.0503003
-0.150806,0.0852766
-0.113914,0.0365626
-0.032482,-0.0487246
-0.00409687,-0.0602556
-0.0206763,-0.0204685
-0.0230089,0.0239701
0.0440952,0.0562853
0.111486,-0.002566
0.124242,0.0109368
0.0926216,0.0225957
0.0267991,0.00733276
-0.0654232,0.0308879
-0.146686,0.0653842
-0.118639,-0.0234764
-0.0102569,-0.0915447
0.116531,-0.0512486
0.126788,-0.0524516
0.0628628,-0.00587584
0.0942344,0.049678
0.155822,0.0436548
0.105327,0.0506766
-0.0904551,0.224478
-0.200945,0.0634157
-0.121836,-0.205119
-0.0310691,-0.0400455
-0.0115065,0.0347009
0.0045472,-0.0396969
0.0102591,-0.0965173
-0.00829398,-0.0390395
-0.0417446,0.0194671
-0.0694773,0.00519169
-0.0686544,-0.0403022
-0.0583916,-0.0315062
0.0156512,-0.0119173
0.12058,-0.00232085
0.0820868,0.0159919
0.00848891,0.0153705
0.0201812,0.00179722
0.0269305,0.0192206
-0.0332447,-0.0173288
-0.162034,-0.00078874
-0.0663971,0.0239426
0.105518,-0.0199855
0.15721,-0.0561768
0.076014,-0.0141106
-0.0255248,0.178896
-0.028887,0.156185
0.0920701,-0.0731091
0.112484,-0.11666
-0.0702657,-0.00618843
-0.18216,0.00756478
-0.0442251,-0.0204032
0.0516444,0.0124849
0.05747,0.277108
0.0785196,0.170252
0.0529446,-0.205946
-0.00887574,-0.127754
-0.000282502,-0.0996163
0.0428187,-0.0872784
0.0941772,0.0370335
0.111893,-0.0438225
0.0997293,-0.0767105
0.0310087,0.0281958
-0.150947,0.0786161
-0.2689,0.060275
-0.231676,0.00436054
-0.183446,0.0237268
-0.1086,-0.000724764
-0.0238134,-0.100513
-0.0314581,-0.0975198
-0.0905196,0.00403824
-0.00998635,0.162327
0.0823015,0.118966
0.172149,-0.0477341
0.194546,-0.0559198
0.0996409,-0.0138977
0.0301153,0.0178845
0.0615148,0.0310562
0.0657846,-0.049719
0.0475126,-0.0776846
-0.0305482,-0.0143792
-0.130468,0.0193826
-0.142412,0.017524
-0.0596561,-0.000398493
0.021134,-0.00693008
0.0492468,-0.00873889
0.0425854,0.0145684
0.048972,0.0776754
0.0739373,0.0416425
0.0567011,-0.0349879
0.0182013,-0.0126316
-0.0335981,-0.00958187
-0.110217,-0.0237273
-0.139689,-0.0250048
-0.060731,-0.0128809
0.011019,-0.00679081
0.114064,0.00200129
0.205092,0.000793253
0.178127,-0.00298689
0.103436,0.0167864
0.0301487,0.046946
-0.0936614,0.0880864
-0.147043,0.0967703
-0.109002,0.0317656
-0.083361,-0.0609389
-0.115006,-0.0569911
-0.13792,-0.041032
-0.134658,-7.48e-05
-0.0735028,-0.00162758
0.0312127,-0.076359
0.113255,-0.0368016
0.0661496,0.0187576
0.0141019,0.0720266
0.0477004,0.0732208
0.131933,0.0160671
0.139366,-0.0825184
0.059036,-0.0608535
0.0170328,0.00383493
-0.0152888,-0.0473184
0.0345,-0.0347766
0.0964893,0.142214
0.118344,0.153433
0.108553,-0.157655
0.0433325,-0.143533
-0.104624,-0.049189
-0.205925,-0.00870299
-0.205897,0.00473047
-0.195014,0.0100285
-0.0997183,0.017392
0.0352063,0.0558411
0.144222,0.0787265
0.162736,0.00534261
0.036218,-0.0433605
-0.125359,-0.00783867
-0.147004,0.0186654
-0.108258,8.13e-05
-0.0671192,0.0225106
0.00949939,-0.0364805
0.0381246,-0.0268011
0.00892556,0.145754
-0.00840505,0.0746337
0.0390552,-0.00334314
0.0772059,-0.0394377
0.0395187,-0.0531405
0.0406852,-0.0147065
0.104929,0.00133219
0.169392,-0.011022
0.115313,-0.0123545
-0.0102003,-0.00775697
-0.0952448,0.0361091
-0.03321,0.0344158
-0.0167121,0.0195487
-0.0863574,-0.0335673
-0.0564469,-0.0832703
0.0574599,-0.0570705
0.123527,-0.0456165
0.0772212,-0.0323872
-0.00500525,-0.00814221
-0.0878708,0.0177243
-0.137584,0.0198667
-0.0849241,0.0232184
-0.0633031,-0.00496346
-0.123142,0.0364902
-0.115623,0.048071
-0.0689669,0.0603031
-0.0816293,0.135416
0.000706417,0.0432061
0.105892,-0.0828452
0.13245,-0.0691737
0.0402839,-0.0205134
-0.0275912,0.0194226
0.0178348,-0.0503398
0.0955973,-0.0561396
0.176779,0.0410863
0.199842,0.0248374
0.12529,-0.0434539
-0.0314839,-0.0100276
-0.117221,0.0238259
-0.0664037,0.00295447
-0.0236374,-0.0286343
0.0151073,-0.0238467
0.0313479,-0.026381
0.0394588,-0.0621369
-0.00324192,0.0145826
-0.0928374,0.0804091
-0.145219,0.0264557
-0.108402,-0.046995
-0.0605522,-0.0199577
0.0137606,0.0304598
0.0863846,0.039549
0.0593301,-0.00411101
0.00914897,-0.0102467
0.00213327,0.0112183
-0.00264943,0.000890279
-0.0298944,0.0586892
-0.0912714,0.0830104
-0.0545437,-0.0486349
0.0938161,-0.0456198
0.144036,-0.0257219
0.129564,-0.023385
0.0965047,-0.0281419
-0.00708404,-0.0366396
-0.0549055,-0.0254874
-0.0424742,-0.00666432
-0.0243343,0.00966347
-0.026124,0.0294648
-0.0430604,0.0451955
-0.0480883,0.0318135
-0.0530216,0.00898755
-0.0291524,0.00344723
0.0278052,0.0457985
0.0713572,0.0367805
0.0860773,0.0153928
0.0990057,0.0892836
0.0479604,0.0332064
-0.0250485,-0.143131
-0.098411,-0.0909821
-0.114306,-0.0359884
-0.0900463,-0.00554093
-0.125687,-0.02012
-0.10677,-0.0091493
0.00813773,0.0248005
0.0556825,0.00789114
0.0671618,-0.0207977
0.0507611,0.00619075
0.0175923,0.0112136
-0.00714401,1.86e-05
-0.0474229,0.0101792
-0.0147372,0.00111667
0.00838646,0.0344551
0.0010982,0.0692606
-0.0386061,0.0138153
-0.0360036,-0.0437235
0.0756923,-0.0679495
0.123307,-0.0247469
0.0600569,-0.0128746
-0.000395197,0.0218569
0.000201106,0.0313365
0.0664489,0.0374122
0.100597,0.0340526
0.126239,-0.00235385
0.0979921,-0.0285053
-0.0116565,-0.00808654
-0.0898167,-0.00288082
-0.13506,-0.0373126
-0.18358,-0.0467039
-0.148578,-0.0199817
-0.064855,-0.00221314
-0.0174195,-0.00529317
0.0345161,0.00280011
0.0543552,0.019398
0.0404837,0.0489484
0.00956667,0.0119416
-0.0232887,-0.0599481
-0.0136733,-0.037623
0.0627675,0.0110859
0.0889971,0.0648731
0.0854027,0.0118431
0.10209,-0.00905888
0.0807822,0.0817591
0.0189968,0.0805418
-0.0231433,-0.00402572
-0.0976708,0.0275695
-0.148757,0.022413
-0.0569427,-0.0595719
0.0236703,-0.0783111
-0.0040487,-0.00185916
-0.0361955,0.0729884
-0.0741757,-0.0295618
-0.0714235,-0.12845
0.0188075,-0.102404
0.0577399,0.00823721
0.0494565,0.0490714
0.0209069,0.0382574
0.0102814,0.0161495
-0.00423984,0.00795364
-0.0346841,0.00476693
-0.0252659,-0.00654458
-0.00201592,-0.0371665
-0.00729783,-0.0373966
0.0336645,0.0491912
0.0669317,0.116401
0.0719127,0.0333126
0.0325182,0.00108363
0.0248013,-0.036637
0.031117,-0.0453497
-0.0157914,-0.0241087
-0.0611067,-0.00728003
-0.0492686,-0.029095
-0.0557573,-0.0301879
-0.114298,0.0218406
-0.143659,0.0209146
-0.0915283,-0.02969
0.0258925,-0.0318718
0.0866463,0.0225998
0.0376511,0.0541924
-0.00557804,0.0357143
0.0393296,0.00358902
0.0686845,-0.00819604
0.0851263,-0.0125652
0.125065,0.023446
0.114559,0.0127431
0.105983,-0.00990262
0.00223303,-0.0440569
-0.0884767,0.00660777
-0.00869525,0.0245748
0.087975,-0.00215735
0.0924899,0.00809985
-0.0533028,0.0655636
-0.143739,0.0127228
-0.087947,-0.0596912
-0.0460511,-0.0460944
-0.0442888,-0.0267623
0.0126939,-0.00203334
0.0658904,0.0188661
0.0248896,0.0273026
-0.051129,0.00680338
-0.0864761,-0.0368841
-0.170711,0.0101082
-0.133245,-0.00805732
-0.0344333,-0.0197257
-0.00630396,-0.00448408
0.0711407,-0.00379432
0.076082,-0.0186357
-0.0452518,6.06e-05
-0.118753,0.0240873
-0.0789449,0.0200914
-0.0158096,-0.0252184
0.130368,-0.00953958
0.249237,0.0272517
0.229001,0.0991984
0.159278,0.0596494
0.0592475,-0.00165168
-0.0208684,-0.0113169
-0.025202,-0.0879594
0.0192281,-0.0528366
-0.047967,0.0156898
-0.140471,0.0209717
-0.120198,-0.0104463
-0.0254832,-0.0163535
0.0607241,-0.0156253
0.0742028,-0.0190703
0.0608668,0.0187144
0.0478199,0.0238953
-0.0269682,-0.00173788
-0.105013,-0.0116945
-0.130444,-0.0148474
-0.125569,-0.0144192
-0.105534,-0.0347537
-0.0883216,0.00642205
-0.0204253,0.054625
0.0654478,0.0335526
0.0875678,0.0317314
0.0754686,-0.0365082
0.040026,-0.034308
0.0251989,-0.0169742
0.0133621,-0.0065815
-0.00591312,0.0397519
0.0218111,0.0652473
0.0451857,-0.012856
0.0278652,-0.0402332
0.018658,-0.0103268
0.0109084,-0.000694996
-0.0128369,-0.0372233
-0.00271371,-0.0468701
-0.00371249,0.0389842
-0.0117113,-0.00212972
-0.0412961,-0.0557986
-0.055736,0.131556
-0.0599318,0.143275
-0.0244416,-0.0433908
0.0231139,-0.116675
0.0443138,-0.0476545
0.0574723,-0.0209365
-0.00259096,-0.01273
-0.0635604,0.0210282
-0.03853,-0.0150326
-0.00906263,-0.0280293
0.00335735,0.000721745
0.0185334,-0.0120834
-0.00659484,0.00676518
0.000643792,0.0214112
0.0623607,0.0219487
0.070036,0.0217912
0.0854046,0.0725162
0.0806684,0.18777
0.0837831,0.0487567
0.0645447,-0.0615764
-0.0877813,0.0248485
-0.138881,-0.043068
-0.106247,-0.143874
-0.0247687,-0.0662551
-0.00318866,0.116894
0.0258147,0.0125417
0.059447,-0.13887
0.0117353,-0.0799178
-0.0481067,-0.0545754
-0.117063,0.00458653
-0.106362,0.0346484
-0.0280692,0.0635651
0.00560672,0.0730764
0.03574,-0.0203266
0.0900134,-0.0775226
0.118368,-0.0421242
0.104277,0.0224289
0.0318835,0.00367948
-0.00153882,0.00620981
-0.00790105,0.0514932
4.65e-05,-0.0276674
-0.00471276,-0.0143055
-0.0306332,0.0912014
-0.0360943,0.160261
-0.0150753,0.0232856
-0.0287098,-0.00419241
-0.0673881,-0.0617051
-0.0546445,-0.109332
0.0914327,-0.0839751
0.130459,-0.0146126
0.0256704,0.0250781
-0.0790255,0.0433821
-0.0973962,0.0577098
-0.0230887,0.0301629
0.0263973,-0.0296352
0.0125479,-0.0249891
-0.0292467,-0.0134631
-0.0430979,-0.015136
-0.0218843,-0.0252646
-0.00121774,-0.0569896
-0.0166308,0.0681598
-0.0235143,0.219229
0.0214979,-0.0254248
0.0744025,-0.132358
0.0855668,-0.0199747
0.0308371,0.029449
-0.0210729,-0.0771975
-0.0192964,-0.118025
0.039912,-0.00182247
0.0673725,0.100359
0.0340508,0.048413
0.00194761,0.0141092
-0.0173592,0.0348963
-0.018448,0.0199068
-0.0489063,-0.017654
-0.0930445,-0.00368893
-0.125639,-0.00920535
-0.144403,-0.0135232
-0.0472682,-0.0324248
0.0934972,-0.0500712
0.141298,-0.0367886
0.120847,-0.00589215
0.0823225,0.0324579
0.0388423,-0.00130388
0.00090063,-0.0108111
-0.0288754,0.0545079
-0.0386082,0.0431912
-0.0496019,0.015377
-0.0449289,-0.0163212
-0.0781551,0.0125991
-0.0709765,0.0624399
-0.00791347,-0.0307138
-0.0222769,-0.00750535
-0.0849363,0.0970839
-0.0646727,-0.033791
0.0461359,-0.0856482
0.154294,-0.0501424
0.177423,-0.0236341
0.129588,-0.0175139
0.0376119,-0.0283788
-0.0524923,-0.00270201
-0.0622903,0.0276612
-0.022357,0.014492
0.0239002,-0.0224189
0.0570488,-0.0245026
0.0222384,0.0265012
-0.00344405,0.0154871
-0.00893229,0.0051679
-0.037272,0.00463839
-0.0654286,-0.0100391
-0.0906356,0.011945
-0.0875757,0.0325466
-0.061358,0.00568938
-0.0421684,0.00155316
-0.0110953,0.0415808
0.0239148,0.146474
0.0322753,0.0318228
0.0565822,-0.115515
0.0562904,-0.0988045
0.0475527,-0.00814067
0.0228152,0.026804
0.0062048,-0.0248169
0.0106972,0.0330468
0.00955889,0.0858077
0.00810466,0.00127767
-0.00975824,-0.0405994
-0.0259211,-0.0159901
-0.0139187,0.0135055
-0.00336328,-0.0541652
-0.0249908,-0.081817
-0.0525252,-0.0549914
-0.0223224,-0.0689749
0.0200743,0.0106895
0.0604453,0.0232453
0.0798541,-0.0236305
0.0804948,0.0975708
0.0433366,0.0802224
-0.0243974,0.074465
-0.0235311,0.00975363
0.0328084,-0.0360946
0.0681262,-0.0395926
0.00726219,-0.00254504
-0.0705319,0.0337884
-0.111584,-0.0240161
-0.0917031,-0.0578811
-0.0262761,-0.0216498
0.0338133,0.0407702
0.030168,0.0524976
0.00788134,0.00422474
-0.0288734,-0.0126149
-0.0729299,-0.00492939
-0.0340549,0.0108545
0.0347251,0.0221473
0.0461614,0.0124242
0.0158574,-0.0041362
-0.00975663,-0.0218918
-0.0522356,-0.0297497
-0.0759781,-0.0288224
-0.0810478,-0.0310829
-0.035022,-0.0306433
0.0131163,-0.0124629
0.0148376,0.00886485
0.0514247,0.00845246
0.0550671,-0.00204587
0.03878,0.000231996
0.0807098,-0.0159547
0.122701,0.00251645
0.102774,0.0524376
0.0249691,0.0412275
-0.00927105,0.00608849
-0.00468018,0.0199955
0.000360718,0.0307263
-0.00130246,0.111242
-0.0859746,0.101445
-0.148913,-0.0828928
-0.0509619,-0.100246
0.0476082,-0.0354134
0.0830768,-0.039034
0.0473043,-0.0010177
-0.0283931,-0.0247377
-0.0468601,-0.0493079
-0.0178663,-0.0406752
-0.0277486,0.00297121
-0.0508024,0.0552501
-0.0439477,0.139632
-0.0158488,0.0579449
-0.0197595,-0.0229275
0.00207457,-0.0687354
0.0450842,-0.0544387
0.0474865,0.00895882
0.0492531,-0.0247612
0.0719451,-0.0539834
0.0437425,0.0241077
0.0200423,0.0877679
0.0264116,0.0296495
0.0100885,-0.0326716
-0.0108278,-0.0424375
-0.0358326,-0.0076788
-0.0551339,-0.0132117
-0.0379522,-0.0390992
-0.00833373,-0.0528571
-0.00686975,-0.0337004
-0.0105127,0.019072
-0.0273853,0.0151692
-0.0496278,-0.0180311
-0.0163968,-0.0171865
0.0103578,0.00499446
-0.00485333,0.000908962
-0.00955196,0.02912
0.00930902,0.0511203
0.0348252,0.0217103
0.003075,0.0242598
0.0131005,0.015191
0.0560599,0.00547785
0.040726,0.0175309
0.0226669,0.0360211
0.0501203,0.00468027
0.0453765,-0.00923094
0.0147635,-0.0156349
-0.00280647,-0.0194531
-0.0294548,0.00160312
-0.0570784,0.0157198
-0.0842856,0.0659853
-0.0747471,0.0689911
-0.0314796,-0.035849
0.0559982,-0.0804922
0.0941957,-0.063656
0.0721999,-0.0108801
0.0874866,0.0557724
0.0351216,0.0842232
-0.0477377,-0.0354795
-0.0803513,-0.0508822
-0.11808,-0.0257469
-0.16629,-0.0242684
-0.0906149,0.00209179
-0.0300972,0.0513769
-0.0371315,0.0312394
-0.0236719,-0.0695493
-0.0111302,-0.107114
0.0387435,-0.0683508
0.0746767,-0.02871
0.048763,0.0521469
0.0459082,0.0519703
0.0252423,-0.00243799
-0.0219075,-0.0122841
0.0122643,0.0860673
0.0805967,0.178975
0.131608,0.133029
0.0666477,-0.011442
-0.0681208,-0.0225173
-0.0405373,-0.125871
0.0463999,-0.136517
0.040235,-0.0466945
0.0070663,0.00633328
0.011307,0.0142597
0.00311352,0.0115312
-0.0404702,0.000824741
-0.0334207,-0.00190343
-0.0338966,0.00488189
-0.0247477,-0.00111946
-0.0169157,-0.02297
0.0080579,-0.0264751
0.0271699,-0.0170219
0.00661264,-0.00526078
-0.0176762,0.00121221
-0.0147163,0.0154819
0.00927493,0.0102242
0.0118804,-0.0180768
0.00815755,-0.0106286
0.0106297,0.0575223
-0.0101673,0.066072
-0.0134928,-0.00965322
-0.00507495,-0.0176315
-0.0131396,0.0207271
-0.0376168,0.0309428
-0.071742,0.0102872
-0.0616798,-0.0231744
0.0606281,-0.00438865
0.135482,0.00572056
0.0942823,-0.0256986
0.000483213,-0.0372072
-0.0366295,0.0186277
-0.0223541,0.0633765
-0.0422949,0.0284425
-0.13034,-0.0330209
-0.145017,-0.0347208
-0.0629874,-0.0300985
0.0337671,-0.0185954
0.113983,-0.0187458
0.102439,-0.00271254
0.0692651,0.0424538
0.0675896,0.0418712
0.0660689,0.0160772
0.0385395,0.0151452
0.02656,0.0279799
0.0319333,-0.0374669
-0.030917,-0.0475442
-0.106822,0.0166254
-0.132772,-0.0139773
-0.109818,-0.0292106
-0.0533842,-0.0338686
-0.0144945,-0.0317854
0.0167331,0.0199732
0.0624757,0.00767949
0.0896077,-0.00555125
0.101734,-0.00467414
0.0921625,-0.0107884
0.0572618,-0.00212964
0.0230669,0.0145015
-0.011988,0.0205911
-0.0590986,0.0336161
-0.0570713,0.0234673
-0.0316322,-0.00143296
-0.0305483,0.000892675
-0.0237006,0.0177758
-0.0169788,0.0228806
-0.0041576,0.0116409
-0.00906028,-0.0666165
-0.0735319,-0.0540062
-0.133619,0.0338426
-0.130372,0.0405513
-0.058814,0.00206589
0.0473622,-0.00235941
0.0940526,-0.00595107
0.123475,-0.0192563
0.0689695,-0.00605205
-0.0063842,-0.000800255
-0.0119934,0.000760875
0.0149337,0.0121517
0.0433001,0.0251793
0.0914245,0.0337505
0.126745,0.0323173
0.0951636,0.0348753
0.00579758,0.0542774
-0.0681652,0.0418461
-0.0712975,-0.0208276
-0.0348913,-0.0334437
0.00214543,-0.00337701
0.0104789,0.0110037
-0.00783087,-0.00826157
-0.00763801,-0.0507061
-0.00516697,-0.0658047
-0.0282185,-0.0287762
-0.0382563,-0.0260006
-0.0371039,-0.0904415
-0.0846634,-0.0642842
-0.0923084,-0.0291455
-0.0238716,-0.0215129
0.102077,-0.0246907
0.142623,-0.00287911
0.0438306,-0.0335529
-0.0378963,-0.0389605
-0.0696792,0.0396154
-0.0573169,0.0680856
-0.0192207,0.0623792
0.0304875,0.0364931
0.0455347,0.00485238
0.030902,0.0164882
0.017617,0.0228605
0.00769387,0.0171502
0.00147849,0.0221068
0.0297842,0.00489033
0.0523141,0.000927538
0.0142117,0.0156073
-0.0226116,-0.0056285
-0.0394065,-0.0225965
-0.055834,-0.0277893
-0.0744653,-0.00537429
-0.0648819,0.0748754
-0.0139789,0.0803121
0.0389647,-0.0349131
0.0515956,-0.0304462
0.0232854,-0.0071058
-0.00957612,-0.00920201
-0.0438474,0.0111286
-0.0628851,0.0199588
-0.0576775,-0.00545435
-0.0394129,-0.00576465
0.0359299,0.0209155
0.113251,0.0520049
0.102189,0.0319041
0.0366349,0.00933972
0.0106191,0.0378425
0.0378331,-0.00871036
0.027161,-0.0587437
0.00778944,-0.056419
0.012075,-0.0433829
-0.0230111,-0.0232151
-0.130199,0.00695237
-0.161175,0.0242568
-0.122364,0.0019342
-0.00626683,-0.0023551
0.143565,0.00168326
0.156118,-0.0254489
0.103588,-0.0284392
0.0187432,-0.000382543
-0.0398208,0.0158756
-0.0680404,0.00971724
-0.0742288,0.017885
-0.02885,0.0122294
0.0159722,-0.0349287
0.0498234,-0.0108163
0.0635367,0.0716042
0.0361301,0.0423968
-0.0161687,-0.0235984
-0.0329026,-0.0121351
-0.0193602,-0.00104624
0.0104603,-0.0433215
0.0574141,-0.0414678
0.0449057,-0.0108681
0.0151184,0.01148
-0.0211064,0.0163625
-0.0313604,0.0167725
-0.0129474,-0.00105863
-0.0231553,-0.00630517
-0.031489,-0.0158688
0.00225531,-0.0315635
0.0160912,-0.0511874
-0.00943108,-0.0378287
-0.0151661,0.0176892
-0.0018029,0.0421352
-0.0245044,0.0266213
-0.0651926,0.0400811
-0.0590633,0.00959802
0.00290969,-0.030977
0.0585244,0.0124349
0.0780847,0.0164169
0.0454549,-0.0049978
0.0250301,-0.0141465
0.0149191,0.0239101
0.0218017,0.0242792
0.0212046,0.021943
-0.0121629,0.0173882
-0.0473353,-0.00633889
-0.0334694,0.00322148
-0.0274916,-0.0171449
-0.0599511,-0.0400725
-0.0960047,0.00293377
-0.0953116,0.0325837
-0.0109791,-0.0177124
0.0564647,-0.052485
0.0294643,-0.0676061
0.00931082,-0.0413043
0.0192494,-0.0150873
0.0393125,0.0136441
0.0326523,0.0549305
-0.0240966,0.0830549
-0.0244921,0.0258844
0.0533955,-0.00768071
0.0798041,0.00993154
0.0645581,0.0800819
0.03332,0.178617
0.0449472,-0.0169597
0.0352083,-0.140765
-0.0226023,-0.0146474
-0.0486395,-0.0185515
-0.0381622,-0.0377507
-0.0116,0.00323976
-0.0184642,-0.0160036
-0.035743,-0.0372844
-0.0487547,-0.0492186
-0.0409863,-0.0579585
0.000961737,-0.0165134
0.0199572,-0.0124799
-0.0116419,-0.0134337
-0.0463737,-0.00553691
-0.0579443,-0.0556217
-0.0309806,-0.0285836
0.0740826,0.00992727
0.14126,0.0502568
0.111993,0.0639206
0.0628455,0.0448473
0.0288554,0.0456009
0.0187333,0.0770505
-0.00987649,0.0391754
-0.046554,-0.0148949
-0.032453,-0.0111987
-0.0198062,-0.00867131
-0.0407812,-0.00528288
-0.0490388,-0.00710167
-0.060068,-0.00596482
-0.0638531,-0.000915955
-0.0572489,-0.00840733
-0.0480668,-0.0187678
-0.0438158,-0.0240692
-0.0326756,-0.0388786
-0.0191164,-0.0367991
-0.0510048,-4.66e-05
-0.00103043,0.0249719
0.142603,0.00208022
0.20648,0.0241446
0.172732,0.0619764
0.0572951,0.0518249
-0.0278505,-0.000702079
-0.029516,-0.00359175
0.00180555,-0.0205997
-0.00462506,0.0115286
-0.0611341,-0.00466837
-0.0734726,-0.0653349
-0.0581964,-0.0621622
-0.0567666,-0.0157792
-0.0406144,-0.0157535
-0.0402379,0.00750128
-0.0370233,0.0432928
-0.00128659,0.0411426
0.0364521,0.014991
0.0228898,0.025497
0.010956,0.0442627
0.0498235,-0.0472537
0.0819725,-0.0670961
0.0691554,-0.00307125
0.0454903,0.0276355
0.0208457,0.0295866
-0.014531,-0.00379874
-0.0187671,-0.0333297
0.00382128,-0.00657139
0.00593676,0.00887199
-0.0343632,0.0122626
-0.0547748,-0.00423764
-0.0572271,0.0103643
-0.0375792,0.0203198
0.0431465,0.0261013
0.0594862,0.0306274
-0.0275103,-0.0221789
-0.0952408,-0.0299027
-0.0556705,-0.0205217
0.0236127,-0.00310401
0.0757051,-0.00153791
0.0304601,-0.0118325
-0.0152108,-0.0297441
-0.0121329,-0.0139775
0.00476816,0.0166091
0.0170423,0.0262036
0.0123601,0.0130153
0.00825001,0.0241662
0.0105114,0.0982529
0.0294032,-0.0399486
0.00901809,-0.13762
-0.0541769,-0.0549959
-0.104683,-0.0117782
-0.0940468,-0.00158535
-0.0471814,0.021063
0.0175291,0.0595618
0.0517941,0.0442036
-0.00708457,0.00523097
-0.00743251,-0.00492159
0.0673527,0.00428695
0.12864,0.0106996
0.145243,0.0128408
0.0589928,0.0113699
-0.0168127,0.0119613
-0.0465467,-0.0180404
-0.061073,-0.0591713
-0.056216,-0.0588902
-0.0608653,0.0175299
-0.0168374,0.0532997
0.0552778,0.0206104
0.0760935,-0.00503769
0.0421899,-0.0113933
-0.0117716,0.0143161
-0.0294486,0.00916691
-0.00937579,-0.00458909
-0.00808894,-0.00934504
-0.00983337,-0.00442463
-0.0080975,0.0359394
0.00573969,0.0549662
-0.0104247,0.0309452
-0.0152498,-0.0279053
0.0131608,-0.0200122
0.0207423,0.0235093
-0.00881782,0.0184007
-0.0674542,-0.0570124
-0.115718,-0.0778059
-0.0659334,-0.0594743
-0.00646638,-0.024713
0.0397513,0.0345353
0.032142,0.0168009
-0.0081204,-0.0397579
-0.0368234,-0.0228371
-0.0205556,0.00279438
-0.0144569,0.0131638
0.0212875,0.00620084
0.0590494,0.00249223
0.0692413,0.0137933
0.0537186,0.0124172
0.0263339,0.00875074
0.0060877,0.00543187
-0.00549524,0.00272235
0.0108055,0.00501946
0.0470899,-0.00148091
0.0384182,0.00947155
0.00400112,0.0100971
-0.00377697,-0.00442157
-0.00287099,0.00258499
-0.00368473,0.0327824
-0.0009459,0.0410433
-0.0192594,0.0442282
-0.0298373,-0.0164096
-0.0350846,0.0192216
-0.0490355,0.0930884
-0.0626826,-0.00420606
-0.074962,-0.0878795
-0.0500207,-0.0511316
-0.0105205,-0.00806475
0.0557003,-0.0266594
0.103494,-0.0503141
0.0626745,-0.0356833
0.0109781,-0.0202583
-0.0354898,-0.0058399
-0.0309908,0.0161452
0.010865,0.030308
0.0307324,0.0347358
0.0417575,0.00698839
0.0143283,-0.0126339
-0.027317,-0.0179021
-0.0342872,-0.0130525
-0.0214339,-0.0036167
-0.00990515,-0.00510979
-0.0125278,0.0149859
-0.00823506,0.0382937
-0.000441339,0.00916481
0.00339658,-0.0131296
0.014205,0.015613
0.0142624,0.0235032
0.0117645,0.00442012
-0.00388518,-0.00399733
-0.00903087,0.0139383
-0.00880269,0.0233012
0.0143801,-0.0119917
0.0400609,-0.00990891
0.0138563,0.0238124
-0.0212567,0.0317722
0.0130262,-0.00927423
0.0440082,-0.0915762
0.035424,-0.0683695
0.0241064,0.003484
0.0105111,0.039991
0.0274722,0.0401299
0.0361841,0.0305449
0.0181434,0.00910753
-0.0329098,-0.0124156
-0.0795977,-0.0244391
-0.06264,-0.0201356
-0.0301524,-0.0113863
-0.0358645,-0.00507004
-0.0632437,0.00554058
-0.0934686,0.0233366
-0.0829317,-0.00702595
0.0236986,-0.0357069
0.109535,-0.0142022
0.0985364,0.0207549
0.0499294,0.0246428
0.000619228,-0.0069268
0.00657957,0.00280815
-0.00994332,0.00467647
-0.0302891,-0.0319265
-0.00313277,-0.0159272
0.0125348,-0.000699532
-0.0179409,0.0148265
-0.0408758,0.0200003
-0.0369606,0.0160392
0.0214685,0.0179521
0.106706,0.00927922
0.11084,0.00217535
0.0514931,-0.0043318
-0.00696091,-0.00339598
-0.0457629,-0.00779548
-0.0534199,-0.0169699
-0.0304699,-0.012355
-0.00473313,-0.000315978
-0.0266598,-0.0078397
-0.0597185,-0.0168371
-0.0579129,-0.00485897
-0.0417923,0.00448821
-0.0400606,0.0398953
-0.021758,0.0351108
0.044796,-0.00371312
0.0664604,-0.011306
0.0331412,0.0166927
0.0533613,0.0185558
0.0443912,0.00449581
0.0117458,0.00407916
0.00135275,-0.00291084
-0.00355845,-0.0110584
-0.00448284,-0.0308308
0.0128257,-0.0381265
0.0152315,-0.0185548
-0.00430028,-0.00335816
-0.00512788,0.0163923
-0.0206916,0.0372107
-0.0593891,-7.72e-05
-0.0863914,-0.0402492
-0.0599805,-0.0123857
-0.0210475,0.00920688
0.0188364,-0.0263742
0.058853,-0.0309077
0.0660184,0.0186225
0.0471505,0.0296651
0.043309,0.0311916
0.054976,0.0535546
0.0368053,0.00419158
0.0118008,-0.0399394
-0.00919694,-0.0101404
0.0042384,-0.0313893
-0.00231253,-0.0111878
-0.025052,0.0502767
-0.0193696,0.0854816
-0.0164622,0.174809
-0.0409071,0.0417038
-0.0914003,-0.106178
-0.0961925,-0.122017
-0.0711179,-0.087524
-0.000175393,-0.028036
0.0313589,-0.00267487
-0.0123442,-0.0109206
0.00431281,-0.00235183
0.037601,0.00541302
0.0220509,-0.00227401
0.0293762,-0.0148136
0.103566,-0.0154736
0.152706,-0.00378935
0.102272,0.0334291
0.0498848,0.049087
0.0162361,0.00332089
-0.0148796,-0.0124178
-0.0709106,-0.0201646
-0.12325,0.00406289
-0.124741,0.0191023
-0.0925514,0.0154151
-0.0338047,-0.0118964
-0.00759075,-0.0256234
-0.00654856,-0.00487613
0.0249246,0.0385884
0.0168098,0.0265123
0.0138687,-0.0442399
0.013214,-0.0658772
0.0384854,-0.0275978
0.0776008,0.0180722
0.0599554,0.0158852
0.011405,0.00708533
-0.032928,0.0214779
-0.0623246,0.0619041
-0.0615235,0.0374608
-0.031009,-0.00432878
0.0516929,-0.0124423
0.0917513,-0.0175742
0.0468863,0.0527274
-0.0208383,0.0978379
-0.0266656,-0.00997039
-0.0580368,-0.0811151
-0.122626,-0.0304954
-0.10813,-0.0106751
-0.0553385,-0.031701
-0.00803072,-0.0272227
0.0253207,-0.00665055
0.0446112,-0.00284045
0.0450311,-0.0210823
0.0639298,-0.0312561
0.0873657,-0.0210377
0.0745607,-0.00824401
0.045624,-0.00879551
0.0179254,0.0123443
-0.0143784,0.0170323
-0.0411826,0.0202363
-0.0708704,0.034093
-0.0433607,0.0518892
-0.00901492,0.0351128
0.0138549,-0.0122787
0.0370273,0.00218997
0.0832439,-0.0173982
0.0818919,-0.025404
0.0349104,0.0186604
-0.023122,0.0305561
-0.0799983,0.0376621
-0.0867351,0.0100549
-0.0629885,-0.0565235
-0.0177252,-0.0327835
0.0147781,-0.0146829
0.0418602,-0.0274702
0.0672623,-0.00440592
0.0447285,0.0229228
0.00469935,-0.00114338
-0.00727229,-0.0195063
-0.0297952,0.000948482
-0.0552128,-0.0109504
-0.0585751,-0.0300866
-0.0355763,0.0189065
0.0147535,0.0529047
0.0426827,0.0278625
0.0587298,0.016423
0.0632017,0.0058653
0.0359754,0.0101268
-0.00278477,0.0169951
-0.0113214,0.015269
-0.0308435,0.012109
-0.0339034,0.00206164
-0.00156586,-0.0164893
0.0633591,-0.0297846
0.0915168,-0.0226863
0.0435057,0.0046434
0.0129809,0.00438423
0.00325576,-0.0235619
-0.0287352,-0.0359069
-0.0621533,-0.020826
-0.104267,-0.0104739
-0.0946141,0.000736152
-0.0806065,-0.0194839
-0.0899121,-0.0329938
-0.0718696,0.00618135
-0.0232387,0.0661966
0.0415832,0.0428017
0.0582813,0.010058
0.0571305,0.0240474
0.0660732,-0.0284985
0.0478425,-0.0205219
0.0106824,0.00709292
-0.0182216,0.0396376
-0.0161111,0.0432171
-0.0149603,-0.00930364
-0.0256973,-0.0413775
-0.0312985,-0.0221606
-0.00280827,0.00505614
0.0507035,0.00846415
0.0674465,-0.0128622
0.0419904,-0.0137613
0.0172996,-0.0171586
0.00882046,0.0112296
-0.0171929,0.0463554
-0.0157405,-0.0268018
-0.00241565,-0.056591
-0.0269383,-0.0313041
-0.0765841,-0.0184313
-0.0997872,-0.0209842
-0.0689933,-0.0292831
-0.00270575,-0.00273243
0.0628916,0.0386724
0.109187,0.0549563
0.132897,0.0228381
0.118754,0.00332578
0.0816446,0.00526554
0.0340925,0.00815401
-0.00865898,0.0129823
-0.0359239,0.0186201
-0.0322686,0.00851194
-0.02202,0.00619696
-0.0220373,0.0192693
-0.0336701,0.0368146
-0.0391066,0.0258837
-0.0418072,0.00887147
-0.0438742,-0.0365582
-0.0472463,-0.0560363
-0.067208,-0.0365582
-0.085548,0.000269684
-0.0476848,0.0337765
0.00242153,0.0238303
0.0316235,-0.0311031
0.0163943,-0.0144889
0.0667222,-0.012002
0.0445319,-0.0237382
0.0208202,-0.0330521
-0.00656638,-0.0291603
-0.0037957,0.0247849
0.0197304,0.0391616
0.0134013,0.00425567
-0.0179372,-0.00298547
-0.0436901,0.000370449
0.0183171,0.0138821
0.0950412,0.0142993
0.0938576,0.00721813
0.0781667,-0.013242
0.0745121,-0.0179153
0.0738901,-0.00409345
0.0629616,-0.00255629
0.0207408,0.0389559
-0.0543485,0.049348
-0.0948474,0.0302594
-0.101259,-0.01763
-0.0967997,-0.0520505
-0.0966345,-0.0375899
-0.108784,-0.0237902
-0.122731,-0.00403881
-0.0906887,-0.0153227
-0.0276184,-0.0174647
0.0516343,0.0104332
0.120224,0.0247004
0.14774,0.0110886
0.125243,0.00570556
0.0570033,0.00906924
-0.0154565,0.00666048
-0.076711,0.00513405
-0.0697675,0.00463175
-0.011266,-0.0105512
0.0173872,-0.0180012
0.0239542,0.00559271
0.0281421,0.00899702
0.00130708,0.0231155
-0.0358438,0.0690951
-0.0385367,0.0459533
-0.0222448,-0.0528219
-0.0316417,-0.0285589
-0.0452872,-0.0248506
-0.0286838,-0.0295009
0.0122736,-0.0103659
0.0375543,0.00378425
0.0393452,0.0122121
0.0423797,0.00727855
0.0473838,-0.00233226
0.0401646,-0.0048103
0.0266299,-0.00408848
0.0115402,-0.00224026
0.0129007,-0.00993219
0.0083349,-0.0105726
-0.0111068,-0.00182995
-0.0251155,0.00633635
-0.0187301,0.00281422
-0.0222998,-0.019295
-0.0470646,-0.0187765
-0.055314,-0.00947482
-0.0372832,0.0602132
0.0138674,0.122586
0.04222,0.00603928
0.0357724,-0.0529266
0.0379338,-0.0322423
0.0277498,-0.0275364
0.0234443,-0.0262812
0.0141477,-0.011754
-0.0188037,0.00634297
-0.0208448,0.0107951
0.00525455,0.00917247
0.0502302,-0.0104154
0.0577444,-0.0148122
0.0219901,-0.00720183
-0.0329926,0.00270812
-0.068776,0.0112174
-0.0680001,0.00601956
-0.022914,0.0056769
0.014187,0.0170791
-0.000545964,0.0268905
-0.01107,0.0185666
0.00810552,-0.00401293
0.00292607,-0.021119
-0.0116622,-0.016532
-0.00276139,-0.000244739
-0.00415335,0.00580054
0.0156695,0.00377886
0.0297651,0.0120228
0.00457903,0.00498107
-0.023469,0.00340157
-0.0260074,0.0192255
-0.0138713,0.0244127
-0.00877651,-0.000217319
0.00116332,-0.0167237
0.0239698,-0.0186891
0.0263688,-0.0317222
0.0131631,-0.0379334
0.0478321,-0.00932483
0.0817492,0.0057897
0.0554146,-0.000997083
0.0058524,-0.0052334
-0.00696207,0.00804604
-0.0026116,0.00228208
-0.0282235,-0.00267932
-0.084148,0.00445035
-0.142649,-0.018642
-0.176843,-0.028441
-0.190079,-0.0482025
-0.159011,-0.00544727
-0.0633901,0.0521297
0.0529136,0.0303942
0.121323,-0.000508529
0.169112,0.00853138
0.161364,-0.0175718
0.104935,-0.0163365
0.0534258,0.0104331
0.0189596,0.00788587
0.0156474,0.0119121
0.0167674,0.0470074
0.0241885,0.0375246
0.0347587,-0.00777106
0.0392485,-0.0215432
0.029404,-0.0132822
0.0169023,-0.000477606
-0.00791572,0.00430242
-0.0347983,0.00348443
-0.0471995,0.0315895
-0.0313507,0.0115741
-0.010263,-0.0102562
-0.0141581,0.00843916
-0.0159254,0.0188359
-0.016731,0.00490937
-0.0231393,-0.000595836
-0.019471,0.00159285
-0.0150115,-0.0100346
-0.018356,-0.0261432
-0.00503235,-0.0247228
-0.0106892,-0.0227122
-0.0183866,-0.0325524
0.0112222,-0.0318029
0.0617775,-0.00539086
0.0348665,0.00171358
-0.01599,0.0154183
-0.014836,0.020168
0.0316081,-0.00221495
0.0811205,-0.00116588
0.0900595,0.0218291
0.0463425,0.0273366
-0.0201665,0.0189733
-0.0890371,0.0343916
-0.139551,0.0578611
-0.138075,-0.0175557
-0.0988367,-0.0677018
-0.0115441,-0.0334455
0.0598935,-0.00298449
0.0585189,-0.015204
0.0449431,-0.00642313
0.0363384,0.0171804
0.00348522,0.0120215
-0.0319331,-0.00838563
-0.0291439,-0.00577056
0.00286443,0.0144443
0.0193755,0.0139609
0.0171851,0.0107298
0.00577211,-0.00313613
0.00415313,-0.0207135
0.022868,-0.0212797
0.0490794,-0.0032016
0.0512937,0.00393879
0.0661986,0.00352731
0.0711799,0.00773324
0.0329273,0.00965166
-0.00363155,-0.000922022
-0.00736166,-0.0190479
-0.036651,-0.0320361
-0.0635598,-0.0193371
-0.0515966,-0.0133973
-0.0673952,-0.0287843
-0.0734363,-0.0227393
-0.0527342,-0.0128171
-0.0259909,0.00916627
-0.0520778,0.0397039
-0.0476142,0.0390809
0.00991285,0.0265834
0.0253912,0.0381325
-0.00204875,0.0461867
0.00538091,0.0151889
0.0692334,-0.00215297
0.118552,0.00256461
0.108643,-0.00629771
0.0820228,-0.0113049
0.0439701,-0.00524031
-0.0108248,-0.013158
-0.0687918,-0.0334721
-0.0843338,-0.0198671
-0.0693837,-0.00176189
-0.036199,0.0095304
0.00406198,0.00712911
0.0193013,-0.0151859
0.00904975,-0.0208926
0.0071565,-0.00516576
0.012178,0.0130097
0.0193454,0.015781
0.0276662,0.0315755
0.0217996,0.0173502
-0.028043,-0.0188742
-0.0687839,-0.0122046
-0.066503,-0.00727559
-0.0172292,-0.0169809
0.0527973,-0.0134416
0.0268628,0.0383806
-0.00494792,0.0575542
-0.0126352,0.051992
-0.00469558,0.0168216
0.0442273,-0.0379843
0.0623326,-0.0362244
0.0571811,0.0138277
0.0389529,0.00894757
0.0135233,-0.0581815
0.00191364,-0.0502978
-0.0198436,0.000736576
-0.0598986,0.00160903
-0.0857565,-0.00347178
-0.0750704,-0.00405047
-0.0445759,0.00524516
-0.0331566,0.0165993
-0.0144519,-0.0396988
0.031565,-0.0648058
0.0484774,-0.00557929
0.0272949,0.0322095
-0.00404057,0.0295361
-0.0298512,0.0418091
-0.0323443,0.0304329
-0.0209506,0.014317
-0.00481659,0.00762046
-0.0205042,-0.0362649
0.000807082,-0.0369142
0.0494079,0.0017483
0.0857815,0.0336251
0.117369,0.0361862
0.112127,0.0162813
0.10204,0.0129283
0.0910956,0.0225476
0.0467343,-0.0165363
-0.00793083,-0.0360652
-0.0580609,-0.0141724
-0.0859376,0.00109107
-0.0911545,0.0029337
-0.0948447,-0.00767024
-0.0796434,-0.0221144
-0.0491982,-0.0232308
-0.0401332,-0.00594317
-0.0418234,0.00621585
-0.0391566,0.0124251
-0.0442736,0.0124785
-0.0491057,0.00124568
-0.0349007,0.000582317
0.00990152,-0.00072976
0.0336436,-0.00849542
0.0279598,-0.0107391
0.0353486,0.00218894
0.0468216,0.0159598
0.044184,0.016922
0.0265514,0.0141002
0.00941742,0.00722564
0.00900723,-0.00402995
0.0139022,-0.0187497
0.0219328,-0.0422177
0.034466,-0.022727
0.0474477,0.00400065
0.0460811,0.029923
0.034334,0.016617
0.0290851,-0.0214087
0.0260314,0.012027
-0.0099339,0.0185636
-0.0596651,-0.0223645
-0.109417,-0.038557
-0.153966,-0.00184775
-0.149273,0.0164256
-0.0845377,0.00369252
-0.01308,0.0225656
0.0300115,0.0155571
0.0488356,-0.0161321
0.0817846,0.02506
0.078764,0.0192957
0.0512909,-0.0234838
0.0627581,0.000559372
0.0877737,0.0265542
0.0818059,0.00661354
0.0487929,-0.0061843
0.0341547,-0.00584802
0.016074,-0.00486147
-0.0280806,-0.00565369
-0.048496,-0.00604514
-0.00870231,0.00293397
0.0234251,0.011902
0.0166991,0.00815483
0.0119231,0.000104142
-0.00037934,0.00193796
-0.0250377,0.0192497
-0.0577025,0.00288983
-0.0641953,-0.0414057
-0.0618214,-0.0142881
-0.0468663,0.000582946
-0.0420467,0.01109
-0.0637001,0.0199707
-0.0513711,-0.00474737
0.00295201,-0.0390201
0.0462243,-0.0426829
0.0406596,-0.0207579
0.0243713,0.0112811
0.0387688,0.0175231
0.0511201,0.0259049
0.0516055,0.047349
0.0345037,0.0653112
0.00410721,0.0343313
-0.0161539,-0.0604652
-0.0263747,-0.0595089
-0.0297207,-0.0218858
-0.0263904,-0.00506867
-0.0114883,-0.00647172
-0.000393499,-0.0169731
-0.00310721,-0.0260452
-0.0286289,-0.0152491
-0.0608056,-0.00759256
-0.0635464,0.00473577
-0.0295083,-0.00245876
-0.0199819,-0.0240423
-0.00632043,0.00470107
0.0244783,0.106169
0.0401954,0.0413161
0.0503642,-0.0310474
0.0547648,0.0128904
0.0490386,0.00447997
0.0360236,-0.00893629
0.0168491,0.00313298
0.00939348,0.0131036
0.0203375,0.0120187
0.0289957,0.00977321
0.0187739,0.0184004
0.00658474,0.0151036
0.0141962,-0.00803775
0.0190257,-0.00530242
0.00273844,0.0150209
-0.0306019,-0.00466709
-0.0587632,-0.00394448
-0.0708383,-0.0247742
-0.04741,-0.0145371
-0.0197686,-0.0118264
-0.0330432,-0.0459498
-0.029234,-0.0473545
-0.0204552,-0.027201
-0.0443852,-0.0126793
-0.027357,-0.0115976
0.0141323,-0.000770644
0.0407627,0.0299471
0.0469346,0.0432056
0.0457561,0.0331982
0.0519279,0.0205651
0.0325509,0.006099
0.0222995,0.000445542
0.0455584,0.00748019
0.0330917,0.00624593
0.00970582,-0.00256211
-0.00474757,-0.00970899
-0.0238203,-0.024118
-0.0530323,-0.0212732
-0.0612163,-0.0104121
-0.0534903,-0.024593
-0.0552676,-0.00652072
-0.00946225,0.00277145
0.0394754,-0.00299466
0.0663885,0.0171219
0.069231,0.0279895
0.0404922,0.0153704
-0.00390488,0.0066006
-0.0420855,-0.0187307
-0.0405041,0.00832152
-0.0248644,0.035837
-0.0405968,-0.00215476
-0.0351223,0.0268868
0.00380663,0.0307303
0.0627082,0.0019783
0.0810367,-0.00982878
0.0718618,-0.00863601
0.0633219,-0.00979336
0.0773301,-0.0117452
0.0796287,-0.0201244
0.0190993,-0.0184113
-0.0635663,0.00231115
-0.113876,0.014598
-0.119813,-0.00132687
-0.115342,-0.0162057
-0.108856,-0.0206897
-0.0668436,-9.04e-05
-0.0212615,0.0165973
0.0127153,0.00333001
0.0300274,-0.00647995
0.0455251,-0.0109153
0.0651662,-0.00450701
0.0655234,-0.00200584
0.041019,-0.00317876
1.77e-05,-0.00236713
-0.0218931,0.00893473
-0.0277543,0.0126946
-0.0331969,0.00548268
-0.0267184,-3.77e-05
-0.00932952,-0.00125457
-0.00175047,-0.00724215
-0.0043432,-0.0146649
-0.000415537,-0.0102472
0.0214135,0.00108558
0.0373553,0.00178717
0.0228386,-0.00835525
0.00738752,-0.0124156
-0.000250461,-0.00875703
-0.008492,0.0122044
-0.020741,0.0291782
-0.0116535,0.0116402
-0.00242805,0.0117712
0.0153567,0.00702938
0.028994,0.000799826
0.0253158,0.0132889
0.0196206,0.00974097
0.0208432,-0.00890781
0.0182616,-0.00872144
0.0157152,-0.0132241
0.0192171,-0.014314
0.0136049,-3.4e-05
-0.0122935,0.0194291
-0.0131946,0.00998964
0.000383441,-0.00948759
0.0224068,-0.0105836
0.0378118,0.00303381
0.0161117,0.0147168
-0.00785463,-0.00318114
0.00237006,-0.0201404
0.0176113,0.00604085
-0.0218862,0.09249
-0.0783936,0.0896683
-0.0916042,-0.0376799
-0.079201,-0.0562851
-0.0682705,-0.0383323
-0.0371359,-0.0357586
0.00751919,0.000317915
0.0420383,-0.0155408
0.0333432,-0.0409739
0.0265444,-0.0318855
0.0239321,-0.0169366
-0.00386645,-0.0151972
-0.00630192,-0.0311861
0.0216056,-0.00340852
0.0324725,0.0286192
0.0351809,0.0172117
0.0445191,0.0387333
0.0432581,0.0345825
0.0247978,0.0257977
0.00849426,0.0284286
-0.0025755,0.0306437
-0.00624464,0.031235
-0.00416762,-0.0120008
-0.00308302,-0.0240397
-0.00118805,0.00708677
-0.0106226,0.00182051
-0.0371529,7.86e-05
-0.0523786,-0.0129948
-0.0515813,-0.0264915
-0.0458021,0.0116763
-0.0231684,0.0203725
-0.00950686,-0.0251354
0.00899826,-0.0176186
0.0285374,-0.00598411
0.0255563,-0.0121864
0.0222526,-0.00803627
0.0297638,-0.00336303
0.029865,-0.0107698
0.00933201,-0.0216482
0.00483963,-0.0146784
0.0300968,0.0043203
0.0353666,0.0140483
0.0212333,0.0240682
-0.00592943,0.0208732
-0.0395417,-0.0021122
-0.0552832,-0.0147676
-0.0551243,-0.0144881
-0.0534613,-0.00911511
-0.0424912,0.00573337
-0.0148358,0.0225064
0.0159629,0.0144156
0.0343741,-0.000994846
0.0419232,-0.0014365
0.0391863,0.0031686
0.025498,-0.000621742
0.00763808,-0.00755047
0.0109,-0.00498329
0.0179912,0.0029994
0.00758146,0.00479102
-0.00816284,0.00702738
-0.0246142,0.00403846
-0.0376428,-0.00663606
-0.0396516,-0.0120704
-0.0262422,-0.00692325
-0.0159471,0.00210036
0.000851073,0.00951286
0.0236634,0.0107171
0.0331754,0.00125079
0.0316322,-0.00569272
0.0277001,-0.00254177
0.016644,-0.000127077
-0.0010435,-0.00638018
-0.0138262,-0.011359
-0.00340759,-0.00764532
0.00668862,0.00174466
-0.00345972,0.00678665
-0.0147422,0.0107717
-0.0250164,0.00503975
-0.0300139,-0.00798957
-0.0244002,-0.0109017
-0.0144293,-0.00942197
-0.00769745,-0.00937125
0.0101857,0.0074994
0.031078,0.0127416
0.0294438,0.000893929
0.0214451,0.0194971
0.0166322,0.0401496
0.00649697,0.00292141
-0.00770097,-0.0223814
-0.00977791,-0.016989
0.00203568,-0.0129501
0.00237866,-0.00577012
-0.00554098,0.00266323
-0.00992677,0.00114315
-0.0182625,-0.00125445
-0.0280755,0.00416296
-0.0217282,0.0129549
-0.00740633,0.0184477
0.00486409,0.035244
0.0230158,0.0259541
0.0355764,-0.0158507
0.0273078,-0.0312592
0.0201709,-0.0211693
0.0132912,0.0105901
0.00120109,0.00731556
-0.0113145,-0.0125945
-0.00447294,-0.0171754
0.0135564,-0.0112148
0.00914876,-0.00832233
-0.00745393,0.00107198
-0.0236392,0.00421897
-0.0298205,-0.00750576
-0.0320401,-0.014973
-0.0152071,-0.0155442
0.00186266,-0.00706751
0.0148531,0.0204566
0.0302435,0.0239615
0.0327513,-0.000147521
0.0114373,-0.00572151
0.00147044,-0.00700938
0.00327845,-0.0122129
0.00331856,-0.012431
-0.00637023,0.00457282
-0.000140126,0.0235477
0.00845885,0.0181245
-0.00335189,0.00877326
-0.0159283,0.00306964
-0.024006,-0.0085867
-0.0284869,-0.0211354
-0.0272472,-0.0298694
-0.0211613,-0.00888075
-0.016316,0.01006
0.00216762,0.0137178
0.0190361,0.0230855
0.0217799,0.0167967
0.0160361,0.00624813
0.0149695,0.00398635
0.0207751,-7.44e-05
0.0233945,-0.00396782
0.0224422,-0.00407016
0.0228227,0.000753314
0.0190186,2.7e-05
-0.00148569,0.00524025
-0.0293904,0.011991
-0.0346919,-0.00712422
-0.00654907,-0.0152981
0.0230435,-0.00950469
0.0296543,-0.0195484
0.0200272,-0.00861199
0.0138578,0.049016
-0.00294044,0.0568019
-0.0329068,0.00485395
-0.0507908,-0.044849
-0.0500111,-0.0391864
-0.0420659,-0.0227243
-0.0418352,-0.0122382
-0.0271553,0.00211353
0.00721753,0.0126855
0.047695,0.0165406
0.057088,0.0144651
0.0340499,0.0060396
0.00647036,-0.00117217
-0.0195713,-0.00514496
-0.0427629,-0.00209423
-0.0474124,-0.00315049
-0.0306928,0.00232005
-0.00576404,0.00822334
