Comp Ch 3,Comp Ch 4
-0.0452776,0.0101535
-0.0232251,0.0337424
-0.0168727,0.0222368
-0.0122989,0.0105012
-0.0162136,0.00560371
-0.00182634,0.000168428
0.033207,0.00669461
0.0542625,0.0203771
0.0494849,-0.00644586
0.0392282,-0.00705162
0.00968943,0.00187492
-0.0268692,-0.00722318
-0.016721,-0.0106906
0.0178412,-0.022544
0.0249803,-0.0263405
-0.0033649,-0.0121525
-0.0359729,8.11e-05
-0.0428939,0.0110951
-0.031196,0.00943982
-0.00757376,0.00824118
0.00620266,0.00835912
-0.000981116,-0.00183731
-0.01707,-0.0126915
-0.0238973,-0.0141108
-0.021336,-0.00970464
0.00342881,0.00138205
0.0546473,0.00962059
0.0809932,0.00652847
0.0651763,-0.00915095
0.0299261,-0.0133889
-0.0150028,-0.0228867
-0.0414475,-0.0211175
-0.0569187,0.00271573
-0.0360693,0.0381677
0.00441028,0.0400566
0.0132368,0.000215364
0.00752546,0.00415607
-0.00697692,0.0136303
-0.0208184,-0.0010968
-0.0234846,-0.0066259
-0.00859634,-0.000878381
-0.0016446,-0.00496865
0.00496752,0.0149374
0.017804,0.0176273
0.00773002,0.00254021
-0.012497,-0.0169775
-0.0151318,-0.00754631
-0.00774324,-0.0127935
-0.00371568,-0.0247733
0.00754153,-0.0121563
0.0325125,0.00611262
0.0432845,0.0151611
0.0282099,0.0133633
0.0121452,0.0122492
-0.0103937,0.00199564
-0.0324964,-0.00388665
-0.0362225,-0.00263336
-0.0246392,-0.00623611
-0.0167843,-0.00211401
0.00584417,0.0124175
0.0223495,-0.0024421
0.00761673,-0.018642
-0.00238226,-0.00419625
-0.00343523,0.00788688
-0.00979591,-0.00999299
-0.0172329,-0.0199289
-0.0111388,-0.00761383
0.0110401,0.00834489
0.0202794,0.0111718
0.0169305,0.0115614
0.0108494,0.0108819
0.00175608,0.000482182
0.00914556,-0.0103885
0.0257597,-0.00181346
0.0466425,0.0217683
0.0920107,-0.000966395
0.109259,-0.0170894
0.0689301,-0.00323987
-0.000652676,-0.000803628
-0.0734854,0.00134655
-0.11122,-0.00222245
-0.107012,-0.017431
-0.0872537,-0.0201399
-0.0487703,-0.0049893
-0.0129637,0.00167103
0.00424673,-0.00584924
0.00778306,0.00355733
-0.00308081,0.0123357
-0.012138,0.00879755
-0.0118215,0.00708026
-0.00781686,0.00376757
-0.00753726,-0.00279459
0.00215994,0.00882229
0.0155338,0.0209216
0.0138729,0.00986872
0.0124911,-0.00250089
0.0212598,-0.00637362
0.0209349,-0.00833334
0.0061968,-0.0020179
0.00297371,0.00310272
0.036618,0.0180421
0.0602839,0.00697493
0.0445745,-0.00215285
0.0168512,-0.000918825
-0.0228865,-0.0166304
-0.0582593,-0.0106422
-0.0673298,0.00687443
-0.055617,-0.00459576
-0.0370678,0.00891782
-0.00266113,0.0221455
0.0270281,0.0189522
0.0495295,-0.0195394
0.0742605,-0.0310184
0.0769887,-0.0156429
0.048781,-0.00904209
-0.00360614,-0.00670196
-0.0412178,0.00184065
-0.0500813,0.0121066
-0.0470685,0.00838235
-0.0367608,0.0108406
-0.0248734,0.0132399
-0.0183186,-0.00203595
-0.0122001,-0.0149046
0.00372912,0.000199521
0.023588,0.0122778
0.03267,0.0029774
0.0531661,0.0117926
0.0806335,0.0107482
0.0725584,-0.00479239
0.0387075,-0.00574985
-0.00800239,0.00527786
-0.0477712,0.00413335
-0.094087,-0.0167903
-0.0980677,-0.00835933
-0.0386188,0.00171489
0.00448982,-0.00907754
0.0148045,-0.0109223
0.00452278,-0.000408914
-0.0188482,-0.0108214
-0.0406841,-0.0291703
-0.0414867,-0.0234511
-0.030826,-0.0106759
-0.00629098,0.00105621
0.021219,0.0186571
0.0256771,0.025408
0.0190269,0.0233633
0.0204957,0.0141314
0.0207708,0.00131198
0.0119456,-0.00814243
0.0089227,-0.0139232
0.0238213,-0.0044925
0.0330073,0.00514768
0.0218711,0.00596487
0.0097895,0.0146617
-0.00611273,0.0192173
-0.024258,-0.00173932
-0.0356897,-0.0156186
-0.0360282,-0.0113124
-0.0306555,-0.00632345
-0.00432307,0.00748453
0.0184176,0.0261075
0.0298061,0.0256058
0.0531931,0.00480685
0.0727894,-0.0141292
0.0669352,-0.0189345
0.0427043,0.00583935
0.0258532,0.00814652
0.00599297,0.00091882
-0.0209533,0.0091134
-0.0422873,-0.00669609
-0.0584307,-0.0104192
-0.0678339,-0.00319352
-0.0690727,-0.00900191
-0.0619524,0.00181602
-0.0554835,0.00930246
-0.045025,-0.0148069
-0.00805858,-0.0125737
0.063987,0.0074597
0.107728,0.00755209
0.0960096,0.00578853
0.0599006,-0.00183451
-0.00371959,-0.0160201
-0.0615296,-0.0144171
-0.0634064,0.0162349
-0.0260973,0.0212028
0.0214218,-0.0052292
0.044448,-0.0119699
0.0383952,-0.0161055
0.0242771,-0.0230811
-0.0096903,-0.0154596
-0.0427058,0.000598788
-0.0755246,-0.00900179
-0.0644979,-0.00262108
-0.0252702,0.0457438
-0.0126757,0.0294596
-0.00448799,-0.0150399
0.0106081,-0.00520035
0.0144792,0.0242857
0.00754788,0.0174505
0.00480437,-0.0380303
0.0208059,-0.0245557
0.0488226,0.00854697
0.0739406,0.0015812
0.0826462,-0.000578003
0.0599914,-0.00580311
0.0152843,-0.0159066
-0.0448828,-0.0156416
-0.0869795,-0.00726462
-0.0920757,-0.000595805
-0.0520914,0.0182027
-0.01573,0.0356591
-0.00887889,0.0354386
0.0014016,0.00587667
0.0127396,-0.00212857
0.0121677,0.0137942
0.0191635,0.00665777
0.0305648,-0.00228625
0.0531811,0.00387752
0.0673654,0.00226549
0.0553308,0.00511554
0.0345068,0.00100982
-0.0141648,-0.0226213
-0.0631721,-0.0380145
-0.0721802,-0.0307613
-0.0702291,-0.00701335
-0.0525331,0.0168559
-0.0119809,0.0281773
0.0159396,0.0201786
0.0177155,0.00819964
0.0177169,0.0065935
0.0183698,0.00224937
0.00553538,-0.00816594
-0.00855106,-0.0161932
-0.0110851,-0.00561886
0.00404105,0.00532085
0.00795579,-0.00410884
0.00662131,-0.0209601
0.00998967,-0.00935814
0.01199,-0.00505029
-0.000680302,-0.0303945
-0.00577539,-0.023322
0.00536244,-0.000483178
0.0180915,0.0132157
0.0218224,0.0243356
0.00354919,0.0254145
-0.0185852,0.0144646
-0.0214053,0.0150795
-0.0131085,0.0109559
0.00106665,5.91e-05
0.0157054,-0.00565981
0.0250664,0.000687216
0.0264579,0.00421441
0.00774866,-0.00399357
-0.0183863,-0.0117647
-0.0377324,-0.0199736
-0.0114365,-0.0257735
0.0294343,-0.0284663
0.0385338,0.00889589
0.0224178,0.0416076
0.00576757,0.00667479
-0.0232019,-0.0141778
-0.0433869,-0.0106284
-0.0376087,0.021999
-0.00953468,0.0458634
0.0201624,0.0145151
0.0148534,-0.0163323
-0.00260661,-0.0128253
-0.0134874,-0.0149455
-0.0280797,-0.0132525
-0.0311122,-0.00752294
-0.0189321,-0.00542501
-0.00250198,-0.0100597
0.00915973,-0.00503628
0.0125752,0.00534956
0.0041015,0.0159928
-0.000155526,0.00729354
0.00669408,0.00574557
0.00502516,0.0133622
0.0102834,0.00206386
0.0347061,-0.00964946
0.0466518,0.00946744
0.0329705,0.0209694
0.00965236,-0.00473773
-0.0105835,0.00443615
-0.0196815,0.0230192
-0.0397029,-0.00446592
-0.0539143,-0.031749
-0.042837,-0.0272737
-0.0309194,-0.0146442
-0.016648,-0.016126
0.00683759,-0.0162826
0.0282431,-0.0155849
0.0449366,-0.0103057
0.062012,0.0180512
0.0466342,0.0390187
0.0198036,0.036244
0.00545022,0.0224918
-0.0108201,-0.00713762
-0.0141945,-0.0132813
-0.00546494,-0.0124454
0.0036547,0.000540859
0.00473662,0.0077911
-0.00910825,-0.000692013
-0.0103053,-0.00593978
-0.0189623,-0.0155418
-0.0358993,-0.0230991
-0.0227624,-0.0141543
0.00437822,-0.0027839
0.0129053,0.0115644
0.0170291,0.00726662
0.0133905,-0.00856084
-0.00805623,0.00136228
-0.0207028,0.00736998
-0.0134559,0.0147692
0.0032109,0.0170369
0.0189718,0.00844324
0.0202533,0.000978588
0.0085229,0.00388396
-0.0164586,0.00931854
-0.0445683,0.0268195
-0.0472921,-0.00173986
-0.00515169,-0.0373423
0.0303383,-0.0368792
0.033546,-0.00852826
0.0207284,0.0137963
0.00222808,-0.00272807
-0.00309101,-0.00589094
-0.00296689,0.0108355
-0.00607899,0.0136687
0.00136139,0.0226493
0.00997376,0.023617
0.00832877,0.00951334
-0.00094488,0.000628059
-0.00555178,-0.000856285
-0.0112636,-0.00307141
-0.0125281,-0.0139536
0.00638539,-0.0132349
0.0310534,-0.00676749
0.0236847,-0.0153227
-0.00443514,-0.0165872
-0.027141,-0.00152934
-0.048475,-0.0135379
-0.0453391,-0.0110224
-0.0141455,0.0134912
0.0136234,0.0245101
0.0416167,0.0116491
0.0683096,0.00295949
0.0571257,0.0151841
0.0192981,0.0094963
0.00980826,-0.0104729
0.0239692,-0.0124503
0.0196525,-0.0169166
-0.00566045,-0.0183483
-0.040217,-0.00523472
-0.0828368,-0.00207905
-0.0944755,-0.000241665
-0.0667552,-0.00167948
-0.032464,-0.00123441
0.0096738,-0.00566636
0.0559024,0.00793499
0.0787733,0.034228
0.0647534,0.0192082
0.0499385,0.00634934
0.0457452,-0.00343939
0.0169926,-0.0106887
-0.0304675,-0.00490332
-0.0549149,-0.00924905
-0.0485568,-0.00685389
-0.0334707,-0.00481603
-0.0248678,-0.00757387
-0.0207131,-0.00596709
-0.0239086,-0.00615266
-0.0257259,-0.00221519
-0.0219623,-0.0103571
-0.0083169,-0.0206802
0.00849603,0.0146222
0.0305005,0.0400871
0.0390829,0.0204804
0.0288776,0.00740032
0.0305903,0.0149748
0.0370559,0.0134305
0.0190225,-0.00695648
-0.0131992,-0.0228596
-0.0303108,-0.00180221
-0.0334609,0.0234366
-0.0298883,0.0179942
-0.0080223,-0.0318037
0.0119714,-0.0336592
0.0492218,-0.00310745
0.0990914,0.00444122
0.107077,-0.0130417
0.0688198,-0.017993
0.00144138,0.000128038
-0.0590997,0.0131067
-0.0947208,0.0130233
-0.109815,0.0125288
-0.0759684,0.0124544
-0.0180222,0.00444803
0.003964,-0.00307326
0.00259207,-0.00304983
0.00792426,0.00167188
0.018309,0.00357816
0.0233707,-0.0178018
0.0307013,-0.0129824
0.0382137,0.00545999
0.0311055,0.00949082
-0.000728611,-0.000299391
-0.0266616,-0.0137946
-0.0462696,-0.0148416
-0.0435387,0.0132487
-0.0268814,0.0319103
-0.0205817,0.00628027
-0.0221233,-0.00856154
-0.0184463,0.00230034
-0.0103526,-0.00383951
-0.00818672,-0.0249547
-0.00363431,-0.0264959
0.0258924,-0.0109252
0.0908723,0.0216892
0.127342,0.0067504
0.0984799,-0.00566507
0.0433838,-0.0213841
-0.0216904,-0.023043
-0.080002,-0.00548289
-0.0905714,0.0215084
-0.0792214,0.0506646
-0.0273354,0.0409529
0.0145763,0.0145711
0.0125373,-0.00793259
-0.00384056,-0.011774
-0.0111422,-0.0086728
-0.0164843,-0.0185206
-0.0259084,-0.0154668
-0.0168306,-0.00644091
0.00882153,0.0223958
0.0249632,0.0380612
0.0362967,0.0162892
0.0461058,-0.00773316
0.0451414,-0.0183198
0.0232255,-0.0253336
-0.00923675,-0.0126885
-0.0232723,0.0278864
-0.0154086,0.0301891
0.0155842,-0.0115857
0.028553,-0.0322576
0.018861,-0.0157906
0.0244926,-0.00797056
0.026681,-0.00575755
0.0165776,0.00237596
-0.0154965,-0.000626827
-0.0309971,0.0101509
-0.0302166,0.0153971
-0.0360889,0.00249183
-0.0270763,0.00238089
-0.0233719,0.00971586
-0.0276086,0.00145193
-0.0288817,-0.0105765
-0.0203294,-0.0164658
-0.00836057,-0.0146128
0.0385521,0.00184627
0.0830437,0.0133205
0.0744976,0.00636939
0.0254151,-0.00572442
-0.0337396,-0.00244317
-0.0744698,-0.00536814
-0.0962167,-0.0102213
-0.0788282,-0.00271593
-0.030588,-0.00186316
0.0229617,0.00269593
0.0512998,-0.00143182
0.054583,-0.002381
0.0290182,0.00496111
0.000134656,0.0140842
-0.0108054,-0.0148265
-0.0168427,-0.0217461
-0.0199046,0.0118953
0.010609,0.0285772
0.0443222,0.0185325
0.042869,-0.00406512
0.0254157,-0.0144233
0.0105226,-0.0180472
-0.0144349,-0.0200732
-0.0443809,0.00653933
-0.0471511,0.0334654
-0.0185039,0.00317863
0.0103422,-0.0129711
0.035356,0.00502177
0.0469294,0.0211293
0.0385507,0.0150344
0.0125165,-0.00256893
-0.0218036,-0.0138317
-0.0324358,-0.0181948
-0.0264504,-0.010467
-0.00362712,0.0107638
0.0099512,0.0209566
0.000347438,-2.08e-05
-0.00535735,-0.00166453
-0.0150777,-0.00681589
-0.0285239,-0.00417353
-0.0286199,0.0122633
-0.00594858,0.0168966
0.0236892,0.0271284
0.0493121,-0.00738601
0.0747439,-0.0287441
0.075647,0.0123784
0.0645398,0.00919108
0.039615,-0.0236206
-0.0149699,-0.0233955
-0.0695122,-0.00854358
-0.0843253,-0.00435909
-0.0711633,-0.0053329
-0.0520037,-3.34e-05
-0.0348309,0.00902187
-0.0208473,0.0170482
-0.004926,0.00322335
0.019911,-0.0183629
0.0418292,-0.0208487
0.0449812,0.000555205
0.0535181,0.0110066
0.047459,-0.000201921
0.00221964,0.000638841
-0.0364497,0.00211595
-0.0554205,-0.00260377
-0.0647123,-0.00121253
-0.0482058,0.0116426
-0.0188311,0.0023823
0.0248337,0.00257447
0.0706147,0.0148427
0.0662654,0.0174285
0.0408879,0.00640126
0.0228303,-0.00486705
-0.0151022,-0.0124347
-0.0598177,-0.0191388
-0.071233,-0.0149565
-0.057282,-0.00480311
-0.0415527,-0.00509527
-0.0293846,-0.0181691
0.00576216,-0.0107205
0.0375226,0.0114458
0.0450005,0.0123316
0.0392035,-0.00593302
0.024743,-0.0118697
0.00932386,-0.00508343
0.0231812,0.0122732
0.0393552,0.0346037
0.031055,0.0202349
0.013147,0.0144503
-0.011882,0.00576512
-0.0537851,-0.0205409
-0.0772625,-0.0138206
-0.0506367,0.0224609
0.0014807,0.00364086
0.0251725,-0.0100106
0.0285282,0.0183056
0.0254682,0.0124766
0.0221506,-0.0137384
0.0155958,-0.0159579
0.00475355,-0.00688077
-0.00375811,-0.0151883
0.00057277,0.0087757
0.00775576,0.00683554
0.0024007,-0.0114708
-0.0056855,0.0153735
0.00275189,0.0297718
0.00313562,-0.00788308
-0.0115421,-0.0414455
-0.0171073,-0.0376607
0.0108525,-0.0286208
0.0342004,-0.00951041
0.0244608,0.00519623
0.00670312,0.00850011
-0.0215201,0.00478825
-0.0628642,0.0434396
-0.0854766,0.0679757
-0.0563807,-0.0174937
-0.0259362,-0.0642706
0.00616023,-0.0305546
0.0423441,0.011008
0.0501418,0.0747793
0.040875,0.0423544
0.0329362,0.00976558
0.00715063,-0.00422328
-0.0257237,-0.0170968
-0.0387722,-0.019225
0.00145127,-0.00420928
0.10123,0.00875607
0.20032,0.0117982
0.211341,0.00671735
0.113458,-0.00780361
-0.0295333,-0.0338932
-0.154883,-0.0488478
-0.2165,-0.0129636
-0.175542,0.0202835
-0.0996633,0.0259251
-0.0329785,-0.00363438
-0.00465674,-0.0111287
-0.0022416,0.0141507
-0.0153678,0.00122185
-0.0388302,-0.034551
-0.053268,-0.0342945
-0.0412973,0.0170161
-0.00798011,0.0433052
0.0167271,0.0168513
0.0347703,0.00619
0.0601518,0.0134943
0.0664651,-0.0301581
0.0614133,-0.079947
0.0614515,-0.0378247
0.0469192,0.0418051
0.0339024,0.0859098
0.0392721,0.0545172
0.0334,-0.00498784
0.0103525,0.0131455
-0.000682992,-0.0184453
-0.0207073,-0.045955
-0.047037,-0.0214123
-0.0468468,-0.00701975
-0.0314748,0.00292513
-0.0255747,0.00914894
-0.0298151,0.00416684
-0.0173287,0.00641432
-0.00610159,0.0105676
0.00411152,0.00733249
0.0173486,0.00888698
0.0257811,0.0182178
0.00956924,-0.00278099
0.00433831,-0.0275218
0.0134544,-0.0212121
0.0102665,-0.00772436
0.0042273,-0.00964137
0.0156539,-0.00215815
0.0183465,0.000850375
-0.000166527,-0.00501163
-0.0155609,-0.00899511
-0.0210228,2.6e-05
-0.0336051,0.0114125
-0.0452471,0.0290548
-0.0353118,0.0427067
-0.0216908,0.023264
-0.0127045,-0.0118031
-0.00362742,-0.0316858
0.0059978,-0.0324396
0.0189045,-0.0243633
0.0424563,0.01736
0.0581638,0.0240648
0.0472331,-0.0133284
0.0202223,-0.000479483
-0.0145122,0.0169001
-0.0384739,-0.076954
-0.0463327,-0.0853986
-0.0227369,0.0249747
0.0261455,0.11419
0.0468562,0.0585038
0.0395182,-0.0211592
0.0174509,-0.028541
0.00110951,-0.0268036
-0.0113643,-0.00487873
-0.0103645,-0.00293843
0.0063563,0.00264108
0.0548389,0.0308768
0.0869149,0.0337097
0.0514504,0.0540945
-0.0064985,0.0172227
-0.0374833,-0.0507117
-0.0736347,-0.0200635
-0.102264,0.01113
-0.0994597,-0.00468767
-0.0772659,0.0147012
-0.0324623,-0.00799812
-0.00433432,-0.0338891
-0.00645296,-0.00436085
-0.0184111,0.0548775
-0.0124589,0.0258444
0.013425,-0.0175
0.0311163,0.0259105
0.0311303,-0.0517718
0.0456009,-0.0624917
0.0601419,-0.0266697
0.0523946,-0.0130315
0.0324808,-0.00495173
0.0212164,0.00122427
0.00541946,0.00327378
-0.0160121,0.00308327
-0.0239772,-0.000927136
-0.0205523,0.00492237
-0.0302845,0.0161561
-0.0143621,0.0173224
0.0270149,2.33e-05
0.0175582,0.00583633
-0.0122356,0.0083585
-0.0213096,-0.0104686
-0.0127555,-0.00225748
0.00152534,0.0030765
0.0268758,0.00807817
0.0380546,0.00471354
0.0307222,-0.0103375
0.0175509,-0.00937982
0.00786066,0.0279078
-0.00224739,0.0342938
-0.0118317,-0.0338854
-0.0161366,-0.0201491
-0.00900621,0.045598
-0.00887148,0.0722774
-0.0128714,-0.0314458
-0.0142451,-0.0648963
-0.0288879,-0.0319518
-0.0506115,-0.0237121
-0.0621927,-0.0246773
-0.061781,-0.00461252
-0.0355543,0.0500835
0.0224701,0.0363731
0.0719763,-0.0301052
0.0792136,-0.0233052
0.0638873,-0.00208918
0.0370527,0.00452091
0.00183019,0.0121538
-0.0189362,-0.0110349
-0.00478192,0.0231303
0.0166432,0.0613674
0.0162099,0.00742076
0.00875106,-0.0203518
-0.000633763,-0.0147803
-0.00777274,-0.0116242
-0.00830498,-0.0133362
-0.00717725,0.00393354
-0.00892016,0.0358615
0.00986298,0.0117829
0.0273718,0.00449777
0.0187166,-0.0403738
-0.0264311,-0.0544642
-0.0281464,-0.0399109
-0.023742,-0.0368282
-0.00392655,0.00486825
0.00876084,0.126901
0.0237662,0.0595986
0.0260251,-0.0198528
0.0149428,0.0464251
-0.00187057,0.0590874
-0.0180756,-0.0551071
-0.0380183,-0.0418982
-0.0382076,-0.000246592
-0.0174077,-0.0842819
0.0145481,-0.0417602
0.0220327,0.00719762
0.00175127,0.00221902
-0.0149375,-0.015772
-0.0276963,-0.00499296
-0.0322258,0.00280346
-0.030909,0.0524067
-0.0200815,0.0401164
0.0218139,0.0385913
0.0724224,0.024044
0.0791018,-0.0414361
0.04146,-0.0293435
-0.0145461,0.0902253
-0.0479514,0.00987943
-0.0739363,-0.0773278
-0.0733667,-0.0552442
-0.0448223,-0.0231812
0.00649946,0.00336644
0.0480742,0.00731278
0.0388719,0.0111455
0.0171147,0.0293668
0.00382445,0.00883264
-0.00778766,0.0122662
-0.00174757,0.00252993
0.0191299,-0.0218286
0.0165542,-0.00504255
0.00258861,-0.0213691
0.00897996,-0.0248928
0.0224244,0.0243958
0.0217522,-0.00215604
0.00138948,0.00499925
-0.0115926,0.00552617
-0.022489,-0.0122576
-0.0150343,-0.0116126
0.00212317,0.0277978
0.000934996,0.0591787
-0.00331573,0.0196065
-0.00333832,-0.0355352
-0.003968,-0.0297828
-0.00764998,-0.0109019
-0.00702815,0.0185523
0.0143855,0.00860061
0.0394948,-0.0186844
0.0327259,0.066265
0.015579,0.105504
0.010528,-0.0359031
-0.0069082,-0.0847337
-0.0232995,-0.0557741
-0.0300289,0.00498658
-0.0274742,-0.00474259
-0.0094192,-0.0335308
0.0005418,-0.00577881
-0.00798502,-0.000239005
-0.00807532,-0.0226515
-7.39e-05,-0.0175583
-0.00468289,-0.00230471
-0.00646899,0.00190556
0.0031406,0.00596396
0.0208916,0.0148625
0.0282158,0.0169398
0.0186022,0.0389689
0.00538275,0.0545887
-0.00493484,0.00809186
-0.0149449,-0.0157357
-0.0194971,-0.0151464
-0.0240324,-0.01573
-0.0243815,-0.0107323
-0.00446498,-0.000712719
0.00537949,-0.000690957
0.00179863,-0.0165458
0.0140511,-0.0261718
0.0210419,-0.0038078
0.0127606,0.0141945
0.000725019,0.00918756
0.00233748,0.0275657
0.0209357,0.0214773
0.0279466,-0.0103231
0.0199398,0.0369838
0.00298812,0.0622726
-0.00984107,-0.0113768
-0.0234768,0.00191941
-0.018876,-0.0638441
-0.0203858,-0.069601
-0.0210404,0.00249888
-0.00500434,0.0633843
-0.00230203,0.0493847
-0.00340644,-0.0351842
-0.00485075,-0.0589534
-0.00768902,-0.0232225
-0.0121964,-0.00830104
-0.00898703,-0.0250099
0.0293354,0.00049479
0.0432799,0.0349671
0.036696,0.0398025
0.0277811,0.0364853
0.0181873,-0.0237915
-0.0039277,-0.0343983
-0.0281652,-0.0197683
-0.0421648,-0.00772026
-0.0456981,-0.00648196
-0.0207981,0.00719575
0.00362973,0.0238764
0.00605101,0.0199038
0.00378945,0.00568686
0.00457337,-0.0074102
-0.00622619,-0.0180378
-0.0199461,-0.0289052
-0.0225278,0.00949093
-0.00557163,0.0707427
0.0177945,0.0137299
0.00861898,0.0288203
0.0120115,0.0111849
0.0247051,-0.0190604
0.0206472,-0.0262311
0.00510815,-0.0492044
-0.00222004,-0.0286002
0.00161987,-0.0093824
0.0194327,0.00403736
0.0233037,0.00861043
0.00472585,0.00724372
-0.0091744,0.00782841
-0.0164059,-0.00202632
-0.0139998,-0.0330607
-0.00373502,-0.0486807
0.00579802,-0.014483
0.0134055,0.0402127
0.0139029,0.0711211
0.0251068,0.0347722
0.0290311,-0.0165848
0.00165554,-0.0182436
-0.0208923,0.0103956
-0.0306395,0.0525107
-0.0329295,-0.00726697
-0.0148324,-0.0336555
0.0060223,0.0161577
0.00535095,0.0288801
-0.0052164,0.00396971
-0.00360328,-0.0177928
-0.00642796,-0.0206792
-0.0203284,-0.0229397
-0.0234091,-0.0354741
-0.000303171,-0.00869549
0.0240575,0.0131479
0.0236561,0.00694643
0.0137835,0.0153782
0.00998652,-0.0210857
0.0010515,-0.0275487
-0.0114521,0.00793315
-0.0144488,0.0189912
-0.0222869,0.0159192
-0.00327592,0.0118587
0.0145356,0.00973257
0.00321007,0.00904171
-0.00760543,-0.00173128
-0.00273266,-0.0153984
-0.00911921,-0.0290633
-0.0178492,-0.0377722
-0.00533164,-0.0314795
0.0208076,-0.00246857
0.0332256,0.0619124
0.0275365,0.0936895
0.0247156,0.0179561
0.0113547,-0.0209054
-0.0029736,-0.0377841
-0.0104748,-0.0156565
-0.0176777,-0.00447009
-0.0219924,-0.0024471
-0.00598565,0.0135927
0.000880055,0.00997642
-0.00764434,-0.00635931
-0.0143476,2.32e-05
-0.0100076,-0.00246767
-0.0187767,-0.0182746
-0.0239312,-0.0424169
-0.00545958,-0.0299503
0.0121189,0.0500017
0.0176058,0.115249
0.0205171,0.029754
0.0181778,-0.0599824
-0.000234947,-0.0306216
-0.0119359,-0.0176776
-0.00927393,-0.0174585
-0.0079451,-0.016567
0.00180191,0.000412675
0.023577,0.0216668
0.0252991,0.0217764
0.00442837,0.00486808
0.00220268,-3.89e-05
0.0109187,0.00240601
0.00531414,-0.0279304
-0.00778667,-0.0252156
0.00400435,-0.00087801
0.0205408,-0.010187
0.0075991,-0.0109121
-0.00575374,-0.00119545
-0.0189008,0.0108728
-0.0277437,0.0633965
-0.019733,0.0425137
-0.00611498,-0.00302842
-0.00342873,-0.0263837
0.00877332,-0.0281252
0.0197446,-0.0121487
0.0100998,-0.0174763
-0.00755588,0.00660058
-0.0135518,0.0389202
-0.017898,0.00127508
-0.0283072,-0.0381868
-0.0273985,-0.0119505
0.0135164,-0.0298414
0.0437499,-0.0393531
0.0352262,0.0176652
0.0207448,0.0492513
0.00664206,0.0105339
-0.0141532,0.0176035
-0.0129554,-0.0187082
-0.00196505,-0.0354161
-0.00180104,-0.00387712
0.00915081,0.0665858
0.0147344,0.0876049
0.00801983,-0.0524289
-3.37e-05,-0.0620161
-0.0103678,-0.0163559
-0.0281568,0.015163
-0.0410368,0.0587209
-0.0212037,0.0373187
0.00287517,-0.0105504
0.00541871,-0.0100853
0.00939897,0.0129521
0.0145534,-0.019947
0.00956907,-0.0129962
0.00633135,-0.00512104
0.000243558,-0.00932351
-0.0107817,-0.0189307
-0.00667557,-0.00846277
0.0190044,0.0103447
0.0244063,0.0128043
-0.00115791,-0.000889003
-0.0230288,-0.00408878
-0.0168932,-0.0198089
-0.00153384,-0.0318138
-0.00364371,-0.0077168
0.00374294,0.0166003
0.0244433,-0.00293083
0.0216589,-0.0168271
0.0110753,-0.00157331
0.000567858,0.0200579
-0.00924687,0.0163148
-0.0158671,0.00598821
-0.00774413,-0.00472985
-0.00478917,-0.0187068
0.00812338,-0.00862789
0.0170753,0.0216949
0.00720765,0.0297401
0.00060951,0.00967976
-0.00928924,0.0716375
-0.0165746,0.0316286
-0.016697,-0.074162
-0.0123274,-0.0566169
0.000102012,-0.0370451
0.0128066,-0.0320328
0.0179214,-0.0131923
0.0124799,0.0802903
0.00296181,0.0434091
-0.00432283,-0.0514011
-0.0095131,-0.0410505
-0.00376183,-0.0272772
-0.00938435,0.036423
-0.00233275,0.0900679
0.0189883,0.0436956
0.0209028,-0.0389087
0.012483,-0.0139511
-0.000714681,-0.00647558
-0.0198164,0.000946266
-0.0282525,-0.0171138
-0.0194975,-0.0185353
0.000554958,-0.00139142
0.00855231,0.00403759
0.00987259,-0.00209741
0.0112736,0.0030503
0.0105397,0.0120776
0.000227559,-0.00603805
-0.000928465,-0.0216109
0.000832736,-0.0149144
-0.00106295,0.0198913
0.0126521,0.0321992
0.0200545,0.0288105
0.0121618,0.012485
0.00622575,-0.00968888
-0.00683579,-0.0417713
-0.0270487,-0.0361363
-0.0338466,-0.0160787
-0.0170467,0.0111782
-0.00565744,0.00731926
-0.00543536,0.0309468
-0.00903013,0.0366256
-0.0245,-0.00616523
-0.0373139,-0.00420072
-0.0323773,-0.0150293
-0.00946824,-0.0234356
-0.00294191,-0.00289947
0.019669,0.0108476
0.0464058,0.0236149
0.0405707,0.0258028
0.0147022,-0.0169897
0.00618181,-0.0269156
0.0119135,-0.0319548
0.00654455,-0.033823
-0.00395293,-0.0202489
0.0172602,-0.00274863
0.0309835,0.0149987
0.0257813,0.0410526
0.01488,0.0446453
-0.00823303,0.0730607
-0.0171867,0.0304834
-0.010248,-0.0916453
-0.0132072,-0.0358252
-0.0142956,0.00547537
0.00826753,-0.0089549
0.0299524,0.0174572
0.0221679,0.00997108
0.00512156,-0.0153035
0.00142587,-0.0279661
-0.0137488,-0.0153771
-0.0320155,-0.0089977
-0.0317467,-0.00146808
-0.0166516,0.0143535
-0.00841099,0.0226544
-0.0100093,0.0246775
-0.023303,0.117315
-0.0254527,0.00583131
-0.0330127,-0.061237
-0.0205571,-0.0577635
-0.00108607,-0.0438473
0.0243313,0.008714
0.0476749,0.0455736
0.047727,0.0662554
0.0389448,0.0087412
0.0178376,0.0128432
0.00314948,-0.0265182
0.00321303,-0.0437352
0.00123344,-0.0742342
0.00359045,0.00851779
0.0104268,0.00229387
-0.000809874,-0.060266
-0.0150749,-0.0218922
-0.0215185,0.00298692
-0.0348965,-0.00759992
-0.030709,-0.0275896
-0.0128416,0.0166994
0.00804024,-0.0169536
0.00679419,-0.0541272
-0.0106047,0.0193834
-0.0205903,0.085444
-0.00302844,0.0695466
0.0195122,0.0566202
0.0123551,0.0314508
0.00185393,0.0148389
0.0113534,-0.00669292
0.0207014,0.00964386
0.00114869,0.0183108
-0.0133332,-0.00481467
-0.0053623,-0.0641513
-0.00751186,-0.0229405
0.00330755,-0.023741
0.0237994,-0.0230751
0.0189777,-0.0226508
-0.0211071,-0.00956998
-0.0122957,0.00864835
0.000464748,0.0200283
-0.00501275,-0.000108336
-0.000818736,-0.00169814
-0.00897162,-0.00820566
-0.0341615,-0.00376915
-0.0260885,0.0184974
0.0318991,-0.0205043
0.0626728,0.0105465
0.0440224,0.0644195
0.0225754,0.058747
0.00472697,0.0567373
-0.00934461,0.0148909
-0.00415117,-0.0525338
0.00403763,-0.0385804
-0.00723379,-0.0131689
-0.0115532,-0.0253189
0.0188811,-0.00112364
0.0230597,0.0395062
-0.0163148,0.0550819
-0.0345388,-0.00301862
-0.0338106,0.0334885
-0.00162528,-0.051271
0.0135984,-0.182498
-0.0285296,-0.120873
-0.0590359,-0.0248671
-0.022612,0.0563131
0.0165886,0.0407801
0.0216026,-0.0185194
-0.0186926,-0.0205469
-0.0523522,0.152211
-0.0130987,0.270014
0.0328394,-0.029423
0.0451618,-0.140646
0.0468792,-0.0503048
0.040706,-0.038597
0.0179057,-0.0157177
0.0154933,0.0225877
0.0176044,0.011345
0.0107406,-0.0347453
-0.0100963,-0.0130139
-0.0225031,0.0260329
-0.0247311,0.0254915
-0.0368977,-0.00706733
-0.0336894,0.022774
0.00219061,0.0141283
0.0334926,-0.0568326
0.0175792,-0.0298324
0.00684391,0.0040217
0.0106106,0.0061267
0.0242575,0.00259817
0.0245828,0.0370374
0.00246481,0.0523359
-0.0159975,0.0589724
-0.0220664,0.0146277
-0.0230732,-0.0293712
-0.0385392,-0.020595
-0.0741841,-0.00777064
-0.0706231,-0.00705455
-0.00575845,-0.0387649
0.0546484,-0.0296749
0.0749331,-0.0228526
0.0460889,0.0179003
0.0177114,-0.00996908
-0.00596282,-0.0206867
-0.0182268,-0.0206875
-0.0146439,-0.00736241
0.00803528,0.0276362
0.0398893,-0.0163832
0.0244454,0.0144517
0.0171236,0.0415432
-0.00410517,0.00677156
-0.0690389,-0.0106185
-0.0998991,-0.0124009
-0.0707015,-0.0248319
-0.00208138,-0.0103239
0.0330769,-0.0428132
-0.00223748,-0.0274643
-0.0238977,0.0596467
0.0239631,0.133876
0.0280294,0.0163308
-0.00481357,-0.0858716
-0.0153501,-0.0844034
0.0307113,-0.00245739
0.115363,0.0196481
0.117717,0.00914829
0.0368664,0.000369215
-0.025097,0.0511445
-0.0531804,0.0809041
-0.0665669,-0.0542331
-0.0527946,-0.0860108
0.00166471,-0.012774
0.0479314,0.00837259
0.0709281,0.110589
0.0463137,0.141882
0.0274376,-0.0962258
0.0131045,-0.130493
-0.000283633,-0.034864
-0.0314432,0.00485608
-0.0590965,0.00788694
-0.0278694,0.00640715
0.0128555,0.0257135
-0.00312771,0.0539617
-0.0358902,0.0329945
-0.0180788,-0.0407565
-0.00300764,0.0285224
-0.0375384,0.13111
-0.0587177,-0.0297105
-0.0419026,-0.0455143
-0.00652117,-0.0169795
0.0322441,-0.0619621
0.0350492,-0.0377514
0.0322607,-0.0210199
0.0339773,-0.0363651
0.0128216,-0.00977176
-0.0132387,0.00039519
-0.0118323,0.00151655
-0.00428793,0.0300973
-0.0486054,0.0317094
-0.129566,0.0218248
-0.0929586,-0.00872654
0.0625853,-0.0217936
0.139816,0.00901394
0.126115,-0.0189594
0.113408,-0.0555851
0.11433,-0.00212929
0.0854645,0.114451
-0.0130399,0.131642
-0.0698373,0.00477288
-0.0912845,0.011146
-0.0971364,0.0235915
-0.0610958,-0.0385333
0.019464,-0.0519976
0.104726,-0.111531
0.0839839,-0.0143438
0.0220787,0.0602865
-0.0347376,0.0521138
-0.0165944,0.000805563
-0.00470971,-0.0351926
-0.0356584,-0.0478228
-0.081885,-0.0503401
-0.111201,-0.0110715
-0.141802,-0.0181011
-0.171303,-0.00268676
-0.158037,0.0518496
-0.0965137,-0.0528398
-0.00383932,-0.0876174
0.0736202,-0.0162251
0.103929,0.0166193
0.0973289,0.0219079
0.0609665,-0.00450666
0.049411,0.00272909
0.0546412,0.0720429
0.0499444,0.0335227
0.0416138,0.00982748
0.0167526,0.0827784
-0.0174182,0.131012
-0.0245187,0.057411
0.00123775,-0.0867185
0.0206952,-0.0529623
-0.0271653,0.00242307
-0.109646,0.00777727
-0.115072,-0.0443974
-0.0312044,-0.0553349
0.123905,-0.0147999
0.178501,-1.1e-06
0.0547261,-0.0610267
0.066893,-0.0374154
0.0753138,0.0335821
0.0615687,0.158988
0.124958,0.0804514
0.0817591,-0.0699141
-0.0970117,-0.101559
-0.213523,-0.0830985
-0.196011,-0.0513767
-0.0518564,-0.0640292
0.0845518,-0.0487392
0.180328,0.106861
0.230804,0.168291
0.185148,-0.0173176
0.0483303,-0.0386811
-0.0609942,-0.0157702
-0.175538,-0.0263068
-0.320943,-0.0169567
-0.31202,0.0459415
-0.166697,0.0785078
-0.0295285,0.0358489
0.0846755,-0.00510122
0.115026,-0.0609305
0.0714579,0.0226841
-0.00802493,0.0710135
-0.000400775,-0.00670931
-0.00890526,0.0176473
-0.0291578,0.0739686
-0.0273072,0.0942131
0.0101845,-0.0518506
0.072255,-0.0583966
0.118289,-0.00596745
0.0969165,-0.137996
0.0480675,-0.135613
0.0470355,0.00187915
0.0665239,0.0233481
-0.0084897,-0.0198284
-0.0423845,-0.00697459
-0.0117181,0.0207812
0.043525,0.0197529
0.0808702,0.0151988
0.119036,-0.00321758
0.186627,-0.0269682
0.208706,-0.0157809
0.0991602,0.0101116
-0.0387481,0.071824
-0.15625,0.114256
-0.1989,-0.00621932
-0.224794,-0.0728046
-0.196152,-0.0053143
-0.0858787,-0.0322822
-0.00372477,-0.0240974
0.0183292,-0.002925
0.0236493,0.0171076
0.00760876,-0.0128778
-0.0296038,-0.0434103
-0.0708398,-0.0279817
-0.100328,0.0228281
-0.105259,0.0714647
-0.0166805,0.0443756
0.0740357,0.00330685
0.0566181,-0.016742
0.0271714,0.0770304
0.0281173,0.180055
-0.01304,-0.0103678
-0.0528964,-0.136357
-0.0368823,-0.0175085
0.0289997,-0.0692524
0.114899,-0.0889571
0.122264,0.0177598
0.0566243,0.0595671
0.0222506,-0.00483409
0.0227392,-0.0345555
0.00953437,-0.0305324
-0.00457413,0.00843824
-0.00150143,0.0707632
-0.00973553,0.0836702
-0.030486,-0.0453712
-0.070382,-0.0522264
-0.0924613,-0.000203864
-0.0475426,0.0107745
0.0423006,-0.060545
0.0960523,-0.00208999
0.011287,-0.0228009
-0.0740836,-0.0272843
-0.0580775,0.00924915
-0.0414941,0.0136236
-0.0491876,-0.00170027
-0.0959498,0.025431
-0.140827,0.0316094
-0.0823311,0.00785888
0.0655499,0.0172098
0.240913,-0.0776332
0.415141,-0.0990736
0.476132,0.00223073
0.341646,0.0472351
0.143635,0.0450597
-0.0694042,0.0601606
-0.228011,0.0291697
-0.29749,-0.0063506
-0.307911,-0.00373547
-0.249576,0.0492844
-0.246924,0.0687493
-0.277697,0.129694
-0.153658,0.0260423
0.0197663,-0.0886314
0.107231,-0.0601441
0.0810232,-0.0521352
0.0415666,-0.102379
-0.00133744,-0.0711654
-0.0439461,-0.0425276
-0.0632741,-0.0480847
-0.0414293,-0.0444005
0.040772,-0.0140068
0.105742,0.0250554
0.0902114,0.0304416
0.0582006,0.0330386
0.0755399,0.0307756
0.161365,0.0288596
0.18429,0.0292054
0.132431,0.0408278
0.0714846,0.125545
0.0354266,0.0685244
0.00561535,-0.0471302
-0.0592053,-0.0468395
-0.117844,-0.0308148
-0.144476,0.00145974
-0.157447,0.0959782
-0.124256,0.0998897
-0.0301954,-0.0881688
0.0287736,-0.157309
0.0390206,-0.0988684
0.0453086,-0.00841193
0.0500242,0.131252
0.0545808,0.0524472
0.0421944,-0.0786732
0.00241735,-0.0445589
0.0110853,-0.0271911
-0.0175768,0.00131009
0.0176471,0.0638507
0.165279,0.0451052
0.319218,0.0552884
0.333435,0.00618548
0.166893,-0.0419641
-0.0389422,-0.0349781
-0.166964,0.0291178
-0.276786,0.11276
-0.352831,0.0083232
-0.302149,-0.0672504
-0.192408,-0.0730562
-0.0878778,-0.0946418
-0.00261396,-0.0427138
0.0380929,0.00652501
0.0381691,0.0296606
-0.00560182,0.022227
-0.0208673,0.0082391
-0.000353835,0.00866374
0.0226004,-0.00224622
0.0557599,-0.0351778
-0.00224599,-0.0557102
-0.0554788,-0.0589075
-0.0321331,-0.0141874
0.0234229,0.0359421
0.0730208,0.0375035
0.0504284,0.0498094
0.00584768,0.0485059
0.0886012,0.0416991
0.146815,0.076086
0.125473,0.116968
0.0548598,0.0633771
0.0190125,-0.0671166
0.00860048,0.000776264
0.0285171,0.00851207
0.0591163,-0.116442
0.0182963,-0.125556
-0.090375,-0.0830106
-0.14097,-0.0358872
-0.124275,-0.0134572
-0.0795312,0.0160148
0.000281133,0.0287954
0.0308715,0.00974445
0.0213676,-0.0131925
0.0160448,-0.0113384
0.0246863,0.0969599
0.0108725,0.10655
-0.0264338,-0.00342626
-0.0464531,0.0507917
-0.0342532,0.0975862
0.0201521,-0.031525
0.0521962,-0.0995638
0.0224708,-0.0988885
-0.0182171,-0.0824812
-0.0745818,-0.0579671
-0.0372842,-0.0291727
0.0233373,0.0190011
0.028804,0.0540043
-0.00353856,0.0476583
-0.0344622,0.0583334
-0.0363881,-0.00347753
-0.0443361,-0.0653467
-0.0327107,0.0279196
0.0726344,0.0283783
0.161986,0.0191075
0.153974,0.0972016
0.0459917,0.0839407
0.0841743,-0.0161183
0.222614,-0.0653954
0.237586,-0.072271
0.0701626,-0.0255709
-0.149821,0.0187479
-0.270699,-0.0163351
-0.241577,-0.0194986
-0.160837,-0.0112959
-0.071207,-0.0518229
-0.0424974,-0.0093753
-0.0527795,0.0149903
-0.0797141,0.0232374
-0.118762,0.107142
-0.10506,0.0559478
-0.00655954,-0.0937374
0.0565468,-0.0848726
0.089914,-0.0223555
0.118398,0.0836708
0.148757,0.0667485
0.155626,-0.00853269
0.0891896,-0.0415159
0.0656855,-0.0193135
0.0433629,-0.0307131
-0.0367751,-0.0358145
-0.123675,0.023222
-0.128973,0.0349627
-0.0672725,0.0354466
-0.00517644,0.00507548
0.0110476,-0.0313923
0.0512649,0.0328652
0.0874377,0.0422626
0.0811185,-0.0488382
0.0432888,0.00542944
0.00999715,0.129392
-0.0681025,0.0218569
-0.150974,-0.0953732
-0.165382,-0.0697552
-0.117805,-0.0485865
-0.107265,-0.0326418
-0.121584,-0.0405529
0.0313916,-0.0292226
0.194725,0.000162864
0.200971,0.0138182
0.0987096,0.0126828
0.0290531,0.0183735
-0.00821648,0.0111188
0.020675,0.0017511
0.0206949,0.025347
-0.00840759,0.0399065
-0.0143533,0.0318248
-0.02543,-0.020743
-0.0161838,-0.0640299
0.00720868,-0.0564413
0.0273012,0.00577009
0.0228045,0.0588658
-0.0233706,0.0135392
-0.102987,-0.0840524
-0.0889688,-0.0610907
0.00965699,0.0785673
0.0786682,0.210824
0.118999,0.0994312
0.0906021,-0.0911303
0.017002,-0.103962
-0.003823,-0.0711222
-0.00396762,0.0384623
-0.0111577,0.0488106
-0.0215271,0.0232434
-0.0463246,0.00198516
-0.0879242,-0.0351014
-0.0821826,-0.00231393
-0.0196539,0.0423807
0.0394099,0.0293713
0.0449746,0.0937701
0.0518597,0.0956177
0.0978475,-0.0246156
0.153077,-0.126171
0.105146,-0.0608321
0.0636763,-0.0198582
0.0312561,-0.0578125
-0.0356245,-0.0828981
-0.0569714,-0.0558681
-0.0882798,0.104712
-0.12566,0.115861
-0.147886,-0.0316854
-0.151616,-0.00412605
-0.15358,0.020467
-0.0960879,-0.0514883
-0.0278987,-0.0544854
0.026777,-0.0660283
0.0297791,-0.0196854
0.0242336,0.0077228
0.0199434,0.0706289
-0.0227079,0.0889839
-0.0228668,-0.0496497
0.0573091,-0.0413463
0.107717,-0.0107105
0.113626,-0.013659
0.0978486,-0.0330785
0.0647109,0.00555542
0.0308812,0.0771384
0.027789,0.0957285
0.0523527,-0.012612
0.0455543,0.0594854
0.025097,0.159052
0.00658137,0.0349794
0.0276615,-0.14127
0.0156345,-0.0826059
-0.0128892,-0.0376301
-0.0416863,-0.0216942
-0.0801461,-0.0116567
-0.115466,-0.00770809
-0.122753,0.0563693
-0.0789321,0.0083754
-0.0582435,-0.0585299
-0.191474,-0.0396343
-0.190116,-0.0240336
0.0847078,-0.0350795
0.275833,0.0141961
0.246786,0.047504
0.0486636,-0.0431029
-0.130466,-0.0729225
-0.110647,-0.0228542
-0.0384394,0.0134704
0.0353845,0.0196509
0.0676894,0.0158362
0.0746094,0.0557588
0.102283,0.046257
0.0695545,0.0285403
-0.00069083,-0.039971
-0.0536527,-0.0323816
-0.0352865,0.0600513
0.0607645,0.0633843
0.0758159,-0.0156309
0.0452184,0.0234711
-0.000186238,0.0800141
-0.0739597,0.0430837
-0.138176,-0.0903392
-0.127104,-0.0665686
-0.0620584,0.0257918
-0.0417268,0.0185163
-0.0284772,-0.0459212
0.00815509,-0.0439058
0.0135646,-0.0188702
0.0566224,0.00428675
0.147725,0.0126428
0.152386,-0.00974635
0.132138,-0.0452635
0.114885,-0.00153924
0.0496089,0.0669632
-0.0604216,0.01482
-0.098374,0.0181782
-0.102621,0.0535066
-0.115036,0.00330414
-0.12851,-0.049907
-0.0907481,-0.0701748
-0.0672607,-0.0123174
-0.0709458,0.0481019
-0.0159534,0.0498782
0.00649896,-0.026451
0.00274715,-0.0538241
0.0279221,-0.0154191
0.077847,0.0051373
0.105026,0.0315922
0.0771595,0.0505622
0.046777,-0.021106
0.0200992,-0.067175
0.0123077,-0.0531668
0.0145756,0.000127946
-0.0434635,0.0570257
-0.0925534,0.0472204
-0.00687333,0.0303831
0.13183,0.0275682
0.19991,0.0167549
0.123123,0.0174186
-0.0255822,0.00918345
-0.0744389,-0.0097338
-0.0565573,-0.0200045
-0.0376631,-0.0336091
-0.0534826,-0.0298092
-0.0683119,-0.0222028
-0.0720444,-0.0276936
-0.0726955,-0.0339478
-0.0368508,-0.0163535
-0.0290189,0.0217047
-0.0347371,0.0439289
-0.0422783,0.0474217
-0.0850634,0.0777303
-0.00357174,0.117304
0.101083,0.0486692
0.143074,-0.0572612
0.102407,-0.101066
-0.000346679,-0.0471843
-0.0545656,-0.0807091
-0.0187045,-0.0691824
-0.0123345,0.000939231
-0.0343861,-0.00300536
0.00632304,-0.0247319
0.0609862,-0.0123617
0.0396019,0.037978
-0.00667628,0.129658
0.0317825,0.0554214
0.0843529,-0.0235323
0.106814,-0.055169
0.0694952,0.0240685
-0.00991407,-0.0221034
-0.0887779,-0.0791839
-0.100309,-0.0518627
-0.0648548,0.001098
-0.0131519,0.0222361
0.000868293,-0.0268806
-0.103475,0.0224887
-0.100411,0.0698756
-0.0540567,0.0389803
-0.0387446,-0.0377742
-0.0926678,-0.0137985
-0.0799198,-0.0226961
-0.0189745,-0.02003
-0.00951523,0.00910341
-0.0171429,-0.0199234
0.00145354,0.00440814
0.0653617,0.0189072
0.0706571,0.00249329
0.133657,-0.0214329
0.282665,-0.00196251
0.295855,0.062804
0.168456,0.0603653
0.045837,0.0393326
-0.0511187,0.00611575
-0.11954,-0.0299153
-0.180356,-0.0330243
-0.154032,-0.0327994
-0.0486651,-0.0248128
0.0480225,-0.0376528
0.0624013,-0.0128808
0.0208556,0.0648061
-0.0992277,0.13212
-0.125871,0.0550224
-0.00614177,-0.064497
0.0205284,-0.0507278
-0.0444881,-0.00102378
-0.0499572,0.0147069
-0.0574753,-0.0310798
-0.0537634,0.0753628
0.0324435,0.0637866
0.0547568,-0.0807204
0.00019282,-0.122019
-0.0404082,-0.0852094
-0.0478678,0.0395383
0.0381936,0.0500251
0.149921,0.00118285
0.149666,0.109754
0.0795326,0.0195548
0.0134869,-0.0975694
0.0270243,-0.0424243
0.0826761,-0.00470694
0.0673571,-0.007346
0.00392946,0.0423388
-0.0406199,-0.00667602
-0.0566187,-0.0247855
-0.0498717,-0.00219983
-0.0461362,0.0029002
-0.0310535,-0.00746916
0.00891603,0.0318216
0.0201639,0.10131
-0.0255289,0.057722
-0.103831,-0.0648078
-0.242919,-0.0432998
-0.283004,-0.0600042
-0.100031,-0.0459966
0.0941075,-0.00567512
0.181328,0.00459011
0.209512,-0.0259373
0.150088,-0.00161707
0.0883699,0.0187619
0.0195179,0.0306014
-0.0830847,0.0309362
-0.12021,0.0179444
-0.0821645,-0.0124379
-0.0346598,0.00979291
0.00194467,0.0325958
-0.0220781,0.00725108
-0.0507053,-0.0177082
0.00890415,-0.0558425
0.067191,-0.0933335
0.150963,-0.0660842
0.212742,-0.0110573
0.132475,0.0344173
-0.00883318,0.0951117
-0.116306,0.181614
-0.133735,0.17098
-0.147176,0.0660562
-0.156947,-0.0307181
-0.0562196,-0.0574285
0.0721828,-0.0733818
0.0972938,-0.111559
0.0763901,-0.114452
0.050871,-0.00689261
0.0388218,0.0533978
0.0303085,-0.0507886
0.0178658,-0.0739554
0.00318472,0.0182315
0.00294175,0.036178
-0.0111469,0.0198184
-0.0359434,0.0266335
-0.0339893,0.0504745
-0.0577249,0.0354143
-0.0800449,-0.0458195
-0.093423,-0.0870593
-0.0984923,-0.0337278
-0.00691604,0.0291253
0.0700847,0.0458222
0.0971714,0.0402065
0.134256,0.0250679
0.0892898,0.00986916
-0.0146937,0.0233289
-0.0549951,0.0574849
-0.0711475,0.0706904
-0.0667912,-0.0692238
-0.0255766,-0.12932
0.0222703,-0.0784559
0.0679271,-0.0207777
0.0998155,0.000804052
0.0912356,0.00687428
0.0235282,0.0239655
0.0428799,0.0387168
0.108269,0.0125597
0.0446621,0.0277645
-0.0531646,0.0197649
-0.0837778,0.0171169
-0.0264366,-0.00691774
0.00116333,0.0116296
-0.0477194,-0.0354171
-0.0684218,-0.0538692
0.0314751,-0.000356305
0.1447,0.0321342
0.112468,0.0958248
-0.0436618,0.16022
-0.166092,0.039433
-0.168202,-0.107773
-0.135437,-0.0883113
-0.0782828,-0.0326348
-0.0175869,-0.0261914
0.0110294,-0.0241394
0.0332079,-0.0461425
0.0046078,-0.0456748
-0.0110807,0.0219027
-0.00823326,0.05472
-0.00535487,-0.0959315
-0.0116543,-0.0795486
0.0163088,-0.0207447
0.0680023,0.00347187
0.087333,0.0267601
0.0918753,0.0347449
0.0741572,0.0377365
0.01526,0.0398678
-0.0512822,0.0358582
-0.0594784,0.0268899
-0.0417728,0.00962075
-0.0358032,-0.00788324
-0.00102041,-0.00997207
0.0497928,0.0124822
0.0572459,0.0273855
0.0435973,-0.0250088
0.0270075,-0.0479548
-0.00324322,-0.0308728
-0.0318243,0.0113867
-0.0702043,0.0215178
-0.0912978,0.00715922
-0.0562717,0.0219582
0.0196507,0.0166093
0.0936623,-0.0231206
0.0834415,0.0101378
0.0103784,0.0640784
-0.0500147,-0.00374666
-0.0341859,-0.0431326
-0.0112139,-0.00316188
-0.0019662,0.0415568
0.0428535,0.0616547
0.0441337,0.0948372
0.0378726,0.00572608
0.0392279,-0.087116
0.0223354,-0.0339204
-0.0143776,-0.00463648
-0.0580752,-0.0345099
-0.0719531,-0.0568988
-0.063024,-0.0528876
-0.0382316,-0.044828
-0.0126828,-0.027794
-0.0358255,-0.025066
-0.0899735,-0.0195508
-0.0817038,0.0085967
-0.0304806,0.00927987
0.053296,0.00230289
0.0998133,0.0172768
0.0664511,0.0250146
0.0886411,0.0219766
0.107211,0.0311117
0.0771307,0.0406099
0.0410439,0.0327752
0.0319766,0.0346044
0.043521,0.0467193
0.0669006,-0.00499155
0.0544481,-0.0427886
0.010643,0.0112157
-0.0139616,0.0446583
-0.0324383,0.0456401
-0.058546,-0.0430509
-0.0798868,-0.0989554
-0.0998575,-0.0266002
-0.105715,0.0315636
-0.0542833,-0.0171874
0.00118132,-0.0114653
0.0306916,-0.0175899
0.0208025,0.00784365
-0.0329088,0.00309323
-0.108594,-0.0192455
-0.128653,-0.0190955
-0.0932434,0.0201197
-0.0416412,0.0350037
-0.0449383,-0.000410889
-0.0133926,-0.0350856
0.0750702,-0.0161817
0.117668,-0.00239165
0.120598,0.0143351
0.0931694,0.033952
0.0310241,0.0447308
0.00744145,0.00673259
-0.0084612,-0.038686
-0.0208982,-0.0165816
0.0262658,0.0161055
0.0596732,0.0230093
0.0560805,0.0199042
0.0445945,0.0372225
0.0288031,0.073104
0.027034,-0.000284428
0.0179671,-0.0234222
-0.00830855,-0.000307622
0.0109618,0.00061469
0.0383683,-0.0169281
0.0456937,-0.0656201
-0.0164001,-0.0493854
-0.106509,-0.0445385
-0.128128,-0.0341309
-0.0785476,0.00670179
-0.0301849,0.00817573
-0.0393043,-0.0136482
-0.0301969,-0.0343644
0.017542,-0.00107305
0.0194292,0.0213242
-0.00289923,0.0181857
-0.0328133,0.0665083
-0.0283422,0.11278
0.00426917,-0.00281936
0.0406624,-0.0609115
0.0514014,-0.0190251
0.0463419,-0.00237041
0.0225383,0.00148484
-0.0236777,-0.00695498
-0.0338182,-0.0296242
-0.0110661,-0.0093266
-0.0122266,-0.0109697
-0.0183017,-0.0154978
-0.00621621,-7.21e-05
0.000687986,0.00294851
0.00297001,-0.0151285
0.00505511,-0.024638
0.0145607,-0.0276303
0.017821,-0.0431394
-0.00555255,0.0039853
-0.0322935,0.0396941
-0.0230304,0.0408431
0.0160099,0.0331416
0.0279222,0.0711406
0.0363212,0.104589
0.0541102,0.0577107
0.0995857,-0.0735373
0.0875341,-0.0583794
0.0490177,-0.0142271
0.0230942,-0.0145939
0.0268458,-0.0178613
0.0979444,-0.00704443
0.103352,0.0189208
-0.015695,0.0110779
-0.133757,-0.0310246
-0.201244,-0.0278407
-0.203344,-0.0271233
-0.142379,0.0517666
-0.0619014,0.124479
-0.00342061,-0.0404444
0.0369768,-0.0871738
0.0641304,0.00879081
0.0485974,0.00538349
-0.0151082,0.00843946
-0.0419988,0.00215394
-0.0113054,-0.00634456
0.0251441,-0.0151446
0.050868,-0.0150567
0.0639946,0.000120932
0.0528355,0.0115411
0.0411494,-0.000424347
0.0147228,-0.02545
-0.0380948,-0.00334254
-0.0650296,0.00967994
-0.030679,0.00248427
0.0187509,-0.0299859
0.0314956,-0.0254883
0.00762658,0.00114764
-0.014694,0.000508422
-0.00662787,-0.0201423
0.00357693,-0.0129807
-0.00511422,0.0153656
-0.0196538,-0.0101007
-0.0267168,-0.0370265
-0.0124625,0.00549081
0.0201131,0.0295862
0.0283441,0.0265769
0.00959257,0.0319178
-0.0121636,0.0413306
-0.0153583,0.0234674
-0.00363759,-0.0100765
0.0129119,0.0025057
0.0162955,0.0339151
0.0147412,0.0520026
0.0226288,0.117003
0.0417478,0.126346
0.0552767,-0.0734302
0.0445717,-0.158011
0.0309047,-0.0690957
0.00995102,-0.0334404
-0.0435737,-0.0176156
-0.0712335,-0.00236884
-0.0183793,-0.0140987
0.0291391,-0.0239581
0.0287129,-0.0117834
-0.0215842,-0.0239622
-0.096431,-0.0209643
-0.0862439,-0.0119816
-0.0242796,-0.00552541
-0.0241464,0.0157752
-0.017412,0.0393259
-0.01338,0.0260744
-0.0126784,-0.0100428
-0.0461613,0.00768868
-0.0104578,0.0506461
0.0560381,0.0416861
0.11801,-0.0309102
0.151652,-0.0229959
0.109771,0.0143209
0.0460149,0.0469469
-0.0371274,0.0348097
-0.0977957,-0.00907835
-0.110581,-0.0221921
-0.0756786,0.00306407
-0.0109359,-0.0218842
0.0398965,-0.030402
0.046163,-0.0191793
0.00770106,-0.0367239
-0.0370707,-0.00771959
-0.0326946,0.018537
-0.00909197,0.0257537
-0.0104164,0.00279638
-0.0446403,0.0097471
-0.0358323,-0.0252942
-0.00572828,-0.023446
0.023158,-0.0119604
0.0364189,0.0134226
0.0358369,0.0168129
0.0568076,0.00291905
0.0765009,0.070393
0.0876203,0.0638745
0.0787937,-0.000981225
0.0264876,-0.035075
-0.00565795,-0.0316541
-0.0071682,-0.0196395
-0.00346536,-0.00783009
0.00199275,-0.00296096
-0.0276626,0.0147225
-0.0804242,0.052442
-0.115893,0.0381831
-0.0878112,-0.0337961
-0.0791048,-0.0634708
-0.130798,-0.0426905
-0.0523558,-0.0267771
0.0670337,-0.0220225
0.0857394,-0.00560777
0.0331209,0.00169866
-0.00589607,-0.00165601
0.00518222,-0.000891613
0.0166029,-0.00667124
0.0212162,-0.0117348
0.036752,-0.00295975
0.0535403,0.0102911
0.0826758,0.0293547
0.0948774,0.0324205
0.0776319,0.0126304
0.0394089,0.0567276
-0.000321227,0.0923669
-0.021257,-0.00259266
-0.0470579,-0.0394847
-0.0924296,-0.025116
-0.105472,-0.0525296
-0.0916525,-0.0593406
-0.0478618,-0.0350787
0.0259276,-0.00824982
0.0252136,-0.00875557
-0.0102904,-0.0193757
0.0204538,-0.00529067
0.0546117,0.0337182
0.022097,0.0629843
0.0184839,0.0515285
0.0370352,0.0112901
-0.00478611,-0.0382681
-0.0189972,-0.0334396
-0.0127052,-0.0224084
-0.0243061,-0.0112946
-0.0478668,0.0277349
-0.083225,0.0363327
-0.10611,0.0251218
-0.0879205,0.165812
-0.0112463,0.121905
0.0896996,-0.109544
0.141391,-0.105426
0.169383,-0.0540466
0.15762,-0.0204718
0.0865652,-0.0278189
0.0227542,-0.00027373
-0.0138263,0.028228
-0.0345602,0.0039558
-0.0698787,0.00710926
-0.0675005,0.00545958
-0.0295761,-0.0240162
-0.0391906,-0.0259938
-0.0580674,-0.00272319
-0.0425036,-0.00708575
-0.0516785,-0.0227933
-0.0598868,-0.0322397
-0.0363419,-0.0152524
-0.0191606,0.00875538
-0.0144251,0.0261023
0.0138137,0.034144
0.04112,-0.00304654
0.0328449,-0.00777813
0.025021,-0.00582307
0.0324691,0.00296684
0.0322555,-0.0196475
0.0213861,-0.00861935
0.0246161,0.0376216
0.007639,0.0848447
-0.0212478,0.0387033
-0.000460404,-0.0611716
0.00755419,-0.0598945
-0.0401937,0.0120393
-0.0718471,0.0273475
-0.0381375,-0.0223288
0.0287884,-0.0135504
0.0438766,0.00929929
0.0283958,0.0143304
0.0464511,0.00209827
0.0472945,-0.00746781
0.0421346,-0.00575473
0.0486838,0.00782471
0.0405853,0.0157775
0.0369503,0.0139148
0.0547284,0.000135278
0.033919,-0.0180578
-0.013019,-0.0221912
-0.0395601,-0.0231537
-0.0711921,-0.0275897
-0.0744298,-5.96e-05
-0.0383506,0.0140868
-0.012232,0.000207952
-0.0309773,0.00453176
-0.0885669,-0.00147813
-0.119858,0.0256346
-0.0935907,0.113979
-0.0320705,0.0582389
-0.00647514,-0.0314913
-0.00527446,-0.0462272
0.00586175,-0.0695913
0.058479,-0.0553991
0.110466,0.0128258
0.106743,0.0779146
0.092519,0.00063707
0.0439682,-0.0482587
-0.0124631,-0.019055
-0.061343,-0.0225496
-0.0992415,-0.0287979
-0.106702,0.00824062
-0.0902568,-0.00111281
-0.046978,0.0389367
0.0343433,0.0192663
0.0563283,-0.0346273
0.024144,-0.0417501
0.0350756,-0.0200315
0.0425189,0.023079
0.0552402,0.040818
0.0791786,0.0436846
0.0886317,0.0371801
0.0589292,0.0218452
0.0190313,0.0164891
0.00874232,-0.000489011
-0.00537604,-0.0432701
-0.0438003,-0.0365886
-0.0670844,0.00755162
-0.0376905,0.0165248
0.0110067,0.0034648
0.0647431,-0.0225534
0.0476712,-0.0194959
0.00279566,0.0516773
-0.0300563,0.0614955
-0.0448989,0.0120656
-0.0267136,-0.0265414
0.0119476,-0.0319511
0.0284675,-0.0227436
0.0193565,-0.0098271
0.0149826,-0.00667203
0.0172591,-0.00664841
0.00380292,-0.00853325
-0.0152795,-0.0154874
-0.0137146,-0.0302108
-0.00151124,-0.00982688
0.000334767,0.0253161
-0.0145396,0.0410928
-0.033061,0.0212801
-0.0502003,-0.0306561
-0.0614654,-0.021898
-0.106318,0.00277413
-0.150771,-0.00713347
-0.147162,0.0100402
-0.0625808,0.0523812
0.0869717,0.0346941
0.128422,-0.00118519
0.105575,-0.0555852
0.0768103,-0.0492171
0.0453927,0.0102286
0.0527765,0.0757298
0.0650748,-0.0102905
0.0520349,-0.0402931
0.00898883,0.0107796
-0.00521279,0.0357793
-0.00484099,-0.0201103
-0.0308307,-0.0851476
-0.0336732,-0.0354471
-0.0558898,0.0127887
-0.0482184,0.0319068
-0.00553651,0.0156061
0.0298059,-0.00747722
0.0159781,-0.00508509
0.0252026,0.00991194
0.0374228,0.0305132
0.0215408,0.0477806
-0.0110851,0.0458355
-0.0411567,-0.0156071
-0.0359875,-0.0196029
-0.0325335,0.0803104
-0.0138643,0.00175882
0.0190426,-0.0583989
0.0263904,-0.0354006
0.0649596,-0.0204406
0.102057,-0.0530557
0.0535446,-0.0260491
-0.00358455,0.00276698
-0.00281074,0.0016114
-0.021717,0.0222592
-0.0523798,0.0412281
-0.0358932,0.0268838
0.00332031,-0.00651075
0.0342934,-0.0294346
0.0174731,-0.010497
-0.0221901,0.0026484
-0.0204964,0.00523765
-0.0229297,0.0109423
-0.0459377,0.000455234
-0.0573956,-0.0196776
-0.0720957,-0.0270544
-0.0619905,-0.0140719
-0.056966,-0.00857783
-0.0784172,-0.00434683
-0.0654341,-0.00323498
-0.00784481,-0.00780212
0.00835519,-0.0131494
0.0251576,0.0139859
0.0373874,0.0259329
0.0612438,0.0208431
0.0969314,-0.00500399
0.0539715,0.00333563
0.0344465,0.099504
0.0754433,0.0745838
0.0995006,-0.0624354
0.089943,-0.099147
0.0711448,-0.0169585
0.0295143,0.0583409
-0.0160452,0.0666795
-0.0456327,0.0211707
-0.0866091,0.0158714
-0.0992532,-0.0176255
-0.0668768,-0.0214715
-0.0510122,0.00398429
-0.0437039,-0.0310014
0.00099667,-0.0316972
0.0347771,-0.0142187
0.0293233,-0.0322517
0.0143824,-0.0411502
0.01177,-0.0302738
0.0168612,-0.0116006
0.00987903,0.0212242
0.000774082,0.0371581
-0.0268226,0.0377844
-0.054428,0.00205345
-0.0505748,-0.0212016
-0.0473059,-0.00684373
-0.0610676,0.00151928
-0.0496043,-0.0104177
-0.00722338,-0.0288403
0.0535579,-0.020861
0.082445,0.0166193
0.0824537,0.0407594
0.115746,0.0179878
0.0940753,-0.00293638
0.0334282,-0.0142282
-0.0112943,-0.00483007
-0.0298265,0.0232183
-0.0187355,0.0370133
0.0376919,0.0390377
0.0990155,0.0279915
0.101478,0.00292747
0.0406898,0.00176739
-0.0394932,-0.0120641
-0.0824186,-0.0117772
-0.0975047,0.00394742
-0.105439,-0.00259402
-0.102607,-0.0189473
-0.0727784,-0.0240495
-0.0219362,-0.0124594
-0.0241635,0.00866079
-0.0299397,0.000556946
0.00250472,-0.0179542
0.053469,-0.0453562
0.0515171,-0.0562092
-0.000997713,-0.0150431
-0.0412329,0.049942
-0.039967,0.0781707
-0.012556,0.0386771
0.0236277,0.0229489
0.0401869,0.107527
0.0291739,0.0654887
0.0322343,-0.103119
0.0132896,-0.0880116
-0.0111464,-0.0602725
-0.00973889,-0.0456192
0.0103835,-0.0396817
0.00582596,-0.020166
-0.0112506,-0.0071954
-0.0373978,8.4e-05
-0.0478925,-0.00934358
-0.0443634,-0.00581064
-0.0195063,0.0354975
0.0080579,0.0350882
0.0416956,0.00306916
0.0578162,0.00230765
0.0667401,0.0216804
0.0687116,0.0414697
0.0495779,0.010158
0.0367123,-0.0271121
0.00722742,0.00225598
-0.0314756,0.0310017
-0.0368174,0.0215828
-0.0510309,0.000541357
-0.0862063,-0.0247886
-0.0813584,-0.0623625
-0.015646,-0.0351555
0.0580616,0.0286304
0.0994327,0.0131759
0.137533,-0.0329274
0.11966,0.0171861
0.02632,0.0413493
-0.0239671,0.021575
-0.0341107,0.0372636
-0.0355753,0.0123555
-0.0201396,0.00821591
-0.026202,0.00285821
-0.0928824,-0.0176906
-0.102399,-0.0146594
-0.0593688,0.00468973
-0.0331076,0.00325874
-0.0118218,-0.0102333
0.0446291,-0.0128615
0.0802884,-0.00941887
0.0849486,0.0023427
0.0561933,-0.0133013
0.00130855,-0.0386952
-0.0398381,-0.0234607
-0.0502773,0.00521329
-0.0471571,0.0097113
-0.0360244,-0.00860876
-0.0217688,-0.0109813
0.00620008,0.0016883
0.0297879,0.0155978
0.0252188,0.0367984
0.0208674,0.0426716
-0.000259476,0.0274394
-0.0329534,-0.023384
-0.0556723,-0.0405805
-0.0757647,-0.0016197
-0.0636213,-0.0107191
-0.0207317,-0.0286019
0.0364423,-0.0106132
0.068845,-0.0437533
0.089972,-0.0490261
0.0780993,-0.0101109
0.0568902,0.0261316
0.0186531,0.0484635
-0.0102737,0.0713363
-0.0144337,0.0597903
0.0030092,0.0072244
0.0268013,0.0187471
0.044504,0.0324669
0.0296352,-0.00363055
-0.0104319,-0.0418958
-0.0530341,-0.0290878
-0.0429093,-0.000928289
-0.0248883,0.00426182
-0.0363611,-0.00923621
-0.0431883,-0.00864094
-0.0745269,-0.00695588
-0.095736,-0.0146093
-0.0601316,-0.0215689
-0.0186393,-0.0185297
0.0300117,7.9e-06
0.076122,0.0247119
0.0962448,0.0342387
0.07871,0.0122334
0.0556819,-0.0010724
0.0558158,-0.00197036
0.0372443,-0.0286162
-0.00697401,-0.0377602
-0.0313782,-0.0154725
-0.0154043,0.00866979
-0.00519644,0.0651667
-0.0366125,0.0316606
-0.0431088,-0.0229798
-0.0302651,-0.0200891
-0.0337314,-0.00917678
-0.0147441,-0.00985178
0.0191496,-0.00735682
0.00809616,-0.00752495
0.00430311,0.00344469
0.0182419,0.00729712
0.0241967,0.0123245
-0.00896977,0.047634
-0.0655885,-0.00308441
-0.0952275,-0.0825048
-0.047744,-0.0576889
0.0319484,-0.0107445
0.0489933,0.0245451
0.037331,0.0279425
0.0189459,0.0151071
0.0273474,0.0128702
0.042875,0.00628591
0.0382168,-0.00459239
0.00681869,-0.00560891
-0.00615952,-0.00086405
0.0181522,0.00714427
0.0314334,0.0221382
0.0132455,0.0261944
-0.00436685,0.0041123
-0.0134027,0.011446
-0.0263952,0.0303977
-0.0293006,0.000685026
-0.0146436,-0.0375535
-0.0211995,-0.010549
-0.0392489,0.0306998
-0.0382401,0.0490779
-0.0126611,0.0136357
0.0141997,-0.0392765
0.0267211,-0.0660343
0.0320478,-0.0393654
0.0254017,0.0312399
0.0212722,0.0107592
0.0140362,-0.0344783
0.0147359,0.00464245
0.0191416,-0.00628825
0.0184871,-0.0350856
0.0230794,-0.0122954
0.0431732,0.0122392
0.0466709,0.00337634
0.0105248,0.00792884
-0.0269673,0.0294176
-0.0566944,0.0717839
-0.0649884,0.0286604
-0.0653505,-0.0164802
-0.0652186,-0.0325257
-0.0288214,-0.033394
0.0377134,-0.0220363
0.0830348,-0.0123458
0.0572194,-0.018838
0.00750366,-0.0396588
-0.0403788,-0.0241031
-0.0536379,0.0150485
-0.0263134,0.0241004
-0.002858,0.0356721
-0.0202853,0.021747
-0.030623,0.00279351
-0.0302566,0.016636
-0.0189015,0.0117884
0.01015,0.0110277
0.0366527,0.00456715
0.0203751,-0.00918413
-0.00963093,-0.000262936
-0.0201314,-0.00411271
-0.0198956,-0.011619
-0.0251492,-0.00569325
0.013309,0.0234182
0.0837007,0.02279
0.0781602,0.00673375
0.0316921,-0.011139
0.0341438,-0.0236135
0.0299467,-0.00550849
-0.00670405,0.00674043
-0.0342968,0.000197989
-0.0392284,-0.00903223
-0.0481373,0.022244
-0.0573185,0.0545453
-0.0374245,-0.000246987
-0.0145042,-0.0144881
-0.0335539,0.042626
-0.0481856,0.00681299
-0.0336182,-0.0634753
-0.0282371,-0.0584993
-0.0116172,-0.0256939
0.0415176,0.000222369
0.0803921,0.0125886
0.123017,-0.0170648
0.133093,-0.0434319
0.0367065,-0.0299989
-0.0356374,-0.0108826
-0.0115762,0.0440608
0.0265995,0.105952
0.0412545,0.0151002
0.0399566,-0.0604226
0.0230236,-0.0144043
0.00525178,0.00506746
-0.0434482,-0.0286567
-0.0658779,-0.03843
-0.0682725,-0.00580978
-0.0742883,0.0518536
-0.0259627,0.0834961
0.022704,0.022453
0.0270157,-0.0116792
0.0211522,0.00386873
0.00345766,0.00358249
-0.00679587,-0.0250211
-0.0139013,-0.0242643
-0.0183874,-0.0149225
-0.0181113,-0.0170172
-0.0184783,-0.0156192
-0.00988627,-0.00381112
-0.00111106,0.00609168
-0.0120193,0.00167282
-0.0454206,-0.00910904
-0.0467543,-0.0157379
-0.0174545,-0.00812668
0.0125727,0.00571327
0.0510236,0.00751375
0.0639817,0.00242751
0.0488013,0.00519717
0.0384261,0.0312741
0.0079298,0.0520099
-0.00865397,0.0187065
-0.00112445,-0.0189048
0.0339099,-0.00757631
0.046527,0.00502404
0.0269496,0.00257547
0.00534345,0.00571312
0.00195487,0.00115369
0.00937941,-0.00817481
-0.0214942,-0.018737
-0.0482523,-0.020466
-0.0559709,-0.0143939
-0.0386734,0.00956411
-0.035328,0.0228209
-0.0428168,0.000743038
-0.0465026,-0.0102438
-0.0262229,-0.0136445
0.00821918,-0.00828752
0.0211022,-0.00296526
0.0121718,0.014575
0.0137313,0.0588459
0.0240303,0.0098619
0.0100558,-0.0442336
-0.0218115,-0.00345405
-0.0346881,0.00335115
-0.0373247,-0.0204486
-0.0451955,-0.0180261
0.00798584,-0.0153856
0.0490283,0.00206386
0.0449977,0.0274802
0.0228892,0.0157577
0.00991781,-0.00126148
0.0209616,-0.00968872
0.0504947,-0.0159338
0.0528324,-0.0213184
0.0440778,-0.00560498
0.00574169,0.0148893
-0.0277176,0.00742474
-0.0286012,-0.00469054
0.000495159,0.0178621
0.0241714,0.0274398
0.00483604,0.0209675
-0.0127251,-0.0037402
-0.00357073,-0.0529074
0.00199663,-0.0246818
0.00891645,0.0139803
0.0257715,0.0288359
0.0404554,0.038591
0.0499685,0.0254618
0.0519109,-0.00493671
0.0517686,-0.0121521
0.0277207,-0.0134535
0.0116231,-0.00799342
-0.0056827,0.0198175
-0.0759388,0.00474248
-0.158537,-0.0353211
-0.167113,-0.0404049
-0.120544,-0.00656018
-0.0805694,0.0451264
-0.0407747,0.00879735
-0.00872426,-0.08073
0.0162527,-0.0640501
0.0374846,-0.00719519
0.0357774,0.0234719
0.0211275,0.0196044
0.00145225,0.037524
0.0110309,0.0964545
0.0329931,0.0506502
0.0290689,-0.0558851
0.00806611,-0.0657511
0.0332354,-0.0266304
0.0839073,-0.0031231
0.104128,0.0069799
0.0840388,0.0134675
0.0532435,0.0137895
0.0162174,0.0381593
-0.027245,0.0441652
-0.0557784,0.00347554
-0.060632,-0.0142995
-0.0422323,-0.00417907
-0.025505,0.00269662
-0.0266737,-0.00173776
-0.0407961,-0.00307593
-0.0484542,-0.00754519
-0.052243,-0.0159903
-0.0389141,-0.0249345
-0.00584481,-0.0225744
0.0138676,-0.0125881
0.00950988,0.000669966
0.0183985,0.0141494
0.0585532,0.0217436
0.0966015,-0.00750244
0.0984531,-0.0169739
0.0677874,0.0012995
0.0361152,0.0318885
0.0232563,0.00883042
0.00393018,-0.0172342
-0.0425597,-0.0107324
-0.0910214,-0.0123497
-0.103105,0.0027202
-0.0527475,0.00847481
-0.0157157,0.0012812
-0.0306771,-0.00413749
-0.0475768,-0.0108427
-0.0392948,-0.0159549
-0.00514616,-0.00716274
0.0309406,0.00532176
0.0410925,-0.00163506
0.0337195,0.0105407
0.0281061,0.0470194
0.0204108,0.0288614
0.00131479,-0.0186783
-0.0134966,-0.00276521
0.005642,0.0191662
0.00422335,0.00953967
-0.0191436,-0.0307997
-0.0234371,-0.0193377
-0.0131778,0.0185475
-0.00434931,0.0125481
0.0156188,-0.00806084
0.045855,-0.0176256
0.0466959,-0.0106272
0.0517513,0.0100697
0.0647316,0.00656743
0.0566532,-0.00486257
0.0291781,-0.0177897
0.00519516,-0.0141667
-0.0376372,-0.0162532
-0.0708802,-0.0110551
-0.0577364,0.00162207
-0.0427795,0.00623855
-0.0371266,0.00117113
-0.017348,0.021245
0.00764275,0.0398287
-0.00764506,-0.00839869
-0.0125417,-0.0212918
-0.00117338,-0.00974284
-0.00978976,-0.0224758
0.00311674,-0.0115974
0.01853,0.00889333
0.00369721,0.0132904
-0.0142678,0.0283139
-0.00894206,0.0104045
0.0106232,0.00579637
0.0294376,0.0439877
0.0347328,0.055498
0.00785236,0.0175961
-0.0048381,-0.0503732
-0.000180127,-0.0572786
-0.00943116,0.0171086
-0.0221294,0.0379148
-0.0278928,-0.00488198
-0.014246,-0.036679
0.00478394,-0.0136705
0.035595,-0.000919921
0.049452,-0.00691383
0.0267827,-0.00930052
-0.00464847,-0.0133573
-0.0268902,-0.021161
-0.0237821,-0.0261578
-0.0122649,-0.0246724
-0.0191772,0.000938928
-0.00954879,0.0595231
0.00413102,0.067625
0.00927963,-0.00495286
0.0245334,-0.0322237
0.0259092,-0.0271253
-0.00256932,-0.00558105
-0.0433813,0.0483975
-0.037795,0.0337542
0.00693365,-0.0157862
0.0243026,-0.0100132
0.0404665,-0.0170913
0.0452048,-0.0230408
0.0191356,-0.00744044
-0.0270188,-0.00577394
-0.0387408,-0.0123356
-0.042341,-0.0105055
-0.030486,-0.000725038
-0.0178041,0.00237704
-0.0157374,-0.0133161
-0.00604135,-0.0215608
-0.00256583,0.000826821
-0.00261089,0.0114625
0.00396518,0.00716686
0.0104678,0.0101604
0.0361556,0.0174223
0.0569324,0.0231451
0.0727857,0.0156203
0.0967446,0.0108768
0.0929246,0.0100048
0.0464856,0.00164065
-0.00819269,0.0170539
-0.0306639,0.0168083
-0.0484001,-0.00794181
-0.0651653,-0.00298973
-0.0679056,0.00593212
-0.0683418,-0.0149327
-0.0616909,-0.032694
-0.065072,-0.00471715
-0.0843166,0.0159948
-0.0822151,0.0182885
-0.0148578,0.00750754
0.0566456,0.00445408
0.0845101,0.00220414
0.0663055,-0.00266449
0.0333962,-0.0142067
-0.00646982,-0.0218702
-0.041255,-0.014896
-0.0556602,-0.0119134
-0.0571963,-0.0191193
-0.0347107,-0.0271027
0.0154221,-0.0178389
0.0429336,0.0111169
0.0602638,0.0078681
0.0573934,-0.00855358
0.0501986,0.00498409
0.0358298,0.0271638
0.00874327,0.0258018
0.0100561,-0.00475919
0.0182045,-0.0145436
0.0106397,-0.00206906
0.00508195,0.0152996
-0.00640798,0.0102272
-0.0138995,-0.00612305
-0.00215512,-0.0154096
0.00372312,0.00504322
0.00397545,0.017257
0.00868678,0.0172956
0.0147535,0.0043065
0.0130997,0.00511012
-0.00142294,0.0232759
-0.00949691,-0.00543228
-0.0253294,-0.025923
-0.0428738,-0.029478
-0.0475784,-0.0221894
-0.0139856,0.00799374
0.0178702,0.0240165
0.013335,0.0147669
0.0204829,0.00312717
0.0428877,0.000590023
0.0567335,-0.0140061
-0.0019603,-0.0233476
-0.0594903,-0.018543
-0.0986092,-0.00360862
-0.0819968,0.000259953
-0.02319,-0.00273874
0.0258148,0.00709523
0.0545227,0.00959574
0.0408863,0.0188917
0.0256314,0.00388996
0.0372888,-0.00805618
0.0357823,0.0150143
0.0299277,0.0152701
0.0162911,0.0160611
-0.0101558,0.00639971
-0.0262332,-0.00886491
-0.0277188,-0.0121779
-0.0306616,-0.0156458
-0.0349387,-0.00288175
-0.0301278,0.021021
-0.00744578,0.036151
0.0204203,0.0324777
0.0152823,-0.0108734
-0.00395055,-0.0445239
-0.0131064,-0.0229329
-0.012382,-0.0139904
-0.0203213,-0.00782135
-0.0228875,-0.00163601
-0.00316973,-0.00891631
0.00459926,0.0178858
-0.00185252,0.0399064
-0.00800409,0.0143152
-0.00956279,-0.0201042
-0.0135068,-0.0171003
0.000471464,-0.00860534
0.0580053,-0.00984407
0.0733263,-0.0175416
0.0429041,-0.000903073
0.0183772,0.0114219
0.00593682,0.00696722
-0.000219319,0.0156212
0.0266685,-0.0040566
0.0893409,-0.0229664
0.112737,-0.021394
0.0648655,-0.00976624
0.00468241,0.00557459
-0.0428773,0.0104849
-0.0950841,0.00686198
-0.111321,0.0156095
-0.113066,0.0259047
-0.0918725,0.0173474
-0.0743785,0.00574944
-0.0657026,-0.0170506
-0.0476291,-0.00450182
-0.0128849,-0.0053556
0.0261361,-0.02083
0.0382183,-0.00458304
0.0272428,-0.0119387
0.0150058,-0.0162689
0.00578759,-0.019813
-0.0015396,-0.00959876
0.00804521,0.00821864
0.0185136,0.0177221
0.0127606,0.0178371
0.0036183,0.0141872
0.0218301,0.00238799
0.040226,-0.00391452
0.0283276,0.00731116
0.00909759,0.0194669
0.0100556,0.00580661
0.0163425,-0.00950074
0.0386003,-0.00479221
0.0614306,0.00636024
0.0488938,-0.00104482
0.00802381,-0.00503533
-0.0142119,-0.00166531
-0.011223,-0.00263409
-0.0129669,-0.00199212
-0.0150168,0.00660925
0.00283039,0.0120886
0.0101452,0.00913533
0.00462323,0.00354641
-0.000459287,0.0023748
-0.0185841,0.00807367
-0.0353125,0.00276007
-0.0259444,-0.0172261
-0.0131452,-0.0151398
0.00859638,0.00508178
0.0304351,0.0117272
0.0284195,0.00314079
0.00382687,-0.0209153
-0.0159374,-0.0223949
-0.0297294,-0.0152988
-0.0442316,-0.00869976
-0.061074,0.0111697
-0.0436751,0.0153511
-0.0169209,0.00552387
-0.00500307,0.00506486
-0.00418736,0.0372115
-0.00567649,0.0171653
0.0018052,-0.0361259
0.0044249,-0.0171832
0.009682,0.016164
0.00826801,-0.0163328
0.01818,-0.0337661
0.0321037,-0.00900083
0.0187139,0.0139843
0.0024034,0.0213857
-0.00327403,0.0175434
-0.00432824,-0.00990044
-0.000422964,-0.0247897
0.00759686,-0.0206239
0.0149734,0.02248
0.0192516,0.0471954
0.0186247,0.0137596
0.0143694,-0.0125052
-0.00570997,-0.0139281
-0.0186165,-0.0126393
-0.0285807,-0.0101686
-0.0355454,-0.00635206
-0.00616411,-0.00174626
0.0641365,0.0108279
0.101632,0.0174241
0.0808603,0.007295
0.0237384,0.00138494
-0.0316308,0.00394229
-0.0526358,-0.00502527
-0.046115,-0.0123734
-0.0423695,-0.000200441
-0.0330199,0.000907331
-0.0176988,-0.00866304
-0.0263681,-0.0133451
-0.0268865,-0.0129763
-0.0166553,-0.0148257
-0.0105841,-0.0149544
-0.00212263,-0.0102416
-0.00349679,0.00561557
0.00068704,0.0135502
0.017714,0.0237516
0.0156615,0.0301105
0.0049315,-0.00522297
0.00268247,-0.020389
-0.00307331,-0.0123981
-0.00333694,-0.0118012
0.0126817,-0.00798129
0.0544783,0.0136772
0.105892,0.0278149
0.121961,0.0235745
0.118169,0.00817604
0.0700914,-0.008764
-0.0217637,-0.000954908
-0.110667,0.0229985
-0.116619,0.0185747
-0.0917891,-0.021821
-0.0559699,-0.0161741
-0.0390151,-0.003797
-0.04497,-0.00577218
-0.0563346,0.02351
-0.0600112,0.0413344
-0.0429647,-0.0228107
-0.0127939,-0.062465
0.00526536,-0.0387354
0.0207988,0.0137743
0.0268814,0.0344802
0.0155783,0.0506121
0.0153542,0.036959
0.0201242,-0.00656376
0.014075,-0.0270878
0.0148342,-0.0270019
0.0198592,-0.00838627
0.020716,-0.000606973
0.0263901,0.00698413
0.0285994,0.0116342
0.0186995,0.0002382
0.00870565,-0.0114935
-3.71e-05,-0.0103834
-0.0174918,-0.00670103
-0.0320559,-0.00349887
-0.0282819,0.000488622
-0.00485096,0.00121158
0.0180804,-0.00297665
0.0297679,-0.00201992
0.0367955,0.000253891
0.0358117,-0.00108315
0.0248518,-0.00556759
0.0148767,-0.00811792
0.00888366,-0.00682263
0.0134357,0.00300759
0.0200306,0.0170534
0.0175337,0.0174854
0.0186247,0.00557486
0.0165411,-0.000758307
0.00063626,-0.00446573
-0.0272644,-0.00503323
-0.0449065,-0.0023353
-0.0512245,0.00640696
-0.0584524,0.00988537
-0.0687886,-0.0068023
-0.0576027,-0.0103838
-0.0338273,-0.00708778
-0.0171178,-0.00991241
-0.00553948,-0.0159595
0.00598684,-0.0160975
0.00991661,-0.0109366
0.0159121,0.00762575
0.026061,0.0204407
0.0329219,0.0114265
0.0396442,-0.00478461
0.0336065,-0.00383482
0.0174185,0.00383796
-0.00854901,-0.00303427
-0.0274635,-0.00523254
