Comp Ch 3,Comp Ch 4
0.0691738,0.0231561
0.0402195,0.00646205
0.00564002,-0.00485336
-0.0107012,-0.00777764
-0.0146835,-0.00796712
-0.0162093,-0.00421313
-0.00492345,0.0136049
0.0187724,0.0334733
0.0134711,0.0135901
-0.014633,0.0421305
-0.0289487,0.0852918
-0.00629517,-0.0818839
-0.0060876,-0.0612341
-0.0119459,-0.0122333
-0.0106638,-0.0261803
-0.0330302,-0.0240835
-0.0315962,-0.00712877
-0.00908755,0.0393407
-0.00579907,0.0456452
9.07e-05,0.000507933
-0.00374941,-0.00586932
-0.0218273,-0.0145423
-0.0249466,-0.0325341
0.00068352,0.00904094
0.0363478,0.0265059
0.0444215,-0.0199389
0.0386781,-0.0157565
0.0334711,-0.00560691
0.0223326,-0.00577588
0.00486479,-0.0028111
-0.0233425,0.00191251
-0.0430166,0.00315958
-0.0474291,0.00743457
-0.0259342,0.0136601
-0.000414005,0.024663
0.00585134,0.0208852
0.0200467,-0.00736707
0.0300642,-0.0194897
0.017546,-0.0280343
-0.0175551,-0.0185811
-0.03831,0.0140017
-0.0129885,0.013669
0.0189682,-0.00565027
0.048958,0.0107319
0.0605286,0.0212419
0.0550704,-0.000413816
0.0487209,-0.0297347
0.0337404,-0.0260125
-0.0038257,0.00640405
-0.0316667,0.0395889
-0.0416508,0.0213765
-0.0489102,-0.00606877
-0.0389511,-0.00374598
-0.0141149,-0.00416138
-0.00871515,0.00428702
-0.0229302,0.0399491
-0.0357687,0.0169179
-0.0343057,-0.0296933
-0.0264557,-0.0482342
-0.0142582,-0.0458859
-0.00389053,-0.00296697
-0.002651,0.0117361
-0.0082314,-0.00234659
-0.0112181,-0.00701698
0.00550925,-0.00751362
0.0367684,-0.000938702
0.0588422,0.00502093
0.0660971,0.0152208
0.0475984,0.0525164
0.0228078,0.0324151
0.00389419,-0.00401626
-0.0107001,-0.00553597
-0.0228216,-0.0122358
-0.0277014,-0.00994333
-0.0143581,0.0122385
-0.0156513,0.0513247
-0.0214994,0.0140925
-0.0244249,-0.0377848
-0.0351095,-0.0322872
-0.0385841,-0.0188242
-0.0238167,-0.0179652
-0.00304943,-0.0234506
0.0158874,-2.62e-05
0.0388932,0.0378938
0.0522966,0.0229855
0.0471504,-0.00665619
0.0499205,-0.0183281
0.0488889,-0.0130703
0.0261486,0.00748557
-0.00275333,0.0149209
-0.000830168,-0.00660133
0.00163299,-0.022685
-0.0248116,-0.0235787
-0.0379299,-0.020239
-0.0539308,0.00357727
-0.0728038,0.0155705
-0.0688648,-0.00399857
-0.0311474,-0.0195454
0.0297369,0.0778373
0.0803782,0.169933
0.11225,-0.0322363
0.0919919,-0.130047
0.0242267,-0.0355231
-0.0449683,-0.0197632
-0.0629968,-0.0712053
-0.0200515,-0.0897439
0.0249017,-0.0320611
0.0490985,0.105749
0.0564581,0.100843
0.0414871,-0.0160491
-0.0197752,0.0074809
-0.0752989,0.0366201
-0.0933895,0.00143423
-0.0929482,-0.00840941
-0.0776983,-0.00452767
-0.0556853,0.00313099
-0.00825164,0.019685
0.034989,0.0284605
0.0464149,0.0225776
0.0450908,0.0118476
0.0352491,0.00596383
0.0140066,0.000470143
-0.0217601,-0.00631253
-0.0457862,-0.0115185
-0.0260087,-0.0144936
-0.00676005,-0.0137096
-0.000309744,-0.0135624
-0.004863,-0.00953721
-0.014093,-0.0125723
-0.0238959,-0.014359
-0.0172147,-0.0216511
-0.0051252,-0.00538682
0.0239484,0.00693366
0.0407098,-0.00532447
0.0301719,0.0162999
0.0310062,0.00482507
0.0365874,-0.000651889
0.0277189,0.0163629
0.0375476,0.00944216
0.066376,0.0126795
0.0768997,0.0234799
0.0603551,0.0054064
0.0336604,-0.0138945
-0.00736907,-0.0249342
-0.0654468,-0.0196435
-0.0908996,-0.0260004
-0.0718127,-0.0224075
-0.0569072,-0.0186492
-0.0387497,-0.0108519
-0.0221385,0.00576127
-0.0129575,0.0128836
-0.0141215,0.0266748
-0.0119246,0.0287516
0.00454702,0.0243209
0.0228513,0.0656812
0.0383665,-0.00149135
0.0539279,-0.0475215
0.0481141,0.0140143
0.0182572,0.00616458
-0.00798845,-0.0220729
-0.0262048,-0.00685324
-0.0434371,0.00399587
-0.0309769,-0.0229067
0.0107834,-0.0233913
0.0416912,-0.00136782
0.0655175,0.00385184
0.0616885,-0.00771543
0.00786543,-0.00529245
-0.0401768,-0.00383431
-0.0496615,-0.00322425
-0.0550518,-0.0117623
-0.0548481,-0.0166119
-0.0357245,0.00393585
-0.00106045,0.0388379
0.0357955,0.0239332
0.0456367,0.00560658
0.0451501,0.00197958
0.0389947,-0.00131439
0.0543535,-0.00298623
0.0616762,-0.00475491
0.0272021,-0.00707188
-0.0113079,-0.00629717
-0.0241125,0.00254591
-0.0642054,0.00261429
-0.1112,-0.004023
-0.101032,0.00822774
-0.0600098,0.0182638
-0.0249779,0.0260026
-0.00949606,0.00187944
0.0144329,-0.0251441
0.034175,-0.0154495
0.0274222,-0.0101545
0.0209656,-0.0122806
0.00710664,0.0644721
-0.00289743,0.0452025
-0.00913912,-0.0522482
-0.0130647,-0.0437273
-0.0119283,-0.0107186
0.00279479,0.0104799
0.0302697,0.0208283
0.037247,0.0352199
0.0255801,0.0150074
0.0175426,-0.0188182
0.00930782,-0.00283348
0.000971889,0.00317311
-0.00287572,-0.0529403
0.00691527,-0.0283669
0.0165824,0.00549872
0.00389126,0.00770792
-0.00208623,0.0218079
-0.00461621,0.0104835
-0.0137653,0.0393919
-0.0137303,-0.00482676
-0.00730551,-0.0443135
-0.0139958,-0.0419104
-0.0123476,0.088567
0.0137261,0.0181499
0.0242846,-0.0626157
0.00657882,-0.0113237
0.000214561,-0.0238203
-0.00215826,-0.0176444
-0.005857,0.00414131
0.00511798,-0.0212717
0.0253361,0.00582318
0.0470211,0.0452078
0.049381,0.0336851
0.0351578,0.0140893
-0.00154916,0.00702277
-0.0442446,-0.0198845
-0.0750987,-0.0168163
-0.0712185,-0.0153627
-0.0476565,-0.0237719
-0.00607057,-0.0116943
0.0127797,-0.00853743
0.0123796,-0.0426965
0.0123861,0.0100306
-0.00313431,0.11017
-0.00153966,0.00946701
-0.00538758,-0.0327149
0.00158561,-0.0266288
0.0231899,-0.0213687
0.0269325,-0.0267158
0.0254146,-0.0228865
0.0147766,0.00234655
-0.00515331,0.0282944
-0.0210297,0.0130608
-0.0270076,0.0922878
-0.0199942,0.118321
0.00364477,-0.0692815
0.0324393,-0.0870253
0.0298282,0.00999622
0.00268842,0.0512872
-0.000895504,0.037301
-0.00154082,-0.00649989
-0.00653344,-0.049531
-0.00811101,-0.0134726
0.0101002,-0.0421604
0.01311,0.0124432
-0.00947437,0.0608815
-0.015059,0.0169107
-0.0128579,-0.0344356
-0.0211065,-0.0251878
-0.0242543,-0.0200747
-0.0133741,-0.0194186
-0.0095688,-0.0249271
0.00489233,-0.0105104
0.0191081,0.0104373
0.00725177,0.0114025
-0.0112509,0.039182
-0.00724564,0.0246814
-0.00398239,-0.0302339
-0.00560735,-0.0106304
0.0101568,0.0384376
0.0617412,0.0396856
0.0869644,0.0194337
0.0751424,0.00115907
0.0469885,-0.0196079
-0.00778015,-0.0347885
-0.0674102,-0.0249855
-0.0886923,-0.0021732
-0.0691902,-0.0108003
-0.0321268,-0.02182
0.0147362,-0.00468712
0.0463191,0.00937843
0.0518845,-0.00606543
0.0466945,-0.0301456
0.014549,-0.0110288
-0.0311159,0.00101215
-0.0562181,0.0153197
-0.0552781,0.0516527
-0.042008,0.0438003
-0.0197845,-0.0114184
0.00396477,0.0254267
0.0247411,0.0117419
0.0148155,-0.0021905
-0.0157522,-0.0178611
-0.0380027,-0.0426442
-0.0386735,-0.0363372
-0.0272546,0.0104196
0.00949439,0.0516195
0.0420914,0.0247821
0.0306718,-0.00366665
0.0165933,-0.00962009
0.00353579,-0.00140592
-0.0126269,0.0248162
-0.0211333,0.0291495
-0.00291184,-0.0720211
0.0161513,-0.0607538
0.0150038,-0.0138932
0.0208313,-0.00498339
0.0178572,0.000209031
0.0097746,2.3e-05
-0.00095141,0.0141698
-0.00544531,0.0247715
-0.00147229,-0.0140365
0.0138448,-0.0316813
0.033135,-0.00381289
0.0285778,0.0157916
0.0101981,0.0166204
0.0022925,0.0143027
-0.00406257,0.00069409
-0.00708569,-0.0155822
0.00337871,-0.0158733
0.013289,0.0304496
0.0101523,0.0544249
-0.00318878,0.0397657
-0.0243091,0.0457671
-0.0374718,-0.0327342
-0.0386692,-0.0448701
-0.0269681,-0.0238795
2.04e-05,-0.0195381
0.0160738,-0.0156442
0.0316602,-0.000943526
0.0371535,0.018263
0.0194638,0.0174822
0.00558595,-0.00592262
-0.00421158,-0.0199176
-0.0200768,-0.0216353
-0.0373932,0.0277439
-0.0302399,0.0947862
0.00771162,0.0243314
0.0252241,-0.0322267
0.0146241,-0.00116555
0.010394,-0.019252
0.00149899,-0.0270515
-0.0139133,-0.0151371
-0.0162037,-0.0114516
-0.0107543,-0.0356037
-0.00137428,-0.0333663
0.0193105,-0.0150818
0.0266232,0.00677483
0.0125332,0.012183
-0.0037532,0.00886041
-0.0199196,0.00473529
-0.030866,-0.00520158
-0.0304315,-0.0148882
-0.00812781,-0.00613345
0.0144708,0.0131058
0.00468646,0.0343468
-0.0165842,0.0653878
-0.0268895,0.0406365
-0.0215601,-0.0281098
-0.00274019,-0.0562927
0.0113077,-0.0228405
0.00415566,0.0169324
0.0135145,0.0272519
0.0309976,0.0459943
0.0308972,0.0756052
0.0169239,-0.0163378
0.00726988,-0.0814157
-0.00646002,-0.0471901
-0.0160615,-0.0325862
-0.0201605,-0.0251573
-0.00920899,0.0031868
0.00791626,0.013124
0.0151381,0.00583946
0.021767,0.0164494
0.0179594,0.0246681
0.00198525,0.0352152
-0.0156879,0.0111448
-0.0246927,-0.0227054
-0.016812,-0.0074669
0.00498008,0.00138853
0.0267059,-0.0147338
0.0152816,0.0137652
0.00490538,0.0010393
-0.00117103,-0.0361169
-0.00859609,-0.047673
-0.0235202,-0.0173734
-0.0219411,0.0436411
0.00488679,0.0520552
0.0172988,0.00525261
0.0122992,-0.0171
0.00513194,-0.0316227
-0.00309474,0.00686219
-0.0108737,0.0231345
-0.00998852,-0.0048889
-0.0065135,0.00668351
0.00890515,0.0148209
0.0413562,0.0205636
0.0503992,5.53e-05
0.0117413,-0.014839
-0.0105774,0.0477949
-0.0121818,0.0704187
-0.0196503,-0.0693193
-0.0422661,-0.109674
-0.0361871,0.0132778
0.00702913,-0.00131009
0.0216471,-0.0247949
0.0194388,0.0425551
0.0170324,0.0436082
0.00624409,0.0036875
-0.013462,-0.042645
-0.029512,-0.0394234
-0.0471846,-0.019805
-0.0465399,0.00167724
-0.018099,0.0168458
0.00181446,0.0115238
0.00636465,0.0163917
0.0171277,-0.00335184
0.0266726,-0.0251586
0.0138303,-0.0108513
0.00522073,0.00124276
0.00569243,0.037508
0.0109558,0.0278024
0.0081614,0.00498856
0.00950861,0.025788
0.00109838,0.0527631
-0.00553768,0.00699617
-0.00214168,-0.0421771
0.00590884,-0.0449063
0.00100121,-0.0361732
0.00843637,-0.0206959
0.0217369,0.018525
0.0129962,0.039843
-0.0018661,0.000425784
-0.00311793,-0.0207797
-0.00699804,-0.0273797
-0.0201648,-0.0309097
-0.0285559,-0.0149087
-0.0181749,0.0235496
-0.0170544,0.0496294
-0.0203823,0.0808749
-0.00550806,0.0146896
0.000703933,-0.0207279
0.00182441,0.00531548
0.00496265,-0.0381958
0.00585176,-0.0275475
0.00751224,0.00458507
0.0326084,0.0139502
0.0424268,0.0407035
0.0298361,-0.0244779
0.0186791,-0.0624617
0.00513957,-0.0475152
-0.00941022,-0.0105218
-0.0227161,0.0204441
-0.0178956,-0.0136587
-0.000362019,0.00359711
0.00341351,0.00904597
0.00406293,0.00721887
0.00749881,0.0204057
0.000503108,-0.000266445
-0.00983448,-0.0285678
-0.00529899,-0.0173166
-0.00436478,0.0124263
0.00201052,0.0498277
0.022787,0.0593593
0.0301652,0.00913984
0.0128466,-0.00651528
-0.0046327,0.00239902
-0.0148098,-0.00177616
-0.0143472,-0.0271308
-0.0167815,-0.0236219
-0.0266228,0.0228104
-0.0292207,0.0385388
-0.0174041,-0.0176087
-0.0117105,-0.0170601
-0.010069,-0.0106236
-0.00743853,-0.0176948
-0.0017014,-0.016727
0.00864517,0.0101277
0.0267674,-0.00465434
0.0503267,-0.0114489
0.0376565,0.00850885
-0.0146605,0.00372124
-0.0234442,-0.00211161
-0.0083356,0.00840533
-0.0223318,0.00735423
-0.0308359,0.0230227
-0.000142974,0.00298826
0.0416691,-0.0434037
0.0345641,0.00900383
-0.00526204,0.0136843
-0.0173437,0.0445446
-0.0133682,0.0214528
-0.0188826,0.00729741
-0.0202757,-0.0172736
-0.0205217,0.0363665
-0.00241732,-0.0839762
0.0204446,-0.0653286
0.0132091,0.0694235
0.00682413,-0.00212694
0.0259491,-0.0340486
0.019642,0.0124695
-0.01459,0.0158208
-0.0354992,-0.0470989
-0.0279133,-0.050733
-0.00947924,0.00186685
0.0176086,0.0403474
0.0312007,0.0152319
0.0323717,0.0034245
0.0225204,-0.00171831
0.0117187,0.0241699
0.00407292,0.0221515
0.000277793,-0.0134545
-0.00710133,5.17e-05
0.00152339,0.0496859
0.0259121,0.0113355
0.0177055,-0.0170182
-0.0118219,-0.0118013
-0.0274793,-0.0164641
-0.0357704,-0.0269947
-0.0356321,-0.0305868
-0.0137004,-0.0143866
0.0271282,-0.00753612
0.0300962,-0.0013039
-6.44e-05,0.0413421
-0.0177256,0.0477596
-0.000709265,-0.00334747
0.0514155,-0.0198924
0.0811695,-0.0117098
0.0678012,0.00848991
0.0409191,0.0304567
-0.000814917,0.0110907
-0.047783,0.000993085
-0.090391,0.0325397
-0.0814176,-0.00353293
-0.0654596,-0.0312365
-0.0638152,-0.0706445
-0.0552685,-0.0482404
-0.0286611,0.0431761
-0.00338398,0.052126
0.0102559,-0.00068647
0.0242964,0.0563452
0.02698,-0.0347983
0.0129423,-0.084064
-0.000643896,-0.0367828
-0.0068804,0.000252225
-0.0105236,0.0202812
0.0125228,0.0426405
0.0467557,0.0210302
0.0446505,0.00652135
0.0204257,0.0300293
0.0251237,0.0108356
0.0267074,-0.0366455
-6.52e-05,0.00147762
-0.0199456,0.000376488
-0.00296774,-0.0205517
0.0168282,-0.0255327
0.0206141,-0.00587253
0.0240386,0.00722734
-0.00156525,0.0422709
-0.0464851,0.0241189
-0.059438,-0.0530368
-0.0220244,-0.0240016
0.0130941,0.00251348
0.0291854,0.0209337
0.0241273,0.0122667
0.0016982,-0.00368008
-0.00756647,-0.00730448
-0.0208693,-0.00709924
-0.0661385,-0.00933215
-0.0835644,-0.00656701
-0.00866348,0.0378025
0.0682678,0.0255716
0.0870735,-0.0243562
0.0545248,-0.019711
0.0270837,0.00073434
0.0297133,-0.00029839
0.0153692,0.0150333
-0.00254794,0.0135636
-0.00774654,-0.0211749
0.0104615,-0.000133086
0.0292945,0.0278819
0.00598124,-0.00542421
-0.0216449,-0.0294874
-0.014454,-0.0124029
-0.0334251,-0.0186404
-0.0535698,-0.0377303
-0.0322221,-0.0223464
-0.0143556,0.0271511
-0.0416316,0.0764495
-0.0424816,0.0659375
0.0216766,0.0206688
0.0274844,-0.0197601
-0.0157797,0.00350819
-0.00479098,0.022704
0.0298318,0.0555386
0.0211677,0.171036
0.029539,0.0140505
0.0339404,-0.170612
0.0197419,-0.0922643
0.0321098,-0.0366407
0.0243737,-0.0519042
-0.0210115,-0.0339046
-0.0368072,-0.026497
-0.0292945,-0.00175352
-3.62e-05,0.00243942
0.012852,-0.0288634
-0.000977794,-0.0128944
-0.00567239,0.00602224
0.0206614,-0.0329936
0.0248754,-0.0213241
-0.0125333,0.0832326
-0.0773708,0.103597
-0.0935615,0.0740316
-0.0472696,0.0502216
-0.00599479,-0.0619865
0.00293266,-0.0753035
0.0374168,-0.03967
0.0614876,-0.0148513
0.0639186,0.0062544
0.0336462,0.0202896
0.0123675,0.00812255
0.0212511,0.00527089
0.0314332,0.00519323
0.0279434,-0.0105934
-0.000101174,-0.0200774
-0.0457307,-0.0207069
-0.0889221,-0.0205553
-0.0811419,-0.0107808
-0.0621972,0.0017584
-0.0308714,0.0348286
0.00158026,0.0581896
0.0231679,0.00207684
0.0336173,0.0274555
0.030164,0.135669
0.0185906,0.0342223
0.0230683,-0.107628
0.0329061,-0.0595307
0.0669522,0.00210573
0.0443166,0.042109
0.0144265,-0.0430391
0.00193556,-0.0654249
-0.0223188,0.0315816
-0.0195027,0.075866
0.00757529,-0.0514974
0.011853,-0.0839904
0.012676,-0.044179
0.0141773,-0.00439903
-0.0417044,0.0324777
-0.107507,0.0524729
-0.0636672,0.0494819
0.0383084,0.0215852
0.0608867,0.0172694
0.0352928,0.0829736
0.0203869,-0.00419606
-0.00173134,-0.071999
-0.0216294,-0.035416
-0.0427864,-0.036286
-0.0263599,-0.0161639
-0.0143708,-0.00571835
-0.0199661,-0.000158148
0.0140505,-0.00801057
0.0518207,-0.0416431
0.0049913,-0.0266459
0.00106768,0.0084463
0.00846912,0.0222238
-0.0183624,0.0154189
-0.0201467,0.0139425
-0.00315837,0.0163213
-0.0166554,0.0101814
-0.0594331,-0.00126411
-0.0549152,0.00554386
-0.0214405,0.0169914
-0.00361819,0.00667576
0.0332331,-0.00436939
0.0761034,-0.00129745
0.0922491,0.00358206
0.0705304,0.000890913
0.0376604,-0.00536483
-0.03644,-0.00878374
-0.0633235,-0.00262818
-0.025193,0.0121666
0.00166787,0.0184234
-0.0136094,0.00339459
-0.00545561,-0.0182662
0.0424015,-0.0206749
0.073143,-0.0195616
0.0485058,-0.0131032
0.0337223,0.00350792
0.0227278,0.00196216
-0.0196416,-0.00744603
-0.092062,0.0251851
-0.134355,0.0610558
-0.0958247,0.00746437
-0.0146018,-0.0277188
0.0561211,0.0203244
0.0421111,0.0334862
0.0193562,0.0195317
0.0523254,-0.0109693
0.0431671,-0.0254697
-0.0186047,-0.0519869
-0.0999271,-0.0169428
-0.113051,0.0201793
-0.0465832,-0.0227075
0.00203724,-0.0292693
-0.0168458,-0.0287071
-0.017066,0.00539339
0.0223351,0.0357373
0.0770852,-0.0147718
0.0732474,-0.0223227
0.0335135,-0.0249999
-0.00849109,-0.0362756
0.0240336,-0.00178678
0.0778009,0.00550499
0.0886461,0.0220187
0.059675,0.0404832
0.0397331,0.0456882
0.0455564,0.0397578
0.0410808,0.0218351
0.00766804,0.010565
-0.035875,0.0227385
-0.0521582,0.0287586
-0.0528404,0.0143544
-0.0453172,0.0658993
-0.0435455,0.075606
-0.0224793,-0.0676566
-0.000807481,-0.0990052
-0.0508514,-0.0591493
-0.0575046,-0.0333602
-0.026467,-0.0162608
-0.0418973,-0.00779401
-0.0273103,-0.000340323
0.000852002,0.0225649
-0.0238823,0.0345326
-0.0212007,-0.0497961
-0.00249297,-0.0624079
0.0264512,-0.0317404
0.0822522,-0.0150848
0.103538,0.00208365
0.0288006,0.0130191
-0.0694351,-0.0342237
-0.101289,-0.0127243
-0.0829174,0.0404555
-0.0328426,-0.00608589
0.0187231,-0.014482
0.0583222,0.0105228
0.0838622,0.0372766
0.0883684,0.0749649
0.0800459,0.0338619
0.0627708,0.00984029
0.00699965,0.0127577
-0.0361878,-0.00931312
-0.0437393,-0.0537254
-0.0652704,-0.0498472
-0.0905752,-0.0302959
-0.0683802,0.00456829
-0.0132426,0.0149338
-0.00197364,-0.00734818
-0.00206131,0.0152127
0.0315263,0.0660937
0.0682706,0.068748
0.0764019,-0.00629717
0.054967,-0.0209232
0.000360386,0.00220893
0.000923601,0.0237542
0.0179381,0.0190684
4.42e-05,0.0177052
0.0203186,0.0352875
0.039925,-0.00155981
0.0275977,-0.0365634
-0.016639,-0.0238626
-0.0308264,-0.00427954
-0.00777435,0.00873977
0.000529128,-0.0363582
-0.0159141,-0.065454
-0.0390032,-0.0243717
-0.0452682,-0.00224228
-0.103754,-0.0027077
-0.166574,-0.00646357
-0.135555,-0.0235661
-0.0826614,-0.00714872
-0.021061,0.0165157
0.0240948,0.0320014
0.0267898,0.0148011
0.101345,-0.00786285
0.121793,0.00542548
0.113218,0.0611918
0.110347,0.0243701
0.0806928,0.0220693
0.0632613,0.0302486
0.0557078,0.021157
0.0230817,-0.0410596
-0.0138984,-0.0743221
-0.0165118,-0.0613695
-0.0262643,-0.030947
-0.0209605,0.000577777
0.0173972,-0.00547509
0.00120576,0.0206479
-0.0640608,0.0791299
-0.0947352,0.036165
-0.0605227,-0.00543377
-0.00225265,0.0320517
-0.00471947,0.0289472
-0.0373911,-0.0314732
-0.0590152,-0.0538337
-0.0015875,-0.0610416
0.0690194,-0.0422098
0.0996943,-0.00226925
0.0711736,0.0350742
0.000996971,0.0619315
-0.0536417,0.0323988
-0.0992735,-0.0119623
-0.116486,-0.0129042
-0.0855274,-0.0247414
-0.0208847,-0.0266706
0.0702656,-0.0169085
0.122029,0.000977173
0.113197,0.0349256
0.071881,0.00925124
-0.0209629,-0.00892031
-0.0653832,0.00761056
-0.0589404,0.0114706
-0.0282361,-0.00511444
-0.00554056,-0.0143037
-0.00843828,-0.0168876
0.00619544,-0.0375316
0.0287051,-0.0387456
0.0283839,-0.00965567
0.000703848,0.0109562
-0.0302985,0.0102056
0.0401991,-0.0127369
0.113922,0.0359851
0.111769,0.0335876
0.0766412,-0.015294
0.0230392,0.0166084
0.00504757,0.0540771
0.00522766,0.020992
-0.0560336,-0.0464467
-0.117993,0.0207989
-0.108784,0.0378614
-0.0762071,0.00462703
-0.0309325,-0.01368
0.00177386,0.0118992
0.0159075,-0.010552
-0.0133346,-0.0210884
-0.017261,0.000583061
-0.0293134,0.0436415
-0.0707082,0.10222
-0.0604347,0.0660314
-0.0276526,-0.106078
0.00812202,-0.114303
0.0436369,0.00253347
2.93e-05,0.0646069
-0.0251358,-0.0196397
-0.0495897,-0.0816922
-0.0609408,-0.0368893
-0.0989157,0.0226587
-0.0509358,-0.0508294
0.0730459,-0.0829474
0.114797,-0.000738978
0.158811,0.0217856
0.166225,-0.00822105
0.0853977,0.0034347
0.0306014,0.00578051
0.101141,0.0260951
0.130285,0.0758873
0.0941843,0.0813313
0.0647152,-0.0041232
0.0179949,-0.0481201
-0.0572266,0.0482711
-0.11914,0.0342923
-0.169249,-0.00139001
-0.176292,0.0376083
-0.130638,0.0229826
-0.0555709,-0.0448788
0.00917738,-0.0534397
0.00168408,-0.0319491
-0.0674319,-0.0586704
-0.084176,-0.0765084
-0.0399865,-0.0648068
0.0320029,-0.0254838
0.120903,0.00707195
0.136209,0.00899322
0.131892,-5.97e-05
0.0998546,0.0144824
0.0353024,0.0558163
-0.035583,0.0264964
-0.041984,0.0044181
0.0202697,0.0393185
0.0469681,0.0916513
0.0362662,0.0405133
0.0166894,0.00638569
-0.0168288,0.0536218
-0.0442746,0.0344194
-0.0606406,0.0468646
-0.0393605,0.018737
0.0266725,-0.0393446
0.0494338,-0.0379316
0.0326286,-0.00730376
0.00117143,0.05668
-0.0771446,0.132862
-0.112495,0.0449376
-0.0747846,-0.13102
-0.0740904,-0.0737869
-0.0877657,-0.0912602
-0.0454112,-0.0413755
0.0261911,-0.0168055
0.0920123,-0.01717
0.0678961,-0.00489374
0.011038,-0.000602638
-0.0141709,0.0243311
-0.0261872,0.0166041
-0.0100311,-0.0397729
0.00365029,-0.0616883
-0.0134567,-0.0352077
-0.0359556,0.0280686
-0.00723775,0.0211627
-0.00624648,0.0153651
-0.0421507,0.0253422
-0.0822339,0.0030679
-0.0771525,-0.004852
-0.0106608,0.0119091
0.141619,0.0684107
0.241338,0.0940073
0.182847,0.00300715
0.0801321,-0.0487157
0.0670899,-0.0730474
0.0750794,-0.0728036
0.0412829,-0.0520096
-0.0367549,-0.0321323
-0.102395,-0.054735
-0.0961524,-0.059039
-0.0829454,-0.0116357
-0.100982,-0.00879014
-0.109498,-0.000801471
-0.128561,0.0185542
-0.0986918,0.0208579
-0.0690485,0.023138
-0.0483266,0.0272279
0.0815534,0.0626109
0.15273,0.0743993
0.101238,0.020121
0.116254,0.0285837
0.169616,0.0414104
0.117506,0.000101329
-0.0340435,-0.0501317
-0.102911,-0.0206645
-0.0476969,0.0347419
-0.0183678,0.0468233
-0.0508291,0.00788602
-0.116483,-0.0175616
-0.15028,-0.00394882
-0.0867347,0.0117774
-0.00316514,-0.0322038
0.0712186,-0.0642866
0.114001,-0.0543308
0.119556,0.0156408
0.0932746,0.0127683
0.0788403,-0.0109155
0.0428286,-0.00308717
-0.00717054,-0.0723938
-0.0953633,-0.09695
-0.148095,0.0547887
-0.0846668,0.0851962
0.0292867,0.0239666
0.132975,0.0140751
0.132657,0.0782661
0.107276,0.0884127
0.0801606,-0.00322345
-4.3e-05,-0.0941751
-0.0953199,-0.0420983
-0.123206,-0.00149246
-0.121728,0.0157575
-0.0294655,0.024372
0.0313348,0.0365389
0.00424164,0.0297843
0.000695597,0.0176119
0.053467,-0.0264165
0.0968824,-0.048491
0.0433997,0.0584869
-0.0441888,0.00814831
-0.0391958,-0.0566249
-0.0660851,-0.0226857
-0.184487,0.0131987
-0.241963,0.154977
-0.199164,0.0175978
-0.146789,-0.137915
-0.0340828,-0.113602
0.171421,-0.069128
0.282787,-0.0367996
0.190127,0.00992495
0.0614223,0.0392511
0.0376745,0.0459778
0.112244,0.0426675
0.0529187,0.0383685
-0.0404258,-0.00743962
0.0229825,-0.0398382
0.123653,0.0160078
0.0950168,0.0618545
-0.0158875,0.0371315
-0.0333266,-0.00991225
0.0145566,-0.0521615
0.054723,-0.0538068
-0.00430589,-0.0427679
-0.0848435,-0.0302758
-0.115699,0.0135058
-0.141638,0.0231319
-0.14901,-0.0378873
-0.120866,-0.0107987
-0.088413,0.0297335
-0.0165765,0.0275892
0.0435399,-0.0237498
0.071491,-0.0228758
0.00909574,0.0307627
-0.130109,0.079979
-0.027729,0.0299103
0.105626,-0.0177342
0.208616,-0.00387561
0.239699,0.0745194
0.207852,0.0391416
0.084023,-0.00342085
-0.1032,0.0239779
-0.236748,-0.102245
-0.242906,-0.0621647
-0.125148,0.0275108
-0.0206113,0.08921
0.0617853,0.139376
0.12812,-0.0948962
0.0846204,-0.105641
0.0101088,-0.0145956
-0.0617516,-0.00676532
-0.067862,-0.0188173
0.00437622,-0.0106232
0.0671099,-0.0175883
0.0460447,0.00665317
-0.0891024,0.0241002
-0.149273,0.010977
-0.0959956,-0.0234629
-0.0721306,-0.0259749
-0.0712297,0.00355504
-0.0273927,0.0260092
0.0508547,0.0103955
0.0665296,-0.0193932
0.0379873,0.00384892
0.0615722,0.0755243
0.0753861,-0.0169957
0.0745853,-0.0418196
0.0367253,0.0327308
0.023916,0.0437988
0.060207,0.0242582
0.100356,-0.0353014
0.104896,-0.0643691
0.0411974,-0.0484063
0.058057,-0.0256893
0.114504,-0.0147467
0.112312,-0.00731541
0.0631465,0.00423242
0.00843338,0.000555338
-0.0809963,0.0235708
-0.148385,0.0429166
-0.163866,0.0302823
-0.157576,-0.0229036
-0.185964,-0.0550223
-0.249082,-0.047705
-0.169876,-0.00211984
0.0201199,0.0611888
0.139521,0.0600619
0.15879,0.00808884
0.164896,0.0385454
0.145032,0.0231628
0.128951,-0.043809
0.0280392,-0.0461081
-0.0759244,-0.0261223
-0.0241075,-0.0257606
0.0628374,-0.00365326
0.0578593,0.0262867
-0.100127,0.0353265
-0.248313,0.0304402
-0.228694,0.00602182
-0.0951495,0.00355905
-0.0123654,-0.0102195
0.115888,-0.0271968
0.325873,-0.0405955
0.162527,-0.0356411
-0.0510564,0.0627813
-0.161814,0.13595
-0.165275,-0.00161879
0.0829772,-0.0660025
0.301578,0.0053325
0.273133,0.000773963
0.0607902,0.0246964
-0.0977721,0.065978
-0.101578,-0.077992
-0.0919455,-0.134365
-0.101077,-0.0333298
-0.0594617,-0.01039
-0.0478633,0.00771185
0.00678172,0.00190633
-0.0272975,1.17e-05
-0.189943,0.0456665
-0.225429,0.0233198
-0.0949511,-0.022031
0.0767463,0.0261048
0.162132,0.0437922
0.113978,-0.0210999
0.0463175,-0.00793953
0.0770096,0.0200858
0.066946,-0.00109372
0.0354777,0.0364581
0.0283576,0.132172
0.0118376,0.10949
-0.0558163,-0.0886898
-0.205522,-0.108323
-0.165122,-0.083579
0.0367694,-0.0523701
0.179412,-0.0266046
0.162753,-0.0393698
0.120571,-0.0304486
0.061151,-0.0149564
-0.0102847,-0.0213954
-0.0626492,0.0512132
-0.0454742,0.0949191
0.0199185,0.0182034
0.0371773,-0.0123808
0.0356878,0.00607653
-0.0245737,0.027079
-0.119055,0.0659541
-0.111068,0.0402194
0.019345,-0.0660166
0.0969053,0.0209007
0.094717,0.0321081
-0.0141517,-0.0592423
-0.0535556,-0.00542099
0.0235393,0.0194328
-0.00692779,-0.0471972
-0.0983829,-0.0814454
-0.142016,-0.0373482
-0.0767794,0.0123647
-0.033374,0.0172181
-0.017517,0.0213226
0.0347028,0.00463806
0.0698015,0.0260879
0.0734033,0.0625019
0.0314036,0.0544489
-0.00402529,0.0410533
0.00350461,-0.0288238
-0.0246722,0.00691558
-0.0440879,-0.00925066
-0.023411,-0.105435
-0.0168742,-0.0900891
0.000494201,0.0162096
0.0678883,0.0520278
0.0878883,-0.0158624
0.0409292,0.0339284
0.0233473,0.0374927
0.00466031,-0.0470802
-0.0453279,-0.0309606
0.0207299,0.0277034
0.0868039,0.0456856
0.0873288,0.0251858
0.0153062,0.00840586
-0.0808763,0.0122156
-0.0856723,-0.0638197
-0.0296522,-0.0671127
-0.0896806,0.0429083
-0.191146,0.108063
-0.0897157,-0.0515803
0.0364359,-0.0647789
0.087296,-0.0590033
0.0960606,-0.0307939
0.1243,-0.00122052
0.13992,0.0357358
0.0764797,0.0421501
-0.0245338,0.0397365
-0.0900661,0.0323406
-0.104358,0.0612039
-0.126604,-0.0142715
-0.133381,-0.0442252
-0.0609914,0.00606628
0.0376728,0.0398584
0.0863128,-0.0219273
0.0516009,-0.0636183
0.00525909,-0.0438231
0.0300498,-0.0179083
0.026773,-0.00370939
0.00394382,-0.0179165
0.0166802,0.0212846
-0.0259365,0.0491534
-0.0296846,0.0289897
0.0534543,0.0385015
0.13319,0.0208312
0.164366,-0.0252453
0.0522772,-0.0140559
-0.0656089,0.0115099
-0.0462226,0.0104033
-0.00661787,-0.0393067
-0.0332598,-0.0364145
-0.0466564,-0.00706349
-0.0286713,0.0126292
-0.00826584,0.0326224
0.0101086,0.0425615
0.0231374,0.0361066
0.0656033,-0.0149681
0.0597849,-0.0500147
0.0152486,-0.0310765
0.00418937,0.0174922
-0.0320545,0.089005
-0.119795,0.0669965
-0.202434,-0.0330526
-0.2246,-0.0360816
-0.170706,-0.0225521
-0.13574,-0.0937044
-0.0558224,-0.0878679
0.16818,-0.0481078
0.310806,-0.0226974
0.321671,0.00279287
0.220486,0.0267956
0.0284554,0.0901807
-0.125406,0.205202
-0.188706,0.0559632
-0.136175,-0.132289
-0.0646672,-0.073779
-0.0654653,0.0166585
2.21e-05,0.0167931
0.0326905,-0.0152735
0.000696754,-0.0481138
-0.0330705,-0.0474188
-0.0327508,-0.0211016
0.0100793,-0.0342777
0.0888743,-0.029629
0.11932,0.00871924
0.0934176,0.0439181
0.0719426,0.0553788
0.0223073,0.0419108
0.000573679,0.0380174
0.0149858,0.0167111
0.0274107,-0.020041
0.0331285,0.0101874
0.000477842,0.0551529
-0.0443976,0.0444546
-0.0479462,0.000388849
-0.0384856,-0.0278052
-0.0286179,-0.0478589
-0.00868401,-0.04013
0.0197148,-0.0385779
0.0177698,-0.0394851
0.00468698,-0.0280662
0.0154926,0.0127994
0.0143821,0.0614462
-0.0296232,0.0436743
-0.082753,0.035041
-0.109833,0.0181482
-0.140125,-0.0321721
-0.143698,-0.0424434
-0.078395,-0.0367401
0.0401873,-0.0327068
0.142211,-0.0102165
0.157145,-0.0172867
0.119004,-0.0311209
0.0638814,0.000343736
0.00866013,0.0368888
0.007971,0.0383711
0.0091416,0.0276175
-0.0106052,0.0429333
-0.0114764,0.0449958
0.0071995,0.0350296
-0.0203347,0.00963955
-0.088566,-0.0361551
-0.0645623,-0.0482222
0.0117549,-0.0127814
0.0412826,0.00442632
0.0591165,-0.00976495
0.0527529,-0.00438083
0.0129706,-0.00760381
-0.00918085,-0.0427215
-0.0265992,0.0320656
-0.0423401,0.0919218
-0.0231439,0.0397105
0.0298694,-0.0204432
0.0414591,-0.0258272
0.0590915,0.0150978
0.061723,-0.0245057
-0.00281968,-0.0390277
-0.0522247,-0.03602
-0.054828,-0.0299904
-0.0543382,-0.00526401
-0.0533334,0.00138564
-0.047533,-0.00124526
-0.0117358,0.00268626
0.00691275,-0.0124415
-0.00494221,-0.0309276
0.0171556,0.0294799
0.0110471,0.0488413
-0.0633345,-0.0129002
-0.0811023,-0.00959374
0.00337553,-0.00292586
0.0876554,-0.0133282
0.116396,0.00542435
0.128605,0.0116638
0.0942408,0.0116347
0.0368097,0.00828093
0.0210895,0.00290034
0.00564149,-0.0069644
-0.027497,0.0552809
-0.0762306,0.13873
-0.104815,0.00854957
-0.115291,-0.0696003
-0.0865402,-0.0456654
-0.0352872,-0.0651259
0.00289404,-0.0670518
0.0262605,-0.0325874
0.055606,-4.98e-06
0.0712798,0.0358624
0.0612198,0.0221033
0.0188003,-0.0119854
-0.0451763,-0.00582873
-0.146915,0.0411553
-0.171932,0.0921285
-0.0504957,0.00321209
0.071862,-0.0780153
0.119252,-0.0460568
0.0406519,-0.00444467
0.00283382,-0.0119232
0.0443788,-0.0121226
0.0307111,0.00854242
0.0266386,0.0212103
0.0452229,0.00971898
0.0369626,0.00357068
-0.00629746,-0.00460674
-0.00497025,-0.0188711
0.0356392,-0.0127675
0.0524647,0.0246572
0.016021,0.0233021
-0.00377083,-0.0108834
-0.00837247,-0.013129
-0.0531982,0.00849782
-0.0666822,0.00594743
-0.0517114,0.00298681
-0.00599578,0.0135098
0.0268058,0.0246455
0.0356409,0.0300879
0.0275235,0.0146198
0.0189873,0.00142672
0.00785618,0.0119722
0.00734743,-0.010978
-0.00637253,-0.018746
-0.0483679,0.00654008
-0.0792783,0.0583113
-0.0550304,0.0289261
0.00262722,-0.0526675
0.0163511,-0.0894284
0.00433529,-0.0270293
-0.0278757,0.0845149
-0.0271345,0.078681
0.0170748,-0.0325995
0.0440824,-0.0638008
0.0652908,-0.0502962
0.0113792,-0.0503327
-0.0556139,-0.0434905
-0.0567867,0.00949658
0.022387,0.0293554
0.115784,0.0144793
0.0767186,0.00794742
0.030081,-0.00493815
0.0126906,0.0127372
0.0140481,0.00911762
-0.0186434,0.00393665
-0.0286076,0.00160903
-0.01522,-0.0102976
-0.0482312,-0.00640687
-0.0903475,0.016999
-0.118819,0.0996838
-0.0992764,0.0583315
-0.0742322,-0.0798413
-0.0472077,-0.0505122
0.00741185,-0.0201052
0.0751634,-0.0315823
0.127915,-0.0228325
0.153427,-0.0271321
0.142273,-0.0152538
0.0983561,0.0223749
0.0457472,0.0430568
-0.0152907,0.0304111
-0.0614866,0.0154697
-0.0717721,0.0159617
-0.0779047,0.0192677
-0.0727809,0.0100791
-0.0598243,0.00359739
-0.02752,0.00467876
-0.00448874,-0.00936403
-0.0194151,-0.0279864
-0.0212569,-0.0378335
0.0200528,-0.0268463
0.0376653,-0.00336057
0.0295191,0.0142913
0.0203887,0.0185931
-0.00613472,0.000468652
-0.0131918,0.0390344
-0.0109322,0.040468
-0.015148,0.00144174
-0.0187099,0.00691549
0.023824,-0.0312704
0.0618675,-0.0584584
0.0470223,-0.0540042
0.0276073,0.0372394
0.0451328,0.11374
0.0154286,-0.0148594
-0.0602539,-0.00659024
-0.0424891,0.020942
7.82e-05,-0.0384167
0.0340951,-0.0420642
0.0303545,0.0236946
0.0121303,0.0543875
0.0192281,-0.0171412
0.0162754,-0.000873848
-0.00358236,0.00180682
-0.0313786,-0.022888
-0.0768104,-0.0129138
-0.0512186,-0.0100542
-0.00661564,-0.0335234
-0.0164946,-0.0637658
-0.0382354,-0.05116
-0.0675898,-0.00152942
-0.0219359,-0.00104114
0.033884,-0.015832
0.0199645,-0.00651419
0.0165876,0.00188307
0.0211209,0.0037386
0.0521089,0.0201546
0.101614,0.0518009
0.097796,0.065393
0.0343905,0.0612409
-0.0417119,0.0520251
-0.0697656,0.0583678
-0.0710851,0.0738402
-0.0388232,-0.0325991
-0.00387113,-0.0742224
0.0532462,-0.0454237
0.0833706,-0.0325331
0.0501916,-0.0145033
-0.00328002,-0.0183843
-0.0386005,-0.0306931
-0.0767986,-0.0226722
-0.0818879,0.00024097
-0.0458888,-0.00499175
-0.0322525,-0.00928113
-0.0117452,0.00284231
0.00522232,0.0180245
-0.00223054,0.00539711
0.0226203,-0.0110095
0.0312213,-0.0204213
0.0439493,-0.00996641
0.0425262,0.0161336
0.0399754,0.00220984
0.0524367,-0.0191719
0.0330165,0.00960444
0.0138973,0.0664806
-0.00402441,0.0879253
-0.0309966,0.0836796
-0.0947872,0.0521048
-0.102416,-0.0136892
-0.0119078,-0.0597875
0.0379596,-0.0575758
0.0465432,-0.0334895
0.0539284,-0.0425729
0.0216853,-0.0173465
-0.0221939,0.00262975
-0.0329203,-0.0136034
-0.0434785,-0.0109086
-0.0664637,0.0196144
-0.0584626,-0.0325781
0.00503807,-0.0714118
0.0453995,-0.0331797
0.037393,0.0144163
0.0491091,0.0574176
0.02929,0.0273045
0.0117818,0.00294572
0.0303328,-0.00486314
0.0520786,-0.00657999
0.0372409,0.00977295
-0.000503205,0.0429406
-0.0109522,0.044595
-0.0205049,-0.00456898
-0.0609031,-0.00722998
-0.0918422,-0.0244343
-0.0902659,-0.0426273
-0.0745113,-0.0357482
-0.0213843,-0.00911534
0.0346787,0.0250933
0.0708195,0.0302489
0.0802958,0.0138239
0.0526848,0.0235387
0.00568382,-0.00836781
-0.0499921,-0.0176952
-0.0733246,0.000956366
-0.0180561,0.00413125
0.032913,-0.00107662
0.10796,0.00161628
0.13782,0.00168321
0.108738,-0.00341583
0.0552,-0.00169997
0.0118203,-0.000470983
-0.0203083,0.00703696
-0.0497433,0.0524969
-0.0935786,0.0143071
-0.114871,-0.0187903
-0.00878904,-0.0223561
0.072168,0.0120584
0.0599316,0.134476
-0.0439443,0.073857
-0.134775,-0.0774498
-0.115951,-0.0946
-0.0829619,-0.0578503
-0.081849,-0.0618604
-0.0694456,-0.0552224
-0.0350345,-0.0130957
0.0254951,0.0225958
0.043443,0.0195103
0.0503504,0.00376702
0.0810257,-0.0177117
0.0909684,-0.0166933
0.0844207,0.0191255
0.0911282,0.0366622
0.0723618,0.0193868
0.0243194,0.000727216
0.00329646,0.00109383
0.00234024,0.00391441
-0.00652598,0.0214583
-0.0144932,0.0210177
-0.0432834,0.00043116
-0.0558815,-0.00914982
-0.0175225,0.00279779
-0.00243771,0.010866
-0.0313993,-0.000154919
-0.069895,-0.010922
-0.0582168,-0.0193659
-0.025077,-0.0255823
0.0187111,-0.0390327
0.0432256,-0.0111512
0.0562082,0.0223893
0.0874153,0.0194634
0.055469,0.00786554
0.00367306,-0.00337934
-0.018501,0.0164819
-0.0387287,0.0741505
-0.0572011,0.0584268
-0.0149288,0.00539893
0.00154639,-0.0415884
-0.00869252,-0.068952
0.0135152,-0.0188868
0.0272971,0.0507649
-0.00711794,0.0168137
-0.0601141,-0.01022
-0.0584772,-0.0314127
-0.0352186,-0.0571798
-0.0012511,-0.0330863
0.0717285,0.0174179
0.111249,0.0292974
0.0815101,-0.000757809
0.0303122,-0.00864661
-0.00178701,0.0146052
-0.0300043,0.0281417
-0.031541,0.00185557
-0.0101555,-0.0254184
0.00994346,0.00752427
0.0351658,0.00998239
0.054751,0.00299169
0.00705294,0.0184472
-0.102146,-0.00423633
-0.193853,-0.0106564
-0.158714,-0.00220114
-0.0173691,0.0175327
0.0450557,0.0198444
0.056097,-0.02061
0.0745415,-0.0397181
0.0611804,0.0468646
0.0221627,0.0477709
-0.0233199,-0.0551258
-0.0337358,-0.0429965
0.0269809,-0.0131645
0.0831515,0.0435973
0.0905847,0.0240774
0.0694536,-0.0206652
0.0395015,-0.0120715
0.00787788,0.0127008
-0.00809209,0.00719149
-0.0417554,-0.0302658
-0.0936673,-0.0330878
-0.0976953,-0.0176932
-0.0426551,0.0346872
0.000337488,0.02774
0.00952792,-0.0161519
0.00676866,-0.0305022
0.016669,-0.0304105
0.00823477,-0.0171881
-0.00101361,0.0168569
-0.0134755,0.0301365
-0.00600964,0.036867
0.0191654,0.0354411
0.0208732,0.0315155
0.0165312,0.0136016
0.0269049,0.00267888
0.027959,-0.0066214
0.016214,-0.0244877
-0.017588,-0.0475629
-0.0686855,-0.0370182
-0.0975997,-0.00989403
-0.075718,0.0148305
-0.0412922,0.00762436
-0.00343889,-0.034411
0.0370785,-0.0425662
0.0489662,-0.0413444
0.0187131,0.0218708
-0.00639812,0.0558392
-0.0375402,0.041259
-0.0398168,0.0361053
-0.00568057,0.0612792
0.0227124,0.0398875
0.0588048,-0.0410619
0.080213,-0.0635269
0.0513836,-0.0433173
0.0384627,0.000113348
0.0490817,0.0129841
0.0450362,0.0142621
0.0202806,0.019054
0.0139983,0.0195115
0.00361132,0.0147145
-0.0242424,0.00432133
-0.0594702,-0.00610862
-0.0790299,-0.015348
-0.0684025,0.0126717
-0.0214552,0.0873449
0.0213403,0.0592751
0.0280616,-0.0164617
0.00706812,-0.063511
0.00338696,-0.0578186
-0.00407075,-0.0640716
0.00707761,-0.04557
0.0391969,-0.0140717
0.0475085,0.0120159
0.0411541,0.0245643
0.0290901,0.0155864
-0.00674854,-0.00178716
-0.0532043,-0.00941586
-0.0999418,0.0117147
-0.130705,0.101695
-0.101516,0.0300341
-0.020239,-0.104305
0.0610813,-0.0500282
0.111849,-0.00675816
0.101536,-0.0193257
0.0732881,-0.0216202
0.0482585,-0.0248861
-0.00815322,-0.0229988
-0.0736115,0.0241052
-0.104844,0.0467639
-0.114892,0.0523219
-0.0820638,0.0531851
-0.00339728,0.0139334
0.0504965,-0.0223256
0.0648823,-0.0035613
0.0854847,-0.00302692
0.132497,-0.00296302
0.0854319,0.00195204
0.023251,0.0100923
-0.0031247,0.00181649
-0.0399819,-0.035402
-0.0487581,-0.0499505
-0.0175066,-0.0470868
-0.0371302,0.0284063
-0.056591,0.0693211
-0.0356682,0.00684056
0.0154774,-0.0269251
0.0425747,-0.00628366
0.0373776,0.025999
0.019011,0.00571341
-0.0315599,-0.0138357
-0.0540229,0.0454872
-0.0268493,0.0439763
-0.0581605,-0.0263855
-0.0794918,-0.0278572
0.0110233,0.00585817
0.101129,0.0279686
0.115984,0.0150414
0.0417941,0.018775
-0.0482321,-0.0111309
-0.0406502,0.00645813
-0.0104783,-0.0137883
-0.0103254,-0.051768
0.00246335,-0.0360602
0.0158658,-0.0134289
0.0133196,-0.00286647
0.00278256,0.00264226
-0.00662809,0.0264765
0.00458696,0.00171359
0.00668472,-0.0293994
-0.0145862,-0.0124335
-0.00890546,-0.00567526
-0.011291,0.00441168
-0.0186272,0.0143761
0.00814622,0.0107274
0.0525957,-0.00165373
0.0609476,-0.00800204
0.0246877,-0.000381372
-0.000823438,0.00963403
-0.0215293,0.0262178
-0.0364423,-0.00998035
-0.0599921,-0.00699935
-0.0541691,0.007949
-0.0439198,-0.0159854
-0.0637689,-0.00961304
-0.0470168,0.0661264
0.0487425,0.0444554
0.0873656,-0.05068
0.0583359,-0.0198403
0.0308844,0.00354018
-0.00175235,0.000102555
-0.025272,-6.28e-05
-0.0183435,0.00973074
-0.00169483,0.000904452
0.0142239,-0.0100255
0.0346032,-0.0114296
0.0456782,0.00220371
0.0192674,0.00680433
0.00719436,-0.00233584
-0.00570293,-0.0194791
-0.0221891,-0.035842
-0.0371583,-0.0340146
-0.0428322,0.00238063
-0.0088083,0.0132709
0.0325918,-0.00362775
0.0541941,0.0200837
0.0427783,0.0369168
0.0259728,0.0157383
0.00120033,0.000771119
-0.0324086,0.000232175
-0.0561494,-0.00213838
-0.0552047,-0.00872423
-0.0398117,-0.00344259
-0.0327164,0.00200463
-0.0127478,-0.00857728
0.0274826,-0.000411158
0.0144269,0.0185767
-0.00891456,0.0102134
-0.0126705,-0.0136511
-0.0311973,-0.0107187
-0.0631562,-0.0140806
-0.0341414,-0.0135161
0.0684882,0.00150852
0.115265,0.0390807
0.0964472,0.0547687
0.0206611,0.0169183
-0.044011,-0.00400422
-0.0271669,-0.0170261
0.0237874,-0.00599669
0.0491685,0.00981535
0.0563047,0.00339359
0.0388178,-0.0133278
-0.0225985,-0.0104324
-0.0738991,-0.0050463
-0.0870483,-0.0157674
-0.0657037,-0.0212547
-0.0560461,-0.0141412
-0.0769913,-0.0224217
-0.0367484,-0.0209379
0.0336299,3.95e-05
0.0418587,0.0175278
0.0234604,0.0153853
0.0307524,0.0121806
0.0559019,0.0153653
0.0735988,0.0176369
0.0739558,-0.00880681
0.0489119,-0.00304862
-0.0301293,0.010252
-0.116166,0.0117717
-0.0989805,0.0100474
-0.0225207,0.00112376
0.0727085,-0.0169975
0.0941313,-0.0263215
0.0510567,-0.0216361
0.00482092,-0.0190596
-0.0146335,-0.00119538
0.00664616,0.0102369
0.00922196,0.00736196
0.00621127,0.00441125
0.0262122,-0.000494536
0.0110808,-0.00795792
-0.035711,-0.0145484
-0.0770684,-0.016367
-0.0730178,-0.014882
-0.032542,-0.00346154
0.0294485,0.00228732
0.0347523,0.00931086
0.000930824,0.000941247
0.0285833,-0.0106449
0.0249063,0.031129
-0.0288991,0.0791088
-0.045877,0.0570294
0.0251665,-0.00772221
0.0503608,-0.0275586
0.00384421,-0.0187251
-0.00542953,-0.0466298
-0.00913893,-0.0274273
-0.026345,0.00768419
-0.0176785,0.0225333
-0.00244337,0.0308952
0.0167536,0.00961231
0.0226683,-0.00540564
0.0100624,0.0201231
-0.034736,0.033018
-0.0751463,0.00321035
-0.0880038,-0.0337653
-0.0852243,-0.00857994
-0.0542012,0.017567
0.0249712,0.0102146
0.0757874,0.00635834
0.0636713,-0.0189503
0.0619242,0.0231078
0.0470592,0.0659923
0.0386062,-0.0279757
0.0270672,-0.0747432
-0.00834636,-0.0459159
-0.0254024,-0.0116469
-0.00214838,-0.0109878
0.032414,-0.027417
0.0496139,-0.0144083
0.0143299,0.00437144
-0.0529851,0.00846628
-0.0860931,-9.26e-05
-0.0235476,-0.00439998
0.0391002,0.00117113
0.0745719,0.00594809
0.0572948,0.00541661
-0.00661966,0.0080086
-0.0347141,0.00273929
-0.0164528,0.000874488
-0.0127459,0.00704868
-0.0278036,0.00389694
-0.0369477,0.00532437
-0.0214858,0.0202364
0.00862081,0.0289387
0.0172815,0.00630552
0.0144321,3.44e-05
0.011989,0.0164557
0.0181634,0.0174845
0.0178378,-0.0082957
-0.000962073,-0.0415003
-0.0307311,-0.0221085
-0.0348503,0.00913089
-0.0112771,-0.0147575
0.0389196,-0.046787
0.0458952,-0.0255326
-0.0177506,0.0274584
-0.104346,0.0558373
-0.0984167,0.000485139
-0.0282391,-0.0382028
0.0684526,-0.0292334
0.0838249,-0.00678082
0.0223686,0.0303648
-0.0376219,0.0273744
-0.0203788,0.0275375
0.023866,0.0314968
0.0291251,0.0174046
0.0122334,0.0111999
0.00209972,-0.00219346
0.0240575,-0.0095119
0.0233396,0.00693862
0.00569172,0.0134683
0.022012,-0.0094968
0.0257032,-0.032124
0.00297325,-0.0223722
-0.0216031,-0.00856952
-0.0175613,0.00250401
-0.00868883,0.00192703
-0.0153851,-0.0179818
-0.0157447,-0.0173228
-0.0103682,0.00160465
-0.0150634,-0.00836096
-0.0130023,-0.0083365
0.00366242,0.00412383
0.010412,-0.00954931
0.000895608,0.00829645
-0.0103578,0.02947
-0.000544136,0.0234054
-0.00201434,0.00449435
0.000863625,-0.00752378
0.0344755,-0.013753
0.0292905,-0.0111454
0.00295104,0.00189957
0.0208406,-0.0135941
0.0275917,-0.0169313
0.0155886,0.00305979
0.00814241,0.0208545
0.0125736,0.00592602
0.00385922,-0.012847
-0.0417741,-0.013523
-0.071295,-0.00270959
-0.0617254,0.00361469
-0.038866,-0.0168268
-0.0199703,-0.00506895
-0.00466051,0.0190459
0.0380665,0.0378589
0.0325727,0.0420197
-0.0113177,0.00778041
-0.0358,-0.0276879
-0.0474776,-0.0067306
-0.0312144,-0.013974
0.0326125,-0.0292586
0.0735976,0.0219322
0.0375631,0.0205063
0.0160117,-0.010331
0.0147112,-0.0186878
-0.0207245,0.0609939
-0.0266504,0.0734342
0.00859366,-0.0417584
0.049573,-0.0427005
0.0452257,-0.0109847
0.0170624,-0.015843
-0.0295367,0.00475082
-0.0969096,0.0306997
-0.0490436,0.00735052
0.0665931,-0.0230569
0.100531,-0.00856195
0.040799,0.00757917
-0.0224087,-0.00152091
-0.0206134,-0.0132725
-0.034997,-0.0146235
-0.0457968,-0.0224851
-0.0394908,-0.0288176
-0.0226573,-0.0216202
0.00748626,-0.0101672
0.0240184,0.00851014
-0.000251192,0.027591
-0.0397676,0.0341504
0.0244279,0.0131166
0.0935987,-0.00453722
0.0678039,-0.00316736
-0.00965808,-0.0021253
-0.0468262,-0.0134936
-0.011729,-0.032194
0.0200907,-0.0189349
0.00571333,0.0138957
-0.0179686,0.0247296
-0.0282775,0.0289238
-0.0211249,0.0257344
0.0163062,-0.0136489
0.0459187,-0.0367872
0.0339472,-0.0189908
-0.00139311,0.0097711
-0.0153249,0.0212835
-0.0451913,0.0152338
-0.0745193,0.0417869
-0.0393899,0.000155282
-0.0275585,-0.0530354
-0.0745738,-0.0346061
-0.0592754,-0.00491377
0.0330765,0.0157744
0.0399004,0.0604215
0.0191487,0.0453483
0.0574487,-0.0311643
0.0637478,-0.0221959
0.00822957,0.0058875
-0.00300611,0.00620616
0.0316363,-0.00119658
0.0528727,-0.0106259
0.0405488,0.00442517
-0.0183325,0.0208346
-0.102817,0.00543782
-0.138755,0.00712154
-0.101354,0.00816141
0.0141113,-0.0191101
0.10417,-0.0142516
0.117915,0.0248507
0.0870847,0.0149752
0.0759957,-0.0397313
0.0563282,-0.0489494
0.00644526,-0.0244662
-0.0212754,-0.0112731
-0.0266932,-0.00641279
-0.0395571,0.0104181
-0.0301808,0.0328165
-0.0134599,0.0399601
-0.0209814,0.0106498
-0.0410802,-0.0193528
-0.0273263,-0.0178017
0.00257509,-0.0121808
-0.00728657,0.00413398
-0.0181976,0.0241119
0.0146811,0.0122333
0.0540931,0.00354673
0.0558748,0.0153568
0.0367209,0.00160256
0.0112663,-0.0184701
-0.0187827,-0.0139019
-0.0487281,0.0393102
-0.0674498,0.0342745
-0.0520567,-0.0612613
-0.0138257,-0.0844767
0.0483187,-0.0375985
0.0536934,0.0337232
-0.0106588,0.102967
-0.0595649,0.0459535
-0.0732447,-0.0238051
-0.0532805,0.000143522
-0.0326428,-0.0247106
-0.013283,-0.0256327
0.047822,-0.0151675
0.0858869,-0.0132891
0.0474741,-0.00231789
-0.000604134,0.00350827
-0.0119285,0.00481251
-0.0116282,-0.013828
0.00580367,-0.0633805
0.00464541,-0.0379433
-0.0146544,0.0181744
-0.00135223,0.0332894
0.0664934,0.0266585
0.106979,0.0210548
0.126695,0.0234638
0.0538154,0.0248522
-0.0788585,0.0143376
-0.135373,0.00323658
-0.12802,0.00344015
-0.107552,0.00197626
-0.0435167,0.012833
0.0401626,0.0150027
0.0748093,-0.00354242
0.0506117,-0.0106743
0.0183615,-0.0267454
0.00524545,-0.00710408
-0.00111389,0.0257716
0.0036684,-0.015669
0.0666962,-0.0209282
0.0800872,-0.0171132
0.0448632,-0.0219559
-0.0179272,-0.0165859
-0.0483476,-0.00229438
-0.0317276,0.00721099
-0.00545174,0.00637737
0.00702276,0.0153081
0.0142767,0.0150292
-0.00881088,0.00851232
-0.0231551,0.00905669
-0.028533,0.000314047
-0.0648229,0.00222494
-0.101931,-0.00520001
-0.147592,-0.033655
-0.0839474,-0.0226627
0.0285979,-0.0021863
0.0703386,-0.00661824
0.0363326,-0.0125523
0.00865494,0.00154097
-0.00603914,0.0203338
0.0349299,0.0186542
0.107492,0.0274414
0.111837,0.0293415
0.0571397,0.00947095
0.0125303,-0.0012002
0.0170527,0.0031926
0.0301241,0.00340451
0.0136401,-0.00864679
-0.0153281,-0.0132639
-0.0241988,-0.00879926
-0.025318,-0.00403776
0.0026597,0.00588423
-0.0210659,0.0262794
-0.0805488,0.00540357
-0.0864724,-0.0152071
-0.0341666,-0.0131158
0.026503,-0.0235405
0.0547215,-0.00966854
0.144994,-0.00741752
0.166813,-0.0133578
0.0229365,-0.0157439
-0.0792932,-0.00296626
-0.0834585,0.00514258
-0.0571487,0.00939761
-0.0354361,0.0291181
-0.0295886,0.0438189
0.0108712,-0.000438894
0.0819576,-0.0315803
0.0828435,-0.0192026
-0.0668052,-0.013887
-0.177131,-0.0136342
-0.118847,-0.00189681
-0.0521093,0.0169165
0.0258043,0.0246148
0.0163158,0.0241994
-0.0183518,0.0168447
0.0186407,0.00412581
0.0540233,0.00744592
0.0180611,0.0126559
0.00595616,0.00196551
0.0417248,-0.0156215
0.042533,-0.0299943
0.0372368,-0.0257851
0.0173038,-0.015064
-0.0488504,-0.00572901
-0.0823253,0.00361946
-0.0127009,0.000184373
0.0518596,-0.00308302
0.0328662,0.00698798
0.00749108,0.00285643
-0.00775494,0.00719409
-0.0228153,0.0129056
-0.00474006,0.00850576
0.0375844,0.0046533
0.0438452,0.00966402
0.0446053,0.00411494
0.0221,-0.00722735
0.0108728,-0.00860466
0.0223409,-0.0172955
0.0280522,-0.0088863
0.00288412,0.0362558
-0.0506442,0.027995
-0.11895,-0.0180389
-0.153721,-0.0237532
-0.124873,-0.0166684
-0.0362994,-0.0190703
0.0477953,-0.00833545
0.0596412,-0.00273615
0.00626278,0.0123149
0.113071,0.0670011
0.269533,0.0541841
0.242373,0.00789033
0.0688692,-0.00731634
-0.130609,-0.0230544
-0.216867,-0.0359817
-0.213356,-0.0171313
-0.129253,-0.0197278
-0.00842199,-0.0252237
0.0901399,-0.0454465
0.123034,-0.0247683
0.132601,0.0177224
0.133995,0.0508834
0.0790981,0.0398243
-0.0203726,0.00398607
-0.0728618,-0.0040731
-0.108292,-0.00278558
-0.129177,-0.000585336
-0.104293,0.0174092
-0.0519362,0.0304429
-0.0300164,-0.00278522
-0.010741,-0.0204326
-0.0184022,-0.0269856
-0.0390341,-0.0242735
-0.0313812,-0.00289471
-0.0166628,0.00418116
0.0408853,0.00211506
0.104815,-0.0140275
0.0686065,-0.0340849
0.0261027,-0.033908
0.00149394,-0.00873271
0.00416916,0.0165287
-0.00212815,0.0208909
-0.0219031,0.00712149
-0.00580975,0.00768905
0.0438774,0.0229599
0.0685425,0.00407554
0.0358946,0.00736921
0.0200437,0.0186582
0.0402571,-0.0137524
0.0303628,-0.00645811
0.0021281,0.0333024
0.00642957,0.0577326
0.0167695,0.0343676
-0.00405722,-0.0214594
-0.0189079,-0.0447307
-0.0287996,-0.0317456
-0.057016,-0.0106935
-0.0842822,0.00311072
-0.0788283,0.0297732
-0.0401273,0.0435549
-0.0182184,-0.0120801
-0.00358642,-0.0199672
-0.00314819,0.0238141
-0.0016541,-0.00186634
0.0109298,-0.0421886
0.017607,-0.0410157
0.0475204,-0.0209274
0.0831882,-0.00138129
0.119257,0.017259
0.153328,0.0216517
0.0946248,0.00148052
0.0198279,-0.0129759
-0.0626624,-0.00591641
-0.137361,-0.00726433
-0.145024,-0.0168649
-0.0769253,-0.00840007
-0.00103227,0.0160526
0.0339427,0.0358096
0.0119322,0.0337763
-0.0326803,0.0104362
-0.022849,-0.013665
-0.0430418,-0.0397376
-0.046905,-0.036865
-0.00664311,-0.00281184
0.00900842,0.000945902
0.0458034,0.0107953
0.0800343,0.0240892
0.0214261,0.0122744
-0.0616238,0.00121216
-0.0297433,0.00357293
0.016113,0.0119429
0.0189033,0.00375265
0.00360061,-0.00285454
-0.0277522,0.00579864
-0.0197321,0.00478087
-0.00164811,-0.00736503
-0.0233494,-0.0101706
-0.0795342,-0.001282
-0.0462607,-0.00878464
0.0464544,-0.0192481
0.0640295,-0.0173144
0.022857,0.00828204
-0.00406926,0.0322319
-0.0313089,0.00894896
-0.0499234,-0.00773161
-0.0589484,0.0212041
-0.0456313,0.0185092
-0.00584843,0.0153361
0.0850789,0.0499223
0.156185,-0.0123508
0.132659,-0.0742738
0.102862,-0.053361
0.0922324,-0.0154661
0.052435,-0.00365156
-0.0135995,-0.00186594
-0.05268,0.015091
-0.0532504,0.0164158
-0.0258775,0.0209391
0.00804332,0.0270403
0.00608223,0.0141252
-0.017084,-0.00604192
-0.0349419,-0.0146401
-0.0376187,-0.0296229
-0.0217588,-0.00123977
-0.0137154,-0.00149317
-0.0233168,-0.00871001
0.00566564,0.0114001
0.00419144,-0.003868
-0.0234315,-0.00144141
-0.0178043,0.00848841
-0.045545,0.0118333
-0.10989,0.000395661
-0.0651815,0.000677016
0.0423384,0.0103661
0.083577,0.0175928
0.0626314,0.00598063
0.0364255,-0.0179771
-0.0126078,-0.0303704
-0.0661313,-0.0155053
-0.0306529,-0.0164678
0.013562,-0.00278681
0.0107353,-0.000113745
0.00486744,-0.00459814
0.0114206,-0.00750582
0.0109133,0.00410539
-0.0263737,0.0323547
-0.0780239,-0.00807941
-0.0933405,-0.0163609
-0.0876009,0.000328919
-0.0361544,-0.0098596
0.0792232,-0.00468316
0.18835,0.0465884
0.211775,0.062721
0.113513,0.0617961
-0.0159163,0.0236142
-0.0342351,-0.0441759
-0.0246224,-0.0432997
-0.0507039,-0.0230099
-0.05852,0.0234691
-0.0669229,0.0365012
-0.048763,0.00117548
0.00925053,-0.0417307
0.0148866,-0.0302047
-0.0114348,-0.0129012
0.0367305,-0.0184046
0.0602971,-0.00381515
0.0377294,0.00484093
0.00690324,0.00162706
0.00626362,-0.00698849
-0.00590825,-0.0051041
-0.0560519,0.00825477
-0.0565786,0.0034318
-0.0517305,-0.0135509
-0.087717,-0.0130669
-0.0750336,-0.00604982
-0.0270753,-0.00554865
0.0108778,0.00332727
0.0578381,0.0330917
0.102807,0.0248375
0.0849458,0.0200705
0.0663111,0.00420703
0.0605438,-0.0155632
0.0377598,0.0129971
-0.0148452,0.00328478
-0.0652535,-0.0379707
-0.0641216,-0.0286747
-0.0276896,-0.00991237
0.0135868,0.011719
0.0611319,0.0151179
0.0711494,-0.00242923
0.00937694,-0.00232097
-0.076189,0.000688727
-0.0677537,0.000339883
-0.0357939,-0.00121691
0.0160655,0.000820552
0.0441676,-0.000722774
0.00607522,-0.0104164
0.00984943,-0.0136801
0.0305254,0.00744581
0.0177043,0.0297169
-0.0337441,0.013622
-0.0921356,0.0045447
-0.0695501,0.0172201
0.0139546,-0.0114739
0.0240932,-0.0254967
-0.00709157,-0.00586048
-0.00329792,0.0304244
0.0536336,0.0413832
0.087886,0.0334331
0.110701,0.0483763
0.0844092,0.0123656
-0.012795,-0.0583011
-0.0646902,-0.0480433
-0.0427428,-0.0236617
-0.029713,-0.0334983
-0.0342464,-0.0260663
-0.0720403,-0.00696729
-0.0873111,-0.00143365
-0.0453788,-0.00462652
0.000757828,-0.0110411
0.00382309,-0.00991722
-0.00861512,0.0197484
-0.0161596,0.0317576
-0.0404126,-0.00766856
-0.0621793,-0.0455297
-0.0372629,-0.0350083
0.0179639,-0.00625125
0.0836465,0.0175833
0.118746,0.013535
0.0958727,0.00358455
0.0640271,0.008767
0.0364839,0.00938556
0.0029364,0.0154345
-0.045753,0.0177433
-0.0627764,0.0210685
0.0160306,0.0323477
0.070886,0.047421
0.0124315,0.0304033
-0.0736241,-0.0148562
-0.0999581,-0.0124717
-0.0920547,-0.0194187
-0.0638671,-0.0297738
0.0247399,0.00382111
0.110856,0.025897
0.14046,0.00589876
0.101699,0.0097759
0.0625209,-0.00507115
-0.0455108,-0.0142756
-0.12968,-0.0151071
-0.113028,-0.0110347
-0.0482495,-0.0110717
0.0334849,-0.00404418
0.0670079,-0.00612541
0.0559681,-0.0222076
0.0273975,-0.0373885
-0.0556005,-0.00507288
-0.150729,0.0208081
-0.12516,0.0136181
-0.0415461,0.0126361
0.0245251,-0.000813177
0.0880448,-0.0101616
0.106053,0.00253454
0.0520553,0.037174
0.00357968,0.0446194
0.0302786,0.0113507
0.0642738,-0.0340078
0.0590953,-0.0148595
0.0404151,0.00282699
0.0200873,-0.00526424
0.00798919,0.00207832
0.00204325,0.0110784
-0.0329697,-0.0110915
-0.0897732,-0.0459312
-0.0283391,-0.0582364
0.0667516,0.00140542
0.0594734,0.0775937
0.00863941,0.0328328
-0.0255302,-0.0453205
-0.0331687,-0.0375883
-0.0591069,-0.00416995
-0.0865431,0.000205701
-0.0695368,0.011296
-0.0205367,0.0336664
0.0390063,0.0465114
0.0651876,0.00608007
0.0531745,0.00499883
-0.0014604,0.0440991
-0.0452347,0.0137543
-0.0591025,-0.0358991
-0.0845537,-0.02717
-0.100802,-0.0182744
-0.0582533,-0.0206905
0.0429635,-0.0118298
0.0910041,-0.00754259
0.035723,0.00305089
0.00450331,-0.00962505
0.0418993,-0.0330636
0.0352077,0.010077
0.00992035,0.0174292
0.040883,-0.0113962
0.0683341,0.00330433
0.0445017,0.00922614
0.028874,-4.42e-05
0.0315104,-0.0131788
-0.0026378,-0.00370664
-0.0468971,0.0259671
-0.0736829,0.0292425
-0.0758016,-0.00657309
-0.0342089,-0.00379066
0.041282,-0.00732902
0.0283526,-0.00591461
-0.00940299,-0.00416153
0.0179319,0.00333527
0.0244474,0.00962699
0.0108721,0.0213336
-0.0359777,0.00595569
-0.085937,-0.0178737
-0.0535255,-0.0154044
0.00109996,0.0029283
0.0357634,0.0215313
0.0291465,0.0306707
0.00302967,0.0198389
0.0172523,-0.0300845
0.0188872,-0.0509883
-0.00863098,-0.0243676
-0.0092499,-0.00182839
0.0109295,0.0085895
-0.0149094,0.0399104
-0.0100896,0.0386828
0.0107334,-0.0161458
0.0122749,-0.0144964
0.00550733,-0.0262
-0.00773642,-0.0281551
0.0155784,-0.0051135
0.0305724,0.0225422
0.0521394,0.0165939
0.0418206,0.0136639
0.0152728,0.0195065
0.00978952,0.0124284
0.0429395,-0.0155059
0.0443485,-0.0260018
-0.0524075,-0.01982
-0.104246,0.00347832
-0.0598012,0.0254768
-0.0261463,0.022168
0.00508248,0.0170869
0.00830617,0.0106006
0.01192,-0.00571624
-0.00707348,-0.0177722
-0.0434616,-0.00783139
-0.0729925,0.00350742
-0.0437036,0.00491624
-0.00549589,-0.0107058
-0.0306275,-0.0234551
-0.0155806,-0.029235
0.0386173,-0.0162152
0.0885628,-0.00712199
0.0893282,-0.0198888
-0.000321976,-0.019713
-0.100642,0.00261757
-0.0932284,0.0381876
-0.0124277,0.0324642
0.0110157,0.0100594
0.0247581,0.0214611
0.0525344,0.0184008
0.0585019,-0.019649
0.0519261,-0.0279294
0.0470843,-0.00208637
0.0623998,0.011369
0.10715,0.0142999
0.11435,0.00889326
0.0808662,-0.00899834
0.0331049,0.00525998
-0.0249486,0.0282771
-0.0837331,-0.00806807
-0.129886,-0.0307336
-0.156716,-0.00255628
-0.134021,0.0228978
-0.084692,0.032341
-0.0331814,0.00633253
0.00168378,0.00170761
0.00308863,-0.00733315
0.0175614,-0.021205
0.050016,-0.015749
0.0931575,-0.00462354
0.127106,0.00717911
0.102828,0.00696548
0.0509411,0.0199305
-0.0181059,0.00082463
-0.0604575,-0.0464873
-0.128003,-0.0405756
-0.185987,-0.026173
-0.179678,-0.00861187
-0.0719057,0.00640381
0.0698387,0.00770668
0.141017,-0.00275002
0.0607892,-0.0181461
-0.0692929,-0.0172204
-0.0833715,-0.00122456
-0.0349021,0.0228709
0.0127788,0.0354489
0.0804905,0.0310026
0.125492,0.0265114
0.144427,0.0206386
0.153158,-0.000377228
0.0968457,0.0162923
-0.0335039,0.0111575
-0.126254,-0.030356
-0.139531,0.000761555
-0.102285,0.00706006
-0.028296,-0.0180472
0.0769226,-0.0155512
0.108588,-0.00651509
0.0566939,-0.0153187
0.0230286,-0.0103027
0.00142912,0.00290453
-0.0239739,0.00483576
-0.0154159,-0.00403469
0.0114331,0.0149969
0.0409444,0.0419006
0.0668632,0.0306293
0.066248,-0.0120818
0.0482658,-0.0238096
-0.0175218,-0.0166735
-0.0891327,-0.017141
-0.100491,-0.00355766
-0.0464301,0.00651545
-0.0203037,0.0140793
-0.0588471,0.0198553
-0.0959495,0.0107958
-0.0600224,-0.0379286
-0.030315,-0.0691212
-0.0312391,-0.00912019
-0.0230061,0.0577714
0.0291915,0.0440671
0.0699963,-0.0086526
0.0510548,-0.0189358
0.0396165,0.0160845
0.023339,0.0248476
-0.0227538,-0.00895437
-0.0356266,-0.0127598
-0.0160559,-0.0159199
0.0309214,-0.00826437
0.0902237,-0.00218589
0.0891462,-0.0186448
0.0252631,-0.022334
-0.0127713,-0.00536952
-0.0167054,0.00904559
-0.0245275,0.00553777
-0.041067,0.00544949
-0.0806423,0.00310512
-0.0657115,-0.0167647
-0.0258099,-0.0118198
-0.0320459,0.0138182
-0.0419021,0.0253998
-0.0102428,0.00453247
0.0196487,-0.0225237
0.0286004,-0.0193327
0.0363473,0.0123656
0.0515893,0.0495654
0.0908063,0.0297861
0.107328,0.00148879
0.0779199,0.0135283
0.0571643,0.00560588
0.0462773,-0.00245426
-0.00871494,0.00714107
-0.063619,-0.0135732
-0.0753431,-0.0175417
-0.063448,0.00697937
-0.0387927,0.00958622
-0.00754609,-0.0206116
0.00165244,-0.0315833
-0.0334464,-0.0147523
-0.0565076,0.00461185
-0.0842992,0.00137102
-0.0911643,0.00632158
-0.00493492,0.025949
0.085268,-0.0233751
0.0425382,-0.0165076
-0.049165,0.0351617
-0.0113133,0.0286861
0.0298039,-0.0169731
0.0694848,-0.030346
0.0819903,-0.000853407
0.0679943,0.0107177
0.080664,-0.00596845
0.0556962,-0.00993925
0.00416186,-0.0202217
-0.0337885,-0.0154504
-0.0617738,0.0124569
-0.0634181,0.021262
-0.0596349,0.0258492
-0.0478706,0.0126555
-0.0209927,0.00120987
0.0226289,0.00913866
0.0251063,0.0180132
-0.0267772,-0.000540953
-0.0345434,-0.0353144
-0.0221608,-0.0455067
-0.00666107,-0.021524
0.0149572,-0.0129815
0.0373233,-0.00127628
0.0577987,0.0112304
0.0593809,0.0130613
0.0478047,-0.00844598
0.0150929,-0.0115626
-0.0244899,-0.0034879
-0.0396034,-0.00996067
-0.0342384,-0.0115221
-0.0192611,0.00590741
-0.00846413,0.0417697
0.00856409,0.0464699
0.0505154,0.0124188
0.0734058,-0.00494174
0.0276047,0.000806848
-0.0469558,0.00378812
-0.102601,0.00660564
-0.143106,0.0193507
-0.10775,0.0201814
0.0057518,0.0210101
0.0685638,0.0237445
0.0697374,-0.000238882
0.0563337,-0.0300741
-0.00846272,-0.0309307
-0.0419681,-0.0315312
-0.000986169,-0.0430797
0.0477498,-0.0156072
0.0054137,0.0215989
0.0037187,0.000863375
0.0597934,-0.0165166
0.0501536,-0.0182556
-0.0146516,-0.0129881
-0.0376516,0.00363954
-0.0353285,0.0194555
-0.0194103,0.0171211
-0.00907073,-0.00815148
0.005345,-0.0204381
0.0160114,-0.00804457
-0.00924554,0.00534985
0.00456236,0.00411009
0.0557057,0.00902647
0.0506972,0.0109938
0.000941918,0.00758643
-0.039353,0.00395153
-0.0641273,0.0075643
-0.0333748,0.0173946
0.045419,0.0107604
0.0793567,-0.00723519
0.029242,-0.0108801
-0.0261534,0.00444065
-0.0618732,0.0264191
-0.042963,0.00130676
-0.0177272,-0.00103126
-0.0104714,0.00466254
0.00659739,-0.0146766
-0.0105769,-0.0272594
-0.0419597,-0.0257811
-0.0573722,0.00585119
-0.0507291,0.0369877
0.00407943,0.0466605
0.0481347,0.0257548
0.0715323,-0.0261491
0.0913845,-0.03867
0.0825295,-0.0185471
0.0636439,-0.00534583
0.0523985,0.00578083
0.0488064,0.0312217
0.0203298,0.0255247
-0.0158646,0.00850167
-0.0421191,-0.000256851
-0.0539109,-0.00599203
-0.0437725,-0.0160508
0.0093972,-0.019926
0.0481572,-0.0207036
0.0414077,-0.0110488
-0.00629279,0.00153995
-0.0505103,-0.0127509
-0.080189,-0.0106666
-0.103494,0.00593092
-0.124096,0.00483486
-0.11384,0.00372579
-0.0671809,-0.00671884
-0.0335398,-0.0176806
-0.0374187,-0.00971229
-0.0151816,0.00161298
0.0288321,0.0158098
0.0850807,0.0150408
0.122414,0.0117129
0.114864,0.00988694
0.0753328,0.00923241
0.0626931,-0.00424265
0.0476369,-0.0259011
0.00810413,-0.0201435
-0.0180964,0.0162716
-0.0333514,0.0172157
-0.0227584,-0.00103753
-0.00088107,7.23e-05
0.0092933,-0.00610249
0.00308544,-0.0109653
-0.00230553,-0.000758907
0.000142458,0.00814345
0.00801826,0.0127729
0.0410666,0.0186621
0.0482159,0.00989983
0.012382,-0.00697559
-0.0107953,0.000670464
-0.0136171,-0.00581391
-0.0413469,-0.0247337
-0.0662114,-0.0051846
-0.0433097,0.0173281
-0.0264811,0.00560468
-0.057716,0.0119766
-0.0495147,0.00596166
-0.0607909,-0.0257693
-0.0808972,-0.00920143
-0.0494162,0.0177512
0.00151993,0.0191282
0.0550708,-0.0144451
0.0778308,0.00324153
0.0783183,0.00928691
0.0610031,-0.0200268
0.0445319,-0.0149058
0.0492013,-0.00900193
0.0440457,-0.0190772
0.0161615,-0.0147959
-0.000618651,-0.00361331
0.0125198,0.00425489
0.0309873,0.014497
0.0298286,0.0243554
0.0210404,0.0295616
0.0116919,0.0194927
-0.00706054,-0.00870922
-0.0260566,-0.0147747
-0.0335463,-0.00179046
-0.0368809,-0.00179109
-0.0293418,0.00298831
-0.0271369,0.00551296
-0.0218136,0.00286854
-0.0264431,0.0152826
-0.0436107,0.0110816
-0.0305521,-0.0216871
-0.0244152,-0.0332966
-0.0604478,-0.0149067
-0.0337941,0.0043589
0.0218947,0.0141236
0.0454735,0.0107048
0.0543811,-0.0029107
0.0465421,-0.0103173
0.0384701,-0.0136208
0.0613803,-0.00418695
0.0453086,0.0232879
-0.00405635,0.0290694
-0.0263502,0.0110691
-0.0434461,-0.00832413
-0.0653484,-0.0157118
-0.0571797,-0.0170396
-0.049711,-0.017748
-0.0154095,-0.0225491
0.0210063,-0.0220209
0.0429331,0.00555892
0.0333569,0.0180698
0.0251708,-0.00427095
0.040667,-0.00353406
0.0246579,0.00457954
-0.0208788,-0.000838286
-0.0546092,0.0198826
-0.0208785,0.0520923
0.0119999,0.0167597
0.0401297,-0.0182604
0.047916,-0.00202001
0.0326364,0.0064428
-0.000296275,0.00383665
-0.0189996,0.00199546
-0.00144277,-0.013774
0.0273745,-0.017565
0.0445885,-0.00800393
0.0209121,-0.00314762
0.00377354,0.00583382
-0.0153514,0.0101853
-0.041352,0.0214252
-0.0739134,0.00527523
-0.0982856,-0.018066
-0.0777268,0.000927273
-0.0312876,-0.00998583
-0.00384608,-0.0381181
-0.0137486,0.000247041
-0.00226106,0.0112449
0.0174995,0.0316857
0.0418684,0.0221155
0.0681027,-0.0175607
0.0585055,-0.0211025
0.0340678,-0.0218628
0.0111183,-0.00917433
0.00553085,0.00146717
0.00436537,0.00378146
0.00653716,0.0102714
0.0104466,0.0147149
0.011328,0.000555702
-0.00900051,-0.0171099
-0.0293096,-0.0104895
-0.0367716,0.0076811
-0.00874041,0.0173864
0.0675432,0.0213474
0.0836602,0.0145582
0.0252182,6.92e-05
-0.0185192,-0.00607482
-0.0302047,-0.00282823
-0.0348802,-0.001065
-0.0654329,-0.00850104
-0.0594594,-0.0204213
-0.00981937,-0.0278357
-0.0148074,-0.0178672
-0.00947852,-0.00185223
0.000846571,-0.00550494
-0.0149476,-0.00363139
-0.0247411,0.00916966
-0.0521514,0.0119445
-0.0795074,0.0134672
-0.00981214,0.0176579
0.0816774,0.0107676
0.11009,-0.0043627
0.0849927,-0.0124932
0.0552113,0.0532918
0.0289197,0.100905
0.00715679,0.0490739
-0.0172789,-0.0724291
-0.0276867,-0.0850156
-0.0184422,-0.0279352
-0.0183781,-0.00638459
0.0177114,0.00197351
0.0387639,0.0124059
-0.00193019,0.00319936
-0.0305283,-0.00393901
-0.0367437,0.0033905
-0.0377245,-0.00141845
-0.0206051,-0.00904663
0.034719,-0.00495544
0.0468373,-0.00404957
0.0213162,-0.0035772
0.00766777,-0.00612022
-4.07e-05,-0.0123069
-0.0145993,-0.0103012
-0.00960985,0.00287605
0.0242385,0.0144362
0.0590537,0.0145971
0.0631191,0.00866682
0.0278274,0.00239913
-0.0383905,-0.000793424
-0.0862571,-0.00265041
-0.0848779,-0.00937214
-0.103799,0.00968099
-0.143447,0.0510716
-0.0461379,0.0469335
0.0701635,0.0126618
0.0888483,-0.0360868
0.0484884,-0.0491449
0.021041,-0.0285896
0.00449298,-0.0140535
-0.0212629,0.00557226
0.00785799,0.0182961
0.0381219,0.0077163
0.0475702,-0.0327928
0.000877614,-0.0367366
-0.0601775,-0.00941588
-0.068455,0.00816109
-0.0301235,0.000237849
0.025916,-0.0107981
0.0372548,-0.00878504
0.0234425,0.00281501
0.0267665,0.0106969
0.0276195,0.0183429
0.0176308,0.0347388
0.0188528,0.0277925
0.0233924,-0.00341932
0.0127888,-0.0163838
-0.00948595,-0.0124543
-0.00179531,0.00920529
0.0330484,0.0249523
0.0649152,0.0478063
0.0555956,0.0637131
0.0159196,-0.00142365
0.0061024,-0.0503758
-0.0273461,-0.0376676
-0.0631936,-0.0210483
-0.0682409,-0.0173245
-0.0362264,-0.00140538
-0.000175442,0.0075924
0.00805927,8.98e-05
0.022224,-0.00877068
0.0161629,-0.0190441
-0.0488158,-0.0221127
-0.11973,-0.0122493
-0.137182,-0.011105
-0.094809,-0.00235555
-0.0249626,0.0158057
0.0423692,0.0204088
0.0683478,0.0299162
0.0556812,0.0221143
0.0567478,-0.00787304
0.0420576,-0.0110913
0.00825446,-0.0234849
0.00483855,-0.0231879
0.0202056,0.0167133
0.0220095,0.0504998
0.00942827,0.0271247
-0.00454385,-0.0120667
-0.0170022,-0.0211047
-0.0334922,-0.0160339
-0.0406378,-0.0113109
-0.0257656,-0.00877835
0.0269234,-0.000323249
0.0409846,-0.00263495
0.0440524,-0.00409333
0.0755879,0.0151778
0.110144,0.0183342
0.113472,0.001299
0.0926332,-0.00065869
0.0594149,0.00491589
0.0155006,0.00145417
-0.0358836,0.0184166
-0.102536,0.0273621
-0.15668,0.00491244
-0.129042,-0.0149999
-0.0613173,-0.0226456
-0.0202389,-0.0150926
0.00139301,-0.00710949
-0.0174511,0.00031602
-0.0322682,0.00894831
-0.038593,0.00375335
-0.0316712,-0.00667696
-0.0342475,-0.0141151
-0.0328784,-0.0127254
-0.0201391,-0.00375936
-0.00164351,-0.0166829
0.00775388,-0.0330963
0.0325496,-0.0222977
0.053923,0.0164584
0.0446076,0.0670212
0.0384848,0.0412516
0.0376996,-0.00410106
0.0286282,-0.0123863
0.012629,-0.0174098
0.00658723,-0.0154665
0.0226967,0.00822372
0.0276518,0.0129542
0.0340004,0.0118928
0.0504774,0.0129716
0.0270138,-0.00390731
-0.01689,-0.0123439
-0.0354501,-0.00876466
-0.0265362,-0.00501718
-0.0212295,-0.000671752
0.00398178,0.021375
0.0391067,0.0223961
0.0424059,-0.0458888
0.0191747,-0.036867
-0.0474288,-0.0176637
-0.067959,0.012335
-0.0621946,0.0336214
0.00163624,0.0207294
0.0329068,0.030664
0.0180699,0.0553577
0.00944779,0.0355264
-0.0140716,-0.0398362
-0.0505345,-0.081507
-0.068514,-0.053891
-0.0560076,-0.0142163
-0.0394001,0.00855931
-0.0158107,0.00773031
0.00964853,-0.00450963
0.0379789,-0.00362308
0.0768562,0.00351882
0.0933295,0.0154259
0.0864355,0.0204957
0.0611315,0.000855737
0.0354709,-0.00227112
-0.0062798,0.0095328
-0.0402674,0.00766155
-0.0328354,0.00588608
-0.0204424,0.00898288
-0.0364176,0.00353864
-0.0603693,-0.00462393
-0.0571862,-0.0132909
-0.0399442,-0.0225474
-0.0153778,-0.0228182
