Comp Ch 3,Comp Ch 4
-0.00866854,0.0203735
-0.00169425,0.0147795
0.00443397,0.0122453
0.0240403,0.00976187
0.0446747,0.00694486
0.0398325,0.0149981
0.0354587,-0.00519831
0.0232214,-0.0130334
0.00105624,-0.000247124
-0.0215865,-0.000458165
-0.0218118,-0.0298641
-0.0119573,-0.043328
0.0146599,-0.00919159
0.0526505,0.0248772
0.044925,0.025018
0.0158223,0.00498689
0.00953633,-0.00962587
0.00155897,-0.0151303
-0.0100657,-0.0209536
0.00415927,-0.0187419
0.0449449,0.00256174
0.0622123,0.0251862
0.0391681,0.0371462
-0.000643509,0.0300575
-0.0584301,0.0119129
-0.0924849,-0.00856374
-0.0928175,-0.018422
-0.0689158,-0.0238342
-0.0428736,-0.0263622
-0.00398862,-0.00975479
0.0281166,0.0170833
0.022421,0.0186638
0.0106766,0.00614468
0.024799,-0.00248244
0.0259422,-0.0045482
0.00198749,-0.00401342
0.00592883,-0.0105526
0.0416575,0.0139795
0.0696873,0.0287568
0.0854141,0.0201298
0.0881032,0.000947714
0.0473568,-0.0210915
-0.0240981,-0.0262773
-0.0914152,-0.0133613
-0.137533,-0.0151564
-0.134955,-0.00684637
-0.0536996,0.0104577
0.0536717,0.0150489
0.090828,0.00696224
0.0727947,0.00267862
0.0178855,-0.000584867
-0.0457693,0.000108798
-0.0679919,-0.00646235
-0.0389598,0.0105465
0.00988205,0.0264734
0.0332804,0.00486027
0.0419439,-0.00219162
0.00590035,-0.0129184
-0.0406195,-0.00644047
-0.0627496,-0.0174317
-0.0599982,-0.0258312
-0.0471439,-0.0211003
-0.000640885,-0.00678881
0.0601458,0.00835082
0.0692426,0.00668581
0.0357404,0.0136583
0.00603251,0.00947185
-0.0126514,-0.0156513
-0.0228402,0.00323661
-0.0126001,0.0394961
0.0255448,0.0334006
0.04624,0.0124709
0.0397897,0.00772635
0.024162,-0.00664744
-0.00826881,-0.0210619
-0.0380465,-0.0224351
-0.0432007,-0.0232978
-0.0316673,-0.0130008
-0.0176592,-0.00376379
0.0138692,0.0075994
0.0519793,0.0238074
0.0715241,0.0169305
0.0870559,0.0104537
0.0779568,0.0253305
0.0364841,0.0382661
0.00509362,-0.0128174
-0.0239728,-0.0400485
-0.0408565,-0.0105665
-0.0637312,0.0075123
-0.0802692,0.00795773
-0.0793686,-0.00176863
-0.0757474,-0.0186821
-0.0645222,-0.0334659
-0.0318819,-0.0314595
0.00715824,-0.0180237
0.038933,0.0115109
0.0784706,0.0360098
0.0911826,0.027951
0.0621302,0.00993553
0.0101632,0.00556036
-0.0317753,0.00501181
-0.0472875,-0.00591761
-0.0511643,-0.0160093
-0.0232048,-0.00762632
0.00458524,0.0107022
0.00764794,0.00987172
0.0252258,0.000239193
0.0475329,0.0173754
0.0296354,-0.00440867
-0.00763731,-0.0331065
-0.0343351,-0.0194823
-0.060498,-0.0101209
-0.051932,0.00955338
-0.0131576,0.0209842
0.00685861,0.000276925
0.0302784,-0.0117294
0.0490366,-0.0045764
0.0491289,0.0021126
0.0312644,-0.0057693
0.00809128,-0.0109574
0.0185637,0.00410599
0.0342088,0.0159461
0.0176597,0.00679435
-0.0142487,-0.0015907
-0.0474938,-0.00735223
-0.0729359,-0.0141093
-0.0871818,-0.0143708
-0.0700315,-0.00686811
-0.0360348,0.000957071
0.015186,0.0142455
0.06431,0.0242368
0.0657946,0.0418454
0.0438304,0.0307561
0.0255286,-0.000782937
0.0074038,-0.0333955
-0.00420981,-0.0445803
0.0279146,-0.0146701
0.0966856,0.0163222
0.112297,0.00463433
0.0588766,-0.00633206
-0.0177414,-0.00338453
-0.0933176,-0.0141896
-0.139345,-0.0292826
-0.129461,-0.0182063
-0.0921118,0.0489092
-0.0318542,0.0248731
0.0343028,-0.00460387
0.0489092,0.0077776
0.0122396,0.0051525
-0.0155974,0.00492766
-0.0100344,-0.00121004
0.00635095,0.0112922
0.0186171,0.022731
0.0300215,-0.00769686
0.029163,-0.0160273
-0.00417873,-0.0101769
-0.0366117,-0.00858537
-0.0406713,-0.016732
-0.0261369,-0.0178068
-0.00528497,-0.0114381
0.0134365,-0.00432764
0.0237374,0.00385756
0.0419122,0.0147768
0.068172,0.00580596
0.0905078,-0.00748825
0.0721266,-0.00542385
0.0454864,-0.00841671
0.0377878,-0.0164582
0.0153058,-0.0062642
-0.0334261,0.00604516
-0.0611019,0.0228146
-0.0713395,0.040449
-0.0786322,0.0353001
-0.0788058,0.0293876
-0.0567386,0.00218565
-0.0335421,-0.0149845
-0.0142253,-0.0219298
-0.00241802,-0.00637939
0.00210801,0.0116452
0.0227706,0.00959761
0.0611866,0.0141546
0.068518,0.00641558
0.0578873,-0.0213541
0.0429564,-0.0385556
0.0109421,-0.0517041
-0.0335513,-0.0578232
-0.0659202,0.0117365
-0.0661592,0.0413292
-0.039354,0.0119962
-0.0216185,0.0031214
0.00514964,0.0104596
0.037668,0.00887086
0.0596303,0.00792207
0.0562385,0.0191889
0.0413775,0.013482
0.0104065,0.00723292
-0.0162078,0.00899264
-0.0292883,-2.48e-05
-0.0447912,-0.0166799
-0.0381823,-0.00291916
-0.0148946,0.0175856
-0.0136073,0.0288499
-0.029816,0.000352443
-0.0234593,-0.0196091
0.00118173,-0.0114025
0.0138208,-0.0129741
0.0208201,-0.0163613
0.0331515,-0.00857878
0.0363473,-0.00790342
0.0344653,-0.0201853
0.0341515,-0.0302693
0.0490629,-0.0064731
0.102658,0.0123107
0.121458,0.0351569
0.0718503,0.081597
-0.00818497,0.025976
-0.098034,-0.0422336
-0.146842,-0.0319358
-0.146769,-0.0128514
-0.119269,-0.0171474
-0.0659834,0.0023068
-0.0100575,0.0149314
0.0188455,0.00353999
0.0360516,-0.00465263
0.043689,-0.0100803
0.0375666,-0.00591491
0.0233996,-0.00468446
0.0165157,-0.0271929
0.0203615,-0.0342872
0.0321392,0.00175229
0.0331263,0.0237484
0.0079181,0.0171252
-0.0181265,0.00176551
-0.0253124,0.0098488
-0.0157363,0.0148905
-0.0147622,-0.00227791
-0.0240747,0.016874
-0.0148518,0.0413568
0.000175417,0.0188182
0.000226094,-0.0103459
-0.00575028,-0.0116357
-0.010249,-0.0195212
-0.00767575,-0.0217278
0.000228366,-0.00617954
0.0101026,-0.00124002
0.0132373,-0.00549411
0.0241013,0.00578587
0.0288764,0.00694222
0.0228383,0.00385818
0.0142152,0.0159223
0.0132228,0.0163714
0.00388347,0.000903411
-0.00427162,-0.0156455
-0.016609,-0.0149861
-0.0112691,0.0123545
-0.00479729,0.0123352
-0.00940127,-0.00762323
-0.022201,-0.0129591
-0.0300592,-0.015529
-0.0160416,-0.0211119
0.0136086,-0.0148582
0.0226018,-0.0061838
0.00588243,0.00484718
-0.00571574,0.0252565
-0.0208673,0.023758
-0.0345049,-0.0163871
-0.0115346,-0.017672
0.0227791,0.020561
0.03931,0.0160838
0.0309494,-0.00774396
0.0292636,-0.019605
0.0234246,-0.0118522
-0.00903837,-0.00115448
-0.0439931,-0.000521869
-0.0444252,0.00111077
-0.0231236,-0.00168277
-0.0209116,-0.0113504
-0.0144339,-0.0153827
-0.0151282,-0.00994881
-0.0097805,0.0217444
0.0224584,0.0541579
0.0819779,0.0304735
0.112131,0.00169614
0.0983978,0.0072462
0.0471811,0.00217311
-0.0290633,-0.00732027
-0.083686,-0.00763919
-0.0699023,0.000545301
-0.0260094,0.00149683
-0.00476536,-0.000654877
0.0042795,-0.00620454
-0.00578918,-0.0191535
-0.0300094,-0.0235051
-0.0450686,0.000658924
-0.0211924,0.00848633
0.000375219,-0.0208289
0.0227233,-0.0274859
0.0209477,0.00179971
-0.0193025,0.0257072
-0.0415941,0.0203446
-0.0314991,0.019829
-0.0044811,0.00087038
0.0090691,-0.00457616
0.0109513,0.00232984
0.0302929,-0.00790353
0.046623,-0.00631224
0.0405481,0.0052333
0.0196986,0.00930325
-0.0113803,-0.0066839
-0.0439693,-0.029349
-0.0511609,-0.018828
-0.0423491,-0.00343188
-0.0165896,-0.0054707
0.0393888,0.000131273
0.0723079,0.023346
0.0654794,0.0458716
0.0535931,0.0260897
0.0357634,0.00681588
0.000268679,0.00130529
-0.0271626,0.00538166
-0.0286162,-0.0145335
-0.0193255,-0.000686124
-0.0225957,0.0368926
-0.00478378,0.0070334
0.0239148,-0.0472318
0.0163498,-0.0541033
-0.0139924,-0.0444796
-0.0341738,-0.0316883
-0.0568175,-0.0165567
-0.0633142,0.00895721
-0.0313814,0.0242245
0.00163154,0.0222358
0.0284758,0.0233754
0.049008,0.0138343
0.0402171,0.0168702
0.00971413,0.0105777
-0.0157983,0.000888367
-0.017145,0.00671118
-0.00161426,0.0113215
0.00887649,0.00371014
0.0211485,-0.00292623
0.0235948,-0.00983969
0.00472717,-0.01539
-0.0201014,-0.0161709
-0.0347754,-0.0041191
-0.0442336,0.0039348
-0.0297946,0.00991759
-0.00630116,0.0185193
0.021354,0.00591475
0.0572231,0.000439117
0.082874,0.00341655
0.0686562,-0.00633542
0.0241018,-0.0119217
-0.018327,0.00517275
-0.0309641,0.00612698
-0.031983,-0.0121003
-0.0282874,-0.0190929
0.00894623,-0.0203189
0.0289384,-0.0229441
0.0111547,-0.00684962
-0.019151,0.026282
-0.0539255,0.0541205
-0.0816679,0.0105704
-0.057751,-0.0317196
-0.0111623,-0.0432311
0.00864447,-0.0234575
0.0304892,0.00817996
0.0397976,0.0304923
0.0209641,0.0357965
-0.0114964,0.0119304
-0.0212572,1.66e-05
-0.0126034,0.000461342
-0.00313773,-0.0115247
0.0110448,-0.0242259
0.0157252,0.00128201
0.00983586,0.0280429
0.00657657,0.0160717
0.0260135,-0.00399593
0.0455824,-0.010573
0.0497118,-0.0173195
0.0490782,0.00657762
0.0103021,0.0396284
-0.0406546,0.0326046
-0.056222,0.00045408
-0.044839,-0.0288573
-0.0310619,-0.0373973
-0.0181896,-0.036314
0.00339075,-0.0445599
0.025516,-0.0367162
0.0188311,0.00231985
0.00845005,0.00772883
-0.000296363,0.00931054
-0.015811,0.0264147
-0.0125945,0.0259197
8.51e-05,0.0147729
0.00382777,0.0150662
0.00563563,0.0260544
0.0053825,0.0227027
-0.0141402,0.0068934
-0.0192772,-0.0112362
-0.000793197,-0.00816865
0.00947994,0.0110316
0.0263503,-0.000431961
0.0630803,-0.0179846
0.0867743,-0.0111791
0.069609,-0.00588012
0.0201042,-0.00893908
-0.0334415,0.000361247
-0.0842163,-0.00185767
-0.0961147,-0.0110819
-0.0706519,-0.0127143
-0.041765,-0.00835977
-0.0212787,-0.00124197
0.00534617,0.0119423
0.0195563,0.0184524
0.0112572,0.0150606
0.00390018,-0.00164213
0.00602517,0.00191524
0.00102292,0.0162383
-0.0065659,0.0091628
-0.000951772,-0.00377032
0.0182351,-0.00827591
0.0225254,-0.00120195
0.0241278,-0.0128421
0.0182616,-0.00311787
0.00365323,0.00105674
-0.0104013,-0.0156899
-0.0154802,-0.018708
-0.012636,-0.0155325
-0.00234427,-0.00678461
0.0164262,0.00503256
0.0187652,0.0064148
0.00315306,-0.00941561
-0.00107016,-0.0133827
-0.00173188,-0.012489
-0.00969129,-0.00477121
-0.0218075,0.00115245
-0.0165838,0.0234671
0.00773745,0.0383872
0.0147633,0.0639032
0.0166091,0.0524591
0.0149017,-0.00630987
0.00875044,-0.0317228
0.0116062,-0.0248257
0.0172222,-0.00632399
0.0100443,0.00408358
0.0130884,0.0199323
0.0142147,0.00744728
-0.00520168,-0.0117948
-0.0265033,-0.0193802
-0.0292978,-0.0142587
-0.028201,-0.0196929
-0.031333,-0.019929
-0.031656,0.0164115
-0.00849337,0.0285547
0.0124886,0.0165425
0.0149585,0.0113598
0.017342,-0.00602271
0.0103878,-0.0191427
-0.00437694,0.0152584
-0.0064975,0.00609824
0.00868916,-0.0528378
0.0209765,-0.0381062
0.0315868,-0.00351614
0.0303777,0.0120539
0.00739528,0.00728887
-0.0191127,0.00290144
-0.0307648,0.0036239
-0.041802,-0.00531278
-0.0458357,-0.014152
-0.0254318,0.00179171
0.0075085,0.0251522
0.0234744,0.00143842
0.0193815,-0.0140898
0.0221483,-0.0116776
0.0345462,-0.0150925
0.0254993,-0.0114932
0.0159336,0.0102563
-0.000952519,0.01412
-0.0298956,0.00767869
-0.0413749,0.040166
-0.0223164,0.0198296
-0.0102124,-0.0137215
0.000140706,-0.0155682
0.00677114,-0.0150606
0.00434538,-0.00849286
0.0277313,-0.005072
0.0651749,0.00687908
0.0778278,0.0166032
0.0568629,0.0147451
0.0181268,0.0159813
-0.037611,0.00766166
-0.073751,-0.0151578
-0.0797205,-0.0210489
-0.0575655,-4.18e-07
-0.0235909,-0.00135616
0.0088533,-0.0196186
0.0349312,-0.0312955
0.0269158,-0.0110967
-0.00542108,0.00803242
-0.0185591,0.0282068
-0.0251133,0.0414323
-0.0357705,0.0142385
-0.0386961,-0.0094937
-0.017231,0.00545121
0.01003,0.0116335
0.0222107,0.0102105
0.0317368,0.0125988
0.0298583,-0.0147602
0.00644607,-0.023169
-0.00353694,-0.0178876
0.00832362,-0.0129239
0.0110453,0.00246138
0.0198142,0.0360766
0.0232492,0.0715753
0.00127586,0.0893854
-0.010125,0.00984571
-0.00619564,-0.0952524
-0.0182793,-0.0776848
-0.0308975,-0.0511365
-0.0267672,-0.0288403
-0.00101631,0.000954718
0.0217443,0.0124474
0.0250874,0.0169464
0.0178511,0.0234416
0.00450798,-0.00404315
0.000268543,-0.0256245
0.0039926,-0.0188138
0.0048072,0.001068
0.0015787,0.0374403
0.0117927,0.0377923
0.0185345,0.0123977
0.00141854,-0.00978545
0.000891046,-0.0392457
0.00154714,-0.025039
-0.0167473,0.015912
-0.0231426,2.14e-05
-0.00581607,-0.00564898
0.0106699,0.011447
0.000918257,0.0154379
0.00448035,0.0116339
0.013283,0.00315453
0.00339942,-0.00474609
-0.0106049,-0.00450196
0.00175669,-0.00158066
0.0229377,-0.00347003
0.0226986,0.00495977
0.0148501,0.00863482
-0.0106471,-0.00233876
-0.0314358,-0.0134492
-0.0282124,-0.0113004
-0.024079,0.000646423
-0.0391248,0.00714627
-0.0313203,0.00148511
-0.000652242,-0.00535238
0.0156425,-0.001641
0.00614864,-0.00352941
0.0131444,-0.0077273
0.0201928,-0.00284397
0.0182241,0.00639123
0.00851702,-0.0029935
0.00885716,-0.0109663
0.00515048,6.69e-05
0.0133307,0.0245241
0.0197807,0.0272593
0.00175382,0.00272581
-0.0163536,-0.0224404
-0.024828,-0.025024
-0.0330933,-0.0264605
-0.0395026,-0.0129486
-0.0327983,0.0183251
-0.00481472,0.0481823
0.0197342,0.0233587
0.0245645,-0.0100051
0.0266478,-0.00866161
0.0203106,-0.0123819
0.00553318,-0.0139008
0.000430545,-0.00010224
-0.00690196,0.0280519
-0.0089768,0.0216219
0.0159141,0.0137682
0.0250461,0.0146318
0.00623142,-0.00495997
-0.00863983,-0.0161
-0.00952018,-0.00887285
-0.0179318,-0.00239973
-0.0296002,-0.0131745
-0.0172865,-0.00342217
0.00950314,-0.00466724
0.0125109,0.00426707
0.0139049,0.0221009
0.015846,-0.00829267
0.00916528,-0.0380584
-0.00580835,-0.0111392
0.000440499,0.00743937
0.0102417,0.00564352
0.0225634,0.00041364
0.0379024,0.0139949
0.0261794,0.0310563
-0.00359652,0.0136131
-0.0170755,-0.021421
-0.0283236,-0.0187957
-0.0478372,-0.0189096
-0.0546923,-0.0190247
-0.022259,-0.00206757
0.0121026,0.0124951
0.0195464,0.0107222
0.0200452,0.0112919
0.0161609,0.00860626
0.00293394,-0.00173881
-0.00968964,-0.00163952
0.00251007,0.0106686
0.0162083,-0.0113259
0.0384121,-0.0177713
0.0432718,0.00753119
0.0132538,0.0194848
-0.018386,0.00505982
-0.0331646,-0.0154605
-0.0462208,-0.0338663
-0.0552462,-0.0253258
-0.0394357,-0.00769048
-0.00367914,-0.00178348
0.0139292,0.0331236
0.0156371,0.0314625
0.0239328,0.00344609
0.0185231,-0.00855861
0.00356261,-0.00831752
-0.0115737,0.00266035
-0.0176142,0.0265949
-0.01654,0.0161825
0.0140391,-0.0106674
0.0350014,-1.43e-05
0.0152924,0.00958692
-0.00258579,0.0183159
-0.00162726,-0.00214779
0.0106875,-0.0256216
0.0163728,-0.025303
0.0296981,-0.00496765
0.0425654,0.0234077
0.0297892,0.0232838
0.000500002,0.00502684
-0.0334153,-0.00472559
-0.0616977,-0.0254994
-0.060728,-0.0384782
-0.0336613,-0.00969212
-0.00751076,0.017419
0.01325,0.0202946
0.0281416,0.018096
0.00801855,0.00176062
-0.0281672,-0.0165854
-0.0338003,-0.0103452
0.00137537,-0.0102578
0.0588249,-0.0190075
0.0864489,-0.016068
0.0991172,0.00299924
0.084436,0.0162153
0.0138799,0.0105801
-0.0549914,0.0181328
-0.082141,0.0184349
-0.085178,-0.00932627
-0.0797428,-0.0122503
-0.0488205,0.0073828
-0.0197259,-0.00779275
0.0149343,-0.00227465
0.0375121,0.00717326
0.0292415,-0.0042123
0.00245397,-0.00849264
-0.010586,0.00705608
-0.022036,0.0194189
-0.0351108,-0.0197147
-0.0342399,-0.0301386
-0.0119421,-0.00205264
0.00773686,0.0132662
0.00997413,0.015744
0.0204526,0.0103905
0.020674,0.0395966
0.0125647,0.0591029
0.0163241,0.00181839
0.0329023,-0.0397845
0.0468393,-0.0191161
0.0707868,0.0163674
0.0737486,-0.00955346
0.0311219,-0.0111982
-0.0201414,-0.00170203
-0.0486321,-0.021498
-0.0696374,-0.0341912
-0.0854756,-0.0351496
-0.0568741,-0.0189215
-0.00687135,0.00931075
0.0144132,0.0159677
0.0231272,0.00202187
0.0249544,0.0139146
0.0144068,0.0127019
0.00196073,0.00280029
-0.00031373,0.012198
-0.00219087,0.0127333
-0.000450042,0.000111447
0.0181906,0.000662688
0.0198185,0.000830632
-0.00563149,-0.00698719
-0.0161824,-0.0183702
-0.0206764,-0.0138431
-0.0396622,-0.0184712
-0.0472228,-0.0276196
-0.0215765,0.0529433
0.017035,0.0793054
0.0320574,-0.00426822
0.0407806,-0.0056585
0.0439552,0.0112029
0.0419966,-0.00158164
0.047821,-0.0181953
0.0695743,-0.0157221
0.0710547,-0.0177561
0.0567072,-0.0120377
0.0347737,-0.00119895
-0.0178975,-0.00111422
-0.0805073,0.00530267
-0.105442,0.00217247
-0.106756,-0.00941317
-0.0980813,-0.0157324
-0.0731705,-0.00715469
-0.0240953,0.0104564
0.0139892,0.0178283
0.0219511,0.014719
0.0248671,0.0103137
0.0183947,0.00735277
0.00552494,0.00206377
-0.000532742,-0.0185104
-0.000561853,-0.021727
-0.00429928,-0.00562804
0.0140247,0.00517224
0.0295665,0.0112363
0.0153474,0.0205667
0.00182444,0.0324586
0.000563214,0.0118361
-0.00904685,-0.0137994
-0.0259557,-0.0454587
-0.0222314,-0.0369177
0.00369469,0.00269758
0.0277881,0.0201883
0.0346465,0.0136581
0.0276413,-0.00743141
0.00921486,-0.0183678
-0.0131134,0.00445757
-0.00987987,0.00816807
0.0021329,-0.0334924
0.00576672,-0.00431255
0.0277358,0.0369739
0.0372266,-0.00916084
0.017146,-0.0101375
-0.00437889,0.0497748
-0.0132445,-0.0179725
-0.0263592,-0.0614369
-0.0376367,-0.00887271
-0.0161126,0.0171941
0.0201831,0.0214723
0.0222374,0.0194723
0.0115522,0.0192714
0.00686573,0.00913791
0.00259269,-0.011547
-0.00690485,-0.0169296
-0.00623212,-0.00711471
-0.0220072,0.0112637
-0.0234926,0.0510846
0.00286978,0.0448087
0.0207651,-0.0112656
0.0117657,-0.00551253
0.0037777,0.00197885
-0.00521146,-0.0156089
-0.0256796,0.0165263
-0.0341497,0.00150166
-0.00719416,-0.0502281
0.0112017,-0.0361204
0.00430695,-0.00516946
0.00554742,0.00734579
0.0116235,-0.00680973
0.00871303,-0.0120113
0.00181283,-0.00753949
0.00671133,-0.00185687
0.00443317,0.00663552
0.0190342,0.0178682
0.031934,0.0193983
0.0152378,0.00578999
-0.00115235,-0.00294986
-0.00649998,-0.000736929
-0.0184146,-0.00469283
-0.0368132,-0.0132485
-0.036467,-0.0130063
-0.00456359,0.00268875
0.0117669,0.00254043
0.00878361,-0.0048173
0.00585691,0.00586199
0.00121589,0.00973673
-0.00470075,-0.0097058
-0.00539863,-0.00828821
-0.0102367,0.0235034
-0.00750627,0.023607
0.0176967,0.000650858
0.032253,-0.00158878
0.0206641,0.0077398
0.0050019,0.000955861
-0.00454577,-0.0148935
-0.0229677,-0.0244232
-0.0438033,-0.0284968
-0.0321353,-0.0167932
0.00250112,0.00391635
0.0159413,0.0161876
0.0166329,0.0261677
0.0130416,0.0133097
-0.00196596,-0.0188865
-0.0163472,-0.0182298
-0.00397836,-0.00445938
-0.000344932,-0.00355751
0.00861755,0.00418242
0.0296648,0.00816932
0.0284834,-0.00837974
0.0106408,-0.0119217
-0.00483083,-0.000671103
-0.0149585,-0.00943856
-0.022043,-0.0146851
-0.0329248,0.0081751
-0.0165683,0.0262145
0.0109382,0.060404
0.0173824,0.0350106
0.0191031,-0.0229148
0.00658144,0.00280896
-0.00716818,0.000933324
-0.0154508,-0.0133393
-0.00919762,-0.012109
-0.00365182,-0.0115569
0.0150075,0.00899785
0.0241805,0.0398
0.00677945,0.0417622
-0.00790891,0.0102214
-0.00148594,-0.0311288
-0.00956977,-0.00284952
-0.0304928,0.0321167
-0.0296095,-0.0163544
0.00489582,-0.0404189
0.0232583,-0.0339166
0.0192362,-0.00589098
0.0185732,0.0453315
0.0117368,0.00245279
-0.00349301,-0.0490313
-0.0159732,-0.0230517
-0.0113066,-0.0465134
-0.00546719,-0.0398233
0.0123129,0.0402028
0.0229227,0.0730785
0.0156115,-0.0247559
0.0108117,-0.0414787
0.000650103,0.00907117
-0.0215851,0.0249578
-0.0383638,0.00838863
-0.0297106,-0.000713001
0.00775205,0.00410812
0.0257525,0.0067078
0.0211487,0.0215025
0.0169526,0.00960506
0.000870771,-0.0215735
-0.0224247,-0.0111189
-0.0231287,0.0116469
-0.00350527,-0.00414451
0.00957292,0.0286948
-0.0127206,0.028716
-0.0127271,-0.0172868
-0.00702313,-0.0414566
-0.000947653,-0.0338066
0.00342471,-0.0294806
0.011434,0.00994738
0.0358199,0.0245682
0.0438628,0.0212469
0.0321574,0.0282025
0.0350753,-0.0120784
0.0198925,0.0124226
-0.00790744,-0.00756103
-0.038962,-0.0025818
-0.0520764,0.0206207
-0.0586385,-0.0106281
-0.0417687,-0.0610779
-0.00934224,-0.00903123
-0.00290874,-0.0115856
-0.0116277,0.00363884
-0.00359555,0.020338
0.000808795,0.0152681
-0.000475155,0.00245976
0.00440128,-0.00262911
0.0308641,-0.029028
0.0461465,-0.0446959
0.0422981,0.00444853
0.033598,0.0468774
0.0159567,-0.0226903
-0.00158065,0.0299801
-0.0247555,0.0485251
-0.0403782,0.00938641
-0.0490905,0.0200566
-0.0325259,0.0777355
0.0130859,-0.0585688
0.0182498,-0.108385
0.000126669,0.0438968
-0.00457191,0.0412573
-0.00492532,-0.0177673
-0.000744552,-0.00825544
0.0208869,0.0213161
0.0494774,0.0456505
0.0455205,0.0742149
0.0338292,-0.0175685
0.0258488,-0.0697851
0.0131898,-0.00260236
-0.00717114,-0.0250868
-0.0443857,-0.0284707
-0.0726847,-0.0217349
-0.0622976,0.00422751
-0.0259529,0.00228
-0.00911579,-0.0161797
-0.00671965,-0.0201837
0.00402957,0.0225341
0.00473361,0.0126248
0.00377029,-5.42e-06
0.0144842,0.0183
0.0389488,0.00253314
0.0455786,0.0326187
0.0300119,0.0293493
0.0080886,-0.0525774
-0.0202912,-0.0549853
-0.0266689,0.0328979
-0.0157888,0.0740651
-0.00880154,-0.00818862
-0.0129323,-0.0664644
0.00172777,-0.0235038
0.0218583,-0.0132251
0.0110982,-0.0180357
-0.00763624,-0.0159861
-0.00897566,-0.00133564
-0.0207318,0.017549
-0.0262091,0.023637
-0.0116871,0.0264989
0.0257323,0.00447972
0.0503604,-0.0345998
0.0398441,-0.0153458
0.0250886,0.00966126
0.00241736,0.0218723
-0.0211837,0.0135324
-0.0331933,-0.0126347
-0.0209311,-0.029216
-0.0111038,-0.0174784
-0.00076601,0.0475672
0.00567581,0.0921477
0.00653909,0.0249327
0.000927122,-0.074112
-0.00977068,-0.0331668
-0.0207033,-0.00234855
-0.0177579,-0.00737588
0.00508073,-0.00959375
0.033248,0.00771735
0.0390426,0.0152263
0.0300936,0.00258061
0.0159233,0.00721726
-0.00566047,0.015393
-0.0295796,0.0195149
-0.0274141,0.0141939
-0.0194603,-0.0227695
-0.0107497,-0.0166864
0.0101994,-0.0143647
0.0221807,-0.0281548
0.0114168,-0.0271592
-0.0103556,-0.00930581
-0.029093,-0.0119511
-0.0552154,-0.00144814
-0.0735875,0.0434878
-0.0400023,0.0441921
0.0157197,-0.0123847
0.0411529,0.0287079
0.0664143,0.00638158
0.0764427,-0.0364831
0.0399217,-0.0371155
-0.00119768,-0.0320287
-0.0373523,0.0116989
-0.0564944,0.0649676
-0.0211303,0.0283679
0.0306885,0.0339268
0.038569,0.0788767
0.00392773,-0.0378845
-0.011697,-0.0955764
-0.0087446,0.00739015
-0.0103734,0.0456666
-0.0201351,-0.00363822
-0.0117858,0.0161407
0.0094143,-0.0184417
-0.000112438,0.0254853
0.0024779,-0.0037915
0.0128221,-0.0442984
0.00283376,-0.0242738
-0.0242049,-0.0340406
-0.0350227,-0.0286442
-0.0185652,-0.0141063
0.00558773,0.0280843
0.0209711,0.0165595
0.0334992,-0.0295698
0.0593885,-0.000465047
0.0711357,0.0145858
0.0489158,-0.00678345
0.0252397,-0.0354229
0.0341775,-0.0410344
0.0468188,0.0393868
0.000128915,0.124239
-0.0490049,0.0280101
-0.0524506,-0.0711345
-0.0815865,-0.057058
-0.0968734,0.0058699
-0.0549777,0.044471
-0.0391267,-0.0158271
-0.0647772,-0.0254242
-0.0372984,-0.00179196
-0.0432118,0.099923
-0.043838,0.114537
0.0362571,-0.0299866
0.0610583,-0.0701615
0.0509393,-0.0362269
0.0575664,-0.016532
0.0904403,-0.025881
0.146212,0.00157993
0.132292,0.00465548
0.0952069,-0.00845441
0.0621535,-0.0130227
0.0134053,0.0600322
-0.048103,0.0312312
-0.114703,-0.0391126
-0.136179,-0.00976309
-0.110414,0.055211
-0.0741938,0.00949559
-0.031615,-0.0499369
-0.0273933,-0.0434953
-0.00230468,-0.0251665
0.0527005,0.0173146
0.0798267,0.0678478
0.0282602,0.00909415
-0.00929057,-0.00853987
-0.0228488,-0.0226861
-0.0410891,-0.016666
-0.0982763,0.00153143
-0.094601,-0.0302827
-0.0187994,-0.0444943
0.0277451,-0.0287542
0.0366142,0.0104698
0.092497,-0.046187
0.125728,0.0318296
0.100034,0.137338
0.0588137,0.00211309
-0.0239846,-0.0261212
-0.125895,-0.00966176
-0.19042,0.00455614
-0.164225,0.0360741
-0.099927,-0.0160885
-0.0295498,-0.111715
0.0334788,-0.0604636
0.0542303,0.0434518
0.0535806,0.0468193
0.018527,0.0129617
-0.088247,0.000464905
-0.0908037,0.0129867
-0.0602247,0.0360342
0.0059428,0.0210328
0.200482,0.0287364
0.348915,0.00515767
0.341228,-0.0371091
0.203517,0.00504983
0.0357042,-0.00914456
-0.117179,-0.0703535
-0.193994,-0.0357343
-0.186059,0.00285641
-0.102734,0.0117538
-0.0254007,0.00812109
0.111876,-0.00493001
0.168456,0.0175842
0.129358,0.0199512
0.00341288,0.0264691
-0.0671833,0.0950678
-0.111351,0.104357
-0.117644,-0.0587546
-0.0761917,-0.186422
-0.124284,0.0781769
-0.16135,0.113951
-0.0616786,-0.00945501
0.0055896,-0.0113003
0.00548916,-0.0517263
0.0267204,-0.0474547
0.088756,-0.0122838
0.122427,0.000988211
0.0862891,-0.0203779
0.0178999,0.0144982
-0.00756352,0.0177966
-0.0115373,-0.00773539
-0.00619513,0.00136977
-0.00513883,-0.0218897
-0.0270876,-0.121362
-0.0457447,-0.0419882
-0.0414418,0.019541
-0.040067,0.000655632
-0.0298418,0.00233488
0.0043488,0.0295754
0.0426146,0.00925942
-0.0346977,0.0132846
-0.129891,0.0399068
-0.0706846,0.0317535
0.0929659,-0.0164727
0.198874,0.0115992
0.107765,0.00737468
-0.03674,-0.0121304
0.0476195,0.0102074
0.188689,0.0569427
0.16655,0.0106983
0.0397041,-0.0193598
-0.0877913,0.115515
-0.183158,0.12316
-0.147945,-0.0798401
-0.0161939,-0.156815
0.0408361,-0.0688281
0.0214333,0.0212316
0.0377566,-0.0220946
-0.00513849,0.00819739
-0.107435,0.0892724
-0.124001,0.0443785
0.0218153,-0.00821424
0.15902,-0.0225449
0.169807,-0.0443883
0.0866331,-0.00873686
0.0324793,0.021563
-0.00628688,-0.0138201
-0.00687506,-0.0761459
0.0475322,-0.00756472
0.0865624,0.0605489
-0.00527021,0.028261
-0.112795,0.0128753
-0.258105,-0.0213992
-0.435532,-0.0852824
-0.459424,0.003811
-0.302641,0.0583123
-0.0295635,0.0710978
0.122937,0.0090331
0.13719,-0.0809598
0.205779,-0.0852319
0.259526,-0.0495392
0.254601,-0.0305382
0.165764,0.0367078
0.105665,0.0373711
0.083406,0.0165644
0.0698325,0.0263299
0.0421584,0.0213108
0.00461942,-0.00199406
0.00663727,-0.00565083
0.0299156,0.0301169
0.0966097,0.0364221
0.132883,0.0105141
0.0666422,-0.0137574
-0.0329463,-0.0191419
-0.0846372,-0.0151209
-0.147409,0.00439576
-0.211224,-0.00554488
-0.26156,-0.00647421
-0.188979,0.0204136
0.0613552,0.0377178
0.20982,0.0743903
0.165094,-0.0339005
0.00217768,-0.100857
-0.0448668,-0.0552821
-0.0324575,-0.00409531
-0.0248974,0.0350205
-0.0143293,0.0528049
-0.0260646,0.0360558
-0.0376546,-0.0153404
-0.0169523,-0.045011
-0.0297045,-0.009471
-0.135634,0.218447
-0.181717,0.191261
-0.117059,-0.13341
-0.0987562,-0.223763
-0.10212,-0.15454
0.046057,-0.00130916
0.173589,0.0779589
0.223564,0.0462876
0.12384,-0.0202515
0.0300045,-0.0424227
0.0256938,-0.0277102
0.0901913,-0.0087313
0.107718,0.0749818
0.0296776,0.00297423
0.0214383,-0.051168
0.0957635,0.0874712
0.105195,0.0293562
0.0166291,-0.04395
-0.0977245,-0.0131219
-0.16516,0.0390948
-0.193843,0.0399617
-0.175674,-0.0565001
-0.118935,-0.0965971
-0.0273276,0.0178444
0.0724325,0.0713602
0.0839783,0.0337751
0.0313731,-0.0393051
0.0414954,-0.00390399
0.0354319,0.0896305
-0.0235136,0.0232389
0.0165198,-0.0908121
0.0655841,-0.0500863
0.0322373,-0.0101109
0.00581661,-0.0171091
0.0484249,-0.0253611
0.0758797,-0.0350261
-0.0256499,-0.0181299
-0.164734,0.0276922
-0.254494,0.0833808
-0.0767186,0.137808
0.272131,-0.00439388
0.507646,-0.0740805
0.471228,-0.0296725
0.244246,0.0580335
-0.0183407,-0.000395545
-0.171768,-0.0815764
-0.228812,-0.0743193
-0.247269,-0.0165355
-0.235194,-0.00221122
-0.208674,0.0178025
-0.179989,0.0351346
-0.102276,0.0713729
0.0193231,0.0505412
0.0887831,-0.106229
0.0557735,-0.0621327
-0.0749363,0.0216759
-0.141806,0.0137384
-0.131818,0.0492023
-0.0816405,0.0453339
0.0487051,0.0763262
0.126992,0.1868
0.150652,-0.0236817
0.131538,-0.0516471
0.0846792,-0.0766263
0.0812912,-0.0645926
0.0771695,-0.025065
0.0760906,-0.0584472
0.0493082,-0.0623856
0.00327517,-0.0388781
-0.0377356,-0.0081713
-0.00622873,0.0206953
0.0366573,0.0323069
0.0271137,-0.00234346
-0.0161265,0.0571807
-0.0760011,0.165681
-0.10005,-0.0108632
-0.118559,-0.0406844
-0.123254,0.0223606
-0.142065,-0.040239
-0.148791,-0.0725044
-0.0334659,-0.0596028
0.116877,0.027403
0.0802623,0.0935592
-0.0226542,-0.00199766
0.00802705,-0.0306719
0.0889132,-0.0223279
0.169653,-0.0697639
0.113943,-0.0703712
-0.00952863,-0.00096754
-0.0763177,0.0531732
-0.0487659,0.0740478
0.0425742,0.0329501
0.140643,-0.00702565
0.170862,-0.0151509
0.239137,-0.0210984
0.284155,-0.0128994
0.219839,-0.0251128
0.0779975,-0.00932176
-0.100506,0.0398415
-0.172237,0.0200205
-0.234361,0.0174169
-0.264762,0.071386
-0.278898,-0.00110786
-0.289338,-0.0415549
-0.211687,-0.0827275
-0.138249,-0.032546
-0.195669,-0.0256662
-0.230126,-0.0336271
-0.0386318,0.0188852
0.216704,0.0891251
0.373365,0.0782603
0.335221,0.0121133
0.185721,-0.0492471
0.0328676,-0.00411683
-0.0458616,0.0191185
-0.026214,0.0174559
0.0260887,-0.0139338
0.0202685,-0.0635449
-0.0404845,-0.00143334
-0.111479,0.0911954
-0.152973,0.0272799
-0.129114,-0.0890542
-0.027074,-0.0514324
0.0751991,0.0380144
0.0720096,0.109779
0.0650999,0.17224
0.151168,-0.0723921
0.175446,-0.17085
0.176588,-0.0363248
0.122032,0.0154798
0.00312817,-0.0344473
-0.0788318,-0.024831
-0.0911428,-0.0416313
-0.0902001,-0.0316273
-0.0989934,-0.0265736
-0.108672,-0.0179001
-0.0689374,-0.0118279
-0.0172798,0.000921351
0.051266,0.0430745
0.0712436,0.0222131
0.0461809,-0.00718866
0.00596721,0.0587558
-0.0407463,0.112982
-0.0358741,0.0606004
0.0337827,0.0350045
0.0613797,-0.000265451
0.0610255,-0.0574119
0.0510325,-0.00428037
0.0478187,0.0807899
0.0317075,-0.00651632
-0.029706,-0.0974935
-0.113523,-0.065082
-0.153212,-0.0264846
-0.121195,-0.0163628
-0.0695657,-0.0224586
-0.0250894,-0.0484425
-0.00638342,-0.0839297
-0.00491108,-0.0421374
0.00592934,0.00203897
-0.0022634,0.0207905
0.0408861,0.0823271
0.101965,0.148873
0.133417,0.125578
0.137274,0.0262303
0.106603,-0.0519525
0.0246605,-0.0252583
-0.0358878,-0.0048414
0.0049433,0.0010785
0.0626156,-0.00771992
0.0209187,0.0131251
-0.0678484,0.0673817
-0.119336,0.0764004
-0.142704,-0.0687296
-0.155718,-0.0462043
-0.117794,0.0295219
-0.0561431,-0.0600951
-0.00851448,-0.106383
0.0317358,-0.0774842
0.000798237,-0.0660605
-0.00465412,-0.053776
-0.00706589,-0.00233197
-0.0222451,0.0516625
-0.0153948,0.0666316
-0.00881946,0.0413774
0.0537255,0.0331413
0.0855053,0.0416787
0.0740114,0.0607026
0.102584,0.0115957
0.119371,-0.0018258
0.137669,0.069334
0.148331,0.0340321
0.100144,-0.0333699
0.00156181,0.0064413
-0.0854509,-0.0283393
-0.182895,-0.0655357
-0.139626,-0.0765467
0.00551612,-0.0362318
0.00655518,-0.00100658
-0.0343213,-0.0282232
-0.0156355,0.00816821
0.0227107,0.0223965
0.0653052,0.00969292
0.0345755,0.00232596
-0.0351331,0.0421421
-0.0692791,-0.0227816
-0.0511712,-0.0306703
-0.0269372,-0.0123722
-0.017246,0.0197598
-0.0403634,0.0332694
-0.073297,-0.00883813
-0.0905378,-0.00292617
-0.084241,-0.0072665
-0.047155,-0.000241209
-0.0204017,0.00049425
0.0127015,-0.0292079
0.0759468,-0.00971465
0.0921803,0.0380719
0.0706682,0.0085117
0.101461,-0.0769546
0.124153,-0.0392876
0.103604,0.0349417
0.0873462,0.0372333
0.0327524,0.0234399
-0.0464307,0.011453
-0.0955637,0.0183164
-0.150929,0.0126423
-0.187955,-0.0174394
-0.125341,0.0122715
-0.0426017,0.123166
0.0788145,0.0594209
0.14817,-0.0518662
0.181267,-0.0261069
0.176207,-0.0507044
0.116463,-0.000797363
0.0856128,0.0184356
0.0662129,-0.00218524
-0.000187682,0.011621
-0.0762184,-0.0340137
-0.116642,-0.0661897
-0.141311,-0.0584856
-0.157904,-0.0211994
-0.109479,-0.0143332
-0.00512829,-0.0138844
0.0813732,0.0402876
0.096393,0.0720975
0.0545532,0.0373749
-0.0261771,-0.0323282
-0.143778,-0.00272662
-0.206337,0.0287607
-0.158932,-0.0259876
-0.135391,-0.0291747
-0.0546064,-0.0611489
0.0741668,-0.0758527
0.0914777,-0.0363483
0.105814,0.015562
0.0919285,0.077823
0.107596,0.0559662
0.127693,0.0362929
0.0688256,0.0621656
0.0328662,0.0525384
0.0375887,0.0312615
-0.00631254,0.1048
-0.0252246,0.0649059
-0.0289228,-0.0405251
-0.042185,-0.0783764
-0.0420791,-0.0543606
-0.0501248,-0.0268452
-0.0544737,-0.0282213
-0.0180699,-0.0312598
0.039319,-0.0238485
0.0521823,-0.022693
0.00937659,-0.00337552
-0.0120264,-0.000909462
-0.0108389,-0.0214391
0.0740077,-0.0140196
0.159266,0.0078306
0.154042,-0.00779576
0.110202,-0.0102162
0.0604706,-0.000118996
-0.00278449,0.0151373
-0.0726612,0.044603
-0.105785,0.0744868
-0.121164,0.0827602
-0.149413,0.0202652
-0.112014,-0.0300529
-0.0568433,-0.048614
-0.0443464,-0.0538262
-0.0365132,-0.0424243
-0.0285251,-0.0344304
-0.0369603,-0.0489486
-0.02898,-0.0421133
0.0200302,-0.02007
0.0356351,0.00827043
0.0199197,0.0378666
0.0326388,0.00194234
0.0348168,0.028539
0.0188314,0.0278971
0.0292707,0.0116019
0.0462703,0.00997106
0.0208672,0.00184038
-0.0386675,0.000654074
-0.0799237,0.0233375
-0.0869398,0.0347507
-0.0500255,-0.0142213
-0.0114928,-0.0366147
0.0295827,-0.0156295
0.0494868,-0.0126095
0.0837069,-0.0440997
0.104422,-0.0486283
0.108416,-0.00578031
0.0646747,0.0843801
0.0373107,0.104091
0.0309242,-0.026468
0.0251397,-0.00172028
0.0392675,0.103892
0.0398753,0.0237853
0.0296965,0.00273653
0.0254041,-0.0501422
0.00183502,0.00683299
-0.0183903,0.0390031
-0.0416875,-0.0122916
-0.104729,-0.0661055
-0.13753,-0.0613087
-0.0971267,-0.0467722
-0.0661239,-0.0234393
-0.0451719,-0.0141733
-0.0247159,-0.00128873
-0.00992438,0.0357623
-0.00173125,0.0267482
0.00148749,-0.0157156
-0.00366648,-0.00986687
-0.0192304,0.0162584
-0.0210324,0.0174634
-0.0199947,0.0169988
-0.0508479,0.0393283
-0.036899,-0.0214228
0.026453,-0.0476291
0.0226515,-0.0181281
0.0436488,-0.000184287
0.103994,0.0515889
0.12343,0.0870368
0.115973,0.00555827
0.104209,-0.0627848
0.0640057,-0.05394
0.00826277,-0.0186067
-0.0630998,-0.0119792
-0.111211,-0.0161021
-0.0926578,-0.0106424
-0.0657047,-0.00434268
-0.0632826,-0.0122873
-0.0700722,-0.0170956
-0.0289739,0.0167867
0.0343864,0.0295344
0.0782688,0.0110025
0.0698088,-0.008835
0.0688429,0.0189616
0.0538362,0.0487159
0.0295806,0.101291
0.0137826,0.0592558
-0.00705384,-0.0668437
-0.00908028,-0.0838597
-0.0273879,0.00159849
-0.0341524,0.0151427
-0.0398651,-0.0200977
-0.0296563,-0.0396941
-0.0025912,0.00758052
0.021774,0.0276356
0.0245218,-0.00785576
0.0189096,-0.0255659
-0.00344882,0.0530925
-0.028392,0.0634469
-0.0241206,-0.026933
-0.00758037,-0.0296283
-0.00691398,0.00950435
-0.00801697,-0.00246867
-0.00131689,0.00476676
-0.000566281,0.00382765
0.00653671,-0.0171372
0.0275236,0.00444307
0.00601914,0.00786083
-0.0123162,-0.027978
0.00393439,-0.0393865
0.0145484,-0.00981853
0.0104254,0.0023224
0.00682883,-0.00668086
-3.78e-05,-0.00581953
-0.0177657,-0.011787
-0.01519,-0.0406486
0.00839808,-0.0495398
0.0130953,-0.0208878
0.0216455,0.0127288
-0.00409062,0.0458512
-0.0711473,0.0469184
-0.0782492,0.0419015
-0.0414289,0.0209456
-0.00688276,-0.0036908
0.0164678,0.00309462
0.0131668,0.0102433
0.0181803,0.0136246
0.0546946,-0.00426048
0.0817211,-0.0101632
0.0370511,-0.00830877
-0.0651574,-0.0171316
-0.146255,-0.0218575
-0.15141,0.00495415
-0.0774488,0.0219614
0.0160827,-0.0160107
0.0601618,-0.0480092
0.0863694,-0.033303
0.0731088,0.0127763
0.0569894,0.0215463
0.0755436,0.0072907
0.0688016,0.0471202
0.0396199,0.0735053
0.0167064,-0.00227059
0.0116458,-0.0256752
0.0081162,0.00451518
-0.0127954,0.0341753
-0.0164079,0.00956451
-0.00872946,-0.0104852
0.00280769,0.02039
0.0472604,-0.0319388
0.0554849,-0.0705693
0.044656,-0.0293095
0.0648857,0.000671864
0.0223275,0.017334
-0.0492843,0.0397927
-0.0932351,0.0278695
-0.131405,0.0273588
-0.136765,-0.00811058
-0.12048,-0.055342
-0.0699457,-0.0308529
0.0066736,0.00149446
0.0267767,0.0168776
0.0302715,0.0162966
0.0573097,0.0610253
0.0519251,0.0749665
0.0397031,-0.0254207
0.0388538,-0.0696704
0.0145653,-0.0636
-0.0153019,-0.0362359
-0.0314529,2.69e-05
-0.0284017,0.0270484
-0.0356456,0.0291505
-0.0455455,-0.0363467
-0.0405851,-0.0642832
-0.0192603,-0.0236707
0.00976919,0.0192975
0.0611782,0.049903
0.0871521,0.0351001
0.0324163,0.0115369
0.0140018,-0.0121147
0.0130371,-0.0241235
0.0169994,-0.000632876
0.0394837,-0.00677436
0.0426928,-0.0143244
0.0148607,0.00271287
-0.00762318,0.0167995
-0.0483812,0.031452
-0.0773533,0.0945869
-0.0541013,0.0481353
0.00457009,-0.0600605
0.00748831,-0.0747351
-0.0137383,-0.0434461
0.00616898,-0.0248246
0.024149,0.0175118
0.0520137,0.0344793
0.0965607,-0.0135648
0.0823863,-0.0205438
0.0591408,-0.0104707
0.0343354,-0.0198842
-0.0211919,0.00660955
-0.0898327,0.0187514
-0.112611,0.0123543
-0.103463,0.0198695
-0.0789845,0.0146101
-0.0689142,-0.00911415
-0.0312894,-0.0199622
0.0470618,-0.031477
0.0903591,-0.0279475
0.0711635,-0.00165266
0.0360414,0.0262267
0.0238022,0.0419473
0.00762438,0.0637918
-0.000102168,0.0553233
-0.00187679,0.0443813
-0.00780286,0.0537501
0.00108985,-0.0226531
-0.0042246,-0.0298438
-0.034216,-0.0219699
-0.0271257,-0.0608768
-0.000299962,-0.0380181
-0.0167073,-0.0033364
-0.0466836,-0.00449638
-0.0818379,-0.00848127
-0.100567,-0.00909438
-0.0849455,-0.0254202
-0.00371913,-0.0258902
0.0564023,-0.00660117
0.0494507,0.00219304
0.042584,0.0028903
0.0564942,0.00380489
0.0836148,0.0476912
0.124783,0.0297171
0.133074,0.000181023
0.0804275,0.0309889
0.0190876,0.0724772
0.00387828,0.0142855
-0.0184069,-0.0596998
-0.0337343,-0.0592203
-0.0539573,-0.0318376
-0.077863,-0.0173812
-0.102351,-0.0115523
-0.0955193,-0.0157147
-0.0567113,-0.0183423
-0.0203694,-0.00632343
0.00557201,0.00387013
0.00960018,0.0248916
0.00397766,0.0140208
-0.00436198,0.0150794
0.00401861,0.0518082
0.0175702,-0.0094346
0.0317225,-0.0514748
0.0577931,-0.0211713
0.100864,0.0197253
0.0835993,0.0293386
-0.0200298,0.0159277
-0.0695919,-0.00468021
-0.0239671,-0.0012912
-0.00800509,0.00886641
-0.0239874,-0.0126462
-0.0324431,-0.0129898
-0.00920553,0.00533667
0.00865026,0.0137404
0.00480113,0.0107886
0.00875339,0.00758943
0.0233412,-0.000385403
0.0135408,-0.009239
-0.00547603,-0.0099477
-0.0174752,-0.0101016
-0.00808991,-0.00408336
0.0304622,0.00887947
0.0343432,0.0293827
0.0351593,0.0348167
0.0332845,-0.0201665
0.0168928,-0.0408952
-0.0168555,-0.0243735
-0.047846,-0.00862558
-0.0494761,0.000459425
-0.0196615,0.00613498
-0.0139412,0.00353122
-0.00632384,0.0162804
0.000306451,0.0366976
-0.00514642,0.0492348
-0.0324849,0.0275261
-0.072215,-0.0381222
-0.0618809,-0.0263147
0.00593835,0.0569525
0.0433093,0.0453371
0.0275993,-0.0615142
-0.012486,-0.0793696
-0.0112011,-0.0109307
0.0104133,0.000959366
0.00171396,-0.0415986
-0.0475816,-0.0500138
-0.060955,-0.0188367
-0.00673659,-0.00833508
0.0656374,-0.00454866
0.0836361,-0.0174873
0.0279939,-0.0354326
0.0126508,-0.00971272
0.0161084,0.0356072
0.032284,0.0559485
0.0464537,0.0388521
0.0450397,0.0199076
0.0526985,-0.000635313
0.0476988,0.021861
0.0129136,0.0573932
-0.0255802,0.0172294
-0.0522943,-0.020677
-0.0355989,-0.0373683
0.00015994,-0.0239537
0.0182465,0.00961585
0.00347014,0.0414915
-0.0273502,0.0638033
-0.0465377,0.0136225
-0.0655385,-0.0407545
-0.0736292,-0.026618
-0.0202128,0.00316875
0.0551482,-0.000921745
0.0939357,-0.0220455
0.110043,-0.0233964
0.0856049,-0.00269416
0.0327427,-0.0030675
-0.0363497,-0.00465342
-0.0808151,-0.00686096
-0.100987,-0.00428311
-0.102584,0.00269572
-0.0419004,-0.00535406
0.0312328,-0.00855969
0.0477549,0.0246666
0.0346405,0.0241434
-0.0178874,-0.00981641
-0.0659493,-0.0021378
-0.0734187,0.0438224
-0.0662708,0.0361103
-0.0580865,-0.0126549
-0.0418005,-0.00370245
-0.00373305,0.02383
0.0146357,-0.0158862
0.0309703,-0.0555874
0.0466378,-0.0461889
0.0183086,-0.00247999
0.00402617,0.0407989
0.0164584,0.018925
0.0478503,-0.0460922
0.0797882,-0.034422
0.0800848,0.0166399
0.0767853,0.0454735
0.0778729,-0.0211881
0.0725123,-0.0257257
0.0515445,0.040137
0.0157893,0.0118153
-0.0249567,-0.0335602
-0.0374923,-0.0274479
-0.0374633,0.0080914
-0.0494691,0.0281727
-0.0604727,0.0175931
-0.0727936,-0.0056631
-0.118008,-0.0133266
-0.116758,-0.00386603
-0.0578222,0.0350958
0.0368807,0.0438846
0.0860521,0.0724103
0.0505776,0.0601021
0.0485158,-0.108328
0.0342955,-0.101773
0.00604888,0.00901334
-0.00486118,0.0211392
-0.00892313,-0.00462345
0.0106391,-0.00900178
0.00950838,-0.00565786
0.000563048,0.00724416
0.0111825,-0.0477007
0.0103012,-0.0473266
-0.0616388,-0.0271896
-0.0608807,0.00874824
0.00841432,0.0369304
0.0649745,0.0507714
0.0514071,0.0642539
0.0146767,0.0333782
-0.0121289,-0.00341696
-0.0516069,-0.00726853
-0.0767755,-0.00454206
-0.0221936,-0.0257842
0.0479109,-0.0543693
0.0906049,-0.0266356
0.0833511,0.0220387
0.0484937,0.0323717
0.000929471,0.0181009
-0.0376343,0.000882396
-0.0800728,-0.0177815
-0.101349,-0.035528
-0.0327827,-0.0456649
0.0771845,0.00780289
0.0911732,0.0533716
0.0391526,0.0600649
0.00480335,0.0467539
-0.0286349,0.0382313
-0.0735416,-0.0543067
-0.0959177,-0.0985161
-0.0929367,-0.0534108
-0.0823759,-0.00515658
-0.0447682,-0.0202628
-0.000265411,-0.0309311
0.0246979,-0.0184999
0.0294455,0.00521129
0.0268048,0.0302592
0.0221158,0.0318377
0.0367489,0.0468649
0.0610957,0.0856111
0.086071,0.0369124
0.0976074,-0.0387403
0.0751796,-0.00630314
0.0633681,0.00233832
0.034342,0.00862163
0.00112447,0.00825206
-0.0330291,-0.00346044
-0.071235,-0.00651108
-0.0839314,-0.0320423
-0.0603684,-0.003934
-0.0285346,0.0274692
-0.0119612,0.000645736
-0.0108693,-0.01289
-0.00637323,0.00585056
0.00166206,-0.0176273
-0.00105445,-0.0264819
-0.00368097,-0.0120315
-0.0106349,0.00618467
-0.000502278,0.00121445
0.0318481,-0.00167311
0.0569136,-0.0182191
0.0473876,-0.0391999
-0.00601292,-0.00296506
-0.0376794,0.0193353
-0.0102433,0.00635398
0.0146597,0.00561016
0.0144737,0.0242365
-0.00472375,0.0249861
-0.0313638,0.00468928
-0.0407802,-0.0115693
-0.0149908,-0.00502736
0.00311723,0.00880112
0.00728694,0.00660972
0.0137558,-0.00202511
0.0206911,-0.00255711
0.011524,0.0185743
0.00932111,0.0248535
-0.0256307,0.004784
-0.0806157,-0.0249739
-0.087295,-0.0388289
-0.0301891,-0.0299432
0.0523344,-0.0153047
0.0727176,0.0173516
0.0456531,0.0470787
0.0229992,0.0169612
-0.0225799,-0.0271159
-0.0451606,-0.0133515
-0.0455213,0.013174
-0.0341985,0.0176208
-0.0138795,0.0267835
0.0288563,0.00784602
0.0648774,-0.0288918
0.0674042,-0.0321748
0.0796626,-0.00561248
0.110787,0.0121855
0.0753667,0.0137841
0.0167094,0.000132155
-0.0342244,0.0150371
-0.0613093,0.016057
-0.0314239,-0.0197503
-0.0177964,-0.0186384
-0.0333754,-0.00828918
-0.0509927,0.0126592
-0.0692532,0.0367637
-0.0846833,0.0444818
-0.0645171,-0.0329868
-0.00165812,-0.0793752
0.0549533,-0.0270061
0.0445944,0.0183878
0.021233,0.0133295
0.0283877,-0.00345205
0.0176345,-0.00313436
-0.0268646,-0.00869273
-0.0582736,-0.0249882
-0.0667837,-0.0314656
-0.0595137,-0.0213589
-0.0128621,0.0131884
0.0436776,0.0387481
0.0541907,0.00643373
0.0384292,-0.0188214
0.028756,-0.0197364
0.0155196,-0.0251818
0.0111204,0.000987243
0.0215614,0.0349837
0.0227212,0.0520382
0.00926553,0.0426103
0.0223503,0.025034
0.048396,0.014781
0.0321842,0.0147725
0.00375904,0.00314003
-0.0220556,-0.00728917
-0.0331062,-0.00888334
-0.0229717,-0.00374018
-0.0228617,-0.000187038
-0.0252239,-0.0056327
-0.00368996,0.00951091
0.00812584,0.0492325
-0.00737554,-0.00740933
-0.0142975,-0.0597078
-0.00564785,-0.0234924
0.0112928,0.0218219
0.0306057,0.0438315
0.0320073,0.025216
0.0245631,0.000266214
0.0131744,-0.0311282
-0.0102606,-0.0295268
-0.0287942,-0.00542288
-0.0308772,0.00846158
-0.0349806,0.0234667
-0.0169965,0.0280473
-0.0103024,-0.0169434
-0.0379474,-0.0453593
-0.0546148,-0.047427
-0.036343,-0.0635745
-0.0105674,-0.0493092
0.0208171,-0.0260438
0.0719925,-0.00271047
0.125224,0.0163459
0.14205,0.022342
0.111863,0.0312467
0.0613198,0.0329833
0.015336,0.0310908
-0.0362229,0.0204672
-0.0859197,-0.00676322
-0.11174,-0.0211806
-0.100976,-0.00568666
-0.0752701,0.0165224
-0.0820499,0.0284115
-0.0956035,0.000316474
-0.0584672,-0.00155027
0.00497257,0.0139856
0.0493143,-0.0228323
0.0367267,-0.0463851
0.0459025,-0.0176916
0.103728,0.00580393
0.066149,0.00396855
0.0291627,0.00413054
0.0322498,0.00441408
-0.000610263,0.00543363
-0.0297673,0.00085615
-0.0274408,-0.00215647
-0.0175966,0.0247184
-0.0042511,0.0636274
0.00273405,0.0378699
-0.00872761,0.0488403
-0.00951709,-0.0164412
-0.00553858,-0.086307
-0.0136927,-0.0626832
-0.0233531,-0.0253317
-0.0413384,-0.0145943
-0.0251782,0.00565076
0.00763003,0.0736245
0.00837964,0.0559738
-0.000420325,0.0340649
0.00212868,0.00878222
0.00818332,-0.0292778
0.00601127,-0.0469603
0.00133878,-0.0296212
0.0294895,-0.0198467
0.0704066,0.00350999
0.07726,0.00488056
0.044318,-0.00875757
-0.0166324,-0.0200553
-0.0599123,-0.0145754
-0.0498029,0.0107895
-0.0269113,0.00965185
-0.0222342,0.0132702
0.000358372,0.0233956
0.018369,0.0156962
0.0197833,0.00804512
0.011695,0.00472038
-0.016187,0.000891275
-0.0393132,-0.0187335
-0.0559108,-0.0272227
-0.0506626,-0.0131666
0.00639649,0.000633928
0.0823693,0.00640243
0.108304,0.00844078
0.0680366,-0.00406814
0.00999804,-0.00957447
-0.0414882,-0.00573007
-0.0544307,0.00735617
-0.0574703,0.0155578
-0.0329606,0.010682
0.0194981,0.0172075
0.0321725,0.00282513
0.0131593,-0.00371952
0.00369609,0.00304548
0.00567789,-0.00528918
0.00187416,-0.0344228
-0.0166296,-0.0289006
-0.0374512,-0.0115117
-0.030136,-0.00982602
-0.00311402,0.0174414
0.0172871,0.027807
0.0162359,0.0209109
0.00341093,0.0096256
0.0127631,-0.00885642
0.0135266,-0.0209265
-0.00275677,0.00146746
-0.00107225,0.0101678
0.014399,0.0054079
0.0111186,0.0358494
0.00538242,0.0317881
0.00953781,-0.0181578
0.0124177,-0.0261264
0.0223695,-0.0182173
0.0274521,0.0105937
0.00538929,0.0325281
0.00162378,0.0114742
0.0115835,-0.0129429
0.00435222,-0.00481714
-0.0104587,0.00555053
-0.0260222,0.000682696
-0.055699,-0.0181521
-0.07956,-0.023058
-0.0692245,-0.0249731
-0.0240664,-0.00521105
0.0469958,0.0174348
0.0851974,0.0397464
0.0578946,0.0083048
0.00446086,-0.02753
-0.0313931,-0.0545065
-0.0491456,-0.0465166
-0.0238504,-0.014237
0.029344,0.0154907
0.063184,0.0465567
0.0777334,0.0310371
0.0631666,-0.0100429
0.0303318,-0.0221274
-0.00373578,-0.000383198
-0.021688,0.0141883
-0.0368193,0.0118423
-0.0470009,0.0129211
-0.0469064,0.00699116
-0.0327721,-0.0167939
-0.0357705,-0.034897
-0.0444298,-0.0147608
-0.0540768,0.011908
-0.063083,0.0182637
-0.05772,0.0398397
-0.0346586,0.0427031
0.007762,-0.00438214
0.0313571,-0.00772576
0.0307787,0.00264511
0.0196476,-0.00847424
0.0234893,-0.00916387
0.0401687,-0.0112142
0.0231759,-0.00675348
-0.00701082,0.0108517
0.00199346,0.0075678
0.0355493,-0.0199764
0.0497964,-0.0321775
0.0388951,0.00155423
0.026042,0.0134157
0.0229369,0.022063
0.0199888,0.0238812
0.00907119,-0.00653889
-0.00985299,-0.0299637
-0.0226637,-0.0160802
-0.0198028,0.00370308
-0.0228631,0.0199251
-0.020042,-0.00243208
0.0215346,-0.0219727
0.0460125,-0.00728257
0.0312122,-0.0162018
-0.00670916,0.00118792
-0.0245378,0.041922
-0.0325897,0.0200649
-0.0300805,-0.0110794
-0.023213,0.0413465
-0.00622468,0.025123
0.00261076,-0.0213526
-0.0276747,-0.0272182
-0.0427131,-0.0234635
-0.0200257,-0.00987304
0.0200034,-0.00535417
0.0409306,0.00896468
0.0190589,0.0206486
-0.00266781,0.0293144
0.0279926,0.0167404
0.0511066,-0.0341231
0.0137416,-0.0444903
-0.0105281,-0.0183705
-0.00822007,-0.00510207
0.00145528,0.00618254
0.0161921,0.0175783
0.00500528,0.0133973
-0.0187335,0.00199945
-0.023525,-0.0089018
-0.0177034,-0.0105003
-0.0244685,-0.00417513
-0.0196168,0.0157239
0.000597281,0.0173856
0.0356921,-0.00288973
0.0509984,-0.0183293
0.0170863,-0.017636
-0.0165858,-0.00664532
-0.0211375,0.00374486
-0.00623618,0.0114755
0.0146064,0.0354234
0.0188821,0.0571369
0.00303869,0.0174072
-0.017278,-0.0249412
-0.0499201,-0.0280567
-0.0608098,-0.0175764
-0.0460628,-0.0125796
-0.0323613,-0.0227248
-0.0281923,-0.0282642
0.00899956,-0.00235203
0.0497765,0.0160427
0.0591501,0.0155636
0.0486685,0.00512215
0.0326627,0.000977964
0.0252558,0.00219709
0.00870971,0.00570613
-0.0118503,0.00294267
0.00173573,-0.00813652
0.0114571,-0.0020231
0.0221887,-0.00820677
0.0387737,-0.0335813
0.0319804,-0.0243746
0.00410522,0.00909993
-0.023069,0.0187391
-0.0536695,0.0125061
-0.0878609,0.00719001
-0.0825858,0.0163368
-0.0217936,0.0138459
0.0530592,0.00366571
0.0861563,0.011699
0.0457022,0.0050922
-0.0225586,-0.00998258
-0.0594285,-0.0098578
-0.0635547,0.0158139
-0.0523817,0.0341033
-0.0357096,-0.0119992
-0.0196335,-0.0295267
0.00983985,-0.0224461
0.0388969,0.00159073
0.0502594,0.0224886
0.0366411,-0.00149772
0.0182809,0.0068919
0.0145654,0.00424604
0.0163981,-0.00159945
0.00138553,0.00679319
-0.00473167,0.0150228
0.00722776,0.0218001
0.000943878,0.00618985
-0.0142156,-0.0330399
-0.0230122,-0.0400937
-0.0150577,-0.0108161
0.0022499,0.0037869
-0.00212747,-0.000801719
-0.00783683,-0.00984391
0.0126064,-0.0083962
0.0334659,-0.0227801
0.0284254,-0.0319413
0.0119635,-0.00214958
-0.0025112,0.0232842
-0.00315932,0.0274888
-0.00536314,0.0539632
-0.0039078,0.0535526
-0.00166407,-0.00286852
0.00909704,-0.0297185
0.0337306,-0.0447452
0.00936074,-0.0196508
-0.00518581,0.00978032
0.0120346,0.000339834
0.0270715,-0.00919946
0.0144729,-0.013746
-0.00864266,-0.0040176
-0.0304094,0.00279121
-0.0331883,0.0143888
-0.025693,0.0488385
-0.0229305,0.0261313
-0.0425101,-0.0247641
-0.0616409,-0.0115329
-0.0394773,0.0047753
-0.00229912,-0.00176697
0.0204517,-0.00495717
0.0452219,-0.00631601
0.0502416,-0.00567411
0.0231971,0.0127198
-0.00865964,0.00374957
-0.0190623,-0.0139495
-0.0120827,-0.0130439
0.0048767,-0.0185774
0.0125868,-0.00648281
0.0133957,0.0026281
0.00158632,-0.0101543
-0.00273052,-0.015448
0.0059554,0.00359437
0.0101284,0.0417201
0.0300583,0.0342544
0.0316439,0.00111621
0.00617443,-0.00464665
-0.00951493,0.00239096
-0.00771335,0.00350127
-0.00256535,0.0168345
-0.00679794,0.0132794
0.00585653,-0.0219462
0.00592667,-0.0374606
-0.0251438,-0.0125124
-0.0479727,0.0178452
-0.0325645,0.0187686
-0.0381112,-0.00641319
-0.0586902,-0.017953
-0.0158691,-0.0042361
0.0210587,0.00560991
0.0339107,-0.00689154
0.0492956,-0.0111653
0.0485806,-0.00299494
0.0474578,0.000523644
0.0392793,0.00381598
0.0146917,-6.9e-05
-0.00968367,-0.00955991
-0.0174836,-0.00276595
-0.00615202,0.0103744
0.00278747,0.0114499
-0.00524121,0.009916
-0.0107857,0.0154001
-0.00629381,0.0132347
-0.00463803,-0.00676416
-0.0121772,-0.0148753
-0.0134223,-0.00368908
-0.00035046,0.0230349
0.0244006,0.0689649
0.0368749,0.0408869
0.0241163,-0.0237038
0.00452969,-0.0396315
-0.00375959,-0.0354258
-0.0115328,-0.0330903
-0.0310977,-0.0158898
-0.0323033,0.00999461
-0.0186513,-0.0145025
-0.0204738,-0.0315802
-0.0190145,-0.0199093
-0.0172844,-0.0085586
-0.0203338,0.00866965
-0.022514,-0.00266994
-0.0190514,-0.0116071
-0.00638506,0.00667407
0.0133522,0.0297466
0.0411395,0.0343863
0.0460541,0.0221733
0.0393552,0.00415783
0.0288434,-0.00360566
0.0101205,-0.00688408
-0.0111335,-0.0057874
-0.026438,0.00881195
-0.0175725,0.00306203
0.00151398,0.00365618
0.00735325,0.0184725
0.00761477,0.0170952
0.00667608,-0.0034013
0.0122409,-0.0227994
0.0079239,-0.0367558
0.000108038,-0.0316327
-0.00591064,-0.0133583
0.000426301,0.00926454
0.0132122,0.0234306
0.0155819,0.0205229
0.00791631,0.00591991
-0.0152352,0.00147572
-0.0417991,-0.00614253
-0.0633178,-0.0132083
-0.0673402,-0.000843327
-0.0476094,0.0219274
-0.014535,0.0295311
0.0121736,0.0149411
0.0230007,0.0186511
0.0302452,0.00194028
0.0375877,-0.0281224
0.0351284,-0.0215119
0.0258318,-0.00719174
0.0171817,-0.00819612
0.0261669,0.0129792
0.0362267,0.0289973
0.0273166,0.0200133
0.0179125,0.00604838
0.0136774,-0.0253912
-0.0193098,-0.0269597
-0.0639717,-0.0218896
-0.0663812,-0.0212761
-0.0320005,-0.00329224
-0.0080722,0.0155457
0.00135144,-0.000533136
0.011345,-0.00673438
0.0139833,-0.0080282
0.00387329,-0.0265265
-0.00582736,-0.0115146
-0.0058284,0.00275134
0.00773773,-0.00233093
0.0294101,0.00690825
0.0260391,0.0073524
0.00197008,0.00639333
-0.00338358,-0.000495357
-0.014256,-0.000402238
-0.0234549,-0.0151834
0.00554216,-0.0312548
0.0247118,-0.000336947
0.0195188,0.0307499
0.0248225,0.0320809
0.026519,0.0450779
0.00852641,0.069738
-0.00298608,0.0217654
-0.0198971,-0.0471119
-0.0376498,-0.0159464
-0.0423374,0.000348151
-0.0254666,0.0170507
0.0151768,0.0170214
0.0427797,-0.0158097
0.0292699,-0.017652
0.0206818,-0.00792247
0.00105947,-0.00748877
-0.0293069,-0.00387242
-0.0355533,-0.0194949
-0.0143894,-0.0271841
-0.000626009,-0.0173089
-0.00551954,-0.021489
-0.00160012,-0.0232456
-0.000821559,-0.0172896
-0.00739599,0.000141878
-0.0105812,0.0152133
-0.00324662,0.017577
0.00583703,0.0201903
0.025667,0.0155577
0.0330529,0.00456895
0.0193145,0.014884
0.00980013,0.0271831
-0.00255072,0.0168137
-0.0119169,-0.00185378
-0.0139728,-0.00188337
-0.0125479,0.00568113
-0.000731188,0.0105149
0.00865504,0.00142051
0.00710772,-0.00831439
0.000897839,-0.00298377
-0.0203161,-0.00241894
-0.036089,-0.00282401
-0.0372442,0.00134748
-0.027769,-0.00933416
-0.0113388,-0.0157795
0.00500344,-0.0066386
0.0117723,0.00472974
0.014745,0.00894122
0.031688,0.0048832
0.0343243,-0.00047883
0.0104807,-0.00133063
-0.00814553,0.00286367
0.00287245,0.00449524
0.0124307,0.00686251
0.00970362,-0.00304012
-0.0111389,-0.0146146
-0.0381697,-0.0239792
-0.0422533,-0.0216701
-0.0268299,-0.00547315
-0.00679932,0.00835819
-0.00692852,0.00360118
-0.00391622,-0.00573353
0.0192949,0.000662241
0.0338077,-0.00301131
0.0397812,0.0125015
0.0607332,0.0430723
0.068188,0.0422803
0.0439761,-0.0182064
0.00563586,-0.0427677
0.00344485,-0.0205106
0.0187402,0.00531805
0.00826274,0.02475
-0.0109831,0.012157
-0.0306437,-0.0153678
-0.049527,-0.0191243
-0.0558139,-0.0185848
-0.0499461,-0.0112953
-0.0454656,-0.00964027
-0.0275803,-0.00435858
-0.00656613,0.0117701
0.00531621,0.0250476
0.00481729,0.0360259
0.00649263,0.000254473
0.0132509,-0.0254931
0.00758001,-0.0255813
0.00839365,-0.0121122
0.0199856,-0.00877077
0.00831192,0.00642092
-0.0122461,0.0513536
-0.00872738,0.0672559
0.00445296,0.0179236
0.013499,-0.0332714
0.0155539,-0.0327475
0.0193859,-0.0168911
0.0147079,-0.0111284
0.0223299,0.0153315
0.0205758,0.0235073
-0.00374662,-0.00570248
-0.0186247,-0.0225675
-0.0153391,-0.0121492
-0.0153922,-0.00695169
-0.0250575,-0.00550504
-0.0191921,0.00600909
0.00537039,0.00935795
0.0155678,0.00167183
0.0158481,-0.00636965
0.021926,-0.00658603
0.0225499,0.00511753
-0.00876512,-0.0107753
-0.0351115,-0.0264899
-0.0475848,-0.000705724
-0.034895,0.0372319
-0.00435884,0.0512697
0.00370535,0.0274795
0.000623513,-0.0129137
0.0153604,-0.0245877
0.0218675,-0.0216668
-0.00626648,-0.0232589
-0.0283443,-0.0149525
-0.0221387,0.00536276
0.00841361,0.00998464
0.0416467,-0.0128275
0.0466117,-0.0152612
0.0105395,0.00665147
-0.0115337,0.0193709
0.0129236,-0.0102713
0.0244072,-0.0362548
0.00114195,-0.0227659
0.00356775,0.0147377
0.011573,0.0372965
0.000134392,0.0306225
-0.00108424,0.0207846
0.010943,0.019989
-0.00475568,0.0367331
-0.0334671,0.0189428
-0.0236668,-0.0291264
-0.00496394,-0.0206536
0.00474062,-0.0241993
-0.0116952,-0.0157301
-0.0179532,-0.011581
-0.0155159,-0.0156567
-0.0162198,-0.0103735
-0.0086082,0.00928318
0.0128718,0.018604
0.036288,-0.00675268
0.0564814,-0.00766742
0.0446243,0.0109085
0.017701,0.0180639
-0.00714502,0.0226257
-0.0383198,0.0139484
-0.0452972,-0.0138022
-0.0380867,-0.0344812
-0.0289549,-0.0157276
-0.00489343,0.0114007
0.0075146,0.00556151
0.00887285,-0.00736755
0.00285234,-0.0047811
0.00780848,0.016923
0.00588602,0.0249022
0.00395409,-0.00441778
0.0139568,-0.0038154
0.0315821,-0.0209249
0.0390337,-0.0329793
0.0166761,-0.007697
-0.0189032,0.00889077
-0.0364582,0.0157167
-0.031074,-0.00786709
-0.0230801,-0.0109516
-0.0444418,0.000157399
-0.0370801,-0.00358896
-0.0118103,-9.24e-05
0.00263323,0.0113721
0.0369091,0.0121679
0.0505503,0.018565
0.0472239,0.0394397
0.0376701,0.0304588
0.0232419,0.0198899
0.000512508,0.0088976
-0.00165097,-0.0218511
-0.00186244,-0.0273171
-0.0113814,-0.0236149
-0.0155552,-0.020393
-0.0233923,-0.00953475
-0.0340107,-0.0107692
-0.0391641,-0.020994
-0.0353223,-0.0150275
-0.00417578,0.00467287
0.0250917,0.0144634
0.0284391,0.0103724
0.020861,-0.00474864
0.0124746,-0.0185715
0.00803216,-0.00804255
0.00541459,0.0140896
0.00482426,0.0193054
0.00562015,-0.00208114
0.0227224,-0.0143182
0.0188999,0.00669298
-0.00804689,0.0160868
-0.0202747,0.0100384
-0.0052038,0.00335605
0.000153743,0.000400149
-0.0105919,-0.000240324
-0.0175724,-0.00153034
-0.0100129,0.00385245
-0.0163563,0.00930327
-0.037015,0.0042615
-0.025008,-0.00909637
0.00177384,-0.0245819
0.00686975,-0.0146855
0.01009,-0.000726341
-0.0100899,-0.00140385
-0.00921428,0.00214061
0.0146253,0.0110055
0.00624983,0.0171622
0.00603843,0.0188782
0.0416724,0.0149744
0.0512026,-0.00148291
0.0464224,-0.00370545
0.036088,-0.00181557
0.0134941,-0.000147708
-0.00815741,-0.0037623
-0.0284894,-0.0136406
-0.0171852,0.0123508
-0.0191333,0.0177701
-0.0157662,0.00795938
-0.0140498,0.000913084
-0.0317079,-0.0188969
-0.0421224,-0.0372512
-0.0216804,-0.0321048
-0.00291502,0.00829866
-0.00115446,0.0372516
-0.0124785,0.0192218
-0.0120346,-0.0100169
0.0126737,-0.0210795
0.0322987,-0.0171766
0.033596,-0.00721353
0.0411824,0.00459236
0.036288,0.00594791
0.00832463,-0.00138932
-0.00876241,0.00222477
-0.0140392,0.00190165
-0.0163422,-0.0053809
-0.0290267,-0.00344962
-0.0231144,0.00270672
0.000628674,0.00359384
0.0253839,0.00801957
0.0452832,0.0169178
0.0434504,0.0133406
0.0177465,0.0227062
-0.0108716,0.0169991
-0.0275243,-0.0170308
-0.0572791,-0.0133106
-0.0595977,-0.00548385
-0.0169065,-0.0157346
0.0189313,-0.0170677
0.0373833,-0.00751661
0.0412384,-0.00547507
0.0205415,-0.00608508
-0.00641461,0.00604217
-0.0191393,0.0362379
-0.0249615,0.0441545
-0.0241769,0.00115844
-0.00242082,-0.0297071
0.0159259,-0.0382899
0.00997897,-0.0307227
0.00210962,-0.000564225
-0.0107282,0.0161581
-0.0271696,0.00494917
-0.0333967,-0.0145496
-0.0180142,-0.0259599
-0.0144154,0.00399397
-0.0181587,0.037065
-0.000446995,0.0269031
0.012613,-0.00292748
0.00253963,-0.0162499
-0.00117407,-0.0223243
0.0260645,-0.0178175
0.0395833,0.001706
0.0429364,0.0353803
0.0703536,0.033657
0.0831603,0.00345913
0.0670049,-0.00684291
0.0321692,-0.00354113
0.00464657,-0.00405935
-0.0251688,-0.00111374
-0.051819,0.00640103
-0.0569088,0.0118383
-0.0401847,0.00405173
-0.0423236,-0.00459543
-0.0573034,-0.000955509
-0.0578807,-0.01286
-0.0611768,-0.0124582
-0.0569631,-0.0050038
-0.0249141,-0.0108009
0.00222626,-0.00953297
0.0304003,0.00236674
0.0526164,0.0104319
0.0412426,0.010685
0.0263802,-0.00495757
0.0217835,-0.00801934
0.010531,-0.00639887
-0.00579023,0.00686184
0.000261289,0.0366489
0.0244953,0.0501706
0.0408426,-0.0174863
0.0365156,-0.0358177
0.0194097,-0.0071716
-0.00324063,0.0228207
-0.0237747,0.00140132
-0.0275343,-0.0260556
-0.0295872,-0.0225233
-0.0312696,-0.00591812
-0.021368,0.00932802
-0.0109595,0.0110067
-0.00872142,-0.00392953
-0.0195492,-0.00537961
-0.0326977,-0.0088715
-0.0198506,-0.0209043
0.0154026,-0.0216292
0.0194681,-0.00512945
0.0149018,0.00778077
0.0378941,0.0149467
0.0673453,0.0278378
0.065528,0.0260614
0.0405077,-0.00292852
0.0270048,-0.015867
0.0216752,-0.014338
0.0207526,-0.00403143
0.0177564,0.0156611
0.0179091,0.0236709
-0.019259,0.0183773
-0.0643204,0.0245806
-0.0553721,0.0337751
-0.0457853,-0.0101791
-0.0645383,-0.0351
-0.0592531,-0.0284796
-0.0134152,-0.0118865
0.0268499,0.00199717
0.046392,0.0048343
0.0488169,0.00313274
0.0247958,-0.00623384
-0.0081158,-0.00814185
-0.0540781,-0.0177771
-0.0833807,-0.0221777
-0.0812684,-0.0109329
-0.0404366,0.00771941
0.0189959,0.0257542
0.0501176,0.0189574
0.0452177,-0.00479921
0.0249951,-0.0120703
0.0251525,0.0120814
0.000537524,0.0176878
-0.0190204,-0.0181392
0.0154979,0.00631626
0.0420144,0.0275918
0.0358812,0.0207533
0.0196917,-0.00753797
0.00184048,-0.0228241
-0.00470709,-0.0135016
0.00192651,-0.0137096
0.000179534,-0.0119658
0.00553951,-0.00110549
0.0169289,0.0101069
0.0357546,0.00819095
0.0238645,0.0148485
0.00489727,0.0294758
0.00641694,0.011545
0.0200026,-0.0189668
0.00903007,-0.0191849
-0.0140193,-0.0120527
-0.0325373,-0.00367271
-0.0400028,-0.00186346
-0.0444991,-0.00246409
-0.0464709,-0.00336903
-0.0428682,-0.00970403
-0.0315464,-0.00897505
0.00913742,-0.000840125
0.0560139,-0.00395432
0.0656893,-0.000843393
0.05488,0.00755899
0.039518,0.0106714
0.0135034,-0.00491538
-0.019979,-0.00720766
-0.0705952,0.0178892
-0.102117,0.0102733
-0.0859499,-0.02189
-0.0500742,-0.00992251
-0.014007,0.0213795
0.000784222,0.0327032
-0.0049325,0.0416646
-0.000102744,0.0241251
0.0273176,-0.0318568
0.0308292,-0.0383897
0.0193431,-0.00968669
0.0076517,-0.00355199
0.00345489,-0.000818013
0.0111149,-0.00726232
0.016626,-0.00992501
0.021636,-0.00602649
0.0218386,-0.0137998
0.00775627,-0.0141935
-0.00106164,-0.00742317
0.00715377,-0.00251994
0.0287717,-0.00226102
0.0329899,-0.00217821
0.0239762,0.0011826
0.0157407,0.0155568
0.00296788,0.0156619
-0.0159048,0.00375413
-0.0105357,0.00174248
0.00893824,0.00324982
0.0139995,0.0015791
0.0190636,0.00757781
0.00704346,0.0215646
-0.0138598,0.0235077
-0.0177346,0.0221685
-0.000194002,-0.00439375
0.00201295,-0.0277872
-0.0116535,-0.0256032
-0.0132079,-0.0166377
-0.00378072,0.00519136
-0.00504859,0.0107351
-0.00651948,0.0198753
-0.00456382,0.010445
-0.0206662,-0.00516874
-0.0323299,-0.0115401
-0.0252623,-0.0104979
-0.0113395,-0.00800109
0.00595943,-0.00150162
0.0134898,-0.00236461
-0.0150547,-0.00244731
-0.00970181,-0.00294934
0.0132158,-0.00474316
0.0324546,-0.00138608
0.0243426,0.00287203
0.00522779,0.011644
0.00220975,0.0103765
-0.0132859,0.00988702
-0.0246251,0.0238404
-0.0154422,0.0432366
0.0014003,0.0626867
-0.000770059,-0.00415961
-0.00125869,-0.090358
-0.00942098,-0.0668694
-0.00195057,-0.0393668
0.00277695,-0.0375739
-0.00544403,-0.00979758
-0.00202664,0.0172263
0.0063391,0.020527
0.0126018,0.0056146
0.0111109,0.00627832
0.0124463,0.0223582
0.0269368,0.0248849
0.03636,0.0271958
0.0355467,0.0125611
0.0268499,0.00521098
0.0129278,0.00800944
-0.00889331,-0.0071599
-0.0259452,-0.00690503
-0.035073,0.000976505
-0.0350978,-0.00689976
-0.0215136,0.000509421
-0.0125796,-0.00224231
-0.00726622,-0.00777109
-0.000749398,-0.00842746
0.00362705,-0.00838985
0.000488551,-0.00857296
0.00126513,-0.0116031
0.0158778,-0.000299283
0.0311301,0.0142912
0.0271599,0.014651
0.0397045,0.0177008
0.0158951,0.0165075
-0.0287885,-0.0153217
-0.0406837,-0.0473812
-0.0291319,-0.0395277
-0.0271912,-0.0131468
-0.0167685,0.00855923
0.00338956,0.0187486
0.000763219,0.0219521
-0.0152051,0.009326
-0.0137362,-7.61e-05
-0.0194863,0.00421686
-0.0253544,0.00518893
-0.0191158,0.00247159
0.00684945,-0.00204168
0.0476201,0.0115027
0.0491225,0.0343249
0.0318044,0.0104327
0.00610138,-0.0169277
-0.000650059,-0.0148338
-0.00479537,-0.00843447
-0.0169247,-0.00151767
-0.0363938,-0.0127299
-0.0325914,0.00204852
-0.00177498,0.0224672
0.0320943,0.004411
0.0408858,-0.00868031
0.0161808,-0.00622197
-0.0206069,-0.00707193
-0.0203968,-0.0128618
0.0255352,-0.0133055
0.0739629,0.00314045
0.077734,0.00858528
0.060137,0.00201606
0.0272869,0.000838985
-0.0171581,0.000818161
-0.0628935,0.0012798
-0.108389,0.00402377
-0.141153,-0.00919774
-0.128528,-0.0154651
-0.0792809,0.0134543
0.00389701,-0.00348208
0.0436355,-0.030522
0.0523698,-0.0195354
0.0529682,-0.00423817
0.0388789,-0.0024394
0.0162722,0.00980623
0.0136366,0.0307846
0.0296383,0.0397451
0.0435285,0.0102697
0.0476278,0.00153379
0.0476312,0.00734196
0.034375,0.00868713
0.0144329,0.00427746
-0.00078297,-0.00375961
-0.0184365,-0.0094793
-0.0302525,-0.0114185
-0.00994232,-0.00812639
0.0100403,0.00012896
0.00858444,0.0051765
0.00178446,0.00307728
-0.00968752,-0.0066767
-0.0335741,-0.0181503
-0.051863,-0.0156785
-0.037964,0.0188751
-0.0087364,0.0241538
-0.00584598,0.0094623
-0.0187907,0.00961555
-0.0188909,0.00968243
0.000455757,0.0164778
0.034829,0.000718008
0.0583271,-0.00683104
0.0439736,-0.0157346
0.030449,-0.0406193
0.0294453,-0.0170758
0.0113011,0.00833759
-0.0227291,0.00133175
-0.0485293,0.000383979
-0.0553652,-0.00620147
-0.0445651,-0.0153418
-0.0383471,-0.00568758
-0.0122646,0.00960984
0.00697455,0.0117881
0.0134487,-0.000417017
0.0386568,-0.00808436
0.0445058,0.00198673
0.0172317,0.0165348
0.00528598,0.00592913
-0.00542204,0.00500105
-0.0209787,0.023967
-0.003014,0.030864
0.00118543,-0.00358443
-0.0295371,-0.0254293
-0.0457648,-0.0225717
-0.0227435,-0.029292
-0.00743538,-0.0297328
-0.0120806,-0.0212214
-0.000626641,-0.00523683
0.0180239,0.00968629
0.0308811,0.00892791
0.0320817,0.011944
0.03696,0.0305597
0.0444379,-0.0075444
0.0484183,-0.0386264
0.0180782,-0.0114624
-0.00796579,0.0135775
-0.0155164,0.0326666
-0.0105919,0.0379502
-0.0223907,0.00804562
-0.0379648,-0.00629377
-0.0357994,-0.00114298
-0.0279866,0.00979216
-0.0171794,0.00518655
-0.0151162,-0.00396583
-0.0013361,0.00561642
0.0238081,0.0142018
0.0230553,0.0056101
0.0160455,-0.00672147
0.00578344,-0.0121067
-0.0108418,-0.0144251
-0.0235474,-0.0122196
-0.0377847,0.000122647
-0.0457533,-0.00761094
-0.0184408,-0.0122532
0.0204251,-0.00127211
0.0282377,0.00716265
0.04982,0.00997733
0.112076,0.00996884
0.160271,0.00391944
0.148223,-0.00515876
0.0710446,-0.0081459
-0.00807088,0.00242013
-0.0598454,0.0082155
-0.0891012,-0.00118637
-0.0903814,0.00353885
-0.0951416,0.0175298
-0.0946416,0.00807196
-0.0857351,-0.0164352
-0.0652972,-0.0275817
-0.0356169,-0.0212999
-0.00418757,-0.000354978
0.0117696,0.0111351
0.0021461,0.0131857
-0.016322,0.0101223
-0.0142018,-0.00854926
-0.0164253,-0.0246471
-0.0269205,-0.0246976
-0.0223464,-0.00960811
-0.00737195,0.0112068
0.0245982,0.0102796
0.0675577,-0.00389882
0.0896227,-0.0023104
0.0805949,-0.00663605
0.0612815,0.000183187
0.0455857,0.0071973
0.0227681,-0.005187
0.00244507,0.00360886
0.00981301,0.0225949
0.0137539,0.0220461
-0.00240847,0.0106722
-0.0198486,0.00631365
-0.038766,0.00140547
-0.0610555,-0.00694467
-0.0705437,-0.00880913
-0.0597289,0.00134212
-0.025501,0.0127468
0.00689293,0.0417479
0.0218552,0.0349917
0.0267554,-0.00624782
0.0273875,-0.0205232
0.02244,-0.0364895
0.0262295,-0.0298558
0.0242416,-0.0017456
0.016998,-0.00239278
0.0287504,0.00155212
0.0274145,0.0130951
0.0130159,0.00567977
