Comp Ch 3,Comp Ch 4
0.0567204,-0.0021399
0.05943,-0.0113263
0.0309414,0.0225901
-0.0101677,0.120613
-0.0220102,-0.00521728
-0.0145076,-0.0511211
-0.0202909,-0.0195571
-0.0020708,-0.00590674
0.0398649,-0.0180674
0.075661,-0.0262865
0.0962611,-0.0233903
0.0969325,-0.0113834
0.125351,-0.00263771
0.112411,0.0127676
0.0396412,0.00053183
-0.0669378,-0.015824
-0.120924,-0.00221844
-0.11066,0.0327468
-0.10177,0.0515707
-0.0861618,-0.0200072
-0.0547153,-0.0788602
0.00151359,-0.0461527
0.0462474,0.0369104
0.0686713,0.0250374
0.0688258,0.0181073
0.033895,0.031282
-0.0170777,0.0298097
-0.0626045,-0.00094115
-0.0784164,0.00583567
-0.0597974,-0.00938699
-0.0160422,-0.011198
0.016929,-0.00814238
0.0190649,-0.00216239
0.0229485,0.0157567
0.0335087,0.0214294
0.0250553,-0.0107327
0.00368383,-0.0263824
-0.00274624,-0.0161206
0.00282992,0.0158764
0.00993257,0.0398627
0.0287757,0.0338842
0.064881,-0.0163818
0.0608976,-0.0231598
0.00567224,0.0277444
-0.0538284,-0.0349399
-0.0617612,-0.0409164
-0.0191292,0.0125717
0.0782276,0.0168821
0.152067,0.000602025
0.129713,-0.0123072
0.053837,0.00637562
-0.0245291,0.0185753
-0.0928202,-0.0113969
-0.135625,-0.0334854
-0.134689,-0.0296264
-0.102205,0.0103406
-0.0664787,0.00330442
-0.0398553,-0.00821109
-0.0243096,0.00780021
-0.0167363,0.0012388
-0.0120787,-0.0126372
0.00392465,-0.0107252
0.0145354,-0.000869993
0.0562064,0.0233779
0.0948521,0.0337591
0.0877772,0.0178539
0.0665938,-0.00635892
0.0379548,-0.0140255
-0.0133781,-0.0119548
-0.0537304,-0.0134455
-0.0684833,-0.00120658
-0.0338982,0.0357402
0.00394391,0.0253576
0.0138693,-0.047121
0.0137366,0.0257287
0.00268163,0.0153625
-0.0174088,-0.0429217
-0.0201622,-0.0295472
-0.0250429,0.0332093
-0.0330319,0.00659824
-0.00944954,-0.0137398
0.0228425,0.01335
0.0706563,0.00855241
0.121666,-0.00860788
0.121853,-0.000639704
0.0632806,0.0655619
-0.0338463,0.0269812
-0.116095,-0.0585274
-0.108322,-0.0154986
-0.0619205,-0.00750017
-0.0220567,-0.0212894
0.0137132,-0.0551409
0.0107719,-0.0254955
0.0166205,0.0354743
0.0188167,0.0206391
0.00496096,0.00179557
-0.0131338,0.0269806
-0.0143526,0.0263051
0.00571082,0.0786367
0.0246518,-0.00249342
0.0503059,-0.0655442
0.0392131,-0.0128122
-0.0199307,0.0209793
-0.0581189,-0.0182561
-0.0573149,-0.0313023
-0.0230945,-0.0200491
0.0160837,-0.00761928
0.0261367,-0.00503563
0.0161937,0.00264882
-0.000547375,0.0140146
-0.01896,0.00315254
-0.0219271,-0.00834885
-0.0252572,-0.00798164
0.0027938,-0.00548508
0.0273548,0.0301619
0.0119044,0.0626283
-0.00514457,0.00878105
0.00202169,0.00184236
0.00609053,-0.017327
0.00128529,-0.0306171
0.000565486,-0.0151225
0.0162337,0.0322243
0.029685,0.108258
0.0131494,-0.00943692
0.0173107,-0.0577313
0.0127612,0.00122449
-0.00197559,-0.038146
-0.0201095,-0.0373855
-0.02702,-0.0177891
-0.0210906,-0.00743892
0.0051093,-0.0163753
0.0159162,-1.08e-05
0.000366067,0.0144984
-0.00328686,0.0127502
-0.0102342,-0.0054465
-0.0186182,-0.0170384
-0.0199654,-0.0163291
0.00532798,-0.0131539
0.0463657,0.00345434
0.0571845,0.0159936
0.0408252,0.0309522
0.0108392,0.0583862
-0.0248658,0.00987866
-0.0420431,0.00217311
-0.0643613,0.0366987
-0.0922052,-0.0398547
-0.077036,-0.0591279
0.00723868,0.0149045
0.0356802,0.0103462
-0.00666102,-0.0233588
0.00871126,0.0436015
0.0432233,0.0256148
0.0384631,0.0150344
0.0309234,-0.0117561
0.0496637,-0.0490692
0.0648951,-0.0273676
0.0426071,-0.0125395
0.0200674,-0.00795942
0.00268148,0.00485664
-0.0246582,0.0322593
-0.042696,0.0208587
-0.0461786,-0.0428578
-0.0482133,-0.0147104
-0.0220202,0.0206414
0.00976938,0.0159086
0.0107059,0.0184432
-0.00322523,0.00998986
-0.00836724,-0.0105643
-0.0103611,-0.0400823
-0.0124864,-0.0281071
-0.000219625,-0.0167927
0.0296791,0.00594345
0.0481975,0.0179819
0.0207124,0.0367543
-0.000240033,0.00738613
-0.0158378,-0.0397942
-0.0315697,0.0115147
-0.0313533,0.0226018
-0.0118995,-0.0405007
-0.0128276,-0.0183041
-0.00270642,0.0320288
0.0126884,0.0447185
0.0130935,0.0623011
0.00681866,0.0157532
0.00750053,-0.0552624
-0.00739316,-0.0288899
-0.0158769,-0.0597999
-0.00929089,-0.0587681
0.00522892,0.0503093
0.0121982,0.143768
0.0161987,0.116066
0.021192,-0.011094
0.0125853,-0.0985816
-0.00207847,-0.0875343
-0.00687962,-0.00784664
-0.00647819,-0.0110973
-0.00606942,-0.0146085
0.00822238,0.0161924
0.0303525,0.0251571
0.0223462,0.0219717
0.0149817,-0.0312217
0.0045336,-0.0431595
-0.0187845,-0.0113267
-0.0495977,0.0028951
-0.0551085,0.00916019
-0.0282094,0.0448202
0.0181597,0.0261514
0.0412826,0.00869201
0.0251457,-0.0254517
0.00251382,-0.0187481
-0.0198854,-0.00688515
-0.0227667,0.0170918
-0.0215044,-0.0216925
-0.0179794,-0.0116853
-0.00121263,0.0423258
0.00487025,0.0649626
0.00587574,0.0118776
-0.0177202,-0.0314159
-0.0147369,-0.00500224
0.0198341,-0.0383672
0.0313922,-0.0543352
0.0409209,-0.000718015
0.0220392,0.0709003
-0.0160075,0.0392643
-0.019939,0.0419821
-0.00583279,0.0535463
-0.00997052,0.038858
-0.0104136,-0.0869772
0.00135281,-0.115269
0.0040842,-0.0422248
0.0164993,-0.058949
0.0387036,-0.00504299
0.0375808,-0.0594179
0.0115343,-0.0269308
-0.0177677,0.0528849
-0.0343695,0.0533799
-0.0366455,0.0238377
-0.0207574,0.0175255
0.00750107,0.0511317
0.0262472,-0.0084605
0.0257948,-0.0241406
0.0273908,0.0150595
0.0140254,-0.00553007
-0.0203952,0.00506522
-0.0365773,0.0134959
-0.0274871,0.00295961
-0.0182153,0.00397597
0.00371288,-0.00361467
0.0289618,-0.0205621
0.00934963,0.0274406
-0.0175238,0.0435985
-0.0296463,-0.023823
-0.0379494,-0.00924032
-0.0406036,0.0352323
-0.0153728,-0.0096428
0.0428284,-0.0557794
0.0615263,-0.0362732
0.0349012,0.00188776
0.00949739,0.0131324
-0.0154625,0.00431419
-0.0268152,-0.0115768
-0.0177219,-0.00955456
0.00673174,-0.00675588
0.0442562,0.0111928
0.045116,0.0727862
0.000973724,0.105575
-0.0156967,0.0940989
-0.00995453,0.0148695
-0.0146894,-0.125789
-0.0425045,-0.0898319
-0.0370276,-0.0515153
0.0136004,-0.0309652
0.0537276,-0.0183017
0.0421256,0.00480526
0.025466,0.0267318
0.011053,0.0311796
0.000192579,0.00246816
-0.00441738,-0.0351973
-0.0117641,-0.0250413
-0.0231411,0.0166775
-0.00734711,0.00470534
0.00970558,-0.0141879
-0.0111877,0.0339373
-0.0312457,0.0333633
-0.0231758,0.0188724
-0.0233424,0.0221738
-0.030888,-0.0350642
-0.0124599,-0.0374977
0.0238004,-0.0118222
0.0374336,-0.000792631
0.0131204,0.0101729
0.00471067,0.021874
0.000990754,0.0109705
-0.00941112,0.00984909
0.00588686,0.00198183
0.0117578,0.000847608
0.00165562,-0.00854383
0.0190708,0.0254345
0.0379149,0.00627437
0.0188672,-0.0302678
-0.00606095,-0.0212306
-0.0214323,0.000562897
-0.0398339,0.130309
-0.0389611,0.0246987
-0.0170077,-0.059048
-0.00499463,-0.0584477
0.0225576,-0.0222593
0.0368959,-0.0137366
0.00879891,-0.00686201
-0.0252219,0.00434656
-0.0364323,-0.0276427
-0.0197512,-0.00655441
0.00457485,-0.0132878
0.0243948,0.00180032
0.0413049,0.0153519
0.0267237,0.00981922
-0.00690907,0.0156416
-0.00866932,-0.0158018
-0.0145149,-0.0381377
-0.0323554,-0.0144221
-0.0377797,-0.00789517
-0.0130574,-0.000951907
0.0216208,0.0707373
0.0271212,0.118722
0.0271514,0.00308184
0.0303498,-0.0532315
0.0179702,-0.0290858
-0.00074289,0.00611423
-0.00252497,-0.00953201
-0.016446,-0.0152269
0.00110781,-0.00528771
0.0351874,-0.00495734
0.0241458,-0.00800539
-0.0120046,-0.0020711
-0.032225,0.00205483
-0.0514456,-0.0181722
-0.0591738,-0.0150423
-0.0330852,-0.0106704
0.0142956,6.86e-07
0.0416566,0.0259067
0.0393838,0.0237411
0.0337247,0.00765835
0.025254,-0.00648573
0.00877143,-0.000754789
-0.0090964,0.0233313
-0.0107667,0.0223677
-0.0121805,0.0251152
0.00687312,0.0179312
0.018968,0.0301936
-0.00333727,-0.000315518
-0.0246501,-0.0267904
-0.0239681,-0.0367123
-0.0347435,-0.0354686
-0.0446218,-0.0123395
-0.0253863,0.00703489
0.0185486,-0.0102158
0.0353091,-0.0143817
0.0339226,0.0107668
0.0240731,0.0132939
0.00686066,-0.0135598
-0.00779597,-0.0339172
-0.0177045,0.00165793
-0.0132903,0.011899
-0.00567458,0.000802143
0.018186,0.0232043
0.0299384,0.0202704
0.0037857,0.00231935
-0.0229388,0.0160148
-0.0188409,-0.00260983
-0.0233767,-0.0150426
-0.0254462,-0.0322061
-0.000649904,-0.0256587
0.0260159,0.00226928
0.0242328,0.0170859
0.0237079,0.0541687
0.0285877,-0.00274549
0.0109471,-0.0339436
-0.0085366,-0.0171884
-0.00992105,-0.00186272
-0.00895219,0.00266147
0.0134128,-0.00277019
0.0326787,0.0098245
0.00850572,0.0251404
-0.018253,0.0402231
-0.0246283,0.0115909
-0.0294991,-0.0302493
-0.0412549,-0.0258838
-0.0345578,-0.0431042
0.000346095,0.0207036
0.0279174,0.0436889
0.0243495,-0.0418357
0.0199428,0.0272846
0.0118233,0.0408222
-0.00245011,-0.0104685
-0.008096,-0.0339854
-0.00736208,0.000805951
-0.0117656,0.0254944
0.0147224,-0.00962989
0.0305761,-0.00789925
0.0113379,-0.0069419
-0.00750394,-0.0160636
-0.0145647,-0.00686478
-0.0250874,0.00328005
-0.0432583,0.0203303
-0.024105,-0.00362857
0.0220722,-0.0281302
0.0356155,-0.00670082
0.02749,0.0115739
0.0265874,0.0162343
0.0144401,0.0112282
-0.00858472,-0.00331342
-0.0194063,-0.0131968
-0.0179389,-0.0143777
-0.00811972,0.00403163
0.0251578,0.0258611
0.0290775,0.0184159
-0.00034828,-0.00792908
-0.0157283,-0.0278118
-0.0209817,-0.0321605
-0.0301884,-0.0361245
-0.0384781,-0.0413004
-0.020064,-0.00979256
0.0186343,0.018906
0.0319948,0.00325198
0.0291141,0.0143974
0.0215546,0.0464921
0.00319791,0.0359318
-0.0142633,0.0155482
-0.0117058,0.0166505
-0.0132974,0.0064923
0.00260327,0.00605755
0.0363315,0.0327292
0.0407813,0.0458831
0.0221328,-0.0154685
-0.000410434,-0.0501202
-0.0180599,-0.0271908
-0.0420458,-0.0199296
-0.0548859,-0.0109508
-0.0232791,0.0131162
0.00967146,0.034542
0.0132397,0.0162829
0.0134756,0.00435564
0.00467281,0.0321781
-0.00602155,0.0589107
-0.010286,-0.0440243
-0.0015527,-0.105024
-0.00389469,-0.0548224
0.014895,-0.0208167
0.0285191,0.00572303
0.00426478,0.0664244
-0.0179741,0.0467633
-0.0140521,-0.0340691
-0.0233206,-0.0468041
-0.0417979,-0.00966279
-0.0233797,-0.00252218
0.0231584,0.000625493
0.0392826,0.061638
0.0347983,0.0283391
0.0300795,-0.0174164
0.0126839,-0.0204814
-0.0056546,-0.0207409
-0.00821895,-0.0317803
-0.00886454,-0.0255116
-0.0106152,0.10167
0.0154518,0.146216
0.0351137,-0.0753937
0.00307673,-0.0900737
-0.0242008,-0.0279947
-0.028557,-0.00961697
-0.0383744,-0.0149475
-0.0461819,-0.0228887
-0.022565,-0.0103012
0.0161267,0.00383299
0.0292642,-0.0016369
0.0539179,0.0280229
0.0769391,0.0483097
0.0622999,0.0107205
0.0219984,-0.000779123
0.010073,-0.0181537
-0.022052,-0.0549035
-0.0453487,-0.0125764
-0.0319286,0.137698
-0.0250064,0.00437677
-0.0425562,-0.0730355
-0.0430494,0.0296246
-0.0363789,0.0829991
-0.0260413,-0.0179745
-0.0194292,-0.090598
0.00790229,-0.0286064
0.0340712,0.0188781
0.0296433,0.0266809
0.0236931,0.00422771
0.0171531,-0.0322189
-0.00367716,-0.0180904
-0.0181317,-0.0025238
-0.0107809,0.000149195
-0.0106545,0.0432292
0.0178459,0.0328919
0.0472212,-0.00792256
0.0299086,-0.0187363
-0.00296986,-0.0304562
-0.0164742,-0.0188497
-0.0219341,-0.0164429
-0.0338828,-0.00999681
-0.0329958,0.0158773
0.00573948,0.0371239
0.0310468,0.0409791
0.024307,0.0261194
0.0212864,-0.027458
0.0133462,-0.0630146
-0.00845734,-0.0361539
-0.0170599,-0.00550457
-0.0121485,0.0264243
-0.00226507,0.0231725
0.0283267,0.00857072
0.0361163,0.0163307
0.00408981,0.0330953
-0.0144431,-0.0151597
-0.0123269,-0.0481676
-0.0279251,0.0026014
-0.0413654,0.0314602
-0.0136329,0.0147871
0.024596,-0.0131405
0.0245592,0.00874854
0.0178227,0.0111165
0.013801,0.0013531
0.0030602,-0.00501618
-0.0129437,-0.00593141
-0.011433,-0.00818083
-0.0076534,-0.00134599
-0.00065938,0.0298669
0.0210973,0.0317919
0.0279564,-0.0125424
-0.000206857,-0.0162292
-0.0110983,-0.00540127
-0.0135603,-0.0207731
-0.0317211,-0.0200589
-0.0421285,-0.0111745
-0.0137074,0.022235
0.0270158,0.0506184
0.0322523,0.0430904
0.0184931,-0.0126327
0.00431458,-0.0680396
-0.00889109,-0.0220011
-0.0108811,-0.0151299
-0.00388866,0.015168
-0.0116588,-0.00855938
-0.00177667,-0.0193313
0.0250537,-0.0118133
0.0236971,-0.0137632
0.00398514,-0.0113838
0.00136613,-0.00259183
-0.00727449,0.00693034
-0.0252951,-0.000122539
-0.0312784,-0.00274216
-0.00776416,0.0379161
0.0124732,0.0498155
0.00600293,0.0338576
0.0175679,-0.0191798
0.0095662,-0.023397
-0.00927958,-0.0179879
-0.0184016,-0.0197898
-0.0166279,0.00918713
-0.00310252,-0.00428283
0.0269143,-0.0092383
0.048189,-0.00406193
0.0203822,0.0299396
-0.00733908,0.0664732
-0.00871014,0.00159673
-0.0137377,-0.0448098
-0.0321759,-0.0164193
-0.0281066,-0.0164746
0.00273537,-0.0130683
0.0162289,-0.00281129
0.0121936,-0.00319255
0.00144084,0.000449245
-0.0112608,-0.00458003
-0.0115033,0.0450901
-0.00994146,0.00589173
-0.0040437,-0.0386828
0.00863585,-0.0142348
0.0372018,0.00772235
0.0326747,0.0454129
0.00266812,0.0580336
-0.00131711,-0.0305009
-0.0047634,-0.0187701
-0.0238474,-0.0135792
-0.0364469,-0.0302307
-0.0100245,-0.0176178
0.0306996,-0.00582631
0.0282571,-0.00381813
0.0168671,0.0208797
0.00205002,0.0166797
-0.0176085,-0.0239629
-0.0333559,-0.0247079
-0.0217995,0.00412386
-0.0162292,0.041635
0.00867411,0.0320819
0.0392945,0.00977484
0.0317111,-0.00285488
0.00427453,-0.00853505
-0.0111394,0.00359442
-0.0197196,-0.00662782
-0.0283756,-0.0166262
-0.0300077,0.00999408
0.00422383,0.0151574
0.0315593,-0.0178133
0.0212358,-0.014528
0.0135774,-0.00530394
0.00053246,-0.0109259
-0.018278,-0.0040732
-0.0228791,0.0107691
-0.00846919,-0.0179525
-0.00677134,-0.011278
0.014519,0.0281344
0.0291423,0.0431371
0.0132378,0.00884845
0.000544296,0.0061583
0.00854209,-0.000257567
-0.00869858,-0.0169053
-0.0407525,-0.00839471
-0.0347866,-0.041541
0.00275832,-0.0251939
0.0267098,-0.00825794
0.0218531,0.0060999
0.00843827,0.0222846
-0.00952756,0.0315259
-0.0176444,0.00684507
-0.0137711,0.0175082
-0.0111922,0.0889056
0.000379516,0.0324351
0.0318688,-0.0816236
0.0404588,-0.018952
0.00942515,0.0124157
0.00256192,-0.0171295
-0.000340353,-0.021578
-0.0177764,-0.012994
-0.0317054,-0.0120633
-0.0124501,-0.00602492
0.0212248,-0.00167124
0.0214508,0.00363912
0.0088838,0.017034
-0.000681663,0.00257878
-0.0138452,-0.00813367
-0.0247117,0.00609622
-0.0171827,0.00451013
-0.00752158,-0.0138933
0.0126365,0.00172329
0.0385746,0.00281567
0.0309685,0.00663615
0.00566062,0.00327677
-0.00420952,0.00467302
-0.0126955,0.00394178
-0.0217869,-0.00894142
-0.0263991,-0.0169152
-0.0116326,0.000125891
0.0101474,0.00275095
0.00693914,-0.00486142
0.00395531,-0.00140256
-0.000692135,-0.00463622
-0.0148952,-0.00923937
-0.0217748,-0.0126479
-0.00855193,-0.0130684
0.00184537,0.000710766
0.0265402,0.0225912
0.0448594,0.0262784
0.0263525,0.025782
0.0112216,0.0116288
0.0082235,-0.0332438
-0.00594383,-0.0334708
-0.0271861,-0.00271318
-0.0232611,0.00888225
0.0012085,-0.00283982
0.00023456,0.00245429
-0.0136386,0.0256724
-0.00826948,0.0473113
-0.00308892,-0.018287
-0.0151663,-0.0247273
-0.0440945,-0.0435089
-0.0487265,0.0126995
-0.0255218,0.0485343
-0.00206841,0.0344969
0.00285681,-0.00358428
0.0166303,-0.050897
0.029772,-0.0439657
0.026629,-0.0100181
0.0255654,0.00441916
0.042459,0.024101
0.064911,0.0597379
0.0591821,0.0264313
0.0350673,0.0158796
0.0170197,0.00447759
-0.00659777,-0.0347393
-0.0350525,-0.0384626
-0.0540052,-0.0157646
-0.0628044,-0.00729469
-0.0404253,-0.0461449
-0.0042118,-0.0204581
0.00238286,0.00121216
-0.0126416,0.00215605
-0.0064349,-0.00545131
0.00470607,0.0144355
0.00807922,0.00210498
0.0065182,0.00375623
0.0348831,0.0252883
0.0527469,0.0465669
0.0201125,0.0542588
0.0041064,0.0139424
-0.00695985,-0.00425368
-0.0218236,0.00262662
-0.0396775,0.015375
-0.0461304,-0.0295497
-0.0391811,-0.101536
-0.00752003,-0.0355384
0.0235567,0.0151036
0.0237409,0.0121673
0.00874622,-0.00807808
0.00157273,-0.00554619
-0.00220995,-0.000336334
-0.00608602,5.13e-05
0.00346145,0.00729387
0.0343362,0.0231734
0.0392637,0.0556431
0.015658,0.0970307
0.0114992,0.016511
0.00499584,-0.0536225
-0.0189128,-0.0542903
-0.0381319,-0.045109
-0.0444105,-0.0354002
-0.0461033,-0.016241
-0.0145905,-0.00266548
0.0055321,0.0144525
-0.00722523,0.031422
-0.0127938,0.0116504
0.00539825,-0.0243373
0.0115029,-0.0195888
-0.00434418,0.019966
-0.00266756,0.0591357
0.0288005,0.00572657
0.0411722,-0.0263681
0.0249483,0.0485828
0.0147718,0.0412012
-0.00446117,-0.0186713
-0.0363347,-0.0389469
-0.0427294,-0.0212045
-0.0372977,-0.0115705
-0.0118342,-0.0255878
0.0341127,0.01982
0.046239,0.0267169
0.0408692,-0.00108901
0.0413413,0.0240767
0.0310484,-0.00281272
0.012929,-0.0572085
-0.000156565,-0.0287813
0.00827231,0.0200664
0.0302947,0.00801152
0.0410725,-0.011927
0.0352186,0.00668913
0.00644957,0.0393123
-0.0326196,0.0166893
-0.0572456,-0.0290435
-0.0671866,-0.0407098
-0.0784377,-0.00165173
-0.0389405,0.0137661
0.00361664,0.00321995
0.00354545,0.00642895
-0.00833724,-0.000202831
-0.00572975,-0.00747125
-0.00552318,0.0118212
-0.0176448,0.0265238
-0.0124948,-0.0225186
0.0230075,-0.0180715
0.0401394,0.00354561
0.0254623,-0.000159905
0.0200891,-0.00189349
0.000601417,-0.00674706
-0.025052,-0.017385
-0.0250852,-0.0171177
-0.0163076,-0.0150263
-0.012503,-0.0163975
0.00295106,0.0582612
0.0144225,0.0545713
0.00303754,-0.0148337
-0.010662,-0.00481611
-0.00807587,0.0116494
-0.00884131,0.0618168
-0.00179867,0.0241436
0.0271837,-0.0789144
0.0413595,-0.0216532
0.0311978,0.00878963
0.0218994,0.00537597
0.0273538,0.0047827
0.00793146,0.000550797
-0.0287981,-0.00687634
-0.0389346,-0.00267253
-0.0345179,0.00703466
-0.0288878,0.00450615
0.00607336,0.0219365
0.0303855,0.0156893
0.0203082,-0.0235548
0.00038014,-0.0324107
-0.0188001,-0.0188191
-0.030991,-0.0251718
-0.0266131,-0.000222543
0.00614541,-0.000230825
0.0351807,0.0383453
0.0227119,0.000383996
0.0279463,-0.044963
0.0187339,0.0234337
0.00261912,0.0294225
-0.0109155,-0.0521382
-0.0215006,0.00479459
-0.0331605,0.0294294
-0.0275055,0.0335722
0.00583097,0.0630111
0.0256452,-0.00975812
0.0130273,0.0637719
0.0049328,-0.0559797
-0.00616816,-0.11682
-0.0048936,-0.0555685
0.000640675,0.0578158
0.0322438,0.0582812
0.0508825,-8.52e-05
0.0261472,0.0294043
0.00714232,-0.0306151
-0.0151073,-0.00219981
-0.0394559,-0.0328095
-0.0390674,-0.0222669
-0.0143959,-0.0148966
0.00193597,0.00324075
0.0319016,-0.0169731
0.02374,-0.0329203
-0.00899912,-0.00333523
-0.0238451,0.00543579
-0.0367232,0.0340127
-0.0513327,0.0635742
-0.0394642,0.0198957
0.00426246,-0.0243065
0.0407979,0.00569179
0.0308044,0.00606547
0.0158597,-0.00801744
0.0242165,-0.0180948
0.00178309,0.0467572
0.00391184,-0.0142195
0.0164327,-0.031181
0.000526702,-0.0271642
-0.00787715,0.0321125
0.0133963,0.142686
0.0342352,0.0799967
0.0395605,-0.0538425
0.0436167,-0.120935
0.0215458,-0.0475427
-0.0339613,-0.0263676
-0.0761758,-0.0399578
-0.0683844,0.00309444
-0.0683052,0.0858558
-0.0499498,-0.017709
-0.00246746,-0.0600734
0.00811612,-0.0194503
-0.0167169,-0.0105956
-0.00357399,-0.0120968
0.0149278,-0.0123413
0.0175027,0.0356766
0.0320595,0.156499
0.0595965,0.0727257
0.0438489,-0.104542
-0.00151948,-0.0571439
-0.0345007,-0.0250305
-0.0752015,-0.0229263
-0.072914,-0.0266237
-0.0426855,0.0542318
0.0089374,0.109539
0.0543317,0.12532
0.0626901,-0.00443033
0.0578079,-0.10282
0.0468666,-0.0812382
0.0396926,-0.0384262
0.0316215,-0.0181234
0.0477163,0.0167329
0.0682969,-0.0260471
0.0585655,-0.0400724
0.0500266,-0.00234595
-0.00588584,0.0309825
-0.0657198,0.00869431
-0.0926411,0.00223595
-0.112822,-0.00157829
-0.122151,0.0387017
-0.0835003,0.0489205
-0.0359126,0.00356147
-0.014654,-0.00596564
-0.0236846,-0.0084673
-0.0256578,0.00776521
-0.0120749,-0.0244736
-0.0107899,0.0157306
-0.0373799,0.0562201
-0.0249474,-0.075539
0.0286336,-0.0872906
0.0799531,0.0271452
0.0802497,0.102726
0.0854119,0.0115569
0.115325,0.0461218
0.142058,0.0521164
0.154778,-0.0621586
0.134227,-0.104085
0.0888376,-0.0222832
0.000659903,0.00778712
-0.077286,-0.00694705
-0.0842671,0.0356267
-0.0948911,0.0356888
-0.0997624,-0.00385003
-0.106523,-0.0330693
-0.104529,0.0203999
-0.109015,-0.00948059
-0.0777239,-0.0876284
-0.0221871,-0.0143624
-0.0554612,-0.0212276
-0.0810969,0.0238121
-0.000605134,0.096535
0.0546019,0.0101375
0.0405862,0.0899549
0.0205166,0.0411913
0.0422022,-0.116219
0.0298068,0.00433932
-0.00969478,-0.044762
-0.0232187,-0.0962746
-0.0358866,-0.0470689
-0.00961399,-0.00471303
0.0500453,0.000485685
0.0811715,0.00789055
0.0532061,0.0254496
0.0686715,0.118417
0.0976178,0.0969505
0.0499096,-0.0599112
-0.0196404,-0.0219189
-0.0702339,0.039246
-0.138527,0.0805492
-0.132954,0.0506219
-0.0301057,-0.0875112
0.101282,-0.0995782
0.152235,0.0128454
0.107392,0.0160568
0.0223874,-0.0258739
-0.04412,-0.0835948
-0.00838551,0.0286636
0.0379711,0.0881528
0.0343016,0.0548378
0.00839258,-0.0794664
-0.0128208,-0.0540349
-0.0484248,0.0354271
-0.100549,0.0533044
-0.0923237,-0.0353316
-0.0101588,-0.0787182
0.0226261,-0.0270212
-0.00907011,0.0216503
0.0558232,0.0432848
0.101747,0.0947907
0.0854946,0.0111799
0.0656663,-0.0461465
0.000604881,0.00159341
-0.0948339,0.00212326
-0.169765,-0.0100447
-0.168071,0.0603342
-0.0772644,-0.0316803
0.0205222,-0.0795989
0.0768646,0.00393421
0.0581997,0.0288277
-0.0317473,0.0267912
-0.0685665,0.0262079
0.0483081,-0.0178268
0.159684,-0.0691534
0.111541,-0.0747555
0.00938068,-0.018507
0.0834543,0.0580026
0.165938,0.0869388
0.177412,0.0808811
0.0909142,-0.0359318
-0.109301,-0.058827
-0.199105,-0.0237075
-0.223168,0.0888244
-0.131157,0.00328155
-0.104474,0.0141732
-0.104422,0.0187157
-0.0349663,-0.0353953
0.0171239,-0.0275378
0.0111356,-0.0124415
-0.0445417,-0.0354233
-0.112735,-0.0318197
-0.0773783,-0.0439824
0.0421393,0.0390428
0.0663451,0.0765621
-0.0268407,-0.0803006
-0.0343505,-0.0722397
0.00612303,0.0224139
0.052097,0.0334312
0.107293,-0.0291438
0.190571,-0.0160258
0.273889,-0.0364148
0.310651,0.00786917
0.263081,0.0912002
0.130875,-0.00635706
0.0151022,-0.099606
-0.145232,-0.0240566
-0.266406,0.0946751
-0.331332,0.149417
-0.366526,0.10355
-0.220854,0.00639806
-0.0599098,-0.0173195
-0.0206415,-0.0432335
0.0174586,-0.037346
0.0956471,-0.0708721
0.103364,-0.0607536
-0.00414107,0.0699523
-0.0464567,0.111955
-0.0165406,-0.0790586
0.0368799,-0.102602
0.151398,-0.00254226
0.215787,-0.0241603
0.0929838,-0.0810723
0.0049134,0.0467116
0.0374898,0.0604776
0.0327205,0.0280007
0.00664565,0.0582908
-0.0393623,-0.0203735
-0.0371065,-0.0639571
0.0115914,0.00849347
-0.0256853,0.0511172
-0.0875648,0.0284076
-0.116281,-0.0387248
-0.131646,-0.0194389
-0.0953111,0.0858675
-0.0115533,0.0371053
0.0581181,0.00571479
0.121141,-0.018761
0.0917267,0.0353023
0.0407394,0.0356872
0.098096,-0.110515
0.179111,-0.0831978
0.119782,-0.0254874
-0.0211023,0.0187737
-0.129084,0.0587707
-0.136672,0.0536431
-0.0832125,-0.00394698
-0.040568,0.0571974
-0.0182683,0.0404348
-0.018356,-0.0787811
-0.0876075,-0.0613961
-0.149884,-0.0472065
-0.0923371,-0.0047162
-0.0149036,-0.0623225
-0.00402381,-0.0183481
0.00140837,0.019392
0.0527691,0.00948165
0.0616279,-0.00611148
0.0283522,0.0156508
0.00688692,0.0274293
0.047844,-0.0394115
0.115313,-0.0203983
0.155457,0.0146029
0.145838,0.00810834
0.0829029,-0.00252914
-0.0354725,-0.0471574
-0.121241,-0.0634997
-0.137128,-0.00585371
-0.0557155,0.0597693
0.078018,0.127255
0.165425,0.01875
0.169676,-0.00826267
0.101041,0.0829906
-0.0211693,0.182565
-0.111661,0.0989144
-0.0891396,-0.13897
-0.00861734,-0.187896
0.102454,-0.0650403
0.0925833,0.0193381
-0.0438531,-0.0517169
-0.16391,-0.111306
-0.240168,-0.0532974
-0.244682,0.0987612
-0.197836,0.175406
-0.0797078,-0.00162232
0.00527714,-0.0309497
0.0520673,0.00240484
0.104072,-0.0125224
0.120577,-0.0190186
0.161352,-0.007551
0.166076,0.000482786
0.103648,-0.0312698
-0.0274113,-0.0126857
-0.156192,0.0946208
-0.18482,0.114085
-0.0956096,0.0462416
-0.0141008,-0.0346041
0.0397414,-0.0913896
0.0351391,-0.0419461
0.0584435,-0.0269026
0.163524,-0.0543719
0.141839,-0.0240913
0.102793,0.0247644
0.123922,0.0976479
0.0617657,0.0621581
-0.0613249,-0.0567616
-0.0828583,0.0473246
-0.118418,0.0106687
-0.210008,-0.0553795
-0.201559,0.00308762
-0.104519,0.00203063
0.0322154,-0.0772003
0.137788,-0.0540818
0.0921668,-0.0348267
0.0513473,-0.0189394
0.0327628,0.0372206
-0.0138997,0.0543261
-0.0514753,-0.0214077
-0.0461664,-0.0333375
-0.0140033,0.0258246
-0.0127766,0.119957
0.00917958,-0.0040478
0.0187324,-0.0856313
-0.0178577,-0.0270798
-0.0508566,0.00737432
-0.093086,-0.00834724
-0.0633277,-0.0307129
0.0489628,-0.0134498
0.116896,0.046303
0.148821,-0.01419
0.0648027,-0.0180901
-0.0425138,0.0651124
-0.0367759,0.131247
-0.00910165,0.0606208
0.0109225,-0.022251
0.0247209,-0.0642573
0.05502,-0.026329
0.0926246,-0.0201724
0.0997526,-0.0420237
0.0827143,-0.0124956
0.0832762,0.0193011
0.0457996,-0.00129385
-0.0423878,-0.0326787
-0.0699532,-0.0275959
-0.135497,0.0250696
-0.0907842,0.0757922
0.0464532,0.0709416
0.0964685,0.0281585
0.0667152,-0.0284182
-0.0290363,-0.068841
-0.10776,-0.0674016
-0.173935,0.109082
-0.171099,0.00583389
-0.0988816,-0.0928863
-0.0389311,-0.0528651
-0.0314723,-0.0187155
-0.0197732,0.00745788
-0.0468824,-0.0422249
-0.0326788,-0.000716264
0.0441819,0.0390867
0.103747,0.040662
0.0593213,0.0868959
-0.0104392,0.0367648
0.0265282,-0.0744298
0.0441793,-0.0276566
0.0715203,0.00487886
0.0543856,-0.0043766
-0.0465341,-0.0159246
-0.1329,-0.00694597
-0.0688423,0.0073664
0.0306923,0.0367098
0.159045,0.0704601
0.211869,-0.0452992
0.174354,-0.0801249
0.0579399,0.0325208
-0.0740971,0.00585415
-0.130343,-0.0480522
-0.065693,-0.0251675
-0.030367,-0.0153262
-0.0192652,0.00945944
-0.00418859,0.068814
-0.0269144,0.0155191
-0.0639002,-0.0468802
-0.0552671,-0.0522805
-0.0580406,-0.0108618
-0.0323716,0.0503624
0.0132816,0.0860123
-0.002029,0.140999
0.0400411,0.106621
0.160405,0.00646057
0.215687,-0.0255531
0.156867,-0.0578111
0.0930406,-0.0768795
0.0482159,-0.0412177
0.00426686,-0.0301623
-0.128832,-0.000821883
-0.0915423,0.0180683
-0.0333441,0.0912072
-0.1079,0.00903002
-0.175367,-0.140985
-0.149716,-0.132707
-0.110085,-0.0780535
-0.0397669,-0.0355388
0.0263156,-0.00334937
0.000723494,-0.00469948
-0.0189393,0.0266702
0.0116334,0.103295
0.0602451,0.0744505
0.0671794,0.0183916
0.0311545,0.0300813
0.033048,-0.0323277
0.109435,-0.0587584
0.133915,0.0191335
0.0696182,0.0538607
0.00261248,-0.00995154
-0.0895417,0.00248559
-0.0604958,0.0342336
0.0121279,0.021995
0.0117874,0.0205888
-0.0355531,0.00473641
-0.0699105,0.00896979
-0.0597939,-0.00945631
0.0143965,-0.113065
0.0212604,-0.0610999
-0.0356352,0.00405195
-0.0589179,0.0241181
-0.0523032,0.0615657
-0.0108995,0.0643138
0.0206532,-0.0105855
-0.031809,-0.00586818
-0.00309232,0.048565
0.0974092,0.0822429
0.145125,-0.00374717
0.072101,-0.073682
-0.019771,-0.0777197
-0.0372172,-0.0140007
-0.0279215,0.0238955
0.009049,-0.0246041
0.0327757,-0.0507173
0.0150974,-0.000812575
-0.0121967,0.00285692
-0.0337486,-0.0141756
-0.0296654,-0.0601262
-0.0243918,-0.0156629
-0.0289969,0.0857697
-0.042829,0.06701
0.024102,-0.0644121
0.0905273,0.0195385
0.101109,0.0898456
0.0658858,0.0354139
0.0239963,0.0174407
-0.00772715,-0.0474844
-0.0791066,-0.0789931
-0.059949,-0.0289553
-0.00852454,0.00757332
0.00872859,-0.0319063
0.00420532,-0.0796001
-0.0319206,0.011958
-0.0327731,0.0257288
-0.0551412,0.0160954
-0.0727523,0.0577903
-0.0345685,0.00154725
-0.0126922,0.00341132
0.0739065,0.0645435
0.13696,0.017101
0.108331,-0.015605
0.0398023,0.0271075
0.0101785,0.00678433
-0.0636698,-0.0181053
-0.129591,-0.00389329
-0.0996284,0.00785227
-0.06239,0.0154658
-0.0318904,0.104398
0.016649,-0.04334
-0.00926784,-0.116537
-0.0635243,-0.0543539
-0.0227887,-0.03261
0.069323,0.0185656
0.12873,0.0912813
0.116577,0.00113034
0.00715748,-0.0408409
-0.0411286,-0.00823893
0.000281827,-0.0286351
0.0536696,0.00223242
0.0541427,0.0735975
0.0201435,-0.00294995
-0.0519154,-0.0223544
-0.180977,-0.0107228
-0.200086,0.00733057
-0.0778026,0.0154019
0.0519878,-0.0137614
0.0609179,-0.0155433
0.0126741,-0.0527603
-0.00183621,-0.059312
0.0403901,0.0153485
0.0865974,0.0606608
0.160988,0.066266
0.28127,0.00386071
0.326168,-0.0819981
0.245045,-0.0208151
0.0672661,0.0688195
-0.0946482,0.195936
-0.219995,0.0751483
-0.275704,-0.118872
-0.205037,-0.0972904
-0.137879,-0.083455
-0.0888762,-0.048524
-0.0674751,0.0205045
-0.0529472,0.0829924
-0.0461554,0.0735518
-0.0295557,-0.00643021
-0.0113008,-0.101314
0.0174008,-0.0722536
0.0633943,-0.0240276
0.054825,0.00731408
0.0175657,0.0793317
-0.0164707,0.113383
-0.0537722,-0.00820492
-0.0994177,-0.103795
-0.105967,-0.0742817
-0.0512389,-0.0115041
-0.00296242,0.0152659
0.0584229,0.0363754
0.141527,0.0397773
0.125101,-0.00402326
0.0492257,0.0283247
0.0201571,0.0970045
0.0187428,-0.0376401
-0.0297674,-0.0850034
-0.103729,-0.0276998
-0.0479009,0.0144334
0.0616914,-0.00586839
0.152848,-0.0440243
0.0816483,-0.0249844
-0.0497795,0.0143567
0.0302459,0.0398488
0.158087,0.00913525
0.135877,-0.00236932
0.0613873,0.00779408
0.0333882,0.0486284
-0.0153186,0.0424902
-0.0961615,-0.0237152
-0.142815,-0.0705987
-0.100619,-0.0107203
-0.0168979,0.0681414
-0.00943634,0.0105583
-0.020561,-0.0262438
-0.0534654,-0.0155803
-0.0973353,0.00286011
-0.121076,0.0295126
-0.0820085,0.0737775
0.0450259,-0.02075
0.150467,-0.0779239
0.22956,-0.0619819
0.154738,-0.006373
0.0364302,0.0247498
-0.00999121,0.00451199
-0.0444855,0.0541616
-0.057026,0.180104
-0.0887388,0.0689359
-0.104798,-0.0779794
-0.0786497,-0.0865237
-0.0553435,-0.0487402
-0.0849997,-0.0733207
-0.125137,-0.00475179
-0.0843492,-0.0453666
0.0223766,-0.0185465
0.0678863,-0.0336257
0.0681041,0.0570389
0.0989342,0.0859858
0.10626,0.00116911
0.0668558,0.0370414
0.0312122,0.0331739
0.00213116,0.00238517
-0.0318851,0.000242338
-0.0402839,-0.0297083
-0.0145366,0.0545477
0.0376195,0.0532055
0.0328037,-0.0822926
-0.00903094,-0.105676
0.0367441,-0.0262415
0.0910477,-0.0136119
0.0577079,-0.0151911
0.00209069,0.00595826
-0.0493172,0.0233753
-0.099346,0.0145072
-0.0352973,0.00410384
0.0831053,-0.00263644
0.0953513,-0.00499197
0.0429434,-0.00015903
-0.0672865,0.00138996
-0.147135,-0.0158229
-0.12821,-0.0305327
-0.0803053,0.000245857
-0.0598808,0.0333751
-0.0214538,0.00362598
0.00220849,0.0122849
-0.0152984,-0.00277363
0.00851835,-0.014643
0.030151,0.0030892
0.0472297,0.0260668
0.0418512,0.100848
0.045781,0.105245
0.0714012,-0.0631176
0.0229959,-0.067646
-0.00691194,-0.0242338
0.0694256,-0.0461974
0.0826427,-0.0623992
0.0603772,0.00488876
0.0318761,-0.0321515
0.0279179,0.0138126
0.0241015,0.0921333
-0.0701382,0.110375
-0.12192,0.0792808
-0.0332207,-0.0318637
0.0281242,-0.115969
0.0392721,-0.0566621
0.0703032,-0.0113048
0.0492278,0.0189575
-0.0492754,-0.0142408
-0.108761,-0.0152376
-0.123941,0.0370578
-0.0512439,0.0299001
0.00267706,0.0130659
-0.0142749,0.0290159
-0.0306885,0.0152703
-0.01443,-0.0136062
-0.0200439,-0.0450553
-0.0551034,-0.0239044
-0.0329389,0.0322774
0.023271,-0.0407981
0.0679601,-0.0545309
0.0832889,-0.0351218
-0.0189694,-0.059119
-0.0866695,-0.0246799
-0.0214231,0.0427143
0.0742015,0.0581859
0.0885167,0.0474565
0.0701909,0.0361551
0.0580843,0.0151727
0.028891,-0.00688467
-0.00821955,-0.0205189
-0.0211521,-0.0230058
-0.0299319,0.0106876
-0.0161068,0.0797032
0.044192,0.0737079
0.0627029,0.0178527
0.0233594,0.0195206
-0.0367795,0.0139151
-0.0664024,-0.0432107
-0.0807006,-0.0399847
-0.0349912,0.0041861
0.0686431,-0.0317641
0.0824628,-0.0662742
0.0351419,-0.057995
-0.0398567,0.00311785
-0.0902505,0.00313109
-0.0884041,-0.0663851
-0.0497207,-0.0504643
-0.0282621,-0.011623
0.00472823,0.00417663
0.0279823,0.0199801
0.0521036,0.0147129
0.0671181,0.0143583
0.0662218,0.0207463
0.0354515,0.0217106
-0.0253618,0.0218887
-0.0326394,0.0261274
0.000405908,0.0253701
0.0445343,0.0124877
0.0755448,0.0384815
0.0253282,0.0385609
-0.0477316,-0.0228289
-0.126104,-0.0389719
-0.123937,-0.034889
-0.0732867,0.00985161
-0.0470309,0.0011575
-0.0248437,-0.00569218
0.000944945,0.00935707
0.0216988,-0.0318414
0.0627848,-0.00517392
0.112611,0.0251657
0.135196,-0.00947691
0.100769,0.00466403
0.0749211,0.0562744
0.041734,-0.0114216
-0.0134649,0.0191001
-0.0678252,0.00878835
-0.106466,-0.0587706
-0.159398,-0.0508571
-0.148809,0.111092
-0.0526373,0.112785
0.0238445,-0.0637071
0.0853087,-0.104872
0.118106,-0.042893
0.100209,0.0185719
0.0044995,-0.00809417
-0.0511813,0.0603156
-0.0692326,0.0450911
-0.0835858,-0.10318
-0.0454737,-0.060788
0.0538877,0.0228193
0.122551,0.0367543
0.122628,0.0104479
0.0439933,0.00756978
-0.0127521,0.0392571
-0.0198031,0.0618515
-0.0359395,-0.0163722
-0.0691696,-0.0822379
-0.0761985,-0.0691065
-0.020284,0.0108018
0.0330036,0.039907
0.038847,0.00132121
0.00638414,0.0370767
-0.0313695,0.00721146
-0.0478973,-0.0320706
-0.0080795,-0.0168684
0.0437511,-0.0139864
0.115724,-0.013345
0.148652,0.0196707
0.0866085,0.0311612
-0.0333977,0.0236882
-0.136646,0.0112607
-0.176071,-0.0330615
-0.141331,-0.063478
-0.0819761,0.00349907
-0.0570491,0.052744
-0.0223564,0.0222203
0.0156665,0.0213705
0.0199029,0.0338378
0.0339838,-0.0154886
0.0495197,-0.00900887
0.0743229,-0.000428413
0.0652263,-0.0394005
0.0876499,-0.0289695
0.0776195,0.0155121
0.0656753,0.0250491
0.127071,0.0219419
0.130889,0.0747133
0.109239,-0.00660498
-0.0198649,-0.0760795
-0.193787,-0.0405391
-0.186427,-0.00973463
-0.0645359,-0.0511879
-0.00719896,-0.047289
-0.020213,0.0189429
-0.0734907,0.0584367
-0.0935398,0.0223075
-0.0894675,-0.0540065
-0.073651,0.0358708
-0.0316445,0.0607698
-0.00443071,0.0582755
0.000622271,0.0671509
0.0336756,-0.0330953
0.0673504,-0.0502365
0.0785447,-0.0568543
0.0939739,-0.0158569
0.0998771,-0.0217639
0.0530842,-0.0497813
-0.019736,-0.0327258
-0.0294582,0.00795382
0.00466665,0.00282484
-0.0186483,-0.00790018
-0.0422424,0.00284417
-0.0366525,0.01839
-0.000176435,0.038267
-0.00220324,0.0102222
0.0327153,-0.0273936
0.0705645,-0.0179449
0.0489164,0.0149752
0.0459646,0.0475312
0.0288248,0.0189141
-0.0144702,0.0136104
-0.0331013,0.0540979
-0.0582264,0.01322
-0.081125,0.00556922
-0.0434572,0.0353016
0.0279389,-0.0472688
0.0436253,-0.00352239
0.0170898,-0.00950804
0.00533385,-0.0201008
-0.000195964,0.0135968
0.0365326,0.000377206
0.0690611,-0.0383497
0.0616128,-0.0502019
0.0348219,-0.00881068
0.0108366,0.0633966
-0.0559363,0.0435936
-0.152326,-0.0412247
-0.167936,-0.0472097
-0.0950325,-0.023007
0.00541768,-0.0220922
0.0502536,-0.0169338
0.037127,-0.00875285
0.0325073,0.0156342
0.0384599,0.0537125
0.0234559,0.111304
-0.000577173,0.0182609
-0.049849,-0.0261339
-0.0680575,-0.0333735
-0.0443281,-0.0315252
-0.0277622,0.00850132
0.0317233,0.00968881
0.107971,-0.0236711
0.0782655,0.000657707
0.00913617,0.0149052
-0.0195627,0.0761342
-0.0258721,-0.0364674
-0.0148371,-0.0364844
0.0148856,-0.0246459
0.0711518,-0.0334439
0.121898,-0.010655
0.147029,0.033327
0.119882,0.00903789
0.0278245,-0.0243046
-0.137945,-0.0111625
-0.168484,0.0347231
-0.128833,0.07488
-0.0763276,-0.0276418
-0.0131698,-0.00425735
-0.0331111,0.0174475
-0.0879449,0.00616949
-0.0661155,0.0328567
0.00279442,-0.0905625
0.0307161,-0.0802808
0.0314523,-0.0160269
0.0504741,0.0193122
0.0591219,0.0292971
0.0436391,0.0111461
0.024383,0.00059112
0.00273984,-0.0157083
-0.0202508,-0.0143196
-0.000765246,0.0117989
0.0170927,0.000173976
-0.00417856,-0.0170217
-0.000847057,-0.00556865
0.0153519,0.0153921
0.0155962,-0.0140302
0.00113412,-0.0164337
-0.00761627,0.0067571
-0.000887545,0.0173242
-0.0208438,0.0195601
-0.0369693,-0.027143
0.00982983,0.0180397
0.0613381,0.0330549
0.0713823,-0.00612409
0.02622,-0.000480734
-0.0136495,0.00600929
-0.017203,0.00363903
0.00239608,0.00352238
0.0373024,-0.0128858
0.0406391,-0.0267273
0.0534263,0.036718
0.0127244,0.0799414
-0.0811606,-0.0271766
-0.098792,-0.0389908
-0.0619702,0.0642875
-0.0592644,0.103433
-0.0129048,-0.0310382
0.0502113,-0.0493209
0.105633,0.0226957
0.104772,0.0734817
0.0549754,-0.0255428
-0.0121404,-0.0367676
-0.0863173,0.00114392
-0.169175,-0.0454824
-0.182375,-0.0644631
-0.117562,-0.0352469
-0.0489524,-0.041788
0.0306638,-0.00634725
0.0487909,-0.00390949
0.0494146,-0.017607
0.069492,0.0188896
0.0854719,-0.0119054
0.0654597,0.00243364
0.0496415,0.0298999
0.053174,0.0407582
0.0498738,0.0137665
0.0262256,0.0121548
0.0182658,0.0283631
0.0250414,0.0194734
0.0204118,-0.0231
-0.00280853,-0.0555289
-0.0488421,-0.049656
-0.0901109,-0.0237841
-0.0840945,0.030363
-0.0349354,0.0897318
0.00597567,0.00627251
0.0090169,-0.0434857
-0.0109999,-0.0159171
-0.0224457,-0.0261542
-0.0137546,-0.0432247
-0.00774696,0.00590462
0.0107724,0.0464778
0.0270831,0.0202115
0.0195923,0.000542515
0.0147724,0.000626998
0.0284685,-0.0043985
0.0215906,-0.0225916
-0.0220917,-0.016483
-0.0214801,-0.00641361
0.0065988,0.00882359
0.0727157,0.0412711
0.0789003,0.0879104
0.0430363,0.0475119
0.0130745,-0.0227696
-0.0137936,-0.0365868
-0.046953,-0.0122678
-0.0540371,0.020632
-0.0307868,-0.00515387
-0.00340274,0.0039972
-0.00414533,-0.0149615
-0.0340118,-0.0199953
-0.0526637,0.0300965
-0.046035,0.0152528
-0.0360233,-0.0450458
-0.0477491,-0.0278786
-0.0475834,-0.0148688
-0.0249572,-0.0174273
0.0236126,-0.0140367
0.039004,-0.0110796
0.00672211,0.0175477
-0.00469051,0.0581609
0.0156939,0.0227301
0.0242101,-0.0228068
0.0148032,-0.0176164
0.0506948,-0.0400276
0.115635,-0.0280731
0.117304,0.0483484
0.0838894,0.0460097
0.0414439,-0.0241381
0.0440416,-0.0172954
0.0650467,0.00602103
0.0123048,0.00141436
-0.0632539,-0.00310668
-0.0926212,-0.00304532
-0.102581,0.031686
-0.107337,0.070332
-0.085296,-0.0389273
-0.0538852,-0.0421188
-0.0259298,-0.0158854
-0.0117628,-0.0101083
-0.00131115,0.00983492
0.0201647,0.0537437
0.00884608,0.0146617
-0.0144267,-0.0439495
-0.0110558,-0.0505725
-0.00807534,-0.030272
-0.0133597,0.00612186
-0.0334305,-0.0102808
-0.0262337,-0.00413709
-0.00257739,-0.0123724
0.0292273,-0.00866073
0.0546905,0.00970074
0.0526736,0.0215
0.038106,0.0180876
0.0391472,0.00787768
0.0412623,-0.000122607
0.0324741,0.00277064
0.0609165,0.0173086
0.090813,0.0161078
0.0700674,0.00581788
0.01665,0.0036962
-0.0310749,0.00408095
-0.0628511,0.00242985
-0.10455,0.00778896
-0.107043,-0.024972
-0.0801689,-0.038997
-0.0274874,0.00159112
0.0379089,0.0459907
0.0298276,0.058749
-0.00537088,0.0442363
-0.00346954,0.00175208
0.0143233,-0.0523756
-0.0148623,-0.0322405
-0.0460619,0.0514768
-0.00881611,-0.00499246
0.036349,-0.0471487
0.0141892,-0.0246898
0.0061905,-0.0131946
0.00899153,0.0186437
-0.0057333,0.0351517
0.00536549,-0.0166845
0.0359075,-0.0517729
0.00487246,-0.0181387
-0.00906534,0.00412744
0.0217597,-0.0135373
0.0459569,0.0179968
0.0296581,0.0306446
0.00901643,0.00947886
-0.00186579,-0.0188377
-0.0043042,-0.023563
0.00104817,-0.00662656
0.00678183,0.0185545
-0.0012934,0.0341467
-0.0234756,0.0187711
-0.0280647,0.00385573
-0.0202752,-0.00976255
-0.00951109,-0.0227322
-0.0130062,-0.0113942
-0.023785,0.0259106
-0.0337135,4.28e-05
-0.00647864,-0.045907
0.00268717,-0.0116893
-0.0175779,0.0338167
-0.0193545,0.00132287
-0.00380637,-0.00774423
0.0131654,-0.0158881
0.0331375,-0.0196662
0.0552714,0.00568972
0.0677181,0.0180057
0.0340039,0.000252839
-0.00913119,0.00804804
-0.033982,0.0281268
-0.0419217,0.00373827
-0.0543958,-0.00725038
-0.0710911,-0.0282639
-0.0340869,-0.0203737
0.0230602,0.00533903
0.0734628,0.051259
0.0761095,0.0599409
0.038454,-0.0459539
-0.00143784,-0.035614
-0.0441076,0.024678
-0.0393272,0.0524319
-0.0168479,-0.0233434
0.00894132,-0.0146474
0.0469787,0.04385
0.0523534,-0.00512376
0.0304347,-0.0524579
-0.00719477,-0.0475424
-0.0587997,-0.0233724
-0.0784473,-0.00760747
-0.081623,0.0284727
-0.0594573,0.00338527
0.0058289,-0.0372261
0.0438593,0.0185481
0.0315798,0.0263558
-0.0124099,-0.0279421
0.00772122,-0.0318649
0.0631973,-0.00181516
0.057697,0.00041721
0.030378,0.0285327
0.034262,0.0398946
0.0221073,0.0242016
-0.0204272,0.0210901
-0.0442543,0.0107566
-0.0532438,0.0167599
-0.0472361,0.052496
-0.0190915,0.0104274
0.0148742,-0.0707475
0.0250497,-0.0195294
0.0380689,0.0277513
0.0571836,-0.00692871
0.0304187,-0.0160007
-0.00156736,-0.0108343
-0.00224221,-0.0062785
-0.0345061,-0.0306384
-0.0448743,-0.0325584
-0.00257036,0.0060285
0.0406841,0.0311278
0.0435197,0.023042
0.0192955,0.00518806
-0.0132631,-0.0149629
-0.0368699,-0.0121617
-0.049037,-0.00928232
-0.0478092,0.0293107
-0.050616,0.0500481
-0.0465979,-0.0315897
-0.00959416,-0.0326209
0.023418,0.01244
0.0427241,0.0036332
0.0353434,0.000830609
0.0238988,-0.0102866
0.0148243,-0.0263436
-0.0070028,-0.0204546
-0.0129913,0.00094303
0.0209731,0.0157155
0.0322874,0.0179254
0.0108207,0.00620471
-0.0138838,-0.00694832
-0.0299618,-0.00563829
-0.0025574,0.000347813
0.0311981,0.0183701
0.0334984,0.0303279
0.0202287,-0.0350447
0.0309363,-0.0612227
0.021366,-0.020567
-0.0255962,0.0532815
-0.0382726,0.0794473
-0.0224884,-0.0184751
-0.0351545,-0.0382642
-0.0563681,0.0418796
-0.0357157,0.0886391
0.00580248,-0.0609329
0.00535339,-0.0575779
0.000549829,-0.0137504
0.0080113,-0.0211324
0.00224484,-0.0118458
-0.00579493,0.0144005
-0.000202047,0.00281298
-0.00627651,-0.0116518
0.00185456,-0.0150262
0.00867873,0.00486744
0.00877904,0.0208356
0.00754713,0.0121132
0.0252999,-0.00302868
0.0410574,-0.015492
0.0113675,-0.0276486
-0.0186966,-0.0252511
-0.00772196,-0.0043485
0.0194099,0.0188627
0.0190434,0.0467185
0.0197326,0.0506992
0.0432531,-0.00762771
0.0416846,-0.0292333
0.0142675,-0.0251385
-0.0129051,-0.0143404
-0.060699,0.00780974
-0.0608537,0.0394082
-0.00427311,0.0222711
0.0161051,-0.00912349
0.0141663,-0.00308715
-0.0156013,0.0212627
-0.0576476,-0.00499213
-0.0819722,-0.0158711
-0.0428461,-0.0100495
0.0358494,0.00323537
0.0502188,0.000285877
0.0434544,-0.00240941
0.0416041,-0.00202854
0.00219038,0.0064024
-0.0326015,-0.00174552
-0.0385123,-0.0168063
-0.0367317,-0.0131533
-0.0194717,0.00692876
0.0100632,0.0394173
0.0380282,0.0323995
0.0463326,0.0308346
0.0437559,0.010053
0.0310929,-0.0292356
0.00411347,-0.0452526
-0.0313252,-0.0374518
-0.0385323,0.0219848
-0.0129799,0.0365972
-0.00940793,-0.0220912
-0.020935,-0.00312047
-0.0319402,0.00965922
-0.0204198,-0.0246909
0.00326713,-0.0559592
0.0199223,-0.018993
0.0263568,-0.00483709
0.0500616,0.0174776
0.0628762,0.0309396
0.0365195,0.0221608
0.000114292,0.0145399
0.0036516,0.00788304
0.0135496,0.00246277
-0.00216713,-0.0166054
-0.0317426,-0.0205293
-0.0239899,-0.00360363
-0.00403382,0.00464593
-0.00200979,0.000272289
-0.0174388,0.0118143
-0.0335968,0.0174449
-0.0360916,0.0196881
-0.0522661,0.0494231
-0.0599077,0.0217411
-0.0282088,-0.0388428
0.0130291,-0.0542504
0.0222319,-0.028811
-0.000605467,-0.0226385
0.000739279,-0.0112121
0.0304082,0.0257282
0.0334422,0.0265187
0.0287729,-0.0092205
0.0620578,-0.0162428
0.0707937,0.00978582
0.0474408,0.0126943
0.0329227,0.0141222
0.03817,0.012304
0.00637263,0.0076466
-0.0457911,-0.0225033
-0.0658794,-0.0295663
-0.0705356,0.0076671
-0.0809917,0.0116351
-0.0345381,-0.00199053
0.00638386,-0.011393
0.0229908,0.00445612
0.0498521,0.0205617
0.048468,0.0139004
0.014291,-0.023615
-0.028284,0.00725036
-0.0503606,0.107962
-0.0505143,0.0827958
-0.0455677,-0.0715918
-0.0300097,-0.0757143
-0.00361736,-0.0561286
-0.0049515,-0.0469534
-0.000519066,-0.0239277
0.00444235,0.0372285
0.00619364,0.0145303
0.028525,-0.00476871
0.0691657,-0.00841227
0.0761026,-0.0109619
0.0402648,-0.0126948
0.0158406,0.00493747
-0.00465186,0.00774916
-0.0250701,0.00221641
-0.0342088,0.00301707
-0.0228561,-0.0149757
-0.0183191,-0.0111976
-0.0216819,0.0254513
-0.0171766,0.0319053
-0.0106024,0.000634012
0.0167337,-0.0108971
0.0533105,0.00395169
0.0704994,0.0210603
0.0574687,0.0402795
0.0369877,0.0359046
0.0176908,-0.0133685
-0.0231149,-0.0288176
-0.0536278,-0.0209398
-0.0497022,-0.00495414
-0.0511963,-0.00562685
-0.0559873,-0.00620701
-0.0220119,0.019136
0.027715,0.0212543
0.0376309,0.0104021
0.0141645,0.0290437
0.000785942,0.0216891
-0.00371938,-0.00602289
-0.00500926,-0.058213
-0.00511302,-0.0475787
-0.00865024,-0.0137952
-0.0104652,-0.00302344
0.010848,0.0172434
0.0166002,0.00365486
-0.0282299,-0.0306607
-0.0368347,-0.0424048
0.017889,-0.0112644
0.0554056,0.0137858
0.0455248,0.0315959
0.019948,0.0350075
-0.00211143,0.0123377
-0.0304015,0.00726973
-0.0352628,0.00304779
-0.0474652,-0.000936872
-0.0599391,-0.000956302
-0.050069,0.00928034
-0.0242035,0.0152834
0.00277766,-0.0138526
0.0322482,-0.0132085
0.0591005,0.00243561
0.0509101,0.0147494
0.017544,0.0152825
0.00803542,-0.0200745
0.00152286,-0.0262952
-0.00991691,-0.0150845
-0.00642979,-0.0122514
0.0106666,-0.00525223
0.0185875,-0.0136747
0.00279776,-0.00886019
-0.0204951,0.00285207
-0.0339417,0.0214364
-0.0216777,0.0277174
6.95e-05,0.0124885
0.020551,-0.00650417
0.0308973,0.0382784
0.0472244,0.0713697
0.0592091,-0.0591632
0.0209287,-0.0502043
-0.0237336,0.00220023
-0.030209,-0.0132375
-0.0418689,-0.00961201
-0.0682773,0.0393414
-0.0552179,0.0420463
-0.00798784,-0.0218535
0.00469519,-0.00168822
-0.00781814,0.0348609
-0.0144507,-0.0199923
-0.0265067,-0.0201318
-0.0063693,-0.0269223
0.0343459,-0.0147388
0.0857462,0.00685325
0.121215,0.0236037
0.147875,0.0309965
0.110771,0.00381207
0.0649522,-0.0130626
0.0511228,-0.00430104
0.0333196,-0.0074537
-0.0144541,-0.0151722
-0.071928,-0.0217896
-0.106845,-0.0184319
-0.12097,-0.00802209
-0.131291,-0.00572939
-0.124689,-0.00559219
-0.0985213,-0.0108861
-0.0685843,-0.00694364
-0.0380027,0.0105052
-0.0140638,0.023752
0.00308317,0.0100898
0.0207715,0.00416731
0.0330803,0.0235417
0.0310538,0.0132994
0.0241315,-0.00124017
0.0175642,0.00580419
0.00481077,0.0191128
-0.00404509,-0.020893
0.00372254,-0.0390426
0.0216171,0.00487755
0.0281009,-0.00150986
0.0247996,-0.0136332
0.0274906,0.0300861
0.025707,0.0551592
0.0241256,-0.00378387
0.0183436,-0.0112115
0.0189773,-0.0322379
0.0220745,-0.0443836
0.0385785,-0.00722918
0.0431245,0.0419829
0.00401189,0.047917
-0.0287096,0.00524749
-0.020161,-0.0254145
-0.0195768,-0.0275602
-0.0223306,-0.0355503
-0.025806,-0.0269267
-0.00888388,-0.00456736
-0.000743575,0.0254091
-0.00507888,0.0206604
-0.00493309,-0.0134624
-0.012274,-0.00966327
-0.0150827,0.0378284
9.61e-05,0.0172257
0.00920479,-0.0192177
-0.00328601,-0.00439127
0.0111998,0.0135346
0.0251662,0.0104691
0.01197,0.0469846
0.0180134,0.0738985
0.0268513,-0.0327251
0.0125603,-0.0614314
-0.0182011,-0.0315761
-0.016662,-0.0273985
0.00517569,-0.0135314
0.00112993,-0.000604279
-0.0168847,0.0148602
-0.0179925,0.0261827
-0.0134087,-0.0157197
-0.0113394,-0.0339861
-0.0068789,-0.0121464
-0.00470755,0.00439546
-0.000969778,0.0159885
0.0173355,0.0284741
0.0202323,0.0353113
-0.00108545,0.0184467
-0.0248294,-0.00488823
-0.0344606,-0.0298957
-0.0354,-0.0273473
-0.0380977,-0.0221607
-0.0139188,-0.00851571
0.0167903,0.00338911
0.0247878,0.00369918
0.0324808,-0.000412517
0.0488151,-0.00447556
0.059659,-0.00179318
0.0384875,0.00917688
0.013406,0.00775367
-0.0183042,0.0099942
-0.0181202,0.015359
-0.0125441,0.0108948
-0.0306812,-0.00556498
-0.0351185,-0.0122174
0.00197747,0.0302486
0.0739262,0.0433096
0.084924,-0.0290924
0.0313574,-0.0289941
0.00316232,-0.000922413
-0.00972997,0.0277181
-0.0479332,0.00729588
-0.0739262,-0.00839416
-0.0840555,-0.000409297
-0.0914349,-0.0022115
-0.0738993,-0.00646789
-0.0407189,-0.00317523
-0.0162421,-0.00875856
0.0320723,-0.00295276
0.0690221,0.0143108
0.0700475,0.0132869
0.0609396,0.00814616
0.0522127,-0.00514206
0.0297437,-0.00130978
0.00179743,0.00158118
-0.0133052,-0.0236779
0.0014124,-0.0237942
-0.00972786,-0.0134017
-0.03825,-0.0131591
-0.0250195,-0.00528218
-0.000329575,-0.00384776
0.00877576,-0.00622413
0.00672568,0.0165722
-0.00739493,0.0219729
-0.0208374,0.00306451
-0.00939739,0.00686215
-0.0028834,0.00740953
0.00550047,-0.00174332
0.0176759,0.0127499
0.0149996,0.0177604
0.00339246,-0.00754752
-0.0172133,-0.016546
-0.0134769,-0.00624207
0.00052682,-0.00526847
-0.00634706,-0.00557957
-0.00710212,0.0051071
0.00627335,0.00660765
0.0121214,-0.00990968
0.0103499,-0.0107292
0.0159881,0.00174201
0.0110008,0.00325896
0.011128,0.00350991
0.00842981,0.00645246
-0.00805154,0.00594436
-0.0240545,0.023621
-0.0168545,0.0368472
-0.020824,-0.0150876
-0.0252212,-0.0436292
-0.00786062,-0.0273117
0.0239209,-0.0128375
0.0454134,0.00172492
0.0385477,0.0010257
0.023573,0.000714975
0.0103682,0.00628511
-0.00500613,-0.00708803
-0.0191321,-0.00425316
-0.0197962,0.00256206
-0.00777531,-0.00642452
0.0139015,0.00791212
0.0216913,0.0158309
-0.00259192,0.00703595
-0.0185757,0.00906014
-0.0209775,0.00817784
-0.0212671,-0.00853707
-0.0208383,0.0160163
-0.00910662,0.0182578
0.031211,-0.00948078
0.0642113,0.0149585
0.0561782,0.0428132
0.0354193,-0.00115546
0.0033616,-0.0351668
-0.0346772,-0.0256734
-0.0504713,-0.0302831
-0.053243,-0.025217
-0.0479839,-0.00647727
-0.0169816,0.0389878
0.00286444,0.0387935
0.004038,-0.00723879
-0.0060477,0.019951
-0.0223506,0.0536816
-0.0165601,-0.00642286
0.0154662,-0.0801684
0.0484767,-0.0603325
0.0627079,-0.00104429
0.0409773,0.0147948
0.0128391,-0.00437283
-0.0081818,-0.00204113
-0.0147128,0.00371589
-0.0193894,-0.00280469
-0.0218373,-0.00683703
-0.0254539,-0.0124421
-0.0197003,-0.00627517
-0.00302625,0.0458131
0.00778539,0.0370501
0.00815495,-0.0245677
-0.00382052,-0.00915164
-0.0161883,0.00301527
-0.0363717,-0.00994851
-0.0458818,-0.0118727
-0.0141155,0.0109346
0.0189615,0.0222013
0.0191095,0.00185898
0.0232181,-0.00176938
0.0210534,0.012999
0.012671,0.00206781
0.0137984,-0.00604639
0.0292734,-0.00538647
0.0329648,-0.00295862
0.04402,0.0151572
0.0444264,0.0472544
0.00976701,0.00432354
-0.0250397,-0.022007
-0.042624,-0.0114945
-0.0584979,-0.0111545
-0.0633662,-0.0152957
-0.0429388,-0.0238887
-0.0124455,-0.00768806
0.0110252,0.00453994
0.0183818,-0.000209951
0.0160968,-0.00526489
0.0063486,-0.000738355
-0.000658531,0.00516908
-0.00328451,-0.00104496
-0.00261817,-0.00494992
0.00337498,-0.00273163
0.0233287,0.00346235
0.0233873,0.00523109
0.00575494,-0.00552497
0.00911837,-0.00644023
0.014685,-0.00751637
0.00219521,0.00521607
-0.0161135,0.0223838
0.00625975,0.00165715
0.0649465,-0.00279577
0.0744717,0.0213595
0.0556839,0.0833114
0.0256861,0.0375287
-0.0162229,-0.0435543
-0.0589525,-0.0517869
-0.0697114,-0.0224944
-0.0604869,-0.0150564
-0.0468314,-0.00945331
-0.0162983,0.00483364
-0.00124851,0.0149009
-0.0134915,0.0161875
-0.0170248,-0.00434972
-0.0214032,-0.0189977
-0.0337723,-0.0142969
-0.0375832,-0.0137152
-0.0200607,-0.00688178
0.0025962,-0.00146643
0.0161809,-0.00403717
0.0270638,-0.00204749
0.0326739,0.00955826
0.0268607,0.00546251
0.0261955,-0.00792092
0.0396262,-0.00566898
0.034433,0.00321936
0.0333572,0.0141607
0.0233503,0.0147104
-0.0049067,0.00197758
-0.0125291,-0.00476934
0.00299224,0.00292009
0.00243659,0.00132612
-0.0138543,-0.0058856
-0.0188971,-0.0025788
-0.00101225,0.00693139
0.00419975,0.00631176
-0.0146519,-0.000932267
-0.0241774,0.0167645
-0.032997,2.95e-05
-0.03562,-0.00493307
-0.030468,0.00125095
-0.0209703,-0.0186463
-0.00877519,-0.0205661
0.0240393,0.00735303
0.033839,0.0333362
0.0274445,0.00848342
0.0299486,-0.021156
0.0347787,-0.0320796
0.0352669,-0.0116544
0.014094,0.0116321
0.0107023,0.013071
0.0147419,0.0136213
-0.00252596,0.0126097
-0.0238626,0.0120321
-0.0319092,0.0255177
-0.0374145,0.0349826
-0.0326111,-0.0119552
-0.0191047,-0.0242431
-0.00679761,0.00821012
0.0108307,0.00377985
0.0283874,-0.0104608
0.0245941,0.00137183
0.0140183,-0.0029174
0.0155725,-0.00906301
0.0132844,-0.00701747
0.000916393,-0.0104559
-0.0100872,-0.0137672
-0.00736496,-0.00576788
-0.00414132,0.0368889
-0.0177419,0.0330093
-0.0223764,0.0132507
-0.0288055,-0.00685103
-0.0311292,-0.0452734
-0.01632,-0.0322662
-0.00406333,-0.00436959
0.00336257,-0.0298105
0.0275349,-0.0440835
0.0406938,-0.00692507
0.0164602,0.0183308
-0.0123673,0.0219854
-0.00954324,0.0166995
-0.00684607,0.0104148
-0.0154674,-0.00411742
-0.0117499,-0.0114556
0.0098202,0.00587672
0.0214107,0.0316011
0.0150269,0.0187034
0.0166614,-0.0105085
0.0136459,-0.00610322
0.00409037,-0.000733569
0.000263213,-0.00175369
0.00165448,-0.00261709
-0.00269286,-0.000260444
0.00940077,0.00948243
0.0319729,0.00697925
0.0297103,-0.00475679
0.0107916,-0.00815485
-0.00825054,-0.00743928
-0.034379,-0.00656682
-0.0548049,-0.00907007
-0.045592,-0.00771068
-0.0111333,-0.00669872
0.00466988,0.00249626
0.0144483,-0.00258705
0.0170724,-0.00258727
0.00236428,0.0124539
-0.00228686,0.00333125
0.00144142,0.00202446
-0.00236119,0.00992642
0.00528071,0.00807555
0.0213918,0.019229
0.0158245,0.03517
-0.0101168,0.0393068
-0.0198123,0.00101794
-0.0214262,-0.0150213
-0.0258635,-0.0154285
-0.0283348,-0.0346725
-0.00677158,-0.0223217
0.0139255,-0.00827959
0.0109979,0.018335
0.0161536,0.0400295
0.0163358,-0.00958456
0.000377595,-0.0341373
-0.00745384,-0.0163978
0.0128038,-0.0107952
0.0253576,-0.012038
0.0321581,-0.00148964
0.0350967,0.0121529
0.0151927,0.00715199
-0.00717513,-0.00380012
-0.0180885,-0.00293347
-0.0263724,0.00155483
-0.0157774,-0.00652133
-0.00137603,-0.0214003
0.013762,-0.00490819
0.0221439,0.0178681
0.00893189,0.00974122
-0.00567196,0.000711014
-0.0149031,-0.00133684
-0.0298403,0.0387885
-0.0375943,0.0346289
-0.0255524,-0.0118024
-0.0114532,0.0103425
0.015966,-0.00275679
0.0268932,-0.015883
0.00468655,-0.00222509
-0.0103302,0.0169278
-0.0139767,-0.00762816
-0.028336,-0.0354123
-0.0330343,-0.0220318
-0.022067,-0.0159474
-0.000475856,-0.0223672
0.0249539,-0.00741804
0.0411098,0.00275372
0.0418984,0.00775473
0.0291412,0.0129977
0.00873995,0.0172367
0.00209705,0.0143069
0.00646083,0.0126656
0.00590038,0.0215223
0.0149634,0.0243781
0.0192442,0.0104915
0.000520078,0.000328402
-0.0130139,-0.0064255
-0.0199919,-0.00729973
-0.0284404,-0.0122915
-0.0363173,-0.0178342
-0.0195497,-0.00698225
0.00966679,-0.00271886
0.0170651,-0.00881903
0.0159887,-0.00774873
0.0135917,-0.00404421
0.00690973,-0.00871417
0.00140053,-0.011111
0.00452527,-0.00569058
-0.000231267,-0.00395608
0.00499376,0.0044995
0.0164155,0.0192817
0.00872144,0.017668
-0.00573998,-0.00518367
-0.0167191,-0.0175677
-0.0332495,-0.0116141
-0.0415623,0.0147682
-0.0312326,0.00951734
-0.00102898,0.00691852
0.0176479,0.0099685
0.0064378,0.0186677
0.00739852,0.0328192
0.00861785,0.0248992
0.000471805,-0.00282648
-0.000639666,-0.043896
0.00192156,-0.0275692
0.00419336,-0.00874946
0.0226281,0.00777734
0.0278207,0.0505514
0.00294829,0.000123461
-0.00791374,-0.0593412
-0.00456404,-0.0307674
-0.0247562,0.0251332
-0.0337615,0.0198082
-0.0151839,-0.00862977
0.0139778,-0.0136123
0.0259551,-0.000401205
0.0200458,0.000531387
0.0142033,-0.0104479
0.00332974,-0.00899995
-0.00642149,-0.00383603
0.000573953,0.00774767
0.00664319,0.00962371
0.00745803,0.00755092
0.0214684,0.0231266
0.0224045,0.0316437
0.00246769,-0.00305444
-0.00853129,-0.0150759
-0.01736,-0.0104801
-0.0290274,-0.00954143
-0.033095,-0.0244274
-0.0120751,-0.0105967
0.0168477,0.0220133
0.0112598,0.0146325
0.000241092,-0.00863855
-0.000450008,-0.0131897
-0.000228163,-0.0142494
-0.00740563,-0.00606077
-0.00221215,0.00343533
-0.00536092,0.00457801
0.000225265,-0.00146424
0.0167155,0.00654104
0.015522,0.00867737
0.00116121,0.00151842
-0.00719562,0.00175613
-0.0155902,0.00526071
-0.0277458,-0.00211579
-0.0296584,-0.00343666
-0.0028546,0.0063271
0.0189111,0.0100102
0.0130049,0.0137008
0.016043,0.00984339
0.0158042,-0.0105791
0.00221307,-0.0138936
-0.00971399,-0.00231569
-0.00286851,-0.00741812
0.000791314,-0.0155078
0.0169299,-0.00548119
0.0302404,0.0138745
0.00991345,0.0448182
-0.00944639,0.032944
-0.0110714,-0.0208324
-0.020154,-0.0254122
-0.0306555,-0.0169177
-0.0173861,-0.00803975
0.0121522,0.0049937
0.0276872,0.0100259
0.0183102,0.00567387
0.0129273,-0.00303141
0.000578285,-0.0054818
-0.0175113,0.000575255
-0.0216145,0.0142876
-0.0137863,-0.0156337
-0.0103139,-0.0184995
0.0109146,0.0265395
0.0237243,0.031443
0.00661149,-0.02481
-0.00537951,-0.0310323
-0.0086858,-0.0176666
-0.0185399,-0.018462
-0.0268574,0.000261668
0.047654,0.0141593
0.0406926,0.0194807
0.028069,0.0261757
0.021897,0.0221645
0.00369592,0.00687728
-0.0190065,-0.00122119
-0.029116,-0.0191933
-0.0344849,-0.0324894
-0.032023,0.00087192
-0.0119822,0.020999
0.000355484,-0.00973309
-0.0112282,-0.013743
-0.0173153,-0.00286383
-0.0124189,2.88e-05
-0.00843631,0.00100671
0.00229767,0.00552023
0.0298187,0.0165779
0.0435147,0.0141163
0.0264608,0.0103193
0.0235865,0.0161184
0.0202089,-0.00164649
0.00186425,-0.022335
-0.0172302,-0.0271118
-0.0233905,-0.0169806
-0.032137,-0.0153655
-0.0166851,-0.00999817
0.00433493,0.00129083
-0.00141194,-0.00505405
-0.0143353,-0.00745442
-0.0128857,0.000266961
-0.0070573,0.00422987
-0.00689778,0.00325557
0.0064964,0.00937977
0.0337019,0.0221896
0.0460458,0.0274137
0.034025,0.0218787
0.025925,0.0138233
0.0106888,0.00303026
-0.0115724,-0.0069536
-0.0279795,-0.00876169
-0.0316573,-0.00946603
-0.0273285,-0.0179135
-0.0058754,-0.00721006
0.00692024,-0.00390289
-0.0064413,-0.0104371
-0.0163279,-0.00659205
-0.010786,-0.00221184
-0.00774162,-0.0049636
-0.0101914,-0.00873142
0.00641929,0.00233713
0.0334068,0.0381872
0.0363036,0.0217814
0.0272141,-0.00972288
0.0193697,0.00726701
0.00646136,-0.00422327
-0.0142808,-0.0154947
-0.0219503,-0.00575619
-0.0254587,-0.00623511
-0.0147103,-0.00320114
0.00886618,0.00657115
0.0105798,0.00734514
-0.00929247,0.00144919
-0.0142264,0.000838079
-0.0136137,-0.0019494
-0.0163882,-0.00682339
-0.0144214,-0.00810131
0.0100896,0.00212742
0.0338163,0.011502
0.028282,0.00904316
0.0220348,0.0078452
0.0112739,0.00428391
-0.00436764,-0.00449586
-0.0197912,-0.0092585
-0.0226309,-0.00657098
-0.0238431,-0.00611898
-0.00899141,-0.00118928
0.013103,0.00550153
0.00723138,0.00296885
-0.00817842,-0.00047358
-0.00933432,0.00125456
-0.0112275,0.000884666
-0.0138654,-0.00404881
-0.00743946,-0.00223461
0.0206222,0.00878603
0.0345048,0.0122072
0.0207847,0.00488296
0.0142368,-0.00358968
0.00666723,-0.00725916
-0.00690086,-0.00579198
-0.0158478,-0.0029916
-0.0171932,-0.00577215
-0.0170784,-0.0086869
0.00265925,-0.0012598
0.0171696,0.00463148
-0.00128211,0.00255481
-0.0139948,0.000574017
-0.0111068,0.00144862
-0.0155804,-0.000984817
-0.0190337,-0.00629896
-0.000752587,-0.000567895
0.0277444,0.0091409
0.0325565,0.0117583
0.021075,0.00637429
0.0137852,-0.00312172
0.00232345,-0.00720383
-0.0123266,-0.0061401
-0.0162758,-0.00403833
-0.0156312,-0.00570499
-0.0111172,-0.00313536
0.0113164,0.00415221
0.0153675,0.00436357
-0.00609655,-0.0027179
-0.0157623,-0.00659091
-0.0142148,-0.00463448
-0.0185887,-0.00743254
-0.0211785,-0.0105251
0.00566679,-0.00183144
0.032777,0.0107189
0.026972,0.0112731
0.0241972,0.0100491
0.0279651,0.00791263
0.0125624,0.00370886
-0.00617297,-0.00286349
-0.00543565,-0.000559809
-0.0187303,0.00116319
-0.0188718,0.0073703
-0.00717121,0.0121635
-0.0185693,0.00623838
-0.0359544,-0.00108482
-0.0349662,-0.00624726
-0.0310145,-0.0109426
-0.0168449,-0.015369
0.0197958,-0.00265156
0.0822914,0.0090939
0.101756,0.00242361
0.0699066,0.00269714
0.0487475,-6.63e-05
0.0258166,-0.00755095
-0.0249918,-0.0127075
-0.0665326,-0.0124004
-0.0710418,-0.00450499
-0.0696722,-0.00240378
-0.0447869,0.00263299
-0.0211996,0.0023776
-0.0111282,0.00101582
0.0129509,0.0129768
0.0402959,0.0066232
0.0430727,-0.00835233
0.0484971,-0.00723107
0.04772,0.0149322
0.0355762,0.00873043
0.0056212,-0.0037964
-0.0238477,0.0047476
-0.0313563,0.00948912
-0.0435824,0.00597003
-0.0468273,0.00179212
-0.0321604,0.00723077
-0.0210171,0.0059794
-0.0188724,0.00104979
-0.00142939,0.00944975
-0.00302464,0.00942499
-0.029709,-0.00264797
-0.0449096,-0.0100705
-0.0454929,-0.012251
-0.0497639,-0.0168389
-0.0515612,-0.0214633
-0.0253099,-0.0107457
0.00822518,-0.000340124
0.0300901,-0.002418
0.0690035,-0.00165578
0.10763,0.00562564
0.134152,0.00374072
0.148081,-0.00330843
0.128285,-0.00614961
0.0688129,-0.00475269
0.0108994,0.00204037
-0.0367531,0.00733065
-0.0864673,0.00196533
-0.0972401,0.019443
-0.0713638,0.00717174
-0.0491801,-0.0119032
-0.0490068,-0.0101379
-0.0359098,-0.00705349
0.0084101,0.00589144
0.056165,0.0160692
0.0673693,0.0147724
0.0505167,0.0119627
0.00907253,0.00115459
-0.05276,-0.00983757
-0.107537,-0.0141167
-0.118346,-0.00889454
-0.105801,-0.00539563
-0.0332026,0.00471003
0.0446974,0.00846666
0.0657027,-0.00472232
0.0715073,-0.0159945
0.0752493,-0.00549288
0.0433072,0.0056711
0.0136474,-0.0149627
0.0090591,-0.0114759
0.00775982,0.00604208
-0.023718,0.0134992
-0.0604582,0.0185174
-0.0932886,0.0142027
-0.109251,0.0011603
-0.0434052,-0.00137516
0.0870154,0.0042003
0.181846,0.00607275
0.190648,-0.00180547
0.1284,-0.00219359
0.00150503,-0.00187697
-0.133159,-0.0054563
-0.160051,-0.000863129
-0.0638773,0.00376265
0.031718,0.00289164
0.0908782,-0.00708762
0.1438,-0.00341662
0.107405,0.00250141
-0.0269781,-0.00361353
-0.149894,0.00562445
-0.206022,9.17e-05
-0.183321,-0.0126698
-0.0786362,-0.00985846
0.0215975,0.00786071
0.0676299,0.00704153
0.123329,-0.00286716
0.176616,0.00613954
0.100478,0.0245327
0.0222118,0.0170041
-0.0311428,0.000228041
-0.116348,0.00310387
-0.167224,0.00325454
-0.115622,0.0143375
-0.0378771,0.0175795
0.0207815,0.0135706
0.0488259,-0.0111731
0.0664684,-0.0141803
0.100688,-0.0143113
0.1065,-0.0202735
0.0884689,-0.00333097
0.0521617,-0.0182267
-0.0103565,-0.0312006
-0.0790104,-0.0123525
-0.130909,-0.00286635
-0.139259,-0.0114653
-0.103798,-0.0131146
-0.0572632,-0.0070709
-0.034128,-0.00367674
-0.0283712,-0.00344054
-0.00557154,0.000566783
0.0357701,0.0113307
0.0505047,0.0137156
0.041898,0.0100911
0.0274947,0.00570756
0.0280786,1.17e-05
0.0730565,-0.0035348
0.136624,0.00120233
0.206089,0.00928851
0.249033,0.0116991
0.272193,0.0122492
0.235569,0.00918123
0.157961,0.00329069
0.0551734,0.00401552
-0.0804527,0.00135003
-0.238781,-0.00567284
-0.339559,-0.0152406
-0.356056,-0.0102228
-0.293772,-0.00302086
-0.192524,-0.0023573
-0.115459,-0.000408868
-0.0723757,-0.00428568
-0.0467692,-0.00793511
-0.0412106,-0.0116202
-0.0311716,-0.00975913
-0.0122237,-0.000910594
0.0238047,0.0120113
0.0658002,0.0127787
0.0776471,0.0152112
0.0657096,0.0155298
0.0686517,-0.00696733
0.0788453,-0.00740074
0.0769611,0.00138821
0.0655736,-0.00293986
0.0647574,-0.000717795
0.0592388,0.00791667
0.0359948,0.00883547
0.0169197,0.0154652
-0.00414816,0.00669023
-0.0394671,-0.0123145
-0.0682152,-0.0242426
-0.0776846,-0.0202519
-0.0656094,-0.00959084
0.00279719,0.0094537
0.0604704,0.0295769
0.0622338,0.0238435
0.0259226,0.0265836
0.00426735,0.00886048
0.0217729,-0.0167329
0.095132,-0.0198118
0.16729,-0.0100567
0.208457,0.0190852
0.240902,0.0237372
0.217575,-0.00137217
0.0991888,-0.00151069
-0.0747487,0.00209459
-0.221804,-0.00577937
-0.285491,-0.0167742
-0.279008,-0.0200352
-0.219351,-0.012905
-0.110173,0.00174656
-0.00995298,0.0372213
-0.0235367,0.00869347
-0.0518724,-0.0426272
-0.0789552,-0.0357745
-0.114111,-0.0253191
-0.109839,-0.0211918
-0.0627032,-0.00722787
-0.00918539,0.0130369
0.0156335,0.0252445
0.0266107,0.0289908
0.0349616,0.0233701
0.0325206,0.021548
0.0502664,0.0242905
0.113315,0.00438975
0.199044,-0.00225669
0.298005,0.00804512
0.31386,0.00548523
0.238509,-0.00707444
0.138973,-0.0174745
0.045383,-0.0198363
-0.0511682,-0.0190349
-0.149219,-0.0203859
-0.204913,-0.0200726
-0.223879,-0.00709163
-0.156545,0.00898419
-0.069082,0.0145569
-0.0193628,0.0130261
-0.046236,0.00514967
-0.111077,-0.00450893
-0.123392,-0.00964337
-0.0918244,-0.000952249
-0.0503842,0.00167026
-0.00558218,-0.0036888
0.0337069,-0.00859956
0.0443549,-0.00952579
0.0421682,0.00156579
0.0401615,0.0154191
0.0323258,0.00538059
0.00458465,-0.0151383
-0.0056501,-0.0215682
0.022578,-0.0193905
0.0458282,0.00566181
0.047426,0.0262127
0.0473404,0.0264057
0.0357459,0.0160329
0.0114764,0.0063224
-0.0105618,-0.00271481
-0.00592376,0.00139768
0.0338082,0.0205488
0.125119,0.0204261
0.166904,0.0104688
0.110289,-0.00786643
0.00357688,-0.0215524
-0.089876,-0.0272792
-0.17097,-0.0176957
-0.187487,-0.0134619
-0.125081,-0.00795081
-0.024737,0.00863059
0.103121,0.0186552
0.210543,0.0209973
0.213145,0.016497
0.115522,0.0116854
-0.0460015,-0.0025
-0.12701,-0.0100237
-0.0840815,-0.00720858
-0.0421501,-0.00015287
-0.00878791,0.00881286
-0.0387884,0.00244458
-0.108062,-0.0153581
-0.114248,-0.0158611
-0.0618313,-0.00951254
-0.0107842,-0.0128926
0.0313559,0.00320225
0.0729448,0.0125395
0.0730857,0.00112892
0.0180476,0.00305617
-0.0299464,0.0106725
-0.0468626,0.00499595
-0.0369211,0.00466989
-0.031458,0.000588265
-0.0232223,0.00110178
-0.0267018,-0.000919179
-0.0108919,-0.000498831
0.0222849,0.00419931
0.0270976,0.00146292
0.0126749,-0.00703833
0.00267857,0.00493104
-0.00772443,-0.00360003
-0.0107358,-0.0272947
0.00519046,-0.0224988
0.043977,-0.00205943
0.0709079,0.010346
0.0703404,0.0116255
0.0732102,0.0168412
0.0492847,0.01826
0.0287855,-0.000379814
0.0154677,-0.0163834
-0.0075347,-0.0098444
-0.0573898,-0.00430191
-0.0812449,0.00307472
-0.0734297,0.00537916
-0.0626171,-0.00269835
-0.0434112,-0.00541638
-0.0195613,-0.00907474
0.01174,-0.0117488
0.0633913,-0.0131604
0.121156,-0.00755268
0.136887,0.0101521
0.0801404,0.0207216
-0.0195177,0.00590647
-0.0846977,-0.0176996
-0.0870479,-0.0185281
-0.0501601,0.02164
-0.0195082,0.0555814
-0.0190842,0.0154016
-0.0462909,-0.0239427
-0.033691,0.00432464
0.00108393,0.0181446
