Comp Ch 3,Comp Ch 4
0.100571,0.00399991
0.0153268,-0.000694514
-0.0840116,-0.00578139
-0.123807,-0.00408482
-0.115647,0.00731346
-0.12035,0.0015164
-0.108652,-0.0294359
-0.0949968,-0.0201083
-0.0847994,0.00487566
-0.0718841,-0.0139889
-0.0362647,-0.0108237
-0.0201651,-0.0147129
-0.000596804,0.0304581
0.0272199,0.0490651
0.0258885,-0.0130884
0.0146705,0.00435405
0.0226055,-0.0142707
0.0306384,-0.0185975
0.0223602,-0.00406851
0.00921878,-0.000410271
0.0237289,0.0026152
0.0381878,0.00130118
0.0343263,-0.00504273
0.0327687,-0.00324753
0.0381715,0.00414239
0.0413301,0.0226078
0.0347204,0.00180619
0.0420418,-0.0322988
0.0340205,-0.0261325
0.0183878,-0.0019127
-0.00492173,0.0159458
-0.0224798,0.031015
-0.0243122,0.041655
-0.0232968,0.002934
-0.0401102,-0.0303472
-0.0800189,-0.0117231
-0.0873659,0.0248262
-0.0443446,0.0114857
0.0315125,-0.00335768
0.0840911,-0.00678346
0.09297,-0.0143135
0.0726817,-0.0199089
0.00317064,-0.00321923
-0.0646881,0.0128132
-0.0756143,-0.0367743
-0.0483523,-0.0388709
0.00396889,0.00891332
0.0194638,0.0131229
-0.00918223,0.0123259
-0.00656294,0.0314079
0.0275633,0.0356761
0.0754973,0.0302439
0.161967,0.0295845
0.200649,-0.00859862
0.153982,-0.0128545
0.0211129,-0.00470606
-0.113023,-0.00862238
-0.205688,-0.01661
-0.253888,-0.0297697
-0.213854,-0.0325161
-0.133958,-0.0235479
-0.0670818,-0.00763929
-0.00566125,0.0152212
0.0413767,0.0267065
0.050188,0.0211913
0.0356947,0.0201812
0.0383188,0.0121196
0.0393817,-0.00833253
0.00737355,-0.0150152
-0.0164251,-0.0193642
0.00251935,-0.0154186
0.0275474,-0.0055924
0.0340041,-0.00414935
0.0453002,0.0215714
0.0352026,0.0623268
0.012732,0.00415931
-0.00298237,-0.0217812
0.00231278,-0.00392435
0.0112993,-0.0221902
0.0314587,-0.00579339
0.0371433,0.00331777
0.00792668,-0.0044309
-0.0138158,-0.00850973
-0.0119466,-0.00230991
-0.0179701,-0.00585777
-0.0370965,-0.0153436
-0.0385417,-0.00722344
-0.0208073,0.0101787
0.00202451,0.0133556
0.033706,0.0067323
0.0573253,0.00418332
0.0370771,-0.00222829
0.00193673,-0.00420462
-0.00628446,0.00952422
0.0122205,0.0138497
0.0767229,-0.00675833
0.207377,0.00452846
0.22547,0.0165736
0.0929813,0.0101766
-0.0387027,0.00242632
-0.13465,-0.0131527
-0.205968,-0.0187631
-0.220505,-0.0104116
-0.141481,-0.00181283
-0.0326033,0.0035766
0.0113925,-0.00175825
0.0105703,-0.00641794
-0.00647955,-0.0154519
-0.0367269,-0.0199292
-0.06112,-0.00715267
-0.0431224,0.00418593
-0.0224459,0.0083276
0.00455286,0.0160701
0.038859,0.025447
0.0422947,0.0283375
0.0219796,0.00737604
0.0199779,-0.0106731
0.0192465,-0.00265698
0.00445335,0.00975602
-0.0076021,0.0182009
0.0121868,-0.00762088
0.0401848,-0.00700819
0.0384252,0.0132106
0.0328415,-0.00773154
0.0179205,-0.0220775
-0.00213408,-0.0269821
-0.0151576,-0.0210191
-0.0101198,-0.0049672
-0.00345298,-0.00201349
0.019917,-0.00173605
0.0452192,0.0116982
0.0505567,0.0232422
0.0431094,0.012215
0.0283776,-0.0191821
0.00361132,-0.0225697
-0.0259319,-0.00117031
-0.0446079,0.00843695
-0.0545886,-0.00066752
-0.0557087,0.00430132
-0.0205253,0.018481
0.000543162,0.00227178
-0.0302154,-0.015083
-0.0286103,-0.014473
0.0180019,-0.0104826
0.0452375,0.00945523
0.0443857,0.00995612
0.0408573,0.0178765
0.0212071,0.0184807
-0.00630511,-0.00143284
-0.00727068,-0.0129084
0.0155653,-0.00429629
0.0153974,0.0205146
0.0109694,0.00762739
-0.00392724,-0.0149991
-0.0395518,-0.00395568
-0.0782582,-0.00321388
-0.0433483,-0.00920105
-0.023439,0.00844649
-0.0563357,0.00230623
-0.0349952,-0.00974678
0.00956548,0.000361975
0.01495,0.00368836
0.000911129,-0.00325712
0.00970415,0.0103267
0.0269361,0.00561669
0.0332942,-0.0100733
0.0446537,-0.000307888
0.0484454,0.000786288
0.0133336,-0.0101877
-0.0291748,-0.0102991
-0.0279969,0.00246598
-0.00941592,0.0159741
0.00895327,0.0106956
0.0520617,0.00339769
0.049041,-0.00396528
-0.000567103,-0.0132418
-0.0460676,-0.0206064
-0.0705026,-0.00980842
-0.0738325,0.00335654
-0.0154326,0.0152305
0.0354063,0.0192207
0.0567304,0.00431924
0.0612215,-0.00856426
0.0316536,-0.00574671
-0.00270172,0.00154762
0.028407,0.0098412
0.0740725,0.0268613
0.0989981,0.0280232
0.0931443,-0.0312869
0.0227587,-0.0367875
-0.0233095,-0.00903969
-0.0270383,0.000627994
-0.0208421,0.0106443
-0.0344615,0.0321024
-0.0868561,0.0150519
-0.152833,-0.0234862
-0.16029,-0.00107996
-0.103663,0.00117093
-0.0551316,-0.0152793
-0.0146403,0.000516712
0.0100156,0.00311178
-0.0101744,-0.00513748
-0.0189435,-0.0170881
-0.00306768,-0.00713508
0.0249252,0.0173386
0.0515204,0.00543532
0.0604633,-0.0135825
0.0531818,-0.0100053
0.0316426,-0.0165947
0.00522898,-0.0203877
0.00185133,-0.0018737
0.0156705,0.0104374
0.0491037,0.00566577
0.0798156,0.013231
0.0839521,0.0160197
0.0623979,0.000541329
0.0358105,0.000562645
0.00276277,0.0158142
-0.0401219,-0.00732019
-0.0785284,0.00366263
-0.0739417,0.0274547
-0.0289003,0.00834498
0.0089565,-0.0143971
0.0247958,-0.00473321
0.0210963,0.00538449
0.00495728,0.0193923
0.00701778,0.00205776
0.0173668,-0.0202921
0.00174145,-0.0211827
-0.0203586,0.000440892
-0.0235994,0.00818571
-0.0345451,0.00120828
-0.0752886,0.00893995
-0.0885613,0.0264027
-0.0353901,-0.00240441
-0.0016492,-0.0273991
0.0325646,-0.0306864
0.098502,-0.0257071
0.080695,-0.0126197
-0.00115322,0.019462
-0.0227071,0.0691994
-0.0160437,0.0302811
-0.0366497,-0.0343777
-0.0387995,-0.0174657
-0.0145386,-0.0264418
0.0151715,-0.0246132
0.0569351,0.0109919
0.0600437,0.0339698
0.019349,0.0410943
-0.00510517,-0.0113196
-0.00723484,-0.0499235
-0.0281705,-0.0435688
-0.0628002,-0.024271
-0.071157,0.0203605
-0.0158214,0.0169315
0.0423094,-0.00111529
0.062379,0.00644762
0.0856741,0.00795179
0.130659,0.00141512
0.162407,0.0125972
0.194035,0.0589371
0.130442,0.0237332
0.00948134,-0.0378412
-0.0865166,-0.0239988
-0.20104,-0.000135007
-0.260035,-0.000264681
-0.209329,0.00028507
-0.121865,0.00133566
-0.0603218,-0.00794657
-0.0153592,-0.0148391
0.0357118,-0.0122083
0.0578767,0.00107961
0.00815298,0.00667251
-0.0418831,0.00167318
-0.0387826,-0.00819718
-0.0336576,0.00120411
-0.020836,0.00353857
-0.00101824,0.0022184
0.00316141,0.0295733
0.0296291,0.0676567
0.0736693,0.0584509
0.0844612,-0.0170313
0.0605205,-0.0512509
0.0370583,0.00237353
0.0112227,0.00538362
-0.00178089,-0.0486636
-0.00540899,-0.0389416
0.0247744,-0.00732455
0.0492917,0.00401657
0.050053,0.0125761
0.0377196,0.0276783
0.0264477,-0.0202484
-0.0124566,-0.036752
-0.0496559,-0.0173417
-0.0463748,0.0011873
-0.0295543,-0.000393455
0.00759641,0.00633268
0.0269027,0.0128717
-0.00808422,0.0137678
-0.0599962,0.000535906
-0.0600284,-0.0427584
-0.0249972,-0.0517659
-0.0305738,0.0171671
-0.0216529,0.0673737
0.0235858,0.0279012
0.0473742,0.0267613
0.0465229,0.00605615
0.0569499,-0.0128489
0.058732,-0.00230115
0.0836711,0.000346685
0.0982109,0.0415817
0.0865161,0.0613056
0.0563845,-0.0170542
0.0228319,-0.0366133
-0.00891282,-0.00554443
-0.102,-0.0112044
-0.156149,-0.0202869
-0.142182,-0.00581336
-0.118485,-0.0206264
-0.121548,-0.0151703
-0.0911311,0.00166013
-0.0336204,-0.0202413
-0.0160686,-0.00480086
-0.0121587,0.0234494
0.00736505,-0.0120961
0.0271865,-0.0253975
0.0361776,0.0088126
0.0865173,0.0068396
0.128206,-0.0130881
0.117324,0.00383979
0.0856041,0.0255662
0.0478084,0.000806496
-0.0335988,-0.0162526
-0.101795,-0.000995924
-0.0967596,0.0155541
-0.0825116,0.0113775
-0.0393568,-0.0131997
0.061696,-0.00864833
0.16523,0.00520097
0.179719,0.000369057
0.125014,0.00921317
0.0300551,0.0223318
-0.0659554,-0.0037051
-0.1267,-0.0161855
-0.141203,-0.00877472
-0.110099,0.00487261
-0.0357453,0.0263213
0.0116115,0.0206419
0.00551515,-0.00325657
-0.0143306,-0.0149495
-0.00305657,-0.017533
-0.00313671,-0.00411981
-0.0181471,-0.0101861
-0.0208602,-0.0201342
0.00391242,-0.01568
0.0259583,0.00774483
0.014057,0.0214448
-0.00135589,0.0124862
-0.010797,-0.00128918
-0.00682861,0.00657863
0.0521154,0.0168726
0.154016,0.000793409
0.201083,-0.00120625
0.181987,0.0088943
0.0764496,0.029905
-0.050402,0.0319195
-0.126897,-0.00853964
-0.150341,-0.0259892
-0.166145,-0.00611881
-0.159017,-0.010452
-0.0928204,-0.0224446
-0.0372765,-0.0143678
-0.0184322,-0.00510747
0.00940002,0.0105914
0.0207439,0.0199827
0.0256359,0.00471232
0.0365004,-0.00441092
0.049007,0.0115879
0.0604718,0.00896607
0.0784776,-0.00202318
0.0822622,-0.0230996
0.0315676,-0.0165709
-0.0262369,-0.0062509
-0.0538305,0.00664331
-0.0606518,0.00992021
-0.0707959,0.020406
-0.0519446,-0.0161402
0.000657841,-0.0568425
0.0385271,-0.0299985
0.0109825,0.0256561
-0.00300316,0.0448164
0.03062,0.0104052
0.0517641,-0.0146982
0.0289425,-0.0178638
0.00584575,-0.0159309
-0.0182857,0.0218411
-0.0367374,0.0505434
-0.00965907,0.0021026
0.0119862,-0.0247468
0.00838526,-0.0155511
0.024656,0.000447477
-0.00580479,0.0070694
-0.0669999,0.00441526
-0.043722,0.00426004
0.0557001,0.00874705
0.113066,0.00306837
0.11291,-0.00877872
0.0701635,-0.0158878
-0.022135,-0.0124519
-0.107396,-0.00103986
-0.144583,-0.0173414
-0.134188,-0.0144758
-0.0898272,0.0270605
-0.0136276,0.00913484
0.0469683,0.0052688
0.0603584,0.0209774
0.0587999,0.0186457
0.0485634,0.000486232
0.0205653,-0.0267894
-0.00666491,-0.0251129
-0.00748082,-0.00855459
0.0157952,0.00222563
0.0220786,0.00923733
0.0136228,0.0115342
0.00188486,-0.00135843
-0.00297292,-0.00352708
-0.00169892,-0.00830812
0.00336657,-0.00829128
-0.00473414,-0.00354353
0.00473605,-0.000660845
0.0551419,0.00786447
0.0698099,0.00763152
0.0286631,-0.00124592
0.00963193,0.00255387
0.0163261,0.0234739
-0.00530651,0.0273151
-0.02717,-0.0132906
-0.00280661,-0.0242658
0.0104466,-0.0135474
-0.0310748,-0.00141276
-0.0624365,0.00779732
-0.0671624,-0.00535093
-0.0868382,-0.0116826
-0.0786819,-0.00564379
-0.0558382,0.00396576
-0.0575871,0.00603445
-0.0151716,0.00636709
0.0526916,0.0226917
0.0785047,0.042366
0.0580928,0.0197177
0.0371002,-0.0145312
0.0236474,-0.0184301
0.0198216,-0.0194511
0.0106136,-0.0181434
-0.0102461,0.000504449
-0.0159399,0.00551605
-0.00771155,-0.00277286
0.00329974,0.00126087
-0.00217247,-0.00154129
-0.00507553,-0.00514805
0.00496927,0.00312196
0.0133669,0.0110857
0.00639363,-0.0113765
0.0233906,0.00637592
0.0390852,0.0220419
0.0153673,0.00700619
-0.00673278,-0.0170406
-0.00393158,-0.00129032
-0.0100236,-0.00124651
-0.0223183,-0.0123738
-0.0124028,-0.0186732
0.0179174,-0.00765647
0.025237,0.00207962
0.0129707,0.000561875
-0.00446876,0.0189257
-0.0226505,0.00250883
-0.0355655,-0.0176238
-0.0303962,-0.00501447
-0.0227727,0.00335269
-0.00494328,-0.00672625
0.0381526,0.00486142
0.049969,0.0184379
0.0238341,0.00968949
0.011153,-0.00394423
0.00220871,-0.00244219
-0.0179784,-0.00409071
-0.0351076,0.0032017
-0.0194674,0.0341119
0.0154188,0.0398955
0.0185457,-0.0158396
0.0102607,-0.0354827
-0.000843343,-0.00919045
-0.0189721,-0.0087397
-0.0327738,-0.0208836
-0.0285986,0.000143811
-0.0233721,-0.00139535
-0.00496145,-0.0157994
0.0277749,-0.0135319
0.0367598,-0.00444762
0.0292211,-0.000947428
0.0186318,-0.000408388
-0.0109893,0.0137522
-0.0271759,0.0136021
-0.0490865,-0.0214092
-0.0131101,-0.0140361
0.0367498,-0.0023503
0.0303467,0.00527865
0.0191032,0.0176666
0.00235299,0.0655937
-0.0193428,0.073831
-0.0271285,-0.0348179
-0.0630226,-0.0421666
-0.0395505,-0.00470717
-0.00306021,-0.0243118
-0.00433416,-0.0300946
-0.0079528,-0.00843468
0.0134582,0.0194984
0.0244815,0.0140996
0.0096304,-0.00814345
0.0186039,0.00139523
0.0568793,0.0281311
0.0682624,0.0351689
0.0486757,0.0223764
0.0356873,0.0113093
0.0207565,-0.000861441
-0.0123949,-0.0147587
-0.0464926,-0.0183868
-0.0553389,-0.010846
-0.0606005,-0.00288423
-0.0371608,0.00735307
-0.0237759,0.000747353
-0.0209152,-0.0108733
-0.00740063,-0.0158335
0.00431486,-0.0189656
0.00823489,-0.0342999
0.0119997,-0.0161644
0.0404554,0.0212162
0.0908324,0.0221898
0.10449,-0.00388781
0.0682411,0.00157743
0.0228324,0.0117321
-0.0259219,0.000272146
-0.0793847,-0.0221897
-0.117947,-0.0221574
-0.130806,-0.013832
-0.108306,-0.00125658
-0.0406782,0.0101772
0.0245009,-0.00406451
0.0403298,0.00644319
0.0465798,0.036558
0.0384075,0.0609814
0.0133652,-0.00582304
-0.00303868,-0.0273385
0.0304606,0.0264174
0.0852619,0.0113976
0.105285,-0.0065696
0.128952,-0.00999301
0.110926,-0.0098
0.00680568,-0.00473043
-0.133132,-0.00349312
-0.1691,-0.0149646
-0.12245,-0.0308732
-0.047976,-0.0208556
-0.0158111,0.000161639
-0.00877674,0.00574503
-0.0114957,-0.00578122
-0.00945902,0.00731104
0.00502615,0.00181378
0.0210106,0.0168784
0.0260807,0.053059
0.0431037,0.0224626
0.0506963,0.0479668
0.0484025,0.00279431
0.0374185,-0.0181121
0.0153456,-0.0170081
-0.0229247,-0.0411533
-0.0480756,-0.0422341
-0.049901,-0.00298404
-0.0415439,0.00805308
-0.00491207,-0.000233049
0.0220738,-0.00870134
0.00413787,-0.00947772
0.0140853,-0.000609352
0.031311,-0.00714531
0.0171109,-0.013172
0.0271384,-0.00640944
0.0269461,0.0123795
0.0243881,0.021986
0.00441803,0.0141061
-0.0185229,0.00758679
-0.0174442,0.00227335
-0.0244986,-0.00832073
-0.0508197,-0.0243428
-0.0601812,-0.0261397
-0.0552517,-0.0155928
-0.0315051,0.00368138
0.0177873,0.019989
0.0642414,0.0226643
0.0571449,-0.00278001
0.0255202,-0.00437034
-0.00241025,0.0366513
-0.0264797,0.0330348
-0.026666,0.0133955
0.000636768,0.0274402
0.0194487,-0.00084443
0.000572163,-0.0285409
-0.013118,-0.0327831
-0.0267514,-0.0165206
-0.0481543,-0.00861683
-0.0603042,0.00692
-0.0357788,0.0382446
-0.0210087,0.0292955
0.0333978,-0.0146298
0.111935,-0.0266227
0.151509,-0.0242955
0.118585,-0.0135478
0.094338,0.000448272
0.0761787,0.00403131
0.0147116,-0.00836954
-0.0267889,-0.0157508
-0.0439007,0.00283452
-0.074364,0.0060901
-0.0956915,0.00890163
-0.0602084,0.0215795
-0.0137923,0.0127102
-0.0163912,-0.00800524
-0.0748562,-0.0105574
-0.0816983,0.00286339
-0.0665109,-0.0103797
-0.0534286,0.00747761
-0.0139915,0.0129124
0.0140194,-0.0186884
0.0337696,0.0174263
0.0652065,0.0217078
0.0436892,-0.0215445
0.00509058,-0.0247182
-0.00581732,-0.00518062
0.0160927,0.0240101
0.0285948,0.0494669
0.025434,-0.0184069
0.0124261,-0.0540012
-0.0113282,-0.0106871
-0.0208536,0.00250515
-0.0267338,-0.00771414
-0.0219837,-0.0139583
0.00979447,-0.0151825
0.0370623,0.0267069
0.0406716,0.0439835
0.015859,0.000836223
-0.0178596,-0.0353823
-0.0361755,-0.0237567
-0.0250728,0.00711779
-0.021569,0.0308698
0.00390163,0.0227903
0.0516,0.01857
0.0308103,0.0104591
0.0174863,0.00152209
0.00250894,-0.011719
-0.0289272,-0.00957941
-0.0331985,0.00496503
0.00677448,-0.00258106
0.0193089,-0.0134206
0.0487705,-0.0120712
0.0884675,0.00398753
0.0766993,0.0113506
0.0390291,-0.00834278
0.0321897,-0.0195682
0.0476219,-0.00488022
0.0352348,0.0384713
-0.00137373,0.0388333
-0.0291149,0.022733
-0.040462,-0.0227318
-0.0790148,-0.0509057
-0.0982227,-0.0123094
-0.0823563,0.00353685
-0.0661803,-0.00307217
-0.0460428,-0.00900149
-0.0300168,-0.0236106
-0.0212087,-0.018117
-0.00222843,0.017471
0.0159698,0.0286087
-0.00234918,0.0190829
-0.0295175,0.0222113
-0.0278208,-0.000790962
-0.038978,-0.0266926
-0.0457801,-0.0186716
-0.0273889,-0.0240685
0.0185823,-0.019888
0.0579212,-0.024711
0.0517454,-0.0149991
0.0408622,0.0215299
0.0270923,0.0750267
0.0275602,0.00606149
0.0421891,-0.0357815
0.0323859,0.0237134
0.0200593,0.00829796
0.0360818,0.0047109
0.0293022,0.0209606
0.00308243,0.0443654
0.00236831,0.0221517
0.0189811,-0.00397408
0.000691201,-0.027231
-0.0316989,-0.0419673
-0.035461,-0.0269243
0.00342331,0.00806077
0.00847007,0.0179998
-0.00791571,-0.00420904
-0.0254083,-0.0105026
0.00431106,-0.0147991
0.00461013,-0.00648439
-0.0101342,0.00425583
-0.001455,-0.0182411
-0.0290184,-0.0279545
-0.0279999,-0.00784941
-0.0100773,-0.000548008
0.00350612,-0.0212916
-0.00133709,-0.00998947
-0.0223515,0.0302657
-0.0335754,0.0710458
-0.0278221,0.0403656
-0.011674,-0.00125522
-0.00161451,0.0081296
0.008692,0.0230888
0.0538239,0.0188778
0.111137,0.000955905
0.151932,-0.0292469
0.139033,-0.0354596
0.095505,-0.00975987
0.0406579,0.000414018
-0.03178,-0.00201112
-0.083382,-0.00576726
-0.102816,-0.0139869
-0.110322,-0.00778878
-0.0877927,0.00120259
-0.0605334,-0.0040036
-0.0583911,-0.00897381
-0.0625439,-0.00829767
-0.0682207,0.00118831
-0.0612617,0.00574634
-0.00799714,-0.00196126
0.0395273,0.0109995
0.0619109,0.0435505
0.0681827,0.016054
0.0636824,-0.0321166
0.0485628,-0.024451
0.0331193,0.00334439
-0.00255133,0.0302602
-0.0362643,0.0296832
-0.0435608,0.00855174
-0.00885652,-0.0129214
0.0067633,-0.0112489
-0.0142927,-0.0163785
-0.0335481,-0.0341032
-0.0106873,-0.018474
0.0254744,-0.00701831
0.0333725,0.00420295
0.0223907,0.00915222
0.0141948,-0.0181156
-0.000623156,-0.0343948
-0.0191787,-0.00935943
-0.0190202,0.00140628
-0.0249689,0.00655615
-0.0188742,0.0175648
0.0103774,0.0237349
0.0304886,0.0244498
0.0360296,0.0144606
0.0252954,0.00383663
0.0165312,-0.00610786
-0.00153911,-0.0207441
-0.0144911,0.000948736
0.00659142,0.0388302
0.0397666,0.0250041
0.0218875,0.0446796
-0.0102468,0.0702531
-0.0266616,0.00434197
-0.0377007,-0.103103
-0.0409231,-0.0507718
-0.0356568,0.0102064
-0.0141196,-0.00976103
0.0360497,-0.0196567
0.0727358,-0.00296291
0.0752622,0.000115425
0.055338,-0.00767426
0.0554362,-0.0112081
0.0837152,-0.0145064
0.0540689,-0.0094108
-0.0115992,-0.0101733
-0.0390413,0.00689186
-0.0559723,0.0336723
-0.0854838,0.0399524
-0.105343,0.00187799
-0.116655,-0.041554
-0.118828,-0.0178571
-0.068819,0.0284923
-0.00249525,0.0451995
0.0153407,0.0364287
0.0285657,0.0185111
0.0312683,-0.00862908
0.0277422,-0.0392288
0.0323595,-0.042952
0.0299956,-0.00980004
0.0184121,0.00236357
0.00198754,0.000414769
0.00454723,0.00277793
0.0363743,0.0209375
0.0548243,-0.000372316
0.0227385,-0.0159047
-0.00994664,-0.00616419
-0.0327497,0.0151435
-0.0492181,0.0133456
-0.0468093,-0.0110275
-0.0265787,-0.0068319
0.0152943,0.015326
0.0539789,0.00678905
0.0541302,-0.000387823
0.0458113,0.0191126
0.0432241,0.0120182
0.0270387,-0.0116363
0.00849865,-0.0569961
-0.0197645,-0.0392595
-0.0189831,0.0236581
-0.00024579,0.0477188
-0.0142545,0.0260388
-0.0216205,0.0265888
-0.0228419,0.0415994
-0.0226326,-0.00180309
-0.0188846,-0.0594705
-0.0129418,-0.0351024
-0.00824605,-0.00884282
0.0108674,-0.00652376
0.0315904,0.00142391
0.0193191,0.00886234
-0.0136397,-0.0074503
-0.0257514,-0.0120054
-0.0163352,-0.0179507
-0.0148804,-0.0359129
-0.00306021,-0.0337587
0.026539,-0.00588584
0.0115688,0.00891489
-0.0163504,-0.00950578
-0.00773036,3.04e-05
-0.00756922,0.040748
-0.00124156,0.0737599
-0.00568338,0.0288209
-0.00329322,-0.0289098
0.00958097,-0.0233657
0.0460975,0.00746672
0.0645441,0.0172229
0.0312289,-0.00764426
-0.00666058,-0.035078
-0.00393983,-0.0234476
0.0015077,0.0182505
-0.007165,0.0357106
-0.0149531,0.0901002
0.00646834,0.0393804
-0.0226883,-0.0583163
-0.0796777,-0.0430117
-0.0546973,-0.00665249
-0.0267492,0.00362238
-0.034584,-0.00186454
-0.0293603,-0.0219536
-0.00827434,-0.0356841
0.0117927,-0.0227472
0.0650416,-0.00177599
0.0584822,0.0221414
-0.0155981,0.0275378
-0.0701304,0.0387747
-0.0646681,0.0372314
-0.0179862,-0.0241236
0.0471645,-0.0514896
0.0889061,-0.013992
0.0526265,-0.00507779
0.0460771,-0.0471295
0.0804998,-0.0293222
0.0700396,0.0100074
0.0327145,0.047413
-0.0038178,0.0587161
-0.0169718,-0.00422789
-0.0273896,-0.0191758
-0.04544,-0.000408692
-0.0394386,0.0346939
-0.0180192,0.0754129
-0.0152592,0.048399
-0.0225117,0.0266037
-0.0067501,0.00622331
-0.00856368,-0.0371754
-0.0197581,-0.0350499
-0.0163483,-0.0122329
-0.000896561,-0.0190337
0.0123297,-0.0418043
0.0120424,-0.0372091
0.00962139,-0.0174466
0.0282351,-0.00199595
0.0389528,0.00375435
0.0314257,0.0079811
0.0164762,0.0136669
0.0157001,0.00683397
0.00817169,-0.00356445
-0.0234317,-0.0543806
-0.0770122,-0.0257373
-0.1034,0.0104446
-0.0628415,-0.00341404
0.0049754,-0.0295173
0.0113918,-0.0103879
-0.0185342,0.022709
-0.0199982,0.00900973
0.00999094,0.0100867
0.0371808,0.00965496
0.0562487,0.0153296
0.0536274,0.0538329
0.0326337,0.0829566
0.00427045,0.0398531
-0.00871856,-0.0490483
-0.0359605,0.00230618
-0.0243246,-0.0293688
0.035294,-0.0844782
0.0789368,-0.0482606
0.0550995,-0.0223092
-0.0107714,0.0321006
-0.0395367,0.0681661
-0.0765266,0.119356
-0.0508502,0.0491949
-0.00670743,-0.0717839
-0.0246845,-0.0229713
-0.0130861,-0.0336502
0.0142082,-0.0828656
0.0194264,-0.0773977
0.0309584,0.00282709
0.021387,0.116219
-0.0127602,0.111295
-0.0339625,-0.0558708
-0.0433404,-0.0926199
-0.0280518,-0.037934
-0.00831211,0.0106885
-0.0189086,0.0136973
-0.00441247,0.00438427
0.0211369,0.0152931
0.034181,-0.0295292
0.0214307,-0.00318753
-0.00539429,0.047004
0.0180572,0.0408163
0.0386656,0.0261067
0.0411822,-0.0468324
0.0447397,-0.0460829
0.0590712,-0.0104894
0.0457715,-0.0022685
0.0129588,0.0117301
-0.00777462,0.0242171
-0.023017,0.0295286
-0.0325399,0.0450809
-0.0328294,0.157211
-0.0624711,0.102186
-0.0399287,-0.149283
0.0158842,-0.173589
-0.0106512,-0.0526729
-0.0855206,0.0257241
-0.124692,-0.0176427
-0.0803126,-0.0316379
-0.0338614,-0.0123049
0.0139659,0.00516381
0.0504924,-0.00746515
0.0631498,-0.0100159
0.0892039,0.0113705
0.0915973,0.0256516
0.0711323,0.0297456
0.0568912,0.0521768
0.0360943,0.0578459
-0.0102301,0.0620579
-0.047136,-0.0342295
-0.0460422,-0.121166
-0.025841,-0.0998153
0.0226414,0.0192391
0.0920366,0.162476
0.11352,0.0656555
0.0385931,-0.00245143
-0.0103424,0.00751338
-0.0350822,-0.0468937
-0.0193401,-0.0929997
-0.0201341,-0.0762153
-0.0166367,-0.0600317
-0.0830527,0.0462647
-0.179245,0.143079
-0.15249,0.0442215
-0.0033285,-0.0403885
0.090366,0.0052588
0.0826931,0.147124
0.0843128,-0.00666992
0.076105,-0.137353
0.0656764,-0.0572591
-0.0276215,-0.0109326
-0.123545,-0.0329665
-0.119114,-0.0723199
-0.0793582,-0.0708758
-0.0749462,-0.0257198
-0.0394697,0.0700866
0.0393693,0.156821
0.080433,0.0400922
0.0623697,-0.00757514
0.0405988,0.0116316
0.0279768,-0.0337193
-0.0100697,-0.0548913
0.00970191,-0.0826895
-0.000669764,0.0209332
-0.0217265,0.0988331
0.0331847,0.0132298
0.143623,0.0574764
0.186834,0.0547486
0.139157,-0.0415363
-0.0543828,-0.0721659
-0.24367,-0.0358792
-0.147743,0.0522125
0.0125589,0.0711748
0.0800658,-0.0373082
-0.0245823,-0.0292214
-0.0773781,-0.0249179
0.0347547,-0.0783861
0.102006,-0.0589308
0.0633998,-0.0307205
0.023185,-0.0069978
-0.0324426,0.0922266
-0.0646365,0.0361514
-0.0899725,0.151838
-0.145835,0.142185
-0.180674,-0.0506789
-0.130123,-0.119998
-0.0182262,-0.057373
0.0632009,-0.025905
0.126755,-0.0810329
0.0594305,-0.0976152
0.0244363,-0.0120894
0.0847408,0.0846462
0.0666483,0.135051
-0.0037026,0.0717922
-0.0325599,-0.0517293
-0.0108195,-0.0749526
0.0306889,-0.0451343
0.0413017,0.0155237
0.0307461,0.00192934
0.0299007,0.0419005
-0.0116451,0.129201
0.0408939,0.102903
0.100259,-0.0913307
0.0508744,-0.0741612
-0.061424,0.00134306
-0.107878,-0.0315441
-0.0268383,-0.0911054
0.0325242,-0.022896
0.0281131,0.123019
0.0466058,0.105671
0.0518001,-0.0575901
0.0552132,-0.0894954
-0.0730895,-0.00979881
-0.141074,0.0267997
-0.0254512,-0.058818
0.0648347,-0.0762532
0.0641063,-0.0220031
0.0347479,-0.00287573
-0.0101831,0.0154378
-0.0398374,0.030781
-0.0241732,-0.0135408
-0.0123665,-0.0698016
-0.0278046,0.0621006
0.00686813,0.106202
0.0159886,-0.001601
-0.0286496,0.0411603
-0.0515884,0.0591421
0.0227104,-0.0168887
0.0813796,-0.0317003
-0.00257093,5.86e-05
-0.0860259,-0.0297651
-0.0358908,0.0144028
0.0192932,0.155453
-0.0570493,0.0284443
-0.0833602,-0.0633006
-0.147734,-0.00692266
-0.165901,0.0309308
-0.0541013,-0.0223272
0.0277861,-0.0379358
0.0696195,-0.0245851
0.166588,-0.0693178
0.199313,-0.0447441
0.118058,-0.00163707
-0.0808234,0.00035541
-0.296706,-0.0242476
-0.228252,-0.00931112
0.0549814,-0.0913698
0.266217,-0.13234
0.245636,-0.00405
0.162595,0.0574534
0.126499,0.156088
0.0585295,0.209076
-0.0117729,0.0303686
-0.0522884,0.00405449
-0.0997777,-0.0568803
-0.00476401,-0.0704988
0.113033,-0.0464294
0.0749475,0.0216243
-0.00251495,0.062854
-0.00433871,-0.0201212
-0.0154572,-0.00242556
-0.0747283,-0.00913143
-0.0800251,-0.0326201
-0.0326789,0.0418168
-0.0168669,0.0233633
-0.0361021,-0.0910269
-0.0814828,-0.0823374
-0.0937893,-0.0731456
-0.029447,-0.0202363
0.0164575,0.0260412
-0.01007,0.0283603
-0.0903447,0.0446673
-0.170517,0.0480894
-0.0998194,0.00213234
0.0582232,-0.0168487
0.126614,0.042137
0.116547,0.0464413
0.0206998,0.0193074
-0.223743,-0.00324577
-0.259913,-0.0164674
-0.107954,0.0299021
0.159825,0.0398057
0.368943,-0.044374
0.403029,-0.0417729
0.271815,0.00751574
0.151803,0.0897302
-0.0308176,0.0672079
-0.240274,-0.0576238
-0.280308,-0.040558
-0.209625,-0.00669303
-0.146796,0.0503423
-0.179758,0.0695913
-0.212012,0.0475594
-0.225076,-0.0316266
-0.095194,-0.170729
0.133382,-0.123525
0.305043,-0.0848205
0.30117,-0.0910619
0.313615,-0.0161457
0.380618,0.0439189
0.289923,0.0662594
0.0949745,0.129758
-0.101131,0.146003
-0.211909,0.00869192
-0.195649,-0.0842371
-0.139754,-0.0112007
-0.140283,0.0224805
-0.0663283,-0.0130073
0.0663548,-0.00597147
0.10091,0.0602279
-0.019172,0.0178362
-0.154541,0.0507865
-0.203105,-0.0236786
-0.134517,-0.111797
-0.0173554,-0.038314
0.0797114,0.0245062
0.0709341,0.0210359
-0.00624674,0.00185198
-0.0280075,-0.0302908
-0.0582919,-0.0981667
-0.0633261,-0.0903409
0.0417896,-0.0806963
0.109077,0.0876082
0.11761,0.129917
0.0995189,0.0327084
0.0345749,0.0306905
0.0390464,0.0419393
0.0855302,0.0413482
0.168619,-0.00445125
0.155808,-0.00826475
0.0206108,0.0500595
-0.10601,0.0346289
-0.147806,-0.116837
-0.142301,-0.082298
-0.118869,-0.032116
-0.109007,0.00303284
-0.135899,0.0230939
-0.0605854,-0.0427374
0.0742733,-0.0781896
0.14711,0.0124102
0.139415,0.109851
0.134597,0.0863117
0.117314,0.0170838
0.0614981,-0.0169851
-0.0381692,0.0807208
-0.0535068,0.0212451
0.00382853,-0.0704131
0.0333153,-0.0202156
0.0260853,0.0835073
-0.0751099,0.100808
-0.254491,-0.103971
-0.201164,-0.189585
-0.0920423,-0.105373
-0.036833,-0.0594627
-0.00862672,0.0217065
0.0644402,0.0346156
0.120555,0.00985555
0.124565,0.0370243
0.110617,0.121033
0.053228,0.0570549
-0.0359293,-0.0606095
-0.0513601,-0.0248947
-0.02678,0.0522817
-0.0420033,0.0803716
-0.0465969,-0.0527968
-0.041522,0.00896551
-0.0126717,0.0808862
0.0436795,-0.0512539
0.0213433,-0.114845
-0.0677337,-0.0216603
-0.07398,0.00842565
0.024928,0.0170243
0.0849815,0.0406286
0.0899437,-0.0159215
0.0804442,0.0174186
0.0881847,0.0210978
0.103343,-0.0368757
0.00852251,-0.0161358
-0.107304,-0.0069398
-0.137658,-0.00460914
-0.149294,0.0267058
-0.173658,0.042932
-0.0895478,-0.0270353
0.0062295,-0.0624919
0.00856001,-0.0137017
-0.0115788,0.0003656
0.00639336,0.0170167
0.0879929,0.0228651
0.166449,-0.00742641
0.156596,-0.0328205
0.0964869,-0.0289907
0.0661646,0.0208645
0.0909696,0.129081
0.101901,0.092754
0.0747447,-0.0196508
0.0264724,-0.0950281
-0.0599308,-0.0520469
-0.139011,0.0357697
-0.145055,-0.0627243
-0.111195,-0.0646678
-0.103701,0.00695637
-0.0485121,0.0650479
0.0548344,0.0726844
0.070493,0.00813532
0.0224006,-0.058643
-0.0319965,-0.0115366
-0.057346,0.0648845
-0.0283114,-0.0242535
-0.0291087,-0.0692863
-0.0479959,-0.021782
-0.0473603,0.0125858
-0.0550104,0.0269146
0.00196147,0.0126083
0.0594252,0.0137755
0.075686,-0.000310786
0.0708412,0.00701873
0.0454936,-0.0309608
0.017233,-0.00174182
0.0726234,0.0247795
0.0799885,0.0010755
0.0420475,0.0258001
-0.00289742,0.00102365
0.0129388,-0.00378056
-0.017231,-0.00242895
-0.0688203,-0.0133996
-0.0974458,-0.0425894
-0.104939,-0.0539633
-0.0832854,-0.00215079
-0.0344424,0.0774395
-0.0125811,0.0300411
-0.0271629,0.0648419
-0.0133624,0.0704554
0.0417206,0.0153953
0.0742439,-0.0210742
0.0292668,-0.0337051
-0.00895768,-0.0256292
-0.00435903,-0.0921245
-0.0019867,-0.0415952
-0.0279288,-0.00869332
-0.0574584,0.00727424
-0.0354041,-0.00321338
0.0852801,0.00312896
0.169609,0.0157727
0.127008,0.00987695
0.0478904,0.00687624
-0.0131477,-0.00919359
-0.0471641,-0.0373342
-0.0544172,-0.025149
-0.0373992,0.00755243
-0.0160574,0.0397063
-0.00797647,0.0169015
-0.0469948,0.00552817
-0.0249387,-0.0245781
0.0322783,0.0075597
0.0643935,0.0121591
0.0397147,-0.0168616
0.0444063,0.00415427
0.0410939,0.00827636
0.0219791,-0.00174026
-0.0229623,0.004735
-0.0477087,0.00613273
-0.0581173,-0.0103515
-0.0633358,0.0525723
-0.102591,0.0507736
-0.12981,0.0565895
-0.0631375,-0.00697494
-0.0106527,0.0203503
0.0163111,0.0338672
0.078389,-0.0813862
0.105667,-0.0464871
0.101588,-0.00397896
0.0884462,-0.0076599
0.0341163,-0.0130645
-0.0290602,-0.0325669
0.000288374,-0.0344485
0.0317557,-0.0317126
0.0158431,-0.022505
0.0239021,0.0235029
0.0356555,0.0591224
-0.034497,0.0539234
-0.0902891,-0.0802277
-0.0625226,-0.0566291
-0.00990653,0.0401291
0.0108706,-0.0183713
0.0165671,-0.0468999
-0.0285401,0.0340491
-0.0571908,0.0721753
-0.0668509,0.0356524
-0.076687,-0.00668073
-0.0665539,0.010856
-0.0294202,0.0651048
0.0247732,-0.0285062
0.0554894,-0.0508045
0.0575517,0.0235651
0.0508206,-0.0086694
0.0597181,-0.00687276
0.0352026,-0.018338
-0.00371646,-0.0224
-0.00482295,-0.03476
0.0191785,-0.00867867
0.0125334,0.0406556
0.0037128,0.0252847
0.00499716,0.0128682
0.00117604,-0.00923889
-0.020439,-0.00198175
-0.0170882,0.0100684
0.0097763,0.018576
0.00569627,0.0213203
0.016963,-0.02296
0.0423153,-0.0250058
0.00119337,-0.00748307
-0.0157402,0.0197094
0.0360592,0.0758879
0.0331759,0.00839162
-0.00169461,-0.0557991
-0.0333151,-0.0676838
-0.0646241,-0.0813979
-0.0903888,0.0383312
-0.105663,0.189974
-0.0410353,0.0291927
0.0391122,-0.104793
0.0527717,-0.0668674
0.0810833,0.00909796
0.0766981,0.00779531
0.02958,-0.0133907
0.00724383,-0.00257548
-0.0360926,-0.00314589
-0.0490724,-0.0122282
-0.00716034,-0.030697
0.0246372,-0.0592085
0.018519,-0.00291926
0.0134646,0.0812729
0.0385026,0.0606875
0.0712213,-0.0438969
0.0402326,0.000816949
-0.00652494,0.00874502
-0.0340876,-0.0420111
-0.0493166,-0.0109895
-0.127851,0.0634063
-0.168696,0.0794452
-0.0989296,0.000375648
0.0307978,-0.0462355
0.100795,-0.0146032
0.0782477,-0.0157606
0.0395955,-0.0258863
0.0358126,-0.0140171
0.0286961,-0.0264425
0.0316011,-0.0252175
0.0323331,0.00997612
0.0312907,0.0261137
-0.00484128,0.0101195
-0.0301353,0.0231711
-0.0274517,0.0131157
-0.0235756,-0.0260885
0.00699298,0.0124927
0.0348688,0.0604319
0.0895058,-0.0102055
0.0465374,-0.0604837
-0.0126362,0.00332001
-0.0345261,0.0939542
-0.083194,0.11918
-0.0336256,0.00154525
0.000431379,-0.0701697
-0.0389349,-0.0839422
-0.0589416,-0.0243257
-0.0492657,-0.0139679
-0.0181975,0.0139748
0.0221194,0.01449
0.0245822,0.00385912
0.00589469,0.0322063
0.00799339,-0.00564341
0.0121228,-0.0411023
0.00602128,-0.00608386
0.00264033,0.00729844
0.0113557,0.0258075
0.0435282,0.0643691
0.0662266,0.0143203
0.0348982,-0.00930097
0.0271408,0.022598
0.0224455,-0.0570672
-0.0476436,-0.0638939
-0.0942666,-0.0584246
-0.0938668,-0.0165627
-0.0645326,0.00596585
-0.0168177,0.0254995
0.0281917,-0.0101372
0.0366249,-0.0312116
0.0147269,-0.00743615
0.0279538,0.00791825
0.0487077,0.00547651
0.0460357,0.00410338
0.0429543,-0.00267941
0.0116532,0.0171521
-0.0157999,0.0239247
-0.0337075,-0.00266901
-0.0582775,-0.00420806
-0.0395294,0.00175346
0.00741401,-0.00320364
0.0154264,-0.00581317
-0.00153993,-0.0179076
-0.0150515,-0.0324838
-0.0458421,-0.0171166
-0.0614028,0.0012823
-0.0612225,0.065337
-0.0316814,0.235315
0.0344398,0.0916749
0.0536021,-0.142612
0.0322675,-0.118033
0.0361582,-0.029661
0.0421293,0.00746827
0.0134204,0.0236417
-0.00125144,0.00627189
-0.00429564,-0.00559754
-0.0513571,0.0764848
-0.05098,0.0857444
0.0250367,-0.0961528
0.132287,-0.0416087
0.216742,0.0200872
0.220187,-0.0218927
0.220899,-0.00834635
0.0993271,-0.0244947
-0.121616,-0.0334287
-0.250186,-0.0469416
-0.245633,-0.0454687
-0.135983,-0.00161131
-0.0514038,0.0311307
-0.0257712,0.0501931
-0.0419978,0.0487679
-0.0374842,-0.0434449
-0.0389296,-0.0145308
-0.0530211,-0.00537048
-0.0142862,-0.00308504
0.0210748,0.0143404
0.0387154,0.0113552
0.0451123,0.00335188
0.0421425,0.0191925
0.0492842,0.00154775
0.00545278,-0.0162787
-0.012674,-0.045614
0.0185443,-0.0293868
0.050485,0.0613707
0.0662798,0.0751416
0.0413442,0.0255036
-0.00477296,0.00346508
-0.0426106,-0.0476531
-0.0375299,-0.0379412
-0.0052614,-0.0392576
-0.0442703,-0.0148999
-0.0478252,0.0371697
0.00984137,0.0174665
0.0396634,-0.00994134
0.0138674,0.026452
-0.055071,0.0680461
-0.0665018,0.0658573
-0.00343147,0.0263272
0.0198975,-0.0382661
0.0125215,-0.0367784
-0.0102193,-0.045172
-0.0208514,-0.0649499
-0.0280596,-0.0399902
0.0115468,0.00243793
0.0760069,0.0182351
0.0495328,0.0176861
-0.00540775,0.0302773
0.0239263,0.0226677
0.0416642,-0.0168148
-0.0280338,-0.00194881
-0.0423821,0.0280622
0.0325324,-0.0099546
0.076057,-0.0442971
-0.0213525,-0.0419389
-0.0753796,0.0142617
-0.0221392,0.0333802
0.0127493,-0.034397
-0.020986,-0.0356634
-0.0703942,-0.0244345
-0.0414786,0.0589643
0.0221084,0.103321
0.038107,-0.0498588
0.0108956,-0.0476211
0.00695622,0.0178445
0.0310292,0.027996
0.086297,0.0814869
0.156531,0.0289362
0.150296,-0.0231997
0.0516291,-0.0367895
-0.0587277,-0.0358513
-0.126215,-0.0210702
-0.0957702,-0.00844426
-0.0668046,0.0231745
-0.0369593,0.0176444
-0.000820294,0.0171055
0.0160814,0.0494613
-0.0062823,-0.0359398
-0.0702105,-0.0830304
-0.104562,-0.0340624
-0.0778603,-0.00290603
0.0213219,-0.00697621
0.117653,0.0215704
0.161214,0.0309771
0.128275,0.027115
0.0560848,-0.0156376
-0.0445716,-0.0326307
-0.131986,0.0187274
-0.180057,0.00677325
-0.119021,-0.0465323
0.0100491,-0.00854028
0.0800469,0.020074
0.08237,0.0197416
0.0525137,0.010164
0.023716,-0.0297035
-0.0120528,-0.0239043
-0.0145072,0.0284169
0.00530581,0.00659556
0.0217284,-0.00616477
0.0257275,0.0140415
-0.00466102,0.0209396
-0.0774426,0.0208703
-0.0808983,0.0358155
-0.0433583,0.0594427
-0.0171077,-0.0015102
-0.00310772,-0.0398131
0.0266435,-0.00793237
-0.00857303,-0.00329361
0.0257397,-0.0205927
0.14801,-0.0182024
0.118376,-0.0224371
-0.00412972,-0.00960122
-0.0426835,-0.00976427
-0.0264695,-0.0322661
-0.037257,-0.0578144
-0.0250137,-0.0322933
-0.00818769,0.0118046
-0.0670814,0.0405633
-0.10703,0.0419587
-0.0944379,0.0400597
-0.0723603,0.0561701
-0.057425,0.0454575
0.0122627,-0.0349819
0.0993826,-0.0364807
0.130412,0.000574756
0.191682,0.0288843
0.176646,0.0332476
0.117308,0.0126197
0.0407454,-0.0399869
-0.0411463,-0.0536199
-0.1117,0.00482391
-0.110484,-0.0311307
-0.0392732,-0.0111207
0.0284809,0.00530007
0.0475884,-0.030056
0.0506537,0.00393437
0.0171492,0.0305044
-0.0166229,0.0137677
-0.0111905,-0.012061
-0.0253475,-0.00390687
-0.093446,0.0341003
-0.0968854,0.0238264
-0.0445233,-0.0337859
-0.0299227,-0.0492251
-0.045792,-0.0270648
-0.0244934,-0.00728922
0.0345077,0.0292684
0.0634341,0.0293196
0.0594608,0.0027662
0.0168599,0.00844944
-0.0543764,0.0157896
-0.0860741,0.0173668
-0.0894057,-0.00209084
-0.0866714,-0.0134935
0.00951333,-0.0178166
0.154245,0.0185122
0.207942,0.0212313
0.0217483,-0.00463946
-0.0973451,-0.0456848
-0.0913992,-0.0378783
-0.0883478,0.00238792
-0.0464442,0.0131804
0.02371,0.0165976
0.0888265,0.0332009
0.0807247,0.0583324
0.0425437,0.0639657
0.0578931,0.00458132
0.129393,-0.0730061
0.180827,-0.00758347
0.176087,0.0196099
0.108735,-0.0106365
0.023545,-0.0139993
-0.0313351,-0.0198845
-0.0922808,-0.0467135
-0.148842,-0.0633696
-0.147318,-0.0403157
-0.101927,0.0318734
-0.0527845,0.053126
-0.0643971,0.0636447
-0.107986,0.0679387
-0.109861,0.0364865
-0.0510823,0.0814015
-0.0334975,0.0039659
-0.0246289,-0.105822
-0.0158842,-0.0343352
0.0578921,0.0203895
0.126625,-0.0745362
0.0501607,-0.0576028
-0.0292868,-0.0178803
-0.00588576,-0.0328982
-0.00508772,-0.0268441
0.00427187,-0.015788
0.0123927,0.0144531
-0.000744957,-0.000112467
-0.0215264,-0.0264909
0.0112025,0.0311216
0.0212693,0.113173
0.0240764,0.191669
0.0216908,-0.00676235
-0.00514902,-0.134146
-0.0248623,-0.0462012
-0.00408907,-0.0168628
0.0307242,-0.00383052
0.0386541,-0.0217361
0.071631,-0.0323396
0.0632556,0.00452051
-0.0141229,0.0353594
-0.0568419,0.0420655
-0.0361844,0.00538766
0.00826979,-0.00299601
0.0939064,-0.00101776
0.121285,0.0128037
0.0427166,-0.00279998
-0.0373672,-0.0443532
-0.0830945,-0.104699
-0.0762253,-0.0660983
-0.0683018,0.0371958
-0.106412,0.132064
-0.147589,0.0959403
-0.102659,-0.00124765
-0.0292681,-0.0242657
0.0844843,-0.0174935
0.122593,-0.0176228
0.0823987,-0.0126214
0.0396093,0.00616365
0.0206289,0.0484559
0.0142519,0.075297
-0.0329091,0.0805738
-0.0435778,-0.0771388
-0.0206142,-0.108779
-0.00744089,-0.0525871
0.0209577,-0.0827755
0.0412922,-0.0661527
0.0686544,0.00567288
0.071738,0.043837
0.0475567,0.0313151
0.0347241,0.0328294
-0.00857822,0.0736754
-0.0503996,0.0533587
-0.0518006,0.0302069
-0.0472227,-0.0348222
-0.0368104,-0.0532476
-0.00532449,-0.00928124
-0.0426365,0.00597097
-0.0564707,0.0102453
-0.0121952,-0.00525329
0.0195676,-0.0171716
0.00924246,-0.026498
0.0254583,-0.0203534
0.0385274,0.0211095
0.0730648,0.0605502
0.133698,0.0297273
0.129769,0.0536077
0.104245,0.082969
0.0961274,-0.00895727
0.0746083,-0.0825921
0.0136362,-0.0624474
-0.0869505,-0.06343
-0.143831,-0.0189767
-0.113926,0.0364037
-0.10027,0.0388352
-0.087361,0.00163361
-0.0655089,-0.014624
-0.0817822,-0.0165314
-0.0973529,-0.0141788
-0.0639188,-0.00123256
-0.0223955,-0.00591867
-0.0561695,-0.0202769
-0.0870266,-0.0289532
-0.0610768,-0.00833399
-0.0389582,0.0174752
0.0075964,-0.00435208
0.0648254,0.0109105
0.122413,0.0410531
0.160895,0.0673288
0.173326,0.040312
0.179735,-0.0622173
0.0785883,-0.0296822
0.00637942,0.00341409
0.0263966,-0.0166832
0.0257916,-0.0145084
-0.0281692,-0.00361029
-0.0910725,0.0082049
-0.0702079,0.0274656
-0.0122488,0.0182273
-0.0522645,0.0135498
-0.114016,-0.0123407
-0.000318614,-0.0294696
0.00835542,-0.0111945
-0.0746887,0.0266482
-0.0451686,-0.00823019
0.040907,-0.0259985
0.0487844,0.0568788
-0.00476295,-0.0071057
-0.054833,-0.0651736
-0.0443657,0.0241962
-0.00130323,0.119328
0.0488229,0.0627743
0.0663603,-0.108707
0.0830982,-0.15157
0.0982221,-0.0342617
0.0536074,0.0701296
0.0142547,-0.0191492
-0.0071908,-0.00367572
-0.0192749,0.059817
-0.0299245,0.0432326
-0.0454615,-0.00658779
-0.0549415,-0.0311457
-0.060767,-0.0267646
-0.0596755,0.0264214
-0.0602184,0.0138803
-0.0462223,-0.0339974
0.0318424,-0.0122427
0.0865988,0.00866231
0.0633105,0.0793794
0.0399431,0.0576803
0.012964,-0.0369929
-0.0361807,-0.0470923
-0.068754,-0.0136486
-0.0908643,-0.000604376
-0.0952319,0.00571749
-0.0365613,-0.00962723
0.0842022,-0.0217032
0.19434,-0.0126238
0.202556,0.024558
0.193837,0.0306673
0.139701,-0.0349493
0.0427604,-7.91e-06
-0.00529785,0.12316
-0.0349151,0.11056
-0.0305994,-0.0789862
-0.0629097,-0.103753
-0.0980989,-0.0397442
-0.114658,-0.0159851
-0.119589,-0.048965
-0.12586,-0.139075
-0.142999,-0.0391886
-0.13407,0.137719
-0.143922,0.111629
-0.10995,0.0281385
-0.0128396,0.0182662
0.0490635,0.0252669
0.0859355,0.00184165
0.0593269,0.0126998
0.0211374,-0.0320515
0.0661311,-0.0322197
0.10235,0.0155705
0.0620244,0.029988
-0.000460511,-0.0228737
0.00987929,-0.0149863
0.0464573,0.000337475
0.0123833,-0.0294854
-0.00697542,-0.0472943
0.0631281,-0.0596571
0.0628169,0.00106335
-0.00545169,0.0312497
-0.0465099,0.0353014
0.0432042,0.031554
0.126965,-0.0101662
0.0833688,-3.46e-05
-0.00738407,-0.00212135
-0.0730067,-0.016931
-0.0622185,0.00509292
-0.052875,0.0402843
-0.0192858,0.0178279
-0.0477437,-0.0495936
-0.0451232,-0.0527968
0.0531631,0.000662524
0.0828307,0.0705095
0.00046839,0.100605
-0.0567279,0.0303059
-0.0517132,-0.0429746
-0.0219779,-0.0291964
-0.00237041,-0.0238694
0.00900088,-0.0403019
0.0366931,-0.0335187
0.0366041,-0.0122097
0.00563614,-0.00158987
-0.00490448,0.00158343
-0.0268353,0.00111669
-0.0248105,-0.000133615
-0.0111383,0.0156739
0.0226632,0.0823576
0.0504756,0.0180035
0.0553652,-0.0352337
0.0501774,0.00855183
0.00153098,0.0373919
-0.0468631,0.00587247
-0.0565052,-0.0656193
-0.0132733,-0.0176515
0.0337139,0.0521602
0.0179623,0.0345523
-0.0486775,-0.0384357
-0.0782917,-0.0255037
-0.0506984,-0.0375461
-0.0877875,-0.0417998
-0.0992744,-0.0543757
-0.0284284,-0.0357232
0.0278019,-0.00836719
0.0501418,0.102282
0.0690461,0.133572
0.077192,-0.0288507
0.0280006,-0.0233101
-0.032908,0.0565
-0.0200045,0.0512992
0.0424227,0.0287954
0.100115,-0.0595682
0.0671071,-0.0713829
0.0136604,-0.0250932
0.0888179,0.0124449
0.168007,-0.00110938
0.161078,-0.0167717
0.0928823,-0.00407099
-0.00292731,0.00892766
-0.130955,0.0107232
-0.219221,-0.000789304
-0.236578,-0.0035207
-0.165744,0.00470202
-0.0803477,0.00998521
-0.0481756,-0.020177
-0.0822433,-0.0207995
-0.112996,0.00972255
-0.0554588,-0.0232823
0.0200404,-0.0406216
0.0178047,0.0110057
0.0446267,0.0454376
0.13111,-0.0174488
0.105244,-0.0240851
0.0542635,0.00904186
0.0318985,0.0182326
0.0247921,0.0210398
0.0440478,0.00862956
0.065149,0.00462773
0.071262,0.0188719
0.0327973,0.0280824
-0.002297,-0.0285885
-0.0122527,-0.0358254
0.00175707,-0.043857
-0.010618,-0.0421696
-0.0633896,0.0302286
-0.0956626,0.0456186
-0.0452001,-0.000505177
0.030841,-0.0362283
0.0440385,0.00906189
0.025402,0.0229039
0.0191683,0.0105199
-0.00231857,0.0093391
-0.0128424,0.0243646
-0.00320941,0.0611816
0.0247781,0.00657166
0.0383955,-0.0380504
0.0292804,-0.0313139
0.027487,-0.00855864
0.0145909,-0.00151296
-0.0115504,0.00340347
-0.0375327,0.000966887
-0.0355488,-0.0120426
-0.0453827,0.0116602
-0.0469945,0.0611006
-0.00700584,0.0145863
-0.0139806,-0.0488491
-0.0456807,-0.045557
-0.0169485,-0.0462753
7.74e-05,-0.041455
0.0384973,-0.0167537
0.0576178,0.0232314
0.0411589,0.0417474
-0.00364838,0.0261316
-0.0747284,0.0354209
-0.0609719,0.0180359
0.00858361,0.0326567
0.0694967,0.0465089
0.0844437,-0.0544706
-0.0342672,-0.0627999
-0.116802,-0.0573652
-0.064376,-0.019126
0.0410625,0.0423094
0.0985476,0.0481237
0.0634735,0.0339218
0.0525371,0.0367363
0.0338345,0.0676567
-0.0715668,-0.0302502
-0.0962775,-0.0902286
-0.00901724,-0.0269767
0.035166,0.0238185
0.0468726,-0.00984772
0.0298025,-0.0409385
-0.0193277,-0.0183768
-0.0282832,-0.0167848
-0.00880563,0.0117695
0.0096249,0.0367225
0.0375551,0.0880579
0.0200515,0.0238301
0.0125319,-0.0592041
-0.0221083,-0.0474254
-0.0926205,-0.00801307
-0.136254,0.0348539
-0.088757,-0.00710873
-0.00834272,-0.020144
0.0283336,0.0343152
0.0544961,-0.0203557
0.129754,-0.0281249
0.172279,-0.012435
0.134699,-0.00426563
0.0532301,0.0295157
0.0070526,0.00961208
-0.0130916,-0.0120924
-0.0800672,-0.00413612
-0.107091,-0.00500572
-0.0633853,-0.0258
-0.0411439,-0.04095
-0.0399109,0.00308345
-0.0680733,0.031713
-0.0921474,0.0251839
-0.0308788,0.00260508
-0.0179416,0.0318581
-0.0289269,0.0562452
0.0226304,0.0238144
0.106867,-0.0247537
0.101435,-0.0272214
0.0561514,-0.00807071
0.0173954,-0.00760554
0.0477675,-0.0138289
0.0867261,-0.0283179
0.0994815,-0.0248114
0.0773417,0.0159875
-0.019452,0.0460333
-0.129414,0.0418546
-0.173983,-0.00538723
-0.144119,-0.0321586
-0.0993599,0.032377
-0.0836522,0.0430167
-0.0484967,0.00143017
0.029123,-0.0156471
0.0761348,-0.0376873
0.0804597,-0.0340846
0.0590311,-0.014308
0.0254755,-0.0106651
0.0244768,-0.00909856
0.0640897,-0.0165686
0.106553,-0.00835435
0.091315,0.00752354
0.0589756,0.00700625
0.00909441,0.0157635
-0.0551922,0.024113
-0.0861683,0.0287262
-0.0557702,0.00872178
-0.0253622,-0.0257697
-0.0374394,-0.0124463
-0.0606402,-0.0229417
-0.0313447,0.020375
0.0117168,0.0224882
0.047216,-0.0462898
0.0447541,-0.0291791
0.0185082,0.0326237
-0.0102203,0.0358485
-0.0361291,-0.0191833
-0.0627465,-0.034893
-0.0818141,-0.0180971
-0.0655526,0.0231297
-0.0300499,0.0333855
0.0689644,-0.00613315
0.142817,-0.0105883
0.0934478,0.0255268
-0.0129927,-0.00399703
-0.00890398,-0.0457638
0.0331212,-0.0313719
0.00161329,0.012232
-0.0511832,0.0292011
-0.0372841,0.015786
0.0140435,-0.0030868
-0.00170221,-0.00508187
-0.0405006,0.0271054
-0.033954,0.0232948
-0.0302101,0.0171149
0.00407454,0.0191159
0.0509298,0.0162148
0.0677798,0.0427354
0.0631269,0.0362194
0.051203,-0.040437
-0.00155708,-0.0611732
-0.0268069,-0.0661598
-0.0338199,-0.0454067
-0.00838086,0.00610762
-0.0146872,0.0410706
-0.031805,-0.00596757
-0.045053,-0.0164153
-0.0471086,0.00322712
-0.0127052,0.00959144
0.0038414,0.0168485
-0.0108972,0.0389393
0.00303566,0.0160879
0.0174944,-0.0428788
0.0308247,-0.0192159
0.032928,0.018468
0.0160204,0.0218792
0.0221914,0.0031937
0.0171418,-0.053276
-0.0198014,-0.0392579
-0.0112134,-0.00621179
0.0111784,0.0106939
0.00382307,0.0129809
-0.00691935,0.00692299
-0.00420639,-0.00704404
-0.022816,-0.00909532
-0.0378565,0.0142185
-0.0273998,0.047124
-0.00646789,0.032248
0.0533103,-0.0345565
0.0978236,0.0275588
0.0761263,0.0225131
0.0295329,-0.0643294
-0.0169719,-0.0367917
-0.0637979,0.00682822
-0.108501,0.0089486
-0.113112,0.0166971
-0.0264104,0.0275399
0.0815437,0.0180148
0.0836746,-0.0121938
0.0282996,-0.0179923
0.0326676,-0.00500537
0.00869737,0.016593
-0.0453771,0.00686616
-0.0604599,-0.0140689
-0.0510128,0.0171897
0.00469023,-0.0010925
0.0750187,0.00451277
0.0417121,0.0382964
-0.00595318,0.0695145
-0.0316703,0.0297965
-0.05824,-0.0348229
-0.0548222,-0.0550135
-0.0165759,-0.0776962
0.0186468,-0.0462869
0.0407298,-0.0245195
0.0418759,-0.00420107
0.0441681,0.0158018
0.0167622,0.0138033
-0.0328944,0.00578185
-0.0813683,-0.010531
-0.076243,-0.00185249
0.00506584,0.0394315
0.0549692,0.0643557
0.0618503,0.024421
-0.0058012,-0.0363948
-0.00391291,-0.0444294
0.0627768,-0.0346165
0.0343631,-0.0326582
-0.00264229,-0.020106
0.0175483,0.0107405
0.0374643,0.0198119
0.0371606,0.00587429
-0.00768754,0.0226526
-0.0607296,0.0237975
-0.0876256,2.2e-05
-0.0964805,0.0160434
-0.0783393,0.0413295
-0.0399309,0.00400211
0.0397859,-0.0178175
0.0870443,0.0111459
0.066034,-0.00456485
0.0464879,-0.00825655
0.0317852,-0.0250327
0.000653619,-0.0351581
0.000749892,-0.0222797
0.024695,0.017364
-2.36e-05,-0.0152149
-0.0342451,0.00646139
-0.0527739,0.0343263
-0.0624401,0.0251291
-0.0440608,-0.00274917
-0.0148593,-0.0192812
0.00885238,-0.00568578
0.0566107,0.0213217
0.0531054,0.0553517
0.0469847,0.0121908
0.0561411,-0.0437004
0.0631464,-0.0155826
0.0524412,-0.0163236
0.0216696,-0.0248454
0.00521327,-0.0489691
-0.0349712,-0.00199732
-0.0566176,0.073244
-0.0570521,0.0682859
-0.0474203,-0.00924214
-0.035147,-0.0301613
-0.047966,0.0124547
-0.0548946,-0.00345886
-0.0306105,-0.0786039
0.00258164,-0.0816519
-0.0217236,-0.000109037
-0.0658919,0.0460728
-0.0298144,0.0218525
0.0307618,0.000293837
0.0332879,0.00684756
0.0438772,0.0159377
0.0327263,0.0428034
0.0127617,0.0146856
0.00367134,-0.00527794
0.0189641,0.000948788
0.0533786,0.00429769
0.072777,5.28e-05
0.0488404,-0.00748367
0.0255525,-0.0167938
-0.00728693,-0.00907931
-0.0677008,-0.00730597
-0.0923053,-0.010715
-0.090469,-0.0119654
-0.0277798,-0.0103111
0.0803456,0.0298472
0.110098,0.0809173
0.0854076,0.000188105
0.0370315,-0.0551321
-0.00840504,0.0114804
-0.0262091,0.0457115
-0.0320016,0.0361169
-0.00428332,-0.0188181
0.0493533,-0.0504613
0.0260984,0.000951402
0.0073339,-0.00284283
-0.0301225,-0.0166743
-0.0799221,0.0280227
-0.114887,0.0754757
-0.067964,0.0705406
0.00288955,-0.0671156
-0.0149632,-0.114459
-0.0328562,-0.0606682
-0.0218441,-0.00549628
0.000223403,0.00635085
0.0287809,-0.0020407
0.0172798,-0.00123087
0.0179664,-0.00225324
0.0406589,-0.000865652
0.0252484,-0.0109345
0.00618081,-0.0169035
0.0096636,-0.0055877
0.0494995,0.0147189
0.0332088,0.0526077
-0.0100092,0.00632983
-0.0137875,0.0315674
-0.0301774,0.0729776
-0.0167251,-0.0583607
0.0197683,-0.0690077
0.0366192,-0.0293124
0.0351976,0.00924807
0.0429385,0.0455812
0.0483544,0.048838
0.0369765,0.0139843
0.00703728,-0.0161385
-0.0239581,-0.0186191
-0.0382366,0.0141829
-0.0460747,-0.014189
-0.0276007,-0.0406111
-0.016088,-0.0173305
-0.0208903,0.0155764
-0.00872651,0.0205613
0.0180364,-0.0118206
-0.000686796,-0.0265917
-0.0149337,-0.0288357
-0.0110815,0.0100532
0.00533155,0.0311727
-0.0182664,0.0195762
-0.0463712,0.0658953
-0.0294847,0.111643
-0.00846486,-0.0239894
0.000166937,-0.102738
-0.0308991,-0.0216423
-0.00436828,0.0571968
0.0275351,0.0074811
0.0562279,-0.00617449
0.0574694,-0.00343132
0.00453199,0.0160612
-0.0274058,-0.033268
-0.00836553,-0.0321038
-0.0299112,0.0479931
-0.0261288,0.0291354
0.0167087,-0.0633776
0.014814,-0.0601418
0.0256385,-0.0244309
0.0342208,-0.0218482
-0.0174325,-0.0172209
-0.0289217,0.00181396
-0.00781312,0.0163162
0.0304662,0.0129527
0.0390734,-0.00742071
0.0174194,-0.00543306
0.0189185,0.0260862
0.0229589,0.014095
0.00292673,-0.00354503
-0.015161,-0.0228663
-0.0413456,-0.0161109
-0.0732743,0.0205834
-0.0360267,0.0313653
-0.00559183,0.028998
-0.00852099,0.0243953
0.0295317,-0.0284017
0.0414898,-0.0210115
0.0167912,0.0073628
-0.0217814,0.00622689
-0.061244,0.00906231
-0.046733,0.00695831
0.000666518,-0.0047343
0.00228501,-0.00107795
0.0116077,-0.0139618
0.0134945,-0.0224239
0.0201557,-0.00241782
0.0472973,-0.0194776
0.0300577,0.00598554
0.00827866,0.0357506
0.0276314,0.0409822
0.0260025,0.0407289
0.00798469,0.00401321
-0.000798558,0.0215998
-0.0362787,0.0464259
-0.0149474,-0.0582193
0.0103223,-0.0812711
0.0126755,-0.0201685
0.00622381,0.017134
0.0098612,0.00304961
0.0322704,-0.0155361
0.0072352,0.00613443
-0.0297902,0.0532641
-0.0403245,0.0403943
-0.0192386,-0.00127141
-0.0250339,0.00318462
-0.0284782,0.0554432
0.0307855,0.04097
0.0410498,-0.049389
9.23e-05,-0.0985787
-0.0211427,-0.0774424
-0.028422,-0.0303529
-0.0193805,-0.000798672
0.00190237,0.0274343
0.00960301,0.0157666
-0.0114051,-0.0146163
-0.0235127,-0.0149436
-0.0228519,0.0104825
0.00801356,0.0182376
0.0271156,0.0063162
0.0214424,0.0125785
0.0339783,-0.00958157
0.0324327,-0.0230731
0.0310981,-0.0325523
0.0417094,-0.0229195
0.0152551,0.0220519
-0.0423176,0.0307323
-0.0681455,0.00908833
-0.0756238,0.0353067
-0.0595226,-0.00355323
-0.0159221,-0.060698
0.0433119,-0.0076431
0.062807,0.0363535
0.0346191,0.0390738
-0.00986249,0.0143593
-0.0382779,-0.0098067
-0.0361249,-0.0133141
0.00507777,-0.0149533
0.0472738,-0.0244955
0.034619,-0.0199258
0.0487231,0.00833172
0.0392342,0.040387
0.0293102,0.0480364
0.0101878,0.0555415
-0.00789303,0.0121987
-0.023429,-0.0402763
-0.0440466,-0.0365725
-0.040395,-0.038272
-0.0405933,-0.0255782
-0.0461035,-4.27e-05
-0.0281837,0.0043838
-0.00618209,0.0030918
0.0101063,0.0119407
0.0075868,0.00997115
0.00868505,0.0245301
0.0165899,0.0258128
0.0202693,-0.0184097
0.027832,-0.0292802
0.0310234,0.00381494
0.0212858,0.0308371
0.0110013,-0.00060503
0.0141994,0.00784391
0.0130812,0.028606
0.020107,-0.0175338
0.0206128,0.0192686
0.0360567,0.114816
0.0291843,-0.0106269
-0.0150835,-0.0972437
-0.088074,-0.0499061
-0.13245,-0.0388213
-0.0907139,-0.0527339
-0.011629,0.000743462
0.017254,0.0823019
0.0692852,0.0658007
0.131489,0.00367887
0.077544,-0.0350209
-0.042481,-0.0270789
-0.109133,-0.0269439
-0.100229,-0.00992872
-0.0438121,0.000514836
-0.00748659,-0.00309785
0.0289666,-0.00528816
0.0507735,-0.0113196
0.0434093,-0.00802089
0.0313332,0.0036575
0.0215919,0.004422
0.00367711,-0.0187969
-0.0137159,-0.0145576
0.00334145,0.0171337
0.0129349,0.0161785
0.0324353,-0.00793365
0.0169482,0.0538198
-0.0269733,0.126093
-0.0034688,-0.0211513
0.014907,-0.0954897
-0.0285766,-0.0229457
-0.0628546,0.0183803
-0.0198496,-0.00658377
0.023912,-0.00105535
-0.0113205,0.0170331
-0.0367481,-0.0287216
-0.019652,-0.0328166
0.0180988,-0.018952
0.0456565,-0.0244116
0.0503525,-0.0326264
0.0139734,-0.0199095
-0.0106407,0.0321464
-0.00550782,0.0516742
0.00154843,0.0214985
0.0069331,0.0716113
0.00926633,0.0282553
-0.0567366,0.0365207
-0.0947657,0.0316109
-0.0383422,-0.0586354
0.0208835,-0.0574221
0.0549398,-0.0047631
0.0210529,0.0135766
0.0148181,0.00529122
0.0468621,9.67e-05
0.0713575,-0.00897396
0.0305021,-0.0190921
-0.0201762,-0.0215003
-0.0792471,-0.0141116
-0.0701071,-0.0118924
0.0539098,-0.013988
0.085877,-0.0123366
0.0101367,0.00674491
-0.058097,0.0553877
-0.0359751,0.0352211
-0.00349927,-0.0151805
0.00948663,-0.022922
0.0219524,-0.00962869
0.0341282,0.00557565
0.0168867,0.0133535
-0.017699,0.0296427
-0.0250221,0.0125084
0.0138186,-0.0166061
0.0510947,0.0169959
0.04566,0.0208992
0.0574049,-0.0597421
0.0232406,-0.0413102
-0.044592,0.00849606
-0.0724772,-0.00563083
-0.0484389,-0.0175917
-0.0328744,-0.0117877
-0.0681656,0.00879905
-0.0573779,0.059384
0.0139956,0.0313329
0.0195339,-0.0421513
0.00124879,-0.0140593
0.00144699,0.0144693
-0.00975364,0.0309389
-0.00120252,0.051177
-0.0287098,-0.00399109
-0.0250526,-0.0544554
0.0187911,-0.0189335
0.0652101,-0.00238554
0.0708593,-0.0164417
0.00157677,-0.0085186
-0.0409091,0.0276922
0.00509482,0.0301843
0.0410629,0.0507603
0.0126489,0.0316816
-0.0268074,-0.0493777
-0.0202734,-0.04482
0.0471583,-0.0259686
0.0765731,-0.0242196
0.0598303,-0.0120008
-0.028968,0.0079112
-0.079128,0.00710568
-0.108493,-0.00196852
-0.0600997,0.0145164
-0.0216595,0.0515202
-0.0167897,0.0415743
0.0482115,-0.0410143
0.0837236,-0.0669397
0.00481794,-0.0246789
-0.0643529,0.0103033
-0.0373594,-0.00840444
0.0220283,-0.0411973
0.0371342,0.021801
0.0342091,0.0410576
0.0374132,-0.0184734
0.0203298,-0.00129866
0.00162609,0.000578191
-0.021073,0.0152886
-0.03306,0.0347722
-0.0466349,0.0266665
-0.0515772,0.0184484
-0.00918845,0.0139228
0.0924912,-0.0364912
0.149421,-0.0126795
0.126422,-0.00678613
0.0877119,-0.00565939
0.0465479,-0.00622358
-0.0315704,-0.0077316
-0.123662,-0.0125578
-0.14829,-0.00878391
-0.12564,-0.00685995
-0.0791262,0.0079681
-0.0463714,0.0427111
-0.0107656,0.0194946
0.010516,-0.00905373
0.00831801,-0.0177753
0.01507,-0.0211583
0.00211057,-0.00207219
-0.00550692,0.00668194
0.00304902,0.0604175
-0.0779007,0.00989188
-0.00702985,-0.0607827
0.0618195,-0.0387623
0.043874,0.0315981
0.0513351,0.0204776
0.0881048,0.0151779
0.106426,0.0410859
0.0893362,0.0207233
0.0736327,-0.016358
0.0373689,0.00125128
-0.0063937,0.00765255
-0.0528925,0.00949787
-0.103794,-0.0287623
-0.106412,-0.0565817
-0.0576195,-0.0647045
-0.0414504,-0.0508837
-0.0656002,-0.00883696
-0.0843968,0.0213798
-0.0561573,0.0270462
-0.00214612,0.0195418
-0.0103971,0.0321444
-0.0112843,0.0775638
0.0190904,0.0471359
0.059515,-0.0185734
0.107754,0.0295147
0.152225,0.0783235
0.164753,-0.0459215
0.0631449,-0.0803379
-0.0539854,-0.0308905
-0.0626272,-0.0176742
-0.0462122,-0.0109023
-0.0435971,-0.0114135
-0.0513086,-0.000657039
-0.0709063,-0.00297258
-0.0536214,0.00276202
-0.0263124,-0.00472864
-0.00325439,-0.0737678
0.00384863,-0.0469922
0.0062027,0.00249353
0.0590437,0.0274284
0.0859611,0.0239888
0.0679221,0.0269389
0.0453656,0.0320824
0.0158346,0.0284398
-0.0298288,0.0165262
-0.0391086,0.0109812
-0.028048,0.0108441
-0.0354844,0.0168333
-0.0155722,-0.0120457
-0.0038145,-0.0359524
-0.0300652,-0.0400835
-0.0408441,-0.0315902
-0.0314173,0.00326076
-0.0385709,0.0389058
-0.0221564,0.0378438
0.0480947,0.0322421
0.0865208,0.00503341
0.0896175,-0.0168007
0.105598,-0.0112247
0.0767147,-0.00495701
0.0328532,-0.00341944
-0.00658445,0.00372296
-0.0436468,0.00479725
-0.06736,-0.019355
-0.0777918,-0.0308192
-0.0583137,-0.016162
-0.0650147,-0.00460504
-0.120528,0.0061125
-0.110709,0.020288
-0.0136932,0.0093092
0.0306434,-0.0221396
0.024732,0.0302069
0.0303155,0.0214423
0.0637581,-0.0173887
0.0741137,-0.027854
0.050728,-0.0112134
0.0539647,-0.00165743
0.0194417,0.0137223
-0.0503497,0.0300466
-0.0689633,-0.0142271
-0.0275278,-0.0421044
0.0382951,-0.0153802
0.0335128,0.0183154
0.00903083,0.0335473
0.0300772,0.00849113
0.0624702,-0.0254817
0.0654214,-0.0113291
0.0120322,0.036999
-0.0177904,0.06097
-0.015221,0.0219088
-0.0213507,-0.0233324
-0.0783077,-0.0107116
-0.16245,9.26e-05
-0.140979,-0.00915558
-0.0533448,-0.0302305
-0.00121808,-0.00812551
0.0390729,0.0300542
0.0945575,0.00566326
0.135679,-0.0229406
0.0915733,-0.00859309
0.0139895,0.0152029
-0.00778265,0.00417904
-0.0209852,-0.00853213
-0.0611282,0.00255448
-0.023895,-0.0248627
0.0555343,-0.0544673
0.100527,-0.0366342
0.0074424,-0.0275629
-0.0578511,-0.00933139
-0.0163738,0.0189539
0.0356222,0.0207801
0.0630196,0.00821779
0.0653031,0.0558466
0.0248581,0.144419
0.0244022,0.033079
0.0364243,-0.044611
-0.0382098,-0.0457054
-0.109552,-0.0454656
-0.0909232,0.0116511
-0.0276018,0.0329516
0.00212494,-0.0269775
-0.00825727,-0.0262636
-0.0438298,0.00677069
-0.106733,0.00867175
-0.130202,0.00746395
-0.0993959,0.00761227
0.00520534,-0.0062718
0.101624,0.00883639
0.113957,0.00266674
0.0867687,-0.0306925
0.0479519,-0.0698541
0.0209869,-0.0473345
0.0046928,0.0259375
0.014244,0.0420933
0.0315952,0.0102373
0.0320103,-0.0112547
0.0202779,-0.00196554
0.00447873,0.0185023
-0.0121919,0.0271507
-0.0118573,0.0341376
-0.0121537,0.0234807
-0.0284234,-0.0117325
-0.0339595,-0.0188635
-0.0382033,0.0065627
-0.062176,0.0043626
-0.0747904,0.00837956
-0.0422656,0.00287825
0.00718937,-0.0467857
0.0308047,-0.0207554
0.0252149,0.0597668
0.0273009,0.0107281
0.0239208,-0.0445493
0.0292204,-0.00808652
0.0111868,0.0188243
-0.00176954,-0.0187228
0.0376354,-0.0292225
0.0843201,-0.000441664
0.0867244,0.00505744
0.0438742,0.0098217
-0.0199039,0.0249108
-0.0316326,-0.00914632
-0.0198222,-0.0271057
-0.0536356,0.0192882
-0.0445198,0.0237104
-0.0233561,-0.0315918
0.0115914,-0.0323568
0.0270922,-0.0233102
0.00294126,0.00261302
-0.00667899,0.08
-0.017356,0.0641481
-0.00402514,-0.0317989
0.00621254,-0.0333674
-0.013741,-0.00461459
-0.0217472,-1.23e-05
-0.0145613,-0.0215096
-0.0303983,-0.00457152
-0.0655182,0.0218711
-0.0467094,0.005665
0.0144533,-0.0121036
0.0462858,-0.00547397
0.0192395,-0.014949
0.0108963,-0.00881701
0.0254373,0.0127809
0.00488222,0.00988986
0.00100939,0.00123666
0.00920043,0.0145453
-0.00170296,-0.00522501
-0.00967844,-0.0151755
0.0262906,0.00109659
0.0552019,0.011337
0.0700501,0.00528686
0.0558788,-0.0138944
0.0471057,-0.0104678
0.0274142,0.00599457
-0.0124505,0.000132159
-0.0644626,0.0290437
-0.0892834,0.0313337
-0.0783465,-0.01308
-0.0420342,-0.0171474
-0.022796,-0.00564255
-0.0383352,0.0060065
2.19e-05,0.00447595
0.0292454,-0.00597469
0.00183628,-0.0147312
-0.000182186,-0.0215713
0.0266175,-0.0058671
0.0652088,0.0131066
0.0596033,0.0160374
0.0206126,-0.0018248
-0.0254296,-0.00635727
-0.0563857,-0.00366189
-0.0652709,-0.00831864
-0.0249614,0.00548967
0.0106925,0.0436718
0.0189004,0.0345441
0.0277815,0.0158062
0.0137013,0.00294231
-0.0170307,-0.0469497
-0.0363245,-0.0466888
-0.0245994,-0.035467
-0.0168774,-0.0141915
-0.0185744,0.00184761
0.00326188,0.00436895
0.0114625,-0.00289872
0.00883788,-0.00421023
0.0248262,0.0061167
0.0267749,0.0106534
0.00834515,0.00718588
-0.000517839,-0.0024719
0.023618,-0.0148104
0.0259186,-0.00342201
0.0260276,0.0176079
0.0387221,0.0170502
0.023142,0.0211249
-0.00782623,0.00341742
-0.0202216,-0.00949323
-0.0263565,-0.0141324
-0.0297983,-0.00759696
-0.0390317,0.0506842
-0.012292,0.0874274
0.0284505,0.0424529
0.0239721,0.000825605
0.0315648,-0.0323268
0.0286179,-0.0414181
0.00664369,-0.0447766
-0.00706113,-0.019293
-0.0190745,0.00742852
-0.0387655,-0.0236486
-0.0197164,-0.0196679
0.0115084,0.00300424
0.00669377,-0.0115052
-0.00220546,-0.0272171
-0.00346026,-0.00622346
-0.0163414,0.0263298
-0.0294858,0.0115186
-0.0293438,0.00426158
-0.00223229,0.0160052
0.0163595,0.0197557
0.0151957,0.0180502
0.0101091,0.0175554
-0.00649816,0.00590739
-0.0093719,-0.0223148
0.0103765,-0.0344472
0.021374,-0.0164163
0.0267465,0.00588156
0.046025,0.0147743
0.0462435,0.0172738
0.00607956,0.00263039
-0.0148152,-0.0117086
-0.023087,0.00322919
-0.0427315,0.0208271
-0.0464528,-0.0201691
-0.0318359,-0.0303112
-0.002169,-0.00700464
0.0101895,0.00069922
0.0276715,0.0138059
0.0439269,0.0233693
0.0391875,-0.00418345
0.0174115,-0.015117
-0.00436612,-0.0064462
-0.0242287,-0.00066253
-0.0158968,0.00416784
0.00463225,0.0123402
-0.0131598,0.00808757
-0.0472116,-0.00164961
-0.0483529,0.00262887
-0.0439253,-0.0104878
-0.0360154,-0.0127813
-0.0204216,-0.00205281
0.0172369,0.000836292
0.0395049,-0.00966748
0.0199023,-0.0134189
0.00481387,-0.0135126
-0.00753705,-0.00844124
-0.0154071,-0.00659
-0.00989955,-0.00615246
-0.0064882,0.0100121
-0.00326612,0.00579296
0.0322487,0.0034258
0.0598355,0.0126406
0.0526498,0.0155577
0.0289254,0.000789477
0.0162762,-0.00955618
-0.00652438,0.00171308
-0.0475835,0.0185792
-0.0507354,0.0229994
-0.0227022,0.0279023
0.00742183,0.0399453
0.0329801,0.0454151
0.0512788,0.0165476
0.0319889,4.23e-06
-0.0145427,-0.0206971
-0.0254876,-0.0274593
0.00546986,-0.0255197
0.00717354,-0.0208992
0.00297523,-0.0128268
-0.007067,-0.0139346
-0.0167703,-0.0215935
0.0196641,-0.00665188
0.0342323,0.00251004
0.0047857,-0.0318568
-0.0250126,-0.0299417
-0.0316695,-0.00654584
-0.0158069,0.0292034
-0.0129682,0.0466297
-0.0127207,0.00398172
-0.0138156,-0.0398609
-0.0207663,-0.0241626
-0.0214208,-0.0104922
-0.00774811,-0.0182836
-0.00115999,-0.00526906
0.0114661,0.0233347
0.0310754,0.0384657
0.0317848,0.0244474
0.0128335,0.00443754
0.000647515,0.00815223
-0.00205072,0.0126704
-0.0139821,-0.00695428
-0.021548,-0.0170028
-0.00496199,-0.00712301
0.0138194,0.0099672
0.0122627,0.00407516
0.0104826,-0.00988343
0.00027163,-0.0014649
-0.0146592,-0.0026532
-0.00982554,-0.0106588
0.00702418,-0.00629449
0.019878,0.0130968
0.0338069,0.0265412
0.0321004,0.00939244
0.000569064,-0.0114214
-0.0315439,-0.0167739
-0.0402372,-0.0136017
-0.051844,-0.00741596
-0.0574678,0.00493998
-0.0376595,0.00551484
0.00310297,-0.00525937
0.0341676,-0.00389816
0.0282155,0.0105736
0.0212503,-0.000974649
0.00775097,-0.0167434
0.00534072,-0.00967139
0.0188344,-0.00153295
0.0325699,0.0171281
0.0375339,0.0260304
0.0688597,0.0289481
0.104533,0.0287867
0.103964,0.0306073
0.0853356,0.00479516
0.054885,-0.00284146
0.00348369,-0.0103604
-0.056101,-0.0200308
-0.116718,-0.0198804
-0.15083,-0.0179514
-0.154297,0.004504
-0.130751,0.00827791
-0.0930073,-0.00493113
-0.0625945,-0.00525774
-0.0415233,-0.00838615
0.00370095,-0.013016
0.0142936,-0.0138921
0.0283442,-0.0073004
0.064913,0.00329696
0.0893068,0.00450232
0.0872879,-0.00856003
0.0677386,-0.0169904
0.0385196,-0.0253836
0.00363156,-0.0206439
-0.0310563,-0.00472274
-0.0443275,0.016759
-0.0314867,0.0370312
-0.0187473,0.019297
-0.00290224,0.00128605
0.00303551,0.00252595
-0.00346126,0.0115937
-0.0105402,0.0147464
-0.0129218,-0.00832888
-0.018197,-0.0101797
-0.00639763,0.00808059
0.0080103,0.0273699
0.00677554,0.0169489
0.0102575,-0.00415109
0.0149629,-0.00500545
0.0203415,0.00750473
0.0551477,0.00178146
0.0929342,-0.0162267
0.107683,-0.0117268
0.0967117,-0.0107241
0.0461614,-0.0124402
-0.0256456,-0.00149055
-0.0659173,-0.0074545
-0.0716613,-0.00474123
-0.0616008,0.0151109
-0.0170207,0.00206153
0.0318681,-0.0116582
0.050563,-0.00116339
0.0382419,-0.00258504
-0.0090153,-0.0136313
-0.0550194,0.00246384
-0.096148,0.0383322
-0.134168,0.00606932
-0.136653,-0.0328608
-0.0914396,-0.0362324
-0.00459024,-0.0140738
0.0819095,0.00694208
0.11813,0.0209176
0.120266,0.0340967
0.0913941,0.048007
0.0511746,0.0208647
-0.00362147,-0.0239038
-0.0288193,-0.0273207
-0.0293308,0.00436656
-0.00637383,0.00943855
-0.00365795,-0.01116
-0.0474822,-0.0255493
-0.0729877,-0.00656531
-0.0726308,0.0110586
-0.0777131,-0.0122226
-0.0703805,-0.0348244
-0.0289681,-0.0277953
0.0233368,0.0265011
0.0314085,0.0541445
0.0419626,0.0153043
0.0433893,-0.0318782
0.0204829,-0.0161429
-0.00338497,-0.0338609
0.000585606,-0.0676537
0.0191639,0.0387927
0.0400708,0.164677
0.0858539,-0.000501336
0.0971501,-0.0797409
0.0446274,-0.00431845
-0.0283289,0.0107328
0.0268785,-0.0402391
0.151596,0.00405337
0.160667,0.0485147
0.135582,0.0145845
0.0468451,0.00408302
-0.141098,-0.0110137
-0.275324,-0.00195776
-0.263548,0.00396642
-0.181997,-0.0191888
-0.0566679,-0.0229002
0.0737608,-0.00692352
0.0858381,0.0134077
0.0456462,0.0145535
-0.00872461,0.00769288
-0.0618013,0.0086228
-0.0575024,0.0134349
-0.0617022,0.0391122
-0.0476735,-0.00348797
-0.0010295,-0.0500952
0.0325657,-0.00613535
0.094792,-0.00188023
0.144141,-0.0212691
0.12932,-0.00795963
0.0538873,0.0242567
0.0126248,0.0783447
0.0174797,0.00447798
0.027575,-0.0451518
0.0607177,-0.0251726
0.0522042,-0.0261514
-0.0115901,-0.00578105
-0.0576593,0.0104839
-0.111654,0.00406828
-0.162159,0.015925
-0.127272,0.0218535
-0.0558454,-0.00933617
-0.0616437,-0.0182032
-0.0862639,-0.0133896
-0.0488683,-0.010198
-0.00236083,-0.00590148
0.0215587,0.005721
0.0460904,0.00590542
0.0378946,0.0324873
0.0401437,0.103554
0.0787499,-0.0815167
0.0793481,-0.0664309
0.0621476,0.0141072
0.11769,-0.0190095
0.193383,-0.00828169
0.11071,0.00971091
0.0209357,0.0212337
0.0242861,-0.00025624
0.0522004,-0.0143627
0.0658229,-0.00908382
0.0758434,-0.00884838
0.0174283,-0.0104473
-0.128831,-0.00707579
-0.244433,-0.00130095
-0.275086,-0.00278257
-0.243886,-0.00186618
-0.157738,0.00117213
-0.0562676,0.0103975
-0.0118612,0.0336088
0.0171482,0.0417566
0.0242917,-0.00384883
0.0014787,-0.0167728
