Comp Ch 3,Comp Ch 4
-0.0275449,0.0632302
-0.02312,0.0642765
0.00217353,0.0324322
0.015614,0.00796606
0.00815913,0.0111882
0.0116446,0.0362676
0.023493,0.0197578
0.0442499,-0.0161756
0.0707868,-0.0153916
0.0885562,-0.0105803
0.0655587,-0.00748795
-0.00390386,-0.00524186
-0.0751792,-0.0270728
-0.124297,-0.0378416
-0.120108,-0.0399924
-0.0784164,0.0293178
-0.0397316,0.0598875
-0.0130673,0.000749899
0.0132826,0.00312664
0.0297023,0.00933119
0.0168403,-0.00173359
-0.000970505,0.00102887
-0.00177051,0.00183842
-0.00858093,-0.00491395
-0.0210138,-0.0261566
-0.0175755,-0.0284294
0.015057,-0.00790193
0.0514678,-0.00538365
0.0953249,0.00751102
0.116255,0.0482512
0.0980472,0.0209998
0.0669554,-0.034061
0.0262663,-0.0276856
-0.0105756,-0.0261423
-0.0351497,-0.0214468
-0.0355984,0.00836334
-0.0394443,0.0328514
-0.0609288,0.0133906
-0.0638297,-0.0152761
-0.0382882,-0.0255787
-0.0364555,-0.00913874
-0.0493613,0.00317041
-0.0392483,0.017807
-0.0114917,0.0437919
-0.0047952,0.0361221
0.000718036,-0.00898045
0.0159871,-0.0464196
0.0335301,-0.0156978
0.037615,0.023533
0.0401119,-0.0379805
0.0308996,0.000784107
0.0252448,0.0499447
0.0156068,0.0258129
-0.00664786,-0.0113526
-0.0305103,-0.021709
-0.0322295,-0.0155201
-0.0263776,-0.0067517
-0.0293587,-0.00522301
-0.0331427,-0.0070511
-0.0137491,0.00144823
0.00686307,0.0106403
0.00542688,-0.0100112
-0.000115194,-0.0184665
-0.0124461,0.0156438
-0.0228886,0.0357772
-0.0127678,-0.00550596
0.010421,-0.0327198
0.0232521,-0.00819959
0.0402521,0.0340419
0.0531609,0.0295137
0.0416435,-0.00797342
0.0198305,-0.00344428
0.0115996,0.0014916
0.00630185,-0.00968513
-0.00637928,0.000823813
-0.00817973,-0.00296336
0.00802879,-0.0145064
0.0108324,-0.0106133
-0.00409366,0.00338623
-0.0172662,0.0129847
-0.036466,-0.00261697
-0.0487274,-0.038006
-0.0485175,-0.0125344
-0.0429798,0.0472123
-0.0194286,0.0317392
0.0231898,0.00348884
0.0632346,0.00205111
0.0751663,-0.000122255
0.0692833,0.00537266
0.0602886,0.0174092
0.0311241,0.0219917
-0.0125861,0.00605419
-0.02828,-0.000756677
-0.0222063,0.00641568
-0.0236468,-0.00645854
-0.0234998,-0.0193328
-0.0234725,-0.0199609
-0.0352172,-0.0225329
-0.0472599,-0.0219718
-0.0404192,-0.00311368
-0.0266372,0.00215379
-0.015428,0.0232061
0.00629487,0.0215639
0.0225551,-0.0232918
0.0392503,-0.0280711
0.060604,-0.0197156
0.060447,-0.00119932
0.044886,0.0279195
0.0305448,0.00229468
0.0233484,-0.00587081
0.0130645,-0.00422181
-0.0053325,-0.00864008
-0.0134995,-0.00251396
-0.0147729,0.000553889
-0.0395636,0.000302082
-0.0680273,-0.00103612
-0.0684111,-0.0062495
-0.0648369,-0.0085216
-0.0423438,-0.0124339
-0.00862114,0.019524
0.00230968,0.0572822
0.025027,0.0516395
0.0474826,0.0192832
0.0433633,-0.0150547
0.019266,-0.025902
-0.00104993,-0.0206909
0.00145073,-0.00228698
-0.00104123,0.0145417
-0.0152399,0.0242049
-0.0146887,0.0232229
-0.0113857,-0.0437778
-0.0222879,-0.063417
-0.0219224,-0.0313761
-0.00659166,-0.0479648
0.00839557,-0.0458463
0.0352469,0.0162623
0.044788,0.0693127
0.026504,0.068728
0.0122557,0.0246447
0.0169082,0.00436626
0.0135955,-0.00489963
-0.00298403,-0.0129629
0.00100433,-0.0109722
0.0214172,-0.00908772
0.0154402,-0.00885206
-0.00131546,-0.00295823
-0.0338821,-0.00469967
-0.0648001,-0.0215795
-0.0609027,-0.0155745
-0.0312037,0.00392064
-0.00412566,0.00055547
0.00829859,0.00145792
0.0318904,0.0291941
0.0385861,0.0979154
0.0146432,0.0383021
0.00135039,-0.0655586
0.000410108,-0.0336815
0.00717471,-0.0240794
0.0211207,-0.0265626
0.0377706,-0.015289
0.0385655,0.00183933
0.0169375,0.00757215
-0.0152306,0.0145504
-0.0411607,0.00758999
-0.0510457,0.000588818
-0.0482724,0.0134661
-0.0309067,0.0175437
-0.0116956,-0.0168
0.011912,-0.020463
0.0299865,0.000968305
0.0219154,0.00278259
0.00479074,0.00734062
0.00126818,0.0282428
-0.00478214,0.0343589
-0.0174337,0.00330315
-0.0224196,-0.0306226
-0.00545666,-0.0100312
0.0128642,0.0093231
0.0083407,-0.000386586
0.00509555,-0.0242632
0.00467907,-0.0330286
2.47e-05,-0.0174013
-0.00708693,0.00154197
-0.0061905,0.00553285
0.00120296,0.00746364
0.0236795,0.0108419
0.0347122,0.00480475
0.0169604,0.0102526
-0.000299506,0.0173769
-0.00390603,0.00983538
-0.0114716,-0.00720557
-0.0260346,-0.0132771
-0.0213976,-0.00808452
0.003313,-0.00229867
0.0135696,0.0212037
0.012453,0.0509271
0.0121691,-0.000271879
0.00197909,-0.0344164
-0.0105565,-0.0333413
-0.006643,-0.0182523
0.00479684,0.0054036
0.00879059,0.0296191
0.0241692,0.0309762
0.0229258,0.00843806
-0.000575073,-0.0127554
-0.00885598,-0.015263
-0.00835461,-0.012165
-0.0157171,-0.00691676
-0.0235269,-0.00343615
-0.00676323,-0.00157209
0.0138017,0.00659569
0.010438,0.0256587
0.0057473,0.0221028
0.00296496,0.000396787
-0.00637631,-0.0134468
-0.0148298,-0.00843942
-0.0118109,0.00704246
-0.0104011,0.0330418
0.00657358,0.00849449
0.0294923,-0.0425823
0.0235754,-0.0388614
0.00499065,-0.0168057
-0.008506,0.0132341
-0.0201701,0.03212
-0.0245168,-0.0273627
-0.027155,-0.0193372
-0.00437627,-0.0124926
0.0163341,-0.0485185
0.0243447,-0.0487386
0.0329067,-0.0162892
0.0274339,-0.011539
0.0107052,-0.0115091
-0.00192762,0.017383
-0.00046512,0.0548759
-0.0114544,0.0733662
-0.0127403,0.0773024
-0.00809001,0.0375853
0.00280616,-0.0530022
0.00331238,-0.061035
-0.0133676,0.0395728
-0.027965,0.0745248
-0.0330812,0.00137243
-0.0259663,-0.031255
-0.00153201,-0.0382158
0.00767224,-0.0104889
-0.00165258,0.0620363
-0.00695387,0.00117761
-0.0122361,-0.0394955
-0.0158896,-0.0150644
-0.0123799,0.00418685
0.0032312,-0.0209977
0.0355047,-0.0233924
0.0739788,-0.00269333
0.0911331,0.0104921
0.0675519,0.0338895
0.0463582,0.0133963
0.0136407,-0.0312853
-0.038337,-0.0434157
-0.0575606,-0.0257463
-0.0321523,-0.00790385
-0.0167594,-0.00399557
-0.0201621,0.0235994
-0.0239514,0.0551499
-0.0277515,0.0246297
-0.0437564,0.00685981
-0.057649,0.0208976
-0.051333,0.022981
-0.0240573,-0.0439725
0.012123,-0.0552109
0.0406803,0.00818588
0.0415678,0.0168133
0.0204979,-0.0155853
-0.000377959,-0.0251749
-0.0170951,-0.00863836
-0.026043,0.00188295
-0.0236958,0.0160125
0.00120839,0.0465424
0.0282744,0.0513073
0.0331869,0.00473
0.030901,-0.0144552
0.0246382,-0.00804982
0.012829,-0.00716368
-0.00392927,-0.0205874
-0.00525506,-0.0298988
-0.00176624,-0.0173395
0.0144273,0.0133072
0.0315979,0.00396178
0.0175354,-0.0148135
-0.00655574,-0.0103241
-0.0167826,-0.000576844
-0.0314982,-0.0029446
-0.0449808,-0.00127872
-0.0304336,0.00979788
0.00661996,0.012671
0.0358884,0.00487261
0.0378958,0.0239393
0.0298455,0.0469439
0.00660659,0.0137952
-0.0159918,-0.0124221
-0.0214243,-0.00577629
-0.0189467,-0.0204019
-0.0131613,-0.0248738
0.00775094,-0.00389967
0.0228186,-0.00368216
0.0190656,-0.0114912
0.0172687,-0.00467697
0.0064687,-0.0100048
-0.0202984,-0.0223282
-0.0453919,-0.000596836
-0.0392151,0.0197858
-0.00439036,-0.000779238
0.015536,0.00122639
0.0135481,0.0123744
0.0131618,0.0138638
0.000978875,0.0104323
-0.0132097,0.00322744
-0.012395,0.001843
-0.0113296,-0.00507909
0.000858158,0.00643891
0.0257678,0.0163855
0.032969,-0.0117209
0.0143982,-0.00416244
-0.00880317,0.0152102
-0.029741,-0.0220741
-0.0418107,-0.0416558
-0.0390155,0.00182101
-0.0119522,0.0407871
0.0248254,0.00372684
0.0366528,-0.0299756
0.035092,-0.00677039
0.0239462,0.0083232
0.00769185,0.0172249
0.00836048,0.00518894
0.0230217,-0.0127758
0.0167684,-0.0134555
0.017825,-0.00763523
0.0199493,0.00013078
0.00112881,0.00538441
-0.0261091,0.0101203
-0.0440721,-0.000798578
-0.0452033,-0.023634
-0.0366258,-0.0225609
-0.0226498,0.0062034
0.00962797,0.0212846
0.0297353,0.0191763
0.0267579,0.00890838
0.0251079,0.00955942
0.0132878,0.0049818
-0.00605319,0.00724798
-0.0231645,0.0522897
-0.029387,0.00798287
-0.0251239,-0.0532321
-0.000420483,-0.0107215
0.00849963,0.015765
-0.00978486,0.0161424
-0.00516655,-0.0129541
0.0104468,-0.0345349
-0.000729969,-0.0199254
-0.0194359,-0.0169048
-0.0125189,-0.0134182
0.014866,0.00821497
0.020185,0.0036958
0.0178844,0.0137365
0.0151077,0.00891393
0.00576353,0.00162693
-0.00136744,0.016074
0.00821286,0.0172602
0.0150133,-0.00737394
0.0106135,-0.0188912
0.0110681,0.0100843
0.00239109,0.0167863
-0.0191683,-0.00534858
-0.0198578,-0.0134256
-0.00539392,-0.0108771
0.000438936,-0.0104538
-0.00790704,-0.0104685
0.00429668,-0.00570164
0.0253225,0.00272527
0.0179147,0.00813901
0.00803595,0.0121389
-0.00347272,0.00177655
-0.0236916,-0.0252126
-0.0385758,-0.0278421
-0.0302353,0.0339502
-0.0135764,0.0216847
0.0110083,-0.0210835
0.0224544,0.000705452
0.0109444,0.00788996
-0.00146597,-0.00150251
0.00465035,0.0011552
0.00720278,0.00867796
-0.00526874,0.00779548
-0.00963484,0.000542179
0.00634466,0.0017725
0.0254863,0.0148395
0.0344829,0.0142737
0.0430464,0.0146953
0.0291352,0.0155662
0.00446339,-0.00700591
-0.00926144,-0.0266477
-0.0270119,-0.0103791
-0.0431599,0.00980754
-0.0257126,0.02223
-0.00597634,0.0220917
-0.018664,-0.00255135
-0.0295981,-0.0174078
-0.0323019,-0.0202087
-0.0401114,-0.000764385
-0.0398388,-0.00936158
-0.0191259,-0.0025157
0.0152585,0.00158077
0.0342564,-0.0146942
0.034171,-0.00929686
0.028913,-0.0135821
0.0183177,-0.0183178
0.00775216,-0.0139114
0.00905348,-0.00460714
0.00739529,-0.00226905
0.00875802,0.000852824
0.0233507,0.0117132
0.0368888,0.0134268
0.0224239,0.00556542
0.000501209,0.031291
-0.0169566,0.026339
-0.03301,-0.016455
-0.0473545,-0.0359105
-0.0380733,-0.0118986
0.00735828,0.0393583
0.0373892,0.0748838
0.0687901,-0.012741
0.0334655,-0.00703127
-0.00396932,-0.0102729
-0.0332537,-0.0294131
-0.0639305,-0.0474349
-0.0597711,-0.0225983
-0.03121,0.00766805
-0.0147136,0.00421764
-0.0119326,-0.012376
-0.00232617,-0.00393509
-0.000885928,0.0162304
0.00466237,0.0247408
0.0217522,0.00226375
0.0566704,0.00832836
0.07329,0.0199794
0.0582885,0.0157075
0.0444265,0.0137519
0.0263984,0.0120202
-0.0035765,0.0173583
-0.0285314,-0.00178761
-0.0422126,-0.0329752
-0.047514,-0.0509424
-0.0278314,-0.0272676
-0.0118875,0.00166344
-0.0201044,0.00082384
-0.0276939,-0.00497627
-0.022819,-0.00673268
-0.0177444,-0.00672021
-0.0152625,0.0012175
0.0098275,0.0169283
0.0503405,0.0319763
0.0602177,0.0271863
0.0477516,0.0176648
0.0354284,0.0149613
0.0189163,0.00786675
-0.000413178,-0.00855756
-0.0175492,-0.023482
-0.0308095,-0.0270132
-0.0326618,-0.0114693
-0.00781992,0.00569568
0.00352393,0.00339567
-0.0156723,-0.011097
-0.0316711,-0.0196833
-0.0347578,-0.0210665
-0.0324571,-0.00247575
-0.0313414,0.0166326
-0.00309574,0.0263009
0.0406088,0.0287491
0.0557236,0.0158611
0.0551482,0.00727343
0.0397817,0.00188188
0.00763652,-0.000738878
-0.0225411,-0.00303808
-0.0329779,-0.0213932
-0.0444815,-0.0336811
-0.0283093,-0.019055
0.00821763,-0.00173495
0.0292992,0.0113166
0.0268864,0.0114066
0.0221025,-0.0174303
0.00310334,-0.031281
-0.0163932,-0.0264074
-0.0255837,-0.0105685
-0.0100838,0.0219756
0.00784571,0.0324632
0.00561989,0.0260576
0.0111289,0.0363606
0.0106032,0.0522665
-0.000744995,-0.00136096
-0.0165598,-0.0425537
-0.0243223,-0.0341825
-0.0319455,-0.0114499
-0.0114246,0.0184144
0.0146463,0.014797
0.00715743,0.00696631
-0.00465353,0.0172769
-0.00427161,-0.00835162
-0.00706427,-0.0329369
-0.0116764,-0.0346008
0.00215112,-0.00922088
0.0334026,0.0149681
0.0439005,0.00784684
0.0412524,-0.00270374
0.0319726,0.00636364
0.0121516,0.025721
-0.0165129,0.0406542
-0.0321946,0.0158163
-0.0275507,-0.0384291
-0.0168396,-0.0294246
-0.000345059,0.0123594
0.00221083,0.0057104
-0.0190415,-0.00758036
-0.0223167,-0.00427728
-0.0173239,-0.0138711
-0.0186953,-0.0228645
-0.0225973,0.000512139
-0.00185226,0.0173796
0.0292552,0.0325562
0.0396809,0.0256464
0.0464727,-0.0111862
0.0393593,-0.0165158
0.0102726,-0.0195758
-0.0147419,-0.0202381
-0.0212511,-0.00982597
-0.0259789,-0.00505725
-0.0160616,0.00923929
0.00518753,0.0278463
0.00738524,0.00360911
-0.00724405,-0.0371342
-0.0192461,-0.0171684
-0.0255989,0.0403065
-0.0306777,0.0456962
-0.0199577,-0.00864438
0.0195772,-0.014482
0.0451795,0.00857364
0.0393749,0.00553796
0.0371067,-0.00451909
0.0246886,0.0057953
0.00508822,0.0204659
-0.00767742,-0.0109666
-0.0145985,-0.0175234
-0.0182863,-0.0310195
0.00491998,-0.0286196
0.0213243,-0.00261074
0.00223929,0.00339116
-0.0199562,-0.00364484
-0.0287987,0.0178754
-0.042308,0.038984
-0.0499575,0.00779096
-0.0205574,-0.0398007
0.027718,0.00273067
0.0479344,0.0664388
0.0441154,0.0327778
0.0370197,-0.0221249
0.0160464,-0.0212461
-0.0142093,-0.00912154
-0.0242017,-0.00773533
-0.0239397,-0.0195812
-0.0207765,-0.0176393
0.0111743,-0.0104674
0.0178984,0.0188701
-0.00853999,0.0112353
-0.0164133,-0.0208798
-0.0139482,-0.0327061
-0.0107781,-0.0191124
-0.0180071,0.00540405
0.000394577,0.0131351
0.0293193,0.0259721
0.0328139,0.0146039
0.0335185,0.0116841
0.0218816,0.0331359
0.00297627,0.0134281
-0.0225011,-0.0176803
-0.040425,-0.0093968
-0.0440129,-0.013945
-0.0339183,-0.00752661
-0.00582596,0.0135182
0.00370264,0.0293694
-0.0139887,0.0240482
-0.0310466,0.026982
-0.0311922,-0.0477034
-0.0155583,-0.0803269
-0.00199616,-0.0446604
0.0327456,-0.0172962
0.075556,0.0306237
0.0891045,0.0548092
0.112101,0.0686667
0.110036,0.0179874
0.0680991,-0.0375007
0.0211411,-0.0492176
-0.0197359,-0.0600155
-0.0828959,-0.0320718
-0.093021,0.0456935
-0.0480551,0.0950349
-0.0258132,0.0749319
-0.025183,-0.0244531
-0.0327425,-0.0274779
-0.0519144,-0.0224102
-0.0743371,-0.0337793
-0.0611343,-0.0181447
-0.0182792,0.00747496
0.0032901,0.0157336
0.0117065,-0.0120187
0.0286221,-0.0241075
0.0291044,-0.012636
0.0174616,-0.012021
0.00985755,-0.0107371
-0.00059874,-0.00012851
-0.00335092,0.0185935
0.0281371,0.0254715
0.0484933,0.0131698
0.0106923,0.0131427
-0.0266102,0.0206243
-0.0287473,0.00936243
-0.00418737,-0.0263837
0.0139583,-0.0290143
0.0231781,-0.00453789
0.030059,0.00813126
0.0257595,0.0093644
0.0265032,0.029158
0.0233563,0.00736269
-0.00798717,-0.0222516
-0.0302627,-0.0156882
-0.0254566,-0.000318144
-0.0116099,0.00332538
0.00720123,-0.000954238
0.0123472,0.0129942
0.00460367,0.0374539
0.0026489,0.00139961
0.00462801,-0.0210312
-0.0141538,-0.0201488
-0.0544811,0.00133551
-0.0627174,0.00385495
0.00261078,-0.0207149
0.0483189,-0.0297613
0.0416188,-0.0115171
0.0400722,0.0102765
0.0262186,0.0467733
4.93e-05,0.06884
-0.0342021,0.0246384
-0.0163077,-0.0515316
0.0110985,-0.0238579
0.0271219,-0.00692568
0.0355825,-0.0295523
0.0143262,-0.0335633
-0.0132735,-0.00959733
-0.0288585,0.0532537
-0.0310413,0.0373173
-0.0430639,-0.0370033
-0.0390303,-0.0418612
0.0175792,-0.0108796
0.0576841,0.0225993
0.0532093,0.0257317
0.0337502,-0.0052537
-0.00110967,-0.00857374
-0.0364078,0.00153819
-0.0655872,0.0213775
-0.0555572,-0.0148467
-0.0188845,-0.0312722
0.034342,0.0221861
0.0749114,0.020231
0.049138,-0.0164359
0.00900186,-0.0148401
-0.00240504,0.0104262
-0.0319775,0.00839278
-0.0614279,0.00891647
-0.0621718,0.0352837
-0.0348256,0.0330816
-0.0152495,-0.00402846
0.0248035,-0.0406883
0.0614253,-0.0359051
0.0676684,-0.0224972
-0.00698238,-0.00965724
-0.0625793,0.0208155
-0.0395214,0.015015
-0.0123597,-0.00612358
-0.0417684,-0.00188884
-0.0571654,-0.0021922
-0.0449888,0.00295466
-0.0167156,0.0144137
0.0201185,0.0131551
0.0312509,-0.0054273
0.00869376,-0.0120213
0.0479965,0.00674144
0.093092,0.00370054
0.051575,-0.0126541
0.0318476,0.00453162
0.0406232,0.0263085
0.0549282,0.0157625
0.0640454,-0.0171027
0.0862431,-0.0294774
0.0639852,-0.024725
0.0355188,0.0160161
0.0375054,0.0312789
0.009392,0.0194374
-0.0866179,0.0198704
-0.148087,0.0332122
-0.110501,-0.0167987
-0.0719006,-0.0348399
-0.061385,-0.00308115
-0.0419884,-0.00305046
-0.0505536,-0.00389647
-0.0887263,0.0457323
-0.0365317,0.0630591
-0.0290348,-0.0223718
-0.102688,-0.0745347
-0.0231558,-0.0462398
0.102424,-0.0208469
0.174714,-0.0103891
0.180828,0.0117384
0.0976767,0.0145189
-0.088126,-0.0569931
-0.194708,-0.0897296
-0.121395,0.0579164
0.0473272,0.134282
0.142479,0.0249525
0.0752614,-0.0186315
-0.000459941,0.0216845
0.0380266,0.0085878
0.0709921,-0.0171097
0.0736083,-0.0785376
0.0160867,-0.0720423
-0.0268431,-0.0238949
-0.0444353,0.0490136
-0.0512719,0.0988334
-0.0206302,0.0459174
0.0229643,0.00845351
0.0212538,0.0282939
0.02995,0.0422883
0.0350281,-0.00616629
-0.0481571,-0.0885498
-0.0848937,-0.0703298
-0.0636475,-0.016525
-0.0248943,-0.0219742
-0.0366996,-0.0202349
-0.0986776,0.00461726
-0.0352592,0.013591
0.0324161,0.0147811
-0.00791996,0.0104467
-0.0202905,0.0157423
-0.0795268,0.0168008
-0.123816,-0.0337133
-0.0168203,-0.0419752
0.141857,-0.00837322
0.206572,0.0554064
0.21263,0.100207
0.185597,-0.0597381
0.0860432,-0.0607013
-0.0182938,-0.00221753
-0.0792266,0.00785432
-0.0568479,0.062981
0.0129666,0.0735797
0.0200974,-0.0700904
-0.0227036,-0.0787152
-0.0377948,0.0431903
-0.0474425,0.0867678
-0.0446597,0.00610349
-0.00950999,0.000606441
0.0129152,0.022579
0.00352148,0.00917078
0.0199891,-0.0371403
-0.0240131,-0.0301368
-0.12408,-0.0641487
-0.179228,-0.0609889
-0.216816,0.0316154
-0.086667,-0.018861
0.0927861,-0.00249047
0.188039,0.00486577
0.182981,-0.0272701
0.145018,0.0192606
0.0927934,-0.001442
0.0244428,0.00597585
-0.0339934,0.00289433
-0.0858048,-0.0112907
-0.154288,-0.0151731
-0.12805,-0.0206147
-0.0199452,0.0285778
0.0659799,0.113646
0.164126,0.0728039
0.181439,-0.0598136
0.0760901,-0.0299604
-0.0175618,0.0172947
-0.0847857,-0.0221417
-0.0912311,0.000630097
-0.0605112,0.04125
-0.0458102,-0.0702373
-0.0610168,-0.0632529
-0.0746826,0.0132247
-0.0602076,0.0551101
-0.0831944,0.0589804
-0.0564833,-0.00777867
0.0718288,-0.0494882
0.131309,-0.00743417
0.111261,0.0345604
0.0743853,0.0579281
0.067868,0.0204489
0.107427,-0.019747
0.0659946,0.00929093
-0.02507,-8.3e-05
-0.0805492,-6e-05
-0.106641,0.0470647
-0.09475,-0.00744333
-0.0673392,-0.0715268
-0.0594282,-0.0402516
-0.141266,-0.0154703
-0.141687,-0.0228044
-0.0861977,-0.0187856
-0.0254888,0.0236422
-0.00830628,0.0334771
0.00359145,0.0106257
-0.0201865,0.0186954
0.107419,-0.00951975
0.263484,-0.0316028
0.27236,0.00942214
0.212222,0.05831
0.0822338,0.0424269
-0.0392176,-0.0183244
0.0387363,-0.0506913
0.0268966,0.0249449
-0.0838445,0.0333707
-0.145206,0.0158439
-0.100201,-0.0233232
-0.0639244,-0.0396226
-0.0675057,-0.064715
-0.014826,-0.0325294
0.0240963,-0.0155185
0.0265815,-0.0774044
0.0370825,-0.0321974
0.0567537,0.0444207
0.060948,0.0505254
0.0486974,0.013683
-0.0139235,-0.0554893
-0.0655806,-0.0285776
-0.029774,0.00233195
0.0357437,0.00206207
0.0249476,0.0674251
0.0157522,-0.0337826
0.0157766,-0.0447993
-0.0214223,-0.0190699
-0.0432738,0.00639282
-0.0589997,0.0551555
-0.0428043,0.0881162
0.0147603,0.0920511
0.0290856,0.108926
-0.0357897,0.00985848
-0.128749,-0.109485
-0.170325,-0.0312195
-0.144053,0.116235
-0.0480306,0.186642
0.0823658,0.00622681
0.10919,-0.121494
0.0628015,-0.0951889
0.0450597,-0.0852005
0.0468821,-0.089017
0.0124302,-0.0931924
0.0242414,-0.0430726
0.0558516,-0.00110128
0.0351779,0.00156976
0.0837423,0.000532677
0.158389,0.0455491
0.0732941,0.0639801
-0.0143092,0.0559782
-0.0144527,0.0554146
-0.00436065,0.0589866
-0.063535,0.0830668
-0.189837,-0.0700638
-0.202313,-0.128597
-0.00309291,-0.0488585
0.132243,0.0295128
0.129605,-0.00390254
0.0956706,-0.0595562
0.0184896,0.086303
-0.0535711,0.161152
-0.0569614,0.024997
-0.0575667,-0.0432293
-0.0460414,-0.0535713
-0.00824835,-0.0519801
0.014566,0.00833561
0.0302682,0.01242
0.032509,-0.0161075
0.00907304,-0.00793704
-0.00567622,-0.105865
-0.00105091,-0.169201
0.0301909,-0.00637846
0.059598,0.180362
0.0467488,0.168755
0.0379307,0.0704406
0.0214355,-0.0534423
-0.0780198,-0.0748623
-0.127934,-0.0278375
-0.0661435,0.01975
-0.0975268,0.0511852
-0.136766,0.000196442
-0.0602018,-0.0715623
0.0365726,-0.0868758
0.0967758,-0.0989555
0.108556,-0.0811488
0.137902,-0.0288722
0.135027,0.0393542
0.0389928,0.114889
-0.0525647,0.107554
-0.0711162,0.0858095
-0.131756,0.115139
-0.144135,0.103486
-0.100966,-0.00261738
-0.0306167,-0.124084
-0.00131671,-0.152177
0.0200451,-0.0763472
0.0186019,-0.0435771
0.0327363,-0.0500808
0.150463,-0.0595824
0.192914,-0.0153796
0.0299345,0.0676135
-0.129052,0.0572359
-0.210847,0.0417319
-0.166715,0.0541019
-0.0194679,0.050773
0.0916732,0.070397
0.136024,0.0464049
0.139268,0.0393956
0.13545,0.0547866
0.108369,-0.034147
0.0720936,-0.0556882
0.0254995,-0.0396486
-0.0154795,-0.0474075
-0.0187773,-0.0551681
-0.0321307,0.000739281
-0.0805989,0.0479624
-0.0993257,0.0149437
-0.0674476,-0.0105605
-0.0132739,0.071217
0.0349114,-0.00863477
0.0261346,-0.158748
0.00493025,-0.0949896
0.0113416,-0.0119603
-0.0109519,0.0263707
-0.0126125,0.0265305
-0.00627582,-0.0141175
-0.00439826,-0.0224102
0.00480792,-0.00744199
-0.0224545,0.00284835
-0.110271,0.0245243
-0.0653363,0.036977
0.0449731,0.0494786
0.0656018,0.0472634
0.0870781,0.0167556
0.0687004,-0.0133818
0.00742907,0.0374655
-0.15809,0.0794303
-0.282616,-0.0510008
-0.228839,-0.139448
-0.0536743,-0.0396619
0.105707,0.0598753
0.190946,-0.0280369
0.156772,-0.0349635
0.103193,0.00344553
0.0957217,0.0202828
0.0879412,0.0262923
0.0629543,0.0197811
-0.01471,0.0823733
0.00254529,0.0805542
0.0400802,0.00332838
-0.0435024,-0.0307347
-0.186381,-0.0305295
-0.233168,0.00303939
-0.124565,0.0253077
-0.0708397,0.00921937
-0.00990064,-0.0265025
0.146521,-0.0243779
0.28346,-0.0430808
0.280578,-0.0394964
0.159058,-0.0186375
0.0314495,-0.0165862
-0.0460582,-0.0245153
-0.0582335,-0.0224288
-0.0603087,-0.0108651
-0.0729779,0.0585294
-0.146204,0.0417102
-0.282066,-0.0714226
-0.19949,-0.0357635
0.0815531,-0.00775305
0.315349,-0.0321984
0.269491,-0.00969846
0.0941148,0.0122531
-0.0287256,0.00798691
-0.0660033,0.0132917
-0.0749855,0.0139661
-0.119454,0.045792
-0.146556,0.0641688
-0.0989579,0.0315526
-0.0237279,-0.00880227
-0.0164943,0.0155545
-0.032472,0.0511266
-0.0377493,0.0905329
0.053116,0.0865657
0.161517,-0.0197286
0.148072,-0.0976541
0.0893699,-0.110671
0.0430407,-0.0700931
0.000967791,-0.023822
-0.0409215,-0.0271915
-0.0511501,0.0061119
-0.10766,-0.00118428
-0.177721,0.018152
-0.138755,0.0694312
-0.055822,-2.23e-05
0.0339469,-0.00588011
0.101221,-0.0131532
0.0842467,-0.0282315
0.0503402,0.0134765
0.0659827,0.0624836
0.0909805,0.0575581
0.0778066,0.028816
0.0359019,0.0382757
0.0456507,-0.0270659
0.0368837,-0.0826078
-0.0252668,-0.106137
-0.0451126,-0.0506527
-0.0374039,0.0468359
-0.0570089,0.10596
-0.0550576,-0.00799885
-0.0393612,-0.107196
-0.0557826,0.00669012
-0.0918931,0.0132879
-0.135315,-0.0331522
-0.1315,-0.00474419
0.0242959,0.0812236
0.229568,0.0785098
0.310305,-0.0430362
0.222514,-0.0342634
0.096161,0.0242964
-0.00121184,0.0199979
-0.0598909,-0.00945092
-0.0838692,-0.0417165
-0.10014,0.0322368
-0.072986,0.0852237
0.000904662,-0.0275808
-0.0274634,-0.0753044
-0.122392,-0.0511649
-0.115685,-0.0372377
-0.0928682,0.000909227
-0.0840536,0.0102981
-0.114899,0.0362222
-0.0971498,0.0349452
-0.057596,-0.016168
-0.06428,-0.0395448
0.0364641,-0.0225063
0.215075,-0.0119169
0.192978,0.0122417
0.0579916,0.021927
0.0321575,0.0178544
0.0708937,0.0127435
0.0452882,-0.00246735
-0.00203821,-0.0188932
0.0186015,-0.0164861
0.0404754,0.00724776
0.0397871,0.011736
0.014623,-0.00483883
-0.130384,-0.0176642
-0.137157,0.00512672
0.0520037,0.0290673
0.196788,0.0327102
0.125347,-0.0154424
-0.0456885,-0.0580485
-0.091487,0.00380052
-0.00173848,0.0611616
0.0516419,0.0932578
0.0707065,0.0863506
-0.00278923,0.146121
-0.0647246,0.128551
-0.0102022,-0.0498525
0.0321282,-0.263443
-0.00318042,-0.221773
-0.0396589,-0.0305207
-0.0819646,0.0492019
-0.0786901,0.0751347
-0.00443006,0.0111818
0.0369962,-0.0121422
0.0192967,-0.00555297
0.0249244,0.014183
0.027385,0.00241456
-0.0221893,0.000794841
-0.0822253,-0.00840165
-0.101002,-0.00828096
-0.0659312,-0.0234981
-0.0355022,-0.0129495
-0.0272846,0.0177133
-0.0448736,-0.0295976
-0.0871463,-0.00543752
-0.0587555,0.0110775
0.0361401,0.0176147
0.0803797,0.0194609
0.0842645,-0.0151241
0.0989314,0.015446
0.0851671,-0.00231235
0.105964,-0.0241955
0.241998,0.000253046
0.333472,0.0748901
0.311996,0.0620147
0.177855,-0.0935246
-0.0495574,-0.0906177
-0.196983,-0.046691
-0.232958,-0.0371607
-0.239118,0.0203382
-0.261071,0.0678423
-0.289423,0.0546568
-0.230331,0.0216838
-0.074686,-0.0204283
0.0341368,-0.0249676
0.0573804,-0.0067574
-0.00929108,0.0263076
-0.0742025,0.0457144
-0.0599571,0.0176253
-0.0213528,-0.0140242
0.00544404,-0.0252357
0.0304547,-0.0271407
0.0730217,0.0209019
0.118763,0.0547845
0.0815615,0.069764
-0.00441971,0.0313505
0.000813473,-0.073284
0.0693278,-0.0717984
0.087846,0.0472019
0.0672588,0.0147594
0.0386927,-0.120448
0.043103,-0.0470634
0.0652623,0.0938745
0.00837967,0.0600945
-0.0373233,-0.0458797
-0.0236341,-0.0505173
0.00211094,-0.0169124
0.0055102,-0.00556695
-0.0070042,0.00701413
-0.00837618,0.0214076
0.0102849,0.0253721
0.0075962,0.019484
0.0212653,-0.0118228
0.0400451,-0.0118115
0.0373493,0.0106198
0.0204457,0.0329297
0.0264856,-0.048972
0.00634156,-0.0526598
-0.00732558,-0.0120513
-0.019776,0.0433611
-0.0422057,0.0728472
-0.0553457,0.0329758
-0.0621248,0.0110438
-0.0534807,-0.0238132
-0.0589183,-0.0509905
-0.134912,-0.034638
-0.135691,-0.00644447
-0.0538095,0.0347268
0.00556477,0.0430831
0.0444835,-1.38e-05
0.0950962,-0.0297677
0.0724081,-0.0339156
0.0139677,0.0119227
0.0294417,0.011453
0.0723783,-0.0924877
0.112678,-0.0347049
0.104531,0.0452561
0.0305986,0.101466
-0.076109,0.121751
-0.119879,0.0793047
-0.0485087,-0.0653115
0.0664731,-0.0674941
0.0946774,-0.0202221
-0.0117273,-0.0363318
-0.078406,-0.0456579
-0.0388345,-0.0315202
0.0297252,-0.0261784
0.0128221,-0.0108304
-0.0561439,0.0288516
-0.0707825,-0.00391841
-0.112431,0.0329085
-0.0847702,0.100123
0.0576786,0.120317
0.217395,-0.0612785
0.211951,-0.050029
0.0715261,0.00205365
-0.0539706,0.00117946
-0.10665,-0.0148593
-0.153071,-0.07252
-0.0837091,-0.0248726
0.077844,0.063241
0.172383,-0.0180327
0.145251,-0.0699462
0.0744644,0.00238354
0.00333089,0.0574848
-0.0478129,0.0381884
-0.0791602,-0.020634
-0.0697008,-0.0376727
-0.0602705,-0.0181027
-0.0406067,0.00444199
-0.00970275,-0.0102149
-0.00921463,-0.0344717
-0.0241471,-0.0270904
-0.0445842,0.000720379
-0.102131,0.0161012
-0.113727,0.0124646
-0.0365698,0.0346761
0.0494679,0.0321527
0.0793372,-0.0120929
0.0310612,-0.0173799
-0.0174553,-0.00883882
0.00775409,0.00164726
0.0167729,0.0263553
0.0131971,-0.000143032
-0.0209943,0.00710696
-0.0490963,0.0189541
-0.0377817,-0.0195181
-0.00362812,-0.0238938
0.0432985,-0.0387554
0.0619923,0.00223456
0.0809231,0.075145
0.0585226,0.0510406
-0.00981278,0.0038389
-0.0195848,0.00149201
0.000500775,-0.0135227
-0.0191967,-0.00547149
-0.0257126,-0.00102897
-0.0189196,-0.0218
-0.0181284,0.0250479
0.00193471,0.0412539
0.0400034,-0.0569706
0.00580432,-0.0654464
-0.0264689,-0.0225968
-0.00924633,-0.0137161
-0.0191805,0.0111303
-0.0228869,0.0317307
0.00099221,0.111006
0.0296756,0.0194239
0.0456507,-0.0824449
0.0600201,-0.0295151
0.0208044,0.039944
-0.0332383,0.0168267
-0.0526352,-0.0436037
-0.058608,-0.0113866
0.0148111,0.000345259
0.123741,0.0138555
0.169875,0.0251197
0.16874,-0.00604675
0.105093,-0.0363509
0.0600893,-0.0239584
0.0148692,-0.0307448
-0.11893,-0.0356007
-0.207864,-0.00827502
-0.203811,0.01051
-0.141427,0.0240372
-0.0715616,0.0277717
0.00573601,0.0148753
0.036208,0.00468528
-0.0282413,0.0083149
-0.0762936,-0.0158019
0.0164724,0.00226726
0.149511,0.0594581
0.167003,0.0494199
0.0855824,-0.000154271
-0.00399592,-0.0321757
-0.0496239,-0.0162148
-0.0317122,0.00655435
-0.0195585,0.00211609
-0.039196,-0.0153985
-0.0327727,-0.0222121
-0.0258026,-0.0223219
-0.0729351,0.0261669
-0.110141,0.00631408
-0.086202,-0.0227223
-0.07697,0.00745037
-0.0401523,0.0508821
0.0372443,0.0598152
0.11225,0.0301699
0.177141,0.000513166
0.238857,-0.0773218
0.13552,-0.0491488
0.0269469,-0.00545453
-0.0454524,-0.0320435
-0.0920011,0.0152477
-0.0391086,0.0165587
0.00957571,-0.0032461
0.00932322,-0.0102357
-0.0393057,-0.0335461
-0.0926162,-0.0161353
-0.0714525,-0.0366886
0.00936269,-0.0719259
0.0784641,-0.0504978
0.0814991,0.0352159
0.0759672,0.0974742
0.05674,0.0806615
-0.0613596,0.0263977
-0.146617,-0.00203913
-0.143307,-0.0147503
-0.0752746,-0.0205165
-0.0154827,0.00131239
-0.0130575,0.0704315
-0.0101855,0.0931005
0.0345605,-0.0046232
0.0397723,0.00744838
0.0291558,-0.0317803
0.0562239,-0.0810228
0.0518835,-0.0175691
0.00957439,-0.00913213
-0.0128065,-0.0148169
-0.0534665,0.0129839
-0.0983928,0.0260423
-0.0636876,0.0154966
0.0137368,-0.00522514
0.0537882,-0.0271491
0.0533517,-0.0505709
0.0807591,-0.0233183
0.0752512,0.0123839
0.0247726,0.0109064
-0.00360845,0.00117704
-0.00761241,-0.016757
-0.0166531,0.00868095
0.00659941,0.0323136
0.0499385,0.00392051
0.0711076,-0.0302288
0.0535486,-0.0253035
0.029951,0.00655856
0.0347752,0.0361364
-0.0141912,0.0332979
-0.0783957,0.0339589
-0.0626032,-0.0266825
-0.0837798,-0.0529232
-0.109586,0.0305302
-0.0710209,-0.0514871
-0.0619876,-0.0121648
-0.0966698,0.118816
-0.0584774,0.0203468
0.00171772,-0.0919836
0.0348982,-0.0429714
0.0394029,-0.0181968
0.0519045,-0.00673906
0.0667792,0.0339028
0.0943892,0.0393394
0.0967316,-0.00714167
0.0833136,-0.0259872
0.0519204,0.0290247
0.011832,0.0419105
-0.0145512,-0.0267716
-0.0432266,-0.0188251
-0.020229,0.0525919
0.0121568,0.0248914
0.000961433,-0.0228306
-0.0390003,-0.0143303
-0.0271631,-0.0341428
0.026307,-0.0278222
0.0405456,0.00736796
0.0332347,0.0314573
-7.68e-05,0.0302724
-0.0361392,0.00691661
-0.0547526,0.00532055
-0.059172,0.0268671
-0.0584028,0.0614482
-0.0695679,0.038774
-0.0726985,-0.065479
-0.0528234,-0.100031
0.00195192,-0.0719976
0.0723239,-0.00146933
0.0985312,0.0222061
0.0687045,-0.00398665
0.0306717,-0.00136982
0.00484015,0.0199288
-0.0164634,-0.000759794
-0.0327627,-0.00335524
0.00480984,0.0155072
0.0428263,0.0281156
0.0122512,-0.00274049
0.00313361,0.0106035
0.0396487,0.021
0.0145487,-0.00158456
-0.0673474,-0.0156603
-0.0824384,-0.0205511
-0.0547155,-0.0131759
-0.0243787,0.0316312
0.0193307,0.0394516
0.0528493,0.0234983
0.0457849,-0.0216398
0.0188102,-0.0331108
0.0181704,-0.0274737
0.0224915,-0.0319513
0.00997754,-0.0329015
-0.00885151,-0.00960656
-0.0136384,0.00821639
-0.0108953,0.00812364
-0.00153777,0.022861
-3.04e-05,0.00483877
-0.00554486,0.00724995
-0.0246594,0.008468
-0.0630422,-0.00303315
-0.0678502,-0.033036
-0.0473864,-0.00796001
0.0263172,0.0162718
0.0731199,0.0104254
0.0572752,0.0174084
0.0623192,0.0126862
0.0169085,0.00471424
-0.0633212,-0.0136403
-0.0752892,-0.0121375
-0.0076454,0.0127571
0.0361651,0.0280721
0.00747473,0.0146402
-0.0152678,-0.0105641
-0.00449436,-0.000292011
0.0163589,-0.0152627
0.0335119,-0.0163425
0.0409093,0.0243002
0.0411358,0.0350534
0.029361,-0.000440787
0.0114214,-0.0140047
0.00289582,0.00787275
-0.00472821,0.0343085
-0.025888,0.0327031
-0.0369721,0.0183602
-0.0436784,-0.0168628
-0.0444315,-0.00188487
-0.0058675,-0.0454509
0.0277917,-0.0469351
-0.0109062,-0.0130242
-0.0432079,-0.0241658
-0.0467099,-0.024275
-0.0677828,-0.0224643
-0.0536146,-0.018502
0.020928,-0.0120935
0.10288,0.00175891
0.163552,0.00367899
0.151611,-0.0131158
0.0607769,-0.00316773
0.0107738,0.0269017
-0.0120036,0.0482387
-0.0389095,0.0325161
-0.0703878,0.00984203
-0.0829594,0.0144758
-0.0621102,0.0294057
-0.000762908,-0.00134921
0.00448468,0.0180722
-0.038727,0.04054
-0.0388022,-0.00109469
0.00836437,-0.0571894
0.032314,-0.0786729
-0.0363468,-0.0388979
-0.0234876,0.0148368
-0.00930029,0.0143377
0.0126968,-0.00846539
0.0475475,-0.0110297
0.0384938,0.0105003
0.005769,0.0117176
-0.0167005,-0.00567614
-0.0177807,0.00257133
0.0120829,0.00253801
0.0399514,0.0213385
0.0550493,0.0520852
0.0520728,0.0353184
0.000882122,0.0087558
-0.0309658,-0.0283794
-0.0209021,-0.0626336
-0.0437687,-0.0112203
-0.0419137,0.0279855
-0.0191633,0.00976959
-0.0153141,-0.00313659
-0.0292488,-0.013763
-0.0305557,-0.00859523
-0.0102921,0.00144921
0.00706635,-0.0210513
0.0226123,-0.00796819
0.0416365,0.024375
0.0513745,0.0190926
0.0163353,0.00861528
0.0370059,0.0103295
0.0751405,0.0124025
0.0723008,0.00175962
0.00417208,-0.0118133
-0.0908837,-0.0240168
-0.103992,-0.0281891
-0.0783405,-0.00316796
-0.0425314,0.0165359
0.00528725,0.0150295
0.000620883,0.0126667
0.00861792,0.02934
0.0579244,0.035387
0.0685735,-0.0282952
0.0127879,-0.0390514
0.0212608,-0.0186344
0.0470151,-0.00407084
0.0278084,0.020533
-0.00342308,0.00495114
-0.0439192,-0.00939575
-0.0107296,-0.0103574
0.0275916,-0.010776
0.0283945,0.0125885
-0.0648511,0.0292257
-0.186327,-0.0043962
-0.166127,-0.00505309
-0.0872167,0.0244961
-0.028684,0.0102876
0.0653418,-0.0511239
0.105977,-0.0831827
0.103188,-0.0609204
0.0766106,-0.0168419
0.040257,0.0130013
-0.00135917,0.0238049
-0.0470948,0.053253
-0.0646127,0.139571
-0.0650509,0.0677807
-0.00720306,-0.0627188
0.0449494,-0.0559187
0.067672,-0.0409479
0.0699828,-0.0287871
0.0421935,0.0116594
0.0422523,0.0184415
0.0484785,0.0101112
0.0292763,0.0115267
0.0176374,0.00383995
0.0206261,0.00603948
0.0103483,-0.00597336
-3.61e-05,-0.00582358
0.0063697,0.0500679
-0.0193067,0.018352
-0.072739,-0.0350856
-0.0623491,-0.0361774
0.013275,-0.0240559
0.0684571,-0.000579213
0.0502379,0.0267017
-0.0288319,0.00493328
-0.0770088,-0.0158071
-0.0421252,-0.0167448
-0.0321865,-0.00151419
-0.0412454,0.0229791
-0.0188068,0.0167706
-0.0284921,-0.0139444
-0.0455347,-0.0277514
-0.0529718,-0.0315499
-0.0183399,-0.038925
0.032081,-0.0244402
0.0270406,0.0183408
0.0280215,0.0397715
0.0300115,0.0421607
-0.00927756,0.053271
-0.0241689,0.0139738
0.00434772,-0.029928
0.0494082,-0.049098
0.0600674,0.0129468
0.0450562,0.0839166
0.00716757,0.0692146
-0.0279218,-0.0180841
-0.0238677,-0.0472279
0.0175434,-0.00089311
0.0412293,0.0552714
0.0163843,0.000459856
0.000255924,-0.0292238
-0.0386753,-0.0220285
-0.0773121,-0.038665
-0.0244318,-0.0201447
0.0285528,-0.017561
0.0178982,0.0144598
0.0276938,0.0580855
0.0572541,0.0151913
0.0274198,-0.048662
0.00494429,-0.0517566
0.00973653,-0.0367243
-0.0175411,0.00320643
-0.0380487,0.0044121
-0.0415405,-0.0124484
-0.0524402,-0.0125379
-0.0625102,0.0279942
-0.041417,0.0732853
0.0168708,-0.0174271
0.0466746,-0.0549901
0.0425435,-0.0225048
0.00170923,-0.0104184
-0.013894,0.0156869
0.00405298,0.044628
0.0366632,-0.00613872
0.0109297,0.0388342
-0.09756,0.0684399
-0.087109,-0.0247817
0.0546075,-0.0486329
0.0795499,-0.0432092
-0.00284568,-0.0166754
-0.0387972,0.0235101
-0.0398679,0.0109543
-0.0407196,-0.0172859
-0.00346597,-0.022325
0.064821,0.00451161
0.114802,0.0386076
0.089926,0.0401652
0.0391777,0.00183636
0.0108758,-0.0201635
-0.027013,-0.0233272
-0.0416474,-0.00644123
-0.0175575,0.020737
0.0336884,0.0306861
0.0432175,0.0254882
0.0090728,0.00717795
-0.0244243,-0.00798937
-0.0392927,-0.0118381
-0.0166222,-0.0204964
0.00512225,-0.0377063
-0.0123759,-0.039464
-0.0354681,-0.0162803
-0.0386305,0.0287997
-0.0197519,0.0379029
0.0214783,-0.000792997
0.0188986,-0.0239594
-0.0232464,0.00610222
-0.0347022,-0.00769231
-0.0279742,0.0370119
-0.00108945,0.0642128
0.0521361,0.0132201
0.0730035,0.00847762
0.0509382,-0.0249298
0.00873643,-0.0435237
-0.000266967,-0.0188908
-0.0062796,-0.0141607
-0.0343386,-0.00876494
-0.0716815,0.00852137
-0.0651321,0.0163956
-0.0621457,0.00821222
-0.0535972,-0.00255617
-0.0704938,-0.00326961
-0.0808756,0.00247843
-0.0345328,0.00663291
0.0372316,-0.0107955
0.0801345,-0.0525076
0.0797117,-0.069317
0.109471,-0.00467986
0.129617,0.040698
0.0846876,0.043399
0.0739119,0.0299606
0.0758581,0.0367267
-0.00562299,0.0597401
-0.105397,-0.00747667
-0.141125,-0.0911678
-0.0685144,-0.0293329
0.0297789,0.049835
0.040439,0.0442444
-0.000814869,-0.014814
-0.030794,-0.0239253
-0.00876313,-0.0188066
0.0156968,0.00406515
0.00116285,0.0209645
-0.0197775,-0.0109341
0.00186749,0.0367262
0.0135084,0.0446572
-0.000355948,-0.0166086
-0.00868554,-0.0404002
-0.0146259,-0.0595664
-0.00824639,-0.0472371
-0.00387801,-0.0119686
0.00472575,0.023042
0.0439218,0.0251728
0.0675077,0.00576806
0.0579236,-0.000944819
0.0288244,-0.00316146
-0.0157173,-0.00645806
-0.0612206,0.000144518
-0.0589829,0.0202493
-0.0424448,0.0132876
-0.00807609,-0.0160004
0.024175,-0.0123111
0.0119789,0.00469301
-0.00102005,-0.00245747
-0.0323164,-0.0158436
-0.0875387,-0.0155565
-0.150427,0.0333637
-0.0543441,0.0722262
0.121685,0.0124297
0.192559,-0.0250443
0.116282,-0.0189815
-0.0244708,-0.0115321
-0.0954631,-0.0144212
-0.0600066,-0.00453185
-0.0535032,0.010768
-0.0613033,0.00660259
-0.0354683,0.00197927
0.0458817,-0.00625557
0.101773,-0.0179567
0.0441051,-0.014389
-0.0261816,-0.00388818
-0.01204,0.00567777
0.0176,0.00935325
0.0309332,0.00243543
0.0196372,0.018219
-0.0242228,0.0659539
-0.0450386,0.0807346
-0.0112209,0.00531157
0.0319736,-0.0464947
0.0429421,-0.0251488
0.0119665,0.00853832
-0.0268099,-0.0253223
-0.0250696,-0.0436094
0.0359191,-0.00859129
0.0666714,0.00975817
0.0535167,0.00323238
0.0111447,-0.0144164
0.0134155,-0.0206184
0.00900461,-0.0254312
-0.0832099,-0.0295877
-0.188334,-0.0259218
-0.138564,-0.0128067
-0.0234237,-0.0039144
0.0740702,-0.00094635
0.121726,0.0157889
0.0724503,0.0355726
0.0271668,0.0295414
-0.0156473,-0.0143198
-0.0592655,-0.0288187
-0.0434597,0.0242719
0.00373535,0.0420104
0.0172859,0.0364863
-0.0142444,0.0518938
-0.0303987,0.0296588
-0.0220723,-0.0143332
-0.0443005,-0.0452068
-0.0290296,-0.042483
0.0592654,-0.0212608
0.122112,0.0283183
0.137036,0.043154
0.10876,0.00243682
0.0488136,-0.00371989
0.0194405,0.0298315
-0.00908177,-0.00337592
-0.0564653,-0.0371582
-0.062184,-0.0294132
-0.0531884,-0.0251175
-0.0670909,-0.00220956
-0.0796353,0.0132331
-0.0816392,0.0147256
-0.0645561,0.0114052
-0.0374076,-0.0184262
-0.00104666,-0.035247
0.05494,-0.00259612
0.0685963,0.00491997
0.0525382,-0.00408382
0.0660161,0.00497437
0.0931944,0.0101702
0.0534355,-0.00891116
-0.00586936,0.00766212
-0.016822,0.0125015
-0.0531089,-0.011578
-0.0504507,-0.0324783
-0.00812875,0.00825477
0.0495076,0.0247169
0.0467181,-0.00817661
-0.0192963,-0.026165
-0.103695,0.0374441
-0.127975,0.0431864
-0.0470788,-0.0339102
0.0459974,-0.0332676
0.0796293,0.0100576
0.0270431,0.0389142
-0.0507833,0.0059152
-0.0525656,-0.00909166
-0.0229792,0.0728439
0.00717497,0.0507614
0.0288602,-0.0339393
0.0318928,-0.0118953
-0.00501103,-0.0209131
-0.0289212,-0.0297224
0.0241977,-0.0267342
0.0596232,-0.0279058
0.0252227,-0.0119696
0.0179112,0.0283335
0.0335246,0.000770704
0.0470113,-0.0481795
0.0116793,-0.0851464
-0.00608421,-0.0239596
0.0115918,0.0527892
0.00912875,0.0471627
-0.0115054,0.0204797
-0.0503604,0.0125385
-0.0738572,0.0122629
-0.0895828,0.000302998
-0.0775548,-0.0126761
-0.0360962,-0.00322733
0.0393588,0.0352254
0.0734274,0.0246037
0.0575618,-0.0270453
0.0305224,-0.0234747
0.040347,-0.00725477
0.0492055,-0.0037673
-0.0096351,0.00239924
-0.0479593,0.00727614
-0.0241292,0.0117461
0.0107128,0.00810064
0.0164966,-0.0056087
0.0171653,0.0274176
0.0230883,0.0418412
0.011086,0.000640153
-0.0176329,-0.0265172
-0.0214339,-0.0265026
0.0150485,-0.00331668
0.0613616,0.0130766
0.0425835,-0.0131542
-0.0430101,-0.0103163
-0.0867935,0.00180473
-0.0853371,-0.00785912
-0.0671494,-0.0170327
-0.0443793,-0.0198394
-0.0164626,-0.0123105
0.0163747,0.00575272
0.00668033,0.0269995
0.0416498,0.023644
0.0363799,0.0110123
0.0115255,0.00718686
0.00227379,0.0236881
0.020199,0.0230457
0.0528864,-0.033427
0.062637,-0.029701
0.0518238,0.0282081
0.0241159,0.027692
0.0133172,-0.0182296
0.0190989,-0.0126054
-0.0263275,-0.0123523
-0.0524049,-0.0363288
-0.0773484,-0.0406846
-0.106232,-0.016615
-0.0580543,-0.00502915
0.0327442,-0.00266066
0.0865,0.00422724
0.0933204,0.0349602
0.0325068,0.024277
-0.0267462,-0.00131386
-0.00501059,0.0188232
-0.00174443,0.00994141
-0.0283534,-0.0140884
-0.0156351,0.00948626
0.0253735,0.046796
0.0717431,0.0177022
0.0607655,-0.00108164
-0.0129825,0.0156687
-0.0683064,-0.029254
-0.0696965,0.00203767
-0.069467,0.0506669
-0.0743346,-0.00407807
-0.0942518,-0.061454
-0.113897,-0.0453
-0.0496812,-0.024776
0.0211596,-0.0265131
0.0563228,-0.0107228
0.0903298,0.0134844
0.0617935,0.034788
0.0586109,0.0607903
0.0423489,0.0448848
-0.0378944,0.00418843
-0.0617241,-0.0330691
-0.023818,0.00622313
0.0416987,0.0094003
0.103753,-0.0253529
0.105393,-0.0693147
0.0560907,-0.0580484
0.02059,-0.0151756
0.0212005,0.00578367
0.00151762,-0.0116223
-0.00788179,-0.0242757
-0.023549,0.0412445
-0.0345883,0.0396808
-0.0331719,0.0291655
-0.00887638,0.0458305
0.0152434,-0.000538605
0.0272957,-0.0238448
0.0680583,-0.00515969
0.0677084,0.020614
0.0246409,0.0422995
-0.0409663,0.036484
-0.0606323,-0.0181322
-0.0360343,-0.0357845
-0.00956718,-0.0155602
-0.0066624,0.0121289
-0.0346079,0.00957693
-0.0552253,-0.0148124
-0.060431,-0.0238363
-0.0728369,-0.0246369
-0.0658342,-0.0180456
-0.0537257,-0.0117125
-0.080132,-0.00254345
-0.0747468,0.00387777
-0.0107206,0.0136396
0.0622363,0.0128985
0.0964962,-0.00244099
0.108796,-0.0251718
0.0798291,-0.0298054
0.0432118,-0.0103527
0.0111775,0.0308337
-0.0161786,0.0386565
-0.0223391,0.00352327
0.00958211,-0.00631157
0.0438465,0.00787353
0.0387392,-0.0107146
0.0101026,0.00270262
-0.0332502,0.0384579
-0.0944741,0.0377576
-0.0795522,0.00267046
-0.0276193,-0.00418333
-0.031461,0.00180461
-0.0135768,0.0205479
0.0785797,-0.00587194
0.179112,-0.0323546
0.154259,-0.00823212
0.0514608,-0.0130397
-0.0310256,-0.0295838
-0.0526401,-0.0218473
-0.0457115,-0.01153
-0.0313254,0.00063633
-0.028897,0.00908879
-0.0192849,-0.0138002
0.00440568,-0.020814
0.0165241,-0.0185492
0.00453336,-0.00105586
-0.0185316,0.0269741
-0.0314048,0.0416459
-0.0260001,0.0301984
-0.0384588,0.0379141
-0.0573573,0.0408748
-0.0351197,-0.0348338
-0.00101877,-0.0508783
0.00140669,-0.0304681
0.0315536,-0.0143663
-0.00276857,0.000705197
-0.0415695,0.0124217
-0.0433814,0.00557134
-0.0197537,-0.00603541
0.0345693,-0.0123946
0.0931361,-0.000331473
0.0887541,0.0237299
0.070372,0.0215024
0.0610183,0.0257501
0.0351201,0.0208353
0.0117948,0.00181048
-0.00492052,-0.00546685
-0.0190797,0.000354261
-0.0401978,0.0128293
-0.0649757,0.0321398
-0.0486276,0.0366862
-0.0017521,0.00315199
0.027071,-0.032552
0.00507218,-0.0213248
-0.0323386,0.00696076
-0.0340662,-0.0362554
-0.024697,-0.0417085
0.00514142,-0.0270435
0.00743244,-0.0155517
0.00166534,-0.00109577
-0.00709529,0.00749712
-0.0205188,0.00785883
-0.0237743,-0.0130267
-0.0140924,-0.0239868
-0.000586209,-0.0144659
-0.00577222,-0.00617667
0.0148843,0.00878812
0.0441911,0.0149088
0.0128348,0.0189891
-0.0501799,0.0110835
-0.042725,-0.0168572
-0.00857391,-0.0343785
0.00934318,-0.0292977
0.031813,0.00551987
0.0665716,0.0352041
0.0380353,0.0406594
-0.0211794,0.0291011
-0.0121229,-0.00351171
0.010053,0.0321878
0.0131669,0.0423659
0.0492766,-0.0217015
0.0484383,-0.0358555
0.00446634,-0.027393
-0.0119083,-0.00779683
-0.00670714,0.0172357
0.023447,0.0128501
0.0387358,0.00227329
0.0352069,-0.00603934
0.00760071,-0.00273596
-0.064051,-0.00490342
-0.0907129,-0.0307272
-0.0698872,-0.0122119
-0.0585822,0.0526375
-0.0328236,0.0206617
-0.00709323,-0.0267958
-0.01884,-0.0218299
0.00923929,-0.00473026
0.0412827,0.00217209
0.0442027,-0.0130505
0.0182472,-0.00621329
-0.00549733,0.00473443
-0.00674747,0.0246871
0.000934206,0.0338331
0.00420603,-0.00306483
0.0265355,-0.0254788
0.0288557,-0.0316677
0.0178245,-0.0259393
0.0155794,-0.0107676
0.0172107,-0.0220905
0.0341125,0.00723596
0.0478565,0.0997484
0.0317442,0.11706
0.00175177,0.00129838
-0.00336725,-0.0744402
-0.0355991,-0.0560279
-0.0540405,-0.0510611
-0.0199477,-0.0321079
-0.0153643,0.0103061
-0.0348334,0.0317898
-0.0392379,0.0265774
-0.0490097,0.00166813
-0.0613404,-0.0150848
-0.0276546,-0.00941344
-0.00271824,0.00102277
-0.0601335,5.41e-06
-0.0564643,-0.000901444
0.00615518,0.0142942
0.0767465,0.0133368
0.132072,0.0207941
0.0908683,-0.00250559
0.00472748,-0.0416771
-0.0601299,-0.0121873
-0.048031,0.00584805
0.0100738,-0.0138715
0.0457568,-0.011401
0.0261777,-0.0024423
0.0280378,0.0183172
0.0500451,0.0605606
0.0375437,0.0673386
0.0102063,0.00817297
0.00264152,-0.0250434
0.0164149,-0.000344807
0.0375308,0.026424
0.0191018,-0.0203513
-0.0245652,-0.0426396
-0.0368815,-0.0124209
-0.0184,0.014124
-0.0222472,0.00682276
-0.00523742,-0.0142242
-0.0367278,-0.00643374
-0.113105,0.0273552
-0.105344,0.04259
0.00556561,0.0100377
0.0970268,-0.0180816
0.0472658,-0.0213842
-0.0562998,-0.0155134
-0.049132,-0.0165264
0.0145593,-0.0288217
0.0370182,-0.05367
0.0534164,-0.0539521
0.0202284,-0.0117789
-0.0165094,0.0682401
-0.0336838,0.0722466
-0.0516447,0.0102011
-0.0399194,-0.0258202
-0.0512873,-0.00668372
-0.0166517,-0.0180578
0.0691126,-0.0291333
0.0788692,0.0192757
0.0636997,0.0342352
0.0707148,0.0265927
0.0200364,0.0229426
-0.049519,0.014
-0.0427983,0.00569225
-0.000452938,0.0111401
0.0741508,0.0133122
0.100873,0.0100481
0.0232293,0.00326235
-0.0482039,0.00229565
-0.0630181,-0.0334396
-0.0643423,-0.0484685
-0.111965,-0.015575
-0.117418,-0.0055322
-0.0180596,-0.0075279
0.0438531,-0.00722274
0.0772287,-0.0220163
0.0490255,-0.0135212
0.0418506,-0.00385863
0.0649281,0.0184957
0.0542522,0.00156039
-0.02753,-0.0401128
-0.0772409,-0.00656862
-0.046465,0.0260449
0.0169206,0.0202155
0.0322413,0.01882
0.00299002,-0.000537061
-0.00166393,7.91e-05
0.000529258,0.0373061
-0.0112184,0.00859839
-0.00111461,-0.0231162
0.00634925,0.0242873
0.0188889,-0.0015993
0.0425599,-0.0144205
0.0258169,0.00556194
-0.00477005,0.0012569
-0.0618342,0.00799927
-0.068137,-0.0118235
-0.0164987,-0.0304423
0.00985398,-0.0573283
0.0128907,-0.0445945
0.0103403,-0.00291441
-0.026158,0.00801603
-0.0708622,0.0182877
-0.0914952,0.0282592
-0.0554306,0.0147499
0.0129487,-0.0091661
0.0311028,-0.0281765
0.0655014,0.0120906
0.0715563,0.0278165
0.0752001,0.0254305
0.0544262,0.00486984
-0.014096,-0.0403833
-0.0401811,-0.020471
0.0545139,0.0191199
0.0972778,0.039033
0.0431014,0.0317088
0.0352825,0.0228756
0.0316481,0.0249014
0.014987,-0.00462864
-0.0162657,-0.00681532
-0.0748385,0.00784277
-0.116572,-0.00466687
-0.130011,-0.0411139
-0.0955826,-0.0318927
0.00765586,0.0495095
0.113213,0.0759621
0.157964,-0.00455849
0.0536406,-0.0611482
-0.0752226,-0.0440804
-0.0993609,-0.0217452
-0.0699381,-0.0180229
-0.0193454,0.00137739
0.0256216,0.0749948
0.0277888,0.0518814
0.0262054,-0.0661864
-0.00570117,-0.0658323
-0.0170308,-0.0155151
-0.0245148,0.00107761
-0.0216208,-0.0125079
0.00271451,-0.00980466
0.0131123,0.0230192
0.00956479,0.0330431
0.000588718,0.0208749
-0.0015211,0.000648984
-0.0395469,0.00740877
-0.0680009,0.0141307
-0.0535242,-0.0483302
-0.0541318,-0.0388504
-0.0169609,-0.00712037
0.0951142,-0.0189032
0.138255,-0.00707881
0.118639,0.0407335
0.106747,0.0140595
0.0826338,-0.00769379
0.0810578,-0.0038931
0.0731254,-0.00204859
0.0222407,0.0247518
-0.0387149,0.0568205
-0.0990155,0.0671827
-0.120712,0.0060044
-0.112575,-0.0289013
-0.092501,-0.039376
-0.0443397,-0.0772284
-0.0168873,-0.0167946
-0.0232389,0.103154
-0.00254889,0.0881886
-0.00533295,-0.0225261
-0.0119243,-0.078406
0.00170281,0.00188886
0.0100516,0.0772932
0.00649731,0.0340888
-0.0127959,-0.0162595
0.0287554,0.00277131
0.0608497,-0.0379651
-0.0215725,-0.0821412
-0.086564,-0.0492261
-0.0883186,-0.00854631
-0.0860191,-0.00930203
0.00991896,-0.0188352
0.0934731,-0.0367306
0.101589,-0.0352959
0.127477,-0.0182793
0.123013,0.0164973
0.0911359,0.048845
0.0694737,0.0498749
0.022093,0.0437664
-0.0246345,0.0374745
-0.0349373,-0.00531944
-0.0347556,-0.0261744
-0.0322527,0.0237365
-0.0373099,0.0548801
-0.0455642,0.0110324
-0.0497716,-0.0191869
-0.0490633,-0.000772719
-0.0217911,0.0122341
-0.000775992,-0.0088644
0.0100245,-0.0350616
-0.00490399,-0.0443227
-0.0171323,-0.0334753
-0.00995827,-0.0258519
-0.0104936,0.00315786
0.0296667,0.0189238
0.0743948,0.0259031
0.0265901,0.0105001
-0.0257425,-0.00146429
-0.0351967,-0.0112299
-0.0199413,0.0167528
-0.0317742,0.0370375
-0.0521916,0.00780664
-0.0299613,-0.00230067
0.00868795,0.0132886
0.0257047,-0.00341525
0.0473306,-0.0334684
0.0268182,-0.0116522
-0.0406471,0.0671134
-0.0323907,0.0478187
0.0204345,-0.00362088
0.0401148,-0.0436017
0.0395025,-0.0533474
0.0472542,-0.0381895
0.0248387,-0.033003
-0.0599854,0.00644335
-0.0854917,0.0572783
-0.0471172,0.0513355
-0.00710969,-0.000736053
0.0285103,-0.0370357
0.0698331,-0.0415171
0.0767676,-0.0268248
0.0487177,-0.00143983
0.011302,0.0216644
-0.0258112,0.0154626
0.000268851,-0.00610774
0.0212336,0.0199307
-0.0445329,0.0381227
-0.0873873,-0.0146708
-0.0655378,-0.0166726
-0.0336121,0.00962866
-0.0197634,-0.013235
-0.000544296,-0.019147
0.0310276,-0.019024
0.0506302,-0.00837036
0.0324989,0.0106044
-0.00762111,0.00353979
-0.016463,-0.00406009
-0.0146665,0.000165227
-0.010856,0.0171678
-0.02065,0.0207671
-0.031791,-0.0190771
-0.0181916,-0.0380488
0.000655613,-0.00732553
0.000474943,0.021804
0.0349234,0.0273987
0.118588,0.0024335
0.0860946,0.00198822
-0.0163265,0.000787589
-0.032027,-0.00912895
-0.0179927,0.00880356
-0.0478394,0.0111004
-0.0517579,0.00556527
-0.00361994,0.0564443
0.0705874,0.0224598
0.102244,-0.0373533
0.0440084,-0.0588158
-0.0252316,-0.0332226
-0.0476415,-0.00826692
-0.0384076,0.00531439
-0.0254177,0.0164601
-0.014295,0.0233253
-0.000680797,0.0183709
0.030774,-0.00166291
0.0381266,-0.0117139
-0.0237118,-0.00126713
-0.0733685,0.0140406
-0.047995,0.00624358
0.0163698,0.00904506
0.0727082,0.00107339
0.105381,-0.00981831
0.104925,-0.00496605
0.0707327,-0.00381643
0.00679801,-0.00709277
-0.0416165,-0.00549059
-0.0594728,0.0169734
-0.0522052,0.0345699
-0.0734055,0.0158498
-0.115304,-0.00482131
-0.0948047,-0.0294945
-0.0493745,-0.0310503
-0.0162781,-0.027769
0.0143693,-0.00842117
0.0257762,0.016695
0.0575601,0.0133349
0.0431494,-0.0201885
0.0279119,-0.0263519
0.0129858,-0.00739921
-0.0613728,0.00938358
-0.0472424,-0.00430616
0.0117106,-0.00789466
-0.0286605,0.00444116
-0.0137974,0.00259745
0.0523632,0.00279445
0.0934839,0.00501674
0.0771611,0.00108216
0.0388458,-0.0118096
0.00602853,-0.0224087
-0.0691504,-0.0086599
-0.117833,0.023522
-0.022011,0.0602421
0.0708934,0.0792876
0.0982257,0.0557779
0.0488078,0.00663104
-0.0261381,-0.0428457
-0.074654,-0.037914
-0.0502346,-0.00724399
-0.038905,0.0125265
-0.0473134,0.0199214
0.00377145,-0.0101921
0.0608795,-0.0477567
0.0312453,-0.0607822
-0.00120476,-0.00943367
0.0355576,0.0194369
0.0504732,0.0317484
0.0243505,0.00228542
0.00760654,-0.0301576
0.0353632,-0.0138067
0.0535373,-0.0100469
0.0329209,0.000192049
-0.0114473,-0.00525443
-0.0809104,0.00787208
-0.139696,0.0105089
-0.152225,0.0112953
-0.081545,0.0246507
0.00962806,0.0585761
0.0286819,0.0487715
0.0428465,-0.0421929
0.0669684,-0.0160641
0.0679398,-0.00683427
0.048486,-0.0480165
0.0120519,-0.0398041
-0.0128688,-0.017488
0.00934514,0.0315375
0.033444,0.0400766
0.0336452,0.0115375
0.0193045,0.0034363
-0.00656763,0.009965
-0.0426282,0.00100567
-0.0680456,-0.00388378
-0.0604521,-0.00817123
-0.0172137,-0.00571233
0.0483553,0.0154079
0.0638474,-0.0136313
0.0421654,-0.0219286
0.0268005,-0.00543381
-0.00206135,-0.0141041
-0.0541611,-0.00508533
-0.0683883,0.0061815
-0.0280401,-0.0137671
0.0499525,-0.014382
0.103294,-0.00233781
0.073277,0.00683398
0.00568983,0.0131753
-0.025505,0.0147627
-0.0534519,0.021554
-0.0900989,0.00158359
-0.118234,-0.0173366
-0.0993324,-0.0185535
-0.0229335,-0.000442433
0.0413391,0.0187603
0.0520125,0.0134631
0.0293504,0.0158209
0.0226883,-0.00587852
0.0190428,-0.0162146
0.0169612,-0.00318762
0.014704,-0.00169749
0.0013811,-0.0150811
0.0025564,-0.00742794
0.0147096,-0.0163565
0.0123537,-0.00697132
0.0240833,-0.00233465
0.041292,0.0267286
0.0294134,0.0569044
-0.00316894,0.0297616
-0.0286817,-0.0349216
-0.0143207,-0.040374
0.0178048,-0.00293846
0.0146112,0.0178672
-0.00760459,0.0246037
-0.00447001,-0.00521813
-0.0290288,-0.0192204
-0.0478923,0.00316875
-0.0131594,0.0112064
0.0193854,0.00485001
0.0210657,-0.00494044
0.00434052,0.00882461
0.0302701,-0.0134983
0.0252101,-0.0149972
-0.00714387,-0.00899922
0.0101283,-0.00560487
0.0164752,0.00144866
-0.00459182,0.00958597
0.00463393,0.0210678
-0.0226194,0.0276028
-0.0709442,0.000965343
-0.0802454,-0.0215396
-0.0412789,0.012779
0.00541039,0.00359765
0.0228508,-0.0282135
0.00752439,-0.0134799
-0.0440721,0.00123336
-0.0996819,0.00181855
-0.0472254,0.0110039
0.0579386,0.0192276
0.110664,-0.00125334
0.0887967,-0.0216118
0.0137428,-0.0170895
-0.0105925,-0.0174436
0.0247315,-0.00355308
0.0478139,0.00575413
0.0075917,0.0254448
-0.0201188,0.0442778
0.0012375,0.00261814
0.0126737,-0.038198
0.0114944,-0.0353849
-0.00201166,-0.015362
0.00684917,0.00621368
0.0318987,0.025784
0.050348,0.0201989
0.0364614,-0.00977084
-0.029851,-0.0104498
-0.103596,0.00330836
-0.110145,0.00517449
-0.0497367,0.0111866
0.0221543,0.0154547
0.0609691,0.00998723
0.0738256,-0.000113776
0.0355093,-0.0160126
0.00232803,-0.0164616
-0.0212837,-0.00389604
-0.0378183,-0.0257124
-0.0268681,-0.0320615
-0.00644755,0.0124076
0.0219311,0.0240156
0.000264069,0.0146419
-0.00239015,0.0126521
-0.00926268,0.00956143
-0.0377248,-0.00555956
-0.0307719,-0.0332089
-0.011158,-0.0116438
-0.000722555,0.0116498
0.0042118,0.00147848
0.00535504,0.0238834
0.0154774,0.0134642
0.00940859,-0.0254914
0.0119842,-0.0354573
-0.027171,-0.0046485
-0.0498654,0.0430555
-0.0299182,0.0529684
-0.0278528,-0.00891861
-0.0213893,-0.0129214
0.0214738,0.0100004
0.0486526,0.00237161
0.0687416,0.00867642
0.0829037,0.00546133
0.043231,-0.00491734
0.0223534,7.98e-05
0.0106133,0.0146574
0.0247335,0.0306931
0.015703,-0.00682659
-0.00435766,-0.0183392
-0.0198765,-0.0238814
-0.0137452,-0.0302832
-0.0177245,-0.0154558
-0.0256655,-0.00752752
-0.0269871,-0.000740614
-0.0121299,-0.00943299
-0.0290072,0.0165383
-0.040474,0.0611114
-0.0402005,0.0222487
-0.040124,-0.0405649
-0.0364196,-0.0451696
-0.0326613,-0.0398622
-0.0302241,-0.0176177
0.0154686,-0.00222101
0.0904009,-0.0204051
0.0724708,-0.00582922
0.0155489,0.0347982
0.000244195,0.0283773
0.00534742,0.00859888
0.0121051,0.014119
-0.00589925,0.0255711
6.66e-05,0.024818
0.0696664,0.00187597
0.0961911,-0.0103494
0.0568131,-0.000930374
0.0210203,0.0108311
-0.0351232,0.00345483
-0.0752029,-0.0174519
-0.0579216,-0.0217235
-0.0602546,-0.0148821
-0.0730395,-0.00298624
-0.0508498,0.0106218
-0.023306,0.00684912
0.0062181,-0.0082052
0.025428,-0.0429971
0.0123457,-0.0416639
-0.00100082,-0.00106729
0.0113089,0.0273237
0.0359211,0.0286404
0.0352162,0.0237037
0.0100523,0.0293067
-0.0163244,0.0367743
-0.00991047,0.0208028
0.0382509,0.00390376
0.0659466,-0.00379345
0.0452896,-0.0144085
0.0296937,-0.0228105
0.0152495,-0.0215512
-0.0175973,-0.010857
-0.0449302,0.00263983
-0.0512173,-7.69e-05
-0.0331185,-0.0124128
-0.0386461,-0.0209296
-0.0555941,-0.0143692
0.00641611,0.0237182
0.0728924,0.0513302
0.0546188,0.0273851
0.0151221,-0.018868
-0.0201411,-0.0181671
-0.0324946,0.0251113
-0.0412433,-0.00469479
-0.0460795,-0.0608658
-0.0141292,-0.045719
0.00216825,-0.00315688
0.00918906,0.0132411
0.0148205,0.00770968
0.00313289,0.00859051
0.00426484,0.00525444
0.021102,-0.0243712
0.00939559,-0.0339929
-0.0203997,-0.0132358
-0.0147531,0.0180094
-0.00205472,0.0311259
-0.000903043,0.0150086
0.00247694,0.00212877
-0.00597503,0.0105357
-0.0290785,0.015901
-0.0382013,0.0124005
-0.0209405,0.0130614
0.0129514,-0.0133335
0.0297274,-0.00367168
0.053283,0.0281552
0.0875198,0.0140805
0.0660306,0.00544581
0.0443884,0.0021533
0.0259603,-0.00235038
0.00990224,-0.0187239
-0.00939807,-0.0340133
-0.0127699,-0.0103515
-0.00664732,0.0199422
-0.0228972,0.0366934
-0.0397639,0.0280951
-0.0609724,0.00399087
-0.055512,-0.0223568
-0.0335326,-0.0289446
0.00288027,-0.0308261
-0.000810798,-0.0405614
-0.0327048,-0.0184074
-0.0179195,0.0176833
0.0181151,0.025853
0.0277487,0.0184564
0.0226007,0.0110861
0.00967239,-0.00443489
-0.00428519,-0.0107919
0.000536652,-0.0045136
0.0147253,0.00413893
0.0173552,0.0037211
0.0107593,0.00432179
0.012216,0.00821178
0.02069,-0.00936863
-0.00116697,-0.00791597
-0.0158325,0.0263511
-0.0295722,0.00608786
-0.0487904,-0.0247332
-0.0184272,0.00291471
0.0136696,0.0415342
0.0037237,0.012862
-0.015139,-0.0301192
-0.021516,-0.0323133
0.00477439,-0.0249259
0.0089785,-0.0146337
0.0289154,-0.0163791
0.0702098,-0.00555098
0.0611265,0.00161929
0.0288752,0.0137731
0.00598886,0.0327053
-0.0246803,0.0338597
-0.0482458,0.0316353
-0.0278588,0.0458288
0.0125316,0.0267145
0.024723,-0.0156728
0.0294206,-0.0353653
0.0267277,-0.025159
0.00140197,0.00752153
-0.0333104,-0.00234112
-0.0565902,-0.030831
-0.0614132,-0.0316132
-0.0612267,-0.0275012
-0.0823281,-0.0191266
-0.0723576,-0.000177369
0.0111998,0.00983218
0.0752021,0.00690105
0.062446,0.00252893
0.0429785,0.0319717
0.0333219,0.021273
0.0621004,-0.00253951
0.0865852,0.000685519
0.0625447,0.0182385
0.0283516,0.00224017
-0.00809242,-0.00458986
-0.0410018,-0.00241173
-0.0335127,-0.00845401
-0.0679025,-0.0157982
-0.103791,-0.0277985
-0.0613066,-0.0316636
-0.00946539,-0.0150495
0.0179544,0.0119759
0.0209907,0.024687
0.0267251,0.0188398
0.030048,0.00962738
0.0272684,0.00716461
0.0214338,0.000721726
0.00223649,-0.00260326
-0.0127344,0.00422254
0.0125842,0.0169266
0.0324856,0.0213417
0.0353424,0.00685516
0.00790185,0.00208954
-0.0515971,0.00342988
-0.0985494,-0.0028593
-0.0649037,-0.0149448
-0.0139529,-0.018991
0.00937363,-0.00385843
-0.0224229,0.0137653
-0.0189201,0.00319459
0.0210974,-0.0164477
0.0541838,-0.032617
0.046839,-0.0379773
0.0625419,-0.0193402
0.0607828,0.00626094
0.0204391,0.0200644
-0.00502512,0.0324974
-0.00516586,0.0318935
-0.0125815,0.0226459
-0.0268576,0.00715383
-0.0301875,-0.0115832
-0.0155067,-0.0143627
0.0111701,-0.000585548
0.0340521,0.00608516
0.0312217,0.00164435
0.00878481,-0.0112334
-0.0150209,-0.0184014
-0.0304997,0.00462733
-0.0388589,0.0138976
-0.0626573,0.00965603
-0.0682394,-0.00895756
-0.0682568,-0.0348573
-0.0520525,-0.00329757
-0.00234646,0.0553221
0.0405663,0.0382761
0.0385937,-0.024715
0.0204794,-0.0405642
0.0122292,-0.00844299
-0.0219236,0.0291161
-0.0182726,0.0275671
0.0498563,-0.0133542
0.0784383,-0.00900047
0.0622136,0.0045907
0.0511337,-0.00166356
0.0301607,-0.00882207
0.00480413,-0.02332
-0.00524655,-0.0340489
-0.0125927,-0.00974208
-0.0213296,0.000131054
0.00960123,0.0045123
0.0265219,0.0178019
0.00208912,0.0198808
-0.0231488,0.0150296
-0.053167,0.00864884
-0.0564882,-0.0111705
-0.00424558,-0.0308638
0.0707931,-0.0237579
0.110081,-0.00135212
0.100124,0.022628
0.0687654,0.0281883
0.00645927,0.0150129
-0.0672005,-0.017686
-0.125381,-0.0248845
-0.131137,0.00247774
-0.0887931,0.0280398
-0.0338715,0.023118
-0.00490047,0.00475106
-0.0088247,0.000337767
0.00999854,-0.00608695
0.0263896,-0.0120658
0.0168367,-0.0103626
-0.0052734,-0.00538852
-0.0355689,-0.0152964
-0.0534356,-0.00883211
-0.00853857,-0.00452043
0.0419074,-0.00297576
0.0587786,0.00257663
0.0323595,0.0102226
0.000176233,0.00884774
-0.0165357,0.00924144
-0.0122917,0.000260396
0.00602265,-0.00164851
0.0275215,0.00523117
0.0436048,0.0137487
0.0451211,0.0167024
0.0286079,0.00940366
0.0168398,-0.00232417
-0.0123551,-0.0224114
-0.038686,-0.0312974
-0.0457897,-0.011142
-0.0280378,-0.00277996
-0.0109138,-0.00481046
-0.027764,0.00954833
-0.023127,-0.00386746
0.00210751,-0.031605
0.016494,-0.00964527
0.0129174,0.0103911
0.0138694,0.00196227
0.0220711,0.00013698
-0.00160198,0.0242113
-0.0156848,0.0357631
-0.0108158,0.00560375
-0.0153191,0.0159343
-0.0112802,0.0522293
-0.0139275,0.0137943
-0.00538643,-0.0519263
0.0329458,-0.0370916
0.0695426,0.0178018
0.0530316,0.0409713
0.0281219,0.00298983
0.0210768,-0.027817
0.00782715,-0.0112809
-0.00286211,-0.00335332
-0.00463221,-0.0088091
-0.00119076,-0.0126505
-0.00310272,-0.00538574
0.0111002,0.0117788
0.0123495,0.0152977
-0.000256881,0.00284845
0.00322932,-0.00403352
0.00690693,-0.000597928
-0.0149349,-0.00455589
-0.054778,-0.0106167
-0.0598864,-0.00606446
-0.0242694,0.00352093
0.00533402,0.000634794
0.0232416,-0.000376978
0.0183802,0.00389959
-0.0240967,0.0148585
-0.0456927,0.000402373
-0.0324969,0.00100571
-0.00195901,0.0214417
0.0345882,0.0042682
0.0514263,-0.0206462
0.0125749,-0.012718
-0.0370906,-0.0159511
-0.0492582,-0.0304202
-0.052656,-0.0295424
-0.0526232,-0.0261067
-0.0141839,-0.011645
0.0577374,0.00364108
0.0991459,0.0180169
0.0683543,0.0263876
0.0473781,0.00546483
0.0171724,0.00094154
-0.0335925,0.018497
-0.0521353,0.0167047
-0.031876,-0.0105763
-0.029265,-0.0154298
-0.00912066,0.0175308
0.0197924,0.0269681
0.00903512,-0.00292224
-0.0151172,-0.00574467
-0.0221426,0.00937587
-0.035179,-0.00301167
-0.0440606,-0.00888863
-0.00655723,0.00111908
0.0372038,0.00649427
0.0532341,0.0110795
0.0230364,0.0433448
0.0147104,0.0668777
0.0513583,0.000700551
0.0671278,-0.0524928
0.0378831,-0.0431639
0.00333397,-0.0394886
-0.00408812,-0.0224968
-0.00275674,0.00308403
-0.00597515,0.014721
-0.0122894,0.00375821
-0.033487,0.00415173
-0.0410963,0.00119973
-0.0268683,-0.011862
-0.0222274,-0.0147936
-0.0242602,-0.00608897
-0.0218519,0.00103027
-0.0105149,-0.00131819
0.00809451,-0.00301311
0.0165333,0.00587546
0.0130188,0.0094387
-0.000803607,0.00675874
0.0124268,0.00464293
0.01263,0.00674201
0.0133797,0.0144065
0.0296685,0.0191362
0.00598348,0.0144616
-0.0362695,-0.0044269
-0.0605029,-0.00644047
-0.0658957,-0.0118819
-0.0430326,-0.00600241
-0.0183932,0.000931269
0.00143208,-0.0205047
0.0399355,-0.0330851
0.041306,-0.00913519
0.0423886,0.0127789
0.0321831,-4.25e-05
0.0139255,-0.00987277
0.00253853,-0.00394422
-0.00064031,0.0171316
0.000918552,0.0173146
0.0207315,0.00233043
0.046668,0.00573519
0.0459458,0.0259983
0.0264528,0.0299763
0.0089538,0.0103599
-0.00695155,-0.000636562
-0.0226826,-0.0064748
-0.0347796,-0.0103012
-0.0263265,-0.00611547
-0.00509982,0.00298498
0.00611258,0.000655236
0.00954675,-0.0124151
-0.0192438,-0.016852
-0.0613094,-0.0111481
-0.0822904,0.0162447
-0.0503561,0.021247
0.0138479,-0.0224338
0.0536539,-0.0211004
0.0630138,-0.00724316
0.0318735,-0.00547815
-0.000812496,0.00708277
0.0081914,0.0170764
0.0357942,0.0148581
0.0316104,-0.000876299
0.00814195,-0.00543536
0.00527511,-0.0081424
0.0114052,-0.00800616
-0.00514041,0.000610059
-0.0235369,0.00453225
-0.0325455,-0.00891494
-0.0353975,-0.0268595
-0.0365694,-0.0258613
-0.0304448,-0.00497273
-0.0250694,0.00828381
-0.0171013,0.0236597
-0.00557324,0.0204995
-0.00179328,0.0156158
0.00815577,0.0217528
0.00452628,0.0125196
-0.012597,-0.0362644
-0.0269398,-0.0327594
-0.000749824,0.000893674
0.0316534,0.00251182
0.00438273,-0.00873407
-0.0234484,-0.0135751
-0.0168921,0.0160825
0.00941411,0.0119904
0.037824,-0.00676265
0.0417779,0.0143356
0.0322808,0.0187774
0.0374107,0.00259294
0.0239241,0.000152392
0.00419067,0.00166728
-0.0119119,-0.00336394
-0.0281792,-0.00541668
-0.0340049,-0.000905908
-0.0240415,0.00652955
0.000548489,0.00498199
0.0339184,-0.00688448
0.0606329,-0.00952125
0.0507815,0.00805877
0.0175386,0.0154615
-0.00430974,0.00281922
-0.0412793,-0.00491604
-0.0558172,-0.00394523
-0.0379699,-0.00356448
-0.0336978,-0.00411666
-0.0249111,-0.00126542
0.0130856,-0.00286428
0.0526065,-0.0114934
0.0791225,-0.00908657
0.0663809,0.000944222
0.0244926,0.00198221
-0.0331798,0.00163675
-0.0686583,0.00861358
-0.0623116,0.00878544
-0.0340367,0.00737437
0.0395282,0.0110397
0.0875609,0.0094378
0.03808,0.00237162
-0.0157068,-0.00691797
-0.0205723,-0.009945
-0.056389,-0.0103468
-0.0842789,-0.0102035
-0.0783942,-0.0112121
-0.0579641,-0.00901206
-0.026269,0.000801656
0.0175062,0.00169507
0.0217827,-0.00434305
0.00699728,0.00407261
0.0033415,-0.00731155
0.0187919,3.69e-05
0.0418779,0.0253494
0.0407542,0.0175857
0.0256358,-0.00839243
0.0221897,-0.032292
0.0253122,-0.0193228
0.022233,0.0609127
0.0154044,0.0962961
0.0083152,0.00448041
0.0174509,-0.0394945
0.0319696,-0.0270102
0.0100643,-0.0114169
-0.0136808,-0.00943212
-0.00509432,-0.000375948
-0.00804728,-0.00715266
-0.0345214,-0.0157432
-0.0455798,-0.00663578
-0.0164492,0.0204175
0.0178766,0.0193266
0.0195372,-0.0221627
0.0115325,-0.0218888
-0.00404115,-0.0217643
-0.00521205,-0.0196595
-0.000843596,-0.00905399
-0.00313086,-0.00343141
-0.00795715,0.00347713
0.00525478,0.0168763
0.017216,0.0238988
0.0106675,0.00881916
0.00373545,0.00492711
0.00953539,0.0109059
0.000955439,0.00652851
-0.032393,-0.000105952
-0.0579566,0.000195899
-0.0482398,0.00314448
-0.0312695,0.0012988
-0.0191291,0.00156872
-0.00604207,-0.00103358
-0.0213965,-0.00752723
-0.0436991,-0.0142745
-0.024537,-0.0135624
0.0497062,-0.00637586
0.115043,0.00138738
0.145204,0.0122883
0.100351,0.0142366
0.0185659,0.00354783
-0.0245844,-0.000464374
-0.0353359,0.00238904
-0.0477401,0.00618734
-0.0728495,0.000213165
-0.073934,-0.012861
-0.0391544,-0.0143595
-0.0207965,-0.0127916
-0.00120776,-0.00283837
0.00805053,0.0100139
0.00778168,0.00241906
0.0132146,-0.01136
0.0107134,-0.00802733
-0.00341431,0.000177521
-0.000116724,0.0188658
0.025321,0.0273305
0.0474071,0.0160342
0.0383557,-0.000857133
0.0122239,-0.000232155
-0.0130871,0.0175572
-0.0255114,0.00952558
-0.0216782,-0.0214305
-0.00404602,-0.0227908
0.00749748,8.67e-06
0.00288516,-0.00319627
0.0016303,-0.00773044
-0.00101077,-0.0158729
-0.00432062,-0.019319
0.00167636,0.00599981
