Comp Ch 3,Comp Ch 4
-0.00283306,0.0201869
-0.0102634,0.0142766
0.00268083,-0.0237487
0.00168494,-0.00446708
-0.00641687,0.015661
-0.000156093,-0.0238991
0.0018737,-0.0307515
0.0136611,0.00354209
0.0423989,0.0170441
0.0453695,0.00561463
0.0275999,-0.00706092
0.0165759,-0.00232987
-0.0103259,0.00135614
-0.0402747,-0.006645
-0.0447939,-0.0125225
0.000731488,-0.00357188
0.0819512,0.00527453
0.1382,0.00871806
0.140117,0.0135395
0.0850159,0.0059698
-0.00699099,-0.0123779
-0.081358,-0.0202437
-0.102843,-0.0170784
-0.0945463,-0.0152782
-0.0305128,-0.00323808
0.027574,0.0122632
0.0099761,0.00969385
-0.0299886,0.000388849
-0.0410716,-0.00344281
-0.0572152,0.00191564
-0.0789503,0.0277799
-0.0588815,0.0309987
-0.00988099,0.0265306
0.0119927,0.00177487
0.00229001,-0.0216278
-0.0115085,-0.00391161
-0.0183356,-0.00138649
-0.0188274,-0.0231709
-0.0061111,-0.0318047
0.00886403,-0.00357628
0.0290945,0.0279561
0.058778,0.0191848
0.0653576,-0.00663943
0.0475623,-0.00280322
0.0335148,0.0158933
0.0209897,0.0133568
-0.00612513,0.00732656
-0.0241752,-0.0468705
-0.000831839,-0.0309849
0.0284103,0.0237747
0.036484,0.0185377
0.0242694,-0.00150018
-0.0089798,-0.00131671
-0.0493403,0.00718752
-0.0773802,0.00230887
-0.0731691,-0.0216547
-0.0330056,-0.0148805
0.0260297,0.00881295
0.0818774,0.0248171
0.0841458,0.0116378
0.0573213,-0.00736094
0.0205423,-0.00827803
-0.00863946,-0.00814768
-0.0243916,-0.0172881
-0.00638024,-0.0388892
0.0451561,-0.0119992
0.0499397,0.0439061
-0.00518679,0.00470432
-0.0362044,-0.0102351
-0.0576914,-0.0060539
-0.102143,-0.0117665
-0.0924254,-0.000831456
-0.0356144,0.0242016
-0.0162209,0.0081048
0.0155404,-0.0030821
0.045921,0.0135479
0.0347832,0.0111324
0.0147127,0.0137676
0.00743163,0.015664
-0.00549991,-0.00700723
-0.0230087,-0.0281031
-0.017326,-0.0190657
0.00366691,0.0310872
0.00676379,0.0235381
-0.00325691,-0.00715103
-0.0057288,-0.0094889
-0.0089288,-0.00721278
-0.0146736,-0.0241166
-0.0108534,-0.0316052
0.00587162,-0.00995301
0.0268388,0.0168614
0.0534338,0.0393554
0.063333,0.0248287
0.0425027,0.000822767
0.019423,0.0108642
0.00266755,0.0240164
-0.0168096,-0.00138541
-0.0331216,-0.0311079
-0.02506,-0.0180015
-0.00516536,0.00799641
-0.00712998,0.0208929
-0.0120831,-0.000398504
-0.0100566,-0.00880504
-0.00702604,-0.016975
-0.00826661,-0.0313863
-0.0160614,-0.0195551
-0.0272031,0.0130102
0.00411842,0.00724431
0.0426246,0.0091054
0.0284685,0.0014365
0.0186259,-0.0180897
0.00670992,-0.00365651
-0.00725309,0.0233794
-0.00258837,-0.00266787
0.00563775,-0.0227994
0.0163536,0.00172052
0.0180904,0.0112301
0.00939529,0.0654421
0.0182296,0.0236066
0.0275458,-0.0411902
0.0508281,-0.0175721
0.0614603,-0.0210946
0.0351386,-0.0147012
0.0184432,-0.0141513
-0.00175129,0.0141972
-0.0320111,0.0333414
-0.0629202,-0.00474701
-0.0793833,-0.012341
-0.0875645,0.02213
-0.093361,0.0173246
-0.0949739,0.00654319
-0.0760297,-0.00624858
-0.0183282,-0.0259609
0.0216772,-0.0285795
0.022383,-0.0187226
0.00979346,-0.00476929
-0.00708584,0.00463016
-0.00867698,0.00352078
0.00720893,-0.00204747
0.0210843,-0.00158997
0.0373983,0.00306775
0.0658507,0.0135646
0.0601858,0.0164164
0.0267182,0.0131796
0.0107363,-0.014802
0.0119034,-0.0167633
0.0113769,0.00246623
-0.0131888,-0.00656059
-0.0244578,-0.00230304
-0.000738366,0.019793
0.00764218,0.0110009
0.00467236,0.0020323
-0.0109193,0.0130735
-0.0226205,0.00593947
-0.0255035,0.0137671
-0.0121056,0.0234696
0.00308134,-0.0169021
0.0134067,0.0150217
0.0268125,0.00587309
0.0216053,-0.0188385
-0.000457642,-0.00858314
-0.00311258,-0.0281729
0.0234875,-0.0343649
0.0120962,-0.0156359
-0.00123823,-0.00134138
0.01811,0.0108074
0.0216026,0.00550177
-0.00222024,0.0103528
-0.0105326,0.0112698
-0.0105482,-0.000821677
-0.0146589,0.00248393
-0.0155169,0.0176054
-0.0048986,-0.00105158
0.00439378,-0.0160031
0.0308007,-0.000840677
0.0456015,0.012037
0.019611,0.00710359
-0.00290243,0.0158172
-0.00410602,0.0154971
-0.0125891,-0.00260081
-0.0265662,-0.00859245
-0.0189971,-0.000849191
-0.000210953,0.0105957
-0.000771605,-0.00219564
-0.0112127,-0.0247932
-0.0117275,-0.0127959
-0.0381793,-0.0151205
-0.0522299,-0.0291533
-0.042255,-0.00867942
-0.0216403,0.00844559
-0.0013396,0.0170625
0.0262826,0.0272049
0.0439866,0.0017184
0.0323391,-0.0236501
0.0292199,-0.0170644
0.0280866,0.0124684
0.00173099,0.0211479
-0.0124358,-0.000332063
0.0140197,-0.020115
0.0220313,-0.0135607
0.0044428,0.0269485
0.00328037,0.0391294
0.0631923,-0.00616255
0.0827621,-0.00280193
0.0547668,-0.0103461
0.00467035,-0.0202361
-0.0310269,-0.0154353
-0.0652162,0.0116876
-0.0866638,0.0178216
-0.0780439,0.011491
-0.0600457,0.00789945
-0.0386772,-0.0101618
-0.0247547,-0.0278217
-0.0312228,-0.0202213
-0.044311,0.0132247
-0.0388279,0.0204865
0.0101599,0.00206111
0.0279077,-0.00578548
0.0108323,-0.00544538
0.000157597,0.00344861
-0.012474,-0.00277767
-0.00775642,-0.013994
0.0218087,-0.00382163
0.0344257,-0.0183189
0.0491326,-0.0023649
0.0745938,0.0057923
0.0754487,0.0107676
0.0494279,0.0396469
0.0285368,0.0574532
0.000604437,0.0218209
-0.0281121,-0.0351216
-0.0358093,-0.0306191
-0.019974,0.0337223
0.00746158,0.0324392
0.010481,-0.0309049
-0.0052331,-0.00625497
-0.0289782,-0.0154682
-0.0475074,0.00239869
-0.03149,-0.00717291
-0.00744862,-0.0318715
0.00536237,-0.0356012
0.037892,-0.0144573
0.0547987,0.0112939
0.0411195,0.00731992
0.0230377,-0.00422131
0.00662626,0.00970955
-0.01572,0.0527712
-0.0405152,0.0239324
-0.0410285,-0.0434213
-0.0359452,-0.0269613
-0.0114391,-0.0112863
0.026224,0.00350347
0.0223634,0.0100226
-0.0124377,0.00730211
-0.0329312,0.0104103
-0.0163521,-0.00831338
-0.00372658,-0.0122143
0.0130262,0.00113945
0.0526105,0.0292795
0.0633024,0.0235279
0.0289515,-0.0195733
-0.00784188,-0.0170474
-0.0283748,-0.0072905
-0.038687,-0.00120037
-0.0440894,0.0117403
-0.0223491,0.00305195
0.0132964,0.000699159
0.00544728,-0.00608254
0.00171605,-0.00470529
0.00898464,-0.0121833
-0.00125953,-0.0366933
-0.0203816,-0.029977
-0.0251617,-0.0104568
-0.0231377,0.0200058
0.000999616,0.0319569
0.0432165,0.0294593
0.0444394,0.0204367
0.0192414,0.0188501
0.00462449,0.0162202
-0.00949501,-0.00460578
-0.0282755,0.00165815
-0.0294249,0.0155594
0.0043892,-0.00640442
0.0335649,-0.0212814
0.02668,-0.00981073
0.0155151,0.00572649
-0.0102105,0.0227073
-0.0429766,-0.0022505
-0.0431663,-0.0302773
-0.0322737,0.00322609
-0.0308676,0.00491986
0.00306363,-0.00978187
0.0344842,0.0023678
0.0320118,0.000763209
0.0535068,-0.0265711
0.060311,-0.0277062
0.00893958,0.00144651
-0.0139431,0.00132996
-0.000676619,0.0154219
0.011572,0.0103338
-0.0180622,0.0049569
-0.00606811,-0.00323962
0.0246818,-0.00332884
0.0177004,-0.00610752
0.00491101,-0.0137313
-0.00265032,0.00480891
-0.0276362,0.00242807
-0.0402198,-0.00414594
-0.0252014,0.0173407
-0.0153991,0.0266114
-0.027482,0.00471311
-0.0296331,0.00547695
-0.0183311,0.00570746
-0.0271842,-0.00258092
-0.0379247,-0.00815726
-0.0174498,-0.00483145
0.0199058,0.00589224
0.0399825,0.0145576
0.0468485,0.0038566
0.0440363,-0.00949723
0.028315,-0.00993154
0.0110472,-0.0160204
-0.0167741,0.0168351
-0.0305198,0.0124184
-0.00667648,-0.0279982
0.0180119,-0.00241152
0.0185576,0.00528392
0.00290075,-0.00506287
-0.0113823,-0.00366523
-0.0260984,0.00137141
-0.0319123,-0.00545352
-0.0320939,-0.0120891
-0.00255031,-0.00967445
0.0230096,-0.0118624
0.0175014,-0.0133867
0.0171386,-0.00309436
0.00552101,0.00921916
-0.00150592,0.014869
-0.00272116,0.0107772
0.000451406,-0.0151343
0.00638631,-0.00828466
0.0332457,0.0833184
0.0556592,0.11544
0.0476028,0.03099
0.0187738,-0.0492113
0.00387279,-0.0503346
-0.00308998,-0.0427839
-0.0170867,-0.0149167
-0.00134254,0.00228107
0.0293239,-0.00843614
0.0178074,-0.008062
-0.0113719,-0.00188134
-0.0294602,-0.000430839
-0.0356313,0.0040497
-0.0362648,-0.00794511
-0.0285424,-0.0279415
-0.010385,-0.0150618
0.00572765,-0.00565803
0.0183659,0.0209694
0.00738463,-0.00129493
-0.0235816,-0.0195915
-0.048599,0.0154376
-0.0556022,0.0184929
-0.0632852,-0.0186293
-0.0690593,-0.0284058
-0.0454167,2.14e-05
-0.0055611,0.00531874
0.0127449,-0.00958995
0.0410884,0.0136826
0.066585,0.0291724
0.0590919,0.00528931
0.0534457,-0.00853474
0.0455218,-0.00612483
0.00658769,-0.00207776
0.0145358,0.00237309
0.0815994,0.014943
0.117519,0.0278395
0.0906348,0.00200312
0.030661,-0.0205575
-0.0436155,-0.0155577
-0.124138,0.00167878
-0.164248,0.00644155
-0.147469,0.00291048
-0.0753466,-0.00836723
0.0196262,-0.00170469
0.0543298,0.0175927
0.0308611,0.00824012
0.00356893,-0.003129
-0.00902887,0.00265039
-0.0218059,0.00816782
-0.0235524,-0.00144328
0.0248402,0.00568055
0.0891265,0.0131012
0.100653,-0.00548873
0.0905147,-0.0110392
0.0623871,-0.00937688
-0.00529297,-0.0260632
-0.0561931,-0.0221346
-0.0840869,-0.015223
-0.0727536,0.0074821
-0.0526496,0.0303651
-0.0206292,0.0213579
0.0183783,0.00956035
0.00448812,0.00242593
-0.0212708,-0.00894122
-0.033725,-0.00706738
-0.00580243,0.00920492
0.0440722,0.0160471
0.0765482,0.0374757
0.0805371,0.0280474
0.0843025,-0.0113499
0.0874703,-0.0296401
0.0747208,-0.0226192
0.0186817,-0.0205998
-0.0506231,-0.012699
-0.0954107,-0.0064204
-0.123982,0.0089235
-0.118441,0.00760556
-0.0665108,-0.00487959
-0.035171,-0.019055
-0.0327121,-0.0161363
-0.0180602,-0.00206648
0.00208957,0.0104976
-0.00932387,0.0101585
-0.000672638,0.00397387
0.0411391,0.00256159
0.0469522,0.00232694
0.0340726,0.0138786
0.0457269,0.012506
0.0403178,0.00683228
0.024329,-0.0145323
0.0104257,-0.00152023
0.0418834,-0.0151037
0.0699813,-0.0116333
0.0217142,0.0234569
-0.00471314,0.0105183
0.0135204,-0.0152172
-0.0201606,-0.00188083
-0.0485989,0.00278011
-0.021244,-0.00315661
-0.0158003,0.00617043
0.00880654,0.0055297
0.0246376,0.00694538
-0.0177481,0.00673412
-0.084169,0.0043257
-0.0999563,-0.0126758
-0.0850003,-0.0251081
-0.0595533,-0.03635
-0.0106102,-0.0296046
0.0312894,0.00880577
0.0512561,0.0346799
0.0484504,0.0341273
0.0211866,0.0240394
0.00345411,-0.00978683
0.015389,-0.0258173
0.0374589,-0.0106778
0.0505471,0.00764993
0.0472448,-8.84e-05
-0.00244421,0.00402903
-0.0433842,0.0188681
-0.0571374,0.0190342
-0.0636919,0.010737
-0.0359721,-0.000508739
0.0093066,-0.0243844
0.0247633,-0.03391
0.037097,-0.0177894
0.0307155,0.00936778
-0.0394583,0.00853579
-0.0420245,0.0293148
0.00919636,0.0533207
0.0362006,0.0393394
0.0513866,-0.00983703
0.0801638,-0.0439117
0.0868795,-0.0306515
0.0791047,-0.0227184
0.0331431,-0.0122855
-0.046648,0.000799794
-0.068468,0.0131438
-0.0698732,0.00833932
-0.0654446,-0.0247708
-0.0337275,-0.0475311
-0.00165708,-0.0262417
0.0514327,0.0117956
0.129747,0.0241443
0.116933,0.0113547
0.0539812,0.0111988
-0.0186999,0.0208065
-0.0857277,0.0335291
-0.114292,0.00560902
-0.103656,-0.0298792
-0.0804292,-0.0280969
-0.0422826,-0.00232887
-0.0105849,0.00591689
-0.00399494,0.00366301
-0.0097856,0.00342717
-0.000283028,0.00405136
0.00832331,-0.0138723
-0.00141619,-0.0248659
-0.00139802,-0.0027627
0.0326282,0.0386985
0.0675492,0.0344685
0.0748194,0.0104623
0.0547835,0.0151983
0.00147587,0.0388175
-0.0845677,-0.00805301
-0.121218,0.00913634
-0.118165,-0.0251458
-0.0759449,-0.0322393
-0.0248443,-0.0232198
0.0118107,-0.0198993
0.0157067,-0.00633838
0.0308593,-0.0120696
0.0384193,-0.0146866
0.0771426,0.0052434
0.168221,0.0221261
0.221495,0.0211391
0.188525,0.0223469
0.126,0.0307797
0.068898,-0.0116791
-0.00178109,-0.0285628
-0.0444959,-0.00766522
-0.0644229,0.00198647
-0.14067,-0.00298358
-0.190557,-0.00676732
-0.135168,-0.00715473
-0.107382,0.00162297
-0.109961,-0.0430952
-0.0661136,-0.0370165
0.0138115,0.00639695
0.0647103,0.0280471
0.0460903,0.0554159
0.0112988,0.0839302
-0.0070022,0.0687679
-0.0241658,-0.0365854
-0.0210981,-0.0371056
-0.00173225,-0.00431936
0.00854422,-0.0213876
-0.0268455,-0.0285343
-0.0459685,-0.0300891
-0.0372912,-0.0361832
-0.0230146,-0.0123906
0.0217576,0.0177968
0.0650696,0.00960933
0.0972201,-0.00793286
0.140963,0.0184604
0.164102,0.024711
0.132115,-0.0143042
0.0825774,-0.0219871
0.0396353,0.000565872
-0.0482035,0.0425774
-0.133084,0.0509792
-0.155465,0.0410193
-0.119417,0.0295838
-0.0427103,-0.0201059
0.00920692,-0.0596859
0.0315251,-0.0543439
0.00475969,-0.0288009
-0.0134602,4.81e-05
-0.0178576,0.00412284
-0.0239664,-0.00527619
-0.029619,0.0147748
-0.0232747,0.0300533
-0.0255518,-0.0164033
-0.021865,-0.0503683
0.00225434,-0.0229085
0.0364672,0.0221452
0.0507404,0.0310563
0.0448888,0.022962
0.0363313,0.0215368
0.0169998,-0.00526598
0.00487146,-0.0184368
-0.00280889,-0.0163627
-0.0158008,-0.00386655
-0.0176289,0.0343533
0.00749978,0.0203826
0.0138872,-0.0202952
0.00727155,-0.0204106
0.00175382,-0.00361842
-0.00947434,0.000640866
-0.0232307,-0.0028788
-0.0375719,-0.0106443
-0.0358559,0.0197471
-0.02368,0.0413846
0.00867992,0.00657954
0.0298103,0.00327771
0.0356511,0.0127623
0.0341248,-0.000201788
0.0256266,-0.0386862
0.0138808,-0.0541455
-0.0146181,-0.0157781
-0.0268126,0.0231805
-0.0249364,0.0305563
-0.00467583,0.0153937
0.0125509,-0.000220739
0.00186732,0.00298894
0.000783543,-0.00531741
0.00698972,-0.017808
0.00626451,-0.0150855
0.0385266,-0.0145394
0.056368,0.00592274
0.0321184,0.0246289
0.016893,0.0157272
-0.00585532,-0.00855607
-0.0324753,-0.0135604
-0.0305356,-0.000355942
-0.0130041,-0.0171261
-0.0188498,-0.0138842
0.0057245,0.0188763
0.0266311,0.0369709
0.00382437,0.00504108
-0.0319038,-0.00142929
-0.0438867,-0.0060676
-0.0458363,-0.0408723
-0.0530718,-0.0217287
-0.0386175,-0.00511571
-0.00121673,-0.00339942
0.03456,0.0416903
0.0387497,0.0569943
0.0237671,-0.0230542
0.0111887,-0.041718
0.0200494,-0.0125878
0.0184376,-0.00612361
-0.0118813,-0.00444512
-0.0376342,0.00932752
-0.0489697,0.025303
-0.0580104,0.0231928
-0.0468177,0.0105121
0.00368893,0.0124356
0.0209155,0.00223717
-0.0111107,-0.0233479
-0.0122638,-0.0257249
0.0375997,-0.0118909
0.0840654,0.00582882
0.134855,0.0172196
0.120205,0.0218908
0.0567523,0.0100278
0.00726926,-0.0108868
-0.0332826,-0.000543726
-0.0486313,-2.92e-05
-0.0713669,-0.0109799
-0.0616107,0.00204028
-0.0153165,0.000875769
0.0390426,-0.00799186
0.0235547,-0.00528032
-0.00564376,-0.0125347
-0.0175769,-0.00550383
-0.0401427,-0.0088626
-0.0572479,-0.00861981
-0.044245,0.00756325
-0.0212342,0.00999784
-0.0206002,0.000777611
-0.0189609,-0.00490349
-0.0250997,-0.0093484
-0.0274588,-0.0153758
-0.0099788,-0.0148028
0.0195369,0.00151912
0.035746,0.0014707
0.0699057,0.00365947
0.100276,0.0265986
0.1109,0.0415575
0.137382,0.0236449
0.133544,0.000387515
0.0713163,-0.0222924
-0.0486816,0.015018
-0.123317,0.0459021
-0.124468,-0.00553137
-0.127109,-0.0548155
-0.0968597,-0.0121235
-0.0481649,0.0407678
-0.0254106,0.0074938
-0.0267959,-0.0790445
-0.0279152,-0.0811198
-0.0256007,-0.00105151
0.00607003,0.00969465
0.0390706,0.0559549
0.0395698,0.0791932
0.000756574,0.0512694
-0.0255802,-0.0229755
-0.0211112,-0.0449858
-0.00771705,-0.0332524
-0.0201797,-0.0156247
0.00541649,0.00385152
0.0545229,0.00816435
0.0611025,-0.00280739
0.0627574,-4.4e-05
0.0410331,0.0216482
0.00911583,0.0286841
-0.021431,0.0196836
-0.0152956,-0.0140919
-0.00923002,-0.0502871
0.00116628,0.00722714
0.0166953,0.0223543
0.0102193,-0.0122938
-0.0246173,-0.00977219
-0.0201338,0.0271858
0.00395698,0.051562
0.0173246,0.0353657
0.0274502,-0.0491574
0.0338445,-0.050186
0.0243488,-0.00669786
-0.0165772,0.00487348
-0.00505999,-0.00204637
0.0366112,0.00147944
0.0240035,8.13e-05
-0.00399362,-0.00684766
0.0122167,-0.00606377
0.0254994,-0.00159543
0.0443461,-0.00740179
0.033263,-0.0330998
-0.00509291,-0.0354459
-0.0630684,-0.0146277
-0.0855134,0.0163902
-0.0921757,0.0209955
-0.129626,0.0339746
-0.121988,0.0325039
-0.0249693,0.0192513
0.020368,0.0169054
0.00505446,0.0128812
0.0172779,-0.0140625
0.010566,-0.00220546
0.0160366,0.0149767
0.0241079,0.00377427
0.0460974,0.00284399
0.0750214,-0.0175866
0.0784037,-0.0133382
0.0509889,-0.00361652
0.0255523,-0.0250418
0.0245337,-0.0123
0.0128348,0.00659827
-0.024682,-0.0161582
-0.0624403,-0.0252354
-0.043049,-0.00301555
-0.00734661,0.0111866
0.00874036,0.00822746
0.0221318,0.00365763
0.0389239,0.000923598
0.0292275,-0.00346625
0.00995177,0.00772995
0.00714601,0.00633024
0.00767033,0.000996569
0.00762901,-0.000811219
0.00417474,0.0182434
0.00700183,0.0538358
-0.0152153,0.0887144
-0.0278829,0.0369967
-0.0359254,-0.0846348
-0.0611199,-0.0493467
-0.0619853,-0.0108823
-0.00879895,-0.0768915
0.0193645,-0.0422228
0.00390773,0.0551517
-0.0010769,0.0519438
-0.00756605,-0.00916293
-0.0168894,-0.0440086
-0.0290285,-0.0292239
-0.0232092,-0.00722625
-0.0262434,0.00694483
-0.00800474,0.0286284
0.0158596,0.025125
0.00832657,-0.0287362
0.0255955,-0.0173346
0.0550016,-0.0018142
0.0251173,0.00763415
0.0140857,0.0261121
0.016448,0.022934
0.0189071,0.0091848
-0.00893581,0.00654439
-0.026402,0.00766467
0.0105706,-0.00522884
-0.00132204,-0.0117
-0.0450899,0.00237744
-0.0812765,-0.00923773
-0.0566111,-0.0179394
0.00438256,-0.013714
0.0821796,0.0048063
0.184685,0.0308314
0.252644,0.00989311
0.248243,-0.00803875
0.187332,-0.00686005
0.0560225,-0.000968962
-0.122254,0.0109315
-0.22845,0.0143089
-0.251314,0.0178648
-0.209286,0.00965949
-0.137899,-0.0194845
-0.0997492,0.00921731
-0.0332969,0.0114806
-0.00676615,-0.0221494
-0.0176257,-0.0268525
-0.0317384,-0.0128527
-0.0201371,-0.0045188
0.0111421,0.00557249
0.0415264,-0.0264729
0.0595014,-0.0254963
0.0669558,0.0222529
0.0442161,0.0265272
0.0249327,-0.0152668
0.00897017,-0.0350021
-0.000419942,-0.0161774
0.0344564,0.0306783
0.0587448,0.0410168
0.0489287,0.0237481
0.00686689,0.0207508
-0.00692647,-0.0120513
-0.00384979,-0.0126642
-0.0271516,-0.00847926
-0.047515,-0.0275805
-0.00703705,0.00743419
0.0668975,0.040803
0.0887084,0.0020932
0.0561816,-0.0250338
0.0224694,-0.0190989
-0.0250131,-0.0114783
-0.086346,0.00365935
-0.111715,0.0140463
-0.063793,-7.02e-05
-0.00397388,-0.0105659
0.0358518,0.00218971
0.0592803,0.00687573
0.0457506,-0.00293454
-0.0261778,0.00765948
-0.0718757,0.0021461
-0.0625915,0.00381452
-0.0123734,0.00264976
0.06764,0.0132294
0.0790363,0.0277423
0.0419104,0.00839548
0.0122648,0.0191181
-0.00564728,0.0034629
-0.00909176,-0.0378837
0.0111801,-0.0413538
0.022819,-0.0181077
-0.00401044,0.01349
-0.0743612,0.0068594
-0.103472,-0.000266811
-0.0245483,-0.00170861
0.00018525,-0.0223615
-0.00563724,-0.0457189
-0.035521,-0.0408594
-0.0253221,-0.0270751
-0.0675324,0.0198918
-0.0829183,0.088884
-0.0575874,0.116618
-0.0135302,0.0849287
0.0650952,-0.0282969
0.141759,-0.0775844
0.169546,-0.0645112
0.171283,-0.0627431
0.128004,-0.041029
0.0639047,0.0199546
0.0120899,0.0747563
-0.031665,0.0731051
-0.0621327,0.0288422
-0.0789926,-0.0579302
-0.0896565,-0.0597538
-0.106389,-0.0251754
-0.118743,-0.0202193
-0.0202571,-0.0283135
0.0939833,-0.0134357
0.142051,0.0131388
0.11554,0.00442278
0.0703133,0.0230308
-0.100587,0.0562047
-0.217187,-0.00163495
-0.207123,0.0393386
-0.142259,0.0845625
0.0464087,-0.000560514
0.218167,0.00515557
0.324438,-0.0194549
0.244908,-0.0107703
0.0413871,0.0114325
-0.117177,-0.0213885
-0.166474,-0.0495983
-0.149826,0.00904545
-0.0708192,0.0178639
-0.0316843,-0.107706
-0.110003,-0.0545274
-0.132024,0.0683304
-0.030101,0.0560049
0.0540837,0.00472876
0.0573431,-0.034199
0.0797776,-0.0146925
0.0693246,0.00728386
0.109464,0.0190992
0.0850001,0.0124855
-0.0330561,0.00317915
-0.0723591,0.01326
-0.0140836,0.00111359
-0.0245382,0.0778613
-0.00604587,0.0129839
0.0441735,-0.079075
0.0721494,-0.0426507
0.0986644,0.00434351
0.120275,-0.0082475
0.125762,-0.0207373
0.0501128,0.0116554
-0.0868712,0.0158897
-0.218134,0.0267248
-0.275911,-0.00770015
-0.210871,-0.0505339
-0.105399,-0.0239142
0.0396614,0.0171365
0.129695,-0.0135912
0.054902,-0.0178526
0.0112907,0.0169461
0.0621004,0.0461482
0.0569921,0.0351993
0.0545251,-0.0441372
0.0493485,-0.0788231
0.0209267,-0.0473933
-0.0722578,0.050883
-0.123319,0.0851997
-0.11395,0.0766989
-0.120688,0.0408615
-0.102768,0.000346628
-0.0229065,-0.0510046
0.100038,-0.0641093
0.207644,-0.0665344
0.206293,-0.0509151
0.110047,0.00917307
0.0605092,0.0118272
0.00518156,-0.0155915
-0.034671,0.00346281
-0.0308804,0.0339756
-0.0203504,0.0593644
-0.015581,0.0488439
-0.0134898,0.0145069
-0.0151111,0.0481083
0.0126859,0.0724782
0.0151694,-0.0169369
-0.0476129,-0.0694693
-0.0657843,-0.054984
0.0153089,0.0317224
0.103686,0.109906
0.102812,-0.0415133
-0.0101732,-0.118796
-0.112347,-0.0330755
-0.133851,0.00411815
-0.079155,0.00501083
-0.0528671,0.0617205
-0.0175724,0.178161
0.0845115,-0.0355575
0.143418,-0.087218
0.119197,-0.0556089
0.106929,-0.065086
0.0576363,-0.0431119
-0.0730438,0.0016299
-0.20401,0.0283387
-0.236779,0.00360695
-0.161749,-0.0600138
-0.050053,-0.0805314
0.0625714,-0.0130021
0.15052,0.057571
0.127191,0.0553597
0.0652078,0.0488552
0.0410535,0.0445707
-0.0317818,0.0178095
-0.0333081,-0.00977393
-0.039876,0.00538237
-0.033326,0.0367456
0.0434346,-0.0653607
0.0401622,-0.0485898
0.0379311,0.0412299
0.049979,0.0860343
0.0624023,0.0973406
0.0802486,-0.0169182
0.0507261,-0.0904948
-0.0082278,-0.05912
-0.0337875,-0.0438523
0.00537835,-0.0217886
0.0545638,0.00596406
-0.00605967,-0.00530476
-0.107878,-0.0166201
-0.129281,0.0173548
-0.138249,0.0149175
-0.0748491,0.0179032
0.00367699,0.0428037
0.0590596,-0.023661
0.143148,-0.06528
0.0808979,-0.0314057
-0.0733648,0.0338103
-0.0548938,0.0678874
-0.00292564,0.038151
-0.0691689,-0.0033068
-0.122804,-0.0527088
-0.0553323,-0.0237454
0.00730704,0.0230383
0.0361651,0.00213824
0.0022217,-0.0100827
0.0080203,0.00326686
0.0179973,0.0246378
0.0665107,0.0147436
0.0964377,-0.0567353
0.0703036,-0.0773483
-0.00156146,-0.0354219
-0.0247382,0.0890417
-0.00740762,0.0871843
0.0203797,-0.0349086
0.0660219,-0.0173268
0.0652545,0.0353801
0.00985151,0.062628
-0.0288547,0.0713837
-0.0469424,-0.0220576
-0.0453461,-0.125488
-0.0601807,-0.0592488
-0.0546241,0.0236265
-0.0356072,0.00145757
0.0077783,0.00453012
0.0497748,0.0478208
0.0330167,0.0942264
0.0296545,0.0326139
0.0322581,-0.030548
0.0140916,-0.0240751
0.00516792,0.00592279
0.0234779,0.0275764
0.0352947,0.0380066
0.0101568,-0.0196415
-0.0266586,-0.0573326
-0.0346086,-0.0435231
-0.0232589,-0.0477941
-0.0223513,-0.0430938
-0.0572559,-0.0452131
-0.101248,-0.123903
-0.0821,-0.0821703
-0.0295016,0.0734038
0.0202714,0.121816
0.0622839,0.0619793
0.0184598,0.0446797
-0.066426,0.0548585
-0.0300168,0.00845719
0.076222,-0.00986973
0.139454,0.0356569
0.140353,-0.00875981
0.0477672,-0.0118201
-0.0196109,-0.0251809
0.0062743,-0.0429176
0.0310693,-0.0636988
0.0143195,-0.00333385
-0.0139418,0.0243034
-0.0361376,-0.01205
-0.0252578,-0.031023
-0.0118129,-0.0144171
-0.0416259,-0.0107705
-0.0770811,0.0122418
-0.0551253,0.0469468
-0.0207056,0.0476136
0.00321577,0.0284894
0.00687469,-0.0305243
0.0225383,-0.0347056
0.0528547,-0.00833889
0.0516455,-0.00127681
0.0025091,0.0303366
-0.0184615,0.0637624
-0.014195,0.111094
-0.0161472,0.0843286
-0.0321475,-0.0448706
-0.0553126,-0.0820926
-0.0436594,-0.0447067
0.0385804,0.0041197
0.0713836,0.0202129
0.0528259,-0.0135143
0.0283786,-0.0302139
-0.0170429,-0.0228611
-0.0745371,-0.0220859
-0.0787476,-0.0014312
-0.00754608,-0.000170389
0.0517531,-0.00713051
0.0149822,-0.0191285
0.00953157,-0.0493469
0.0305254,-0.0220714
0.00963499,0.0294725
-0.00856071,0.0931302
0.0013982,0.14462
0.0210211,-0.00254125
-0.0111041,-0.125291
-0.0569455,-0.0459706
-0.0449545,-0.0380252
-0.0245534,-0.0489115
-0.0316411,-0.00708834
-0.0174803,-0.041432
0.00907393,-0.0421225
0.0176675,0.0128456
0.0383259,0.0518421
0.0525291,0.0222712
0.0400236,0.0251179
0.020104,0.0454504
0.018044,0.0189017
0.0132271,-0.0393429
0.0225175,-0.0258099
0.0549226,0.0199687
0.0554655,0.0283504
0.026043,0.0240183
0.014969,0.0187527
0.0143267,0.0305521
0.00226522,0.0238093
-0.0101596,0.019467
-0.063018,0.00224424
-0.119357,0.0075635
-0.109087,-0.0190127
-0.0519711,-0.026358
-0.0147182,0.0175387
-0.00708233,-0.0174253
0.0253758,-0.0291585
0.0442077,-0.0484796
-0.00134559,-0.0248224
-0.0258656,0.00826033
-0.0221942,0.00559462
0.0427182,0.0152439
0.0754497,0.0290201
0.0306972,-0.0115425
0.00989479,-0.0557836
0.00581029,-0.029319
0.0184379,0.00135002
-0.015297,0.0508765
-0.0809857,0.153841
-0.0777467,0.0788484
-0.0431531,-0.0208169
-0.0297063,-0.101622
0.0151783,-0.140813
0.0685746,-0.0388332
0.0627821,0.020993
0.0295705,0.0236908
0.0113357,0.00415113
-0.0137033,0.0090613
0.0305973,0.0174407
0.0770039,0.0169422
0.0826981,0.00528234
0.0599942,0.00446789
-0.0457289,0.0284246
-0.189197,0.0266199
-0.18519,-0.0137943
-0.0934616,-0.0310341
0.0347884,-0.0207151
0.15602,0.000213815
0.135933,-0.0264888
0.0520543,-0.00415875
0.0282545,0.0223914
-0.00687497,0.00691586
-0.0520984,0.00468117
-0.00923054,0.0231255
0.022137,-0.000345034
0.00375843,-0.0286245
-0.0320742,0.000343724
-0.0822959,0.0267479
-0.0811958,-0.00602692
-0.0238272,-0.0522995
0.0329327,-0.0716288
0.0298603,-0.0535311
0.0569182,0.0132672
0.138832,0.108008
0.127976,0.0967538
0.0362969,0.00488007
-0.00806814,-0.0389444
-0.0201175,-0.0358877
-0.0536367,-0.00955574
-0.0861593,0.0158596
-0.0855205,0.0387272
-0.0363517,0.0440202
-0.013206,-0.0527773
-0.0894762,-0.0422167
-0.096772,0.000689186
-0.0503531,0.012935
-0.0599357,-0.0393874
-0.0440738,-0.0252559
0.000660368,0.042062
0.0779,0.061968
0.0693238,0.0405326
0.0306184,-0.0289651
0.0475307,-0.0367631
0.0900377,-0.00309061
0.0431976,0.0275203
-0.00222281,0.0185259
0.00586791,-0.00211218
0.0340986,0.0167594
0.0370849,0.0242429
-0.028364,0.0494114
-0.100881,0.0220214
-0.0747087,-0.0212232
0.0498128,-0.044433
0.0954061,-0.0661497
0.0501514,-0.0741991
-0.0265587,-0.0674529
0.00219179,-0.0287986
0.00504779,0.0978581
-0.00539101,0.0600238
0.0291949,-0.024567
0.0326323,-0.0277287
0.0541559,-0.0241578
0.0800025,-0.0186712
0.0268592,0.0103327
-0.103425,0.0388418
-0.142957,0.0317414
-0.113307,0.00497899
-0.0822949,-0.087542
0.0129689,-0.105151
0.0327652,0.047482
0.0200659,0.0595974
0.0359517,-0.00604122
0.0303452,0.0609384
0.068667,0.117968
0.118464,0.0549872
0.0330049,-0.000922311
-0.104118,-0.00256719
-0.171341,-0.0110878
-0.232775,-0.0558909
-0.189323,-0.0845623
-0.028255,-0.0344938
0.144717,0.0653235
0.320083,0.071863
0.301398,-0.00633301
0.08536,0.0347603
-0.0770736,0.0738736
-0.0996008,0.00267352
-0.0485887,-0.0833751
-0.0384839,-0.0981326
-0.148402,-0.0654708
-0.21709,-0.00185815
-0.161835,0.0262875
0.0423821,-0.0263286
0.214036,-0.0851089
0.154103,-0.0311034
0.0818706,0.0452909
0.0694554,0.0365256
0.0755384,-0.00292802
0.0360371,-0.00737205
-0.0124411,0.0100174
0.00562572,0.0143025
0.0117422,0.0171315
0.0496127,0.0142926
0.0372748,0.00173233
-0.0153866,-0.016003
-0.00419606,-0.00126923
0.0202445,0.0313748
0.0377511,0.0409633
0.0348202,-0.00926385
0.0240725,-0.0266417
-0.01247,0.0016939
-0.11018,0.0105796
-0.162648,0.0074955
-0.168274,0.0193543
-0.115419,0.0245383
-0.055346,0.00819362
-0.00555023,0.0112178
0.017754,0.0153973
0.00536385,-0.01968
-0.0096851,-0.0336366
-0.0550932,-0.0293094
-0.0407454,-0.0240172
0.0191553,0.0065847
0.0757327,0.0195772
0.125272,0.0698722
0.130795,0.0151148
0.099002,-0.0326265
0.0529813,-0.0216807
0.0156158,-0.0272589
-0.0035133,-0.0293682
0.0171521,-0.0160661
-0.050833,0.00677804
-0.10731,0.00869913
-0.08706,0.0121127
-0.0521368,-0.0118313
-0.0186936,-0.00389082
0.0379507,-0.030294
0.0730652,0.0351779
0.0698535,0.0381542
0.0370477,0.00504003
-0.00386685,0.0167573
-0.0237345,-0.00952287
-0.106228,-0.0064775
-0.12017,0.0498374
-0.030564,0.0826994
-0.00178864,-0.0272001
-0.0022554,-0.113355
-0.000749587,-0.0418165
0.0505402,0.00540217
0.0565981,-0.0241003
0.0532848,-0.0139288
0.0452284,0.00890753
0.0449512,-0.0103145
0.0707688,-0.0239685
-0.000837953,-0.0202252
-0.10086,0.0202149
-0.0680526,0.0624559
-0.0711851,0.124161
-0.0691603,0.152838
-0.0220437,0.00575188
0.0460823,-0.102919
0.129908,-0.104204
0.1123,-0.0734609
0.0303205,-0.0119361
-0.0133963,0.0523852
0.0465234,0.0489423
0.0852702,0.00598636
-0.0232066,-0.0266432
-0.149887,-0.0526697
-0.118835,-0.131836
-0.0472132,-0.163941
0.0109519,-0.0451294
0.0176543,0.109874
-0.0153848,0.168014
-0.0872888,0.0855504
-0.142453,0.044587
-0.0619333,0.0586685
0.0496243,0.034308
0.15852,-0.0267742
0.135812,-0.027465
0.0224502,-0.0210879
0.0437982,-0.00968357
0.0717677,0.0261001
0.0851626,0.0129138
0.0162726,-0.0734045
-0.0346201,-0.0446095
-0.0233971,0.0151232
-0.012467,-0.00972743
-0.023629,-0.014085
0.0147538,-0.000890733
0.0888498,-0.0445343
0.0826869,-0.109427
0.00648006,-0.0588125
-0.0573494,0.0219525
-0.0890195,0.0799166
-0.0481655,0.0507975
-0.00915561,-0.006135
-0.0750139,0.0278259
-0.180324,0.0736214
-0.164568,0.0622812
-0.0828511,0.0118058
0.00189563,-0.0390184
0.0710415,-0.0023027
0.0949226,0.0212391
0.179921,-0.0165823
0.184266,-0.0356224
0.0726589,-0.0411724
-0.0149771,-0.0210855
-0.0753101,0.0162769
-0.080028,0.00855184
-0.0442678,0.0257761
-0.0268869,-0.00725158
0.0332986,-0.0366644
0.0140803,0.048698
-0.0520225,0.0723326
-0.0480452,0.0274518
-0.00362204,0.00590685
0.0552165,-0.0249085
0.0364356,-0.0146124
0.0191791,-0.00102903
0.0241526,-0.0137567
-0.047417,-0.0171709
-0.0667063,-0.0228701
0.00754212,-0.0318113
0.00572998,-0.0118567
-0.0237549,-0.0123086
-0.0132272,0.0048516
-0.0124265,0.0256088
0.00874294,0.00230877
0.0240762,-0.0244042
0.0282819,-0.0128774
0.0568112,0.011291
0.0773417,0.0266473
0.0325046,-0.00267722
-0.0204495,-0.0182743
-0.030417,0.0123284
-0.00533673,0.00037244
-0.0286088,-0.00253161
-0.0614992,0.0436151
-0.0178409,0.0291639
0.0329406,-0.0221892
0.0234349,-0.030566
-0.071068,-0.00399552
-0.125521,-0.0123667
-0.10797,-0.0060427
0.00419536,-0.0775986
0.124583,-0.0919843
0.107005,0.0287721
0.0759417,0.140948
0.0890021,0.102215
0.0585846,0.0328812
-0.0331711,0.0319607
-0.0689103,-0.0583626
-0.0335914,-0.0768032
-0.0263502,-0.0291028
0.010376,0.0216043
0.0739301,0.0240991
0.072855,0.00315503
0.0504746,0.0223253
0.00368122,0.0101154
-0.022675,-0.0460359
-0.0349753,-0.0773067
-0.0797838,-0.0386688
-0.0598415,-0.00550374
-0.0204264,0.0109405
0.000111347,0.057561
0.0140898,0.0621237
0.0188799,0.0157421
0.0289308,-0.0223523
0.0328441,-0.0126324
0.00906914,0.00485106
-5.15e-05,-0.0248681
0.022111,-0.00845856
0.00557298,0.00677082
-0.051799,-0.00597895
-0.100555,-0.00905196
-0.0892569,-0.00895983
-0.0648113,0.000995682
-0.0452406,-0.011919
0.00527661,-0.00290784
0.0722796,0.0215446
0.0899981,-0.00706346
0.0728577,0.0066363
0.0326397,0.0277031
0.0273601,-0.0101153
0.0382487,-0.0204281
-0.00240249,-0.00320799
-0.0878272,0.0435643
-0.102274,0.0265853
-0.063127,-0.0206873
0.0124796,0.0106158
0.0877255,0.00238956
0.0628108,-0.0387588
0.00879819,-0.0296735
-0.0426938,-0.00831989
-0.0587362,0.00110537
-0.0434383,0.0232335
0.0110992,0.0286958
0.0736121,0.0282976
0.0614749,0.0448468
0.0192926,0.0168597
-0.0186536,-0.00997655
-0.0262538,-0.00369129
-0.0165112,-0.0271466
-0.0448162,-0.0556847
-0.0754239,-0.0432976
-0.0281388,0.00781666
0.0221272,0.0793006
0.0421085,0.0231837
0.0485723,-0.0564929
0.0403908,-0.0414971
0.0399101,-0.024662
0.0207178,-0.00981903
-0.0135601,0.0347892
-0.0309375,0.0472537
0.0132909,0.0224396
0.0443905,0.0337814
0.0326985,-0.0256375
-0.00605211,-0.0652559
-0.0235258,-0.0201987
-0.0645945,0.0635896
-0.0805595,0.000580548
-0.0515517,-0.0497908
-0.0152791,0.0106581
-0.00172412,0.035742
0.0181606,0.0220809
0.0550436,0.00333624
0.0478002,-0.0188525
0.0307347,-0.0396422
0.0418218,-0.0388736
0.0492598,-0.0267597
0.00859181,-0.017368
0.00238989,0.0449814
0.0204606,0.0453475
0.0044309,-0.0292511
-0.0119444,-0.0134935
-0.018261,0.0322417
-0.0195633,0.0319356
-0.00635097,0.0111065
-0.0284475,0.00061641
-0.0224749,-0.00401307
0.00390124,-0.0406591
-0.0251017,-0.0134629
-0.0213661,-0.0185798
-0.0174403,-0.00765248
-0.0087212,0.0236608
-0.0675495,0.0482395
-0.0671863,0.0535235
-0.0142259,0.0032448
-0.00503467,-0.0107951
-0.0358974,-0.00336708
-0.0225772,-0.0205973
0.0277435,-0.0123862
0.0993357,-0.0204177
0.127709,-0.0329984
0.0895179,-0.0249823
0.0372355,-0.00478077
-0.00359838,0.030179
-0.01565,0.0281486
-0.0209293,-0.0262878
-0.0384046,-0.0388076
-0.0582268,-0.0120642
-0.0594313,0.0407466
0.000742429,0.0274897
0.0146657,-0.013028
-0.014478,-0.00221316
-0.0133729,0.0108865
-0.00408606,0.0410079
0.00975942,0.0319641
0.0321974,-0.00507474
0.031714,-0.00902844
-0.00254231,-0.00608725
0.0299142,0.0106101
0.0592856,0.0190179
0.0279891,0.0121369
0.00779,0.0180778
0.00590463,-0.0181318
0.000344951,-0.0273861
-0.00371751,-0.0311203
0.00295129,-0.031842
0.00198561,-0.0302151
-0.00320821,-0.0218682
0.00700733,-0.0107786
-0.0149035,0.00577749
-0.0564384,-0.00158581
-0.0646983,-0.0357753
-0.0531496,-0.016049
-0.0154549,0.0211662
0.0227605,0.0216745
-0.000776671,0.0219788
-0.00649739,0.0116739
-0.00389683,-0.00722581
-0.0205718,0.0193898
-0.0517344,0.0711893
-0.00737046,0.0246314
0.0295131,-0.0132946
0.0206735,0.0138275
0.00687774,-3.92e-05
0.000269618,-0.0330356
-0.0131862,-0.00453099
-0.00485594,0.0129716
0.0174835,-0.0298809
-0.0268718,-0.0223817
-0.0538412,0.00158969
0.00371228,-0.00597409
0.0595691,-0.00375035
0.131972,0.00654479
0.128984,0.00683832
0.107919,0.00193924
0.0339018,0.0055436
-0.0516051,-0.00361035
-0.0707066,-0.0135409
-0.0637632,-0.00854324
-0.0567463,-9.39e-05
-0.0326113,0.0260561
0.0157125,0.0652656
0.0444971,0.022425
-0.00235294,-0.033587
-0.0133776,-0.0511442
0.0179908,-0.0278025
-0.0236771,0.00290846
-0.0958956,0.00509785
-0.0877802,-0.00795708
-0.0400313,-0.00667782
-0.000539823,-0.00424419
0.0254912,-0.0090137
0.0721442,-0.0116979
0.109289,-0.00915655
0.0341835,-0.00373115
-0.0352784,0.0188493
-0.0372137,0.0309918
-0.00543746,0.0143223
0.0158603,-0.00240131
-0.00022947,0.0127109
-0.0149135,-0.0102453
-0.0121389,0.00914928
-0.00996372,0.0224957
-0.0236824,0.0606325
0.00350033,0.052985
0.047193,0.018136
0.0252283,-0.0284735
-0.00973072,-0.0170284
0.00292383,-0.0119648
0.0262256,-0.0423858
0.0180219,-0.0476602
0.000461194,-0.0248372
-0.019059,-0.013346
-0.0387663,-0.0279584
-0.0670796,-0.0243687
-0.0533349,-0.00589278
-0.0141781,-0.00837295
0.00622523,0.0131271
-0.0116172,0.039485
-0.00276196,0.0118023
0.045966,-0.0135198
0.0631574,-0.003917
0.0141021,0.0139681
-0.0258049,0.0202773
-0.0396551,-0.00679327
-0.0297046,-0.00899849
0.0269409,-0.0060702
0.0357401,0.0257498
0.0201078,0.0527043
0.0160165,-0.0263659
0.0137769,-0.0247099
0.0379527,0.00492434
0.0560749,-0.0117933
0.0642459,-0.0319169
0.0559711,-0.0138905
0.0237761,0.015851
-0.0457831,0.0194156
-0.113585,0.0118993
-0.113908,0.0266729
-0.0387567,0.00873191
0.00335739,-0.0178885
0.0202894,0.00857431
0.00930587,0.0225659
0.0170363,-0.00436641
0.0248387,-0.0120832
0.0219859,-0.007867
-0.00166379,-0.00416991
0.0366692,0.0124702
0.0342028,0.0149938
-0.0160851,-0.00346391
-0.0232967,-0.0151885
-0.00194782,-0.0459342
-0.0401807,-0.0489604
-0.0760876,-0.013226
-0.0794199,0.0317649
-0.0495944,0.0286666
0.000710354,0.0176367
0.0514608,0.0135742
0.0511486,0.00533403
0.0351805,-0.0122811
0.00161054,-0.0307502
-0.0143066,-0.0164644
-0.00660391,0.00511728
0.0654857,0.00253383
0.0924705,0.0423175
0.0996476,0.0467355
0.0867479,0.00437454
-0.0170769,0.0111222
-0.146998,0.00182583
-0.168019,-0.0169955
-0.0866694,-0.0234145
-0.0516915,0.0184448
-0.00752525,0.0416299
0.0227059,0.0146036
0.061597,0.0193966
0.13819,0.0102312
0.163512,-0.0222531
0.102394,-0.0434524
0.0325304,-0.0373773
-0.0676166,-0.0119299
-0.130849,0.00315832
-0.12645,-0.0110734
-0.115768,-0.0464649
-0.125293,-0.0332935
-0.0780302,0.00488363
0.0613081,-0.00715882
0.201833,-0.0286573
0.239188,-0.0302489
0.163224,0.000457377
0.0224787,0.0363666
-0.10464,0.0356781
-0.169145,0.0220398
-0.154976,0.0205702
-0.069668,0.0132572
0.0279818,0.0060386
0.0689885,0.0271184
0.0696998,0.0261334
0.060632,0.00463957
0.00304804,-0.0171563
-0.0517925,-0.031462
-0.0648908,-0.0158775
-0.0437117,0.0076827
-0.0541443,0.00216322
-0.0748692,-0.0207962
-0.0481998,-0.017029
7.12e-05,0.0383534
0.0266085,0.0443527
0.0156251,-0.0306916
0.0461784,-0.0845716
0.0679743,-0.076601
-0.00537457,0.019009
-0.0716364,0.195558
-0.0708863,0.0789044
-0.0384217,-0.0773109
0.0326709,-0.0241564
0.109669,0.0040252
0.112588,-0.0304778
0.0933213,-0.0418207
0.0866535,0.00909689
0.00216143,0.0337737
-0.0393737,-0.00528148
0.00998268,-0.016662
0.0530353,0.00227216
0.0567669,0.0188519
0.0515441,0.0371905
0.000846479,0.00954021
-0.0560151,-0.0169736
-0.0894318,-0.0150145
-0.130979,-0.00123675
-0.17531,-0.00444091
-0.0445166,-0.0298259
0.0583017,-0.0424311
0.0133157,-0.00687415
-0.00137398,0.0234352
0.0537056,0.0111134
0.0528596,-0.00381446
0.00747947,-0.0349132
0.00696884,-0.0336136
0.0169822,0.00490923
0.0167478,0.00928024
-0.026657,-8.69e-05
-0.059249,0.0237561
-0.0426999,0.0419005
0.0122182,0.034857
0.0524663,-0.00313274
0.0158671,-0.0317551
-0.0331302,-0.0169482
-0.00804569,0.0293052
0.0823905,0.0563748
0.0813746,0.0395733
0.00509554,-0.00942772
-0.0102049,-0.0147017
0.0253142,0.00373837
0.021305,-0.0577816
-0.00520838,-0.0649403
0.011165,-0.025239
-0.0148858,0.0389026
-0.0300875,0.0388748
0.00674733,0.00887015
-0.050357,0.0195117
-0.119048,-0.012505
-0.110158,-0.0250681
-0.0455915,-0.0230378
0.0687812,-0.00239638
0.155385,0.0190476
0.136777,-0.00213044
0.0693572,-0.00054213
0.0261967,0.0225331
-0.000273467,0.0223223
-0.019284,-0.00302348
-0.0646244,-0.0547683
-0.0454718,-0.0183305
-0.031095,0.0527796
-0.0650142,-0.00922975
-0.0942391,-0.0118447
-0.104385,0.00762413
-0.0475727,-0.00164812
-0.00386,-0.0169677
0.0246229,-0.0129415
0.0292978,0.00399678
0.0477634,0.0131193
0.0738753,0.0148237
0.0834383,-0.00885609
0.115865,-0.00604884
0.124082,0.00383611
0.0676863,0.017143
-0.0240302,0.01797
-0.119807,-0.018673
-0.170961,-0.0392793
-0.186548,0.00200749
-0.174807,0.00558208
-0.052681,-0.00978553
0.0878284,0.0186494
0.0852584,0.0265084
0.0710176,0.0348836
0.0950791,0.0205842
0.0786535,-0.0145266
0.0177916,0.00951138
-0.00347231,0.0263238
-0.0396148,0.0162792
-0.0383662,-0.0185248
-0.0218486,-0.0218946
-0.0662472,-0.0617151
-0.106479,-0.0384104
-0.105083,0.0103346
0.00410103,0.00562386
0.115715,-0.0131901
0.150197,-0.00574488
0.103132,0.0164384
0.0416953,0.00720493
0.0206734,-0.0180598
0.053463,-0.00221702
0.04665,0.00476175
-0.0308529,-0.004105
-0.0439934,-0.00979012
-0.0347505,0.00855573
-0.0694399,0.0659013
-0.0534761,0.0307611
-0.00971705,-0.0209871
-0.00397196,-0.0221962
-0.015143,-0.0108296
0.0209266,0.0168406
0.12714,-0.00487015
0.134087,-0.0158204
0.0505386,0.0227425
0.0202686,0.00501567
-0.0354823,-0.0200403
-0.0740042,-0.030976
-0.0599048,-0.0283603
-0.0252451,-0.00522485
-0.0115264,0.00904749
-0.00583623,0.0156863
-0.0302974,0.00543882
-0.0910389,-0.0111674
-0.109094,-0.0123353
-0.0781216,0.0135521
-0.0100719,0.0431625
0.0613388,0.0149639
0.0763602,-0.00503834
0.0733342,0.0138614
0.038409,0.0261158
-0.00477518,-0.00504004
-0.0216131,-0.0159858
-0.045465,0.0729083
-0.00968664,0.0720882
0.0555632,-0.0649321
0.0699194,-0.0746407
0.0580479,-0.0137907
0.0616546,0.00172561
0.0669237,-0.0178371
0.038546,-0.0291753
-0.017937,-0.00061237
-0.0615616,0.021214
-0.0979969,-0.000545383
-0.102749,-0.0503254
-0.0276256,-0.0428607
0.0191216,0.0154171
-0.00987741,0.0301682
-0.0266682,0.0312229
-0.0425572,0.0376936
-0.0529492,-0.0133276
-0.0330025,-0.0377362
-0.0456443,-0.0301306
-0.0709061,-0.00725534
-0.0323881,0.0211736
0.0188842,0.0158723
-0.0294464,-4.32e-05
-0.00756441,-0.0226121
0.129925,-0.0475368
0.234195,0.00793919
0.205411,0.0952596
0.0739219,0.0601413
-0.0435494,-0.00615006
-0.0264623,-0.0186426
-0.051909,-0.011056
-0.0851427,-0.0152961
-0.0767157,-0.0370251
-0.0482283,-0.0496903
-0.0130413,-0.0197271
0.00345317,0.0174853
-0.00959278,0.0301929
-0.0307425,0.0350366
-0.0388233,0.0270192
-0.0217331,0.0093851
0.00298417,0.00291681
0.058154,0.0123186
0.122602,-0.0011133
0.12907,-0.0147007
0.105176,0.00471278
0.0921316,-0.0173082
0.0114655,-0.0197591
-0.0918619,0.0329686
-0.110923,0.0349154
-0.0512261,0.0033511
-0.0190524,-0.049035
0.0122425,-0.0639299
0.0465261,-0.027048
0.00851934,0.00871025
-0.03572,0.0415241
-0.0523683,0.0609282
-0.066659,0.0639276
-0.0669725,0.032391
-0.0306566,-0.0212464
-0.0180257,-0.0278351
-0.0138943,-0.0377251
-0.0175085,-0.0128023
-0.0128146,0.0309598
-0.0100259,-0.0028953
-0.0206351,-0.0282429
-0.0318274,-0.0260349
-0.0494479,-0.0353075
-0.0662842,-0.0441847
0.00387498,-0.0315383
0.0810676,-0.0123729
0.0607492,0.0188368
0.0575859,0.0263474
0.0826793,0.0148896
0.0546965,0.0298755
0.00233934,0.0318312
-0.00807707,0.00477247
-0.0282414,-0.0127188
-0.0426116,-0.00193262
-0.00352486,0.0159971
0.0324155,-0.00193272
0.0512517,-0.0202857
0.0693117,-0.0154968
0.0689099,-0.00974133
0.0238306,-0.0197412
-0.0646722,-0.010123
-0.104154,0.0462613
-0.0388082,0.0697621
0.00310323,-0.0158446
0.0099092,-0.0294551
-0.00984152,-0.011996
-0.0148027,0.0205714
0.0146652,0.00707703
0.0291651,-0.0250364
0.016156,-0.0126788
0.0216697,0.0137387
0.0310694,0.0223852
0.0238132,0.0356261
0.017081,0.0308832
0.0168739,0.00870258
0.00615999,-0.0120739
-0.0182357,-0.0213858
-0.0143978,-0.024844
-0.0127729,-0.0205885
-0.0209771,-0.00556619
0.00593331,-0.00228615
0.0368645,-0.013606
-0.0149872,-0.0293587
-0.113438,0.00182497
-0.121357,0.0613926
-0.0654052,0.0276438
0.00999095,-0.0409007
0.0522562,-0.0465291
0.0611696,-0.0745473
0.0556172,-0.0556041
0.0243746,0.015243
-0.00994908,0.047196
-0.0232491,0.0598954
-0.047905,0.0236491
-0.0311981,-0.00723457
0.0338608,0.0135771
0.0778571,0.0754031
0.073978,0.0391566
0.0255957,-0.0308347
-0.0144063,0.0147981
-0.0114749,0.0193872
0.0014866,0.0203245
-0.0362846,0.0507033
-0.0861461,-0.0527513
-0.0670431,-0.085354
-0.000343922,-0.0127622
0.0194414,-0.00388756
0.0111353,-0.0272905
-0.00764069,-0.029734
0.00537745,-0.0222063
0.0126774,-0.000156211
0.039176,0.0105774
0.103484,0.00365519
0.101473,0.01296
0.00710804,0.0100832
-0.0244145,0.00497954
0.0154578,0.00834973
0.0483358,0.00611492
0.0150141,0.00862925
-0.0906148,-0.00807003
-0.0758315,-0.0117003
-0.0562943,-0.0197415
-0.0629138,-0.0225332
-0.00774984,-0.0337944
0.0149049,-0.0256575
0.0103108,0.0194403
-0.00459346,0.0313882
-0.0303826,0.00210327
-0.0688797,-0.00820672
-0.033975,-0.00422458
0.0339339,0.0409375
0.0433191,0.09672
0.0123897,0.0285669
-0.0122864,-0.0206142
-0.0133733,-0.0154314
-0.0403537,-0.0544288
-0.0121097,-0.0697149
0.0507611,-0.026334
0.0522262,0.0257482
0.0349359,0.0440043
0.0309813,0.0228572
0.0105532,0.00634169
0.0137968,0.0187875
0.0144534,0.0189619
-0.000561567,0.00433145
-0.02801,-0.000160275
-0.0346885,0.00957666
-0.014706,-0.00747846
0.0118928,-0.0268422
0.0159132,0.00663621
0.0192894,0.0406341
0.0133232,-0.00258531
-0.019783,-0.0544113
-0.0290609,-0.0331502
-0.0209632,-0.00533701
-0.0295746,0.00725767
-0.020209,-0.00630131
0.0128441,0.00914145
0.0169193,0.0227645
0.0478105,0.0045241
0.0574955,0.0227611
0.0464911,0.0172808
0.0309721,-0.0219716
0.0582739,-0.0594371
0.0609906,-0.039024
-0.00236063,0.0192835
-0.069429,0.0209106
-0.0736389,-0.00129706
-0.041232,-0.0160344
-0.048483,-0.00659415
-0.0611879,0.0137658
0.0206166,0.0160668
0.0573562,0.0230088
0.0289791,0.00466662
-0.0105805,-0.0114493
-0.0594726,0.0150778
-0.0600743,0.0159666
-0.0451316,-0.00893446
-0.0285644,0.00282884
-0.0308178,0.0148321
-0.00733487,0.0144241
0.00624849,0.00674879
0.0399879,-0.0300149
0.0860588,-0.0188317
0.0697255,-0.0114606
-0.0041704,0.00358987
-0.0495714,-0.00988356
0.0268063,-0.0339348
0.059469,-0.00278387
0.0340496,0.0308902
0.0543736,0.0343442
0.0385512,0.027867
-0.00549443,0.0116799
-0.0348339,-0.000428742
-0.0377278,-0.0181276
-0.0549614,-0.0205317
-0.0784102,-0.0221054
-0.0707566,-0.00084595
-0.0132085,0.04197
0.043415,0.0194112
0.0404601,-0.0473837
-0.0218638,-0.0303923
-0.0554931,0.00795649
-0.0148153,-0.00660674
0.0419781,-0.00610128
0.0523229,0.022867
0.00794032,0.0327753
0.000255598,0.00401779
0.0205547,-0.00873515
0.0432086,-0.033791
0.0453574,-0.0257413
0.0255059,-0.000453812
0.00673041,-0.00854751
-0.0147371,-0.0231863
-0.0130715,-0.0210575
-0.0287726,-0.00350743
-0.0512249,0.0097591
-0.0724507,0.0251093
-0.0497761,0.0231492
0.023409,-0.0114136
0.0678772,-0.00250155
0.0298679,0.0906979
-0.0306013,0.0717879
-0.0376037,-0.0400406
0.000720476,-0.0606535
0.0189329,0.000109039
-0.00525093,-0.00169154
-0.0149823,-0.0359786
-0.0165878,-0.045556
0.00325305,-0.0283614
0.0390743,0.025432
0.0601806,0.0429602
0.0681556,0.0248867
0.0389073,-0.000212923
-0.001466,-0.0174335
-0.028968,-0.00603563
-0.0408209,0.0169499
-0.0187566,0.0389729
-0.00230955,0.0278438
-0.0213922,0.00235723
-0.043606,0.0175935
0.00160583,0.0303416
0.00997318,-0.0328196
-0.0268106,-0.0499192
0.00206515,-0.0207997
0.0335853,0.00106036
0.0269249,0.00502783
0.0428323,0.0164064
0.0453725,0.0252319
0.0134218,0.000545901
-0.00131809,-8.44e-05
-0.0132721,-0.0104029
-0.0528641,-0.0569536
-0.0900407,-0.0424871
-0.0640951,-0.0131225
-0.0342256,0.0018786
-0.0244742,0.0238728
-0.0192775,0.0395742
-0.00227931,0.0247799
0.0969028,-0.00155928
0.0917801,-0.00772042
-0.00658289,0.00296614
-0.0278951,-0.00397845
-0.00736107,0.0150447
0.00710688,0.0316618
0.00962427,-0.00428998
0.0243869,-0.033946
0.0388171,-0.0258594
0.0189319,-0.00344159
-0.0186421,-0.00573815
-0.0247118,-0.000407489
-0.00346842,0.000272387
0.0240519,-0.00299657
0.0372625,-0.00229408
-0.000631731,-0.000258686
-0.0511811,-6.13e-05
-0.0539844,0.00288649
-0.0383449,-0.000889786
-0.0125066,-0.0122161
0.00733169,-0.00309936
0.0470007,0.0207717
0.0829986,0.0123671
0.0529151,0.0287249
0.00133643,0.0694063
0.0276928,0.000256808
0.0127202,-0.0610325
-0.0495819,-0.036244
-0.0742849,-0.0109427
-0.0405858,-0.00470059
-0.00440066,0.007341
0.0096629,0.0256558
0.0138169,0.0355615
-0.00957242,-0.00710613
-0.0348716,-0.0239612
-0.01652,0.000252628
0.0119377,0.00782773
0.00646547,-0.00436126
-0.0227744,-0.0231537
-0.0489221,-0.0267821
-0.0302713,-0.0131544
0.0268135,-0.0149111
0.0494926,-0.0117478
0.0404466,0.00871388
0.0215201,0.0223641
-0.00911408,0.0157366
0.00767289,0.0138282
0.0178778,-0.00917548
-0.0296004,-0.0105686
-0.0700595,0.00454258
-0.0146757,-0.00214315
0.0314894,-0.0232567
0.0454815,-0.0321215
0.0260532,-0.00368194
0.00646815,0.0211682
0.00255817,0.0146503
-0.00532505,0.0281016
-0.012182,0.0402453
-0.010698,0.0251931
-0.00887516,0.00128075
-0.0019408,-0.0160304
0.0174211,-0.012358
0.0287821,-0.00840373
0.0238048,-0.0183074
-0.0416964,-0.0249637
-0.040288,-0.00620908
0.0171813,0.0479686
0.0392322,0.0573323
0.0274878,0.0244198
0.0205211,0.000619855
0.0138002,-0.0371243
0.0219635,-0.0301557
-0.00261551,-0.00343301
-0.0446978,-0.0179806
-0.0601323,0.00249851
-0.0315609,0.0159826
-0.0408926,-0.00443476
-0.0540989,-0.0049823
-0.026936,-0.00199248
0.00609194,0.00644801
0.0174402,0.0344227
0.0187303,0.022505
-0.00115108,-0.0354308
-0.019659,-0.0302863
0.0236017,0.00326172
0.0531755,0.0221255
0.0620432,0.0176077
0.077878,-0.00277695
0.0558214,-0.019304
0.0102229,-0.0328291
-0.0132951,-0.0266703
-0.020518,-0.0104649
0.0235201,-0.00506747
0.0119745,-0.00321694
-0.0525805,0.00361574
-0.0636861,0.0112421
-0.0199821,-0.00844386
-0.0106118,-0.0139552
-0.0310052,-0.0077788
-0.00960459,-0.00604227
0.0247068,-0.0133673
0.0179669,-0.0175284
-0.00543142,0.0111131
-0.0494526,0.0262278
-0.0738626,0.0268563
-0.0436459,0.0407977
-0.0257023,0.036844
0.0235599,-0.016779
0.0715137,-0.0306627
0.0769329,-0.0224579
0.104676,-0.00766532
0.124628,0.014803
0.0666868,0.0115867
-0.0255518,0.00319793
-0.0523729,0.0255722
-0.0344161,0.0293529
-0.0382867,0.00198929
-0.036785,-0.0161494
-0.0177258,-0.0188289
-0.00308635,-0.0055503
-0.00118364,0.0100009
-0.0147316,-0.000711069
-0.0483732,-0.00585373
-0.0440411,0.0133422
-0.0399909,0.01525
-0.0290917,0.00174604
-0.0420962,0.00518984
-0.0405028,0.017432
0.00782714,0.0467351
0.0266934,-0.00163663
0.0480482,-0.0380759
0.0701713,-0.0219825
0.0543691,-0.036875
0.00810225,-0.0304285
-0.0397573,-0.0188022
-0.066574,-0.00786222
-0.0568498,0.0200617
-0.0264913,-0.00560776
0.0141911,-0.0111177
0.0422224,-0.00162963
-0.00226397,-0.00146094
0.00385785,0.00857837
0.052111,0.00927261
0.0471189,-0.0064335
0.0180086,-0.0164806
0.0261602,0.00755567
0.0321383,0.0212654
0.0119575,0.0169893
-0.000251561,0.0125992
-0.00307019,-0.00038969
0.0112823,-0.00351652
0.0366717,-0.0115137
0.0069635,-0.00141721
-0.0339653,0.00917841
-0.0173939,0.00497271
-0.0360519,-0.0104221
-0.0373366,-0.0131841
-0.00875395,-0.00180128
-0.00634955,0.0140184
-0.00919042,0.00893317
-0.00521122,0.00269124
-0.00240432,-0.00463518
0.018423,-0.00521338
0.0288138,0.00790894
-0.00418179,0.028094
-0.0167635,0.0379698
-0.0164586,-0.011528
-0.0569028,-0.0372716
-0.0632091,-0.0307255
-0.0371003,-0.0226419
-0.00211397,-0.0121486
0.043082,0.0202389
0.0716791,0.0163178
0.0716058,-0.00450427
0.0527667,0.000864157
0.0400862,-0.00419251
0.0111013,-0.00519428
-0.00269815,0.0170661
0.00329056,0.0203407
0.0346768,0.0123575
0.0186525,-0.00659994
-0.0260928,0.000789247
-0.0256467,0.0532058
-0.0279281,0.0400409
-0.0585928,-0.0258345
-0.0649287,-0.0472198
-0.0481542,-0.0298205
-0.0310058,-0.0102481
0.00998837,0.033752
0.0165576,0.0168806
-0.00264144,-0.042565
-0.00367636,-0.0313825
0.0375693,0.0204208
0.0897239,-0.0268459
0.0745059,-0.0564305
0.0546474,-0.00204628
0.0365111,0.0302712
-0.0536295,0.0247091
-0.071035,0.0312141
-0.0570655,0.00179714
-0.0553559,-0.0319666
-0.0469449,-0.017327
-0.0334179,0.00691423
-0.0114752,0.0142612
-0.00977369,0.0189415
-0.0101897,0.0188185
0.00221698,-0.00889102
0.0625094,-0.0141147
0.0985236,-0.0126616
0.067707,-0.0126389
0.0165361,0.00506678
-0.0158146,0.0119027
-0.00210722,0.00217488
0.00376166,0.0167528
-0.0260168,-0.00272077
-0.0637578,-0.0331539
-0.0562339,-0.028215
-0.0352479,0.0126567
-0.00516559,0.033174
0.0214702,0.0104828
0.0390541,0.020882
0.0593008,0.0239168
0.0671323,0.0150656
0.0377439,0.00778844
-0.0331116,-0.0104489
-0.0579028,0.00562987
-0.0415244,0.00302555
-0.0397722,-0.0370243
-0.0380135,-0.0429114
-0.00222472,-0.03754
0.0178735,-0.0206666
0.00118528,-0.00581555
-0.024015,0.039233
-0.0626142,0.0458995
-0.0542594,-0.0151485
-0.0126662,-0.0143578
0.00170627,0.00016344
0.0454705,0.0201332
0.098164,0.0226427
0.10785,0.00465454
0.0614022,0.0138272
0.00368799,0.0410396
-0.000628572,0.00695167
-0.00434965,-0.0217877
-0.0331741,0.002858
-0.0151784,0.0201508
0.01876,0.0022764
0.0315148,-0.0251112
0.0152215,-0.0431215
0.00158935,-0.0337006
0.00288376,0.00279819
-0.00374026,0.0155821
-0.00939134,-0.00135955
-0.0147888,-0.0172854
-0.0136719,-0.00463304
-0.0223387,-0.00896277
-0.0442533,-0.0026324
-0.0254088,0.01966
0.00226092,0.0201298
0.00770192,0.00451206
-0.0166141,-0.00878616
-0.0171859,-0.0387616
-0.00285576,-0.0199749
0.0279036,0.010384
0.0851996,0.0102115
0.0976577,-0.00224968
0.0352289,-0.00934886
-0.0247314,-0.0134797
-0.0363144,-0.0120858
-0.0411907,-0.00332007
-0.0428331,0.0132841
-0.0266224,0.02966
-0.0128237,0.0390239
-0.0409,0.0330878
-0.0566981,0.00314272
-0.0374678,-0.0165501
-0.0359108,-0.0177656
-0.0592159,0.0045134
-0.033341,0.0100021
0.0191388,0.00742331
0.0352464,0.0130628
0.0301674,0.00828474
0.0515371,-0.0183669
0.0498915,-0.0275016
0.0295361,-0.0109862
0.0224882,0.00886562
0.0391198,-0.00125869
0.0444722,-0.000355901
0.061645,0.0201865
0.0378123,0.0073275
-0.0126282,-0.0130346
-0.050099,0.00679221
-0.0445131,0.0396763
-0.0330593,0.036062
-0.0115084,-0.0180471
0.0157368,-0.0486704
0.0279986,-0.0274828
0.0124298,-0.0119884
-0.0189735,-0.00540345
-0.0377037,0.00279951
-0.0369127,0.00200844
-0.0685375,-0.0119423
-0.0391393,-0.0173797
0.042245,-0.0146204
0.0517338,-0.0172259
0.0219513,-0.00464019
0.000720695,0.0110097
-0.0070963,0.00123867
-0.0219645,-0.00996604
-0.0268536,0.0033811
-0.0390203,0.0403787
-0.0286332,0.0525294
0.0358186,0.0187358
0.0724322,-0.000415894
0.0439519,-0.0178611
0.0135526,-0.0253618
0.00470376,-0.01012
0.00401372,0.00800565
-0.0075682,0.00659558
0.00464945,0.0336878
0.0120044,0.0231689
0.00659714,-0.022266
-0.0167331,0.00201166
-0.0248106,0.0298535
0.00238297,-0.0139803
0.0157808,-0.0450437
0.0248843,-0.0340577
0.0245602,-0.0201543
-0.0380885,-0.00705054
-0.0553886,0.0226758
-0.0146719,0.0361922
0.00949655,-0.00649902
0.00606782,-0.0193898
0.00296974,-0.0135035
0.0155827,-0.00179705
0.00488616,0.0115234
0.000691178,0.01144
0.0049844,0.0062479
0.0205027,0.00761977
0.0506223,0.0295101
0.0422435,0.0351374
-0.00278254,0.0031793
-0.0170411,-0.0118884
-0.0395062,-0.013387
-0.100201,-0.0103324
-0.0803049,-0.0037053
-0.00425473,0.00750229
-0.000323122,0.00430668
-0.0055779,-0.0144051
0.0347021,-0.0149502
0.000793466,-0.00990559
-0.00084891,-0.0190786
0.0136712,-0.021797
0.0181432,-0.0116765
0.0083866,0.0133115
0.00444753,0.00614994
0.0018122,-0.0268927
-0.00770688,-0.0172915
-0.00912725,0.014578
-0.0133298,0.0190593
-0.00898182,-0.00206043
0.0197989,0.000741119
0.0410833,0.0172213
0.0292174,0.0202245
0.0207231,0.0164515
0.0175067,0.0217371
0.00785498,0.018636
0.0138547,-0.00925209
0.00963891,-0.00967604
-0.00779604,-0.0161584
-0.0154565,-0.0181897
-0.00769917,-0.00994409
-0.00852211,0.00958789
0.011217,0.0150099
0.0277402,-0.00834295
0.0202085,-0.0132208
0.00567034,-0.00965144
-0.0325214,-0.0200691
-0.0412776,-0.0240028
-0.00110269,-0.00419461
0.0219619,0.0234986
0.0291196,0.0333504
0.0164533,0.0280139
-0.00603307,0.0145025
-0.0197831,-0.00382569
-0.0251139,4.72e-05
-0.0497257,0.019587
-0.0553109,-0.00496081
-0.0383248,-0.0264949
-0.0407018,-0.0274149
-0.0480107,-0.0154048
-0.0443741,-0.00604905
-0.0231698,-0.00282092
0.0113401,0.00739605
0.0332283,0.0128598
0.0584719,0.0149437
0.0596188,0.00176073
0.0496217,-0.0106529
0.049195,-0.0245229
0.0377766,-0.0357046
0.0133195,-0.00818291
-0.0133888,-0.000850441
-0.033918,0.0252155
-0.0446296,0.0585536
-0.0179051,0.0170622
0.00300323,-0.0363758
0.0122577,-0.0136576
0.0100724,0.0192268
-0.0059336,-0.0024202
-0.0254412,-0.000622543
0.00584115,0.0304851
0.0610146,0.0287119
0.0785762,0.0268079
0.0317542,0.0148339
-0.0238106,0.0136002
-0.027753,0.02364
-0.00820099,-0.0186837
-0.0148741,-0.00302157
-0.000402651,0.0421671
0.00924507,-0.0167614
-0.0352146,-0.073219
-0.0498444,-0.0259852
-0.0148397,-0.00344386
-0.0141814,-0.0309811
-0.019848,-0.0187389
-0.0138625,0.0103932
0.00988504,-0.00152517
0.0155526,-0.00401262
0.0277639,-0.0102505
0.0387991,-0.0146544
0.0464112,-0.0160187
0.0383834,-0.019537
0.0142907,-0.00693027
0.00532264,0.00784475
0.00323405,0.0351863
-0.0330416,0.0164343
-0.0657541,-0.0472474
-0.0444492,-0.106366
0.00292395,-0.0758353
0.00534993,-0.0743649
-0.00218029,-0.0645018
0.0216395,0.0559432
0.0148632,0.169941
-0.00258385,0.204129
-0.00414529,0.118204
0.0150772,0.0392048
0.0321529,-0.0101983
0.0310423,-0.00337481
0.0344325,-0.0150934
0.0188281,-0.0368361
-0.0180878,-0.00657958
-0.0347724,0.00883017
-0.0462623,-0.0153248
-0.0669718,-0.0218186
-0.0341547,-0.00410445
0.00169536,-0.00515323
-0.0129164,-0.0267514
-0.0128976,-0.0350944
0.0135049,-0.0253991
0.014995,0.00822177
-0.000485359,0.0119436
0.00591433,-0.00315151
0.0252697,-0.0244702
0.0338839,-0.0272088
0.0289392,-0.00872834
0.0138201,0.00378271
-0.00446692,0.00924214
-0.0157117,0.0022357
-0.0212731,-0.00311519
-0.022943,-0.002291
-0.0136002,0.0113412
0.0135864,0.0194099
0.0205203,0.00684636
0.00901503,-0.00779166
-0.0313682,-0.023261
-0.0455613,-0.0127988
-0.0300144,-0.000814111
-0.0235662,-0.00974331
0.00371974,0.0223144
0.0370097,0.0348508
0.0220168,0.0154432
0.00067884,0.00471068
0.00107175,-0.00277505
0.0226584,-0.00740803
0.0208047,-0.0120979
0.017345,-0.0155727
0.0170979,-0.0238838
0.0377839,-0.0251622
0.0359312,-0.0160135
-0.00847346,-0.00470564
-0.0376277,0.0302303
-0.0271809,0.0356291
-0.0108611,-0.0134406
-0.0137305,0.00132726
-0.0207634,0.0209714
0.0138063,0.00781722
0.0540201,-0.0143746
0.0548464,-0.0181112
0.0404794,-0.000290145
0.0146276,0.0136749
-0.0219747,0.0116121
-0.0546465,0.00931047
-0.0632808,0.0100833
-0.0270688,-0.00333201
0.0229015,-0.00337999
0.0322743,0.0159931
0.018786,0.0193519
0.0021243,0.0190538
-0.0396599,0.0306771
-0.0593206,-0.0101241
-0.0637202,-0.0271686
-0.0715933,-0.0144606
-0.0451546,-0.00987511
-0.0106445,-0.0283459
0.0124109,-0.017319
0.0300544,-0.00258515
0.0634001,0.00428668
0.0566295,0.00924929
0.0487877,-0.00262487
0.0138669,-0.00209237
0.00358208,0.00534744
0.0167321,0.00800465
0.00986879,0.028227
0.00613638,0.0296669
0.0102583,0.000849163
-7.79e-05,0.00416524
-0.010987,0.00556728
-0.0126845,-0.0500137
0.00489558,-0.0486785
0.0192342,-0.0103526
0.00725052,0.0104607
0.00111035,-0.0032176
-0.00297231,-0.00538788
-0.0206082,0.019733
-0.0326682,0.00839393
-0.0285007,0.0102132
-0.0195578,-0.00148792
0.0128103,-0.00613701
0.0414404,0.00821681
0.0210502,0.0025768
-0.00932982,-0.00990399
0.000570831,0.00300389
-0.00166095,0.00787638
-0.0200505,-0.0351285
-0.00916994,-0.0481805
0.0186273,-0.0255931
0.0248259,0.00559611
-0.0103426,0.0264734
-0.0412119,0.0254855
-0.0613806,0.0197629
-0.0445953,0.0169058
-0.0190596,0.00625384
0.000836881,0.0126455
0.0284684,0.033333
0.0769239,0.037527
0.0783322,-0.000645791
0.0365894,-0.0217785
-0.00245213,-0.0198102
-0.0181671,-0.0337774
-0.029834,-0.0274534
-0.0350682,-0.00744865
-0.023741,0.0021553
-0.00409813,0.00833981
0.00795237,-0.00584896
0.0172445,-0.00680946
0.0406555,0.0147437
0.0567111,0.00311422
0.0481571,-0.0200364
0.0374436,-0.00349014
0.0137869,0.0237759
-0.0263659,0.0226016
-0.0251984,0.0105429
-0.0363124,0.00626813
-0.0575829,-2.04e-05
-0.0536175,-0.0070012
-0.0176578,-0.0160138
0.00700162,-0.0165162
0.0200036,-0.00576505
0.0279849,0.00611299
0.0144782,0.0240996
-0.0043308,-0.00274663
0.00123074,-0.0241266
-0.00353948,-0.00777182
-0.0387739,-0.00707767
-0.0605569,-0.00417689
-0.0547139,0.00448903
-0.0459602,-2.26e-05
-0.00877332,0.0100251
0.0303684,0.032271
0.0304897,0.0164252
0.0188551,-0.00447283
0.0146083,-0.0184576
0.0123274,-0.0202798
0.00151373,-0.0133945
-0.00391952,-0.00467929
0.0208992,0.00574563
0.0517502,0.00988668
0.0644579,0.00635363
0.0554841,0.0142058
0.0427485,0.0160354
0.0550384,0.00512632
0.0614104,-0.00311751
0.0218459,0.00610681
-0.0733392,0.0252315
-0.0908205,0.0237016
-0.0477447,0.0164883
-0.0534112,-0.00661966
-0.0683738,-0.0179086
-0.0682129,-0.016383
-0.0551474,-0.0273368
-0.0370332,-0.0246667
-0.0126848,-0.0142764
0.0114585,-4.11e-05
0.0228667,0.00257658
0.0231803,0.00596083
0.020078,0.0164092
0.0127021,0.0016249
0.00222676,-0.0144648
0.00139282,-0.0126315
0.0119482,-0.0153431
0.0216661,-0.0134381
0.0354452,0.00253148
0.038525,0.0135858
0.0265352,0.0123142
0.0134481,-0.000118741
0.0184932,-0.00791762
0.0133524,-0.0113341
0.00137497,-0.00617368
0.00304832,0.00934516
0.00349711,0.00783656
-0.0222466,-0.00191159
-0.0549113,0.000673794
-0.0637592,0.00475319
-0.060239,0.00421957
-0.0433676,0.0417555
0.00338994,0.0361659
0.0315899,-0.0367224
0.0465377,-0.0244615
0.0621647,0.0069785
0.0667784,-0.00193945
0.0877963,-0.00046763
0.121668,0.00711132
0.106399,-0.0131353
0.0633522,-0.0167909
0.0200087,-0.0103561
-0.0321025,-0.00191045
-0.0797297,0.00483427
-0.103171,0.00781556
-0.103149,0.00955795
-0.101892,0.0049069
-0.0861077,-0.000284225
-0.0611899,0.00182167
-0.0379943,0.00298371
-0.0239199,0.0188842
0.000836095,0.0114789
0.0252778,-0.0222911
0.0150001,-0.0216444
-0.00359769,-0.0113967
-0.00641598,-0.00104265
-0.0117149,0.00753922
-0.0190091,0.00816737
-0.0109145,0.00267085
0.0178945,0.00304271
0.0338165,0.00122336
0.0298959,-0.00467927
0.0236851,-0.0125193
0.0173566,-0.0124555
0.0285789,-0.00157078
0.0487161,0.00451407
0.0577991,0.0049263
0.0541154,0.0055968
0.052641,0.0100137
0.0270975,0.00997965
-0.0174744,0.00364674
-0.052197,0.000249772
-0.0683706,-0.00346158
-0.074465,-0.00975335
-0.0550156,-0.00930802
-0.0142646,-0.00446884
0.0250331,0.00188724
0.0422818,0.00678808
0.0384456,0.00772375
0.0180263,0.00479837
-0.0161386,-0.000486384
-0.0166251,-0.00389122
0.0176507,-0.0031246
0.0361361,-0.000328418
0.0411492,0.00590713
0.0323856,0.0108533
0.0116798,0.00473778
-0.0098398,-0.00174096
-0.030531,0.00138084
-0.0493826,-0.000358142
-0.0657637,-0.00792802
-0.0594973,-0.0129189
-0.0302724,-0.0018819
-0.00114936,0.0149674
0.024947,0.01247
0.0483967,0.00352951
0.0435646,-0.00627819
0.0352641,-0.0141019
0.0339831,0.00233867
0.0504335,0.0179187
0.0288743,-0.000943919
0.00700404,0.00447726
-0.00219631,0.0099119
-0.0202806,-0.00431859
-0.0623694,-0.019649
-0.101578,-0.0199954
-0.110595,-0.0133008
-0.0787089,0.00194785
-0.0167505,0.0227892
0.0434571,0.0115084
0.0667852,-0.00468656
0.0589765,0.00150425
0.027178,-0.00418341
-0.0220415,-0.00632302
-0.0401988,0.00244063
-0.0361507,0.0183036
-0.0215638,0.0266206
-0.00395295,0.00317056
0.0204891,-0.0200328
0.0317431,-0.00748267
0.0352933,-8.96e-05
0.0475687,-0.0201053
0.0696524,-0.0332317
0.0780718,-0.0248567
0.0602471,-0.015773
0.0356749,-0.011056
0.00999263,0.00354776
-0.0190856,0.0143034
-0.0343444,0.0168998
-0.0163575,0.020054
0.0012112,0.0185853
-0.0195214,-0.00835649
-0.0582909,-0.0208824
-0.0873925,-0.00690798
-0.0819704,0.032561
-0.0424195,0.0561387
-0.0229726,0.0320165
0.000902644,-0.0123221
0.0126155,-0.0158401
0.0287252,-0.0315113
0.0315264,-0.0107304
0.00165425,0.0203745
-0.0174002,0.00301059
-0.0273975,-0.00455923
-0.0411111,-0.00659967
-0.0334442,-0.0095715
-0.0198232,-0.00343267
-0.00590484,0.0121138
0.0062853,-0.00658787
0.0402919,-0.0144057
0.10275,-0.00986644
0.155516,0.00305749
0.167504,0.00627169
0.129951,-0.00319755
0.0507772,-0.00727216
-0.0503946,-0.00518615
-0.123322,-0.00916501
-0.144327,-0.0168569
-0.133211,-0.0103994
-0.0945384,0.0158987
-0.0575881,0.0250016
-0.00355427,0.0169156
0.0841558,0.0199591
0.141118,-0.000892201
0.154203,-0.00360223
0.099485,0.00599364
0.0141428,-0.0172209
-0.0902747,-0.0298224
-0.173429,-0.013573
-0.190905,-0.00636399
-0.142591,0.00112866
-0.0627836,0.0229031
-0.0182261,0.0151302
-0.00573362,-0.00339634
0.0135407,-0.0116973
0.05128,-0.00734897
0.0948271,0.0046041
0.113672,0.0177212
0.0740777,0.0136246
0.0164232,-0.00500731
-0.00960432,-0.00631889
-0.00100793,-0.000370322
0.0746673,-0.0022993
0.142579,-0.00218097
0.14998,0.00862467
0.107807,0.021555
0.0216668,0.00508102
-0.0735979,-0.0133435
-0.0856309,-0.0114628
-0.0803767,-0.00432874
-0.093698,-0.00357648
-0.0842537,0.00352313
-0.0671245,0.00152806
-0.0608336,-0.00560872
-0.0569172,0.000866139
-0.0420277,-0.00151747
-0.0551062,-0.00853166
-0.0796698,0.00903622
-0.0744352,0.0129904
-0.0551619,0.00256481
-0.0402274,0.00694819
-0.0130635,0.0172745
0.0264142,0.0115746
0.0465975,0.00600797
0.0671438,-0.0037925
0.100842,-0.00893609
0.107787,0.00631734
0.106754,-0.0304233
0.102349,-0.027843
0.0883392,-0.0165186
0.0542189,0.00386316
0.0242138,0.0306323
0.00190583,0.0193132
-0.0232799,-0.00433597
-0.0720492,0.00937193
-0.090551,0.0120537
-0.0517651,-0.01216
0.0281277,-0.017366
0.150116,0.000656124
0.235365,-0.000273229
0.240766,-0.0137858
0.139833,-0.0216774
-0.0401079,-0.0166622
-0.18477,-0.000184851
-0.295285,0.00702408
-0.348914,0.0227216
-0.246938,0.0118236
-0.0643739,-0.0114953
0.0417915,-0.00894705
0.0666799,-0.0129229
0.00506816,-0.00949392
-0.0762251,0.0189098
-0.11427,0.00697328
-0.0812949,-0.0215951
0.0317116,-0.00147384
0.151267,0.00807742
0.214948,-0.000889425
0.244953,0.000435836
0.275817,-0.00229805
0.245031,-0.00720239
0.108087,-0.0110904
-0.069581,-0.0102083
-0.186119,0.00162976
-0.291738,0.0169183
-0.31161,0.0344806
-0.23777,0.0377081
-0.113008,-0.0160723
-0.0166948,-0.00841328
0.0358344,0.0102046
0.0443035,-0.0071828
0.0192959,-0.0116116
0.0211551,0.00113892
0.0553952,0.00245369
0.0641031,0.00320089
0.0397497,0.00489604
0.00529435,0.0105451
0.000703677,0.00452879
0.0531846,-0.00239041
0.11781,0.00455458
0.165172,0.000296543
0.154105,-0.0133112
0.0511783,0.0253643
-0.0403589,0.0199527
-0.0622617,-0.0300856
-0.0447548,-0.0507906
0.0473987,-0.0459298
0.0418069,0.0051475
-0.0588239,0.0119012
-0.155867,0.0121853
-0.185992,0.0513541
-0.0717207,0.0709141
0.0988194,-0.0195027
0.146719,-0.0400892
0.117633,-0.0180469
0.00685127,-0.00735993
-0.120453,-0.00180303
-0.136407,0.00430594
-0.0637193,0.00723608
0.0692365,0.00165132
0.149789,0.00175375
0.142806,-0.0113301
0.0470941,-0.0166972
-0.0243293,0.00444555
-0.0316433,0.0171492
-0.0194998,0.0114468
-0.0234493,0.00693812
-0.0679813,-0.000441356
-0.137814,-0.0133802
-0.182506,-0.0116961
-0.160009,-0.00799919
-0.0841449,-0.01083
-0.00292762,-0.0214152
0.0432843,-0.0168887
0.0665777,0.00192294
0.0729543,0.0102092
0.0860797,0.0218313
0.0925698,0.0291402
0.0690744,0.0238716
0.00255252,0.0176147
-0.0706705,-0.00143452
-0.11837,-0.0177509
-0.117631,-0.0177727
-0.0654869,0.0017878
-1.5e-05,0.0131329
0.0846142,0.00781897
0.157901,0.00745253
0.21873,0.0447706
0.28777,0.0124723
0.309725,-0.0466934
0.230873,-0.0372079
