Comp Ch 3,Comp Ch 4
0.00607949,0.00672298
0.0108836,0.00751092
0.0199469,-0.0113401
0.0108011,-0.0459824
-0.00546054,-0.0468019
-0.000637154,0.00905052
0.0224024,0.0268741
0.0306256,0.0230555
0.0335172,0.0371007
0.0134491,0.0316855
-0.0372381,0.0132605
-0.0665919,-0.0218265
-0.0411676,-0.0330883
-0.0168921,-0.0209682
0.0141166,-0.00247097
0.0490658,0.0125341
0.0446028,0.0044787
0.0270694,-0.00119276
0.0173385,-7.1e-05
0.00500222,-0.0047079
-0.0106755,-0.00722513
-0.0205459,-0.00792058
-0.0122811,-0.00591111
-0.00548201,-0.00425097
-0.0180006,-0.00288453
-0.0217109,-0.00349129
-0.00942825,-0.0131042
-0.00444753,0.00820408
-0.00637287,0.0273211
-0.00291652,0.00392175
-0.00554366,-0.00981137
0.00818883,0.00693439
0.0167105,0.0232373
-0.00655675,0.00967117
-0.025277,-0.00630667
-0.0299308,-0.00812888
-0.00141288,-0.00509835
0.0366665,0.00362187
0.0370695,-0.0098145
0.0401058,-0.0177039
0.0273858,-0.00597228
0.00461442,0.00650567
0.00464802,0.013941
-0.00474872,0.00810904
-0.0298249,-0.00685251
-0.0358133,-0.0104563
-0.0294748,0.00144525
-0.00877994,0.0200998
0.00638754,0.0206726
-0.0125372,-0.000267073
-0.0472247,0.00946667
-0.0410634,0.017727
-0.00773855,-0.0186715
0.0132655,-0.0168524
0.00524295,-0.0103915
0.00636445,-0.0186016
0.0227304,-0.00800659
0.028715,-0.00196595
0.0421272,0.00183965
0.0466231,-0.00318927
0.0271545,-0.0111859
-0.00443821,-0.0153138
-0.0252333,-0.00569895
-0.0240799,0.00930208
0.00981591,0.00261728
0.03039,-0.00565007
0.0319857,-0.00255892
0.0320976,-0.00741029
0.0189163,-0.0054497
-0.0152344,0.0300671
-0.0502551,0.0548656
-0.0835491,-0.0107087
-0.0695206,-0.0350664
-0.028011,0.000465542
-0.0161487,0.0246404
0.0130687,0.0118567
0.0281274,-0.0175046
0.0097349,-0.0122121
-0.0014501,-0.0298066
0.00253847,-0.0208192
0.00612034,0.0106722
0.0219876,0.0280252
0.0292523,0.0289179
0.0231483,0.013465
0.0261,-0.00946623
0.0328796,-0.00539353
0.024081,-0.0036106
-0.00408823,-0.0148144
-0.0230457,0.0034856
-0.0214819,0.0349678
-0.00303869,0.0117068
0.0132356,-0.00780088
0.0136124,-0.00139834
0.00219275,-0.0191484
-0.0135453,-0.00537852
-0.0187316,0.0328175
-0.0139818,0.0191487
-0.00665392,-0.0225135
0.0079098,-0.00723822
0.0182627,0.00332432
0.00480325,-0.0112644
-0.0248051,-0.0200731
-0.0273154,-0.0155856
-0.0161716,-0.00585802
-0.0397538,-0.0107206
-0.0397668,0.00224565
0.0117282,0.0268559
0.0185209,0.0133184
-0.00495071,0.00340854
0.0236088,0.00797288
0.0359615,0.000206475
0.00627673,-0.000479307
-7.17e-06,0.000381875
0.000448847,-0.00648068
0.0102629,-0.00123244
0.0295166,0.00602603
0.0239407,-0.00248049
0.00699808,-0.0164102
0.0117686,-0.0205514
0.00517657,-0.0189466
-0.0220943,-0.0177733
-0.0342042,-0.00776003
-0.0112723,0.00269537
0.012909,0.00114085
0.00720208,-0.00412739
-0.00869164,0.0143002
-0.0323749,0.0385946
-0.0315967,0.029023
-0.0202308,0.0342769
0.00560694,0.0163158
0.0275183,-0.0227502
0.0313258,-0.00562282
0.0481072,0.0145059
0.0291343,0.000535511
-0.00881813,-0.00781524
-0.0150595,-0.00644813
-0.0161662,-0.00943387
-0.0309038,-0.0206585
-0.035074,-0.0350165
-0.0125726,-0.0304119
0.0154628,0.00257439
0.0203367,0.0128368
0.0076844,0.0226663
-0.0166936,0.0118691
-0.0160525,-0.00733404
0.0329764,-0.0146545
0.0679894,0.00464596
0.0818505,0.0429694
0.0869921,0.0294299
0.0472429,-0.0156387
-0.0241081,-0.0168292
-0.0732846,-0.00895807
-0.0850939,0.00963408
-0.0876795,0.00669078
-0.0854801,-0.00971819
-0.0587279,-0.0127151
-0.0135505,6.63e-05
0.00603413,0.00808172
0.0111441,0.0169233
0.0185942,-0.00415539
-0.00366888,-0.0027403
-0.0243635,8.75e-05
-0.022472,-0.0305211
-0.018018,-0.025868
0.0114926,-0.00438251
0.0289861,0.00992386
0.0158241,0.0449186
0.00449654,0.0592563
0.0314342,-0.000256641
0.0367213,-0.0479077
0.0219291,-0.043267
0.0453117,-0.0185667
0.0855635,0.00329815
0.0919126,0.0139488
0.0483277,0.00703425
-0.00225646,0.00510045
-0.0384265,0.00782579
-0.0625477,-0.00360847
-0.0644493,-0.0154846
-0.0463637,-0.00646582
-0.0425187,0.00193342
-0.0209974,0.00796553
0.00192132,0.0118093
0.00671862,-0.00240503
0.00459164,-0.0148525
0.00469142,-0.0123617
-0.02851,-0.00792841
-0.0596058,-0.00753946
-0.0444696,-0.00509263
0.0057279,0.00838941
0.0163844,0.0185744
0.00696956,0.0165112
0.0402337,0.0280268
0.0659126,0.0306735
0.0685398,-0.00639169
0.0862408,-0.0296655
0.105193,-0.0193227
0.0685039,-0.0075953
0.0284434,0.00759268
-0.0137907,0.0271289
-0.0798503,0.0219606
-0.129341,-0.00223965
-0.128355,-0.0176816
-0.0989818,-0.0147481
-0.0803802,-0.0217935
-0.036919,-0.012777
0.00657627,0.0146058
0.0171451,0.0155486
0.0262701,0.0157899
0.0387413,-0.000291681
0.0312835,-0.00794585
0.00751568,0.0161928
-0.000523317,0.00858616
0.00107516,-0.0118308
0.0280858,-0.0320192
0.0620209,-0.0256412
0.0568214,-0.000105168
0.0297651,0.0134152
0.00305508,0.00959051
-0.0227019,-0.00117187
-0.039144,-0.0103536
-0.0375599,-0.013516
-0.00866257,0.00621643
0.0143225,0.0120099
0.0121053,0.00666072
0.00848619,0.0203364
0.00417311,0.0103683
-0.00696739,0.00600277
-0.01369,0.00437209
0.00523089,-0.00295379
0.0286462,-0.000899026
0.0595255,0.00968433
0.0729964,0.0136783
0.0221215,-0.000797717
-0.020182,-0.0111027
-0.0487869,-0.0109682
-0.0712694,-0.0225724
-0.0776385,-0.0195551
-0.0592917,-0.00299586
-0.0205155,-0.00577586
0.0332379,-0.0169275
0.0311174,0.0133567
0.0232924,0.0108134
0.0101968,0.0142321
-0.008245,0.0199876
-0.0145096,-0.00926793
-0.0126612,-0.0243369
-0.011243,-0.0151702
0.0170985,0.0152709
0.0285372,0.0312408
0.014865,0.0170551
0.00628635,0.0057068
-0.0089472,0.00019211
-0.0291937,-0.0135325
-0.0390281,-0.031659
-0.0204168,-0.0286953
0.0147343,-0.00269783
0.0271884,0.0120168
0.0177085,0.00838004
0.0130326,0.00451045
0.0108917,0.00181377
0.0101411,-0.00470187
0.0219434,-0.00391158
0.0130337,-0.00388604
0.00599671,0.00780055
0.0515776,0.024417
0.0883828,0.0132595
0.0692996,-0.000712135
0.0518827,0.00634665
0.0229288,0.00586531
-0.0264079,-0.0139323
-0.107496,-0.0120526
-0.132953,-0.00678972
-0.0931372,-0.00263688
-0.0600227,0.019686
-0.0250973,0.0444122
-0.0131744,0.00817064
-0.0110291,-0.0345107
-0.00181305,-0.0412458
-0.00432248,-0.0128643
-0.0192776,0.00447036
0.0104178,0.0110477
0.0499856,0.0139874
0.0560665,0.0172216
0.0375753,-0.00473703
0.0139867,-0.0210018
-0.000851327,-0.018732
-0.0206327,-0.0113553
-0.0214173,-0.00741177
0.0158504,-0.00264032
0.0304491,-0.00156687
0.00652339,0.00361606
-0.0202334,0.0158885
-0.0289411,0.0194212
-0.00612013,0.0121107
0.00722957,-0.025734
-0.00174205,-0.0198157
-0.0114154,0.00259224
0.00987349,0.0232386
0.0350973,0.0280683
0.029089,0.00205999
0.0108364,-0.0023802
-0.0012926,-0.00719642
-0.0132807,-0.0150143
-0.0343758,-0.00580412
-0.0295105,0.00808022
0.0178283,0.0123261
0.0444373,0.0103903
0.0408909,0.0107136
0.0296872,0.000272324
0.00664775,-0.0163635
-0.00920242,-0.0159414
-0.0205749,-0.00553989
-0.0301799,-0.00451251
-0.0245675,-0.0048774
-0.000446267,0.00665431
0.00340105,0.00284455
-0.0125432,-0.00445679
-0.0227152,0.0037618
-0.032743,0.00550363
-0.053143,-0.00159079
-0.0496372,-0.00744326
0.00548205,-0.00403021
0.0671683,0.00951249
0.10587,0.0093134
0.135818,0.00531201
0.165082,0.000739342
0.155453,0.000286379
0.0858746,-0.00207069
0.00620859,-0.00626625
-0.0701501,-0.0173359
-0.116608,-0.0105612
-0.141878,0.0174992
-0.166152,0.0265907
-0.16323,0.0364294
-0.121539,-0.0139384
-0.0579817,-0.0353634
-0.0288678,-0.0264042
-0.0385382,-0.0173335
-0.0180487,-0.000683297
0.0218517,0.0139685
0.0411789,0.0116052
0.0449327,-0.00327691
0.0224753,0.00121722
-0.000865868,0.017588
-0.00586397,-0.00245544
0.002387,-0.00839722
0.00963428,0.000601563
0.0396706,0.000245623
0.0709956,0.00916336
0.0668174,0.0102403
0.0490203,0.00520198
0.0405313,0.00365012
0.0209253,-0.00211192
-0.000667246,0.00368801
0.0159877,0.00280705
0.0579639,-0.00834088
0.0661588,-0.00124087
0.0287131,0.00540834
-0.00938282,0.00571066
-0.00640493,-0.0234379
-0.00802101,-0.0457121
-0.0173136,-0.0169828
-0.0308881,0.00763053
-0.0489366,0.0180906
-0.0350453,0.0068813
-0.0382846,0.00108202
-0.0588143,0.00342127
-0.0554187,0.00561975
-0.0413836,0.00203914
-0.0349773,0.000478788
-0.0199153,0.000291666
0.00117552,-0.00366885
0.0203262,0.0205734
0.027456,0.0287213
0.0315056,-0.00067352
0.0253293,-0.0213616
0.00433029,-0.0105465
-0.0173246,-0.00240323
-0.0106675,-0.0125429
-0.000280499,-0.018225
0.0308168,0.0103302
0.0729123,0.0279364
0.0663799,0.0164009
0.0278546,0.0065275
0.00906349,0.000747439
-0.0107345,-0.00401164
-0.0361369,-0.0068562
-0.0501139,-0.00842591
-0.0279809,0.00977945
0.00325441,0.00723229
0.00107056,-0.00537785
0.0174595,-0.0122433
0.031801,-0.0150971
0.0142808,-0.00546152
-0.00557842,0.0061217
-0.0247726,0.00304941
-0.0392893,0.00240886
-0.00406419,0.0126513
0.0350348,0.0170887
0.0337688,0.00758799
0.0170351,-0.00321823
0.0067128,-0.00587973
-0.0107344,-0.0151733
-0.0315943,-0.0133218
-0.0418346,-0.00139952
-0.0297128,0.00350333
-0.00672002,0.00821317
0.00102947,0.00761085
0.0269901,0.00125198
0.0289302,-0.00877223
-0.00221282,-0.013607
-0.0019159,-0.0123695
-0.0149176,0.00260716
-0.0233955,-0.0166898
-0.00683087,-0.0126037
-0.0157301,-0.0115774
-0.02858,0.0132193
-0.0285856,0.0478853
0.00685267,0.0012591
0.0488938,-0.0194782
0.083998,0.00617003
0.0997901,0.0138725
0.0663149,0.0110683
0.0250384,0.00838275
-0.00614729,0.0038913
-0.0431237,-0.00184007
-0.0830967,-0.0124781
-0.0956249,-0.00584463
-0.0890728,-0.00105894
-0.0648664,-0.0112954
-0.0172261,0.018391
0.00569612,0.0209076
-0.00211857,-0.020147
-0.00169345,-0.0254949
0.000682306,-0.0193098
-0.000516628,-0.00490163
0.0211879,0.00379788
0.0685127,0.0129465
0.0846352,0.0105761
0.0609114,-0.00597244
0.0391221,0.0216574
0.0182703,0.032734
0.0123379,-0.0125985
0.0185075,-0.019729
0.0257292,-0.0137776
0.0082016,-0.014748
-0.00829516,-0.00660124
-0.0199577,-0.00659911
-0.0513337,-0.0133301
-0.0861818,0.00362375
-0.0797639,0.00828638
-0.0437237,-0.0139558
-0.0224346,-0.00589531
-0.012626,0.0188122
0.0080451,0.0311867
0.0326933,0.0263296
0.036383,0.0031565
0.0321132,-0.0123945
0.0287191,-0.0246249
0.0137441,-0.016111
-0.0159988,0.00386701
-0.0566974,-0.00331619
-0.0704595,-0.00735239
-0.0286323,0.0105806
0.00840368,0.0103655
0.0242517,-0.00700737
0.0432147,-0.0111392
0.0588748,0.0133441
0.0380704,0.0232633
-0.00100653,-0.0193102
0.00564582,-0.0229822
0.0410835,0.00390361
0.0545963,0.0118493
0.0387794,0.0100448
0.0230848,0.00752428
-0.00415265,0.00155147
-0.0486476,-0.000980639
-0.0683895,0.00836094
-0.0643999,-0.0024481
-0.0524161,-0.019631
-0.015897,0.0106218
0.00119021,0.0376945
-0.00390028,0.011759
0.00170418,-0.0138662
0.0139439,-0.0083474
0.012925,-0.000175794
0.00923796,0.00137794
0.0285162,0.00339401
0.03936,0.0264458
0.0369563,0.0288364
0.0414081,-0.0180578
0.0208508,-0.0344163
-0.0293368,-0.0215753
-0.0571169,-0.0193566
-0.0358417,-0.0182324
-0.0249954,-0.0121636
-0.00784698,0.00754378
0.0116231,0.0228098
0.0102481,0.0145982
-0.00649977,-0.000649273
-0.0367543,-0.00873498
-0.0674127,-0.018896
-0.052931,-0.00283667
-0.0289897,0.0294877
0.0117435,0.0165067
0.0786838,-0.013923
0.102575,-0.00754922
0.0788416,-0.00173498
0.0210465,0.0103961
-0.0169636,0.00825301
-0.0251815,-0.0116281
-0.02326,-0.00753417
-0.0163957,-0.00880691
0.0145873,0.00564968
0.0347347,0.0150356
0.0246373,-0.00521477
0.0108002,-0.0208925
0.00507619,-0.015866
-0.0090371,0.0219523
-0.0219053,0.0857989
0.00505433,0.0241826
0.035784,-0.0454085
0.0120612,-0.0211377
-0.0223057,-0.0151249
-0.032435,-0.014952
-0.0303498,-0.0128324
-0.0481417,-0.0126977
-0.0389985,-0.0113367
-0.0231663,-0.00462747
-0.0119277,-0.0022139
0.0243784,-0.00232483
0.031648,-0.000130086
0.0213131,-0.00275355
0.0175762,0.000816073
0.0125022,0.0220514
0.00231233,0.0263849
-0.0153739,-0.00176474
-0.0027306,0.0055669
0.0167327,0.0247992
0.0117414,0.0075395
0.00827339,-0.00775597
-0.00294405,-0.00529253
-0.0231849,-0.00303803
-0.0465832,0.000543337
-0.0434803,-0.00713082
-0.0300075,-0.0175513
-0.000336887,-0.0149144
0.0346041,0.0110893
0.0429159,0.0130664
0.0302311,-0.0066549
0.0206926,0.00175902
0.00893165,-0.00585217
-0.0133442,-0.00200754
-0.0141024,0.00701708
0.0123208,0.00670312
0.0243614,0.00436525
0.00248349,-0.00229292
-0.0031385,-0.0101301
-0.0137374,-0.0124554
-0.0418876,-0.00964605
-0.0537486,-0.0113978
-0.0325685,-3.2e-05
-0.0194891,0.00785183
0.00880149,0.0180941
0.0485172,0.00660952
0.0525569,-0.0346843
0.0294589,-0.0275903
0.0157006,0.0436384
0.0241736,0.034904
0.0136252,-0.0158055
0.00135402,-0.00464197
0.0112033,0.032395
-0.00485715,0.0142175
-0.0314525,-0.0143903
-0.0461931,0.0156991
-0.0612059,0.0479765
-0.0545919,-0.0017262
-0.042426,-0.042213
-0.0334403,-0.0368164
-0.00163411,-0.0143315
0.0343078,0.0098411
0.0576417,0.00373954
0.0493704,-0.00453803
0.0492553,-0.00016264
0.0582667,-0.0045938
0.0455693,-0.016848
0.0167264,-0.0257496
0.00203805,-0.0159633
0.00737174,0.0055956
0.00797631,0.00374853
8.3e-05,0.0298712
0.00592871,0.0399667
-0.00807749,-0.024543
-0.0540995,-0.0380013
-0.0732451,0.0217265
-0.0443537,0.0120814
-0.0026264,-0.0111243
0.0190193,-0.000498916
9.28e-05,0.0185287
-0.0494005,0.0239603
-0.0427123,0.00309581
-0.0334614,-0.00551663
-0.0165193,-0.00630153
0.023381,0.0120716
0.0597188,0.0349333
0.0699359,-0.0120078
0.0454391,-0.00969949
0.0231502,0.0284234
0.00686035,-0.0107128
-0.0172459,-0.0298378
-0.034661,-0.024655
-0.0410636,-0.00729091
-0.0295765,-0.0135697
0.0161041,-0.00443512
0.0427677,0.0376275
0.0400444,0.0163984
0.015351,2.13e-05
0.00159924,0.00329873
-0.0018773,-0.0218932
-0.012308,-0.0430309
-0.01156,-0.0613606
0.00481292,-0.033169
0.00957488,0.011859
-0.00341487,0.0333386
-0.0114394,0.0065628
-0.0202806,-0.0124698
-0.0315652,0.0203391
-0.0258907,0.0432734
-0.0125289,0.0164476
0.00070189,-0.0171823
0.0192257,-0.00543279
0.0263333,-0.00136806
0.0180783,-0.0100202
0.0192377,-0.0375567
0.0284721,-0.0319089
0.0224451,0.0316192
0.00370204,0.17165
-0.0154255,0.177054
-0.048647,-0.051825
-0.0776263,-0.104415
-0.0836781,-0.0269753
-0.0676279,-0.0385864
-0.0297874,-0.0447464
0.00712541,-0.0162728
0.0421582,0.00715182
0.0329915,0.0472155
0.0163157,0.07971
0.0462802,0.015156
0.0725918,-0.062665
0.0593271,-0.0604123
0.0272708,-0.0246644
0.0133898,-0.0129205
0.0116417,-0.0283091
0.00606813,-0.028278
0.0144402,-0.0196898
0.0326397,-0.00496486
0.0402264,0.029468
0.0284341,0.033438
0.00307093,0.0197784
-0.0251044,0.00920832
-0.0523559,0.0027094
-0.0755708,0.00509669
-0.120554,0.0120788
-0.0951475,0.00702369
-0.00739757,-0.0186172
0.0495063,0.00151772
0.066919,0.00532737
0.102726,-0.00609999
0.0752392,-0.0249863
0.000894328,-0.0201297
-0.0399794,0.019573
-0.0207243,0.0271886
-0.00553731,-0.00943245
-0.0388989,-0.0159458
-0.0288609,-0.0218855
-0.013851,-0.00522181
-0.0107483,0.00524668
-0.0108265,-0.0130728
-0.0175817,0.00400626
-0.0406648,0.0410006
-0.0521926,0.0346604
-0.0255591,0.00185435
-0.012492,0.044409
0.0124967,0.016286
0.0414552,-0.0576948
0.0490537,-0.0417585
0.046015,-0.0258986
0.0497726,-0.0277337
0.0363316,0.028356
-0.0038648,0.0519016
-0.0185317,-0.00216318
-0.031019,0.00643962
-0.035535,0.0329931
-0.0399905,0.0450641
-0.00911536,0.0220297
0.0709976,0.0266899
0.124752,-0.0294282
0.130502,-0.0416314
0.0578338,-0.0330676
-0.089332,-0.0117176
-0.134856,0.0617647
-0.0683938,0.0441651
-0.0365505,-0.0656745
-0.0318374,-0.0616465
-0.029038,-0.0280989
-0.0342948,-0.0256059
-0.018555,-0.0153663
0.0159675,-0.0183596
0.00727013,0.0293068
-0.0273438,0.0440059
-0.0458716,0.0434664
0.00744378,0.0141158
0.0843916,-0.0442621
0.119413,-0.0337858
0.165781,0.00176083
0.160172,0.00415743
0.101786,-0.047236
0.06057,-0.00792864
0.0143283,0.0803204
-0.0145842,0.0222427
-0.0672305,-0.0465151
-0.116693,-0.0250601
-0.148406,0.0401603
-0.203713,0.0647802
-0.239172,-0.0256175
-0.171534,-0.0818576
-0.0958734,-0.0434648
-0.0914359,0.0304102
-0.0415427,0.0472915
0.0746775,-0.026469
0.204443,0.0274818
0.241137,0.138717
0.217081,-0.0265005
0.103508,-0.0939829
0.0200314,-0.0217899
0.0100036,-0.000888202
0.00868283,-0.0101305
0.0193231,0.00503924
0.0268025,0.0244731
-0.0119174,0.0240966
-0.0391118,0.0170461
-0.0653245,-0.00263813
-0.147834,0.0278007
-0.148597,0.00836221
-0.0836511,-0.0670572
-0.0408054,-0.0504319
0.0356728,-0.0290572
0.0363599,-0.00471685
-0.00710735,0.00709047
-0.053878,-0.00675865
0.0171373,0.0101998
0.132405,0.10568
0.147223,0.00627969
0.102854,-0.0470769
0.0696615,-0.00836463
0.0154774,-0.0147449
-0.00373709,0.00509667
0.019829,0.095114
0.0437337,0.106808
0.0298552,0.00263247
-0.00522115,-0.0292088
-0.0480588,-0.0347663
-0.123344,-0.0207938
-0.131784,-0.0265469
-0.0808589,-0.045199
-0.0137707,-0.047892
-0.0142556,0.00723265
0.00605933,0.0582998
0.0369851,0.00803013
-0.0107683,-0.0380432
-0.0647124,-0.0334899
-0.0109204,-0.0207299
0.0600138,0.0260693
0.0939398,0.025192
0.138424,-0.0176838
0.140141,-0.0315405
0.0949075,-0.0204429
0.0171864,-0.0354902
-0.108971,-0.00129127
-0.194698,0.0198673
-0.18452,-0.0182995
-0.108838,-0.0115813
-0.0479526,0.0315669
0.0121314,0.0118986
0.0426489,-0.0141996
0.0107056,-0.00585026
-0.0346907,0.0017496
0.000319824,-0.037319
0.0786412,-0.0254429
0.130128,0.0416813
0.123989,0.10887
0.0507913,0.07854
-0.0227203,0.0291983
-0.103708,-0.00718931
-0.110491,-0.0491942
-0.0427143,-0.0463674
0.074074,-0.0145114
0.212846,0.0314525
0.28181,0.0538941
0.211217,0.0394117
-0.0150763,0.00975612
-0.196889,-0.00965931
-0.183228,-0.0165878
-0.144305,0.0108044
-0.159669,0.00169601
-0.172552,-0.0274016
-0.10977,-0.00310773
-0.0451754,0.0347872
-0.0397256,0.0495009
-0.0916153,-0.0335283
-0.0470976,-0.0217124
0.0726533,-0.0820846
0.140876,-0.0821969
0.186919,-0.0947603
0.136362,-0.0607719
0.0339617,0.0976446
-0.0981291,0.0912302
-0.153005,0.0340127
-0.0769002,-0.0481196
-0.0325454,-0.00648859
-0.0079601,0.00297264
0.0427251,-0.0723797
0.132913,-0.0276611
0.211768,0.0111775
0.225965,0.0132701
0.11389,0.0174783
-0.0130771,0.00611504
0.00396648,-0.0213576
-0.0298376,-0.0153366
-0.0966128,0.0459095
-0.0819292,0.128265
-0.0230611,0.047957
0.0182131,0.0108572
0.0720858,-0.016965
0.0843048,-0.110892
0.0255807,-0.141824
-0.104354,-0.0626842
-0.176164,0.0767612
-0.0664188,0.0711183
-0.0387591,0.00896632
-0.0199008,-0.029273
0.0352719,-0.012742
0.057064,0.027545
-0.0046425,0.0339348
-0.125331,0.105755
-0.102626,0.255812
0.0540554,0.133293
0.197361,-0.23063
0.215424,-0.215519
0.0946814,0.0264558
-0.0774923,0.0557256
-0.142132,-0.0430152
-0.188252,0.0176168
-0.223416,0.033796
-0.0852445,-0.0327803
0.0880895,-0.0370197
0.110661,-0.0168341
0.0281355,-0.0105102
-0.073013,0.00372842
-0.063453,-0.0244369
-0.0321815,-0.040447
0.00361249,0.0542446
0.0466662,-0.0218805
0.0576524,-0.0874345
-0.00149361,-0.0280904
0.00905246,0.0428482
0.0828285,0.0296854
0.100599,0.0304965
0.0549113,0.0840516
0.000596413,0.0839104
-0.00930033,0.0176586
0.0464372,-0.0339387
0.0760191,-0.03482
0.00359711,-0.0608548
-0.073064,-0.0378817
-0.0419791,-0.0578028
0.0134698,-0.0250475
0.0156842,-0.00365351
0.0362204,-0.0353408
0.063044,-0.0182888
0.102803,0.0233211
0.0816967,0.0656712
0.0290148,0.102018
-0.0519484,0.0778228
-0.131758,0.0216978
-0.14526,-0.017518
-0.122878,0.0243739
-0.0986743,0.0392235
-0.047213,0.0174441
0.0419679,-0.0521995
0.0394842,-0.0829575
-0.00940204,-0.0423938
0.00621543,-0.0209509
-0.016731,-0.0505305
-0.0413733,-0.0946167
0.00414352,-0.0171222
0.0460846,0.0283902
0.0708119,0.0552897
0.0569946,0.0644432
0.072914,-0.0593388
0.0579306,-0.0357715
0.0331138,0.00485054
-0.0461572,0.0466519
-0.0516254,0.0448466
0.0538509,0.0492982
0.128551,0.0345151
0.0471287,-0.00334838
-0.0797225,-0.0146484
-0.125726,-0.00037713
-0.125775,0.0216932
-0.069015,-0.0376058
0.0341416,-0.0304196
0.030495,-0.0295403
-0.0234261,0.00595504
-0.0261494,0.0486802
-0.0344735,0.0395488
0.0231101,0.0109524
0.109598,-0.0154504
0.144303,-0.0302289
0.127148,-0.0814785
0.0502318,0.075456
0.0105101,0.157346
0.00170663,-0.0486431
-0.0660798,-0.0890423
-0.098564,0.0256804
-0.126287,0.00843402
-0.114455,-0.0323509
-0.109308,0.0442284
-0.156037,0.0308581
-0.190578,-0.0731542
-0.140192,-0.043033
-0.0814958,0.024589
0.0214239,0.0110351
0.160179,-0.0414397
0.166579,-0.027943
0.0842437,-0.0147724
0.0916462,-0.0461398
0.177079,-0.0333761
0.195169,0.0528236
0.118756,-0.0364079
0.0711008,-0.0757481
0.107107,0.0333264
0.132142,0.122226
0.122992,-0.0182192
0.0477138,-0.0598358
-0.035815,0.00191446
-0.0777512,0.0847554
-0.0660633,0.0318095
-0.0390546,-0.0516048
-0.114976,-0.0392287
-0.199417,0.0385849
-0.184751,0.131239
-0.18451,0.0424092
-0.172815,-0.0613243
-0.182874,-0.00971152
-0.205101,0.0887193
-0.169243,-0.00143796
-0.0338676,-0.125089
0.11186,-0.0944407
0.122726,-0.0334358
0.0432884,0.0337734
0.0214388,0.0215725
0.105373,-0.0109508
0.195895,0.0239774
0.208276,0.0162544
0.141915,-0.011327
0.0328122,0.000466131
-0.0101341,0.0219504
-0.0259667,0.0631716
-0.016863,0.0172345
0.0135146,-0.0323661
0.0487359,0.0124721
0.0688889,0.0446074
0.0635034,0.0234675
0.0301309,0.0390158
0.00510581,0.0152329
0.0521128,-0.0458371
0.120787,-0.0700444
0.0645386,-0.033342
-0.0180931,-0.016367
-0.0294698,-0.020124
-0.0218773,-0.0537814
-0.0527538,-0.0987453
-0.137375,0.0593652
-0.199814,0.0632663
-0.152145,-0.0413532
-0.0813941,0.0404103
0.0161966,0.0584012
0.116507,0.00284507
0.161133,0.00613155
0.170961,-0.0265428
0.0890165,-0.028753
-0.0203857,0.0237111
-0.0410744,0.00907301
-0.0519661,0.0329535
-0.0396105,0.068845
-0.0511435,-0.00153783
-0.152994,-0.0168635
-0.167801,0.0108666
-0.0667098,-0.00332612
0.0836496,-0.0268368
0.111048,-0.0260098
0.0408291,-0.0219868
-0.0168615,-0.0254574
-0.0280619,-0.0166681
-0.00808648,-0.0428442
0.0820566,-0.0115653
0.128819,0.188121
0.127055,-0.0273935
0.0405574,-0.0837618
0.00843798,0.0288422
0.00631988,-0.0246273
0.0033352,-0.0340753
-0.0108337,-0.0486234
-0.0578215,-0.0513649
-0.08998,-0.0164627
-0.147491,-0.00687428
-0.223186,0.00789029
-0.166121,0.0585938
-0.0246366,0.0448835
-0.00810119,-0.0977365
-0.0309184,-0.0119274
0.0446722,0.103906
0.116445,0.0230006
0.170359,-0.0205615
0.137756,0.0091557
0.0363796,0.00854794
-0.0358868,-0.00573915
-0.0536029,0.0176262
-0.108098,0.0131533
-0.163541,0.0233723
-0.169689,0.0780553
-0.0470636,-0.00625247
0.0619588,-0.00408352
0.107101,0.0580697
0.113084,0.000396065
0.106103,-0.063621
0.121458,0.0192806
0.137051,-0.00475152
0.0979154,-0.0340449
0.00596937,0.0431393
-0.00519411,-0.0264776
0.00604458,-0.0569786
0.0069443,-0.0107285
-0.00832236,-0.0255092
-0.109314,-0.0359185
-0.213325,-0.013143
-0.178517,0.0187995
-0.0873492,-0.00623111
-0.0283564,-0.0447652
0.0399259,0.0330231
0.110609,0.126932
0.10191,-0.00277964
0.0220779,-0.0636285
-0.00952265,-0.00668706
0.0330977,-0.0493872
0.0347687,-0.0449854
-0.0109131,-0.0124446
-0.0290165,-0.0168865
0.00903202,0.00722693
0.0644145,0.0467752
0.113228,0.0779559
0.132911,0.0269119
0.0946599,-0.0171478
0.0255579,0.00569884
-0.0193515,0.0145262
-0.081229,0.036941
-0.124847,0.0439469
-0.149308,-0.0111523
-0.161351,-0.00993016
-0.118334,0.0369069
-0.056292,-0.0672617
0.0149871,-0.0437508
-0.0265726,-0.00930906
0.00902105,-0.0474566
0.0436465,-0.0251926
0.0315708,0.0535101
0.0393522,0.0151971
0.15108,-0.000875837
0.141113,0.0193141
0.104581,-0.0477135
0.0832186,-0.025762
0.0444938,-0.00568124
-0.00633609,-0.000816171
-0.00703307,-0.00774218
0.00708813,-0.00310529
-0.00140175,0.0568147
0.0305782,0.0167952
0.0241897,-0.0391542
-0.0575121,0.150386
-0.107871,0.2102
-0.0637229,-0.0919879
-0.0819268,-0.0946212
-0.115152,-0.0127442
-0.0782906,-0.0477161
-0.0231999,-0.0986015
0.00685749,-0.101638
0.040569,-0.0765814
0.0552678,0.0307573
0.0461781,0.0701443
0.0176741,0.134402
-0.0404828,0.0790988
-0.0705404,-0.126628
-0.0694309,-0.0977735
-0.0291723,-0.0116338
0.00934903,-0.00429714
0.080129,0.0359139
0.133544,0.0288069
0.110191,0.0671016
0.0960934,0.0853791
0.0761575,0.0547965
0.025436,-0.0108737
-0.0534601,-0.0620778
-0.0696928,-0.0231614
-0.0234537,0.0091841
0.0137734,0.0158733
-0.014906,-0.0434818
-0.00934438,-0.0590667
0.0623504,-0.0321901
0.0587152,0.0160245
-0.00931416,0.0667899
-0.0599378,0.0072098
-0.0719574,-0.0599693
-0.114603,-0.0437322
-0.138476,-0.0416843
-0.098669,-0.00471619
-0.0756747,0.0855744
-0.0464848,0.0980989
0.0327649,-0.00338896
0.078402,-0.0476228
0.114781,0.0216392
0.164918,0.0329285
0.131025,0.0159739
0.0113264,-0.00944252
-0.0433639,-0.0366369
-0.094224,-0.0108303
-0.226397,0.024938
-0.237438,0.0247256
-0.12391,-0.0187591
-0.0128374,-0.0596893
0.0528456,-0.0489709
0.100353,-0.0283962
0.11773,-0.0225589
0.155005,-0.0182637
0.175287,0.00917296
0.139867,0.0522998
0.0864294,0.0205563
0.0566797,0.0687386
0.031862,0.104717
0.0385559,-0.0250463
0.00349315,-0.09153
-0.0845177,-0.0680018
-0.107613,-0.046503
-0.12753,-0.00587656
-0.097962,-0.00374707
-0.0631548,-0.0213125
-0.00832696,-0.034206
0.0750964,0.00584469
0.0876198,0.0565752
0.0443144,0.0443978
-0.0474489,0.0399292
-0.122385,0.104835
-0.119982,0.10647
-0.0296992,-0.0271965
0.05621,-0.0304806
0.0675149,-0.0225192
0.0497068,-0.0252326
0.0845523,0.0188599
0.0732184,-0.0427845
-0.0307785,-0.0533131
-0.0543298,-0.0010396
0.0264425,0.00621965
0.0482559,-0.00333867
0.0144107,-0.0235075
0.0180176,0.00377276
0.00149101,0.0130812
-0.0529691,-0.000712415
-0.0811308,-0.0194494
-0.0618892,-0.0137566
-0.0481985,0.0154688
-0.00549942,0.00188982
0.0791672,-0.0116111
0.106757,-0.00829696
0.1054,-0.0292549
0.0566738,-0.00816238
0.0106368,0.00161916
-0.0347834,-0.0144132
-0.0723321,0.00625323
-0.0838066,0.0435034
-0.153634,-0.0124893
-0.114633,0.0152592
0.0310627,0.0421491
0.0634145,0.0801802
-0.00881736,0.0838521
-0.029833,-0.0835752
-0.0124935,-0.117634
-0.0331739,-0.0143035
0.0258724,0.0178189
0.0772591,0.00271135
0.0442018,-0.0169083
-0.00390083,-0.030553
0.0016855,0.0175103
0.0504464,0.0780498
0.0685518,-0.0193629
0.0336782,-0.0313329
-0.0184186,-0.00824915
-0.0795416,0.0103937
-0.147445,0.0055166
-0.128337,0.00452031
-0.0221205,-0.0390687
0.0711803,-0.0568479
0.0861708,-0.01819
0.101119,0.036719
0.114378,0.0954824
0.0702151,0.0828144
0.0563558,-0.00278646
0.0708717,-0.0362131
0.0130408,-0.00195778
-0.041532,0.0662127
-0.0730369,0.0114548
-0.0802494,0.0126516
-0.0811606,-0.0232416
-0.108141,-0.0847762
-0.0584045,-0.0790649
-0.000226777,-0.0474765
-0.0187572,-0.0221218
-0.0444281,0.0095898
-0.0172878,0.00980132
0.0129886,0.00115081
0.0198028,0.0351795
0.00573209,0.0630335
0.0238099,0.0840662
0.0682955,0.100949
0.0938556,-0.0158911
0.108092,-0.0606397
0.0758366,0.00192568
0.00778912,-0.0467626
-0.044291,-0.0533804
-0.0403349,-0.0119306
0.00859233,-0.0113468
0.00573062,-0.0538262
-0.0162405,-0.030766
-0.0129235,0.0306073
-0.0724561,0.014971
-0.116042,0.00874547
-0.0376815,0.0507041
0.0141782,-0.0269978
-0.0317247,-0.0580002
-0.0884605,-0.013303
-0.0660166,0.00635294
0.0314564,0.0239284
0.114842,-0.0206332
0.118763,-0.0392839
8.37e-06,-0.0275155
-0.0447064,0.0128385
-0.0251795,0.0544062
-0.0295812,0.0920138
-0.055838,0.0621441
0.00267167,-0.0108778
0.0522288,-0.0172733
0.0280819,0.00130865
0.0335878,-0.0277017
0.0729694,-0.0580911
0.0495561,-0.00299341
0.114974,0.0157908
0.164971,0.021997
0.0354201,0.0113061
-0.0592411,-0.00507986
-0.0434799,-0.00747444
-0.0125569,-0.0193495
-0.0290782,-0.027112
-0.0274042,0.0017399
0.015527,0.0323272
0.0359885,0.00700957
0.00277515,-0.00297554
-0.0452183,0.0206336
-0.0615853,0.0234551
-0.069502,0.0312031
-0.0748502,-0.00908929
-0.0572017,-0.021662
-0.0310453,-0.0374958
-0.0431902,-0.0175889
-0.0549536,0.0122344
-0.0433284,0.0158628
-0.0259166,0.018285
0.0166649,0.0396361
0.0605254,-0.0255662
0.0320603,-0.0588344
0.035409,-0.056039
0.0585193,0.026386
0.053968,0.0148521
0.0660916,0.00996223
0.104926,0.00843351
0.102081,-0.000880506
0.0515273,0.00908473
0.00322977,0.0210553
-0.0252574,0.0660783
-0.0384655,0.0979884
-0.0459978,-0.0538513
-0.0524035,-0.0945546
-0.105852,-0.038808
-0.135963,-0.0323473
-0.0969923,-0.00106881
-0.0235484,0.0592474
0.0582262,0.0589572
0.0672926,0.0102852
0.0531821,-0.0755868
0.0407394,-0.021562
0.0285483,0.0150828
-0.0344524,-0.00843297
-0.108577,-0.00983693
-0.0989662,-0.0121538
-0.0709865,-0.0486553
-0.0184718,-0.0659474
0.0919417,0.0141739
0.170898,0.0456126
0.148223,0.0169047
0.0968966,0.0154539
0.0238326,0.0270012
-0.0619169,-0.000661046
-0.0911567,-0.0115968
-0.0959426,0.000430778
-0.0701983,0.013609
-0.058158,0.0233084
-0.016354,0.0239124
0.032189,0.00443609
0.0222854,-0.0144234
0.0156267,-0.00101156
0.0363104,-0.00429377
0.0267301,0.0164793
-0.0211902,-0.00502169
-0.0277398,-0.0156241
0.000804085,0.00245889
-0.00111209,0.0100122
-0.00527735,0.00710395
0.00218939,0.0142426
0.0203606,0.01423
0.0419718,-0.0158826
0.0631734,-0.0293238
0.0673351,0.0365631
0.0541748,0.0683541
0.0256765,-0.0202388
-0.00789803,-0.0868362
-0.0631255,-0.024178
-0.08337,-0.000610053
-0.0521162,-0.00662725
-0.0333072,0.00690474
-0.0567356,0.0396853
-0.0177961,-0.008968
0.058684,-0.0346149
0.0739855,-0.0186586
0.0736907,-0.0202211
0.0442126,0.00615038
-0.0559615,0.0242563
-0.0813714,-0.00320439
0.00741393,-0.0193543
0.0343505,-0.0148571
0.0590079,-0.015642
0.0741823,0.000418128
0.00636977,0.0331428
-0.046866,0.0354691
-0.00279935,0.0106045
0.00453846,-0.0126836
-0.0336452,0.00694767
-0.0643405,0.0268108
-0.0940012,0.0232976
-0.113242,-0.0355069
-0.109271,-0.0749424
-0.106052,-0.0183698
-0.0916118,0.0395967
0.0388305,0.0396751
0.147872,-0.0123943
0.115536,0.0276004
0.0882285,0.0196557
0.107522,0.0169584
0.0809942,0.0457588
0.0401857,0.00262548
0.0194156,-0.0678814
0.00739704,-0.0385928
-0.0037732,-0.031791
-0.0031053,-0.013292
-0.0234258,0.0318421
-0.062323,0.039734
-0.0243855,0.0175931
0.0195037,0.0200231
0.0187524,-0.00888918
-0.00526378,-0.0321049
-0.0247109,-0.0290386
-0.0246983,-0.0292223
-0.027093,-0.00506139
-0.00629776,0.0395305
-0.00278893,0.00221729
-0.0243914,-0.042025
-0.0584995,0.0027204
-0.0955408,0.00842676
-0.0914723,0.010968
-0.0236027,0.00665427
0.0171411,0.00165132
0.0520005,0.00416812
0.0748725,0.00228809
0.0590996,0.00242139
0.0294874,0.023692
-0.00656037,0.0123725
-0.0373063,-0.0052207
-0.0338938,0.00576247
0.0336714,0.0154949
0.129798,0.010034
0.18697,0.0140767
0.151078,0.0116425
0.0676437,-0.0133069
-0.010682,0.00865704
-0.095761,0.0116198
-0.15756,-0.0348349
-0.146889,-0.0327748
-0.105916,-0.0138718
-0.079101,-0.00816933
-0.0508831,-0.00095582
-0.0127897,0.0391721
0.0094551,0.0440991
0.0490199,-0.0454864
0.0855863,-0.0163818
0.126412,0.0175989
0.13188,-0.052004
0.0653221,-0.057992
-0.0198005,-0.0115423
-0.0418004,0.00670788
-0.0364024,-0.0145773
-0.0214711,-0.00241424
-0.046982,0.00482542
-0.0896909,0.0197662
-0.0620922,0.0233772
-0.0243715,0.0189596
-0.0121569,0.0445082
-0.00275845,0.00807498
0.0329361,-0.00401549
0.0569931,0.025978
0.0386902,0.0122868
0.0243241,-0.0097588
0.0267077,-0.00280782
0.00593249,0.0199362
-0.0124045,0.0112347
0.000769812,-0.0177267
0.00482588,-0.0249481
-0.0323129,-0.0220557
-0.0489524,-0.0231385
-0.0535156,0.00228521
-0.030363,-0.0239225
0.00122663,-0.0439795
0.00804589,-0.0154394
0.0256737,0.045567
0.0374757,0.135741
0.0211853,-0.0123197
-0.0119971,-0.112287
-0.0240497,-0.0259981
0.00496395,0.0417688
-0.00693297,0.073218
-0.0335334,0.0204871
-0.0318138,-0.00909464
-0.0146359,0.00700545
0.00767544,-0.0231716
0.0423725,-0.0377669
0.0424703,0.00759865
0.0270122,-0.0221431
0.0122016,-0.0211327
0.0125697,0.00108769
0.0234261,-0.00630242
0.0360858,-0.0386376
0.0552526,-0.0156367
0.0385274,0.0338782
0.00980739,0.0325765
-0.0059804,0.00812868
-0.0307575,-0.00421947
-0.0257067,-0.00562313
-0.0342326,6.96e-05
-0.0193267,0.0323581
-0.00108085,-0.0236281
-0.0357033,-0.0120146
-0.0608775,0.0749965
-0.0763653,0.0315171
-0.0743939,-0.0283826
-0.0333029,-0.0162603
-0.0395168,-0.0134876
-0.054944,-0.0168972
-0.0202551,-0.00695695
0.10807,-0.00869215
0.176193,-0.0255234
0.101018,-0.0336166
0.033799,-0.0475472
0.0546852,-0.0199862
0.0553968,0.0962489
0.0306839,0.0629829
-0.00534382,-0.0056382
-0.0317006,0.001087
-0.0570119,0.0298558
-0.0508955,0.0738139
-0.0309968,0.0258945
-0.00832921,-0.0284686
0.0452281,-0.0319588
0.0621184,-0.0307908
0.0247104,-0.0231168
-0.035107,-0.0152298
-0.0633515,-0.00355044
-0.0800399,-0.0347573
-0.0905924,-0.00806083
-0.069215,-0.000689822
-0.0135828,-0.0130589
0.0145084,0.00875811
-0.00948472,0.00710902
0.0286931,-0.0255724
0.0876331,-0.0137211
0.0597837,0.000531174
-0.000293086,-0.0108172
-0.00433481,-0.0121078
0.0235451,0.0222315
0.0157091,0.00790894
0.00470003,-0.00221197
0.0157565,0.0739286
0.0180688,0.0652039
-0.0229965,0.0126189
-0.019101,-0.00809047
-0.0039656,-0.0212901
-0.0189549,-0.0139118
-0.0108175,-0.00925478
-0.00389398,-0.0188869
0.00482793,-0.0178311
-0.00936869,0.0155857
-0.0426057,0.000779186
-0.0409933,-0.0296567
-0.00756754,0.0251734
0.0212774,0.0188083
0.0731472,-0.000722963
0.1068,-0.0064985
0.0716103,-0.0139701
-0.00409506,-0.0250817
-0.0350952,-0.0115274
-0.0637693,0.0154211
-0.0426297,-0.00891595
-0.0189915,-0.0510988
-0.0259668,0.00417144
-0.0105292,0.018598
-0.021872,-0.00671995
-0.064156,0.047362
-0.038778,0.0454155
-0.000781461,0.0112615
0.0190722,-0.0328211
0.00330722,-0.00688349
0.027274,0.0319059
0.106747,-0.00254858
0.111579,-0.0182613
0.0814351,-0.0092051
0.0437808,-0.0181825
-0.0341593,-0.015653
-0.0814798,-0.00352156
-0.0892408,0.00677019
-0.056846,0.0323301
-0.0179853,0.0171494
-0.00702699,-0.00470579
-0.00936853,-0.00301343
-0.0246023,-0.00641765
-0.0481482,-0.0190361
-0.060182,-0.00921391
-0.0610377,-0.046521
-0.0666592,-0.0495882
-0.0604423,0.0195366
-0.00103373,0.0902897
0.0299341,0.0398255
0.0779557,-0.0770764
0.142024,-0.016217
0.144168,0.0556694
0.124168,0.018909
0.0906442,-0.00636425
0.0580855,-0.00196523
0.0266542,0.0358671
0.00616353,0.027316
-0.0270083,-0.00563364
-0.0595666,-0.0150759
-0.0723808,-0.0756721
-0.0713258,-0.0828997
-0.0635878,8.88e-05
-0.0518535,0.0634042
-0.0210579,0.0496597
-0.00227605,0.0329341
-0.0130026,0.0420144
-0.0123206,0.0356716
-0.00971994,-0.0464033
-0.0147007,-0.0475981
0.0242865,-0.0308521
0.0316007,-0.0617146
0.0166338,-0.0440903
0.0443041,0.0279338
0.0597987,0.0525253
0.0385957,0.0329541
-0.0107315,0.016743
-0.0467447,0.0131273
-0.019431,0.0287043
0.012354,-0.016171
0.00756047,-0.0313518
0.0312439,-0.000511516
0.0117895,0.00766391
-0.0384555,0.00409545
-0.0454107,-0.0250729
-0.0331201,-0.0481124
-0.0300603,-0.0267904
-0.0299129,0.00451197
-0.0105177,0.0124832
0.0059651,0.0114089
-0.00656149,0.00363785
-0.0221358,-0.0147633
-0.00877623,-0.0280813
0.0209705,-0.00715461
0.0230634,0.0311713
0.01426,0.0348251
-0.0013936,0.0021634
-0.00831216,0.0157798
-0.0298914,0.0844036
-0.0373943,0.0378336
-0.0131779,-0.0463588
0.00242011,-0.0323579
0.0409336,-0.0150153
0.0531725,0.0016318
0.0334061,-0.0347862
0.0484491,-0.0204332
0.0554268,0.0448686
0.0532549,0.0205368
0.0359157,0.000375089
0.00857895,-0.00805196
-0.0119535,-0.0240903
-0.0280266,-0.0115547
-0.0397586,-0.00694135
-0.0440703,-0.0111465
-0.0172065,0.0183691
0.0102649,0.0601867
0.00267961,0.0238362
-0.00917184,-0.00475657
-0.0127705,-0.0332449
-0.0478899,-0.0252531
-0.106431,-0.0190424
-0.0959039,-0.011401
-0.00472236,0.00438446
0.0476438,0.0116383
0.0505744,0.0608918
0.0526405,0.0493765
0.0635229,-0.0412072
0.0438212,-0.0454791
0.012201,-0.0278506
0.0139595,-0.0195766
0.0336182,0.0031263
0.0617005,0.0594154
0.0570889,0.0148556
0.00561817,-0.0553995
-0.0379512,-0.0314355
-0.0485002,-0.0031411
-0.0386254,0.0154523
-0.0278853,-0.0107344
-0.0336931,-0.00547353
-0.0361303,0.009925
-0.0376066,-0.00898192
-0.0378318,-0.0069552
-0.0130741,-0.00137188
0.0117979,0.0117015
-1.77e-05,0.0146458
-0.0122306,-0.00196928
-0.0189606,-0.014747
-0.0314941,0.0291626
-0.019111,0.105431
0.0199736,0.0588262
0.0643919,-0.0583192
0.0725685,-0.0861956
0.0160228,-0.0536617
-0.0385029,-0.0312529
-0.0532454,-0.0165033
-0.0128473,-0.0183534
0.0274454,-0.0166179
0.0483093,0.016857
0.0492956,0.0360815
0.0436501,0.0310493
0.0304111,0.0230703
0.0062906,0.0169096
-0.00637574,0.00111096
-0.0134031,-0.0122039
-0.0121266,0.00432255
-0.00343349,0.0181565
-0.00403252,0.0128114
-0.00395928,0.019021
-0.0093698,0.0218155
-0.0281406,0.0213561
-0.0511575,-0.0348543
-0.0411197,-0.0669921
-0.00911253,-0.0257472
-0.00148597,0.0205246
-0.00927657,0.0258321
-0.0098562,0.00279579
-0.00363043,-0.0398624
0.00575687,-0.00412391
0.00716767,0.0251982
-0.00181458,0.0110694
0.00369409,-0.0103739
0.0297655,-0.0195265
0.0400905,0.0115289
0.0233602,0.0242005
0.0166498,0.0198493
0.00133754,0.0103626
-0.0235387,0.00928737
-0.0476409,0.00440394
-0.0232742,-0.00590145
0.0024269,-0.00956023
0.00544692,-0.00717216
0.0420923,-0.00400039
0.082099,-0.00127042
0.0855762,-0.00235825
0.0633832,-0.0125585
0.0314406,-0.0144159
-0.0116664,-0.0172812
-0.0692886,-0.0143865
-0.103296,0.0120101
-0.113513,0.0205634
-0.097754,0.0161107
-0.0295523,0.0306178
0.00507372,0.0127948
-0.00526433,-0.0250217
0.0335313,-0.00866936
0.0547063,0.0170449
0.0665184,-0.00440343
0.063814,-0.0186938
0.046317,0.00125803
0.013138,0.0229842
-0.0156212,-0.00310671
0.000724043,-0.0281213
0.0313326,-0.0282883
0.0421853,-0.0458811
0.0387477,-0.0162419
0.00594444,0.0725782
-0.0338228,0.0647475
-0.0441538,-0.0338835
-0.0338974,-0.0407014
-0.0367392,-0.0190403
-0.0503044,-0.00957223
-0.0937499,-0.00319858
-0.101996,0.0182828
-0.0775476,0.0337806
-0.0155039,0.0283156
0.0604212,0.00912583
0.0927665,-0.0220482
0.0672396,-0.0268844
0.0230197,0.0257788
-0.0304229,0.0314341
-0.0667475,0.00672954
-0.0190459,0.0234022
0.0179333,0.0122458
0.0108255,0.00677816
0.00694973,-0.0326024
0.00227756,-0.0451098
0.011159,-0.0088957
-0.0126851,-0.0117518
-0.0317691,-0.00744176
0.00754753,0.00775961
0.0664245,0.007725
0.0817414,-0.0103729
0.0155061,-0.0136294
-0.0329896,-0.0107476
-0.0332898,-0.0176421
-0.0289863,-0.0113763
-0.0341474,-0.00426326
-0.00348023,-0.00019311
0.079314,-0.000954904
0.170149,-8.85e-05
0.180814,0.00944361
0.120844,0.015806
0.0386843,0.00733451
-0.0620934,0.0175769
-0.15026,0.0242858
-0.17084,-0.00288997
-0.115869,-0.0135032
-0.0269762,0.000556042
0.030416,0.0227987
0.0262111,0.0367951
-0.00648417,0.0458142
-0.0475504,0.000449034
-0.0831615,-0.059319
-0.0830847,-0.0401354
-0.0329062,-0.0131409
0.0375779,-0.00355474
0.0761788,-0.0166071
0.0582605,0.00330866
0.0359158,0.0472018
0.0442625,0.0314069
0.0498687,-0.00687417
0.0488483,-0.0156611
0.0564412,-0.00655807
0.0305726,-0.00220787
-0.0254683,-0.00493364
-0.0557881,-0.0171577
-0.0642285,-0.0211799
-0.0375308,-0.0102487
-0.00439456,-0.00225109
0.0123614,-0.00173828
0.0086705,-0.00304251
0.0115576,-0.000862706
0.00284831,0.00405524
-0.0236619,0.024107
-0.0341595,0.0139225
-0.0224996,-0.023713
-0.0205591,-0.0219576
-0.0313845,0.0137676
-0.0208151,0.00849582
-0.00832752,0.00879483
-0.00901985,0.0323607
-0.0117194,0.0378017
0.00833542,-0.00678861
0.0274164,-0.0102684
0.0154683,0.00720337
-0.0133287,-0.00728223
-0.0263496,-0.0308501
0.0140464,-0.0239065
0.082514,-0.0115889
0.107236,0.000298432
0.0531108,0.0389194
-0.00711434,0.0733121
-0.0336549,0.0331704
-0.0300435,-0.0378286
-0.0367448,-0.0330415
-0.0558721,-0.0129668
-0.0444173,0.0243485
-0.00904067,0.00906739
0.0295959,-0.0510427
0.0350963,-0.0256975
-0.00228206,0.0116831
-0.0274371,-0.00916866
-0.0258595,-0.0282817
-0.0279457,-0.00575094
0.00880196,-0.00290719
0.0822049,-0.00256529
0.10213,-0.000856841
0.0815476,0.0115482
0.0683655,0.0166451
0.0256625,0.00397734
-0.032238,0.00678388
-0.0605881,0.00449347
-0.0530295,-0.00924565
-0.0376434,-0.012953
-0.0506207,0.0131716
-0.0647326,0.0415836
-0.0535857,0.0314803
-0.0375868,-0.0209623
-0.0185208,-0.0458033
-0.00653883,-0.02366
-0.00844579,-0.00167568
0.025445,0.00822542
0.0549339,0.0213112
0.0532053,0.00929611
0.0154009,-0.00540815
-0.00538145,0.0353413
0.00264554,0.0613383
0.0314883,-0.0275159
0.0406173,-0.0529455
0.0527788,-0.020419
0.0447573,-0.0022908
0.00736237,0.00358416
-0.00962213,0.00974146
-0.0325983,0.000462813
-0.043895,-0.00438564
-0.0412877,-0.0017925
-0.0391681,-0.00558775
-0.0452094,0.0123044
-0.0541425,0.0175949
-0.0208811,0.0149903
0.0484283,-0.017265
0.0966134,-0.0134071
0.107395,0.00508044
0.0854609,0.00759178
0.033718,0.00426924
-0.0266333,-0.00819168
-0.0611696,-0.0155544
-0.0804709,-0.0139007
-0.0876527,-0.027382
-0.0797806,-0.0289452
-0.074258,-0.039867
-0.0571466,-0.0312217
-0.0191392,-0.0031401
0.0248571,0.00949171
0.0602235,0.0284223
0.0716211,0.0567202
0.0444593,0.053165
0.020684,0.00605055
0.0192304,-0.00399539
0.0255246,0.0152319
-0.00299049,-0.0207655
-0.0441118,-0.00819953
-0.0377629,0.0184147
-0.00888368,0.0410983
0.0135898,0.0243571
0.0333566,-0.0233785
0.02469,0.0300941
0.0073765,0.039075
-0.00458495,-0.0593079
-0.00707249,-0.031355
-0.0300164,9.27e-05
-0.0612223,-0.0070113
-0.0407699,1.1e-05
-0.00269318,0.0137769
0.0356844,0.00162984
0.0607795,0.0035194
0.0291164,-0.0159506
-0.0226443,-0.0290531
-0.0217498,0.0118192
0.0105574,0.0129142
0.00325656,-0.0146773
-0.0162946,-0.0158846
0.00726401,-0.019217
0.0222975,-0.0106202
0.0351717,-0.00450801
0.0483189,-0.00299556
0.0411083,0.030797
0.0231782,0.0302561
0.00509928,0.00663987
-0.00418298,-0.00991122
0.00881083,-0.00925007
0.0580981,-0.00730665
0.0854022,-0.0145811
0.0574482,0.00835274
0.000671386,0.0257197
-0.0447633,0.00468164
-0.0733179,-0.0204169
-0.115132,-0.0201612
-0.125298,-0.00911315
-0.0838771,-0.011909
-0.0458321,-0.0140873
-0.0474551,-0.0072802
-0.0467047,0.0267167
-0.0116232,0.0417354
0.0271536,0.0180136
0.037185,-0.000390504
0.0345736,6.36e-05
0.00629532,-0.0112585
-0.0137086,-0.0273411
0.00782783,-0.00780081
0.0323525,0.00248002
0.0545152,-0.0164058
0.0718249,0.00518772
0.0531435,0.0234837
0.00580998,0.0142226
-0.0141877,-0.00689115
-0.0199751,-0.0106064
-0.0301996,0.00753186
0.0181356,0.00364033
0.0777125,-0.00615535
0.0393668,-0.00085887
-0.0417156,0.0258227
-0.0655402,0.0114368
-0.0418151,0.0545498
-0.0338279,0.029713
-0.0313068,-0.0615168
-0.0186206,-0.04804
-0.00704818,-0.022005
-0.0147915,-0.0123378
0.0397514,0.0093819
0.0839474,0.0162589
0.0416772,-0.01064
0.0231479,-0.00137887
0.0219027,0.0104487
0.00250023,0.0051837
-0.0137272,0.00161147
-0.0232517,-0.0146153
-0.0243146,0.00107983
0.00328356,0.00554547
0.0123743,-0.0130212
-0.00152494,-0.0194277
0.00370152,-0.0014089
0.00851631,0.0145934
-0.042563,0.0110578
-0.118065,-0.00409563
-0.0907841,0.00372392
0.0206335,0.00496154
0.0932788,-8.25e-05
0.0848267,0.0220764
0.0601093,0.0179241
0.0410044,-0.0134893
-0.0211283,-0.00800579
-0.0766453,0.00175234
-0.0434275,-0.0306484
0.0235233,0.00637645
0.0616627,0.0416086
0.0622879,-0.00601344
0.0375227,-0.0257937
0.0355705,-0.0107988
0.031495,0.00551662
-0.00100823,0.00784178
-0.0450245,0.00394528
-0.0599418,0.0276242
-0.0532681,0.0176771
-0.0495568,-0.0237093
-0.0246854,0.00392547
-0.0031376,0.034011
-0.000363178,0.0308557
-0.00140509,-0.0274786
0.00174187,0.0225473
-0.00115526,-0.0236098
0.0120658,-0.0379272
0.0232258,-0.00102573
0.00659312,-0.0101606
-0.0273315,-0.0243277
-0.0551594,-0.0341168
-0.0687042,-0.0207836
-0.0636254,-0.0158324
-0.027002,0.0294049
0.0202135,0.0213927
0.0324778,-0.0228585
0.010572,-0.0345843
0.0289115,-0.00744642
0.0400389,0.0117624
0.0371684,0.0176847
0.0367439,0.01869
0.022873,0.00350021
0.0118172,0.0018226
0.0194766,0.0182494
0.0534855,0.0201285
0.0422831,0.008882
0.0144888,0.0182229
0.0170255,0.0446806
0.0131985,0.0288234
-0.0115076,-0.0422624
-0.0441603,-0.0390705
-0.0561153,-0.00241181
-0.0739414,0.00588552
-0.0444013,0.0232298
-0.00574588,0.0600417
-0.00422783,-0.0110156
0.0323069,-0.0903299
0.0640984,-0.0487997
0.0600131,0.0171486
0.0794851,0.0287957
0.0463794,0.0188074
-0.00370915,0.00859073
-0.046552,0.0135609
-0.0684898,-0.0188508
-0.0833957,-0.0327237
-0.106113,-0.0209533
-0.0826968,-0.001387
-0.0317353,0.0134834
0.00824213,0.0159917
0.0254503,0.00130416
0.0549287,-0.0234103
0.064613,-0.0212322
0.0373118,-0.0062826
-0.0131495,-0.0081217
-0.0362721,-0.0132297
-0.0465296,-0.0103433
-0.035756,0.0246249
-0.0121611,0.0415663
-0.00989515,0.0362957
0.0330929,0.030428
0.085787,0.0492224
0.0724231,0.026915
0.0344715,-0.045826
0.0151973,-0.0232314
0.0357449,0.0174446
0.0797406,-0.0213189
0.0808385,-0.0448629
0.053267,-0.0310859
-0.0136974,-0.0181474
-0.120619,0.0544817
-0.161596,0.0242019
-0.112305,-0.0637627
-0.0406032,-0.0169328
0.0344288,0.0145592
0.0626991,0.0565334
0.0467623,0.045925
0.0206147,-0.0438273
-0.0213463,-0.0421245
-0.042232,-0.00544774
-0.0381669,-0.00276789
-0.0133645,-0.00419165
-0.0108918,-0.00269245
-0.039064,-0.0239167
-0.0435216,-0.0312756
-0.0533505,0.00331177
-0.0268827,0.0175613
0.00208084,0.01699
0.0190867,0.0126502
0.0396729,0.00716119
0.0434849,0.0127189
0.0479396,0.00673492
0.0825654,-0.00977502
0.0683764,0.0197156
0.0145005,0.0167402
0.0186029,-0.0277677
0.0232708,-0.0132789
0.0103579,-0.0220876
0.00861578,0.0386264
-0.00360109,0.0752101
-0.0358387,0.0261256
-0.0591175,-0.0256227
-0.049208,-0.0145038
-0.00655317,-0.0180499
0.0233912,-0.0192553
0.0372438,0.00639916
0.0537669,0.00576958
0.0737425,-0.00478487
0.0719895,-0.00483331
0.04792,-0.00416203
-0.0145184,-0.0209758
-0.0433453,-0.0218069
-0.0426387,-0.000953422
-0.0407511,0.00697914
-0.0244388,-0.00943394
-0.0186232,-0.0090944
-0.0436613,0.0142041
-0.0451206,0.0205638
-0.0463986,0.0150694
-0.031542,0.0107926
0.00114472,-0.0214446
0.00890379,-0.0265194
-0.0207426,-0.0139678
-0.0369822,-0.0197919
-0.0463073,0.0136543
-0.0175625,0.0374253
-0.00659401,0.0105397
-0.027776,-0.00443298
-0.0222549,0.0133521
0.0163123,0.021894
0.0540012,0.00712899
0.0695348,-0.00877806
0.0815235,-0.00904151
0.144613,-0.00250962
0.153707,0.00444908
0.061542,-0.0154847
-0.021933,-0.0215433
-0.0864629,0.00616861
-0.100266,0.0045705
-0.0960872,0.000152016
-0.0565678,-0.0166547
-0.00123227,-0.00608145
0.0222961,0.00863114
-0.0243258,0.000263609
-0.0885728,0.0207267
-0.118296,0.0124532
-0.0647018,0.0312915
0.00293742,0.00825967
0.0448969,-0.0368364
0.0203456,0.00912488
-0.0159405,0.0407835
0.00330867,0.00831722
0.0645026,0.0115143
0.143716,0.0452135
0.18318,-0.0220769
0.146472,-0.0383201
0.0757829,-0.0572793
0.00820259,-0.0792719
-0.0163422,-0.023806
-0.0606721,0.024648
-0.0949005,0.00958262
-0.0812389,-0.0142715
-0.0669384,-0.0137503
-0.0586603,-0.00496745
-0.039349,0.010115
-0.0277166,-0.00392511
-0.0337853,-0.0111993
-0.0618546,-0.0111671
-0.0933555,-0.00682079
-0.0923633,0.000967545
-0.0316344,0.0404417
0.043822,0.0432738
0.0688901,0.0317902
0.066628,0.0131159
0.0901612,-0.0260536
0.0890099,0.00226868
0.0282577,0.015283
-0.00639836,0.00284147
0.0133412,0.00321037
-0.0358838,0.0121861
-0.0771352,-0.00194979
-0.0207749,-0.00979202
0.0867408,-0.0074211
0.161775,0.00987753
0.13407,0.0212959
0.113955,0.000923869
0.0606948,-0.0150111
-0.00291636,0.0162656
-0.0438745,0.065965
-0.0599511,0.0531952
-0.0612627,-0.00422469
-0.0359748,-0.0448533
-0.0509889,-0.0193877
-0.0844211,-0.0165161
-0.0832521,-0.031526
-0.0587512,-0.0275605
-0.0415819,-0.0328682
-0.0765893,-0.0233889
-0.102691,-0.0122351
-0.0501412,-0.00651911
-0.00701955,-0.00285373
0.0328383,-0.00160136
0.0581733,0.0096149
0.0559779,-0.0122799
0.0243266,-0.0162293
0.0107485,0.00549696
0.00317414,0.0185973
-0.00356022,0.0127889
0.0209544,0.00940223
0.0190928,0.00113818
0.0213449,0.00497758
0.0775632,0.0124398
0.061145,-0.0262109
0.0188635,-0.0280861
-0.0147178,0.00363415
-0.0242674,-0.000560256
-0.00431813,0.0104607
-0.00013334,0.0427639
0.0154667,0.0409278
-0.00259845,0.0287686
-0.0612553,-0.000197142
-0.101225,-0.0298921
-0.0961861,-0.00327002
-0.0278049,0.0673942
0.102915,0.0557154
0.158126,-0.0624862
0.0965979,-0.0500006
0.0419201,-0.01937
0.0393492,-0.0190277
0.019974,-0.027038
-0.0257224,-0.0325387
-0.0535495,-0.0153659
-0.0591052,0.00461052
-0.0491003,0.0273838
-0.0550151,0.00181353
-0.0554086,0.00799736
0.0186731,0.00538018
0.0927856,-0.0152496
0.0954054,0.0296437
0.0634605,0.0262296
-0.00269069,-0.00810634
-0.00346453,0.00818554
0.0286644,0.0574178
0.0282059,0.0213291
-0.00801509,-0.0329842
-0.0472231,-0.0215027
-0.0985498,-0.00894926
-0.147356,0.0014259
-0.134341,-0.0315009
-0.0841172,-0.0194006
-0.0176909,0.00841511
0.0313016,0.00949547
0.0368272,-0.00141786
0.0304297,-0.0108012
0.015001,-0.00572808
0.0156485,0.00761961
0.0303095,0.00299827
0.039142,0.00245529
0.0441613,0.00568253
0.0237193,-0.00604447
0.00507118,-0.00645119
-0.0137264,-0.00286798
-0.0323462,-0.00749525
-0.0452347,-0.00899564
-0.0280697,-0.00177764
-0.00509664,0.014961
0.0208292,0.00340913
0.0643133,-0.0147612
0.112985,-0.0182898
0.0797346,0.00753601
0.00954528,0.0333303
0.000506161,0.0368447
0.0354763,-0.0151756
-0.0290704,-0.0529888
-0.0869893,-0.000620677
-0.0318505,0.0298479
0.00805639,0.0296307
0.012904,0.032994
-0.0269157,0.0176594
-0.055572,-0.00529785
-0.0697371,-0.0176141
-0.0779613,-0.00990965
-0.00820726,-0.00170926
0.0454659,0.00669463
0.0658705,-0.0120311
0.101369,-0.0113794
0.0625235,-0.0238204
-0.00337381,-0.0419712
-0.0344317,-0.00698171
-0.0387059,0.0244397
-0.035056,0.0240055
0.0128207,0.00819843
0.0515206,0.0392722
0.0590478,0.0615281
0.0638382,0.0253226
0.0329324,-0.0479739
-0.0194361,-0.0382583
-0.0710704,-0.0159385
-0.0783291,-0.0223197
0.038058,0.0323544
0.0375489,0.00184898
0.0277894,-0.00434407
-0.00238197,-0.0106679
-0.0359083,-0.0309231
-0.0745777,-0.0390802
-0.103804,-0.0338662
-0.111483,-0.0159248
-0.0558849,0.00963271
-0.00809785,0.0029446
-0.00487611,-0.00545361
-0.0116446,0.0114359
-0.0179893,0.0352967
0.00833014,0.0403651
0.0761831,0.0145644
0.173435,0.0129364
0.241355,0.00912146
0.207466,0.0144608
0.170466,0.025448
0.0789532,0.030499
-0.065164,-0.00483333
-0.157565,-0.0639727
-0.240319,-0.0427015
-0.276883,0.0514138
-0.202367,0.0390737
-0.0767887,-0.0510814
-0.00528494,0.00215648
0.027652,-0.0254795
0.0758181,-0.0624056
0.0708042,-0.00271162
0.0318813,0.00441726
0.0131145,0.00433693
0.0361737,0.0328339
0.0573411,0.0547817
0.0556016,0.0390349
0.0645109,0.00410695
0.0651125,-0.0180494
0.0302805,-0.0283004
-0.0229501,-0.0374733
-0.0654719,-0.0268931
-0.0922826,0.00441892
-0.0670654,0.00916777
-0.0267765,0.006991
-0.0213835,-0.01059
-0.0171798,-0.0226078
0.0061792,-0.0102158
0.0173617,0.00360355
0.0499275,0.00368836
0.0876341,0.000626269
0.081637,0.0183032
0.0294442,0.0111587
-0.0259644,-0.0152088
-0.0442441,0.00558063
-0.0426214,0.0149154
-0.0379372,-0.0254382
-0.041328,-0.047511
-0.0279445,-0.0300043
-0.00273219,-0.00463933
0.0218593,0.0242871
0.00924289,0.0492409
-0.0298907,0.0310355
-0.0146904,-0.0117327
0.0303795,-0.00379574
0.085057,0.0414583
0.0988034,0.0610624
0.0437388,0.0562424
-0.0215833,0.0101844
-0.0467364,-0.00280631
-0.0614689,-0.00799736
-0.0736033,-0.0199034
-0.0778585,-0.0481795
-0.0602786,-0.0392147
-0.012167,0.0106084
0.0396446,0.00683789
0.0638642,-0.0368913
0.0409628,-0.00853923
0.0729556,0.00662461
0.0651139,-0.013961
0.0491227,-0.0232876
0.0197764,-0.0100444
-0.0171031,-0.0017633
-0.0486293,0.00485083
-0.0363933,0.014045
-0.00242303,0.0183752
0.0037528,0.0167565
0.00682438,0.0207191
0.0253464,0.0129741
0.0301442,0.00235347
0.0188835,-0.0151873
0.014252,-0.028335
-0.00393332,-0.0310557
-0.0311133,-0.00783809
-0.0462882,0.0230333
-0.0438084,0.0183601
-0.0641335,0.00463429
-0.0474222,-0.0078116
-0.00542386,-0.0090295
2.14e-05,-0.001647
0.0158484,0.000846793
0.0734251,-0.00422313
0.104219,0.00421902
0.0855475,0.0245487
0.0765781,0.0135961
0.0372711,-0.00214188
-0.0339466,-0.00447231
-0.0872699,0.00445983
-0.11602,-0.00122867
-0.114666,-0.0258626
-0.0806139,-0.0324398
-0.0522309,-0.0248308
-0.0281431,0.00787427
0.00361479,0.0120674
0.00798633,-0.00178037
-0.0230564,0.00591673
-0.0255888,0.00900896
-0.0101758,0.00963952
-0.000533778,0.0170817
0.00908564,0.0258619
0.0318515,0.0132148
0.0746622,-0.0292462
0.057903,-0.0369027
0.031085,-0.000165224
0.0451051,0.0345722
0.0744147,0.0269908
0.0931219,0.00154901
0.0949345,-0.0279898
0.0487091,-0.0113031
0.0201431,0.0367517
0.00853975,0.00916956
-0.0134499,-0.0375918
-0.0400118,-0.0168874
-0.0634392,-0.00331725
-0.0648183,0.00771303
-0.0883155,0.0409806
-0.0857112,0.0332378
-0.0433269,-0.0046246
0.0152895,-0.0028896
0.0161362,-0.0168678
-0.0140199,-0.0306858
-0.010598,-0.0232181
-0.018022,-0.0153696
0.00698958,0.00526027
0.0630125,0.0172807
0.0725756,0.00303129
0.0368482,-0.00795206
-0.00361391,-0.0160606
-0.0613123,-0.00831879
-0.110487,-0.0171836
-0.0817075,-0.0143125
0.00494656,0.0332894
0.0236086,0.0482477
0.0075254,-0.00678076
0.0030118,0.00307436
-0.0122137,0.0104649
0.0157635,-0.00210338
0.0378791,-0.00747224
0.0524057,0.00420736
0.112868,0.00934388
0.138488,0.0157093
0.0899369,0.00218541
0.0373325,-0.0277878
0.00375715,-0.0338459
-0.0236011,-0.00642154
-0.0650831,-0.00328701
-0.0869865,-0.0175189
-0.0797203,0.00623856
-0.05227,0.0219865
-0.046319,0.0377718
-0.054081,0.0176303
-0.0504503,-0.00513872
-0.0450245,-0.00124679
-0.0376947,-0.0247592
-0.0204934,-0.0210539
-0.0110791,-0.00489321
-0.00943142,0.000823115
-0.00641755,0.00696388
-0.0187538,0.0109147
-0.00766594,-0.00264379
0.00895325,-0.0115208
0.00989524,-0.00105612
-0.00152824,0.0142264
0.00431244,0.0038365
0.0632863,-0.0196196
0.113114,-0.0189227
0.115237,0.00308022
0.0840028,0.0168932
0.045987,0.0238646
0.0100833,0.0201784
-0.0132732,0.000830932
-0.0236308,0.0179287
-0.0210537,0.0146562
0.00734221,-0.0132466
0.0251641,-0.0159968
-0.0248965,-0.0179498
-0.0715549,-0.0156551
-0.0768445,-0.00266395
-0.0610661,-0.00299454
-0.0436264,-0.0105215
0.00874382,-0.0165586
0.0797145,-0.00979924
0.0848635,0.00164796
0.0575641,-0.0153863
0.0415538,0.00947778
0.00246004,0.037294
-0.0412241,0.00722022
-0.0537954,0.00337417
-0.0628365,0.00807682
-0.0615055,0.000309324
-0.0122576,-0.00619461
0.025871,-0.0116837
-0.001949,-0.0161358
-0.00155895,-0.0107467
0.00492918,-0.00332725
-0.0193979,-0.0246174
-0.0417116,-0.0265099
-0.0164193,0.00352153
0.0423961,0.0559801
0.0708108,0.102376
0.0760156,0.0473001
0.0515246,-0.0524912
0.0143812,0.0244284
-0.00991898,0.0859782
-0.0139764,-0.0813529
-0.0389567,-0.0802793
-0.0708271,-0.00856968
-0.0418957,0.000518559
-0.0131952,-0.00168217
0.00126757,-0.00368268
0.0286818,-0.0105085
0.0360515,-0.00908402
0.0550443,-0.0138619
0.0479361,-0.0122561
0.0361794,0.0112034
0.0195999,0.00457258
-0.0111494,-0.00757528
-0.0183271,-0.00224426
-0.0301234,0.0164235
-0.0425055,0.0147268
-0.0226747,0.00261597
-0.0143027,0.0120371
-0.0298439,0.00892878
-0.0180505,0.00484325
0.00146118,-0.00106743
-0.0100184,-0.0168357
-0.0154365,0.0127153
-0.00827998,0.0308199
-0.0241751,-0.0136804
-0.0556598,-0.0236326
-0.0476713,-0.00754754
-0.000993362,-0.00996349
0.0274947,0.00499669
0.0242451,-0.00371912
0.0239681,-0.00876093
0.0225792,-0.00298346
0.00642999,-0.00104038
-0.00236173,-0.00148086
-0.00477961,-0.000954233
-0.00839867,0.00656172
0.0242158,0.0169229
0.057055,0.00430926
0.0333077,-0.00324914
-0.00775032,-0.00347973
-0.0266983,-0.0035542
-0.0364713,-0.00378023
-0.0249868,-0.00695618
0.00180981,-0.0106929
0.0236017,-0.0178446
0.0300184,0.00854496
0.0397227,0.0642641
0.0492376,0.0256125
0.0479025,-0.0394548
0.0331166,-0.0323458
0.00438085,-0.0200774
-0.0269389,-0.00935458
-0.0426536,0.0218093
-0.0224144,0.0865333
-0.00525373,0.0538645
-0.00327047,-0.047697
-0.00738079,-0.0198132
-0.0258771,0.00992973
-0.0220672,-0.0160533
-0.0110245,-0.0200763
0.00780247,-0.0288629
0.0385678,-0.0198978
0.0349211,0.00517742
-0.00508275,0.00923119
-0.0174185,-0.00521842
-0.0213354,-0.00366462
-0.0319094,-0.00986358
-0.0308221,-0.0231854
-0.037583,-0.00180039
-0.0308556,0.0253684
0.00480631,0.0189739
0.0184808,0.00647975
0.00049796,0.00267364
-0.0140642,-0.00739451
-0.0170083,-0.0157557
-0.022792,-0.018643
-0.0273664,-0.00514159
0.00192593,0.0180012
0.0735428,0.0224762
0.0912312,0.0153284
0.0585535,0.0201565
0.0076886,0.0318578
-0.0189065,0.0155115
-0.0154539,-0.0273587
0.0130129,-0.0269556
0.0465393,-0.00552518
0.108939,0.00366764
0.14353,0.0146998
0.0967878,0.0024137
0.00875714,-0.00846923
-0.0592046,-0.00261772
-0.131072,0.00808273
-0.171281,-0.00234076
-0.160214,-0.0104413
-0.109503,-0.0102737
-0.0416968,-0.00844645
0.0187255,0.00260128
0.0416344,-0.00565067
0.0204559,-0.00311163
-0.0101745,-0.0113472
-0.0164049,-0.0323444
-0.0243796,-0.027872
-0.0373288,-0.00368794
-0.00332646,0.015211
0.0333241,0.0189134
0.0319592,0.0151432
0.0222151,0.012517
0.0222994,0.0115724
0.0127936,0.00627053
0.00346714,0.0192811
0.0114934,0.032947
0.036134,-0.00938618
0.0421727,-0.0233544
0.0350824,-0.00222347
0.0301821,-0.00738365
0.0166195,-0.0211319
-0.00372509,-0.0102383
0.000652092,0.00202418
-0.00726525,0.00954393
-0.00714608,0.0206984
0.0011215,0.00735325
-0.000276282,0.0178032
-0.0129669,0.0427134
-0.00333717,-0.024708
-0.0074911,-0.0578877
-0.0268279,-0.0105243
-0.0321699,0.0512123
-0.00666074,0.00792347
0.024644,-0.0448621
0.0370011,-0.0232213
0.0398996,0.00568291
0.02225,-0.000823502
-0.00327961,-0.0114033
-0.0204429,-0.0112647
0.00173193,-0.0037135
0.0258422,0.000426579
0.056553,0.00853667
0.0632568,0.0052744
0.0213352,0.00158266
-0.0307945,0.00515149
-0.0595279,0.000698706
-0.0764871,-0.00657893
-0.0798978,-0.0131552
-0.065425,-0.00650169
-0.0416947,0.0143412
-0.0190596,0.0186021
-0.00550024,0.0128978
-0.000822312,0.004672
0.00336968,-0.00338448
0.0122474,0.0150435
0.0178753,0.0227421
0.00728164,0.00184445
-0.0184548,0.0053269
-0.00475066,0.0207726
0.0199215,-0.00102213
0.0290805,-0.00821965
0.0255512,0.00266758
0.0124702,0.00675403
-0.00130386,-0.00463506
0.00276688,-0.035347
0.013696,-0.0229793
0.024413,0.000577817
0.0235984,0.00561092
0.0160918,-0.000358995
0.00538176,-0.00853174
-0.0185589,-0.00956843
-0.0286266,-0.0118904
-0.00679286,-0.00504196
0.00461997,-0.00171173
0.0187111,-0.00216414
0.0455915,0.00221993
0.0604454,-0.00490474
0.063037,-0.00809547
0.0429134,0.00682667
0.0203237,0.00610416
0.0105995,0.000236119
-0.0178025,0.0247631
-0.0541771,0.0418843
-0.0552035,0.0150978
-0.054465,-0.00328472
-0.0533149,-0.00386868
-0.055568,0.00017427
-0.0621197,0.000909836
-0.0462275,-0.00207782
-0.0071569,-0.00804056
0.0153445,-0.0099988
0.011505,0.00310741
0.0114632,0.0090297
0.00748484,0.00143769
0.000657466,-0.00285312
0.0116168,-0.0012745
0.02729,-0.00510003
0.0217537,-0.0108098
0.0139031,0.00341343
0.0197851,0.00776651
0.0227629,-0.00754882
0.0137808,-0.011586
0.0128582,-0.00206989
0.00768195,0.00544742
-0.00282456,-0.010019
-0.0117581,-0.00756936
-0.00941483,-0.00370776
-0.0136818,-0.00971258
-0.00786302,-0.00193961
-0.00177026,-0.000867844
-0.0153856,-0.00488812
-0.0138717,-0.00766268
-0.0101311,-0.000751977
-0.00678223,0.0131436
0.00485555,-0.0131525
0.0288394,-0.0295728
0.0339565,0.00674674
0.0208168,0.000855306
0.00531741,0.0139951
-0.00651935,0.0337982
-0.0336439,-0.0147684
-0.0660546,-0.0233084
-0.0445504,0.00812447
-0.0159995,0.0234836
-0.00130175,0.0316769
0.0271291,0.0141189
0.0486056,-0.00805388
0.0424035,0.00417678
0.0223694,-0.0024456
-0.00582692,-0.00892126
-0.0241108,-0.00883775
0.0020466,-0.0112619
0.0588725,-0.00578274
0.106968,-0.00284525
0.0904788,-0.00664907
0.0363076,0.0180143
-0.0246498,0.0194315
-0.0922162,0.0123255
-0.109596,0.00875313
-0.0451347,-0.00898021
-0.0233423,-0.0332707
-0.0163846,-0.0179526
-0.0012932,0.00492707
-0.0327813,0.00286016
-0.0620123,-0.00468563
-0.056706,-0.00145059
-0.0397724,0.00185311
-0.0104797,-0.00596456
0.0321741,-0.0175853
0.0811551,-0.0243546
0.114607,-0.00514875
0.0950701,0.0416805
0.07371,0.0549793
0.0448157,-0.00236594
-0.0189144,-0.017618
-0.0555484,0.00572263
-0.0661578,0.0167339
-0.075308,0.00352192
-0.0532944,-0.00229992
0.00607181,0.0051412
0.0606624,-0.00289379
0.0688156,-0.0126504
0.0464313,0.00961486
0.013065,0.0114279
-0.0438681,-0.0202216
-0.0961411,-0.010825
-0.098279,0.0209071
-0.074421,0.0174614
-0.0263205,-0.0122186
0.0259867,-0.0344471
0.0387633,-0.019135
0.0251736,-0.00551101
0.00904188,-0.00367709
-0.0128943,-0.00988012
-0.0164659,-0.0115504
0.00783964,0.00203307
0.0215379,0.0112532
0.0108285,0.0193777
0.00503819,0.0153709
-0.000633158,-0.00286804
-0.0179838,-0.010342
-0.0328963,-0.00938055
-0.0180797,0.00108839
0.00645542,0.0101424
0.0407713,0.0092768
0.104506,0.0066664
0.158484,0.0107978
0.166372,0.00864396
0.134171,-0.0135658
0.0633034,-0.0155295
-0.0076936,0.00149189
-0.0572871,0.00563225
-0.0880379,-0.00166236
-0.113415,-0.00339293
-0.128203,-0.00015494
-0.110286,0.00479644
-0.0863637,0.000537741
-0.0737294,0.00620321
-0.0562341,0.0105313
-0.0232969,-0.0047176
-0.00777463,-0.00697643
-0.0216018,-0.00393742
-0.0187931,7.18e-05
0.0212214,0.00281634
0.0476124,-0.00169538
0.0589063,-0.00523243
0.067601,-0.00250769
0.049767,0.0312174
0.0312216,0.0674558
0.0152375,0.0214813
-0.0151344,-0.0473796
-0.0251984,-0.0314004
0.0105547,-0.00711941
0.0529939,-0.0177898
0.0918138,-0.0387738
0.0993823,-0.0210646
0.0674686,0.00619743
0.00486809,0.0161177
-0.0667784,0.0202558
-0.108194,0.00914975
-0.113448,-0.0150607
-0.0854066,-0.00623104
-0.0344911,-0.00139465
0.0126237,-0.000821123
0.020093,-0.00177759
0.0101027,-0.00149061
0.0129908,0.00664906
0.00857799,0.00762205
0.00549408,0.0166633
0.00150027,0.0044394
-0.0233796,-0.0185409
-0.0595428,-0.0117714
-0.0532715,0.00482806
-0.0477495,0.0150173
-0.0514159,0.0115861
-0.0328736,-0.00456185
-0.0188493,-0.014842
-0.022984,-0.00434497
-0.0237612,0.00220286
-0.00290873,-0.000612324
0.0410419,-0.00486421
0.111967,0.00216492
0.221862,0.0165169
0.285126,0.0102186
0.24551,0.00256927
0.17759,0.00135488
0.0910199,-0.0143766
-0.0107269,-0.0213165
-0.074083,-0.0126972
-0.0944405,0.00927613
-0.104004,0.0192664
-0.132389,0.00833408
-0.169644,-0.00313796
-0.195502,-0.009676
-0.194264,-0.0122224
-0.164208,-0.0163984
-0.135885,-0.013497
-0.106384,-0.00825705
-0.0359852,-0.00151801
0.0458724,0.0220079
0.0727309,0.0418699
0.0816079,0.0258231
0.074669,0.0100313
0.0990153,-0.0117556
0.189022,-0.0133297
0.280041,-0.00044869
0.255791,-0.00652174
0.0988499,-0.00288464
-0.0355177,-0.0054118
-0.0981804,-0.0154921
-0.136344,0.00891758
-0.112292,0.0204242
-0.0525615,0.00554853
-0.0507044,-0.00450603
-0.0321577,-0.00277111
0.0581072,0.00311901
0.061982,0.00784879
-0.0134004,0.0139021
-0.0648312,0.0120232
-0.117741,0.00075958
-0.136929,-0.0286057
-0.134814,-0.0323971
-0.131083,-0.0204274
-0.0885864,-0.0128871
-0.0516836,0.0334073
-0.0221175,0.0749433
0.0157018,0.00139324
0.0391055,-0.0582833
0.0101263,-0.0420662
-0.0170163,-0.020418
-0.0159815,-0.0333719
0.00245646,-0.0184944
0.102896,0.0282722
0.233675,0.0360231
0.350651,0.0285847
0.420653,0.0150444
0.367816,0.00115244
0.173227,0.00491148
-0.0628131,0.00351308
-0.262007,-0.00864057
-0.357525,-0.0158784
-0.390791,0.0186457
-0.341808,-0.00612814
-0.265421,-0.0124819
-0.0848649,0.0218927
0.184824,0.00208046
0.320268,0.00640162
0.399795,0.0176632
0.460387,0.0114081
0.340308,-0.00589696
0.101372,-0.0163423
-0.21273,-0.0112965
-0.454704,-0.0156783
-0.566899,-0.0312155
-0.532806,-0.0337083
-0.368922,-0.0299687
-0.129419,-0.0215486
0.149975,0.028894
0.421601,0.0758922
0.530076,0.0573484
0.42228,0.00713131
0.238829,-0.00699023
0.0181822,0.0120961
-0.15505,-0.0225239
-0.247478,-0.0336899
-0.307952,-0.00118468
-0.252628,0.0207945
-0.0193973,0.0195484
0.256752,0.0189736
0.308037,0.00155133
0.169284,-0.0274668
-0.0177273,-0.0256989
-0.203966,-0.00697955
-0.268157,0.00829891
-0.297283,0.00207147
-0.29309,-0.0153055
-0.175415,-0.0173131
-0.0794253,-0.0110766
-0.0713459,0.00915938
-0.0317083,0.00465432
0.0230479,-0.000641122
0.166022,0.00400708
0.329552,0.00641037
0.355201,0.0248806
0.387167,0.0329389
0.437651,0.0268364
0.383128,-0.00702881
0.203605,-0.0254643
-0.0151705,-0.0177125
-0.118109,-0.0154905
-0.152126,-0.0104783
-0.215717,-0.00207132
-0.216913,0.00709928
-0.204053,0.00466177
-0.234468,-0.00551137
-0.277438,-0.0142925
-0.285198,-0.0159228
-0.264329,-0.0160151
-0.205328,-0.00323506
-0.140746,0.0117695
0.0031295,0.0102113
0.101888,-0.0014299
0.196541,0.000386131
0.299145,0.0117781
0.347764,-0.00394583
0.33708,-0.000899082
0.254442,0.0141453
0.159374,0.00874113
0.0993558,-0.00832919
0.0687881,-0.0116396
0.0113092,0.00990067
-0.106864,0.00975604
-0.206773,-0.00299378
-0.166658,-0.0199612
0.0523428,-0.0177609
0.210531,0.0353735
0.136711,0.0441826
-0.0593391,0.0193102
-0.252394,0.00434368
-0.330764,-0.00632525
-0.353625,-0.0304023
-0.334928,-0.040738
-0.214888,-0.0267577
-0.0692245,0.00255433
0.0608125,0.0123082
0.127128,0.00478382
0.1265,0.00517127
0.106244,0.00679338
0.0713113,-0.00895557
0.00749724,0.0198843
-0.0481197,0.0320892
-0.0841546,0.0330662
-0.0903981,-0.0027354
