Comp Ch 3,Comp Ch 4
-0.039141,-0.00971449
-0.0826488,-0.015381
-0.0705441,0.00420244
-0.0308277,0.01647
-0.0101832,0.014969
0.00951054,0.00564416
0.0217778,-0.00513588
0.011977,-0.00739137
-0.0185065,-0.00308025
-0.0369238,0.00691508
-0.0616128,0.0122937
-0.056284,0.010555
-0.0172762,0.00561085
-0.00674123,0.00257634
-0.00422408,-0.00496994
0.00179556,-0.00359986
0.0145264,0.00294861
0.0203639,-0.00737292
0.0187077,-0.0171255
0.0298196,-0.00501057
0.0481999,0.00119508
0.037251,-0.00257239
0.0212651,0.00538525
0.0121406,0.00352933
0.00743073,0.00548844
0.0231504,-0.0219103
0.0534917,0.00480729
0.0555889,0.0192817
0.0501767,0.0116266
0.0257593,0.0501191
-0.00409185,0.0175516
-0.0308472,-0.0201058
-0.0321567,-0.0134697
-0.0329855,-0.0167037
-0.0576282,-0.0255526
-0.0572422,-0.0221622
-0.0129863,0.0055344
0.0204788,0.0406087
0.0299602,0.0275282
0.0279696,-0.000942307
0.015945,-0.0202803
-0.00610344,-0.0172899
-0.0258588,0.0120056
-0.0362981,-0.00644334
-0.0344424,-0.00133116
0.00348189,0.0219235
0.0300914,0.0215812
0.0289597,-0.00737831
0.0256292,-0.0163588
0.0285951,-0.0261342
0.026187,-0.030494
-0.00817651,-0.0129033
-0.0155563,-0.014431
0.00205381,-0.00736785
-0.00712433,0.0282429
-0.0130551,0.0444603
-0.0124347,-0.00285645
-0.0306168,-0.0107275
-0.0418604,0.00584145
-0.0322468,0.0136877
-0.0284022,-0.00889507
-0.0219749,-0.00336896
-0.00991273,0.0114925
0.00992517,0.00168367
0.0094221,-0.00790367
0.0156053,-0.00534941
0.0120059,-0.00623292
-0.00949692,-0.0108588
-0.0296833,-0.0245949
-0.0212546,-0.0145928
0.00536586,-0.00119923
0.0112664,0.00221208
0.00934029,0.0423039
0.0134786,0.0576959
0.0256763,0.0201931
0.0462286,-0.0103357
0.0496966,-0.0208935
0.00951095,-0.0148938
0.0283398,0.0247898
0.128935,0.00520879
0.17977,-0.0473009
0.163212,-0.0337523
0.0866627,-0.00457614
-0.0289047,-0.00262802
-0.125785,-0.00481995
-0.184336,0.0037084
-0.158803,0.0127412
-0.0686485,0.0172775
0.0182491,0.0177758
0.027837,0.00401498
-0.033944,-0.0125462
-0.0962259,-0.0127533
-0.0895266,-0.00588725
-0.066778,-0.00664623
-0.0835558,-0.00658896
-0.0771437,0.0115026
-0.0634551,0.0303451
-0.0430474,0.0120996
-0.00458353,0.016061
0.0338659,0.0156737
0.0401782,-0.0198005
0.0341394,-0.0238337
0.0345531,0.00225082
0.0518857,0.00384949
0.0599848,-0.0318201
0.0600393,-0.0376119
0.0525699,0.00258533
0.0250806,0.0134221
-0.0114868,-0.00648612
-0.0357409,-0.00557151
-0.0299716,0.00126799
-0.00619239,0.00191004
0.0377931,0.00541205
0.0698732,0.00218498
0.0777673,0.00867949
0.140313,0.0241255
0.1757,0.0112242
0.129938,0.0171296
0.0540092,0.0184538
-0.0351721,-0.0113251
-0.110396,-0.00761505
-0.138075,-0.0027494
-0.107932,-0.000340957
-0.0723299,-0.00937555
-0.0576662,-0.0177876
-0.0658921,-0.0239043
-0.0763411,-0.00860966
-0.0636244,0.00847076
-0.0127316,0.0135257
0.0368851,0.0146253
0.0402574,0.0260278
0.0204054,0.0448906
9.78e-05,0.0142686
-0.035205,-0.0372005
-0.0488412,-0.0561436
-0.049729,-0.0366525
-0.0162416,0.0106958
0.0558194,0.0258749
0.128441,-0.00191697
0.157277,0.0116216
0.101485,0.0348779
0.0182724,-0.00249565
-0.0174992,-0.0427074
-0.0117048,-0.036594
-0.0133089,-0.0168226
-0.0164658,0.00662596
-0.029555,0.0121347
-0.0526749,0.00629884
-0.0590066,0.0114148
-0.0409752,0.0457809
-0.0147432,0.0227506
-0.00619277,-0.0391995
0.0216755,-0.0196568
0.0774371,0.00867205
0.089494,0.00157641
0.0287474,-0.01224
-0.0504854,-0.0140005
-0.0953157,-0.0012723
-0.0975325,0.000841765
-0.0760089,-0.00963879
-0.0532266,-0.0103906
-0.0252207,0.00620537
0.0101903,0.0194255
0.028198,0.0293301
0.04312,0.0394704
0.0765028,0.0179016
0.131703,0.0063672
0.141439,0.005708
0.0770916,-0.0274412
-0.0093876,-0.012838
-0.0941425,0.0176526
-0.158039,0.0386534
-0.116438,0.0120597
-0.0443028,-0.0821426
0.0117965,-0.0364275
0.0443355,0.0051912
0.0661006,0.00692618
0.0823622,-0.00987641
0.0995458,0.000128815
0.0779359,0.0137027
0.0107296,-0.0167171
-0.0656637,-0.0228159
-0.101834,0.00467787
-0.0969135,0.0028772
-0.0906194,0.00983049
-0.0828667,0.014323
-0.042015,0.00254878
0.000422579,0.0273088
0.0186063,0.0422271
0.0312807,-0.0262032
0.0235875,-0.0468937
0.0082974,-0.0244242
0.00964641,-0.00389745
0.00186368,0.00727545
-0.00516732,0.00399669
0.0276477,0.019657
0.062875,0.0153671
0.0642501,0.0048137
0.0701538,0.00675499
0.0830061,0.00399464
0.0404496,0.000737197
-0.021242,-0.00656212
-0.0402755,-0.0121993
-0.0236733,0.00450239
-0.0237416,0.00185637
-0.0334633,-0.00441768
-0.0285457,0.00828758
-0.0120615,0.00277681
-0.0122355,-0.00311556
-0.0136552,-0.00365163
-0.0204466,0.0115105
-0.0187009,-0.00245032
-0.000556638,-0.00662932
0.000535332,0.00689526
-0.0196725,0.00722842
-0.0201399,-0.0216808
-0.0210155,-0.0184711
-0.0293066,-0.0142745
-0.0151161,-0.0190447
0.0363737,-0.0223458
0.0908503,-0.0114178
0.124432,0.011755
0.121765,0.043475
0.0766373,0.00955524
0.0123552,-0.000493102
-0.0491318,-0.00432363
-0.0529933,-0.00590413
-0.0117917,0.00888154
0.0104643,0.0180484
-0.00276341,0.0363902
-0.0620246,0.0213308
-0.120514,0.00137963
-0.10434,-0.0306804
-0.081021,-0.0404254
-0.062211,-0.0403712
-0.0331223,-0.0208967
-0.00257995,0.0186165
0.0112817,0.022358
0.022902,0.00198354
0.0565888,0.0127408
0.0745038,0.0241401
0.0656972,-0.0176855
0.021424,-0.0330469
-0.0337003,0.0142915
-0.0626833,0.0334732
-0.0468831,0.0567376
0.00179967,0.0140589
0.0468308,-0.0200809
0.071831,0.0287695
0.110707,0.00834975
0.143252,-0.041931
0.127287,-0.0293955
0.0841052,-0.00838278
0.0163933,0.00227041
-0.097407,-0.00260944
-0.155817,-0.010948
-0.148033,-0.0105613
-0.135106,-0.00951654
-0.110922,-0.00783282
-0.0652319,-0.00706926
-0.0238668,-0.0127946
-0.006664,0.00274459
0.0165937,0.021814
0.0463586,0.0162221
0.0703566,0.010343
0.0836925,0.0213405
0.064418,0.000416691
0.0198443,-0.0175886
-0.038185,-0.01441
-0.0511831,-0.000570947
-0.013167,0.0098912
-0.00196366,0.00232418
-0.000114414,-0.000634561
0.0165043,0.00354396
0.0269223,0.00175214
0.0257816,-0.00726248
0.0541665,-0.010222
0.0837025,-0.0121019
0.0901262,-0.00289804
0.0596809,0.00907181
-0.011599,0.00270934
-0.0878386,-0.00246252
-0.109565,0.00885021
-0.1006,0.0128989
-0.0554768,0.014238
0.00429717,0.0117811
0.0654051,-0.0191463
0.0889713,-0.0193672
0.0428607,-0.00927679
-0.00734722,0.00764734
-0.0446605,0.0092684
-0.0654437,-0.00157732
-0.0597343,-0.0160278
-0.0442607,-0.0320529
-0.0155177,-0.0153979
0.0481527,0.040248
0.104041,0.0427528
0.122811,-0.000338209
0.0973425,-0.0178077
0.0176906,-0.00654145
-0.0760771,0.0293116
-0.140215,0.0596612
-0.137824,-0.00715429
-0.0821356,-0.0367673
-0.0540032,-0.00817008
-0.0200043,-0.00482185
0.0292043,-0.019288
0.0655358,-0.0218807
0.0659271,-0.00846078
0.0598904,-0.00736907
0.0566793,-0.0208637
0.0511841,-0.0128985
0.0790676,0.0056001
0.107751,0.014458
0.0434437,0.0042641
-0.0541904,0.0096022
-0.112978,0.0179881
-0.164062,-0.0036556
-0.170237,-0.000977802
-0.0971214,0.0134831
-0.00335108,-0.0129583
0.0455068,0.00847889
0.081198,0.0112684
0.0955268,-0.000924979
0.0827565,-0.00458821
0.0898632,0.00254644
0.101828,0.00232994
0.0446485,-0.0090498
-0.0298294,-0.00128078
-0.0638363,0.0360506
-0.0882575,0.0346132
-0.106235,-0.00312455
-0.0808561,-0.0109886
-0.014644,-0.0161031
0.0234278,-0.0192543
0.0273453,-0.0204633
0.0423211,0.000249201
0.0607015,0.00376698
0.0428731,0.004265
0.0229088,0.0314823
-0.0157465,0.0404986
-0.046489,-0.0509017
-0.0527157,-0.055189
-0.0401633,-0.056805
-0.0485303,-0.0309853
-0.0278854,0.00745567
0.00759938,0.00774666
-0.0073813,0.0154266
-0.0433615,0.0522293
-0.0251341,0.0217223
-0.00373348,0.0156818
0.0262648,0.000409151
0.0962095,-0.00901837
0.196737,0.00393607
0.248419,-0.000905778
0.196473,0.0113939
0.104011,0.0148918
-0.0224172,0.0167708
-0.0927809,0.0133463
-0.115993,-0.00478523
-0.169698,-0.0198354
-0.224231,-0.0159015
-0.147099,-0.00502167
-0.0782642,-0.000732769
-0.0810671,0.00281045
-0.0348883,0.00598347
0.0656848,-0.00727796
0.114211,-0.0207035
0.0858116,-0.0174932
0.0328639,-0.015371
-0.0306031,0.031546
-0.0565196,0.0278437
-0.0444554,-0.00560181
-0.0191559,0.0107816
-0.00674107,0.0317477
0.0242876,-0.0164351
0.0510054,-0.0265592
0.0883335,-0.0246387
0.148343,-0.0210551
0.172659,0.00336903
0.113503,0.00935316
-0.0242658,-0.0018949
-0.134422,-0.000772428
-0.189473,-0.00235077
-0.176908,-0.00827061
-0.103278,-0.0056857
-0.00383295,0.00649936
0.0507864,0.0151591
0.0346762,9.6e-05
0.00999884,0.000276951
-0.0179421,0.0334686
-0.0298544,0.0342392
-0.0331463,0.00490491
-0.00798659,-0.03881
0.00335266,-0.0103325
0.0433912,0.0626341
0.10423,0.0213873
0.114451,-0.0293265
0.0877396,-0.0196001
0.0662723,-0.00665501
0.0326179,0.00342003
-0.0160138,-0.00821773
-0.0551673,-0.015401
-0.0688735,-0.00907957
-0.0633125,-0.00987645
-0.0729823,0.0153
-0.0612985,0.0522867
-0.030656,-0.0200925
-0.0352894,-0.0517575
-0.0249465,-0.014922
-0.00841738,0.0195757
0.0274201,0.00915151
0.129907,-0.0161108
0.210213,0.00120453
0.161082,0.0131704
0.0529701,0.0168083
-0.0523524,-0.00156989
-0.137192,-0.0268159
-0.157348,-0.0352571
-0.115883,-0.0230883
-0.0223752,0.002755
0.0338018,0.0200747
0.0362723,0.0188614
0.0107662,-0.00340248
-0.00174475,-0.0190165
0.00416109,-0.011531
0.0340227,0.0148372
0.0257448,0.00940658
-0.0149326,0.00547002
-0.0543093,0.0316259
-0.0399538,0.0243682
0.00417125,0.00782455
0.0572626,0.0286853
0.0631744,0.0106336
0.0295727,-0.0570267
-0.0127475,-0.0360321
-0.033179,0.0246186
0.00195277,0.0201801
0.0161698,-0.00937972
0.00654629,-0.0118798
-0.0522804,0.0431768
-0.0792102,0.125854
-0.0637761,-0.0542599
-0.0456439,-0.0838344
-0.0590647,-0.035176
-0.0650341,-0.013819
-0.0560674,-0.00858562
-0.0300679,-0.0114392
0.0592838,-0.00664307
0.179659,0.0491005
0.235832,0.0316516
0.182308,-0.0310247
0.0574315,-0.0399516
-0.0463692,-0.0141869
-0.080195,0.0101859
-0.0819359,0.0221894
-0.0239083,0.0108487
-0.00106419,-0.0123064
-0.0308927,0.0218216
0.0238921,-0.0155596
0.0604432,-0.0213397
0.0058299,-0.0113986
-0.0384632,-0.00715635
-0.0505912,-0.000705692
-0.0422803,0.0148342
-0.00160986,-0.000251005
0.0169488,-0.0244813
-0.102683,-0.025201
-0.0943088,-0.00426614
-0.0509687,0.0274964
-0.0218877,0.0718434
0.0267213,0.106402
0.0577929,0.0698742
0.0578906,-0.0423798
0.0467018,-0.0717154
0.0341542,-0.0340264
0.00519922,-0.0228023
-0.0194824,-0.0187424
-0.0273555,-0.00935416
-0.0450032,-0.00383389
-0.0639565,-0.00277164
-0.0579259,0.000349921
-0.040709,0.0225844
-0.0162971,0.00783408
0.0167671,-0.0219814
0.06456,-0.00225712
0.100526,0.0325208
0.0918249,0.027686
0.0722824,-0.00962594
0.0521171,-0.00205365
0.0426039,-0.0100848
0.0159376,-0.0266976
-0.00874644,-0.020766
-0.0303464,-0.0041372
-0.0296821,0.013444
-0.0154219,0.0106749
0.000569842,-0.0104057
0.0514203,-0.036351
0.0772029,-0.0102595
0.068165,-0.000235503
0.000365066,0.0133121
-0.0940087,0.073237
-0.0802604,0.0442455
-0.0264857,-0.0244109
0.0287625,-0.0191144
0.0569377,-0.0130698
0.0137191,-0.00792388
-0.0822515,-0.00303462
-0.143358,-0.00247791
-0.148382,-3.11e-05
-0.097485,-0.00276347
0.00504919,0.00506021
0.101049,0.0228968
0.11547,0.025163
0.0873082,-0.00754964
0.0215466,-0.0251169
-0.0452491,-0.0271043
-0.0804508,-0.0278576
-0.0850778,-0.0084393
-0.0432696,0.00659761
-0.00370257,0.00904826
0.0627878,7.9e-05
0.124089,-0.00325911
0.141193,0.000811479
0.0985851,-3.72e-05
0.0217234,-0.00992142
-0.069471,-0.021384
-0.132145,-0.0101346
-0.130767,0.0394548
-0.104703,0.0489702
-0.0872156,-0.0115764
-0.0499141,0.0407062
0.00847803,0.087787
0.0492764,-0.0202759
0.0587953,-0.0479477
0.0746315,-0.0529105
0.0789242,-0.00850586
0.0656729,0.0305899
0.0527275,0.0320865
0.0356708,-0.0122978
-0.000845017,-0.0105423
-0.0420683,-0.0347629
-0.0602026,-0.0342655
-0.0620728,-0.00993194
-0.024734,0.0226604
0.0467181,0.00771964
0.103105,0.0199486
0.149235,0.0217745
0.147599,-0.00702601
0.0553837,-0.00986433
-0.0645384,-0.00693592
-0.142373,-0.0176568
-0.100969,-8.41e-05
-0.0108939,0.0154324
0.0283165,0.0153521
0.0197121,0.00729799
-0.0157681,0.00114694
-0.026508,-0.00160763
-0.0383058,-0.010234
-0.0627136,-0.0222926
-0.088302,-0.0391928
-0.0643959,-0.00620441
-0.0390367,0.0222772
-0.0329712,0.00469679
-0.03746,-0.0318379
-0.0332804,-0.0402232
-0.0192837,-0.0125281
0.00721826,-0.0048652
0.0540121,0.00785094
0.0929453,0.0283249
0.0971409,0.0343087
0.0821916,0.0214311
0.0711973,0.00743915
0.05359,0.00298798
0.0303185,-0.00134945
0.00234995,-0.0111248
-0.0386576,-0.0116959
-0.0673205,0.00500039
-0.0497594,0.0225856
-0.0431885,0.0367333
-0.0395865,0.0256051
-0.0249673,-0.000996764
-0.0118656,-0.0253027
-0.014047,-0.0241462
-0.017435,-0.0132039
0.00808512,-0.00463401
0.0366492,0.0102536
0.0480467,0.0278411
0.0645777,0.030342
0.0692004,-0.00156224
0.0426953,-0.00316358
-0.00500084,0.0249153
-0.0351655,-0.00331108
-0.0298242,-0.0393233
-0.00789816,-0.0219997
0.0169274,-0.00588921
0.0100413,-0.00247238
-0.0198015,0.000152935
-0.0327407,0.00581707
-0.00909727,0.0118339
-0.00320186,-0.0210321
-0.0220594,-0.0293118
0.00421795,-0.00953974
0.0419056,0.0176818
0.0282169,0.0347007
0.013704,0.0337273
0.0018846,-0.0268758
-0.0253598,-0.0277441
-0.0501151,0.00695783
-0.0421216,0.015503
0.0166213,0.0544664
0.0881984,-0.0176697
0.0924366,-0.0395018
0.0217577,-0.00901227
-0.0598332,-0.0111767
-0.0839348,-0.0213635
-0.0493722,-0.020198
-0.0405915,-0.00778794
-0.0263405,0.0192751
-0.0177678,0.0542567
-0.0169333,0.00627345
-0.0187735,-0.0419043
0.0376668,-0.0182764
0.108704,-0.0137098
0.104739,-0.00694322
0.0456157,0.00444248
-0.035764,-0.0110885
-0.116884,-0.0153777
-0.122508,0.0120162
-0.0674238,0.0166813
-0.0275769,0.00973605
0.00272672,0.00198665
0.0308817,-0.0182363
0.0391923,-0.0188196
0.0143841,0.00491948
0.0223602,0.01806
0.0705571,0.0157727
0.0633522,-0.00569645
0.0284001,0.00792992
-0.00145929,0.0484579
-0.00403676,0.0326746
-0.01086,0.00899358
-0.0175369,0.0450284
-0.0192775,0.028081
-0.00963976,0.0128994
0.00582927,-0.0184784
-0.00410327,-0.0327887
-0.0284488,-0.0249405
-0.0347293,-0.0138124
-0.0326368,-0.0131445
-0.0331872,-0.0281396
-0.0218503,-0.028298
0.0166372,-0.0012944
0.046184,0.0265242
0.0369413,0.0378412
0.0333845,0.00087913
0.0264667,-0.0163981
0.0108108,-0.019442
0.00481643,-0.0184002
0.0226947,-0.016064
0.0330404,-0.0129013
0.0536417,0.0101849
0.0734047,0.0183707
0.0459696,-0.00340348
-0.0193737,-0.0140558
-0.0671189,-0.0094289
-0.106308,-0.0185086
-0.118514,0.00326489
-0.0779339,0.033483
-0.0202999,0.0168408
0.0228726,-0.0302936
0.0374137,-0.0357757
0.0328679,-0.0134005
0.0138649,0.00736175
-0.00792513,0.0223827
-0.0164271,0.0315346
-0.0164234,0.00683523
-0.0144868,-0.00599897
0.00871377,0.031051
0.0282376,0.0414597
0.0167303,-0.0103438
0.0033146,-0.0127752
0.000187567,0.00403296
-0.00412064,-0.0153648
-0.0146643,-0.0354469
0.00672763,-0.000501529
0.0378537,0.0761397
0.0394603,0.0184367
0.0286182,-0.0412645
0.0113165,-0.0143111
-0.0167694,-0.0289611
-0.0393914,-0.0224515
-0.0307531,0.0074081
-0.0220338,0.00360528
-0.00377005,0.00240604
0.0350782,0.00553363
0.0412485,0.0212757
0.0136127,0.00427466
-0.00319755,-0.016156
-0.0126222,-0.0128982
-0.0252616,-0.0188835
-0.0233409,-0.019417
0.0122567,0.00740073
0.0340128,0.0796151
0.0202745,0.0492955
0.00928492,-0.0331096
-0.0128125,-0.0286004
-0.042166,-0.00272818
-0.0550725,-0.0186869
-0.0393114,-0.028189
-0.0283805,-0.0227244
0.0125467,-0.00819752
0.0489625,0.00950376
0.0311819,0.0421132
0.00360823,0.0289778
-0.00114677,0.00504595
-0.0149839,-4.65e-05
-0.0204454,-0.0360207
-0.00136105,-0.013836
0.0257578,0.0307687
0.030222,0.0244792
0.0290717,0.0263034
0.022561,0.0134885
0.0068467,-0.0415793
-0.0121966,-0.0356851
-0.00964013,-0.00850514
0.00463277,0.0102803
-0.0073279,0.023647
0.0124863,0.0118938
0.0419294,-0.0146191
0.0309336,-0.0380078
0.0123672,-0.0350131
0.00123071,0.00723951
-0.0405094,0.0518126
-0.063429,0.041183
-0.0332593,-0.0406487
0.00126761,-0.0494671
0.0183012,-0.0231007
0.0178341,-0.0180171
0.000802398,-0.0342968
-0.0207653,-0.0306625
-0.0163547,-0.0291293
-0.00486904,-0.00313282
-0.0109593,0.042031
-0.0132064,0.104885
0.00703534,0.170439
0.0234592,0.045911
0.0077848,-0.0774541
-0.0128677,-0.0331483
-0.0120007,-0.0163244
-0.00394151,-0.0140577
0.000809378,0.0253051
0.0322494,0.027291
0.0699985,-0.0148055
0.0554869,-0.00968926
0.0223411,0.00247518
-0.00682616,-0.00911383
-0.0293759,-0.00918441
-0.0541417,-0.0190031
-0.0682374,-0.0198175
-0.104353,-0.035246
-0.10485,-0.0439639
-0.0210147,0.00932451
0.0550634,0.0147548
0.0505092,-0.0133507
0.0110694,-0.0266081
-0.00128024,-0.0332612
0.0196558,-0.0162082
0.0330819,0.0686253
0.0493648,0.0886837
0.0603398,0.0491489
0.0532714,-0.0291783
0.0342838,-0.0821854
-0.00219083,-0.0123342
-0.0272893,0.035467
-0.0232448,-0.00439654
-0.00942647,-0.0188203
-0.0151876,-0.0171702
-0.0209805,0.0100402
-0.0271051,0.0336786
-0.0269389,0.0107198
-0.0163841,-0.00531832
0.0188972,0.0136872
0.033531,0.0222299
-0.00910058,-0.0288156
-0.0353883,0.00206383
-0.00560422,0.0084451
0.00360785,-0.00541914
-0.0258789,0.00690494
-0.030412,0.0116577
-0.0308349,0.00146162
-0.033082,0.012175
0.00889159,0.0458571
0.0813292,-0.0102019
0.165462,-0.0479498
0.20347,-0.0271
0.139078,-0.0028219
0.0315174,0.00395447
-0.0611615,0.00743174
-0.160652,-0.0101466
-0.186415,-0.018471
-0.111849,-0.0178842
-0.050359,-0.00888227
-0.0147054,0.00288739
0.0118807,0.00837577
0.0101619,0.0104119
-0.0035829,0.0007032
-0.0137152,-0.00333237
-0.00593075,0.00987994
0.00640992,0.0392814
0.00749464,-0.00514357
0.016675,-0.0114089
0.000372533,0.0108426
-0.0370656,-0.0110844
-0.0514313,-0.0351756
-0.0416548,0.0800592
-0.0345467,0.120383
-0.0117529,-0.0758616
0.00759388,-0.137585
0.0375502,-0.0573778
0.0821868,0.0313429
0.112746,0.0500068
0.109306,0.0197138
0.0619556,-0.0114361
-0.019905,0.00559712
-0.0768343,-0.0046037
-0.0951004,-0.00344754
-0.0802912,-0.00263916
-0.0236003,0.010433
0.0328649,0.0238123
0.0406252,0.00399906
0.0454391,-0.0155828
0.0403573,-0.0263164
0.0383215,-0.0568791
0.0350477,-0.0492633
0.0172915,0.0197154
-0.0121071,0.0870762
-0.0311471,0.0696706
-0.0103177,-0.0024442
0.0245717,-0.0245676
-0.00736872,-0.0273329
-0.0628419,-0.0462629
-0.0537341,-0.0283569
-0.0173977,0.0336401
0.00762082,0.0671104
0.0650931,0.0269614
0.115254,-0.00798484
0.101845,0.000291107
0.0361837,-0.00880874
-0.0564766,-0.0146868
-0.10053,-0.015735
-0.116296,-0.00667364
-0.0809948,-0.0107185
-0.0109419,0.0115675
-0.000338684,0.0422549
-0.0278325,0.0497925
0.000638494,0.0246157
0.0426499,-0.0223144
0.0118886,-0.0351389
-0.00245073,-0.0274709
0.014609,-0.0396228
0.0454424,-0.0260697
0.0831372,0.0143977
0.0837406,0.0183833
0.0576256,0.00563183
0.0357852,-0.00665113
0.0193282,-0.0250861
-0.0171337,-0.0304322
-0.0964768,0.00128574
-0.127579,0.0352547
-0.0533127,-0.02066
-0.00970243,-0.00193142
-0.0220655,0.0781561
-0.038393,0.0245675
-0.0210735,-0.00988724
0.0148965,-0.0258878
-0.000311858,0.0056614
-0.0381894,0.0218239
-0.0480539,0.0372171
-0.0266576,0.0857717
0.0148725,-0.0425914
0.0752978,-0.205839
0.0863108,-0.0695346
0.0818158,0.0176505
0.0999391,-0.0475965
0.0937779,-0.0160567
0.0655273,0.0706071
0.0458223,0.0673394
0.0122411,0.0577118
-0.0368494,0.0335559
-0.143346,-0.00921096
-0.166882,-0.0170257
-0.122351,-0.0816818
-0.0768681,-0.131932
-0.0507026,-0.0162626
-0.0410505,0.0854018
-0.0185536,0.16044
0.0324109,0.138792
0.102519,0.127556
0.126183,0.0220491
0.0735168,-0.0470842
0.00914387,-0.0105925
0.0242824,-0.0954962
0.00868226,-0.170748
-0.0402434,-0.0332581
-0.1219,0.0717595
-0.135658,0.0350168
-0.0265302,0.0845417
0.0647848,0.0440637
0.0563569,-0.0296574
-0.0149606,-0.103384
-0.0404613,-0.0660512
0.030461,-0.0287216
0.0797609,-0.096527
0.0401082,-0.0202108
0.0172229,0.0734677
0.0179734,0.0146233
0.00789957,-0.0361789
0.0415271,0.0207043
0.0916737,-0.0552644
0.0882183,-0.0311199
0.0595972,0.0663335
0.0224485,0.0722164
-0.0309775,-0.00239537
-0.0354922,-0.0159423
-0.0256819,-0.0870366
-0.0286188,-0.00691045
-0.037691,0.0654819
-0.025988,0.0694692
-0.0245224,0.138429
-0.0625629,0.0212006
-0.0895446,-0.051109
-0.069198,-0.0738667
0.00487953,-0.0278894
0.0583485,0.00962105
0.0571237,-0.0154127
0.0154169,0.0116632
0.0163124,-0.00332744
-0.00656658,-0.0013208
-0.0861352,-0.00711609
-0.141701,-0.0631802
-0.0813545,-0.00680642
0.0104633,-0.0307737
-0.0165619,-0.106367
-0.0157074,-0.0244631
0.145167,0.0154278
0.138559,0.0271869
0.0505243,0.0451869
0.0431861,0.0865722
0.0151615,0.0919157
0.0349868,-0.00676043
0.0352318,-0.0667185
-0.0630852,-0.0303782
-0.0715121,0.0553495
0.00346762,0.0744981
0.0371738,-0.018807
-0.013005,0.00325312
-0.0525888,-0.00127218
0.00783832,-0.0145872
0.0683028,0.0154183
0.08436,0.0359762
-0.00428246,0.122618
-0.0923351,-0.0209044
-0.0915068,-0.0798116
-0.00680982,-0.0776103
0.0121095,-0.0251413
0.0195628,-0.0417944
0.0147603,-0.0031679
-0.00784022,0.0696104
-0.0603974,0.0883956
-0.101227,0.00249269
-0.0458993,-0.0995613
0.0546564,-0.0551222
0.0890454,0.0536332
0.118657,0.0619524
0.0244817,0.0290876
-0.0930521,0.00457892
-0.0619704,-0.057202
0.0444194,-0.00448678
0.0849372,0.0442944
0.0670239,-0.00184986
-0.00158641,-0.0689073
-0.0469077,-0.062761
0.00148597,-0.0438359
0.0516246,-0.0599617
0.00886665,-0.0628101
0.0622233,0.0513544
0.026378,0.124304
-0.149653,0.0522249
-0.266533,-0.0256795
-0.188172,-0.066135
-0.0148524,-0.0171397
0.0769324,0.084119
0.128298,0.0674777
0.19325,-0.0146079
0.137337,0.000631739
-0.00931831,0.0465173
-0.0869353,0.0368793
-0.0973207,-0.00164805
-0.041959,-0.0457284
0.0199933,-0.0510598
0.0276257,0.0121248
-0.0163562,0.0568993
-0.124429,0.0157214
-0.166991,-0.112438
-0.059383,-0.132977
0.0828948,-0.0513943
0.152399,0.0341461
0.135217,0.0733249
0.108718,0.107811
0.0554138,0.203438
0.0625323,-0.0514013
0.0703467,-0.116918
0.0370537,-0.0534299
0.0179827,-0.0279806
-0.0264802,0.0266702
-0.0834446,0.0320902
-0.0926936,-0.0205547
-0.0223633,-0.0269754
-0.0716798,-0.0271793
-0.14497,-0.1184
-0.0410339,-0.143054
0.0189638,-0.0152074
-0.0426741,0.094884
-0.0306348,0.171923
0.0170397,0.145338
0.0140841,0.0014918
-0.0145697,-0.00341793
0.0216595,0.00261242
0.0815133,-0.024344
0.0307745,-0.0427743
0.0078278,-0.00877291
0.0096009,0.0155761
-0.00361961,-0.00735557
0.0933515,-0.0193386
0.191599,0.00153478
0.166457,-0.0256618
0.110878,-0.00198807
0.12816,-0.0173103
0.168292,-0.045517
0.0509801,-0.0580323
-0.187535,-0.0390196
-0.355444,0.0191698
-0.415212,0.0224009
-0.377424,0.00902962
-0.115675,0.0165429
0.107934,0.00139885
0.145525,-0.000704571
0.112599,0.000959754
0.097895,0.0134059
0.0830875,0.0238898
0.05655,0.129971
0.0524275,0.290969
0.0368233,0.0636113
-0.0907282,-0.131751
-0.214856,-0.0922523
-0.131367,-0.0188822
0.0936333,-0.142249
0.229079,-0.0919681
0.128526,0.0122633
-0.0025593,0.0456817
0.00738421,0.0755882
0.110818,0.075817
0.122424,-0.0509549
-0.0461018,-0.0546915
-0.241717,-0.0908442
-0.201773,-0.150299
-0.0885567,-0.0396243
-0.0691076,0.0468694
-0.0276141,0.0153652
0.0579526,0.0424428
0.0712507,0.0461902
0.0835413,0.0495353
0.0329431,0.0879594
0.00318457,0.00721742
0.0503189,-0.0923247
0.0706787,-0.0389336
0.0719627,0.020129
-0.00466679,0.0402593
-0.0786905,0.0328157
-0.0258416,-0.00208861
0.0463067,-0.0211499
0.0718897,0.0156723
-0.0328298,-0.0136933
-0.125907,-0.0762937
-0.099646,-0.0142367
-0.0171344,0.0541625
0.00330196,0.0658702
0.0263088,0.0256938
0.0496427,-0.0233858
0.00356603,-0.0549638
-0.0488319,0.0250984
0.0762594,0.0558956
0.222184,-0.0232361
0.229431,-0.0661659
0.101992,0.0101186
-0.00673058,-0.0017852
-0.0515667,-0.0420383
-0.0688386,0.0522551
-0.0576319,0.0207788
-0.0663691,-0.021905
-0.0787282,0.0340108
-0.0579112,0.00378553
-0.0477663,0.00921632
-0.0744384,0.0420931
-0.0281175,0.0404578
0.058659,-0.0077571
0.0498221,-0.0818489
-0.024208,-0.072455
0.00715869,-0.0713362
0.0242016,-0.0436712
-0.0735227,-0.00198954
-0.169919,0.0190005
-0.196128,0.0279381
-0.0765439,0.0247372
0.100738,0.00739367
0.195153,-0.00309251
0.109886,0.0329795
-0.048687,0.0868255
-0.140478,0.0501455
-0.148738,-0.0114604
-0.0438999,-0.0301823
0.138286,-0.0922959
0.146203,-0.042843
0.0452655,0.0504724
0.0334638,0.0309676
0.00294389,-0.0300648
-0.0664658,0.017637
-0.0779821,0.0480992
0.0188902,0.0495645
0.12894,0.0562565
0.166077,0.0741626
0.0567842,0.0280041
-0.0489968,-0.067572
-0.184645,-0.0254901
-0.192484,-0.0674374
0.0305188,-0.089433
0.211843,-0.0157226
0.157874,-0.00945811
-0.00763545,-0.0148373
-0.0734334,-0.0342489
-0.0105448,-0.0648237
0.049204,-0.0269464
-0.0162309,0.0545008
-0.112248,0.15572
-0.111149,0.0787084
-0.0260262,-0.126678
0.0255958,-0.0938488
0.0192888,0.0501957
0.014572,0.106328
0.0052887,0.063915
-0.0523294,0.0440408
-0.0372551,-0.0144039
0.0126184,-0.0517156
0.0390944,-0.0826642
0.0156877,-0.0916027
0.0239905,-0.00579183
0.11893,0.0332331
0.154647,0.0262829
0.116341,-0.00421611
0.0440775,-0.069314
-0.0356753,-0.0477265
-0.0608766,-0.0287915
-0.0539181,0.0330017
-0.045925,0.162876
-0.0391287,0.113815
-0.0391589,-0.0176012
0.0588326,-0.0298628
0.200294,-0.0391499
0.196151,0.00297703
0.0635505,0.042279
-0.108261,0.0695172
-0.220225,-0.0534527
-0.180793,-0.0346048
-0.207944,-0.0382654
-0.199965,-0.141114
-0.0498918,-0.0684241
0.0502869,0.0495825
0.0827481,0.0645975
0.0662968,0.0577868
-0.00985603,0.0528904
-0.10278,0.0473696
-0.124376,-0.00969881
-0.0116298,-0.09528
0.0747079,-0.0811856
0.0512851,-0.00659661
-0.0742882,0.00723182
-0.0511755,-0.0506325
0.122118,-0.0295323
0.23499,0.107753
0.175154,0.0977886
0.050399,0.0659894
-0.0178536,0.0062341
-0.0230926,-0.00632125
-0.0343738,-0.033872
0.0196854,-0.0093199
0.0688515,0.0303951
0.031126,-0.0685742
0.0171301,-0.100454
0.0359895,0.0149177
0.00878105,0.12799
-0.0380981,0.100057
-0.0460932,0.00936166
-0.0128404,0.0142287
0.0242895,-0.0369218
0.0199144,-0.0424767
-0.00234491,-0.0402682
-0.0376948,-0.0765494
-0.0864518,-0.0719479
-0.110332,-0.00685889
-0.112226,-0.0201096
-0.167258,-0.0610504
-0.185523,-0.0339956
-0.0523421,-0.0116492
0.0644238,0.041029
0.104512,0.114011
0.0941631,0.0713984
0.079118,0.00426476
0.0801527,0.0721481
0.0182452,0.0817806
0.00347653,-0.0455372
-0.0201934,-0.0608857
0.058647,-0.0620632
0.156691,-0.0196962
0.228291,0.0357062
0.358202,-0.0152069
0.541219,-0.0320212
0.396028,0.0378319
-0.0554425,0.0333384
-0.468744,-0.0728708
-0.610411,-0.0735569
-0.469746,-0.0415602
-0.238609,0.0243604
-0.149459,0.256474
-0.142773,0.0406297
-0.083831,-0.208648
0.0381436,-0.153377
0.0890806,0.0169551
-0.00324186,0.106619
-0.0557867,0.0697438
-0.0576742,0.0355356
-0.0596042,-0.014285
-0.0130204,-0.0810857
0.108749,-0.116999
0.207837,0.0171339
0.18438,0.0997513
0.121672,0.0701901
0.0674142,0.0738974
0.0231995,0.14559
-0.0357012,0.0897471
-0.00890095,-0.0869369
0.0511405,-0.106261
0.0690149,-0.0595034
0.0260936,0.00532396
-0.0561235,0.0401775
-0.115419,-0.0402868
-0.0875407,-0.0486703
-0.0352867,-0.0168291
-0.0273868,0.000577982
-0.0294329,-0.0147536
-0.0078559,-0.0305068
0.0109939,-0.056756
0.0387595,-0.0044397
0.0623603,0.0191531
0.0574392,-0.00870644
0.0678559,0.0495008
0.0840789,0.118669
0.0812744,-0.0322588
0.0646396,-0.0813897
0.0980205,-0.0216497
0.0979008,-0.0264287
-0.00623615,0.0244851
-0.0444164,0.0355114
-0.0440223,-0.0190366
-0.0829347,0.00222389
-0.163157,0.0769442
-0.192617,0.0455735
-0.0931331,-0.0172795
0.0311502,-0.0574757
0.0435605,-0.0253666
-0.0221938,0.000346011
-0.0693838,-0.0248955
0.00339029,-0.0562017
0.090027,-0.0368624
0.06476,0.043401
-0.0286748,0.0432497
-0.171519,0.012653
-0.257577,-0.0439606
-0.0676571,-0.0539621
0.112087,-0.0222477
0.116592,0.0870214
0.100731,0.116556
0.0742915,0.0762418
0.0160219,0.0213741
-0.00358545,-0.0783098
0.102881,-0.0550924
0.278084,-0.009839
0.34679,-0.0325187
0.250598,0.0404725
0.090172,0.0705781
-0.0350957,0.0290032
-0.0836786,-0.0270962
-0.15833,-0.0474272
-0.225066,-0.00987349
-0.235476,0.00981137
-0.252237,-0.0152629
-0.19996,-0.00606412
-0.0709463,-0.0172671
0.00102686,-0.0215229
-0.0122686,-0.0103389
0.0086189,-0.00975065
0.0432318,0.0259011
0.0521967,0.0227662
0.000135835,0.000944556
-0.0580687,0.0513638
-0.0237159,0.0494834
0.0761201,0.00256395
0.0747479,-0.0710564
-0.0256845,-0.0888561
-0.0322025,-0.029171
0.0178348,0.0287207
0.0841971,0.0501985
0.145187,0.0523459
0.0960625,0.0467977
-0.0187956,-0.022019
-0.0453078,-0.0584438
-0.0187704,-0.0349773
-0.018939,-0.0166213
-0.051486,0.0302033
-0.0523576,-0.00632704
-0.0257561,-0.0386569
0.0294354,-0.0583661
0.0868395,-0.0102101
0.0755462,0.0515228
-0.00271892,-0.0275
-0.0156211,-0.0456207
0.00574263,0.0290231
0.0219545,0.0713127
0.0114946,0.0760681
-0.0111207,0.000475914
-0.0168622,0.0130261
-0.0382972,0.0173115
-0.0724674,-0.000719045
-0.0446595,-0.0146771
-0.00118603,-0.0289796
0.0141215,-0.0135024
0.0182315,0.0227209
0.0277838,0.017846
0.0194738,-0.0381519
0.0103275,-0.0440612
0.00255929,-0.0514264
0.00451423,0.0138792
0.0182613,0.0227531
0.0405494,-0.0461619
0.0253825,-0.0406678
-0.0232652,0.0649257
-0.077526,0.0605744
-0.091117,-0.0141637
-0.0804403,0.0167775
-0.0391643,0.0628217
0.0124039,0.00943166
0.0582973,-0.0211654
0.0753254,0.0173959
0.0522048,0.0714461
0.0387097,-0.0147132
0.0227978,-0.0569923
0.0274098,-0.0489517
0.0328514,-0.0404582
0.00538418,-0.0412606
-0.0298504,0.00587178
-0.0168287,0.045472
0.0407066,0.0379281
0.109475,0.00516863
0.0973919,-0.0012538
-0.0120948,0.0201386
-0.124233,0.00968722
-0.149673,-0.0659689
-0.118698,-0.0508751
-0.0584408,-0.0209218
-0.0166595,-0.000211919
-0.0150128,0.0316467
0.0422248,0.0224968
0.0962429,0.0350814
0.0798697,0.0405132
0.0555294,-0.0134898
-0.00044928,-0.0420043
-0.0620129,-0.0266703
-0.0461033,-0.0143006
-0.0353729,0.00429828
-0.0579489,0.0278963
-0.00245072,0.0106025
0.00249491,0.0238948
-0.0515298,0.0400884
-0.0419253,0.0227514
-0.0396965,-0.0249446
-0.0077053,0.0123948
0.0541182,-0.0382752
0.0834029,0.0028997
0.113308,0.0175413
0.0821846,-0.0127655
0.0110214,-0.053691
-0.0220724,-0.0433541
-0.0197036,0.038588
0.00925352,0.0732405
0.0167163,0.0265122
-0.0139357,-0.0689963
-0.0177092,-0.0858225
-0.0255148,-0.0456503
-0.00811655,-0.0050347
0.0338474,-0.00118162
0.0592036,0.0990705
0.0663798,0.170389
0.0791223,0.0313054
0.0227622,-0.0474748
-0.054822,-0.0580598
-0.078609,0.0511922
-0.068916,0.00886018
-0.0461954,-0.109843
-0.0596585,-0.0544643
-0.0389202,-0.0462515
0.0145174,-0.0240701
0.0321289,-0.0139532
-0.0092182,0.0302668
-0.0270884,-0.0330122
-0.0293596,-0.0799885
-0.00719392,-0.0113552
0.0505945,0.0292882
0.0533234,0.0492645
-0.00168588,0.0494672
-0.00156157,0.0540449
-0.00013567,0.0403895
-0.0342314,0.00903475
-0.0281573,-0.00852397
0.0111732,-0.00403038
0.00342924,0.0102423
-0.0501769,-0.00527148
-0.0443424,0.00694478
0.03249,0.0276604
0.0285809,-0.015413
-0.041527,0.00122938
-0.01797,0.0402827
0.0433246,0.0614773
0.0141953,0.0561497
0.00269367,-0.0511684
0.0103225,-0.0990516
0.0268555,-0.0455272
0.0861432,-0.016091
0.111128,-0.02976
0.0743582,-0.0469502
0.0251553,-0.00835296
-0.0203032,0.0763632
-0.0683599,0.0448005
-0.103348,-0.00257231
-0.0704077,0.0562678
0.00526967,0.0309096
0.0600537,-0.0718343
0.0552501,-0.00570013
0.0368756,-0.000167047
-0.00539012,-0.0153843
-0.0370932,0.00266149
-0.0694133,0.000470603
-0.04543,-0.0102127
0.00261215,-0.000204301
0.0153123,0.013866
-0.0124091,-0.00440438
-0.020295,-0.0103429
-0.0577881,-0.0150473
-0.0851669,-0.00552684
-0.0526352,0.052792
-0.00601848,0.0641386
0.0412309,-0.00661474
0.0509257,-0.0267688
0.0333224,-0.018185
0.029835,0.00484044
0.0202944,-0.0575288
-0.00845467,-0.079043
-0.0423304,-0.0320304
-0.0446473,0.079831
-0.00755969,0.0513119
0.0115094,-0.0256531
0.0059384,0.0107846
0.0222829,0.0490798
0.0285028,0.00911573
0.0167972,-0.0342406
-0.0262656,-0.042163
-0.0251597,-0.0292864
0.0324463,-0.0198419
0.0925259,0.0127619
0.0955226,0.0915179
0.0812819,0.0757513
0.0749385,-0.0552607
0.0195433,-0.100529
-0.0812602,-0.0306398
-0.128314,0.0275033
-0.0983495,0.0192803
-0.0474519,-0.0128174
0.0121839,0.00716946
0.0332393,0.0310367
0.0269985,-0.0166561
0.0158521,-0.0366012
0.00376821,0.0282217
-0.00892289,0.0359258
-0.0200986,0.0248841
0.0130153,0.0587921
0.0309902,0.0366582
0.00952328,-0.0559695
-0.0149352,-0.0284129
-0.0415376,0.000186477
-0.0342426,-0.021989
-0.00447485,-0.0270623
-0.00290741,0.0189691
0.00939815,0.00212563
0.0509307,-0.00899509
0.0609596,-0.0356002
0.0358285,-0.0550409
-0.0237146,-0.0190123
-0.0496727,0.00182148
-0.0453325,0.0215536
-0.00524743,0.0501586
0.0315246,0.0463629
0.151915,-0.0335596
0.102242,-0.0106373
0.0368907,0.0314638
-0.041465,0.0404055
-0.0918415,0.0526999
-0.10413,-0.0373568
-0.0859575,-0.081528
-0.0664368,-0.024012
-0.0348488,0.00604538
-0.00317064,0.0274237
-0.00778664,0.0338129
-0.0110506,-0.023794
-0.0142048,-0.0107996
-0.0223438,0.00829531
-0.00347788,0.00385467
0.0320104,0.00739867
0.0362081,0.00674033
0.0286056,0.0273322
0.0688547,0.0558314
0.0737703,0.059199
0.0267086,0.0452575
0.0245344,-0.0480027
0.0198235,-0.103996
-0.0203504,-0.0469055
-0.0287469,-0.0383192
-0.0167581,-0.0173757
-0.0216976,0.00259354
-0.0279688,0.0128512
-0.0279497,0.000705082
-0.025414,-0.0162676
-0.04087,-0.011588
-0.0540569,0.00935063
0.00444146,0.0291721
0.0531467,0.0480334
0.0515804,0.0367837
0.0412661,-0.0252324
-0.0132406,-0.0479193
-0.0524675,-0.00469204
-0.0161868,0.0297539
0.020763,-0.018006
-0.00102374,-0.0300064
0.0124093,-0.0461259
0.0539119,-0.0212947
0.06729,0.021461
0.0571722,0.0308282
0.018351,0.0361858
-0.0332681,0.0489323
-0.0564463,0.017336
-0.0309963,-0.0130029
0.00487529,-0.0130285
0.00569308,0.00488238
-0.00667194,0.00645202
-0.00487462,0.00220372
0.0121692,0.0180924
0.0125334,0.0155022
-0.0194478,0.00419966
-0.0412396,0.0688315
-0.0310812,-0.00961604
-0.0252315,-0.0511464
-0.0219843,0.00690078
-0.03161,0.0373332
-0.0239517,-0.0605459
-0.00348327,-0.0835312
0.0196292,-0.0424288
0.0302878,0.018305
0.0182273,0.109888
0.0383962,-0.0105259
0.0596799,-0.108343
0.0474639,-0.0204342
0.0236889,8.1e-05
-0.013005,-0.0086494
-0.0214404,-0.00255669
-0.0379224,0.00196376
-0.0958664,0.0180974
-0.123331,-0.0161565
-0.04776,0.0190406
0.0351412,0.0723597
0.0818558,0.0595601
0.102776,0.028845
0.121727,0.00851966
0.0715295,-0.0494973
0.00172982,-0.0722472
0.0129184,-0.0460245
0.0469335,-0.00313224
0.0457291,0.0287555
-0.0255227,0.0258045
-0.0342938,-0.026319
-0.0186563,-0.0294409
-0.0787159,-0.0136226
-0.148011,-0.00611597
-0.152689,-0.00263973
-0.0701476,-0.0309176
-0.00690749,0.007008
-0.00282326,0.0732645
0.0418592,0.0425993
0.0546125,0.0658936
0.00106418,0.00147262
-0.014958,-0.0349952
0.0129047,0.00135453
0.0386953,0.00833145
0.0501044,0.0137568
0.0455494,0.0195242
0.0483971,-0.0177011
0.0304076,-0.0229023
0.013161,-0.0167171
-0.0112165,-0.0357593
-0.00673345,-0.0380482
0.0165179,-0.0210604
0.0412333,-0.00871577
0.0354347,0.0240403
0.00209728,0.00842464
-0.0229,0.0100309
-0.0318759,0.044254
-0.0518411,0.035541
-0.0454689,0.00435035
-0.0287288,-0.0151728
0.00683584,0.00514734
0.0246434,0.0067503
0.0189089,0.0139572
0.0100363,0.0132358
0.0345615,-0.0443
0.0438032,-0.0659372
-0.00542514,0.0169671
-0.0865199,0.0489903
-0.0861697,-0.0295279
-0.00459507,-0.0138528
0.0380767,0.0430062
0.0165877,0.0377654
0.00677829,0.0477475
-0.00141335,-0.00454684
-0.0225185,-0.0249325
-0.0386186,-0.0488779
-0.0371579,-0.0285145
-0.0441778,-0.0099925
-0.0432597,0.00276237
0.0373176,-0.0348829
0.100987,-0.0344529
0.0939826,0.0411725
0.0545732,0.0562013
-0.00492836,0.00951349
-0.042925,-0.0166716
-0.0462217,-0.0318148
0.00215197,0.00190738
0.0504368,-0.00599418
0.0247633,-0.013966
0.00571236,-0.0202083
9.54e-05,-0.0337643
-0.0107068,-0.00758494
-0.0394805,0.00453564
-0.0287376,0.0142838
0.0171968,0.0431313
0.0439078,0.0578075
0.0409562,0.0205292
-0.000709899,-0.0113776
-0.0372321,-0.00533625
-0.057113,0.00360325
-0.0558845,0.0036946
-0.0290252,-0.00193764
0.00251043,0.00215705
0.0187705,0.00710219
0.050141,-0.00693743
0.0528408,-0.00605464
0.0544032,0.00899973
0.0483458,0.00541756
0.0249001,-0.0295867
-0.000601093,-0.0359597
0.00514356,-0.0147308
0.00708433,-0.0286828
-0.0122587,0.0415033
-0.0202668,-0.00492215
-0.0265746,-0.026626
-0.0682019,0.00510847
-0.0812948,-0.00408828
-0.0506728,-0.00405576
-0.0304951,0.0170849
-0.0174223,0.043427
-0.00602061,0.0803855
0.00126331,0.0182855
0.0200467,-0.0554374
0.0276992,-0.0313695
-0.0207517,0.0129629
-0.0744614,0.00597558
-0.0514768,-0.0179026
0.00674613,-0.016392
0.0435265,-0.0160964
0.0546583,0.000128112
0.039968,0.0176535
0.0361221,0.0801469
0.0507968,0.05062
0.0358608,-0.0696559
0.00901374,-0.0418664
0.00973329,0.0145401
0.0301187,-0.02187
0.034332,-0.0560291
0.0372192,-0.028649
0.0518366,-0.00654765
0.0379063,0.000934665
-0.020081,-0.00732491
-0.0864126,0.00382277
-0.09296,0.0207283
-0.0634688,0.0228783
-0.0342592,0.0187885
-0.0251579,0.0140642
-0.019728,-0.00393054
-0.0186116,-0.00787961
-0.0390291,0.0264884
-0.0766224,0.0159518
-0.0375038,-0.0173819
0.0616438,-0.0170542
0.100002,-0.0104587
0.0959502,-0.0229095
0.130965,-0.0215439
0.132413,0.023811
0.0647114,0.0443411
-0.010978,0.0131195
-0.0507559,-0.0207486
-0.0271483,-0.0268361
0.00497317,-0.0281395
-0.0432838,-0.0148058
-0.124015,0.0108805
-0.142141,0.0209598
-0.122531,-0.00730286
-0.0562172,0.0190983
0.0228513,0.0304521
-0.0112267,0.0274704
-0.00615645,0.0296628
0.0846547,0.0202607
0.104335,-0.00358011
0.0787738,-0.00550847
0.0502279,0.0347996
0.0109214,0.0192856
-0.0108941,-0.0345873
-0.0213012,-0.0620804
-0.0100852,-0.0311031
0.00876303,0.048638
0.0278002,0.0219884
0.00992813,-0.0356435
-0.0068505,-0.00212888
-0.0267947,0.00649749
-0.0298068,-0.00227315
-0.0316152,-0.0364642
-0.0241819,-0.0335847
0.0216484,0.00422028
0.0230594,0.00731554
-0.0101706,-0.00894288
-0.0178929,-0.00138392
0.00562317,-0.0156859
0.0287313,-0.0160499
0.0157879,-0.026254
0.0112958,-0.0390638
-0.0103447,0.00198745
0.00271946,0.0811289
0.0290271,0.0734304
-0.00398348,0.036054
-0.0237752,-0.0290044
-0.0324406,-0.0475381
-0.0578896,-0.00415369
-0.0811763,0.033005
-0.0402047,0.0442036
0.0301773,0.0292073
0.0544304,-0.0100638
0.0540955,0.0084159
0.0462449,0.00470043
0.0281462,-0.0321019
-0.0108651,-0.0444545
-0.0121935,0.00472743
0.000312985,0.0126744
-0.0167603,-0.0140561
-0.0112015,-0.00642536
0.025606,-0.0164646
0.0281357,-0.00649381
0.0346335,0.00220481
0.0197912,0.00084473
-0.0125182,-0.00275798
-0.0307558,-0.00042228
-0.0283142,-0.000175765
-0.0359687,0.000508848
-0.0451319,0.0683354
-0.0465688,0.0327657
-0.00896955,-0.0788605
0.0450338,-0.0929984
0.0295156,-0.0412789
-0.032863,0.00195787
0.00394173,0.030789
0.0306307,0.0122397
-0.0128762,0.0370106
-0.0107456,0.0811254
-0.00614156,0.00235341
-0.00360762,-0.0292287
0.0128162,-0.00385903
0.0268995,0.00645499
0.0355483,-0.00355167
0.066639,0.00207778
0.0614222,0.00749376
-0.000906419,-0.00605723
-0.0614353,-0.0152999
-0.0522255,0.00124054
-0.015815,0.0226778
-0.013023,0.0299448
0.0044131,0.00157825
0.00550732,-0.000148174
0.0132249,-0.0194898
0.0459076,-0.0294017
0.0596827,-0.00553951
0.0446585,-0.00540219
0.0193463,0.00160646
-0.00105097,0.00356983
-0.0132378,-0.0016249
-0.0161969,0.00411591
-0.0217575,-0.0137145
-0.0260169,-0.036129
-0.0318426,-0.0567028
-0.0177948,-0.0615228
-0.077828,-0.0331037
-0.182807,0.0451465
-0.12894,0.197233
0.0357203,0.183779
0.108905,-0.0714518
0.0698864,-0.105235
0.0343893,-0.00100283
0.0222092,-0.000182433
0.00486823,-0.0130341
-0.00630375,-0.029636
-0.0308843,0.0141938
-0.0427672,0.0171063
-0.0023971,-0.00337233
0.0380715,0.00607422
0.0130404,0.0494637
0.0146208,0.0128025
0.0683927,-0.0851565
0.0736583,-0.0539798
0.0350218,0.0126457
0.0316315,0.0358543
0.0753167,-0.00526249
0.0619513,-0.0453727
-0.0172383,-0.0107632
-0.0635969,0.020344
-0.0671074,-0.0214247
-0.0262335,-0.0517129
-0.0133844,0.029063
-0.033435,0.000442014
-0.0200254,-0.00769149
-4.13e-05,0.0402498
-0.0070289,0.0482922
-0.0421709,0.00315355
-0.0728371,-0.0217002
-0.0686201,-0.00398952
-0.0787767,-0.0142302
-0.0466245,-0.021312
0.0358208,-0.00395816
0.078696,0.0190229
0.0687494,0.0487341
0.0768415,0.0488197
0.0978641,0.00745365
0.0648999,-0.0305584
-0.00486386,-0.0471209
-0.0363272,-0.0230305
-0.0417429,0.0135592
-0.0309813,0.0175863
0.0091115,-0.0194796
0.0160034,-0.0282508
0.0140415,0.00264838
0.0241484,0.0253907
0.0349279,0.0213704
-0.000708244,0.0376733
-0.0507919,0.0215977
-0.0556692,0.0556186
-0.0287372,0.0240833
-0.0167631,-0.0104561
0.0213931,-0.00646091
0.0576811,-0.0241195
0.0319539,-0.0537276
-0.0190959,-0.0352599
-0.0393513,-0.0300626
-0.0179662,-0.0198766
0.0246414,-0.00630751
0.0135124,0.00936343
-0.0247728,-0.00189061
-0.0501211,-0.00513527
-0.0291475,0.0109193
-0.00819155,0.00281045
-0.0150435,0.0322946
-0.00593474,-0.020557
0.0142484,-0.0263154
0.0207942,0.020468
0.0221254,0.00706585
0.0276925,0.00502027
0.0207398,-0.0252283
-0.0024,-0.0383121
-0.0080234,-0.00692206
0.00214385,0.00668727
0.0282206,0.00898994
0.0411613,0.0483845
0.00201002,0.0346275
-0.0332789,-0.00596637
-0.0267217,-0.0195886
-0.0301972,0.0082342
-0.0427488,0.0109985
-0.0195662,-0.031243
-0.00214272,-0.0204837
0.0180735,-0.0107464
0.0130852,-0.0202851
0.0149393,0.0248193
0.0101733,0.0902408
0.0172667,0.0740584
0.0389858,0.0146264
0.0438318,0.0294804
0.0237112,-0.0155519
0.00422232,-0.0568352
-0.00746516,-0.0308178
-0.0164953,-0.0309579
-0.0511849,-0.008716
-0.0737631,0.0198148
-0.0662536,0.00202248
-0.0132865,-0.0447848
0.00348842,-0.0488503
-0.00534183,0.0106535
-0.00742133,0.0806652
0.0260146,0.0212763
0.0364247,-0.00191354
0.0158106,-0.0317687
0.00957761,-0.0577107
0.0164313,-0.0455055
0.0280132,-0.038007
0.0491091,-0.0109196
0.0744065,0.0296128
0.0546349,0.0338964
-0.00859005,0.0187318
-0.0484264,1.64e-05
-0.0638384,0.0083794
-0.0841629,0.0181109
-0.0707984,-0.00695848
-0.047481,0.00473804
-0.0263283,0.043298
0.0197238,0.0367818
0.0692884,-0.00696167
0.0802723,-0.00737307
0.0682281,-0.00963099
0.0239621,-0.0104885
-0.0447961,0.0130609
-0.0337164,-0.028009
0.0303264,-0.0531193
0.108772,0.00167524
0.0982304,0.0250733
-0.00320468,0.0441824
-0.0634893,0.00299078
-0.0587825,-0.0062187
-0.0649102,0.0518327
-0.0438562,0.041804
0.0113392,-0.050792
0.0433784,-0.0793472
0.0307571,-0.0316923
-0.00551917,0.0263889
-0.016984,0.0270825
-0.0220819,-0.00314531
-0.0332795,-0.00761552
-0.0243941,-0.000895713
-0.0205798,0.0356333
-0.0200594,-0.0149114
-0.00660021,-0.0628042
-0.0120326,-0.0108099
-0.0385913,0.0169248
-0.0286226,-0.0161381
-0.00683653,-0.0440064
-0.00433163,-0.0281404
-0.0187828,0.0117503
-0.0093841,0.0411981
0.0170147,0.0247975
0.040542,0.0224497
0.0447776,0.022131
0.0156462,0.0152883
-0.0154435,0.0486478
-0.0162247,0.000747373
0.0119151,-0.0220558
0.0187457,-0.0315305
0.047628,-0.0030611
0.0712395,0.0455191
0.0407488,0.0407627
0.0164941,0.0228293
-0.017594,-0.00144436
-0.0591286,-0.0275183
-0.0745844,-0.0464799
-0.0435878,-0.0521298
0.0142054,-0.0292532
0.0326746,0.0110034
0.0195286,0.0143492
0.00546162,0.00920474
-0.0250907,0.000461571
-0.0313746,-0.0524711
0.00656758,-0.0186464
0.0244558,0.0619686
0.0250462,0.0851757
0.0524113,0.0344093
0.0508243,-0.00848063
0.0247085,-0.0247371
0.00235251,-0.0102356
-0.0137524,-0.00442624
-0.0193789,-0.0255997
-0.0397134,-0.0359052
-0.0537751,-0.020138
-0.025301,0.0303138
0.0131781,0.0528801
0.0107179,-0.0325501
-0.0266061,-0.0567493
-0.0641558,-0.0422169
-0.0517124,-0.0279896
0.0151295,-0.016008
0.0436507,0.0022533
0.0334554,0.0587656
0.0493211,0.0346847
0.0604768,-0.0186403
0.0670371,-0.0225802
0.034522,-0.00265568
-0.0448197,0.0298696
-0.0779019,0.038695
-0.0523621,0.0190856
0.000223171,-0.000550729
0.0236924,-0.00983399
0.0203352,0.0111933
0.0165028,0.0703035
0.00166189,-0.0106626
-0.0198243,-0.0563805
-0.0240594,-0.029176
-0.0250899,-0.00607592
-0.042591,-0.0343837
-0.00981915,-0.0465748
0.0381977,-0.0213328
0.0154221,0.0152271
-0.0167741,0.0582287
0.00542778,0.0626629
0.0160742,0.0234736
-0.0108076,0.0136669
-0.0213582,0.0045995
-0.00482967,0.0185862
0.0201254,0.00742553
0.0186687,-0.0518723
0.0125949,-0.0325071
0.00543696,0.00276973
-0.00209877,0.0460158
-0.00518353,0.00503173
-0.000338819,-0.0489883
-0.00729259,-0.0253038
0.0215468,0.00552781
0.0468991,0.00641764
0.0287329,-0.00936626
-0.00714106,-0.00751446
-0.0141902,0.00840329
-0.0150882,0.0160308
-0.0200708,-0.024237
-0.0109445,-0.0398284
0.0215719,-0.013675
0.0237463,-0.0114512
0.00889747,-0.00589033
-0.00532486,0.0547142
-0.0358678,0.0253341
-0.0379865,-0.025809
-0.0170768,0.0101699
-0.0104404,0.0298584
-0.017623,0.0417172
-0.00913865,0.0305583
0.010705,0.012447
-0.00158165,-0.0189813
-0.0166874,-0.0148521
-0.000104872,-0.0209857
0.0178714,-0.0167239
0.00308138,-0.00352322
0.000449,-0.00972596
0.00519544,-0.000274166
0.00589145,0.0037989
0.000280791,-0.00682676
0.0172464,-0.0216495
0.0202236,0.00263559
0.00147429,0.0399306
0.0135909,0.0208896
0.0158389,-0.0118417
0.0146336,-0.0318584
0.00939434,0.00820811
-0.0113258,0.0159537
-0.0289621,-0.0383188
-0.0495135,-0.0283019
-0.045629,0.000339918
-0.0314388,-0.00968917
-0.00903517,-0.0119316
0.0139448,0.00109545
0.0252859,0.00730371
0.0203944,0.00771472
0.0228877,-0.0123499
-0.00189296,0.00459273
-0.017317,0.0794164
-0.00357332,0.0886551
-0.00146375,-0.00395511
-0.00972356,-0.0131932
0.0138657,0.00277719
0.0284942,-0.0317767
0.0119158,-0.0331888
0.0115491,-0.054119
0.0276172,-0.0492349
0.0247149,-0.00942426
0.0128048,0.0370258
0.0390098,0.0396339
0.0711845,0.0331194
0.0548108,0.0158416
0.00627587,-0.00886307
-0.0414094,-0.0173379
-0.0888046,-0.0257313
-0.0971013,-0.0423679
-0.0848641,-0.0340541
-0.107221,0.0151431
-0.132087,0.0205285
-0.0420521,-0.0265071
0.0872762,-0.063125
0.0947827,-0.0188591
0.0532991,0.0845126
0.0512217,0.110048
0.058616,0.0651094
0.0490899,0.0208844
0.0392567,-0.00782791
0.0541796,-0.0174727
0.0376009,-0.0221047
0.00418439,-0.0145875
-0.0202226,-0.00642689
-0.0257043,-0.00996089
-0.0148848,-0.0295556
0.00517237,-0.0280661
0.00453554,-0.00660873
0.0154014,0.0140486
0.0207182,0.0420707
-0.00698178,0.0427084
-0.00893764,0.000165498
0.00171472,-0.0211676
-0.0311769,-0.029564
-0.0813556,-0.0388519
-0.0874088,-0.0475197
-0.0876967,-0.0339635
-0.0383632,0.010073
0.0345532,0.0427477
0.0517722,0.0436214
-0.002728,-0.000988456
-0.0205926,-0.0547779
0.0132468,-0.0719386
0.0613943,-0.0455046
0.0690873,0.0179522
0.0524109,0.0744255
0.0471256,0.0861975
0.022485,0.0450403
-0.0238342,0.0136758
-0.047372,0.0330772
-0.0737588,0.00151772
-0.0942754,-0.00291684
-0.0644564,0.0405315
-0.00578343,-0.010596
0.013861,-0.0553594
0.0229247,-0.0229697
0.0437302,-0.0565597
0.0228397,-0.0202494
0.0222794,0.0321002
0.000197981,0.0182348
-0.0259287,-0.00977543
0.00773742,-0.0205752
0.072728,-0.0305639
0.0721308,-0.000784328
0.0258268,0.0253509
0.00885987,-0.00333336
-0.0157099,0.000155086
-0.0481605,-0.0152715
-0.027226,-0.0686356
0.00513281,-0.0278858
0.0202436,0.0279228
0.000396657,0.0407991
0.00327633,0.0130614
0.0147187,0.0057412
-0.00636508,0.0614037
-0.0261329,-0.0182773
-0.0312879,-0.0378136
-0.0385844,0.0340896
-0.0215631,0.0396666
0.0338539,-0.00439707
0.0443766,-0.018816
0.00189759,-0.00579461
-0.0161276,-0.00420613
-0.00982392,-0.0342747
-0.0361936,0.0104007
-0.0531872,0.0294214
-0.0234565,-0.0166332
0.00550987,-0.0215665
0.0234424,-0.0137379
0.0300422,-0.00944501
0.00597837,0.0150695
-0.0238156,0.0209226
0.00743079,-0.0132438
0.0342108,0.010878
0.039109,0.0104691
0.025067,0.00988846
0.0232438,0.0429893
0.007401,0.0353086
-0.020133,-0.00804575
-0.0139938,-0.0228317
0.00862863,-0.0381702
0.00461105,-0.0417999
-0.0153229,-0.0332255
-0.0186289,-0.00932436
-0.0271028,0.0142437
-0.0366336,0.0152391
0.0102684,-0.00645521
0.0264882,-0.00935988
-0.0151107,0.0385596
-0.0244401,0.10879
-0.00401704,0.0875453
0.0231246,-0.0284475
0.063133,-0.0890278
0.0556308,-0.024404
-0.0179946,0.0114212
-0.0637242,-0.018865
-0.0565632,-0.0363377
-0.0230204,-0.0377388
0.00029545,-0.0354172
0.0490938,-0.0216207
0.0460972,-0.0139906
0.00844848,0.00713987
0.0140525,0.00549205
0.0095494,-0.0095221
-0.033742,0.0410288
-0.0661239,0.0990517
-0.0686929,0.0641625
-0.0449114,-0.0184493
0.00758548,-0.0335053
0.0394581,-0.0188093
0.0455668,-0.0509493
0.0625599,-0.0283917
0.0820968,0.0258968
0.0692284,0.0245987
-0.00483129,0.0248645
-0.079242,0.0476223
-0.0603216,0.0080792
-0.0218948,-0.0156972
-0.00906058,-0.0344558
0.0295036,-0.0468903
0.0296503,-0.0213887
-0.0300166,0.021103
-0.0462802,0.0979153
-0.0159343,0.0143473
-0.0486555,-0.064183
-0.0162963,-0.019091
0.058192,0.0109108
0.0544276,0.0202762
0.0396437,0.00979177
0.0237405,0.00269284
-0.00103606,-0.0197107
-0.0119156,-0.0140068
0.038174,-0.0249326
0.10361,-0.00140299
0.106054,0.0045109
0.0790215,-0.0278385
0.0103572,0.0121078
-0.0615477,0.0400478
-0.117794,0.0198216
-0.13842,-0.0250069
-0.10464,-0.0285776
-0.0572669,-0.00884493
0.00861224,0.00626965
0.0396135,0.01533
0.0264044,-0.00551316
0.0179486,-0.0221196
-0.00432962,-0.00372632
-0.0370492,0.0340885
-0.0517044,0.0229457
-0.0612364,-0.0543898
-0.030032,-0.0673854
-0.00366423,-0.0166325
0.00291106,0.0597434
0.015023,0.0409207
0.0111434,-0.0169441
0.00311352,0.0180515
0.0143345,0.0566851
0.0379119,0.0191253
0.0459053,-0.00155682
0.0616483,-0.0220557
0.0318487,-0.0142568
-0.025976,0.0187898
-0.0252951,-0.0102613
-0.0106947,-0.0218529
-0.0323205,0.0143832
-0.0550349,0.00925231
-0.0120278,-0.0251828
0.0800017,-0.0332796
0.118374,-0.0147163
0.0791362,-0.00540628
0.0209783,-0.0124964
-0.0152381,-0.00786834
-0.0238561,0.0251251
-0.0172292,0.0261955
-0.00508692,0.0113579
0.00912715,-0.00140148
0.0330809,-0.0294024
0.0381934,-0.0364696
-0.0104337,-0.0254664
-0.057274,-0.0106982
-0.0723965,-0.000171333
-0.0758049,0.0472638
-0.0547159,0.0442991
-0.0247288,0.0295913
0.00953368,0.0540234
0.0232069,0.0254792
0.0326101,-0.0138428
0.0471356,-0.0270145
0.0539633,-0.0471613
0.0419764,-0.026576
-0.0195462,-0.00293373
-0.0612586,0.00321355
-0.0162091,0.00528458
0.0294207,-0.00380021
0.0281784,-0.0148991
0.0209514,-0.0189464
0.0198914,-0.00661133
0.000357568,0.0658267
-0.0335573,0.032827
-0.0438196,-0.00510938
-0.0164913,-0.0235728
0.00669885,-0.0339587
0.0026731,-0.0063006
-0.0243287,0.00778056
-0.0487035,0.0172318
-0.0237025,0.0841824
0.0334451,0.0699041
0.0590339,-0.0139942
0.0535175,-0.0030123
0.0348371,0.016237
0.01029,-0.0310046
-0.0158674,-0.0448021
-0.0260828,-0.025888
-0.0286326,-0.0172888
-0.0237242,-0.0210868
-0.0596788,-0.0298937
-0.0543007,-0.0447851
-0.0139868,-0.0294014
-0.00652766,0.00912423
0.0281151,0.00860232
0.0523656,0.0434907
0.0527881,0.0185886
0.034465,0.0141305
0.000333363,0.0339323
-0.0311067,0.0296622
-0.0266359,0.0154623
-0.0100603,-0.0379613
-0.0428241,-0.0439498
-0.0724684,-0.0213387
-0.0427726,-0.00395939
-0.0212922,-0.0256951
-0.0211796,-0.0201882
0.0280981,0.0376068
0.0878455,0.0363984
0.084969,0.0195771
0.0306222,0.0019104
0.0504534,-0.0257799
0.0716327,-0.0344607
0.0443197,-0.0377476
0.0373775,-0.026163
0.0316347,0.0119005
0.0088958,0.0154309
-0.0100697,0.00750461
-0.0308648,0.0231579
-0.0464069,0.0433597
-0.0389751,0.0179843
-0.0436284,-0.0123804
-0.0742071,-0.00570311
-0.0900961,0.0298664
-0.0875409,0.0297499
-0.0118738,0.0136406
0.0342271,0.0106321
0.0321904,0.0111845
0.0237304,-0.00158584
-0.00944779,-0.0314079
-0.0375153,-0.0426662
-0.0536696,-0.016656
-0.0484805,0.00402755
-0.0017142,-0.016752
0.0342245,-0.0141363
0.0388082,0.0100739
0.0733214,0.0556199
0.10229,0.041442
0.0887404,-0.0183246
0.0424434,-0.0279939
-0.0104921,-0.0134774
-0.00622462,-0.0135834
0.0210024,-0.032597
-0.0105606,-0.0198532
-0.0158801,-0.00570372
-0.0141851,-0.0062305
-0.0148487,-0.014459
0.00816458,-0.0200925
0.0152319,-0.00981763
-0.0124715,0.00669539
-0.0215036,0.0156195
-0.0103828,0.0168455
-0.00434013,0.0147185
-0.00742257,0.0144168
-0.037013,0.0490815
-0.0571174,0.098258
-0.0480511,0.0195352
-0.0475201,-0.0837646
-0.0248606,-0.0470028
-0.00275296,-0.00419407
0.0319318,0.0100549
0.0787957,0.00110457
0.109787,-0.00144772
0.0916616,-0.0138445
0.0386487,-0.026759
0.00336337,-0.030165
-0.0123921,-0.0195267
-0.0155778,0.0231141
-0.0135338,0.0458319
-0.0256323,0.0109994
-0.0353873,-0.0102545
-0.0334123,-0.0144919
-0.0385445,-0.000585723
-0.0555882,0.0119649
-0.0390614,0.0117725
0.0145938,0.0187487
0.0504758,0.0121434
0.0452412,4.81e-05
-0.0101107,-0.00740219
-0.0640447,-0.0352285
-0.0943597,-0.0493597
-0.0492123,-0.0144375
0.00577097,0.0197362
0.0232842,0.000929241
0.0445164,0.0146053
0.0379344,0.0267712
0.00871275,0.0227754
0.0184253,0.0231036
0.0426012,0.0251109
0.0427215,0.00224314
0.00801307,-0.00679141
-0.00173957,0.0434004
-0.012388,0.0826349
-0.0170277,-0.00133985
-0.0254513,-0.0633399
-0.0266339,-0.0589006
-0.00259449,-0.0471646
-0.00146186,-0.0388682
0.00681272,-0.0295444
0.0106774,-0.00486964
0.0258441,0.0288844
0.0509615,0.0310192
0.0421468,0.0123127
0.00939494,0.0129986
-0.00669222,0.0153732
0.00404135,0.00327039
0.00811502,-0.00809038
0.000510208,-0.00556132
0.00666649,0.00405056
0.00125345,0.00900885
-0.0169154,-0.00443351
-0.0333037,-0.0126938
-0.0770227,0.00314873
-0.0737528,-0.0319291
-0.0133548,-0.0594838
0.0166932,0.000767538
0.0174886,0.0433619
0.0282276,0.0328862
0.0186911,0.00257971
-0.019048,0.0651552
-0.0207052,-0.0679658
-0.00847114,-0.094124
-0.0156934,0.000401402
-0.0519225,-0.0299811
-0.0497391,-0.0661708
0.0425594,-0.0339556
0.0831757,0.0596715
0.0394719,0.111337
0.0333971,0.0758553
0.0272337,0.0054181
-0.0210283,-0.00166011
-0.0500639,0.134096
-0.0150559,0.0789455
0.0319549,-0.0919822
0.0590456,-0.0672397
0.0619793,-0.0312249
0.041695,-0.0402179
0.00900508,-0.0347696
-0.0108748,-0.0319043
-0.0195406,-0.00849188
-0.0212292,0.037078
-0.00237928,0.0330464
0.00194914,-0.00637266
-0.0294482,-0.0100902
-0.0674151,-0.00666758
-0.0670545,-0.0165314
-0.0465782,-0.039385
-0.0428622,-0.0433818
-0.0580076,0.00920129
-0.00936607,0.0508894
0.0891564,0.0488778
0.108518,0.0135071
0.0530317,-0.00385354
0.0148976,0.00337861
0.00967448,0.0333661
-0.0171615,0.0532342
-0.0466403,0.00202913
-0.0208663,-0.0384841
0.0503033,-0.0107244
0.0518569,0.0119067
-0.0269774,0.0100723
-0.0575254,0.0293769
-0.0390968,0.00100837
-0.0575024,-0.0331457
-0.0751745,-0.0459667
-0.036484,-0.0344219
0.0604985,-0.0404396
0.111918,-0.0114261
0.117295,0.0262671
0.111322,0.00980049
0.0510746,-0.0121179
-0.0202705,-0.00310254
-0.0614939,0.00190799
-0.0861779,0.010457
-0.104644,0.025406
-0.0755192,0.0277119
-0.0214686,0.00208631
0.000835373,-0.0384278
0.0419805,-0.0293906
0.0614565,0.0566757
0.0223056,0.0498073
-0.00146426,-0.00839655
-0.0113428,-0.0191106
-0.044102,-0.018707
-0.0209692,-0.0338493
0.0321443,-0.0238756
0.0517533,-0.0174035
0.0434618,-0.0193351
0.0305319,-0.0109075
0.0167994,-0.0282767
-0.008778,-0.00164748
-0.0120634,0.036808
0.00106317,0.0235103
-0.0214394,0.0159395
-0.0596304,0.0217764
-0.0513811,0.0123455
0.00743125,0.00451401
0.0546812,-0.0178889
0.0246349,-0.0147516
-0.0222745,-0.00100415
-0.00910055,0.0137029
0.0226626,0.0171917
0.0305752,0.0151615
-0.00464329,0.0200953
-0.0258941,-0.00461981
-0.013333,-0.00475768
-0.0157535,-0.000282218
-0.037213,-0.0189871
-0.0118359,-0.0393385
0.0392398,-0.0205114
0.0738534,0.0366308
0.0626516,0.0529311
-0.00554903,0.0321969
-0.067936,-0.0220184
-0.0743857,-0.0265652
-0.0514749,-0.00183767
-0.0451521,-0.00619016
-0.00395385,-0.00785892
0.0517919,0.012868
0.0702486,0.00609175
0.0354973,-0.00433155
-0.0364182,0.0387948
-0.0213231,0.00945727
0.0115249,-0.0297664
0.0367499,-0.0340446
0.00059445,0.00516917
-0.00909639,-0.0169945
0.0570735,-0.0546031
0.072006,-0.000531917
0.00691697,0.151683
-0.0512803,0.161872
-0.093806,-0.0833716
-0.100892,-0.112641
-0.0310573,-0.0664316
-0.0099646,-0.0248405
0.00568023,-0.0046528
-0.00304584,0.0153245
0.00138184,0.00320975
0.03211,0.039787
0.0301747,0.0149895
0.0368152,-0.0337442
0.0317432,0.00596798
0.0410992,0.00794671
0.0557607,0.00953471
0.0384733,0.0085472
0.0141164,-0.0122952
-0.00290265,-0.0342805
-0.00186821,-0.025005
-0.013373,0.0547096
-0.0267877,0.0339203
-0.0466531,-0.0228871
-0.0738419,-0.0233192
-0.05698,-0.0117374
-0.0366528,-0.0164241
-0.0200046,-0.0365643
-0.00372508,-0.0046882
0.00183063,0.0564456
0.0287828,0.0438339
0.0245436,0.0130024
0.0183227,0.00826663
0.055665,-0.000306794
0.0362689,-0.0298523
-0.0182583,-0.044901
-0.0162449,-0.0538205
0.00976926,-0.0444889
-0.0205289,0.0145606
-0.038081,0.0763574
0.0137324,0.0364199
0.0414245,-0.000934207
0.0535151,0.00632382
0.0583314,0.00685946
0.0402633,-0.0123689
0.0269785,-0.0171149
0.0422678,-0.027908
0.0530678,-0.017573
0.0177081,0.0114773
-0.0369722,0.0303074
-0.0760335,0.0425163
-0.0780335,0.0337253
-0.0560731,-0.0210903
-0.0424217,-0.0117326
-0.0432174,0.00315217
-0.0388445,-0.0138015
-0.0207407,-0.0108694
-0.0124155,0.00576275
-0.0166944,0.014562
-0.0291345,0.00150093
-0.0285496,0.00698981
-0.0190471,0.0062437
-0.0234122,-0.00444907
0.00777701,-0.0112342
0.06429,0.0020115
0.0845329,0.00705958
0.0862303,0.0056069
0.0762288,-0.00690684
0.0389182,-0.00745394
-0.000367727,-0.00947264
-0.000481632,-0.0177216
-0.00368903,-0.0320695
-0.0199221,-0.0387245
-0.0324553,-0.0154549
-0.0255221,0.00918319
-0.0145665,0.0215909
-0.0456318,0.0842501
-0.0699824,0.0270061
-0.0727346,-0.0253674
-0.041471,0.0452756
0.0503097,0.0677186
0.116898,-0.0423537
0.0833537,-0.0975806
0.0473071,-0.0302845
0.01219,-0.00313054
0.0034901,0.000110147
-0.000628095,-0.001827
-0.0238501,0.00807288
-0.0274199,0.011575
0.00317966,-0.000541842
0.0131627,0.000431186
-0.00692884,0.0104866
-0.00961433,0.0172478
-0.000390069,0.0182068
0.00918288,-0.0203761
-0.0313586,-0.0520094
-0.0698458,-0.0119141
-0.0438088,0.0477139
0.00271106,0.0195262
-0.00184531,0.0171859
-0.0149814,0.0323505
-0.0146721,-0.00604337
-0.0286506,-0.0252479
-0.0281845,-0.0393486
0.00114956,-0.0323564
0.0275768,-0.0129578
0.0641721,0.015946
0.0680409,0.0312537
0.0569553,0.00869563
0.0696415,-0.00854949
0.0687776,-0.00809166
0.0237531,-0.00432673
-0.0321216,-0.0113498
-0.0616674,-0.00532689
-0.0497342,0.00868229
-0.0289203,0.0190141
-0.0131647,0.0218423
-0.007261,0.00610485
-0.00950649,-0.00403107
-0.0418716,-0.00563495
-0.0739284,0.00220822
-0.0521693,0.0207164
0.0175189,-0.00829469
0.0632604,-0.0229933
0.0394353,-0.000228205
-0.00287928,0.0122548
-0.0111491,-0.000524402
-0.00341558,-0.0280631
0.00905304,-0.0436003
0.0063884,-0.0296191
0.00958823,0.0311239
0.0100282,0.0485297
0.0203131,-0.000669865
0.0322839,-0.00376138
0.0365945,-0.00312573
0.0399313,0.0322724
-0.00493683,0.00523967
-0.0689259,0.0156742
-0.0675217,0.0441321
-0.0310479,0.00427487
-0.0209343,0.00473804
0.0133039,-0.00412367
0.0550844,-0.0435575
0.0520724,-0.0403021
0.0130923,-0.0166342
-0.0292886,-0.00204747
-0.0511438,-0.00598435
-0.0363019,-0.000366424
-0.0109956,0.012166
-0.00199795,0.0086033
0.0163844,-0.0136655
0.040066,-0.0302793
0.0268284,-0.00874541
0.0216239,0.00485173
0.0153141,0.019234
-0.0030912,0.0334352
0.00638,0.0380687
0.0250151,0.00491999
0.00333766,-0.0234187
-0.0200606,-0.00424594
-0.0181186,0.0148957
-0.0280845,0.0723173
-0.0420129,0.0715595
-0.0258695,-0.0763195
0.00292259,-0.0566246
0.00652683,-0.0136526
0.00492242,-0.00508974
0.0242879,-0.0219684
0.0339931,-0.0377285
0.0230126,-0.010225
0.0156334,-0.00943813
0.00194974,0.0177651
-0.0193948,0.0603562
-0.011164,-0.0344175
-0.0179517,0.00130013
-0.0418043,0.0275472
-0.0320209,-0.033164
-0.0157417,-0.0369435
-0.022239,-0.0222698
-0.00576764,-0.00950057
0.0258884,0.00526697
0.0429882,0.0106404
0.0267728,0.0103731
0.0201134,0.0046854
0.0417225,0.00122454
0.036251,0.0132724
0.0103155,0.00746754
-0.00602717,-0.0124958
-0.0240361,-0.0140023
-0.0175525,-0.00208927
-0.00512736,0.00305923
-0.0088095,-0.00167905
-0.0276207,0.0152034
-0.0252181,0.0223221
-0.00771315,0.00276971
0.00143875,-0.0167012
-0.00608272,0.025342
0.0112513,0.0577066
0.0292115,0.0408001
0.0188826,0.0073373
-0.00266932,0.00748021
-0.0129414,0.0125073
-0.0163051,-0.0158362
-0.0344504,-0.0406674
-0.0160867,-0.0321262
0.00664873,0.00301641
0.0273181,0.0241873
0.0627588,-0.00768946
0.0789917,-0.0439876
0.0495819,-0.0279947
0.00499789,0.0148176
-0.0256379,0.00324609
-0.0476547,-0.0237762
-0.0340606,-0.0116959
-0.00129802,0.00201287
0.00270738,0.00332187
-0.0212616,0.00271955
-0.0363718,0.0135411
-0.0422399,0.025386
-0.0450841,0.0357174
-0.0285254,0.0134438
-0.0136378,-0.00589551
-0.00157738,-0.0138129
0.0238203,-0.0150704
0.0477219,-0.0102241
0.0215305,-0.00670676
-0.00885158,-0.00686402
-0.021131,-0.0175242
-0.0237053,-0.0215394
-0.0300027,0.0157272
-0.0153354,0.0210542
0.00768818,0.00394172
0.0148189,-0.00574352
0.0217849,-0.0137835
0.0156489,-0.0108284
-0.00784887,0.00412666
-0.018337,0.0099922
-0.00365428,0.0017652
0.037662,-0.00269534
0.121373,0.00278325
0.175677,0.00481065
0.163434,0.00339194
0.0953745,0.0148228
0.010119,0.0252842
-0.0706503,-0.00605376
-0.149411,-0.0324619
-0.177706,-0.0102061
-0.135862,0.0243659
-0.082105,0.025359
-0.0623242,-0.00272728
-0.0367545,-0.0110131
-0.0246762,0.00326007
-0.0192411,0.00993507
0.00679667,-0.00887721
0.0156756,-0.0181058
0.00878548,-0.0160938
0.0382541,-0.000700094
0.0585009,0.0152896
0.0354229,0.0124668
0.0120107,0.000932617
0.00534019,-0.00307633
0.00204334,-0.00604397
0.00183615,-0.0107167
0.00916733,-0.0120879
0.0373469,-0.00425168
0.057182,0.0306931
0.0481001,0.045638
0.0303333,0.00336868
0.00207725,-0.0313101
-0.020869,-0.0238795
-0.0345202,-0.0118445
-0.0380594,-0.00287765
-0.0353919,-0.00601162
-0.0220863,0.0039452
-0.0225001,0.0157898
-0.0324291,-0.00534516
-0.0326004,-0.0188107
-0.0211694,-0.00760645
-0.0162442,0.00258325
-0.0131102,0.00903289
0.0105742,0.00610459
0.0581884,-0.0008121
0.0826265,-0.00303541
0.0753639,-0.0121702
0.0473638,-0.0247844
0.0173291,-0.0135255
0.0180979,0.00480452
0.0794141,0.0502455
0.125841,0.0258551
0.137885,0.00099664
0.123073,0.0225046
0.0468192,0.0151571
-0.0784939,-0.01148
-0.167254,-0.0174297
-0.188889,-0.00864461
-0.182082,-0.00820855
-0.167406,-0.019957
-0.108025,-0.00883278
-0.0393346,0.00683841
-0.00845198,0.00637323
0.00792388,0.00247414
0.0127886,0.000158936
-0.00144102,-0.00379985
-0.0191762,-0.00836758
-0.0237102,-0.0064147
-0.0216253,-0.00149019
0.0176779,0.00842007
0.0679854,0.0103494
0.0805952,0.00346491
0.0780246,-0.00129657
0.0843666,-0.00181074
0.062119,-0.00125471
0.0116067,-0.00408183
-0.0293733,-0.00231062
-0.0428629,0.00939642
-0.0307834,0.0317387
-0.0207314,0.0219578
-0.00738749,-0.0143405
-0.00971731,-0.0217483
-0.0245168,-0.0210994
-0.0259099,-0.00467567
-0.000393769,0.0237843
0.0165024,0.0149283
0.0556755,-0.0103681
0.0660589,-0.00818274
0.0158481,-0.00876489
-0.0347617,-0.0148007
-0.0278469,-0.00368643
0.0405845,-0.00387309
0.137936,0.00150091
0.224251,0.00173134
0.312838,0.0048309
0.287471,0.00802605
0.104137,0.00202361
-0.0929896,-0.00510779
-0.210718,-0.00759272
-0.264995,-0.0110903
-0.29343,-0.0111803
-0.302261,0.00466202
-0.248607,0.0143054
-0.144452,0.00610495
-0.0857539,0.00233804
-0.0627505,-0.00484529
-0.0273507,-0.0137082
-0.0223439,-0.00837108
-0.0240446,-0.0117391
-0.00727705,0.00974534
0.00993339,0.0436896
0.0884402,0.0472087
0.193639,0.0362341
0.254674,-0.000944392
0.29489,-0.0455068
0.295753,-0.0416567
0.215919,-0.0190351
0.0712448,-0.00631494
-0.122806,0.00616782
-0.268317,0.0265243
-0.308314,0.0448191
-0.247348,0.0223165
-0.115548,-0.00490973
0.047626,0.0137064
0.13804,0.00289818
0.14308,-0.0360543
0.112305,-0.0384725
0.064168,-0.00540506
0.0581827,-0.00282339
0.0525631,-0.0130945
0.0664598,-0.0106488
0.0128317,-0.00493465
-0.0919858,-0.00766069
-0.122784,-0.00883554
-0.113035,-0.0034095
-0.121902,0.00832886
-0.0358236,0.0239483
0.0422306,0.0337766
0.0108662,0.00862604
0.00977447,-0.0116183
0.0234426,-0.00685173
0.0137745,0.000309315
0.000485704,-0.00789599
-0.0105909,-0.0131564
-0.0366623,-0.00256115
-0.0712904,-0.000164553
-0.0655135,-0.000944524
-0.0397079,0.000258881
0.0261463,-0.00390295
0.0677697,-0.00384512
0.0822576,0.000907251
0.0927911,-0.00158655
0.0662812,-0.00532394
0.0417238,-0.00376404
-0.000704551,0.00969888
-0.0391165,0.0171588
-0.0541285,-0.000377071
-0.0829553,-0.00601409
-0.0661525,0.0118481
-0.0128945,0.0283157
0.0198744,0.0151912
0.0528957,-0.0170929
0.0496691,-0.0350937
0.000442416,-0.00738022
-0.0385047,0.00519838
-0.058048,0.00198183
-0.0760558,0.011247
-0.0271833,0.0115892
0.017874,0.038993
0.0399202,0.0385419
0.0735626,-0.0116362
0.0492858,-0.0231947
-0.00712796,-0.0252262
-0.00790493,-0.025301
