Comp Ch 3,Comp Ch 4
-0.00492923,0.00766252
0.0155457,-0.00334011
0.0189023,0.00203705
0.00962648,-0.0133872
-0.000512308,-0.0207463
-0.0106403,-0.00711772
-0.00785901,-0.00873976
0.00944297,-0.00701854
0.0207159,0.0109015
0.0251687,0.0279996
0.0383973,0.0240249
0.0421072,0.00345404
0.0227036,-0.0103713
-0.00265784,-0.0112381
-0.0264097,0.0369147
-0.0354206,-0.0378899
-0.040503,-0.0116409
-0.0188949,-0.0518915
0.00278231,-0.0210051
0.000310014,0.0201713
-0.0136164,0.0239882
-0.0275596,0.0172398
-0.0339147,0.0107894
-0.0271882,0.00358703
0.0184376,0.0090616
0.0810647,0.0113991
0.123057,0.0242048
0.125032,0.0480398
0.0669601,-0.0221428
-0.0372716,-0.0572849
-0.0879641,-0.0403845
-0.0959732,-0.0252774
-0.0559492,0.0205604
0.028308,0.0593488
0.100203,-0.000313393
0.115211,-0.045529
0.0571361,-0.0224558
-0.0319617,-0.0158056
-0.13268,0.00139815
-0.180371,0.00129992
-0.13436,0.00462454
-0.0607872,0.0125063
0.00082961,0.0249155
0.0574027,0.0382171
0.0731546,0.0122568
0.0429485,-0.00901031
-0.00543494,-0.00597428
-0.0353404,-0.0103207
-0.029665,-0.0312233
-0.0181646,-0.0249689
0.00470875,-0.016012
0.0288915,0.00385666
0.0263159,0.0154518
0.00975891,0.00900557
-0.0016249,0.0287114
-0.00821603,0.0338078
-0.0044201,-0.0135035
-0.0014103,-0.0156744
-0.00315793,0.0417526
0.00101872,-0.00419238
0.0165694,-0.00616111
0.0271222,-0.0158016
0.0246379,-0.0597302
0.021505,-0.02968
0.0208092,0.0694877
0.0329078,0.0128112
0.0594786,-0.0690855
0.096204,0.0497198
0.103539,0.0417981
0.0383919,-0.0357207
-0.0558607,0.0295174
-0.127457,0.0739727
-0.1349,0.0139982
-0.0800295,-0.0967063
-0.0146037,-0.0143168
0.0393659,-0.000980644
0.0562723,-0.00637518
0.0502299,-0.0317902
0.0197126,-0.0289523
-0.0295665,0.0214229
-0.0434826,0.0311671
-0.0451421,-0.00569773
-0.0375087,-0.0287217
-0.0273338,-0.0213459
-0.00793456,0.00393468
0.00865181,0.0129334
0.0066166,-0.00104797
0.00619037,-0.00767483
0.00467181,-0.00861145
0.00321183,-0.000898348
0.00646588,0.0128163
0.0110083,0.0232254
0.00824923,0.0168805
0.0186791,0.0189342
0.0263003,0.0260661
0.0130858,0.0172796
-0.0025107,0.0111131
0.00347094,0.00206825
0.00719937,-0.00882415
0.00282834,-0.0286608
0.00844469,-0.0374555
0.0133673,-0.0217711
-0.00449752,-0.00800256
-0.0222838,0.0135792
-0.0239932,0.040754
-0.0138049,-0.0519337
-0.0046615,-0.026372
0.00608704,0.0164098
0.00960765,0.0107244
0.00821121,-0.00340925
0.0250228,0.00674397
0.0492711,0.00352376
0.0354649,0.00465864
0.0121935,0.0431276
0.00925907,0.0136708
-0.0114353,-0.0273465
-0.0479608,-0.010715
-0.0484774,0.00336948
-0.0249536,0.0158713
-0.0359172,0.018956
-0.0431063,0.0477727
-0.022753,0.0289964
-0.0111034,-0.000231186
-0.0048424,0.0708327
0.0311792,-0.0423442
0.0488214,-0.0710143
0.0490043,-0.0236928
0.0354396,0.0017002
-0.00791001,-0.0240837
-0.0495022,-0.00889288
-0.0407426,-0.00332477
-0.0198358,0.00533997
-0.0180859,-0.0195748
-0.00128148,-0.0613037
0.0672443,-0.0250042
0.109491,-0.00808775
0.0714125,0.0220897
0.0355478,0.043736
0.032562,0.0664176
0.00343633,-0.00409471
-0.0364443,-0.0185201
-0.0532048,0.0023848
-0.0903735,-0.0038805
-0.0640816,-0.00927978
-0.0299303,0.014949
-0.0521052,0.0435624
-0.0404315,0.0580552
-0.0195009,0.0159627
-0.0135805,-0.0316602
-0.0116332,-0.0418052
-0.00395065,-0.00179243
0.0140895,0.0124349
0.0191625,0.0124973
0.0115041,0.0235646
0.0255064,-0.0288754
0.0392825,-0.0544427
0.0370555,-0.0355723
0.0228412,-0.00790048
-0.00152718,-0.0104343
-0.0188953,0.00575323
-0.00122997,0.00257819
0.0102546,0.0121985
0.00883102,0.0120314
0.0181397,-0.0156022
0.0190422,-0.00160704
0.0032044,-0.0133239
-0.0130324,-0.0206613
-0.0137053,-0.00653328
0.00140143,-0.00703973
0.0174619,-0.0107448
0.0316791,-0.0063976
0.024564,0.00949389
0.000309496,0.0124593
-0.0118087,-0.0178669
-0.00275931,0.00456493
0.0134958,0.0242093
0.0319934,0.00632943
0.0379781,0.000403251
0.00546743,-0.000132745
-0.0314049,0.0100642
-0.050407,0.0236839
-0.0526193,0.0169101
-0.0568496,-0.0155998
-0.0401748,-0.0560194
-0.000518149,0.0109629
0.0245297,0.0447786
0.015334,0.0372924
0.00446467,0.0265276
-0.0156274,0.0222083
-0.0405634,0.0581167
-0.0205618,-0.0896819
0.0169079,-0.0583272
0.0514127,0.00772259
0.0915348,0.0346914
0.110886,0.00558254
0.083454,-0.0110516
0.028519,0.00463565
-0.0139298,-0.00836695
-0.0611276,-0.0372602
-0.100292,-0.0318644
-0.0943179,-0.00643978
-0.0546909,0.00581194
-0.0199909,-0.000264324
0.00469096,-0.0138973
0.00719762,-0.00821548
-0.0173112,0.0008217
-0.0426012,-0.0056291
-0.0212152,-0.0165722
0.0044282,-0.0226051
-0.0207566,0.00778083
-0.0414478,0.0291192
-0.0113212,0.0278709
0.0444031,0.00399524
0.0675277,-0.0016468
0.0457806,0.00590656
0.0282592,0.00127913
0.0461055,-0.00733363
0.105945,0.0425723
0.0494217,0.089711
0.00726446,0.0532219
-0.0148313,-0.0329942
-0.0444673,-0.0367375
-0.0604684,-0.00931051
-0.0566478,0.0145937
-0.0410785,-0.0116715
-0.00658114,-0.0356828
0.0208734,-0.0164587
0.0150026,-0.0214525
-0.0138876,0.000861389
-0.0336271,0.0314642
-0.0205557,0.00715976
0.00732249,-0.0134733
0.0371728,-0.00901101
0.0826392,0.0192952
0.092967,0.0341029
0.0411966,-0.000975196
0.0168825,-0.0257205
-0.00475288,-0.0105486
-0.0423947,-0.010406
-0.0683201,-0.0234102
-0.0769553,-0.0145712
-0.074367,0.0428157
-0.0233268,-0.00926895
0.0195488,-0.0292671
0.0278972,0.000103352
0.0172489,0.011932
-0.00235049,0.00976007
-0.027662,0.00106434
-0.0390564,-0.00209665
-0.0356632,0.0088725
-0.00560491,0.0263353
0.0226682,0.0605882
0.0363814,0.0521629
0.0562915,-0.0242056
0.0568556,-0.0429534
0.0526911,-0.0345509
0.0437771,-0.0279776
0.0177737,-0.0310961
-0.0113009,-0.00962165
-0.0302569,-0.000798787
-0.0566453,-0.00147456
-0.0601343,0.0199263
-0.0420982,0.0333254
-0.0227301,-0.0125727
-0.00693161,-0.015472
0.0326098,0.109368
0.0920817,0.0311538
0.115726,-0.0913975
0.0676263,-0.0493486
-0.00430951,-0.0100143
-0.0624662,-0.000844709
-0.0841798,-0.00549522
-0.0771009,-0.0112495
-0.0602446,-0.012518
-0.036029,-0.0257469
-0.00986824,-0.022414
0.00193427,0.0170044
-0.000924508,0.0257743
-0.0130795,0.0261155
-0.0143993,0.0305102
-0.0105575,-0.00923535
-0.00354689,-0.0171063
-0.000605996,0.0166043
0.0140616,0.0163067
0.0336096,0.00687386
0.0443319,-0.000999104
0.0689556,0.00790621
0.078453,0.0357077
0.0496018,-0.00567592
-0.00570944,-0.0470888
-0.0453767,-0.0290127
-0.0600564,-0.0227265
-0.043916,-0.00959242
-0.00501355,0.0122176
0.0145914,0.0160175
0.0194964,-0.00131937
0.0285577,-0.0122338
0.00953207,0.00214955
-0.0129005,0.00863018
-0.0235503,-0.000669947
-0.0200302,0.00731225
-0.0141045,0.0130208
-0.00156677,-0.00184573
0.0151099,-0.00730842
0.00900838,-0.00441147
-0.0117535,0.000336785
-0.00897973,-0.00201377
0.000886949,-0.00244825
0.00942267,0.000761869
0.0214732,0.0263815
0.0188007,0.00218042
-0.00899646,-0.00713299
-0.0317805,0.0230567
-0.0391131,0.00846161
-0.0416525,-0.0207044
-0.0341359,-0.0134486
-0.0153871,0.0069975
0.0099251,0.00211517
0.018138,-0.00563601
0.0202909,-0.00928858
0.0273782,-0.00972578
0.0209075,-0.00656855
0.00577747,0.00561803
-0.0014497,0.0229005
-0.00620262,0.00533203
0.00184554,-0.0256916
0.0198519,-0.0125733
0.0207772,0.00612331
0.0177726,0.00492631
0.0179851,0.00359874
0.02,0.00260398
0.0105663,0.00976674
-0.00237317,0.0413239
0.018041,0.0393634
0.0436856,-0.012205
0.0400686,-0.0244559
0.0293693,0.0111622
0.00907944,0.00987322
-0.0240752,0.020539
-0.0482297,-0.0014607
-0.051908,-0.0533607
-0.0579349,-0.0176322
-0.0339269,-0.0102714
0.00905545,-0.0246391
0.0263077,-0.0229336
0.00414484,-0.00143944
-0.0191525,0.010891
-0.0313053,-0.0184191
-0.0368074,-0.024143
-0.0400148,0.000605902
-0.018205,0.0474413
0.00303862,0.0837582
0.00596923,0.0532638
0.0288072,-0.0156994
0.0437029,-0.00776403
0.040989,-0.00733668
0.0374409,-0.0303567
0.0189121,-0.0531512
-0.00797255,-0.0235186
-0.0148422,0.00191731
-0.0179928,-0.00796457
-0.0349613,-0.0129272
-0.0336994,-0.00152979
-0.0239492,0.0104786
-0.0240538,0.00578163
-0.0215406,-0.00651377
-0.0026814,-0.000979747
0.0164756,0.0152094
0.0173513,0.0139075
0.0117042,0.000309584
0.0189725,-0.000562917
0.0140798,0.0226023
0.0131272,0.0131264
0.0220884,-0.021408
0.0102435,-0.00969253
0.00355346,0.00732347
0.0181604,0.0136214
0.0160881,0.0097709
-0.00283668,0.0104402
0.0021262,-0.00900236
0.0289605,-0.0193194
0.024481,-0.014914
-0.0013545,-0.017883
-0.0072155,-0.000611518
-0.0198709,0.0281845
-0.0406655,0.0440838
-0.0285754,0.015634
-0.00561679,-0.00102264
-0.00375178,0.00174227
-0.0138355,-0.00067065
-0.0154082,0.00461939
-0.0101251,0.00281609
0.00702092,-0.0303215
0.0190191,-0.0278495
0.000725771,-0.00803106
-0.015768,-0.0111834
-0.0115736,-0.00832263
-0.0082865,-0.00954241
-0.0181191,-0.00790729
-0.0273385,-0.00799009
-0.00759665,0.00378558
0.0261492,-0.00286953
0.0452444,-0.00253965
0.056951,0.0300572
0.0546335,0.0305305
0.0420144,0.00435267
0.0270927,-0.0348824
0.000842985,-0.0233819
-0.0194385,-0.000181186
0.00146538,0.0110133
0.0137209,0.018274
-0.0113321,0.022035
-0.0272844,0.0173148
-0.0304404,-0.0201372
-0.0431913,-0.0368718
-0.0597516,-0.0192339
-0.0470028,0.0136151
-0.00640507,0.0292121
0.0107921,0.026709
0.0166078,0.0236781
0.0331121,0.000795367
0.0427643,-0.0229207
0.0241632,-0.0205114
-4.97e-05,0.00144959
-0.0230192,0.0276571
-0.0246637,0.013612
0.00945545,-0.0215341
0.0282566,-0.0202135
0.0155494,0.0139912
-0.0136386,0.0336564
-0.0400364,0.0279492
-0.0564894,-0.00271951
-0.0410113,-0.0638221
0.00390671,-0.0381326
0.0474222,0.0128942
0.0476608,0.0558913
0.0461196,0.0337883
0.0544484,-0.0471182
0.0295185,-0.0248071
-0.0057692,0.0261015
-0.0167633,0.0120628
-0.0159791,-0.032701
-0.012687,-0.0222906
-0.0161714,0.0235546
-0.030411,0.0531028
-0.0432871,-0.0437211
-0.0482237,-0.0351688
-0.042399,0.00260596
-0.0347671,-0.0327856
-0.0259534,-0.0312585
0.0349425,-0.0274877
0.0817036,-0.0241878
0.080802,0.0152876
0.072402,-0.00417172
0.0399398,-0.00464734
0.00156033,0.0254196
-0.0219493,0.0288945
-0.0552119,0.0570979
-0.0781881,0.0979647
-0.0423319,0.0425294
0.0151454,-0.0298062
0.0237352,-0.0447402
0.00631729,-0.0367373
-0.0041948,-0.0227128
-0.0273727,-0.00751446
-0.0408235,0.000704173
-0.0356963,0.00277548
-0.000228967,-0.00724244
0.020133,0.00463726
0.00667285,0.055756
-0.00495778,0.0188814
-0.0214803,-0.0421571
-0.0256794,-0.0275505
0.00196566,-0.0194399
0.0189155,-0.0185421
0.0350581,-0.0118094
0.0723902,0.0490406
0.103298,0.0628191
0.0868601,0.0048485
0.0477943,-0.0212508
-0.00543538,-0.0118884
-0.0716135,-0.0109144
-0.090804,-0.00946578
-0.0594468,-0.0168114
-0.0246262,-0.0042455
-0.023165,-0.00856408
-0.0223288,-0.0157927
-0.00316008,-0.00772653
0.0114077,-0.0070171
0.0184772,-0.00581671
0.0139051,-0.00517189
0.00424786,-0.0132048
0.0234723,-0.00772458
0.0387816,0.0271975
0.0116101,0.0343046
-0.0161956,0.018012
-0.0127916,0.026178
0.00582757,0.0110949
0.00214846,0.0120596
-0.0157563,0.00994221
-0.00413507,0.0383402
0.0192577,-0.0169581
0.0105521,-0.0339045
-0.00356555,0.0149967
-0.0064787,0.0234093
-0.0043606,0.0158102
-0.00828055,-0.0530106
-0.00959738,-0.0891693
-0.00797084,-0.0388355
0.00847002,0.0218964
0.0245379,0.0565842
0.00445383,0.0736225
-0.00842386,0.029723
-0.0072213,-0.0123055
-0.0157872,-0.0312371
-0.0205894,-0.0339007
0.0082646,-0.0167796
0.0580509,0.0537813
0.0849535,-0.0117624
0.0754992,-0.0600063
0.0473895,-0.0273022
-0.0173032,0.021004
-0.0799054,0.0140055
-0.101167,-0.00529569
-0.0833883,-0.00862394
-0.0447275,-0.00722387
-0.00225534,-0.000519395
0.0167915,0.0203426
0.00313923,0.0314545
-0.0028844,-0.0195674
0.00350105,-0.02139
-0.0230124,0.00726537
-0.0320756,-0.00747994
-0.00954028,-0.000919115
0.0237939,0.00652665
0.0317965,0.0145227
0.0258562,0.0223313
0.0153252,-0.0237797
-0.000457907,-0.0354761
-0.00423114,-0.0185903
-0.000654392,-0.00411956
0.00675429,-0.0157367
0.0151501,0.0418605
0.0263263,0.0513191
0.0173234,0.0010509
8.28e-05,-0.0329786
-0.00307339,-0.000712919
-0.00711489,0.0320461
-0.0177781,0.037363
-0.0208518,0.037932
0.000842229,0.00744205
0.0181029,-0.0245502
0.0202444,-0.00770247
0.024958,0.0426161
0.0152396,-0.0262577
-0.00783443,-0.0691565
-0.0210502,-0.0388446
-0.0166234,-0.00505577
-0.0117681,-0.0097301
0.00131142,-0.0149731
0.0076492,-0.00403445
-0.0077554,-0.00701607
-0.0264313,0.0271986
-0.00677831,0.0260786
0.00587888,-0.0112311
-0.016958,-0.00671271
-0.0189192,-0.0233347
0.0117118,-0.0134656
0.0141187,0.056646
0.00313592,0.0830683
0.0104944,-0.0204741
0.00089056,-0.0178004
-0.0184682,-0.0374231
-0.01544,-0.0419568
-0.00874225,-0.0203617
-0.00671254,0.00179695
0.0195517,0.0204316
0.0383935,-0.0185695
0.00887016,0.0265589
-0.00017665,0.0266794
0.00177452,-0.00699569
-0.00502549,0.00578164
-0.00679296,0.00106377
0.0121072,-0.032124
0.0332554,0.0100516
0.0388601,0.0440557
0.0245879,0.0378546
0.0089708,-0.00642775
-0.0177718,-0.0211123
-0.0383837,-0.0219041
-0.0389059,-0.0282068
-0.0290182,-0.0249266
-0.0228502,0.0930912
-0.00593022,0.0741904
0.0168106,-0.017235
0.0144168,-0.0523419
-0.00684546,-0.0111443
-0.0145055,-0.0139326
-0.00561112,-0.0308478
0.000545742,-0.0219159
0.0196099,-0.00360942
0.0215162,0.00678974
-0.0137632,0.0139901
-0.0230139,-0.0188406
-0.0359028,-0.0600583
-0.0435691,0.0144272
0.0021317,0.0599189
0.044808,0.0652518
0.0394593,0.048766
0.0387412,0.00216318
0.0400111,-0.0259519
0.0349394,-0.0094048
0.0221616,-0.0165903
0.00270205,-0.0361518
-0.0222518,-0.0286483
-0.0366107,-0.0113073
-0.0241179,-0.0180486
-0.00033111,-0.014536
0.00655138,-0.00362904
-0.00941148,0.000607327
-0.0116543,0.00119131
-0.0126383,0.00539815
-0.0218549,0.0169187
-0.0151715,0.0118935
-0.00208742,-0.00903518
0.0154075,-0.0220252
0.0373908,0.020919
0.0263522,0.133704
-0.00573874,0.0933734
-0.00540446,-0.0523775
0.00656564,-0.100417
-0.00247063,-0.0388059
-0.0179566,0.00997574
-0.0164643,0.0142506
-0.0101471,-0.00121603
-0.0184694,-0.00712935
-0.0312011,0.00579892
-0.041522,-0.0173853
-0.0435274,-0.019563
-0.0324574,0.00420214
-0.0144428,-0.00131559
0.0291986,-0.00203059
0.0546852,0.0240491
0.0661893,0.0140041
0.0592383,0.0045974
0.0353916,-0.00248889
0.0166574,0.0012214
0.00695019,-0.0226413
0.00411626,-0.0539875
-0.00324726,-0.0240397
-0.00720663,0.0139342
-0.00743923,0.0239744
-0.00431202,0.016323
0.0065213,0.0195118
-0.00709046,0.0349087
-0.0367293,0.00135705
-0.0679521,-0.0184306
-0.0835229,-0.00134886
-0.0650055,-0.0112164
0.0119873,-0.0219292
0.102485,0.00097909
0.109755,0.017533
0.0778894,0.0467444
0.0683728,0.0474355
0.0458517,-0.0419504
-0.0176589,-0.0633719
-0.0548691,-0.0112813
-0.0428127,0.0459631
-0.0256607,0.0202703
-0.0205621,-0.0264603
-0.0277884,-0.0166355
-0.0342363,-0.018616
-0.0670642,-0.025612
-0.08898,-0.00936827
-0.0611552,0.002589
-0.0148069,-0.0168809
0.0485376,-0.0248742
0.0848928,0.0376482
0.0740335,0.0760841
0.0635754,0.0207779
0.0463708,-0.0346526
0.0160692,-0.0300639
-0.0206745,0.0471658
-0.0302549,0.0561438
0.000725776,0.0250108
0.00196576,-0.0131286
-0.0131818,-0.0164494
-0.00901767,-0.0103978
-0.00323732,-0.00568363
0.012827,-0.0308304
0.0169967,-0.0390674
0.000634784,0.00619663
0.0103302,0.0194714
0.0125474,-0.011288
0.0118976,-0.0324082
0.00774094,-0.0473869
0.00336085,-0.0196218
-0.00871043,0.00276046
-0.0389843,0.0176706
-0.0721866,0.0230237
-0.0745703,0.0117692
-0.0352756,0.0123732
0.00742941,0.021555
0.0387204,0.018858
0.0385198,-0.000784044
0.00744516,-0.0211876
-0.0324308,-0.0302325
-0.0427192,0.0113321
-0.0237086,0.0321201
0.0088745,-0.00306434
0.0303637,0.00960097
0.049834,0.00401331
0.0603751,-0.0210965
0.0715893,-0.00700325
0.0468344,0.0171684
-0.00892631,-0.00270916
-0.0461703,-0.0109835
-0.0402346,0.0144866
-0.0292998,0.0327535
-0.0291935,-0.0120593
-0.0314303,-0.04498
-0.024282,-0.0165653
-0.0203977,0.0601014
-0.0157318,0.057198
0.0114183,-0.0348384
0.0157927,-0.0290286
0.0395532,0.0152513
0.0538144,0.0114917
0.0262465,-0.00680547
0.0243064,-0.00626669
0.00572721,-0.00361737
-0.0249066,-0.0178676
-0.0392532,-0.0258566
-0.0336739,0.0101781
-0.00287805,0.0092432
0.00869461,0.0165537
0.00791783,0.0162824
0.00618802,-0.002956
-0.00443839,-0.0145321
-0.00830705,-0.0139586
-0.010266,0.00396988
-0.00487147,-0.00873118
-0.00761977,0.0205071
-0.00326907,0.0203956
0.0031031,-0.0350283
-0.0026274,-0.0565178
-0.0132936,-0.00165857
-0.010165,0.113623
0.0132563,0.0279796
0.0222524,-0.0906316
0.0433378,-0.0297652
0.0831784,0.00368056
0.0633436,0.000789147
0.0147037,0.00847791
-0.0121257,0.0278499
-0.0160028,0.0126128
-0.0227652,-0.0395839
-0.0352901,-0.0264349
-0.0527202,0.0125156
-0.0357356,0.00934902
-0.0209541,-0.0136322
-0.0207664,-0.00274551
-0.00393699,-0.00358904
0.0201415,-0.00234431
0.0227253,0.00505015
0.014149,0.0375789
-0.000619181,0.0533995
0.0226242,0.00338807
0.0356196,-0.0582773
-0.00738333,0.0523196
-0.0166842,0.0679569
-0.0160155,-0.0616081
0.00451807,-0.0810542
0.0118362,0.0234921
-0.0117692,0.0493511
-0.0227783,0.0196449
-0.0227117,0.00214485
-0.00942307,-0.0558484
0.000202416,-0.0461492
0.0272309,-0.0264462
0.0586493,-0.0546004
0.0141904,-0.00643902
-0.0637809,0.0584504
-0.0682734,0.0513001
-0.0097769,0.000448184
0.0123713,-0.0247243
-0.0191984,0.0478928
-0.0310233,0.0438674
0.0103558,-0.0536944
0.0409747,-0.0619571
-0.016435,0.0128562
-0.0820007,0.0336506
-0.0737348,0.0804434
-0.0144646,-0.0160402
0.0579061,-0.0405952
0.122631,-0.0151822
0.14174,0.0515753
0.111353,0.0361698
0.0694063,-0.028227
0.0256746,-0.0365672
-0.0256321,-0.0329308
-0.0929934,0.0522417
-0.131538,0.0542408
-0.0826829,-0.0396753
0.062681,-0.0863919
0.117731,-0.0287732
0.0761013,0.0436871
0.0274193,0.00337885
-0.0079886,-0.0231014
-0.0632641,0.0441576
-0.0917731,0.0389445
-0.0793839,0.00654548
-0.0780984,-0.0208268
-0.0677944,-0.0306394
-0.0188116,-0.0562988
0.0181203,-0.0125883
0.0138036,0.0554684
0.0115661,0.0266369
0.0399425,-0.00795421
0.0569336,-0.0150411
0.0554818,-0.016895
0.0289331,-0.0102142
-0.0316914,0.0112433
-0.0538934,-0.0191255
-0.00470859,-0.0482836
0.0127932,0.00787578
0.077173,0.0743198
0.104873,0.0843298
0.0541691,0.0165109
0.0262516,-0.0491811
0.012599,-0.0352134
-0.0235423,-0.00288053
-0.0718576,-0.00188058
-0.0857552,-0.0253253
-0.101669,-0.000446814
-0.086083,0.0389507
-0.0448073,-0.0056345
0.0127349,-0.00714963
0.00081283,0.0255461
-0.0525033,0.0168881
-0.066507,0.0385485
-0.0404096,-0.00815824
0.0368526,-0.0595847
0.073673,-0.0365094
0.00408371,9.9e-05
-0.140687,0.0153063
-0.149307,-0.00335256
0.0343797,-0.0112415
0.221815,-0.0081151
0.285616,-0.0173071
0.156723,0.0148106
-0.00750798,0.0122606
-0.0685864,-0.0199586
-0.0534188,0.00493753
0.00893676,0.0210469
0.0630953,-0.0237819
0.0759076,-0.0127669
0.0442365,0.0640019
-0.0147738,0.0564126
-0.0996182,-0.0218273
-0.121579,-0.0199307
-0.0769448,-0.0132453
0.0256652,-0.0253001
0.0952615,0.0086499
0.0973053,0.0546073
0.0199579,0.0494938
-0.0261685,0.098625
0.0403727,0.055156
0.0905811,-0.125844
0.0505622,-0.0696666
0.0130285,0.0475599
-0.0340106,-0.0670283
-0.158823,-0.0786026
-0.222072,-0.0431637
-0.164636,-0.0312567
0.00131531,0.000774624
0.070264,0.0355075
0.08992,0.0246028
0.0996442,0.0262217
0.0448184,0.020579
-0.00325493,-0.0100551
-0.0796352,-0.0389189
-0.149206,-0.0449811
-0.117348,-0.0313996
-0.024426,-0.00323382
-0.0111753,-0.0148558
-0.0872701,-0.0139406
-0.0273777,0.026034
0.0400683,0.0420979
0.0654781,0.0374688
0.114075,0.0400537
0.147805,0.00558748
0.0996762,0.0214097
-0.0103087,0.0716415
-0.0173248,-0.0344729
-0.00418172,-0.0664183
-0.0240391,0.0940039
-0.00244759,0.209317
0.0609005,0.0199202
-0.0152004,-0.113269
-0.117856,-0.0295564
-0.15826,-0.056821
-0.0553746,-0.0933683
0.110969,-0.0381054
0.134225,0.00255654
-0.0165096,0.0200479
-0.119382,0.0237628
-0.0242239,0.0165036
0.0935475,-0.03053
0.179468,-0.0556185
0.178887,-0.0146688
0.0916212,0.0141373
0.0114506,0.0531781
-0.0924341,-0.0122447
-0.191111,-0.0877813
-0.183594,-0.0184127
-0.0779661,-0.00719113
0.0679339,-0.0311617
0.17128,-0.0361714
0.0966434,-0.0361767
0.0462611,0.0371503
0.0141626,0.0859043
0.018557,0.058193
0.0727162,0.050034
-0.00452975,0.0631474
-0.108116,-0.0139283
-0.129731,0.00565204
-0.106521,0.0515308
-0.0654341,0.117761
-0.0339059,-0.011328
-0.0209491,-0.0580233
-0.00382726,0.0420597
0.00528671,0.0396036
0.0852063,-0.0636377
0.0387825,-0.076165
-0.0554419,-0.0507168
-0.0463703,-0.0384548
-0.0645785,0.00906813
-0.0866617,0.00799145
0.0569786,0.0531227
0.16192,0.0587159
0.172442,-0.106164
0.123786,-0.108282
0.108371,-0.0697324
0.121111,-0.0334707
0.0757441,-0.0331464
-0.0287453,0.0377563
-0.186626,0.135376
-0.229387,0.0620443
-0.28874,-0.0493969
-0.308292,-0.0652065
-0.210137,0.00856381
0.00183087,0.000490632
0.244995,0.016817
0.263198,-0.00284948
0.237732,-0.0137175
0.222845,0.0121545
0.104214,0.0520505
-0.0279797,0.0316338
-0.0925278,0.0878111
-0.0877924,0.0366007
-0.0818437,-0.132991
-0.0207745,-0.0663249
0.0243407,-0.00437832
-0.0162664,-0.00812865
-0.0990311,0.0263639
-0.130543,0.0350047
-0.0450855,-0.0493312
0.0354457,-0.0317735
0.0568648,0.0209494
0.0629426,0.0726903
0.15152,0.151455
0.190788,0.126578
0.124899,0.0241834
0.0856742,-0.0491089
-0.00108728,-0.132355
-0.115734,-0.125755
-0.176625,-0.0542978
-0.0990264,0.0244882
0.0575336,-0.0165135
0.0554119,-0.0313869
-0.0302841,-0.0037278
-0.0653016,0.0160438
-0.162278,-0.0072409
-0.205485,0.0383241
-0.178798,0.00970996
-0.110892,-0.00672296
-0.0726731,0.0914242
0.00433867,0.0555323
0.108583,-0.0909864
0.168989,-0.050012
0.254032,0.0923394
0.177732,0.0311643
0.0428464,-0.0870947
-0.0828186,-0.0474234
-0.235108,-0.00749721
-0.174609,0.00552263
0.10492,-0.011286
0.225832,-0.0403856
0.174116,-0.000963187
0.0580193,-0.00897754
-0.069425,0.0249859
-0.0820787,0.074306
-0.0169165,0.11226
0.0984219,0.0136287
0.118958,0.0380853
-0.00332595,-0.139971
-0.1158,0.0255645
-0.155282,0.0899475
-0.103717,-0.0203841
0.0319384,-0.0054196
0.113411,-0.0385014
0.0326806,-0.0196357
-0.0220661,-0.0238593
0.0154068,-0.00912443
0.0228066,-0.052968
0.0678913,-0.0415869
0.159818,-0.00903352
0.168967,-0.0141206
0.0950135,-0.0267248
-0.014199,-0.0339378
-0.164659,-0.0398449
-0.316712,0.0496687
-0.307538,0.0369491
-0.140184,-0.0138479
0.0214484,-0.0523663
0.137297,-0.00247089
0.191347,0.0719582
0.154821,0.0361656
0.0683799,0.0259484
-0.0539976,0.0895178
-0.169716,0.145195
-0.172084,0.0563486
-0.0436446,-0.0827766
0.137622,-0.0275841
0.190034,-0.0529121
0.155402,0.00305314
0.0949652,0.0376521
-0.0294359,-0.0785851
-0.0841926,-0.0552881
-0.0608927,0.0418732
-0.0583873,0.0361586
-0.0720964,-0.0342976
-0.127161,-0.0186733
-0.18706,-0.00774596
-0.0903783,0.00995695
0.0654003,-0.0104598
0.0735276,-0.0236318
-0.0420907,-0.00802542
-0.115353,-0.0316225
0.00171929,-0.0131298
0.217469,0.00324154
0.249646,0.00960815
0.0728218,0.0982192
-0.137869,-0.0400664
-0.135137,-0.031826
-0.0938736,-0.00521197
0.0311521,0.0584357
0.137921,0.00131684
0.139919,-0.0503633
0.142004,0.00438605
0.0976332,-0.00181257
0.0286481,-0.00673076
-0.0312616,0.036263
-0.116284,0.0485238
-0.152696,-0.021033
-0.179907,0.0396644
-0.111753,0.113966
0.0748899,0.0907701
0.232118,0.0458531
0.226716,-0.184119
0.0939667,-0.164609
-0.00398909,-0.00782396
-0.111791,-0.0315051
-0.173998,-0.0866677
-0.125214,-0.0451965
-0.10435,0.00451662
-0.10134,-0.0190536
-0.0184189,0.0288924
0.0741642,0.0674661
0.147188,0.0254162
0.139749,0.0191987
0.0987118,0.012674
0.0162631,0.0592947
-0.0591356,0.081736
-0.124601,0.0124319
-0.145381,0.0541821
-0.064906,-0.0746586
0.0242637,-0.101467
0.045556,-0.00997613
-0.0202311,0.0303548
-0.0329238,0.0180148
0.11981,0.020287
0.162989,0.0178954
0.11425,0.032815
0.00611297,0.0632094
-0.134267,-0.015972
-0.169004,-0.0246086
-0.0536692,0.0441871
0.0264897,-0.0259172
0.0741298,-0.0997589
0.0806238,-0.0983632
-0.0506945,-0.0514323
-0.147861,-0.0126458
-0.0717286,0.0195248
0.0331534,0.0481707
0.029591,0.0333568
-0.0287682,-0.0299068
-0.0568142,-0.0379875
-0.0880205,0.0799652
-0.0378922,0.0841191
0.0030428,0.0169065
0.0692835,-0.0621165
0.10349,-0.000105643
0.14413,-0.0650857
0.178746,-0.0871306
0.117081,0.00060503
0.0145013,0.0655953
-0.0994796,0.0604175
-0.0972144,0.020612
-0.00624027,0.0168812
0.075725,0.047126
0.028007,0.0745846
-0.133501,0.0956626
-0.170412,-0.0321259
-0.0666309,-0.0370684
0.0260698,-0.0384564
-0.0192214,-0.0847197
-0.120528,-0.0657531
-0.107353,-0.0422071
-0.0720911,-0.0311289
-0.138889,-0.0343849
-0.0209854,0.0120837
0.174867,0.0317397
0.20324,0.0315447
0.139931,0.0213371
0.173324,-0.00826622
0.277266,0.100122
0.419824,0.124827
0.34648,-0.0848666
0.124491,-0.134952
-0.123391,-0.0649588
-0.2807,0.0412876
-0.271343,0.155483
-0.10797,0.051761
0.0169508,-0.125838
0.0806842,-0.108149
0.00528496,-0.0197092
-0.155775,0.0641205
-0.20657,-0.0040934
-0.176472,-0.0197212
-0.132189,0.06006
-0.107984,0.0516004
-0.0818605,-0.0580036
-0.0794692,-0.0707745
-0.142687,-0.00209949
-0.095586,0.0130864
-0.0584552,0.0372092
-0.0414926,0.0135419
0.0516616,-0.00915729
0.0970847,0.0411661
0.174495,0.0590812
0.231746,-0.028478
0.111786,-0.0596322
0.011671,-0.0224116
0.0573003,0.00884387
0.111993,0.068066
0.0905988,0.0137509
0.000495261,-0.0289947
-0.0733792,-0.0312892
-0.0790983,-0.0487795
-0.0892058,-0.0336391
-0.0259795,-0.0234659
0.0310636,0.000577748
-0.0175177,0.0303049
-0.0664069,0.0171054
-0.0333336,0.00328317
0.0112084,0.0532529
0.0792571,0.0246887
0.138139,-0.013978
0.0956402,0.0648284
0.0227186,0.0736363
-0.0266422,-0.0294597
-0.035986,-0.00514773
-0.0489807,0.0649367
-0.109807,0.0790475
-0.0833271,0.0338173
0.0341623,-0.0389964
0.0553744,-0.151993
0.00151572,-0.0383362
0.0455699,-0.0544633
0.103126,-0.0791966
0.0790979,0.03891
0.040766,0.0907409
0.014214,-0.0465518
-0.00756162,-0.0370211
-0.117179,0.0423805
-0.241924,-0.0273235
-0.159063,-0.102744
0.0663736,-0.03499
0.221708,0.00456526
0.161104,0.0456405
0.117275,0.0140774
0.102154,-0.0466615
-0.0242943,-0.0216759
-0.17994,-0.00685685
-0.1949,0.0112896
-0.151852,0.034617
-0.089876,-0.0105959
0.0444125,-0.00997556
0.114957,0.0271678
0.0546425,0.0416082
0.0344294,0.0427278
0.061394,0.031342
-0.0511837,0.035459
-0.222782,0.0356321
-0.160713,0.00874787
-0.0150702,-0.0154493
0.116472,-0.0232833
0.200783,0.00073877
0.187761,0.000896615
0.0865089,-0.00509551
0.0674027,0.013694
0.0433575,0.0410206
-0.0631003,0.0248212
-0.121188,-0.042946
-0.132289,-0.0895875
-0.148709,0.088156
-0.124887,0.100113
-0.0694782,-0.0295024
-0.0380604,-0.0474677
0.0804966,-0.0298746
0.0291404,-0.00952051
-0.0974849,-0.0169805
-0.0421213,-0.0476183
0.108353,-0.033333
0.170713,-0.0339313
0.21044,-0.0355785
0.165927,0.0117036
0.0715403,-0.00459629
0.0160212,-0.0233426
-0.000960909,0.0603188
-0.0202132,0.106399
-0.0408124,0.0686095
-0.0530114,0.0195847
-0.0748823,-0.018916
-0.0977952,-0.151212
-0.0394007,-0.148743
0.106109,-0.0168753
0.155084,0.0793922
0.0805336,0.0955828
-0.0346011,0.0628311
-0.0737985,0.0222096
-0.0610524,0.0790548
-0.0543283,0.0377196
-0.10276,-0.0944977
-0.105756,-0.0485882
-0.111391,-0.000507351
-0.16852,-0.031614
-0.103725,-0.0393159
0.0692673,-0.0471232
0.0947543,-0.0126332
0.0913005,0.0248705
0.120807,0.0507139
0.0567016,0.0816932
-0.0285339,0.0230415
-0.0752954,-0.0727853
-0.125118,-0.0141581
-0.0302777,0.125948
0.0757295,0.110997
0.151959,-0.114997
0.155247,-0.10089
0.0851717,0.00109483
0.028687,0.0419912
-0.0824941,-0.0248349
-0.159639,-0.0324634
-0.0655502,-0.0434041
0.0660895,-0.0515045
0.07949,-0.00401586
0.0733507,0.12002
0.0789137,0.0813137
0.0017061,-0.0457997
-0.0541903,-0.0772547
0.0244532,-0.084505
0.0664352,-0.0323299
-0.0284715,0.016391
-0.103281,0.0412361
-0.159367,0.0636922
-0.165725,0.0744903
-0.0761836,-0.00444052
-0.0707899,-0.0311191
-0.0825754,-0.0324191
0.0706453,-0.00892106
0.195565,-0.0207795
0.0691173,-0.0398054
-0.113673,-0.0226529
-0.034428,0.0321941
0.120196,0.0526173
0.165594,0.0493997
0.0868305,0.0445766
-0.0037573,-0.0320341
0.0201293,-0.0817543
0.0688362,-0.0730153
-0.0137226,-0.00157376
-0.0782447,0.01519
-0.0717798,0.0138079
-0.0656574,0.0243649
0.0021361,-0.0155532
0.0386152,-0.00772067
0.024104,0.087403
0.0193309,0.138005
-0.0420721,0.13265
-0.0558606,-0.0331055
0.0412734,-0.0978061
0.185581,0.00916837
0.212128,0.0148171
0.128698,-0.0815242
0.0212812,-0.0915198
-0.0430337,-0.00300761
-0.131839,-0.00864895
-0.195831,-0.0469272
-0.217544,-0.0324589
-0.19759,0.00626273
-0.104169,0.0120794
0.0221506,-0.00326936
0.0521478,0.00371112
0.0311641,0.042123
-0.0127319,0.0184498
0.02964,0.0250431
0.0655214,0.125877
0.0472622,0.0954729
0.106597,-0.130133
0.0671337,-0.0642502
0.0228687,0.0564558
0.0638747,-0.0997588
0.0316002,-0.0719937
-0.00226574,0.0081912
-0.0248393,0.0466359
-0.0138861,0.0303
-0.0172325,-0.0339676
-0.0336557,-0.0169139
-0.0133038,0.0230161
-0.0491919,-0.0352343
-0.131278,0.0167263
-0.14255,-0.0197317
-0.125376,-0.0192319
-0.0218924,0.0969508
0.0262516,0.0357344
0.0489565,-0.121735
0.0679282,-0.082356
0.0619608,0.0254469
0.0705331,0.138343
0.100132,0.132893
0.0334538,0.0576562
-0.0248091,0.0152828
-0.0661104,-0.109422
-0.0328883,-0.0718742
0.0621879,-0.0457583
0.151739,-0.0149256
0.143083,-0.0294883
0.0353723,-0.0302862
-0.0583924,-0.0531446
-0.0851024,0.0039578
-0.1048,0.0783925
-0.0897732,0.0414285
0.0307737,0.00755065
0.151006,-0.0234449
0.12191,-0.0403422
-0.00822369,0.0124935
-0.114524,0.0361553
-0.18878,0.041509
-0.168835,0.0385847
0.0139821,0.0813726
0.101053,0.14192
-0.00729826,-0.0182372
-0.0482709,-0.146816
0.105022,-0.12164
0.246284,-0.086958
0.314899,-0.0706661
0.224307,-0.0637127
0.00855829,-0.0369803
-0.145179,0.00850849
-0.244888,0.134673
-0.282499,0.171737
-0.225954,0.165326
-0.190452,0.0408011
-0.0748398,-0.155003
0.0250007,-0.0853752
0.0487579,-0.0121388
0.0435748,-0.0294516
0.0952776,-0.0507538
0.0609948,-0.011869
-0.00907732,0.0306185
-0.00413065,-0.000103759
-0.00775502,-0.072562
-0.00476586,-0.0364843
-0.103802,0.0800147
-0.0959718,0.0662839
0.0014341,0.122035
0.0354351,0.14546
0.175962,0.0173876
0.251679,-0.0128381
0.169609,-0.172673
0.0778799,-0.0715682
-0.00328256,0.0542613
-0.0492835,-0.0312084
-0.0505066,-0.0233257
-0.0489062,0.00492473
-0.0803761,-0.00513312
-0.0376691,-0.0105516
0.0240861,0.0118218
0.0328557,0.00692298
-0.0132974,-0.0495803
-0.0424263,-0.0355234
-0.0198041,0.0236098
-0.0361369,0.037096
-0.0457345,0.00044852
-0.00738815,-0.0583175
0.0975825,-0.0421962
0.240643,-0.00892453
0.201582,0.0162071
0.024851,0.0269184
-0.150183,0.0292299
-0.18035,0.0555025
-0.0802996,0.0610832
0.00791269,-0.02255
-0.00455988,-0.0320893
-0.0772238,0.0135414
-0.0714946,-0.0148316
-0.0476202,-0.0132369
-0.063378,-0.0144192
-0.0582343,0.0277255
-0.0461484,0.140508
0.00846134,0.120895
0.0154219,-0.0481478
-0.0514745,-0.158219
-0.0337623,-0.16398
0.0504812,-0.124523
0.120721,0.0023226
0.0627275,0.0982216
0.00722084,0.1025
-0.013743,0.0146186
0.070904,-0.05369
0.136603,-0.0293669
0.119404,0.0685773
0.0808565,0.119391
-0.0123394,-0.00661768
-0.0835674,-0.103
-0.11657,-0.0770877
-0.120215,-0.0365057
-0.0961904,0.0106302
-0.0508186,0.00374184
-0.0361365,0.00517644
-0.0273688,0.0301684
0.0114591,-0.0202616
0.00126655,0.0021188
0.0329563,0.0332395
0.0574158,0.0101378
0.0678011,0.0310427
0.0957803,0.0330083
0.114266,0.0307623
0.114472,0.0204579
0.0949227,-0.0263618
0.0324398,-0.0277701
-0.0588248,0.0127474
-0.130506,0.0366462
-0.0730812,0.00943366
0.0435882,0.0101625
0.0565805,-0.0162343
0.0163105,0.0521943
-0.0759392,-0.0555747
-0.161635,-0.0890706
-0.116251,-0.0324509
-0.0497799,0.11853
-0.153972,0.0962027
-0.336975,-0.0816223
-0.273426,-0.0279282
0.0208341,0.0512633
0.301955,0.00835112
0.271414,-0.0959573
0.21849,-0.0521969
0.249586,0.0862189
0.0827719,0.0366233
-0.0762787,8.25e-05
-0.0849991,-0.081392
0.0338883,-0.106037
0.0822355,0.00991906
0.0849311,0.0453483
0.0902201,0.0126086
0.068888,0.0126522
0.0133728,-0.0145166
-0.0824048,-0.0150509
-0.115864,0.00573391
-0.0938831,-0.0273385
-0.189348,-0.0768125
-0.222478,-0.0159156
-0.127163,0.0338185
0.0240798,0.0216129
0.124722,5.6e-05
0.122058,0.0156233
0.0834648,0.0102268
0.0904637,0.00870538
0.0837916,0.0197389
0.166477,0.0896316
0.159607,0.0900068
-0.0384215,-0.0308907
-0.231514,-0.037289
-0.201506,-0.00618636
0.044427,0.0019066
0.123681,0.00618466
0.0150735,0.0941249
-0.111668,0.0515761
-0.115329,-0.121381
-0.0588517,-0.0723991
0.00662306,-0.0163325
0.0393099,0.0478525
-0.00255831,0.11487
-0.0242872,-0.036424
-0.00982912,-0.0995364
-0.0674339,-0.019945
-0.079088,-0.0127659
-0.039921,-0.0575759
0.0131724,-0.0124151
0.0944815,0.00964138
0.120179,-0.0326971
-0.010491,0.0313677
-0.0497942,0.0536585
0.0658868,-0.025126
0.105448,-0.00150367
0.0910764,0.0143978
0.0246969,0.0294774
0.00853203,0.0880375
-0.0034699,-0.0231395
-0.0541272,-0.0173781
-0.0653973,-0.0171994
0.0652857,-0.0339251
0.102717,-0.000559904
-0.0124201,0.0166627
-0.105051,-0.0221939
-0.107645,-0.0427339
-0.0822307,0.0153229
-0.0452709,0.070176
-0.00220441,-0.0159507
0.0398153,-0.0317358
0.0560473,0.00333375
0.0590988,0.0251002
0.054698,0.0134812
0.00868432,-0.0359417
-0.0335971,-0.028873
0.000880468,0.0219193
0.100827,-0.0403435
0.05627,-0.0323701
-0.0615107,0.0103132
-0.0560989,0.0154705
-0.0368087,-0.0192796
-0.0532928,0.00786903
-0.0845636,0.0365642
-0.0959593,0.0757657
-0.077702,0.0754033
-0.05795,0.0449483
-0.0449584,0.00254663
0.0261141,-0.0664607
0.129144,-0.0463733
0.178833,-0.032685
0.0531253,-0.0296818
-0.0658167,-0.0218394
-0.00953642,0.0505338
0.0497889,0.111818
0.0817119,-0.0438578
0.101404,-0.0557109
0.105105,0.01208
0.109758,-0.0272822
0.0167993,-0.0745123
-0.122835,-0.0265373
-0.126803,0.0262716
-0.0611701,0.0625769
-0.03423,0.0583967
-0.0345054,-0.0136991
-0.0773711,-0.0216123
-0.0622638,-0.0173479
-0.0569389,-0.0203295
-0.0717799,0.00230891
-0.0453762,-0.0236437
-0.00414334,-0.0233071
0.00526617,0.0138418
0.00775764,0.0264191
0.00900524,0.0484024
0.0076278,0.0554633
0.0249792,-0.0108261
0.169961,-0.107411
0.243396,-0.0720065
0.184076,-0.0255913
0.116078,0.00908384
0.0199354,0.0409127
-0.105441,0.011412
-0.172216,-0.0326651
-0.193736,-0.02565
-0.145843,0.0289954
-0.0756434,0.0332837
-0.0416531,0.0155048
0.000486543,0.0663634
0.0235408,0.089412
-0.0514342,0.0379764
-0.10503,-0.0302152
0.00886556,-0.031589
0.0824903,0.0214768
0.0893351,-0.00574181
0.131922,-0.00842892
0.154873,-0.030149
0.166439,-0.0300567
0.124105,0.0383849
-0.0212986,0.0393145
-0.138534,0.0100891
-0.147419,-0.00791398
-0.0653641,-0.0493873
0.0115593,-0.0501116
0.0393677,-0.0402212
0.0962952,-0.00415336
0.101787,0.0143418
0.0105624,-0.0217098
-0.0790206,0.0227026
-0.106606,0.0690509
-0.0527969,0.0331724
0.0202544,0.0415026
0.122019,-0.087126
0.109643,-0.0710509
0.0295385,-0.00401702
-0.0860721,-0.0174501
-0.179235,-0.016292
-0.227658,0.0114658
-0.183673,0.0256003
-0.0815109,-0.0466638
-0.0207064,-0.0413239
0.0365313,0.0322763
0.0991277,0.0536712
0.0929267,0.0384522
0.047515,0.00885518
0.0204816,0.0423191
-0.00186885,-0.00264911
-0.0146444,0.0116844
-0.0118698,0.046624
0.0119153,-0.039736
0.130332,-0.0608497
0.188034,-0.0221199
0.0801436,-0.0309275
-0.0267348,-0.0541872
-0.0858135,-0.0203919
-0.110274,-0.0191349
-0.103324,0.0215649
-0.0693952,0.068445
-0.0155071,0.0592741
0.00909317,0.00469083
0.0382118,0.0260324
0.134379,-0.0366572
0.198124,-0.0175656
0.179501,0.091189
0.138809,0.0610512
0.144453,-0.0230235
0.100075,-0.0488012
-0.0535164,-0.0205821
-0.176981,-0.0171203
-0.277978,0.00263399
-0.312064,0.00789529
-0.227016,-0.0298263
-0.134259,-0.0382756
-0.103371,0.0580197
-0.019095,0.0614638
0.0669823,-0.0733809
0.0448188,-0.0420458
0.0344024,0.127532
0.117783,0.0156072
0.126082,-0.168975
0.0906328,-0.0959402
-0.0305374,0.0417624
-0.0901524,0.047682
-0.0792314,0.0342683
0.00226133,0.0259672
0.0885016,-0.00792308
0.112172,-0.0266397
0.140173,-0.0102865
0.138628,0.00216934
0.0935946,0.0572589
0.0486641,0.0309614
0.0191396,-0.0583967
-0.0178071,-0.0341861
-0.0250302,0.0358352
-0.00344178,0.0201468
-0.0333885,-0.00295949
-0.09995,-0.0311287
-0.105351,-0.0311531
-0.088376,-0.0071287
-0.0678781,0.0124254
-0.0534497,0.0101398
0.0107459,-0.0367309
0.049383,0.00723623
0.0765324,0.0535806
0.0855836,0.120724
0.0632083,0.111714
0.0241113,-0.0667734
-0.00527869,-0.153132
-0.0455935,-0.0150457
-0.061815,0.0421232
-0.0792889,-0.01446
-0.144527,-0.0422773
-0.11508,0.0121409
-0.0457199,0.0763491
0.0209513,-0.0229927
0.108191,-0.0281072
0.112284,-0.00150281
0.0661842,0.0214524
0.0723959,0.0243487
0.0562807,0.00700668
0.030267,-0.00846561
-0.00855954,-0.0137897
-0.0527343,-0.0383917
-0.0546635,-0.0570395
-0.0292062,-0.0153018
-0.0455053,0.0348546
-0.0288038,-0.00164893
0.00961606,0.00472579
0.0212989,0.0342178
0.0178453,-0.0397489
-0.0783211,-0.0426289
-0.179019,0.0077122
-0.140201,0.0265244
-0.0429036,0.0315896
0.103659,0.0234565
0.216704,0.0125881
0.212967,0.00239563
0.101306,0.0126737
0.00937423,0.0614726
-0.0106651,0.055297
-0.00771236,-0.0387148
0.0417194,-0.0848278
0.0794841,-0.0708976
0.0719106,-0.0391897
-0.015713,0.00516653
-0.0988562,0.0726617
-0.106244,0.0663263
-0.113936,-0.0330067
-0.0982652,-0.0159309
-0.000681647,-0.00655229
0.0287996,0.00425392
-0.0394284,0.0294827
-0.154672,-0.00116733
-0.164595,0.022958
-0.107983,0.101399
-0.0190432,-0.0337658
0.0615478,-0.116325
0.173,-0.0290009
0.211707,0.0416095
0.199869,-0.0579368
0.0616487,-0.090429
-0.0515781,-0.00831414
-0.026367,0.0407725
0.0518413,0.0606094
0.0563026,0.0311861
-0.0214029,0.017319
-0.0771939,-0.0171983
-0.0903785,-0.0458327
-0.0996855,0.0442466
-0.0609854,0.0446325
0.109633,0.0410193
0.177282,0.0208383
0.088826,-0.1047
0.0364363,-0.0823851
-0.0215405,-0.0317851
-0.0673111,0.00767463
-0.0784003,0.0538567
-0.0577339,0.06726
-0.0605096,0.0671957
-0.0646132,0.0330389
-0.0853691,-0.0398887
-0.110802,-0.00659616
-0.0766074,-0.035736
0.032268,-0.047642
0.0951318,0.0211512
0.0468814,0.0508027
0.0709132,-0.0237044
0.102628,-0.0496436
0.0647949,-0.0271481
0.0217384,0.00712345
-0.0461748,0.0137837
-0.00969069,-0.0156326
0.0237458,-0.0542182
-0.00497487,-0.022097
-0.0206088,0.090933
-0.0175766,0.0191045
-0.0195759,-0.0712386
-0.00539763,-0.0384416
0.013861,-0.02393
-0.0132266,0.0025392
-0.0221669,0.0875512
0.0127438,0.127088
0.0320761,0.0500491
0.0152751,0.0163252
0.00278228,0.00372863
0.0294466,0.00347075
0.060166,0.0176339
0.125056,-0.085797
0.177013,-0.0415351
0.129448,0.0347959
-0.0583237,0.0190429
-0.189915,0.00305063
-0.181992,-0.0228113
-0.128438,-0.0100379
-0.115015,-0.0470554
-0.0706063,-0.0400506
-0.0139366,-0.0197905
-0.000172321,0.0195129
-0.0292166,-0.0265676
-0.00103503,-0.0357901
0.0580516,0.00891414
0.0538124,0.0408937
0.0128291,0.0273316
0.00256254,-0.0819543
0.0185055,-0.051606
-0.00122204,0.047094
-0.0411512,0.0553369
-0.0267889,0.0342307
-0.00609899,0.0180926
-0.0127584,-2.39e-05
-0.0242991,-0.00977646
-0.00900264,0.000853053
0.0259328,-0.00307481
0.0869451,-0.0257394
0.134626,-0.0285778
0.177347,-0.00363712
0.171069,0.0307979
0.118872,0.0378766
0.0366105,0.0129456
-0.0386701,-0.00764373
-0.136197,-0.0128949
-0.224699,0.00156162
-0.248114,0.0309204
-0.175555,0.0350794
-0.0413607,-0.0262627
0.0488637,-0.0217652
0.0787874,-0.0168742
0.0960708,-0.0231957
0.0934805,0.0523005
0.0338278,-0.0679884
-0.0163181,-0.100399
-0.0769085,0.0327575
-0.120933,0.102428
0.0100057,0.0625052
0.156252,-0.0296865
0.118817,-0.0266616
-0.00584436,-0.00454948
-0.0522368,-0.00543011
-0.0191817,0.03564
0.030428,0.0170205
0.0316215,-0.0306608
0.0193515,-0.0165525
-0.00884565,-0.00734341
-0.0232505,0.000189304
-0.0113037,0.0531114
-0.0169178,0.0688615
-0.0300846,-0.00272007
0.00109125,-0.023528
0.0321659,-0.0376267
-0.00529935,-0.0388103
-0.0415893,-0.104636
-0.0479923,-0.0799867
-0.066897,0.0746599
-0.0785262,0.0670867
-0.0427705,0.0104835
0.0651998,-0.00189356
0.133851,-0.00285658
0.103975,0.000196148
0.0846236,0.0172397
0.0645726,0.00446974
-0.0165768,-0.0204451
-0.0646636,-0.00245522
-0.0700277,-0.00179021
-0.0486193,0.026436
0.0159383,0.0121847
0.00742195,-0.032521
0.0336254,-0.00457271
0.0228778,0.022091
-0.0467171,0.0245165
-0.0682575,0.0964584
-0.0784831,0.0296493
-0.077354,-0.0782384
0.0301205,-0.101872
0.126531,-0.0380907
0.120908,0.0423255
0.00962025,0.0855175
-0.070839,-0.00897719
-0.0828629,-0.0574676
-0.0974826,-0.0261755
-0.0859628,-0.0192516
-0.021387,0.00631349
0.0398502,0.0154012
0.0732198,-0.0188409
0.0756528,0.0157794
0.051941,0.0948597
0.0184416,0.055443
0.0189814,-0.0293672
0.0540585,-0.0169558
0.0467782,-0.00272345
-0.00188413,-0.00528382
-0.0272777,-0.00943636
0.00110216,-0.0141167
0.00689111,-0.0201003
-0.000334765,-0.00854714
0.0193602,-0.00836018
0.0207476,-0.0177622
-0.000211432,-0.0259318
-0.0139336,-0.0143693
-0.0411308,0.00299183
-0.0621502,0.00324977
-0.047353,-0.00250666
-0.049778,-0.00221165
-0.0482558,-0.00856556
-0.0368118,-0.00830965
-0.0190996,0.00631703
-0.0780803,0.10039
-0.0480341,0.0193804
0.0798626,-0.122031
0.157211,-0.0190316
0.123301,0.11359
0.0537354,0.0516932
-0.0401029,-0.0463885
-0.0839643,-0.0305533
-0.0440895,0.0155262
0.0106945,0.0262098
0.0142972,-0.0132334
0.0398334,-0.000894133
0.080504,-0.0156976
0.0696465,-0.0430493
0.0657657,-0.0405819
0.041288,-0.0200272
0.0204985,-0.0226409
-0.0578151,-0.0298089
-0.123518,-0.00296961
-0.142941,0.022857
-0.0883874,0.0334162
-0.0370943,0.0201245
0.0307987,0.0219674
0.0442459,0.0309315
0.0114703,0.0514045
0.0339373,0.0938811
0.0713925,-0.0123093
0.0572868,-0.0821294
-0.00291874,0.0242857
-0.0662517,0.0947091
-0.0798004,-0.0295441
-0.00744621,-0.088614
0.0437784,0.012744
0.0108501,0.0704072
0.0565521,-0.000116991
0.0930791,-0.0493565
0.0158289,-0.0318238
-0.0769288,-0.00538501
-0.126102,-0.00445177
-0.0994681,-0.00895337
-0.0159336,-0.00841611
0.0729101,-0.0332335
0.0773455,-0.0386421
0.0348646,-0.0223989
-0.0300536,0.00539077
-0.0635054,0.00186962
-0.0763079,-0.0171703
-0.0774658,0.013432
-0.00705236,0.0712826
0.0788135,0.0782473
0.0864949,-0.00314842
0.0891628,-0.0836557
0.0497265,-0.0112715
-0.0148441,0.0530975
-0.0159046,-0.0264091
0.0050109,-0.0198582
0.01741,0.00853909
0.0120025,0.000161757
0.0321718,-0.0228268
0.0294735,-0.00731146
-0.0106357,0.010191
-0.026274,-0.0243441
-0.0423806,0.00246555
-0.0551685,0.030626
-0.0507714,0.0709596
0.00357243,0.0202104
0.101847,-0.0202886
0.128136,0.0425694
0.0751358,0.0582481
-0.0470673,-0.0309598
-0.141555,-0.0788778
-0.123652,-0.0446169
-0.00751188,0.00460491
0.0834254,0.0111053
0.0509721,0.00727583
-0.0247557,0.0599033
-0.0781475,0.0267343
-0.0531992,-0.0427033
-0.0186616,-0.0935983
0.0185133,-0.0772178
0.00771065,-0.043777
-0.0252405,0.00182594
-0.0321889,0.0499484
-0.0408952,0.0509482
-0.0295278,-0.0106748
-0.0130575,-0.00991975
0.0149066,0.0257708
0.0361657,0.0633862
0.0143056,0.0820623
-0.0118998,0.0061554
-0.000119783,-0.0679164
0.0223381,-0.0910581
0.0281316,-0.0859902
-0.024893,-0.0587868
0.00442175,-0.000475699
0.137566,0.0366068
0.185019,0.0769671
0.147495,0.0955821
0.105886,0.0204419
0.111005,0.0137614
0.0296152,0.0331725
-0.128045,0.0533954
-0.20461,-0.0103299
-0.130902,-0.0548433
-0.0695552,0.018323
-0.0469367,-0.0491617
-0.0342444,-0.0111499
-0.0106501,0.145362
-0.0072757,0.120545
0.00390611,0.00599324
0.0301918,-0.05854
0.0320377,-0.136347
-0.0408512,-0.14071
-0.0837223,-0.0392334
-0.0765166,0.00730885
-0.0406724,-0.0548844
-0.130165,-0.0159872
-0.184922,0.0358069
-0.0987853,0.0260221
0.0331479,-0.0151561
0.139777,0.0296401
0.166932,0.0617409
0.192166,0.0278599
0.186715,0.0414739
0.14628,-0.0120152
0.128567,-0.0196107
0.0623685,0.000707362
0.0144981,0.0306143
-0.0330321,0.00902721
-0.0467276,-0.000282469
-0.0708498,-0.027357
-0.110852,-0.0395606
-0.0527204,-0.0192604
0.0239733,0.0687003
-0.000300492,-0.00387696
-0.0192901,-0.0503717
-0.0220653,-0.0250935
-0.0603158,0.0269158
-0.0743673,0.0363665
-0.0825692,-0.0366503
-0.0160992,-0.0426817
0.034004,-0.0208309
0.0561234,0.0159119
0.0186464,0.0099713
0.0137098,-0.0225129
0.0784714,-0.0410812
0.034667,-0.0303149
-0.0217004,0.00521437
-0.0207404,0.0243093
0.00499691,0.0412885
-0.0318849,0.0590294
-0.0708731,0.00876762
-0.0584259,-0.0313702
-0.0470129,0.000145451
-0.0323492,0.05542
0.0195341,0.00617831
0.0347875,-0.0313615
0.0362294,0.0164646
0.0242502,0.0195282
0.0231984,-0.0143645
0.0086338,-0.021711
0.0155694,0.03136
0.0317396,0.0734665
0.0439929,0.0118702
0.0637236,-0.0536145
0.0297467,-0.045083
-0.0173722,-0.0425761
-0.0964969,-0.0463389
-0.149176,0.0177981
-0.113347,-0.0281867
-0.0586392,-0.016403
0.0278644,-0.0188361
0.0729342,-0.0352606
0.0725646,0.0239901
0.078198,0.057791
0.0457842,0.0387775
0.0185494,0.0855784
0.0281435,-0.0225336
-0.01939,-0.102651
-0.0725241,0.00822603
-0.0760186,0.0336625
-0.0375747,0.00618584
0.0363016,0.0183026
0.0720585,0.0152601
0.0988154,0.0135317
0.0581242,0.00982534
0.00151132,0.00762976
-0.0377223,-0.0412943
-0.0307111,-0.0624798
0.00591294,0.0659421
0.00121071,0.116679
-0.0231524,-0.090003
0.00409445,-0.0837737
0.00945284,0.0337311
-0.00905239,0.116133
-0.00187732,0.0290494
-0.0352782,-0.0332971
-0.0718096,-0.0136041
-0.0957593,-0.0121194
-0.0977952,-0.00731218
-0.0639326,-0.0117188
0.0336514,-0.0208608
0.0781539,0.000172646
0.0416276,-0.0299029
0.0473809,-0.0904813
0.105515,-0.0569888
0.153946,0.00150448
0.135586,0.0302399
0.0857927,0.0230777
0.0480892,0.0381725
-0.0185348,0.0294719
-0.0706116,0.018643
-0.0611259,0.0134331
-0.0215817,0.0103883
0.00467329,0.0472223
0.0255269,0.0298285
0.0308251,-0.00826437
0.00331489,-0.00554711
-0.0130105,-0.0244169
-0.0323725,-0.0812176
-0.0937812,-0.0448066
-0.167513,0.0167817
-0.205114,-0.00935312
-0.183409,0.000647884
-0.0671417,0.0144612
0.0516501,-0.0226602
0.0991811,-0.0147451
0.0498431,0.0185916
0.00851194,0.0365867
0.01389,0.00563327
0.0563128,0.00416127
0.0844164,0.06158
0.0955239,0.019614
0.0764711,0.0468773
0.0658616,0.00579076
0.0366648,-0.0844925
-0.0406769,-0.0501818
-0.0622359,0.0119963
-0.0179762,0.0257736
-0.00595868,0.000770041
-0.0498533,-0.00803781
-0.0671361,-0.0107135
-0.0470817,0.0354373
-0.0507047,0.0871586
-0.0533397,0.0149979
-0.0385784,-0.0825222
-0.0359939,-0.0482409
0.0272042,-0.0359286
0.093599,-0.0264826
0.084643,-0.0211162
0.0536293,0.00494199
0.0629757,0.0258097
0.0879291,0.0363349
0.0762176,-0.000602549
0.0625116,-0.0345176
0.0351535,-0.0403602
-0.00555233,0.00302859
-0.0551295,-0.0101188
-0.0696081,0.0372917
-0.0765147,0.100048
-0.123397,0.00211269
-0.131743,-0.0345404
-0.0786453,0.0197629
-0.000160613,-0.00360575
0.0636484,-0.023966
0.0986394,-0.00918708
0.110276,-0.00731805
0.0940998,-0.0140528
0.0582099,-0.00613677
0.0184486,-0.0139797
-0.0299869,0.014547
-0.111773,0.037282
-0.132862,-0.00392098
-0.0374473,-0.0168837
0.0514207,-0.0179296
0.0994917,-0.059385
0.0872604,-0.0217906
0.0462487,0.0272268
0.0314277,0.0381047
-0.0314623,-0.0152925
-0.052434,-0.0407783
-0.0508827,0.0103297
-0.0670727,0.0503405
-0.0531965,0.0729941
-0.0378965,0.025977
-0.0964244,0.00524284
-0.118815,0.0203913
-0.0982006,0.00750164
-0.0403101,-0.00956171
0.0631015,-0.0106371
0.170644,-0.00154081
0.235431,0.0318163
0.21512,0.116061
0.0887748,0.019814
0.0201762,-0.0986167
0.0146904,-0.10471
-0.0751851,-0.0171811
-0.138477,0.019626
-0.124269,-0.00277175
-0.0733815,-0.0273733
0.00855135,-0.0301139
0.0709574,-0.0188725
0.0436287,0.0171684
-0.0312441,0.0223692
-0.0753265,-0.0537146
-0.0462284,-0.0616971
-0.0281049,0.00300103
-0.00452096,-0.00368567
0.0173738,0.00814251
0.0114814,0.0330972
0.0163542,0.0139032
0.069293,0.00615987
0.0917442,0.00809933
0.0419483,0.00281813
0.00318336,0.022629
-0.0162937,0.0148014
-0.0329885,-0.0083735
-0.0551834,0.0206119
-0.047767,0.0305626
-0.0428978,0.0095758
-0.056335,-0.0216909
-0.122642,-0.0291179
-0.127766,-0.0271194
-0.0486477,0.00839156
0.0282704,0.00689969
0.0888361,-0.00650237
0.125602,-0.0105611
0.101166,0.0232305
0.146753,0.0373245
0.172927,0.037261
0.0922905,0.0125003
0.00931248,-0.0429947
-0.0289558,-0.0371374
-0.064702,0.0150658
-0.129968,0.0313525
-0.14125,0.0109248
-0.0399172,0.00369801
0.0740925,-0.0315331
0.128179,-0.0419692
0.08602,0.0401456
-0.0348205,0.0194635
-0.102949,-0.0778057
-0.0947272,-0.0486593
-0.0503067,-0.00152277
-0.0264583,0.0393448
0.0143003,0.0641169
0.0266501,0.0167276
-0.0174519,-0.0293214
-0.0326691,0.00631543
-0.0366798,0.0510813
-0.0913904,0.00878362
-0.0665828,-0.027821
0.0315648,0.0641117
0.0767579,0.0817457
0.122182,-0.00503541
0.10078,-0.0355188
0.0562645,-0.101751
0.000510926,-0.078194
0.00351301,-0.0334
0.0474639,-0.0153848
0.0412424,-0.0189167
0.00235685,-0.0139543
-0.0551077,-0.00222438
-0.0761955,-0.015034
-0.0569941,0.00445431
-0.0195567,0.01648
0.0178109,-0.00883622
-0.00996531,0.0156619
-0.0167906,0.050727
-0.0102835,0.0510195
-0.0315364,0.00669981
-0.06424,-0.0122187
-0.0140126,0.0183089
0.0308796,-0.00154587
-0.00771743,0.0187875
0.0149341,0.00162264
0.0420762,-0.049038
0.0196563,0.0145158
0.000968802,0.024398
-0.0165697,0.0152895
-0.0361642,0.0229467
-0.0403046,-0.0101539
-0.0389178,-0.0159829
-0.020356,-0.0163934
0.0132018,-0.0220875
0.116579,-0.0420784
0.15299,-0.030615
0.0584944,0.0114238
0.0253429,0.00919077
0.021808,0.0512092
-0.0593333,0.0916011
-0.124894,-0.00349919
-0.125669,-0.0428298
-0.0800923,0.03162
-0.0112983,0.115486
0.0659241,-0.0259002
0.128422,-0.0870866
0.139103,-0.0565547
0.123832,-0.0373887
0.0494978,-0.0251296
-0.0459034,0.0331441
-0.0809587,0.0242373
-0.0807856,-0.0314917
-0.0754228,0.00862175
-0.0339321,0.0616434
0.000607041,-0.014202
0.0182092,-0.0732273
0.0487947,-0.0217898
0.0430026,0.0093099
-0.000311814,0.0147011
0.00762614,0.109635
0.0290869,0.0576657
-0.0231198,-0.091545
-0.0884694,-0.0498024
-0.111804,-0.0120587
-0.0749709,-0.0737622
-0.00907009,-0.0337791
0.052408,0.0218919
0.0663871,0.0267076
0.0270949,0.0143984
-0.044171,-0.0125096
-0.0720467,-0.0271093
-0.0699717,0.00623321
-0.0400201,0.0408444
-0.000945234,0.037107
0.02222,0.0179984
0.0895582,-0.025534
0.113547,-0.0340963
0.0976062,0.000697882
0.0859134,0.0351142
0.0506881,0.057622
-0.0004767,0.0374911
-0.0696289,-0.00754311
-0.0930053,-0.00961136
-0.0821014,-0.00617186
-0.0632575,-0.00822877
0.00773926,0.0329656
0.0646877,-0.0129379
0.078266,0.0141677
0.0325865,0.100054
-0.0223843,-0.0880618
-0.0504981,-0.100243
-0.0232559,0.00433762
-0.00578762,0.0487552
0.0168766,0.0206442
-0.0232102,-0.0455889
-0.123491,-0.0432994
-0.160181,0.0209852
-0.0523731,0.0205916
0.0343072,0.0640547
0.040231,0.047089
0.0878639,-0.0162975
0.115906,0.0207539
0.0640435,-0.0498066
0.0312016,-0.074045
0.0777484,-0.029464
0.114076,0.0223858
0.126917,-0.009095
0.0954248,0.013434
0.0443352,0.0341527
-0.0829818,-0.0230667
-0.187132,-0.0389781
-0.199913,-0.0149749
-0.119298,-0.0116437
-0.05542,-0.00800189
0.015947,-0.00560589
0.0983285,-0.01778
0.108378,-0.00436858
0.1025,0.0161699
0.048446,-0.00591461
-0.0315728,0.0205109
-0.0519962,0.00697373
-0.0567182,0.00450067
-0.0640848,0.0376174
-0.0752013,0.0251462
0.0131504,0.0200758
0.101132,0.00920156
0.0488762,0.0127443
-0.0547368,-0.0151696
-0.0913895,-0.0305496
-0.0837996,-0.0328627
-0.0309704,0.0387666
0.0427955,0.0913047
0.0210832,0.0890892
0.00304143,-0.0640804
0.0399775,-0.0436648
0.0461983,-0.0276571
0.0824695,-0.0607149
0.0455358,0.00944242
-0.0314285,0.0736478
-0.0212459,-0.0017605
0.0506938,-0.0545455
0.0879185,-0.0467142
0.0427743,-0.0525922
-0.0354446,-0.0370125
-0.0709404,0.00177374
-0.0762414,0.027662
-0.0805275,0.0137531
-0.0791924,-0.0354481
-0.0456977,-0.0262932
-0.0185131,0.00750633
0.0417342,0.0362091
0.0518711,0.0226975
0.00433872,-0.00243053
-0.0200242,-0.0328109
-0.0575639,-0.0338875
-0.110841,-0.00469079
-0.117729,0.0251828
-0.0768718,0.0402061
0.0186166,0.0612285
0.11091,0.0191817
0.178725,-0.022539
0.161825,0.0601313
0.0974454,0.113185
0.0360407,0.0363856
0.000434918,-0.070216
0.0255526,-0.11134
0.0568142,-0.0580515
0.0306906,0.00552281
-0.00257804,0.0382315
-0.0199899,0.019312
-0.0357286,-0.0120554
-0.0847431,-0.008058
-0.0713699,0.018859
-0.0514674,0.0394049
-0.0656579,0.0223064
-0.062293,-0.0119476
-0.0526532,-0.0217706
-0.0373153,0.025674
0.0169843,0.098368
0.0570336,-0.00327864
0.109683,-0.0917803
0.115774,-0.0553121
0.0417711,-0.00312968
0.00322276,-0.00988668
-0.0463006,-0.00411218
-0.0890036,0.0179488
-0.0846895,-0.00485519
-0.0920096,-0.0199092
-0.0359203,-0.0356349
0.055919,-0.0391383
0.104101,0.0496109
0.0777685,0.0302231
0.0182577,0.00602888
0.0376563,0.0304881
0.111631,-0.0339423
0.16109,-0.044715
0.124906,-0.0175904
0.0128238,0.00320991
-0.077843,0.0375841
-0.0564057,-0.0010381
-0.0448898,-0.0194403
-0.0856203,0.0242668
-0.117394,0.000960056
-0.10989,0.0124745
-0.0863295,0.0322569
-0.0450067,-0.010034
-0.0504369,-0.0035766
-0.0501357,-0.00182526
-0.0160568,0.0104039
-0.00520905,0.0125132
0.019814,-0.041029
0.0440406,-0.0349426
0.0522144,-0.0384675
0.0263322,-0.0409492
-0.0237757,0.00433642
0.00128487,0.0441415
0.0740217,0.0673838
0.12222,0.0220616
0.114133,-0.00475322
0.10281,-0.00258321
0.0756485,-0.0140703
-0.0128395,0.00461809
-0.105003,0.0282927
-0.130832,0.0165855
-0.0885074,-0.0436331
-0.0524358,-0.0596634
-0.0667106,0.0492446
-0.103586,0.0799131
-0.0899628,0.00543817
-0.0511112,-0.0637014
0.00741426,-0.0650164
0.0648442,0.00913522
0.0921939,0.000437551
0.0743831,-0.0445085
0.0506944,-0.0112754
0.0452706,0.0289921
0.0464575,0.0406727
0.0494642,0.0370723
0.0435874,0.0234907
0.00865368,0.00886402
0.00108838,-1.22e-05
0.0234621,0.00472596
0.0280098,-0.00598892
-0.00226685,0.0018617
-0.0185219,0.0122708
-0.0153258,0.00568685
-0.014708,-0.0306388
-0.0214118,-0.0385452
-0.0126387,-0.0186356
0.00417273,0.0117571
0.0140401,-0.00010245
0.0110814,0.0108359
-0.0100847,0.0366194
-0.0173403,0.027002
-0.029723,0.0385278
-0.0523857,0.00115495
-0.104192,-0.0585554
-0.135006,-0.0647057
-0.108821,-0.0454808
-0.0963674,-0.0233199
-0.0298446,-0.00540957
0.0950235,0.0129567
0.155475,0.00828498
0.104924,0.0433973
0.0746089,0.0685159
0.124319,-0.0303285
0.121027,-0.0173633
0.114178,-0.0034205
0.111148,0.0405588
0.0764728,0.0259865
-0.0306997,-0.00956343
-0.136779,0.00523765
-0.146719,-0.0220592
-0.124624,-0.0188089
-0.0729358,0.00499437
-0.00288251,0.00277455
0.0555415,-0.0240165
0.0502574,-0.0259619
-0.0101544,0.0207553
-0.0943884,0.0198602
-0.125954,-0.0276189
-0.0846743,-0.0284133
-0.0436577,-0.0360353
-0.0273296,0.0184762
-2.19e-05,0.0650232
0.0110863,0.0503505
0.0206227,-0.0348167
0.0261839,-0.0455157
0.0402836,0.0018151
0.0532218,0.0399302
0.0444397,0.0627364
0.0528934,-0.0462741
0.0525357,-0.0440345
0.0258287,-0.00688036
0.00718533,-0.00552582
0.024784,-0.00615566
0.0176535,-0.00522026
-0.00796052,-0.00458009
-0.0349184,0.000344196
-0.0480377,0.0077596
-0.0334506,0.0123316
0.00226012,0.0119973
0.0298354,0.00994792
0.0351137,-0.00393757
0.0159199,-0.00832129
-0.000515332,0.0199658
0.00473176,0.0229073
-0.0137453,0.00888477
-0.0363143,0.00830803
-0.000862606,-0.0311835
-0.00596986,0.00670041
-0.0286971,0.0603527
-0.0299973,0.0677518
-0.0593622,0.00495361
-0.0640486,-0.0566097
-0.00494639,-0.0739267
0.0394665,-0.0675555
0.0307237,-0.0291727
0.0380629,-0.015678
0.0462981,-0.0031126
0.0428835,0.0315991
0.0383117,0.0159344
0.0320292,-0.0145712
0.0262948,0.00661584
0.0283742,0.056794
0.0251904,0.0752601
0.00284451,0.0908104
-0.0195302,-0.0383401
-0.0414584,-0.0615387
-0.0488411,-0.0455259
-0.0564647,0.00496517
-0.0490884,0.0182231
-0.0123837,-0.0225968
0.00681327,-0.0143591
0.00503793,-0.0125461
0.0340943,-0.0255086
0.0793079,-0.0105104
0.0995574,0.0296406
0.0972328,0.0217958
0.0465789,0.00240579
-0.0244074,-0.00855701
-0.0812499,-0.0081489
-0.0985561,-0.0138744
-0.0940097,-0.0157185
-0.0714828,-0.0107624
-0.0213438,-0.00534395
-0.00606249,0.000672035
-0.018149,0.00587345
-0.0268477,0.00599013
-0.015975,0.00167671
-0.000523797,0.00832405
0.0449898,-0.00848726
0.0795391,-0.00216152
0.059845,0.0257838
0.0560838,0.0128029
0.017767,-0.00599868
-0.0432291,-0.0179883
-0.0502415,-0.01301
-0.0314763,0.00500891
-0.0236252,0.0254939
-0.0201951,0.0314037
-0.00989327,0.0058378
-0.00603982,-0.00304418
-0.00277398,-0.0197776
-0.00143149,-0.0245575
-0.00429267,0.0169601
-0.00203142,0.0213111
0.0049311,0.0176284
0.0210702,0.0108797
0.0229288,0.00280738
0.009019,-0.00220069
-0.00983716,-0.0170878
-0.00469201,-0.0163561
0.000480144,-0.011461
0.00801344,0.00657469
0.0125942,0.0288494
0.00278686,-0.00140151
-0.0011192,-0.0237554
0.0374787,-0.00647975
0.0742463,-0.0244111
0.0253896,-0.0180431
-0.0296235,0.0200862
-0.0327619,-0.00529029
-0.0326196,-0.0141365
-0.017725,0.00560916
0.0057076,0.0170037
0.00409612,0.0090009
-0.0199868,-0.0388871
-0.0237425,-0.0419267
-0.0216816,-0.0109331
-0.0399137,0.00548938
-0.021948,0.0140508
0.0088669,0.00977407
0.051869,0.00236761
0.0553173,0.0104878
0.00971502,0.0106385
0.0102407,0.018893
-0.00556673,0.00955172
-0.00407576,-0.0010712
0.0535515,0.00373366
0.0486813,0.020992
0.0096614,0.0318894
0.0116171,-0.0059285
-0.00817158,0.0510351
-0.0504048,0.0999538
-0.059321,-0.0206558
-0.0621029,-0.0464081
-0.0217404,-0.0751891
0.0412538,-0.083361
0.0870484,-0.0357754
0.101441,0.00512456
0.054832,-0.0205287
-0.0497502,-0.0179386
-0.105387,0.0071981
-0.0875661,0.0112385
-0.0571075,0.00236363
-0.0261262,0.0382999
-0.00404275,0.0338946
0.0329647,0.0210963
0.0596562,0.00197963
0.039773,0.0114147
0.00698029,0.0164141
-0.00873025,0.0324449
-0.0162542,-0.0326151
-0.0213598,-0.0134598
-0.0356289,0.0098103
-0.0330365,0.0108458
-0.00563907,-0.00187591
0.0220948,-0.0119488
0.0141328,0.000364726
-0.00599242,0.0105174
-4.98e-05,0.0124385
0.0302649,0.000166555
0.0222009,0.00670314
0.00256163,-0.00443532
0.0114671,-0.0344366
0.014073,-0.0132769
-0.000410971,-0.0112942
-0.000989089,-0.0216913
0.00924673,-0.00146113
0.00467374,0.0236884
0.000553547,0.0308336
0.00501184,-0.0189976
-0.0114707,-0.0419072
-0.0261438,0.00341168
-0.0220634,0.038061
-0.0144898,0.00340192
-0.0148481,-0.0357993
-0.0115151,-0.0196246
0.00145204,0.000671956
0.0198826,0.010886
0.0260727,0.0157461
0.0274688,-0.00162546
0.0203665,0.0117014
0.0159242,0.000582365
0.0264452,-0.047003
0.0391875,-0.0396907
0.05106,0.000335707
0.058327,0.037235
0.0343802,0.0239573
-0.0149493,-0.00747867
-0.0504991,0.00674034
-0.0846364,0.061177
-0.100558,-0.0145936
-0.0881557,-0.00942139
-0.0451817,0.0141624
-0.00562925,0.0189149
-0.0105011,0.0968712
-0.00828364,0.00499512
0.00245429,-0.0430267
0.0042764,-0.0322946
-0.00332678,-0.0752554
0.00141972,-0.0525321
0.00702898,-0.00207518
0.0277115,0.0132436
0.0467111,-0.0114443
-0.000218031,-0.016284
0.00512355,-0.00976035
0.0295706,0.001922
0.0492099,0.00501694
0.0505542,0.0106654
0.057762,0.00919759
0.0410728,0.0189968
0.0029905,0.0397757
-0.0223917,0.0204588
-0.0319641,-0.00478888
-0.0325904,-0.0222908
-0.0437964,-0.00948065
-0.0303287,-0.00130786
0.0134754,-0.00146821
0.0644217,0.0489732
0.0670837,0.0192783
0.0217772,-0.0334124
-0.0320927,-0.00692386
-0.0843249,0.00961938
-0.0965335,-0.0155667
-0.0783407,-0.0128191
-0.0433761,0.00530508
0.0158946,0.0154561
0.0679107,0.00873193
0.0809784,-0.00271608
0.0605247,-0.00870199
0.0156276,-0.000282316
-0.0390318,-0.00487093
-0.069983,-0.00450188
-0.0691474,-0.00823017
-0.0451152,-0.00214628
-0.00108758,0.033157
0.0344535,0.00817105
0.037423,-0.0513767
0.00923029,-0.0214523
-0.00876806,0.0263656
0.0151553,0.0128202
0.0492676,-0.0220946
0.0625537,0.0196577
0.0510096,0.0466245
0.00861398,0.0297935
-0.0207821,0.00935177
-0.0307974,-0.0151314
-0.0461359,-0.026429
-0.0565721,-0.0241744
-0.0310592,-0.0187472
-0.0153439,-0.0239742
-0.0108011,-0.0180562
0.00560319,-0.00453758
0.0030488,0.00681758
0.00371529,-0.0186501
0.00975794,-0.0371333
-0.00353191,0.0101452
-0.00779813,0.0304765
-0.00648044,0.0317756
0.015794,0.0188443
0.0380348,0.00313328
0.0373801,0.0392706
0.0467056,0.048149
0.0516611,-0.0171318
0.0387688,-0.0108431
0.0231319,-0.0120026
0.0170475,-0.0306657
-0.00379555,-0.0195384
-0.0087877,-0.00419877
-0.00442956,0.0118634
-0.00794369,0.0140875
-0.0180981,0.00723385
-0.0201066,0.00715437
-0.0199897,0.00663855
-0.00703821,-0.00626372
0.0102046,-0.000814254
0.010473,0.00591845
-0.020292,0.00151113
-0.0669377,-0.00104323
-0.0680643,-0.00309357
-0.0390681,-0.00609291
-0.0248005,-0.00721362
-0.0203267,-0.00714686
0.0002408,-0.0149851
0.0247293,-0.0137222
0.0437708,-0.00323198
0.0400873,0.00304537
0.00846722,-0.00129615
-0.0172051,-0.00705449
-0.0455312,-0.00827062
-0.0659696,-0.00872355
-0.0439918,-0.0057988
0.0119087,0.00665544
0.0752527,0.0236744
0.116145,0.0360986
0.137616,0.00719221
0.112795,-0.00151326
0.0368117,0.0178339
-0.0514142,-0.00465734
-0.105431,-0.00487214
-0.117924,-0.0151708
-0.0972648,-0.0424774
-0.0565711,-0.00610672
-0.025604,0.0379034
-0.0175287,0.00749858
-0.0200518,-0.0391892
-0.0227168,-0.0132473
-0.0124355,2.62e-05
0.0106586,-0.00359987
0.0490444,0.0198077
0.0486728,0.0357043
0.0130088,-0.00306735
0.00131178,-0.0155048
0.0208368,-0.0104732
0.041025,-0.00267712
0.0500716,-0.00281615
0.0665058,-0.00234164
0.0735118,0.00532258
0.0847059,0.0125977
0.0838204,0.0175452
0.0529242,0.0154424
0.0116182,0.00654226
-0.0410572,-0.0101546
-0.105361,-0.0145699
-0.156972,-0.00312779
-0.153845,0.00837082
-0.0844653,0.0148639
-0.0220185,0.00971852
0.0245195,0.00509415
0.0785278,0.00195514
0.121029,-0.001816
0.100535,-0.00667067
0.0386656,-0.0120005
-0.0357029,-0.012776
-0.087906,-0.00871782
-0.0934047,-0.00242351
-0.0826411,-0.00394676
-0.0711567,-0.00614845
-0.0142904,0.00696688
0.0488873,0.00133908
0.0515875,-0.00813547
0.0274947,-0.00848415
0.0285291,0.00136204
0.0561806,0.00739286
0.0505502,0.00718343
0.0203671,0.00960276
-0.0109261,0.00937004
-0.0327269,-0.00919436
-0.0492816,-0.020408
-0.0648464,-0.0110525
-0.0807878,-0.00786337
-0.0684745,0.0095295
-0.0421045,0.00411416
-0.00326221,-0.00586597
0.0757863,-0.0100469
0.0970813,0.0149449
0.0754374,0.0385445
0.0597662,0.00312965
0.0324516,-0.0383029
0.00944212,-0.0353501
-0.0014639,-0.016082
-0.0209185,-0.0060382
-0.0245849,0.00218391
-0.0100773,0.00976731
-0.0123054,0.0120287
-0.0302543,0.00894115
-0.00810702,0.0260656
0.0265904,0.040916
0.0607245,0.0356574
0.0733266,0.010146
0.0845481,-0.000223907
0.131478,-0.0231478
0.151305,-0.022506
0.100522,-0.0101626
-0.0246263,-0.00762633
-0.129386,0.00502475
-0.182834,0.00486939
-0.184762,-0.0096987
-0.142094,-0.00546046
-0.075202,-0.00143164
-0.0264369,0.00123117
-0.0131244,0.0124554
0.00637124,-0.00338816
0.0182666,-0.0191464
0.0117522,-0.00477813
-0.0234169,0.0069612
-0.0422637,0.00324981
-0.0429511,-0.00658362
-0.015879,-0.00648275
0.00242842,-0.00489998
0.0107294,-0.00915112
0.0182174,-0.00987487
0.0281699,0.00356683
0.0340357,0.0255625
0.0161918,0.00650927
-0.00787081,-0.0102751
-0.00621716,-0.00140322
0.0234638,0.00262005
0.0283035,0.0035916
0.0389094,0.0047987
0.0900736,0.0035778
0.129844,0.0119264
0.119102,0.0141767
0.0617987,0.00557634
0.0150353,0.00551883
-0.0384813,0.00688573
-0.0682278,-0.0178775
-0.0042886,-0.0230253
0.0297462,-0.00919469
0.0229535,0.00763639
-0.0258453,0.0121032
-0.107121,0.00125834
-0.138708,-0.00392504
-0.108734,-0.0104059
-0.0802861,-0.0139903
-0.0599543,-0.00682959
-0.0462133,-0.00726873
-0.0317051,-0.00575995
-0.000690946,0.00399629
0.022948,0.0185059
0.0227592,0.0182495
0.0171809,0.00701992
0.0249113,0.000124268
0.0328124,-0.00246011
0.0281707,-0.00247319
0.0281964,0.0209266
0.049748,0.0420015
0.0560676,-0.00108982
0.0351751,-0.0253036
0.0200997,-0.0185786
0.0194296,-0.0145141
0.020618,-0.00363144
0.0335978,0.0271735
0.048673,0.0234618
0.0498555,-0.0361746
0.0328999,-0.0354359
-0.0155281,-0.0190114
-0.073493,-0.0160404
-0.0904552,-0.0157848
-0.0693667,-0.0110706
-0.0327765,-0.00124319
0.000155638,0.00645094
0.0182402,0.0167599
0.0189355,0.0178172
0.0111893,0.00531039
0.019672,0.0273071
0.0482857,0.0487578
0.0705878,0.00231703
0.0576555,-0.0225233
0.0190904,-0.0299517
-0.00593453,-0.00967694
-0.0247926,0.0172431
-0.00676005,0.0139984
0.0382354,0.00737593
0.0498901,-0.0107382
0.0238017,-0.0113919
-0.0255779,-0.00965424
-0.0727994,-0.0174038
-0.0932141,-0.015131
-0.0757835,0.00385826
