Comp Ch 3,Comp Ch 4
-0.0487507,-0.0319499
-0.00581848,-0.0269615
0.0336865,-0.0143173
0.0743202,0.0118736
0.0869005,0.00124489
0.0466153,-0.0129837
0.0135119,-0.0079865
0.000332211,0.000948615
0.0339476,0.00377425
0.0979009,0.00197099
0.152799,0.0101636
0.139818,0.0106218
0.0926362,0.0100406
0.0231973,0.011767
-0.0860451,0.0119547
-0.0979585,0.0144169
-0.0506115,0.0458867
-0.0397449,0.0476085
-0.0687444,-0.0425032
-0.0917869,-0.0441617
-0.037743,-0.0113826
0.00543785,-0.0163018
0.00915682,-0.00677495
0.0121904,0.00238053
-0.00154353,-0.00231879
-0.0199811,-0.0122269
-0.0163761,-0.0244826
-0.00234897,0.00146438
0.0109011,0.0262933
0.0396898,-0.00102108
0.0520604,-0.00127326
0.034073,0.00302365
0.0197974,0.00734176
0.0120649,0.0291236
-0.0161623,0.0194287
-0.0451431,-0.0189122
-0.0401698,-0.0145488
-0.00471817,-0.00446179
0.0144269,0.0164654
0.0173106,-0.0121013
0.00816277,-0.00258117
0.00553295,-0.0055972
0.0358944,0.000420302
0.080321,-0.0119498
0.087372,-0.0157111
0.077394,-0.0055233
0.0828321,0.00807479
0.0484087,0.0138502
-0.0291763,0.0392153
-0.0802637,0.0287185
-0.143948,-0.00755627
-0.179042,-0.0010794
-0.142993,-0.0458892
-0.0354855,-0.0168725
0.055122,-0.00852829
0.0751266,-0.00610088
0.0339398,0.0139151
-0.019014,0.0118529
-0.0275639,0.00684402
0.0199422,0.0218059
0.046617,0.0438309
0.0063341,-0.0474768
-0.0382778,-0.0264345
0.0322194,-0.037865
0.128182,-0.0179466
0.157741,0.0041886
0.124892,0.00288113
0.0184108,0.0333658
-0.094866,-0.00486524
-0.181676,-0.0192651
-0.132529,0.0105201
-0.0455543,0.0167716
-0.0476501,0.00240506
-0.0448522,0.0145421
-0.0368528,0.038536
-0.0437261,0.00824309
-0.0426617,-0.0315734
-0.0279202,0.00403048
-0.00862463,0.00342931
0.0320245,-0.00830981
0.0551461,0.0198691
0.0420703,0.0124428
0.0308025,-0.00596683
0.0394774,-0.00944101
0.0431266,-0.0186305
0.0352049,-0.0285359
0.0249287,-0.0049274
0.0313247,-0.0151542
0.0328574,-0.0284644
0.0260199,0.0325628
0.0192974,0.0614806
0.00428569,-0.0333876
-0.0261448,0.00882132
-0.0321122,0.0181448
-0.0022458,-0.00836291
0.045343,-0.00297803
0.0758082,0.00268107
0.0382116,-0.000431204
-0.0451896,-0.0067207
-0.0827673,0.00925117
-0.0598972,0.0117706
-0.0289668,-0.00435588
-0.0134755,-0.0168299
0.000268485,0.0267236
0.012832,0.0444096
0.00977927,-0.0245294
0.00107328,-0.0317874
-0.0158963,-0.0135792
-0.043806,-0.0139317
-0.0562081,-0.0160496
-0.0162565,-0.01191
0.0333226,-0.0172079
0.0628336,-0.00627989
0.0597379,0.0123906
0.0113793,0.01059
0.0129233,-0.00207706
0.0687927,-0.00312653
0.115929,0.00894944
0.0853876,0.0164111
-0.00287399,-0.0104654
-0.0475598,0.00360644
-0.0621882,0.10017
-0.0186448,0.0690413
0.0533611,-0.0819743
0.0748549,-0.0444254
0.041439,0.029857
-0.0485749,-0.00186322
-0.108098,-0.0531751
-0.103087,-0.0133375
-0.102263,0.0270507
-0.113799,-6.9e-05
-0.129845,-0.0117995
-0.09993,-0.018349
-0.0321711,-0.0200526
-0.00466034,0.00588211
0.0107267,0.0247855
0.0313845,0.00238424
0.0598508,-0.0318564
0.0720189,-0.05142
0.0480337,-0.0104798
0.0289775,0.0175024
0.0129845,0.0377507
-0.00249354,0.0278681
-0.0205863,0.0381015
-0.015974,-0.0104115
-0.000127065,-0.0326668
0.0291753,0.00827821
0.0492722,0.0174642
0.0457381,-0.026806
0.0322984,-0.025872
0.0157824,0.00464773
-0.00163717,0.0697142
-0.0175929,0.0795747
-0.00604618,-0.0310385
0.0191791,-0.0287673
0.0304631,-0.0159312
0.0329845,-0.0104408
0.0211849,-0.00198071
-0.0138132,-0.00211687
-0.0684803,-0.0054354
-0.0793791,-0.00441267
0.0270456,-0.00560896
0.236757,0.00436649
0.376907,0.0172406
0.321072,0.0115317
0.067777,-0.00325317
-0.188917,-0.0115538
-0.316019,-0.0188884
-0.304286,-0.0175515
-0.179883,-0.0123969
-0.0346177,0.00693343
0.0536307,0.0304708
0.0380513,0.00262577
-0.00725754,-0.0190626
-0.0721369,0.00777545
-0.133456,0.0566051
-0.13995,0.0527111
-0.121175,-0.0125614
-0.0788146,-0.0496143
-0.011518,-0.0485373
0.0448484,-0.00611543
0.0607908,0.00285447
0.0699575,-0.00586234
0.0868982,0.00418683
0.0895199,-0.00720882
0.0906514,-0.0106215
0.098093,0.0279666
0.127598,0.0198999
0.130031,-0.0228508
0.0636639,-0.00624764
-0.0119432,0.0222663
-0.0476034,-0.00552429
-0.0565274,-0.0293108
-0.0360101,-0.00627305
-0.00576755,0.00766431
-0.0094854,0.000810048
-0.0365324,0.00370537
-0.0380812,-0.0143473
-0.0420713,-0.011303
-0.0250557,0.0291618
0.0127181,0.00770193
0.00516365,0.0133357
-0.0197584,-0.010168
-0.0188255,-0.047283
-0.0086296,-0.013886
-0.016691,0.0249345
-0.0180625,0.0210136
-0.0192878,0.0113255
-0.0286613,0.000376003
-0.0279007,-0.0115292
-0.0118166,-0.00948999
-0.00630582,0.00612419
0.000802565,0.0157946
0.0211171,0.00641167
0.0305593,0.00224194
0.0270957,-0.0030431
0.0298735,-0.00130579
0.0246563,-0.0011177
0.0083823,-0.00753032
-0.000851166,-0.0108061
0.0193122,-0.000171648
0.0409025,0.00640913
0.0336904,-0.00259717
0.0149311,-0.0046119
-0.00548608,-0.00315011
-0.0248395,-0.00124008
-0.0336437,0.0305221
-0.0307148,0.0806696
-0.0287186,0.0417083
-0.00854519,-0.0370784
0.014765,-0.051976
0.0138465,-0.0136609
0.0060455,-0.00956286
0.0105319,-0.0281131
0.00244896,-0.00717612
-0.0170077,0.0326731
-0.0127127,0.0391325
0.0199278,-0.0027687
0.0344113,-0.0160108
0.021107,-0.0090879
0.00731146,-0.00410062
-0.011906,-0.00387797
-0.0262055,-0.0163983
-0.0253383,-0.0229974
-0.0228089,-0.0142495
-0.0263811,-0.0163036
-0.0240266,0.00835392
-0.0121641,0.0324178
-0.00226465,0.00271993
-0.00188239,-0.0129361
-0.00728124,-0.0102935
-0.0203939,-0.00326067
-0.0324888,0.0208824
-0.0152937,0.0269559
0.013005,-0.0176155
0.0188599,-0.0115865
0.0388008,-0.0371537
0.123442,-0.0239273
0.242109,0.0146643
0.292434,0.0860768
0.221995,0.0575225
0.0290895,-0.064244
-0.175794,-0.037438
-0.247182,0.000680789
-0.266709,0.00113842
-0.247818,0.0047118
-0.166056,0.0123942
-0.0979247,0.0116045
-0.0312889,-0.00385036
0.0436455,-0.0178037
0.12042,-0.00987172
0.147164,0.00830998
0.134659,0.00150582
0.0696735,0.02014
-0.0263213,0.0348675
-0.067739,-0.00693831
-0.0420552,-0.0198103
0.0445543,0.0278498
0.0872778,0.0174578
0.060913,0.00733814
-0.0345349,0.0404039
-0.120528,0.00643918
-0.13209,-0.0300836
-0.0766917,-0.0338762
-0.0147165,-0.0211954
-0.00336307,-0.0159498
-0.00639904,-0.00571032
0.00464062,-0.00268842
0.00744184,-0.000480311
-0.00844357,0.0232434
-0.016282,-0.00339777
-0.0245648,-0.0142773
-0.0252353,-0.0529108
-0.0165869,-0.0327023
-0.00508524,0.0082236
0.0118232,0.0085738
0.0525028,0.0114278
0.0825705,0.0184666
0.105555,0.0239951
0.145734,0.0412843
0.234264,-0.00165087
0.287409,-0.0462224
0.198482,-0.0150368
0.0378343,0.000528579
-0.137324,-0.00039839
-0.24571,0.00624967
-0.230253,0.0111987
-0.172691,-0.0116205
-0.121506,-0.0277991
-0.0752009,-0.043073
-0.0378763,-0.00369795
-0.0184763,0.0215942
0.00461349,0.0296349
0.0470988,0.0097472
0.0604946,-0.00761446
0.0261225,-0.00312218
-0.0189905,0.0176557
-0.0395448,0.0691803
-0.0315243,0.0618799
-0.0219996,-0.0367311
0.00750701,-0.0488435
0.0335372,0.00488346
0.0218871,0.0387912
0.0106168,-0.0175385
0.00108001,-0.0620033
-0.00939297,-0.0343603
-0.0156107,-0.0085988
0.0072033,0.0196857
0.0286464,0.0318916
0.0436344,-0.00627398
0.0496334,0.010081
0.0192896,0.033744
-0.000680275,0.0229652
0.050245,-0.00837625
0.109152,-0.0226306
0.100842,-0.0189555
0.0282616,-0.0108595
-0.0411617,-0.00401264
-0.106182,-0.00406454
-0.115176,-0.00522173
-0.0501905,0.0635347
0.0195931,0.0662971
0.0559809,-0.0490588
0.0596163,-0.0416282
0.112327,-0.0261275
0.143418,-0.00477838
0.113293,0.0258505
0.0345094,0.0189619
-0.117519,0.00245681
-0.240846,0.0168557
-0.249015,-0.000716429
-0.200527,-0.0352093
-0.135253,-0.0284503
-0.0479924,-0.00771361
0.0289219,0.00349303
0.0547006,0.0032628
0.0445759,-0.0129286
0.0277929,-0.0094925
0.0128425,0.0179595
0.0145266,0.00585046
0.0340822,-0.00704585
0.0504673,-0.0121005
0.0598856,-0.0114458
0.0666738,-0.00243742
0.0395157,0.00833911
0.00287916,0.0113194
-0.0211921,0.0116812
-0.0187455,0.027021
-0.00795451,-0.0183357
0.000833671,-0.0166262
0.0344518,0.0274763
0.0519751,0.0352914
0.0245836,0.0328266
0.00349188,-0.0116576
-0.00905529,-0.0270957
-0.020902,-0.031998
-0.0223085,-0.0502829
-0.00693799,-0.0317745
0.00168847,0.0153032
0.0237446,0.0208581
0.0598926,0.0432754
0.0569033,0.0765476
0.042597,-0.0144066
0.0205511,-0.0411075
-0.0263049,0.0086068
-0.0416966,0.0375573
-0.0138776,-0.0317215
0.0191378,-0.0432927
0.0143038,-0.0163861
-0.0394766,0.000879086
-0.0868098,0.017379
-0.102874,0.0327907
-0.0819007,0.0214205
-0.0480908,-0.015826
-0.00619314,-0.0313389
0.0120522,-0.0144307
0.0189124,0.0146318
0.0176733,0.0378889
0.0199234,0.0239018
0.0220527,-0.0237654
0.0270394,-0.0237947
0.0246753,-0.0145744
0.0441112,-0.00630484
0.167606,-0.00943936
0.304872,-0.00547732
0.259597,0.0220205
0.103763,0.00742689
-0.0655748,-0.0461313
-0.210599,-0.0311589
-0.28192,-0.00324739
-0.279974,0.00215179
-0.20117,0.034725
-0.0869349,0.065843
0.0245405,-0.0231311
0.0909905,-0.0173993
0.0851488,-0.00145738
0.0345107,0.00375407
-0.0380812,0.0786331
-0.0691584,-0.0125329
-0.0685735,-0.0762399
-0.0408054,-0.0248788
0.0128462,-0.00665693
0.0200298,-0.00393371
0.00277577,0.0140322
-0.00478565,0.0470374
0.0117712,0.0482681
0.0572971,-0.00986313
0.112741,-0.00556383
0.123444,-0.00341523
0.105418,0.0106153
0.0557412,0.010024
-0.0164923,-0.0220228
-0.0715958,-0.0230872
-0.0650292,-0.0182353
-0.0207535,-0.0190793
0.00190603,-0.0163709
-0.00113336,-0.00649373
-0.00360009,0.0236169
-0.00711208,0.0216369
-0.0280293,0.00546807
-0.00286779,0.00503601
0.0604019,-0.0214739
0.0607835,-0.0275235
0.0229774,0.00289327
-0.0198373,0.0301081
-0.0674393,-0.0185697
-0.0633448,-0.0319226
-0.0362421,0.0339318
-0.030203,0.0307379
-0.0190539,-0.0140137
0.0171481,-0.0392924
0.037734,-0.0135516
0.0197199,0.0174407
0.00605365,-0.00260654
0.000382176,0.00323303
-0.0163209,0.0163327
-0.0320313,0.0222661
-0.0173452,0.0217225
0.0191961,0.00374858
0.0689459,-0.0105952
0.0854805,0.0100834
0.0512306,0.0171654
-0.00701886,-0.0233887
-0.0403823,-0.0192984
-0.0543696,0.0188128
-0.0466438,0.0561451
-0.0079022,0.0338499
0.045964,-0.0426645
0.0599399,-0.0192887
0.0456007,-0.0379753
0.0261948,-0.01582
0.00288141,-0.0146227
-0.0369159,-0.0254394
-0.0636426,0.00781909
-0.0752514,0.0644789
-0.0748326,0.0700669
-0.0504877,-0.00691727
-0.0195505,0.00641374
-0.00893051,-0.031677
0.00967586,-0.0256952
0.0477496,-0.0016083
0.0522644,-0.0232296
0.0302316,-0.023711
0.0166245,-0.00851406
0.00410017,-0.00367575
-0.0125936,-0.00423727
-0.0163082,-0.000540223
0.00671774,0.0231806
0.0326926,0.0181335
0.0228202,-0.0149045
0.0142224,-0.00556522
0.0131404,0.0103828
0.00269473,-0.0016504
-0.0147601,0.0148438
-0.0262035,0.0438167
-0.0243874,0.00496804
0.0038787,-0.00587762
0.033826,0.00891102
0.0382467,-0.0352425
0.0304527,-0.0301414
0.0185775,-0.0229039
0.00125312,-0.0145686
-0.0344822,-0.00133212
-0.0635444,0.0056171
-0.0204593,-0.00140827
0.0315346,0.00466135
0.036292,0.00724842
0.0284715,0.00771962
0.00731373,-0.0145003
-0.0477603,-0.010623
-0.0849976,-0.00224167
-0.0870155,-0.00504251
-0.057368,0.0037296
0.0368841,0.00859723
0.165987,0.0051972
0.215156,0.0179189
0.18053,0.0200412
0.0806902,-5.41e-05
-0.0774425,-0.00781511
-0.198986,-0.010563
-0.207276,-0.0216781
-0.154087,-0.0227743
-0.090339,0.00443227
-0.0251477,0.020078
0.0295136,0.0344765
0.0820517,-0.00897291
0.084172,-0.0175358
0.04197,0.00257817
-0.0127314,-0.0134774
-0.0466743,0.0315643
-0.0571952,0.109104
-0.0470975,0.069888
-0.0262944,-0.0520328
-0.0136269,-0.086973
-0.00779402,-0.013778
-0.0178633,0.037956
-0.0164922,0.00348045
0.0248904,-0.0237408
0.0729032,-0.0068418
0.0884272,-0.0104016
0.0976808,-0.0276511
0.0730123,-0.0363981
0.0182398,-0.0282109
-0.0239283,-0.00899516
-0.0313245,0.0068578
0.0119632,-0.000694034
0.0769264,-0.00076844
0.0844332,0.0121221
0.0204808,0.0128874
-0.0455866,0.00624185
-0.0836944,-0.00480345
-0.095383,0.0286767
-0.0852211,0.070804
-0.0540569,-0.00835531
0.000502283,-0.0162564
0.0378225,-0.00435952
0.0375584,0.0037392
0.0275302,0.0259776
0.00430035,0.0106594
-0.0093443,-0.0161721
-0.00196583,0.00523837
-0.00239295,0.000831049
-0.000407186,-0.0396896
0.0208361,-0.0391992
0.0231181,0.014757
-0.00135338,0.0643432
-0.00616819,0.0271028
0.00284089,-0.0267715
-0.0123926,-0.0428741
-0.0348123,-0.0347914
-0.0203883,-0.0183375
0.0138595,0.02147
0.0231365,0.0315978
0.0210972,-0.000528677
0.0248516,-0.028518
-0.00112074,-0.0044049
-0.0392957,0.00877845
-0.0400031,-0.00737557
-0.0255995,-0.0272105
-0.00574405,-0.0238258
0.0251228,-0.00378213
0.0378064,0.00772874
0.0227594,0.0222639
0.0105178,0.0231632
-0.00548232,0.0176263
-0.0274486,0.0140676
-0.0401662,-0.00240832
-0.0168813,0.0271466
0.0155646,0.0335504
0.0180011,0.0149826
0.018547,-0.00352328
0.0177516,-0.0296965
0.00204062,-0.0438938
-0.00804519,-0.0395255
0.00226002,-0.0220148
0.00721359,0.000151416
0.0169204,0.0170447
0.0311188,0.0125526
0.0246144,0.0230877
0.031601,0.0168346
0.0674116,0.000481797
0.0865339,0.00650204
0.0583777,0.0150227
0.0117263,0.0173193
-0.0142248,-0.00962112
-0.0638782,-0.0252999
-0.113292,0.00697871
-0.115706,0.0362511
-0.0817685,0.00142559
-0.0407508,-0.0221401
-0.0121914,-0.00536312
0.00529175,-0.0128607
-0.00330955,-0.0267538
0.0100172,-0.0159307
0.0186756,0.00370765
0.0102495,0.00167517
0.00615328,-0.0212004
0.0143899,-0.0379092
-0.00409838,-0.0235178
-0.0302128,-0.0146323
-0.0206537,-0.00990712
0.0250664,0.00297242
0.0473319,-0.00184371
0.0256402,0.00782889
-0.00729104,0.0211301
-0.042573,0.0402875
-0.055149,0.0360778
-0.0269375,0.0221287
0.00447818,-0.00873626
0.0278689,0.00328771
0.0329037,0.0218762
0.0289212,0.00731378
-0.00656101,0.11546
-0.0258202,0.146617
-0.00973489,-0.0721182
-0.0203782,-0.0730136
-0.0197643,-0.0524365
0.0159142,-0.0749248
0.0495641,-0.0337285
0.0540389,-0.00268504
0.053943,0.00145537
0.0423202,0.00421196
0.0123282,0.0185719
-0.0089257,0.00993178
-0.00235664,-0.0363041
0.00321462,-0.0498395
0.00819447,0.0202754
0.0174989,0.0287757
0.00269783,-0.0154594
-0.017887,-0.0456794
-0.0219738,-0.00338042
-0.0260635,0.0207162
-0.0414446,0.000479748
-0.0526735,0.0121787
-0.0374284,-0.00123999
-0.0220713,-0.00634351
-0.010132,0.0245321
0.0253672,0.047382
0.0282247,0.0083129
0.00613702,-0.0252418
-0.000446863,-0.0222496
-0.00971244,0.00133408
-0.017794,0.0143543
0.00675384,0.0145356
0.0361427,0.0102749
0.0322755,-0.0117719
0.0178469,-0.0286038
0.00791575,0.0179746
-0.0143164,0.0415482
-0.0263029,0.00521835
-0.0174163,-0.00849293
0.0180983,-0.0143187
0.0369366,-0.0116423
0.0271836,0.0117956
0.0231383,0.0104455
0.00830585,0.0126938
-0.0121645,0.00211111
-0.0175822,-0.0193785
-0.0228407,0.00260884
-0.0126726,-0.00960155
0.025326,-0.0165294
0.0318694,0.0265523
0.00766326,0.0110891
-0.0140865,0.000544487
-0.0358242,0.0167911
-0.0696219,-0.0140461
-0.0887009,-0.0274988
-0.0235393,-0.0605149
0.0645383,-0.0731947
0.0637458,-0.00903353
0.0537206,0.0605454
0.0367572,0.0682937
0.00202237,-0.00887968
-0.0216595,-0.0152288
-0.0294224,0.0351702
-0.0232817,0.0876938
0.00661604,0.0248113
0.0272752,-0.0114209
0.0309897,-0.016249
0.00623477,-0.025529
-0.0327034,-0.0244234
-0.0577546,-0.0231177
-0.049635,-0.0512354
-0.0225857,-0.0297839
0.0251268,-0.0127911
0.0413981,0.0216099
0.0351944,0.0406841
0.029198,0.0108657
0.00468535,0.0112188
-0.0190945,0.0175854
-0.0192615,0.0368858
-0.00771295,-0.025012
-0.0094101,-0.0460944
0.00405283,-0.00810932
0.0201598,-0.0279638
-0.0230221,-0.00407722
-0.0210865,0.0071216
-0.015665,0.000801874
0.000383775,0.00424664
0.0235283,0.046561
0.0338055,0.0521766
0.0202287,0.015967
0.0248552,-0.013747
0.0476137,-0.0184848
0.0346675,-0.0239366
0.000541502,-0.0307848
-0.0197104,-0.0262368
-0.0302243,-0.0181922
-0.0418421,-0.00703735
-0.026813,-0.0280909
-0.0153266,-0.0127487
-0.0256501,0.0077467
-0.0316059,0.0154861
-0.023809,0.00499934
-0.00942641,-0.0184187
-0.00457092,-0.0257938
0.0105059,0.0504953
0.0401484,0.0842289
0.0397087,0.0293106
0.0234165,0.0218816
0.0169407,0.016199
0.0177509,-0.0382398
-0.0112382,-0.0526477
-0.0291683,-0.0207537
-0.0356762,-0.0140384
-0.0252661,0.0128365
0.00333684,0.0238273
0.0184659,-0.025089
0.00862762,-0.0176985
0.00213156,-0.0137803
-0.00597671,-0.00158171
-0.0211108,0.0220546
-0.0248108,0.0221553
0.00447176,0.0988772
0.0285326,0.0947108
0.0238876,-0.0217113
0.0242888,-0.0713084
0.0155055,-0.0555412
0.000727725,-0.0224168
-0.00380688,-0.0201359
-0.0274197,-0.0224755
-0.0641548,-0.0250148
-0.0509545,-0.00773611
-0.0094393,0.0280272
-0.00793344,0.0270676
-0.0163936,-0.00404019
0.00585592,0.0224957
0.00952376,0.0578151
0.0226717,-0.00454291
0.0466081,-0.0430325
0.0575705,-0.0133772
0.0468858,0.00501804
0.034608,0.00646291
0.0450385,-0.00611126
0.038033,-0.0203087
-0.0141475,-0.011856
-0.0448811,-0.00808795
-0.0538223,-0.000374339
-0.0422566,-0.00235369
-0.00420966,-0.00811048
0.0195028,0.00811355
-0.00031739,0.00985831
-0.019857,0.000422026
-0.00960183,-0.00104306
-0.00833985,0.00516291
-0.0211364,0.00713335
0.00130668,0.0160924
0.0318522,0.0350881
0.0347727,0.0301162
0.0373925,0.0072853
0.0387145,-0.00369368
0.0257199,-0.00604109
0.00532709,-0.0181454
-0.0163394,-0.0257821
-0.0419997,-0.0239785
-0.0429805,-0.0121778
-0.0264479,0.00172826
-0.0270685,0.00288242
-0.0312428,-0.00697213
-0.0106365,-0.0100278
0.0054795,-0.00972797
0.00171094,-0.00889575
-0.00066321,-0.00749491
0.0311428,-0.000199301
0.0520269,0.00566055
0.0374467,0.00325376
0.012239,0.0155508
-0.00504041,0.0132421
-0.0119004,0.00640382
-0.0401646,0.0129745
-0.0356294,0.00844484
-0.00951506,-0.00481779
0.00606244,-0.00534066
0.0306835,-0.00578489
0.00934035,0.0294258
-0.0470191,0.0784126
-0.0579212,0.0051649
-0.055104,-0.0870869
-0.0238098,-0.0701883
0.0197566,-0.0299497
0.0649969,0.00135635
0.0838033,0.0230739
0.0414184,0.0537755
0.0031361,0.0509604
-0.0255834,-0.0133271
-0.0552108,-0.0183394
-0.0663384,0.0397121
-0.0315903,0.0334256
0.0282277,-0.0359895
0.0514886,-0.0323189
0.0474902,0.0247813
0.0318364,0.0246038
0.0274879,-0.022233
0.029936,-0.0473277
0.0101268,-0.0394599
-0.0380049,-0.0137347
-0.0360941,0.0169029
0.00154843,0.0168701
-0.00701297,0.0136908
-0.0220178,0.0366547
-0.0242579,0.00254549
-0.00671973,-0.0250141
0.0144483,-0.0334039
0.00687434,-0.0288114
-0.0168153,-0.0223418
-0.0122864,-0.00954069
-0.000332388,0.0107227
0.0121327,0.00796716
0.00300358,-0.0352102
0.00071984,-0.0318441
0.0304286,0.0232798
0.0531883,0.0386446
0.0531323,0.0225795
0.0498507,0.0119336
0.0606571,0.00494283
0.0366191,0.00844525
-0.0360084,0.0513746
-0.0810158,0.0589341
-0.0707861,0.0195591
-0.0510127,-0.0336098
-0.0448091,-0.0557516
-0.0463285,-0.0147685
-0.0630846,0.0207465
-0.0693332,-0.0218178
-0.0701308,-0.0421843
-0.0528748,-0.039541
-0.00140044,-0.025042
0.0601122,0.000198507
0.0720509,0.00976922
0.05714,0.0307759
0.047068,0.0570115
0.036317,0.0705863
0.024692,0.0605098
0.0234695,0.0503341
-0.00198822,-0.0101811
-0.0161544,-0.00660464
0.0020737,0.032226
-0.00128858,-0.0887746
-0.00874131,-0.095315
0.0149656,0.0392589
0.0723455,0.022676
0.127618,-0.0523301
0.135727,0.000156345
0.102009,0.0519695
0.06082,-0.02494
0.0114286,-0.0538985
-0.0654855,-0.0133238
-0.122893,-0.00307086
-0.137521,-0.0125792
-0.113343,-0.0112996
-0.0743934,-0.0259152
-0.0240337,-0.0215277
-0.0136168,-0.0314004
-0.0108369,-0.0404496
0.00543514,0.0367986
0.0125027,0.0479342
0.0295364,0.0373853
0.0259115,-0.00184903
-0.0146048,-0.0262134
-0.0589764,0.0157095
-0.0605829,0.0611069
-0.0382965,0.0662505
-0.0215385,0.0559622
0.0455153,-0.004973
0.0849497,-0.0469352
0.0460608,-0.0176464
0.00144052,0.0116472
-0.0366538,-0.0214728
-0.0880965,-0.00976959
-0.100584,0.00167339
-0.0138946,-0.0365692
0.060104,-0.0544081
0.036497,-0.027682
0.023724,0.00917743
0.0133889,0.0238173
0.0614434,-0.0547598
0.134928,-0.0800425
0.108227,0.00252709
0.0468701,0.0642969
0.0187659,0.0520824
0.0205792,0.0245869
0.0130888,0.0572833
-0.0490063,0.107914
-0.0602238,0.0445583
-0.0646582,-0.0737498
-0.0933727,-0.0364527
-0.0865431,0.0557846
-0.0717098,0.0497846
-0.0494299,-0.0362934
0.0506599,-0.105692
0.108109,-0.0782551
0.0743765,0.00457119
0.0462048,0.0311922
0.0259416,0.0245659
-0.0436228,0.0763375
-0.148552,0.0661134
-0.185159,-0.0918381
-0.0283022,-0.128645
0.148726,-0.078805
0.183827,0.0101209
0.095453,0.0486951
0.0245696,-0.0178944
-0.0464251,-0.0666453
-0.0634746,-0.0287388
-0.00777566,0.0302281
0.0346658,0.0894836
0.0551364,0.134745
0.0199024,0.0188965
-0.0900408,0.041283
-0.197649,0.0281611
-0.215742,-0.00584228
-0.0825198,0.0143058
0.0161707,-0.0262868
0.0260924,-0.069762
0.0397132,0.0465247
0.109385,-0.00178534
0.120441,-0.00819636
0.0546789,0.076834
0.0355818,-0.0447162
0.0461886,-0.0747554
0.0606933,-0.0779328
0.0495957,-0.0508356
0.0434472,0.0242599
-0.018461,0.0170748
-0.0446965,-0.0145729
0.00451348,-0.00107478
0.0763579,0.000720809
0.0403681,0.0325264
-0.0495733,0.0190276
-0.0388717,-0.0526434
-0.0157509,-0.0182722
-0.0120639,-0.00458478
-0.0156464,-0.0326142
-0.022862,-0.0467554
0.00790537,-0.0102289
0.090191,0.0204361
0.120437,0.0339906
0.032188,0.0617369
0.00228879,0.0346871
0.0151341,-0.0225677
-0.0126184,0.0137126
-0.139151,0.0386263
-0.313574,0.113539
-0.238743,0.12306
-0.0780836,-0.0577427
0.00237344,-0.0387841
0.0586558,0.00667427
0.0506191,-0.0663925
-0.111497,-0.0356394
-0.0949111,-0.0773557
0.0719499,-0.0455487
0.137024,0.0172073
0.142025,0.0457364
0.167852,0.0140146
0.197382,0.0109003
0.180841,-0.00353219
0.0722377,-0.00184511
-0.0275759,-0.0146163
-0.109081,-0.0305373
-0.212534,-0.0115853
-0.217044,0.014206
-0.0868371,-0.0766549
0.0426351,-0.0883272
0.135186,0.0130834
0.0899668,0.10983
-0.00546604,0.0549403
-0.0203747,-0.0233121
0.00156094,0.0379126
-0.0231215,0.0396774
-0.0384494,0.000891655
-0.0185802,0.0331226
0.00208732,-0.0211154
0.00839427,-0.0189981
0.0518683,0.0103001
0.0812815,0.030226
0.0520421,0.0273214
-0.0053881,-0.00992081
-0.0459881,-0.0399042
-0.044948,-0.0412742
-0.0373626,-0.0212751
0.0297985,0.00578807
0.0735579,0.00529654
0.0371655,-0.0103613
-0.00729213,-0.00898277
-0.0554837,0.000619577
-0.0831474,-0.00641583
-0.0901348,-0.0122405
-0.0690747,-0.00657411
-0.0339386,0.00160772
0.0224421,0.0179384
0.0793981,0.0182755
0.0673485,0.0148345
0.0463936,0.0338578
0.0601661,0.024574
0.0477548,0.0121074
0.0401505,0.0424324
0.0670527,-0.0539268
0.0437318,-0.092701
-0.0551699,-0.0251951
-0.106656,0.00931641
-0.0561841,0.00774739
-0.0211559,0.0184188
-0.0657318,0.0242944
-0.109662,0.00338954
-0.111991,-0.0136073
-0.0917228,-0.0404841
-0.0301229,-0.0445339
0.0501681,-0.00215033
0.105938,0.0369235
0.141394,0.052426
0.113121,0.0610728
0.0569936,0.0282273
0.000401376,-0.00704063
-0.00692255,-0.0193435
-0.00122692,-0.0218991
-0.0213373,-0.00633777
-0.00402124,-0.00332099
-0.0150635,0.00512396
-0.0443371,0.0223385
-0.0337133,0.0105447
-0.0275945,-0.0094333
-0.0243718,-0.00624545
-0.0258179,-0.00870936
0.0231084,-0.0304905
0.0358769,-0.0109501
0.0197874,0.0229504
0.030004,0.0150998
0.0515052,-0.0254096
0.0752537,-0.0552134
0.0702655,-0.0580174
0.0245553,0.0186581
0.0150568,0.0144505
0.016092,-0.024383
0.0203483,-0.00844246
-0.00388939,0.0260185
-0.0395272,0.0396593
-0.0329617,0.0271177
-0.0166049,0.0266147
-0.0519405,0.011636
-0.10239,0.0217944
-0.126464,0.0143228
-0.119631,-0.12259
-0.109772,-0.0715922
-0.0273215,0.0372457
0.0539203,0.00113194
0.017809,0.0079039
-0.0140236,0.0061319
0.00222379,0.0935622
0.0418371,0.0953868
0.067985,-0.039954
0.0609974,-0.0771499
0.0333634,-0.0353081
0.030318,-0.0110998
0.00372284,0.00141411
0.000170058,0.00479165
0.0200217,0.0286204
0.0476415,0.0545237
0.0680582,0.0332705
0.0727993,-0.000616635
0.0716774,-0.00316416
0.0531827,-0.0234211
-0.00648862,-0.0144505
-0.068292,0.0301187
-0.0602286,0.0179352
0.0050401,0.0291512
0.0356705,-0.0126241
-0.0240935,-0.0936762
-0.0689266,-0.0746856
-0.048828,-0.0311065
-0.0718891,0.0260471
-0.0676111,0.029266
-0.0270029,-0.017618
0.0209644,0.00337126
0.0774333,0.0163
0.0428052,-0.00189008
0.0179752,-0.000150378
0.0492356,-0.00501984
0.025619,-0.0134613
-0.0223314,-5.49e-05
-0.058215,-0.000806222
-0.04714,0.012307
-0.0285496,0.0121801
-0.0269503,-0.00356578
-0.00424306,-0.00614984
-0.0351798,0.0319942
-0.0759995,0.04475
-0.0712728,0.0544706
-0.013572,-0.0272606
0.0384218,-0.0958028
0.0879189,0.000867368
0.0919011,0.0791513
0.0470393,0.00590488
0.0264946,-0.0192696
0.0388305,-0.0194601
0.0220075,-0.0346491
-0.0320818,-0.0164721
-0.071709,0.0155419
-0.0379873,0.0281458
-0.0195046,0.0942712
-0.0139474,0.0657889
-0.00780054,-0.0736318
-0.0163243,-0.054513
0.00606455,0.0277881
0.0664423,-0.0440624
0.0807881,-0.063207
0.0593096,0.00111931
0.0563815,0.0565049
0.0799243,0.0614442
0.0874452,-0.00693219
0.0660782,-0.0473968
0.00801177,-0.0399177
-0.063286,-0.00966008
-0.154565,0.0466516
-0.198557,0.0157853
-0.133097,-0.0160912
-0.0221497,-0.0565644
-0.00145151,-0.0196585
-0.0310455,0.0109173
0.0169554,0.0478497
0.0612891,0.00112804
0.0547153,-0.0221273
0.0169775,0.0223735
-0.0364185,0.0180379
-0.0243063,-0.00554771
0.00757305,-0.0150379
0.0375571,-0.0333833
0.0585978,-0.0232797
0.0498213,-0.00228866
0.00757227,0.00420594
-0.00621239,0.0194902
0.0174623,0.0553147
0.0226751,0.0645228
-0.0172249,0.0259854
-0.0243549,-0.0109606
0.0164071,-0.0130557
0.028345,-0.0501204
-0.00024707,-0.0401506
-0.0276936,0.0013737
-0.0547822,0.0186526
-0.0410789,0.0253323
0.00608535,0.014846
0.0168475,-0.0156246
0.0213561,-0.0555806
0.0594262,-0.0612135
0.0263469,0.00291936
-0.0746547,0.0233452
-0.125157,0.0029954
-0.0566841,0.0208099
0.0169854,0.0406033
0.0441698,0.0184557
0.0567389,0.0122173
0.0289147,0.0129791
0.0345842,-0.0269569
0.093406,-0.0821213
0.0711854,-0.0390966
-0.0297186,0.0336921
-0.110822,0.0340276
-0.0916319,0.00640174
-0.0309699,-0.0395523
-0.0292306,-0.00284555
-0.0203319,0.0969111
0.0542065,0.0586135
0.051473,-0.00627299
0.0219989,-0.0735355
0.0241105,-0.0376844
0.0208274,-0.0550812
-0.0128104,-0.0550741
0.0083257,0.00729134
0.0312308,0.098349
0.0121885,0.157028
-0.00437124,-0.0434359
-0.00597961,-0.0516564
0.000374017,0.0576208
0.000915216,0.0479046
-0.0145189,-0.016816
-0.0190891,-0.0605944
0.0185974,-0.048697
0.00893164,-0.0002845
-0.0298985,0.0235183
-0.015265,-0.0260534
0.0408029,-0.0793502
0.0266921,0.00818324
-0.000968718,0.0722226
0.025317,-0.00995142
0.0415228,-0.00576343
-0.0192967,0.020866
-0.142654,-0.00120573
-0.222939,-0.0242057
-0.1806,-0.0217075
-0.0565133,0.00562353
0.0625259,0.018917
0.127932,0.0689652
0.123688,0.042557
0.188289,-0.028214
0.246634,-0.00903866
0.182372,-0.0369828
0.0658151,-0.0318136
-0.0184505,0.00161671
-0.0561667,-0.00834902
-0.0856567,-0.0247054
-0.123351,-0.0488745
-0.156205,-0.0348983
-0.182323,-0.0143802
-0.187768,0.00614219
-0.166243,0.0506879
-0.051729,0.08177
0.0644227,0.0392907
0.119465,-0.0280861
0.161063,-0.00086995
0.167828,0.0424549
0.11509,0.0456881
-0.021767,-0.0798714
-0.0470765,-0.109621
0.0126717,0.00451413
0.0165311,-0.0361541
-0.0101155,0.0158413
0.0121969,0.0966499
0.058786,0.0367802
0.0654094,0.00688488
0.0160561,0.000587422
-0.0618964,0.0140869
-0.0919108,-0.0548184
-0.0655893,-0.0521944
-0.00980305,0.0554692
0.015599,0.0425833
-0.0275468,0.022848
-0.00843897,0.00785918
0.0463644,0.0132817
0.0471702,0.00173544
-0.0409284,-0.00112225
-0.0842168,-0.0164665
-0.0589781,-0.0581802
-0.0122836,-0.0691921
0.0344843,-0.0822249
0.0196346,-0.0410659
-0.0224148,0.0257115
-0.014763,0.0482759
0.0289689,0.0457537
0.0157809,0.0340879
0.00298279,0.0267443
0.0235472,0.021116
0.0315235,0.0164057
0.0229983,0.0117301
0.000479587,0.00316817
-0.0147982,-0.0237809
-0.0363598,-0.0277946
-0.0561683,-0.00331512
-0.0323953,0.00910707
0.00200377,0.00948796
0.0133572,-0.001062
0.0619288,-0.0239758
0.0901937,-0.0220289
0.0794138,-0.0209361
0.0488135,0.0314858
0.0258426,0.0651395
0.00160816,-0.0375112
-0.00545988,-0.0450889
0.0124119,-0.0203261
0.0151809,0.00944302
-0.023118,0.0306427
-0.0854367,0.00540392
-0.106716,-0.0514573
-0.0361867,-0.0435725
0.00884291,-0.0133443
0.041841,0.0620463
0.0420247,0.188737
0.00359044,0.0839279
-0.032272,-0.0868083
-0.0582906,-0.127846
-0.0552367,-0.103925
0.0222094,-0.0427452
0.0587706,0.0577923
0.0116359,0.0987683
-0.0552996,0.0587743
-0.0973987,0.0563869
-0.0574884,0.00216981
0.0240763,-0.0318545
0.0511616,-0.000362483
-0.0026879,0.0288435
-0.0479434,-0.0121518
-0.023948,-0.0565989
-0.00339236,-0.0187676
-0.0100459,0.0136887
0.0395376,-0.0353173
0.0333251,-0.0241668
0.077911,-0.000751596
0.122677,-0.0646715
0.105978,-0.0346578
0.04031,-0.00192688
0.00250346,-0.0121212
0.0214087,0.00813667
-0.00966854,0.0279221
-0.0316469,0.0103654
-0.0148205,0.0264599
0.0152112,0.051681
0.0345939,0.03811
0.0452158,-0.00545156
0.0481466,0.00590751
-0.0102748,0.00566008
-0.147454,0.0160658
-0.241737,0.0229409
-0.152987,-0.0595884
-0.0434084,-0.0738453
0.00218356,0.025584
0.0534825,0.0508303
0.0893792,-0.0107528
0.123587,-0.019268
0.080851,0.025184
-0.000655811,0.0246112
-0.0214503,-0.0155563
-0.0170458,-0.00331315
-0.0393754,0.000305817
-0.0857163,-0.0352575
-0.140476,0.00506109
-0.084639,0.0456802
0.00743537,0.0282265
0.0587289,-0.0393195
0.0863033,-0.0678846
0.0995825,-0.0277247
0.142706,0.00766141
0.153699,-0.00171382
0.0879538,0.0127237
0.00871159,-0.0419239
0.0107818,0.0195218
0.0299919,0.0180934
-0.0120914,-0.0186641
-0.0782806,-0.0240872
-0.1509,0.0478028
-0.189581,0.0433369
-0.16519,-0.0143726
-0.0602109,-0.00151923
0.0315405,-0.0325167
0.0319049,-0.00514363
-0.0198852,0.00395573
-0.04034,-0.00507497
-0.0277908,-0.0619203
0.00444735,-0.0417555
-0.00669428,0.0292805
0.00930121,0.0652663
0.064345,0.0608578
0.112323,0.0673305
0.114483,0.0262988
0.0527886,0.0135727
0.00781157,-0.00197822
-0.0153619,-0.0430331
0.0408787,-0.058005
0.152779,-0.01608
0.183417,-0.000546152
0.107911,-0.0292696
0.00947574,-0.0489269
-0.0553367,0.026249
-0.102232,0.0527376
-0.147315,0.0197007
-0.131786,0.00905499
-0.0653283,0.0247343
-0.0133077,0.00302055
0.0164787,-0.0153913
0.0102566,0.0591678
-0.0325982,0.0822631
-0.0688149,-0.0192398
-0.0956117,-0.0636671
-0.0786026,-0.0198314
-0.041685,-0.02684
-0.0278003,-0.0622009
0.0205494,-0.0132078
0.071882,0.0189523
0.074322,0.00268813
0.0663799,0.0403539
0.0408265,0.0360835
0.00605448,-0.0234595
-0.020915,-0.0313897
-0.0116157,-0.00112965
-0.00118547,0.0289262
0.0215071,0.0287482
0.0653337,-0.00993897
0.0724377,-0.0386413
0.0498759,-0.0175076
0.0318549,-0.00434369
-0.0116577,-0.00569106
-0.0665284,0.0183761
-0.0675309,0.00662618
-0.0184038,-0.0105933
0.0071499,0.00543924
0.00871131,0.0152921
0.00129598,0.00779299
-0.0158118,0.0156218
-0.0174585,-0.0295337
-0.0144802,-0.0611824
-0.0100647,-0.0371396
0.00649601,-0.012387
0.0080482,0.0106872
-0.0183054,-0.0224317
-0.0320495,-0.0359072
-0.0366798,-0.0031718
-0.0192612,0.0306771
0.0317809,0.0377225
0.0615524,0.00722882
0.0673941,0.00931169
0.0843473,0.0299875
0.0691851,-0.0118211
0.0227128,0.00265873
-0.0581597,0.0655269
-0.110178,0.0801248
-0.129106,-0.0383135
-0.102685,-0.05207
-0.0355816,-0.0224548
0.0565208,-0.0403078
0.105949,-0.00861754
0.091655,0.0318697
0.0254005,0.0338073
-0.0144723,0.0284161
-0.0158603,0.0054856
-0.00157689,-0.0180638
-0.0134974,0.0468845
0.00686887,0.055516
0.0291614,0.0216067
0.0400728,-0.0332686
0.0304668,-0.0725784
-0.028803,-0.0518543
-0.0819191,-0.00587598
-0.0553887,0.0120485
0.0259192,-0.00454699
0.0644381,0.0081652
0.0760805,0.045227
0.0744625,-0.010546
0.0259135,-0.045706
-0.0521736,-0.0237364
-0.104043,0.0131993
-0.0833544,-0.0263733
-0.0727969,-0.0236984
-0.0631391,-0.0114612
-0.0130444,0.040242
0.0176312,0.0528001
0.0329939,0.0272357
0.0547708,0.0112841
0.0211725,-0.035659
-0.0141294,-0.0618491
-0.0108119,-0.0445391
-0.0272342,0.0276372
-0.033237,0.0422888
0.0260625,0.0278063
0.0902853,0.0134542
0.0821895,0.0213801
0.0176659,8.64e-05
-0.0224658,-0.0287726
-0.0677498,-0.0286317
-0.108233,0.00349056
-0.0565644,0.0166842
0.019628,0.00191219
0.0502305,0.0292093
0.0491964,0.00664954
0.0474776,-0.0154113
0.0239893,0.0102855
-0.0242199,-0.00897469
-0.0617392,-0.070356
-0.0225882,-0.101606
0.0524996,-0.0502266
0.061164,0.0394489
0.0418859,0.0659099
0.0234827,0.0453165
0.00572168,0.0909401
-0.00730833,0.0407937
-0.028687,-0.024984
-0.0594293,-0.00226428
-0.0374704,0.0122154
0.00842808,-0.00504924
0.0371237,-0.00202635
0.000972039,0.0109279
-0.0150426,-0.000134561
0.0185183,-0.00193281
0.0224808,0.000445591
0.0179128,-0.00983983
0.0265293,-0.0110979
0.0434247,-0.0103656
0.0376887,-0.0337947
-0.024747,-0.0379179
-0.106069,-0.0121658
-0.0924659,0.00565665
-0.0410101,-0.043343
-0.00363646,-0.0442824
0.0101062,0.000245826
0.00122326,0.0194448
-0.0320453,0.0232584
-0.0260458,0.00718892
0.0320809,-0.00373454
0.0343754,0.00886615
-0.00737702,0.00340229
0.0191517,-0.00983828
0.0535026,0.0127644
0.0624376,0.0348013
0.0581549,0.0750483
0.0412311,0.116568
0.0325172,-0.0470055
0.00104145,-0.0861536
-0.0325901,-0.0589752
-0.0516501,-0.033007
-0.0866293,0.0211206
-0.0937357,0.0629157
-0.0631189,0.0496699
-0.0169536,-0.0106981
0.028626,-0.0318027
0.049126,-0.0298895
0.0257776,-0.00836556
0.0286619,0.017979
0.0499067,-0.00676574
0.0226938,-0.0109286
-0.00031252,0.0373405
0.0166579,0.0120556
-0.00415922,-0.0314773
-0.0508525,-0.0436338
-0.0293053,-0.0340404
0.0329286,0.00340707
0.0260192,-0.00493232
0.0305369,0.024446
0.0591286,0.0174306
0.0481067,0.029357
0.0439533,0.0240426
0.0149129,-0.015477
-0.0208989,-0.00381895
-0.0372747,0.0118842
-0.0583787,-0.0154751
-0.111496,-0.013888
-0.123693,-0.00285609
-0.0538262,0.00023337
0.0292861,0.0427341
0.0529581,0.0118731
0.0369573,-0.0234848
0.0229252,-0.00375
-0.00970376,-0.00476722
-0.0434537,-0.039726
-0.044969,-0.044398
-0.0370562,0.0156182
-0.0111769,0.0226895
0.0100766,-0.0296827
0.0154038,0.00343175
0.0324572,0.0768497
0.0229481,0.0979726
0.0207136,-0.0171497
0.00891469,-0.0392978
-0.00933511,0.0391379
-0.00279916,0.0617766
-0.000714445,0.0224972
0.0187614,-0.0794916
0.0498659,-0.0898509
0.0641493,-0.0464065
0.0395393,-0.0304823
-0.000188017,-0.0439383
-0.0139475,-0.0162238
0.00938732,0.029402
-0.00295619,0.0344421
-0.0281986,0.0162334
-0.0284414,0.0033312
-0.0028153,-0.0148458
-0.013504,-0.00815446
-0.0317713,0.0083484
0.00710326,0.0110351
0.0390616,0.00825795
0.0539334,0.00978482
0.0670124,0.0113948
0.0584954,0.00099451
0.0138237,-0.00914026
-0.0380761,-0.00694446
-0.102293,0.00312603
-0.140165,0.00532243
-0.0811679,0.0083033
-0.0231497,6.3e-05
0.00542462,-0.0167885
0.0417999,-0.000379886
0.0270326,0.0520343
0.0209355,0.0305945
0.0302606,-0.0315569
0.0254498,-0.00700109
0.0444103,-0.00271572
0.0766001,0.0205497
0.0824624,0.0532666
0.0729712,0.0276675
0.0370922,-0.0575302
-0.0373404,-0.0465038
-0.099762,-0.0153858
-0.121314,-0.00237721
-0.131259,0.00236716
-0.0772296,0.00476494
0.0386575,0.00933841
0.0669597,0.0266126
0.00635079,-0.0167085
-0.0461282,-0.00525619
-0.0488898,0.0195426
-0.0198955,-0.00556898
-0.00179531,-0.076089
-0.023334,-0.0382661
0.0280136,0.0329435
0.0865856,0.0418095
0.0559201,0.0101227
0.0188274,0.0126521
0.0319942,0.00964871
0.0270038,-0.000778938
0.0144453,-0.000404046
0.0262143,-0.00527256
0.0574053,0.0235777
0.0782246,0.0192586
0.0631394,0.0068766
0.00197502,0.00265108
-0.0722741,-0.0140727
-0.073276,-0.0575042
-0.00936044,-0.0571452
-0.00999991,0.00591229
-0.0531931,0.0311123
-0.0425714,0.0250192
-0.0215106,0.0452448
-0.0260552,0.0116196
-0.035084,-0.0386817
-0.0490829,0.0252193
-0.0509816,0.0209744
-0.0475071,0.0282113
-0.0547307,0.0124187
-0.0288192,-0.0517217
0.00256082,-0.0662426
0.0462436,-0.018049
0.0501478,0.0267845
0.0399686,-0.00732172
0.0739506,-0.0494403
0.0741556,-0.0306777
0.050414,0.0155448
0.050208,0.0380967
0.0612974,0.0234237
0.0330585,-0.0178531
-0.0212516,0.00289462
-0.0475866,-0.000294458
-0.0296765,-0.0266834
-0.0149095,-0.0195623
-0.0562344,-0.0122198
-0.0660504,-0.00412903
-0.0199386,0.0102095
0.0361928,0.0974452
0.0477815,0.0936925
0.037145,-0.0203429
0.0113916,-0.0412354
-0.0366897,-0.00334394
-0.0599415,-0.00399383
-0.0660739,-0.00823486
-0.0176841,-0.0142294
0.0328661,-0.0188557
0.0200713,-0.0241248
-0.0138588,-0.00831531
-0.0280689,0.0193706
-0.00506886,0.00402819
0.0257185,-0.0385311
0.0398295,-0.0207503
0.0454493,0.033922
0.0393597,0.0594255
-0.00336851,0.0416869
-0.0228748,-0.0139209
0.024169,-0.0979141
0.0555054,-0.0580312
0.00903324,0.0266755
-0.0510643,0.0438556
-0.0925713,0.0185857
-0.0654254,0.00684202
0.000749303,-0.0110219
0.0095331,0.00571254
-0.00569661,0.0202564
0.0100946,0.016992
0.0369177,-0.0160201
0.0372028,0.024234
0.0234395,0.0498611
0.0337609,0.0372947
0.0540462,-0.00905186
0.059589,-0.0113416
0.0426032,-0.013195
0.00889172,-0.0240601
-0.0410925,-0.00778694
-0.0949702,-0.0211587
-0.162856,-0.0518947
-0.0458883,-0.0726525
0.0396657,-0.0200958
0.0426873,0.0364362
0.0252441,0.0202738
0.00643852,0.00102362
-0.00451387,0.0107583
4.23e-05,0.0251303
0.033316,0.0200727
0.0509758,0.0352534
0.0248696,0.0262238
0.00652526,-0.0114597
-0.0153041,-0.0219373
-0.0365428,-0.0202802
-0.0390928,-0.0221102
-0.0249183,0.00267388
-0.0101191,0.0123452
-0.00799541,0.010723
-0.0116284,-0.00754953
-0.0301222,-0.0294065
-0.0284592,-0.0239297
-0.0104965,-0.00652394
-0.00208799,0.0326338
0.00563387,0.00404137
0.0149186,-0.00703892
0.0427269,0.0276194
0.0562622,0.0311417
0.0553287,-0.0425466
0.0532992,-0.0341017
0.0239097,0.00543297
-0.037867,0.0391975
-0.0714051,0.0824637
-0.0503251,0.0130178
-0.0252237,-0.0596711
0.0109588,-0.00137589
0.0357795,0.00600941
0.00174847,-0.0263197
-0.0372112,-0.0163461
-0.0380012,-0.00391327
-0.0142908,0.00270245
0.00462635,0.0290203
0.0238351,0.0125925
0.0359231,-0.0335062
0.0552027,0.0258925
0.0723541,0.0380981
0.065502,-0.037754
0.0519283,-0.0652154
0.0103739,-0.033195
-0.0381231,0.0329115
-0.0649175,0.0306212
-0.0697581,0.00774735
-0.0465398,-0.00475519
-0.0288968,-0.0174478
-0.0279871,-0.0179067
-0.0365245,-0.00366464
-0.0344071,-0.0172001
-0.00712011,-0.0330944
0.0178707,-0.026813
0.0423589,-0.0182165
0.0255549,-0.0103379
-0.0143261,0.0216881
-0.0133676,0.0586275
-0.0128673,0.103766
-0.0177725,0.0887181
-0.0169286,-0.00453775
-0.0272605,-0.0314895
-0.0105959,-0.0147003
0.0339852,-0.00234481
0.0712084,-0.0535865
0.0502435,-0.0455336
0.0267699,0.0470236
0.0172656,0.0556407
0.0106207,0.0201439
-0.000670923,-0.0208911
-0.00428807,-0.013564
0.0309717,-0.0147761
0.0509348,-0.0157154
0.0495009,-0.00593017
0.0420653,0.00868493
0.00721719,-0.00321738
-0.0446632,-0.0253676
-0.0773205,-0.0327527
-0.081597,-0.0134502
-0.06209,0.0284544
-0.0153734,0.0676127
-0.0108633,-0.00311449
-0.0160547,-0.0956746
-0.00545717,-0.0668636
-0.00574219,0.00697562
-0.0181136,0.0147026
-0.0155676,0.00499502
-0.00912614,0.0153873
-0.0045596,0.0119652
0.0313958,-0.00453269
0.0678387,0.0022277
0.0611475,0.0246173
0.0432021,0.0402255
0.0168912,0.0149341
-0.0242838,-0.0122792
-0.0407563,-0.022389
-0.0408334,-0.0205499
-0.0415502,0.0322792
-0.0240242,0.0829908
0.00607568,0.0370364
0.0272042,-0.0451925
0.0258929,-0.0223943
0.0550614,-0.0316739
0.0741419,-0.0429791
0.086906,-0.0273612
0.0835679,-0.00686966
0.0477399,0.0111417
0.00352402,0.00730063
-0.0352167,-0.0286154
-0.0558443,-0.0224449
-0.0754296,0.0219574
-0.0734374,0.0932328
-0.0703388,0.0541485
-0.0419314,0.00110771
-0.0127728,-0.0202261
-0.00458806,-0.0447715
-0.0165155,-0.0183377
-0.016209,0.0112981
-0.0247025,0.00775888
-0.0424032,0.0487674
-0.0313375,0.0200531
0.00472839,-0.039409
0.0120898,0.036239
0.036453,0.00866142
0.073457,-0.0329973
0.0411652,-0.046426
0.00313648,-0.0570395
-0.00393497,-0.00531081
-0.00329699,0.0061293
-0.0432133,-0.0129302
-0.0518985,0.0194016
-0.0205503,0.0208362
0.0010489,0.0146209
-0.00484774,0.00749248
-0.0298267,-0.000761276
-0.0337589,0.0224979
-0.0127684,0.0191354
0.0603088,-0.00808652
0.128069,-0.0320347
0.108737,-0.0176989
0.0639128,-0.0181328
0.0512012,-0.0041013
0.012182,0.00719308
-0.0399152,-0.000143386
-0.0349458,-0.0127468
-0.0204413,-0.0214491
-0.0130407,-0.0173985
-0.00631266,0.0013481
-0.0218272,0.00845176
-0.0410873,0.00114296
-0.0312897,-0.00570827
-0.0179506,0.0203112
-0.014467,0.0316367
-0.0233888,0.0882559
0.0144654,0.0583277
0.0481477,-0.0266089
0.0272384,-0.00876258
0.0044693,0.00142279
-0.0168584,-0.00284815
-0.0302692,-0.00585793
-0.0245771,-0.00820975
-0.00528586,-0.035354
-0.00778463,-0.034879
0.0178396,-0.00413974
0.0378471,-0.0173487
0.00635811,-0.0233541
-0.0418813,-0.015294
-0.0369629,0.0116126
-0.00173361,0.0380742
0.00362968,0.0113259
-0.00299508,-0.0475793
0.00770543,-0.0429333
0.023746,0.00893816
0.00914918,0.0257438
0.0121937,0.0197282
0.0358483,0.0253588
0.0212486,0.0318362
-0.00837567,-0.0203311
-0.0176343,-0.0232019
-0.0158365,-0.00195765
0.00272954,0.00323688
0.0231561,-0.0259833
0.0208501,-0.00932991
0.0095971,0.0156365
0.00713021,-0.00168454
-0.00980899,-0.0266823
-0.0566793,-0.0143348
-0.0604084,0.0585591
-0.0300778,0.0670453
0.00659251,-0.0307778
0.00214474,-0.00671374
0.00428255,-0.0127039
0.0225974,-0.000345631
0.0234425,0.0353284
0.0128504,0.0115412
-0.00170282,0.0013495
0.021084,0.00432126
0.0566853,0.00654909
0.0588922,0.00834647
0.0255171,0.0347135
0.0153746,-0.00936965
0.0161307,-0.0542072
-0.0170359,-0.0514938
-0.0707984,-0.0399192
-0.0871606,-0.0163553
-0.0610179,0.00267089
-0.0396374,0.025773
0.000278736,0.0660771
0.0220334,0.0478254
0.00591017,-0.0173968
-0.0618276,-0.0151379
-0.0822635,-0.00848788
-0.0316729,-0.0212669
-0.0101212,-0.0102722
0.0423295,-0.0289701
0.11473,-0.0103815
0.145362,0.0439317
0.0759347,0.0477427
-0.0367643,-0.00120816
-0.0678416,-0.071295
0.0323335,-0.0746646
0.107248,-0.0128104
0.0515185,0.0573993
-0.0268394,0.0524027
-0.0484057,0.0160019
-0.0751196,0.0239449
-0.0897464,-0.0109036
-0.0664346,-0.0371321
-0.0326396,0.00157728
0.00917913,-0.0126217
0.036631,0.00257671
0.0661712,0.00168323
0.055423,-0.0159933
0.0495995,0.00875528
0.00468746,0.0192352
-0.0212759,0.00857122
-0.0228445,0.0146042
-0.0475612,0.0479327
-0.0127658,0.0425239
0.0246171,0.0114739
0.043266,-0.0317006
0.0202562,-0.0652634
-0.0570066,-0.0327483
-0.0995426,0.0227172
-0.0628997,0.00450406
0.0231868,-0.0409796
0.0620064,0.0065162
0.0772308,0.0458366
0.0528463,0.0214601
0.0231138,-0.0275838
-0.000636671,-0.0420628
-0.054797,-0.0149435
-0.0755346,0.00113402
-0.0386877,-0.0374261
-0.0129442,0.0103717
0.0159297,0.0411343
0.0464941,0.00220545
0.066535,0.00212845
0.067262,0.00696438
0.0223782,0.00499655
-0.0243406,-0.00196067
-0.0199842,-0.0224116
-0.0239161,-0.0070303
-0.0299402,0.0136808
-0.0193585,0.012598
-0.00798264,0.020973
0.00602795,0.0237422
0.00906474,0.0113936
-0.0151923,8.62e-05
-0.0322854,-0.0154778
-0.0664946,-0.0300898
-0.0571514,-0.0333067
-0.0239302,-0.0329813
0.00240212,-0.0296855
0.0330457,-0.001109
0.0295496,0.0205382
0.00581375,0.0189627
0.00764534,0.00619236
0.0126358,0.00831481
0.00142265,0.0103845
0.0122459,0.0297866
0.0251242,0.0332932
0.0195212,0.0132527
0.0353707,0.00601076
0.0520866,0.00725357
0.0394344,-0.0108936
0.0146032,-0.0343587
0.0130473,-0.0268946
0.0333404,0.000322562
0.0281453,0.00622098
-0.00357653,0.00215612
-0.0297544,0.000581098
-0.0455432,-0.00718782
-0.0501586,-0.00494231
-0.0426485,0.0112709
-0.0283323,0.00921717
-0.0129441,0.00701054
0.000804436,0.0131233
0.00607315,0.00624527
-0.00232038,-0.000406041
0.00858203,-0.00291167
0.0315788,-0.00505617
0.0182413,-0.00772739
-0.0167591,-0.0107198
-0.021425,-0.0102413
-0.00147484,-0.00300491
-0.0198183,0.0103518
-0.0535569,0.00886808
-0.0367533,0.00289485
0.010151,-0.00640483
0.0253568,-0.00262687
0.0357382,-0.00575178
0.0159578,-0.00321781
-0.0226732,0.0022571
0.00259095,-0.00439072
0.00511091,-0.00429543
-0.0077794,0.00499427
0.014378,-0.012568
0.0267433,-0.0280458
-0.00468281,-0.036213
-0.0336559,-0.0250036
-0.0102091,-0.00883744
0.029874,-0.00150483
0.033102,0.0134582
0.0456891,0.0479439
0.0429171,0.0584192
0.00731106,0.033304
-0.0117602,-0.0166849
-0.00525692,0.0014504
-0.0133461,0.0211564
-0.0350537,-0.0208521
-0.0331759,-0.0186595
-0.0294667,0.0129167
-0.0568089,0.064549
-0.0799234,0.0567118
-0.0823269,-0.0310455
-0.0356561,-0.0603364
0.0185734,-0.0506234
0.0654303,0.00127902
0.1033,0.00549649
0.10587,-0.010748
0.0726114,0.0135007
0.0160061,0.029773
-0.0305063,0.00882008
-0.0273461,-0.0252738
0.0118464,0.0013007
0.00776525,0.0520315
0.0133476,0.090807
0.0107155,-0.0304051
-0.0150016,-0.0889404
-0.0268936,-0.022772
-0.0234909,-0.00480648
-0.00648749,-0.0328407
0.0118046,-0.0430289
0.030129,-0.0256655
0.0313387,-0.00454359
0.00519874,0.0183205
0.00228554,0.0264005
-0.0148305,0.0178939
-0.0860487,-0.00419895
-0.0946289,-0.00981974
-0.0303898,0.0319455
0.00664175,0.00499554
0.0586007,-0.0348501
0.0927455,0.0330212
0.0786282,0.0551106
0.0547698,-0.00436273
0.00440867,0.0287964
-0.0519713,-0.00998545
-0.0810194,0.0322154
-0.0924768,0.00681353
-0.0480658,-0.0671057
0.0066196,-0.0541407
0.0256828,-0.040601
0.0259027,-0.0257997
0.0103804,-0.00479299
-0.0274692,0.0196335
-0.0444192,0.00159653
-0.0261372,-0.00545417
-0.00567584,0.0181479
0.0164947,-0.0095603
0.0296606,-0.00541992
0.0439757,0.0102426
0.0559189,0.0405122
0.0655194,0.0464225
0.0798065,-0.0176318
0.0530763,-0.0258191
0.00542032,0.0202949
-0.0182632,-0.00522949
-0.0405463,0.00930758
-0.064415,0.0375562
-0.0524293,0.0144551
-0.0330797,-0.0340388
-0.0330558,-0.0302893
-0.0463799,-0.0108595
-0.0594476,-0.0177063
-0.0219259,-0.0326383
0.0380133,-0.0280386
0.044103,0.0115047
0.0301887,0.0454565
0.0330476,0.0405624
0.00638293,0.0202724
-0.028594,0.00818206
-0.0444986,0.00893219
-0.0240387,0.00599787
0.00532694,0.00861289
0.0292246,-0.00835651
0.035429,-0.0114649
0.0324681,-0.00112321
0.0181844,0.00551079
0.00299808,0.0231581
0.00767393,-0.00675999
0.0420315,-0.0325057
0.0430054,-0.018519
0.016588,-0.00224534
-0.0290474,0.00757327
-0.0585972,0.0115646
-0.0355679,-0.00528465
-0.0256049,0.0163056
-0.018235,0.0237943
-0.0101828,0.01348
0.011602,-0.0355289
0.0464139,-0.0551911
0.0410049,-0.0206351
0.0095777,-0.000275749
-0.0400588,0.0301148
-0.0475971,0.0292041
-0.0169506,-0.0281298
-0.0170138,-0.0336454
-0.0178294,-0.0230171
0.0307264,-0.00369153
0.0513394,-0.00217344
0.0295571,0.0306068
0.00367428,0.0419962
-0.00423453,-0.00296381
8.71e-05,-0.00865323
0.00548679,0.0383421
0.000869853,0.0297361
-0.0144901,-0.016486
-0.0522029,-0.0206628
-0.0688564,0.00638953
-0.0366158,0.0286454
-0.0269395,0.0429208
-0.0312747,-0.0577854
0.0243042,-0.0614529
0.0745253,0.0410784
0.0789481,0.0325404
0.0800672,-0.01474
0.07203,-0.0222143
0.0571956,-0.0215642
0.0239089,-0.00453091
0.0141467,-0.0021475
-0.0341606,-0.00356254
-0.0573917,-0.00436677
-0.0259197,0.00196336
0.00151853,0.0113197
-0.00712127,-0.0120287
-0.0455711,-0.0155544
-0.0760931,0.0531121
-0.0744256,0.0674053
-0.0323243,-0.0556349
-0.000662368,-0.0581658
-0.00594726,-0.0139399
-0.0097203,-0.0102661
0.0215687,0.00422515
0.0602969,-0.00620992
0.0419682,0.00673065
0.0213037,0.0386904
0.00463442,0.0163323
-0.0288852,-0.0106752
-0.0400107,-0.0123954
-0.0296925,-0.00209205
-0.0112397,0.00460154
-0.0123233,-0.00226837
0.0288044,-0.00766962
0.0609859,0.0019987
0.0523075,0.0055891
0.0220317,-0.0316566
-0.0346509,-0.0209593
-0.0241055,0.0282929
0.05835,0.0157401
0.0686871,-0.00831247
0.0135731,-0.00511189
-0.0347992,0.0343176
-0.0522296,0.0550628
-0.0698822,-0.000991848
-0.096563,0.000206564
-0.0963006,-0.0205591
-0.0259807,-0.0276921
0.0569059,-0.00869422
0.107052,0.00700509
0.116742,0.021542
0.112465,0.00968089
0.0624693,-0.00495248
-0.0129971,0.00498381
-0.0737595,0.00658682
-0.0998445,-0.0227334
-0.0967741,-0.0130828
-0.0831989,0.0229675
-0.0267905,0.00886091
0.0621906,-0.0051851
0.0967462,-0.0186241
0.00144862,-0.00944814
-0.0741921,0.00590555
-0.0605948,0.0293416
-0.0139062,0.0508404
0.00422717,0.0195082
0.0517571,-0.0536293
0.104711,-0.0216342
0.0653882,0.0294402
0.0317223,-0.0131032
0.0258165,-0.0460414
0.0221316,-0.0440393
0.0103886,-0.0201782
-0.00142157,0.00477627
-0.015948,0.0164811
-0.0492239,0.0187054
-0.0700353,0.0114376
-0.0427998,-0.00834142
-0.00968042,-0.029201
-0.018127,-0.0289156
0.000219418,-0.000312889
0.0403815,0.0147503
0.0523976,0.00934371
0.0523364,0.0212671
0.0250758,0.0456676
-0.0175216,0.00514827
-0.0351394,-0.0273974
-0.0391123,0.0039519
-0.0606232,0.0213703
-0.0572949,0.0196611
-0.0103594,-0.000565373
0.0206891,-0.00843552
0.0503882,-0.0247919
0.0475182,-0.0411886
0.0147887,-0.0107708
0.00946594,0.0343917
-0.00921708,0.0749358
-0.0422266,0.044687
-0.0596169,-0.0301125
-0.0509347,-0.0274765
0.00129574,-0.00319029
0.0442953,-0.0252745
0.0214755,-0.00290693
-0.00555613,0.00883676
-0.0100177,0.00825479
-0.0121979,0.01375
0.0108569,0.0134485
0.0547186,0.0165131
0.0597027,-0.00541344
0.0532325,-0.0277092
0.0585933,-0.0512056
0.0378259,-0.0453256
0.0162027,-0.04622
-0.00131913,-0.0285997
-0.0133417,0.0334587
-0.0186624,0.0407504
-0.0423937,0.00310141
-0.0553327,0.00812158
-0.0486235,0.0348057
-0.0470657,0.00721455
-0.0543731,-0.0069153
-0.0776295,0.00809017
-0.0691532,0.0172071
-0.00443415,-0.0213639
0.0236171,-0.0534382
0.00323263,-0.0244566
0.0216806,0.00397176
0.0604705,0.0150757
0.0746236,-0.00408833
0.0836013,-0.0142649
0.105335,0.0131242
0.0651363,0.0404542
-0.0144039,0.0131334
-0.0681922,-0.00958017
-0.077927,0.0175119
-0.0266657,0.0478221
0.0210236,0.0185151
0.0388692,-0.0192606
0.0372275,0.00281968
-0.0511129,0.0551116
-0.0791573,-0.0061483
-0.0424148,-0.0407401
-0.0381759,-0.00315733
-0.044113,0.0226162
-0.0300308,0.0134185
-0.0296415,0.0430841
-0.0484356,0.0505095
-0.0303705,-0.0483779
-0.0128153,-0.0578351
0.0149472,-0.00160214
0.0895079,-0.0281376
0.116045,-0.0384524
0.0716603,-0.00932959
0.046023,0.0135067
0.0591323,0.0129978
0.0653243,-0.00367736
0.0482115,-0.00748485
0.0164771,-0.0252026
0.0183375,-0.0381958
0.0193458,-0.0106465
-0.0221586,0.00391837
-0.0949431,-0.000376536
-0.139003,-0.0112083
-0.127861,-0.0184671
-0.0528213,0.0114237
0.0179376,0.0374746
0.0415892,0.00935332
0.0436031,-0.00926428
-0.00117583,0.0226855
-0.0397164,0.0264499
-0.0269442,-0.0244631
-0.00696689,-0.0294276
-0.00499905,0.00721656
0.018016,0.0282468
0.0593289,0.0278054
0.0680553,0.00850207
0.0776043,-0.0129061
0.081293,-0.0128361
0.0585223,-0.00178526
0.0121743,-0.0090704
-0.0170668,-0.00852813
-0.0499503,0.0309594
-0.0736068,0.0300924
-0.0529604,-0.0284489
-0.0473046,-0.0477801
-0.0420903,-0.0278956
-0.0308246,-0.0042524
-0.0383085,0.00513152
-0.0425047,-0.0154472
-0.0277199,0.0233874
0.042217,0.0345829
0.0574701,0.031735
0.0254604,0.0593037
0.0086073,0.0149677
-0.0226257,-0.0444325
-0.0486765,-0.04537
-0.0291974,-0.00785745
0.0352497,0.0184012
0.0655379,0.0187688
0.0402198,0.00476273
0.020346,-0.0129008
0.0171617,-0.0158367
0.0176962,0.0238443
0.0141222,-0.0225599
0.00054148,0.00493162
-0.00310214,-0.0102582
-0.00512247,-0.0160018
-0.00703393,0.0227606
-0.0062164,0.0307321
-0.0041411,-0.00487168
0.00663983,-0.00923476
0.000707585,-0.0151063
-0.0346855,-0.0391768
-0.0456639,-0.00691136
-0.0125258,0.028806
0.00737181,0.00888393
0.0113501,-0.00871648
0.0270003,0.0126077
0.0292387,0.0186602
0.00902173,0.00876244
0.00330254,0.00899984
0.0163858,-0.00161843
0.00459504,-0.00997339
0.0115054,-0.00799133
0.00638678,0.00292809
-0.0231269,0.035033
-0.0467884,0.00215334
-0.052311,-0.0302042
-0.0665702,0.0018624
-0.0599857,0.00210526
0.00344317,-0.022098
0.0487798,-0.0071915
0.0462331,-0.00786895
0.0418488,-0.0185049
0.0369129,-0.00306925
0.0265651,0.00665366
-0.00271546,0.0079517
-0.0215964,0.0199541
0.000896535,-0.0084274
0.0401008,0.000889141
0.0688271,-0.0119096
0.0563575,-0.0127845
0.0172806,0.00877622
-0.0013304,0.00580459
-0.00251605,0.0062121
-0.0225081,0.0204584
-0.0415331,-0.014107
-0.0556769,-0.00674923
-0.0510918,-0.00760235
-0.030993,-0.0173436
-0.0306995,-0.00625516
-0.0405011,0.0214874
-0.0471969,0.0183252
-0.0426917,-0.0203923
-0.0216272,0.00162809
0.000248729,0.0252999
0.0288347,0.00931387
0.0366873,-0.000101568
0.0281755,0.00997316
0.0286564,0.00601711
0.038286,-0.00189781
0.0199143,-0.0117533
0.00681551,-0.0232845
0.00044736,-0.0162164
-0.00772715,0.0067943
-0.00969559,0.0147695
-0.00182048,-0.00841986
0.0160759,-0.0161279
0.00174229,-0.000337349
-0.0255697,-0.00828093
-0.0136065,-0.0269195
0.0170651,-0.0230194
0.0429451,0.00251243
0.0377072,0.0226829
0.0207154,0.00438365
-0.00925578,0.000235862
-0.038031,-0.00552051
-0.0479042,0.00871561
-0.0580307,0.0303368
-0.0400075,0.0361905
0.00214045,0.0226403
0.0180365,0.0108756
0.0254157,0.0110367
0.0342968,-0.0048254
0.020796,-0.035827
0.0180628,-0.0384307
0.020363,0.00229701
0.0408105,0.0761026
0.05089,0.0459602
0.0232774,-0.0543698
0.0025917,-0.0167721
-0.0127652,0.0148388
-0.00914843,0.0252146
-0.00835827,0.0141449
-0.0252138,-0.018478
-0.0448521,-0.0224685
-0.0618743,-0.024899
-0.0348705,-0.0274064
0.014991,-0.038086
0.0311472,-0.0279285
0.0261661,0.001569
0.0104456,0.00765975
-0.017192,0.013024
-0.0258604,0.0038082
-0.0079261,-0.0119126
-0.00262061,-0.0170428
0.00318468,-0.00850921
0.0297916,0.00830131
0.021519,0.021625
-0.0140175,0.0281577
-0.033226,0.032367
-0.0233819,0.0108676
-0.00792947,-0.0304198
0.00152157,-0.0256183
0.033136,-0.00781431
0.0475209,-0.0131413
0.0408454,0.012464
0.0524815,0.0195134
0.0680789,0.00514292
0.0765114,-0.000470417
0.0267015,0.022077
-0.0155679,0.0250136
-0.0506584,-0.0188202
-0.0537763,-0.0257428
-0.0696453,0.00674117
-0.077209,0.00415559
-0.0703294,0.00580523
-0.0758309,0.0521841
-0.0483263,0.0503425
-0.0326785,-0.00431463
-0.0249645,-0.0433578
0.0086859,-0.0474781
0.0241141,0.000178873
0.0204936,0.0299704
0.0138845,0.0120138
-0.00225877,-0.00783709
-0.00530997,-0.0289547
0.0294816,-0.0388654
0.0505677,-0.0229008
0.0358948,0.00757272
0.0385318,0.0218296
0.0247641,-0.0149307
-0.0181914,0.000986343
-0.0125888,-0.0018099
0.00678705,-0.00960165
0.00798646,-0.00288125
-0.00043788,-0.00563886
-0.0141686,0.0678178
-0.00948851,0.0388722
-0.0148277,-0.000716158
0.00363364,-0.00916625
0.0448506,-0.00807178
0.0503958,0.00330879
0.0261945,0.0127256
0.023484,0.00934373
0.00802347,0.000202323
-0.0364329,-0.00394513
-0.0466339,-0.00846976
-0.0238451,-0.031742
-0.00342963,-0.047149
0.0160087,-0.0215239
0.010576,-0.0107966
-0.00887095,-0.0145652
-0.0246052,-0.0211123
-0.0253091,0.00962057
-0.040373,0.0357189
-0.0154548,0.0154828
0.0332998,-0.00192224
0.0324556,-0.00569391
0.0117979,0.00869463
-0.0132302,0.0183268
-0.00976036,0.00769041
0.00518545,-0.00822224
0.0233452,-0.0137682
0.0349537,-0.0142271
0.0232752,-0.000151972
0.0161913,0.0218843
0.0249088,0.0157496
0.0254241,0.0433775
0.0124063,0.04616
0.00147391,0.0109223
-0.000102926,0.000949537
-0.00929862,-0.0233047
-0.0082672,-0.0605529
-0.00232436,-0.0114086
-0.0283227,0.0472587
-0.0370938,0.046288
-0.00471857,0.0107756
0.0103796,-0.0292415
5.43e-05,-0.0246449
-0.00081082,-0.00228753
-0.00516614,-0.0174415
-0.0301451,-0.0312464
-0.0508502,-0.0372083
-0.0433404,-0.0234653
-0.0278483,0.00978679
-0.0198246,-0.00769004
-0.00802324,-0.0243732
-0.00309855,0.0236933
-0.00918351,0.0423624
0.00855967,0.00982651
0.0256939,0.0043567
0.0250206,0.00245062
0.0157684,-0.00788401
0.00648241,-0.00428194
0.0149659,0.00319308
0.0067468,0.0072831
-0.0182605,0.014382
-0.0338287,0.0153017
-0.0213394,0.00867892
0.024244,0.0038804
0.0573034,-0.00449846
0.0618726,-0.0153725
0.0610858,-0.0212271
0.0618673,-0.0282232
0.0533253,-0.0343299
-0.0122864,-0.0112315
-0.0705616,0.0066624
-0.0807427,0.00434358
-0.0809964,0.0248866
-0.0732473,0.0451016
-0.0490619,-0.0132306
-0.0315145,-0.0481957
0.0144726,-0.0270193
0.0613239,0.00295132
0.0667817,0.024294
0.0400741,0.0337159
0.00267232,0.038243
-0.0315435,0.0153174
-0.0496453,-0.00802573
-0.0237981,-0.00385289
0.0303343,0.00481461
0.062725,-0.00371016
0.0565601,-0.00200164
0.0379745,0.00160318
0.0116553,0.000580272
-0.0200121,0.00748947
-0.0268488,0.0087779
-0.00876349,0.00667778
-0.00264419,-0.00559303
0.0137097,-0.0210052
0.0216208,-0.00777923
0.00753756,0.0289232
-0.00155704,0.0157238
-0.00887571,-0.00761066
-0.016206,-0.00939846
-0.00663392,-0.0329504
0.00899797,-0.029661
0.0161117,-0.0177617
0.0065626,-0.00649386
0.00358868,0.0103358
0.00834053,0.0137266
-0.000493263,0.0120686
-0.00697561,0.0029915
-0.0216363,-0.00851421
-0.0432828,0.00351512
-0.0305272,0.0141948
0.0106151,0.0128942
0.0156156,0.00451719
-0.00194386,-0.00839185
-0.00693909,-0.00529086
-0.0212171,-0.00687344
-0.0324714,-0.0134069
-0.0307127,0.0235767
-0.0193535,0.0453552
0.0115562,-0.0143315
0.0329387,-0.0260203
0.0230817,-0.00147279
0.00221557,0.00373773
0.0062284,-0.0190247
0.013224,-0.0175747
0.0185742,0.00472585
0.01619,0.00666535
0.0280665,0.00547611
0.0345111,-0.00906746
0.00332846,-0.00511717
-0.0215567,0.0241721
-0.0196484,0.0316538
-0.0247962,0.0228427
-0.0368432,-0.00961496
-0.0259544,-0.0394391
0.000869182,-0.0228322
0.00599265,-0.00174045
0.0019467,0.0059297
0.00584887,0.00348051
0.00124186,-0.0012358
-0.00999359,0.00229527
-0.0162228,0.00255
-0.00464239,-0.0046715
0.00547798,-0.00597927
0.0204633,-0.00442552
0.0419444,-0.0105169
0.0351221,0.00489144
0.0140187,0.0114149
0.00213398,-0.00164986
-0.0096419,-0.00148368
-0.0256689,0.00236259
-0.0237125,0.00724618
-0.00288583,0.0235472
0.00299322,0.0121906
-0.00189285,0.00633461
-0.00257008,-0.0016693
-0.00658381,-0.0105654
-0.00509678,-0.0125612
0.00376424,-0.0100701
0.00638277,-0.0130886
0.0178656,0.00148825
0.0368277,0.0117559
0.0305048,-0.00574007
-0.00417871,-0.00542906
-0.0241649,0.0162031
-0.0295166,0.0107451
-0.0352966,-0.0156964
-0.0343311,-0.0247953
-0.0145077,-0.00735094
0.00823627,-0.000141208
0.0192898,-0.00758548
0.035,0.00647781
0.0445755,0.0230504
0.0277367,0.0399793
0.00555769,0.0321802
-0.0192895,-0.0120048
-0.0371613,-0.0341696
-0.0204155,-0.0296394
0.0043856,0.000209996
-0.00452404,0.0157413
-0.0102457,0.00802497
-0.00537912,0.001824
-0.0107549,-0.0110718
-0.026308,-0.0214398
-0.0299303,-0.0208319
-0.00641462,0.000679764
0.0187538,0.0236907
0.023473,0.0258721
0.0253116,0.011437
0.0195433,-0.00640212
-0.00573449,-0.00487558
-0.0153643,0.00543363
-0.0108684,0.0116586
-0.00579335,0.00347496
0.0107542,0.000242321
0.0191872,-0.0122858
0.0095004,-0.013908
0.00460688,-0.00527475
0.00402949,-0.006409
-0.0110799,-0.0142419
-0.0272287,-0.00975878
-0.0264958,0.0157134
-0.0013928,0.00329488
0.0130097,-0.0129392
0.00606791,0.0041709
0.00158774,0.00624552
0.00197056,-0.00737369
-0.00389027,-0.00528524
-0.00229117,0.0113854
0.00382477,0.0245665
0.015332,0.0116925
0.0290034,-0.00537191
0.0288967,-0.0101359
0.00876741,0.00817753
-0.0025116,0.0450034
-0.00637057,0.0313904
-0.00945987,-0.0297335
-0.0211973,-0.0328809
-0.0149698,0.00838401
0.0109223,0.017257
0.0188145,-0.0141156
0.0160612,-0.0171686
0.00524097,0.00457674
-0.00797399,0.00229104
-0.0219621,-0.0374548
-0.0232593,-0.0278148
-0.0112231,0.00122088
0.0121104,0.0092558
0.029972,0.00117671
0.0267308,-0.000394035
0.0253576,-0.0191522
0.0302678,-0.00653896
0.0105962,0.0178059
-0.00370376,-0.0108159
-0.0129006,-0.0116296
-0.0111414,0.00579684
-0.00332701,0.0148512
-0.0132384,0.00707367
-0.0219238,-0.00127146
-0.0308161,-0.00485664
-0.0395719,-0.00440121
-0.0398891,0.0183031
-0.0614314,-0.0138694
-0.0185488,0.0239485
0.0289529,0.0224425
0.0308508,-0.0228214
0.0105479,-0.0216656
-0.00103852,-0.010609
-0.012256,-0.0112622
-0.0207209,0.0193791
-0.0082379,0.0240304
0.0271667,0.0178198
0.0430879,0.0137249
0.0326077,0.00672928
0.0372562,0.00256575
0.0352556,-0.00750887
0.00620116,-0.00554471
-0.0141866,0.00377661
-0.0290298,1.59e-05
-0.034818,0.00918961
-0.017733,0.022476
-0.00240013,-0.00518683
-0.00841687,-0.0117832
-0.000733394,-0.0114841
0.0320744,-0.0177539
0.0705629,-0.0178434
0.0908546,-0.018029
0.10452,-0.00685281
0.0928809,0.000212878
0.0378971,0.00548311
-0.042173,0.00590375
-0.10732,0.00556164
-0.140064,0.0122516
-0.128238,0.0056098
-0.100013,0.00839457
-0.0887192,0.0142075
-0.0515199,-0.00771089
-0.00378188,0.00605498
-0.00225131,0.0426942
-0.0249777,-0.0077438
-0.00160507,-0.0163221
0.0309361,0.00134297
0.0457591,-0.0386488
0.0504416,-0.0141537
0.0808476,0.0174717
0.0900099,-0.000665559
0.07835,0.0502491
0.0823003,-0.00616649
0.0591468,-0.0432753
0.0178669,-0.00350796
-0.0280362,0.0049098
-0.0570668,-0.00351362
-0.0319496,-0.015589
0.045656,-0.00471261
0.0868564,0.00482305
0.065014,0.00937584
-0.00850257,0.0155589
-0.103739,-0.00446543
-0.157438,-0.0150256
-0.172838,-0.0127739
-0.135125,-0.00177206
-0.0370129,0.00601066
0.0156145,0.00249262
0.00965235,0.0022605
0.0225542,0.00133439
0.0332495,0.00451875
0.0353807,0.0287299
0.0268005,0.0230054
0.0198179,-0.00936789
0.0265014,-0.0278344
0.0452736,-0.0284232
0.0522612,-0.0236604
0.0281551,-0.00872707
0.0144754,-0.0055832
0.00357632,0.0172813
-0.00989068,0.0267557
-0.0309728,-0.00397247
-0.0393818,0.00145016
-0.0107308,0.00595155
0.0168032,-0.0015429
0.0300625,0.00668519
0.0389541,0.012979
0.0449917,0.00623303
0.0231496,-0.00486855
-0.00497058,-0.00905224
-0.0230499,-0.00782212
-0.0182346,0.0016673
0.0128344,0.0123897
0.0609612,0.00884025
0.0898419,-0.000421537
0.0906432,-0.00057902
0.0695046,-0.000718881
0.0131292,-0.00476431
-0.0616176,-0.00661026
-0.111174,0.00731683
-0.0772557,0.0188106
0.00725166,0.00367082
0.0474886,0.0274621
0.0309665,0.0103948
-0.0192199,-0.0280037
-0.0763318,-0.0258521
-0.127215,-0.0125254
-0.149744,-0.0132817
-0.109722,-0.012777
-0.0585471,-0.00428011
-0.0279121,0.0120974
0.000907234,0.00526268
0.0181635,-0.00381702
0.0116928,-0.0139474
0.0118818,-0.0119666
0.0325371,-0.000344579
0.063028,0.00596249
0.0790429,0.0098876
0.0683147,0.0138623
0.053547,-0.0101172
0.0273481,-0.0182964
0.0031101,0.00317842
-0.0180548,0.00585658
-0.0252536,-0.0109774
-0.0223503,0.00135473
-0.0047484,0.0645988
0.00716838,0.0837051
0.00492703,-0.0156157
0.0029351,-0.0727536
0.000242446,-0.0444762
-0.00948625,0.00307689
0.000371288,0.012383
0.0354507,-0.00226412
0.0560296,0.00344015
0.0663552,0.0139216
0.074938,0.0131585
0.0525075,0.00903303
0.00195049,0.000439388
-0.0274561,-0.0122059
-0.0321558,-0.0135928
-0.0503817,-0.0115559
-0.0436163,0.000117312
0.000881456,0.00704208
0.0249289,0.00377913
0.00823337,-0.00757367
-0.0163475,-0.0142507
-0.0372444,-0.00436793
-0.0521551,0.00921827
-0.0649894,0.0162515
-0.0428861,0.0136707
-0.00288437,0.00468668
0.00219321,0.0231259
-0.011639,0.0190268
-0.0211767,-0.00819238
-0.0291521,-0.0236976
-0.0368378,-0.0337522
-0.0253696,-0.00497449
-0.00671297,-0.0275848
0.0125259,-0.000841685
0.0427889,0.0373875
0.0647728,0.0165536
0.0771371,-0.017711
0.0861336,-0.0266308
0.0676196,-0.0112895
0.0466481,-0.00171686
0.0376496,0.0049016
0.0257817,0.0112796
-0.00424542,0.0127434
-0.0474787,0.00880249
-0.0730793,0.00848113
-0.0766739,0.00127852
-0.0659612,-0.0209533
-0.0354137,-0.0169898
0.00341498,-0.00659299
0.020783,-0.00333461
0.0295358,0.00400732
0.0150903,0.00951125
-0.0216585,0.00075007
-0.0487654,-0.00813293
-0.0403696,-0.00582047
-0.0294991,0.0039173
-0.0382609,0.00810848
-0.0258832,0.0100774
-0.00118689,0.0160437
0.00169659,0.024794
0.00387062,0.0206684
0.0393792,0.000411478
0.0732572,-0.00920461
0.112523,-0.00730054
0.162098,0.00060898
0.184648,0.00104163
0.144524,0.000153375
0.0708782,0.00586864
-0.0225284,0.00347529
-0.12365,0.00107007
-0.172514,-0.00366853
-0.173865,-0.00863246
-0.15641,-0.00968363
-0.134795,-0.011529
-0.0835052,-0.00334202
-0.0142083,0.00445436
0.0387533,0.00315762
0.0909855,0.000227008
0.0950524,-0.00604463
0.0547592,-0.010712
0.000540266,-0.008927
-0.0370608,-0.00501177
-0.0646292,-0.00568174
-0.0653266,0.000969439
-0.0383017,0.00513948
-0.0160668,0.00240673
0.0054246,-0.00153544
0.0302877,-0.00257131
0.0363566,-0.00363769
0.0283944,-0.0057482
0.0247251,-0.00294001
0.0368572,0.00340788
0.0370656,0.00804752
0.0207727,0.00579518
0.0093278,0.00519095
-0.00398019,0.00355459
-0.0181903,-0.0015234
-0.0225276,-0.00470397
-0.0167983,-0.00323368
-0.012345,0.000101877
0.0122848,0.00845091
0.0332843,0.0152127
0.0313208,0.00688331
0.0308972,0.00220946
0.0497277,0.000987055
0.0619252,-0.00319625
0.0465639,-0.00626784
0.0275301,-0.000297716
0.0137272,0.00554928
-0.0160898,0.00243091
-0.0447434,-0.0021211
-0.0599833,-0.00467981
-0.0566747,-0.00658525
-0.0464013,-0.00948965
-0.0351255,-0.00838075
-0.0263504,-0.00834564
-0.0122707,-0.00323218
0.0127891,0.00562707
0.0259559,0.00909873
0.017974,0.0045782
0.0117567,0.00343393
0.00802975,0.00224936
-0.00458858,0.00121424
-0.013817,-0.000200529
-0.00398041,0.00481638
0.00717967,0.0074762
-0.000564342,0.00712537
-0.0114904,0.00835767
-0.0200213,0.00592215
-0.0264072,-0.00200841
-0.0280336,-0.00621527
-0.0256208,0.00349075
-0.00691793,-0.00404692
0.0338577,-0.00340297
0.0689256,0.0056363
0.0662918,0.00148194
0.0434014,-0.00245635
