Comp Ch 3,Comp Ch 4
-0.0897196,-0.00129825
-0.0650765,0.00487715
-0.0424956,-0.00190104
-0.0269125,-0.0097753
-0.000969284,0.00579865
0.0172641,0.0216212
0.0270711,0.018409
0.0445963,0.0141719
0.0377628,0.00670681
0.0077003,0.00015968
-0.0194391,-0.0028633
-0.0533197,0.00279465
-0.0577718,-0.00207923
-0.020986,-0.0127352
0.0120027,-0.0128255
0.0102062,0.010599
-0.00116248,0.0316266
-0.000476249,-0.00312549
-0.000519633,-0.0262431
0.0408893,-0.0166259
0.129208,0.000409733
0.188674,0.0160956
0.150715,0.0140716
0.0386761,-0.00495726
-0.0735626,-0.00983122
-0.137283,0.00431036
-0.15729,-0.00336845
-0.129959,-0.00999794
-0.0703288,-0.00677968
0.00102524,0.0328936
0.0728756,0.0385823
0.0897451,-0.0163844
0.0447169,-0.0289701
-0.0368441,-0.00670073
-0.0582514,-0.0199009
-0.0160393,-0.000161868
0.0392436,0.0208994
0.0965813,-0.0357158
0.0862181,-0.0366311
0.0268651,-0.00517071
-0.0558211,0.0231899
-0.122479,0.0433971
-0.138452,0.0152585
-0.111806,0.000115743
-0.0633212,0.00365287
-0.0291001,-0.00549049
0.0036835,-0.00168107
0.0525463,0.0088392
0.0740592,0.000108106
0.0923211,-0.00934353
0.14388,-0.00931226
0.170085,-0.00464694
0.12399,0.010484
0.0343345,-0.00655663
-0.0423948,-0.0102641
-0.100189,0.00817552
-0.150256,0.0138331
-0.120388,0.000596046
-0.0633271,-0.0136501
-0.0440368,-0.00626543
-0.0300329,0.0019026
-0.00974158,-0.00444284
0.00600798,-0.0166031
0.0270503,0.00788912
0.036406,0.0208362
0.0210879,0.00532514
0.0199777,0.00289769
0.0550775,0.00659834
0.0893528,-0.00780678
0.0681131,-0.0165309
0.0224956,-0.0112972
0.00429696,0.00532571
-0.0251041,0.0208768
-0.0520671,-0.00896796
-0.0473298,-0.0245784
-0.0381517,0.0166029
-0.0300711,0.0151905
-0.00365207,-0.00322943
0.00743479,-0.00449767
-0.00264226,-0.00598291
0.0127423,0.00287436
0.0587877,0.0140536
0.0731683,0.00327333
0.0448337,-0.00743473
-0.00943717,-0.00828687
-0.0783878,-0.0152985
-0.11953,-0.017566
-0.0932745,0.00175034
-0.0195704,0.0211414
0.0177013,0.0134674
0.017094,-0.00204993
0.017611,0.00403372
0.0117366,0.00092214
0.00709899,-0.0219306
0.0140661,-0.00413457
0.0206031,0.00763983
0.0398212,-0.00455176
0.0658668,-0.0117113
0.0478032,-0.00846968
0.00890747,0.00585958
-0.010307,0.0150928
-0.0218352,-0.0189653
-0.0135572,-0.0337949
0.000599639,-0.0194316
0.022158,0.0165427
0.0267145,0.0255486
-0.0039461,0.0264937
-0.0370144,0.0281505
-0.0500448,0.0103185
-0.0525008,0.010424
-0.0376662,-0.00235882
-0.00444787,-0.0140184
0.00517829,-0.00289398
0.0270674,0.00808092
0.0768723,0.00603679
0.0852682,0.00515075
0.0606033,-0.00256246
0.00941015,-0.00444287
-0.060205,-0.0123686
-0.10697,-0.00682863
-0.112043,-0.00598164
-0.0686546,-0.00701812
-0.0169696,0.00363034
0.0168451,0.0161137
0.0409284,0.0222957
0.0348246,0.0107693
0.0284847,-0.0180822
0.0250955,-0.0182414
0.0211582,-0.0100631
0.0100701,-0.0128278
0.0131884,0.00379889
0.0418536,0.00671436
0.0603017,0.0252907
0.042231,0.0172324
-0.000748999,-0.0192805
-0.0510855,-0.0287338
-0.0707215,-0.0230624
-0.0463347,-0.00496931
-0.0191455,0.0110414
-0.00423732,0.0330674
-0.0103876,0.125745
-0.0110778,0.0198344
0.000224278,-0.077983
-0.00201307,-0.0440244
-0.0032259,-0.00890038
0.000407704,-0.0225153
0.0102972,-0.033342
0.020946,-0.00380821
0.0121015,0.0129413
-0.0148027,0.0392598
-0.024841,0.0103907
-0.0181953,-0.0236464
-0.0194295,-0.0180582
-0.0235441,-0.0149266
-0.00352247,-0.00307355
0.0286986,0.00669107
0.0402763,0.0014968
0.0468478,-0.0028563
0.0601807,-0.00217306
0.0589686,0.00949222
0.0418118,-0.0142904
0.0233896,-0.0156233
-0.0142003,0.00704431
-0.0309319,0.0278504
-0.0325084,0.02505
-0.0537141,0.015516
-0.0657365,-0.0382276
-0.058275,-0.034731
-0.031443,0.00141531
0.00394683,0.0055235
0.0209918,0.0175145
0.030361,0.0495381
0.0268626,0.0420465
0.023226,0.0120668
0.0295204,-0.00137378
0.0266407,-0.0179905
0.012874,-0.0261258
-3.1e-05,-0.0223181
-0.0198317,-0.0183778
-0.0293531,-0.017033
-0.0203139,0.017434
-0.00597728,0.0294114
0.00888499,-0.00437304
0.0234416,-0.00947115
0.0289243,-0.0124242
0.013191,-0.0257521
-0.0222302,-0.00633034
-0.0443101,0.0140562
-0.0313674,0.00700787
-0.0190681,0.0192438
-0.00427817,0.027515
0.0163207,-0.00526018
0.0239111,-0.0111968
0.0108683,-0.0256585
0.00446502,-0.0305472
0.0055729,-0.0112428
-0.00372742,0.0027629
-0.00347776,0.0319206
-0.00397279,0.0407147
-0.0178406,-0.00140616
-0.0276876,-0.025039
-0.0276334,0.0302018
-0.0109483,0.0699298
0.00316568,-0.0148288
0.0245832,-0.043604
0.0571335,-0.0170515
0.0579049,-0.00494141
0.0575404,-0.00116698
0.0449419,0.00435472
0.0140276,0.00519146
-0.0204905,-0.0306579
-0.0474378,-0.0111443
-0.0716308,0.00971331
-0.0409232,0.0134231
0.00143771,0.0294422
-0.00275719,0.0125531
-0.0192533,-0.0321992
-0.0164282,-0.0196696
-0.0158526,-0.0212362
-0.0284171,-0.0347766
-0.0327535,0.0128144
-0.0050001,0.0458105
0.0262506,-0.0105493
0.0349677,-0.0300298
0.0374804,-0.00714125
0.0277426,-0.00914186
0.00572996,-0.0148774
-0.0101582,-0.00430073
-0.00776082,0.0126428
-0.00662047,0.0177299
0.0106116,0.00605601
0.0193624,0.0161426
-0.00348988,0.0208944
-0.0157623,0.0109071
-0.00984239,0.0289274
-0.0155139,0.0876595
-0.0132872,0.000133694
0.00511491,-0.0539545
0.0372333,-0.0248738
0.0449063,-0.00813802
0.0225689,-0.0143989
0.00110942,-0.0286793
-0.00845846,-0.0289295
-0.00588976,-0.0154388
0.0190492,0.0126978
0.0448241,0.0434432
0.0509906,0.0119671
0.0494455,-0.0111612
0.00904138,-0.0113055
-0.0585551,-0.00996274
-0.0849206,-0.0195901
-0.0579869,-0.0187967
-0.0342737,-0.00823925
-0.0385986,-0.00218872
-0.0269441,0.0527262
-0.0128151,0.0609746
-0.0183323,0.0204259
-0.0103734,-0.0202277
0.0193217,-0.0464851
0.0279185,-0.0106808
0.00789444,0.0289783
-0.00233027,0.0191319
0.00205923,0.0312204
0.0306918,-0.0153287
0.0451197,-0.012071
0.0238625,-0.00907399
0.000908327,-0.0169698
-0.0148662,-0.0125284
-0.0352617,-0.00267556
-0.0406032,-0.0095589
-0.035044,-0.0153108
-0.0118585,-0.00223135
0.014802,0.0100036
0.00892562,0.0195097
0.00414917,0.0029736
0.0152606,-0.012087
0.0213514,0.000618908
0.0155515,-0.00251036
0.0204963,-0.0117331
0.0189998,-0.0127281
0.0316039,-0.000429309
0.0335153,0.0106205
0.00422449,0.00906262
-0.0160367,0.0136632
-0.0179287,0.0156443
-0.0245129,-0.0167854
-0.0431102,-0.0227109
-0.0517226,-0.00860111
-0.0201561,0.00927034
0.00906248,0.0308088
0.0359368,0.0480063
0.0786949,0.00981356
0.0734576,-0.0447185
0.0273299,-0.0237646
-0.00963139,-0.00925247
-0.0176896,-0.00726401
-0.000392356,0.0177483
0.035709,0.0416885
0.0279154,0.0216281
-0.0235271,-0.00673894
-0.0171745,-0.0205486
-0.00361508,-0.0248341
-0.028325,-0.0159429
-0.0638087,-0.0118344
-0.0628157,-0.00864342
-0.0467578,0.00156934
-0.0352327,0.0187314
0.00112734,0.0208013
0.0229062,-0.0144007
0.026005,-0.023554
0.016128,-0.0116144
0.011111,-0.00818087
0.00299616,-0.0149772
0.00293443,0.00514463
0.0164848,0.0318824
0.0130104,0.0107972
-0.0108561,-0.0214341
-0.0236371,-0.0211013
-0.029421,-0.0102131
-0.0334272,-0.00896058
-0.0307702,0.00310769
0.00170152,0.0893795
0.031184,0.12276
0.0347595,-0.0249514
0.0307916,-0.0648711
0.021027,-0.0505403
0.00611066,-0.0331649
-0.00395569,-0.0146917
0.000938589,0.0041059
-0.00167095,0.0156423
0.00422964,0.0163573
0.0143675,0.0203959
0.013314,0.0119431
0.0138729,-0.00333661
0.0173029,-0.00641545
-0.00754549,-0.000601195
-0.0502348,-0.00568933
-0.0659506,0.00154376
-0.0301004,-0.0169806
0.0155677,-0.0286362
0.0369678,-0.00836924
0.0344792,0.0181972
0.0169261,0.00763809
-0.00650644,0.00874839
-0.0241016,0.00227948
-0.029368,0.00243484
-0.00387599,0.0180114
0.0535719,0.0276478
0.0849018,0.034214
0.0749345,-0.0221009
0.0525915,-0.0337014
0.0114311,-0.010543
-0.0360894,0.0194453
-0.0599815,0.0197592
-0.0502425,-0.00627026
-0.0268213,-0.0267511
-0.0188897,-0.0261672
-0.0366799,-0.0186142
-0.0357029,-0.0193532
-0.0207727,-0.0133538
-0.0137278,-0.000496955
-0.000235401,0.0309978
0.010121,0.0223912
0.000546846,0.0108744
0.0123905,0.038337
0.0264973,0.0256676
0.0157418,-0.0342411
-0.00593785,-0.0412023
-0.0227008,-0.014119
-0.0249849,-0.00847592
-0.0202686,-0.0193469
0.00881524,-0.00127834
0.0459013,0.0244763
0.0497582,0.013817
0.0332101,-0.00848017
0.0104797,-0.00146258
-0.0200581,0.0161388
-0.0427652,0.0108882
-0.0353754,0.00376916
-0.0297199,-0.00640431
-0.00934222,-0.00777452
0.0135316,0.0148588
0.00558195,0.00886677
-0.0231652,-0.00822284
-0.0129725,-0.0133205
0.0261981,0.0126206
0.0596962,-0.00813789
0.0754229,-0.000544988
0.0948704,-0.00787934
0.0660668,0.000377384
-0.0103598,0.0217561
-0.0596346,0.0256963
-0.06318,-0.00635195
-0.0585888,-0.0273959
-0.0194416,-0.0156772
0.0303052,-0.000698874
0.029061,0.00464071
0.00756129,0.025242
-0.0229318,0.0199499
-0.0703263,-0.000664677
-0.0854586,-0.00291016
-0.0813155,-0.00607501
-0.0633411,-0.00826725
-0.0395183,0.0545928
-0.0111257,0.042189
0.0589837,-0.069714
0.0789743,-0.0369092
0.0595902,0.0134047
0.0468751,0.0176566
0.0275353,-0.0152845
0.00784663,-0.0078591
0.00599579,-0.0130926
0.00508768,-0.0186758
0.0123708,-0.0252539
0.0404285,-0.0206393
0.0383496,0.00301289
0.00546076,0.0140848
0.00224481,0.00743926
0.00747847,0.00497683
-0.012687,-0.000671398
-0.0280606,-0.0118721
4.46e-05,-0.00939859
0.033572,-0.00982267
0.0349752,-0.00468049
0.0144209,0.0244203
-0.0150439,0.0368148
-0.0350788,0.0223053
-0.0354889,0.0163081
-0.0293302,0.0193887
-0.0204551,0.0192801
0.0138751,0.00508101
0.0332118,-0.00769603
0.000830438,-0.0349309
-0.0394098,-0.0252575
-0.054703,-0.0307627
-0.0604849,-0.0542939
-0.0635318,-0.0507168
-0.0383488,-0.0302712
0.0206689,0.00950413
0.0587038,0.041558
0.0501787,0.0461304
0.0357541,0.0423131
0.0164028,0.0225493
-0.000788767,0.0109088
-0.0107113,0.00955014
-0.0138852,0.0131991
-0.0165446,0.00374881
0.0118815,-0.0143176
0.0270582,0.0265001
0.00932454,0.0449082
-0.012718,-0.0116336
-0.0087372,-0.0505919
-0.00542875,-0.0328185
-0.0275326,-0.0236975
-0.020253,-0.00759607
0.0180484,0.0238392
0.0306658,0.0202227
0.0136661,0.00433691
-0.00403438,-0.00235768
-0.00927716,0.00915295
0.00619399,0.0301474
0.0494811,0.0259615
0.0594428,-0.0521197
0.0377338,-0.0574923
0.0351969,-0.0169935
-0.00247096,0.0307175
-0.0486589,0.0595156
-0.0308484,0.0345737
0.00961695,-0.00814841
0.0188889,-0.0312306
-0.0201197,-0.030485
-0.0293246,-0.0183385
-0.00453047,-0.0105224
-0.00725241,0.00144304
0.00285484,0.00923503
0.0103312,0.000422565
-0.0069376,0.00542616
-0.0138548,-0.00970747
-0.0160442,-0.0270206
-0.0435543,-0.0246532
-0.0290947,-0.00473519
0.0125689,0.0162553
-0.000332978,0.015252
-0.00817816,0.00476598
0.00346765,-0.0189318
-0.00755722,-0.0301847
-0.0442061,-0.00863911
-0.0565268,-0.0121124
-0.00541109,0.0227651
0.0413531,0.032219
0.0360676,-0.00906934
0.0294039,0.00687956
0.0324294,0.0277347
0.0320916,0.0271273
0.0338332,0.0137484
0.0247471,0.0146628
-0.0192483,0.027281
-0.0153352,0.0329018
0.00817036,0.00411027
-0.00461002,-0.011236
-0.0235218,-0.00337101
-0.0218246,-0.00925344
-0.0240997,-0.0257694
-0.0317092,-0.0284284
-0.0282003,-0.0120501
0.00604192,0.00365989
0.032743,0.0068956
0.0389026,0.00480661
0.0410237,0.00189224
0.0255501,-0.0124252
0.000755045,-0.0218846
-0.0213571,-0.0196833
-0.029014,-0.00735907
-0.011471,0.0064811
0.0279828,0.00774619
0.0343005,0.00912514
0.00635639,0.00685589
-0.0099965,0.00690572
-0.0148468,0.00288688
-0.0389975,-0.0132151
-0.0636934,-0.0250932
-0.0377679,-0.0149849
0.0171828,-0.00634653
0.0286717,0.00185118
0.0194038,0.014055
0.0278288,0.0043543
0.01759,-0.014657
0.00113554,-0.0173054
-0.00234313,0.0140891
-0.011834,0.0286351
0.00299244,0.0180601
0.0299608,-0.00544937
0.02341,-0.00461687
-0.00512798,0.0157979
-0.0140283,0.0119754
-0.0157501,-0.0122247
-0.0276683,-0.0181931
-0.0358506,-0.00727145
-0.000144119,0.0083772
0.0376071,0.0310852
0.0442147,0.0137862
0.0355461,0.00336922
0.0125073,0.00302645
-0.0177235,-0.0187926
-0.0374428,-0.0184212
-0.0468525,0.00823682
-0.0347808,0.028277
0.00598479,0.0312969
0.0382181,0.00101836
0.0363813,-0.0215584
0.0102563,-0.000666323
-0.00905649,0.0270939
-0.027168,-3.55e-05
-0.0460394,-0.0525176
-0.036412,-0.0391636
-0.00857201,0.010793
0.00671478,0.0510708
0.00271338,0.022008
-0.0039393,-0.00336121
-0.0182818,-0.00200581
-0.0244513,-0.0278501
-0.00347031,-0.013589
0.0290678,0.00566636
0.0614602,-0.0264943
0.103864,-0.0113524
0.106342,-0.00517659
0.0393902,-0.0154345
-0.000427002,0.00344142
-0.00879979,0.0217865
-0.032391,0.00235103
-0.06895,0.00705729
-0.0646287,0.0218636
-0.0425622,-0.00431228
-0.0254286,-0.0310076
0.00502882,-0.00939861
0.0335621,0.00120035
0.0333268,-0.036223
0.0235919,-0.032896
0.0189333,-0.0180066
-0.0234345,-0.00716609
-0.0531821,0.012818
-0.0283064,0.0721447
0.00597131,0.0586329
0.00162104,0.00497711
0.00108281,0.0115065
-0.00146553,-0.00474367
-0.0257501,-0.0273002
-0.0486487,-0.0236328
-0.0154321,0.00707855
0.0225614,0.0114106
0.00885731,-0.00975018
-0.00356412,-0.0163882
-0.0192904,-0.00522262
-0.0452394,-0.0081443
-0.0247734,-0.0123948
0.029074,-0.00118252
0.044546,0.0142906
0.0828437,0.0267919
0.0926591,0.00811831
0.0531592,0.00141901
0.0258516,0.0137876
0.0215911,0.00157154
-0.00948328,-0.0210749
-0.0677171,-0.00926414
-0.0793569,-0.00292331
-0.0188044,-0.0129437
0.0200476,-0.000954836
0.0196434,0.0165847
0.0154803,0.0219557
1.62e-05,0.0126591
-0.0235108,-0.0235879
-0.0357439,-0.040586
-0.0416363,-0.012294
-0.0329934,0.0242377
0.00346999,0.0399643
0.0241813,0.0435451
0.0142728,0.0233861
0.0181979,0.00292638
0.0284709,-0.0235187
0.0098271,-0.0456295
-0.019634,-0.0300159
-0.0186555,-0.0012546
0.00435092,0.0257419
0.0118197,0.00390286
0.0168208,-0.00448021
0.0168998,0.0157571
0.00438652,0.00670744
-0.00742286,-0.00824002
-0.00941872,-0.0080513
-0.0215628,-0.00996182
-0.0132317,-0.00369238
0.0278064,0.0152913
0.0400454,0.0316288
0.00910982,0.00968104
-0.0124841,-0.028973
-0.00345637,-0.0310261
-0.00555515,-0.0289751
-0.034629,-0.0237072
-0.048844,0.00469152
-0.0451302,0.0221877
-0.0398554,0.0205122
-0.0183514,0.0111783
0.0147089,-0.000177546
0.0385615,-0.0151541
0.0294956,-0.0147363
0.0195783,-0.0126103
-0.000186925,-0.0163743
-0.0109678,0.00667672
0.0109936,0.0254188
0.0247224,0.0136364
0.010049,0.00521185
0.00526616,0.0203756
-0.0058359,0.0217209
-0.0379633,-0.0017617
-0.0463401,-0.0311189
-0.00322426,-0.00335743
0.0583439,0.00420223
0.0726129,-0.00216609
0.0567344,0.00511055
0.0183924,0.00490268
-0.0185687,0.00168935
-0.0374851,0.00504023
-0.0331556,0.00078943
-0.0428346,-0.0135116
-0.017532,0.0213528
0.0033349,0.0307151
0.00263853,-0.00733665
0.025643,-0.0244926
0.03614,-0.014941
-0.00548293,-0.0358387
-0.0370629,-0.037595
-0.0175382,-0.0016511
0.0242806,0.0117519
0.0380272,0.0484833
0.0200408,0.0511417
-0.0116483,0.0245211
-0.0120667,0.0119797
0.0111504,-0.0281497
0.0253043,-0.0132801
0.0274648,0.00231828
0.0212137,-0.00486446
0.017921,-0.0211502
0.0174241,0.0208134
0.0125097,0.079547
0.0343622,-0.0350492
0.020655,-0.0557532
-0.0186704,0.00655023
-0.02563,-0.0425788
-0.0452927,-0.0628199
-0.0715544,-0.00647893
-0.0816839,0.0316816
-0.0657498,0.0330897
-0.089707,0.0154904
-0.111913,-0.00611634
-0.0857774,-0.0159818
-0.0135705,-0.00621137
0.0354049,0.00493518
0.0447216,0.0197735
0.0680733,0.00713085
0.0779945,-0.00930589
0.0740844,-0.00990549
0.0471264,0.0139046
0.0120539,0.00819463
-0.000621555,-0.010308
0.0435837,-0.022196
0.0910564,-0.0254812
0.0696363,-0.0166501
-0.0346745,-0.0153832
-0.0675186,-0.00812143
-0.0593257,0.00188907
-0.0748925,0.0113866
-0.0689486,0.0445291
-0.0216176,0.0460599
0.0335877,-0.0374527
0.0727224,-0.0553051
0.0650773,0.00847431
0.0194794,0.00897983
-0.0025308,0.00134302
-0.00413083,0.0241034
0.0257443,0.0402393
0.0703551,0.0199817
0.059185,0.0152729
0.0454284,0.0257232
0.044357,0.0166676
0.0262066,-0.0226557
-0.0368991,-0.0381372
-0.0815393,-0.014074
-0.104997,0.00816447
-0.109231,0.000595002
-0.0769626,-0.0252151
-0.00471945,-0.0271848
0.0501383,0.00662144
0.040454,0.0304272
0.00119652,0.0178726
-0.0333308,0.0692391
-0.0318427,0.0701282
0.0319982,-0.046761
0.0386917,-0.0730706
0.0069796,-0.0404067
0.0241418,-0.0351533
0.00986486,-0.0156878
-0.000630953,0.0459213
-0.00183887,0.043304
-0.0145808,0.00940312
-0.0303625,-0.0207753
-0.0361286,-0.0226856
-0.041264,-0.0052666
-0.00639066,0.012696
0.0485776,0.0312173
0.0828766,0.0142391
0.0999866,-0.0113677
0.0832697,-0.0273647
0.0326331,-0.0397334
-0.013402,-0.0507678
-0.105477,-0.0223514
-0.132427,0.00866895
-0.0861362,0.0293561
-0.0493638,0.0299193
-0.00917511,0.0181847
0.0115698,-0.00115854
0.0455187,-0.0425602
0.0623642,-0.0239287
0.00969179,0.00956618
-0.116878,0.0247684
-0.0931401,0.0528598
0.0266309,0.0509715
0.0841239,0.0225398
0.105127,0.0210952
0.119157,-0.00432122
0.151253,-0.0166492
0.108253,-0.00278058
0.0398262,-0.0208915
-0.0534634,-0.0345984
-0.14799,-0.0180716
-0.13294,-0.00368399
-0.105881,-0.00349293
-0.104299,-0.00027948
-0.0944015,-0.0303008
-0.139919,-0.0563031
-0.10567,-0.0431705
-0.0241266,0.00551154
0.0427741,0.0472221
0.155385,0.0576703
0.178491,0.0289744
0.146396,0.00707248
0.0884506,0.00271047
0.0046569,-0.0138877
-0.0719043,-0.0200878
-0.00952173,0.010337
0.119762,0.0439269
0.161523,0.0208444
0.146195,-0.0118756
0.104994,-0.00604108
-0.00270476,0.00346867
-0.0813942,0.00208802
-0.0819371,-0.00785768
-0.111003,-0.0108629
-0.104735,-0.0284631
-0.0870448,-0.0291508
-0.0866772,-0.0153749
-0.0914756,0.00714278
-0.0710204,0.0139809
-0.0536843,-3.43e-05
-0.0597744,-0.00184557
-0.0700203,0.0122647
-0.0621319,0.0218132
-0.0265666,0.0225738
0.0331926,-0.00605716
0.150536,0.00543837
0.170408,0.021772
0.120297,-0.0066014
0.0135969,-0.0244467
-0.117127,0.00111058
-0.108863,0.0282721
0.0441634,0.0176966
0.0974636,-0.0212681
0.073233,-0.056739
0.0542648,-0.0973984
0.0310962,-0.0133444
-0.0257028,0.0923289
-0.0809928,0.0366787
-0.118391,-0.0336841
-0.0885599,-0.0305046
-0.00173579,-0.0203858
0.0450691,-0.0194165
0.132806,-0.0242315
0.20072,-0.0152699
0.213316,0.0321358
0.199846,0.0731222
0.158654,0.0526406
0.0221734,0.0311921
-0.143596,0.0302698
-0.216746,-0.00690352
-0.140544,-0.0127778
-0.125355,-0.0185851
-0.208411,-0.0166611
-0.212066,-0.0305113
-0.176601,-0.0310659
-0.142758,0.0347726
-0.0126331,0.037132
0.0691719,-0.0185575
0.0487643,-0.00510246
0.0951125,0.03746
0.104327,-0.0128568
0.0612377,-0.0612714
0.0249391,-0.0273461
0.0260119,-0.0133071
0.0454851,-0.0369653
-0.000204356,0.0153864
0.0462228,0.0716431
0.10062,0.0389193
0.0632046,-0.0233887
-0.0137868,-0.0380133
-0.0820846,0.0463677
-0.043028,0.0624904
-0.0141983,-0.0128921
0.00493503,-0.0122253
0.0330223,-0.0140952
0.0719318,-0.0448187
-0.000471908,-0.01962
-0.0278398,0.0648831
0.0289513,-0.00317751
0.00699042,-0.105914
-0.0158857,-0.0743182
-0.0337315,0.0350131
-0.0102151,0.0734775
-0.0188414,0.0631839
-0.00839663,0.0399669
0.0726092,-0.0412384
0.127329,-0.0823074
0.0274782,0.0119325
-0.0650052,0.0682238
0.00120438,0.0342989
0.0565848,0.00891563
0.0306868,-0.0136331
0.00189548,-0.00635339
0.00121648,0.0235282
-0.0428761,0.00554096
-0.0591844,-0.0381083
-0.0407085,-0.0319459
-0.00995563,-0.00210548
0.0759495,0.0155091
0.0942351,-0.00317577
-0.0483489,-0.0201596
-0.193062,0.00876695
-0.225165,0.0235168
-0.273058,0.00409229
-0.136437,-0.0175587
0.0219786,-0.0149764
0.126815,0.00565853
0.0803045,0.0122435
0.0987634,-0.0304099
0.23235,-0.00282123
0.174656,0.0416584
0.0405545,0.0134078
0.0667868,-0.0437595
0.137599,-0.0261275
0.129551,-0.010144
-0.00187139,-0.0324922
-0.158527,-0.0202846
-0.184409,0.0414579
-0.139912,0.0847236
-0.0961449,0.0347525
-0.0819795,-0.0144616
0.011581,-0.0221896
0.0623576,-0.0447007
0.0764763,-0.0310873
0.0810761,-0.000286248
0.00835286,0.00196928
-0.178012,0.00634152
-0.295249,0.0264864
-0.112663,-0.034239
0.139838,-0.0564799
0.208943,0.00536111
0.176433,0.0696518
0.209226,0.0592472
0.131977,0.0523843
0.0340579,-0.000399417
-0.0294746,-0.02423
-0.00934044,0.00329928
0.0545942,0.00259707
0.0345664,0.00143819
-0.111314,0.0673561
-0.0426291,0.0521621
0.0690175,-0.0114809
0.0413735,-0.0440296
-0.0187993,-0.0637842
-0.0261632,-0.0645579
-0.0158728,-0.0351429
-0.118342,0.00722915
-0.32748,0.0278833
-0.431255,0.00549276
-0.304184,-0.0705644
0.0117499,-0.123011
0.269531,-0.0627011
0.238327,0.0224414
0.0638209,0.0529628
0.0452212,0.0411197
0.0975152,0.0771372
0.105938,0.0241399
0.121805,0.019967
0.0538938,0.0440429
-0.00296494,-0.00903353
0.0296834,-0.00325482
0.0707756,0.0094103
-0.0105948,-0.00655091
-0.108282,-0.0191993
-0.123576,-0.0146176
-0.0559435,-0.00517504
-0.0342702,0.00807476
-0.0155033,0.0265902
0.0178269,0.0238359
0.0559437,-0.0205607
0.142644,-0.0672883
0.109839,-0.0500833
-0.00328486,0.0578203
-0.107925,0.0718273
-0.148378,0.0396158
0.0220705,-0.0781126
0.151789,-0.0539642
0.135096,0.0786259
0.0447381,0.0468993
-0.103847,-0.0675767
-0.145406,-0.0316949
-0.0693698,-0.0366213
-0.0134828,-0.0103447
-0.0359175,0.105896
-0.0221296,0.0525611
0.0591011,-0.013031
0.156274,0.0265495
0.190927,0.0545924
0.162827,-0.05495
0.0404463,-0.0268616
-0.123378,0.0382264
-0.196252,0.0185391
-0.189061,-0.0211717
-0.158523,-0.0268604
-0.189174,-0.0820271
-0.153271,-0.0635909
-0.146015,0.000475622
-0.136509,0.0156306
0.0700937,-0.0292212
0.14389,-0.0302564
0.113043,0.012583
0.143166,0.0497533
0.145469,0.0386538
-0.0120245,0.031921
-0.0952122,0.0517144
0.0239523,0.0236287
0.14581,-0.00807251
0.145445,0.0132956
0.0781914,0.00596591
0.0513848,-0.057384
0.0957759,-0.0738162
0.0912208,-0.0481216
-0.0730571,0.0280371
-0.126107,0.00287034
0.0395702,-0.0861169
0.118006,-0.04886
0.0473745,0.0630722
-0.010178,0.121525
-0.0487263,0.0299035
-0.0532117,-0.0461088
-0.117798,-0.023285
-0.308514,-0.00477877
-0.318325,0.015895
-0.144118,0.0286952
0.0231912,-0.020968
0.136402,-0.0245121
0.153995,0.0607852
0.146159,0.0111194
0.125201,-0.0114151
0.0621445,-0.0288067
0.0334465,-0.0638169
0.0653675,0.0387195
0.0963259,0.0155854
0.083866,-0.0364622
0.0687362,0.0290851
0.0971736,0.040694
0.0970482,0.0264439
0.0109662,-0.00971866
-0.100692,-0.0365628
-0.110744,3.77e-07
-0.0472747,-0.0148507
-0.0395721,-0.00216419
-0.0737298,0.00705044
-0.0519228,0.0441067
-0.109399,0.0955467
-0.23363,-0.0609052
-0.415304,-0.0492032
-0.305833,0.098006
-0.129675,0.0777507
0.0487809,-0.0223831
0.179093,0.031161
0.215919,-0.00721426
0.227451,-0.111078
0.251372,-0.165868
0.256504,-0.0697764
0.114914,-0.000185299
-0.000261015,0.0814178
-0.0977885,0.084682
-0.0866447,0.0382011
0.00274487,-0.0598134
-0.00172031,-0.0702029
-0.00827592,-0.0618246
-0.0444642,-0.0343575
-0.144592,0.00978683
-0.0639767,-0.00946886
0.0228827,-0.0156465
0.0699327,-0.0452607
0.130416,-0.0620179
0.157494,-0.0226616
0.0878167,0.087836
-0.000597808,0.159248
0.000712377,0.104283
0.0732253,0.0519869
0.146154,-0.0425495
0.0846684,0.175886
-0.0196096,0.220773
-0.186072,-0.0798293
-0.357977,-0.117032
-0.373901,-0.0589822
-0.221843,-0.015468
-0.0273545,-0.0058635
0.184397,-0.0189863
0.248209,0.00642767
0.135293,-0.0200184
-0.00866687,-0.069322
-0.0266803,-0.066508
-0.00846102,-0.01262
0.0271104,0.00302742
0.103044,-0.00750962
0.125287,0.00415172
0.0919914,-0.000154832
0.0744284,-0.00183599
0.00865979,0.00308954
-0.0966684,-0.00268605
-0.181321,-0.020803
-0.163073,-0.0340595
-0.00811365,-0.0329684
0.120727,-0.0339134
0.0973576,-0.0258395
0.0390015,0.0100551
-0.0330752,0.0737834
-0.0698772,0.0301038
-0.0677219,-0.0112094
-0.0649929,0.0768745
-0.0389277,0.0413323
-0.0247259,-0.0272982
-0.067476,-0.0280687
-0.106891,-0.0153524
-0.0507667,-0.0216573
0.0532564,0.0631558
0.118007,0.0226321
0.155171,-0.0532932
0.0755829,-0.0389022
0.0238269,-0.0205623
0.074431,0.0546263
0.117614,0.161063
0.129099,0.0522554
0.104159,-0.0492514
-0.117363,-0.0355238
-0.288332,-0.0595277
-0.0919227,-0.0735178
0.0827028,-0.0290014
0.157324,-0.0345679
0.104127,-0.0235127
0.00608857,0.0214339
-0.0576278,0.00810536
-0.1569,-0.027439
-0.158026,-0.0164753
-0.0602517,0.021247
0.00169881,-0.00680213
0.0158196,-0.0263734
0.00180694,0.0354761
0.0560049,0.0848734
0.0578787,0.105614
0.0378333,0.044083
0.00523263,-0.00174964
-0.0685984,-0.0104568
-0.148759,-0.0406256
-0.182338,-0.0536805
-0.0972608,-0.0575366
-0.0870987,-0.0680039
-0.00543517,-0.0281411
0.0551392,-0.0240121
0.0312614,-0.00294198
0.00726784,0.034419
0.0621359,0.0550755
0.0428186,0.00346047
0.0984143,-0.0298084
0.234976,-0.0408642
0.246371,-0.021862
0.130488,0.043983
0.0230606,0.104001
-0.0814953,0.171478
-0.243456,0.108086
-0.199501,-0.0216972
-0.0161457,-0.0393138
0.0864207,-0.0466519
0.110531,-0.022218
0.049735,0.0450904
-0.06897,-0.000604203
-0.166648,-0.0407734
-0.172066,0.0554034
-0.0928815,0.00247908
0.0386661,-0.100636
0.150219,-0.133345
0.207204,-0.110947
0.101531,0.0286292
-0.0207221,0.0431814
-0.0928773,0.0280334
-0.0467217,0.0477002
0.0543489,0.0120155
0.0994543,-0.00351066
0.0811014,-0.000396126
0.0604251,-0.0334205
0.0407752,-0.0418098
0.0396067,-0.0422769
0.022321,-0.0582796
-0.028855,-0.0455108
-0.115078,0.0956994
-0.130016,0.0573448
-0.0938736,-0.0298036
-0.0689313,0.0795092
-0.0670263,0.0865133
-0.0478606,0.00323007
0.0399343,0.0178195
0.0408677,0.00279018
-0.0397759,-0.0605499
-0.137135,-0.047126
-0.0955434,-0.0454948
0.0380232,-0.0517341
0.115552,0.00226447
0.149723,0.0124096
0.132206,0.0101004
0.104028,0.0114967
0.0936593,0.00353609
0.0201376,0.0159874
-0.0177216,-0.00254593
-0.0504774,-0.00544699
-0.106418,0.0209914
-0.0908521,0.0522604
-0.0603961,0.0434753
-0.0446445,-0.021758
0.012523,-0.0639779
0.047639,0.0133771
0.043297,0.0561994
-0.036336,0.00183011
-0.170316,-0.0769256
-0.124552,-0.0132964
0.0655547,-0.0120886
0.145611,-0.0476544
0.113561,0.00865332
0.0760821,0.0341699
0.0383458,0.0044339
-0.014082,0.0167249
0.0281608,0.0596243
0.124181,0.033809
0.125365,0.016042
0.00794012,0.00543978
-0.0415919,-0.00551867
-0.0864069,-0.0330418
-0.176741,-0.0551827
-0.191233,-0.0298274
-0.103359,-0.0227847
-0.028309,-0.0161315
-0.00159754,0.0130936
0.0436922,0.0258759
0.0793228,-0.041517
0.0563874,0.00225669
0.117685,0.0880454
0.153315,0.0431595
0.0721635,0.00985006
-0.0453172,0.00230101
-0.102304,-0.0411754
-0.073623,-0.0528699
-0.0376185,-0.00699048
-0.0662428,0.0334186
-0.0596154,0.0221279
-0.0494728,0.00365374
-0.0191709,-0.0221241
0.0263256,0.0131582
0.000648766,0.0564636
-0.0302519,0.0237367
0.00295565,-0.0379688
0.026883,-0.0113762
0.0676954,-0.0245673
0.0401368,-0.0073642
-0.00400947,-0.00210676
0.0166948,-0.0209602
0.0450419,0.0119907
0.0469784,0.0151133
0.0212802,-0.0200875
-0.066406,-0.0437053
-0.149386,-0.0237788
-0.0324875,-0.000935866
0.0985195,-0.0365006
0.0836474,-0.0422134
0.0668788,0.00462024
0.0350712,0.042396
0.0310503,0.0364476
0.0665508,0.0342139
0.0574556,0.0106061
0.0330161,0.0253749
0.0307254,0.00840505
-0.00230686,0.0249552
-0.0487153,0.0220969
-0.105561,-0.0208271
-0.124452,4.1e-05
-0.100393,0.0619084
-0.0217381,0.0198399
0.00614536,-0.0155303
-0.0794353,0.0321653
-0.175962,-0.00686456
-0.111779,-0.0878804
0.000649955,-0.089594
0.0712497,-0.0527521
-0.0164493,-0.0123162
-0.167575,-0.00172981
-0.072351,-0.0161036
0.0992839,0.0159512
0.142599,0.0380379
0.168728,0.0519771
0.273432,-0.00547576
0.275049,-0.0177655
0.209816,-0.000521752
0.164226,0.0448638
0.130119,0.0872226
0.0025006,0.026959
-0.165841,0.0215663
-0.252575,-0.00173931
-0.25189,-0.0189553
-0.1834,-0.00294311
-0.139288,0.0144939
-0.119795,0.0100159
-0.0809119,-0.0175224
-0.0322232,-0.0456028
0.0146329,-0.0600991
0.0875575,-0.0963354
0.144588,-0.0735104
0.0814741,0.00317588
-0.0840636,0.0281243
-0.1498,0.0506593
-0.0962906,-0.00532324
-0.0180568,-0.0697846
0.0621233,0.00539081
0.110901,0.0418562
0.0937714,0.0679148
0.101372,0.0778661
0.119245,-0.0110079
0.12802,-0.0842126
0.0992345,-0.0524817
0.0374128,0.0509735
-0.111773,0.0712576
-0.188898,0.0847439
-0.126441,0.0346064
-0.0356335,0.00174646
-0.00361544,0.0127579
-0.0148775,-0.0443088
-0.0777329,-0.0609133
-0.12075,-0.00539937
-0.090237,-0.0265094
0.0165008,-0.0621709
0.161293,-0.0149991
0.171584,-0.00374174
0.146509,-0.00832134
0.117482,0.0286007
0.0978716,0.0280764
0.0480138,0.0139509
-0.00483947,0.00339869
-0.00363022,-0.00666733
0.0471985,-0.0171124
0.0472817,0.0172604
0.021726,0.108145
-0.00308937,0.0243901
-0.0650019,-0.0739626
-0.0915029,-0.0202339
-0.0777587,-0.0104231
-0.16642,-0.000220865
-0.223338,-0.0353745
-0.127113,-0.0689866
0.0133243,-0.0215706
0.0928096,0.0626797
0.103706,0.0045551
-0.0194492,0.00030343
-0.0892246,0.0192623
-0.0291849,0.00260996
-0.0402836,0.00103371
-0.117385,0.00719665
-0.135953,0.0268244
-0.0552975,0.0122018
0.094053,-0.0237862
0.264699,-0.0253602
0.182818,-0.00934969
-0.0181937,0.00378016
-0.0112245,-0.00270634
0.0763149,-0.00673086
0.12741,0.0242434
0.0920301,0.0449696
0.0239752,0.00990115
0.00572401,0.0170973
-0.0299629,0.0207237
-0.0608601,-0.0198787
-0.0482742,-0.0364864
-0.0213462,-0.0334537
-0.0118973,0.0172772
-0.0129454,0.113237
-0.0213767,-0.0161715
-0.076536,-0.0909564
-0.0729596,0.088109
-0.0108165,-0.0303366
0.0354534,-0.151349
0.0570234,-0.0824351
-0.000933299,-0.00468158
-0.00727831,0.0269645
0.0481964,0.0222604
0.0761608,0.0195804
0.049237,0.0312687
-0.0185178,0.0299818
-0.0631998,0.00810631
-0.0834397,0.0158245
-0.0609122,0.0166947
0.00975506,-0.0135393
0.0261826,0.00383229
-0.0242226,0.0475178
-0.0238142,0.0256552
0.0068811,-0.0166215
0.0433907,-0.0312096
0.0227422,-0.0169919
-0.0633648,-0.035892
-0.0533468,0.0106169
0.0390903,0.0304107
0.0586703,0.0325265
-0.0273469,0.0527882
-0.0478713,-0.000499656
0.0127795,-0.0430287
0.00989113,-0.0303334
0.0207795,-0.0223489
0.117994,-0.0232755
0.173816,-0.00248381
0.0658552,0.00689755
-0.0473718,0.00872018
-0.11216,0.00087007
-0.105737,-0.0250278
-0.0526116,-0.037716
-0.0378723,0.0291159
-0.00813015,0.035155
0.0866006,0.0258318
0.0342979,0.0457478
-0.0755368,-0.0230889
-0.0593144,-0.0304425
-0.0339553,0.0534676
0.008525,-0.0203318
0.0115773,-0.0542885
-0.0230126,-0.0145752
-0.0166973,0.0122513
0.0251775,0.0268078
0.00518479,-0.018339
-0.0944278,-0.0312479
-0.101455,-0.00471422
-0.0222408,0.0104831
0.0983527,-0.00303331
0.18228,-0.0115312
0.131298,-0.0251722
0.00627343,-0.000638353
0.00779911,0.0104366
0.109603,5.47e-05
0.0986471,0.0825757
0.0605958,0.080457
0.110419,0.0134748
0.0855829,-0.012769
-0.0775034,-0.0319045
-0.239257,-0.0347543
-0.24172,-0.0242163
-0.171911,-0.00657007
-0.0437397,0.006987
0.0774745,0.00189565
0.121266,-0.00739395
0.133248,-0.0330877
0.102821,-0.0348748
0.0224178,0.0131114
-0.050647,0.0314214
-0.0977677,0.0162539
-0.173162,-0.00446007
-0.243775,-0.0312027
-0.201721,-0.0224005
-0.0500199,-0.0113791
0.108648,0.038909
0.139002,0.0359225
0.0988793,-0.0278277
0.0519958,-0.0103887
0.0255537,0.0316623
0.00447956,0.0153409
-0.0380109,0.0715465
-0.0358779,0.0184181
0.0216158,-0.0663568
0.0674985,-0.0020174
0.0921081,0.015396
0.0899648,-0.0258375
0.0862233,-0.0381933
0.0877194,-0.00445278
0.0361974,0.0191067
-0.0643774,0.0622093
-0.0548575,0.00641682
0.0155983,-0.0494019
0.0323302,-0.0409878
0.0245799,-0.0493242
-0.0360617,0.00811103
-0.0753442,0.0271642
-0.0451868,0.000612985
0.00801926,-0.012309
-0.0383691,-0.00723964
-0.0926152,0.0101576
-0.0917295,0.0486665
-0.0569738,-0.00515965
-0.0217528,-0.00287759
0.0214346,0.0358532
0.0819013,0.0125439
0.0249197,-0.00709508
-0.00726721,-0.027696
-0.00271685,-0.0438522
-0.0303185,-0.0249015
0.00744353,0.0107435
0.0762078,0.0449676
0.106576,-0.000646674
0.053588,-0.0335482
0.0104823,0.0177035
-0.0149771,0.0362201
-0.00527967,0.0229131
-0.0396369,0.00778421
-0.0160563,-0.0114527
0.049221,-0.0175581
0.0345317,-0.00846676
0.0247485,-0.00440185
0.018131,-0.00191018
-0.000555274,0.000391123
-0.03359,-0.0069735
-0.0939641,-0.0310114
-0.0715122,-0.0186327
0.0139273,0.0103554
0.0914115,0.0234002
0.0831842,0.0296641
0.00825796,0.015111
0.0137893,-0.00408237
-0.0355038,-0.0410704
-0.133547,0.0158835
-0.154114,0.0214782
-0.0735437,-0.0282431
-0.0162157,-0.0309152
-0.0245186,-0.024099
-0.0102504,-0.0147892
0.00430984,-0.00843058
-0.0472856,0.0418938
-0.0312963,0.0408886
0.0114311,0.00149525
0.0211867,-0.0138033
0.0781797,0.0304149
0.174902,0.0318878
0.139672,0.00520413
0.0730482,-0.00966289
0.0114026,-0.0454728
-0.0505983,-0.0283998
-0.0501019,0.0232098
-0.0339371,0.0281051
-0.020491,-0.00736947
0.00461942,0.0260252
0.0401003,0.0213257
0.0616508,-0.0342918
0.0817571,-0.0330583
0.0655863,-0.0260767
0.0275165,0.000828931
-0.0162428,0.023452
-0.047805,0.0166448
-0.00188606,0.00847416
0.00371877,0.0235965
-0.041703,0.0199203
-0.0537057,0.013595
-0.0497869,0.0264576
-0.0813366,0.0263862
-0.0930968,0.00768856
-0.077255,-0.0477187
-0.0768027,-0.0428689
-0.0502879,-0.000156238
0.0191505,-4.42e-05
-0.0328475,-0.0167433
-0.0860932,-0.0610632
-0.0164321,-0.0502232
0.079478,-0.0159846
0.135474,-0.0460408
0.156397,-0.0188812
0.178149,0.0324367
0.10139,0.0211261
-0.009736,0.0114675
-0.0226424,0.0322299
-0.032224,0.0512955
-0.0396591,0.0242965
-0.0857124,0.0259505
-0.0618111,-0.00659873
0.0315815,-0.0535871
0.0618857,-0.0328274
0.0564726,-0.00193623
0.0143497,0.0222798
-0.0469227,0.02437
-0.0615186,0.0207238
-0.0571965,0.030808
-0.059323,-0.00719061
-0.0177492,0.00319531
-0.0357408,0.0557306
-0.0675457,0.022829
-0.0211363,-0.0455335
0.0612096,-0.0220158
0.123661,-0.00115487
0.0832828,-0.0163044
0.0209073,-0.00220702
0.0351513,0.011721
0.0276736,0.0179958
-0.00737995,-0.00203786
-0.0216897,-0.0199948
-0.0163949,-0.00639363
-0.0132535,-0.0207798
-0.0571212,-0.0200512
-0.0837548,-0.0228089
-0.0642002,-0.0117077
-0.0545456,-0.0229596
-0.0548184,0.0159915
0.0292442,0.0305727
0.0505988,0.0418244
-0.0207235,0.0636142
-0.0647211,-0.000977045
-0.0395449,-0.0604643
0.0492155,-0.0346468
0.182742,0.00508014
0.208161,0.0249741
0.110194,0.00930817
-0.0276615,-0.00360324
-0.103055,-0.0044857
-0.0549559,-0.0257276
-0.0255208,-0.0294228
-0.0621403,-0.0208885
-0.067151,-0.014819
0.00311656,0.00295258
0.0823717,0.0124178
0.10781,0.010564
0.107591,0.00570341
0.0179916,0.0292224
-0.0717107,-0.0033638
-0.0233139,-0.0579851
-0.00095716,-0.0101393
-0.0812595,0.0112113
-0.102762,0.0509711
0.0103793,0.128915
0.100156,0.0529871
0.0408736,-0.0475698
-0.0756214,-0.0282906
-0.0910054,-0.0114881
-0.0533617,-0.0215574
-0.0755398,-0.0136592
-0.031001,0.00128963
0.0172051,-0.00307066
-0.00928597,-0.0201599
-0.00837778,-0.00385724
-0.00136514,-0.0249335
-0.0151037,-0.0552144
-0.0249207,0.0139274
0.00661686,0.109121
0.0360561,0.0483451
0.0217631,-0.0265609
0.0592328,-0.0299998
0.0984591,-0.0223088
0.0759189,0.00411365
0.0411744,-0.000157674
0.0355346,-0.00307806
0.0133619,-0.015647
-0.00491013,-0.0147464
0.0043014,-0.0360206
0.0220554,-0.0333349
0.0229097,0.0126827
0.0418609,0.0237319
0.0015187,0.0146042
-0.0294914,-0.00717335
-0.0368073,0.0134644
-0.0472631,0.0113259
-0.0516706,-0.0408181
-0.0643423,-0.0489381
-0.0908909,-0.0150517
-0.0638615,-0.0154811
-0.0423286,0.0243904
-0.0114567,0.0598645
-0.0176983,0.016921
-0.029215,0.0263767
0.0299172,0.0341465
0.179884,-0.0145612
0.217951,0.0273878
0.130278,0.0593691
0.0182183,0.0229874
-0.053236,-0.0544345
-0.0430533,-0.0621243
-0.0562976,-0.0527121
-0.0942951,-0.0137578
-0.0884427,0.022543
-0.0407696,0.0124969
-0.0109393,0.0385436
-0.0250154,0.0574762
-0.00394551,0.020325
-0.00808675,-0.00128559
-0.00243509,-0.00816
0.0274445,0.00807843
0.0303265,0.00438179
0.0102329,-0.0148835
0.000590458,-0.0247464
0.0158527,-0.0221881
0.0494109,-0.0283371
0.0259848,-0.0205757
0.0126858,-0.00806876
0.0381161,-0.0270474
-0.00762222,-0.0379506
-0.027085,-0.0134611
0.00072379,0.00589783
0.00717802,0.0132711
-0.0255833,0.0279516
-0.086923,0.0294281
-0.058673,0.0149074
-0.0421572,0.00723919
-0.0755452,0.0112489
-0.0824092,0.008421
-0.0145541,0.00600839
0.0487386,-0.00498731
0.109271,-0.0259437
0.102114,0.00744489
0.0211089,0.010472
0.0225206,-0.0481922
0.0619221,-0.0362172
0.0595463,0.0273947
0.0652847,0.0721567
0.00900012,0.00515685
-0.0673253,-0.0266084
-0.078104,-0.00629269
-0.0207811,0.00650665
0.0610942,-0.00937474
0.0656237,-0.0218796
0.00698477,0.0201517
0.00232043,0.0282037
0.00923287,0.000428922
-0.0171027,5.54e-05
-0.0689268,0.00347256
-0.077642,-0.00470262
-0.0364105,-0.0144387
-0.00209665,-0.0098387
-0.0320397,-0.00903051
-0.109479,-0.00538574
-0.129468,0.0227571
-0.0363438,0.019866
0.0484652,-0.017521
0.028345,-0.00935714
0.0101158,0.0362071
0.0817141,-0.013337
0.124602,-0.0369152
0.12045,0.0310164
0.0787396,-0.000359732
0.0122977,-0.0236511
0.00448687,0.0393521
-0.00304448,0.0199437
-0.038802,-0.0485988
-0.0441607,-0.0182334
-0.0425433,-0.00150257
-0.0476073,0.00568518
0.0191777,0.0311097
0.0676386,0.0448282
0.0322869,-0.0244868
-0.00213213,-0.019777
-0.0194706,-0.0159966
-0.0274112,-0.0120918
-0.0551342,-0.00655483
-0.0275189,-0.00687978
0.0227284,0.00867083
-0.00267459,0.00323027
0.0187865,-0.00342982
0.0434353,-0.00151111
0.00886513,-0.00624434
-0.0365196,-0.00466084
-0.0626516,-0.00520159
-0.0618698,-0.0142935
-0.0364378,-0.00558305
-0.0363438,0.0188099
-0.0630562,0.00256797
-0.0122191,-0.0274316
0.00443049,0.000991672
0.00412488,0.0330673
0.0135025,0.0140669
0.0232364,0.018542
0.0445376,0.0635881
0.0475051,0.00216989
0.0774045,-0.026325
0.0822084,-0.0366505
0.0068059,-0.0096594
-0.000330205,-0.00614018
0.0229819,-0.0176171
0.0316318,-0.00644325
0.0349964,0.0106313
0.0547541,0.0061866
0.0647008,-0.0165097
0.0416293,-0.00545625
-0.00360274,-0.00979606
-0.0600506,0.00389577
-0.10051,0.029838
-0.119587,0.0176129
-0.12639,0.00456976
-0.0329286,0.0155524
0.0523085,0.0462503
0.00507347,0.0650739
-0.0274948,-0.0449843
-0.00935939,-0.0192857
0.00247971,-0.014329
0.00984277,-0.0479689
0.0271597,-0.020631
0.0146371,0.00581268
-0.0360144,0.02031
-0.0407144,0.0299352
-0.0515312,0.00861407
-0.0744262,-0.0286292
-0.0129611,-0.0359247
0.11201,-0.0279963
0.0971019,-0.0144847
0.0904441,-0.0049298
0.179387,-0.0217971
0.113693,0.000418123
-0.0243534,0.010339
-0.0842672,-0.0266195
-0.119595,-0.0300648
-0.137819,0.0172264
-0.0983718,0.0215163
-0.0373058,0.00868534
0.0461286,0.0212891
0.0825606,0.0104462
0.0403387,0.0161619
0.0358129,0.0078921
0.0449708,0.00790484
0.045776,0.0158681
0.0251609,0.0145267
-0.0090879,0.025842
0.00158135,0.0314875
0.0187316,0.0220396
-0.00415306,0.00360036
-0.0647137,0.013563
-0.152742,-0.00764987
-0.137831,-0.0267589
-0.0538562,-0.0764869
0.012727,-0.101384
0.066503,-0.0214879
0.0482256,0.0730227
0.0498189,0.0525575
0.074424,0.0152279
0.0522882,0.0152256
-0.0155538,-0.00168933
0.0086358,-0.0229127
0.0214096,-0.0311428
0.0142668,-0.0174569
0.037569,0.00572391
0.0253125,0.0239702
0.00164038,0.0241217
-0.00544064,0.00582801
-0.0247698,-0.0203817
-0.0526649,-0.0126263
-0.0586214,0.00963254
-0.0298381,-0.00597443
-0.0129988,-0.0188214
-0.0312699,-0.013962
-0.00697286,0.0100643
0.0290929,0.0305732
0.00142549,0.0211005
-0.0235034,-0.0108343
-0.0102599,-0.00924875
-0.0143037,0.0259755
-0.022604,0.0356572
-0.0202778,-0.00174162
-0.0338658,-0.00194602
-0.0444146,0.0158917
-0.0465528,-0.0109296
-0.0301348,-0.0157517
0.0113362,-0.0150233
0.0730412,-0.0290403
0.0965133,-0.034612
0.0983877,-0.0269002
0.0780571,-0.0245325
0.00502874,0.0036088
0.0149736,0.0346919
0.096734,0.0366899
0.140259,-0.00309291
0.130924,-0.0212631
0.091189,-0.0127809
0.0588195,-0.00399809
-0.0209684,0.0105433
-0.109398,0.00229345
-0.171213,0.00613806
-0.149765,0.0250489
-0.106497,0.0136717
-0.0914808,-0.0215605
-0.0489526,-0.0325346
-0.0112919,-0.0107791
0.0110734,-0.00624809
0.00636492,0.00528694
-0.0590878,0.0224877
-0.0951525,0.0087225
-0.0777819,-0.00591632
-0.022439,0.0535026
0.0348835,0.0517522
0.0623254,-0.0300297
0.0537743,-0.0607881
-0.0112896,-0.0229364
-0.0369559,0.0267848
0.00968639,0.0277269
0.0344064,0.00334891
0.0373566,0.0139799
0.0696493,0.00871474
0.107404,-0.0198518
0.1121,-0.0182052
0.0709357,-0.00486224
0.0438553,-0.00972004
0.00759448,-0.00841903
0.0124761,-0.00336075
0.0319547,0.00662093
-0.0165056,-0.00339131
-0.0856518,-0.0058298
-0.0807621,0.0107116
-0.0485104,0.0362723
-0.0333489,0.0219931
-0.0376064,0.00954861
-0.0446195,0.0358185
-0.0308937,0.0416085
-0.000930685,0.0482202
0.0143772,-0.0165179
0.0045488,-0.0369248
0.0193844,-0.0250194
0.042045,-0.0208678
0.0309734,-0.0202587
-0.0346723,-0.0299932
-0.116412,-0.0326827
-0.106834,-0.0560784
-0.00243043,-0.0513548
0.0748097,-0.0173756
0.0524621,-0.0201181
0.0331205,-0.0190924
0.0403479,-0.00597608
0.0487252,0.00158951
0.0548573,0.0217183
0.0149571,0.0444882
-0.00647778,0.0369623
0.00573176,0.0149856
0.0277724,0.0140734
0.030215,0.0112704
0.0171441,0.0182688
-0.00694481,-0.00336371
-0.0302997,-0.039246
-0.0626554,-0.0234451
-0.0777432,-0.00109555
-0.101791,0.032632
-0.10981,0.0641499
-0.0354136,0.0487644
0.100169,0.00832204
0.141785,0.000141147
0.0571315,-0.0131636
0.0118894,-0.0196885
0.00839439,-0.0250526
0.00212592,-0.0318665
0.0203174,-0.0057667
-0.0290121,0.0266196
-0.115311,0.0368415
-0.109847,0.00929116
-0.0280125,0.00504684
0.0788973,-0.000753889
0.100787,-0.0129061
0.0395945,-0.0232705
-0.00270983,-0.0214605
0.00192733,0.0110495
0.0102481,0.0126772
-0.016111,-0.00966985
0.000652743,-0.0295952
0.00448271,0.00506857
0.0332041,0.00965924
0.0238809,0.00400063
-0.0215917,0.0235942
-0.0322386,0.0317944
0.0279564,0.0019639
0.072619,-0.0358135
0.0539163,-0.0278813
-0.0232015,-0.00922858
-0.0824626,-0.00199815
-0.0873538,-0.00265211
-0.0316675,7.35e-05
0.0397631,0.00432762
0.0677971,0.0137024
0.0117077,-0.000428915
-0.0890696,-0.0131794
-0.109987,-0.0232142
0.0477385,0.000382433
0.0404325,-0.00600083
0.0639055,-0.01202
0.106015,-0.00307441
0.0719719,0.0267736
0.0478352,0.0394963
0.0598095,0.0131775
0.0277373,-0.0077555
-0.0336206,-0.00945136
-0.0911089,-0.00420269
-0.127637,-0.0192253
-0.119102,-0.029106
-0.052048,0.0143142
-0.0224469,0.0136212
-0.0309814,-0.0317866
-0.0288833,-0.0437681
-0.0229189,-0.012456
-0.0235402,0.0206786
-0.0298941,0.0115936
0.0145798,0.0313569
0.0628997,0.0506944
0.092619,0.0242696
0.079735,0.00750711
0.00511194,0.0258363
-0.0363342,0.0393442
-0.0421354,0.0399493
-0.0500616,0.00621428
-0.0193942,-0.0479224
0.0135955,-0.0427572
0.0140506,-0.0196214
-0.00459441,-0.00774121
-0.0191459,0.00137127
0.0162089,-0.00624438
0.0134694,-0.0404157
-0.0236796,-0.0294127
0.0116429,0.00169085
0.113709,0.00765492
0.102964,0.00835062
0.00860755,-0.00527311
0.0122662,-0.012905
0.0399176,0.0277996
0.0170932,0.0139223
-0.0299025,-0.00219247
-0.0405334,-0.0329522
-0.0339574,-0.0352912
0.0188285,-0.00591844
0.0693557,0.0160413
0.024193,0.0113181
-0.0477783,-0.00184737
-0.0604146,-0.00131082
-0.0425709,-0.0027643
-0.0521541,0.0183005
-0.0377383,0.0195795
0.0146981,0.00378493
0.0351087,0.00702576
0.0189165,0.00972311
0.0403144,0.0317053
0.0424515,0.00531784
-0.0287775,-0.0267598
-0.0415312,-0.00450427
-0.0177214,-0.0291607
-0.0119334,-0.0123451
0.0180855,0.0626478
0.013376,0.0170625
-0.0150619,-0.0388632
-0.0305556,-0.0293902
-0.0321313,0.0187029
-0.0573838,0.0227398
-0.055964,-0.0213449
-0.0155415,-0.0261128
0.0692648,-0.00168557
0.12487,0.0210928
0.0841199,0.0264842
0.0299277,0.000433826
0.00785683,-0.0408793
-0.0132122,-0.0219321
-0.0519392,0.0339177
-0.0749514,0.0207323
-0.0146249,-0.00329496
0.033851,0.00646959
0.0199386,-0.0168502
-0.0109465,-0.0141778
-0.0294615,-0.0096621
-0.0301322,-0.0239371
-0.0538747,-0.00142335
-0.0294775,0.0400499
0.0518842,0.0562923
0.0853488,0.0206962
0.0463407,-0.00734849
0.0310382,-0.00601358
0.0152855,-0.00440764
-0.0123134,-0.00417722
-0.03224,-0.00142574
-0.0223669,0.00214539
-0.0281244,-0.0132718
-0.0515245,-0.00732708
-0.0169718,0.00568091
0.0496877,-0.0107933
0.0793299,-0.00649795
0.05365,-0.0103603
0.0144512,-0.0303116
-0.0433818,-0.02698
-0.0841326,-0.00227383
-0.0524612,0.0138636
-0.0255265,0.0294502
-0.0306967,0.0203518
-0.00971134,-0.0011467
0.0142565,0.0159244
0.0127991,0.0280754
-0.0135077,-0.0149879
-0.019461,-0.0279391
0.0147301,-0.0271304
0.0129628,-0.0218559
-0.0508902,-0.00960945
-0.0424174,-0.0297871
-0.000359381,0.00958777
0.0292802,0.0515838
0.0720785,-0.00105045
0.0531423,-0.0465631
0.0275241,-0.0224697
0.0343346,0.014638
-0.00324113,0.00841196
-0.0347679,0.0112824
0.0324924,0.0102246
0.0168556,0.0411633
-0.0284978,0.0672069
-0.0200053,0.0115616
0.00414297,-0.0335308
0.0082672,-0.0242442
0.0200778,-0.00518338
0.00799034,-0.00723662
-0.0262896,-0.00166567
-0.0151819,0.01031
0.0131554,0.00270332
0.0174627,0.0267071
0.00364012,0.0202598
0.00727768,-0.0118035
0.0154933,-0.0313095
-0.0070643,-0.0238561
-0.0394578,0.0212473
-0.0726831,0.0470732
-0.0168618,0.0106649
0.011871,-0.0168234
0.0238035,-0.00909739
0.0423102,-0.0164096
0.0791729,-0.0241545
0.0688152,-0.0186311
0.0191558,-0.00101786
-0.00482022,0.00492194
-0.00391113,0.0118353
0.0108852,-0.00605776
-0.0140077,-0.0199648
-0.0739023,-0.00434107
-0.121954,0.0142597
-0.110972,0.0128958
-0.0628103,-0.00231386
-0.002415,-0.0174873
0.0259847,-0.0306617
0.0226116,-0.0326494
0.0311635,-0.0196155
0.0398554,-0.00548528
0.0265522,-0.000137277
0.0650542,0.00775164
0.0847726,0.0116507
0.0407273,0.011787
0.008969,0.0273112
-0.0190764,0.0525829
-0.0356666,0.0466959
-0.044552,0.0290552
-0.0400173,0.0142921
-0.00997383,-0.00172665
0.035592,-0.0117632
0.136531,-0.0208897
0.179026,-0.0276284
0.101835,-0.0296361
-0.0157584,-0.0149642
-0.0941971,0.0060523
-0.165843,0.000114625
-0.211475,0.00698773
-0.146477,0.0075906
-0.0295297,-0.013857
0.0503726,-0.00735938
0.0824478,0.00491792
0.0294586,0.0139668
-0.0388692,-0.0152461
-0.0295201,-0.0103693
0.00602572,-0.0232627
-0.0303032,-0.0160686
-0.055313,0.0319658
-0.0352892,0.0260536
-0.0109265,-0.00128662
0.0172665,-0.00280254
0.0523853,-0.0104819
0.1093,-0.0187956
0.112415,0.00105108
0.0726657,0.026298
0.0142498,0.0348506
-0.0208785,0.0433727
-0.0577009,0.0240131
-0.0658552,-0.0100037
-0.0221696,-0.0489802
0.0290563,-0.0619042
0.01344,-0.0195086
0.00541597,0.00945125
0.0384004,0.0131086
0.0374962,0.0165667
0.0260591,0.012649
-0.00263384,0.00164885
-0.0516453,-0.00986464
-0.0595828,-0.0149969
-0.0364107,-0.0011463
-0.0302104,0.0162483
0.0309569,-0.00784236
0.0883757,-0.0046873
0.0353502,0.0245306
-0.00117741,0.00722922
0.000254311,-0.0162114
-0.00280707,-0.013201
-0.0170306,-0.00639088
-0.0181205,0.00678717
-0.0249863,0.0140447
-0.0156164,-0.00355751
0.00586448,-4.71e-05
-0.0172971,0.00655462
-0.0442627,0.00204754
-0.00176913,-0.0109542
0.0598271,-0.000889172
0.0532563,-9.97e-05
0.030315,0.0118129
-0.0030209,0.0268051
-0.0633043,0.00151679
-0.0714709,-0.0140661
-0.0451234,-0.0279473
0.00443123,-0.0262001
0.0607723,-0.00902636
0.124414,-0.00128931
0.174837,0.0123019
0.130826,0.021177
0.0187848,0.0189076
-0.0590648,0.0129607
-0.0810649,0.000540424
-0.114403,-0.00216218
-0.120532,-0.00975174
-0.111309,-0.0191101
-0.0975376,-0.0194341
-0.0230672,-0.00544602
0.0322334,0.0174082
0.0183375,0.0260176
8.29e-06,0.0200803
0.055409,-0.0269722
0.0717517,-0.0605618
-0.0231777,-0.0262613
-0.0812007,0.00692933
-0.0353122,0.0221845
-0.012401,0.0251738
-0.0200791,0.0310333
-0.00210609,0.0148453
0.0246095,0.00391773
0.0367192,0.0116071
0.0398828,-0.00327415
0.0386715,-0.0159989
0.0243492,-0.0259392
0.0156261,-0.0184687
0.000378989,0.0324039
0.0309706,-0.00352229
0.0411475,-0.0294116
0.0270929,-0.00457256
0.0103378,-0.000913276
-0.0280088,-0.00980517
-0.0389879,-0.0177071
-0.0205881,0.0113551
-0.0154719,0.0368033
-0.00987347,0.0328306
-0.000792941,0.0229663
0.0114004,0.0253613
-0.0114197,-0.00977113
-0.0287679,-0.0335279
-0.00372928,-0.0409653
0.00127821,-0.0119778
0.0188167,0.0320169
0.0527422,0.0345938
0.0550712,0.0125477
0.0473978,0.00997621
0.0251603,0.00837474
0.00178033,-0.00829665
-0.0264081,-0.0221738
-0.0340877,-0.022979
-0.0225851,-0.0132607
-0.0364141,-0.00452615
-0.0388823,-0.0138985
-0.0398103,-0.0159654
-0.0439734,0.00735661
-0.0219381,0.000640874
-0.0053443,0.0129046
0.00975315,0.0036584
0.0474849,-0.0255477
0.0751066,0.00533389
0.0542742,0.0614848
0.0311287,0.054462
0.0150898,0.0031778
-0.00560991,-0.0218629
-0.0400506,-0.022803
-0.0290744,-0.0231072
0.0168173,-0.0101562
0.000455183,0.0121033
0.00653404,0.00387891
0.0231781,-0.0174208
-0.0463174,-0.0391004
-0.0891127,-0.0535644
-0.0451659,-0.04379
-0.0257402,0.00264661
-0.034292,0.016454
0.0204215,0.0294066
0.0577413,0.0472422
0.0455095,0.0230402
0.00828482,0.013573
-0.0154425,0.0187337
-0.00849178,0.0120134
0.0112413,0.00321097
0.0355711,-0.00850603
0.034125,-0.0052495
0.0290042,0.0163215
0.0244621,0.0209671
0.00796755,0.00584849
-0.0556587,-0.0148308
-0.114048,-0.0248883
-0.100154,-0.025439
-0.0540878,-0.0150938
0.0190472,-0.00820873
0.0908984,0.0130206
0.0800814,0.0180932
0.0526321,0.00658314
0.0382881,-0.00111974
0.00207291,-0.0147731
-0.0242339,-0.0313097
0.0117855,-0.0365502
0.039542,0.00816742
0.0250024,0.0388072
-0.00118023,0.019627
0.00260956,0.011783
0.0191789,0.00886815
-0.0048914,0.00266663
-0.0352262,-0.0023619
-0.0316462,-0.0155065
-0.0105432,-0.0277869
-0.0212623,-0.0166671
-0.0368786,-0.00152865
-0.0282948,0.00391084
-0.0205362,0.00132571
-0.00172264,-0.00217273
0.00747811,-0.00768602
0.00152925,-0.0100349
-0.0128604,0.00565732
-0.0218489,0.0300734
-0.00955212,0.0145747
-0.00678935,0.00153507
-0.0252859,0.0157421
-0.0118478,0.00865347
0.0337634,-0.0106851
0.0813011,-0.023552
0.084651,-0.00242738
0.0680608,0.000806191
0.0338428,-0.00290081
-0.00815111,0.00602053
-0.0371309,0.0139129
-0.0438173,0.00382814
-0.0563775,-0.00598303
-0.0640591,0.00998934
-0.0394543,-0.010883
-0.0159252,-0.0318936
0.0444916,-0.0202656
0.0798649,0.0187949
0.0846134,0.0661149
0.0427888,0.0122544
-0.0172612,-0.0469666
-0.0615846,-0.0233587
-0.104729,0.019091
-0.110793,0.019835
-0.0838412,0.0041912
-0.00857361,0.0101381
0.0802131,0.0260267
0.141233,0.0108624
0.115147,-0.0177478
0.0647515,-0.0202573
0.00160379,-0.0162183
-0.0586976,-0.00682856
-0.0831487,-0.00376544
-0.0568806,-0.000295046
-0.0266393,0.0123081
-0.0101401,0.0173721
-0.0135972,0.00504547
-0.00633926,-0.00895056
0.000305856,-0.0122478
0.0122601,-0.025225
0.0620014,-0.0377828
0.0895871,0.0278535
0.0463052,0.0401732
-0.0131132,-0.0120485
-0.0676371,-0.00494579
-0.0781241,0.0107472
-0.032885,-0.00755706
-0.0103716,-0.0105251
-0.026296,-0.00356007
0.0199164,0.00577566
0.0881281,-0.00475822
0.120105,-0.0214037
0.11595,-0.00940883
0.0946986,-0.000931634
0.062498,-0.0032763
-0.0170124,-0.00457771
-0.077091,-0.00904304
-0.100925,-0.00399897
-0.111376,0.00599885
-0.1142,0.011724
-0.0882147,0.0143881
-0.0342056,0.00208755
0.00449492,0.00113444
0.00137996,0.00989647
-0.0224728,0.00675833
-0.0150605,-0.00655268
0.0279323,-0.00150822
0.033411,0.00560819
0.0137098,0.000103829
-0.00299739,-0.0079296
-0.00468139,0.00565216
-0.00930874,0.0213911
-0.0249107,0.021669
-0.0187051,0.0027632
0.00812107,-0.0259004
0.0192013,-0.00147632
0.0433654,0.0234211
0.0539629,0.0139426
0.0323508,-0.0204396
0.0149428,-0.0399788
-0.00886677,-0.0118666
-0.0118315,0.0326918
0.0142035,0.0319199
0.0447857,0.0222838
0.0243549,0.0212355
0.00319949,-0.0138267
0.0182399,-0.0298226
0.0164061,-0.018999
-0.0125852,-0.0160468
-0.0200281,-0.0179103
-0.00798941,-0.0108883
0.0140463,0.0166357
0.0220743,0.056768
0.0154844,0.034482
0.00124578,-0.025473
-0.00793038,-0.0288878
-0.00717369,-0.00149644
-0.0413856,-0.00535494
-0.083571,-0.0136498
-0.0491912,-0.00885727
-0.00360975,-0.017722
0.0145713,-0.0326884
-0.0109536,-0.0120748
-0.0495028,0.0141599
-0.0353216,0.0141835
-0.0115216,0.0178499
-0.00864413,0.0168828
0.00896411,0.0151476
0.084551,0.0238655
0.144061,0.00299066
0.115874,-0.0110713
0.0536225,-0.00925304
-0.00209966,-0.000357231
-0.0606763,-0.00172607
-0.111615,-0.00297966
-0.0919366,-0.00206623
-0.0334998,-0.00298023
0.00480879,0.0127799
0.0228749,0.00880385
0.0759844,-0.00623593
0.0961121,-0.0155154
0.0439692,-0.0127545
0.00137068,-0.0153757
0.00192261,0.000723954
0.00602496,-0.00175086
0.0154319,-0.0121441
-0.0268548,-0.0136733
-0.116378,-0.00551334
-0.137528,0.00324486
-0.0801486,-0.00459701
-0.0380707,-0.00764656
-0.0240286,-0.0224931
-0.0177893,-0.0150452
0.00445605,0.0385021
0.0259092,0.0507105
0.0413075,0.0201594
0.02196,-0.0130114
0.0132409,-0.00526271
0.0284198,0.00225559
0.0575678,-0.0127752
0.0650796,-0.00360609
0.0502723,0.0116731
0.0641986,0.0183132
0.0516375,0.0162822
0.0169413,0.00306978
-0.0149219,0.0155462
-0.0311723,0.0119647
-0.0573723,-0.0186552
-0.0661651,-0.0342342
-0.0353141,-0.0185646
0.00229062,-0.00901205
0.00739059,0.0146312
0.00557555,0.0136725
-0.0139879,0.013696
-0.0408584,0.0177695
-0.0426262,-0.0128078
-0.0204231,-0.0145047
-0.00667526,-0.00279809
0.0221675,-0.00647963
0.0485594,-0.0100012
0.0393884,0.0171934
0.0162385,0.0178604
0.0111581,0.00708277
0.0102275,0.00606015
-0.00388734,-0.0146511
-0.00866842,-0.00841284
0.00718539,0.0186237
0.00613233,0.033548
-0.00298119,0.0160335
-0.00441166,-0.0308969
-0.0102249,-0.0262023
-0.0144788,-0.00195904
-0.012168,0.00186001
-0.00871651,-0.0175377
-0.0119027,-0.0295711
-0.0142533,-0.00489255
-0.0112051,0.013762
0.0179533,-0.0118218
0.0248767,0.00266064
0.0110178,0.0338717
0.001172,0.0108336
0.00522445,4.74e-05
0.013367,-0.00364578
0.0175951,0.0184818
0.00686164,0.0335011
-0.00178603,-0.0250732
0.00133802,-0.0606485
-0.00106815,-0.0367088
-0.0116427,-0.0212261
-0.0174712,-0.0105576
-0.021412,0.00103969
-0.0164375,0.023704
-0.000215068,0.0305578
0.00802469,0.0130435
-0.00950459,0.0159508
-0.0166044,-0.00423458
-0.0109468,-0.0266703
-0.0253465,-0.0189385
-0.0293449,0.00121489
0.00879852,0.0173441
0.0618111,0.0103831
0.0915109,0.00261776
0.085556,0.00642685
0.058705,0.00766105
0.00971903,-0.00188077
-0.0420979,-0.0211259
-0.0548536,-0.0141933
-0.0392694,0.0174506
-0.0328431,0.0180013
-0.00687574,0.0167341
0.00864988,0.00656833
-0.0193339,0.000268968
-0.0334106,0.0270837
-0.0158964,0.0210773
-0.0348595,-0.0080842
-0.0774315,-0.0278016
-0.042654,-0.0283676
0.0125954,0.00100769
0.0324597,0.00120148
0.0237102,-0.00720742
0.0015458,-0.0178615
-0.0249733,-0.00701809
-0.0164462,0.00246639
-0.00442854,0.00246983
0.0079411,0.0110449
0.0587434,0.0258478
0.0951251,0.023666
0.0958578,0.0153714
0.0639178,0.0029627
0.040185,-0.00960119
0.00326407,-0.00954561
-0.034816,-0.00857994
-0.0303502,-0.00642924
-0.0252919,-0.00705609
-0.0248139,-0.00298818
-0.0136612,0.000442188
-0.012498,-0.00134973
-0.0108302,-0.00576847
0.00117893,-0.00552106
-0.00302992,0.00470654
-0.0160792,-0.0125065
-0.0195339,-0.0123626
0.020987,0.0117078
0.0521422,0.0104039
0.0149551,-0.0139767
-0.0331122,-0.011974
-0.0330114,0.00156872
-0.0253682,0.00441457
-0.0421628,0.00370018
-0.0417891,0.00439474
0.00151069,0.0120056
0.00431007,0.00414346
-0.00502229,0.00561153
0.00387199,0.0108853
-0.00190016,-0.00340056
-0.00805512,-0.0156319
-0.000900415,-0.0188757
-0.012107,-0.01095
-0.0114815,0.014541
0.00588822,0.0224939
0.0195295,0.0105221
0.0146126,-0.00567658
0.00442642,-0.0111728
-0.0113846,0.00175358
-0.0113056,-0.00504599
-0.00962383,-0.029735
-0.00740238,-0.0225815
0.00583736,0.0183088
0.0250707,-0.0133488
0.0536587,-0.0207171
0.0595134,0.0219226
0.0434259,0.049865
0.0319312,0.0192396
0.0163082,0.0101503
-0.00638454,0.0199406
0.0103506,0.00659332
0.0295391,-0.0186329
0.0168796,-0.0168592
-0.0127367,-0.00573733
-0.0122261,-0.00373019
-0.00522184,-0.00527149
-0.011477,-0.00981567
-0.019076,-0.00809774
-0.0239008,0.00142332
-0.0484341,0.00284095
-0.0709417,0.00666918
-0.0679195,0.0173798
-0.0559769,0.000980389
-0.0373862,-0.0246904
-0.0182247,-0.0178564
-0.00827121,-0.000389087
-0.00230926,0.0102974
0.0196107,0.0126672
0.0315819,0.00458322
0.016773,-0.00227357
0.00213843,0.000540152
-0.00125827,-0.00732564
0.000962031,-0.0156166
0.0235247,-0.0103147
0.0822588,-0.000167591
0.114768,-0.00422571
0.0830444,0.0103547
0.0559421,0.0244151
0.0367594,0.0194216
-0.0105322,-0.00686165
-0.056675,-0.0102088
-0.077652,-0.00151509
-0.0885274,-0.00632813
-0.0445212,-0.00289599
-0.00448385,0.00852805
-0.00063692,0.0075683
0.00655337,0.00209739
0.0307676,-0.00195369
0.0347193,-0.00934089
0.00339996,-0.0147206
-0.0279707,-0.0114934
-0.0149683,0.00129683
0.0142913,0.0105923
0.00410793,0.00532922
-0.0166021,0.00217067
-0.0493425,0.00397676
-0.0534926,0.00464957
-0.0181655,-0.000389862
0.0133992,0.00824293
0.0250496,0.00577964
0.0287625,0.00262844
0.0315043,0.00220077
0.00495186,-0.0042669
-0.0358474,-0.00429042
-0.0528053,-0.0134796
-0.0436918,-0.0151939
-0.00636125,-0.0164706
0.065263,-0.00968186
0.113919,0.00344928
0.11164,0.0148139
0.0742305,0.0167329
0.0450781,0.01374
-0.00250306,0.00921472
-0.0464513,0.000730119
-0.070182,-0.00209367
-0.0876397,-0.00195366
-0.0993888,-0.0038029
-0.0737111,-0.000143138
-0.0425783,0.00478573
-0.0431866,0.000733713
-0.0532958,-0.0129756
-0.0597333,-0.0178618
-0.0321078,-0.0164728
0.00381915,-0.000111312
0.0766421,0.00851045
0.196501,0.0106307
0.216634,0.0141215
0.157748,0.0243808
0.11614,0.0291423
0.0547674,0.00594864
-0.0596991,0.016244
-0.150539,0.0300534
-0.167898,-0.0326239
-0.104303,-0.0674826
-0.0213831,-0.0187817
0.00866645,0.0231462
-0.0042669,0.00880935
-0.027025,0.0015926
-0.0432104,-0.00433709
-0.0565303,-0.0115268
-0.0484356,-0.0205503
-0.02708,-0.0149378
-0.00223805,0.0103062
0.00650552,0.0261015
0.0280414,0.0285827
0.0369209,0.0160554
0.0326781,-0.002275
0.0284579,-0.0134887
0.0470679,-0.0135733
0.0636682,-0.0106556
0.0715885,-0.003643
0.0527609,0.00573421
0.0098969,-0.000807453
-0.0270697,-0.025504
-0.0212127,-0.0341077
-0.0184723,-0.0172692
-0.0167487,-0.00162174
-0.00632011,0.00136141
0.0249558,0.00892159
0.0348787,0.0156136
0.00518685,0.00221047
-0.0298679,-0.00260451
-0.0617277,0.00513706
-0.0781486,0.0143536
-0.057453,0.0109721
-0.0220286,0.00398016
0.0134275,0.0118528
0.0431192,0.00914112
0.0395466,-0.00441049
0.0307224,-0.00291294
0.0317154,0.0117958
0.0254471,0.0112921
0.0207586,-0.0142972
-0.000149646,-0.0301779
0.0114445,-0.0169694
0.035904,0.0125256
0.0245921,0.0097897
-0.0227448,0.00533819
-0.0659561,0.00660201
-0.0891305,-0.0114266
-0.0938304,-0.00917919
-0.0518504,0.0125903
-0.000754117,0.0105984
0.0648709,0.0146109
0.106422,0.0303242
0.0736837,0.0198654
0.0181984,-0.00719808
-0.0228827,-0.00073579
-0.0488968,0.000834675
-0.0638716,-0.0112356
-0.0645561,-0.0185781
-0.0205735,-0.0109983
0.0296076,-0.00511363
0.0391234,-0.0036203
0.0254791,-0.00493274
0.00972448,-0.00537689
0.0127785,-0.0100154
0.0345751,-0.0187735
0.0707135,-0.0188683
0.0697903,-0.0180018
0.0619277,-0.00748917
0.0535754,0.00938191
0.0152143,0.0172874
-0.0491864,0.00784895
-0.0927871,0.0135884
-0.113187,0.0272295
-0.116709,0.00903969
-0.0943457,-0.0113502
-0.0458645,-0.00436549
-0.0164957,0.00299391
-0.00264429,-0.00116917
0.0144236,-0.00950035
0.0130424,-0.0170434
0.00701971,-0.0156923
0.0178099,-0.0185194
0.0458552,0.00932752
0.0728954,0.0380815
0.0932909,0.0404689
0.0911501,0.0204495
0.0565765,-0.00669426
0.00910401,-0.00941822
-0.0215946,-0.0135677
-0.0461812,-0.0138621
-0.0785294,-0.0059563
-0.0695319,-0.00592063
-0.0286684,0.00347967
-0.01046,0.0153455
-0.00440276,0.00712233
0.00336724,0.00422392
0.000809631,0.00799528
-0.0090698,0.0061684
-0.00364759,-0.000151866
0.00619355,-0.00119609
0.0352335,-0.00311844
0.0797395,-0.0011138
0.0941299,0.00392671
0.0541351,0.00331223
-5.58e-05,-0.00549778
-0.0535231,-0.0145495
-0.106124,-0.00972821
-0.128081,-0.00864709
-0.0914527,-0.00528857
-0.0214015,-0.000711777
0.0397721,-0.00050284
0.112609,-0.00179132
0.158223,-0.00548634
0.138442,-0.0119854
0.0777581,-0.0115872
0.0596992,-0.00717457
0.0348458,-0.00123622
0.00421916,0.0129851
0.00753734,0.020375
-0.0187775,0.0118178
-0.0916458,0.00117438
-0.140415,0.000294851
-0.151377,0.00386166
-0.153648,-0.00150497
-0.12843,-0.0182235
-0.0635858,-0.00632816
-0.00848123,0.0161021
0.00478289,0.0131273
0.0071255,0.00841643
0.00102573,0.00880459
-0.00693882,0.0114202
-0.00578799,-0.00291816
0.00824815,-0.0222667
0.0181147,-0.0128938
0.0477319,0.0127419
0.0712345,0.0155291
0.0674242,0.00213253
0.0636432,-0.00310315
0.0733311,-0.0108359
0.0618127,-0.0145789
0.0376676,-0.0171035
0.031976,-0.0032219
0.0330597,0.0273787
0.0037892,0.0106819
-0.0293604,-0.00751705
-0.0412648,-0.00706898
-0.0450192,-0.0125139
-0.0357282,-0.0127014
-0.0230918,-0.0107192
-0.0162221,-0.0135681
-0.00226318,0.00729556
0.0296075,0.0328863
0.036523,0.0178835
0.0167135,0.00554067
0.00439327,0.0116383
-0.00380712,0.0131925
-0.0323559,-0.00260199
-0.0654251,-0.0281936
-0.0574526,-0.0246725
-0.0299872,-0.00130314
-0.0154099,0.00750925
0.00515975,0.00871241
0.0408966,-0.00051566
0.0675029,-0.00632449
0.0689392,0.00428384
0.0688448,-0.00128554
0.034103,-0.010941
0.000477334,0.00132565
-0.006754,0.00683892
-0.0138196,-0.00146725
0.00332457,0.00745417
0.058319,0.00945314
0.0603879,0.000284238
0.0137066,-0.0060332
-0.0274305,-0.00118893
-0.0573932,0.00452657
-0.0727094,0.00277994
-0.0546386,0.000735649
-0.0302226,0.00358481
-0.0386134,0.00105212
-0.0767601,-0.00113145
-0.0981933,-0.00786344
-0.0769332,-0.0171269
0.00356303,-0.0093335
0.0813291,0.00771783
0.110872,0.0137641
0.0859691,0.00292712
0.0165958,-0.00478518
-0.0557544,-0.016732
-0.0958586,-0.0150974
-0.0947474,-0.00915475
0.00800653,-0.00275054
0.121033,0.0140351
0.142479,0.0209119
0.10009,0.0184558
0.01775,0.00407777
-0.0592543,-0.0030592
-0.0975577,-0.00797007
-0.0875045,-0.00843674
-0.0624515,-0.00446722
-0.0325435,0.0016606
-0.00690931,0.0113599
0.00439674,0.0129994
0.0400737,-0.00114489
0.0713116,-0.00946812
0.0659868,0.0041084
0.0516069,-0.010456
0.0316024,-0.0483342
0.0117647,-0.0524543
-0.00838008,0.0065332
-0.032254,0.0545126
-0.025411,0.0480052
-0.0255349,0.0239357
-0.0472768,0.0162719
-0.0712111,0.0240712
-0.0600198,-0.00080928
-0.0323412,-0.0205222
0.0377352,-0.012284
0.112026,-0.00196757
0.126033,0.0039307
0.0958041,5.03e-05
0.0547825,-0.0040336
-0.00333051,-0.0137915
-0.0610334,-0.0198418
-0.0987086,-0.0139729
-0.0879901,-0.00261185
-0.0445962,0.00504989
-0.021651,0.00661365
0.00899378,0.00573322
0.0255024,0.00180552
0.032683,-0.00429992
0.0309419,-0.0032343
0.0250945,0.0028008
0.0108672,0.00330002
-0.00162941,0.00715069
-0.0328326,0.00989136
-0.0715757,0.0046373
-0.0873641,-0.0010422
-0.0583127,-0.0058015
-0.0359577,-0.0119326
-0.0282241,-0.0147134
-0.00183851,0.00704288
0.0536647,0.0121144
0.0693824,-0.00618986
0.0616322,-0.0124147
0.0565883,-0.0114783
0.0576961,-0.0102056
0.0638217,-0.0130668
0.0626381,-0.0109326
0.0485003,-0.00264615
0.0131454,0.0114545
0.0294779,0.0251539
0.0606773,0.0205055
0.0573175,0.0142924
0.0310396,-0.00649202
0.0239726,-0.0197873
0.0441866,-0.0165741
0.05981,-0.0131671
0.0130147,0.0056393
-0.0257381,0.0135272
-0.0805061,0.00754796
-0.151116,0.00399633
-0.206306,0.0032537
-0.204027,0.00314348
-0.193648,0.00965398
-0.167707,0.0114927
-0.145005,0.00790728
-0.102202,0.00190591
-0.0168069,0.00206969
0.0748759,0.0111889
0.111625,0.0108483
0.103248,0.00039621
0.0684001,-0.0242227
0.0193998,-0.0160689
-0.00919389,-0.00842468
0.0494196,-0.00822308
0.130398,0.015642
0.165021,0.00693207
0.166835,-0.00425451
0.154542,0.0112616
0.193987,0.0269964
0.190721,0.00174659
0.133504,-0.0208181
0.0476269,-0.0121897
-0.0594094,1.18e-06
-0.169767,0.00538671
-0.22787,0.000901743
-0.240087,-0.0040109
-0.142445,-0.00625289
-0.0506797,-0.01164
-0.0347303,-0.0161057
-0.0548678,-0.00986543
-0.065941,-0.00337751
-0.076626,-0.000830907
-0.102569,-0.0020203
-0.0837589,-0.00180575
-0.0418232,-0.00286034
-0.0129938,-0.0149864
-0.0189977,-0.0198808
-0.0115085,-0.014777
0.0173107,-0.000634296
0.0425717,0.00377427
0.0326326,0.0142838
0.0313367,0.0290438
0.0965334,0.0220774
0.125093,0.00183763
0.108152,-0.00358996
0.124742,0.0101773
0.18929,0.0282389
0.190445,0.0250429
0.135524,0.0201778
0.0750109,0.00283514
0.0299597,-0.0286129
0.0333591,-0.0209112
0.0586705,0.00559026
0.06979,0.00739615
0.131741,-0.0107766
0.0927606,-0.0137829
-0.101791,-0.00641828
-0.320657,-0.00955498
-0.437037,-0.0142275
-0.439116,-0.0104611
-0.325955,0.00512805
-0.149183,0.0133732
0.00276539,0.0142335
0.075057,0.0139312
0.0950657,0.00859778
0.106434,0.00801546
0.107055,0.00648611
0.10475,-0.00600247
0.0430307,-0.0227639
-0.0475208,-0.0252952
-0.154403,-0.0233473
-0.18406,-0.0148849
-0.0728633,-0.00210133
0.0630253,-0.00309928
0.223683,-0.002996
0.334453,0.00447278
0.298653,0.00675517
0.183883,0.0170663
0.0937132,0.0377674
0.12544,0.0409314
0.1994,0.0181941
0.175233,0.00678032
-0.00927168,0.00458673
-0.238665,-0.0115865
-0.308965,-0.0119356
-0.192878,-0.0169146
-0.108643,-0.0129925
-0.055289,-0.0046795
-0.0827432,-0.00405881
-0.167299,-0.00953511
-0.230703,-0.0196881
