Comp Ch 3,Comp Ch 4
0.0147868,-0.000346425
0.0303469,0.0166973
0.0361546,0.0236102
0.0160136,0.0129119
0.00704415,-0.000957906
-0.00277163,-0.0165819
-0.033679,-0.0160155
-0.0433567,-0.0121592
-0.037465,0.0181618
0.00517342,0.0563814
0.0223942,0.0190975
-0.00447445,-0.015215
-0.0239778,-0.0157271
-0.0303534,-0.00690891
-0.0338322,-0.0145283
-0.0309868,-0.0182324
-0.0155173,-0.0131028
0.00214719,-0.00225614
0.0440653,0.00873874
0.0542655,0.00789482
0.0278103,-7.74e-05
0.0235468,-0.00209215
0.0204288,-0.00568927
-0.0112199,-0.0168362
-0.0262862,-0.0211731
0.0104759,-0.00173091
0.05469,0.0123965
0.0511229,0.0084894
0.0232905,0.00572645
-0.0403892,0.000316075
-0.0979904,-0.0113123
-0.105873,-0.000659069
-0.0623004,0.0382194
0.0076008,0.0231871
0.103671,-0.0257292
0.167706,-0.0113052
0.128838,0.00257087
0.0436802,-0.0206553
-0.0361917,-0.0148966
-0.103947,0.0156956
-0.0982362,0.0160625
-0.0434632,0.0114422
0.0240888,0.0145608
0.0643735,0.0141312
0.0529822,0.00223768
0.00662637,-0.003984
-0.042553,0.00358867
-0.0955649,-0.000685431
-0.104307,-0.0316594
-0.0724661,-0.0447075
-0.0241983,-0.0253174
0.0267404,-0.00424263
0.0510932,0.00571141
0.0306072,0.00120574
0.0166426,0.0280648
0.0294286,0.0470197
0.0318592,0.0110318
0.00926412,-0.00186666
-0.0117309,0.00190912
-0.010528,0.00568989
-0.00691619,0.00892897
-0.00390518,0.0178779
0.00391966,0.0147582
0.0089986,-0.0167443
-0.00480835,-0.0470751
-0.00791355,-0.0455529
0.00515839,-0.0300785
0.0475641,0.00390367
0.116581,0.0259188
0.140399,0.0132728
0.0809406,0.0134979
-0.0130112,0.0283699
-0.0989979,0.031078
-0.148143,-0.0193403
-0.145694,-0.0307027
-0.0684394,0.0233249
0.00448108,0.0222602
0.0291203,-0.0222278
0.0300053,-0.0191517
0.0157415,0.000371505
-0.00337039,0.0016551
-0.0255196,-0.00293974
-0.0225772,-0.00482138
-0.00516533,0.00156406
0.0218966,0.0126968
0.0460321,0.0199438
0.0333609,0.00132537
-0.00311735,-0.0115836
-0.0189894,-0.0079551
-0.0215567,-0.00714821
-0.0275218,-0.000654279
0.0415103,0.0105868
0.0632424,0.014868
0.0460376,0.0121547
0.0350316,0.0234301
0.0180471,0.0134808
-0.0123744,-0.00742495
-0.045505,-0.00769108
-0.0599457,-0.040043
-0.0700427,-0.0406615
-0.0499114,-0.0016232
-0.0199443,0.00702383
0.00113214,-0.0148966
0.0284511,-0.0191731
0.0460237,0.00362481
0.0540671,0.017272
0.0550663,0.00390008
0.0447954,0.0022008
0.0313384,0.021083
0.0124562,0.0058242
0.00576137,-0.0127598
0.000661543,-0.00380305
-0.0220115,-0.00450061
-0.0497983,0.00155558
-0.0715264,-0.0137626
-0.082848,-0.0258497
-0.0746354,-0.00649271
-0.0410952,0.0420243
-0.0150113,0.0193696
-0.0186797,-0.0157844
-0.0198811,-0.0211399
-0.0111096,-0.0182612
0.00757252,-0.00843512
0.0214129,0.00464216
0.047809,0.00759386
0.096291,-0.00218642
0.125724,0.0609042
0.130251,0.108815
0.126196,0.00349405
0.0763165,-0.0461317
-0.0175153,-0.0368741
-0.106422,-0.0282699
-0.167234,-0.0251344
-0.151099,-0.010607
-0.076698,0.00855262
-0.0177866,0.012467
0.0309278,-0.00639644
0.110632,-0.0219484
0.168597,-0.00705343
0.149255,0.0125803
0.0807097,0.0106734
-0.0163026,0.0215203
-0.116953,0.0202035
-0.138007,0.00607235
-0.096885,-0.00159785
-0.07501,-0.00503418
-0.0653694,-0.00805162
-0.0724108,-0.0173277
-0.0393888,-0.00379098
0.0089714,-0.0104118
0.0589874,-0.0254062
0.0581031,0.00888131
0.00898062,0.0537063
-0.0408705,0.0134808
-0.0688775,-0.0551411
-0.0731048,-0.0397276
-0.0422194,0.055592
0.0221951,0.063032
0.110127,-0.00083873
0.211638,-0.015711
0.247362,0.0128127
0.199923,0.0118651
0.110461,-0.0338982
-0.0181261,-0.0425734
-0.147612,-0.0310354
-0.201866,-0.0118047
-0.176108,-0.000573209
-0.0907693,0.0163975
-0.0290398,0.0282887
-0.0264842,-0.00244919
-0.0453828,0.00269768
-0.0526475,0.0164935
-0.0400081,-0.0136316
-0.0266945,-0.0249469
0.0143391,0.00552541
0.0635071,0.00710779
0.0641167,0.026036
0.0562549,0.0149309
0.0478139,-0.0149584
0.0290773,0.000634895
0.0102034,0.00575785
0.00349075,-0.00287531
-0.00817875,-0.00643657
-0.00427089,0.00248657
0.0191952,0.0325989
0.018575,0.0204864
-0.00313715,-0.0224273
-0.018611,-0.0256094
-0.0263268,-0.0131956
-0.0324761,0.00940622
-0.025549,0.00238134
0.0152925,-0.000308414
0.047226,0.00790515
0.0358437,0.00812909
0.0243992,0.00602916
0.0152998,-0.00374683
0.0018012,-0.0113526
-0.0176924,-0.0121018
-0.023779,-0.00626596
-0.0237887,-0.0118475
-7.44e-05,-0.00592765
0.0224615,-0.00173287
0.0109822,-0.0188096
-0.0150603,-0.0097908
-0.0263826,0.0276362
0.00649465,0.0199582
0.0545368,-0.0146617
0.0730893,-0.0220954
0.0769388,0.00213037
0.0489002,0.0197959
-0.0115791,0.0335471
-0.0496862,0.0140484
-0.0591469,0.0122568
-0.0358989,-0.0284399
-0.0140299,-0.0250836
-0.0124153,0.00208431
-0.0230555,0.000739816
-0.0210086,0.0052453
-0.0231266,0.00681881
-0.0404108,-0.00889472
-0.0474886,-0.01012
-0.0336642,-0.00774355
-0.0216388,-0.0190947
-0.0261961,-0.0093526
-0.0111552,0.0166166
0.0197644,0.0263973
0.0288448,0.0146811
0.0325371,0.0272847
0.0298867,0.0428847
0.0210951,0.00808951
0.00254091,-0.0333664
-0.00482902,-0.0273329
-0.00583143,-0.0202811
0.0019196,-0.0131038
0.0189723,0.000161134
0.018924,0.000188416
0.000859323,-0.00714687
0.000678615,-0.0161096
0.00291305,-0.010549
-0.00610954,-0.00012579
-0.0176475,-0.00637882
0.00306768,-0.00392411
0.0373233,0.00175203
0.0320007,0.00794913
0.0196169,0.00230366
-0.00240432,-0.00108226
-0.00526936,0.00504753
-0.00174002,0.00937518
-0.00540764,0.00260764
-0.0207469,-0.0113095
0.0025,0.0176513
0.0278546,0.026159
0.0167859,0.00368143
-0.0108756,0.00635743
-0.0236317,0.00848109
-0.0275297,0.00488783
-0.0312022,0.0049298
-0.0282512,-0.00444618
0.00307922,-0.0101163
0.0156782,-4.11e-06
0.00904955,0.00840293
0.0108279,0.0270677
0.00267317,-0.00237229
-0.00845554,-0.0330973
-0.0129934,-0.0221685
-0.00892555,-0.0145921
-0.0046663,-0.00416929
0.0212705,0.0177351
0.0329341,0.0281603
0.0117238,0.00323647
-0.00481698,-0.00722267
-0.0146723,0.00142853
-0.0199576,-0.0358968
-0.0293479,-0.0401265
-0.0165426,-0.00697812
0.00746755,0.0315713
0.0244514,0.051723
0.0363081,0.0365941
0.0309739,-0.0236127
0.0109109,-0.0114165
-0.00339098,0.0537273
-0.00201588,0.00740102
-0.0077838,-0.0629959
-0.00501737,-0.0305172
0.0141972,-0.0145302
0.00716682,-0.0111677
-0.0116966,-0.00466639
-0.0124798,0.000664163
-0.0279929,-0.00805179
-0.0551851,-0.0222369
-0.0409768,-0.0216944
-0.00549969,0.0276672
0.032892,0.0633919
0.0455488,0.0174899
0.0334006,0.0223974
0.0215002,0.00062307
0.0177176,-0.0344189
0.014614,-0.0183881
0.0135039,-0.0146663
0.00167943,0.00775037
-0.00386147,0.00911676
-0.0150704,0.000531869
-0.0275439,0.0111617
-0.0100358,0.0124346
0.00376444,0.0148581
-0.0139132,-0.0159777
-0.0441462,-0.0314464
-0.0419196,-0.0175092
-0.0247229,0.00524476
-0.0154412,0.0151602
0.00382417,0.0157213
0.0421011,0.0128358
0.0531313,-0.0100725
0.0292667,0.00889323
0.00479864,-0.00210563
0.00034546,-0.0317261
0.00567999,-0.0342955
0.0234501,-0.0189426
0.0366477,0.00655846
0.0230697,0.0154262
-0.00435917,0.0448235
-0.0157133,0.0310007
-0.0198729,-0.019169
-0.0446548,-0.0091468
-0.056686,0.0282902
-0.0303333,0.0301981
-0.0141551,-0.0108993
0.00525547,-0.0282927
0.0240717,-0.0163726
0.0183091,-0.0025329
0.00745548,-0.00399455
0.00673642,0.00919388
0.0054752,-0.0056841
0.0166438,-0.0158436
0.0381478,0.00189133
0.0338731,0.00736372
0.0121304,0.00231831
-0.00302429,0.00506367
-0.0225388,0.00742523
-0.0475691,0.00415183
-0.0536095,-0.0150639
-0.0161877,-0.010643
0.0204243,0.00139356
0.0213664,-0.00275222
0.0180313,0.00186713
0.0108354,0.00362799
-0.00387113,-0.00248284
-0.0200893,-0.00639516
-0.0234523,-0.00572022
-0.0232964,-0.013592
0.000519329,0.0055575
0.0284216,0.0413172
0.018018,0.0438248
-0.0082855,0.0103349
-0.0139823,-0.0141634
-0.0224027,-0.0180074
-0.0395601,-0.0126442
-0.0377631,0.00282406
-0.00185302,0.0195943
0.0437867,0.0131144
0.0429163,0.00575666
0.0249214,0.00361058
0.00306096,-0.0095243
-0.00525295,-0.01879
0.0142638,-0.0325566
0.0230075,-0.0267195
0.00858211,0.00346122
0.00693165,0.0444692
0.019275,0.00123458
0.00480685,-0.0541802
-0.00942118,-0.0346172
-0.0108357,0.0044737
-0.0202661,0.00939063
-0.0327693,0.00588318
-0.0161244,0.0104946
0.0182463,0.0199409
0.0219772,0.0114731
0.00532363,0.00605325
0.00253346,-0.00834884
0.0217648,-0.0246105
0.0117963,-0.0211963
0.00294051,-0.0021732
-0.0112816,0.0103106
-0.00872427,0.0311579
0.012194,0.0417393
0.000675848,0.0277402
-0.017307,0.0115009
-0.0188004,0.00880602
-0.0228631,-0.0003667
-0.0285739,-0.0374462
-0.0330114,-0.0484458
0.0101804,-0.00774772
0.0614614,0.0243864
0.065981,0.0125526
0.0643245,0.00466663
0.0391053,-0.000986628
0.00368711,-0.0119086
-0.0282046,-0.0127733
-0.0506452,-0.0126313
-0.0675899,-0.0216619
-0.0437285,0.00107992
-0.00714763,0.0215598
-0.00469137,0.00405479
-0.0193482,0.0148753
-0.0225064,0.0137665
-0.0323472,-0.0195847
-0.0485011,-0.0194085
-0.0312018,-0.012013
0.0198325,-0.00956364
0.0516016,-0.00965232
0.0495107,-0.018938
0.0433171,0.00108047
0.0279225,0.0390281
0.00258934,0.0432832
-0.00167747,-0.00341744
0.00505073,-0.0212125
0.0115079,-0.019409
0.0294445,0.0104127
0.0318716,0.0455629
0.00349872,0.0242307
-0.0184591,-0.000934872
-0.028287,-0.00100236
-0.0718862,-0.00681126
-0.0604596,-0.0366814
-0.0208951,-0.0117875
0.018391,0.0447432
0.0410395,0.0189128
0.0425538,-0.01434
0.0529585,-0.0126977
0.0402982,-0.0182574
0.00428974,-0.0181324
-0.00830736,-0.00655789
-0.0207659,-0.00698289
-0.00608878,-0.0183907
0.0291181,-0.0249348
0.029673,-0.00934265
-0.0152978,0.0246794
-0.0583748,0.0556406
-0.0693299,0.0360038
-0.0469439,0.0016128
-0.018878,-0.0328831
0.0147406,-0.0212423
0.0528239,0.00345218
0.0615788,-0.00615928
0.0411051,0.00513939
-0.0161,0.0305686
-0.0444318,-0.000144963
-0.0410783,-0.0144322
-0.0203487,0.000910291
-0.0186072,0.000620606
0.0139166,-0.00184876
0.0508719,0.00625299
0.0409877,-0.00458674
0.00892538,-0.0283236
-0.00598253,-0.026042
-0.00879499,-0.0105959
-0.0233933,-0.00728587
-0.0252037,-0.00680158
0.0121212,0.0165328
0.0362084,0.0482971
0.0202305,0.0539658
3.38e-05,0.0171257
-0.0169684,-0.0293522
-0.0279521,-0.0270757
-0.025372,-0.0111997
-0.0145788,0.00507735
-0.000282423,0.0151307
0.0347614,0.0123048
0.0399809,0.0299779
0.0103023,0.00577581
-0.0186846,-0.0307138
-0.0231645,-0.0221998
-0.0218813,-0.0145372
-0.0195681,-0.0183942
0.0137488,-0.0207381
0.0481506,-0.00682481
0.0335936,0.00340657
-0.000524392,0.0157979
-0.00223804,0.00793593
-0.000319686,-0.030745
-0.0206056,-0.0342372
-0.0277063,-0.0141472
-0.0685001,0.0248579
-0.0791336,0.0649426
-0.0226279,0.0510642
0.0390827,0.0304141
0.0620419,-0.000390538
0.0299404,-0.0385607
-0.0186584,-0.0658735
-0.0229039,-0.0380386
-0.00676252,0.0297022
0.00453561,0.0413377
0.00775397,0.0160442
-0.0144464,-0.0117071
0.0150215,-0.0156281
0.054558,-0.0108943
0.0450988,-0.0159176
-0.00465445,-0.00583863
-0.0132411,0.0198978
0.012363,0.0021685
0.0327395,-0.0260797
0.0331992,-0.0168672
0.00164554,0.0060431
-0.0249798,0.0308705
-0.0144623,0.0654609
-0.0184938,0.0555574
-0.0377818,0.0380186
-0.0225118,-0.0193414
0.0213697,-0.0420522
0.0336558,-0.0286486
0.00850288,-0.0302882
0.00712757,-0.0203811
0.00558425,0.0739308
-0.019897,0.0353843
-0.0272381,-0.0405577
-0.00348503,-0.0354044
0.00885255,-0.0422145
0.0445714,-0.0258083
0.0603521,-0.00546989
0.00744894,0.00111473
-0.0523354,0.00859553
-0.062049,0.0138322
-0.0459258,-0.0189065
-0.0294189,0.0246982
-0.0155157,0.0511792
0.00708939,-0.0124677
0.0330266,-0.000106594
0.0416316,-0.00185231
0.0278379,0.00341807
-0.00416756,0.00587031
-0.0455637,-0.00294535
-0.062369,-0.0225262
-0.0605872,-0.0211545
-0.0407299,0.00268969
-0.00321517,0.0229605
0.0246078,0.00560554
0.0408323,-0.00883708
0.0510211,-0.00764183
0.0289923,0.0283118
-0.000651588,0.0353134
-0.0101713,-0.0368839
0.0303882,-0.0648475
0.0561183,-0.0249543
0.000377651,0.0043359
-0.0435889,0.00925192
-0.0385942,0.0025593
-0.0203265,-0.00212414
0.00130634,0.011968
0.0262409,0.0348855
0.0251465,0.0366925
0.0287506,0.0148567
0.0452925,-0.0202545
0.0173722,-0.0181892
-0.0116816,-0.00751364
-0.0234145,-0.00844293
-0.0149948,-0.0090568
-0.00435769,-0.0374313
-0.00889261,-0.0335566
-0.00376603,0.00123957
0.0412205,0.0310981
0.0542499,0.0437284
0.0201986,0.0208494
-0.0220895,0.0439849
-0.0357038,0.0330484
-0.0236167,0.0242155
-0.00750547,-0.0013963
-0.0219094,-0.0370495
-0.00396431,-0.00562594
0.0391689,0.00759102
0.0565112,-0.00183282
0.0440028,-0.023761
0.019932,-0.046919
-0.0200504,-0.0405776
-0.0749077,-0.024261
-0.0827897,-0.0147833
-0.0306563,-0.00846917
-0.013588,0.0130528
-0.0198824,0.0228005
-0.0115311,0.0161726
-0.0124775,0.0298771
-0.0276552,0.00103968
-0.0178245,-0.0285657
0.0136942,-0.017179
0.0400323,-0.00136997
0.0613375,0.0188381
0.0525201,0.0265606
0.0290716,0.0467323
0.025307,0.0915044
0.0224027,0.0188773
-0.00327304,-0.0772744
-0.040942,-0.0614507
-0.0378109,-0.0168459
-0.00815777,0.0234432
0.0115807,0.00419685
0.0179684,-0.0133794
0.00342571,-0.0123934
-0.0219724,-0.0339216
-0.0674318,-0.0114141
-0.0570162,0.00484538
-0.0223221,-0.0213261
0.0114342,-0.00428074
0.0304225,0.0150995
-0.00363728,0.0211004
-0.0174906,0.0138071
0.0132901,0.0139682
0.0297849,0.0129688
0.0185724,-0.00915095
-0.00391873,-0.00233557
0.00647181,0.00943859
0.0377626,-0.0102676
0.0323586,-0.00538641
-0.00117447,0.0232274
0.000509892,0.0075136
-0.0166317,0.0601126
-0.0515293,0.0923303
-0.0272518,-0.0395326
0.0147204,-0.0907222
0.0475159,-0.0374406
0.0258293,0.00705293
-0.010044,0.0189959
0.011412,-0.00205547
0.0313893,-0.0319012
-0.00806293,-0.0343467
-0.0592575,-0.00788489
-0.0547367,-0.00186539
0.00164088,-0.00855648
0.0355116,-0.00768549
0.0377591,-0.00454729
0.0270802,-0.00932729
0.0145572,-0.0290372
-0.0115261,-0.0236033
-0.00788745,0.000196526
-0.00599018,0.0200101
-0.00570619,0.0453535
0.0263226,0.0676134
0.0124808,0.0556337
-0.0436159,0.00256095
-0.0652153,0.0118648
-0.0383343,0.0695304
0.01085,0.0246656
0.0408217,-0.0845388
0.0369829,-0.0617086
0.0343578,-0.0259629
0.0476038,-0.0107526
0.0154964,0.017452
-0.0126005,0.0195249
-0.0368304,0.00918144
-0.0895017,-0.0173651
-0.121439,-0.0228329
-0.114157,0.00894026
-0.0298822,-0.00930535
0.0674425,-0.00567198
0.103044,0.031429
0.112952,0.0134281
0.154786,-0.01328
0.118704,-0.0237369
0.0237111,-0.0052728
-0.0350226,0.00435184
-0.0141252,-0.0134189
-0.0166459,-0.00646249
-0.0433416,-0.00517928
-0.0653831,-0.00263161
-0.0611855,0.00891561
-0.0486567,0.0106191
-0.0350759,-0.0130406
0.018351,-0.0420045
0.0281708,-0.0341931
-0.0290324,0.0122925
-0.042442,0.0186297
-0.0288832,0.0166977
-0.0133536,0.0600815
0.0457391,0.0467924
0.0822303,0.0226662
0.0983056,-0.0201253
0.0665437,-0.0229391
0.00602516,0.0104245
-0.0343823,0.0139169
-0.0626582,-0.00593863
-0.0825899,-0.00312148
-0.0912804,0.00786862
-0.0541551,-0.0412561
-0.000436007,-0.0354251
0.0149007,-0.02235
0.00991139,-0.0209493
0.0242192,-0.0180484
0.0417982,0.0390054
0.0299671,0.076785
0.0144532,0.00721298
0.00520924,-0.00314605
-0.0034143,0.00604909
-0.00348892,-0.0351415
0.0170666,-0.0221114
0.0351895,0.00184698
0.0175104,-0.0019446
0.00785828,-8.51e-05
0.00790461,0.0249459
0.00310831,0.00902735
-0.0123217,-0.0311533
-0.0781214,-0.0113978
-0.113913,0.0685405
-0.0575667,0.0502837
0.0181948,-0.0248374
0.0494373,-0.0459991
0.0512141,-0.0150566
0.0153433,0.010232
-0.0141806,-0.020952
-0.0391384,-0.0168516
-0.0535571,0.00895269
-0.0161675,0.0371279
0.014967,0.0343814
0.0122801,0.0192865
0.0154564,-0.0117891
0.033725,-0.0491548
0.0429461,-0.0599411
0.0341831,-0.0268599
0.00029887,0.00787924
-0.00225285,0.0160179
0.050187,0.0338373
0.0713801,0.0575864
0.0595534,0.0507345
0.0432632,-0.0302036
0.0239199,-0.0523503
-0.0028558,-0.0278045
-0.100143,-0.0116408
-0.16511,0.0199533
-0.114436,0.0332741
-0.0622307,0.0121631
0.020625,0.000327114
0.102013,-0.00716705
0.120886,-0.0289532
0.0981427,-0.0526368
0.0619853,-0.0579733
0.00406674,-0.0207973
-0.0303922,0.0216526
-0.0243273,0.0498788
-0.00272417,0.041084
0.0111753,0.0173177
0.00856951,0.0182179
-0.00116962,0.00322758
-0.0360765,-0.0175685
-0.0745009,-0.0177146
-0.0338174,0.00521669
0.00116807,0.0504793
-0.0135,0.0373236
-0.0272906,-0.0226298
-0.0347705,-0.0320148
-0.0573761,-0.0272119
-0.0465605,-0.0233864
0.0164501,-0.000281658
0.0223166,0.0336538
-0.00445855,-0.0179633
0.0347325,-0.0262358
0.0697772,-0.0239478
0.0460264,0.0018745
0.000188993,0.00316004
-0.0182806,-0.0258327
-0.0262504,-0.00980772
-0.0693707,0.0401165
-0.085344,0.0376385
-0.0329431,-0.00320279
0.0618237,-0.0131743
0.0851109,-0.00699173
0.0667474,0.00719965
0.0213078,0.0508829
-0.00458695,0.079292
-0.00685426,-0.0200118
0.0130299,-0.0392478
0.0492525,0.0490143
0.0805525,0.0277622
0.101552,-0.0581216
0.0832228,-0.0589944
0.0413816,-0.0186536
0.00119564,-0.01554
-0.0747684,-0.012772
-0.157698,-0.0425077
-0.211793,0.00570724
-0.178602,0.0936533
-0.0729224,0.0680539
0.0353171,-0.058145
0.0826701,-0.072999
0.0436671,-0.0298467
-0.0430968,0.0118745
-0.0584665,0.00016174
-0.041644,0.00392344
0.0590109,0.0204755
0.142041,0.0271348
0.124088,0.0323233
0.090119,0.0241943
0.150648,-0.0115228
0.0855122,0.0070304
-0.0262513,0.014092
-0.0473408,-0.00628903
-0.133712,-0.00641831
-0.212587,-0.0123065
-0.167859,0.0240532
-0.0809034,0.0458891
-0.0525638,-0.0153354
0.0197825,-0.0355915
0.105859,0.00337253
0.0854181,-0.0223456
0.0660362,-0.0733309
0.0747948,0.00616496
0.0616826,0.0771832
0.0378578,0.0817877
0.034733,0.0254602
0.0262779,-0.0669086
0.00952036,-0.0580141
0.0226161,-0.042002
0.027548,-0.0143909
-0.00985133,0.00744387
-0.0239174,-0.00717034
0.0143604,-0.0246118
0.00913687,-0.0243592
-0.0301638,-0.0262318
-0.045195,-0.0242306
-0.0845073,0.0127353
-0.131275,0.0474673
-0.10267,-0.00630431
-0.0146857,0.0080344
0.0201671,0.032754
-0.0380995,0.0223108
-0.0334858,0.00215587
0.0268732,0.00429801
0.0303526,0.0110682
0.00873979,0.0213585
0.0591446,0.0144017
0.150849,-0.0059887
0.140135,-0.00183478
0.0467104,0.0390213
-0.0175088,0.0339369
-0.086632,0.0188343
-0.078154,-0.0384496
-0.0519177,-0.0299727
-0.0574605,0.00322475
-0.00130475,-0.0606611
0.00763146,-0.0699435
-0.0202285,-0.00528407
0.0335611,0.0256305
0.0579697,0.0439954
0.0358338,0.0404422
0.0341811,0.00671455
0.0452309,-0.00815592
0.0418171,0.0485573
0.0162495,-0.0111622
-0.00967309,-0.0862915
0.0120027,-0.0442448
0.0298783,-0.0141592
0.00842124,-0.0126826
-0.00606854,0.0182521
-0.0660979,0.0704679
-0.0644267,0.0485036
-0.00627445,0.0671046
0.0482654,0.0628546
0.101495,-0.0417091
0.117939,-0.12671
0.0314606,-0.0622982
-0.114007,0.0678193
-0.157463,0.106117
-0.0686698,0.00862829
-0.0378643,-0.0891805
-0.0826862,-0.0542515
-0.0852522,0.00733968
-0.0994408,0.0073323
-0.0509509,-0.0497239
-0.00134601,-0.0199477
0.0323815,0.0370639
0.0557872,-0.0298262
0.0663222,-0.0513707
0.0750199,0.000392479
0.0650025,0.00779858
0.0313133,0.0393952
-0.00547094,0.023459
0.000657404,0.0225992
0.0561301,0.0601159
0.0732069,0.0183938
0.0456124,0.0207577
0.0151565,0.00243024
-0.0482035,-0.00211556
-0.0870632,-0.00869582
-0.0918705,-0.0268947
-0.0580197,-0.00111624
-0.0421969,-0.0299226
-0.0507654,-0.019558
0.0112951,0.0628766
0.11731,0.0196946
0.0810626,-0.00666751
-0.0089981,0.0306291
-0.0425633,-0.0125355
-0.00441429,-0.0449393
0.0372828,-0.0350626
0.05051,-0.0815333
0.000454087,-0.0827378
0.000378695,-0.00250926
0.00245984,-0.00879992
-0.0833491,0.0429441
-0.0920685,0.0611865
-0.000847932,0.0439714
0.0551293,-0.0247806
0.0615265,-0.0542091
0.110115,0.0118295
0.160111,0.0604004
0.113031,0.0688542
0.00329197,0.0296709
-0.0553061,-0.0258848
-0.0044165,-0.0397652
-0.0310604,-0.0244491
-0.14462,0.0165676
-0.216822,0.0602523
-0.159403,0.0731015
-0.0696401,-0.00556069
-0.0457852,-0.0894168
0.0155094,-0.0268933
0.0662931,0.0712444
0.0772851,0.0473593
0.0570969,0.0362683
0.0249415,-0.0276443
0.00178153,-0.0322
0.030939,-0.0355138
0.0934369,-0.0844964
0.0825018,-0.0317705
0.0596794,-0.0131325
0.0806353,-0.0275323
0.0192212,-0.0487162
-0.092008,-0.0280532
-0.0531872,0.0480038
0.099635,0.0362724
0.121988,-0.0239978
-0.00711003,0.0564088
-0.0678597,0.0884717
-0.0833411,-0.0020458
-0.0879419,-0.0506703
-0.100656,-0.0419056
-0.101672,0.031317
-0.0800165,0.0834217
-0.0074536,-0.00872671
0.00217265,-0.068428
0.0213007,-0.0428758
0.0627759,-0.00677133
0.161356,0.0318645
0.172304,0.0971316
0.0285979,0.0186154
-0.0642935,-0.0271559
-0.0168626,0.0196623
-0.0187086,-0.00169289
-0.0256039,0.0239654
-0.00694815,0.0424774
-0.0496874,-0.0470935
-0.093458,-0.0521218
-0.0762868,-0.000870341
-0.0210112,0.00175105
0.0296254,0.00927835
0.0240213,0.0290511
-0.0362663,-0.0492498
-0.0822126,-0.0466986
-0.0584677,-0.0265503
-0.00781215,0.000202241
0.0626653,-0.0021577
0.0843471,-0.0143653
0.0248172,-0.00486234
0.00695003,-0.00468219
0.0539947,0.0646617
0.0617918,-0.000828786
0.022867,-0.0327679
0.00471751,-0.0282108
0.0161041,-0.0308665
0.0091852,0.0175917
-0.00646426,0.0103861
-0.00089512,-0.00555379
0.070597,0.0188017
0.0151751,0.0981337
-0.0935955,0.0655902
-0.103089,0.0139987
-0.156202,-0.0172164
-0.160967,-0.0486214
-0.045306,-0.0429155
0.0570016,0.00207167
0.104133,0.118796
0.172857,0.0848265
0.177837,-0.0924049
0.0597029,-0.0462798
-0.0369338,-0.0441165
-0.0629293,-0.0555698
-0.0467072,0.0077193
-0.00683595,0.0147052
0.0441351,0.00580456
0.0752419,0.00303682
0.0195884,0.0232566
-0.0524907,0.0236095
-0.049489,-0.0068805
-0.0503462,-0.0008984
-0.0361635,-0.0502812
0.0393237,-0.0652562
0.0965582,-0.026132
0.084242,-0.00178811
0.0204621,0.0489941
-0.0042993,0.0239583
0.00386606,0.000400836
-0.0567969,-0.0128275
-0.10277,-0.0252312
-0.102834,-0.0351904
-0.0714625,0.0132995
0.0539719,0.0418357
0.135851,0.00740295
0.138445,-0.0225113
0.0749879,0.00151236
0.0011569,0.0503659
-0.093629,0.0131475
-0.15931,0.00876431
-0.113021,0.00961295
0.0274309,0.0264387
0.0988078,0.0147129
0.0433493,-0.0384363
-0.0490626,-0.0526025
-0.0788977,-0.011854
-0.0758254,-0.00226304
-0.011714,-0.0121463
0.110631,-0.0206022
0.112428,-0.0170811
0.0625709,0.0171303
0.0107613,0.034824
-0.0528896,0.054464
-0.0654407,0.0453511
-0.0648329,0.0214903
-0.0793497,0.00294612
-0.0533507,-0.0299716
-0.0460766,-0.0108136
-0.106779,0.0351241
-0.0645307,0.0042606
0.0362221,-0.0355346
0.0920508,-0.0320929
0.0805154,-0.0230424
0.068509,-0.0187155
0.051209,-0.0236339
0.0503253,-0.0155674
0.0547944,0.00285006
0.0445476,0.00320667
0.0467619,0.0413308
0.0225753,0.11853
-0.000730079,0.058355
-0.0210739,-0.0447246
-0.0394696,-0.0204942
-0.0184719,0.0332739
0.0102444,-0.0368309
-0.0417273,-0.0853889
-0.145082,-0.0348989
-0.123714,0.000589021
-0.0138864,-0.00105843
0.0185306,-0.0357322
0.0695254,-0.0373864
0.0891853,-0.00162445
0.0439787,0.0154876
0.0120983,0.0284539
-0.0177341,0.0279873
-0.0241175,-0.00567648
-0.00573359,0.033607
0.00039489,0.0456935
0.0173826,-0.0215179
0.0131435,-0.0284531
-0.00444574,-0.0308541
0.00934604,-0.0274589
-0.049572,-0.00472444
-0.0381533,0.00265832
0.0346714,-0.0229578
0.0148022,-0.0208054
-0.0379883,0.0304122
-0.0145457,0.0514604
0.0455492,0.0444156
0.0390016,0.0149335
-0.0427084,0.0241232
-0.0337632,0.00638955
-0.0603281,0.0178881
-0.0966212,0.0151274
-0.00706246,0.0152135
0.168514,0.0047366
0.199941,-0.0277619
0.133605,-0.0410301
0.11613,-0.0446806
0.0696329,-0.0137041
-0.034472,0.0129668
-0.0676178,-0.0101372
-0.0249045,-0.0212698
-0.0420308,-0.004801
-0.0892858,0.00765665
-0.105497,0.0137415
-0.0865777,0.0212403
-0.0574653,-0.00412171
-0.0625337,-0.0174972
-0.0323666,0.0106592
-0.00955161,-0.00882102
-0.0056055,0.102121
-0.0104479,0.147785
0.011775,-0.0673243
0.0503797,-0.126401
0.0222072,-0.0907933
-0.00277527,-0.0506245
0.0278767,0.0143896
0.0441103,0.0200902
-0.00757649,0.0273048
-0.0189923,0.0264729
0.0164563,-0.0128829
0.0334333,-0.00414699
0.0163647,0.0452072
-0.0138708,0.0115392
-0.0223029,-0.0270362
0.0069557,-0.0280352
0.0223787,-0.0156955
0.0338596,-0.00608509
0.0514695,-0.00635469
0.0763402,0.00173818
0.100776,0.0276162
0.0670346,0.0493362
-0.0207971,0.0109404
-0.0793304,-0.0271766
-0.106425,0.00841222
-0.109005,-0.0441324
-0.0971335,-0.0390111
-0.0682243,0.0159366
-0.00565471,0.0333299
0.0628015,0.032412
0.0861842,0.00824165
0.0089063,-0.0209079
-0.00331671,-0.0261339
-0.00927976,0.00637879
-0.036797,0.0138523
-0.00665396,-0.0298979
0.0125162,-0.00115007
-0.00720101,0.0281145
0.00698717,0.0133335
0.0412153,-0.0122926
0.0264132,-0.00610462
0.000399853,0.000284606
-0.0152846,0.00173306
-0.0376294,0.00593193
-0.0658354,0.0079337
-0.0972677,-0.00184909
-0.0437365,0.018672
0.0972339,0.0824664
0.164354,0.00638287
0.0817988,-0.0394397
-0.0595718,-0.0146404
-0.132148,-0.0189308
-0.0737896,-0.0329348
0.0406656,-0.016706
0.0660716,-0.00240121
0.0582189,-0.0145741
0.0200852,-0.0183245
0.0513111,-0.0200042
0.063591,0.0191214
0.069114,0.0132981
0.0345465,-0.0130272
-0.0487178,0.0305234
-0.0354753,0.0554035
-0.0275566,0.0463618
-0.0306897,0.0125844
-0.0361825,-0.0237491
-0.050788,-0.0272405
-0.0564276,0.00118173
-0.0501681,-0.0143862
0.00441753,-0.0323408
0.0550681,0.00722401
0.0704997,0.00225776
0.0651683,-0.00878115
0.0293974,-0.0181857
-0.032856,-0.0111405
-0.06198,0.00505012
-0.0669583,0.0176284
-0.0608072,0.0116211
-0.0498728,-0.014169
-0.0449722,-0.0179485
-0.052492,-0.00136671
-0.025669,-0.00381941
0.0330472,-0.0180151
0.0529751,0.0013007
0.0350668,0.0194879
0.00188384,0.0276177
0.00621096,0.021646
0.0750798,-0.019043
0.0800633,-0.0226842
0.0493617,-0.0153257
0.0430273,-0.00272722
0.00448584,0.00888679
-0.0415013,0.010101
-0.0401182,-0.0132738
-0.00637913,-0.00927824
0.0131197,0.00863199
-0.0156466,0.017882
-0.0177396,-0.000493758
-0.0127934,-0.0215988
-0.0150564,0.00187695
-0.0051029,0.0364375
0.0149978,0.0402646
0.0606772,0.00979453
0.0456913,0.0295354
0.00782626,0.0367126
0.0193119,0.00288832
0.0102032,-0.0198065
-0.0443898,-0.0348699
-0.0817908,-0.0508809
-0.0769899,-0.0332543
-0.0549853,0.00222078
-0.0220971,0.0122032
0.0191653,-0.0256727
0.0226159,-0.00293919
-0.0195534,0.0241816
-0.00155568,0.00348529
0.0334897,0.00437481
0.00496031,-0.0412939
-0.0785684,-0.0128004
-0.0619133,0.0227973
0.053705,0.0044127
0.127074,0.0190437
0.124927,0.0327007
0.122018,0.0270261
0.108125,0.0330735
0.0590585,0.0290894
-0.00749661,-0.0105521
-0.0621244,-0.0186809
-0.0567877,-0.0189246
-0.0833638,-0.0144922
-0.119881,-0.0273707
-0.101554,-0.0395994
-0.065481,-0.0609656
-0.0353648,-0.00468772
-0.0152201,0.0375654
0.0283867,0.012429
0.0662566,0.0156577
0.0611875,0.010198
0.053331,-0.00321557
0.0417692,0.0110133
0.020431,0.0127797
-0.0210551,0.0184179
-0.0574499,0.00271788
-0.0923428,-0.0144339
-0.0749249,-0.0180561
-0.0072484,-0.0173606
0.0223385,-0.0317242
0.0184648,-0.0452234
0.00086047,-0.0546974
0.0159884,-0.0290405
0.0452148,0.0112477
0.0384408,0.0379666
0.0302637,0.0411101
0.0272717,0.0356932
0.0225514,0.0386658
-0.0125941,0.0449063
-0.0369164,0.03815
-0.0590809,0.0100565
-0.0328767,-0.0263106
-0.00674064,-0.0279498
-0.0325234,0.071933
0.00186648,0.0448031
0.0470056,-0.0910706
0.0283311,-0.0513473
0.0268856,0.0226937
0.0462806,0.0178383
0.0368309,-0.0203671
0.00298213,-0.00875601
-0.00750974,0.0304354
-0.0067034,0.0314757
-3.73e-06,-0.0134222
0.00878176,-0.00807388
0.0156625,0.00799413
0.0107781,0.00117328
-0.0184665,-0.0401717
-0.0431319,-0.068066
-0.0401676,-0.0064254
-0.0277457,0.0351279
0.00545858,0.0190147
0.022346,0.0133963
-0.0112199,0.00656275
-0.0199166,-0.00479102
0.0177231,-0.0404529
0.00814145,-0.0407931
-0.0191533,0.0250103
0.00631677,0.0028291
0.0273599,-0.00606385
-0.0246553,0.0149805
-0.0325824,-0.00444195
0.0299121,-0.0160754
0.0546664,0.0313907
0.0233136,0.0288151
-0.00430706,-0.00324053
-0.00547826,-0.00170943
0.0658696,0.0162921
0.0727281,0.0156401
0.0271597,-0.0442478
-0.0135579,-0.0411645
-0.0566095,-0.0121076
-0.0915348,-0.055295
-0.0616748,-0.0221175
0.0317019,0.0549522
0.0401291,0.0591509
0.00139077,-0.00123368
-0.0255793,-0.0147493
-0.0509751,0.0073338
-0.0444069,0.0221082
-0.0140602,0.0263916
-0.00479777,0.03404
-0.0633953,0.0125548
-0.105905,-0.0288985
-0.0712146,-0.0311599
-0.00130215,0.0105511
0.0334953,0.0396954
0.0657997,0.0159056
0.0785167,-0.0172804
0.0788577,-0.0484081
0.088542,-0.068348
0.0732352,-0.0150581
0.0516685,0.0172184
0.0301607,0.0385598
0.0160136,0.10445
-0.000950482,0.126599
-0.0257057,-0.0225488
-0.0414517,-0.0472896
-0.0455294,-0.0295565
-0.0662523,-0.0118268
-0.0371672,-0.0427323
0.0278601,-0.104994
0.0154267,-0.0606797
-0.056976,0.00853267
-0.0792344,0.0514271
-0.0320112,0.0348186
0.00306542,0.0107414
0.0244837,0.00521404
0.0486408,0.0171743
0.0425113,0.0229545
-0.00424062,0.00837358
0.0268057,0.0175139
0.0797901,0.0209239
0.0767195,-0.0228311
0.0688308,-0.0436804
0.00993577,-0.0329129
-0.0465477,-0.0449137
-0.0586632,-0.0372247
-0.0538654,-0.00585322
-0.0753479,-0.00226223
-0.0777006,-0.00264978
-0.0175239,0.00100158
0.0407158,-0.00678144
0.0593635,0.000332919
0.0485831,0.0353647
-0.00899711,0.00835368
-0.0458871,-0.0195684
0.025641,-0.0240488
0.0818603,-0.016033
0.0452446,0.000693344
-0.0420739,0.0471265
-0.0797759,0.104085
-0.0429348,0.0584053
0.00770925,-0.0143542
0.0107648,-0.0312318
-0.020658,-0.00243852
-0.00156453,-0.00761272
-0.0226421,0.00653847
-0.0507677,0.038741
-0.072431,0.0150695
-0.108097,-0.0153353
-0.0796021,-0.00859875
0.0261732,-0.00018025
0.129514,0.0480387
0.14265,0.0326673
0.0905782,0.0263164
0.041469,0.0122399
-0.0376407,-0.0393892
-0.0340522,-0.0648054
0.0453448,-0.0930855
0.0414197,-0.0299352
0.0441034,0.0645744
0.0459472,0.0383563
0.0205205,-0.0414146
0.036086,-0.0311477
-0.0103753,-0.00998619
-0.0765506,0.0108015
-0.0961853,-0.0235458
-0.0670965,0.017208
0.0103525,0.034991
-0.0121237,-0.0483706
-0.100553,-0.0813957
-0.0616352,0.000434003
0.0149915,0.0124793
-0.00456309,-0.0371562
-0.0420288,0.00460344
-0.0363629,0.0507552
0.0411323,0.0505848
0.112045,0.0327266
0.114399,0.018131
0.081536,0.0109212
0.0235405,0.00644907
-0.00834487,-0.00385664
0.0203821,-0.0261925
0.0215706,-0.035695
-0.00180434,-0.00690894
-0.00601737,0.00416436
-0.0226933,-0.005298
-0.0217444,-0.00757427
-0.0664237,-0.00397021
-0.115823,-0.0139118
-0.0718033,-0.0180027
-0.0150466,0.00738677
0.00622616,0.0326495
0.0415284,0.0478556
0.0674303,0.0186746
0.059769,0.0166786
0.0689179,0.0242026
0.0312847,0.0392819
-0.0154585,0.00348011
-0.036277,-0.03073
-0.00580594,0.00438581
0.0232746,0.00931048
-0.00776131,-0.0262736
-0.0079232,-0.0252774
0.0150361,-0.0142761
0.0197298,0.00289956
-0.0130079,-0.00343388
-0.038488,-0.0117462
-0.0429073,-0.00862229
-0.0231848,0.00885013
-0.0120365,0.00482469
-0.0343286,-0.00140138
-0.068026,0.0141595
-0.0480935,-0.0284168
-0.000720287,-0.0262319
-0.00645922,-0.00386771
0.0141285,-0.0248104
0.0408927,-0.0293115
0.0293363,0.00757129
0.0378169,0.00495476
0.0367353,0.00519615
0.047515,0.0186014
0.0436463,0.0338819
0.0290629,0.0380837
0.0355184,-0.0156718
0.0210111,-0.0133216
-0.0305437,0.0206853
-0.0249729,0.0226546
0.00134397,0.00566288
-0.0391325,-0.0174229
-0.055559,0.00261806
-0.016967,-0.0153484
0.0086019,0.0240757
0.0129923,0.0179004
0.019246,-0.0394927
0.036858,-0.0240786
0.00665677,-0.0176826
-0.0444534,0.0129617
-0.0479007,0.0182517
-0.0251493,-0.001835
-0.0107944,0.000623411
-0.0102884,-0.00248796
0.00150932,-0.0124537
0.0361211,-0.00526105
0.0527364,-0.00604262
0.0376167,-0.00374899
0.0450058,-0.0116659
0.0195597,-0.012495
-0.0440629,-0.0261865
-0.0975124,-0.0401941
-0.0371537,0.00701971
0.0604178,0.0311226
-0.00822774,0.0050371
-0.0605293,0.0136361
0.0590967,0.0322112
0.0615772,0.0403842
-0.0382274,-0.0185137
-0.135309,0.00548783
-0.148144,0.0938804
-0.0716204,0.0486934
0.05133,-0.0278295
0.109845,-0.0264928
0.117338,-0.0437745
0.10884,-0.0415892
0.0941112,-0.024509
0.0560289,0.00442484
-0.00541117,0.0211727
-0.014579,0.0193829
0.00545918,0.0155272
0.0121528,0.00999759
-0.0198834,0.0057486
-0.0544954,-0.0191763
-0.0559961,-0.0325727
-0.0351028,-0.0191429
-0.0223479,-0.00378603
-0.0192323,0.00651093
-0.0390259,0.00175941
-0.0492222,-0.014429
-0.0415122,-0.0252623
-0.030493,-0.0272159
-0.0327171,0.00274035
0.0353156,0.033583
0.0723651,0.0199206
0.0331936,-0.00752423
0.0180929,0.00158939
0.00787371,0.0203897
0.00586569,0.0181876
0.0234317,-0.0101417
-0.00439136,-0.00964774
-0.0148169,0.0107652
-0.0101573,0.0114062
0.0464534,-0.00268461
0.0825534,-0.0212604
0.0905248,-0.0227945
0.115631,0.00272766
0.0484351,0.0375731
-0.0695911,0.0345949
-0.0814602,-0.00158402
-0.0660391,-0.0274626
-0.0768423,-0.0281936
-0.0577562,-0.00779995
-0.0329812,0.0198546
-0.0284074,0.00932614
-0.0119806,-0.0145025
-0.0230915,-0.0174979
-0.0704103,-0.00924
-0.0574608,0.0101583
-0.0326296,0.00958728
0.0218088,-0.0112482
0.0713683,-0.0196849
0.0534186,0.0238379
0.00571179,0.074665
0.0383882,0.0355871
0.109471,-0.0174064
0.125238,-0.0421873
0.031987,-0.0343691
-0.0688079,-0.00445443
-0.0805795,0.0289029
-0.0281858,0.00259224
0.0164606,-0.0368678
-0.00710261,-0.00879196
-0.0387641,0.015674
0.0150049,0.0103039
0.0457858,-0.00410314
-0.000665819,-0.0177671
-0.0449615,-0.0162264
-0.0503294,-0.0164705
-0.00625095,-0.0175938
0.00507451,-0.0172743
0.0455601,-0.00726755
0.0958841,0.00831422
0.0631811,-0.00394853
-0.0501956,-0.0113131
-0.133381,0.0410176
-0.119222,0.121097
-0.0276421,0.103091
0.0819654,-0.034973
0.0979577,-0.0664003
0.0472132,-0.0123128
0.0659768,0.0105555
0.0676776,0.00522986
0.0229414,0.0194028
-0.00350156,0.00583516
-0.0160382,-0.00472463
-0.0288089,0.0016435
-0.042146,-0.0198375
-0.0584015,-0.0181049
-0.0851806,0.00619949
-0.0999896,-0.00114268
-0.0789126,0.00753608
-0.0606151,-0.0388376
0.00821315,-0.0400855
0.0620674,0.00435854
0.0563699,0.0260645
0.0614903,-0.024695
0.0664173,-0.0552828
0.0709014,-0.035138
0.0595793,-0.0136269
0.0153762,-0.0102326
-0.0277065,-0.00624646
-0.0266109,0.022199
0.00925136,0.0619193
0.0158125,0.00971177
-0.0410306,-0.046909
-0.0624867,-0.0207558
-0.0392464,0.00910498
-0.0523929,0.0225061
-0.0491539,0.0634208
0.00881767,0.0487565
0.0476936,-8.35e-05
0.000543946,-0.00146108
-0.043481,0.0111763
-0.0641257,-0.005965
-0.00704011,-0.0588153
0.074507,-0.0228973
0.104589,0.00714031
0.0826671,0.0474627
0.0312764,0.0493268
-0.00638926,-0.011479
0.00240325,-0.0257495
0.0185307,-0.0154909
0.00978299,-0.0294497
0.0112273,0.00631028
0.0247326,0.0109945
0.0167407,0.00103343
-0.000167604,0.0191326
0.0163697,-0.00897625
-0.00923428,-0.0262876
-0.0930477,-0.00654908
-0.145404,0.020992
-0.129819,0.0415464
-0.0687047,0.00590032
-0.0259978,-0.0156502
0.0521741,0.025513
0.10349,0.0302166
0.0748214,-0.00505528
0.0371799,-0.0112275
0.00815508,-0.00774682
-0.0381183,-0.0254657
-0.114266,-0.0469121
-0.0129317,-0.0471282
0.157687,-0.011071
0.197525,0.0176939
0.145983,0.0217467
0.107519,0.0392328
0.0696717,0.0518862
0.00545682,-0.0271594
-0.0577236,-0.041233
-0.143908,-0.0250726
-0.189815,-0.00876612
-0.163452,-0.00100048
-0.119192,-0.0172392
-0.109938,0.000194027
-0.111147,0.0347969
-0.083138,0.0145763
-0.0264679,-0.0199317
0.0223468,-0.0274537
0.0496296,-0.0512125
0.0873965,0.0245042
0.0981291,0.148247
0.0965456,0.0645534
0.0772314,-0.040466
0.0281348,-0.0325922
0.00871328,-0.00699449
0.0266787,-0.0121643
0.0856384,-0.0263951
0.127739,0.00982236
0.0719354,-0.00893024
-0.00203637,-0.0302493
-0.0492246,-0.00230211
-0.131547,0.00566801
-0.150272,-0.00580055
-0.10669,-0.037244
-0.0180702,-0.0547668
0.065616,-0.0108206
0.0445236,0.0525372
0.0313993,0.0373082
0.0547251,0.00825451
0.0513037,0.0128445
0.0253077,0.00886386
-0.0149017,0.00443164
-0.0422552,-0.000574006
-0.0296078,0.000138935
0.0280758,0.0216104
0.0350775,0.0528887
-0.00290624,0.00096246
-0.0225967,-0.0459762
-0.00936391,-0.0155624
0.00617761,-0.000142619
-0.0216305,0.0113239
-0.0587417,-0.0105463
-0.0626125,-0.00894026
0.0155016,-0.00505325
0.0731975,0.00432451
0.0492534,0.0260817
-0.0173473,-0.0186496
-0.0689726,-0.0331383
-0.052197,-0.0291837
-0.00855699,-0.00845022
0.0268635,0.0152786
0.0731742,0.0157825
0.0825591,0.0136168
0.0578443,-0.0013206
0.0305985,0.0270554
-0.0120172,0.0389826
-0.0355646,-0.00922435
-0.0405219,-0.024574
-0.0274241,-0.00942866
-0.00277238,-0.000963818
-0.0179493,0.0106804
-0.0898669,0.0238735
-0.111841,-0.021227
-0.0535442,-0.0491597
-0.0143754,-0.0264075
-0.00326339,0.0130308
0.0182174,0.0333669
0.0495523,0.0192766
0.0529628,0.0342781
0.0586514,0.00483854
0.0955722,-0.0383473
0.0845337,0.00370941
0.0355737,0.0412517
-0.03362,-0.00985162
-0.0385951,-0.0426631
0.0155369,-0.0400662
0.0456473,-0.0178855
0.0350685,-0.00115808
0.0332801,0.01385
0.0194662,0.0107208
0.0133602,-0.00405863
-0.0485855,-0.00850244
-0.129359,0.00655331
-0.115538,0.0035275
-0.0628314,0.01464
-0.0617614,-0.00233916
-0.0560713,0.00431768
0.0331728,0.026355
0.0784175,0.0139919
0.0434959,-0.000971306
0.0202335,-0.011402
0.0700159,-0.00452412
0.110476,-0.000377877
0.0704313,-0.0147685
-0.00169053,-0.0330014
-0.0271524,-0.0370332
-0.0241213,0.00580623
-0.0432015,0.0678547
-0.0730821,0.0206002
-0.0529634,-0.00697991
-0.00690683,0.0229335
0.0252792,0.0239154
0.0250524,-0.000256965
-0.0156413,-0.0291041
-0.0575273,-0.0148825
-0.0181504,-0.00120898
-0.0163886,-0.00805186
-0.0573683,-0.0223129
-0.05805,0.00399074
-0.0211414,0.0386916
-0.0305949,0.0293434
0.00688723,0.00719159
0.0558561,-0.00156778
0.0562335,-0.010498
0.0337483,-0.0208105
0.0310029,-0.0170196
0.0495085,-0.00797119
0.0410151,-0.0328219
0.0466155,-0.0348344
0.0456352,-0.00959416
0.0172402,0.000409093
0.0107017,0.0203029
-0.000495542,0.0349715
-0.0127945,0.00344077
-0.00830642,-0.00507711
-0.0118924,0.016596
-0.010538,0.0146465
-0.0034151,-0.0106337
-0.0203581,-0.00734943
-0.0382778,-0.0017148
-0.0566122,-0.0313396
-0.116991,-0.0580536
-0.170105,-0.0223371
-0.116062,0.0410334
0.0624272,0.0486833
0.162977,0.0311283
0.180055,0.0430589
0.118932,0.0317935
0.0707285,-0.00891226
0.0417707,-0.0117516
0.00205557,0.00345833
-0.00168206,-0.00179358
-0.0350061,-0.00399088
-0.0748843,-0.0107692
-0.0656189,-0.0306713
-0.0597229,-0.0299648
-0.0209025,-0.00970321
0.028392,0.000305502
0.0469789,0.00963068
0.0194411,-0.00486847
0.0184095,-0.021331
0.0411541,0.0607774
0.0315952,0.108457
-0.0205392,0.0143532
-0.040472,-0.0547805
-0.048185,-0.0481779
-0.0463884,0.00331231
-0.0202226,-0.00383407
0.0027986,-0.0360946
-0.0109432,-0.00726228
-0.0159837,0.00130717
0.0197745,-0.00934708
-0.00134608,-0.00630528
-0.0159201,-0.00763347
0.0501779,-0.0126804
0.0476992,-0.00818737
-0.0303162,0.00299262
-0.055034,0.00778205
-0.00341033,0.0131096
0.00641924,0.0148705
-0.0116274,0.00208047
0.00729147,0.0091077
0.00499319,0.00838701
-0.0482998,-0.0130667
-0.057437,-0.0156947
0.0348147,-0.0011344
0.0713803,0.00655398
0.0404658,0.00195302
0.0435419,0.00980588
0.045107,0.0615487
0.0461861,0.00846395
0.00924295,-0.0356566
-0.0303203,-0.0124538
-0.0513448,-0.0154409
-0.0320023,-0.0177191
0.00281434,-0.00966179
-0.00375882,0.00593627
-0.0174362,0.0143042
0.00555234,-0.0204142
-0.00856534,-0.00203661
-0.0600667,0.00610056
-0.0232398,0.00804082
0.072601,0.00385338
0.0709482,-0.00330731
0.033909,-0.0256453
-0.00240143,-0.00886148
-0.0250426,0.0167971
-0.0458904,0.00428397
-0.0550717,0.00726289
-0.0388863,0.0134496
-0.0284764,0.00894532
-0.00835284,0.0211006
0.01923,0.0221583
-0.00965769,0.00617574
-0.0613186,0.0227666
-0.0305513,0.000297597
0.0494966,-0.0290871
0.087942,-0.03298
0.0993796,0.00331287
0.0704181,0.0392292
0.0126213,0.0311767
-0.0162635,-0.0133828
-0.0651373,-0.0381564
-0.0770087,-0.0476137
-0.0514772,-0.011631
-0.0167313,0.000153144
0.0390514,-0.0388246
0.0688044,-0.0203476
0.0546302,-0.00445525
0.0287268,-0.015723
0.0136503,-0.0157779
-0.0284076,0.067243
-0.0613939,0.0570429
-0.0563563,-0.0389986
-0.00412295,-0.03082
0.00808001,0.0198174
0.0265614,0.0292792
0.0348741,0.0248086
-0.0102019,0.0177806
-0.0599056,0.00768318
-0.044285,-0.00631829
-0.0227316,-0.0174305
0.000713768,-0.00986916
0.0183949,0.00270544
0.0475377,0.00661156
0.0366642,-0.00153916
0.0394816,0.0155326
-0.00499874,0.0226889
-0.0812947,-0.00402691
-0.0913384,-0.00935373
-0.0275288,-0.003082
0.0221884,0.000130512
0.0663806,0.000415816
0.0933015,-0.00708959
0.0167713,-0.0216724
-0.0182563,-0.0375953
-0.0414693,-0.0262498
-0.0610239,-0.000232996
-0.038607,0.0112737
0.018348,0.0315284
0.142692,0.0174307
0.195949,0.00766961
0.141442,0.0107618
0.0365383,0.0191578
-0.079322,0.0121144
-0.111125,-0.00816375
-0.0786998,-0.020468
-0.100592,-0.00273913
-0.0861747,0.00886308
-0.012295,0.00730601
0.012212,-0.00183513
0.00476506,0.00133973
-0.0333645,0.00285465
-0.0711477,-0.00138059
-0.0623315,-0.0189815
0.0072177,-0.0311226
0.06518,-0.0244768
0.0362902,-0.0102138
0.0358125,0.00282247
0.0437161,0.00196056
0.0240233,-0.00303737
0.0359223,-0.000108266
0.0219222,-0.0010021
-0.00477056,0.0211008
-0.0156268,0.018259
-0.00313148,0.00779041
0.0188622,0.0167324
0.0426519,0.00610903
0.0376119,-0.0108001
0.0135775,-0.00898955
0.000423214,-0.0179884
-0.0267668,-0.0171094
-0.060371,0.00485369
-0.084415,0.00631408
-0.039261,-0.0154427
0.0208048,-0.00029424
0.0181237,0.0133047
0.000492667,-0.00853151
-0.00572826,-0.00383495
-0.0164105,0.0476182
-0.0157112,0.0815749
-0.0173599,-0.00261947
0.0117357,-0.0199247
0.0472537,-0.0203312
0.0412895,-0.0138045
0.00928237,-0.00109946
-0.0429535,0.00821621
-0.0472477,-0.00667736
-0.0148718,-0.0160426
0.0164144,-0.0303671
0.0101849,-0.0435867
-0.024548,-0.014821
-0.0311656,0.00139204
0.0139955,0.00590441
0.0546553,0.0132601
0.0683322,-0.00548298
0.0660894,-0.0159874
0.0247812,-0.00989949
-0.0588967,0.00436572
-0.0834045,0.0325748
-0.0628446,0.0554149
-0.0155995,0.0329534
0.00801316,0.0117958
-0.00318396,0.00510485
0.0109538,0.00616399
0.0744925,0.0347572
0.108716,-0.000388427
0.0739039,-0.0178144
0.00877286,0.00475566
-0.0491299,-0.0146243
-0.0813523,-0.0201033
-0.0601093,0.0195055
-0.0507353,0.00740454
-0.0460801,-0.0448943
-0.0322094,-0.0493337
0.00387556,-0.0267314
0.0989141,-0.00624199
0.0972142,0.0171719
-0.0242715,-0.00359977
-0.0918012,-0.0133675
-0.0516894,-0.00982688
-0.023257,-0.00623636
0.00119647,0.0185744
0.038075,0.01715
0.0950309,0.00855335
0.103588,0.0297637
0.0751965,0.0270791
0.0431408,-0.00491056
-0.0105078,-0.0276445
-0.0260077,-0.0379597
-0.0464431,0.00987427
-0.0678403,0.0417773
-0.0739036,0.00242346
-0.109422,-0.0318203
-0.0550729,-0.0326688
0.0388852,-0.00576386
0.0596947,-0.00319732
0.042188,0.00384325
0.0215404,0.0124047
-0.0112201,0.00338939
-0.0396711,-0.00344811
0.0140728,0.0108556
0.0866955,0.0158364
0.0815164,0.0141667
-0.0302632,0.00612354
-0.101188,0.0175353
-0.0361252,0.0127798
-0.0270941,-0.00702967
-0.0802268,-0.0136134
-0.0597332,-0.0116832
-0.0516174,-0.00809818
-0.0495507,0.0123127
0.000109591,-0.00340963
0.0638048,-0.0199786
0.0895339,-0.0205993
0.0637553,-0.00534967
0.072793,-0.00552743
0.0946799,-0.00920476
0.0819824,0.00134347
0.00827949,0.013222
-0.038691,0.0309804
-0.00700258,0.0496394
0.0184112,0.0227154
-0.00359138,-0.0372075
-0.00941648,-0.0366946
0.0161917,-0.0287416
0.0357148,-0.00633086
0.0206839,0.00897914
-0.00315084,-0.000290035
-0.0332877,-0.0102005
-0.0620441,0.00201574
-0.0659076,0.0187722
-0.0665713,0.0286204
-0.0647861,0.0301223
-0.00812656,0.0673853
0.0429378,0.0564828
0.0380291,-0.055861
0.0167546,-0.0903545
-0.0237233,-0.0369858
-0.0483177,-0.0057325
-0.0367316,-0.00954569
-0.026513,-0.0137146
0.0235143,-0.0144878
0.0603451,0.00382979
0.0322397,0.0334923
0.0223443,0.0366557
0.0132491,0.0193225
0.00994352,0.00133025
0.00835864,-0.0220319
0.0006758,-0.0293155
-0.020381,-0.0153686
-0.0290899,-0.0055195
-0.0433811,0.00251178
-0.0562406,0.006127
-0.0497201,0.0113453
-0.0128785,-0.00285119
0.0254663,0.0228583
0.0293555,0.024748
0.0286651,-0.0187445
0.0748976,0.0158122
0.0864013,0.0341642
0.0265852,0.0115661
-0.0394574,0.00431485
-0.0456119,-0.000547181
0.000173825,-0.00495714
0.0256985,-0.00547691
-0.0215585,-0.0134311
-0.0367289,-0.0150867
0.0416816,-0.0160708
0.055742,-0.0137467
0.0254061,-0.00934113
0.0198807,-0.0151155
-0.0150154,-0.00367542
-0.0459383,0.00369611
-0.04655,-0.0206622
-0.0566232,-0.00785682
-0.0440762,0.024641
-0.0356844,0.0101406
0.00787152,-0.00701835
0.071866,-0.00372599
0.0610953,0.00634939
0.00418998,0.0199519
0.00564966,0.0204763
0.00616857,0.00454413
0.0122992,0.00110792
0.000817854,0.00781385
-0.0402235,0.0106035
-0.0238815,-0.00107219
0.0469869,-0.0128226
0.0939807,-0.00927087
0.0797084,0.0159059
-0.0317538,0.0220503
-0.102057,-0.0107024
-0.0643008,-0.0257405
-0.0154982,-0.0173482
-0.0184694,-0.0178551
-0.00105863,-0.0280797
0.00907919,-0.0340941
-0.013095,-0.0148556
-0.0751593,-0.015199
-0.103203,-0.0013361
-0.0315088,0.033397
0.0488436,-0.00833194
0.0810463,0.0048116
0.0704016,0.059769
0.0099587,0.0191997
-0.0856513,-0.0225189
-0.0871,0.0141606
0.0130794,0.0396735
0.0637776,-0.0134121
0.0847726,-0.0101472
0.0965271,0.0643694
0.100501,0.0194348
0.0612559,-0.0269501
0.00725154,-0.0284958
-0.0245041,-0.0309271
-0.0470885,-0.00808841
-0.0717495,0.0324492
-0.0573424,0.00343767
-0.00194986,-0.0189952
0.0191348,-0.0115617
0.0206219,0.00785371
0.0107022,0.0122489
-0.0155949,-0.0169424
-0.0415228,-0.0328763
-0.0228025,-0.0194457
0.000935868,0.0124973
0.0445159,0.0105489
0.0701928,0.0124153
0.0372578,0.0120112
-0.00270284,0.0060454
-0.0384006,0.00501722
-0.0465936,-0.00310152
-0.0561492,-0.0171548
-0.0689831,-0.0221529
-0.0452439,-0.000220837
-0.0136241,0.0329338
-0.00907843,0.040163
0.00622651,0.03945
0.0245876,-0.0158093
0.00474015,-0.0564299
0.00909872,-0.0293713
0.0273801,0.00497658
0.0354967,0.012611
0.0495743,0.00302776
0.00618033,0.0141044
-0.0561639,0.0583544
-0.0187811,0.0341192
0.0066345,-0.0263993
-0.0238339,-0.0279813
-0.0103619,-0.0432944
0.0178057,0.00608525
0.0350705,0.0244521
0.0517353,-0.0254967
0.0236618,-0.0412202
-0.00188026,-0.0294675
-0.00348332,-0.0158937
-0.0240668,-0.0104243
-0.0508334,-0.0018027
-0.010201,0.0025885
0.0252759,-0.0076504
0.0632718,0.0335883
0.0421037,0.0352655
-0.0336474,0.012648
-0.0709395,0.0108939
-0.0684489,-0.00769769
-0.102684,0.00495101
-0.0505459,0.0100874
0.0768164,-0.0214776
0.127274,-0.00325916
0.0711018,0.0170911
0.032805,0.00396406
0.00338327,-0.0125463
-0.00747282,-0.010277
-0.0244813,0.00658498
0.0266705,0.0204359
0.0788056,0.0084969
0.105345,-0.0205345
0.0530693,-0.00848958
-0.0841443,0.00554953
-0.103667,0.00200658
-0.047027,-0.00524183
-0.0493459,-0.00653908
-0.0807895,-0.0161276
-0.0786724,-0.00511886
-0.0448138,0.0267113
-0.0337576,0.0402333
-0.00425023,0.0275355
0.0240426,0.0160503
0.0254557,-0.0289586
0.0310676,-0.0277427
0.0314756,0.0024985
0.0782727,0.0102272
0.064215,0.00796898
0.0488995,-0.0130899
0.0535537,-0.0246202
-0.0345232,-0.00578604
-0.0596118,0.000530233
9.41e-05,-0.0121506
0.00395683,-0.0220375
0.0123934,-0.0118885
0.0644685,0.00157018
0.0804082,-0.00863142
-0.00233247,0.0101298
-0.0714259,0.0246232
-0.0804539,-0.00523258
-0.0679474,0.0324445
-0.0476969,0.0165163
-0.0287177,-0.00999129
0.0386946,0.00445604
0.0389028,0.0361115
-0.0141693,0.0256178
-0.030805,-0.0361222
-0.0424122,-0.0275139
-0.0410961,0.000575424
-0.0176525,-0.0104511
0.00495447,-0.0134843
0.0077694,0.00499362
0.0475906,0.015182
0.0988661,0.00923315
0.108926,-0.0122552
0.0290791,-0.0268508
-0.0702388,-0.0402651
-0.0644263,-0.0340124
-0.029279,0.00575979
-0.0209146,0.0189855
-0.0486248,0.0141453
-0.0179178,0.0382572
0.0833091,0.05919
0.145594,0.0409433
0.116743,-0.00643305
0.0133865,-0.0224642
-0.0799998,-0.00949449
-0.0695486,-0.0172524
-0.014306,-0.020578
-0.00595267,-0.00219943
-0.0274628,0.00436894
-0.0265683,0.00631042
0.00740729,-0.014771
0.00435946,-0.0184281
-0.0114041,-0.00085038
-0.0198707,-0.00557277
0.00518271,-0.00107004
0.0213832,0.0144829
-0.0178912,0.00177591
-0.0257481,-0.00414601
-0.00862003,0.00300975
-0.0304422,-0.000739035
-0.0480754,-0.0171445
-0.0569609,-0.0229963
-0.0686194,-0.0162209
-0.0162495,0.0216629
0.0217793,0.0524066
0.0102729,0.0303336
0.0228146,-0.0087906
0.0397683,-0.00991068
0.0459696,-0.0153989
0.051926,-0.00924867
0.0426776,-0.00750205
0.0532144,-0.00359622
0.0591062,-0.0051042
0.0577861,-0.00181763
0.0395141,0.00645971
0.00390023,0.00574555
-0.0555247,-0.0104657
-0.0845368,-0.013397
-0.0541513,0.00176891
-0.00986535,0.00345276
0.0314009,0.011253
0.016066,0.00183195
-0.00827662,-0.00847958
-0.0132676,0.0342066
-0.0166376,0.0303884
-0.0333847,-0.0162991
-0.0649904,-0.022435
-0.0420367,-0.00129058
0.0337665,-0.000761019
0.0748877,-0.0124224
0.0700009,0.0319239
0.0285394,0.0489145
-0.0426835,-0.0142272
-0.0508954,-0.0215027
0.017798,-0.0252479
0.0493527,-0.0137678
0.0255509,-0.00437997
-0.0303325,0.0150353
-0.0266668,0.0210573
0.0116393,0.00385894
0.0331655,0.0146139
-0.00473607,-0.00122614
-0.052766,-0.0306406
-0.0694802,-0.0182576
-0.053919,-0.00271651
0.0391364,0.00143949
0.1003,-0.00660033
0.0652384,-0.00660726
0.016605,0.0190461
-0.012536,0.00572194
-0.0383642,-0.0234055
-0.0734773,-0.00898036
-0.083981,0.00542741
0.00957902,0.0104245
0.0826987,0.053539
0.0572123,0.0212031
0.00379258,-0.0202603
0.0135499,-0.016232
0.0253411,-0.00377744
-0.00777948,-0.0124467
-0.0307145,-0.0363125
-0.0122026,-0.0145843
-0.000884404,0.0306573
-0.0211069,0.0308437
-0.0761461,0.00332761
-0.105057,-0.0191548
-0.0620019,-0.0334596
-0.0167444,-0.0160513
-0.0286942,0.0197179
0.0166836,0.0293725
0.0982546,0.0234548
0.0232058,-0.00322942
-0.00402542,0.00173286
-0.0156522,-0.000711253
-0.00961179,-0.0074327
0.0292691,-0.0190966
0.088342,-0.0230134
0.0962187,0.0153653
0.0905389,0.0386103
0.0553624,0.0383512
0.00124196,0.041154
0.0071799,-0.0272946
-0.00735806,-0.0614067
-0.0486404,-0.038588
-0.044436,-0.051573
0.0136777,-0.0427656
0.0835983,0.00691568
0.0779543,0.038685
0.00290233,0.0343947
-0.0453536,0.0192834
-0.0538649,0.00508603
-0.0563313,-0.0220935
-0.0618073,-0.0287231
-0.0423815,0.0273464
0.0221693,0.0800242
0.0709274,0.0529329
0.0494005,0.00541409
-0.0409646,-0.0267306
-0.0799035,-0.0293757
-0.0596356,-0.0170918
-0.0472555,-0.020578
-0.032983,-0.0431642
-0.0177581,-0.0264918
-0.0122195,-0.00440002
-0.0398673,0.00723332
-0.0524726,0.000960418
-0.0330454,-0.0131689
-0.0509012,-0.00125789
-0.0436159,-0.00904009
0.00629816,-0.0359312
0.0413495,0.00647027
0.0774831,0.0446938
0.08487,0.0249067
0.0685015,0.0119569
0.0711534,0.0263472
0.0500813,0.0353684
0.0737189,0.0281118
0.090392,0.00480518
0.0708624,-0.0173619
0.05977,-0.00280855
0.0165729,0.00497458
-0.0224076,-0.00846329
-0.0928583,0.000769505
-0.157353,-0.00731291
-0.171822,-0.00750369
-0.148023,-0.00762395
-0.0703302,-0.00286065
0.00577918,0.00227035
0.0216572,-0.00525979
0.0399942,-0.00698958
0.0404457,0.00264862
-0.0113577,-0.00396876
-0.00792588,-0.0250001
0.0722384,-0.00161551
0.122027,0.0201536
0.0815568,0.00932841
0.0622299,0.00428389
0.0395163,-0.00918855
-0.00266028,-0.0273084
-0.0447338,-0.0140672
-0.0390674,0.0176417
-0.017485,0.0397874
0.0391924,-0.00211382
0.0635885,-0.0207484
0.00986362,-0.00683056
-0.0695149,0.00176655
-0.103487,-0.00193264
-0.0758619,-0.017357
0.000562267,-0.00830594
0.0591098,0.0125363
0.0835533,0.0056057
0.0935188,-0.00702637
0.0746185,-0.000855378
0.0265412,0.00144493
-0.0537245,0.00040372
-0.106393,0.00952846
-0.0944208,0.00408234
-0.0863358,-0.000902778
-0.0443582,0.00299717
0.0144886,-0.00575496
0.0302742,0.00116152
0.0294914,0.00666102
0.0298964,0.0155322
0.0135587,0.0466198
-0.0229162,0.0136675
-0.0516208,-0.0257771
-0.055575,-0.0357199
-0.0464116,-0.0629407
-0.0314602,-0.0578227
0.017215,0.00405554
0.071771,0.0354619
0.0709173,0.0417378
0.0407129,0.0600188
0.0542788,0.0230156
0.0678632,-0.0330285
0.016688,-0.0486123
-0.0305358,-0.0275032
-0.00801232,0.00472179
0.0173362,0.0115072
0.00150928,0.0264562
-0.0262076,0.0367849
-0.0469244,0.0288992
-0.0797514,0.00270617
-0.0858788,-0.0125373
-0.0489694,0.0320525
0.00302235,0.0485358
0.0356246,0.0029964
0.00563664,-0.0170012
-0.0444616,-0.0400897
-0.0110199,-0.0692272
0.0373351,-0.061029
0.0542199,-0.0171901
0.0508869,0.0436773
0.0413579,0.0528783
0.0572801,0.0138693
0.0497368,-0.0012127
0.0443357,-0.00963441
0.0474929,-0.00435946
0.0082769,0.0029517
-0.0433827,-0.0114353
-0.0526089,-0.0236978
-0.0615771,-0.00561687
-0.0366743,-0.00258783
0.0110856,-0.018827
0.00258333,0.00387444
0.02496,0.0106255
0.0295364,-0.0135403
0.0112611,-0.0355092
-0.0294464,-0.0320636
-0.0364496,-0.0170622
0.0125477,0.00707918
0.00448561,0.041382
-0.0407823,0.0351715
-0.0926979,0.00893947
-0.0811992,0.0109115
-0.0142644,0.0175204
0.00481009,0.0228658
0.0241671,-0.0117651
0.0303384,-0.00367438
0.0175879,0.0146555
0.0275654,0.0156324
0.0699384,0.00599491
0.0638671,0.0077705
0.0468057,0.00761625
0.0602567,-0.0200463
0.0947136,-0.0388568
0.118092,-0.00185406
0.0949919,0.0297001
-0.00320993,0.0149354
-0.0995336,-0.00496462
-0.107382,-0.0225453
-0.10444,-0.00832332
-0.12018,-0.0123123
-0.123244,-0.0158755
-0.0873321,-0.00344421
-0.0587259,-0.000873714
-0.0267555,0.00433816
-0.00561165,0.000618524
-0.00269941,0.00470317
-0.0223981,0.0316366
0.0297327,0.00706725
0.0617146,-0.00931603
0.0257683,-0.0108681
0.0320861,-0.0101792
0.0475568,0.00179198
0.0610135,0.0289566
0.0734826,0.0186608
0.0597256,-0.00990363
0.0352296,-0.0202104
-0.00385175,-0.016184
-0.0501328,-0.00712617
-0.072772,-0.00717473
-0.0218145,-0.0024119
0.0390189,0.00773583
0.0460355,0.00369931
0.0397497,-0.00531554
0.0197534,-0.00222954
-0.0203338,0.00307639
-0.0423578,0.00186826
-0.0566117,0.0153456
-0.0574897,0.0127022
-0.0192402,0.00231168
0.0791048,-0.00508286
0.0753974,-0.00325227
0.0441945,0.0069074
0.00839952,0.0105666
-0.0348109,0.00940986
0.0173652,-0.000202445
0.0541507,-0.0211326
0.0125966,-0.0205132
-0.101453,-0.0142665
-0.122096,-0.013558
-0.0682699,0.0217111
-0.0645644,0.052024
-0.0906636,0.00751562
-0.0247327,-0.0184282
0.0492385,-0.0160534
0.0881767,-0.0126776
0.0933803,-0.012938
0.0854985,-0.0162341
0.0668514,-0.00773464
0.0360274,0.0167607
0.00629874,0.0377402
-0.0121665,-0.00511684
-0.0212109,-0.0420348
-0.0623531,-0.0372377
-0.122683,0.0305585
-0.145294,0.0710336
-0.117789,-0.00779462
0.047413,-0.0447651
0.155624,-0.0411371
0.118745,-0.00811822
0.00704548,0.0394322
-0.0506165,0.0437652
-0.0188492,0.0196084
0.000173093,0.0216316
0.0127347,0.0051445
0.0206746,-0.0304025
0.0405662,-0.0372516
0.0789123,-0.0220005
0.087619,0.00693229
0.0413359,0.00581331
0.0210172,-0.00835618
0.0319949,-0.00210927
0.0157927,0.00326422
-0.0225714,0.00809177
-0.0514827,0.00545314
-0.0754241,-0.00897136
-0.0906339,-0.0070726
-0.0796362,0.00715359
-0.0153223,0.00591286
0.0476069,0.0119885
0.0622598,0.0253098
0.0659826,0.0173025
0.0339348,-0.0116254
-0.0403135,-0.0169121
-0.0610207,0.0176887
-0.06844,0.0449049
-0.0688528,0.00661268
0.000783336,-0.0414027
0.0472731,-0.0182484
0.0246837,0.0206438
0.0070533,0.00462726
-0.0107033,-0.00740273
-0.0402862,-0.000424588
-0.0299236,-0.00100285
0.0258527,-0.0212414
0.0326465,-0.0280624
-0.0237842,-0.0109457
-0.0206296,0.011916
0.0389735,0.00229802
0.0448536,-0.0138532
-0.0192717,-0.00230387
-0.0404707,0.00481122
0.0247286,-0.00710148
0.0681403,-0.00621642
0.0709468,0.00697352
0.0437126,0.0079426
-0.0172695,0.000137838
-0.0370633,-0.00310254
-0.0461587,0.00921164
-0.0380702,-0.0123653
-0.0124958,-0.0226028
-0.00821404,-0.00706969
-0.030279,0.000817014
-0.0483411,-0.00713455
-0.0395861,0.014955
0.02172,0.0342262
0.0788739,0.00382906
0.0589713,-0.0216456
0.0319921,-0.0257451
-0.024731,-0.0187269
-0.0564901,0.0214478
-0.0505097,0.0544301
-0.0476594,0.0333437
-0.0442841,-0.00659496
-0.0395248,-0.0324681
-0.0164132,-0.020263
-0.000109455,-0.00212909
0.0270876,-0.000162274
0.0564655,0.0067842
0.0627219,0.0170045
0.0437265,0.0148564
0.00423977,0.0109338
0.0106602,2.22e-05
0.0650596,-0.00840551
0.0644481,-0.014
0.0251457,-0.0107278
0.0112377,-0.00470511
0.0189914,0.00271882
0.0266506,-0.00516537
0.00829753,-0.0240574
-0.0209527,-0.00891516
-0.0365634,0.0107759
-0.0424486,0.0119021
-0.0529543,-0.00536124
-0.0383693,0.023954
-0.0122691,0.0272526
-0.0443772,-0.00207579
-0.0450044,0.00247035
-0.00221197,-0.00606351
0.00124944,-0.0117914
-0.0127877,0.0129225
-0.0169272,0.0130867
-0.000921116,-0.00407869
0.0443408,0.00535145
0.0702309,0.0135429
0.0492535,0.00685577
0.0290094,-0.0197896
0.0358042,-0.018944
0.046339,0.0211241
0.0671441,0.0145308
0.0410386,-0.0155363
-0.00735756,-0.0046417
-0.0159652,0.0184211
-0.0531502,0.00839217
-0.0757803,-0.00949509
-0.0985127,-0.00369786
-0.122177,0.00158906
-0.108602,0.000838506
-0.0384249,0.00806211
-0.00839768,-0.00275565
0.00752486,-0.0057319
0.055183,0.006336
0.107723,-0.00103914
0.0883446,-0.0137458
0.0480948,-0.00779189
0.0202763,-0.0101634
-0.0225559,-0.0278354
-0.0305206,-0.028393
0.0363276,-0.0258287
0.0958817,-0.037629
0.0670407,-0.0212131
-0.0188879,0.00575464
-0.0753041,0.0224936
-0.044903,0.0340569
-0.00531368,0.00786318
0.00985077,-0.0100636
-0.0425652,0.00693005
-0.158447,0.0319945
-0.129134,0.0263719
-0.020057,0.0149765
0.046252,0.00945179
0.0488887,-0.00344172
0.0166529,-0.0111152
0.00827759,0.00257174
0.0643241,0.0292674
0.0294706,0.0625528
-0.0235839,0.0274877
0.0508436,-0.0582952
0.136264,-0.0660243
0.0980107,-0.066644
0.0378043,-0.0848468
-0.0119116,-0.0645164
-0.0277011,-0.00696089
-0.0059141,0.015504
0.0223001,0.0277335
-0.011702,0.0559322
-0.0760016,0.0629757
-0.0843724,0.0574892
-0.0476184,0.0401122
-0.0148804,0.0245701
-0.0175389,-0.00972114
-0.0270494,-0.00786989
-0.00730345,0.0114999
0.00768555,0.0173908
0.010605,0.0131797
-0.00413758,-0.000425938
-0.019312,-0.0215008
-0.0230017,-0.0226971
-0.00667261,-0.00543661
-0.0017426,0.00566823
0.0276922,-0.00131288
0.030703,2.5e-05
0.0116258,0.000512967
0.0428646,-0.00122229
0.0702715,-0.00557049
0.0240175,-0.0189329
-0.0527514,-0.0225237
-0.0851404,-0.0112003
-0.0632512,-0.0106462
-0.050378,-0.0915609
-0.023637,-0.13072
0.0015761,-0.0289716
0.0021799,0.0488906
-0.0141327,0.0360557
-0.00452126,0.0986146
0.0332985,0.197842
0.0673222,0.0902526
0.0821508,-0.0144027
0.0905339,-0.0580008
0.083856,-0.0674834
0.0555056,-0.0490826
0.0277158,-0.0165128
-0.00185386,-0.00799572
-0.0251107,-0.00175763
-0.0468117,0.00192442
-0.0491701,0.00173296
-0.0260443,0.0314367
-0.0176803,0.0449523
-0.0300196,0.0442903
-0.032526,0.00102229
-0.0439245,-0.0435426
-0.0506431,-0.0376186
-0.00799191,-0.0189535
0.0160712,0.00314388
0.0306847,0.0203311
0.0260651,0.00762345
0.0414145,-0.00857416
0.0532397,-0.012199
0.0559858,-0.00945339
0.0438922,-0.00970267
-0.100373,-0.0104834
-0.269821,0.00652688
-0.227772,0.0445132
-0.12771,0.0252164
0.00353996,-0.0208772
0.162829,-0.0299703
0.230316,-0.0352872
0.183128,-0.0231892
0.093661,0.000289949
0.00092641,0.00493519
-0.0203881,-0.00223065
0.0128963,-0.00391521
0.035725,-0.000580281
0.0255117,-0.0056905
-0.00336452,-0.0223021
-0.0280573,-0.0268482
-0.0264059,-0.0168644
-0.0185124,-0.00772574
0.00408243,0.0169413
0.00580301,0.0351847
-0.0173307,0.0354266
-0.0252296,0.0525228
-0.0203087,0.0390971
-0.0228969,-0.00299669
-0.0610125,-0.0191078
-0.0909729,-0.013278
-0.0452444,-0.0109542
0.0277125,0.00129428
0.0555017,0.00912015
0.0497334,-0.00479095
0.0546008,-0.0165396
0.054486,-0.0149273
0.0179322,0.00185058
-0.0308703,0.0157044
-0.0276905,0.028029
-0.00875648,0.018535
0.0138799,-0.000578553
0.0186175,-0.00488202
0.00309769,-0.0119689
0.00594431,-0.0112503
0.0123224,-0.0176201
-0.00172801,-0.0136892
-0.0132834,-0.0130463
-0.0255356,-0.0259293
-0.0628894,0.00178247
-0.0773833,0.0166028
-0.0591185,0.00230809
-0.0234356,-0.00495623
0.0165065,0.00315514
0.0601886,0.0116746
0.0957753,0.00118567
0.0899334,0.00532906
0.055671,0.0128099
-0.000358837,0.00361384
-0.0320858,-0.000131815
-0.0451745,-0.00425489
-0.0437841,0.0232437
-0.0368856,0.0136287
-0.0368919,-0.0248523
-0.0328369,-0.0233861
-0.0239647,-0.00581603
-0.00847586,-0.00166194
0.00300599,-0.0061103
0.00407715,-0.0100981
0.0113351,-0.00394358
0.0161381,0.0135458
0.0188614,0.0278076
0.0280055,0.0101562
0.0521396,-0.0119231
0.0398507,-0.00190663
-0.00128637,0.00520584
-0.018721,0.00692211
-0.0212471,0.000768426
-0.0124887,-0.000256757
0.000208381,0.0128382
0.0024939,0.00685565
-0.0193059,-0.00115799
0.000159017,0.0127763
0.0374497,0.00542961
0.0123957,-0.00103825
-0.0362042,-0.00107923
-0.0495673,-0.0103328
-0.043252,-0.0156362
0.000184794,-0.0166299
0.037362,-0.0106892
0.046766,0.0088698
0.0334957,0.00974022
0.00881413,-0.00908097
-0.0151627,0.00308691
-0.032165,0.00849839
-0.0334078,-0.00413732
-0.0251435,-0.0023981
-0.0129398,0.000643634
0.00640056,0.00510847
0.0273419,0.00964709
0.0232683,0.00722496
-0.00222354,0.000267901
-0.000530026,-0.0031664
0.0285472,-0.00501169
0.0621701,-0.00900903
0.0938496,-0.0139578
0.101241,-0.00726918
0.0777332,0.00487573
0.00426701,-0.0101298
-0.0703989,-0.0158417
-0.107053,-0.00678796
-0.0963299,-0.00582656
-0.0686192,-0.0121448
-0.0415688,-0.00561535
-0.0376799,0.00712083
-0.0152162,0.00929009
0.0246752,0.00345902
0.0331851,0.00426633
0.0163966,-0.000468383
0.00263171,-0.00202039
-0.00490918,0.0178663
-0.00618201,0.0208874
-0.0083015,-0.0131372
0.00242943,-0.00250761
0.0173587,0.0252428
0.00824626,0.0168546
-0.0136328,0.00621385
-0.0443091,0.0021309
-0.0538159,-0.00199187
-0.0212322,-0.00128687
0.0278101,0.00458819
0.0484819,0.00291373
0.0660385,0.0089582
0.0812385,0.0196465
0.0882696,0.00201967
0.0707215,-0.0133666
0.0295269,-0.00827726
-0.0154067,-0.00837576
-0.0463267,-0.0158064
-0.0650355,-0.017934
-0.0662998,-0.00866454
-0.0719453,-0.00316843
-0.0436734,-0.00156572
-0.0248701,0.00118643
-0.0265138,-0.000864736
-0.0174797,-0.00639136
0.000896097,-0.00591565
0.0166949,-0.00705378
0.0295923,-0.00616799
0.0438192,0.00190186
0.0357255,0.00748145
0.0113081,0.000909348
-0.00815288,-0.00252327
-0.026938,-0.00386666
-0.0521299,-0.00654321
-0.0572803,-0.00939274
-0.017211,-0.000321024
0.0335309,0.0105562
0.0409232,0.011238
0.031769,0.00795818
0.0260814,0.00243336
0.0134601,-0.00300984
0.0012898,-0.00772454
-0.000663381,-0.00350064
-0.00689485,2.23e-05
0.0002274,0.00523565
0.0250921,0.0126472
0.0311142,0.0138782
0.0157447,0.00627756
0.00443562,0.0034647
-0.0130285,-0.000208331
-0.0283262,-0.00351026
-0.029666,0.000890099
-0.0124252,0.00779013
0.00580324,0.00642004
0.00561235,0.00370218
0.00897636,0.00113512
0.00678662,-0.0013173
-0.000616618,-0.00822512
-0.00960122,-0.010458
-0.00851725,-0.00864198
-0.00895199,-0.0118999
0.00791747,-0.00731059
0.0239031,0.0151813
0.0152762,0.0119515
-0.00266569,0.000234523
-0.0135116,-0.00514136
-0.0249611,-0.00935955
-0.0282798,-0.0151757
-0.0102651,-0.00842338
0.0161409,0.00435785
0.0194214,0.00917352
0.00968818,0.00814367
0.0113476,0.005092
0.000152128,0.0015816
-0.0224615,-0.00107578
-0.026097,0.00245084
-0.0214394,0.00386167
-0.0182046,0.00180041
-0.000196875,0.00584401
0.00406033,0.00164568
-0.0119817,-0.0114726
-0.00904151,-0.0131558
0.0104604,-0.00609988
0.0165347,-0.0012373
0.0395336,-0.0025412
0.0859665,-9.19e-05
0.115607,0.0099344
0.100414,0.00743665
0.0532331,0.0107755
0.00231944,0.00765416
-0.0505506,0.0148451
-0.0997506,0.014583
-0.116787,-0.00813873
-0.105718,-0.0140033
-0.0700498,-0.00250729
-0.0205238,0.0064386
-0.00867333,0.00507386
-0.012025,-0.00275187
0.00436421,-0.00519571
0.0181252,-0.00160695
0.0332778,-0.00808791
0.038878,-0.0229941
0.0430658,-0.010625
0.0326134,0.0138791
0.000912265,0.0339773
-0.0278527,0.0201899
-0.0502146,-0.00780549
-0.0680364,-0.0257768
-0.0697705,-0.0287725
-0.031359,-0.0240315
0.0203095,-0.0115353
0.0574681,0.0161684
0.0961745,0.0137028
0.104715,0.00107817
0.0696503,0.00159916
0.0393048,0.0030219
0.024356,-0.000158889
-0.0220823,0.00559558
-0.0617177,0.0163407
-0.0496503,0.0225305
-0.0462639,0.00854334
-0.0161166,-0.00131536
0.054898,0.0056976
0.0893605,-0.00338013
0.0859667,-0.00881295
0.0772861,-0.00156853
0.0347673,0.00608184
-0.00729585,-0.00310862
-0.050541,-0.00460028
-0.0875445,-0.00318008
-0.107439,-0.0127703
-0.106482,-0.0100827
-0.0955724,0.000378824
-0.0884636,-0.0091939
-0.0834106,-0.018387
-0.0324127,-0.00585205
0.0569771,0.00663967
0.0930078,0.00268472
0.0689208,-0.00659853
0.00910191,-0.00951779
-0.0196609,-0.00858701
0.0323358,-0.00680764
0.10032,-0.000553786
0.149149,0.00172876
0.112689,0.00413951
-0.00152732,0.00865509
-0.132688,0.00549636
-0.205545,-0.00317441
-0.211967,-0.00325127
-0.141857,-0.00236972
-0.0288768,-0.00484099
0.0456977,-0.00799375
0.0949867,0.00639288
0.126725,0.0324722
0.121918,0.0164354
0.128569,0.00780235
0.159613,0.0126385
0.136789,0.0020867
0.0763413,-0.0112382
-0.0109488,-0.0167705
-0.154948,-0.017666
-0.22425,-0.00824561
-0.196243,0.00469694
-0.123271,0.00387455
-0.0263272,0.000582243
0.0381935,0.000248382
0.0459423,-0.000590063
0.0318843,-0.00998055
0.00974531,-0.017052
-0.0122619,0.00664304
-0.0485495,0.0424963
-0.0769977,0.0391452
-0.0603628,0.00407644
-0.0349428,-0.0167049
0.00686842,-0.0271253
0.0837805,-0.00939703
0.173238,0.0201112
0.22014,0.0170625
