Comp Ch 3,Comp Ch 4
0.0499545,-0.00798246
0.0461407,0.000520463
0.0218944,0.029866
-0.0300354,0.0439426
-0.0611535,0.0151168
-0.0860166,0.00582867
-0.0935365,0.000724722
-0.0678561,-0.0134184
-0.0329496,-0.0273156
-0.00853061,-0.0693761
0.0093152,-0.0831821
0.0342558,-0.0422013
0.038955,-0.0316065
0.0158178,-0.0383171
0.00160132,-0.000981754
0.00234457,0.0225291
0.00543525,0.0879579
0.0167544,0.103836
0.0458487,0.0724779
0.0593033,0.0595905
0.0253263,0.0444347
-0.0143131,0.0111332
-0.0550875,-0.023366
-0.0608496,-0.0445813
-0.0442845,-0.0289059
-0.0105069,-0.0173232
0.0569167,-0.0129741
0.135779,0.0216039
0.173281,0.0778733
0.14144,0.0771981
0.0723378,-0.0153729
0.030958,-0.142501
0.00118357,-0.142178
-0.044728,-0.0887897
-0.101342,-0.0618359
-0.152688,-0.00559429
-0.145409,0.0452118
-0.111069,0.0681755
-0.0796486,0.122359
-0.0468468,0.127565
-0.0277477,0.0232039
-0.0167098,-0.0271182
0.000226768,-0.0294998
0.011271,-0.00128885
0.0265309,0.0303255
0.0333123,0.0183252
0.024062,-0.00329022
0.0321298,-0.012963
0.0518121,-0.0083268
0.0531052,-0.00875525
0.030074,-0.0168722
0.0121253,-0.0205841
0.00873755,-0.0132774
-0.00929819,-0.0107165
-0.0170703,-0.0152436
-0.0103569,-0.0214495
-0.0150356,-0.0342203
0.00319923,-0.0268264
0.0249331,0.0018127
0.0162474,0.0160843
-0.0100499,0.00251089
-0.0218495,-0.00728031
-0.0288041,-0.00157488
-0.0129789,0.00565991
0.0319886,0.0322937
0.0307775,0.021125
-0.0206732,-0.0189904
-0.0147185,-0.0266736
0.0541225,0.0289373
0.136899,0.0167663
0.143904,-0.00941673
0.0555935,-0.0068333
-0.0577135,-0.0168406
-0.130481,-0.0227128
-0.155949,0.000169579
-0.126996,0.0344933
-0.0895807,0.0437504
-0.0492641,0.0149683
0.000645005,0.00691777
0.0185462,-0.0300146
0.00100646,-0.0199601
-0.0274217,0.0159415
-0.0306887,0.00562497
0.016755,-0.0318933
0.0894533,-0.0410285
0.14791,-0.0188722
0.136926,-0.00227923
0.0625914,0.00240036
-0.00302328,-0.000421491
-0.0359228,0.00220583
-0.0400793,0.00250866
-0.0111598,-0.0113443
0.000777059,-0.00702443
-0.0190208,0.00511461
-0.0274222,0.0245625
-0.0273402,0.044895
-0.0492645,0.0334377
-0.0591437,0.0166852
-0.030119,0.00882656
-0.0122369,2.5e-05
-0.0155974,-0.0144525
-0.000945221,-0.025868
0.026176,-0.0140738
0.0285487,0.000851752
0.0257869,-0.00102681
0.0228623,-0.00620152
0.000362277,0.00460694
-0.0150608,0.0123592
0.0137362,0.0284144
0.0454647,0.0123584
0.0640258,-0.0128089
0.074532,-0.0188753
0.0473157,-0.0390028
-0.03353,-0.0208558
-0.0776097,0.0175558
-0.0757469,0.0144591
-0.0688725,0.00974636
-0.0653192,0.020821
-0.0401042,0.00983994
0.00137505,-0.00675476
0.039193,-0.00294609
0.086546,-0.00521879
0.10301,-0.0271462
0.0694942,-0.0137241
0.00127715,0.00797649
-0.0532382,0.0128801
-0.0519906,-0.0224714
-0.00960753,-0.0260839
0.033538,0.0229403
0.041684,0.0163623
0.0122956,0.0151595
-0.0226909,0.0223682
-0.0190537,0.0140322
-0.0118466,-0.00376799
-0.0103108,-0.00828456
-0.0121682,-0.0113449
-0.021908,-0.00582142
-0.0178474,0.0192636
0.00753776,0.00282149
0.0273116,-0.0304814
0.00798737,-0.0176248
-0.00758491,-0.00353459
-0.0303043,-0.0032904
-0.0463823,-0.00159642
-0.0280663,0.0165735
-0.00530745,0.0230291
0.0125179,0.00949758
0.0309134,-0.00246885
0.0425458,-0.00239452
0.0169552,0.00998211
-0.028007,0.0116728
-0.0343451,0.00246005
0.021056,-0.0044876
0.0486224,-0.000179398
0.0618046,-0.010155
0.0629209,-0.0120802
0.0315289,-0.00543085
-0.0271842,-0.0207674
-0.0822017,-0.0501755
-0.09106,-0.0643789
-0.055935,-0.0515547
-0.00483817,0.0260582
0.02435,0.104988
0.0243467,0.0447815
0.00619039,0.0011916
-0.0249497,0.0223145
-0.0387978,0.0235951
-0.0396883,-0.0054757
-0.0151099,-0.0162726
0.0218591,0.0101731
0.0292859,0.021855
0.0239174,0.00619215
0.0133156,-0.014381
-0.00624208,-0.0160265
-0.017029,0.0213449
-0.00456394,0.00415811
-0.00210335,-0.00430255
0.0227394,0.00500713
0.0945658,-0.00917679
0.147517,-0.013474
0.147369,0.0109569
0.0978019,0.0139566
-0.00319703,-0.0181355
-0.115786,-0.0317707
-0.15667,-0.0284299
-0.131985,-0.0107898
-0.0807254,0.0186643
-0.042021,-0.00298191
-0.0152209,-0.00931084
-0.00093808,-0.0163397
-0.00264737,-0.0274411
-0.0057362,-0.0169017
0.00336378,-0.00384865
0.00649029,0.0154271
0.0186155,0.0440801
0.0261608,0.0326581
0.00839015,0.0179207
-0.0105248,0.035292
-0.0121483,-0.00719053
-0.0125627,-0.0786935
-0.00779703,-0.0600778
0.0137621,-0.0160394
0.0489669,0.00190835
0.057829,0.0136168
0.0319234,0.0254259
0.0164531,0.00241728
0.00373884,0.00633754
-0.00611231,0.0214602
0.00190797,0.0461631
0.0304759,0.0781313
0.0538184,0.0572976
0.0639089,-0.00537227
0.0429888,-0.032629
-0.00340338,-0.0530799
-0.0529875,-0.0895301
-0.0809061,-0.109397
-0.0761023,-0.0637209
-0.0686629,0.0660881
-0.0450797,0.107626
0.00653362,0.0417175
0.0459509,0.0180177
0.0559506,0.0395831
0.0371233,0.0447488
-0.00238622,0.026604
-0.0417626,-0.0314224
-0.053485,-0.0359028
-0.0423006,-0.0161664
-0.0283769,-0.00941762
-0.0146579,-0.0243748
-0.0114257,-0.0132794
-0.0194804,0.0508028
-0.0135147,0.0792972
0.00805227,-0.0928182
0.0171467,-0.0965268
0.0280774,-0.0500321
0.0682728,-0.074963
0.0899539,-0.0127313
0.0626586,0.0322521
0.0240538,0.0466484
-0.0143477,0.0760143
-0.0332972,0.0390523
-0.0240239,0.0026885
-0.00656833,-0.000200941
-0.00773437,0.00538605
0.000933682,0.00979296
0.0106216,0.00444273
-0.00912444,0.0052903
-0.0314691,0.022933
-0.0358173,0.0102954
-0.0380538,0.00148523
-0.0397618,-0.00841949
-0.0263065,0.00598578
0.00675306,0.040444
0.0254413,0.0180995
0.0285934,-0.0302874
0.0335763,-0.052071
0.0246,-0.032098
0.00384162,-0.0341405
-0.00378932,-0.0210261
-0.00644735,-0.00231395
-0.00958107,-0.0303299
0.00654006,-0.0308601
0.0114913,-0.0120583
-0.0116003,0.0393009
-0.0313477,0.0555075
-0.0322958,-0.0112855
-0.0342701,-0.0251813
-0.0224755,0.0215488
0.0211314,0.0235364
0.0770534,-0.0151583
0.0927326,-0.0292396
0.0751327,7.34e-05
0.0398729,0.00748542
-0.0078378,0.0214443
-0.0406602,0.0432384
-0.0167908,0.0338335
0.0185069,0.0356248
0.0373145,-0.00197191
0.0312424,-0.0329994
-0.0288767,-0.032105
-0.0878852,-0.0032605
-0.106791,0.0218388
-0.101584,0.000320833
-0.0687286,0.00233901
-0.025359,-0.01557
0.00719969,-0.0180999
0.00222712,-0.0116619
-0.021114,-0.0220948
-0.000135395,0.0344602
0.0710563,0.0291781
0.135804,-0.0675958
0.173329,-0.0737609
0.169241,-0.015109
0.0875946,0.0264355
-0.008372,0.072645
-0.0866043,0.116057
-0.138879,-0.00752589
-0.131787,-0.0550711
-0.0934498,-0.00227646
-0.0516738,0.00654771
-0.013378,0.0104347
0.0180335,0.00156917
0.0321587,-0.00424621
0.00656528,-0.002072
-0.0099992,-0.00915908
-0.00689037,-0.0237441
-0.00502713,-0.0336153
-0.000526062,-0.0213958
0.00445981,0.00801995
-0.00232021,0.0108376
-0.00494839,0.0113184
0.0296266,0.003648
0.0536248,-0.0145787
0.0363106,-0.0272903
0.0137957,-0.0161831
-0.00074266,0.00951396
-0.0144679,0.0318495
-0.0219661,0.0345349
-0.000162737,0.0154463
0.0213735,0.0164411
0.00618567,0.0245424
-0.0239301,0.00322204
-0.0491216,-0.00503016
-0.0503696,0.0449856
-0.0251282,0.0315022
0.0150703,-0.0476465
0.0253906,-0.0602894
0.0345456,-0.0280983
0.0456337,0.0239335
0.0315395,0.0122034
-0.00827117,-0.0170107
-0.0145266,-0.00401743
0.00428548,0.00631953
0.00157862,0.0164881
-0.00789655,0.0126982
0.00600367,-0.0364224
0.0154378,-0.0617241
0.0105608,-0.0702475
0.0078849,0.0701929
-0.015407,0.0606342
-0.0292209,-0.00751167
-0.0282075,-0.0129464
-0.00634437,-0.0196647
0.00691923,0.0138601
0.0234188,0.0146806
0.0264816,0.00549953
0.000112441,0.0416773
-0.0249835,0.0514649
-0.0155714,-0.0375468
-0.0144361,-0.124158
-0.0171325,-0.107527
0.0118076,-0.0142064
0.0501859,0.105425
0.0650302,0.0869644
0.0427436,0.0236822
0.00139383,0.042108
-0.0342408,-0.0315158
-0.0441334,-0.0558361
-0.0314247,0.00475019
-0.0133604,0.0277381
0.00826477,-0.0017917
0.04669,0.00155287
0.0349045,0.0181875
-0.0403134,0.00443212
-0.11148,-0.00224306
-0.0906331,5.84e-05
-0.0481259,-0.00718774
-0.0152789,-0.0214566
0.0284228,-0.0114808
0.0872373,0.00551828
0.0888972,0.00269775
0.0179109,0.0184591
-0.0254108,0.0339632
-0.0183562,-0.0274292
-0.0235162,-0.0644244
-0.0089361,-0.0261958
-0.00496535,0.00757334
0.00875644,0.0116375
0.0388176,0.0152346
0.0432277,0.0094589
0.0292453,-0.0034721
0.0471428,0.00135206
0.0697369,0.00972382
0.0496852,0.0199988
0.0162567,0.0197361
0.00170284,-0.0379191
-0.0319085,-0.026475
-0.0721279,-0.00986713
-0.0554381,0.0112103
-0.0392597,0.020893
-0.0422182,-0.00642172
-0.0376165,-0.01378
-0.00222542,-0.00457025
-0.00830642,0.00826674
-0.0286224,0.0617313
0.0384873,0.0553004
0.0905358,-0.0134318
0.0644013,-0.00693636
0.00221207,-0.0356473
-0.0854479,-0.0556185
-0.165194,-0.0392107
-0.162435,-0.00800699
-0.0885953,0.0172861
-0.0162219,0.0194107
0.0440323,0.0466436
0.0822928,0.0685587
0.104928,0.0163903
0.0763839,-0.064597
0.0267853,-0.0719211
0.00226908,0.0173596
0.0434441,0.0469325
0.0912602,0.0417431
0.0812821,-0.0444601
0.0309738,-0.0657582
-0.0215229,-0.00197009
-0.0468985,0.0243176
-0.0531495,0.000143542
-0.0511772,-0.0107079
-0.0311097,0.0202577
-0.00688292,0.0406553
0.00767885,0.0117149
0.0306133,-0.0253522
0.0415828,-0.0347973
0.0259461,-0.0150697
0.0211975,0.0136931
0.0233754,0.0106568
-0.0252233,-0.025882
-0.0366557,-0.0376459
0.00568809,-0.00692539
0.0106351,0.0237825
0.00117682,0.0321435
-0.00201505,0.0412727
-0.0278278,0.0298977
-0.0378229,-0.0116916
-0.0247434,0.00331342
0.00350314,0.00721012
0.0399541,0.0120499
0.0354757,0.0141997
0.0230374,-0.0224213
0.00676987,-0.0284601
-0.0146476,-0.013704
-0.0297611,0.037646
-0.0177455,-0.0185522
-0.0225657,-0.0384878
-0.0142131,0.010857
-0.00152603,0.0237103
-0.0127723,0.00051684
-0.0269994,-0.0142238
-0.0272218,-0.0177396
-0.0281824,-0.00762733
-0.0322116,0.00269841
-0.0180361,-0.00561463
0.0165824,-0.0101833
0.0429048,0.00800144
0.0457267,0.00870656
0.0486701,0.00101677
0.0515001,-0.00213625
0.0471285,-0.00625955
0.0313499,-0.00212158
0.00996187,-0.00272802
-0.0189793,-0.00785308
-0.00516598,0.0273936
0.00635906,0.0462195
-0.0359309,0.00933097
-0.0689115,-0.0171688
-0.0547358,-0.0163955
-0.0377703,-0.0158382
-0.0394254,-0.0159609
-0.00755788,-0.00395878
0.0405776,0.0157125
0.0320281,0.0433942
0.0124006,0.0786668
0.0250654,0.0259509
0.0222486,-0.0677454
-0.0299461,-0.0451035
-0.0373591,-0.00886641
-0.00283772,-0.0256752
0.0108171,-0.0563256
0.0310995,-0.0359182
0.0278535,0.0314186
0.0139586,0.0441898
0.0230725,0.0434214
0.0254712,0.014687
0.010134,-0.00896451
-0.00665858,-0.0112653
0.0229276,-0.00972831
0.0610785,0.0151415
0.0473379,0.0272993
6.62e-05,0.0224991
-0.0467302,0.0105436
-0.0681279,-0.0163423
-0.0744723,-0.0308972
-0.0675073,-0.0271522
-0.0490532,-0.0355638
-0.0134309,-0.0255851
-0.0109905,0.0149319
-0.0641424,0.00987839
-0.0768182,-0.0161005
-0.0158492,0.0142227
-0.000250336,-0.0220965
-0.045865,-0.0697866
-0.0482962,-0.0402056
0.012681,-0.0135289
0.080114,0.0146734
0.0981011,0.0495014
0.0809449,0.0754459
0.0551495,0.0344513
0.0244188,0.000700547
0.0260306,0.000589303
0.0431776,0.00514109
0.0546235,0.00106343
0.0731618,0.0110785
0.0569965,0.0256604
0.00585459,0.0130856
-0.00839628,-0.0216164
0.0130551,-0.0402575
-0.0186531,-0.0235371
-0.0832967,-0.00520068
-0.0782777,0.011113
-0.00884017,0.0431002
0.0218999,-0.0248413
0.0275973,-0.0800878
0.0024832,-0.0546424
-0.0314606,0.0448302
-0.0594592,0.0902036
-0.0699075,0.0129319
-0.0809686,-0.0135717
-0.036957,0.0126451
0.035084,0.00832808
0.0440921,0.00535034
0.0199903,-0.000193881
0.00693222,0.00714073
-0.0155578,0.0178577
-0.0232453,0.000903774
-0.00815757,-0.0182246
0.026707,-0.00657241
0.0634114,0.0131329
0.0587085,0.0279324
0.0541182,0.0280383
0.0505671,-0.0121018
0.0195387,-0.0475274
-0.0116672,-0.0312135
-0.0105551,-0.0105123
-0.00669062,-0.0231113
0.0143212,-0.00582123
0.0332453,0.0256871
0.0106409,0.0293056
-0.0283374,0.0104998
-0.0424104,-0.00298183
-0.046547,-0.00604217
-0.0603373,-0.0107064
-0.0651344,-0.00649914
-0.031124,0.0131145
0.00565284,0.0202251
0.0235016,0.00941836
0.0277169,-0.0187504
-0.00162128,-0.0367233
-0.0207768,-0.0477378
0.0159815,-0.0083067
0.0172025,0.0170979
-0.0179861,0.0445678
-0.00081768,0.0901087
0.0108078,-0.00080056
-0.00322893,-0.061053
0.00366859,-0.00717598
0.00695139,0.0235253
-0.00950564,0.00636968
-0.0118646,-0.0232832
0.0166753,-0.027891
0.0581423,-0.0202817
0.0610219,-0.0115084
0.0344724,0.00474717
0.00197699,0.0305338
-0.0384727,0.0939794
-0.0565145,-0.000307217
-0.0455119,-0.0713469
-0.0229516,-0.0165141
-0.00446018,0.00597703
0.0139128,0.0146412
0.0171119,0.00433852
0.00123505,-0.0111825
0.00441746,-0.0159156
0.00451987,-0.0190085
-0.0207028,-0.0178952
-0.0447781,-0.0148967
-0.0165846,-0.0169326
0.0271902,-0.00369968
0.0307721,0.0294062
0.0311798,0.0257721
0.0282386,0.00389972
0.0103722,-0.00507294
-0.00865834,-0.0145181
-0.00476592,-0.0135734
-0.00648797,-0.00939741
0.0118238,0.00410433
0.0211992,0.0229835
-0.0295722,0.0234286
-0.0948477,0.010429
-0.0994732,-0.0112526
-0.0353863,-0.0405915
0.00453448,-0.0293849
0.0156471,0.024022
0.0530306,0.0446142
0.0563428,0.0409668
0.0305101,0.0226399
0.0303058,-0.0015446
0.00839692,-0.0191121
-0.0224879,-0.00386572
-0.0388454,0.0261033
-0.0580507,-0.00410184
-0.0460588,-0.0399147
0.038858,-0.0559483
0.0937007,-0.022208
0.0610053,0.029845
0.0268448,0.0402607
0.00755162,0.0266461
-0.0245335,0.0123846
-0.035214,-0.000838564
-0.0024447,0.0109692
0.0416747,0.0124178
0.049302,0.00445225
0.0324269,0.0121237
0.0223079,-0.0112942
0.0100435,-0.0678886
-0.0242532,-0.0711555
-0.0488551,-0.0394606
-0.0536973,-0.0157934
-0.0225259,0.025394
-0.0119776,0.0453197
-0.0290633,-0.00740091
-0.0350278,-0.0523332
-0.0293061,-0.0433555
-0.0222173,0.046091
-0.00552757,0.0769328
0.044149,0.0445952
0.0859563,0.0254149
0.0729203,0.0111589
0.059255,0.0122532
0.044458,0.0233656
0.00991658,0.0132979
-0.0265538,-0.03027
-0.0441677,-0.0771179
-0.054096,-0.0245539
-0.0525388,0.0400616
-0.0437836,0.0477081
-0.0242622,0.0161427
-0.0247759,-0.0011259
-0.0657233,-0.00125312
-0.0690547,-0.0193002
-0.0144165,-0.0267768
0.0404932,-0.00821045
0.0689575,0.00213555
0.076142,0.018541
0.0555547,0.0188529
0.0382906,-0.012641
0.0341531,-0.0199229
-0.0136664,-0.0163598
-0.0642987,-0.0259628
-0.0570141,-0.0485346
-0.024604,-0.0500157
0.0507304,-0.020344
0.0664779,0.0361122
-0.0141767,0.0651697
-0.040316,0.0482781
-0.0248219,-0.00237477
-0.0425666,0.00533443
-0.0152757,-0.000966518
0.0688088,-0.0121673
0.102069,0.0180701
0.0701163,0.0278722
0.0243029,0.00972569
0.00755649,-0.000404379
-0.0251506,-0.00336551
-0.0505194,-0.0203428
-0.0570515,-0.0137211
-0.0452417,-0.0117346
-0.0251668,-0.00959441
0.00721041,0.00122643
0.0237076,0.00891644
0.00052368,-0.00179399
-0.0222728,-0.00603809
-0.0430383,0.000121441
-0.0306978,-0.00754684
-0.00522757,-0.00520779
0.0293379,0.00876519
0.0539067,-0.00411994
0.032303,-0.0122671
0.0215054,-0.018461
0.0230172,-0.0234706
0.00945613,-0.00876463
-0.0266659,0.0200933
-0.0289514,0.0357888
-0.0193093,0.00913332
-0.00721167,-0.0122849
0.0102055,0.0190681
0.00467063,0.0200537
-0.00737596,-0.0242543
-0.0114991,0.000815921
-0.0179428,0.0297587
-0.0106617,-0.0283149
-0.00806588,-0.0167282
0.0164765,0.0398102
0.0410305,0.0360007
0.022833,0.0421906
-0.0168045,0.015464
-0.0477767,-0.0700534
-0.0329366,-0.104359
-0.00209072,-0.0797779
0.00973859,0.00081539
-0.00357875,0.0394243
0.00381863,0.0371757
0.0166315,0.0466954
0.0122017,0.00880051
-0.00815881,-0.0118913
-0.0137005,-0.0125057
-0.0183775,0.000557594
-0.0369329,0.00767824
-0.0139841,0.000450132
0.0504797,0.00820322
0.0705295,0.0228557
0.0569013,0.0367373
0.0131646,0.0426046
-0.0793983,0.0282859
-0.139382,0.0170949
-0.0734639,-0.0222104
0.0934786,-0.0864327
0.180686,-0.0318698
0.209282,0.0293615
0.186704,0.0175482
0.0848701,-0.00336479
-0.0379317,-0.017516
-0.117717,-0.0346757
-0.149291,-0.0354274
-0.13971,-0.0251674
-0.0808485,-0.0070123
-0.0356323,0.0255134
-0.0435572,0.0309928
-0.0642065,0.0279
-0.0522473,0.010662
-0.0389679,-0.0166935
-0.0334249,-0.0382351
-0.0394844,-0.021496
-0.0518743,0.00445258
-0.00642292,0.00134732
0.0458648,0.0168256
0.0641987,0.0349613
0.0668153,0.0219188
0.0602526,0.018243
0.049057,0.00642447
0.0368769,0.00128068
0.0248784,0.00850361
0.0591943,0.0248605
0.0642733,0.0352744
0.0427639,-0.00125187
0.0305868,-0.015005
0.0360266,3.1e-05
0.00773394,-0.00712764
-0.0772009,-0.0154415
-0.108924,-0.0242339
-0.0861604,-0.0483937
-0.0512414,-0.060381
-0.020396,-0.0142421
0.00815829,0.0147574
0.0262316,-0.00456034
0.0292832,-0.0291476
0.00308707,-0.025418
-0.0132431,0.00436084
0.0202486,0.053892
0.0775596,0.0622218
0.09896,0.0338485
0.0689316,0.0117052
0.0196494,0.00238772
-0.0269521,-0.00549332
-0.0885119,-0.0134904
-0.107751,-0.0248581
-0.0501705,-0.0287572
0.00189741,-0.014197
0.00809304,-0.00350712
-0.0130119,0.0142464
-0.0399672,0.0329923
-0.0286889,0.0296575
-0.0037133,-0.0166482
-0.00373685,-0.0634047
-0.00227237,-0.0743931
0.0241048,-0.00106074
0.0577981,0.0682681
0.0635984,0.0219143
0.0606403,-0.00501371
0.0393093,0.0262765
0.00166558,0.0365463
-0.0284632,0.0481108
-0.0110695,0.0418947
0.028649,0.0220422
0.0380494,-0.0161942
0.0258811,-0.0592705
-0.00421371,-0.0496303
-0.0491327,-0.038088
-0.0563394,0.0309238
-0.0508002,0.0864312
-0.0793227,-0.00256015
-0.0715789,-0.060107
0.0197686,-0.0572099
0.0486535,-0.00745787
0.0112815,0.00974502
-0.0355609,0.0209205
-0.0576576,0.0064715
-0.000840492,-0.0312845
0.0395449,-0.0297678
0.0827113,-0.0112767
0.0705837,0.0171319
0.0554613,0.0900909
0.0452532,0.0819835
0.00911641,-0.0244154
-0.00811818,-0.0714828
-0.0064256,-0.0242397
-0.0241388,0.00337948
-0.0610061,-0.0079983
-0.0697927,-0.0140839
-0.0260713,-0.00984354
0.00525769,0.00170076
0.000592168,0.0118218
-0.00304981,0.0191097
-0.00939226,-0.0292021
-0.0227952,-0.0454062
-0.0299099,-0.0387237
-0.043226,-0.0266778
-0.022459,0.0132967
0.0297542,0.0385744
0.0292654,0.0473019
-0.0356239,0.0531927
-0.00911583,-0.00757738
0.0663469,-0.0542582
0.0455189,-0.0161077
-0.000663873,0.0201883
0.0144459,0.0296072
0.0537089,0.0449783
0.0474428,0.0346289
0.0339939,0.0251703
0.0239173,0.016831
0.0172821,-0.0121459
0.00181231,-0.0133728
-0.0150209,-0.0261748
-0.0410718,-0.0953911
-0.0219789,-0.0842352
0.0230546,0.00520329
0.0274614,0.0552026
-0.00605347,0.0552892
-0.00276836,0.0173393
0.0071977,-0.000988138
-0.0221414,0.0179785
-0.0499541,0.0320433
-0.0624963,0.00711181
-0.034735,0.000176124
-0.005196,0.000180642
-0.0263084,0.014937
-0.0737216,-0.00894991
-0.0765612,-0.0640164
-0.0562272,-0.0717302
-0.0693172,-0.0215124
-0.0844343,0.0317941
-0.000846691,0.0454988
0.0894751,0.030091
0.126927,0.0173046
0.121148,0.0620096
0.16239,0.0175957
0.154901,-0.0746018
0.0398318,-0.0298498
-0.0281572,0.00212121
-0.036869,0.0197867
-0.0528299,-0.00164315
-0.0271368,-0.0282294
0.0498341,-0.0322815
0.0627102,-0.0172114
0.0302468,-0.00913275
0.0245032,-0.0257098
0.0227843,-0.00453081
-0.0106009,0.0324156
-0.0133049,0.0322477
-0.0108591,-6.56e-05
-0.0567652,0.00616101
-0.115616,0.0185289
-0.173161,-0.00229029
-0.213156,-0.020763
-0.180786,-0.0249888
-0.0178333,-0.031834
0.147102,-0.0327276
0.17906,-0.0109713
0.132088,0.0433727
0.0846975,0.0826611
0.0212183,0.0609956
-0.0212511,-0.017274
-0.0260147,-0.0485677
-0.0480151,-0.0293687
-0.0404165,0.0406206
-0.00741759,0.0665689
0.0336797,-0.0271928
0.0534645,-0.00740889
0.0612395,0.00462103
0.0601412,-0.0230489
0.0355159,-0.0226291
0.00570635,-0.0149908
-0.0118082,0.00566041
-0.0136476,0.0278307
-0.0218945,0.0240757
-0.0272047,0.00583318
-0.0553091,-0.00915204
-0.0764975,-0.0259186
-0.0584908,-0.0321745
-0.0211486,-0.00546979
-0.0114625,0.0170599
0.00273411,0.0242737
0.0337871,-0.00199711
0.0338761,0.00278868
0.00549864,-0.0120799
0.00120626,-0.0246324
0.023024,-0.0240006
0.00488171,-0.0294319
-0.0135309,-0.0259858
-0.00620747,0.0121427
0.00331275,0.0426155
0.00264509,0.066821
0.000991806,0.00625658
0.00686451,-0.0569353
0.000540952,-0.0341424
0.000901938,-0.00549213
0.00822597,-0.0141463
-0.00361196,-0.0176801
0.00453535,0.0183142
0.0218415,0.0259206
0.00267024,0.00616005
0.00314343,-0.0169144
0.0187553,0.0130279
0.00511777,0.0319036
-0.0175275,0.0139574
-0.0043295,0.0670554
0.0425307,0.0929277
0.0435249,0.0565392
0.0107583,0.0534355
-0.00493972,-0.0777633
0.00343386,-0.148123
-0.0160915,-0.08815
-0.066045,-0.0393789
-0.0901599,0.00951019
-0.101409,0.0343292
-0.0774931,0.0367809
-0.0518806,0.00390016
-0.0362246,-0.0172003
0.0415775,-0.0138066
0.0948804,0.000324006
0.0881729,-0.000107771
0.0679093,-0.0159313
0.0647829,-0.0108241
0.0540017,0.0158664
0.0212081,0.00972216
0.0278082,0.00771872
0.0144843,0.00987014
-0.0240007,-0.00699567
-0.0551059,-0.00965369
-0.0599349,0.0172038
0.0105589,0.0216875
0.133919,0.0067581
0.199693,0.0223747
0.134155,0.0371579
0.0205832,0.00215172
-0.111737,-0.0443288
-0.188026,-0.0449642
-0.210927,-0.0326953
-0.239768,-0.0607609
-0.168221,-0.0792453
0.0138867,-0.062146
0.142378,0.0625854
0.114072,0.104293
0.0560315,0.0452146
-2.4e-05,0.0787781
-0.0457487,0.116292
-0.0960405,0.0707782
-0.084976,-0.0352003
0.0226539,-0.0870886
0.068058,-0.024097
0.0415407,0.00278367
0.0331175,-0.0121227
0.0420889,-0.0138131
0.0369083,-0.00514896
0.0539267,-0.0125284
0.0873461,-0.039751
0.0930551,-0.0168382
0.0250672,0.00774429
-0.0419553,-0.00483767
-0.067552,-0.0378443
-0.0595065,-0.0435376
-0.00727573,-0.0346483
0.0173742,-0.0145916
0.00660436,0.0688206
0.00294665,0.172612
-0.0106223,0.0320296
-0.0172986,-0.0888531
0.0359097,-0.0586509
0.0868163,-0.027648
0.0540883,0.00970049
0.00944619,0.0122795
-0.0403143,-0.0139411
-0.053814,0.0184216
-0.00863354,0.0239609
0.00657593,-0.00862152
-0.0323995,-0.0136603
-0.0767542,-0.0426151
-0.0846632,-0.0151608
-0.0976527,0.0590855
-0.0699563,0.108896
0.00258675,0.0167172
0.0933891,-0.0706384
0.149224,0.0216496
0.200843,0.0125036
0.209155,-0.0331671
0.207573,-0.0161797
0.190921,-0.00289245
0.0622023,-0.0193663
-0.11001,0.00123073
-0.282794,0.0521822
-0.313852,-0.0353005
-0.234694,-0.092047
-0.166782,-0.0177899
-0.108558,0.00744725
-0.0494326,0.0244739
-0.0483325,0.0316558
-0.0299429,-0.00578598
0.0162027,-0.0383029
0.055142,-0.0258066
0.0667803,0.0115526
0.0567491,0.0281314
0.0481129,0.0230266
0.0172103,0.00619301
-0.0297212,0.00409954
-0.0642627,-0.00604223
-0.00129685,-0.0288812
0.0567648,0.0208562
0.0483958,0.051926
0.0396449,0.0382171
0.0361554,-0.0166062
0.0341519,-0.0290606
0.0461891,-0.0422012
0.0426289,-0.0285886
0.0372471,-0.0116429
0.0222298,-0.0111811
0.0401251,0.00205729
0.0562654,0.0271178
0.0205326,0.0115957
-0.00279249,0.00607885
0.00472364,0.0022956
0.00177535,-0.0320272
-0.0773014,0.0111534
-0.123644,0.0445204
-0.0999817,0.00429095
-0.0658852,-0.0313388
0.0146095,-0.0130299
0.0996276,0.0079083
0.0959287,0.101402
0.0529139,0.0617163
-0.00994182,0.0642535
-0.0494458,-0.0206541
-0.037904,-0.0569288
-0.0672731,-0.0246524
-0.100919,-0.00696233
-0.0242789,0.0566775
0.154492,0.00880166
0.272398,-0.0526488
0.236202,-0.0317447
0.150014,-0.0134947
0.0807884,-0.0152427
-0.0525268,0.00724819
-0.122572,-0.0240871
-0.0877126,-0.0628055
0.0118645,-0.0486252
0.0485543,-0.0225889
-0.0140677,-0.00999643
-0.114449,0.0110068
-0.162736,0.0516255
-0.104271,0.10835
-0.0478766,0.0259494
-0.00802191,-0.0924275
0.0457025,-0.0631449
0.0656855,0.00822212
-0.0852041,0.0370434
-0.268594,0.0164187
-0.27526,0.0186047
-0.20536,0.0423449
-0.0858996,0.0380708
0.0358343,0.0188984
0.0833727,-0.0207439
0.112241,0.00837225
0.121974,-0.0237813
0.132395,-0.0415528
0.179366,-0.0314116
0.13855,-0.00883577
0.0355813,0.023419
0.00633374,0.0322704
0.00437274,-0.00305247
-0.012519,-0.0461454
-0.0493883,-0.0342414
-0.0768114,0.075067
-0.0204315,0.0647555
0.0973828,-0.0319115
0.118023,-0.0382176
0.0665971,-0.0137359
0.0562474,-0.0150001
0.0945674,-0.0276243
0.0625835,-0.0272527
-0.0358754,-0.000924893
-0.102706,0.0262429
-0.147975,0.0372462
-0.130492,-0.0250633
-0.0590354,-0.00943946
-0.0356552,0.0579223
-0.0708323,0.129659
-0.0457886,-0.018871
0.0109756,-0.0748637
0.108017,-0.0215485
0.219707,0.0239438
0.259929,0.0372008
0.189547,-0.000875692
0.0478553,-0.0442527
-0.0810124,-0.0076081
-0.161648,0.0220078
-0.195792,0.00938716
-0.222119,-0.0790772
-0.157436,-0.0849073
-0.0611995,-0.0194898
-0.0292077,0.0440668
-0.0730391,0.0157576
-0.106869,-0.0571364
0.04876,-0.0574081
0.250656,-0.0166196
0.300074,0.0503224
0.220249,0.0957266
0.148069,0.0499717
0.0359377,-0.0148621
-0.0882452,-0.0294421
-0.142472,-0.0196895
-0.141711,0.0484832
-0.116308,0.0233484
-0.0828592,0.00600487
-0.0527524,-0.034972
-0.0521581,-0.0604719
-0.0611726,0.00151034
-0.0119213,0.0301816
0.00311303,0.0758108
-0.0529414,0.0746007
-0.0677472,0.00737068
-0.0534358,-0.0383557
-0.0132762,-0.0174953
0.0403382,0.0309362
0.0688054,0.0602453
0.0907061,0.0538008
0.0769279,-0.0465298
0.092554,-0.0460029
0.112046,-0.0503585
0.119738,-0.0807964
0.0747833,-0.0188713
0.00857906,-0.0150599
0.0112276,-0.0501561
-0.0309499,-0.0143359
-0.10136,0.00947785
-0.119332,0.0144962
-0.073962,0.00430121
0.0030774,0.0280171
0.0757408,0.0163233
0.0802382,0.00105655
-0.00147915,-0.00180765
-0.0496561,0.014701
-0.0774404,0.0342737
-0.0913508,-0.0151222
-0.0142335,-0.0662156
0.0390835,-0.0299108
0.0124374,0.0798506
0.110877,0.00892903
0.215395,-0.0664165
0.180253,0.0282127
0.0410652,0.129619
-0.0772019,0.0445213
-0.118006,-0.055564
-0.0981928,-0.0402383
-0.151771,0.0595699
-0.175469,0.0826511
-0.0790579,-0.0148089
0.00758827,-0.130065
0.0598303,-0.0226365
0.0598525,0.00583038
-0.00921954,-0.0188313
0.00910731,-0.0371572
0.111591,-0.027837
0.177397,-0.00262118
0.144482,-0.00842156
0.0902665,-0.0214969
0.0388719,0.00768769
-0.0228792,0.0459245
-0.0779529,0.0365306
-0.129594,0.000730239
-0.136284,0.00827884
-0.11768,0.00728365
-0.0404719,-0.0314168
0.00348829,-0.0774186
-0.00863268,-0.017283
-0.03206,0.0479456
-0.0743008,0.0588965
-0.146959,0.0435706
-0.192588,0.0245492
-0.106243,-0.0150314
-0.00211855,-0.0317761
0.0873221,-0.00420505
0.0939509,-0.00774301
0.0336383,0.00258051
0.0300396,0.0608661
0.0904705,-0.0118728
0.11348,0.0238002
0.0587417,0.0455802
0.014701,0.000270857
0.0479326,0.0236364
0.0814383,-0.054508
0.0686149,-0.0259539
0.0559387,-0.0224684
0.0289238,-0.00208305
-0.00716705,0.0716326
-0.0094248,0.0233727
-0.0231775,-0.0759093
-0.0545849,-0.0333484
-0.0597614,0.000607999
-0.0679028,-0.00356282
-0.0273809,-0.0248979
0.0255983,0.00470656
0.0297185,0.0388999
0.0493502,0.0600819
0.0868876,-0.00232128
0.0801058,-0.0184602
0.043629,0.0161184
-0.0849821,-0.0346473
-0.229873,0.0299228
-0.180704,-0.0155432
0.0128091,-0.117062
0.148363,-0.030369
0.173077,0.0276418
0.118526,-0.00418944
0.106748,-0.0455964
0.0808319,-0.0428678
-0.0450168,-0.00513358
-0.163744,0.0432082
-0.170432,0.0599653
-0.178967,0.0768372
-0.096543,0.0241122
0.00308614,-0.0466222
0.012906,-0.00149595
0.0145907,0.0185902
0.0274565,0.00966727
0.0603676,0.0340027
0.0262392,0.0226762
-0.00196975,-0.0170469
0.0239095,-0.0190774
0.0283323,-0.0242292
0.0364623,-0.0449113
0.0350816,-0.0448379
0.0246673,0.00311382
0.000689332,0.0572187
0.020382,0.0522085
0.11101,0.0439224
0.0781715,-0.00657875
-0.00151818,-0.053808
-0.0308675,0.0374311
-0.023257,-0.0258421
-0.00121429,-0.0238295
0.0227206,-0.0303533
-0.00710903,-0.0183652
-0.0584949,-0.0164922
-0.107581,-0.0303725
-0.122882,-0.064965
-0.0745164,-0.00230418
0.000247629,0.0327735
0.0919662,-0.0177749
0.0983924,-0.0137174
0.0986094,0.00904768
0.140936,-0.00213942
0.107349,0.0347532
-0.0201612,0.032677
-0.0779252,-0.00387967
-0.0738358,0.0238406
-0.0769597,0.0544114
-0.0444294,0.0903917
0.0157696,-0.0441362
0.0165835,-0.0524104
-0.0504001,0.0168411
-0.125841,0.0661275
-0.111074,-0.0521164
-0.0555615,-0.0722613
-0.0174425,-0.0229991
0.0250787,0.0235049
0.0702172,0.00594806
0.0837701,-0.0197577
0.0199126,0.0868711
-0.0531684,0.124267
-0.062354,-0.0244463
-0.0285504,-0.0214064
0.0104724,-0.0764583
0.0171665,-0.083121
0.0197895,0.00259904
0.0430233,0.130683
0.0551866,0.0567558
0.0284065,-0.00432374
-0.00664312,-0.0643981
-0.0507358,-0.0251435
-0.05873,-0.00778739
-0.0210273,-0.0322437
0.0401658,-0.0133563
0.116515,0.0180974
0.121095,0.0633629
0.0245086,-0.0464502
-0.0362482,-0.0773588
-0.0169345,-0.0097759
-0.0353169,0.00459453
-0.0486394,-0.00790972
-0.0123361,-0.0205115
0.0266839,-0.00104028
0.0551823,0.0281748
0.0657129,0.0574418
0.00211706,0.0449703
-0.0909088,-0.0314541
-0.0824572,-0.00979793
-0.0237923,0.0696724
0.031549,0.0425939
0.049095,-0.044415
-0.00545964,-0.0466252
-0.0394641,-0.0258297
-0.0131071,-0.00713909
-0.00313019,0.0281235
-0.0346482,0.0717657
-0.0607286,-0.0753425
-0.0259281,-0.0943229
0.0259185,-0.0427278
0.00215166,-0.00347399
-0.0296676,0.0713474
-0.0189972,0.0649034
0.00628391,0.0240797
0.0591853,-0.00154752
0.0517361,-0.0198026
0.047613,-0.0215467
0.0203932,-0.00736948
0.0185801,0.0216378
0.0489336,0.0398707
0.0409609,0.0171486
0.0089945,-0.00912219
0.00174589,-0.0387328
0.0116309,-0.0709364
0.00111407,-0.0125677
-0.00314247,0.0668763
0.028292,0.0418896
0.0335494,-0.0104939
-0.0134614,-0.0281126
-0.0414357,-0.000911525
-0.0509749,0.0190188
-0.0743683,-0.000289619
-0.0803875,0.0366361
-0.0851178,-0.00465281
-0.0949972,-0.0530073
-0.029564,-0.0765044
0.0607047,-0.0833797
0.0837964,-0.0341024
0.0468161,0.0347209
0.0224557,0.0654898
0.0379337,0.0506032
0.0528963,0.000290162
0.042051,0.00136697
0.0199856,0.0339392
0.0153043,0.00590169
0.0219077,-0.00678712
0.0135663,0.0206215
0.0105805,0.00846853
0.010702,0.0376832
0.0076848,0.0602402
-0.0108828,0.00802562
-0.0339659,-0.0846079
-0.0311866,-0.0511738
-0.0369391,-0.00878116
-0.0561383,-0.00762986
-0.0122569,-0.00855398
0.0526005,0.00704384
0.0484468,0.0201793
0.0246211,0.0158958
0.0117703,-0.0214497
-0.00807143,-0.0206145
-0.0633109,-0.00355104
-0.111323,0.0365374
-0.0994888,0.0753535
-0.057411,-0.0141203
-0.0772928,-0.0443926
-0.0902256,0.0204661
-0.0185725,0.0265039
0.033414,-0.0171422
0.0847199,-0.0451992
0.121195,-0.0421196
0.113162,-0.00197326
0.0975052,0.0281497
0.0800901,0.0259349
0.0723017,-0.0164947
0.0270119,-0.0449987
0.0117647,0.0103664
0.020638,0.0504374
-0.000980868,-0.0228909
-0.0551226,-0.00336136
-0.0871823,0.00307338
-0.0826693,0.00251039
-0.0953618,-0.00801592
-0.123824,-0.00289653
-0.135322,0.0300564
-0.0399052,0.0320786
0.0925456,0.016723
0.103774,-0.0152404
0.0452695,-0.0226011
-0.0213139,-0.00832195
-0.0626816,-0.0185913
-0.0537688,0.00293958
0.0235431,0.0175606
0.0348541,-0.0174904
0.0273922,-0.0443809
0.0452128,0.0251452
0.0399104,0.0643618
0.0412429,0.0323168
0.0467734,-0.0713797
0.0308848,-0.0284443
0.0299791,0.0176798
0.0711148,-0.0439746
0.106323,0.00903591
0.0492825,0.0237224
-0.0310525,-0.00801798
-0.0776896,-0.0179406
-0.0839225,-0.00214911
-0.0815032,0.0480654
-0.0747867,0.0247259
-0.0442918,-0.0167842
0.0187521,-0.040675
0.0615642,-0.0173985
0.0495622,0.0100478
0.00778603,0.0412778
-0.00944752,0.0261167
-0.0206688,-0.0394767
-0.0615566,-0.0400274
-0.0800788,-0.0136714
-0.0314924,0.0324908
0.0385295,-0.016507
0.0317715,-0.0421406
-0.0104521,0.0250272
0.00462313,0.0301398
0.0233649,-0.00127221
0.0275882,0.0647478
0.0310249,0.0639502
0.0175802,-0.0660259
0.0290402,-0.0369288
0.0570538,0.0391854
0.0548701,0.0339061
0.0492377,0.00996567
0.0694925,-0.00209733
0.0554598,0.0292695
-0.0271942,0.0089977
-0.0763545,-0.0488462
-0.0567551,-0.0152954
-0.0171969,0.0102943
-0.0369319,0.0150799
-0.0611019,-0.0154225
-0.0585354,-0.0281385
-0.0689697,-0.00561742
-0.0703563,0.0197338
-0.0355677,-0.0030709
0.00920004,-0.0249422
-0.0100043,-0.00949096
-0.0387878,-0.00910461
0.0235295,-0.0502757
0.086033,-0.0859768
0.0566505,0.000892607
0.0422028,0.030613
0.0381244,0.0373974
-0.011769,0.0236686
-0.0315673,0.0135814
-0.00466876,0.00725699
0.0520054,-0.00540951
0.0804551,0.00746496
0.0600338,0.0304623
-0.00805677,0.0148265
-0.0806389,-0.0167639
-0.103752,-0.0274612
-0.0485066,-0.0131293
0.0118476,0.0190969
0.0324761,0.0221599
0.021869,-0.012834
-0.0130303,0.0333178
-0.00641642,0.0391923
0.00712886,-0.0450515
-0.0389591,-0.0352149
-0.0175898,-0.0264338
0.0735014,-0.0145476
0.0709103,0.020196
-0.0396438,0.0732997
-0.0617024,0.0181351
0.0193306,-0.042386
0.0595747,0.00503624
0.0175786,0.00497741
-0.0214824,0.0292367
0.0490519,0.0355684
0.025036,0.0555566
-0.0287694,-0.0401214
-0.00125165,-0.0472581
-0.00171628,-0.046875
-0.0434333,0.0349907
-0.0532813,0.0565456
-0.0457889,-0.0193164
-0.0325803,-0.052813
0.00586968,-0.0511755
0.0153927,-0.0118068
-0.0329095,0.0115666
-0.0589483,-0.0104738
-0.0643904,-0.0219689
-0.0257428,-0.0217696
-0.0681531,-0.0430082
-0.0461748,-0.014253
0.0792108,0.0543344
0.17992,0.020973
0.182745,-0.00148822
0.0909975,0.00448451
0.0479222,-0.0102869
0.0453669,-0.0102086
0.0234219,0.041706
0.019329,0.0393017
0.0468979,0.0362285
0.0192325,0.0383427
-0.0340108,-0.000771783
-0.0642877,-0.0229559
-0.081175,-0.0367487
-0.0944987,-0.0261198
-0.104573,-0.00357412
-0.0710478,-0.0126659
-0.0282303,-0.0201297
0.0107961,0.0118105
0.0173894,0.0269274
0.0321508,0.0359606
0.0227348,0.00985939
-0.0252139,-0.0287951
-0.0405034,-0.00300015
-0.0163462,0.00630633
0.00966274,-0.012045
0.0494943,-0.00543889
0.0677191,-0.00511931
0.0684984,-0.0352183
0.0195703,0.012341
-0.0149574,0.0662536
-0.0460629,0.125084
-0.0833862,-0.0047423
-0.0510301,-0.117017
0.0695515,-0.0412181
0.124026,-0.0103992
0.0435432,-0.0114217
-0.0159794,0.0207831
-0.0181673,-0.00873631
-0.100044,0.0208327
-0.189575,0.00372167
-0.141055,-0.0340459
-0.00224251,0.00889057
0.039191,0.0339881
0.031533,0.027655
0.0685164,0.038968
0.0893823,-0.0255381
0.0941491,-0.052293
0.0435381,-0.063335
-0.0462571,-0.0369105
-0.0741733,0.00943241
-0.0349264,0.0515535
0.000216026,-0.0122825
-0.0130554,-0.0202838
-0.00258461,0.0234015
0.0157639,0.07207
0.0433148,0.0356829
0.0511659,-0.0326469
0.0147066,-0.0280273
0.0510678,-0.000614944
0.10581,-0.00132362
0.079485,0.00775335
0.0107291,0.00290065
-0.0793135,0.00314753
-0.104989,0.0125321
-0.0294354,-0.0268636
0.0465053,-0.0277053
0.0804704,0.0136609
0.0710883,0.00537854
0.0647466,0.0204642
0.0127697,0.0422042
-0.0477156,0.000702105
-0.0587521,-0.0894674
-0.102321,-0.0500356
-0.15303,-0.0177355
-0.121892,-0.0385641
0.0216275,-0.0416688
0.109108,0.0223728
0.0637092,0.0922351
-0.00461339,0.0815537
-0.0707129,0.0479695
-0.102302,-0.00452755
-0.0844981,-0.00987291
-0.0119789,0.0236434
0.0502203,0.0580675
0.0903732,-0.0151597
0.126095,-0.0716053
0.109708,-0.0396233
0.0319293,-0.0284047
-0.0527033,0.00776288
-0.0375644,0.0344683
-0.0132433,0.00548749
-0.019894,-0.00946988
0.0068039,0.0243214
0.0112405,0.0423787
-0.0438982,0.0373497
-0.112527,-0.0723397
-0.0909447,-0.031129
-0.0367519,0.0990797
0.039478,-0.00415711
0.0301185,-0.0726725
0.00322656,-0.0821924
0.0221497,-0.0496352
0.0217247,-0.038604
0.000730913,-0.00125399
0.0082029,0.0297041
0.12152,0.00799445
0.164665,0.0230021
0.0497535,0.0430874
-0.0127602,-0.0116029
-0.0219814,0.00658702
-0.0819166,0.019047
-0.076609,0.00821096
-0.0181149,-0.0179826
0.032261,-0.029755
0.00677278,0.00245585
-0.0246848,0.0430326
0.01388,0.14175
0.0626935,0.0676088
0.0533751,-0.0724554
0.0256231,-0.0452871
0.0165818,-0.0249348
-0.0115427,-0.0261024
-0.0532329,-0.0175504
-0.0589178,-0.00893528
-0.0423712,-0.0329302
-0.0197659,0.0110032
0.0129747,0.00327141
0.0608099,-0.0467253
0.0178311,-0.0164986
-0.0872217,-0.00091451
-0.14882,0.0198536
-0.169551,0.00212284
-0.164193,-0.0345118
-0.0607227,-0.016207
0.0504372,0.010906
0.0813355,0.065934
0.123234,0.091357
0.147536,-0.0206644
0.118884,-0.0228926
0.0769347,-0.00429791
0.0459316,0.059275
0.0831221,0.0191293
0.106069,0.0055753
0.0580966,-0.00776365
-0.00163169,-0.0201464
0.018115,0.00761686
0.00411156,-0.0924028
-0.0785732,-0.0718105
-0.127891,-0.00621438
-0.0576469,0.0307422
-0.0178397,-0.00195206
-0.0206472,-0.0164692
-0.0509697,-0.0103628
-0.0830007,-0.0198049
-0.0948289,0.0209153
-0.064885,0.0451425
-0.00490061,0.0362715
0.0356431,0.0117697
0.07143,0.00396345
0.0798324,0.0189663
0.0188647,-0.0103472
-0.0498211,-0.057383
-0.069032,-0.039368
-0.0614197,0.0336231
-0.0402513,0.0375155
-0.0238398,-9.26e-05
-0.0212603,0.00340134
-0.0264192,0.0472951
0.000144844,0.0865111
0.0538705,-0.0592342
0.0535107,-0.0666529
0.0424533,-0.000359779
0.0291498,0.0800929
0.0296643,0.107783
0.0687311,-0.0273832
0.0909186,-0.0693962
0.0669671,-0.0431906
0.0591668,-0.0204269
0.0594766,-0.0200067
0.0573753,-0.0255299
0.0282008,-0.0152669
-0.0113725,-0.000935425
-0.0175001,0.0153223
-0.0106162,-0.0149345
-0.043516,-0.0296703
-0.0974163,0.0744734
-0.082455,0.0740533
-0.057971,-0.0475899
-0.0693877,-0.0303374
-0.0866929,0.0127352
-0.0918873,-0.0185978
-0.0318191,-0.0135717
0.0430915,0.00789021
0.0835429,0.00352258
0.110968,0.00596675
0.0652019,-0.0369883
-0.00951334,-0.0637567
-0.0654718,-0.0125968
-0.085858,0.0769466
-0.072245,0.0560845
-0.0124882,-0.00720738
0.0920752,-0.0183265
0.147028,-0.00515121
0.125347,0.00268201
0.0336313,-0.0182272
-0.0371192,-0.00729248
-0.0428309,0.0107573
-0.0462676,0.00877967
-0.000604911,-0.000137446
0.00694554,0.00782997
-0.0113345,-0.00886061
-0.0266418,-0.0268796
-0.0389111,-0.0113258
-0.0419759,0.0238103
-0.0224477,0.0231518
0.00827709,-0.0279041
0.0705876,-0.0229104
0.106313,-0.0252715
0.0427094,0.077598
-0.00016321,0.163071
0.00196893,-0.0760211
-0.017602,-0.0874137
-0.0681298,0.0234181
-0.0682831,0.0255206
-0.0235414,-0.012095
0.0113366,-0.027063
-0.0577112,0.00947136
-0.14161,-0.0109238
-0.0735449,-0.0285488
0.015314,0.0082438
0.0175054,0.0418515
-0.0269842,0.0339945
0.101885,0.00904921
0.122576,-0.0127023
0.0650033,-0.0619546
0.0541148,-0.0273342
0.0338601,0.00527858
-0.0197242,-0.0209578
-0.0603676,-0.0333156
-0.0532344,0.000927012
-0.0408308,0.0112072
-0.0166292,0.0099603
0.0325624,0.00568384
0.0397441,-0.0172241
0.0115847,0.00184684
-0.0014064,0.00848364
-0.0102051,0.00153423
-0.0410013,-0.00880606
-0.0332546,-0.0198447
0.0264105,0.00326581
0.049242,0.0130871
0.0687049,0.0068698
0.0660147,0.0372331
0.0244797,0.0282243
-0.00332911,0.016548
-0.0461019,0.0250627
-0.0444008,0.0350701
-0.0320404,-0.0228337
-0.0341141,0.0134877
-0.0430943,0.0507959
-0.00168235,-0.0466063
0.0454784,-0.0580241
0.0524599,-0.049011
0.0174642,-0.0301889
-0.0158186,0.0373606
-0.00462237,0.0500858
-0.00349104,0.0278645
0.0204711,-0.00757114
0.011368,0.00511902
-0.0167631,-0.0131924
-0.0281937,-0.0278546
-0.0229247,-0.0605093
-0.0500138,0.0593335
-0.0700192,0.149511
-0.026047,0.0116668
0.0180268,-0.0677989
0.0379957,-0.0458836
0.0770643,-0.03518
0.0580837,-0.00237804
0.00902745,0.0191812
0.0246361,-0.0194106
0.0329044,-0.0184684
0.020754,0.013697
0.0161093,0.0274874
0.0138274,0.0425697
0.00418458,-0.0331334
-0.0401236,-0.0484733
-0.0929848,-0.0333492
-0.090435,-0.0272262
-0.0634908,-0.00583512
-0.0378158,0.0223923
-0.0117458,0.0191994
0.00509719,0.00663676
0.018243,-0.0158658
0.0449946,-0.0208303
0.0615403,-0.0211583
0.0489933,-0.019516
0.0270282,-0.00996952
0.0363699,0.0184463
0.0622727,0.0320811
0.0455669,0.00948088
0.0229869,-0.0320017
-0.001928,-0.0414361
-0.0840491,0.0269305
-0.128309,0.0231392
-0.110257,-0.000688135
-0.0731479,-0.0141602
0.0130446,-0.00948695
0.0430623,0.0186243
0.0353218,0.0877519
0.0505813,0.0706788
0.0437057,-0.0439074
0.0276499,-0.0399083
0.00660549,-0.0044431
-0.00512823,0.0282946
0.0208282,0.0101538
0.0119021,-0.00962399
-0.0160492,0.0427268
0.00104003,0.00141138
0.000244578,-0.0242833
-0.0113362,-0.0101462
-0.0374669,0.0597298
-0.0535312,0.0583195
-0.0302745,-0.0346543
0.0228667,-0.0274405
0.0476108,-0.027445
0.0287562,0.0153386
0.0222959,-0.00100889
0.00729231,-0.0944379
-0.00863197,-0.0362274
-0.0301827,0.00392104
-0.0138377,0.0199174
0.0360831,6.99e-05
0.0343102,-0.0274912
0.00658597,0.0111016
0.00224668,0.0423408
-0.00809797,-0.0132675
-0.0271364,-0.0356918
-0.0493445,-0.0246567
-0.0484773,-0.00131086
-0.0257629,0.00638836
0.0367365,0.00121258
0.0291234,-0.00352083
-0.0347089,0.0339658
-0.0414981,0.0328994
-0.0397925,0.00633023
-0.0373207,0.00957797
-0.00356177,-0.0264493
0.0416106,-0.0181967
0.0529323,0.022789
0.0600356,0.0637011
0.0590421,0.00318716
0.0176807,0.00976829
-0.0370443,-0.0103964
-0.0391742,-0.046966
0.0174295,-0.0153812
0.0855551,-0.0140414
0.0561007,-0.00693027
0.00296027,0.037944
-0.0138034,0.023539
-0.0128424,-0.0397162
0.024335,-0.00896474
0.0536115,0.00340309
0.0196328,-0.0409362
-0.0236575,-0.0318511
-0.0383891,0.0443701
-0.0362571,0.0145745
-0.0226546,-0.00716016
-0.0103207,0.0128942
-0.0211172,-0.00616519
-0.0285102,-0.00209434
-0.0176889,0.0071389
-0.00453233,0.0236328
-0.0356849,0.0130108
-0.0390048,-0.000263274
-0.00667118,0.0243944
0.00243588,0.0044592
-3.56e-05,0.0142668
0.0217513,-0.00057434
0.00195374,-0.0015596
-0.0339338,-0.0106097
-0.0256015,0.00124026
0.029711,0.0317497
0.0748845,-0.0425866
0.0722528,-0.0206053
0.0544485,0.0206517
0.0217387,0.000902703
0.00119126,-0.062711
-0.0237002,-0.0386329
-0.0891006,0.0100818
-0.143735,0.00641432
-0.0884937,-0.00893703
-0.00200613,0.0117795
0.0408931,0.0205927
0.0478398,0.0462805
0.0443832,0.000709883
-0.00692129,-0.00723317
-0.0257339,0.0266579
0.0190823,0.00789369
0.0573952,-0.0204834
0.0525443,-0.0116805
0.0252118,0.00993024
0.00393926,-0.0130521
0.000186005,-0.0164011
0.00790615,-0.0204064
0.0185586,-0.0371136
-0.00614324,-0.0270359
-0.0529181,0.00804595
-0.0350427,0.0356241
-0.0115994,0.0178205
-0.0639451,-0.0192624
-0.0658094,-0.01309
-0.00397707,0.0188606
0.0659826,0.0437947
0.0926628,0.0619301
0.11463,-0.003343
0.0758805,-0.0456715
0.0138648,-0.0185749
-0.0112884,0.016874
-0.0271334,0.0492746
-0.00202704,0.0451313
0.0172182,-0.022884
0.0117583,-0.0561735
-0.00154765,-0.0347489
-0.0299863,0.0109418
-0.0497667,0.00296806
-0.0769001,-0.01677
-0.0866528,-0.00305781
-0.0125029,0.000925372
0.00809133,0.00714444
0.0269597,0.0161665
0.0350177,0.0121212
0.0231141,0.00288759
0.0126289,-0.0222495
0.0150489,-0.00497326
-0.00718432,-0.00585485
-0.0543284,-0.0266908
-0.0344937,-0.0467427
0.0142049,-0.0478778
-0.0271969,0.000333799
-0.10188,0.0507592
-0.061592,0.00422684
-0.000316102,-0.0015306
-0.00346877,0.0098407
0.011696,0.0145149
0.0862684,0.0262472
0.112254,0.0576455
0.0678856,0.0621453
0.0464104,0.0268823
0.0357667,-0.0194214
-0.00556579,-0.0791894
-0.0435162,-0.0194188
-0.0569632,0.00271436
-0.049071,-0.0231992
-0.0191369,-0.020816
0.0597473,0.00521637
0.101107,0.00670111
0.0428433,-0.0225106
-0.00659492,-0.00920494
0.0064912,-0.00223539
-0.00479488,-0.0161108
-0.0522606,-0.0215725
-0.0871965,0.00395569
-0.106226,0.0403405
-0.0850138,0.0475572
-0.000906351,0.00802132
0.0472437,0.0272373
0.0316602,0.0362446
0.0393766,-0.0271824
0.048075,-0.0040716
0.0253331,0.011839
-0.000710713,-0.0134272
-0.0116755,-0.0331892
-0.0317376,-0.0273866
0.0139652,-0.0137813
0.0593348,0.04308
0.0352697,0.0550043
-0.0700149,-0.00217926
-0.12199,-0.0105224
-0.129281,-0.0102808
-0.147838,-0.00568991
-0.0848737,-0.00331801
0.0400348,-0.0114944
0.137329,-0.0324857
0.129409,-0.0236798
0.0925495,0.000739952
0.091088,0.0191755
0.0923215,-0.00125402
0.0692164,-0.0126059
0.0053869,0.00450979
-0.0171859,0.0398871
0.0163626,0.0237489
0.0331721,-0.00524398
-0.00201294,-0.0204579
-0.0189221,-0.0237046
-0.00889827,-0.0120242
-0.027461,-0.0035789
-0.0542579,-0.0130561
-0.0717722,0.0108633
-0.0546821,0.0370268
-0.0230338,0.0149701
-0.0303344,0.0325986
-0.0222082,0.00858983
-0.016881,-0.0461481
0.00885613,-0.0490578
0.0744549,0.0084987
0.103868,-0.0110905
0.119797,-0.0370884
0.113325,0.00607348
0.074695,0.0426301
-0.0143754,0.0412785
-0.109644,0.0587069
-0.134366,0.00694771
-0.118759,-0.0487679
-0.0715043,-0.0555806
-0.0214998,-0.0490173
0.000178881,0.0054136
-0.0574893,0.0480821
-0.0641234,-0.0156312
-0.0190239,-0.0457675
0.00559661,0.0305256
0.00472622,0.0783244
0.00941231,-0.0173968
0.0144694,-0.0294705
0.0461108,0.0130071
0.0825452,0.0356133
0.0635534,0.00384973
0.0313376,-0.0202623
0.0132906,0.0150388
0.000983511,0.0403518
0.0220805,-0.0191221
0.0626318,-0.0255356
0.0922988,0.0084676
0.0695988,0.000985596
0.0232311,-0.0337113
0.0140817,-0.0311256
0.0109032,-0.0109206
-0.0313491,-0.00371147
-0.0700005,0.0405746
-0.0734652,0.094828
-0.0679682,0.0124777
-0.0563428,-0.0150536
-0.0669936,-0.0548986
-0.135162,-0.0555905
-0.177865,-0.0235922
-0.15684,0.0270402
-0.0624612,0.0553479
-0.00455229,0.0021066
0.0360344,-0.0088696
0.16213,-0.00805787
0.24086,-0.0210939
0.193038,-0.0321002
0.0711775,-0.0294122
-0.0247326,0.0174538
-0.0523796,0.0727409
-0.0617211,0.0129893
-0.0577408,-0.0802315
-0.00365167,-0.0522249
0.0662046,-0.00264626
0.0536724,-0.011579
0.0175979,-0.00887334
-0.0291118,-0.00400479
-0.0448005,-0.0104517
0.00179153,-0.0194507
0.0213779,-0.0140926
0.00374002,-0.0107249
-0.0313263,0.0132677
-0.0192415,0.0981279
0.0117921,0.15206
0.0205223,0.0730528
0.0188541,0.0248798
0.0317856,-0.013832
0.00458808,-0.0886363
-0.0243868,-0.0543754
-0.0119388,-0.0397549
0.0125571,-0.0329795
0.0092431,0.00256823
0.0111093,0.0169268
0.0385552,-0.00130643
0.0622534,-0.010912
-0.00983171,0.00366106
-0.0868519,0.0400762
-0.0765646,0.0523045
-0.0198659,0.0373483
0.0207047,-0.035731
-0.0115906,-0.064436
-0.0813092,-0.0310372
-0.0777454,-0.0259291
-0.0219259,-0.0346183
0.00953821,-0.00723593
0.0168328,0.000904339
0.063966,0.0543277
0.095048,0.0717356
0.0904469,0.0166899
0.0513018,-0.0429977
0.0356251,-0.00790262
0.0255668,0.0415348
-0.0167194,-0.00863368
-0.0343559,-0.0309846
-0.0181632,-0.00567307
0.00216664,0.00455685
-0.00412594,0.0724702
-0.0385085,0.0615867
-0.0719722,-0.00181843
-0.0965207,0.0220237
-0.0941257,-0.00963834
-0.0733736,-0.0509492
-0.0209293,-0.0660685
0.0347757,-0.0600405
0.0637641,-0.016426
0.0898613,0.0370068
0.0969379,0.0223302
0.0911169,-0.00944984
0.0740942,0.018287
0.0249361,0.107943
0.0224684,-0.0187742
0.0139393,-0.0715888
-0.0351099,-0.0625325
-0.0427527,-0.0694922
-0.0177993,0.0345752
-0.0279366,0.0866433
-0.0681634,0.0248343
-0.0546226,-0.0858722
-0.0446107,-0.0738322
-0.0059077,-0.0250957
0.034725,0.0118857
0.00187476,0.0275687
-0.0499319,0.0348755
0.00544234,0.0410544
0.0449342,0.0247075
0.0188423,-0.0481986
0.0266048,-0.0701944
0.0346997,-0.0199742
-0.0122934,0.0204301
-0.040171,0.0661583
-0.0662397,0.110705
-0.0632307,0.0310169
-0.0667601,-0.0931108
-0.049827,-0.0449256
0.0192567,0.0447819
0.0919154,0.0730501
0.11432,0.0303837
0.0860197,0.0149717
0.0232613,0.0372731
-0.00655082,-0.00513428
-0.0193257,-0.0163449
-0.00778307,-0.0556694
-0.0236929,-0.0669952
-0.030946,-0.0237462
0.00371517,-0.00873912
0.0250077,-0.00172559
-0.00628245,0.0307639
-0.0376308,-0.0045358
-0.0109714,-0.014038
0.000799499,-0.027033
0.0239159,-0.0106805
-0.00997907,0.0157845
-0.0301893,0.0250285
0.00426269,0.0227213
0.0620196,-0.00256984
0.0815421,-0.0430506
0.0809585,-0.026629
0.0369415,-0.00580486
-0.0313547,-0.0208849
-0.107685,-0.00166081
-0.130514,0.0691153
-0.0741594,0.0130671
0.0073632,-0.0030468
0.0382331,-0.0291564
0.0321531,-0.0258329
0.0174482,0.0132539
-0.0247856,0.0256082
-0.0142783,-0.00233541
-0.00881949,-0.00040756
-0.0349056,0.0207552
-0.00409108,0.0314332
0.0566933,-0.0313285
0.0624897,0.00376513
0.0314217,0.0324413
0.00574644,-0.0100587
-0.0333044,-0.00170092
-0.04984,0.00150146
0.0176901,-0.0235296
0.0317725,-0.0014041
-0.00222999,-0.00769035
-0.00356358,0.0223986
-0.00201549,0.0187477
-0.0527015,0.00145205
-0.0434409,-0.0171392
0.0149796,-0.0103014
0.0883935,0.00969927
0.155528,-0.018974
0.130007,0.00780442
0.0796203,0.00985372
0.00756354,0.0375319
-0.0841853,0.0104374
-0.144744,-0.03744
-0.14592,-0.0734438
-0.107809,-0.051571
-0.0418282,0.00562074
0.0410351,0.0249732
0.0830185,0.0204072
0.0644614,0.0107137
0.0249223,0.0184305
-0.020992,0.0103605
-0.0710936,-0.0525709
-0.127611,-0.0052383
-0.134546,0.106356
-0.0903371,0.0721364
-0.0189404,-0.0345131
0.039557,-0.0203847
0.0255961,0.068936
0.0280054,0.000121879
0.0534311,-0.0842473
0.00949163,-0.0293478
0.0208229,0.0232583
0.0906904,-0.000838027
0.134839,-0.0341206
0.127746,-0.00326125
0.0820809,0.00973581
0.0238885,-0.0125882
-0.0292491,-0.0186923
-0.0609373,0.0122504
-0.0407935,0.00537302
0.0207687,0.0173263
0.0557752,0.00474223
0.0170394,-0.0151501
-0.0310885,-0.00939094
-0.0386098,0.0011982
-0.0350986,-0.0116503
-0.0303477,-0.0268117
-0.015397,-0.0119602
0.00555923,0.0118384
0.0101668,0.00885839
0.00319001,-0.00976871
0.000618449,-0.0104796
-0.0126382,0.00713628
-0.0385416,0.0326074
-0.0451563,0.0166251
-0.0508973,-0.00545366
-0.0523342,-0.00683896
-0.00809478,-0.0145076
0.0466304,-0.00209313
0.0326305,0.0666523
-0.010735,0.00925639
-0.0329667,0.00087321
-0.0758734,0.00742212
-0.0662371,-0.0251107
-0.0360254,-0.0454543
0.0159942,-0.0348555
0.0441801,0.000848263
0.0821869,0.025519
0.0987853,0.0197912
0.0183512,0.0266681
-0.0425844,0.0463928
-0.03635,0.0432847
0.014563,-0.0400551
0.104595,-0.0504751
0.196105,0.0154591
0.226681,0.0765412
0.208856,0.00863905
0.115289,-0.069679
-0.0287184,-0.0490737
-0.129498,-0.0217134
-0.186077,0.00261414
-0.182295,-0.000363658
-0.145849,0.00455804
-0.132552,0.0133333
-0.0807381,-0.00536312
-0.0161556,-0.0145623
-0.0117595,0.0254961
-0.0585823,-0.00530663
-0.0856318,-0.0334576
-0.0939044,-0.0398741
-0.0699611,-0.0157301
-0.00511501,0.0333729
0.0418229,0.0217407
-0.00765877,0.00821656
0.00276294,0.0131193
0.0401883,-0.000704423
0.0399461,-0.0144664
0.0643922,-0.0401952
0.108248,-0.0280482
0.126794,0.0463959
0.116239,0.0483078
0.0727358,-0.0168671
0.0289877,-0.0196379
0.000736804,-0.0161759
-0.0379635,0.0064726
-0.0367099,0.0394181
-0.0266854,0.0198734
-0.0176163,0.0138381
0.019498,-1.3e-05
0.0304851,-0.024124
0.027117,-0.00452152
0.0338915,0.0272978
-0.00178404,-0.025732
-0.0585584,-0.0380244
-0.0673109,0.0607114
-0.0470404,0.0580881
-0.0100688,0.0177527
0.0218767,-0.00999234
0.017814,-0.0422437
-0.0240005,-0.0118962
-0.0343515,0.0108608
-0.0441501,0.00129078
-0.0836779,-0.0103003
-0.0413323,-0.0141467
0.060999,-0.0129749
0.0922602,-0.007229
0.0741982,0.0036301
0.0805524,0.00958471
0.064687,-0.011752
-0.0034888,0.00362776
-0.0376021,-0.0160888
-0.0273694,-0.00697844
0.0244163,0.0248434
0.0310648,-0.00573728
0.00840756,0.0110897
-0.0185941,0.0535938
-0.0359637,0.0636185
-0.0571837,-0.0343059
-0.0212258,-0.043167
-0.0330489,-0.0080499
-0.0594169,0.035292
-0.0260134,0.0169591
-0.0109849,-0.0734701
-0.0317857,-0.0650794
-0.0308838,-0.0376826
0.0127084,-0.0185537
0.049429,0.0199042
0.0431674,0.026135
0.0344661,0.0241129
0.015907,0.0392887
0.00911738,-0.00957524
-0.00448722,-0.0377835
-0.0415913,-0.0306087
-0.0652629,-0.0125254
-0.0300498,0.00408182
0.039675,0.0101709
0.0348668,0.00433914
0.0132801,-0.00158376
0.00520781,-0.00104315
0.021688,7.13e-05
0.0255819,0.0072368
0.0128399,-0.00424321
-0.0167564,0.0479151
-0.03267,0.0909454
0.00139306,0.0951026
0.0325098,0.0198447
0.0313529,-0.083046
0.0218511,-0.0775446
0.00259986,-0.0583176
-0.0267622,-0.0374115
-0.0282653,0.00415233
-0.00464379,0.024554
-0.00254384,0.00166046
-0.0137363,-0.00775551
0.0185766,-0.00393861
0.0366757,0.019035
0.0182863,0.0144843
-0.00402003,0.00354326
-0.0202828,0.0268868
-0.0362228,-0.00281483
-0.0408276,-0.0485385
-0.00804855,-0.0328708
0.0393002,0.00967129
0.0335987,0.0255225
0.000705391,0.0119014
-0.0205238,-0.0159654
-0.0183763,-0.00403584
-0.0335992,0.0180895
-0.0480426,0.0161711
-0.024007,0.0142534
0.074556,5.43e-07
0.0939399,0.00470409
0.0561848,0.034873
0.0249767,0.000671551
0.00395835,0.0112512
-0.0364076,-0.0114708
-0.0601145,-0.0376835
-0.0484776,-0.026213
-0.0154236,0.0115242
0.0261423,0.00903738
0.0348928,-0.00804605
0.0184198,0.00243882
-0.0222311,-0.0082299
-0.0479357,8.34e-05
-0.0422483,0.0348741
-0.0208539,-0.00417042
-0.00890823,-0.0341684
0.0102426,-0.0235787
0.0229071,-0.0127473
-0.0100444,0.00511824
-0.0427134,0.0141404
-0.0221331,0.0164004
0.00812639,0.0301075
0.0131047,0.0190942
0.0524884,0.0138747
0.105806,-0.0133214
0.109519,-0.00182497
0.0884163,-0.000438967
0.0421298,-0.00646439
-0.0197523,-0.0215615
-0.0710482,-0.0476059
-0.0625064,-0.0410077
-0.0589155,-0.000119643
-0.0454081,0.0218865
-0.00502073,0.0161905
0.0153543,0.0282953
0.0194221,0.0313451
0.0114769,0.033362
-0.00183937,0.0352133
-0.0293367,0.00266187
-0.0629418,-0.0362942
-0.0596071,-0.0407438
-0.054158,-0.00816094
-0.0214198,0.0142414
0.0226311,0.00798012
0.0704009,0.00813573
0.0780416,-0.0115926
0.00904775,-0.0275625
-0.0718369,0.0146475
-0.0897921,0.0373839
-0.030345,0.0143334
0.0314244,-0.0159437
0.0464364,-0.0384375
0.0456842,-0.044026
0.00754236,-0.0296429
-0.0232834,-0.0143003
-0.0270895,-0.0136691
0.00115917,0.0105747
0.0522932,0.0978113
0.0250909,0.0230337
-0.0615695,-0.0688373
-0.0656794,-0.0406618
-0.0437117,0.0860588
-0.0279659,0.0979603
0.011958,-0.0508116
0.0507268,-0.0553234
0.0609066,-0.0254739
0.0981514,0.0487977
0.146417,-0.0134174
0.123716,-0.0141321
0.0841061,0.0258324
0.0393934,0.0289893
-0.039943,-0.0530525
-0.11837,-0.0584923
-0.134839,0.0173257
-0.116655,0.0826686
-0.0542094,0.0136915
0.0363178,-0.0583557
0.0703792,-0.0348238
0.0363276,0.0036057
-0.00247921,-0.0232518
-7.33e-05,-0.0262259
-0.0250867,0.0207582
-0.0538743,0.0253397
-0.0461361,0.0257282
0.0144857,0.0250933
0.0086666,0.019312
-0.0551525,0.0200659
-0.0668205,0.0217099
-0.0479262,-0.0140438
-0.0136566,-0.0617592
0.0472885,-0.0435063
0.105189,-0.0137896
0.100988,0.00328346
0.0472091,0.0205986
0.00520939,0.0138531
-0.027845,-0.00192448
-0.0456508,-0.000485581
-0.0340006,0.0170598
0.00628264,0.00989744
0.0357355,0.00616443
0.030294,0.0153603
0.00170164,-0.0170619
-0.0120293,-0.0197218
0.00322265,4.32e-05
0.00012087,0.00102817
-0.0292497,-0.00913175
-0.0418518,-0.0224652
-0.0326688,-0.0122451
-0.0129231,0.00311648
-0.0112825,-0.00258907
-0.0329628,0.0207491
-0.0366617,0.0549191
-0.0182219,0.0367153
0.0298069,-0.0145028
0.055398,-0.00916517
0.0632543,-0.00366841
0.0681144,-0.0168276
0.0391401,0.00830283
-0.00197389,-0.0164505
-0.00821987,-0.0243678
0.0205608,-0.00197606
0.000438293,0.0148773
-0.0295541,0.0312049
-0.0271006,0.0108976
-0.0403067,-0.0395668
-0.0272925,-0.0310862
0.00286374,-0.00272701
-0.00914908,-0.0197811
-0.0400443,-0.0136785
-0.0486029,0.0143586
-0.0541339,0.0184935
-0.0341698,0.00685126
-0.00136715,0.0054985
0.0370075,0.0109178
0.0285098,0.0109081
0.0150079,-0.000426016
0.0277978,-0.00189672
0.0455393,-0.00775401
0.0183501,-0.0140702
-0.0128815,-0.00651843
0.00314155,0.0232831
0.015199,0.0200578
-0.0045123,0.00382338
0.0281508,0.000904918
0.0586718,0.0180464
0.0567709,0.0416088
0.0294873,0.0633213
-0.00878096,-0.00955948
-0.0159267,-0.0236786
0.0337955,-0.0261919
0.0477588,-0.0707607
-0.00394094,-0.0415143
-0.00502319,-0.00336557
-0.00408461,0.000570508
-0.0464004,0.00672192
-0.0929379,-0.00925633
-0.0925646,-0.0191514
-0.0406023,-0.00333839
0.0218843,0.00693228
0.0426479,-0.00727047
0.0249351,0.0131923
-0.000571154,0.0186373
0.00494367,0.00368982
0.0517655,0.0603922
0.074999,0.0934277
0.0303108,-0.0166573
-0.00913049,-0.0469146
-0.0570754,-0.0333548
-0.135005,-0.0217505
-0.184864,0.01297
-0.126719,0.024046
-0.0284691,0.0314341
0.0182379,-0.0162465
0.0658378,-0.0445704
0.0929485,-0.00260829
0.0876961,0.0205076
0.0871594,0.0116991
0.107584,-0.0167918
0.0966177,-0.0318397
0.0156299,-0.0432887
-0.0201121,-0.0352248
-0.00875145,-0.0108536
-0.00160118,0.00181115
-0.0236409,0.00594857
-0.0789777,-0.00538622
-0.102478,-0.00723771
-0.101029,0.0064346
-0.0751999,0.038433
-0.0403227,0.0508339
-0.0087082,-0.00117662
0.0359559,-0.0110336
0.0698532,0.0051723
0.0959686,-0.0110835
0.0847994,-0.00049534
0.0435478,-0.00276831
-0.0143195,-0.00806691
-0.048551,0.00971761
-0.00536499,0.00154538
0.0314253,-0.000903702
0.0284163,0.0485074
0.0425758,0.0260863
0.0435205,-0.0362101
0.0179864,-0.0255475
0.0135944,-0.019715
-0.00355444,-0.0236206
-0.0482613,0.0109613
-0.0748754,0.0125024
-0.0441691,0.00541335
-0.0075902,-0.0029514
0.0162652,0.0222734
0.0247443,0.0741272
0.0225454,0.0824825
0.0219448,-0.0147595
0.000826003,-0.0743935
-0.0246934,-0.0484097
-0.0391547,-0.0245163
-0.0300889,-0.0151501
-0.0100396,-0.0117846
-0.00533568,-0.0127935
-0.0313043,0.0293581
-0.0587041,0.0414047
-0.0450212,-0.00370182
0.027661,-0.0121809
0.0711642,0.00394399
0.0884626,0.00120787
0.0520538,-0.00090551
0.00150934,0.0110252
-0.00144459,-0.00220754
-0.0091681,-0.0229994
-0.0557154,-0.00668447
-0.0736036,0.0258857
-0.0200678,0.00103285
0.0167859,0.0297995
0.0321094,0.0651552
0.0404745,-0.048945
0.0548032,-0.0513808
0.0191649,-0.0247605
-0.0414392,-0.0217511
-0.0786017,-0.0177783
-0.0906935,-0.000332661
-0.0563107,0.0376445
0.0271813,0.0294849
0.0534742,-0.0138445
0.0434661,-0.0177366
0.0269882,-0.00565514
0.0152129,-0.00866148
-0.00198581,-0.0256918
0.0139935,-0.0186057
0.0172889,0.0112325
0.0281029,0.0225554
0.0321462,0.0220141
0.00922226,0.00250559
-0.0314401,-0.00994257
-0.0567335,-0.00187198
-0.0541357,0.011864
-0.048614,0.0171513
-0.0289674,-0.0119929
0.00823588,-0.0157687
0.0535414,-0.021493
0.0544632,-0.0108746
0.0281658,0.0122757
-0.00062262,0.00583636
-0.0117382,0.0104774
-0.0122624,0.0492783
-0.0213711,0.0376531
-0.0244027,-0.028134
-0.00597219,-0.021922
0.0218029,0.0339093
0.048287,0.0538834
0.0475186,-0.0282403
0.021079,-0.0338308
0.0107411,0.00426559
0.0141475,-0.0103444
0.00889849,-0.0180794
0.000211889,-0.00578837
-0.00431152,0.00239167
-0.0224176,-0.00412902
-0.0134061,-0.0134022
-0.00463821,-0.0312717
-0.0362159,-0.0252485
-0.074139,0.00747008
-0.0814442,0.0189096
-0.0323295,0.0101325
0.0282295,0.0111824
0.0645545,0.00281125
0.0439045,0.000240435
0.0172973,0.0395104
0.0162808,0.0494919
-0.00378501,-0.0229808
-0.0412703,-0.0362755
-0.0502169,0.010989
-0.0203288,0.0182195
-7.32e-05,0.0034549
0.0213052,0.0029021
0.0382229,-0.00296585
0.0483854,-0.0183072
0.0446211,-0.00733775
0.0556193,0.0031405
0.0568559,-0.0281109
0.0574434,-0.0500208
0.0630187,-0.00419492
0.0178221,0.0100167
-0.016391,-0.00838981
-0.0129302,-0.00147156
-0.0539627,0.0450464
-0.0962056,0.0518809
-0.0740914,0.000893792
-0.00302659,-0.0139055
0.0409607,-0.00871568
0.00450728,-0.00556963
-0.0391514,0.00421817
-0.0441673,-0.00388195
-0.0546635,-0.0296556
-0.0854989,-0.00532435
-0.0796837,0.0322702
-0.0621846,0.00754723
-0.0154937,-0.00854914
0.0320064,0.00915069
0.0332987,0.00954608
0.0267854,-0.00475094
0.0462883,-0.011412
0.034426,-0.00199607
0.0184037,-0.000801201
0.0474153,-0.0229148
0.107697,-0.0154095
0.121675,0.00350102
0.0705237,0.00871141
-0.00156706,0.00611815
-0.0672555,-0.0100454
-0.10911,-0.00387573
-0.0715332,0.00458569
-0.00701467,0.0124698
0.0461248,0.00233276
0.0353629,-0.0143316
-0.011041,-0.0228019
-0.0417385,-0.0106282
-0.0683033,-0.00478363
-0.0520598,0.00581943
-0.0306387,0.0609771
-0.0114294,0.0521571
0.0204751,-0.0186995
0.0373458,-0.0221922
0.0204017,-0.000759684
0.00230763,0.0104296
0.0156358,0.0102654
0.0362178,-0.0005787
0.0285422,0.0110815
0.0307898,0.016564
0.0285673,0.0328628
0.0265892,0.00893558
0.0331247,-0.0208291
0.0070624,-0.00739346
-0.0295637,-0.0165189
-0.0256811,-0.023696
-0.0337636,-0.0298696
-0.0569654,-0.0355661
-0.065322,-0.0197336
-0.0404289,0.00576453
-0.0145639,0.0162763
0.00248463,0.00835235
0.0374789,0.0107018
0.0593911,-0.0114448
0.0772949,0.00247606
0.0739979,-0.00170333
0.0334231,-0.0408206
-0.0415275,-0.0286458
-0.0769035,0.00922978
-0.0649237,0.0401394
-0.0567637,0.0575253
-0.0060474,0.0351033
0.0523347,-0.0234769
0.0665282,-0.0301129
0.0640499,-0.027939
0.0388453,-0.0260571
-0.00711154,-0.00104892
-0.0499755,0.0128969
-0.0755552,0.000609958
-0.0722239,-0.00148051
-0.0393488,0.00798647
-0.0096407,0.020997
0.0263309,0.00820124
0.0380392,-0.0224599
0.0356889,-0.015595
0.0530169,0.0103424
0.0652391,0.0304665
0.0398994,0.0369277
0.00301332,0.0123896
-0.00659277,-0.0240906
-0.00325042,-0.0282646
-0.0184162,-0.0147002
-0.0384406,-0.00307553
-0.0395001,0.00234448
-0.0416183,-0.00724709
-0.0473255,0.00786152
-0.0383771,0.0558991
-0.0288959,0.0399679
-0.0245753,-0.0334831
-0.0258139,0.000341736
-0.0197819,0.00506456
0.0150854,-0.010207
0.0452112,0.00027927
0.0466194,0.00164178
0.0286099,-0.0192341
0.0186449,-0.000755346
0.00968765,-0.00125883
-0.0106019,-0.0122536
-0.0160804,-0.00539298
0.0129236,-0.00837333
0.0426511,-0.00641808
0.0306288,-0.00323656
0.00634945,-0.000895665
-0.000113452,-0.0020744
-0.00556897,0.00115834
-0.01453,0.00452061
-0.00934677,0.00655987
-0.00787862,0.00443925
0.0131742,0.000132114
0.0428192,0.00481813
0.04715,-0.00369115
0.0551813,-0.0180419
0.0595752,-0.00403467
0.031205,0.00756597
-0.0137468,-0.0132718
-0.0636475,0.00591757
-0.0839302,0.00796997
-0.066234,-0.0258577
-0.0470473,0.00714148
-0.0289757,0.0527798
-0.00370972,0.0421088
0.0141316,-0.0128853
-0.00346973,0.00836945
-0.0211858,-0.0243878
-0.0258838,-0.0424856
0.000564057,0.0105794
0.0202721,0.01375
-0.000773726,0.000180334
-0.0202434,0.00160082
-0.0163732,0.00925392
-0.0194573,0.00979633
-0.019927,-0.0138151
0.0143493,-0.0141746
0.0738975,-0.00389732
0.0938038,0.00157555
0.0665726,0.00760179
0.0675204,-0.0176135
0.0543033,-0.0314202
-0.0021895,-0.00721949
-0.0378004,0.00995917
-0.052812,0.00549901
-0.0479679,0.0022746
-0.0362091,0.0063851
-0.0269717,0.00892155
-0.0333875,0.0120262
-0.0316676,0.00940093
-0.0276913,-0.00473188
-0.0348319,-0.0174254
-0.0352659,-0.0243247
-0.00761686,-0.00695079
0.0293869,0.0117138
0.0388187,0.00584367
0.0438453,0.015819
0.0533968,0.0324162
0.0555267,0.0317808
0.0329577,-0.00214327
0.00832989,-0.0436375
-0.00825545,-0.018103
-0.00929113,0.0321541
-0.0138254,0.0120997
-0.033314,-0.0106196
-0.0147508,-0.00411894
0.0297651,-6.02e-06
0.0347514,-0.00323363
0.00376541,-0.0109434
-0.0361823,-0.0103153
-0.0406964,0.000652718
-0.0467887,0.00663104
-0.0185626,0.00800884
-0.0117706,0.00157249
-0.0131188,-0.0113807
-0.0254431,-0.015968
-0.0444161,-0.0135894
-0.0558612,-0.0106936
-0.0139182,-0.00682921
0.0480398,-0.0023448
0.0612507,-0.00433346
0.0506074,-0.000917439
0.0389828,0.0115574
0.0249076,0.0175091
0.0279025,0.00689377
0.0623453,0.00674048
0.10167,0.0203404
0.0844898,0.0229156
0.0410085,0.0156212
-0.0107756,0.00534581
-0.0619103,-0.00609759
-0.102727,-0.00986405
-0.119515,-0.00705828
-0.111669,-0.00947235
-0.0810852,-0.0104767
-0.0329882,-0.00653431
-0.0085668,-0.00464288
-0.00684168,-0.00503391
-0.00306171,0.00107815
0.00054406,0.00166453
0.00159086,-0.00311545
0.00803692,-0.00418722
0.0391967,0.00286424
0.0775793,0.010994
0.0966238,0.00978078
0.0955976,0.000195445
0.0736106,-0.00974349
0.0331092,-0.0104588
-0.0150577,-0.0130001
-0.054661,-0.00700125
-0.0798538,-0.00189887
-0.0720898,0.000777077
-0.0413299,0.00761237
-0.0284193,0.00706617
-0.0225483,0.00551601
-0.00700629,0.00570285
-0.00141731,0.000758722
-0.00135964,-0.00676123
0.00582188,-0.00215094
0.0276308,0.0101486
0.0412751,0.0128906
0.0330976,0.00610516
0.0236553,0.000338993
0.00864449,-0.00564354
-0.0103909,-0.0102308
-0.0218135,-0.0116128
-0.0242958,-0.00951146
-0.0242352,-0.00988197
-0.00253771,-0.00242596
0.0126751,0.00514357
0.00160226,0.0020695
-0.00381156,8.23e-06
0.00151891,0.0082094
0.0053051,0.00303749
0.00511629,-0.00427785
0.0346493,0.00996031
0.0801104,0.0232738
0.0863035,0.0238678
0.0632199,0.0156904
0.0320583,0.0057686
-0.0113955,-0.00284122
-0.0546941,-0.0110336
-0.086175,-0.012438
-0.0916239,-0.0144587
-0.0610791,-0.0169466
-0.0198832,0.000779584
-0.00644432,0.026214
-0.018647,-0.00363322
-0.0112147,-0.0368105
-0.000592963,-0.0236279
-0.00427351,0.00941421
-0.00338138,0.00273983
0.0179959,-0.00206211
0.0358783,0.0118434
0.0305689,0.0155229
0.0261209,0.00702006
0.0268234,0.000359523
0.0210728,0.00382271
0.0095432,0.00401919
0.00647351,-0.005538
-0.00459835,-0.00509316
-0.00792635,0.0157721
-0.00162987,0.00105774
-0.0101686,-0.0211948
-0.0197484,-0.00232654
-0.014955,0.00893713
-0.0129454,-0.00158846
-0.0168499,-0.0153047
-0.0205816,-0.00616558
0.00259368,0.00496413
0.02172,0.00963612
0.0316779,0.0268793
0.0437309,0.0377201
0.0417373,0.0157039
0.0213223,-0.0338067
-0.00445306,-0.0205144
-0.0320997,0.00453116
-0.0572632,-0.00293841
-0.0531448,-0.0130028
-0.0352169,-0.0167507
-0.031464,-0.0123883
-0.0349312,-0.0107256
-0.0351959,-0.0115252
-0.0236422,-0.0113096
0.0246166,-0.0111638
0.0861055,-0.00234982
0.131372,0.00888354
0.129525,0.00992384
0.0760324,0.00382767
-0.00323652,-0.00434102
-0.0988967,-0.00720352
-0.161352,-0.00538751
-0.151494,0.000836804
-0.0811179,0.00411349
0.000719942,0.0116213
0.0566196,0.0121411
0.0534796,0.00386867
0.00798648,0.000235599
-0.0197106,0.00635438
-0.0325828,0.0047181
-0.0516636,-0.00530248
-0.044825,-0.0146476
