Comp Ch 3,Comp Ch 4
-0.0784778,-0.0290864
-0.0624504,0.000243563
-0.0266293,0.029236
-0.00499381,0.017319
0.000123332,0.0222534
0.00469739,-0.00297301
-0.00533259,-0.0238318
-0.0148446,-0.0265324
-0.00321627,-0.0532873
0.0133125,0.0034559
0.0252928,0.0215991
0.0411356,0.0222564
0.0441494,0.0184248
0.0375682,0.0146065
0.0435824,0.0148728
0.0522665,0.0170999
0.0409311,0.000154737
0.0174925,0.00280439
0.00552619,-0.0139502
-0.00623161,0.00195575
-0.0134616,0.0102003
-0.0257113,0.00290594
-0.0426449,-0.0129698
-0.0580192,-0.024312
-0.0555663,-0.000377438
-0.0285108,0.00494338
-0.0177332,-0.0252714
-0.000264958,-0.00746062
0.0273204,0.013629
0.0341449,0.0112393
0.0261943,0.00489828
0.0161059,0.00164336
-0.00446951,-0.00566471
-0.0253535,-0.0174271
-0.0307076,-0.0210655
-0.0173178,0.00303135
-0.00452382,0.0338032
0.0100044,0.0186472
0.0232592,6.05e-05
0.019146,-0.0111293
0.0238694,-0.0184552
0.014828,0.0318682
0.0116218,0.0587424
0.0306764,-0.00489983
0.0246065,-0.043266
-0.00179138,-0.0228105
-0.0170222,-0.00861109
-0.000142243,-0.0120993
0.0138004,-0.0120686
-0.00608391,-0.012966
-0.0465234,-0.00679954
-0.0690058,0.0525237
-0.0546297,0.0356794
-0.0299517,-0.0537219
-0.0263791,-0.0318968
-0.0330454,0.0070218
-0.0385294,0.0133532
-0.0354195,-0.0235434
-0.0193661,-0.0275109
-0.00238003,-0.00346505
0.0255829,0.00718012
0.097213,0.0311975
0.119654,0.0276603
0.0792071,-0.00468666
0.0356468,-0.00890799
0.029299,-0.0124328
0.0553542,0.00533066
0.0877847,0.00673599
0.0942451,-0.0185064
0.0516064,-0.00561562
-0.0316822,-0.0102317
-0.135304,0.000229668
-0.212133,0.0149
-0.162805,-0.0099801
-0.0515911,-0.0300087
0.00459273,-0.00250029
0.0156495,0.031927
0.0355095,0.0637891
0.0609628,0.0644292
0.0467304,-0.00504288
0.00951301,-0.0297714
-0.0275629,0.0307714
-0.0623411,0.0163865
-0.049823,-0.0187621
-0.0109771,0.00930513
0.0235265,0.0103096
0.0447749,-0.00733402
0.0461251,-0.0437786
0.0287953,-0.0367633
-0.00389006,-0.0165576
-0.0220595,0.00907708
-0.0240616,0.0244661
-0.00641934,-0.0135395
0.00353327,-0.00323934
0.0255732,0.0219755
0.0439316,0.0109243
0.031337,-0.0123524
0.00795643,-0.0039484
0.00710497,-0.0196022
-0.0150375,0.0655141
-0.0281123,-0.00665915
-0.0262575,-0.0252528
-0.00746495,-0.00963342
0.012565,-0.00145271
0.0206067,-0.00590082
0.0148671,-0.0112286
1.01e-05,-0.0131644
-0.00849298,-0.00855589
-0.00823225,-0.0082973
-0.004977,-0.0159304
-0.00916811,-0.0238602
-0.00189624,-0.0227979
0.000628925,0.0165204
-0.00771813,0.0449048
-8.47e-05,0.0190343
0.00619044,0.00104177
-0.00508323,-0.00314898
-0.0178557,0.0130065
-0.00965428,0.0213535
0.0165042,-0.005176
0.0247744,-0.00212167
0.0240226,-0.00185189
0.0173685,-0.0133901
0.00730982,-0.00663934
0.0023405,-0.00222664
0.00725092,-0.00465174
0.00118664,0.0103824
-0.00937824,0.0703736
-0.000167095,0.0096274
-0.00586984,-0.0359952
-0.0136844,-0.00510388
-0.00594642,0.0362222
-0.00345235,0.0106233
-0.0106069,-0.0538325
-0.0182631,-0.0567195
-0.00829814,-0.0240418
0.0215772,0.00883282
0.0433074,0.0238159
0.0440831,0.0143036
0.0168407,-0.00226191
-0.0236181,-0.0110083
-0.047934,-0.0309479
-0.0238019,-0.0214686
0.0110197,0.00999728
0.0352052,0.0166202
0.0381085,0.00654818
-0.000534925,0.00399728
-0.0344189,0.00258643
-0.0165841,-0.000849554
0.00885054,-0.00625102
0.0233798,-0.00423748
0.0201444,0.0250919
0.00524835,0.0311681
-0.0256206,0.000546294
-0.0546122,-0.022383
-0.061603,0.00662187
-0.0633024,0.0350462
-0.0496444,0.00698716
-0.02195,-0.010353
-0.00700522,-0.00443405
0.0147305,-0.00209367
0.052888,0.00966032
0.0545294,0.0347874
0.000635911,0.015819
-0.00067765,-0.0483016
0.00697677,-0.0574337
-0.00326529,-0.0486506
0.00179817,-0.0232397
0.0232096,0.032815
0.043385,0.022095
0.00362331,0.0303032
-0.0248129,0.0346987
0.00195627,0.00698733
0.00118256,-0.0215379
0.00750646,0.00407599
0.035701,0.00108933
0.0445439,-0.00873349
0.0363843,0.0304213
0.0279267,0.0522488
0.00795852,-0.0163281
-0.0157465,-0.0606407
-0.00917042,-0.0352002
0.00139186,-0.0174485
-0.0386543,-0.00881868
-0.0749713,-0.00438427
-0.0635264,0.00467496
-0.0424682,0.0252899
-0.00752058,0.0191161
0.0072037,0.00229309
-0.0107021,0.00568455
-0.0257056,-0.00418977
-0.0274036,-0.00942958
-0.0230834,-0.0056283
-0.0196752,-0.0136911
0.00395789,-0.00907873
0.0345299,0.0159001
0.0509461,0.0280348
0.0706851,0.000403468
0.0830228,-0.00921571
0.0788246,-0.00648937
0.0520333,0.0390685
0.0247341,0.0239094
-0.00189689,-0.0407376
-0.033679,-0.030839
-0.0606461,-0.0105682
-0.0589936,0.00154313
-0.0405805,-0.0118802
-0.0403595,0.00027063
-0.0295732,0.0242346
-0.016217,-0.0349444
-0.0145798,0.00818137
0.004606,0.0170794
0.0209793,0.000737511
0.0139485,0.00677524
0.00843654,0.020497
0.00388585,0.0241619
-0.00385582,0.0175894
-0.00727178,-0.0089056
-0.00801202,-0.0146493
0.00607027,-0.021854
0.0119559,-0.00846415
0.0182104,-0.0114538
0.025856,-0.0129445
0.0112006,-0.00631716
-0.00128461,0.00176976
-0.00672937,0.0312026
-0.011471,0.0159051
-0.012476,-0.0119998
-0.000159352,-0.0105224
0.0127292,-0.00304001
0.0143233,-0.00975623
0.00669658,0.0364966
-0.00137906,0.0113603
-0.0150625,-0.0225723
-0.0227382,-0.00408206
-0.00834238,0.0184911
0.023419,-0.00150376
0.0276788,0.00668167
0.0144518,0.0389894
-0.00145753,0.00730173
-0.0124797,-0.0094418
-0.0125609,-0.0321613
-0.00352708,-0.0226268
0.00321751,-0.0184077
0.0187687,-0.0118648
0.02723,0.00402946
0.00889095,0.0110272
-0.016913,0.0105344
-0.0140339,0.000980333
-0.0117142,-0.0171004
-0.0171992,-0.0209765
-0.0158982,-0.0169872
0.0052916,0.0126045
0.00533551,0.0440247
0.000584012,0.0149119
0.0356389,-0.0123716
0.0324362,0.00354376
0.0104819,0.0231994
0.00558595,0.00261494
0.0043171,-0.0230727
-0.0108172,-0.023038
-0.0186391,0.0076371
-0.011283,0.033174
-0.0215558,0.00857926
-0.0245279,0.00662903
-0.0165476,-0.0150456
-0.0178442,-0.0418375
-0.0260032,-0.0204768
-0.0228907,0.00893717
0.00414454,0.0328695
0.0228346,-0.0103647
0.019634,-0.0259227
0.0153503,-0.0106101
0.018099,-0.00454006
0.024043,-0.00108265
0.0230181,0.00894978
0.0080341,0.0173807
-0.00695897,0.0132069
-0.00425037,0.0189734
0.00387397,0.0306011
-0.00493356,0.010895
-0.022278,-0.00580301
-0.0292455,-0.00935016
-0.0254563,-0.0234438
-0.0239742,-0.0115216
-0.00574908,0.0058463
0.0147653,0.0109392
0.0156758,0.0207232
0.0203255,0.00701382
0.0197729,-0.0263946
0.0106314,-0.0282847
0.0058275,-0.0162411
0.0161988,-0.0297369
0.00785855,-0.0277045
-0.014047,0.00142494
-0.0330059,0.0191713
-0.0130682,0.0153993
-0.00385875,0.0135373
-0.00939271,0.0168115
-0.0178505,0.0114183
-0.0239296,-0.0170175
-0.0118711,-0.0213918
0.0159595,0.010849
0.0386019,0.00849334
0.0336148,-0.00975436
0.00730956,-0.00535372
-0.0174198,0.00215928
-0.0369725,0.0274695
-0.0394381,0.0450402
-0.0182457,0.00440687
-0.00148788,-0.0237598
0.0213643,-0.00687395
0.0359678,0.053492
0.0348947,-0.00249208
0.0425489,-0.0182452
0.0670764,-0.0140891
0.0836998,-0.0331006
0.0685896,-0.0103516
0.0370986,0.012776
-0.00752599,0.0173184
-0.0572243,-0.00209959
-0.0905181,-0.0203874
-0.089746,-0.000828667
-0.0662292,0.00246818
-0.0426755,-0.00879423
-0.0217354,-0.00688392
-0.0121899,0.00452728
-0.016098,0.00930071
-0.00465298,0.00630737
0.00628016,0.00187412
0.00351388,-0.00500596
0.00849375,0.00494883
0.00530135,0.00400314
-0.0108966,-0.0118557
-0.0176914,-0.018742
0.00144947,-0.00936776
0.0331431,0.00946129
0.0432728,0.0123457
0.0383213,0.0122455
0.0258502,0.0119789
0.00816245,-0.00319084
0.0103906,-0.0143915
0.0311579,-0.000281032
0.03825,0.0204098
0.0387597,0.0130433
0.0281594,0.0258557
-0.0139173,0.0185314
-0.0450173,-0.0248405
-0.0397897,-0.0390655
-0.0269922,-0.0332641
-0.00402963,-0.0235164
0.00136149,0.0134619
0.00354117,0.0302128
0.00858084,0.0254437
-0.0179029,0.000658583
-0.0545026,-0.00948997
-0.0743447,-0.00707062
-0.0610825,-0.0404386
-0.0186667,-0.0398329
0.0440132,0.00825958
0.0883728,0.0115406
0.0937183,0.0247739
0.0690113,0.030016
0.0228226,0.0190926
-0.0204539,0.0134475
-0.0385333,-0.0017926
-0.0432487,-0.00688801
-0.0480738,-0.0251659
-0.0347862,-0.0403633
-0.0164538,0.0229469
-0.018171,0.0407677
-0.019223,-0.00849864
-0.00296262,-0.0116299
0.01328,0.0244222
0.0212176,-0.0151522
0.0167778,-0.040771
0.00774015,-0.0189078
0.00312344,0.0046967
0.0298801,0.0138667
0.0412129,0.0390052
0.0118575,0.0344083
-0.0215574,-0.017631
-0.039867,-0.0202392
-0.0568533,-0.0206289
-0.0558861,-0.022965
-0.0233342,-0.0138583
0.0146337,0.00106468
0.0223665,0.0134616
0.00876764,0.0196438
-0.00192137,0.0139137
0.001452,0.000761634
0.0230361,0.0137214
0.0669237,0.0514099
0.0978672,0.012632
0.132598,0.00136307
0.125383,-0.0108933
0.048432,-0.0459373
-0.0400455,-0.0334677
-0.101582,-0.00159097
-0.139496,-0.00995099
-0.136224,-0.0304718
-0.0957638,-0.00188616
-0.031979,0.0573432
0.0454814,-0.0134777
0.0705469,-0.0225416
0.0526361,0.00493158
0.0133963,0.0191642
-0.0221901,0.000600163
-0.0450553,-0.0186597
-0.0380477,0.00792535
-0.0221403,0.00793482
-0.00275033,0.00669241
0.0141199,0.0308669
0.0149697,0.0431824
0.00802452,4.98e-05
0.00340992,-0.0295569
-0.00196142,-0.0295701
-0.00793726,-0.0258699
-0.00409252,-0.00906665
0.0117839,0.0110334
0.0199227,0.00996195
0.00994393,0.00725163
0.00177454,0.00180719
-0.00102457,-0.0204095
0.00280333,-0.00721107
0.0169492,0.0234216
0.0240803,0.00171106
0.0190576,-0.00832198
0.0171078,0.00898483
0.022152,0.0229735
0.016794,-0.00606419
0.0210369,-0.014711
0.047855,-0.00186954
0.0524121,0.00613413
0.029938,-0.00533897
0.00454461,-0.00731962
-0.0284291,-0.00825968
-0.0556888,0.0201499
-0.0474727,2.42e-05
-0.0528033,-0.0153294
-0.0713104,-0.0133189
-0.0705704,-0.00683256
-0.0502958,0.00187677
-0.0319093,-0.0327602
-0.0279913,0.0365295
-0.00625181,0.0380302
0.0155102,-0.0115964
-0.0231805,0.0207094
0.0032769,-0.0291421
0.010545,-0.023218
0.0135952,0.00723883
0.0376247,0.0192291
0.0655585,0.0244736
0.0663768,0.0397935
0.0639376,0.0410885
0.0621141,-0.0103848
0.0497095,-0.0313279
0.0254483,-0.0236336
0.00664381,-0.00117973
-0.0197618,-0.00104025
-0.0366975,-0.00976873
-0.0340504,-0.0113622
-0.0434931,-0.031713
-0.0674074,-0.0244831
-0.0667095,-0.000433902
-0.0550362,-0.000624023
-0.0357112,-0.0027165
0.000933533,0.0131491
0.0569403,0.0126375
0.0742461,0.014236
0.0545602,0.0151174
0.037651,0.0180642
0.0110707,0.00120073
-0.0222525,-0.0263691
-0.0426597,-0.0349163
-0.0348846,-0.0370349
-0.0237866,-0.0239516
0.0149167,0.00424058
0.0504338,0.0159998
0.0257807,0.0405589
-0.011983,0.0570096
-0.033396,-0.00171701
-0.0325057,-0.0323774
-0.000384401,-0.0141482
0.0217934,0.00311261
0.0396135,0.0305149
0.0312923,0.0255885
0.00549552,0.00839764
-0.0273414,-0.00605531
-0.0512997,-0.00370992
-0.0479246,-0.0144023
-0.0374361,-0.0133178
-0.0254419,0.0456177
0.00610819,0.0751676
0.0423767,-0.0590249
0.0697408,-0.0617942
0.0680011,-0.024779
0.0514353,0.00561828
0.0213549,0.0205063
-0.0179578,0.00627335
-0.0266399,-0.023546
0.0173484,-0.0206115
0.0478133,0.00565266
0.107405,0.0304363
0.144962,0.050242
0.101769,0.0252713
0.00599187,-0.00390611
-0.105814,-0.047798
-0.197677,-0.0541694
-0.207688,-0.0407415
-0.162208,-0.00885654
-0.106047,0.0212147
-0.062728,0.00794717
-0.0441942,0.00041442
-0.0284902,-0.00623766
-0.011435,-0.0238963
0.00592112,0.0138081
0.023468,0.0372738
0.0547981,0.015457
0.0805184,0.0037514
0.0798975,0.00276903
0.0669749,0.00589742
0.0482866,0.00175546
0.0382201,-0.00366674
0.0448776,-0.0177319
0.0455388,-0.0315654
0.0149827,-0.00822959
0.00713448,0.0155867
0.0274214,0.0205483
0.0184077,0.0142361
-0.0195118,-0.0456364
-0.0586127,-0.0417504
-0.0788821,0.0110714
-0.0509868,0.0111928
-0.00498045,0.0123429
0.0494089,0.0334717
0.0963743,0.0458227
0.0597456,0.0523175
0.00254963,0.00446965
-0.0372139,-0.0162175
-0.0584615,-0.0184445
-0.0577978,-0.0179693
-0.0179467,-0.0118976
0.0396988,0.0248422
0.0794786,0.0808392
0.087632,-0.0114387
0.049001,-0.0620168
-0.0075435,-0.0449854
-0.042888,-0.02317
-0.0656789,0.00377495
-0.0726382,0.0236432
-0.0420453,0.00856657
-0.01005,0.0107516
-0.00353114,-0.0155026
-0.0113685,-0.0458135
-0.0342375,-0.0347611
-0.0587428,-0.00957871
-0.0617122,0.0679426
-0.0471603,0.0708771
-0.0265693,-0.0257904
-0.0121865,-0.0218463
0.0201515,-0.068488
0.0513096,-0.0252201
0.0527256,0.0219773
0.0467814,0.0313534
0.0544454,0.00377659
0.0496468,-0.0145235
0.0541065,0.00141844
0.0618862,0.0298692
0.0392439,0.0350074
0.0042755,-0.00020241
-0.0165777,-0.012044
-0.0302571,-0.00530437
-0.0494792,0.0648961
-0.0322292,0.0613224
0.0222444,-0.0413314
0.0472701,-0.0508887
0.0616477,0.00133995
0.0517914,0.0040924
0.0293105,-0.0217319
-0.0248528,-0.0285004
-0.0955293,-0.00584821
-0.124576,-0.00230811
-0.110297,-0.0105815
-0.0857274,-0.00855192
-0.0388053,-0.00251606
-0.000279648,0.00691622
0.0140386,0.037208
0.0504877,0.0485611
0.0830105,-0.00409735
0.0464592,-0.0300662
0.0138608,-0.0446049
0.013085,-0.0332246
0.0224958,0.0137674
0.0431868,0.0315353
0.0522454,0.0102196
0.031866,0.000361652
0.0142656,0.00247324
0.00152061,0.000875073
-0.02561,-0.0166568
-0.0573943,-0.0242057
-0.0585122,-0.0142315
-0.0309308,-0.00318405
-0.00632499,-0.0161128
0.0027456,-0.0106968
-0.00150556,0.03488
0.00505828,0.0342752
0.00144976,0.0411162
-0.0126009,-0.0131855
-0.0192035,-0.0354698
-0.0119793,0.00143975
0.006586,0.0262377
0.0182188,0.0356463
-0.007606,-0.00748309
-0.0438079,-0.00815173
-0.0251088,0.0446281
0.0202855,0.071902
0.0489964,-0.0374745
0.100624,-0.0685657
0.132984,-0.0301494
0.128151,0.00986916
0.085481,0.0304049
0.0260712,-0.0403672
-0.0178453,-0.0534285
-0.0702981,-0.0367369
-0.133492,-0.0203478
-0.155222,0.0066441
-0.108702,0.0875872
-0.0239887,0.0578634
0.0245203,-0.0646323
0.0271335,-0.0490639
0.00834271,-0.00934977
-0.00225943,0.0383399
-0.0280345,0.018241
-0.0703404,-0.0324716
-0.065409,0.00683078
-0.00238309,0.0322867
0.0236639,0.0118277
0.0234474,0.00387092
0.0233814,0.000306489
0.00719663,-0.00652319
0.00137772,-0.0154359
0.0234685,-0.0042288
0.0208538,0.0133347
-0.0072593,0.0103187
-0.0268943,0.00517047
-0.0384336,0.0143796
-0.0453251,-0.00736289
-0.0129664,-0.027893
0.0183026,-0.00956838
0.0334674,0.0140987
0.058575,-0.00779358
0.083701,-0.0220679
0.0641955,-0.0017982
0.00198252,-0.0218572
-0.0394875,-0.0351904
0.0131709,0.00116751
0.0479641,0.0481865
0.0417273,0.0704646
0.0343442,0.075271
0.0249275,-0.0302993
0.00987587,-0.042777
0.00100017,0.0115018
-0.0218622,0.0286663
-0.0384134,-0.0287365
-0.0326014,-0.0225329
-0.0507849,-0.0120659
-0.0918281,-0.00984475
-0.0636889,-0.0120348
0.0077933,-0.0124726
0.0297459,0.0346783
0.0216207,0.0257314
0.00757992,-0.0542724
-0.015794,-0.0415016
-0.0331975,0.00471589
0.0128521,0.0255811
0.0386781,0.00578598
0.0286016,0.0174123
0.0140109,0.00520329
0.0141727,-0.000663043
0.011548,0.0185987
0.0158067,0.0329445
0.0452735,-0.00582921
0.0278069,-0.0306202
0.0208971,-0.0170311
0.0185816,-0.000172157
0.0388949,4.86e-05
0.022139,-0.0103908
-0.0513838,-0.00833618
-0.0867641,0.0340066
-0.0557093,0.0725462
-0.0382726,-0.00620945
-0.000353061,-0.06557
-0.0097175,-0.0372385
-0.0389862,-0.00151885
-0.0700529,0.0523
-0.103373,0.0346632
-0.0761594,-0.0189202
-0.0220468,-0.0224801
0.000846074,-0.0420832
0.0345632,-0.0397596
0.0847115,0.0167845
0.0844235,0.0103597
0.0807625,0.000633176
0.0609476,0.00894968
0.0236537,0.000466866
-0.00604308,0.00518727
-0.0209667,-0.00917635
-0.00226943,-0.0430955
0.0248612,-0.0179923
0.0309357,0.0469462
0.0314839,0.0735095
0.0188832,0.00353783
-0.0223802,-0.0235647
-0.043966,0.0228849
-0.0129123,0.063003
0.0140649,0.0049699
-0.00317207,-0.0346672
-0.0159899,-0.00713751
-0.0124406,0.00248447
-0.0072631,-0.0134642
-0.0101565,-0.0167847
-0.0079283,-0.00167317
-0.000613761,0.00922696
0.00432962,-0.027304
0.0196894,-0.0511728
0.0273284,-0.0233674
-0.000146454,0.00220796
-0.027803,-0.00928106
-0.036413,0.00492002
-0.00798244,0.0387745
0.0241549,0.0224794
0.0144411,0.00401786
0.00898208,0.0344741
0.0116354,0.0280975
0.0427746,-0.0206271
0.0719085,-0.019257
0.0715119,0.0111021
0.0630451,-0.0116508
0.0136788,-0.00805694
-0.0791769,0.0102422
-0.18465,-0.00885655
-0.201223,-0.0141832
-0.214732,-0.0216043
-0.204213,-0.0200699
-0.0569125,0.00954126
0.0716102,0.0489869
0.128384,0.0258877
0.183527,-0.0206192
0.197114,-0.0280858
0.0953896,-0.020404
0.0379241,-0.000358161
0.104334,0.029071
0.115779,0.0208381
0.0562367,-0.00182022
0.0198211,-0.0135719
-0.0374303,-0.0031269
-0.0813416,0.0151834
-0.0794103,-0.01835
-0.0557733,-0.0343955
-0.0186762,-0.0169688
0.0142372,-0.0020702
0.00367612,0.0154288
0.0111688,0.00912001
0.0349319,-0.0127177
0.0202529,-0.016266
-0.00892277,0.0210005
-0.0420233,0.062543
-0.0801877,0.0276815
-0.107021,-0.021606
-0.0974113,-0.0128349
-0.0506767,-0.00160444
0.00118356,0.0010835
0.0220942,-0.00144524
0.00149915,-0.00348287
0.0325237,-0.000510776
0.0978997,-0.00700364
0.0624138,-0.0109085
0.0205831,0.0123266
0.082556,0.056988
0.103216,0.0430834
0.0226283,-0.0187071
-0.0883459,-0.0439471
-0.133202,-0.0491308
-0.135481,-0.0340185
-0.0954932,-0.00733817
-0.0517736,0.00811318
-0.0924432,0.0083554
-0.0721947,0.0129064
0.068541,0.00275965
0.188017,-0.0051694
0.290069,-0.000981835
0.347288,-0.00347476
0.330674,-0.0140374
0.168292,-0.0261019
-0.0843832,-0.00384768
-0.212245,0.0144132
-0.269458,0.0287068
-0.319867,0.0329076
-0.272359,0.0226468
-0.169936,0.00598826
-0.153605,-0.0132631
-0.140714,-0.0136854
-0.086887,0.00464468
-0.00676458,0.00366935
0.110028,-0.0102357
0.0997905,-0.0152626
0.0284025,-0.00166055
0.0729238,0.0153028
0.155853,0.0170122
0.222978,0.00714141
0.26471,0.00564726
0.202828,-0.00703406
0.043387,-0.019321
-0.105765,-0.00814094
-0.167498,0.00264642
-0.157595,-0.00688186
-0.112956,-0.0186481
-0.041112,-0.0162878
0.00116654,0.00625799
0.021815,0.0208971
0.0641127,0.011015
0.103669,0.00228976
0.0979933,-0.00189754
0.0576459,-0.0105974
0.0485898,0.000995035
0.0524991,0.00936343
-0.0200533,0.00880295
-0.0514473,0.00744204
-0.0796506,0.00240127
-0.126538,-0.00321565
-0.117162,0.00203739
-0.0371915,-0.00338859
0.0255186,-0.0236327
0.0454472,-0.022982
0.0605279,-0.00697752
0.0503766,0.019339
-0.0118556,0.0115356
0.013935,-0.00849461
0.112165,-0.014672
0.211074,-0.00471323
0.141245,-0.00815761
-0.0308252,-0.018229
-0.190702,-0.0041294
-0.20654,0.0179102
-0.0871489,0.0382837
-0.0213726,0.0273608
-0.0102162,0.0019407
0.0174341,0.00443527
0.0520842,-0.022684
0.0237107,-0.0453379
-0.0193459,-0.0136956
-0.0243447,0.0409266
-0.0385945,0.04764
-0.0791895,0.0489362
-0.0896518,0.0584607
-0.0721198,0.0164535
-0.0303105,-0.0688706
-0.0301559,-0.0812481
-0.0284482,-0.0119704
0.0311329,0.035715
0.0414121,0.0321845
0.0492757,-0.00247189
0.111325,-0.0195621
0.168511,0.0212745
0.17029,0.022071
0.0374833,-0.0209456
-0.113442,-0.0182065
-0.146513,-0.00286718
-0.0934739,-0.0208791
-0.0491921,-0.00679094
-0.0159805,0.000924123
-0.0171873,-0.0339318
-0.0181061,-0.0394279
0.0265264,-0.0151767
0.0361897,-0.0052951
0.0252597,-0.0105477
0.018316,-0.00658258
0.0326375,0.00574351
0.0685395,0.0191662
0.0947021,0.0243134
0.102368,0.00225626
0.0754272,-0.0172612
0.00654355,-0.0292375
-0.0606372,-0.0107348
-0.0566906,0.025063
-0.0079189,0.0451128
-0.0283751,0.0414743
-0.0889025,0.0615572
-0.149781,0.0735098
-0.174871,-0.0275872
-0.127012,-0.0801082
-0.0252357,-0.0457086
0.0509162,-0.0303569
0.102571,0.00652335
0.145252,0.0530639
0.13485,0.0264069
0.0958806,0.00843954
0.0656136,-0.00866585
0.0282808,-0.025496
-0.029637,-0.0298029
-0.0757171,-0.0297682
-0.0967898,-0.0109769
-0.0908226,0.00619199
-0.0473637,0.015659
0.00707425,0.0266022
0.0702613,-0.0261429
0.0574253,-0.0191467
-0.0581762,0.0157352
-0.0823671,0.108176
0.00618566,0.092726
0.0545959,-0.0687784
0.0729676,-0.0801574
0.0968768,-0.0201385
0.0769442,0.0152613
0.0294211,-0.00335647
-0.0341547,-0.0394212
-0.0204655,-0.0492163
0.029134,-0.0171571
0.0912367,0.0514264
0.105032,0.0125307
0.043363,-0.0050683
-0.0412108,0.0301367
-0.0878367,0.0113754
-0.0937134,-0.0223352
-0.118857,-0.00265453
-0.119949,0.00132852
-0.105125,-0.0115705
-0.0801219,-0.0202221
-0.0468688,-0.0454066
0.0157078,-0.0206604
0.105965,0.0460945
0.137336,0.0698613
0.0823002,0.0403894
0.00250633,0.0372867
-0.0668654,0.0212171
-0.138482,-0.0302303
-0.118396,-0.0352953
0.0272376,-0.0119811
0.136237,0.0761966
0.102334,-0.0314989
-0.0122516,-0.029161
0.00919097,0.0258529
0.0904841,0.00104887
0.147021,-0.0275837
0.160829,-0.00254411
0.0716168,0.0365645
-0.0538484,-0.00754481
-0.165767,-0.0151345
-0.183846,0.00301803
-0.164117,-0.0295971
-0.23623,-0.0332198
-0.208524,0.0781954
0.022417,-0.0146871
0.107208,-0.107252
0.0368948,-0.0392456
0.133353,-0.0122163
0.249702,0.0113122
0.201855,0.0557144
0.110073,0.0482648
0.0198091,-0.0115378
-0.0143573,0.00671884
0.0284517,-0.00972407
-0.0334702,-0.0194569
-0.0578724,-0.0140862
-0.066234,0.011056
-0.169008,0.0476333
-0.176448,-0.0219254
-0.0463232,-0.0474121
0.0374042,-0.0162999
0.0520718,0.0143132
0.0306878,0.0162021
0.00880755,0.0446482
0.0283767,0.0362369
0.0219032,0.0856209
-0.0348096,-0.0181968
-0.0918385,-0.118324
-0.0575468,-0.0472965
0.0525555,-0.00625977
0.0402231,-0.0238155
0.0557694,0.0021071
0.0807494,0.0542517
0.0381087,0.0279204
-0.0455268,0.0109894
-0.0839597,0.0116477
-0.0427368,-0.0319095
-0.0155588,-0.0387313
0.0234591,0.0291204
0.0887331,0.0678361
0.143472,-0.015062
0.0290506,-0.0424173
-0.119399,0.0144119
-0.105604,0.0242323
-0.0355605,-0.0257299
0.0265987,-0.0421449
0.0726975,-0.00635949
0.0653872,0.048946
-0.0516361,0.0626688
-0.0805123,-0.0120828
0.029041,-0.0383396
0.102817,-0.010451
0.0681174,-0.0277533
-0.0276421,-0.054189
-0.165075,-0.0316703
-0.155732,-0.010928
0.00648769,0.00362822
0.0913007,0.0214311
-0.0181498,0.0167717
-0.153653,0.0190674
-0.049195,-0.00188027
0.0780034,-0.0295442
0.0932396,0.0262713
0.12717,0.0656538
0.172143,0.0174732
0.130745,0.0247123
0.0619012,0.0763597
-0.00302572,-0.0085508
-0.00518021,-0.0217699
-0.00124896,0.147503
0.0300973,0.0893599
0.0714196,-0.118022
0.0901324,-0.15128
0.0763408,-0.113854
-0.00637605,-0.0130873
-0.139081,0.028951
-0.234803,0.00326408
-0.251578,0.0358888
-0.203833,0.0471631
-0.0905019,-0.0121009
-0.0508068,-0.00542002
-0.064629,0.0329711
-0.0113012,0.043479
0.0678519,-0.0257714
0.117234,-0.0986814
0.125113,-0.0881802
0.0744203,-0.0573332
0.0375126,0.0342794
0.0176712,0.0130366
-0.0338767,0.0268597
-0.0402757,0.01821
-0.0245598,0.0381988
-0.0122325,0.0178707
0.0320435,-0.0393938
0.0598226,-0.0310205
0.0386548,0.00331197
0.033326,0.0345829
-0.0185835,0.0712862
-0.0637564,0.0838509
0.0100122,0.014353
0.0602498,-0.0153496
0.0277756,-0.0156881
0.0355952,-0.0558223
0.0696028,-0.0768652
0.0858992,-0.0264287
0.0740118,0.0207396
0.00746343,0.0206579
-0.0665624,0.0141611
-0.113207,-0.023113
-0.0541551,-0.0518747
-0.016376,-0.00380992
-0.0726358,0.111652
-0.0314747,0.106966
0.100833,-0.0466421
0.110265,-0.0548288
-0.0268328,-0.0503308
-0.148209,-0.036361
-0.246451,0.0213537
-0.234235,0.0433064
-0.0860367,0.0410072
0.0534422,0.0263359
0.107637,0.00276221
0.110381,0.0010248
0.0730653,-0.0143832
-0.00542075,-0.0708206
-0.0489119,-0.0808368
0.0580858,-0.0254505
0.217614,0.014215
0.223621,0.0592566
0.0319482,0.0814889
-0.164759,0.0299453
-0.150724,-0.00274133
-0.0607018,0.0137019
0.0389203,-0.0181269
0.133651,0.0296677
0.202366,0.0797797
0.201282,-0.0184186
0.124118,-0.0789458
0.000562326,-0.0448622
-0.108677,-0.0342524
-0.219503,-0.0493379
-0.289679,-0.0436754
-0.26578,-0.0573889
-0.180371,-0.0551799
-0.0638674,-0.0443625
0.0535401,0.0176289
0.0928915,0.0480126
0.0633092,0.0256234
0.139266,0.0993598
0.325218,0.0557298
0.427804,0.105823
0.379361,0.101058
0.162384,-0.05759
-0.0549111,-0.0601946
-0.188792,-0.00550419
-0.242821,-0.0390232
-0.178764,-0.104909
-0.136101,0.0010882
-0.0877301,0.105934
-0.0191941,0.07386
-0.0754604,-0.0230573
-0.183198,-0.083747
-0.283033,-0.0389721
-0.268124,-0.0244062
-0.0853457,0.0130541
0.0694595,0.049851
0.088761,0.0135236
0.00436329,-0.0042794
-0.0148773,-0.00559048
0.129442,-0.007407
0.250585,0.0130166
0.273204,-0.0229863
0.224735,0.0494444
0.0975467,0.0338068
-0.0125222,-0.0235579
-0.0708872,0.0110146
-0.12294,0.010187
-0.109564,-0.0412523
-0.134345,-0.0477077
-0.0856043,-0.0390634
0.0522417,-0.0240321
0.0923032,-0.00839526
0.00883448,0.000594923
-0.147497,0.00912601
-0.228456,0.00827308
-0.146246,0.00140823
-0.00664046,0.0463269
0.133809,0.0203247
0.17626,-0.0533557
0.106923,0.045321
0.0406141,0.114012
0.0415176,0.0182441
0.0252418,-0.0237429
-0.0332466,-0.0143932
-0.0416817,-0.0566822
-0.0102796,-0.0309128
0.0215421,-0.00994587
0.108973,0.0497432
0.207135,0.054961
0.187281,0.0621268
0.102309,-0.000673368
0.0704181,-0.0747665
0.0980705,-0.0590259
0.104472,-0.0270854
-0.00868211,-0.0377059
-0.218315,-0.0215978
-0.411908,-0.022456
-0.442857,-0.0504037
-0.35124,-0.0154402
-0.181094,0.00523388
0.0449123,0.00975885
0.236725,-0.0219857
0.234065,-0.00594159
0.12371,0.0836577
0.0686321,0.208543
0.0607545,0.0146064
0.0327703,-0.0740675
-0.00432342,-0.0104987
-0.0368242,0.0395876
-0.111751,0.130547
-0.110113,0.0068541
-0.0254195,-0.0409932
0.0845224,0.011106
0.131766,-0.0898581
0.116682,-0.12881
0.0314541,-0.0526541
-0.00537864,-0.0548251
0.0127752,-0.042483
0.0435806,0.0319704
0.0949048,0.0402137
0.0921053,0.00612549
0.0231114,0.00978656
-0.0591734,-0.0143724
-0.113065,-0.0277237
-0.153476,0.0624341
-0.13449,0.0627286
-0.108542,-0.00244989
-0.08661,-0.0152552
0.0243517,-0.00125682
0.129572,0.0200231
0.153057,0.0299007
0.115889,-0.00744172
0.0222833,-0.0104567
-0.0600924,-0.0087564
-0.0733661,-0.00150028
-0.0514064,0.0346378
-0.0225318,0.0487895
-0.0154249,-0.0148211
-0.0781026,-0.0102769
-0.104219,-0.00584123
-0.0690963,-0.0442494
0.0293182,-0.0527004
0.150082,-0.0490016
0.148656,-0.0451006
0.0331643,0.0272434
-0.0487007,0.0273627
-0.0239625,0.00546596
0.0192974,0.0592909
0.0288389,0.0387062
0.0189171,0.0282182
0.029194,0.00911377
0.0370546,0.0148434
0.00499654,0.0495262
0.000899823,-0.00264262
-0.026494,-0.0974001
-0.0253036,-0.0103879
0.0109935,-0.0404659
0.043441,-0.0389328
-0.00281352,0.0194142
-0.0960347,-0.0404246
-0.102912,-0.0460331
-0.0229905,0.0575583
0.0377748,0.130463
0.0591973,0.00343136
0.00385621,-0.0264578
-0.047757,0.0157382
-0.0245189,0.0446855
0.00169249,0.0209261
0.0803539,-0.042082
0.160798,-0.0624992
0.173264,0.0249188
0.117783,0.0644109
-0.0222532,-0.0449249
-0.102027,-0.113722
-0.128667,-0.0680262
-0.131053,-0.000997941
-0.12101,0.0357517
-0.0744077,0.0264776
-0.0074401,0.0119642
-0.0015553,0.0240414
-0.021506,0.0144804
-0.00542858,0.0125162
0.0168689,0.0366075
-0.0502551,0.0286876
-0.12896,0.0148085
-0.00452057,0.0254732
0.167079,-0.0116941
0.270421,-0.0328002
0.224833,-0.0512732
0.0628414,-0.0281399
-0.0714401,0.0295888
-0.132458,0.00724011
-0.179567,0.0437954
-0.0932417,-0.0151146
-0.0261253,-0.0471867
-0.0486424,-0.0188257
-0.0492539,0.00182161
-0.0474439,-0.0108243
-0.0143941,-0.0223231
0.0253779,-0.0122718
-0.000473273,-0.00232154
0.0164217,-0.0273942
0.0558409,0.000190097
0.110579,0.0536634
0.163869,0.0177304
0.0797848,-0.0398008
-0.0468472,-0.000348928
-0.0783265,0.0440413
-0.0673394,0.0293396
-0.024037,-0.00805686
0.0177002,-0.0196659
0.0689662,-0.0232591
0.0645414,0.00328182
0.0260165,0.0795522
0.0286596,0.00548072
-0.000884718,-0.0981568
0.00786254,-0.0462888
0.0304691,0.0236778
-0.0088825,0.111185
-0.0237598,0.1081
-0.00787587,-0.0675525
-0.0595699,-0.0572834
-0.138674,-0.00568726
-0.112663,-0.00344117
-0.0177105,-0.0310133
0.018613,-0.0371335
-0.0223562,-0.0108886
-0.0412266,0.0251611
0.0404495,-0.000785016
0.0942043,-0.0274421
0.0186002,0.0209162
-0.0474139,0.0556308
-0.0403246,0.0712293
-0.0455083,0.0347118
-0.00848341,-0.0280922
0.103099,-0.0248055
0.160445,-0.0150497
0.17527,-0.0640967
0.135129,-0.0481371
0.0931075,0.0670408
0.0866929,0.0732213
-0.000966409,0.0181443
-0.0420631,0.0065819
-0.0613278,-0.0157398
-0.131507,-0.00543774
-0.197573,0.00660281
-0.127561,-0.00244426
-0.0520547,-0.0203904
-0.0164077,-0.0321231
-0.0330768,-0.0268456
-0.0562239,-0.0199029
-0.111767,0.0137521
-0.142787,-0.0163983
-0.107114,-0.0387869
-0.0485333,0.00818749
0.0420998,1.01e-05
0.0706263,-0.0158056
0.103925,-0.0268758
0.137903,-0.00523134
0.115651,0.0130504
0.0880191,0.0124111
0.0847788,0.0208204
0.0703,0.0136827
0.029228,0.0206678
-0.0212923,0.0249979
-0.0406889,0.0247322
0.00680357,0.0523125
0.0539878,0.0212161
0.0352157,-0.0357549
0.0112879,-0.043452
0.0439002,-0.0210475
0.0388352,-0.00586228
-0.0184489,0.00381233
-0.0814063,-0.00396201
-0.132288,-0.039755
-0.158352,-0.0324213
-0.108945,-0.00107234
0.0240462,0.015996
0.102119,0.0460898
0.0838575,0.0728175
0.0778254,0.0105104
0.11965,-0.0483185
0.117978,-0.0295312
-0.00342028,-0.0113092
-0.166295,-0.00444844
-0.225734,0.0111972
-0.19379,0.0625958
-0.0939501,0.0738949
-0.0221141,0.0309992
0.00498051,-0.0544401
0.0368151,-0.0847742
0.064913,-0.0427592
0.062575,-0.023647
0.0510745,-0.0217746
0.0657355,-0.00378339
0.0719285,0.00550035
0.0452798,0.0328078
0.0210178,0.0498652
0.0452062,-0.0554189
-0.0211003,-0.0495611
-0.0617252,-0.0221192
0.0301749,0.0569102
0.10685,0.0642232
0.082906,-0.00711286
0.0349812,-0.0388034
0.0209616,-0.00755555
-3.42e-05,0.0187752
-0.0299683,-0.00848886
-0.0638947,-0.0113239
-0.0620291,0.0230456
-0.016767,0.072755
-0.00371739,0.0626908
-0.0200299,-0.0130604
-0.0485299,-0.0045973
-0.0644768,0.0139949
-0.0801487,-0.00828767
-0.0788112,-0.0748653
0.00831686,-0.0616016
0.119256,-0.0232905
0.145906,-0.00575087
0.0470522,-0.00857386
-0.097754,-0.0128384
-0.110955,0.0243635
-0.0403338,0.0272909
0.00836663,-0.0130978
0.0480008,-0.0184692
0.074797,0.0173435
0.0846271,0.0394801
0.056092,0.0380136
-0.00124979,0.0320894
-0.0293599,0.0682489
-0.0420486,0.00488729
-0.0813964,-0.0234583
-0.118865,-0.0206395
-0.112664,0.0304315
-0.0255185,-0.031917
0.0343553,-0.0584805
-0.0149526,-0.0268254
-0.0283746,-0.0405204
0.0237954,-0.0239172
0.0115597,0.0135525
-0.0442671,0.0139827
-0.0161806,-0.00575889
0.139953,0.00108488
0.251021,0.00557338
0.247039,-0.00815533
0.169305,-0.0126419
0.0588203,-0.0231655
-0.0498423,-0.0215548
-0.138729,0.0164568
-0.173676,0.0386425
-0.14462,0.0180115
-0.0648769,0.0377574
-0.00150574,0.0376384
0.0263497,0.00573754
0.0482015,0.0388128
0.0176108,0.0730798
-0.0562567,0.0124534
-0.0896751,-0.0575316
-0.054218,-0.0622946
-0.0259144,-0.0182329
-0.0282608,0.00765382
-0.029643,-0.0115738
-0.0128705,-0.036336
0.0107231,-0.0421271
0.0284275,-0.0219257
0.0540032,-0.0144356
0.0406995,-0.000168535
0.0333759,-0.00636196
0.0733015,-0.0431362
0.0642533,-0.00213285
-0.00300713,0.0867355
-0.0634216,0.106067
-0.141768,0.0276971
-0.15703,-0.033872
-0.0734319,-0.0604396
-0.016436,-0.0419626
0.00436813,0.0260501
0.0636912,0.0359106
0.150841,-0.01464
0.148075,-0.00285517
0.0642933,-0.00266795
0.0181094,-0.0136777
0.0519216,0.0126561
0.064499,-0.00354721
0.032011,-0.00945249
-0.000192945,0.0180034
-0.0295596,0.00826916
-0.0633713,-0.0074666
-0.107102,0.0328742
-0.115845,-0.0303376
-0.103984,-0.0341826
-0.0388299,0.0232849
0.0827335,0.0590256
0.15595,-0.00994587
0.154631,-0.054788
0.0992738,-0.0228586
0.0229688,-0.0122694
-0.0169913,0.0233739
-0.040822,0.0665791
-0.080816,0.00333993
-0.0805131,-0.0562772
-0.0697615,-0.0332094
-0.101957,0.0191971
-0.109683,0.0236595
-0.038701,-0.0156022
0.077193,0.0179922
0.106949,0.0726307
0.06728,0.037068
0.04125,-0.0577019
0.0202496,-0.101062
-0.0174546,-0.027894
-0.0543729,0.0158225
-0.0378343,0.0493125
0.00129677,0.0413412
0.0308794,0.00332899
0.0728572,-0.0128044
0.0880892,-0.017948
0.0710961,0.00553979
0.00842419,0.0199503
-0.0269536,-0.0059379
-0.060278,-0.021425
-0.112179,0.0227951
-0.100652,0.0361682
-0.0632971,0.0190072
-0.06095,-0.0137872
-0.0339492,-0.0304911
0.0505285,-0.0226185
0.0605742,-0.00572364
0.0157865,-0.0266417
0.0102842,-0.0341077
-0.0194504,-0.0263004
-0.04341,-0.00368249
-0.0223354,0.0382122
0.0685548,0.0289557
0.0979681,-0.0114506
0.051103,0.0035172
0.0195011,0.0305795
0.021353,-0.000885499
0.0420589,-0.0409636
0.0312633,-0.0166677
-0.00424865,0.0196361
-0.0550241,0.0233033
-0.0676181,0.0187992
0.0105298,0.0286749
0.0619873,-0.0232551
0.0262335,-0.0646117
-0.0325757,-0.0197044
-0.119186,0.0472922
-0.124157,0.0323312
-0.0713008,-0.00864273
-0.02846,-0.0161499
0.0204914,-0.0162021
0.0224229,-0.00450512
-0.00257216,0.00743998
-0.0197476,0.0139502
0.0091296,0.0346595
0.049066,0.0496962
0.0833852,-0.0199807
0.0845071,-0.0557065
0.0692868,-0.017937
0.0320556,0.0311601
-0.000528702,0.107581
-0.000398738,0.0921324
0.0276645,-0.0421943
0.0253264,-0.0579278
-0.0170556,-0.0438737
-0.0475419,-0.0411466
-0.0498484,-0.0129461
-0.00982088,-0.0202524
0.027783,-0.00913975
0.0226952,0.0445132
-0.0130308,0.079873
-0.0453899,-0.0535104
-0.056717,-0.092825
-0.0570162,-0.0541899
-0.0402538,-0.00756841
-0.00139988,0.0183045
0.026362,-0.00906628
0.064393,0.00484278
0.0681832,0.0236164
0.0425801,0.0348998
-0.00602361,0.02944
-0.00500322,-0.017474
0.00685307,-0.0153984
-0.020392,0.0188873
-0.00172765,-0.0125747
0.0418753,-0.028822
0.0123831,0.0082258
-0.00268788,0.024992
-0.00431651,0.0276027
-0.0291333,0.042222
-0.0127495,0.0245615
0.0168742,0.00779791
0.0185989,-0.0108041
-0.0174998,-0.0331941
-0.0147209,-0.0231989
-0.0294339,-0.0118775
-0.0763821,-0.0115152
-0.0512037,-0.0211117
-0.012062,-0.0154466
-0.0034262,-0.00575287
0.00541695,0.0208283
0.0140984,0.0314738
0.00325088,0.00249077
-0.00554427,-0.0143668
0.0379765,-0.00480864
0.0481369,0.0124575
-0.0190742,-0.0122486
-0.014521,-0.0154929
0.031243,0.00855526
0.0251805,-0.0072296
-0.0220703,0.00807185
-0.030387,0.0366848
-0.0458067,0.00903044
-0.0471651,-0.012417
-0.00185244,-0.0181567
0.0169689,-0.034024
0.0473594,0.031757
0.089951,0.117441
0.0926324,0.016076
-0.0049897,-0.0728713
-0.0547097,-0.0359733
0.0473571,-0.0056025
0.142047,-0.00823646
0.103323,0.0145264
0.0139855,0.0892788
-0.0524364,-0.00583532
-0.0998681,-0.051097
-0.123403,0.0017389
-0.108139,0.0291943
-0.0521548,0.00114942
-0.00517652,-0.0668053
0.00330573,-0.0466354
-0.049147,-0.010822
-0.0568561,-0.0152661
-0.0108077,-0.00355422
0.0374821,0.00180425
0.0464466,0.0272169
0.0069182,0.022869
-0.00748862,-0.0233593
-0.0344776,-0.0257819
-0.0222078,-0.020632
0.0166864,0.0240336
0.0489555,0.0525471
0.0581819,0.01867
0.045143,-0.00385897
0.0168552,-0.00388478
0.00578677,-0.0117798
0.00444924,-0.0150222
-0.00797607,-0.00266235
0.0249667,0.0128982
0.0666406,0.0392788
0.0478711,0.0564868
-0.00853312,0.0053132
-0.0212625,-0.0269568
-0.000137939,0.00579653
-0.00905635,-0.000946802
-0.0396432,-0.0564843
-0.0311773,-0.0394139
0.0120911,-0.00540322
0.0389137,0.00621889
0.0395904,0.00244165
0.0342508,0.00754283
-0.00268269,0.0168186
0.000249151,-0.00904594
0.0208931,-0.00308859
-0.0247875,0.0314311
-0.0541996,0.0288939
-0.0232401,0.00204541
-0.0180139,-0.00912283
-0.0550979,-0.0239459
-0.0680511,-0.0424
-0.0756239,-0.0231068
-0.10958,0.0203645
-0.103542,-0.0309842
0.0034573,-0.0669313
0.050192,-0.00528641
0.00696679,0.0383077
0.00307225,0.00118896
0.0367325,0.0565456
0.0668943,0.0927216
0.0444778,0.0141202
0.0294083,-0.000612741
-0.00742402,-0.00168211
0.00382161,0.0139765
0.0703791,0.00932193
0.0651904,0.0239364
0.0122155,0.0953125
-0.0203239,-0.0226585
-0.00896829,-0.114458
-0.00299048,-0.0794808
0.024113,-0.0154349
0.058171,0.000891164
0.0899039,0.0281185
0.05675,0.0453986
-0.0153565,-0.0295841
-0.0390194,-0.0352738
-0.0314986,-0.0113389
-0.0270283,-0.0159287
-0.0107538,-0.0144361
-0.015728,-0.0176511
-0.0224736,0.00944419
-0.0120962,0.0201146
0.00892248,-0.00117313
-0.0160829,0.00315675
-0.0928099,-0.00144441
-0.109849,-0.0203445
-0.0619559,-0.0140819
0.0170405,0.0064045
0.13337,0.0019307
0.131245,-0.000572503
0.0419092,0.0145576
0.00836128,-0.00450619
-0.0284437,-0.0198284
-0.0715296,0.00350721
-0.0591565,0.0404819
-0.000417587,0.0442446
0.0861941,0.0653635
0.125036,0.0588488
0.109401,-0.00548657
0.0661903,-0.0372111
-0.0290733,-0.0411623
-0.107622,-0.0378582
-0.141438,-0.00671296
-0.181384,-0.0172968
-0.154894,-0.04863
-0.0433029,0.000531134
0.0387184,0.0643067
0.059421,0.0697648
0.0347261,0.0247776
-0.00910346,-0.0213634
-0.0374572,-0.0628719
-0.0396797,6.23e-05
-0.0468307,-0.00780877
0.0144153,-0.0366497
0.123152,-0.025423
0.0814266,0.0668776
-0.00345188,0.0393842
-0.0168445,-0.0184977
0.00889099,-0.017548
0.0109429,-0.0216964
0.0490238,-0.0338356
0.132696,-0.0223694
0.13986,-0.0142228
0.0293571,-0.0199079
-0.0508918,0.00960033
-0.0891876,0.125797
-0.102584,0.0448198
-0.113923,-0.0580095
-0.0946282,-0.0801784
-0.080511,-0.0443573
0.00422439,0.0265508
0.140494,0.0740474
0.168472,0.00621701
0.163534,-0.0289039
0.10449,0.00208607
0.0366452,0.00187779
-0.0436205,-0.00546657
-0.118125,0.012329
-0.0925199,0.0519108
0.0123518,0.00919286
0.0580117,-0.0260345
0.0692304,0.00947317
0.027236,0.0201732
-0.0433213,0.0132897
-0.0835077,-0.00130978
-0.0915857,-0.0409231
-0.0853338,-0.0567758
-0.0439667,-0.0342402
-0.0108862,-0.0290866
-0.0163541,0.000310852
-0.0545079,0.0703199
-0.0246543,0.059676
0.056191,0.0296539
0.131756,-0.00632092
0.110589,-0.00353868
0.0569786,0.00126568
0.0130898,-0.019504
-0.0416331,-0.0416345
-0.0723619,-0.0289997
-0.0743171,0.0104522
-0.0334438,0.000116246
-0.0201612,-0.00389942
-0.0272246,-0.0141401
-0.0239872,-0.0119245
0.000718548,0.0207865
0.0236195,0.0555891
0.021953,0.0384785
0.0304756,0.0101819
0.0489817,0.0315835
0.0231596,0.0220073
-0.0227928,-0.0119439
-0.0411354,0.0368478
-0.0355892,0.0141926
-0.0130981,-0.072806
0.0193565,-0.0726514
0.0434991,-0.0347635
0.0207093,-0.018507
-0.0210147,-0.0240158
-0.0295387,-0.00477596
0.0321265,0.0175535
0.0698244,0.0197526
0.0186895,0.0346293
-0.0802472,-0.0320912
-0.12693,-0.0985432
-0.120447,0.0260028
-0.0510953,0.0386391
0.120752,-0.0632174
0.138824,-0.018769
0.100223,-0.00361927
0.0693075,0.0526208
-0.0271342,0.0469855
-0.109715,0.085934
-0.113921,0.0306193
-0.0387831,-0.0461442
0.0362553,-0.0293178
0.110931,0.00253349
0.155152,0.00369119
0.125645,0.000622743
0.0646604,-0.00676464
0.00747532,-0.00990407
-0.017211,0.00897145
-0.0410556,0.0217598
-0.0343607,0.0162972
-0.0253799,0.00382823
-0.0604304,-0.0309494
-0.0674652,-0.00950416
-0.071912,0.0428945
-0.0828724,0.0281209
-0.0800289,0.00549211
-0.0575899,0.0086672
-0.0280347,-0.0120256
-0.00361608,-0.00506568
0.0183206,-0.0301107
-0.0085091,-0.0506848
-0.0201653,-0.00192087
-0.00276516,0.0370174
0.0213838,0.0288532
0.0467862,-0.0378019
0.0689135,-0.0752904
0.0514169,-0.0354585
0.0347697,0.0156095
0.0713208,-0.0109491
0.038025,-0.004015
-0.0823891,-0.00274601
-0.0671547,0.0584438
0.107535,0.115731
0.128241,0.0721831
0.0398049,0.00147677
0.0216903,-0.067525
0.062233,-0.0846437
0.0340129,-0.0377596
-0.0135179,0.0099052
0.000607078,0.0395009
-0.030389,0.0667034
-0.0917468,-0.0155373
-0.177191,-0.02175
-0.247456,0.0112405
-0.194744,-0.0489475
-0.0319727,-0.0549642
0.0733107,-0.0251527
0.113365,0.00366805
0.158478,-0.0316755
0.162224,-0.0187675
0.103633,0.0307101
0.0664085,0.0460391
0.0395735,0.0400518
-0.0423476,-5.62e-05
-0.110399,-0.0272606
-0.113455,0.00432906
-0.0959487,0.0416254
-0.0900541,-0.0137704
-0.0652669,-0.0330965
-0.0210402,-0.00727733
0.0010127,-0.00199218
0.0551848,0.00316866
0.110769,0.0834109
0.164987,0.0654272
0.134733,-0.0443427
0.0868431,-0.019619
0.0357052,-0.000430719
-0.0290575,0.00465799
-0.0808243,0.0355505
-0.172084,-0.0101064
-0.161464,-0.012687
-0.0781059,-0.000160178
-0.0378682,-0.00504556
0.0342854,-0.0196035
0.110419,-0.0264697
0.0965847,-0.00839787
0.0661228,0.0184765
-0.00340881,0.024162
-0.0561348,0.0242315
-0.0340193,-0.0264783
-0.0144725,-0.0321414
-0.0353872,0.00670833
0.00552093,-0.0128721
0.0741716,-0.0319816
0.0639814,-0.0127148
0.0451534,-0.0194041
0.0715262,-0.0222807
0.0653614,0.00290249
0.00652697,0.0211372
-0.0281496,0.0251689
-0.0861056,0.0311321
-0.10656,0.0248776
-0.0362726,0.000557215
-0.0128839,-0.0120277
-0.0270265,-0.026664
-0.0247313,-0.0413964
-0.0131461,-0.0122838
0.00557444,0.0280288
0.025678,0.014774
-0.0215217,-0.00699288
-0.0427595,-0.0101993
0.0161534,0.0186542
0.067211,0.0295803
0.0641537,0.0117446
0.041163,0.00244156
0.0601443,0.0268704
0.0777004,0.0518794
0.0522271,0.0656209
0.0090136,0.0652071
-0.0750027,-0.00170133
-0.0840355,-0.0610359
-0.0741138,-0.0914254
-0.0613192,-0.0523869
-0.0295354,-0.0246327
-0.060678,0.00582099
-0.0896991,-0.00921266
-0.0790364,-0.0282076
-0.0120128,-0.0353201
0.0196967,-0.0264059
-0.00394112,-0.00977529
0.00867189,0.0132032
0.0702937,0.0160344
0.149189,0.00659938
0.129412,0.0212718
0.0853765,-0.00519184
0.100433,-0.0642254
0.0732899,0.00442751
0.0095962,0.0406162
-0.0204083,0.0342515
-0.0570957,0.0430973
-0.0886002,0.0364293
-0.0694178,0.0140098
-0.0229147,0.00831227
-0.02522,0.00131552
-0.0607287,0.0112423
-0.0689883,-0.0101611
-0.0333687,-0.0125516
0.00480485,0.00496811
0.00351946,-0.00471178
-0.0412637,-0.0579235
-0.00456516,-0.00235374
0.0718611,0.1183
0.0923629,0.0856525
-0.0239403,-0.0745591
-0.108733,-0.109629
-0.0799522,-0.0215579
-0.0568714,0.012293
-0.0540729,-0.0642365
-0.0293846,-0.0134814
0.0431973,0.0233923
0.132393,0.0197206
0.146689,0.0153597
0.131959,-0.0118986
0.0854997,0.00191495
0.0178728,0.000815892
-0.0598908,0.0239026
-0.105129,0.00475178
0.00270483,-0.0682634
0.0340548,-0.0186518
0.00728948,0.0626104
-0.0143557,0.0397427
-0.0551734,0.0303343
-0.0416389,0.0204595
-0.0245484,-0.0401431
-0.0408406,0.00459816
-0.0645469,0.151268
-0.0427912,-0.00651721
-0.0470742,-0.112878
-0.010466,-0.0465065
0.05582,-0.0385046
0.00670807,-0.0195733
0.0267605,-0.0117313
0.149256,-0.00972264
0.183839,-8.36e-05
0.072853,0.0306507
-0.0335058,0.0507959
-0.109202,-0.00758752
-0.0832451,-0.0403166
0.0435616,0.0202985
0.145767,-0.00161672
0.206297,-0.0186926
0.0975261,-0.00488071
-0.00976399,0.027345
-0.0992078,0.00966316
-0.202978,-0.0133076
-0.158811,0.0366055
-0.0803825,0.0393994
-0.111781,0.00855856
-0.161166,0.102896
-0.106995,0.0105583
-0.0287481,-0.133088
0.0648842,-0.211439
0.114117,-0.0942325
0.095715,0.0216563
0.0493558,0.062967
0.0280984,0.0951993
-0.00852979,0.0437447
0.0338765,0.00840572
0.08655,0.00331663
0.083543,0.0189698
0.0340406,0.0455492
0.00552376,0.020041
0.0112939,-0.00717412
-0.00171235,-0.0359983
-0.00466225,-0.0528175
-0.0279915,-0.0243964
-0.0845066,0.0591267
-0.0933571,0.0890465
-0.0591527,0.00214567
-0.0523655,-0.0537437
-0.0411283,-0.0418678
0.01494,-0.0246279
0.0560017,0.0119065
0.0846873,0.0068084
0.098758,0.000668054
0.086844,0.0433213
0.0610848,0.0589757
0.0176525,-0.0416027
-0.0355248,-0.043906
-0.0597599,0.00765252
-0.0311708,0.00587195
-0.000342276,-0.00162764
-0.0210402,2.71e-05
-0.0768256,0.0106217
-0.114947,-0.0216361
-0.13064,-0.0130208
-0.140735,0.00735522
-0.0938493,0.0746481
0.0763043,0.0182358
0.179446,-0.0502356
0.143493,-0.0234896
0.0970856,-0.0354957
0.0666483,-0.0425658
0.0186978,-0.0158376
-0.0237042,-0.00665728
-0.0724514,0.00685438
-0.106079,0.0134888
-0.0260582,0.000589926
0.131708,-0.0211168
0.210102,-0.0356686
0.137296,-0.0232378
0.0580084,-0.00305978
-0.0249423,0.00505253
-0.17823,0.0689913
-0.229563,0.0286844
-0.118017,0.0452095
-0.0221982,0.0654192
0.022724,-0.0117732
0.0508646,-0.0205561
0.0381524,-0.0215583
0.0132433,-0.0293567
-0.0435499,0.0177603
-0.0948765,0.0390268
-0.0411307,0.0305285
0.0776366,-0.000286373
0.167366,-0.0273929
0.165945,-0.000812676
0.0751792,0.00235352
0.0240033,-0.0124624
0.00440493,-0.00437478
-0.0636224,-0.00937642
-0.101106,-0.0268954
-0.0833103,-0.0403387
-0.0522932,-0.00484794
-0.00839011,0.0185484
-0.0578739,0.0067411
-0.0704142,-0.0120863
-0.0439246,-0.00292014
-0.0281984,0.0142023
0.0218651,-0.0201274
0.0864427,-0.0168342
0.136088,-0.0229497
0.121234,-0.00362196
0.062024,0.0614296
0.0442689,0.0631129
0.0156976,0.0190374
-0.0183763,-0.00732594
-0.0609064,-0.0178988
-0.0897293,0.0263748
-0.0338756,0.0584857
-0.0336867,0.0305188
-0.0677163,0.00042243
-0.0755301,-0.0702432
-0.067302,-0.110163
-0.026878,-0.0867988
-0.0207505,-0.0614779
-0.057059,-0.0123015
-0.0335954,0.0395937
0.0506778,0.0491765
0.082801,0.0332397
0.0412909,0.0318316
0.00646353,0.0475354
0.0382702,0.0461579
0.0561229,0.0392671
0.066655,-0.00599475
0.0748624,-0.0349488
0.0495099,0.0210986
0.00424052,0.102652
-0.0166442,-0.00292119
-0.0456569,-0.0992715
-0.0692821,-0.0445547
-0.0421913,-0.0234879
-0.0584231,0.0114042
-0.0346245,-0.0266814
0.0606497,-0.0525398
0.0756164,-0.0270061
0.0305515,0.0553969
0.0116102,0.0583114
-0.0463722,-0.0205726
-0.0532614,-0.0254528
0.00988644,-0.0418155
0.0173807,-0.0139306
0.0436158,0.0133992
0.078265,0.024768
0.0160997,0.0191474
-0.0332862,0.0163823
-0.0532813,0.00903671
-0.093678,-0.00305893
-0.0940295,-0.00263309
-0.0352672,0.00875552
0.0292929,0.00125867
0.0474188,-0.00880586
0.0775143,-0.0245799
0.105522,0.00160965
0.0397988,0.0126492
0.00529312,-0.0161966
-0.0266513,0.00392743
-0.0659148,0.00751366
-0.0692536,-0.0169308
-0.0190309,-0.0118049
0.0531487,0.00321101
0.0703372,0.0266455
0.0987358,0.0244784
0.0820734,-0.000884768
0.0293174,-0.00344009
-0.00945762,-0.00751576
-0.0606844,-0.0143817
-0.0630218,0.0230514
-0.00799848,0.0170548
0.00455283,0.0145366
-0.0172671,0.0286718
-0.0383009,0.00117398
-0.0337353,-0.0346599
-0.0614118,-0.0270855
-0.0794106,-0.0376695
-0.0741319,-0.0373907
-0.0743155,-0.00622545
-0.0698158,0.00449841
-0.0355381,0.0623903
0.0283864,0.0243519
0.0635639,-0.0324826
0.0524145,-0.0176575
0.05898,-0.00229555
0.0173032,-0.01398
-0.0879618,-0.0169444
-0.0662372,0.016916
0.0613268,-0.000569324
0.122841,-0.0123455
0.11323,0.0110172
0.0725522,0.0324302
0.0292318,0.0459674
-0.0610895,0.00631234
-0.144397,0.0774554
-0.103427,0.047016
0.0232334,-0.0980853
0.0398108,-0.0557722
-0.00962997,-0.0225613
-0.0238472,-0.00699592
0.00147846,0.0523806
0.00697778,0.0076547
0.0572455,-0.0121818
0.0806788,-0.00697593
0.0876164,-0.0238555
0.143422,0.027186
0.129084,0.0500294
0.087075,-0.00207072
0.0253944,-0.0370751
-0.0626955,-0.0414066
-0.138451,-0.0601752
-0.177202,-0.0672763
-0.152444,-0.0216211
0.00471901,-0.00709953
0.105626,0.0423987
0.0288456,0.0853393
-0.00742738,0.03441
-0.00354254,0.0277816
-0.000963664,0.0196322
-0.0330509,-0.00101047
-0.0367181,0.0269164
-0.00560885,0.0226567
-0.0188856,-0.018779
-0.0253625,-0.0567922
0.00655802,-0.0389792
0.0129375,0.0109741
0.00190273,-0.0112063
-0.00529672,-0.0207022
-0.0228471,0.0228733
-0.0124836,-0.00261496
0.043759,-0.0257674
0.0747155,0.00500173
0.0743198,0.0475352
0.018985,0.0403257
-0.0705401,-0.0109265
-0.0979887,-0.0459833
-0.0221916,-0.0103088
0.107649,0.0215319
0.103365,0.0177004
-0.0101563,0.0156042
-0.104192,0.0143852
-0.088085,0.0348277
-0.0623388,0.0660414
-0.0213874,-0.0518386
0.0216852,-0.106825
0.0346896,-0.0583043
0.0645239,-0.0105797
0.0755379,0.0187743
0.0240539,0.0323088
-0.0088968,0.0184608
-0.0379136,-0.00345085
-0.113663,-0.0241555
-0.143284,-0.00873533
-0.0862136,0.0211415
-0.0206606,0.0161381
0.0133484,0.0615349
0.0356473,0.00740715
0.0877667,-0.0601756
0.157345,-0.0506641
0.107263,-0.0249596
-0.00851189,-0.0165923
-0.0227866,-0.0030654
0.0370919,0.0400631
0.0614614,0.0657204
0.0583154,0.0324626
0.0215745,0.0196289
-0.0466193,0.00811782
-0.0674811,-0.0141163
-0.0625515,-0.0172227
-0.0869004,-0.00289331
-0.0758187,-0.00404563
-0.0116496,-0.0161499
0.0382,-0.00493148
0.0365161,0.00610748
0.0368741,0.0189549
-0.0315853,0.00480916
-0.0749913,-0.0628393
-0.0445292,-0.0915155
0.00298423,-0.0313201
0.0478291,0.00374855
0.0674235,0.0442144
0.029774,0.0421426
0.0430159,0.013063
0.0856469,-0.00156071
0.0716019,-0.00855859
0.0318318,-0.00766773
0.00778882,0.0225635
-0.000943504,0.0431976
-0.0297023,0.0421343
-0.0614266,0.0258798
-0.0385049,0.00669216
-0.0151942,0.00652531
-0.0312271,-0.00982583
-0.0564828,-0.0179742
-0.050612,0.00893628
-0.0337857,0.00740721
-0.0285531,-0.000254885
-0.0241786,-0.0194924
-0.0019091,-0.0492005
-0.0489842,-0.0171327
-0.0648423,0.0140552
0.00884259,0.0187179
0.0379756,-0.00652507
0.0548594,0.0231944
0.0362773,-0.0333206
0.0444624,-0.0494868
0.0801276,-0.00492781
0.066997,0.00858322
0.0552919,0.0230281
0.0757636,0.024679
0.106427,0.0112849
0.0743463,0.0132068
-0.0314358,0.0916206
-0.105086,0.0603178
-0.119859,-0.0724652
-0.0947189,-0.083691
-0.0436528,-0.072691
0.00845387,-0.0282068
0.0238352,-0.03072
0.0160184,-0.0577619
0.0414238,-0.0152178
0.0344723,0.0431904
-0.0136578,0.0570177
-0.066555,0.0341981
-0.134708,0.00996941
-0.109559,0.0113757
-0.0253576,-0.00413291
0.052165,-0.0183316
0.0685086,-0.0181386
0.0122525,0.0214577
-0.0316877,0.0438691
-0.0408129,0.0594654
-0.0472124,0.0475657
-0.0363747,0.00483159
0.0366243,-0.0670526
0.0276969,-0.0557654
0.04253,0.00149203
0.0684198,0.0180226
0.0726327,0.00349457
0.128078,-0.00182883
0.172973,-0.030831
0.175924,-0.028042
0.0433251,-0.00092103
-0.110892,-0.0171082
-0.185562,-0.0241475
-0.149899,-0.00136351
-0.0841397,0.0373487
-0.0593095,0.068924
-0.0155602,0.097153
0.0351373,0.0164222
0.0163719,-0.054104
0.00850448,-0.0708307
0.0175545,-0.0141868
0.0118771,0.0436016
-0.00224089,-0.00359354
-0.000117059,-0.016886
0.0214842,-0.00574141
0.0178559,-0.0223863
-0.0476428,-0.0318897
-0.0882092,-0.030444
-0.0420791,-0.00243656
0.0146128,0.0288448
0.0435683,0.03269
0.0492784,0.0339635
0.0170478,-0.0216359
-0.0363835,-0.0480685
-0.039244,0.0597667
0.0474578,0.0272758
0.0988653,-0.0561032
0.0641102,0.0161726
-0.0143682,0.0641441
-0.0242486,-0.0475999
-0.0164989,-0.0572182
-0.0327546,0.0265975
-0.0757776,0.042181
-0.0960729,-0.00639626
-0.0376258,-0.00839191
0.0341704,-0.00182137
0.0680972,0.000296201
0.0872863,0.00357028
0.0833932,-0.00483111
0.0576914,-0.0149835
-0.0294631,-0.00204112
-0.053634,-0.00348967
-0.0269032,-0.0109963
0.00251409,-0.00244748
0.0911746,0.0165114
0.128826,0.0110602
0.116315,-0.00316182
0.0949646,-0.00926103
-0.00110494,0.000206827
-0.130704,0.0085366
-0.170276,-0.00350299
-0.185148,-0.00479561
-0.142304,0.0264387
-0.0641814,0.0176629
-0.00297626,0.0400491
0.0179213,0.0376434
0.0558793,-0.0440651
0.0944419,-0.0711486
0.0490546,-0.0270849
-0.0110784,-0.000928479
-0.0303755,0.0179019
-0.0274337,0.018653
-0.0520152,0.00163988
-0.0827801,-0.0125403
-0.118905,-0.00280131
-0.0976749,-0.0105187
-0.0303366,-0.007173
0.0591709,0.0249862
0.124825,0.0542537
0.157255,0.0564659
0.172063,-0.0399324
0.116896,-0.0833066
0.0811832,-0.0259733
0.0608489,0.0240638
0.0137495,0.0108631
-0.0187828,-0.00397122
-0.0472201,-0.0291332
-0.054671,-0.0341396
-0.0546765,-0.00362648
-0.0548376,0.0089024
-0.0845218,0.00888424
-0.0593087,0.0182414
-0.0134181,0.0315924
-0.0300012,0.0244625
-0.0245453,-0.00467881
0.00286864,-0.0125223
0.0419553,-0.00178112
0.0451564,0.00367472
0.00834785,-0.00287127
-0.0361357,0.000440603
-0.0285201,0.0238767
-0.0101615,0.0524812
0.0252612,0.0274842
0.017645,-0.0638394
-0.00415832,-0.0242165
0.0366806,-0.00571961
-0.000706867,0.007007
-0.0229248,0.0159487
0.00128647,-0.00945231
0.0300936,-0.0336036
0.095984,-0.0632352
0.128926,-0.0109465
0.0895252,0.0471988
0.0533071,0.0345576
0.0253233,0.0143857
-0.0168137,-0.00646073
-0.0476287,-0.0182496
-0.093626,-0.0179593
-0.108991,-0.00933819
-0.117801,-0.00283862
-0.143935,0.00838858
-0.119945,0.00542002
-0.0357386,0.0198219
0.0173768,0.0118964
-0.00487039,0.0199802
-0.00212745,0.0497522
0.0383143,-0.000315744
0.0866714,-0.049356
0.106553,-0.0258271
0.0984322,0.00760164
0.0627405,0.048441
0.0201357,0.0265345
-0.0154022,-0.0358135
-0.057016,-0.0373223
-0.110363,-0.00897445
-0.119636,-0.0277501
-0.0655348,-0.0569219
-0.010488,-0.0425245
0.0379641,0.00541045
0.0420948,0.0175116
0.0356173,0.000727719
0.0611493,0.0116812
0.0912461,0.037806
0.104709,0.0420337
0.144415,0.0262699
0.136804,0.0150066
0.0547372,0.050382
-0.0232548,0.0286661
-0.0642026,0.0254726
-0.0603426,0.00542446
-0.0566788,-0.0337823
-0.0623688,-0.0541531
-0.0482409,-0.0165253
-0.0359317,0.0621451
-0.0382785,0.0263746
-0.0186268,-0.0618159
-0.0474938,-0.0284055
-0.0924506,-8.68e-05
-0.0250714,-0.0291344
0.0763201,-0.0555201
0.0227222,-0.0533794
-0.0646716,-0.0257296
-0.103535,0.0115689
-0.0652498,0.0363636
-0.0144042,0.0520945
0.00670997,0.0365427
0.0440001,0.0144293
0.0673525,0.0178227
0.0364109,0.0396678
0.0299224,0.01158
0.0393023,-0.0439072
0.0564366,-0.0140487
0.0302654,-0.00745386
-0.00631639,-0.012122
0.0349699,0.00492717
0.0799813,-0.00240676
0.0643769,-0.0421949
0.0482844,-0.0268272
0.0145079,0.00775031
-0.0442534,0.0225152
-0.0952901,0.0585136
-0.0713104,0.0403084
-0.076262,-0.0363625
-0.0838239,-0.048849
-0.054733,-0.0533484
-0.0120872,-0.0598689
0.00471613,-0.0386269
0.00814476,0.0408704
0.00806062,0.105452
0.005235,0.0881413
0.00869178,0.0609587
0.0179112,-0.0174063
0.0220826,-0.0707229
0.0219521,-0.0425668
0.0122557,-0.017143
0.0188631,-0.00878211
0.0227567,0.00873471
0.0200208,0.0205847
0.0328054,0.0185371
0.0515881,0.00983435
0.0278246,0.00448915
-0.00861728,-0.0132176
-0.0396714,-0.0219936
-0.0579738,-0.0205641
-0.0384136,-0.000926275
-0.0250702,0.0694151
-0.0267366,0.0657076
-0.0133835,-0.0335026
0.00550871,-0.0577989
0.00123724,-0.04664
-0.0103154,-0.0436142
0.015926,0.0107876
0.046445,0.0517114
0.0529542,-0.0146933
0.038936,-0.010414
0.0220186,0.00545718
0.0151096,-0.0281426
-0.013665,-0.00164865
-0.030973,0.0432258
-0.00519998,0.0291357
0.0471755,-0.0167498
0.0434492,-0.00121233
0.02789,0.00303518
0.00373892,0.00378316
-0.0275054,0.0128278
-0.0667544,0.0117058
-0.121533,0.0114864
-0.10261,-0.00560014
-0.0293374,-0.0145281
0.0136773,-0.00742637
0.0099094,0.00160026
0.00933015,0.00644677
0.0443645,0.0148485
0.0968643,-0.0053181
0.0511234,-0.0308104
-0.00514463,-0.0165882
0.027331,0.00469596
0.0363896,0.010969
0.00675063,-0.0194374
-0.0369742,-0.0133361
-0.127633,0.0273659
-0.178153,0.0233865
-0.0947359,0.0137413
0.080404,0.000434081
0.218376,-0.0472398
0.223155,-0.0505099
0.137184,-0.0340336
-0.0413572,-0.0262539
-0.123435,-0.0160528
-0.0537127,-0.0107155
0.000452067,0.028874
0.012243,0.0779301
0.0622788,0.056475
0.0723061,0.0551739
0.0322196,0.032626
-0.0168,-0.0444291
-0.084497,-0.0140005
-0.0937101,0.00123444
-0.0819178,0.0379652
-0.0921092,0.0931218
-0.122197,3.89e-05
-0.122092,-0.069372
-0.0333261,-0.0538424
0.0592645,-0.0466137
0.0659543,-0.0200178
0.0818728,0.0220142
0.0702469,0.0250319
0.00249459,-0.0117098
0.00259357,-0.0198711
0.0402887,-0.00290351
0.0121523,0.0113952
-0.0115479,0.0014023
0.0145134,-0.0213498
0.0306835,-0.0276173
0.0433913,-0.00326316
-0.010834,0.0415632
-0.0674925,0.0278778
-0.0920935,-0.0225478
-0.102965,0.0058157
-0.0841759,-0.0124678
-0.0288835,-0.0745337
0.0592951,-0.0170494
0.095261,0.0288348
0.0313715,0.016196
0.0987557,-0.00633343
0.225307,-0.042168
0.197339,-0.00118317
0.0825734,0.0534689
-0.0371449,0.0733714
-0.0821491,0.0663597
-0.0761402,-0.000229515
-0.0648237,-0.0199571
-0.0397438,-0.0413929
-0.0135295,-0.0297949
-0.0214982,0.0458764
-0.0313021,0.0435152
-0.0218264,-0.0130364
-0.0504008,-0.0249896
-0.0750132,-0.0289359
-0.0846802,-0.0223805
-0.0902003,0.00600103
-0.0760933,-0.0069856
-0.0483909,-0.0400145
0.00945341,-0.0135418
0.080389,0.013016
0.129971,0.0119961
0.107796,0.00721265
0.0472584,0.00493941
0.031706,0.00769113
0.0364206,0.00235983
0.0246519,-0.0107068
0.0213778,-0.0115366
0.0204281,-0.00897024
0.000794478,0.00234017
-0.0316409,0.0145262
-0.0160425,0.0357771
-0.000626641,0.0513728
-0.0246447,0.0208188
-0.00863418,-0.0760261
0.0269322,-0.0769594
-0.00594345,-0.0118908
-0.0449523,0.0134888
-0.0661391,0.0438106
-0.0552286,0.0518245
0.00434969,0.0139758
0.0210199,-0.0363569
-0.0330794,-0.0722262
-0.0522115,-0.00372268
-0.00369461,0.0409244
0.0326307,0.0473503
-0.0383831,0.0376497
-0.0919009,-0.0104317
-0.0801471,-0.04872
-0.0191446,-0.06372
0.0184376,-0.0272786
0.0560448,0.0155664
0.0625893,0.0195893
0.0344252,0.0376649
0.0268961,0.0475533
0.0430465,0.0224296
0.108683,0.00177385
0.164173,-0.0357728
0.104769,-0.0370056
0.0186593,0.0317817
-0.0442025,0.0276109
-0.0506368,-0.0127542
-0.0317869,-0.00588884
-0.0159853,0.0131984
0.0248519,0.00611739
0.051846,0.00470048
0.0219709,0.013782
-0.0462131,0.0231743
-0.123612,0.03467
-0.157415,-0.0159632
-0.0947524,-0.0363364
-0.0296169,-0.0278449
0.0166054,-0.0276815
0.0527706,-0.0266812
0.015766,-0.0236683
0.00535172,-0.0267473
0.00756884,-0.0278029
-0.000106071,-0.0126668
0.016268,0.0077016
0.0228077,0.014867
0.0330855,0.0536729
0.0423504,0.0707868
0.0323156,0.00315015
0.00871995,-0.0325509
-0.0083371,-0.0170603
0.00201225,-0.00607647
-0.0308707,0.00854176
-0.00434235,0.0254018
0.0385489,0.0192647
0.0211861,-0.0130775
0.00525685,-0.0254238
-0.0266026,-0.00774323
-0.0454705,0.000860575
-0.0722114,0.00978968
-0.0470121,-0.0136742
0.0289,-0.0890905
0.0606482,-0.0513602
0.0490114,0.0185571
0.00509695,0.0399934
-0.0591113,0.0419235
-0.0570488,0.00766491
-0.0227409,0.00602463
0.0233812,0.0318052
0.0431639,0.0270981
0.0497742,0.0360068
0.0375433,0.0575361
0.0331099,0.0271885
0.000100035,-0.0227049
-0.0390032,0.0164005
-0.0320859,0.00620559
-0.0196383,-0.0577695
-0.0483703,0.0159426
-0.0452039,0.00249498
-0.0216402,-0.0543986
0.00591474,-0.0520274
0.0234042,-0.0259376
0.00881119,-0.0125701
-0.0303453,-0.0098233
-0.0538865,0.0502307
-0.000224285,0.015764
0.0988968,-0.0608182
0.167349,-0.0317842
0.150641,-0.0109336
0.0568646,0.0188661
-0.0131659,0.0383004
0.00882118,0.0248898
-0.00474768,-0.00424577
-0.0879454,-0.019281
-0.0744205,0.000546792
-0.00316481,-0.00057121
-0.0212474,-0.00569212
-0.0516455,0.022118
-0.072236,0.0368355
-0.0853299,-0.00189894
-0.0661901,-0.0405864
-0.0461275,-0.0332806
-0.0461586,-0.0157651
-0.0452397,-0.00381564
-0.0114922,0.0210028
0.0279732,0.0115855
0.036332,-0.0084595
0.0702881,0.0147866
0.0686692,0.0418057
0.0175751,0.0287724
0.00413363,-0.0141217
0.0340877,-0.0274369
0.0658727,0.00934407
0.0803124,0.0311552
0.0595821,0.0306341
0.0403157,0.0140733
0.0226747,-0.00791162
-0.00802185,-0.0110947
-0.0232022,-0.00930617
-0.0254967,-0.017956
-0.0306684,-0.0237579
-0.0370987,-0.00703673
-0.0766506,0.0121897
-0.10236,-0.00177218
-0.0480096,-0.0277885
-0.00286371,-0.0385601
-0.000262619,-0.0142076
0.0201281,0.0162216
0.0391331,0.0331373
-0.00392258,0.0257023
-0.0319724,-0.0185278
-0.015205,0.00426116
0.0256678,0.0449879
0.0391515,0.0227127
0.0351038,-0.0172405
0.0441011,-0.0201503
0.0481869,0.00687639
0.0445491,-0.00730982
0.0150033,-0.0224521
-0.0194771,-0.0224228
-0.034953,-0.0229252
-0.0531215,-0.0159858
-0.0637405,-0.0194341
-0.0476043,-0.0200447
-0.0220358,-0.00445285
0.0247672,0.0155184
0.0783228,0.010614
0.0832852,0.031237
-0.0029075,0.050652
-0.0777204,0.0582191
-0.0704775,0.0232134
0.00570794,-0.0652764
0.0112186,-0.074767
0.00520896,0.0188392
0.0494938,0.044352
0.0631553,0.00707145
0.0159017,0.0158837
-0.015904,0.0691843
-0.0370727,-0.00335461
-0.0546674,-0.0758997
-0.0458949,-0.0354233
0.0111678,0.00777941
0.0373162,0.0617044
0.00790238,0.0420419
0.0345514,-0.00593729
0.053442,-0.0433347
0.016906,-0.0376662
-0.0254794,-0.0132958
-0.0412216,-0.0194321
-0.0342107,-0.0193653
-0.00582883,0.0115557
0.00690757,0.0202359
0.0118507,-0.00400427
0.0261155,-0.0186667
0.0157753,-0.0269757
-0.0231362,-0.0203316
-0.0166137,0.0101279
0.0242233,0.0256186
0.046094,0.0345654
0.0510584,0.0582752
0.0568157,0.0175641
0.0220105,-0.0326686
-0.00618658,-0.0306759
-0.00265322,-0.0116574
0.0242507,0.00987765
0.0133179,0.0280686
-0.00941617,0.0326265
-0.0278484,-0.0197486
-0.0617865,-0.0192299
-0.0994386,-0.0108312
-0.103731,-0.0198917
-0.0699332,-0.0152385
-0.0402778,-0.00712245
-0.00509569,-0.00486273
0.012795,0.00902537
0.00984151,0.00732768
0.00622451,-0.00394184
0.00890646,-0.00189181
0.00768702,-0.00272777
0.0115243,-0.0064598
0.0174155,-0.0175677
0.00832179,-0.0131189
-0.0150589,-0.000394621
0.00296528,0.0495226
0.031954,0.0631004
0.0508815,0.010243
0.0675543,0.00981424
0.0696039,0.00459469
0.0531874,-0.0311433
0.00286763,-0.0294671
-0.0846489,-0.0150068
-0.121193,-0.00794596
-0.0876529,0.00217856
-0.0369673,0.000984579
0.0324971,-0.00212506
0.0903689,-0.00359895
0.0752516,-0.0043951
0.0371146,0.00218306
0.0158729,0.00676989
-0.00997923,0.00479944
0.00199479,0.00128855
0.0150411,0.0113381
-0.00168743,0.0114496
-0.0143512,-0.00423781
-0.00855381,-0.00422778
-0.00971346,0.0122458
-0.0207225,-0.0102879
-0.0246508,-0.0496798
-0.0228839,-0.0312933
-0.0213487,-0.0194721
-0.00020607,-0.0426841
0.00884744,0.00295012
-0.00982187,0.0602954
-0.00638881,0.0456937
0.0108939,0.0429166
0.00973202,0.0412818
0.00894648,-0.0185854
0.0285308,-0.0204746
0.0274778,0.0147654
0.00778452,0.011686
-0.00393223,0.0119388
-0.01363,-0.00334698
-0.020055,-0.0295244
-0.0195161,-0.0275792
0.00340009,-0.00559274
0.0303227,0.0111868
0.0302758,0.00796224
0.0289098,-0.00021938
0.0379961,-0.00281825
0.0454131,-0.00413233
0.0515013,-0.00630127
0.0206141,4.25e-05
-0.0272288,-0.000802613
-0.0271492,-0.00254595
-0.0343503,0.00325313
-0.0729228,0.0015002
-0.0789552,0.00207302
-0.075442,-0.000382847
-0.0466591,-0.011471
-0.0258161,-0.0210696
-0.0127829,-0.0116049
0.0225015,0.0162268
0.035883,0.0392491
0.0116618,0.032808
0.00736891,-0.0236276
0.00449094,-0.0294783
0.0017756,-0.0195563
-0.00586151,-0.0102526
-0.0140414,-0.00194845
-0.0125594,0.000328887
0.00852465,0.00934728
0.0227175,0.0193093
0.0239016,0.0169448
0.0258162,0.000323793
0.0289687,-0.00547022
0.0439423,-0.0103877
0.0509432,-0.0107573
0.0798021,-0.00437032
0.110071,0.013408
0.0772021,0.0136401
-0.0186943,0.0087968
-0.0871451,0.0171871
-0.100784,0.00814839
-0.0960064,-0.0139415
-0.0637095,-0.0130454
-0.0256668,-0.0033951
0.00705385,0.00891239
0.0199082,0.00381654
0.00709606,-0.0111759
-0.021179,-0.011105
-0.0505162,-0.00591177
-0.054237,0.0021093
-0.0268558,-0.00745148
-0.0100921,-0.024937
0.00271279,-0.00670855
0.00969489,0.0119862
0.00891741,0.00172833
0.00997706,0.0114188
0.0113819,0.0107522
0.00605165,0.00738032
-0.00630447,0.0201522
-0.00222127,-0.0411335
0.0115378,-0.0582056
0.0302642,0.0109234
0.0397107,0.0943633
0.0355063,0.0456039
0.0420097,-0.0305617
0.0516326,-0.0212103
0.0385186,-0.00161584
0.014148,-0.0124924
-0.0173811,-0.0152593
-0.0385234,-0.00629978
-0.0445137,0.00370771
-0.045145,0.00537127
-0.025655,-0.0015283
-0.0163828,0.0150834
-0.0192189,-0.000633062
-0.0204601,-0.0244946
-0.00605534,0.00451947
0.0247836,0.0100424
0.0552204,0.00703413
0.0795606,-0.00608187
0.0910309,0.00395513
0.0653164,-0.00190631
0.0596332,-0.0132029
0.0517903,-0.00855281
-0.014,-0.0076954
-0.0636209,-0.00213815
-0.065309,0.00897027
-0.0576406,0.00874468
-0.0605166,-0.000374303
-0.0706944,-0.00748049
-0.0639234,-0.00813995
-0.0497451,-0.00205038
-0.0224755,0.00418148
-0.0036622,0.00491821
0.0109991,0.0014944
0.0137417,0.00504222
-0.00735469,0.0115617
-0.0376206,0.00996593
-0.0346745,0.00751036
-0.0192208,0.000971191
-0.0103885,-0.00676978
0.00609921,-0.0118668
0.0292006,-0.00914958
0.0389233,0.00211264
0.0378587,0.00319403
0.0372241,-0.000441315
0.035431,0.00359224
0.0361095,0.0147784
0.0424141,0.0157658
0.049094,0.00263718
0.0279399,-0.00958165
0.0192429,-0.0125636
0.0174039,-0.00331303
-0.000391477,0.000932707
-0.0414789,-0.00181802
-0.0608524,-0.000177805
-0.048742,-0.00434597
-0.0335886,-0.0106801
-0.0143661,-0.00992679
0.0132325,0.00303185
0.0316973,0.014009
0.0299343,0.00915276
0.0199536,0.00135491
0.00360418,-0.00458712
-0.0124829,0.00149749
-0.00944403,0.0125153
0.0114175,-0.00438354
0.0280803,-0.0125688
0.0349695,0.00231514
0.0216622,0.0112543
-0.00662474,0.00719396
-0.0335026,0.00311436
-0.0460121,-0.000552788
-0.0428926,-0.00368907
-0.0302099,-0.00757209
-0.0161343,-0.00706644
-0.00324698,0.00219127
-0.00195019,0.00515157
0.0116313,0.00276794
0.028925,-0.00103031
0.0228996,-0.000110154
0.0136706,0.00104722
0.0153509,-0.00445482
0.0153597,-0.0044077
0.00593383,-0.00344664
0.0175794,0.00478101
0.0292968,0.00614993
0.00438866,0.00203747
-0.0152001,0.00178964
-0.0134672,-0.000739639
-0.02001,-0.00822771
-0.0362545,-0.0133409
-0.035722,-0.00763676
-0.0176948,-0.000611245
-0.0168474,0.00256545
-0.0145486,0.00538082
-0.00452082,-0.000388463
-0.00961906,-0.0061842
-0.0229983,-0.00571843
-0.0239999,-0.000498204
-0.0168618,-0.00218103
-0.00118034,-0.00048429
0.0189947,0.007036
0.0257827,0.00779128
0.0227361,0.00648004
0.0321047,0.00634914
