Comp Ch 3,Comp Ch 4
-0.170386,0.398113
-0.0452273,0.172232
-0.0699966,-0.10867
-0.233803,-0.0884061
-0.0665152,-0.0669184
0.206531,0.0207842
0.283141,0.169641
0.132239,0.252392
-0.0864,0.171059
-0.00752871,0.0231795
0.133879,-0.0819978
0.0810588,-0.128425
0.0341435,-0.180797
0.0853593,-0.173628
0.0211321,-0.0524197
-0.0827873,0.0876632
-0.0734326,0.139144
-0.0407872,0.08485
-0.100259,0.00146017
-0.139095,-0.0872782
-0.0180514,-0.122194
0.110439,-0.0772357
0.0872249,-0.0510062
0.0991491,-0.0240924
0.0431077,0.0115788
-0.141898,0.0297276
-0.307974,0.0079779
-0.265039,-0.0230221
0.0612762,-0.0658155
0.209084,-0.0769112
0.0488158,0.0551967
-0.0619457,0.0567125
0.102565,-0.0022968
0.165644,0.00702681
0.0689311,-0.0185919
0.00855758,-0.0678517
-0.00939527,-0.0627119
-0.0560268,-0.0131455
-0.0985367,0.00218852
-0.0408555,0.00844214
0.0558385,-0.0429476
0.0830209,-0.117066
0.0967866,-0.111646
0.0896305,-0.122251
0.0099196,-0.00420972
-0.140596,0.197439
-0.263822,0.28391
-0.082751,0.250406
0.0390142,0.101077
0.113093,-0.0823423
0.12713,-0.255281
0.125489,-0.241059
0.118398,-0.0928166
0.0354038,0.0727268
-0.018504,0.122141
-0.040282,0.12527
-0.225773,0.0762348
-0.367041,0.046251
-0.242882,-0.00126057
0.02865,-0.046451
0.160567,-0.0115263
0.213309,-0.071578
0.16477,-0.0914586
0.0445875,-0.0438638
-0.0615614,-0.213878
-0.0158973,-0.289575
0.00443833,-0.176736
-0.0420795,0.0484967
-0.00484882,0.311995
0.0860142,0.362118
0.0757697,0.342046
0.0532976,0.222307
-0.00997089,0.0622152
-0.087965,-0.0561782
-0.00436283,0.0516392
0.110185,0.0968497
0.0595608,-0.060232
-0.0466695,0.0246994
-0.0999236,-0.0594862
-0.0635871,-0.22359
-0.00713055,-0.17609
-0.0247252,-0.179712
-0.063277,-0.1284
-0.0493611,0.0355548
-0.0751164,0.0694067
-0.053814,0.0660741
-0.00863815,0.0654494
0.0747261,0.0242394
0.212279,-0.0690051
0.267565,-0.0699293
0.171776,-0.0415107
-0.0114391,0.0272659
-0.120855,0.0389488
-0.0824691,0.0252019
-0.122912,0.0925083
-0.193067,0.00633882
-0.170875,-0.00451064
0.0188288,0.122783
0.0214777,0.11024
-0.0880332,0.0207715
-0.0473971,0.0260263
0.0954982,0.00457386
0.101781,-0.121522
0.121665,-0.108591
0.122156,-0.093522
0.0640375,-0.0151506
0.0583461,-0.00229478
0.0884831,-0.0369322
0.0739937,-0.0239655
-0.00441503,-0.0281064
-0.0823359,-0.0134477
-0.141035,0.0312575
-0.140244,0.0329201
-0.0407709,-0.0066433
0.0342366,0.0282843
-0.0281174,0.0608635
-0.0697755,0.0463942
-0.0596788,0.0670855
-0.0643327,-0.00916018
-0.0445497,-0.00126762
-0.0103232,-0.135142
0.0383253,-0.11555
0.0797924,-0.030912
0.124584,0.0672318
0.0791213,0.0459956
0.00945301,-0.0158665
-0.0130461,-0.00294594
0.0106258,0.00935332
0.0343787,0.0417542
0.0455211,-0.0275531
0.0364049,-0.0748622
0.0182958,-0.0410691
-0.0172689,-0.0347178
-0.0525996,-0.0402654
-0.0638213,-0.041213
-0.0498596,-0.0410193
-0.0533436,0.0316633
-0.0745916,0.0250117
-0.0940749,0.0700658
-0.0546277,0.0956454
0.0700804,0.0529314
0.131285,-0.0166712
0.0793321,-0.0029754
0.0423182,-0.0148384
0.0397636,0.0285607
0.00274996,0.117438
-0.00595128,0.0772811
0.0102885,-0.0201163
-0.016194,0.060394
-0.0663495,0.00613969
-0.0419152,-0.0553605
0.0264848,-0.0263846
0.0396852,0.033966
0.0122856,0.0137469
0.0378003,-0.0230994
0.0163554,-0.0173555
-0.0678419,-0.0131777
-0.0804492,-0.0179355
0.0129868,0.0236633
0.0687666,0.0467886
0.00402611,-0.0630044
-0.0523631,-0.161079
-0.070558,-0.157363
0.00818313,-0.00350939
0.0855427,0.160484
0.0398709,-0.0218493
-0.00670322,-0.115029
-0.0104314,-0.00303856
-0.00170452,0.022882
-0.026195,0.0141092
-0.0309429,0.19334
0.0297827,0.189796
0.137274,0.0313934
0.167198,-0.0695172
-0.0108378,-0.13381
-0.165262,-0.165831
-0.142774,-0.105384
-0.0383436,-0.00254108
0.00127887,-0.0201538
0.0111102,0.0287903
0.0470697,0.128688
0.0739432,0.0764024
0.0466289,0.0574127
0.0198785,0.105936
0.0143803,-0.0336571
-0.0190919,-0.0692605
-0.0552916,-0.0774777
-0.0436219,-0.00590486
-0.054173,0.0609764
-0.0520389,0.0320785
0.0111943,0.0872645
-0.00491323,-0.0060445
-0.166115,-0.000294305
-0.304146,0.00875134
-0.115271,-0.0484093
0.199827,-0.0498226
0.236132,-0.0399945
0.151647,-0.00739787
0.081832,0.0994328
0.0550647,0.0404688
0.0114679,0.0447201
-0.00178415,0.0538339
0.0062533,0.0203284
-0.0140234,-0.132839
-0.0068039,-0.124076
-0.0114431,-0.126679
-0.0686214,-0.0848174
-0.0900957,-0.0577672
-0.0291197,-0.0493069
0.0157609,-0.0298457
0.0698006,0.0476877
0.102638,0.0173006
0.0859911,-0.0323388
0.0425699,-0.109997
0.00668649,-0.0478527
-0.000547841,0.199889
-0.0294013,0.216276
-0.0833508,0.116975
-0.0995884,0.0494963
-0.0402985,0.00573422
-0.0030223,-0.0486771
-0.0050804,-0.069782
0.00119362,0.0562124
0.00520162,0.0623991
0.0217813,-0.00154348
0.015529,0.0875822
0.00371041,-0.0413371
0.0106001,-0.0734069
0.0336362,0.00674333
0.0242621,0.0463368
0.0155192,0.0188238
0.0305051,-0.0238033
-0.00744945,-0.0295276
-0.0603571,-0.0339629
-0.0944801,-0.00923163
-0.100697,-0.0197681
-0.0460107,-0.0455233
0.00987854,0.0125561
0.034231,-0.0416276
0.0432893,-0.0319468
0.0323001,-0.100576
0.0280649,-0.0503435
0.0216448,0.0846517
0.0592039,0.0983335
0.0870522,-0.0105712
0.00815755,-0.00492073
-0.0581437,0.0563697
-0.0365622,0.0463465
0.00480876,0.00456879
0.0142722,-0.0407035
-0.00838791,0.0111186
-0.032326,0.0199045
-0.0152798,-0.0581621
0.00311997,-0.0514576
-0.00259889,-0.0307488
0.0455093,-0.114414
0.0541077,-0.0923981
0.00353111,0.0102445
-0.01388,0.132228
-0.0421562,0.0812767
-0.1064,0.074575
-0.0842869,0.0644274
0.012802,0.0331625
0.0453727,-0.0186925
0.00523312,-0.0462669
0.0363488,-0.062613
0.0602063,0.0261653
0.0388563,0.132615
0.0362161,0.0542288
0.0286324,-0.0234384
0.00505165,-0.128281
-0.00228509,-0.113603
-0.00595966,-0.115458
-0.0244769,-0.074796
-0.033361,0.0755605
-0.000389055,-0.00472856
0.0296069,-0.0320715
0.0321448,0.110221
0.00287655,0.183114
-0.0415093,0.0488907
-0.0278109,-0.100707
-0.0119135,0.00743445
-0.0538884,-0.0370885
-0.0459807,0.0352377
-0.0157884,0.0676563
-0.00214329,0.00180565
-0.00862184,-0.0296461
0.00412761,0.0542734
0.0334726,-0.0144603
0.00611734,-0.0205688
-0.0227316,0.0214725
-0.0235011,0.0469699
0.00928715,-0.0060785
0.0376917,-0.0508074
0.013763,-0.0528581
-0.013646,-0.0539527
-0.0161844,0.0157499
0.00962883,-0.0531214
0.00753567,-0.112552
-0.0308734,-0.071296
-0.0583586,-0.0533526
-0.0380324,-0.052284
0.0087963,-0.0913304
0.0484605,-0.0584678
0.0929183,0.0775556
0.08117,0.183098
0.045744,0.130664
0.0178856,0.0740967
-0.0160089,0.0614615
-0.0145791,0.0642466
-0.0166987,0.0449867
-0.033409,0.0336031
-0.0756336,-0.00283876
-0.117078,0.00133494
-0.0696573,-0.0043998
0.0955656,0.0997721
0.180479,0.072532
0.197574,0.0329867
0.136566,-0.123525
0.00970392,-0.118
-0.109777,-0.0251921
-0.0913316,-0.033735
-0.06316,-0.00609796
-0.032457,-0.00985353
-0.00184574,-0.0131533
-0.0141473,-0.0253285
-0.0157588,0.0094556
-0.0352579,0.00742659
-0.0695111,-0.0166291
-0.0735164,-0.0270062
-0.0357713,-0.0281503
0.0186395,0.00806777
0.0155608,0.0328189
-0.0197167,0.00272859
-0.034099,0.0169295
-0.00126166,0.0100783
0.0511495,-0.0295197
0.0691514,-0.0998835
0.0437003,-0.0732745
0.020484,0.0624875
-0.00660867,-0.0657721
-0.0130933,-0.0233543
-0.0159257,0.0605605
0.000798491,0.0648934
0.0269735,0.0145128
0.0355585,-0.0174943
0.00388702,0.0540117
-0.028428,0.0537365
-0.0499041,0.0336964
-0.0475364,-0.0415406
-0.0150823,-0.0311726
0.0214683,0.0187205
0.0575276,0.0286203
0.0660185,0.0839284
0.0122147,0.010591
-0.029666,-0.232386
-0.00924257,-0.238503
0.0014623,-0.0376979
-0.00548591,0.129384
-0.00419535,0.0421076
0.00401665,0.0930746
-0.0553678,0.0578898
-0.0902097,-0.024155
-0.0114656,-0.0304842
0.163242,0.0139868
0.198558,0.0397642
0.0662674,0.0209896
-0.118555,-0.0340116
-0.146908,0.0460722
-0.0418934,0.13063
0.00971234,0.0662277
0.0312835,0.0375875
0.0273929,-0.0653336
-0.00048484,-0.113701
-0.01485,-0.0445936
-0.06455,0.0608809
-0.0527083,0.0209747
0.0227011,-0.0920878
0.0485306,0.011542
0.0264933,0.0680587
-0.00689266,0.0102932
-0.0505696,-0.0259955
-0.0456888,0.01171
-0.0313908,0.0243934
-0.0461486,0.0418053
-0.00962613,0.049105
-0.00782178,-0.0365281
-0.0367254,-0.144079
0.0298087,-0.0803803
0.120586,0.00498156
0.0819622,0.0603249
-0.0218634,-0.00823004
-0.0303401,-0.0615907
0.0121155,-0.0887732
0.0103375,-0.0374265
0.00207273,0.0405473
0.0780006,0.0468292
0.0946136,0.0302962
0.0199423,0.0584141
-0.00346264,0.0386902
-0.000537391,-0.000664726
0.00722503,-0.0330383
0.0522596,-0.00366486
-0.0237563,0.0143852
-0.0865316,0.00509673
-0.0934337,0.0445061
-0.0818706,0.0194936
-0.0556274,-0.0144018
-0.00753418,0.0115639
0.0206664,-0.0271926
0.0131022,-0.0170764
-0.0154797,-0.00241008
-0.0159797,-0.0355517
0.0286538,-0.00873932
0.033156,0.0262157
-0.000425661,0.0678599
-0.0216031,-0.0215334
-0.0190438,-0.0663794
-0.00395985,0.0127642
0.0237806,0.013289
0.0362799,-0.0351284
0.0512035,-0.0143655
0.0635471,0.0709685
0.0926832,0.017195
0.112475,-0.002022
0.0579801,0.0571257
-0.0518872,-0.0165438
-0.0960548,-0.0074179
-0.0456773,-0.0100775
-0.0681811,-0.024912
-0.145233,-0.0305019
-0.136189,0.00709019
-0.0871421,0.0136835
-0.00611547,0.00244229
0.0722053,-0.0181682
0.0798821,-0.0997577
0.070493,-0.074865
0.0746087,0.0143629
0.0940585,0.0419857
0.0465394,0.0570328
-0.0360297,-0.00811926
-0.0632342,-0.0440958
-0.0585601,-0.0728424
-0.0273575,0.0198304
0.000487891,0.0645166
0.0213262,0.031204
0.00889012,0.0157939
-0.0189716,0.0509324
-0.0146899,0.00741675
-0.00422517,-0.0129256
-0.000252481,-0.00867277
0.0140923,0.00305609
0.0507655,0.0123677
0.0646473,0.00403174
0.0292487,-0.00335157
-0.0310025,0.117882
-0.0642719,0.0734214
-0.064876,-0.00196408
-0.0427845,0.009937
-0.0118086,-0.0243558
0.0305863,-0.0315434
0.0581306,0.000815167
0.0554134,-0.0469427
0.0189542,-0.0868571
-0.0205604,-0.0369145
-0.0354435,0.0103883
-0.0124549,0.0587745
-0.00906261,0.0221456
-0.00737127,-0.00171925
-0.00636092,-0.012859
-0.00523713,-0.0490793
0.0228979,-0.022648
0.0425786,0.00114018
0.0598308,-0.00272456
0.0687532,0.0451549
0.0598696,0.00516261
0.0267345,-0.0273687
0.00369927,-0.00640802
-0.0115247,0.0279224
-0.0636018,0.054484
-0.0922933,0.0124698
-0.116722,0.00473391
-0.0916412,-0.00975568
-0.00924365,-0.0394235
0.0480074,-0.0349448
0.0545063,-0.0264492
0.0189394,-0.0141393
0.00713318,-0.0415707
-0.0245417,-0.0676274
-0.0611942,0.0307066
-0.0422288,0.0494878
-0.0029424,0.0224351
0.00564462,-0.00988828
0.00211319,0.00288872
-0.00385474,0.0123215
0.021494,0.0140718
0.0305004,0.00757991
0.0170731,-0.00649157
0.013748,-0.0276958
0.0229994,0.0172414
0.0145135,-0.0223602
0.0130135,-0.0505498
0.025458,-0.00340191
0.0241996,-0.0147642
0.0307093,-0.0304558
0.0514187,-0.00553545
0.0366863,0.04142
-0.017071,-0.0256828
-0.0510155,-0.0323588
-0.0801337,-0.0114785
-0.106243,-0.00862566
-0.0829665,0.0514696
-0.0693725,0.0767136
-0.0217361,0.128294
0.0444124,0.0682856
0.0854595,-0.0371738
0.0804643,-0.0463354
0.0500061,0.0225472
0.0321738,0.00376804
0.0375794,0.00540773
0.0411987,-0.0105023
0.0491105,-0.0515237
0.00530242,-0.0160415
-0.041287,0.0357864
-0.0295533,0.0287392
0.0297084,0.0503056
0.0365813,0.0204591
-0.0351142,-0.0596001
-0.0495774,-0.0521224
-0.00352547,0.00586785
0.00916328,0.0227333
-0.00322122,0.0025341
-0.0100204,-0.000155398
-0.0291597,-0.0214509
-0.0662469,-0.0281744
-0.0788765,-0.0093929
-0.0168653,-0.00281546
0.0493682,0.017264
0.074624,0.0224905
0.0397612,-0.00254194
0.0133618,-0.0230597
0.00202785,-0.0646356
0.00400629,-0.0651247
-0.0175839,-0.0192265
-0.0388272,0.0420684
-0.0559272,0.0243552
0.008768,0.0787372
0.0598297,0.0494466
0.037111,-0.0254706
-0.017891,0.0120302
-0.0484615,0.021584
-0.0349402,0.0119561
-0.0299,-0.01873
-0.0226052,-0.00239779
-0.0149537,0.00386233
0.000345506,0.00255435
0.0248206,0.0258472
0.0348041,0.00258309
0.0270726,-0.0144109
0.0101751,-0.0124377
0.0033133,-0.0224224
0.00175676,-0.0114474
-0.00255322,-0.0292484
-0.00180562,-0.0525758
-0.00330459,-0.0607366
0.0208464,0.0232616
0.0240174,0.0731329
0.000822604,-0.0172785
-0.0411446,-0.0361041
-0.0573965,0.0188421
-0.0324255,0.0458503
-0.0177759,0.0619398
-0.0145288,-0.054696
0.0168951,-0.0193616
0.0432978,-0.0147977
0.0566723,-0.0633559
0.0642084,-0.0931332
0.0891802,-0.0732417
0.0792381,0.0337771
0.0500112,0.0948031
0.0102376,0.0684898
-0.0527984,0.0682403
-0.0812125,0.0590801
-0.0994229,0.00929732
-0.0913021,-0.0257248
-0.0640596,-0.00354577
-0.0193199,0.0327569
0.0169188,-0.00809989
0.0774122,-0.042558
0.104241,0.0317229
0.0885194,0.044217
0.0687004,-0.0276355
0.000736624,-0.0654555
-0.0428961,-0.0227048
-0.0344104,0.0420458
-0.0992971,0.0737596
-0.142661,-0.0286454
-0.0931959,-0.0225073
-0.00870406,0.0435478
0.0540066,-0.00674982
0.0634554,-0.136823
0.074446,-0.0427644
0.0736684,0.0353877
0.0307112,0.0176994
-0.0189199,0.022146
-0.0467149,0.0124655
-0.0429211,-0.000256482
-0.0329911,0.0226104
-0.0297395,0.0331114
-0.0164475,0.0389787
0.00532433,0.0603491
0.0614169,-0.027083
0.131333,-0.0759015
0.140553,-0.0734728
0.0675136,-0.038626
-0.0458766,-0.0305656
-0.151869,0.00114822
-0.145977,0.00999639
-0.139526,0.00383222
-0.176683,0.0245694
-0.166296,0.00978655
-0.0260265,0.00774481
0.145147,0.003359
0.153032,0.0309758
0.0980396,0.0330153
0.0693073,0.0404429
0.0796638,0.00282017
0.0768719,-0.0220731
0.0616851,-0.0170619
0.0499399,0.00313316
0.0283603,-0.0117771
-0.0131406,-0.00990056
-0.064435,0.0114453
-0.0717101,0.00115484
-0.0322121,-0.0229458
0.0142816,-0.0382289
0.0357118,-0.0643321
0.0192171,-0.0216282
-0.016099,-0.0385031
-0.0374776,-0.0179527
-0.0208659,0.0519456
-0.0197143,0.0456186
-0.0421587,0.0107431
-0.0556088,0.0697483
-0.0493107,0.0597152
-0.0406629,-0.00938655
-0.0178002,-0.0179051
0.00847901,-0.00893568
0.0257064,-0.00091526
0.064058,0.00981041
0.0934353,0.00506665
0.101909,-0.0149605
0.147932,-0.0206325
0.178842,-0.0983076
0.106686,-0.123997
-0.0469347,-0.0885447
-0.144003,0.0552482
-0.203735,0.184384
-0.200889,0.109369
-0.144627,0.0197321
-0.049231,0.0504583
0.00690574,0.033652
0.0427832,-0.0425282
0.0512561,0.00259258
0.0528365,0.00725253
0.0590633,0.0136542
0.0701879,-0.011045
0.0683961,-0.0263379
0.0201519,-0.0179121
-0.0329337,-0.0285606
-0.0624186,-0.00175396
-0.10252,0.0115733
-0.0992053,0.0295501
-0.0166161,0.035585
0.0569525,0.0090481
0.0846093,-0.0191056
0.0658942,-0.00113128
0.0598947,-0.0462626
0.0783845,-0.0530831
0.0204814,-0.0254967
-0.142625,-0.00298188
-0.17799,-0.0309788
-0.100932,-0.027606
0.044971,0.00688806
0.0710997,0.0322845
0.0331519,0.00562396
0.0728462,0.019137
0.0744508,0.0182493
0.0433999,-0.00495887
0.00774615,-0.0107061
-0.0244445,0.00277313
-0.062036,-0.0283521
-0.0107447,-0.0807507
0.0844484,-0.0419194
0.126345,0.0343852
0.0582567,-0.0117357
-0.0169274,0.0113946
-0.049688,0.00225363
-0.0822962,-0.0272203
-0.0685024,0.0474848
-0.0559765,0.0497564
-0.105485,-0.0254829
-0.0846304,0.0121698
-0.0227869,0.0693995
0.0216539,0.0842168
0.0776632,0.0261226
0.0560377,0.0595888
0.00131656,0.0153144
-0.00720674,-0.051137
0.015701,0.0487159
-0.0075641,0.0183531
-0.0461962,-0.035823
0.0295948,-0.0591898
0.100001,-0.103438
0.0899427,-0.0637338
0.0624528,0.0326981
0.0432168,0.0832973
-0.0318795,0.0306333
-0.102621,-0.0345917
-0.0979306,-0.0344915
-0.0901033,-0.0294888
-0.0426093,-0.0242079
0.0181398,-0.0417059
0.0947366,-0.0815252
0.130343,-0.0285804
0.0792251,0.0356365
0.00615077,0.0637926
-0.0807955,0.045358
-0.102136,0.0482867
-0.0353381,0.0436082
-0.0225892,0.0164658
-0.0452716,0.0120389
-0.0374194,0.0048068
-0.0111472,-0.0154556
0.0506942,-0.0307184
0.0845284,-0.0245672
0.0441766,-0.0378221
0.0104173,-0.0198335
-0.0168636,0.0287094
-0.0334348,0.0461932
-0.0696593,-0.0291373
-0.073386,-0.0688576
-0.035441,0.0403467
0.0154925,0.0346179
0.0106161,-0.0463799
0.0451001,-0.0114696
0.0650745,-0.00482742
0.0841269,-0.00185121
0.129798,0.0408099
0.135232,0.015916
0.186863,0.0487547
0.178239,0.038249
-0.0119938,-0.0543779
-0.229425,-0.0687702
-0.287547,-0.120592
-0.212893,-0.0465765
-0.127847,0.0812925
-0.0545173,0.0718977
-0.0188854,-0.0163021
0.0109761,0.00488643
0.00206491,0.0108618
0.0161901,0.0164967
0.0490556,0.00577697
0.105148,0.0296577
0.128028,0.0909598
0.106158,0.0906614
0.0347068,0.00495672
-0.0309826,-0.0609965
-0.107082,-0.0380478
-0.0906524,-0.0402744
-0.0338931,0.0389199
-0.0324081,0.0313001
-0.0065263,-0.0341345
0.0418382,0.00915584
0.0876862,0.0215355
0.0694882,-0.00633295
-0.0101335,0.0158785
-0.134738,-0.0424553
-0.111408,-0.0927999
0.0170937,-0.0449784
0.102611,0.0593152
0.0982075,0.0207787
0.0248172,-0.0696829
-0.0421671,-0.0928523
-0.0462209,-0.0276155
-0.0180503,0.119896
0.00886489,0.0596099
0.0283872,-0.00499182
0.0296922,0.0278794
0.00773509,0.0245788
0.00559668,0.0311646
0.0353595,0.0334898
0.0519325,-0.00553798
0.0182999,-0.050524
-0.0161599,-0.0532501
-0.0353688,-0.066075
-0.0351328,-0.0294051
-0.0463258,-0.0157061
-0.0427635,0.0414466
-0.0404474,0.00810602
-0.0352588,-0.101257
-0.00733079,0.00151382
0.0184739,0.0176523
0.0434023,-0.0669347
0.0467833,-0.0348309
0.0433201,0.119025
0.0686855,0.102908
0.0375229,0.0326156
0.0231742,0.0740433
0.00484757,0.00708178
0.00997772,0.0446057
-0.0188474,-0.00995412
-0.0369113,0.0057848
-0.000482579,0.0203933
-0.0398366,-0.0302934
-0.0693561,-0.0156325
-0.0139746,0.0140612
0.0660739,-0.0675244
0.0575189,-0.173187
-0.0371577,-0.124085
-0.126923,-0.0575996
-0.0972441,-0.0797716
0.0210256,0.0977594
0.0775598,0.192758
0.0658535,0.0271804
0.00201339,-0.0762313
-0.0656405,-0.142205
-0.0264224,-0.058684
0.00655914,0.0229691
-0.00700748,0.10482
-0.0220105,0.240045
-0.00941105,0.172227
-0.00262092,0.0229718
-0.0189268,-0.00270345
-0.0241213,-0.0326373
-0.0457166,0.0602658
-0.0304611,0.0380287
0.0105756,-0.0380054
0.0614002,-0.0284815
0.115297,-0.0920611
0.16891,-0.0797502
0.217799,0.0398058
0.160879,0.000711821
0.00816664,-0.00501745
-0.164383,-0.122123
-0.193314,-0.116409
-0.131809,-0.0368522
-0.113717,0.140328
-0.0610319,0.0651945
0.00311854,-0.0332816
0.0359266,-0.0361962
0.0703099,-0.0567782
0.0661646,-0.0489146
0.0229064,0.0952199
0.000328667,0.103327
-0.0145143,0.0716633
-0.0550778,0.00333251
-0.0531551,-0.015552
-0.0197859,-0.05742
-0.00171482,-0.0441569
0.00878739,-0.00132069
0.00864047,0.00337209
-0.014409,0.0402911
-0.022915,0.0252012
-0.00739136,-0.0178169
-0.0171887,-0.042411
-0.00398712,-0.03848
0.021197,0.0867695
0.0424435,-0.000698548
0.0597006,-0.144301
0.0476877,-0.0442893
0.0494755,-0.0381977
0.0715114,-0.0511442
0.0656141,-0.0343903
0.0210908,-0.0306999
0.00200444,0.0425133
0.0421564,0.119537
0.0523846,0.0285448
-0.000753182,-0.0578695
-0.0493866,0.0827412
-0.105725,0.202773
-0.087752,0.0494241
-0.0793481,0.036019
-0.105467,-0.0146188
-0.0888607,-0.0244412
-0.0417618,-0.037249
0.00735246,-0.0164031
-0.0164276,-0.0151242
-0.0504593,-0.022282
-0.044098,-0.0482049
-0.0170855,-0.0471703
-0.0133877,-0.0374474
0.024871,-0.110765
0.10411,-0.0172132
0.109763,0.0185395
0.06208,0.0571503
0.0399011,0.0457487
0.0331363,0.0349281
0.0621762,0.0392099
0.0798838,0.0409488
0.0841398,-0.00547857
0.0578072,0.0313778
0.00847975,-0.0175505
0.00358947,-0.0167502
-0.0397965,-0.0184213
-0.0756334,0.00664112
-0.105501,0.0470915
-0.0955603,-0.013953
-0.0865499,0.00756864
-0.0683821,-0.0293569
-0.0694233,-0.0396636
-0.0494043,-0.107181
-0.0416062,-0.068331
-0.0566804,0.0196332
0.000493263,0.209151
0.104331,0.103544
0.196341,-0.116987
0.197929,-0.120899
0.126376,-0.0752787
0.0780545,-0.0121668
0.00486516,-0.115687
-0.0213183,-0.00813314
-0.0675312,0.0760668
-0.0917874,0.135498
-0.0529714,0.105244
-0.0113301,0.000225547
0.00372412,0.0329097
0.0111462,0.125521
-0.030475,0.0598886
-0.0796898,-0.194515
-0.081723,-0.22182
-0.0973118,0.0024905
-0.0575537,-0.0320165
0.0279212,0.0712716
0.0980292,0.16925
0.109351,0.0607445
0.0720643,-0.00707739
0.0489102,-0.0324029
0.0747856,0.00124997
0.113864,0.037247
0.0685251,-0.0269815
0.0284984,-0.00252205
-0.0175565,0.0354389
-0.0941427,-0.0588242
-0.122748,0.012658
-0.106524,0.0951185
-0.0558769,-0.0167489
-0.0101245,-0.071577
-0.0705476,-0.0770699
-0.134498,-0.0665309
-0.159561,-0.00488288
-0.0639682,0.00879241
0.100657,0.0288487
0.0846868,-0.110071
0.00350654,-0.207202
-0.00670106,-0.0468824
0.0367196,0.24689
0.0745406,0.214068
0.0511855,0.0263149
0.10579,-0.0142795
0.0828225,-0.0154089
0.140809,0.0746804
0.248585,0.131717
0.229712,-0.0824156
0.172913,-0.113123
0.011889,-0.07574
-0.238973,0.0231645
-0.372455,0.001017
-0.310424,-0.112361
-0.147903,-0.0936419
-0.0333841,-0.118424
-0.0636306,0.0832286
-0.129597,0.14066
-0.205675,-0.059305
-0.162341,-0.154259
0.00465434,-0.105271
0.150797,0.069159
0.24946,0.19138
0.302359,0.150755
0.173937,0.0908815
-0.0207181,0.0214202
-0.15003,-0.0359111
-0.0312168,-0.0475784
0.0622356,0.0787346
0.0480738,-0.0176201
0.0566185,-0.0807774
0.0268707,0.123773
-0.00916699,0.166302
-0.0319891,-0.0500341
-0.0172379,0.021956
0.0187562,0.0814803
0.019896,-0.0686548
-0.00688332,-0.0910115
-0.0208327,0.00336644
-0.00942739,-0.0881573
0.0362052,-0.202263
0.0361034,-0.101196
-0.0944811,0.0619439
-0.195306,0.0460331
-0.0744325,-0.00978753
0.113672,-0.0173987
0.101962,0.00262849
0.0522593,0.050419
0.0258633,0.0879577
-0.0281144,-0.00441088
-0.047995,-0.0122707
-0.0690862,0.0535676
-0.0779157,-0.0634112
-0.0109416,-0.0727317
0.068801,-0.0345388
0.0676984,0.0495927
-0.00523723,0.0681327
-0.0850692,-0.0390239
-0.18422,-0.154364
-0.145949,-0.14934
0.0684289,-0.0665269
0.238633,0.0585419
0.271254,-0.0187369
0.166318,0.201499
0.000126063,0.23438
-0.0349605,0.103092
0.0455435,0.067967
0.0627709,-0.021686
-0.00702179,-0.0759817
-0.013772,0.0136443
-0.0484021,0.047114
-0.129275,-0.0415468
-0.123723,-0.112911
-0.0543419,-0.0910941
-0.0458263,0.0140657
-0.0500795,-0.0628822
-0.0230502,-0.196397
0.0423857,-0.0595947
-0.00326501,-0.224798
0.0533217,-0.077423
0.0404717,0.170508
-0.0101415,0.215955
-0.00565836,0.272362
0.0140807,0.0669407
-0.0499095,0.0822188
-0.0341343,0.172419
0.181844,0.0472306
0.224465,-0.0931255
0.134107,-0.113371
-0.118814,-0.139151
-0.257127,-0.0539608
-0.0671784,0.00175405
0.0363015,-0.0153932
0.0226158,-0.0438709
0.0165304,0.0679067
0.0601028,0.0563761
0.10406,-0.0713592
0.151489,-0.0038819
0.0671272,0.139048
-0.083907,-0.0125257
-0.200431,-0.0353591
-0.227105,-0.139952
-0.157576,-0.0724846
-0.0135194,-0.0345674
0.0994944,0.0327401
0.0723228,0.099149
0.00634417,0.0225786
-0.0597927,-0.0887759
-0.0557235,-0.0156726
0.000433191,-0.118608
-0.0082078,-0.213699
-0.0137964,-0.0158888
-0.0180175,0.214173
-0.134573,0.352114
-0.17841,0.320335
-0.0516102,0.144234
0.139779,-0.0297561
0.270364,0.0478482
0.28621,-0.0971186
0.222358,-0.232995
0.126542,-0.123221
0.0317564,0.00493104
-0.0078092,-0.0209995
-0.02021,-0.0827884
-0.0527164,-0.0293618
-0.139508,0.09758
-0.216575,0.0970617
-0.206885,0.0647488
-0.0958122,-0.00454239
0.0143834,-0.0857349
0.0808881,-0.0797949
0.0579578,-0.208216
0.0293654,-0.310779
-0.00790714,-0.443379
-0.0900852,-0.513493
-0.2198,-0.0357612
-0.220889,0.418724
0.0187653,0.554966
0.227675,0.497418
0.192399,0.356911
0.0347347,-0.0157759
-0.00131285,-0.246024
0.0814015,-0.072836
0.0732904,-0.0888144
0.00842745,-0.000423693
-0.0834154,0.191559
-0.107952,0.161097
-0.0567409,0.0905309
-0.0174139,0.0375327
0.0228895,-0.0313869
0.0439798,-0.0108023
0.00861173,0.0410905
-0.000876014,-0.158223
0.0617844,-0.253934
0.123691,-0.240083
0.124772,-0.141872
0.125762,0.0473305
0.213191,0.0885963
0.248607,0.194784
0.142939,0.121617
-0.00856617,0.174069
-0.236378,0.132635
-0.370855,-0.150523
-0.193887,-0.175496
-0.0206683,-0.0511259
-0.0608616,-0.00835436
-0.127692,0.0025513
-0.0738025,-0.0136582
0.0334674,-0.0230553
0.0322866,-0.0499705
0.0164733,-0.109035
0.0156517,-0.0552899
0.0557927,-0.0194866
0.0671604,0.0369636
0.0154496,0.0845679
-0.0374068,0.00677725
-0.0311444,-0.0049795
-0.00587699,0.0125614
0.007872,0.0190905
0.0527452,0.0566123
0.0643971,0.00295886
0.0525943,-0.0173212
0.115349,-0.0386629
0.178442,-0.0188611
0.0666674,-0.0198083
-0.147011,-0.0318231
-0.316869,-0.0195441
-0.381779,-0.0656346
-0.318744,-0.0985392
-0.0824478,-0.143694
0.140091,0.0137101
0.249356,0.266516
0.335674,0.19663
0.231805,0.0836875
0.158989,0.0326969
0.0563413,-0.000836518
-0.11493,-0.0739831
-0.208637,-0.118249
-0.128317,0.0122476
-0.131492,0.104464
-0.0952009,0.0852714
-0.080807,0.102553
-0.0363156,-0.0129539
0.0545896,-0.237412
0.139083,-0.0350517
0.11071,0.176473
0.0658635,0.0398615
0.0957796,-0.114904
0.00918069,-0.0749241
-0.1632,-0.0489649
-0.131491,-0.01668
-0.0132571,-0.0213424
0.034598,0.0368129
0.0253508,0.0437992
-0.0319367,-0.0399215
-0.0218989,-0.141672
-0.0344612,-0.111106
-0.0982289,-0.156961
-0.0604287,-0.0761074
-0.0143003,0.0328952
0.0348502,0.182109
0.0783276,0.297524
0.0600708,0.321626
0.0109499,0.221562
-0.000310224,0.028502
0.0334464,-0.0376796
0.0800186,-0.0424695
0.114865,-0.0143847
0.105663,-0.0648484
0.0691716,-0.112109
0.0666358,-0.0733141
0.0674616,-0.057703
0.0109885,-0.0197227
-0.0967442,0.0316575
-0.13855,-0.0307161
-0.0817598,-0.122416
-0.0150583,-0.142103
0.00161252,-0.0563627
-0.0665483,0.0376998
-0.0538744,0.0771774
-0.0311273,0.0835625
0.0429066,0.0716692
0.0834475,0.048447
0.0299545,0.0104952
-0.015873,-0.110733
0.0477953,-0.105367
0.116677,-0.0210584
0.0667628,0.0888777
0.00586873,0.0187107
-0.0128731,-0.0373408
-0.0336282,0.0362882
-0.0398071,0.0595899
-0.105172,0.00610658
-0.172123,-0.105572
-0.0675483,-0.0133871
0.0822599,0.151304
0.146384,-0.0333463
0.148397,-0.0144432
0.0899243,-0.0234558
0.019358,-0.0244032
0.00048902,-0.011115
-0.00619191,-0.013393
-0.0139916,-0.0194798
-0.0271555,0.0155261
-0.042792,0.00508096
-0.063451,-0.00700572
-0.0462622,0.0307137
-0.025778,0.0155743
-0.0230118,-0.00814326
-0.0231834,0.0188122
-0.0115391,0.0385483
0.0171827,-0.047652
0.050938,-0.0913347
0.0460022,-0.0440565
0.00590695,-0.0897568
-0.0146863,-0.138071
-0.014194,-0.070951
0.0126646,0.0207936
0.0449481,0.120693
0.0525437,0.169239
0.0163369,0.0756348
-0.0235157,0.050477
-0.0120789,0.0437749
0.0071602,0.0124176
-0.0763017,0.0634131
-0.168261,0.059578
-0.201184,0.0231265
-0.158603,-0.039847
0.0186638,-0.0242284
0.16388,0.0349256
0.182921,-0.0743128
0.10254,-0.157883
0.00951535,-0.091193
-0.0777251,-0.0152331
-0.131738,-0.0177572
-0.0892998,-0.0125739
0.0208054,0.0344998
0.126062,0.0808404
0.140815,0.116939
0.0725784,0.120462
-0.00657119,0.0748828
-0.0781674,-0.038549
-0.0524058,-0.0508026
0.0367028,0.0287595
0.0501024,0.0287072
0.0105896,-0.0200346
-0.0526706,-0.0630947
-0.0825681,-0.0938222
-0.0819963,-0.0835343
-0.0373912,-0.0311944
0.0157948,0.00343986
0.0151055,0.00159796
-0.0159222,-0.0335942
-0.00879911,0.0325955
0.00510073,-0.0317889
0.0315072,-0.146833
0.065269,-0.0517842
0.0458899,0.0149387
0.0361781,0.113707
0.0681529,0.161015
0.0623147,0.123566
-0.0120935,0.0187081
-0.0791159,-0.0463079
-0.0777208,-0.0545929
-0.025012,0.0428089
-0.0195952,0.0866189
-0.0814396,0.0514166
-0.0618365,-0.0084819
-0.0345287,-0.0366561
-0.00500275,-0.0931207
0.0969156,-0.0821153
0.0996726,-0.0155363
0.0110875,-0.107411
0.016953,-0.177834
0.0722553,-0.0870431
0.0408896,0.0347376
0.0382753,0.150029
0.0677531,0.0261645
0.0712408,-0.0457968
0.0273638,0.0380806
-0.0473379,0.140417
-0.0786732,0.119791
-0.0724612,0.0758431
0.00572854,0.0903142
0.0553083,0.031202
0.0153368,-0.0623752
-0.00292715,-0.0527719
-0.0321042,0.0150478
-0.0113115,0.0117163
0.0282456,-0.00279048
-0.0158665,-0.0290856
-0.102312,-0.0185355
-0.116038,-0.0140503
-0.0602728,-0.0539932
-0.00975434,-0.0252527
0.00620349,0.0460244
0.00252266,0.0169402
0.0126856,-0.0262202
0.0261891,-0.05273
-0.0135001,-0.0943399
-0.0773857,-0.0612654
-0.0612323,-0.163077
-0.00151657,-0.125747
0.036425,0.0772778
0.0500522,0.206248
0.046959,0.11078
0.0524955,0.00832665
0.0689025,-0.00167231
0.0534794,-0.0222477
-0.00712784,-0.0149214
-0.0350057,0.0269725
-0.0382375,0.0458009
-0.0324657,0.0767263
0.0242483,0.0524393
-0.0150989,-0.0280434
-0.0150705,-0.0694169
0.00281138,-0.0205929
-0.0107364,0.0177199
-0.00644875,-0.0155131
0.0135353,0.0118378
0.0209207,-0.00908469
0.021902,-0.00793749
0.00978724,0.0141364
-0.00608274,-0.0107542
0.031828,-0.0147408
0.0170898,0.0175389
-0.00672315,0.036238
0.00912801,0.00517433
-0.00538345,-0.0079644
-0.0140264,0.0864589
-0.0232332,0.0836453
-0.00948438,-0.022968
-0.0168429,-0.0376518
-0.0177487,-0.0154241
-0.0313686,-0.0119993
-0.0356734,-0.0306923
-0.00561951,-0.0236267
-0.0187178,-0.00750218
0.0252783,-0.0675154
0.10759,-0.102996
0.106144,0.0164935
0.091486,-0.00922102
0.126568,-0.0255392
0.11113,0.0772272
0.0951861,0.00717669
0.0632994,-0.0288422
-0.0392715,-0.0452078
-0.119812,-0.0574097
-0.132227,0.0322335
-0.128469,0.0440166
-0.158554,-0.0294159
-0.136451,-0.0594619
-0.102893,-0.0520386
-0.0892769,-0.0447451
-0.00869792,0.0763328
0.0541767,0.135234
0.059583,0.0771142
0.0326256,-0.0475562
-0.0113482,0.00133218
-0.0180966,0.0673335
0.0284541,0.0361197
0.0429543,-0.0530765
0.0220841,-0.0940115
0.0097137,0.00391508
0.00189277,0.0281508
0.0316057,0.0180551
0.0453573,0.0106194
0.00232498,-0.00130376
-0.0333977,0.0063206
-0.0896591,-0.0275572
-0.0606356,-0.103517
0.105398,-0.0314117
0.160214,0.0129883
0.0627523,0.127707
0.00896405,0.155785
0.0270913,0.0463893
0.034323,-0.0202315
0.0304013,-0.0398817
0.0176731,-0.0197733
-0.0238714,0.0390217
-0.0597528,0.0725277
-0.0632255,-0.0449305
-0.0556647,-0.0636368
-0.0256798,-0.0193994
-0.00440702,-0.029501
0.0111181,-0.0725332
0.0581122,-0.026481
0.0749819,0.071676
0.0378287,0.0642865
0.0250309,-0.0423457
-0.0272044,-0.0791281
-0.148993,-0.0273423
-0.155267,0.0449634
-0.0824293,0.0476484
-0.00658045,0.0110357
0.058301,0.021209
0.0613714,-0.0422323
0.0516157,-0.0358147
0.0520221,-0.0795265
0.0628122,-0.0845614
0.0382553,-0.195721
0.022242,-0.227826
-0.0705153,-0.048596
-0.208021,0.179279
-0.215399,0.17256
-0.107624,0.120793
0.0522336,0.216539
0.192344,0.183787
0.198956,0.145826
0.10587,0.00744186
0.0519773,-0.0593663
0.101158,-0.00452667
0.154805,0.0139402
0.173466,-0.0979891
0.121483,-0.0534199
-0.056169,0.0559501
-0.268714,-0.022782
-0.306364,-0.116099
-0.263881,-0.0115987
-0.147519,0.0675868
0.0174111,-0.0196379
0.0801921,-0.0886916
0.0582269,-0.0591673
0.0409688,-0.00491668
0.0412144,0.0480893
-0.00152242,0.0382383
-0.0578031,-0.0320669
-0.0757461,-0.0447048
-0.0109815,-0.0166295
0.0617438,0.00363327
0.149024,-0.0144582
0.124733,-0.035117
0.0496585,-0.0189709
-0.0401973,0.036915
-0.0742462,0.0649347
-0.0303293,0.0496975
0.00370554,0.0301203
0.0184441,0.0127309
0.0524629,-0.116292
0.0638845,-0.0145022
0.00943069,0.0250007
-0.0404206,-0.000579556
-0.0808019,-0.0483793
-0.0669529,-0.0818854
-0.0366969,-0.037664
-0.0118242,0.0947261
0.0100011,0.0762574
0.0453463,0.0110506
0.07008,0.00363999
0.0524981,0.0278269
0.0247498,0.099234
-0.00571014,0.0501139
0.0395616,0.0510085
0.0310641,-0.0728858
-0.00202931,-0.0977921
-0.0143922,-0.0898196
-0.0310522,-0.0943347
-0.0169154,-0.0722319
0.00956296,-0.100449
0.0261776,-0.0905109
-0.0334889,-0.0318051
-0.0562039,0.0999384
-0.086355,0.0575665
-0.0936726,-0.00876381
-0.0297293,-0.0130738
0.00201852,0.0220322
0.00180153,0.126469
-0.00390162,0.211699
0.00587511,0.200091
0.0187793,0.0395321
0.040208,-0.0314045
0.049155,-0.0333977
0.035491,0.00913272
-0.00107821,-0.0373427
-0.0274061,-0.118225
0.041495,-0.116837
0.164563,-0.013564
0.157591,0.0601923
0.0930809,-0.0708314
0.00665202,-0.000955975
-0.0921501,0.0435898
-0.176851,0.00659474
-0.165969,-0.00384823
-0.0970671,0.0556717
0.00832741,0.0338771
0.0868272,-0.114567
0.0788145,-0.0456386
0.0252013,0.104309
-0.0207252,0.0600033
-0.0402382,0.0327334
-0.0162739,0.0166296
-0.0070429,-0.0558856
-0.0320064,-0.0767309
-0.00790928,-0.0233097
-0.0328716,-0.045414
-0.115188,-0.0747442
-0.0858847,-0.0810488
0.0259044,0.00372865
0.067864,0.0360728
0.0637068,-0.0293231
0.0476507,0.0150777
0.022157,0.0468306
0.0128665,0.080828
0.0402146,0.0752666
0.0652797,0.00643008
0.051074,-0.0422887
-0.0190818,-0.0136629
-0.0652798,0.0452039
-0.142347,0.120236
-0.119116,0.0901566
-0.00601873,-0.0068925
0.0540588,-0.0354391
0.0545232,-0.0712071
0.0704519,-0.0410175
0.0558146,-0.0510167
0.00151414,-0.0888968
-0.0196639,-0.0366836
0.0193519,-0.0552133
0.0681407,0.0375327
0.0738986,0.0820209
0.0764205,0.0765879
0.0524294,0.0209486
0.0011841,-0.0477685
-0.056272,-0.104999
-0.0667126,-0.104087
-0.0154573,-0.063045
-0.0147519,-0.0403702
-0.0389577,0.0609471
-0.0227145,0.0589297
0.00913561,0.0343394
0.0673837,0.0561641
-0.0153287,0.0761793
-0.0920871,0.0843827
-0.0995553,0.0868526
-0.0411189,0.0621207
0.0130709,-0.027684
0.0432911,-0.0609434
0.0479791,-0.0889238
0.0263099,-0.0492395
0.0174859,-0.025365
-0.0028432,0.0259156
-0.0354224,0.00875763
-0.0623222,-0.0444487
-0.053054,-0.037052
-0.0125044,-0.017722
0.0247086,0.00246615
0.0450722,0.0338986
0.0547731,0.0910704
0.0396395,0.171119
-0.0102231,0.00705862
-0.0491153,-0.0567519
-0.0388867,0.00467106
0.0264261,-0.018403
0.0587681,-0.129449
0.0604446,-0.064401
0.0264252,-0.0419382
0.0137583,-0.0624649
-0.0134519,-0.0401359
-0.00398353,0.0337879
0.0050682,0.0756175
-0.013672,0.0382728
-0.0473251,0.069727
-0.0570936,0.0847872
-0.0597158,0.0344014
-0.0976249,-0.0336978
-0.0737761,-0.0203266
0.0171832,0.00267862
0.123354,-0.0341735
0.136463,-0.0710268
0.0768888,-0.0362315
0.023003,0.000707224
-0.0241636,-0.062524
-0.0127839,0.102806
-0.00496372,0.130096
-0.0306566,-0.0245122
-0.0796721,-0.0133832
-0.0913879,0.00773128
-0.0353076,-0.0115947
0.0267965,-0.103131
0.0414563,-0.117318
0.0201808,-0.0804431
-0.0236727,-0.00878414
-0.0298882,0.084821
-0.0315374,0.100584
-0.00768081,0.0816179
0.0457256,0.0797374
0.0844131,-0.0177659
0.0840688,-0.00211203
0.0409252,-0.114177
-0.00876303,-0.137866
-0.0179858,-0.00309189
-0.00786542,0.0935572
-0.0161595,0.0537502
0.00641147,0.0339687
0.0543353,-0.00461679
0.0516891,-0.0393085
0.0111813,-0.0031995
-0.0143067,0.0831831
-0.0244361,0.0330153
-0.0521573,0.00577216
-0.0494696,-0.0120805
-0.00911367,-0.000159647
-0.00222809,-0.00239803
-0.00573765,0.0158924
-0.0242803,0.0139579
-0.0424566,0.0250562
-0.0344967,-0.00931466
-0.026036,-0.0335633
-0.017796,-0.0338548
-0.00338177,-0.0706154
0.021545,-0.0482373
0.0110372,-0.0655164
0.0318728,-0.0307657
0.0336078,0.00992546
0.0209738,-0.114504
0.0128606,-0.139932
-0.000381898,0.00738532
-0.0340758,0.102351
-0.0823736,0.126332
-0.0126438,0.117775
0.117216,0.105219
0.142274,0.0803806
0.064024,0.0983426
-0.0485291,0.020715
-0.132884,-0.0132958
-0.0596296,-0.0451747
0.0565912,-0.0552697
0.11759,-0.0544967
0.0646643,-0.0138526
-0.0239871,0.0195667
-0.069729,-0.00927374
-0.0675297,-0.00304489
-0.0443284,0.0221848
-0.0341053,0.00336249
-0.0354105,-0.0123975
-0.0438673,-0.0231352
-0.0463237,-0.0410267
0.0227617,-0.00544341
0.0607467,0.0471841
0.038934,-0.00417683
0.00266334,-0.118533
-0.0132708,-0.0633301
-0.00413611,0.00573368
-0.00205264,-0.0192258
-0.00398185,-0.0850627
0.0163284,-0.0629108
0.00541026,0.0894808
-0.0380807,0.119358
-0.0382721,-0.0118248
0.00212996,-0.0435794
0.0421932,-0.0690019
0.0738249,0.0106933
0.067802,0.0959331
0.0176498,0.0603125
-0.0161483,0.011374
-0.00336551,-0.0238895
0.0349132,0.0102667
0.0269346,0.0921716
-0.02231,0.0812232
-0.055448,0.00265867
-0.07027,-0.0443598
-0.0362376,-0.061164
0.0363798,-0.0456413
0.0458643,-0.0878021
0.0096265,-0.0434675
-0.0237847,0.09186
-0.0142351,0.0785933
0.03048,0.0262498
0.0703828,-0.0364853
0.0566299,-0.00400518
0.0096591,-0.00594168
0.0167672,-0.068837
0.0488261,-0.0290148
0.0220901,-0.00243873
-0.0286676,0.0736275
-0.118747,0.102893
-0.194766,0.00860491
-0.107752,-0.0185119
-0.0266104,0.00445534
0.0158348,0.00990039
0.0498686,0.0398377
0.0650344,0.0468388
0.0734155,-0.0460111
0.0620251,-0.0414823
0.0490322,0.00709527
0.00921875,0.00923713
-0.0305523,-0.0328563
-0.0378925,-0.0401031
-0.0350619,-0.0559998
-0.0254633,-0.0735357
-0.0265767,-0.027318
-0.0178133,0.00954319
0.00141007,0.0115227
0.0614823,-0.0286751
0.0396362,-0.0401607
0.000657821,-0.036562
-0.0583938,-0.0133062
-0.0570776,0.0230433
0.00062079,0.0770567
0.030418,0.0344165
0.0232079,0.0262126
0.0107336,0.0663668
0.0188469,-0.0272542
0.0173994,-0.0151816
0.00944237,0.0458047
-0.0324214,-0.0247923
-0.0582589,0.054207
-0.00507149,0.0422262
0.0726328,-0.0626787
0.074751,-0.0631606
0.00692247,0.0326817
-0.0537335,0.0343067
-0.0481571,-0.0198527
-0.000739968,-0.0220623
0.0166891,-0.00124124
-0.00362324,0.0189574
0.0086565,0.0555943
0.0347012,0.0204265
0.030115,-0.0884707
-0.0165162,-0.0964835
-0.086162,-0.00159587
-0.103798,0.00835002
-0.0537959,0.0366422
0.0307033,0.0333472
0.0882115,0.0106312
0.0680711,0.0148672
0.0439751,0.0319838
0.0200701,0.0567199
0.00812123,0.0406236
0.0173528,0.0152313
0.0316693,-0.0182037
0.0133599,-0.0527608
-0.0516041,-0.055023
-0.0929468,-0.0142979
-0.060262,0.0344925
0.0268006,-0.0111382
0.124321,-0.0267475
0.146279,-0.0374414
0.108062,-0.0289656
-0.00606902,0.02569
-0.120822,0.0614328
-0.149082,0.00157421
-0.091526,-0.0238683
-0.0178921,-0.0409625
0.00171931,0.00126872
-0.0112961,0.0090041
-0.00149648,0.042163
0.00998787,0.0866812
-0.0176309,0.0320748
-0.0283881,-0.0489259
-0.0428452,-0.0230091
-0.046754,0.00759926
0.0162795,0.0441165
0.0487437,-0.051787
0.058308,-0.147643
0.0794782,-0.102862
0.0753224,-0.0491057
0.0741057,0.0738124
0.0608436,0.09039
0.0127157,0.0502475
-0.0471284,0.0128318
-0.0560123,-0.069013
-0.0345584,-0.0614737
-0.0532713,-0.0365613
-0.0680451,-0.0600522
-0.0801716,0.0360245
-0.075042,0.140565
-0.05471,0.201553
-0.0348108,0.0488794
0.0167182,-0.0194611
0.056222,-0.0230015
0.0519186,-0.017278
0.0247694,0.00195127
0.0384729,-0.0234203
0.0725233,-0.0302447
0.0990781,-0.0361687
0.0835505,0.0112257
0.0370531,0.0624064
0.0148301,0.0290482
0.00303431,-0.0438779
-0.0308999,-0.0676532
-0.0801446,-0.00243013
-0.0763296,0.035564
-0.048027,-0.0401076
-0.0589174,-0.0519866
-0.0083796,-0.0224881
0.0802694,-0.0363285
0.0892103,-0.0195822
0.066161,0.0505178
0.0175119,0.0528218
-0.0913878,-0.00663335
-0.136042,0.00764863
-0.0745012,0.0141647
-0.00362163,0.00867109
0.0436015,-0.023182
0.070438,-0.0218353
0.0315236,-0.0408017
-0.00341848,-0.0732057
-0.0024613,-0.0736391
-0.0273338,-0.0570388
-0.091952,0.114132
-0.122115,0.114072
-0.0693542,0.0469675
0.052653,0.05976
0.175794,-0.00873982
0.226269,-0.0536763
0.134678,0.00586332
-0.00952078,0.0313553
-0.08005,-0.0205204
-0.103384,-0.0222951
-0.0802469,-0.0077402
-0.07313,0.0128128
-0.044865,-0.0366496
0.0119849,-0.0474523
0.0567463,0.0565976
0.0304086,0.0615192
-4.44e-05,0.0478596
-0.00420592,0.00435118
0.00376216,-0.0513812
0.00567513,-0.017575
0.00207491,0.0127057
0.00745623,0.0202575
0.00303268,0.000996167
-0.0245188,-0.0396213
-0.0475833,-0.0381817
-0.0261388,-0.00394918
0.0257634,0.0211638
0.0678727,0.0254773
0.064722,0.022434
0.0409907,0.0468941
0.0119693,-3.3e-05
-0.00332064,-0.0648652
0.0205355,-0.00546998
0.00591,0.00404462
-0.0172313,-0.00637603
-0.0509496,0.00195691
-0.0806396,0.00807922
-0.0840149,0.00210744
-0.0654754,-0.0172835
-0.035751,-0.0241896
-0.0287386,-0.0305279
-0.0222563,-0.00858572
0.00959705,0.0314311
0.0533624,0.0135595
0.101861,0.0310312
0.139983,0.0209166
0.138382,-0.010639
0.089356,-0.015726
0.00464724,0.0352268
-0.0964822,-0.0153925
-0.133568,-0.0688107
-0.108778,-0.107149
-0.0750069,-0.118507
-0.0413045,-0.0261039
0.00820659,0.152521
0.0449834,0.121226
0.0499571,0.0516436
-0.0212137,-0.0184773
-0.0785368,-0.0476602
-0.0143399,-0.0436891
0.069938,0.0315229
0.0990827,0.147693
0.0548688,0.0637883
0.0445887,0.0228895
-0.000219194,-0.0489609
-0.0368507,-0.0451018
0.013746,-0.0603511
0.0943236,-0.110761
0.094247,-0.125588
0.0362504,0.0088647
-0.0336117,0.102306
-0.0914069,0.0152016
-0.117642,-0.0163515
-0.0967833,0.0381502
-0.0130599,0.0756087
0.0403391,0.0444896
0.0177172,-0.00813511
-0.0366345,0.0101077
-0.0837461,0.017082
-0.0512461,-0.0149625
0.0171825,-0.00693596
0.046777,0.0136195
0.0488551,-0.00985199
0.012417,-0.029412
-0.0204812,-0.0406677
-0.0149879,-0.108969
-0.00993535,-0.105967
-0.0168774,0.0349008
0.0170292,0.128838
0.0671816,-0.00311202
0.0754881,-0.0258612
0.039735,0.00426119
-0.0191031,0.0635746
-0.0644113,0.0498182
-0.0278994,0.0129424
0.0285153,-0.0120549
0.0721223,0.0176976
0.0434185,0.0255803
-0.0294389,0.0159819
-0.0890493,0.00289758
-0.0918604,-0.0135608
-0.0649867,-0.0207427
-0.0133331,-0.0122036
0.0123021,-0.00764001
-0.00468073,-0.00251455
-0.00530324,-0.0325041
0.0186519,-0.0269277
0.0178004,-0.0782976
0.00452701,-0.102366
-0.00770054,-0.0276719
-0.0280724,0.0385571
-0.0166756,0.0486428
0.0140817,0.0588768
0.0467794,0.0377966
0.0743141,0.0156519
0.10136,0.0410155
0.120419,0.0123789
0.0902832,-0.0508062
0.0275046,-0.0274619
-0.0727816,0.0016915
-0.127342,0.060082
-0.107202,0.0638736
-0.0222223,0.0185129
0.0347196,0.0560224
0.0215757,0.00729289
0.00185626,-0.0705325
-0.00228883,-0.0963286
0.0253015,-0.0473674
0.102667,0.0287238
0.15022,-0.0151519
0.124477,-0.00898886
0.0211673,0.0352543
-0.0870701,0.0668478
-0.164531,-0.0273397
-0.176537,0.00483661
-0.0839833,0.00983101
-0.015378,-0.0684699
-0.0436085,-0.123
-0.0816169,-0.00103826
-0.0911421,0.0119689
-0.0471348,0.0171344
0.00705474,0.0652189
0.038268,0.049244
0.045657,0.0522815
0.030831,0.0266432
0.0458216,-0.0439127
0.0844909,-0.0143178
0.0966719,0.00369501
0.070152,-0.0539303
0.00529015,-0.0170729
-0.0617181,0.0585267
-0.053616,0.0877256
-0.0382982,0.0383321
-0.0505967,-0.0314419
-0.0213142,-0.0576686
0.0488279,-0.0502819
0.0683742,-0.00654154
0.0469226,0.0142295
0.0317866,0.0199482
0.0383503,-0.0683296
0.0424386,-0.0636845
0.027366,0.0824855
-0.00349198,0.0261163
0.00447041,0.0279873
0.0100055,0.070679
-0.0577517,0.00634467
-0.104754,-0.0277055
-0.0719585,-0.009431
-0.0555342,-0.0237574
-0.0442341,-0.00463797
0.0171221,0.00716349
0.0411492,-0.0279415
0.0299042,-0.0188733
0.0397188,-0.00860859
0.0412624,-0.0422135
0.028734,-0.025576
0.0303082,0.0439435
0.00434347,-0.0159597
-0.0671961,-0.0438337
-0.0604111,0.0037
-0.0298335,0.0566167
0.00297392,0.0934106
0.00818997,0.00355649
-0.00430137,-0.0834056
-0.0181145,-0.0601121
0.00568995,-0.0759674
0.0367747,-0.0537521
0.06323,0.0119804
0.0642055,-0.0315681
0.0206711,-0.0342127
0.0126032,0.0594536
0.0205121,0.136264
0.0164756,0.13663
0.00243468,0.0699534
-0.0262353,0.0361047
-0.0657016,0.00316911
-0.0854452,0.0123336
-0.0480551,-0.00124484
-0.00530827,0.00198107
0.00871858,0.0183306
0.0134608,-0.0341579
0.00278357,-0.0660689
-0.00228535,-0.0299761
0.0158984,0.00709361
0.0346453,0.00966684
0.0142081,-0.00956605
-0.0143341,-0.0322467
-0.0338187,-0.0512618
-0.0324065,-0.125254
-0.00834931,-0.193701
0.0107451,-0.0524977
0.00176307,0.137166
-0.00846124,0.0813699
-0.0079413,0.0391988
0.0183489,0.0117139
0.0350702,0.000265
0.0411968,0.0328654
0.0402451,0.0170434
0.0151113,0.0525092
-0.00301949,0.0981314
-0.0245014,-0.00287771
-0.0198809,0.0366846
-0.00519463,0.0563673
0.044535,0.0536503
0.0858138,0.0494048
0.0265374,-0.0747368
-0.0752514,-0.0674914
-0.157431,-0.0528785
-0.155449,-0.0545416
-0.0377674,-0.0384709
0.0631013,-0.0289295
0.113652,-0.0302869
0.0794351,-0.0158603
0.0213007,0.0233575
0.00949411,0.0250835
0.0262295,0.0406989
0.0535601,0.0345656
0.0753868,-0.0496103
0.0790258,-0.0539803
-0.0230159,-0.0302405
-0.128527,0.00158334
-0.144511,-0.0157666
-0.0776792,0.000128719
-0.000308888,0.0630693
0.0182216,0.00959205
-0.00367001,0.013671
-0.049723,0.0188563
-0.0643184,-0.0248311
-0.0202334,-0.0399327
0.0275264,-0.0288594
0.0613388,-0.0191624
0.101492,-0.0146774
0.111103,0.00966445
0.0917258,-0.00165819
0.0633582,-0.0748519
0.029988,-0.0714526
0.0267937,0.03957
0.00122864,0.104319
-0.0225752,0.0963841
-0.0464286,0.0474568
-0.0905899,0.0337308
-0.0979902,0.0473854
-0.0421001,-0.00801526
-0.00663922,-0.0607117
0.00677577,-0.0338828
-0.00522235,0.00650809
-0.018664,-0.026785
-0.0303988,-0.0273548
-0.0670021,0.0504809
-0.0805134,0.119074
-0.0522238,0.0508643
-0.0237486,-0.00779511
0.0329982,-0.0580673
0.0961326,-0.0783251
0.0702995,-0.048731
0.0152212,-0.0631964
0.00760617,-0.0102266
0.0139605,0.0353203
0.0104193,-0.0265702
-0.0297795,0.0757438
-0.0539204,0.0980868
0.0155819,-0.0543202
0.0838578,-0.0570938
0.0834089,0.0192995
0.0308253,0.0358908
-0.0316504,0.00110755
-0.0280816,0.00509619
-0.00625216,0.0278161
0.00954898,0.0165886
0.0497482,0.00514519
0.0775029,0.0201952
0.0575118,0.0119665
0.00924457,-0.0363431
-0.0292011,-0.034786
-0.0682725,-0.06005
-0.0768768,-0.0526779
-0.0541691,-0.00831798
-0.00345647,0.0029102
0.0258355,0.0202461
0.0418491,0.0121361
0.034631,-0.0120189
-0.0199371,-0.0431587
-0.0715574,-0.073066
-0.0832729,-0.0897909
-0.0107739,0.0162663
0.0589869,0.0916642
0.0609741,0.0287261
0.0328433,0.0940368
-0.0105465,0.0607158
-0.0617184,-0.0184022
-0.062372,-0.0192692
-0.0353266,-0.0235383
0.00239613,0.00546673
0.0268581,-0.0280488
0.0190323,-0.00307409
-0.00217731,0.10305
0.00473457,0.0314287
0.00315605,-0.0234152
-0.00685371,-0.0211333
-0.0177131,-0.00617776
0.00475421,0.0382226
0.0244026,0.0321421
0.034556,-0.0115744
0.0441596,-0.0300505
0.0214115,-0.149209
-0.00191756,-0.126974
0.00961391,0.0682248
-0.00612192,0.047367
-0.0328931,-0.0580367
0.00442458,-0.0628291
0.0328271,-0.0586807
-0.0166943,-0.00836592
-0.0662125,0.0722318
-0.0550967,0.130406
-0.034657,0.0705394
-0.00829829,0.065554
0.0117604,0.0660056
0.0256952,0.0264743
0.0208563,0.0118181
0.0440467,0.0571413
0.056814,0.0375862
0.051464,0.00911631
0.0201777,-0.0193082
-0.0437383,-0.0708765
-0.0810198,-0.0708477
-0.0430563,-0.0408512
0.027922,-0.0552334
0.106543,-0.0548647
0.12276,-0.00959244
0.0755655,-0.010692
0.0303497,-0.0649416
-0.0507006,-0.0247505
-0.0726716,0.101879
-0.09133,0.0111219
-0.101207,0.00146351
-0.0790951,0.00928466
-0.0404205,0.0194942
-0.0148739,-0.0453895
-0.0278354,-0.0707365
-0.0252646,-0.0157351
0.00100516,0.0454426
0.0102769,0.0468847
0.0512943,0.0874774
0.073823,0.0436097
0.0413131,-0.000130102
-0.00226211,-0.0118066
-0.0231425,0.0163384
-0.00351721,-0.0367875
0.0508921,-0.00537821
0.0676288,-0.00161601
0.0788994,-0.0286338
0.055856,-0.0213976
-0.0158883,0.0134437
-0.077215,-0.00602996
-0.0857446,0.0117204
-0.0479123,0.00975232
0.00599298,-0.0303608
0.0409843,-0.0646793
0.0323668,-0.0603526
-0.0201547,-0.011159
-0.0864213,0.0665091
-0.0812176,0.0927216
-0.0261069,0.0198612
0.0110035,-0.0175852
0.0660334,-0.0153534
0.0801027,-0.0035697
0.026844,0.00780785
-0.0137864,-0.00439919
-0.0283141,-0.0335931
-0.0258397,-0.0253604
-0.00729395,0.0346254
0.00393631,0.0418586
-0.0269727,-0.0166597
-0.0299105,-0.0222498
0.00172991,-0.00872778
0.0239763,-0.0312252
0.066824,0.0764163
0.0836929,0.0485481
0.0460991,-0.0452172
0.0155914,-0.0267452
0.0168452,-0.00338973
0.0145561,0.00617205
0.026821,-0.00397481
0.0165227,-0.0226956
-0.0343216,-0.00623241
-0.100517,0.00919724
-0.103032,-0.0183706
-0.103787,-0.0334797
-0.0289079,0.0409894
0.0345024,0.0320619
0.0461104,0.0211171
0.0246346,-0.0340485
0.0184833,-0.0543222
0.0222055,-0.0326476
0.00493425,-0.0229495
0.00673286,0.0309067
0.0448029,0.0490759
0.0470917,0.0853893
0.0162713,0.0671036
0.00349494,0.0176359
-0.00474706,-0.0484151
-0.0237513,-0.0776338
-0.0231367,-0.0532226
-0.0322162,0.0119928
-0.0467202,0.0246462
-0.00316132,0.0428878
0.076894,0.0708076
0.0595763,0.0666735
-0.0255186,0.0264811
-0.133462,-0.0139572
-0.173608,-0.0283533
-0.0785699,-0.103964
0.0835677,-0.137837
0.195778,-0.0761687
0.169095,0.0326119
0.0480851,-0.0711045
-0.0186103,-0.0019257
-0.050697,0.0981614
-0.0501991,0.134764
-0.0773533,-0.00792323
-0.0507384,-0.041202
-0.0115552,0.0178113
0.00319352,-0.0178215
0.00707626,-0.00383437
0.0160136,0.0457924
0.0161814,0.049391
-0.00475337,0.0325159
-0.0307642,0.00899582
-0.0449195,-0.00427885
-0.0410249,-0.00419567
-0.00888436,-0.00471565
0.0248831,0.00695206
0.0377942,0.017607
0.0317351,0.0644741
-0.00374702,-0.0343425
-0.0228717,-0.0788837
0.00706096,-0.0434189
0.0259987,-0.057114
0.0274952,-0.029951
0.042599,-0.018896
0.0474263,0.00430791
0.0410516,0.0186193
0.0137821,0.0137714
-0.00736831,0.00690938
-0.0266451,-0.00184264
-0.0529552,-0.0142122
-0.0586803,0.0132526
-0.0389431,0.0133787
-0.0111215,-0.0432537
-0.0282621,-0.0417312
-0.0490303,-0.0306606
-0.0119455,0.0384874
0.0571636,0.0596848
0.11867,0.0303595
0.161118,0.0103593
0.145492,-0.0246097
0.0631845,-0.00324334
-0.0328781,0.0654409
-0.110928,0.0327408
-0.120528,-0.0139059
-0.0710564,0.0193895
-0.00448094,-0.00885198
0.0170805,-0.0717037
-0.00529407,-0.043399
-0.0298172,0.00412388
-0.0462666,0.0444884
-0.0659523,0.00889091
-0.0570948,-0.0102248
-0.0326328,-0.00174618
-0.0219809,0.00232568
-0.012552,-0.0289946
0.0078297,0.0358644
0.0159956,0.0434549
0.0372092,-0.0147191
0.052493,-0.0426391
0.0587681,-0.00204226
0.053152,-0.0145757
0.0715371,-0.00754095
0.0820959,-0.00794883
0.0336955,-0.0755983
-0.0040553,0.0191241
-0.0609131,0.104403
-0.0661354,0.0941228
0.00208819,0.051282
0.00521489,0.0359339
-0.0595576,-0.0049625
-0.0931009,-0.0344385
-0.0672838,-0.0100719
0.00124039,-0.158324
0.0907933,-0.13868
0.0563502,-0.100577
0.0374414,-0.0633177
-0.00905978,0.116204
-0.0736121,0.172235
-0.0720073,0.0835553
-0.0335001,0.03397
0.0143483,-0.0100653
0.0192991,-0.0599355
-0.00783595,-0.0732958
0.0177565,0.0389044
0.0725665,0.0437217
0.0805523,0.0455674
0.0455243,0.0109314
-0.0188394,0.00149727
-0.09561,0.00672092
-0.125668,-0.034096
-0.095736,-0.00075689
0.031653,0.0393798
0.147301,0.000915684
0.175516,-0.0632926
0.117671,-0.0921538
0.0542808,-0.0226535
0.0172947,0.0343984
0.000587354,0.042241
-0.0127387,0.0122003
0.0316789,0.0061162
0.0234951,0.0033169
-0.00618729,-0.0174907
-0.0839083,-0.0159306
-0.106163,-0.0118833
-0.0581107,-0.0113434
-0.0291797,0.0161404
-0.0515114,0.0267977
-0.0661129,0.0312701
-0.0659075,0.0724588
-0.0778101,0.0172172
-0.0885746,-0.0571119
-0.0711806,-0.0205406
-0.0565129,0.00869438
0.0114711,-0.00368133
0.0603693,-0.0158935
0.0557448,-0.00814573
0.0364807,-0.000243782
0.030105,0.0145682
0.0324955,-0.0208886
0.0616193,-0.0298587
0.0779204,-0.0229206
0.0610071,-0.0392555
0.033069,-0.048953
0.0093694,-0.0330452
-0.00449255,0.0374547
-0.0103292,0.00102339
0.0112413,-0.0474617
0.0291594,-0.00704504
0.0065735,0.130199
-0.0290863,0.0573167
-0.0178093,0.00130739
-0.0114655,-0.0041093
-0.00551391,-0.00979104
0.0162169,-0.0203683
0.0415338,0.0232339
0.0292326,0.044248
-0.0147062,-0.0449993
-0.0203018,-0.0222025
0.0084898,0.0211838
0.00999676,0.0178105
-0.0240419,-0.0143778
-0.0425182,-0.00217885
-0.0279798,-0.00553433
-0.00192407,0.0541186
0.000921581,0.0265602
0.0121827,0.0228345
0.0137237,0.00159674
-0.00287729,-0.0447086
-0.0206599,-0.0609359
-0.0174839,-0.0228131
0.00247272,0.0435304
0.0251585,0.0503764
0.0251085,-0.00357415
0.0216196,-0.0461164
0.0182334,-0.0119757
-0.00761159,0.0398413
-0.044743,0.0213782
-0.0388706,-0.0548671
-0.0243981,-0.106019
-0.00272761,-0.0688511
-0.00276199,0.00912942
-0.0359443,0.0655155
-0.0574606,0.0522193
-0.0668887,0.005365
-0.0343925,-0.0148784
0.0272085,-0.00111772
0.0723969,-0.0137185
0.121179,-0.00800408
0.127148,0.0386977
0.128021,0.0528021
0.157185,0.0705443
0.0978885,0.0197902
-0.0177535,0.0274675
-0.124167,-0.0215373
-0.190245,-0.0429403
-0.166089,-0.0214598
-0.0895815,-0.0520169
-0.020143,-0.0643856
0.00175924,0.0659491
-0.00969003,0.0527721
-0.00185903,0.0105825
0.00833788,0.0105897
0.0043568,-0.0060209
-0.0100412,-0.0357941
-0.0334528,-0.040255
-0.0613471,-0.0368017
-0.0294855,-0.0286275
0.0283364,-0.000345329
0.0712499,-0.00826306
0.10006,-0.0428748
0.0994593,-0.0212647
0.0538116,0.0152557
0.00877781,0.0716104
-0.0119024,0.0501641
-0.0222366,0.0215022
-0.0368611,0.0273823
-0.0191902,0.00943499
0.0119705,-0.0126714
0.00472526,-0.0423449
-0.0428772,-0.0276976
-0.07378,0.00586344
-0.0591801,-0.000518698
-0.0426244,0.0269438
0.000694007,0.034291
0.040265,0.0209706
0.0451533,-0.0223821
0.0570451,-0.0140518
0.0729554,0.0162394
0.0573463,-0.000173938
0.0311549,-0.037363
0.0142947,-0.0149076
-0.00584748,0.0376752
-0.0338965,0.01157
-0.0330606,-0.0225156
-0.0190159,-0.0103823
-0.0205297,-0.0194463
-0.027776,-0.0305554
-0.0239272,-0.0404107
-0.0208679,-0.0241411
-0.0048768,0.0164845
0.0309882,0.0580987
0.0175251,0.0517992
-0.0204839,0.0119418
-0.0172642,0.00501301
-0.0203846,0.0131232
-0.0171388,0.0255875
0.0448256,-0.0249007
0.0764016,-0.0583441
0.0498222,-0.0172241
0.0371291,0.00629185
0.019363,0.0170089
-0.015419,0.0105663
-0.0145957,0.00421629
0.00263157,-0.024146
-0.00303559,-0.00313273
-0.0304079,0.015895
-0.0632781,-0.0116573
-0.0692975,0.0601801
-0.0502173,0.0407158
-0.00504437,-0.0794553
0.0182929,-0.111638
0.00337246,-0.0558414
-0.0162076,0.0335249
-0.0299712,0.0236692
-0.0325743,0.0600593
0.0207019,0.0391002
0.0965552,0.0420498
0.122613,0.0403564
0.0603649,0.0134444
-0.0574308,-0.00740836
-0.102193,-0.0274627
-0.0358682,-0.0436931
0.0187358,-0.0143675
0.0347309,0.0507853
0.0117368,0.0328787
-0.000544731,0.014697
-0.00391319,-0.00501326
-0.00902235,-0.0200281
-0.00558124,-0.0416572
0.0166776,-0.00938492
0.0428784,0.004934
0.0306517,-0.000672584
-0.0096625,0.00598035
-0.0487418,-0.0102034
-0.0605923,-0.0215621
-0.0536837,-0.0279465
-0.0360475,-0.00335932
-0.0169395,-0.0225186
0.0169626,-0.0299235
0.0572725,-0.00292951
0.0774128,0.0246946
0.0790083,0.0201208
0.0562492,0.00573345
0.0147403,0.0043241
-0.0405876,0.0221086
-0.0745814,0.0345846
-0.0866573,-0.0241093
-0.0921144,-0.00095553
-0.0534645,0.0443166
0.0304208,0.0136934
0.0688443,-0.0340918
0.036124,-0.0625764
0.0131145,-0.0315668
0.0135586,0.0141655
0.00818215,0.0262147
-0.00560467,0.00406273
-0.0115223,0.000259341
0.00567484,0.00964403
0.0212965,0.0111778
0.0159802,0.00684182
0.00723261,0.00251503
0.00388102,0.0114836
-0.0129903,0.0114001
-0.0383847,0.00253905
-0.0317551,0.000585092
-0.0207019,-0.00334403
0.0195603,-0.00780558
0.0541758,-0.00929912
0.0158413,-0.013655
-0.0113939,-0.0137792
0.0228289,-0.00858517
0.0312476,-0.0154664
0.00690229,-0.000867544
-0.00756636,0.0206834
-0.00587695,0.0246418
-0.00397049,-0.00127257
-0.0134233,0.00955206
-0.0243276,0.0358321
-0.0286295,0.0217854
-0.0142943,-0.00818775
0.0185604,-0.0370539
0.0688395,-0.00895945
0.0650469,0.0166712
0.0202181,0.00543635
0.0071134,-0.0407079
0.00946054,-0.00760889
0.0275982,0.0210471
-0.0249383,0.000994336
-0.0564752,-0.0494483
-0.0354392,0.00544019
-0.0143002,0.0376385
-0.0149395,0.0424346
-0.0180336,0.00226886
-0.0274427,-0.0256237
-0.0273686,-0.0199702
-0.0114015,-0.0380568
0.00606923,-0.0127722
0.0183379,0.00192985
0.0148592,0.0374415
-0.0288776,-0.020895
-0.0584014,-0.0931459
-0.0471366,-0.0595373
-0.0428025,0.0334038
-0.0140552,0.0107621
0.0217904,0.0592995
0.0471598,0.0568397
0.0359704,0.0189871
0.0408241,0.0240654
0.0788579,0.0270551
0.0793878,0.0115714
0.0109118,0.0278848
-0.00953945,0.0565383
0.012952,0.0401316
0.0415478,-0.0176794
0.0280422,-0.0655605
-0.0207721,-0.0783468
-0.0618288,-0.0213022
-0.0698277,0.0381242
-0.068923,0.0328321
-0.031031,0.031215
-0.0127007,-0.0357787
-0.0295684,-0.0670581
-0.0304486,-0.114112
0.00831335,-0.0789795
0.021077,0.00211738
-0.0113434,0.0364794
-0.0245739,-0.00510086
0.0503296,0.00486916
0.118672,0.0586683
0.131183,0.0715115
0.0942569,0.051653
0.00452116,0.0326453
-0.0666681,0.0246672
-0.0764855,0.0566101
-0.0623301,0.0132368
-0.0253187,-0.0253519
0.0172053,-0.0229618
0.0409769,-0.0170434
0.0124982,-0.00646254
-0.0300004,-0.0177802
-0.0710165,0.0233222
-0.0888816,-0.00562312
-0.0661362,-0.0354313
-0.0243102,0.0165695
0.00841134,0.00572106
0.0258838,-0.00819539
0.0254981,0.0030054
0.0328848,-0.0543896
0.0358915,-0.115249
0.0401025,-0.0815399
0.0676487,0.0781822
0.0593634,0.122007
0.0302297,-0.040347
-0.0187096,-0.18727
-0.0518234,-0.0977911
-0.0543118,-0.019044
-0.0664497,0.0577262
-0.080496,0.130843
-0.0575217,0.102623
0.00320217,0.0838269
0.052799,0.0671445
0.0745055,0.0174931
0.0533837,-0.0277213
0.0191156,-0.0174456
0.000779853,-0.00600313
-0.0139206,-0.0190103
-0.0285298,-0.0043701
-0.019606,0.00621933
-0.00104392,0.0246221
0.0207791,-0.0115261
0.033589,0.0392505
0.0140308,0.0475966
0.00916712,-0.015162
0.0199813,-0.061895
0.037894,-0.115743
0.050664,-0.0931093
0.0624437,0.0194574
0.0472114,0.0993491
0.0347614,0.0673089
-0.00202369,-0.0388916
-0.0659292,-0.0917036
-0.0952718,-0.023066
-0.0737646,0.0433272
-0.0294404,0.0191081
0.00428974,-0.00957191
0.00935679,0.0560883
-0.0147341,0.0518888
-0.0430648,-0.0467472
-0.0233155,-0.0613354
-0.00197483,-0.0335055
-0.00206677,0.00863839
-0.0141035,0.00372766
-0.0152903,0.00612128
-0.00346439,0.020823
-0.00156677,0.0197621
-0.00278348,-0.0147304
-0.0013522,-0.00990186
0.00424648,0.0377241
0.00431845,0.0565721
0.00221327,0.00316181
0.00655965,-0.0473384
0.0131717,-0.0430673
0.0196027,-0.0140721
0.014688,0.0566375
0.0119457,0.0523015
0.0103653,-0.0164576
0.00922963,-0.016257
0.00594185,-0.00439195
0.0171716,-0.00281514
0.0330316,-0.0340652
0.0328259,-0.0388698
0.00724363,-0.0177192
-0.0175046,0.0443874
-0.0129094,0.0288257
-0.00980028,0.00820752
-0.0109192,0.0511968
-0.00340545,0.0457709
-0.00561352,-0.0269025
-0.0162812,-0.0716757
-0.0444444,-0.0520784
-0.049497,-0.0145362
-0.0452159,0.0493108
-0.0451987,-0.00621163
0.00671202,-0.0119528
0.0620583,0.0318399
0.0320817,0.0240991
-0.0276608,-0.0135989
-0.0369025,-0.0144461
0.016836,-0.0125868
0.0615603,0.0054247
0.0745272,0.0296448
0.0542426,0.0145175
0.00493225,-0.0583019
-0.0204015,-0.0797236
-0.0208263,-0.0310496
-0.00744816,0.0239073
0.0188972,0.00615366
0.0329188,0.0191907
0.0262078,0.029352
0.00684404,0.0306239
-0.0160069,0.0375819
-0.0368017,0.0286592
-0.0401188,0.00639145
-0.0112799,-0.0220649
0.0127656,-0.0297385
0.0138696,-0.00740286
0.00515507,0.0271698
-0.00302278,-0.0102187
0.000702723,-0.0485719
-0.0114956,0.00624646
-0.0445873,-0.0144343
-0.0333088,0.0219479
-0.00790724,0.0631588
-0.0104095,-0.00820824
0.00967916,-0.0139657
0.0396399,-0.0110337
0.0392257,0.0146947
0.0249424,0.0146284
0.00420812,-0.00196836
-0.0170766,-0.00377561
-0.0154712,0.001014
-0.00988906,0.00919799
-0.00974859,-0.0033706
-0.00647605,-0.00920365
0.00203963,-0.00383925
0.00718726,0.00189011
0.0279106,0.00438062
0.0171014,0.0144132
-0.011361,0.0178146
-0.021716,0.0350052
-0.0386886,-0.033923
-0.0543189,-0.0613856
-0.0427164,-0.0252723
-0.0261784,0.000124626
-0.0145581,0.0288207
0.000692037,0.00444504
0.0215317,-0.0458542
0.0451991,-0.0730283
0.0684438,-0.0464094
0.0579804,0.0405945
0.026914,0.0364215
0.00914872,0.0257148
0.00325498,0.0359007
-7.66e-05,0.0306502
-0.00133344,0.0044998
0.0128626,-0.00679792
0.0224482,0.00673045
0.0234297,0.0262619
0.0247483,0.0263659
0.0148924,0.0149824
-0.000873186,0.000268842
-0.0124547,-0.00227162
-0.0216533,-0.0194288
-0.0400413,-0.00166774
-0.0504509,0.0228197
-0.051895,-0.00811685
-0.0436903,-0.0432184
-0.0245562,-0.0532585
-0.008836,-0.00392928
-0.000795613,0.014556
-0.0100144,-0.00320516
-0.0281002,-0.0189645
-0.0252597,-0.0158429
-0.0051027,-0.000493813
0.0205487,0.0160674
0.0374259,0.0166571
0.0351498,-0.00530149
0.0240356,-0.0407797
0.0282215,-0.0642173
0.0296044,0.0232591
-0.00154593,0.0404133
-0.0259237,0.0347871
-0.0112314,0.00060144
0.00758336,-0.0141907
0.0172731,-0.000172284
0.0161247,0.0134917
0.00738695,0.0106186
0.0098879,0.0186546
0.0130228,0.0204716
0.0124475,0.0143946
0.0107598,0.0112667
0.00878771,0.00623375
-1.78e-05,-0.0225746
-0.0133365,-0.0252261
-0.0222924,0.00476309
-0.0206115,0.00706533
-0.0115377,-0.0150132
-0.0129375,-0.0256674
-0.0163217,-0.0124532
-0.0144573,-0.00213584
-0.0160052,0.0074437
-0.0176996,-0.00168169
-0.0273059,0.00360829
-0.0318565,0.00101377
-0.0228093,0.00259999
-0.00454841,-0.000126342
0.01785,-0.00937634
0.0338548,0.021674
0.0450639,0.0522399
0.0473259,0.0254321
0.0379109,-0.0400387
0.0122691,-0.0312115
0.00312707,-0.0258705
0.00905232,-0.0268934
-0.000548738,0.00298938
-0.0208327,0.00771998
-0.0204479,0.00748429
-0.0116003,-0.0114849
-0.00358859,-0.00809006
0.00114729,0.0235824
0.00303829,0.0792401
0.00320395,0.0275039
0.0119091,-0.0142531
0.0140789,0.00290195
0.0129689,0.0191499
0.00864361,-0.0203976
-0.00183451,-0.029756
-0.0176295,0.00480912
-0.0216626,0.0517192
-0.0165417,0.0332204
-0.0105822,-0.0032241
-0.0117468,-0.0485209
-0.00556518,-0.0644319
-0.00358651,-0.0610892
0.00434845,-0.0184659
0.00506196,0.0265788
0.0101448,0.051224
0.0150859,-0.00146563
0.0132664,-0.0229795
0.017358,-0.0137328
0.0225654,-0.0130213
0.0146217,0.0306149
-3.27e-05,0.0168987
-0.00315227,0.00336214
-0.0200899,-0.0137237
-0.0507404,-0.0245845
-0.0808959,-0.0157
-0.0912313,0.00200483
-0.0568155,0.0396118
-0.00240255,0.00954554
0.0355235,0.00681255
0.0374585,0.00797191
0.0304852,0.0257921
0.0107384,-0.0123848
0.0178041,-0.0334857
0.0500111,-0.0221069
0.0433464,0.00179817
0.0296747,0.0127843
0.0275429,0.00233342
0.0229387,-0.0122756
0.022754,-0.0281748
0.0216916,0.0103202
0.029231,0.00305577
0.0262036,0.00361484
-0.00788218,-0.000507568
-0.0270146,0.0265853
-0.0316627,0.0169177
-0.0210882,-0.00567939
0.00116422,-0.0067499
0.00292016,-0.00747647
-0.00864126,0.00636705
-0.0114168,0.0728283
-0.0213319,0.021159
-0.0300728,-0.0395284
-0.0230087,-0.0175962
-0.0162058,-0.016935
-0.00272531,-0.00212575
0.00105145,0.0203823
-0.00279203,0.01558
0.000289401,-0.00228059
0.0130768,-0.0089171
0.0150155,-0.023655
0.0197168,-0.0240019
0.00549736,-0.0312506
0.000926908,-0.000600523
-0.00477805,0.0249568
-0.00924898,0.0138257
-0.00482549,0.00996964
-0.000491201,0.0102025
0.00469036,0.0313402
0.00542481,0.0200562
-0.000568093,-0.0163123
-0.00680941,-0.0191984
-0.0105233,-0.030271
-0.0133247,-0.0219821
-0.00876071,0.00382126
0.00421387,0.00639155
0.0115012,-0.00223778
0.00216864,-0.00841885
-0.00391496,-0.0138374
-0.00858592,-0.0144201
-0.0146375,-0.00616247
-0.017374,0.0028623
-0.0123597,0.0112037
-0.0138747,0.0149242
-0.0109178,0.00901054
0.0132408,0.000694358
0.038099,0.000943508
0.050541,-0.00069661
0.0392375,-0.00249249
0.00474205,-0.000908547
-0.0279577,0.00552156
-0.0218977,-0.00389241
-0.0148119,-0.0141035
-0.0148831,-0.00623151
-0.0174657,0.000297443
-0.0488502,0.00607668
-0.0721138,0.012471
-0.0578349,0.0218449
-0.00541004,0.0236013
0.0673212,0.0159101
0.13746,0.0164165
0.168696,0.00922354
0.137479,-0.00180357
0.0636271,0.00995259
-0.00785176,0.0107219
-0.0601667,9.54e-05
-0.105274,0.00162004
-0.143767,-0.00794952
-0.140413,-0.0196302
-0.0754229,-0.0261589
0.000273006,-0.0317657
0.0262266,-0.0290387
0.0412868,-0.0200415
0.00382827,-0.00702648
-0.0737234,0.00221584
-0.0562501,-0.00382416
0.0185602,-0.0090969
0.0859277,-0.00965378
0.128126,-0.000835157
0.12974,0.0011588
0.0995657,0.0141039
0.0383311,0.0150186
-0.0638471,0.00924189
-0.159832,0.00994384
-0.14097,0.0075186
-0.0572975,0.00334378
-0.0114605,-4.36e-05
0.0606381,-0.0081627
0.159148,-0.00710591
0.16329,-0.00331183
0.0913442,0.0127526
0.0620852,0.0232647
-0.00712433,0.0192961
-0.16781,0.0204431
-0.358574,0.024995
-0.307056,-0.00035488
-0.133074,-0.028215
0.0685132,-0.0332812
0.106355,-0.00810208
0.10669,0.00381364
0.178704,0.0105871
0.196279,0.0231563
0.18276,0.00686033
0.175112,0.00613657
0.0159019,0.00147017
-0.18033,-0.00386955
-0.107958,-0.00854651
0.0719753,-0.0074066
0.0763179,-0.00225828
0.00350435,-0.0129327
-0.0050537,-0.0150925
0.00915785,-0.00882147
-0.0454384,-0.0146115
-0.263537,-0.0090469
-0.407996,0.00696452
-0.277015,0.00582676
-0.0472722,-0.00354848
0.145911,-0.00488801
0.286417,-0.00514131
0.33408,0.00510875
0.157597,0.0048082
-0.0777959,0.00388295
-0.175352,0.0144506
-0.0843192,0.0127497
0.0497365,0.000430529
0.0895223,-0.00440179
0.236193,-0.00464294
0.266003,-0.00524832
