Comp Ch 3,Comp Ch 4
-0.244583,0.000775715
-0.240201,0.0200689
-0.120251,0.0123245
-0.143092,-0.00925353
-0.121763,-0.0237064
-0.0672128,-0.138748
0.094947,-0.0403839
0.0709664,-0.0884643
-0.0706471,0.0359188
-0.177063,-0.00379745
-0.212107,0.00499068
-0.0907919,0.0141206
0.0890684,0.0282404
0.225564,0.0388862
0.198779,0.0206272
0.20823,0.054203
0.198258,0.0223266
0.00954575,0.00371797
-0.146216,0.0438415
-0.175443,0.068967
-0.107914,0.0698056
-0.0655652,0.0298152
-0.0641997,-0.0299063
0.00761699,-0.0971309
0.099014,-0.0490069
0.127911,0.0195544
0.0993128,0.00361627
0.0672161,-0.0477948
0.00188333,-0.0382233
-0.101922,-0.169008
-0.0481796,-0.182415
-0.0432094,-0.0476183
-0.0756461,-0.0095084
-0.017273,0.0390835
0.0338615,0.177885
-0.0627172,0.351435
-0.183308,0.0398668
-0.165277,-0.0224371
-0.043433,0.0791335
0.0143383,0.0583161
-0.0547683,0.0235731
0.0133892,0.00162524
0.219073,-0.050718
0.43669,-0.0209014
0.32441,-0.0353839
0.131973,-0.123575
-0.0477932,-0.141659
-0.227642,-0.119552
-0.197458,0.0303956
-0.139107,0.0646932
-0.0616502,0.0226781
-0.0481017,0.12406
0.157332,0.112026
0.197087,0.0965003
0.0285069,-0.000810842
-0.0952683,-0.125938
-0.023972,-0.180744
-0.0146338,-0.201908
-0.116479,-0.148227
-0.063299,0.0609627
-0.0226086,0.0792343
0.0350448,-0.00393099
0.0448365,0.109271
-0.00435449,0.137647
-0.0270102,0.100327
-0.0237771,0.0569459
-0.0223608,0.0239237
-0.0555237,-0.0429848
-0.00485964,-0.0736792
0.0462052,-0.0461258
-0.029364,0.00396249
-0.0863875,0.0589848
-0.0578102,0.0363999
-0.0165646,0.0548376
0.000495554,0.0231102
0.0270453,-0.0254299
0.0900242,0.03269
0.09085,0.0265585
0.0667763,0.0279468
0.0429568,-0.000346987
-0.0191213,-0.0871587
-0.0443845,-0.0605044
-0.0650992,-0.00112251
-0.0373623,0.0223595
0.00736883,-0.0228529
-0.00523452,-0.0660817
-0.0367267,-0.105777
-0.0610344,-0.0931978
0.0760655,-0.0717574
0.122975,0.0256183
0.0701313,0.0761777
-0.00810496,0.0890979
-0.0485957,0.102107
-0.0406477,0.0381008
0.0416735,-0.101364
0.0642678,-0.170877
0.0373843,-0.113585
0.0632996,-0.0985161
0.108944,0.0395381
-0.0847541,0.168295
-0.266759,0.183694
-0.206966,0.135703
-0.11069,0.118769
-0.0332618,0.0971742
0.0817155,-0.00359287
0.109897,-0.0650241
0.150699,-0.0856238
0.263486,-0.0506348
0.244515,-0.0157395
0.0521908,-0.0164861
-0.105214,0.00963977
-0.0709418,-0.0383804
-0.0477118,-0.12602
-0.0922879,0.0195941
-0.0586098,-0.0173479
-0.0879653,-0.120329
-0.122746,-0.0721136
-0.247375,-0.0546876
-0.153546,-0.163646
0.0893966,0.00317054
0.110236,0.132085
-0.0780931,0.222081
-0.154658,0.143627
0.0989823,0.0467279
0.411081,0.0585884
0.341809,0.0365886
0.0591128,0.0050696
-0.260986,-0.00946669
-0.241262,-0.0383463
-0.0455205,-0.0575099
0.121388,0.0134768
0.173138,0.0130915
0.117274,-0.0122354
0.0417197,0.0237361
0.0121786,-0.00357305
-0.0560507,0.0237653
-0.116439,0.0140311
-0.0675428,-0.0713012
0.0224416,-0.0468467
0.0130775,-0.0330647
-0.0667187,-0.021059
-0.142832,0.0229231
-0.130641,0.0509175
-0.038771,0.0238485
0.0397343,-0.013528
0.0733366,-0.013012
0.0327595,0.00742421
-0.0240666,0.0331639
-0.0592673,0.0552028
-0.0339645,0.0215169
0.113962,-0.00317384
0.219049,-0.0695685
0.0730226,-0.163766
-0.045222,-0.214308
-0.00983268,-0.0574181
0.0622039,0.0732668
-0.0448902,-0.032313
-0.136062,0.0166748
-0.126439,-0.0519444
-0.0885962,-0.0956845
-0.0452401,0.0307344
0.023199,0.134327
0.0856368,0.134358
0.100103,0.0698327
0.0638707,0.0620578
0.0183761,0.0044916
0.00761431,-0.0280678
0.0586449,-0.146725
0.05934,-0.215228
-0.0307833,-0.0665878
-0.0497748,0.0904296
-0.030197,0.229724
0.0312803,0.298939
0.0227198,0.296014
-0.0469218,0.1191
-0.0997291,-0.00659802
-0.0699361,-0.0458302
0.0197919,-0.103879
0.0616026,-0.0678317
0.0914222,0.0915539
0.0286016,0.0259659
-0.0601088,-0.0528118
-0.104515,-0.0384188
-0.0323487,-0.0679161
0.049775,-0.0250645
0.026704,-0.010062
0.00847861,-0.050129
0.0934926,-0.0822007
0.0975074,-0.0984815
-0.0591452,0.0163962
-0.138944,-0.0254975
-0.137426,-0.150911
0.0174998,-0.174881
0.108673,-0.137687
0.0490112,-0.0912621
-0.0169862,-0.0518436
0.0163038,0.0698303
0.126127,0.18598
0.0851216,0.169614
-0.0259635,0.0666577
-0.0126975,0.0848774
-0.0157158,0.0755804
-0.0315218,0.0706105
-0.0265154,0.0519184
0.00803716,-0.0904027
0.0345338,-0.208069
0.00772086,-0.14397
-0.0500126,0.0127639
-0.0714007,0.00569851
-0.0405851,0.073713
-0.000669437,0.124821
0.0163353,0.0258162
-0.00923227,-0.161057
-0.0306446,-0.121772
-0.012594,-0.085392
0.0081068,-0.0406463
0.0274339,0.0795251
0.028057,0.171088
0.0067366,0.193055
-0.0071139,0.126744
-0.0729443,0.00205
-0.16643,-0.0644512
-0.100936,-0.012286
0.0342605,0.0461015
0.12417,0.0240315
0.114899,-0.0476316
0.0698586,-0.0127607
0.0491679,-0.00597756
0.0263713,-0.014451
-0.054529,-0.019359
-0.134404,-0.0329831
-0.122161,-0.0176086
-0.0962338,0.0529619
-0.210643,0.0851938
-0.173723,0.10432
0.0898361,0.0338267
0.311629,0.0583239
0.424848,-0.0455053
0.288134,-0.104827
0.0984038,-0.0692987
0.0294786,-0.0896905
-0.0493833,-0.0367207
-0.158944,-0.013339
-0.134251,-0.0595956
-0.029162,-0.062274
-0.00475581,-0.00198223
-0.0498144,0.0190405
-0.0552265,-0.0572254
-0.00918587,0.0177427
0.040666,0.0223974
0.0479705,-0.00248762
0.00549501,-0.0777184
-0.0689957,-0.118929
-0.085479,-0.0304594
-0.0109654,0.115312
0.0411902,0.113945
0.00369734,0.0283502
-0.0385787,-0.00419164
-0.0697163,0.0121653
-0.0583469,0.105132
-0.020419,0.0563223
-0.0200688,0.00876158
-0.0519301,-0.0427422
-0.000352313,0.0211259
0.103989,-0.000697248
0.14437,-0.156143
0.0620647,-0.0421345
-0.0829481,0.0580535
-0.069305,0.115647
-0.000720186,0.0940937
0.00940359,0.130212
0.0206707,0.135653
0.0511626,-0.00283147
0.0523531,-0.0391574
-0.00740642,-0.0794066
-0.00383974,-0.0728169
0.0402991,0.0246531
0.0714228,-0.0457178
0.0294199,-0.0299892
-0.056121,-0.00878082
-0.0939713,-0.0377494
-0.069123,-0.0499917
0.0158435,-0.00669261
0.0603752,0.00898748
0.0310852,-0.0242461
-0.0284316,-0.0122155
-0.0704617,0.00836999
-0.0144976,-0.0490611
0.0287673,-0.0752244
-0.00164546,-0.0327284
-0.0296251,-0.00186587
-0.0492459,0.0298813
-0.0547664,0.0210553
-0.0311266,-0.0130142
0.0278073,0.0336229
0.071256,0.0506057
0.0529472,0.00773774
0.0412159,-0.0518665
0.057552,-0.0492466
0.0376764,0.00104027
-0.0451393,0.0281449
-0.110053,0.0529211
-0.088498,0.0575461
0.0380204,-0.0646425
0.140279,-0.14182
0.0964524,-0.0250254
0.0200468,-0.0674523
-0.034365,-0.0396958
-0.141622,-0.00670568
-0.173786,0.047934
-0.0257015,0.18647
0.147577,0.085207
0.130809,0.0570685
0.0312406,0.0417407
0.0136526,0.0782241
0.0897315,0.0371552
0.0585872,-0.0509697
-0.0329063,-0.026107
-0.0947597,0.0482449
-0.0975005,0.00829379
-0.0490743,-0.022492
-0.034968,-0.0451889
-0.0407629,-0.00526905
0.0482799,0.00468349
0.0572642,-0.0412798
-0.0485436,-0.0920497
-0.125007,-0.137837
-0.117318,-0.0771316
-0.0153461,0.00447638
0.0822703,-0.0447521
0.1059,-0.034614
0.0631385,-0.00719807
0.0481184,0.0445251
0.0463794,0.0351214
0.0437208,-0.0332032
0.00962191,0.037576
-0.0390669,0.107503
-0.0483302,0.0606109
0.0122165,0.0159159
0.0600865,0.133768
0.0471439,0.12112
-0.00724146,0.116617
-0.0490589,-0.00568011
-0.0194076,-0.0619986
-0.0116962,-0.0362057
-0.0295904,-0.0922268
-0.0480122,-0.0562785
-0.0324316,0.0448368
0.00346855,0.0185582
0.0308903,-0.057512
0.0396753,-0.0156511
0.0039181,0.0243857
-0.0891075,0.0260149
-0.101366,-0.040038
0.0231899,0.0195916
0.101778,0.10396
0.0745624,0.00131469
0.0485177,-0.0151145
-0.0415291,-0.054373
-0.10182,-0.0236234
-0.0846358,-0.00912306
-0.0388854,-0.0739336
-0.0361248,-0.134904
-0.000822704,-0.13691
0.108417,-0.125075
0.224059,-0.034986
0.171873,0.108072
0.0309287,0.00154681
-0.0787202,0.0220712
-0.140919,0.0608444
-0.113762,0.0646577
-0.073959,0.0503441
-0.0587175,0.0471046
-0.0255991,0.0543129
0.0545419,0.168388
0.0503512,0.124117
0.0595969,-0.0684768
0.0746712,-0.0152197
0.0397127,-0.0185288
-0.00888293,-0.0574665
0.105342,-0.0958681
0.0517185,-0.0680988
-0.0118488,-0.06524
-0.0357986,-0.0634029
-0.0778805,-0.135665
-0.0906693,0.0575759
-0.0781045,0.105917
0.00499221,-0.0251191
0.0199613,0.0854647
-0.0332982,0.13567
-0.0290709,-0.0205646
0.00327456,-0.0407579
0.0250671,0.0315251
-0.0103097,0.0590163
-0.00418017,0.0127391
0.0151557,-0.0492861
0.00344102,-0.0113254
-0.0398072,0.0189991
-0.0399478,-0.0330101
0.022848,-0.172689
0.089903,-0.030135
0.0895279,0.0641417
0.0390298,0.0207975
0.0166159,0.0604834
0.0160487,0.13806
-0.0192679,0.120192
-0.0249698,-0.0239091
-0.0106502,0.0237631
-0.0194567,0.110224
-0.0161165,-0.0569924
0.0288122,-0.281215
0.0379079,-0.27355
-0.0431615,-0.354142
-0.0851898,-0.234781
-0.0844931,0.126152
-0.0459541,0.321468
0.0203096,0.365181
0.0102493,0.190951
-0.0284791,-0.01327
-0.0238853,-0.0889389
-0.0381169,-0.180985
-0.0219366,-0.0332061
0.0370163,0.156223
0.126848,0.134642
0.0868608,-0.00674413
-0.0087947,-0.0360411
-0.0791949,0.100607
-0.0889299,0.0969888
-0.0429432,0.0594047
0.0620128,0.100587
0.0872052,-0.0252915
0.0752711,-0.171459
0.00704672,-0.149315
-0.0171251,-0.0831221
0.000659105,-0.0182463
0.00457886,-0.127235
0.0186424,-0.148177
0.0328344,0.0866977
0.0319876,0.168274
0.0333569,0.0549515
-0.0163875,0.102933
-0.0655182,0.0908521
-0.0426226,0.0540696
-0.00451533,-0.0255713
0.0903708,-0.0956098
0.154382,-0.0221059
0.103134,-0.0517031
0.00870724,-0.198398
-0.0853992,-0.157802
-0.158383,0.0083588
-0.131735,-0.0264538
-0.0913659,0.0243091
-0.0615338,0.169233
-0.00620424,0.0313515
0.0314757,0.0330853
0.0332583,0.0975648
0.00241397,-0.0222378
0.0119823,0.032299
0.0236614,0.0853324
-0.0182577,-0.000895042
-0.0543851,-0.0752039
-0.0332995,0.0176674
0.0711407,0.0127634
0.101897,-0.0865578
0.0545593,-0.126134
0.0174964,-0.127955
-0.0131416,-0.012616
-0.0566621,0.0729957
-0.0657036,-0.0535298
0.0149507,-0.0781153
0.0517213,0.00573544
0.0313529,-0.0275247
0.00594872,-0.0869296
-0.0266325,-0.0323994
-0.0442954,0.0927697
-0.0378543,0.206752
-0.0443288,0.14919
-0.0297478,0.03997
-0.00582696,-0.112677
0.0131835,-0.055793
0.0240168,0.202818
0.0201299,0.18733
0.0445516,-0.030067
0.0590892,-0.14377
0.0284672,-0.121007
-0.0170724,0.0411181
-0.0152481,0.0379654
0.0241701,0.021524
0.0442911,0.0490504
0.0760294,0.0709541
0.064785,-0.00407082
0.00967095,-0.055074
-0.0279273,-0.0531509
-0.0296039,0.00143475
-0.0215667,-0.00625702
-0.023169,0.0404211
-0.0361859,0.0867258
-0.0872643,0.0504395
-0.097673,0.0270072
0.0115993,0.025304
0.0811077,0.124694
0.00469898,0.091859
-0.0369679,0.0238359
-0.0251641,-0.0537284
0.00710859,-0.154705
0.0391454,-0.0207947
0.0272502,-0.0227764
-0.0272379,-0.15841
-0.0275508,-0.173131
-0.0150778,-0.214563
-0.00975091,-0.149361
0.023301,-0.0316265
0.0157899,-0.014758
-0.00226128,-0.0955866
-0.0069897,-0.205848
-0.00433764,-0.17552
0.000357501,-0.0745946
0.00544432,0.166469
-0.0126563,0.278537
-0.0429661,0.205695
-0.0444792,0.279807
-0.0360913,0.161996
-0.00552795,-0.0609578
0.030755,-0.114682
0.0740112,-0.0395862
0.0951249,0.0156743
0.0714181,0.0708521
0.0425887,0.00954778
-0.0143799,-0.0454714
-0.0765046,0.190742
-0.0654487,0.107027
-0.0160746,0.0351533
0.0192928,0.118996
0.0567193,0.204452
0.0705547,0.0109623
0.0206711,-0.246174
-0.0233526,-0.231816
-0.0363974,-0.265004
-0.0292509,-0.130454
-0.0152046,0.00242811
-0.0205462,0.14256
-0.0501354,0.071537
-0.0591942,0.0531017
-0.0454566,0.128295
-0.0236986,0.190963
-0.00795148,0.0568402
0.00596079,0.0374133
0.0215163,-0.00200835
0.0247083,-0.10678
0.0163266,-0.157424
0.0097497,-0.106649
0.0330178,0.0392158
0.0570617,0.0630625
0.0533008,-0.0537496
0.0599891,-0.107353
0.0460231,-0.0406568
-0.00643504,0.0708495
-0.020028,-0.027553
-0.0257761,-0.00779641
-0.050852,-0.00490315
-0.0400159,0.0476315
-0.00872174,0.0240749
0.0331534,0.0199817
0.0913466,0.0734362
0.114698,0.0376772
0.0320477,0.0305482
-0.0470269,-0.0398007
-0.0846055,-0.161959
-0.122612,-0.215069
-0.0861693,-0.170247
-0.0173161,-0.104083
0.00731284,-0.0129952
0.00519034,-0.0470661
-0.0332413,-0.0391977
-0.0370721,0.0765933
0.0131115,0.0862513
0.0681258,0.182839
0.14763,0.211142
0.130792,0.116299
0.011379,0.0770144
-0.0504535,0.041987
-0.0918759,0.0424539
-0.0242618,0.0914141
0.0213941,-0.0158266
0.00177112,-0.0117355
-0.0855547,0.0415468
-0.136121,-0.0569463
-0.0880949,-0.178362
-0.0456204,-0.233109
0.00515999,-0.067319
0.0237071,0.0574636
0.0463787,0.198643
0.0267915,0.0891734
-0.0617619,-0.0693858
-0.114511,-0.067865
-0.0579641,-0.108005
0.0819844,-0.11973
0.156924,-0.045942
0.208801,0.0529899
0.228168,0.0113698
0.171339,-0.0454001
0.092562,-0.0410532
0.0305719,-0.0671378
-0.0883411,-0.118007
-0.241158,-0.113774
-0.265015,0.0525701
-0.095479,0.0865762
0.0778522,0.189758
0.0813638,0.322771
0.00570921,0.322781
-0.0416685,0.112569
-0.0999642,-0.0527777
-0.12676,-0.200152
-0.00843769,-0.171444
0.0928523,0.0275988
0.0932565,0.0726648
0.0207662,-0.0255326
-0.0144691,0.027299
-0.00911604,0.144791
0.0631661,0.128187
0.156173,0.0549676
0.161805,-0.029841
0.0388323,-0.065258
-0.0805504,-0.140811
-0.0568706,-0.221894
0.000170361,-0.163156
0.00564133,-0.188789
-0.0646999,-0.323152
-0.204769,-0.298739
-0.299289,0.0315691
-0.181029,0.299217
-0.0053074,0.129603
0.115272,0.340273
0.0866655,0.362669
0.0241454,0.10869
0.0457668,0.0884827
0.0726743,0.075358
0.0714728,-0.0593778
0.133966,-0.0658853
0.174863,-0.0834527
0.106565,-0.0572127
0.0368596,-0.163447
-0.0696585,-0.15566
-0.195753,-0.174797
-0.138855,-0.0971603
-0.0441782,-0.00314257
-0.046964,0.101522
-0.0354275,0.191167
-0.0764319,0.106241
-0.0326833,0.130175
0.0645063,0.093127
0.221402,-0.0270634
0.209713,-0.0592989
0.0680949,-0.0894451
-0.0293925,-0.0470633
-0.0983048,0.041006
-0.10009,-0.0937305
-0.00560739,-0.193353
0.0273932,-0.0339077
-0.0693326,0.0507246
-0.177656,-0.0389674
-0.139842,0.0938134
-0.00408695,0.189842
0.0265903,0.093389
0.0280442,-0.0202048
0.0265969,-0.0481632
0.0485536,0.0166153
0.0712359,0.0634052
0.117651,0.00825107
0.116012,-0.0630496
0.10916,-0.166395
0.170478,-0.120752
0.241029,0.0336198
0.219462,0.0261407
0.097678,-0.0894713
-0.100371,-0.0557682
-0.259411,0.0109807
-0.332666,-0.0206327
-0.457687,-0.0437331
-0.428274,-0.0675124
-0.15155,0.00389285
0.133489,0.136577
0.265527,0.201994
0.278398,0.0810787
0.203371,0.034902
0.126714,-0.0193249
-0.0792996,0.0326005
-0.296933,-0.00493449
-0.313146,-0.0888673
-0.299258,-0.258224
-0.0918024,-0.316458
0.107593,0.0515001
0.198088,0.262197
0.307463,0.0858674
0.367296,0.054859
0.263003,0.253598
0.0999452,0.0662955
-0.0402112,-0.053333
-0.219285,-0.00594083
-0.145929,0.14639
-0.0153854,0.142685
0.0441074,-0.0159272
0.0366016,-0.0812847
0.0547379,-0.117804
0.0432344,-0.144601
-0.0959072,-0.116984
-0.0873801,0.049397
-0.0654391,0.0938704
0.0389844,-0.00485387
0.176581,-0.112106
0.232485,-0.175189
0.149819,-0.0616218
-0.0635453,0.00224992
-0.191202,0.198219
-0.158707,0.138966
-0.076568,0.0935021
-0.00974412,0.05492
-0.120009,0.0177421
-0.253809,-0.0563793
-0.284994,-0.0951041
-0.129492,-0.149478
0.0303453,-0.116804
0.141529,0.143734
0.121629,0.136764
-0.0494054,0.101532
0.0713772,0.0255216
0.26683,-0.0176032
0.267594,-0.00358608
0.157716,0.0252509
-0.115982,-0.0203749
-0.157659,-0.236368
0.0419298,-0.268347
0.158308,-0.540061
0.243983,-0.487992
0.174541,-0.145921
-0.0399846,0.218933
-0.30084,0.3625
-0.375257,0.449828
-0.217911,0.393094
-0.0717677,0.302732
-0.00850429,0.173138
-0.0386411,0.0949263
-0.078659,-0.0562557
-0.00274319,0.0185619
0.116422,0.0762351
0.220227,-0.0170199
0.288104,-0.0931221
0.326199,-0.107386
0.262291,-0.107502
0.102777,-0.0654072
-0.0848114,0.00728899
-0.2843,-0.0231149
-0.470647,-0.141731
-0.265374,0.0438098
-0.0981532,-0.0218638
0.00112526,-0.164206
0.067809,-0.102626
0.0756363,-0.0338733
0.0656727,0.0328124
0.000750147,-0.00361804
-0.0836279,-0.152974
-0.0804611,-0.254578
0.0182059,0.0358492
0.114193,0.368147
0.107631,0.50397
0.0949305,0.122849
-0.0493981,-0.218722
-0.0337793,-0.1252
0.118356,-0.0750459
0.107777,0.0520136
0.0742899,0.0753665
0.0643315,0.0881769
-0.0295431,0.102744
-0.106981,0.0488049
0.00516714,-0.00688974
0.151726,-0.118187
0.073478,-0.158106
-0.199567,-0.0644194
-0.276714,0.052688
-0.253773,-0.0518935
-0.0599224,-0.179732
0.00421633,-0.146706
-0.0706379,-0.10862
-0.0613166,-0.127554
0.0851869,0.0261957
0.232825,0.149846
0.248165,0.0723256
0.0979086,0.102814
-0.0771501,0.001112
-0.0442199,0.092184
0.0625024,0.00633879
0.088603,-0.0849464
0.0822798,0.174233
-0.0188772,0.136204
-0.128633,0.147069
-0.110911,0.0431502
-0.10431,-0.121298
-0.0476356,-0.233033
0.019511,-0.145676
-0.00492414,0.011179
-0.0901434,0.058146
-0.160179,0.0622712
0.069225,0.0866281
0.298423,0.177577
0.351293,0.177564
0.286481,0.0943176
0.0987986,-0.053464
0.0547822,-0.0656709
-0.0638139,-0.125194
-0.356705,-0.168495
-0.322683,-0.190571
-0.239132,-0.0663878
-0.148722,-0.083033
-0.0637604,-0.151528
-0.0021979,0.00241441
0.155095,0.383331
0.195792,0.116175
0.152744,-0.187734
0.142432,-0.191679
0.0821028,-0.276798
0.123749,-0.13704
0.102347,0.225353
-0.000743989,0.424575
-0.017284,0.386661
-0.124272,0.211651
-0.283076,0.165554
-0.320119,0.0444481
-0.187188,-0.111867
-0.0763426,-0.200691
-0.0276022,-0.257273
0.00296266,-0.28919
0.0591656,-0.145911
0.0956043,0.145582
0.00627092,0.123657
-0.113133,-0.0602469
-0.211238,-0.0948061
-0.213047,0.0077066
0.036704,-0.0823577
0.24238,-0.139955
0.292921,-0.00330854
0.411155,0.207769
0.520549,0.152535
0.39968,0.294339
0.070582,0.330676
-0.101439,0.0829214
-0.223004,-0.225123
-0.220737,-0.317019
-0.250745,-0.367807
-0.24888,-0.197672
-0.0720887,-0.102595
0.135063,-0.296436
0.105838,-0.116691
-0.0570348,0.342196
-0.109231,0.363375
-0.0243836,0.0170701
-0.0868903,0.0017486
-0.274083,0.0475924
-0.272296,0.148944
-0.117964,0.170955
0.002646,0.197666
0.0779681,0.198744
0.118041,0.0314678
0.119735,-0.26192
0.0345085,-0.212639
0.0544196,0.0116359
0.0991696,-0.104188
0.0410889,-0.311906
-0.0686857,-0.136748
-0.124779,0.118156
-0.0193532,0.179515
0.234301,0.119428
0.416726,0.0469197
0.449915,0.0849811
0.375145,0.0708541
-0.0993236,-0.0962379
-0.289195,-0.092401
-0.0218047,0.141015
-0.000343703,0.216584
-0.198433,0.0512355
-0.311009,0.0453934
-0.123148,0.0685227
-0.0376657,0.00255095
-0.122816,-0.0181883
-0.178706,-0.0908825
-0.175731,-0.212838
-0.108143,-0.385492
0.0406581,-0.516992
0.183161,-0.284239
0.254813,-0.0614744
0.25899,0.193107
0.109162,0.342523
0.0368447,0.324374
0.0208155,0.132998
-0.13305,0.0411566
-0.0803932,0.0754074
-0.0102395,0.0511529
0.0244904,-0.0127864
0.00496771,-0.0898452
0.00636157,-0.117791
0.0346233,0.115633
-0.106279,0.0619897
-0.201961,0.0816718
-0.125785,0.167696
0.0200349,0.0800695
0.106377,-0.0456825
0.103191,0.00617432
0.00902793,0.0404885
-0.0438601,-0.0355795
-0.0667826,-0.170894
-0.0392024,-0.363856
0.136432,-0.462281
0.358611,-0.320334
0.340513,-0.109258
0.145408,-0.00225623
-0.170464,0.283853
-0.427191,0.501625
-0.358033,0.346036
-0.200041,0.079086
-0.0815185,-0.110887
-0.0920144,-0.277761
-0.164463,-0.178187
-0.189516,-0.0687701
-0.0229733,0.10526
0.231372,0.168284
0.32154,0.348269
0.253358,0.0503015
0.181057,-0.0126071
0.0742318,0.000137668
-0.0413042,0.217654
-0.140844,0.289886
-0.0757028,0.0702842
0.0253563,-0.0446344
0.0466512,-0.0323411
0.0917728,0.0810904
0.123742,0.028441
0.0455066,-0.0785464
0.0682914,-0.433627
0.1649,-0.789112
0.21046,-0.666074
0.0801552,-0.215973
-0.136947,0.101667
-0.340149,0.262532
-0.293177,0.325575
-0.0988248,0.36962
0.0171068,0.304425
0.06356,0.163467
0.102333,0.228858
0.00520233,0.136848
-0.0752088,0.112133
-0.108326,0.116506
0.015535,-0.00471132
0.2062,-0.0422906
0.284483,-0.110717
0.0402559,-0.23034
-0.324106,-0.357266
-0.414093,-0.227167
-0.289387,0.0407735
-0.0995661,0.136346
0.0433237,0.0782512
0.0292111,0.0859916
0.0449114,0.117526
0.133631,-0.021055
0.155911,-0.0584744
0.103569,-0.0784731
0.0557512,-0.188661
0.105343,-0.234879
0.215137,0.09727
0.134484,0.0755864
0.0843379,-0.114149
-0.050929,0.0979413
-0.226629,0.104324
-0.0123723,0.114565
0.374101,-0.0906589
0.470247,-0.111721
0.273502,-0.0810692
-0.0648789,-0.115376
-0.395571,-0.29168
-0.456244,-0.343372
-0.30266,-0.218429
-0.201869,0.130231
-0.157087,0.365273
-0.0924193,0.475046
-0.0475703,0.576829
-0.0621045,0.284929
-0.0867736,0.0563391
-0.014326,0.00883581
0.180151,0.0609284
0.234499,0.0845181
0.135435,0.0107786
0.0678049,-0.0336638
0.0175385,-0.0697031
-0.0308203,-0.208266
0.0105324,-0.252383
-0.043893,-0.192549
-0.164502,-0.158335
-0.10575,-0.0581437
0.0111747,-0.0143843
0.0298282,0.00801741
0.0543122,0.0402111
0.0881977,0.0627374
0.0455046,0.0666644
-0.017312,0.0746992
-0.0563991,-0.0351577
-0.0161597,-0.111039
0.0346009,-0.0954972
0.190901,-0.0932926
0.313944,-0.00138957
0.244801,0.112003
0.0477263,0.100658
-0.21475,0.0132333
-0.30177,-0.0928181
-0.21684,-0.217546
-0.0349909,-0.296916
0.0695473,-0.0553973
0.0844554,0.227413
0.0198907,0.279625
-0.0549672,0.19405
-0.08873,0.114455
-0.078408,0.0251321
0.000796655,-0.0527258
0.110799,-0.0383279
0.125854,0.0180297
0.00900522,0.0967827
-0.144969,-0.0146238
-0.12059,0.000433209
0.0469387,-0.0804521
0.0966017,-0.152689
0.0694922,-0.122818
-0.0721252,-0.0141644
-0.0946045,0.0744944
0.0850901,0.0635248
0.190202,0.149459
0.10831,0.023219
-0.0105829,0.0652267
-0.0652857,0.115143
-0.0274204,-0.00837843
0.000827855,-0.0451243
-0.024937,-0.0581248
-0.0536319,-0.115197
-0.0493332,-0.101715
-0.0925217,-0.10793
-0.16627,-0.0750216
-0.151344,-0.0722193
-0.0269568,0.0269011
0.0822675,0.0330557
0.173346,0.0128621
0.173197,0.0832298
0.146334,0.145156
0.147239,0.140163
0.102861,0.124893
0.0577727,0.0488456
-0.00598525,-0.0297851
-0.0091329,-0.0602725
0.0227536,-0.0658381
-0.0139893,0.0250742
-0.247389,0.00584056
-0.305327,-0.109314
-0.137883,-0.144049
-0.03404,-0.144618
0.100414,-0.0511086
0.201098,0.0719591
0.193539,0.162014
0.0293235,0.134588
-0.107733,0.0452314
-0.0955202,-0.0865374
-0.067621,-0.181139
0.0138374,-0.143297
0.0619616,-0.0126463
0.028765,0.103178
-0.0594324,0.0839224
-0.150108,0.0333603
-0.196871,0.044196
-0.0986793,0.0914545
0.0369849,0.102553
0.0453349,-0.0122522
0.0401463,-0.0327316
0.116396,-0.0953181
0.118698,-0.203064
0.173118,-0.232572
0.265062,-0.133453
0.281432,-0.0289312
0.167731,0.144133
-0.129261,0.354283
-0.268144,0.151344
-0.190142,0.000191261
-0.163329,0.0329497
-0.135742,0.0502998
-0.196788,0.0561635
-0.158768,0.0539832
-0.0289544,-0.00776736
0.034887,-0.0765653
0.0449731,-0.0657048
0.0625067,0.0116684
0.0736087,0.0289969
0.0797329,-0.0342778
0.0431178,-0.0138875
0.0407079,0.00594345
0.0917837,-0.0318026
0.102702,-0.062683
0.0170488,-0.0705543
-0.104255,0.0054905
-0.115961,-0.00503905
-0.0354258,-0.0923798
0.0311655,-0.114894
0.0397457,-0.0779461
-0.0251543,0.113288
-0.0603898,0.128167
-0.0105338,-0.0601391
0.0296887,-0.0798585
0.0133266,0.0129431
-0.00213146,0.126632
0.0741677,0.0226395
0.15088,-0.245601
0.109994,-0.195422
-0.0224003,0.0140547
-0.108584,0.0674389
-0.0700118,0.237591
0.00412714,0.253542
0.0314339,0.151713
-0.0260614,0.0342122
-0.0592244,-0.0173685
-0.0400315,-0.0545055
0.0181611,-0.0712522
0.106507,-0.0410198
0.104463,-0.0163714
0.0152991,0.0343738
-0.107685,0.0944606
-0.0534093,0.0779497
0.0217616,0.00502415
0.0704178,-0.00357809
0.022605,-0.0319162
-0.0464892,-0.113912
-0.0504132,-0.0980878
0.0838949,0.0139955
0.113503,-0.0945019
-0.089041,-0.0963443
-0.0972319,-0.0378264
-0.0157175,0.0368744
-0.00119727,0.0434699
-0.0346014,0.0525826
-0.041506,0.0180853
-0.0510857,-0.0519703
-0.0460813,-0.157204
-0.0498467,-0.141337
-0.0937818,-0.00406971
-0.0480658,0.0724274
0.074704,0.0160775
0.0812537,0.059794
0.0450459,0.158103
0.0389297,0.0711999
0.0718678,0.0752048
0.125225,0.0832583
0.116496,0.0365494
0.0406686,0.0393515
-0.0913304,-0.0216203
-0.151441,-0.0846024
-0.087299,-0.119242
0.0286144,0.0168023
0.0622582,0.106323
-0.0109832,0.0861714
-0.0777115,0.0499879
-0.0350543,0.0267829
0.00347407,-0.0576227
0.0530115,-0.155311
0.11075,-0.13531
0.0777853,-0.118559
-0.00743555,-0.0921905
-0.0334137,-0.0587548
-0.0524499,-0.0779705
-0.128806,0.0638107
-0.143932,0.166688
-0.0973803,0.14633
-0.00395684,-0.030502
0.0896992,-0.198699
0.112233,-0.13896
0.107803,0.0312354
0.132545,0.134431
0.114785,0.16448
0.0438343,0.180765
-0.0387156,0.187448
-0.0639043,0.0368786
-0.0642858,-0.195617
-0.0584591,-0.177079
-0.0520764,-0.0410569
-0.0331459,0.00398192
0.0203728,0.0868046
0.0120095,0.176806
-0.0149465,0.0154131
0.0327911,-0.122268
0.00314105,-0.106869
-0.0616977,-0.0206404
-0.0182191,0.0565753
0.01968,0.106022
-0.0217424,0.118697
-0.0538718,-0.00276604
-0.0771646,-0.0619329
-0.000427936,-0.0839022
0.102628,-0.0794907
0.097254,-0.0410267
0.0599946,0.0524577
0.0286203,-0.0154766
0.0306665,-0.0060561
0.0092224,0.0068642
0.0258315,-0.0694465
0.110009,-0.0689822
0.0527978,-0.0173525
-0.0878205,0.0212289
-0.112487,0.0713365
-0.0840509,0.0555024
-0.0324408,0.0195197
-0.0225115,-0.00886299
-0.0109143,0.0287137
-0.0135633,0.0550053
-0.0310078,0.0287641
-0.0375378,-0.0401359
-0.0262464,-0.0529473
-0.0125469,-0.0443727
0.0237547,-0.019845
0.0385091,-0.0290977
0.0364559,-0.0600428
0.0294599,-0.0930025
-0.01465,-0.0203293
-0.0502653,0.0855516
-0.0384092,0.0168823
-0.0404221,0.0562688
-0.0181837,0.0862865
0.0111825,0.0200652
0.0209845,0.0108556
0.040425,0.0582306
0.082954,0.0473627
0.127114,-0.128874
0.153601,-0.131724
0.114891,-0.118643
-0.0126802,-0.0560999
-0.117296,0.0357771
-0.160976,0.100346
-0.10851,0.160464
-0.0446039,0.0737585
-0.0577811,-0.0491846
-0.0724768,0.0878467
-0.0637194,-0.00501554
0.0436203,-0.133976
0.14699,-0.071386
0.15258,-0.0586391
0.117707,-0.147692
0.0373275,-0.0834942
-0.00485307,0.231164
-0.00669257,0.207685
-0.113563,-0.0201868
-0.152293,0.0224729
-0.0786404,0.0256831
-0.0194504,-0.0600086
0.0246179,-0.0284467
0.0583486,0.0655067
0.0581061,0.083883
0.0336556,0.0592482
-0.0239307,0.0197255
-0.0323188,0.0186957
-0.0408484,-0.00753803
-0.0305278,-0.027129
-0.0182487,0.00256036
-0.0111768,0.0606913
-0.0161565,0.0177175
-0.0193855,-0.00363783
0.00354498,-0.0524135
0.0328898,-0.0820507
0.0425483,-0.0887226
0.0737149,-0.0674
0.0680564,-0.0667281
0.0408189,-0.0923283
0.06235,-0.196362
0.08641,-0.182437
0.0565114,-0.107594
-0.000194947,-0.0518431
-0.060485,0.142027
-0.133246,0.143924
-0.187235,0.089975
-0.144636,0.156069
-0.00328794,0.129594
0.0825933,-0.15218
0.0861982,-0.227305
0.0613697,0.0168865
0.0625402,0.198728
0.079674,0.0859618
0.0401085,0.140422
-0.0583024,0.206596
-0.135579,0.138709
-0.0926243,0.0532635
0.00236101,0.0644659
0.092345,0.0151041
0.100839,-0.0447008
0.0256483,-0.0312031
-0.0446238,-0.0675771
-0.101159,-0.034332
-0.0489131,-0.00897721
0.00105106,-0.0434621
0.0285701,-0.088214
0.0153938,-0.118005
-0.0285182,-0.129733
-0.0299994,-0.0776452
-0.00115142,-0.0263286
0.00188623,0.0590937
0.0175783,0.123367
0.0414647,0.0961369
0.00213177,0.0175536
-0.0623826,-0.00603081
-0.0625353,0.0306964
-0.0273313,-0.0312172
0.062636,-0.0277191
0.0772559,-0.00347119
0.00588269,-0.00547159
-0.00482121,-0.106164
-0.0272996,-0.153612
-0.0624891,-0.0740547
-0.0289259,-0.0501396
0.0436279,-0.0422894
0.133819,-0.0518029
0.130156,0.0247803
0.0278009,-0.0150737
-0.0241638,-0.0237514
0.000965107,0.00917628
0.030199,-0.119983
0.0140411,-0.0794909
-0.0267533,0.143161
-0.0728368,0.251705
-0.0714426,0.229965
-0.0292963,0.13788
-0.0201201,0.0815937
-0.0331272,0.0140434
-0.0259879,-0.00188395
0.0254302,0.0208235
0.0314395,0.00958937
0.0353262,0.014431
0.0147949,0.0159329
0.00806667,-0.020385
0.0224018,-0.0471639
-0.010828,-0.105596
-0.0472582,-0.088945
-0.088707,-0.0735123
-0.075822,0.0283674
0.0240442,0.0688184
0.0865942,-0.0384697
0.080257,-0.0568422
0.0826077,-0.0206342
-0.0104014,0.0127522
-0.0585607,0.0350983
-0.0132392,0.00271983
-0.0269424,-0.010934
-0.0305841,-0.00237215
-0.0186249,-0.00872956
-0.00857914,-0.00693715
0.0157127,-0.0225344
0.103545,-0.0185761
0.1357,0.0113178
0.0921733,0.0217355
0.019149,-0.0358
-0.112993,-0.0399697
-0.18168,-0.019526
-0.127821,-0.00364696
-0.0659602,0.0296748
-0.00595485,0.00478067
0.0263427,-0.0770678
0.0347382,-0.0305557
0.0340702,-0.0436178
-0.00329588,-0.101284
-0.0276483,-0.0733477
-0.0342558,0.0620813
-0.038065,0.17696
-0.00932726,0.198378
0.0337379,0.117459
0.0490986,0.0218498
0.0285839,-0.0418627
0.0108992,-0.0187778
0.0337286,-0.0112967
0.0550578,0.0263574
0.0478484,0.0231307
0.0349775,0.00411079
-0.0149814,-0.00272836
-0.0262913,0.0267944
0.00280972,0.0138667
0.0404376,0.0161932
0.029181,0.0179235
-0.00169015,-0.00904381
0.00351601,-0.160692
0.0118927,-0.233204
9.13e-06,-0.190417
0.0130998,-0.0504676
0.0205935,0.157502
-0.0195577,0.107519
0.0148065,0.0491728
-0.0110843,0.0204002
-0.0685842,-0.0285246
-0.0703626,-0.144372
-0.0397828,-0.0448445
-0.0123648,0.108835
-0.0185427,0.0786611
-0.0754615,0.12594
-0.0901626,0.199687
-0.0335751,0.120005
0.0435419,0.00688553
0.06434,-0.111096
0.0264453,-0.143933
-0.0101255,-0.0995971
-0.0313221,-0.025434
0.0385185,0.0725714
0.111359,0.104666
0.107514,0.00818528
0.0648541,-0.0136055
-0.0276364,0.00723452
-0.0762856,0.00445647
-0.0595872,-0.00653859
-0.0734106,-0.0301693
-0.0449456,-0.0461944
-7.07e-05,-0.0413246
0.0237476,-0.017872
0.0385681,-0.0750998
0.0578274,-0.00598312
0.0412576,0.0257622
0.0394811,-0.0190235
0.0483297,-0.0208897
0.0037593,0.100438
-0.0258088,0.0206671
-0.0295153,-0.0689347
-0.00995382,0.0158977
0.0217859,0.0287918
0.019437,0.0052556
-0.0382854,-0.0524569
-0.060095,-0.0698547
-0.0336102,0.00385002
-0.0173266,0.0412831
-0.0177975,0.0450139
-0.0242348,0.0737782
-0.0833351,0.0116374
-0.0931695,-0.0112642
0.00118628,0.0522864
0.140866,0.0720271
0.268133,-0.0675082
0.265952,-0.109383
0.0384701,-0.00625173
-0.198437,-0.00476143
-0.263002,-0.0235589
-0.149671,-0.0113195
-0.0518107,-0.0263215
-0.0232801,-0.0225332
-0.0145327,0.0113902
0.034405,0.0451275
0.0724064,0.00174481
0.0680348,-0.0310673
0.0301244,-0.0415226
0.0296376,-0.0660643
0.0546793,-0.0999548
0.0228297,0.00669594
0.00665477,0.153203
-0.0210971,0.103711
-0.0437785,0.0132062
0.045996,0.00639158
0.128293,-0.0966265
0.0921579,-0.0921005
-0.0206954,-0.0276722
-0.0798811,0.0157391
-0.0515386,0.0633899
-0.0228877,0.111481
-0.0252652,0.138261
-0.0697427,0.0888646
-0.0932796,0.0443766
-0.0357909,0.0255986
0.0153657,-0.028223
0.0380814,-0.0454605
-0.00432861,0.0734081
-0.0771633,-0.0345619
-0.0618756,-0.0980868
-0.0123889,-0.0147849
0.0126225,-0.0403699
0.0223017,-0.0993617
0.0501391,-0.0556914
0.0675038,-0.0632586
0.0688603,-0.0284909
0.0466048,0.110477
0.0190866,0.0621925
0.026796,0.00279115
0.0191198,0.000427453
0.00489438,0.00889285
-0.00253709,0.0116005
-0.0215826,0.00209381
-0.0193642,0.00417281
-0.0246758,0.00677699
-0.062999,-0.012024
-0.125402,-0.0539311
-0.0872016,-0.0570011
-0.00366444,-0.0301917
0.050335,0.0244059
0.129571,0.0681905
0.195958,0.0307623
0.231899,0.0409291
0.135516,0.0484681
-0.0383467,0.0310701
-0.137961,-0.0800683
-0.0815705,-0.137777
-0.0296368,-0.1075
-0.0641693,-0.0415497
-0.0905367,-0.0963616
-0.121625,-0.0766071
-0.134013,0.0082447
-0.104215,0.106261
-0.0676494,0.150094
0.00437954,0.127855
0.0653172,0.0539121
0.0834772,-0.00801753
0.0642193,0.0123716
0.0385805,-0.00294343
0.0670994,5.34e-05
0.0417932,0.0243993
0.0133693,0.0156086
0.0322181,-0.0392536
0.0336752,-0.0550969
-0.00622678,-0.0507709
-0.0298711,0.0190471
-0.00904772,0.0620326
-0.00299464,0.0899212
-0.0197139,0.110902
-0.0291857,0.106824
-0.0563973,0.0163201
-0.0598944,-0.0139829
-0.0396588,-0.0361846
-0.0165348,-0.103489
0.000514328,-0.0903166
0.00555464,-0.138435
0.0224003,-0.174795
0.0380297,-0.130991
0.0423253,-0.0765545
0.0731108,-0.0187345
0.114169,0.0256258
0.115252,0.116099
0.0581087,0.137951
-0.0610889,0.120148
-0.122573,0.0717686
-0.111315,0.00897518
-0.0659859,-0.0200254
0.0404122,0.0128157
0.133667,0.0524533
0.108629,0.0349955
0.00505586,0.00477186
-0.0669128,0.0111074
-0.0431743,0.0318547
-0.0253483,0.0110606
0.0192043,-0.0215872
0.0697087,-0.0394643
0.0883828,-0.0647893
0.0143833,-0.0756172
-0.0973133,0.0135143
-0.126696,0.0700294
-0.0516801,0.0947643
0.0535407,-0.0061735
0.0361662,-0.0474368
-0.0570887,-0.039699
-0.0978058,-0.0569185
-0.0894594,-0.0560529
-0.0273249,-0.00202749
-0.00191001,0.0134304
-0.0155596,0.0120659
-0.0229336,0.0216961
-0.0109058,0.0202508
0.0301412,-0.0554324
0.0703421,-0.101953
0.0640312,-0.00217971
0.0336224,0.110744
0.0356471,0.0550528
0.0305342,-0.028703
0.0208236,-0.0208989
-0.0094057,-0.0888148
-0.00542855,-0.0943756
0.00699573,-0.00403629
0.0144295,-0.134214
0.0111234,-0.200162
-0.0305512,-0.0566625
-0.0271132,0.0633522
-0.00952756,0.146748
-0.0225985,0.22075
-0.055573,0.167718
-0.066258,0.0331458
-0.0167917,0.0871934
-0.00112542,0.119484
0.0327934,0.104272
0.0539936,0.0419046
0.0491865,-0.0212016
0.0515729,-0.0264738
0.0651353,-0.0762541
0.0651114,-0.114616
0.022153,-0.084547
-0.0064509,0.0141329
0.00976586,0.027989
0.0365301,0.0338437
0.0113916,0.0211034
-0.0284398,-0.0256816
-0.0851488,-0.0267146
-0.109507,-0.00174784
-0.0817472,0.00594769
-0.0337357,-0.00677849
0.00159324,-0.0194594
0.00439531,-0.0259019
-0.014348,-0.0249948
-0.0211833,-0.0325648
-0.01455,-0.0617661
0.0112165,-0.0464584
0.0217043,0.0439232
0.0161518,0.0445586
0.0260614,-0.0743883
0.0659654,-0.0906006
0.14322,-0.0418788
0.166039,-0.0345618
0.0996782,0.00966683
0.0186987,-0.0275134
-0.0687503,0.0745129
-0.124724,0.0821283
-0.0394122,0.0480649
0.00457416,0.0620101
-0.069713,0.0933499
-0.151447,0.0460483
-0.110548,-0.0401418
-0.0533355,-0.0341443
-0.0447257,-0.0358664
-0.0154869,-0.0781282
0.0675654,-0.0172891
0.0993572,0.106887
0.0389465,0.0606151
-0.0391632,0.00707596
-0.0717765,-0.0197581
-0.00342572,-0.0453278
0.074572,-0.0951521
0.0841906,-0.0487355
0.0217463,0.0475013
0.0167398,0.0629892
0.00884817,0.0582105
-0.00876411,0.0534705
-0.0103619,0.0360392
0.00287738,0.0128923
-0.0347272,-0.0108003
-0.0635408,-0.0318621
-0.0450154,-0.0759914
0.00342162,-0.160829
0.0452461,-0.140827
0.0666573,0.0236684
0.0560358,0.124901
-0.00182583,0.0965244
-0.00359513,0.0114821
-0.00167564,-0.0162587
-0.0503479,0.0554465
-0.057651,0.0434277
-0.0278973,0.00919013
0.0328652,0.029794
0.095708,-0.00619726
0.0870525,-0.0885815
0.0658173,-0.0983667
0.081266,-0.0647719
0.0731575,0.00626884
0.0722711,0.0232286
0.0284535,0.122802
-0.0723907,0.0462023
-0.192523,-0.0443841
-0.217279,-0.0699583
-0.138337,-0.0227244
-0.0431889,0.0419331
0.010525,0.015665
0.0405487,-0.0713439
0.0291818,-0.085647
0.0147242,0.0449226
0.0268152,0.0447887
0.0522164,0.0389042
0.0205956,0.108718
-0.0381599,0.0726024
-0.0424113,-0.0103773
-0.0067773,-0.0352897
0.0362343,-0.0392038
0.0355768,-0.00495906
-0.00772365,0.0445859
-0.0574952,0.0889775
-0.0185802,0.0363811
0.0669362,-0.00105375
0.0574852,0.0077278
0.0212932,-0.0740366
0.013275,-0.122043
-0.00245549,-0.0846038
-0.0139626,0.0243763
-0.0421402,0.0218302
-0.0365152,-0.0201782
-0.000363274,-0.0517578
0.0182883,-0.113324
0.0477883,-0.098232
0.0531425,-0.0122656
-0.019354,0.0346877
-0.0709262,0.104951
-0.0440298,0.0880689
0.0169157,0.0136867
0.0111332,-0.0511437
0.00347352,0.0478455
0.015727,0.114762
0.0643798,0.0930277
0.125504,0.0416145
0.12802,-0.0350922
0.0849866,-0.0282656
0.0084248,-0.044877
-0.0964324,-0.0931981
-0.124452,-0.0371676
-0.071592,0.093604
0.00159295,0.0574058
0.080766,-0.00134316
0.0761279,-0.0214207
-0.0103118,0.0117987
-0.102544,0.019238
-0.145458,-0.0289082
-0.103593,-0.0212334
-0.0697002,0.0207515
-0.0362028,-0.00228634
-0.0129408,-0.00720414
-0.00516924,-0.00765057
-0.000413012,-0.0214057
0.0189554,-0.0143772
0.0418771,0.0198733
0.0534737,0.0132323
0.0678395,0.0147069
0.0118533,0.00553716
-0.00254385,-0.0388246
0.00774012,-0.0868166
0.0238992,-0.0923367
0.0584696,0.0876017
0.0298926,0.0993882
-0.044367,0.0315718
-0.0133892,0.00723408
0.0129754,0.00776774
0.00630465,-0.00132501
0.00332933,-0.0228051
-0.000978142,-0.0546826
-0.0245358,-0.102078
-0.06085,-0.211133
-0.0616967,-0.266015
-0.0260605,-0.256323
0.0723993,-0.0159202
0.100931,0.279212
0.0448069,0.24163
0.0365414,0.185901
0.052088,0.14513
0.0208197,0.123225
-0.0277265,0.106003
-0.101781,-0.0189408
-0.111425,-0.0863263
-0.0255355,-0.0711787
0.0372102,-0.00555185
0.0194109,0.0692118
-0.0156474,0.0729435
-0.0173851,0.0857728
-0.00784146,0.0835262
-0.00231372,0.046664
-0.015535,-0.00517914
-0.0320428,-0.0460582
0.00115107,-0.0618575
0.0147418,-0.0597818
0.0251299,-0.0472164
0.0499735,-0.0385897
0.064987,-0.0408973
0.0511664,-0.0530253
0.0154267,-0.0536209
-0.0186524,-0.0337372
0.0183659,-0.0103121
0.0221393,-0.00305239
-0.03187,-0.00692679
-0.0972576,-0.00838761
-0.0830285,0.00693773
0.00849796,0.0372496
0.093925,0.0497258
0.147521,0.0330848
0.0896681,-0.000998367
0.00369029,-0.0163851
-0.0830586,-0.0429736
-0.11157,-0.0754357
-0.105795,-0.071679
-0.0127347,-0.045583
0.0522861,-0.0727009
0.0563514,-0.125092
0.0192981,-0.10147
-0.0522607,0.0293683
-0.0447303,0.218492
0.0141785,0.134884
0.027257,-0.0268804
-0.0193959,0.00249045
-0.0587134,0.071476
-0.0675335,0.0443042
-0.0575146,0.0628017
-0.0132928,0.0503301
0.00908593,-0.0369027
0.00178975,-0.100935
-0.0059437,-0.0610072
-0.00195957,-0.0694518
0.0449342,-0.0361338
0.107809,0.0514959
0.113485,0.143214
0.0415183,0.100947
-0.0449806,0.0525999
-0.0327428,0.040579
0.00153689,0.0308604
0.0102583,0.00690992
-0.0208381,-0.000228017
-0.0597434,0.00841987
-0.0540081,-0.0110126
-0.045778,-0.0294498
-0.0443103,-0.0248154
-0.0251864,-0.00678673
0.01988,0.00780869
0.0474123,0.00994736
0.049502,0.000557313
0.066891,-0.012963
0.102306,-0.0162208
0.131273,-0.00661934
0.157676,-0.0331008
0.108488,-0.0790421
0.0501972,-0.0938821
0.00379793,-0.0318451
-0.119817,-0.0453335
-0.17406,-0.106726
-0.154951,-0.175526
-0.15937,-0.204058
-0.132172,-0.0778667
-0.0610946,0.0198012
0.000833062,0.169163
0.0602999,0.279742
0.110202,0.303878
0.0832177,0.165859
0.0119702,-0.101898
-0.0118843,-0.121876
-0.023999,0.0331383
-0.0484957,0.00417531
-0.0464529,-0.0940945
0.0175786,-0.0612042
0.0327659,-0.0321351
0.0305433,0.079119
0.0149385,0.139078
0.00632467,0.085264
0.00933238,0.0749816
0.00196389,0.0660013
0.00515472,0.00870872
0.0145759,-0.0258648
-0.00991107,-0.0428585
-0.0304692,-0.030483
-0.041318,-0.0188745
-0.0227934,-0.0316344
0.00855271,-0.0216491
0.0234175,-0.0260024
0.0333092,-0.0273599
0.0238668,-0.0282657
0.00890194,-0.0226531
0.0110177,-0.0139649
0.0204908,-0.00560862
0.0159056,-0.000292815
-9.22e-05,-0.000914655
-0.0112191,-0.00921683
-0.0218524,-0.0117683
-0.0204824,-0.0125364
-0.00901132,-0.010419
-0.00683458,-0.0069076
-0.0203438,0.00040022
-0.0361518,0.00740992
-0.0441425,0.00522197
-0.0414542,0.00385112
-0.0207404,0.0109071
-0.0142413,0.015289
-0.0139863,0.0187439
-0.0111263,0.0228791
0.0310944,0.0275806
0.10627,0.0331503
0.181641,0.0318996
0.269433,-0.0311592
0.331202,-0.162176
0.297092,-0.256766
0.182273,-0.240994
-0.130049,-0.0686767
-0.406655,0.0033875
-0.479641,-0.118445
-0.340599,-0.117855
-0.117393,0.0266736
0.0101838,0.134797
0.0337128,0.136502
0.0665931,0.298505
0.0598468,0.307409
0.0282948,0.129777
-0.0314117,0.126178
-0.110624,0.0165686
0.0056188,-0.00904887
0.015965,0.118111
-0.0246697,0.123575
-0.0348024,0.0222381
-0.0113612,-0.0175635
-0.00561865,-0.0455149
0.00168988,-0.0621627
0.0428933,-0.0769837
0.0590152,-0.0658692
0.0658228,-0.0575402
0.0861679,-0.0548723
0.0870384,-0.0580804
0.0587103,-0.0655179
0.0185016,-0.0583498
-0.00754441,-0.039769
-0.0143421,-0.0164521
-0.0155903,-0.0180919
-0.0186775,-0.0255172
-0.02978,-0.0122217
-0.0371717,0.0106329
-0.0329829,0.0228432
-0.0223376,0.0240319
-0.012855,0.0254541
-0.00767009,0.0240094
0.00269136,0.0162315
0.00619198,0.010771
0.00542191,-0.000189708
0.00889515,-0.0150788
0.00426539,-0.0238955
-0.0122309,-0.0216554
-0.0260726,-0.00972638
-0.0277331,0.00689079
-0.0169738,0.0159142
0.0121141,0.0173475
0.0854744,0.0254188
0.190645,0.0431268
0.244952,0.0390674
0.165438,0.00151057
0.00995098,-0.142403
-0.080332,-0.249729
-0.0549641,-0.120673
0.00701832,0.108696
0.0743889,-0.0527556
0.0180502,-0.20692
-0.128003,-0.153557
-0.253511,-0.162315
-0.203861,-0.0835034
-0.10326,0.246934
-0.0896623,0.32707
-0.0808349,0.269152
-0.00689511,0.148602
0.0228834,0.0731687
-0.0180212,0.0945301
-0.0418197,0.100364
-0.0183939,0.0582505
0.0225442,0.0715449
0.0508656,0.0771281
0.0486084,0.0341268
0.0494486,-0.0144688
0.0551643,-0.0694667
0.0730544,-0.0866177
0.0849318,0.0107249
0.0657625,-0.0259175
0.0205527,-0.0872414
-0.0177186,-0.0944169
-0.00771322,-0.0832602
0.0052266,-0.070147
-0.00516215,-0.0557443
-0.0274093,-0.0373803
-0.0461097,-0.0340798
-0.042948,-0.0171291
-0.0221224,0.00677718
-0.00540184,0.0318613
-0.00383733,0.0387174
-0.0102656,0.0265286
-0.0105842,0.0175027
0.00433934,0.0128747
0.0239914,0.00443242
0.0311072,-0.00885149
0.0188409,-0.0235839
-0.00532172,-0.0364993
-0.0193349,-0.0431797
-0.0186044,-0.0496216
-0.00402024,-0.0458018
0.0425123,-0.0543784
0.131927,-0.0648126
0.207405,0.00765753
0.242138,0.0839493
0.236861,0.0111758
0.0790666,0.0165441
-0.109947,-0.0125664
-0.254091,0.0255657
-0.288009,0.0934413
-0.229788,0.0370096
-0.165291,0.120078
-0.074515,0.116531
-0.00691945,-0.0280843
-0.00430938,-0.0600994
-0.0174428,-0.104434
0.00567981,-0.122346
0.0438172,-0.0366951
0.0646228,0.0280773
0.0239599,0.0386788
-0.0363462,-0.00348112
-0.0428861,0.0093662
-0.0212595,0.0908592
0.0308849,0.0291126
0.0560498,-0.0409104
0.0444792,-0.0390933
0.0372506,-0.00198335
0.0499775,0.0635526
0.0710367,0.0732863
0.0667816,0.0343813
0.0308335,0.00599063
-0.000605786,-0.00179987
-0.0141544,-0.0124831
-0.0242292,-0.0152548
-0.0363663,-0.0157091
-0.0534849,-0.0109139
-0.062606,-0.00653703
-0.0545241,0.000616924
-0.0352979,0.00772322
-0.0202698,0.0148558
-0.0117051,0.00859297
-0.000874126,-0.019238
0.0130331,-0.0235324
0.030955,-0.00998337
0.0513993,-0.0536721
0.0679724,-0.0899455
0.0635701,-0.0882429
0.0464512,-0.0404457
0.00394346,-0.00814587
-0.00968892,0.0389739
0.048802,0.0514424
0.0614515,-0.0242687
0.0039761,-0.0456486
0.0179729,0.080876
0.0386119,0.105314
0.0309804,0.0325729
0.115885,-0.0534923
0.0445735,-0.0480078
-0.166728,0.00386047
-0.23192,-0.0162997
-0.0996164,0.0578915
0.010505,0.0887525
0.0308468,0.0332797
0.0262917,0.0124936
0.0233673,0.0472279
-0.00234636,0.0707229
-0.0508037,0.00423711
-0.0585998,-0.0269004
-0.0787862,-0.0783761
-0.0810172,-0.130413
-0.0259417,-0.130708
0.0628562,0.013062
0.0747011,0.0743281
0.013877,0.0254538
-0.0496391,0.0661525
-0.0612208,0.121705
-0.00594099,0.0490252
0.0411141,-0.0735007
0.0759927,-0.113213
0.0744428,-0.0583563
0.0491101,0.0108654
0.0234927,-0.0241326
-0.00171037,-0.0164711
-0.0231898,0.0258461
-0.0335739,0.0593228
-0.0339826,0.0599067
-0.027931,-0.00670765
-0.0215024,-0.0737441
-0.0162184,-0.0657023
-0.0128514,-0.0122846
-0.00367293,0.0601507
0.018178,0.0811328
0.032394,0.0462528
0.0361137,0.00195586
0.0298928,-0.0513731
0.0279011,-0.0491143
0.0262413,-0.0587952
0.00476291,-0.112637
-0.0172013,-0.0758717
-0.0334119,0.0436685
-0.0448218,0.162714
-0.0504904,0.0953178
-0.057928,0.0432813
-0.0450911,-0.0292476
-0.00494898,-0.0162629
0.0628957,0.00558507
0.185951,-0.019911
0.292868,-0.060069
0.307884,-0.0523905
0.222249,-0.0483199
0.00800892,0.0159087
-0.153059,0.035165
-0.199721,0.0145603
-0.264422,-0.0908011
-0.182086,-0.149737
-0.0141946,-0.139602
0.0382218,-0.0206976
-0.0465646,0.15482
-0.177375,0.191509
-0.16881,0.188466
-0.0384538,0.14625
-0.0382223,0.0575192
-0.0645218,-0.0390783
-0.0305208,0.00359003
0.0133925,0.0363998
0.0255239,-0.0154204
0.0441163,-0.0170049
0.0782199,-0.00694554
0.109264,-0.00773755
0.112971,-0.0173581
0.0889501,-0.0247378
0.0628924,-0.0299988
0.0333802,-0.0624401
0.00587042,-0.102664
-0.00603411,-0.097743
-0.0139899,-0.059501
-0.026247,-0.0103924
-0.0330346,0.0344161
-0.0379219,0.0584255
-0.0357104,0.0652682
-0.0301086,0.0458551
-0.0178144,0.0264514
-0.00685915,0.00924742
0.00175047,-0.0178154
0.0134974,-0.0329478
0.0179946,-0.019631
0.00989165,-0.0219789
0.00979106,-0.0350645
0.00783606,0.0208935
-0.0106684,-0.00169348
-0.0248423,-0.0822408
-0.022215,-0.159347
-0.0043115,-0.0976467
0.0521683,-0.0462243
0.10207,0.0183777
0.194397,0.107802
0.29447,0.0677518
0.240163,0.0835508
0.0121339,0.0862469
-0.184722,0.10207
-0.227534,0.0973862
-0.155612,0.0447466
-0.115268,0.00803614
-0.0315106,-0.00318991
0.000449204,-0.0180051
0.013828,-0.0345891
-0.0010457,0.0282852
-0.113854,0.0268018
-0.188134,-0.0146969
-0.115811,-0.0386519
-0.0756956,-0.000103389
-0.0773291,-0.0516598
-0.0412584,-0.0559225
0.033417,-0.0359246
0.0758195,-0.0136945
0.0937963,-0.00660479
0.0938937,-0.0155656
0.0634279,-0.0157068
0.0435447,-0.0101647
0.0475854,0.0164844
0.0667381,0.0514001
0.0641362,0.0170743
0.0445135,-0.00437115
0.0143007,-0.00118526
-0.00806673,0.0199785
-0.0225075,0.0220759
-0.02739,0.0145121
-0.0249591,0.0018964
-0.0290022,-0.00551857
-0.0363558,0.00272522
-0.0385221,0.0155405
-0.0251521,0.0146318
-0.0117271,0.00333502
-0.00170224,-0.00831562
0.00559683,-0.00889685
0.0137381,-0.00133907
0.0190387,0.0012217
0.0246571,-0.0255734
0.011031,-0.0826909
0.00125639,-0.157652
0.0116071,-0.263182
0.00852492,-0.31425
0.016969,-0.0319066
0.0563963,0.1839
0.0625558,0.059433
0.0721216,0.0617243
0.0714393,0.11396
0.0236533,0.235733
-0.0245752,0.211773
0.00764103,0.00435754
0.110374,-0.0452103
0.179391,0.0160612
0.112323,0.0665758
-0.0354201,0.118808
-0.171035,0.133701
-0.269743,0.10625
-0.252598,0.0248798
-0.187735,-0.130058
-0.0949943,-0.153119
-0.0485854,-0.095255
-0.00739815,0.0149527
0.0191987,0.0599672
0.0731646,0.0841608
0.0887102,0.0278793
0.0207844,-0.0409834
-0.0765357,-0.0544832
-0.0709649,-0.0630527
-0.0137915,-0.0566245
0.021857,-0.0308005
0.0577997,-0.0178387
0.0914235,-0.0186091
0.0882414,-0.0282689
0.0433354,-0.0156308
0.0268173,0.0276667
0.0574198,0.0288286
0.0711164,-0.00437538
0.0385552,-0.0481895
-0.00781477,-0.0840094
-0.0506578,-0.0739845
-0.0769295,-0.0178986
-0.0639528,0.0372046
-0.0329819,0.0452123
-0.00651802,0.0276637
0.00219039,0.0214241
-0.00682164,0.0142017
-0.00661137,0.00315778
0.0119519,-0.000294089
0.0367819,-0.0104978
0.0420201,-0.0118764
0.0239466,0.00441304
0.0360383,0.00204382
0.0709657,-0.0645677
0.0824221,-0.0401738
0.0897379,-0.0422279
0.0546764,-0.121038
-0.0279519,-0.108827
-0.10267,0.0284709
-0.13012,0.189037
-0.123453,0.0760523
-0.0594346,0.0344189
-0.0224988,0.0967933
-0.0208659,0.0818199
-0.0174186,-0.03573
0.0176056,-0.117297
0.0485671,-0.0895035
0.0680036,0.0392564
0.0511784,0.0879963
0.0360451,0.133508
0.0181486,0.139282
-0.00581951,0.0845342
-0.0198816,0.0157831
-0.000532149,-0.020296
0.0447717,-0.0825524
0.041791,-0.0991043
0.0227486,-0.0100725
0.0300567,0.0478368
-0.038995,0.0067207
-0.125002,-0.0552376
-0.0787799,-0.0522423
-0.0548136,-0.00337196
-0.00419297,-0.0452138
0.0667981,-0.0968066
0.106198,-0.0917569
0.102365,-0.0383412
0.0142043,-0.0144874
-0.114321,0.0370387
-0.157035,0.116116
-0.135197,0.136045
-0.0737058,0.032635
-0.0252198,-0.0352539
0.0111247,-0.00277341
0.0476493,-0.0520979
0.0634428,-0.111058
0.0570816,-0.0625207
0.039563,0.0855019
-0.00329482,0.103191
0.0108985,0.0432786
0.0556089,-0.00366458
0.0674783,-0.016781
0.0498343,0.0193966
0.0145747,0.04309
0.012519,-0.0368736
0.0140598,-0.081899
0.000907133,-0.00722357
-0.0339245,-0.037503
-0.0628605,-0.00885858
-0.0340283,0.0545685
-0.00247411,0.056639
0.0297946,-0.0150709
0.0522255,-0.103179
0.0484899,-0.0227874
0.00438671,0.061194
-0.0700076,-0.0206923
-0.104482,-0.106587
-0.0686366,-0.0699841
-0.0257866,0.00579268
0.00133659,0.0738606
0.0683576,0.0993449
0.146001,0.110585
0.167008,0.171462
0.123691,0.126059
0.00317359,-0.0430979
-0.0945607,-0.0801436
-0.164957,-0.0547793
-0.156076,-0.0688241
-0.0496758,-0.0400203
0.0688776,0.0330813
0.0765526,0.0207809
0.0132833,0.0346958
-0.0528806,-0.0450545
-0.0517171,-0.156909
-0.0095178,-0.208689
-0.00624359,-0.202762
-0.0433373,-0.0619072
-0.0375664,0.129331
-0.029136,0.207738
0.0261541,0.143694
0.0561398,0.0406548
0.0220701,0.0394491
-0.0200488,-0.0177102
-0.0250183,-0.110841
0.00544755,-0.038699
-0.00548891,0.0522646
-0.0485543,0.0707182
-0.0257702,0.0363997
0.0385781,-0.0134974
0.0891106,-0.030288
0.07547,0.0216018
0.0458916,0.104004
-0.00509774,0.0605651
-0.0141593,0.0528167
0.0256434,0.0086077
0.0278849,-0.0676467
0.0145559,-0.0451041
0.034486,0.00261728
0.0214304,-0.0285811
-0.0160704,-0.0147632
-0.0614654,-0.0382804
-0.0522637,-0.00656527
0.0136802,-0.0129256
0.0202452,-0.0936874
0.0215615,-0.0530806
0.0435036,-0.0481642
0.000441952,-0.0374687
-0.0760672,0.000424214
-0.0912074,0.0347406
-0.0533544,0.0758437
-0.0225376,0.0627698
-0.00551396,0.0470297
-0.00540982,0.00745521
-0.0127764,-0.0152296
0.00259176,-0.0289141
0.0687769,-0.104567
0.109083,-0.0393157
0.0855463,0.0106318
0.0363843,-0.0290225
-0.00916338,0.0280762
-0.111979,0.0875289
-0.0983078,0.101253
-0.0109471,0.0736432
0.0105229,0.038236
0.0148711,0.015118
0.00752311,0.000973944
0.00165492,-0.00358783
0.000775896,-0.0170336
-0.00247907,-0.0516268
-0.02944,-0.0484048
-0.0179857,-0.0245169
0.0164023,-0.0123208
0.0234187,-0.0410931
-0.00102321,-0.0106905
-0.053036,-0.00499832
-0.0315394,-0.0346347
0.0190274,-0.00264488
0.0480174,0.0116193
0.0849684,0.0109727
0.120312,0.0314054
0.0784348,0.0668569
0.0296566,0.0537687
0.00706176,-0.0299808
-0.0622736,-0.0972942
-0.0747811,-0.0142264
-0.0653159,0.0341676
-0.107372,0.0586643
-0.116538,0.0267746
-0.0639421,-0.0322656
-0.0144703,-0.0187142
0.0232725,-0.0198222
0.0496826,0.0269736
0.0554021,0.0331141
0.0412867,-0.0198879
0.0124929,-0.0408985
-0.0162118,-0.0293723
0.0114066,-0.00237757
0.0654666,0.0314616
0.112843,0.0344475
0.157929,0.044387
0.12416,-0.000466418
-0.00508691,0.026132
-0.119786,-0.0262882
-0.153171,-0.0959264
-0.185771,-0.0965065
-0.118874,-0.126613
-0.0334361,-0.105397
0.0209361,-0.0350067
0.0571565,0.0635469
0.063801,0.145044
0.0553111,0.157987
0.0344525,0.116506
0.0242379,-0.0031799
0.0324416,-0.0933429
-0.00777259,0.0861277
-0.0223092,0.176775
-0.00323709,-0.00871065
0.00293869,-0.0759379
-0.0203353,-0.0850182
-0.078808,-0.0992356
-0.126091,-0.0624055
-0.0714092,-0.0945639
0.0221378,0.00435506
0.0656513,0.0684693
0.0852219,0.027447
0.102129,0.0340072
0.0345665,0.0386516
-0.027925,0.0479337
0.00139654,0.0548582
0.0191258,0.038249
0.0273822,0.0495973
0.0639887,0.00314648
0.0718295,-0.0398683
0.000167575,-0.0533379
-0.0763804,0.0208997
-0.0978867,-0.0210384
-0.0742821,-0.0396578
-0.0334676,0.00842676
-0.004033,-0.0122061
0.00452673,-0.0140287
-0.00580385,-0.0266696
-0.0195241,-0.0658617
-0.00423951,-0.0744756
0.00898148,-0.0884291
0.00965875,-0.0269949
-0.0139175,0.0451818
-0.00333909,0.0386857
-0.00790667,1.61e-05
-0.0138845,-0.0107235
0.0621153,0.103219
0.10162,0.077173
0.0660739,0.00883751
-0.0204495,0.062787
-0.0915796,-0.0160407
-0.0509552,-0.0988435
0.00234449,-0.071347
0.0335866,-0.0103397
0.0757424,0.0737215
0.0784461,0.0407205
0.028174,0.0139877
0.00177891,-0.0108366
0.00801654,-0.037718
0.0058805,-0.0155064
-0.032847,0.0551784
-0.0621423,0.0235195
-0.0526681,-0.00494564
-0.0492773,-0.00215889
-0.0860355,-0.00143979
-0.0795685,0.00813932
-0.0114038,0.042451
0.0405751,0.0211661
0.0499755,-0.0289813
0.0334697,0.00431897
0.0084259,-0.039135
0.0189348,-0.0572521
0.0319852,-0.0148143
0.0249919,0.0500096
0.024956,0.0188695
-0.00554334,-0.100902
-0.0102686,-0.0470575
0.0320991,0.028419
0.00597049,-0.018918
0.00833934,-0.0075341
0.0272401,-0.0026819
0.0205088,-0.01047
-0.0377234,0.0333501
-0.0261646,0.0329837
-0.0048677,0.0224754
-0.0326589,0.0284782
-0.0658832,0.0143667
-0.0789225,-0.0138932
-0.0258535,-0.0125765
0.0512014,-0.00903646
0.107019,-0.00550511
0.116691,0.000284457
0.0347585,0.00630636
-0.0320146,0.00387136
-0.038169,-0.0329122
-0.0400211,-0.0173887
-0.0248977,0.0221784
0.0211279,0.00513235
0.0277655,-0.000279937
0.0165406,-0.00758743
-0.00733097,0.0380386
-0.0260715,0.0597316
-0.00306048,0.0123514
0.00203375,-0.00430029
-0.0362283,0.0223211
-0.0892237,0.0249673
-0.124043,-0.00303404
-0.0875454,0.00635998
-0.0145114,-0.0118382
0.0283364,-0.0369948
0.0306216,-0.0433282
0.0321091,-0.0319568
0.0261372,0.00563266
0.0137003,0.0462789
0.0352763,0.0243745
0.102725,0.00461906
0.148626,-0.00804558
0.123508,-0.0199239
0.0241598,-0.014253
-0.0703407,0.00194564
-0.0688288,-0.00369644
-0.0304718,-0.0127525
-0.00560293,-0.0131783
-0.0196504,-0.00588189
-0.0609431,-0.0138308
-0.0866143,-0.0281862
-0.0568693,-0.00664182
-0.00634502,0.00690663
0.0213002,0.0408673
0.0555065,0.00787793
0.0589446,-0.00576477
0.0330831,0.0190287
0.0123704,0.057138
0.0396564,-0.0258967
0.0288645,-0.0548462
-0.0246267,-0.000876609
-0.0464728,0.0453465
-0.00364714,0.00267028
-0.0176366,-0.0271869
-0.0520014,-0.0286395
-0.0419218,-0.0225548
-0.0147409,-0.00212176
0.0631875,0.011816
0.0937345,0.00422257
0.0621949,0.0150169
0.00906559,0.00460622
-0.0411023,0.0077325
-0.0522109,0.00667829
-0.0293566,-0.00174236
0.0283626,-0.00138484
0.0966478,-0.000775517
0.0512564,0.00314137
-0.0488577,0.00998566
-0.10542,0.0117091
-0.0410828,-0.00249558
0.0242428,-0.0188209
-0.00172885,0.00356901
-0.0496008,-0.0139344
-0.0645305,-0.0292167
-0.00903857,0.00376627
0.0311691,-0.00795303
-0.00757166,-0.00548203
-0.0113633,0.0177625
0.00201604,0.0299116
-0.0190388,-0.00222855
-0.0667164,-0.014817
-0.0770412,0.00485653
-0.0138781,0.0125671
0.0598619,0.0105839
0.0989035,-0.011664
0.113123,-0.00497535
0.103424,0.0026899
0.0434133,-0.0308914
-0.00587534,-0.0111149
-0.0387802,0.0113938
-0.0874773,0.0201995
-0.0878871,-0.00954399
-0.0799586,0.00661627
-0.0344139,0.000696328
0.0404437,0.0237679
0.0993343,0.0460168
0.0822405,0.0338194
0.0451661,0.0138626
0.0514022,-0.0683786
0.05332,-0.0185829
0.0071763,-0.0209721
0.00228646,-0.0131155
-0.0427487,-0.00320552
-0.0396377,0.00994564
-0.00345087,0.0533366
-0.0438307,-0.00730156
-0.0078186,-0.054226
0.0548855,-0.0588489
0.05487,-0.0149726
0.00481944,0.0304663
-0.0652677,0.110097
-0.0632456,0.0487377
-0.0584834,-0.0121277
-0.0567511,-0.0221957
-0.00184632,-0.0197101
0.0534073,-0.00494313
0.0344816,-0.0288043
-0.0211145,-0.0305146
-0.139117,-0.0247723
-0.130262,-0.0159594
-0.00681633,0.0233663
0.0466921,0.0206735
0.046408,0.007333
0.0492011,0.0029127
0.0771866,-0.0169359
0.0627599,0.0109578
0.0612254,0.0637624
0.083183,0.0170847
0.0406335,0.0138273
-0.0273196,-0.0161954
-0.0503525,-0.0455431
-0.0422822,-0.00958421
0.00311617,-0.0411983
0.0160366,-0.0900267
-0.0167288,-0.0198878
-0.023723,0.0760555
-0.0120793,0.062108
-0.00243122,0.0394526
0.00517765,0.0240629
-0.0123122,0.00523375
-0.0557254,0.00792637
-0.109377,0.0330204
-0.0887412,-0.076267
-0.0166941,-0.060073
0.0183306,-0.0121603
0.0420839,0.0024529
0.0373958,-0.00127751
0.0102965,-0.0157067
0.00255935,-0.0174142
0.00219113,0.0301263
0.00670339,0.0509973
0.0123736,0.0191247
0.0864032,0.00991026
0.172081,-0.0172884
0.157361,-0.0441653
0.0523163,-0.00167145
-0.0692549,0.0883182
-0.0980495,0.0262785
-0.0764374,-0.0286926
-0.0629964,-0.0426221
-0.0543934,-0.0591536
-0.0247247,-0.0586339
0.0339351,-0.0664841
0.0571823,0.0053314
0.00812413,0.0717288
-0.0624544,0.0274433
-0.105228,0.0127763
-0.0485694,0.102944
0.00261369,0.077532
0.0152603,-0.0136514
0.0313613,0.0196426
0.0405755,-0.0187471
0.0673534,-0.0220035
0.055288,-0.0495567
-0.0186595,-0.0983945
-0.0454025,-0.0178149
-0.0309368,0.0416854
-0.0402618,0.0543648
-0.0214291,0.0483615
0.00856285,-0.00587901
0.0335905,-0.0657398
0.0359139,-0.0433133
0.0145893,0.0117487
0.0125596,-0.0470446
0.0396703,-0.0321027
0.0588522,0.0207019
0.0275248,0.0173985
-0.0427289,0.0257514
-0.0937798,0.0306279
-0.0188796,0.0134965
0.0959004,0.00965884
0.0853845,0.0352193
0.0203223,0.00159442
-0.0482171,-0.0466776
-0.0901435,-0.00935419
-0.0533619,-0.00508587
-0.0206238,0.057984
-0.00681451,0.0324223
0.0437592,-0.0497366
0.0523638,-0.0136651
0.029294,0.0603318
-0.025271,0.0553993
-0.0519511,0.0144449
-0.0453015,-0.0060893
-0.0443913,-0.0192088
0.0205879,-0.0493043
0.0630615,-0.0339333
0.063573,-0.017197
-0.015383,-0.0188084
-0.0857973,-0.0156385
-0.0899975,-0.0111158
-0.0611237,-0.0088422
-0.017877,-0.0300861
0.025967,-0.0237172
0.0597574,0.0226904
0.0418071,0.0183103
-0.0113894,-0.0144386
-0.0390251,0.000305025
-0.00963201,0.038803
0.0203566,0.0257006
0.0447175,-0.0194258
0.0516876,-0.0261828
0.0704311,0.0160467
0.063706,0.00654419
0.0327655,-0.00833683
0.0117927,-0.0261341
0.010935,0.0235589
0.0102692,0.0176756
-0.0123873,0.0202445
-0.00422543,-0.000151025
0.0324022,-0.00724045
0.0345984,-0.0616844
-0.0273298,-0.060848
-0.100854,0.0300315
-0.110859,0.106262
-0.0457007,0.056085
-0.0323388,0.0280115
-0.0418861,0.00569412
-0.0103288,-0.026395
-0.00269914,-0.042738
-0.0546251,-0.0136819
-0.0207723,0.0218461
0.00602704,-0.0155516
0.0189107,-0.0269174
0.0521206,0.00265195
0.0403096,0.0105072
0.0490864,0.00308936
0.080752,0.00132896
0.0667141,-0.0184153
0.0560841,0.00617732
0.0389177,-0.0136656
-0.0141778,0.0040397
-0.0580052,0.0398669
-0.0995985,-0.0409914
-0.083595,-0.0222836
-0.024806,0.0387969
0.024126,0.01693
0.046216,-0.00397546
0.00717696,-0.000916694
-0.0276497,-0.00371183
-0.0159703,0.00230833
0.00597906,0.00899863
-0.00559174,0.0260895
-0.0153368,-0.0127715
-0.0270726,-0.0399154
-0.0212201,0.000944578
0.00488418,0.00408494
0.0366108,-0.0210611
0.0520462,-0.019938
0.0667112,-0.0321178
0.0825211,-0.00112048
0.0522553,0.046317
0.000127114,-0.00014407
-0.0336932,-0.00553408
-0.0825739,0.0139545
-0.107761,-0.0416464
-0.0862083,0.00906091
-0.0470508,0.0552122
0.0296416,0.012508
0.0768189,0.00747668
0.0634136,0.011116
0.0500797,0.00986265
0.0284873,0.0167267
-0.00232176,0.0111917
-0.028582,0.00383903
-0.0598975,-0.00247878
-0.0228105,-0.0207715
0.0399506,-0.0263496
0.0507294,-0.0177159
-0.00421601,-0.032552
-0.0468224,-0.0193988
0.010332,0.000475121
0.0699425,-0.00366469
0.0876104,-0.00970588
0.0573841,0.0356962
0.0113274,-0.0373286
-0.0800118,-0.269202
-0.120262,-0.0236247
-0.0763605,0.229341
-0.0393633,0.148178
-0.0401149,-0.0119758
-0.0336556,0.00467221
-0.00753911,0.0376878
-0.00697483,0.0136345
0.000720307,-0.00525125
0.0195648,-0.0068852
0.0431589,-0.0111171
0.0698363,-0.0111859
0.0716098,0.0063773
0.0318934,0.0175189
0.00655054,-0.0143511
-0.00088572,-0.0073524
0.00801803,0.0056055
0.00734203,0.0320785
-0.0193079,0.0110651
-0.0420587,-0.0195523
-0.0424832,-0.0303124
-0.0305493,-0.00888276
-0.0114285,0.00451284
0.00536302,0.0125974
0.0126431,-0.0090375
0.0255442,-0.0411864
0.0356993,-0.031924
0.0331384,-0.00287695
0.0172359,0.010623
-0.0106809,0.015208
-0.0314708,0.003074
-0.0402884,0.0106324
-0.0238552,0.0108418
0.00174418,0.00567064
0.00577854,0.00499495
-0.000217215,-0.0130509
-0.0134522,-0.0277996
-0.0365852,0.00087641
-0.0336137,-0.00511892
0.00491681,-0.0221126
0.0257112,-0.00383467
0.0499409,-0.00195738
0.0809681,0.00136469
0.0644305,-0.0071623
-0.00129464,0.0328336
-0.0616767,0.0182063
-0.0736355,-0.0743354
-0.0340439,-0.0359599
-0.00100653,0.0488788
0.00322175,0.0243935
0.0180168,-0.00883045
0.0174071,-0.0231197
0.0119719,0.0250015
0.000253636,0.0211117
-0.0141283,-0.00825695
-0.0228122,0.0247538
-0.026261,0.0839976
-0.0319597,0.0611161
-0.0361463,-0.0728317
0.00455856,-0.0410075
0.10421,-0.0131805
0.133969,-0.00724718
0.0777729,0.00207152
-0.0160392,0.0194547
-0.0397172,-0.0298209
0.00986811,-0.020215
0.014702,0.023814
0.00354395,0.0262181
-0.0139979,0.00788715
-0.0252697,-0.00151265
-0.0270902,0.00508077
-0.0390065,-0.0137909
-0.0458655,-0.0166295
-0.0389715,0.00875586
-0.0267581,0.0345828
-0.0305036,-0.00879646
-0.038245,-0.0265962
-0.0156511,-0.0260541
0.0284706,-0.0361139
0.0516783,-0.0373821
0.0529074,0.0104193
0.0419692,0.0388009
0.0146375,0.0362061
-0.0135108,0.0180499
-0.018985,0.00854463
-0.0156785,-0.00926279
-0.0123078,-0.0192161
-0.0168841,-0.0158092
-0.0110593,-0.0015917
0.00539789,0.0166114
0.0177316,0.000331771
0.0256408,0.0201281
0.0314809,0.018676
0.0198087,-0.0158706
0.00450271,0.00694755
-0.0154116,0.0196866
-0.0282488,0.000314391
-0.0269268,-0.0155039
0.00297972,-0.00488095
0.0350181,-0.00177015
0.0393733,-0.00299276
0.0189125,0.00492537
-0.0104995,-0.00051715
-0.0306301,0.00590529
-0.0403691,0.016394
-0.029633,0.00724152
-0.0106564,-0.0241438
-0.0113183,-0.0372528
-0.020786,-0.017954
-0.0280879,-0.0281362
-0.0340342,-0.0415075
-0.0195394,-0.0291962
0.00990749,-0.000790406
-0.00418351,0.000494271
-0.0490961,0.0153084
-0.0579104,0.0248795
-0.0197267,0.029375
0.0303603,0.0379931
0.0634288,0.0375856
0.075706,0.0233164
0.0808849,0.0148693
0.0888033,0.022354
0.0781442,0.00843571
0.0629661,-0.0141318
0.0498296,-0.0125246
0.0128631,-0.00961092
0.0194719,-0.00867879
0.0281956,-0.00357278
0.0310458,0.0144694
-0.0194483,0.0139521
-0.120605,-0.0146432
-0.114167,-0.0103381
-0.067031,-0.0102409
-0.0455775,-0.0261913
-0.0337051,-0.0267091
0.00293373,-0.0201167
0.0315883,-0.0193191
-0.00153185,-0.0325048
-0.0665453,-0.0155709
-0.10105,0.0113676
-0.0961221,0.0123054
-0.0382006,0.00580132
0.0148915,0.00698123
0.0485571,0.00176094
0.0782707,0.00180452
0.0887783,0.0088184
0.0625281,0.021818
0.0127767,0.0291981
-0.0279703,0.0214021
-0.0331459,0.000970578
0.00316857,-0.00276717
0.0168891,-0.00145436
0.0132313,0.0163431
0.0724552,0.0310549
0.0315853,0.0131989
0.00106106,0.00354242
0.0376509,0.00346656
0.0283201,-0.00435377
-0.0572316,-0.0168443
-0.131371,-0.0225164
-0.0393864,-0.015234
0.135261,-0.0126814
0.153668,-0.0175249
0.0776974,-0.0114015
0.0346618,0.00521387
-0.0220149,0.00580407
-0.0951527,-0.00323053
-0.121182,-0.0091865
-0.0722962,-0.00890273
-0.0208917,3.39e-06
-0.00259337,0.000267813
-0.000249843,0.00495558
0.00575311,0.00893174
0.00549799,0.0098468
0.00416732,-0.00391376
0.0104583,-0.0167847
0.0318783,-0.0228195
-0.00223477,-0.0219963
-0.045198,-0.0114799
-0.0315962,-0.00155632
0.0297816,0.0147762
0.062594,0.0299722
-0.00988241,0.0330123
-0.114572,0.0168284
-0.160658,0.0102796
-0.0328327,0.0053988
0.15039,0.00899964
0.181025,0.0175855
0.0956763,0.0179998
0.0289695,0.0138651
-0.062708,-0.00172789
-0.130788,-0.0118235
-0.118843,-0.0126605
-0.0569789,-0.00681538
0.00324787,-0.00119947
0.0793946,-0.0147585
0.104577,-0.0180422
0.073481,-0.00303821
0.00453964,-0.00363297
-0.0948426,-0.0191626
-0.149517,-0.0251743
-0.147964,0.0129463
0.0146784,0.0151094
0.13469,-0.0276417
0.117137,-0.0232473
0.0781531,0.00512399
0.0464216,0.0108554
0.049036,0.0111246
0.0518498,0.00816105
0.0146075,0.0191055
0.0299678,0.0225041
0.0447421,0.0179776
0.00243709,0.0203889
-0.0326991,0.0162828
-0.0683774,0.00766085
-0.0942715,-0.00644197
-0.0726704,-0.0177877
-0.081131,-0.0112818
-0.0402774,-0.00425897
0.0250852,-0.0170756
0.0229293,-0.0276714
0.0213712,-0.0060999
0.00796939,0.00905227
0.0760866,0.0119869
0.0907696,-0.000590564
0.014932,-0.010727
-0.020968,-0.00869818
0.0209517,-0.00257587
0.0287338,-9.63e-05
-0.0310576,-0.00767967
-0.0780101,0.000452637
