Comp Ch 3,Comp Ch 4
-0.0225104,0.0570034
-0.0472139,-0.0126346
0.000434166,-0.0352174
-0.00501865,0.00931085
-0.0904059,-0.0190174
-0.18879,-0.0918513
-0.385765,-0.0194028
-0.278896,-0.000181511
0.204796,-0.0343443
0.368771,-0.0568826
0.358906,-0.0301615
0.19997,0.00554334
0.0230045,0.0533453
-0.118686,0.0183986
-0.181449,0.0427642
-0.0242556,0.0487627
0.226697,-0.14416
0.113409,-0.0402996
-0.130576,0.0650091
-0.141743,0.0202604
-0.038188,0.0455114
-0.0211089,0.0642042
0.015351,-0.00943535
0.0797748,0.0390517
0.128854,0.0257222
0.124349,-0.0606287
0.0269511,-0.0497917
-0.121553,-0.0378835
-0.18406,-0.0550325
-0.0611898,0.0195903
0.0686648,-0.00878592
0.0745601,0.00169942
-0.0967991,0.0320018
-0.179216,0.0300733
-0.0122143,0.0613331
0.0738626,0.118433
0.0303402,-0.00102416
0.0255296,-0.0274998
0.0295976,-0.0530384
-0.0175393,-0.0398162
-0.0731595,-0.0328352
0.0164073,-0.064376
0.0924066,-0.0986276
0.110447,-0.073048
0.170014,-0.0029678
0.0931297,0.0779714
-0.0824655,0.0905445
-0.197759,0.0482663
-0.261777,0.0424609
-0.186186,0.0133501
-0.0764686,-0.00135893
0.134618,-0.0161867
0.20664,0.0117826
0.0409288,-0.00548052
-0.0506541,0.0701104
0.0363549,-0.0266419
0.143492,0.0120291
0.248122,-0.0762476
0.0508785,-0.093055
-0.102193,-0.0784312
-0.0776463,-0.0369348
-0.0694891,0.0695416
-0.130325,0.10814
0.00348883,0.0124579
0.151492,0.0617791
0.0796973,0.136974
0.0139508,0.0255862
0.019224,-0.0804501
-0.0347004,-0.0128957
-0.167202,0.0110052
-0.141095,-0.0483594
-0.0568935,-0.0578395
-0.0676007,-0.0576927
-0.176081,-0.106811
-0.0583404,-0.0568745
0.270603,-0.0198482
0.17396,0.0215605
0.0109669,0.00308478
0.0232025,0.037032
0.0566164,0.0706638
0.0784251,0.0702153
0.0542053,0.0938518
0.0113001,0.0201953
-0.010793,0.00151046
-0.038887,-0.0102897
-0.0864976,-0.00378216
-0.179265,0.00862091
-0.149024,-0.052033
-0.0673201,-0.0192338
-0.0734417,0.0431426
0.00836346,0.0191527
0.19265,-0.00639773
0.261588,-0.0365605
0.157472,-0.0218582
-0.0745527,-0.00980515
-0.226388,-0.00326317
-0.142271,-0.00873203
0.0110645,-0.030694
0.0629184,-0.0264466
0.194013,-0.0143921
0.140095,-0.00293528
0.0237565,-0.01189
-0.0573987,0.0159814
-0.0582744,0.0469018
-0.0442283,0.0502539
-0.0423767,0.0336182
-0.00181148,0.010928
0.0812076,0.00390741
-0.00140547,-0.020085
-0.180653,-0.037501
-0.116504,0.00311292
0.142869,-0.00437383
0.184646,-0.013568
0.0449506,-0.0290896
-0.0225506,-0.0329002
-0.0403273,-0.00729651
-0.0399155,0.0407361
-0.0364727,0.0364273
-0.0310798,0.0502216
-0.031945,0.0384738
-0.0346458,0.0393228
-0.0938807,0.121035
-0.257022,0.160605
-0.128516,-0.0371189
0.247197,-0.0903954
0.278748,-0.0423558
0.165928,-0.0987536
0.142384,-0.211152
0.0979121,-0.127325
-0.0410244,-0.143722
-0.185079,-0.202275
-0.193024,-0.174802
-0.0765289,-0.111273
0.0324712,-0.084417
0.080694,-0.00305762
0.0399656,0.152486
-0.0507509,0.293639
-0.121033,0.362789
-0.127245,0.23397
0.000642659,0.0307007
0.134523,-0.0678135
0.169171,-0.0143201
0.0993122,-0.00634125
0.036574,-0.00982205
0.00541976,0.0974206
-0.149437,0.196285
-0.189079,0.134133
-0.0880415,0.0293385
-0.144124,-0.0457992
-0.272571,-0.0717902
-0.0066563,-0.0891746
0.329492,-0.0859244
0.292446,-0.0120722
0.223566,0.0437258
0.193582,0.0250421
0.111281,-0.0447349
-0.0455503,-0.122857
-0.15585,-0.162147
-0.16972,-0.140091
0.0113331,-0.0614573
0.0303017,0.0910911
-0.00257108,0.17953
0.0282155,0.143988
0.0202456,0.033346
-0.0856974,-0.111414
-0.194759,-0.193034
-0.184677,-0.146863
-0.148055,-0.12202
0.00473983,-0.00571911
0.251672,0.0339119
0.176579,0.0720226
0.0425638,-0.0417546
-0.0170702,0.038719
0.00235801,0.130257
0.0528575,0.0595855
0.0324065,0.0923575
0.0152861,0.0819229
0.0274857,0.123188
0.0186122,0.118101
0.0138362,0.117424
-0.0281214,-0.125206
-0.0888,-0.141259
-0.0830618,-0.0178581
-0.00258731,-0.0142599
0.0832832,-0.0172152
0.089916,0.0552901
-0.125841,0.0385237
-0.212436,-0.0562253
-0.0797894,-0.0604619
0.0424444,-0.128814
-0.12468,-0.0774968
-0.360626,-0.0725039
-0.167179,-0.133505
0.228979,-0.0626422
0.371729,0.0145887
0.292589,0.067994
0.0822517,0.0425669
-0.0883613,0.14265
-0.0873455,0.161726
0.0789856,0.0400054
0.280885,-0.0241788
0.122812,-0.00453847
-0.0284421,-0.0354856
-0.0568011,0.0414652
-0.05312,-0.0120108
-0.012381,-0.0522813
-0.0723079,0.0115349
-0.247982,0.00858526
-0.243711,0.00659587
-0.0603917,-0.0201665
0.100779,-0.0710371
0.122455,-0.0550084
0.0324921,0.0848164
-0.0261275,0.0683739
-0.0091214,0.0459031
-0.00469263,-0.0114303
-0.110086,-0.0323711
-0.0912995,0.0426151
0.141972,-0.0303303
0.249935,-0.0145498
0.068109,0.147129
-0.0186394,0.0656761
0.0576063,-0.0579841
-0.12727,-0.11249
-0.285505,-0.198301
-0.147888,-0.338716
0.00223835,-0.325604
0.172848,-0.20725
0.249787,-0.0707906
0.0307881,0.132745
-0.0615083,0.192343
0.0441532,0.184315
0.0605288,0.183776
-0.0410634,0.146695
-0.0192998,0.182713
0.00268398,0.155451
0.00253337,0.12121
0.105068,0.139227
0.0888373,0.0204033
-0.0622206,-0.066031
-0.109161,0.00412912
-0.0270163,0.042966
0.0370084,0.0140354
0.0461234,-0.0831323
0.0438173,-0.121422
-0.000657111,-0.0850635
-0.0679776,-0.0297999
-0.0936283,0.0780362
-0.115503,0.132321
-0.112531,0.0932943
-0.0482351,0.023425
-0.076142,-0.185866
0.0762824,-0.191699
0.172251,-0.0676894
0.119603,0.00337947
0.110438,-0.00359986
0.0730355,0.0252334
0.0142364,0.0672542
-0.0308799,0.025658
-0.102772,-0.00074319
-0.194789,-0.0407347
-0.212879,-0.0540299
-0.0214214,-0.0061971
0.156381,-0.00804177
0.134096,-0.0216104
-0.00252858,-0.0126496
-0.0160919,-0.00646361
0.0658067,-0.0188948
0.083897,0.0156602
-0.0685853,-0.0467055
-0.181182,0.00699094
-0.100404,0.0632866
0.0203735,0.012858
0.0077302,0.00608716
0.062419,0.030025
0.134254,0.0522005
0.0826782,-0.103536
0.0271102,-0.0443358
-0.0135523,0.0905413
-0.0178568,0.050971
0.0286945,-0.0565596
0.0683803,-0.0640082
0.0859782,0.00603574
0.0298231,0.030898
-0.0558085,0.125409
-0.0936712,0.0701538
-0.0318556,-0.0252623
0.0245836,-0.171013
-0.122253,-0.0595123
-0.178746,-0.0034488
0.0228748,-0.0477041
0.136691,-0.0344281
0.0541642,0.0541944
-0.00743431,0.0714782
-0.0166241,0.0504984
-0.000619299,0.0234281
-6.78e-05,-0.0401369
0.00914234,-0.122247
0.0151817,0.00492769
0.0199111,0.0222725
0.0209669,0.029823
0.0210221,0.00238333
0.0194538,-0.0222149
-0.00783994,-0.0367929
-0.0365187,0.0125766
-0.0747575,0.0338285
-0.0728785,0.00401093
-0.0126359,-0.0122683
0.0192701,0.0595091
-0.000305916,0.0878827
-0.0730729,-0.0518981
-0.0164113,-0.0308339
0.0372701,0.00749373
-0.0664056,0.0607331
-0.0972302,0.0919711
-0.044116,0.0536418
0.0375151,-0.0629904
0.0479587,-0.0380964
0.104602,0.0388197
0.156202,0.0499981
0.139039,0.0347561
0.0796387,-0.12421
0.0213399,-0.367217
0.0184659,-0.155995
-0.0838382,-0.0672019
-0.227543,-0.0660346
-0.113509,0.0282401
0.157586,0.148457
0.138916,0.206226
0.0310787,0.245859
0.0124184,0.227143
-0.00459205,0.0910019
0.0288831,-0.0220594
-0.0646425,-0.134867
-0.0825442,-0.217711
0.0233643,-0.0675116
0.049323,0.0012272
-0.0211114,0.0664784
-0.0326908,0.154364
-0.0955338,0.152711
-0.0929515,0.0990497
-0.0112076,0.0348894
0.0920956,-0.0374021
0.0524531,-0.0428774
-0.118448,-0.0168944
-0.192718,0.024123
-0.128976,-0.0437418
0.0151349,-0.162421
0.184497,-0.162252
0.275789,-0.0409777
0.209147,0.0114308
0.0950045,-0.10911
0.0133882,-0.223902
-0.0609454,-0.0786373
-0.159942,0.0236618
-0.0991585,0.0527532
-0.0441666,0.0572116
-0.00745492,0.106319
0.0253394,0.119515
0.0701829,0.135714
0.0509476,0.0892554
-0.00348317,0.000553705
-0.0298648,-0.059574
-0.15095,0.00735135
-0.174587,0.0891641
-0.0141079,-0.087299
0.0882274,-0.114053
0.113715,0.0140332
-0.0371304,0.0184737
-0.140017,0.0195451
-0.0264613,0.0601956
0.0294192,0.0477974
-0.0413154,0.0378907
0.050427,0.00245976
0.193437,0.00263562
0.177218,-0.0423302
0.0214957,-0.116783
-0.127783,-0.131366
-0.123605,-0.123191
-0.0414243,-0.0732492
-0.0182746,-0.0215595
0.0455096,0.0312581
0.030994,0.119892
0.0185156,0.125984
0.0624308,0.131692
-0.0199173,0.123724
-0.0919721,-0.0077499
0.0251542,-0.00697206
0.134478,-0.0436481
0.124103,-0.16824
-0.0252211,-0.200636
-0.0500378,-0.153261
0.0435879,0.0634599
0.024735,0.0873342
-0.0958103,0.117391
-0.225425,0.146848
-0.224297,0.115545
-0.0107183,0.0095733
0.117747,-0.0626859
0.0713767,-0.0696588
0.100197,-0.0331072
0.106617,-0.016655
-0.0151055,0.063572
-0.0394018,0.12575
-0.0369795,0.00152866
-0.0524245,-0.0725842
0.0057337,-0.157832
0.0823784,-0.161099
0.179245,-0.0598591
0.113878,0.11644
0.0319555,0.186238
-0.0121637,0.137244
-0.0401415,0.0506895
-0.166705,0.0119442
-0.338778,0.0591633
-0.283138,-0.0931974
-0.0947133,-0.129823
0.0497659,-0.0217981
0.190508,-0.00869519
0.230587,0.0167845
0.132423,-0.0435919
0.0882231,-0.0634681
0.0095419,0.0922315
-0.030272,0.07072
0.0148337,0.00211627
0.00511631,-0.0378697
-0.0036987,-0.0516289
0.028986,-0.0554874
0.0807174,-0.0486452
0.100535,-0.0293
0.0853699,-0.0696603
0.0473393,-0.049984
0.0665697,0.0881025
-0.00547571,0.00475429
-0.0191827,-0.0334157
-0.0513643,0.0185157
-0.187111,0.0142668
-0.259852,0.047132
-0.145053,0.0840146
-0.0750771,0.0451036
-0.0695644,-0.0591174
-0.00867645,-0.0378252
0.0178986,-0.0653502
-0.053987,-0.0252273
-0.0421027,0.0699161
0.101901,0.0989281
0.179251,0.121809
0.137695,0.0367883
0.105442,0.0157477
0.0141313,-0.069697
-0.106374,-0.032656
-0.162015,0.0207001
-0.0984915,0.0368659
0.00543051,-0.0322698
0.102569,-0.0534297
0.0985443,-0.0115014
0.159761,0.041914
0.180833,0.117291
0.144449,-0.047973
0.0244549,-0.10058
-0.0974777,-0.137506
-0.220509,0.0420094
-0.203318,0.023374
-0.0997516,-0.0397069
0.0115119,-0.0242648
0.0666397,-0.041627
0.0746936,-0.00116804
0.0142433,-0.00271957
0.0137995,0.00969515
0.0571544,-0.100619
0.00832052,-0.0579776
-0.115154,0.154257
-0.214196,0.156432
-0.262256,0.0180941
-0.223378,0.00338197
-0.0714873,-0.0671609
0.0874617,-0.0158861
0.228114,0.0807253
0.304381,-0.0466139
0.293784,-0.137119
0.218504,-0.109933
0.0955986,0.00893894
-0.0746078,0.117623
-0.170418,0.113868
-0.103706,-0.0206726
0.0697115,-0.0368572
0.0807895,-0.0771501
-0.0673095,0.0513989
-0.140229,0.0236307
-0.0670473,0.0638618
0.0278704,0.0399167
0.0622425,0.0729499
0.0693148,0.14141
0.0417987,0.0713739
-0.0334401,0.0295447
-0.0967945,0.0266048
-0.0456507,-0.00994032
0.043054,-0.0639467
0.0632883,-0.0298773
0.0681068,-0.0921596
0.0201479,-0.119817
0.007127,0.00312111
-0.0244584,0.0532452
-0.0748311,-0.0139753
-0.071381,-0.0300257
-0.0840074,-0.0328804
-0.0763632,-0.023637
-0.0300525,-0.0328384
-0.00740681,-0.253713
-0.0779894,-0.379666
-0.0798904,-0.136246
-0.0468583,0.0821058
-0.0482473,0.253737
0.0495759,0.38751
0.116665,0.230778
0.139869,0.0400516
0.0696032,-0.0345874
-0.00679621,0.0164702
-0.0777952,0.0772341
-0.153804,-0.021097
-0.118975,-0.0483065
0.0169574,-0.0113823
0.259841,-0.0450477
0.611054,0.000677373
0.613231,-0.0726587
0.336006,-0.0374342
-0.0735102,0.0294859
-0.446745,-0.0954467
-0.569028,-0.112411
-0.536992,-0.0959798
-0.46578,-0.0451469
-0.131685,-0.0174317
0.411054,-0.00284913
0.611941,-0.0617143
0.458342,0.114082
0.0879273,0.101464
-0.201454,-0.0041982
-0.31121,0.0566565
-0.342943,0.10664
-0.17183,0.106883
-0.02069,0.020043
0.00362146,0.0252886
-0.0704927,0.0616312
-0.0664338,0.0186242
0.00277617,0.0342302
0.0392892,0.0215677
0.0731601,-0.00759129
0.0929092,0.0151636
0.0488848,0.00337957
0.0264485,-0.0414024
0.0103553,-0.112363
0.017999,-0.113437
0.135723,-0.0575379
0.24233,-0.0554025
0.147358,-0.116998
-0.0400758,-0.135578
-0.226101,0.0821425
-0.30141,-0.0145025
-0.130533,-0.0536952
-0.0709027,0.00987289
0.0125211,0.0279835
0.130472,0.0198825
0.114808,-0.0250527
0.0431271,0.0026628
-0.0393374,-0.0459956
-0.131127,-0.0278652
-0.0847265,0.0818806
-0.0311717,0.111925
-0.00457865,0.126797
0.111081,-0.00403046
0.297918,0.0419789
0.271263,0.140226
0.0841345,0.184855
-0.0727434,0.0675167
-0.0679312,0.0126747
-0.0657438,-0.011014
-6.91e-05,-0.082475
0.0962475,-0.104382
0.0177488,-0.169573
-0.228677,-0.0731113
-0.165375,-0.0344057
-0.020594,-0.0058932
0.0450052,0.0478053
0.133585,0.0379881
0.0253707,-0.0220295
-0.128421,-0.00925311
-0.0787694,0.0150798
-0.0729945,-0.0356073
-0.089255,0.0467434
-0.037311,0.131539
-0.0610721,0.0358215
-0.0254587,0.111934
-0.0317003,0.0887778
0.0466381,-0.0858727
0.245584,-0.138948
0.202355,-0.0963807
-0.0287458,-0.18241
-0.0230712,-0.0840178
0.107305,0.00880135
0.0735343,-0.0554433
-0.0909965,-0.0643977
-0.18731,0.00918853
-0.10523,0.0925228
-0.0662391,0.000274617
-0.0190966,0.0259323
0.0396388,-0.0041447
0.0406814,-0.0728734
0.0459105,0.00443793
0.0211997,0.148756
0.075239,0.171236
0.323945,0.0118614
0.447026,0.0186692
0.175943,-0.00785498
-0.127252,-0.0471475
-0.253525,-0.0500703
-0.278221,0.00101627
-0.22895,0.146856
-0.176123,0.16706
-0.0966067,-0.0559101
0.0381746,-0.138536
0.161948,-0.0542044
0.116834,-0.0725897
-0.0168136,-0.0957805
-0.208582,-0.178718
-0.185712,-0.0338126
-0.0057536,0.0927119
0.0593065,0.105122
-0.0789414,0.223675
-0.123376,0.139581
0.0282418,0.055872
0.109686,-0.00617547
0.136955,-0.117438
0.0495378,-0.0419126
0.0245368,-0.00263024
0.0884572,-0.10469
0.114661,-0.148677
0.0627316,-0.0074355
0.0255367,0.0340691
0.0630641,0.084716
0.1098,0.135166
0.106918,-0.080115
-0.0283479,-0.210326
-0.144647,-0.0928589
-0.0726935,0.125205
0.12932,0.17723
0.14672,0.14339
0.0132682,0.106355
-0.0575958,0.0597782
-0.213818,0.040511
-0.262534,-0.145551
-0.153234,-0.364402
-0.119189,-0.228767
-0.0292283,0.0500813
-0.0746188,-0.0267216
-0.0904564,-0.0230843
0.0422685,-0.0191698
0.100655,-0.00240308
0.084732,-0.0364147
-0.0370693,-0.0502291
-0.0407079,0.0386078
-0.0268343,0.097548
0.0383816,0.0698287
0.244095,0.204613
0.387964,0.317591
0.259193,0.0951532
-0.111087,0.0292381
-0.39391,0.0648291
-0.244532,-0.0572494
-0.0516066,-0.125146
0.138028,-0.0794722
0.196582,0.0465472
0.00407571,0.069733
-0.0499813,0.00726183
0.0314713,0.0517083
0.0249792,0.121089
-0.0114025,0.100052
-0.087432,-0.135378
-0.125853,-0.159963
-0.0303672,-0.130111
0.0792049,-0.203091
0.23621,-0.24908
0.319271,-0.13147
0.211719,-0.0390712
-0.144679,-0.110089
-0.394259,-0.086181
-0.198846,0.0614147
0.139257,0.231906
0.131024,-0.0355215
-0.13089,-0.119331
-0.219929,0.102287
-0.126559,0.316557
-0.0683082,0.323472
-0.115596,0.28434
-0.123135,-0.148889
-0.0107524,-0.0787776
0.225033,0.0354801
0.319916,-0.0785668
0.14228,-0.0436287
0.0181333,-0.0595402
0.0705629,-0.0849779
0.304079,-0.0311386
0.338219,0.0876949
-0.0454007,-0.00682179
-0.458805,-0.0867234
-0.426066,0.124677
-0.165986,0.117308
0.0104544,-0.0193744
-0.0193179,-0.127051
-0.00786092,-0.114349
0.157526,-0.122248
0.249374,-0.104011
0.266767,-0.000248894
-0.00640484,-0.0111484
-0.310607,-0.0904137
-0.252231,-0.120321
-0.0460105,-0.066289
0.0787071,0.0594959
0.0979252,0.0606018
-0.048902,0.119618
-0.125008,0.0489481
0.00345899,-0.0319048
0.0157851,0.0610636
0.0282763,0.052221
-0.0346492,0.00411842
-0.0329369,0.284227
0.15078,0.428416
0.218945,0.059761
0.0635702,-0.0654376
-0.00982467,0.0368821
-0.0868659,-0.150022
-0.176746,-0.214947
-0.112114,-0.0115611
0.0748237,0.156558
0.204765,0.106552
0.129309,0.130486
-0.131741,-0.15298
-0.376204,-0.438679
-0.203696,-0.364752
0.0824025,-0.307562
0.231484,-0.117479
0.241465,0.196581
0.395852,0.235163
0.49677,0.21693
0.277652,0.0649506
-0.0871072,0.0813997
-0.571557,0.226201
-0.668404,0.0165476
-0.375141,-0.0650169
-0.112122,-0.0792029
0.127409,-0.286566
0.220354,-0.415567
0.151756,-0.345727
0.0315838,-0.0132396
-0.0717343,0.181076
-0.0136995,0.228777
0.0910315,0.357222
0.124997,0.343928
0.0989093,0.142713
0.041967,-0.031438
-0.0255294,0.0785524
-0.169423,0.0775106
-0.190295,-0.146571
-0.154073,-0.422803
-0.106785,-0.0864814
0.0187113,0.187498
0.13873,0.263278
0.0980694,0.305126
0.00520077,0.00192688
-0.0346461,-0.0124555
-0.0182919,0.0903783
0.00398449,0.0590324
-0.029248,-0.0640546
-0.0075931,-0.470413
0.0791905,-0.429877
0.137029,-0.175433
0.133397,-0.00701271
0.119872,0.336585
0.0497225,0.511966
0.0680272,0.389971
0.0881673,-0.00808147
-0.100464,-0.607028
-0.072397,-0.926363
0.162286,-0.576976
0.220698,-0.166319
0.192683,0.256809
-0.032201,0.411332
-0.507888,0.328678
-0.681705,0.345091
-0.388789,0.480564
0.0632626,0.24701
0.648845,-0.0448462
0.870627,-0.175391
0.394987,-0.100448
-0.286572,-0.025803
-0.682211,-0.0010373
-0.607734,0.0761242
-0.226099,0.284231
0.217624,0.028929
0.206143,-0.360473
0.138998,-0.498286
-0.152652,-0.357707
-0.37431,0.0260362
-0.172247,0.275283
0.0500991,0.491837
0.146057,0.467441
0.153565,0.0585954
0.175955,-0.0624985
0.124625,-0.0897239
0.120915,-0.235487
0.125254,-0.201278
0.094255,-0.16496
0.036565,-0.215953
0.0170604,-0.00242705
0.162635,0.0787785
0.183793,0.177241
0.105463,0.00248595
-0.118134,0.129447
-0.347297,0.0925561
-0.450717,0.169859
-0.512983,0.187371
-0.28377,0.0101045
0.175529,-0.255352
0.541544,-0.265329
0.679542,-0.0347894
0.323932,-0.106497
-0.358846,-0.180824
-0.655244,-0.248121
-0.366993,-0.198765
-0.207177,-0.163832
-0.144241,-0.212924
0.0114095,-0.137935
0.165509,0.244068
0.245512,0.482947
0.256864,0.301171
0.29484,0.240795
0.414944,0.158694
0.393066,-0.231509
0.041591,-0.354896
-0.31004,-0.30488
-0.34198,-0.0429628
-0.162432,0.253068
0.0641415,0.358733
0.0792684,0.346109
-0.044295,0.205652
-0.0968063,0.135117
-0.0188278,0.223631
0.076589,-0.0378988
-0.072715,-0.460896
-0.32611,-0.555852
-0.286908,-0.236521
0.0611659,-0.0553726
0.328908,0.148454
0.397044,0.480215
0.28043,0.486348
-0.0310003,0.169067
-0.132316,0.000429267
-0.222383,0.00286762
-0.219889,-0.107457
-0.0887943,-0.160364
0.0311826,-0.0482838
0.0758617,-0.0266819
0.0556663,-0.0209537
0.0823891,0.0405786
0.157803,-0.168821
0.126304,-0.398176
-0.0293772,-0.358485
-0.18215,-0.151284
-0.114003,0.0490416
-0.162992,0.229428
-0.208261,0.277855
-0.245659,0.126591
-0.191908,0.0500338
0.0416099,0.0137827
0.332134,-0.071752
0.414491,-0.0576649
0.493905,-0.0124832
0.483434,-0.0229094
0.255912,0.00341808
-0.208135,0.0867541
-0.548382,0.164799
-0.560056,0.163311
-0.253266,0.108853
-0.0314366,0.0725035
0.16041,-0.164583
0.190903,-0.220339
0.090867,-0.0583342
0.00703654,-0.0075134
-0.000688703,-0.0314317
0.00391398,-0.119494
-0.00217557,-0.106795
-0.0376983,-0.107512
-0.0732606,-0.408586
-0.0292521,-0.135873
-0.0121336,0.307227
-0.0192014,0.145098
-0.0223463,0.147476
-0.00398607,0.0686798
0.0371356,0.12284
0.0439264,0.100728
0.262273,-0.0301014
0.287621,-0.117824
0.0371094,-0.134645
-0.209487,-0.266506
-0.213749,-0.02215
-0.0856871,0.188612
-0.0444301,0.350167
-0.0544131,0.192957
-0.090285,0.0775319
-0.0747013,0.0560395
-0.0187553,0.0368337
0.0267,-0.130209
0.0417613,-0.0105751
0.0646289,-0.04369
0.167473,-0.0455259
0.27446,0.0160195
0.353208,-0.05215
0.33676,-0.145206
0.00726082,-0.0975273
-0.407378,0.0959467
-0.368562,0.150038
-0.207247,0.105787
-0.208416,-0.0782586
-0.181924,-0.0968959
-0.0847606,-0.0492389
-0.0328027,-0.0576881
0.00741662,-0.0459525
-0.0296024,-0.0206211
-0.021355,0.0232191
0.0381831,0.0420971
0.15434,0.0224154
0.201278,0.000996725
0.175376,0.046226
0.0526304,0.125961
-0.0298609,0.0454716
0.0760864,-0.0669384
0.300185,-0.130794
0.326543,-0.0558
0.0542075,0.0314576
-0.315042,0.0425488
-0.410038,-0.0581841
-0.200848,-0.118915
-0.0701313,-0.077838
-0.097533,-0.0417717
-0.0224215,0.00364075
0.065102,0.0771824
-0.0278158,0.0614233
-0.0774936,0.104411
-0.0381158,0.0626818
0.0812118,0.0145063
0.180617,0.038742
0.0970548,0.0312434
-0.0877712,-0.0262186
-0.172873,0.0346949
-0.0375106,0.0532441
0.111679,-0.090736
0.192029,-0.0225893
0.236809,-0.00920081
0.127424,-0.051964
-0.0295778,-0.0958457
-0.0965167,0.0324976
-0.18277,0.0403734
-0.107578,0.0511197
0.00890149,0.0484143
0.049772,0.0171349
0.106302,0.0269748
0.112024,0.114102
0.00071997,0.0671432
-0.0964624,-0.0528986
-0.112519,-0.228949
-0.078508,-0.18175
-0.0160186,-0.0392705
0.0359031,0.0860124
0.0703643,0.137493
0.0703396,-0.0042114
0.0263943,-0.0532328
-0.0194896,-0.0404664
-0.00194248,0.0325457
-0.0106612,0.0787214
-0.0425517,0.0812673
-0.0445228,0.129129
-0.0633705,0.0922714
-0.123131,-0.0415385
-0.13022,0.0135149
-0.0415841,0.083656
0.0746593,-0.0365381
0.177214,-0.174079
0.166298,-0.198246
0.106657,-0.0937086
0.0302818,0.00530972
0.029814,0.0219834
0.0941635,0.0600011
-0.0356159,0.0585488
-0.241866,-0.000603041
-0.250338,-0.0693956
-0.00515801,-0.112086
0.0831959,0.0612844
0.0254016,0.14596
-0.0445245,0.0859625
-0.138693,0.0939157
-0.0839125,0.0551468
0.0111592,0.00509539
0.0430587,0.0112286
0.102695,-0.0103453
0.317471,-0.109149
0.342563,-0.16874
0.228004,-0.210111
-0.0508705,-0.203007
-0.228908,-0.103818
-0.206867,0.0955777
-0.121674,0.1928
-0.0294321,0.119981
0.0535203,0.059965
0.0469314,-0.0250029
-0.0434339,-0.0899326
-0.085715,0.0414788
-0.0190899,0.100232
0.0475239,0.13806
0.042819,0.123652
-0.00831013,0.0456979
-0.0159409,0.0110284
-0.0272398,-0.0436539
0.0105575,-0.0654303
0.0306425,-0.0734366
-0.0653093,-0.087043
-0.157076,-0.107408
-0.081972,-0.0571578
0.028075,0.0624887
0.074751,0.0886636
0.0728483,-0.0463466
0.0196383,-0.121641
0.0380371,-0.0868642
0.0505503,0.0516962
0.0313291,0.0743485
-0.0478132,-0.00458774
-0.166697,-0.0276125
-0.107486,-0.0531463
0.0586967,-0.00904405
0.105849,0.0223718
0.0808162,0.0209528
0.033446,0.105143
0.0095036,0.0433337
0.0178874,0.0342208
0.0408278,-0.0400235
0.0146887,-0.0268843
-0.0406352,0.132023
-0.0549658,-0.0068038
-0.0642605,-0.174674
-0.0518769,-0.0229495
-0.024285,0.229382
0.0108024,0.0959559
0.0540676,-0.0296891
0.072965,0.017998
0.0539848,0.0444594
-0.0511657,-0.0511665
-0.0929157,-0.0998659
-0.0242301,-0.0538395
0.0319695,-0.0107069
0.065914,-0.0189649
0.0738484,-0.0245305
0.0318936,-0.0449102
-0.0727804,-0.114245
-0.0600749,-0.128154
0.0449883,-0.0298665
0.235689,0.0749869
0.292085,0.149684
0.0838648,0.154288
-0.127138,-0.0106345
-0.312275,0.0439397
-0.378629,0.0443916
-0.105853,-0.00634229
0.0598979,0.00241865
0.0248327,-0.0488181
-0.0185723,-0.0985387
-0.0614321,-0.189101
-0.0153924,-0.207456
0.0674133,-0.114359
0.0810494,0.0640727
0.0784081,0.221923
0.0359156,0.127202
0.0440159,0.124328
0.0926885,-0.0409882
0.0657226,-0.120935
-0.0100699,-0.0105641
-0.0644785,0.1723
-0.108269,0.0828296
0.0193881,0.0447716
0.194933,0.044855
0.217517,0.00823921
0.0983534,-0.00770021
-0.00658395,-0.0378237
-0.143522,-0.0132544
-0.185068,0.0367908
-0.21975,0.0221848
-0.195619,-0.0167099
-0.0613296,-0.0390217
0.0738534,-0.0683923
0.104703,-0.0733418
0.0335867,0.0310716
-0.059299,0.0453407
-0.125549,-0.0798016
-0.0896282,-0.0895469
0.0136482,0.0260354
0.075448,0.0857439
0.0530493,0.0119891
0.0176111,-0.0519411
0.0379556,-0.0757245
0.0575489,-0.0457116
0.109291,0.0806536
0.0945231,-0.0245368
0.0465231,-0.0891578
0.0358474,-0.0443852
0.0308931,0.10241
-0.0678301,0.0901732
-0.173885,0.0355172
-0.108609,0.0386669
0.017412,0.0505974
0.0502011,0.0465845
0.0678987,-0.0232618
0.180628,-0.00858031
0.243604,-0.0207603
0.177935,0.0365582
0.0246447,0.0588654
-0.109272,0.0244351
-0.209774,-0.0585774
-0.215325,-0.0525883
-0.114399,-0.0896743
-0.0361656,-0.0455615
-0.0132071,-0.0401132
-0.00122501,0.0171511
-0.00728563,0.0725379
-0.0574693,-0.00392072
-0.0966917,-0.0322491
-0.00536123,0.062175
0.0630866,0.0808777
0.0529188,0.0426902
0.0207211,-0.0236958
0.0248145,-0.000526454
0.00457928,-0.0197932
-0.0143062,-0.0709637
-0.0158101,-0.0490117
0.0425379,0.00661255
0.0673683,-0.0163747
0.0379947,0.00651866
-0.0132785,-0.0949794
-0.0638949,-0.109944
-0.133435,-0.0261471
-0.107565,0.0324813
0.106807,0.0949961
0.314619,0.140861
0.232403,-0.0134686
0.0354649,-0.0921872
-0.0719583,-0.122559
-0.12348,-0.112986
-0.0861171,-0.0452757
-0.0913003,0.0196771
-0.100195,0.0633784
-0.0223993,0.179503
-0.0213586,0.146091
-0.0573568,0.0819419
-0.0264849,0.125374
0.0146127,0.0245343
0.0522451,-0.056024
0.0347632,0.0179043
-0.0181405,0.0469436
-0.0713047,-0.0259479
-0.03462,-0.0858779
0.0514246,-0.0564692
0.11599,-0.00209098
0.0860322,-0.0361232
0.0107028,-0.00275517
0.0063172,-0.0241771
0.0381404,-0.0306076
0.0470056,0.00605595
0.0126077,0.073714
0.010984,0.0918781
0.00285872,-0.0556479
0.0564998,-0.0727131
0.0488533,0.00628056
-0.0349957,-0.0464352
-0.0366792,-0.00717303
-0.0368036,0.039068
-0.155953,-0.088857
-0.168436,-0.109779
-0.0668353,-0.037942
0.047328,0.0045484
0.0934456,-0.0543931
0.0779957,0.000945048
0.035433,0.118645
-0.0526544,0.068007
-0.0907099,-0.0104464
-0.0352574,-0.0357025
0.0558775,0.0181993
0.0786882,0.0392939
0.0350236,0.0314453
0.00453816,0.00709228
0.0376422,0.0681477
0.072989,-0.0207638
0.0289383,-0.0061348
-0.0676811,0.0601894
-0.0657794,0.0623246
-0.0419094,-0.0319594
-0.0598104,-0.0803127
-0.0591687,-0.0422687
-0.0210631,0.011888
0.0249574,-0.000471299
0.0488042,-0.00662397
0.0652081,-0.00499336
0.0568915,-0.00989002
0.0239565,-0.0244226
-0.0159435,-0.00641599
-0.0344788,0.011725
-0.0381343,-0.007166
-0.0273305,-0.00300558
-0.0055964,0.0266538
0.0416572,0.0450984
0.0757401,0.068398
0.0485069,-0.0607637
-0.00257244,-0.124589
-0.0382335,-0.0568952
-0.0713016,-0.0152877
-0.050456,0.0524874
-0.002021,0.0674229
0.018694,-0.0388594
0.00424424,-0.0181368
-0.0259259,0.0203272
-0.0434052,-0.0043936
-0.0230149,0.0109349
0.0215784,0.0744893
0.0999207,0.0522266
0.157971,0.0286599
0.156065,0.0272568
0.117273,0.0173171
0.05302,0.0077167
-0.0535165,-0.00676835
-0.187437,0.0350536
-0.149557,-0.0450363
-0.105375,-0.0244199
-0.107818,-0.0052133
-0.0670866,-0.045733
0.0558771,-0.099234
0.0607751,-0.142005
-0.0275493,-0.211619
-0.0486058,-0.148063
0.0143419,0.0887552
0.076726,0.178406
0.104487,0.16001
0.0409777,0.071473
-0.0602119,-0.0488242
-0.101848,-0.0215681
-0.0708481,0.0715682
-0.0461994,-0.00656228
-0.0637761,0.00474437
-0.0339544,0.127926
0.0487517,0.137437
0.117075,0.00928018
0.1364,-0.11213
0.101172,-0.0615613
0.0551879,0.0611292
0.00300234,0.104518
-0.0467644,-0.0126683
-0.0703768,-0.121257
-0.0317893,-0.0777368
0.0080701,-0.0732443
-0.00752518,-0.00556904
-0.0444697,0.00789423
-0.023667,0.04437
0.0444736,0.0260393
0.11627,0.0161686
0.142431,0.0326979
0.0366777,0.00694236
-0.117347,-0.0260715
-0.200654,-0.0276924
-0.194282,-0.00314716
-0.117499,0.00436968
-0.0617933,0.0201917
-0.0143683,0.0110928
0.0755778,-0.0298274
0.160987,-0.0116099
0.160704,0.0356177
0.11506,-0.0101141
0.035797,-0.107328
-0.0329259,-0.0575784
-0.00340173,0.0813054
0.152285,0.100634
0.181356,-0.0106333
0.0827495,-0.015542
-0.07175,-0.015701
-0.19259,-0.0220577
-0.117518,0.0262636
-0.0168546,-0.0681791
-0.0272162,-0.0528673
-0.0595673,0.072165
-0.0794599,0.0610404
-0.0902579,0.0289036
-0.0885417,0.0213945
-0.0430639,-0.0198707
-9.25e-05,0.00719047
0.0310185,-0.00857505
0.0292763,-0.0442196
0.00656339,-0.0375386
0.0103991,-0.0298248
0.00119289,0.0128
0.0200235,0.00694066
0.0780201,-0.0353168
0.0964367,-0.0626531
0.0732266,-0.00119641
0.0490954,0.0807889
0.00899638,0.0742417
-0.0295088,-0.0101275
-0.0252316,-0.0440314
0.0164533,-0.0320454
0.0457086,-0.0172486
0.0188556,0.0554211
-0.0611769,0.0428568
-0.0868236,0.0223125
-0.0926701,0.0574878
-0.0826209,-0.0370639
-0.0327432,-0.03386
0.0255052,-0.0560692
0.0616738,-0.0297867
0.0731088,0.0156723
0.0445134,-0.00613036
0.0217378,0.0337621
-0.003626,0.0619837
0.0192844,0.0201453
0.0392277,-0.0192855
0.0340492,-0.00061467
0.0304513,0.00168222
0.00771166,-0.00822891
-0.0529667,-0.0047758
-0.0508419,0.00492364
-0.00760134,0.00740348
0.0200261,-0.0108071
0.0888307,-0.0353867
0.0957359,-0.0387963
0.00530712,0.00796031
-0.119648,0.0313506
-0.18344,-0.00879888
-0.113992,-0.0231423
-0.0627939,-0.0159649
0.000188604,0.00330468
0.0469319,0.0287956
0.0048704,-0.0156477
-0.025386,-0.0142374
-0.043415,0.0565066
-0.0296682,0.0668253
0.0284221,0.0574841
0.0934217,0.0573441
0.154052,-0.055346
0.225419,-0.0648427
0.229571,-0.024851
0.141478,0.00337701
-0.0232503,-0.00432971
-0.171183,-0.01846
-0.22651,-0.0384809
-0.171215,-0.0918819
-0.0879396,-0.0935314
-0.0424101,-0.0110962
-0.00271369,0.0566095
0.0075623,0.0202954
-0.000740181,0.0724384
-0.0165777,0.0642245
-0.0223535,0.0361272
-0.0359378,0.0452246
-0.0376594,-0.00424403
-0.0255948,-0.0160824
-0.0123675,-0.0418683
0.00499111,-0.0302552
0.0195138,0.0109977
0.0517521,-0.0248306
0.0792893,-0.071521
0.0943236,-0.0645078
0.0777415,-0.0421377
0.052366,-0.0674821
0.0330848,-0.0470977
0.0158607,-0.0263105
-0.0137763,0.00827297
-0.0477802,0.209179
-0.0629666,0.249041
-0.0669381,0.124355
-0.072457,0.0865318
-0.0136242,0.0336514
0.110525,-0.0212775
0.14318,-0.0867154
0.0764412,-0.00280374
-0.00103669,-0.00724317
-0.0935445,-0.0959742
-0.0770721,-0.153545
-0.000384938,-0.0256829
0.00880239,0.0993178
0.0224498,0.0576913
0.0505979,-0.0415064
0.041626,-0.0487479
0.00197328,-0.0778337
-0.0496752,-0.0788921
-0.0745196,-0.00105741
-0.0808803,0.0135915
-0.0816458,0.0521265
-0.0667282,0.0865258
-0.040256,0.0478147
-0.0199338,-0.0104814
-0.012208,-0.0239425
0.0202841,-0.0228886
0.0731512,-0.0190314
0.104536,-0.0294562
0.10655,0.000796975
0.107802,0.0265847
0.0499571,-0.0294429
-0.0128711,0.0034271
0.0188384,-0.0342751
0.0317488,-0.0108556
-0.0442054,-0.0147327
-0.119168,0.00340246
-0.127777,0.0402847
-0.064326,0.0379444
0.00981255,0.0210798
0.0386524,0.00355603
0.0123324,-0.0844882
0.00526134,-0.064936
0.00895926,0.032704
0.00965323,0.0511386
0.0591387,0.0140282
0.0810761,0.0255393
0.037395,0.0193598
-0.0171629,0.00699549
-0.0234967,0.00798361
-0.0534882,0.0119973
-0.090748,-0.00438308
-0.0770157,-0.0370901
-0.0596451,-0.069033
-0.0271715,-0.0100883
0.0538884,0.00440126
0.0967724,-0.0438426
0.10071,-0.0455672
0.0715095,-0.0138756
0.0147285,0.0274105
-0.0263018,0.0369808
-0.0660332,0.0583849
-0.0838893,0.0402415
-0.0688505,0.0294169
-0.0281428,0.0173573
0.0463801,0.0125467
0.0802738,0.00984331
0.0759164,-0.00236058
0.0393307,-0.0413225
-0.00701495,-0.00782333
-0.0296729,-0.0249157
-0.0321202,0.0154742
0.004078,0.153878
-0.00594363,0.0336053
-0.0196861,-0.151877
-0.00495779,-0.000156887
-0.031407,0.0479004
-0.0468844,-0.0321009
-0.0158473,-0.0889376
-0.00367188,-0.0833787
0.00410536,0.0124461
0.0232657,0.010186
0.039168,-0.0323446
0.0221429,0.00921467
0.0560713,0.00590794
0.11406,-0.0205383
0.0765374,0.0253293
-0.0553794,0.0192254
-0.144537,0.0262304
-0.109528,0.0457552
-0.0238928,0.0557904
-0.0145853,0.0045145
-0.0113536,0.0200157
-0.0491495,0.0344628
-0.0363658,0.0572542
0.0241844,0.0877269
0.0729646,0.0188064
0.0979585,-0.132415
0.108442,-0.0352088
0.100204,0.0292463
0.0463067,-0.0409197
-0.0636419,-0.0316255
-0.132337,-0.00791756
-0.0981955,-0.0219795
-0.0356908,-0.024844
0.0011975,-0.00513136
0.000391957,0.0317717
-0.0490111,0.0266781
-0.0562663,-0.0510364
-0.0057666,-0.0452539
0.0436665,-0.0655991
0.0726181,-0.0765873
0.0693992,-0.034103
0.0441453,0.019688
0.0415467,0.0686001
0.0468394,0.00982057
0.0456412,0.0146536
-0.0113084,0.0488745
-0.0772772,0.0594067
-0.0873718,0.00853531
-0.062019,0.0446781
-0.034464,0.063126
-0.00565251,0.0351045
0.0451089,-0.00946764
0.0664267,-0.00753323
0.0590191,0.0671411
0.000248227,0.0507927
-0.0965628,-0.0223641
-0.116472,-0.0301781
-0.0264237,-0.0284983
0.0415816,-0.0148488
0.0207477,-0.0241358
0.00692011,-0.0599563
0.0559766,-0.0685479
0.0618873,-0.0280391
0.0208344,-0.0105842
-0.0114089,-0.0177885
-0.0217352,-0.0382933
-0.00495757,-0.0314874
0.0664713,-0.0322025
0.100162,-0.0570404
0.0256399,-0.0788634
-0.031662,0.0326626
-0.0721889,0.0938507
-0.0341305,0.0962514
0.0400759,0.0653303
0.0434114,0.00854606
0.0200917,-0.0222986
-0.0210163,-0.00436742
-0.0730746,0.0246465
-0.0617913,0.0486731
-0.0469528,0.0374099
-0.010768,0.0221169
0.0142696,-0.0155777
0.0141634,-0.043338
-0.00336258,-0.0277826
-0.0358608,-0.037752
-0.050748,-0.0106029
-0.0189415,0.0732635
0.0214541,0.0560389
0.0115441,0.00037311
-0.00147683,-0.0317641
0.0146776,-0.0192714
0.0437968,-0.0348901
0.065489,-0.0459052
0.0861393,-0.0508177
0.0540973,-0.0710769
-0.0422738,-0.053881
-0.117775,0.0416293
-0.108728,0.091136
-0.0356481,0.0498844
0.0195305,0.0436468
0.0519231,0.0354891
0.0492457,0.00622275
0.0505688,-0.00778092
0.0772905,-0.0110445
0.105297,-0.0685042
0.0481615,-0.00732579
-0.0756535,0.0489501
-0.131612,-0.0126571
-0.0864891,-0.0208786
-0.0205991,0.0253469
0.0199744,0.0211707
0.0290239,-0.020853
-0.0164966,-0.0385291
-0.0638568,0.00263445
-0.0238723,-0.0105794
0.0321932,-0.00961895
0.0421773,0.0483105
0.0243989,0.00679498
-0.00242901,-0.00629324
-0.0283374,-0.0197784
-0.0310917,0.00770308
-0.0196795,0.022382
-0.00869961,0.0177098
0.00191181,0.0112718
0.0263994,0.00067152
0.0433346,-0.00676094
0.0387555,-0.0145566
0.0342757,-0.0120754
0.0144721,0.015076
0.00119566,0.02184
0.0163594,0.013443
0.0215459,-0.019097
0.0134811,-0.0538611
0.00849074,-0.0125032
-0.0177015,-0.00695785
-0.0613195,0.00329539
-0.0580357,-0.0240827
-0.0494332,-0.00230341
-0.0251697,0.00352747
0.0217594,0.0654216
0.0840534,0.0641874
0.0969325,0.0303093
0.0656922,0.0217055
0.00244883,-0.0101467
-0.0708322,-0.0514938
-0.0673852,-0.0329691
-0.0864001,-0.0116564
-0.0494805,0.00358032
0.0323279,-0.0597298
0.0684394,-0.112986
0.0566456,-0.107229
0.016286,-0.0291313
-0.0579217,0.0735833
-0.0807417,0.106997
0.0150814,0.00951983
0.077318,-0.0123908
0.0664097,0.0368776
0.00906025,0.002535
-0.0475001,0.0010859
-0.0586775,0.0932212
-0.0357672,0.0722714
-0.0131123,0.0411843
-0.00454663,0.0271853
0.0170714,0.0514688
0.0454694,-0.00977588
0.0314044,-0.0198997
-0.0416483,-0.00564189
-0.0693444,-0.0463712
-0.0516878,-0.0475115
-0.0131305,-0.0365466
0.0150046,-0.0292074
0.0272757,-0.00584943
0.0372892,0.00688477
0.0462218,0.026505
0.0331012,-0.0186566
0.0106902,-0.0097923
0.0119556,-0.0395691
-0.00906682,-0.0793068
-0.00148533,0.000226048
0.00203062,0.0415499
0.00298301,-0.0120156
0.0234629,-0.0145378
-0.00763234,-0.0037588
-0.0697083,0.0121787
-0.0776013,0.00732534
-0.0613751,-0.00140713
-0.0316153,0.0270108
-0.0154318,0.0282731
0.0111382,0.0241719
0.0280672,0.024711
0.0466066,-0.0232125
0.0783044,-0.0426797
0.0810701,0.0195219
0.0849826,0.00791719
0.130104,-0.00911673
0.111839,-0.00468692
0.0479788,-0.0159365
-0.0087914,0.00381829
-0.115574,0.0176849
-0.185994,-0.0326529
-0.112464,-0.0125977
-0.0356246,0.0351139
-0.000605443,0.00151976
0.0325683,0.0143141
0.032772,0.00603414
-0.00571084,-0.0045343
-0.0673799,0.0134362
-0.10913,-0.0058781
-0.0831312,-0.0372405
-0.0345583,-0.0461278
0.0226238,0.00465845
0.0464125,0.0332967
0.0330499,0.0251606
0.013576,0.0368706
0.00550289,0.0254962
0.00581166,0.0182559
0.0163708,0.00247131
0.0291707,0.00807978
0.0394181,-0.00707705
0.0480062,-0.023844
0.0478113,-0.0259063
0.0716485,0.0141045
0.0906951,0.032195
0.0142422,0.00140482
-0.063302,-0.00606351
-0.0952049,-0.00842805
-0.0546771,-0.0293431
-0.00106068,-0.000137816
0.0119555,0.00477351
0.00585246,-0.0519844
0.0256469,-0.0628604
0.0566222,-0.105655
0.0632015,-0.0523004
0.0363878,0.0420307
0.0197167,0.0404448
-0.0147745,0.0385548
-0.051682,0.0380793
-0.0645992,0.0378369
-0.0798521,0.0765287
-0.0872491,0.0302795
-0.0693104,0.0158753
-0.0124117,-0.0406569
0.0582582,-0.0875628
0.110897,-0.0604384
0.0576514,0.0220094
-0.0403406,0.0296332
-0.0796074,0.0584416
-0.0431027,0.093495
0.0314673,0.0809024
0.06554,-0.00945589
0.0146544,-0.0600977
-0.0397811,-0.0170809
-0.0342413,-0.0319968
0.0144327,-0.00775399
0.038069,0.0488036
0.0249659,0.0478734
0.057374,-0.0658118
0.098897,-0.0958968
0.0513123,0.0275636
-0.0402117,0.0503912
-0.106533,0.00117626
-0.114294,-0.00504018
-0.0656002,0.0180975
-0.0113343,0.011549
0.0345348,-0.0423667
0.077567,-0.00221312
0.0750445,-0.0277788
0.0186022,-0.0341827
-0.0305932,-0.065441
-0.057172,-0.0557428
-0.0786039,-0.0468133
-0.0729919,-0.0125468
-0.0253556,0.0756897
0.048762,0.075355
0.0802516,0.0372636
0.0386564,0.0346502
-0.0182089,0.0370055
-0.0457028,0.0104469
-0.0277938,0.00887316
-0.0156143,0.00737148
-0.013501,-0.0166664
0.0274855,-0.0242843
0.0299144,-0.0480168
0.0179809,-0.0472366
0.00873035,0.000583917
-0.00299454,0.0063902
-0.00683044,-0.0252123
0.00559697,0.00239204
0.0341296,0.025892
0.0755854,0.0181213
0.0957661,0.0391191
0.0765332,0.0507064
0.0366649,0.0387048
-0.00198122,0.0193318
-0.0647507,-0.0746296
-0.0948255,-0.104228
-0.103177,-0.0585083
-0.0800875,0.0227549
-0.0474213,0.0860119
0.00897422,-0.0645322
0.0435365,0.0127138
0.0649133,-0.0108491
0.0687872,-0.0187072
0.0254053,0.0140138
-0.0270778,-0.00627002
-0.0138251,0.0121103
0.0357037,0.0680807
-0.00205378,0.0224988
-0.0546736,-0.0284547
-0.0703797,-0.0137576
-0.0406999,0.00827195
0.00171704,0.0145671
0.0136794,0.0118064
0.0121722,-0.0282314
0.0363115,0.0693075
0.0484315,0.0652143
0.0301908,0.00276017
-0.0151894,0.00486653
-0.050145,-0.0474072
-0.0528396,-0.0407914
-0.0285647,-0.019443
-0.0285975,0.0130078
-0.0301667,0.0341044
-0.0041501,-0.00172159
0.0257149,-0.0298668
0.0397107,-0.00588159
0.0512757,-0.0167027
0.0632718,-0.0424459
0.0529735,-0.00344057
0.0120453,0.0345912
-0.0219191,0.0212508
-0.0233222,-0.0245591
-0.0182731,-0.0481615
0.0176459,-0.0157716
0.0456328,-0.00663159
0.0353554,0.0425735
-0.0216631,-0.0149298
-0.0361948,-0.0332967
-0.00754331,0.0324461
0.010861,0.0713858
0.00950051,6.61e-05
-0.00547564,0.00380426
-0.0478055,0.0186159
-0.0509675,-0.0159295
-0.010476,-0.0071957
0.0223075,-0.00572294
0.0254558,-0.017579
0.00251047,-0.0391633
0.0163245,-0.00550536
0.0104136,0.0172145
0.0147799,-0.00231686
-0.000403378,0.00627339
-0.0688283,-0.0382211
-0.101431,-0.0199719
-0.0321669,0.0151561
0.0438406,0.00342194
0.0483621,-0.0343769
0.00784462,-0.0465905
-0.0187227,-0.0138883
-0.0348291,0.0358275
-0.00673722,0.074921
0.00150326,0.0799121
0.00117731,0.032117
0.0248524,0.0463201
0.0185285,0.0128777
-4.78e-05,-0.00572259
-0.00665355,-0.010292
-0.015432,-0.00861255
-0.00703673,-0.0151034
-0.0068772,-0.0111628
0.0106825,-0.0245997
0.0352824,-0.035738
0.0328109,-0.0327875
0.0159143,-0.0476155
0.0612163,-0.0346608
0.0877259,0.0558108
0.0549977,0.0692752
-0.0387273,0.00608541
-0.0848462,0.00389113
-0.0873039,-0.0038311
-0.0292168,-0.0241776
0.0450753,-0.0200625
0.0626462,0.00267515
0.0330688,0.00372479
0.00120504,-0.063554
0.0185906,-0.0367571
0.0224716,0.0342168
0.0183999,0.0647617
-0.0515062,0.0358401
-0.115504,0.0433787
-0.0814435,0.0558529
-0.0429107,-0.0127647
-0.0244436,-0.102001
0.0282167,-0.097045
0.0529845,-0.116497
0.0160666,-0.0917063
-0.0126515,0.0963303
0.00819993,0.0866938
0.0323293,0.0190111
0.0323494,0.0945981
0.0275887,0.0563969
0.0168116,0.0234565
-0.0184356,-0.0452261
-0.0480853,-0.0190805
-0.055348,0.0150636
-0.024709,0.0138769
0.0027444,-0.00772795
0.00523709,0.02809
0.00133466,0.0554243
0.00256507,0.0277636
0.0207897,-0.013359
0.0264682,-0.0713309
0.0659403,-0.0316609
0.109566,0.0559605
0.0646308,0.0617006
-0.0874102,-0.128968
-0.184542,-0.15969
-0.105656,-0.0947445
0.049741,0.043307
0.103928,0.0753252
0.0554253,0.0511765
0.0224983,0.0279083
-0.00791816,0.00542591
-0.0127009,-0.0082824
0.011806,-0.00761114
0.0209587,0.0556989
0.0245781,0.0383322
-0.00318931,0.0120686
-0.0296326,0.00118133
-0.0491556,-0.028265
-0.00831163,-0.0415461
0.022452,-0.0413237
-0.0126494,-0.0312872
-0.0469197,0.037321
-0.0359591,0.058554
0.00604282,0.0107097
0.050363,-0.0227279
0.0910364,-0.00734067
0.0659361,0.0121596
0.0129854,0.0176357
-0.0402994,-0.026626
-0.0992189,-0.0165785
-0.0917696,0.0203535
-0.0330655,0.012383
0.0140559,-0.0417383
0.0249501,-0.051094
-0.00266037,-0.0174459
-0.00919514,-0.0383327
0.0047482,0.0133112
0.0198053,0.147644
0.0208953,0.0658099
0.0172365,-0.0699306
0.00437369,-0.0359461
-0.00218681,-0.00778277
0.0267999,0.0094668
0.0162176,0.0301699
-0.0258932,0.0834077
-0.0554913,0.080876
-0.0360499,-0.00621978
0.0396277,-0.0678562
0.0722038,-0.11095
0.0210152,-0.0830152
-0.00899553,0.00439853
-0.0144576,0.0503095
-0.0473432,0.00883054
-0.0556897,0.065287
-0.023659,0.0258895
0.0218988,-0.0824365
0.121041,-0.105251
0.153738,-0.0636481
0.0449509,-0.0449676
-0.0866294,0.016763
-0.142534,0.0908934
-0.114701,0.112041
-0.0429206,0.107996
0.00494574,0.0126504
0.0461255,-0.0191779
0.0561705,-0.000620924
0.00600926,0.0091046
-0.0082319,-0.0114906
0.0136241,-0.0100968
0.00813068,-0.0260619
0.00398954,-0.00236359
0.020258,0.0250483
0.0345105,-0.0394868
0.0279404,-0.0646508
0.0398174,0.0136586
0.0396383,0.0274155
0.0247706,0.0268945
0.01053,-0.0320769
-0.0105233,-0.0952738
-0.0550186,0.023577
-0.109586,0.0413037
-0.0932145,-0.0182907
-0.0412011,-0.0103694
-0.0140937,0.00334866
0.0287115,0.023994
0.0403419,0.0250632
0.00779836,-0.0179535
-0.00615364,-0.0817958
0.0150377,-0.0138616
0.0134499,0.076622
0.0228835,-0.0178726
0.0923123,-0.105916
0.142271,0.0102852
0.0899266,0.115055
-0.033641,0.0158586
-0.0920817,-0.0191633
-0.148085,0.0122742
-0.134812,-0.019583
-0.058657,-0.0419068
0.0202827,-0.0301965
0.0311077,0.019111
0.0203793,0.0629935
0.00781868,0.0761702
-0.00381621,0.0725196
-0.00875554,0.0418164
-0.0211451,-0.0212947
-0.0574889,-0.0498416
-0.0440499,-0.0534726
0.00447897,-0.0339829
0.0628923,-0.0125326
0.0793176,-0.00128827
0.0793137,0.0274086
0.0835007,0.00517314
0.0830277,-0.0098832
0.049404,0.0166715
0.0133895,0.0431977
-0.0543862,-0.0207871
-0.0881507,-0.0371386
0.0065708,0.00570794
0.0976955,-0.0014909
0.0800773,-0.00343394
0.00281116,0.00535409
-0.103092,-0.0054739
-0.141179,-0.0174469
-0.127641,-0.00281199
-0.0987438,0.0119699
-0.0508942,-0.00712919
0.0177849,-0.0432254
0.0697424,-0.015235
0.0663956,-0.0136749
0.0256939,-0.0194195
-0.00774061,0.00664601
-0.0128785,0.0312751
-0.00216282,-0.00204866
0.0154145,0.0397794
0.0131305,0.0531878
0.013192,-0.0124806
0.0318259,0.0230359
0.0403613,0.0480391
0.0256493,-0.0377712
-0.012479,-0.0590317
-0.0337537,-0.0311393
-0.000481532,0.0427499
0.0241734,0.0195868
0.0547756,-0.0114076
0.0542409,0.00479906
-0.00194272,-0.00507102
-0.0677825,0.0109924
-0.0549919,-0.0223254
-0.0198109,0.0135074
0.00217955,0.0258598
0.0127453,-0.0328193
0.0152128,-0.0431071
0.00497237,0.0236901
-0.000358792,0.00987158
0.0176003,0.00151122
0.0221435,0.0341848
-0.036687,0.0135405
-0.0970788,-0.0700438
-0.114088,-0.056424
-0.0737284,0.0211287
-0.025019,0.0893024
0.0443966,0.0463326
0.105241,-0.0307081
0.114634,-0.0355483
0.0687195,-0.0353123
0.0125468,-0.0226347
-0.0218375,0.0117354
-0.0360785,-0.0042372
-0.0404705,-0.00887995
-0.0184526,-0.016278
0.0098934,-0.00790512
0.036158,0.0167004
0.0635365,0.0236966
0.0672249,0.00484322
0.0335364,-0.0117799
-0.0109805,-0.0208349
-0.0660499,-0.0212546
-0.0668205,0.0394912
-0.00345664,0.00189385
0.0166659,-0.0124228
-0.0319441,0.00532047
-0.0473627,0.0235889
0.0689894,0.000505057
0.155895,0.0395138
0.100681,0.0718519
-0.0225705,0.00671026
-0.121699,-0.0355452
-0.104377,-0.0255049
-0.0503418,-0.00578643
-0.0374766,-0.0606842
-0.000917034,-0.0442323
0.0616925,-0.00297373
0.0829987,0.0174002
0.0549113,0.0325519
-0.0427514,-0.0160016
-0.127353,-0.0262571
-0.121349,0.0189722
-0.0459382,0.0727592
0.0118207,0.0823259
0.0113656,-0.0191004
0.0318753,0.0224292
0.0464638,0.0310494
0.0331746,-0.029009
0.0113125,-0.046736
-0.0168693,0.0104596
-0.0166303,0.0240368
0.00212522,-0.0494706
0.0149419,-0.0741852
0.00526538,-0.0321959
-0.00741722,-0.000913767
-0.00715399,-0.0233596
0.0238613,-0.043468
0.0390417,-0.0137012
0.0229324,0.0169426
0.00294936,-0.0271169
-0.00947553,-0.0159474
-0.0212185,-0.0040614
-0.00473396,0.0158683
-0.0083458,0.0182613
-0.0163441,0.05742
0.0246475,0.0952481
0.0646104,0.104277
0.0423961,0.00717639
0.0111779,-0.0462969
0.00297076,0.00921775
0.0246626,0.0099894
0.0414616,-0.0449167
0.0148446,-0.0332371
-0.0556951,0.035059
-0.0738937,0.0204027
-0.030406,-0.0185882
-0.00870479,-0.0183693
-0.0306676,0.00745789
-0.0341428,-0.00299406
-0.0184681,0.00266899
0.00157551,-0.018191
0.0245503,-0.0301809
0.0425272,0.0446532
0.0221401,-0.0143547
-0.00484842,-0.0368389
-0.00807494,-0.0265879
-0.000528683,-0.0122606
-0.0228959,-0.00554667
-0.056069,0.00917246
-0.0419446,0.037124
-0.0145047,-0.00727017
0.0299693,-0.0382045
0.0405165,-0.0166582
0.0357998,0.00561353
0.0257439,0.0251161
-0.00675821,0.0223751
-0.0234939,0.0177012
0.0203792,0.00641089
0.0647181,-0.00574708
0.0318659,-0.0254452
-0.0602483,-0.0507058
-0.113568,-0.0684639
-0.0300064,-0.0534511
0.0636931,0.019369
0.15523,0.111669
0.23131,0.131099
0.17086,0.00928494
-0.00355576,-0.00270039
-0.16399,0.0178711
-0.190643,-0.0209173
-0.151438,-0.0598691
-0.115795,-0.0100373
-0.0187375,0.0409399
0.0724842,0.0089225
0.156278,-0.000512547
0.113832,-0.0147184
-0.0192804,0.00136333
-0.101023,-0.0437608
-0.167108,-0.00880134
-0.147119,0.00440891
-0.0132633,0.0135161
0.0961108,0.00431008
0.0848926,0.00652744
0.00562157,-0.00848975
-0.0778181,-0.0156117
-0.0965667,-0.0158014
-0.0236714,-0.00719856
0.0441886,0.00862654
0.0255914,-0.000578586
-0.00517796,-0.0110272
0.0172507,-0.0070493
0.0372663,-0.00396335
0.0166708,0.0172
-0.00704837,-0.00278687
0.0236734,0.000860611
0.0189685,-0.0199574
0.00557455,-0.0255435
0.0544447,-0.0182602
0.0673991,0.0202986
0.0449951,0.0209958
-0.000580438,0.0252884
-0.013411,0.0119328
0.0345533,-0.0227957
0.0642049,-0.0313556
0.0572129,0.0233884
-0.0419586,0.0300924
-0.0984362,0.0129549
-0.00274317,0.0115514
0.0572699,-0.0184068
0.0705834,-0.0283664
0.0439268,0.0338953
-0.0122551,0.0902125
-0.0204489,0.00169359
-0.0665486,-0.0387527
-0.12138,0.0274565
-0.12243,0.0261368
-0.0700977,0.0171891
-0.00387301,-0.0177118
0.00995166,-0.00481532
0.0202083,-0.0127797
0.0198805,-0.0384163
-0.0124253,-0.0617163
-0.0392591,-0.0132496
-0.0583125,0.00327821
-0.0142572,-0.0713064
0.0613162,-0.0268328
0.0557288,0.0175351
0.0380327,0.00143319
0.0392646,0.0472838
0.0616659,0.0335997
0.087614,0.0252087
0.0805724,0.0109185
0.0212153,0.0345997
-0.0441096,0.00366669
-0.0529679,-0.0275072
-0.0457261,-0.027304
-0.0744886,-0.0422067
-0.0446625,0.00400883
-0.000337099,-0.00423701
0.0115908,0.0349835
-0.00487227,0.0421992
-0.0401603,0.0261296
-0.0203064,0.00920324
0.0270213,-0.0161566
0.0213066,-0.0214791
5.67e-05,-0.000978152
-0.023207,-0.00630411
-0.019141,0.0113489
0.0136044,-0.00405939
0.0585756,-0.0258936
0.0581824,-0.0658649
0.0507072,0.00562432
0.043916,-0.019886
0.0284945,-0.0274884
0.000443047,0.00738971
-0.0111934,0.0324656
-0.0280688,0.0579098
-0.041441,0.037823
-0.0130158,0.032252
0.0126421,0.026008
-0.00403305,-0.051319
-0.00342563,-0.0262294
-0.0201115,-0.0338388
-0.0409089,-0.00977714
-0.00127324,0.000227439
0.00904134,0.0268002
-0.0346722,0.0242318
-0.0696186,-0.0112809
-0.0231309,0.0501753
0.0409867,0.00205799
0.0487734,-0.0529861
0.0130994,-0.0392237
-0.0196084,-0.0213935
-0.0280427,0.0265883
-0.040541,0.0365786
-0.0687596,-0.000904314
-0.0407139,0.00134974
0.0333298,-0.0118071
0.118172,0.00930869
0.113642,0.0215413
0.0198469,-0.0170896
-0.038616,0.000299526
-0.0407577,-0.016022
-0.0163547,-0.0391981
0.0426611,-0.0343929
0.0467581,0.000858887
-0.00222308,0.0385283
-0.0320837,0.00862546
-0.0277527,0.00425092
0.0133516,0.0446183
0.0291488,0.0114215
0.0208076,-0.0190119
-0.00623877,-0.0120677
-0.0354012,-0.031576
-0.0595852,-0.0116777
-0.0648127,0.0179558
-0.029384,0.0114757
0.00995633,0.0296285
0.0875332,0.00367798
0.136551,-0.00915559
0.11587,-0.00696733
0.0552887,0.000647089
-0.0167602,-0.0159096
-0.0639036,0.0541151
-0.0825759,0.066515
-0.108335,-0.0538246
-0.0733541,-0.0662253
-0.000463412,-0.0613205
0.0244132,-0.0565147
-0.00846885,0.00162132
-0.0633306,0.0500308
-0.0600958,0.011672
0.0104723,0.0103742
0.0427096,0.0480285
0.0264957,0.0823601
0.00576822,0.00152341
0.0123837,-0.0388028
0.00582342,-0.00256313
0.00490065,-0.026218
0.0134095,-0.0161886
0.048597,-0.0349618
0.084402,-0.046673
0.0880444,0.0117481
0.0323031,0.0344955
-0.0263854,0.0088387
-0.0701428,0.0178625
-0.0774173,0.00356084
-0.059783,0.0356875
-0.0408836,0.0338357
-0.0290558,-0.00546359
-0.0334708,-0.018171
-0.0282502,-0.0201514
-0.0106661,-0.0177784
0.0161565,-0.0380961
0.0516568,0.0145219
0.0414243,0.0132918
0.0272028,0.00245853
0.00240158,0.0344558
0.0177834,0.0294131
0.0448778,0.0158668
0.0293667,-0.00446496
0.0270775,0.00107366
-0.0137546,-0.0217065
-0.0716094,-0.0412005
-0.0352287,-0.0446423
0.00596716,-0.0327647
0.0314494,0.0349243
0.0421841,0.0366033
0.0299491,0.0122197
0.00931532,0.0300058
-0.00698567,-0.0171661
-0.0222117,-0.030282
-0.0448361,-0.00549011
-0.0229571,-0.00835842
0.0282449,0.0199471
0.0414805,0.0183047
0.0214123,-0.00340557
-0.0193675,0.00151099
-0.0405027,-0.00698465
-0.0348286,-0.00932708
-0.0199244,0.0100498
0.001133,-0.00858721
0.0182437,0.00314062
0.0176874,0.0136464
-0.0161808,-0.0275061
-0.0708785,-0.0536974
-0.0511373,-0.0156225
0.0493041,0.0239895
0.084542,0.0170326
0.0444574,0.00998328
0.0146952,0.0124323
-0.014458,0.00998811
-0.00803208,0.00959369
-0.0113583,0.0563519
-0.0382712,0.0173501
-0.0237546,-0.0282759
0.0222525,-0.00193382
0.0550274,-0.00344439
0.0674144,-0.0244843
0.0338472,-0.000483578
-0.0233423,0.0212916
-0.0206373,0.00217448
-0.00593732,-0.0549493
-0.0134,-0.0557763
-0.075284,-0.0129223
-0.0952561,0.0334319
-0.0619313,0.00291581
-0.0267031,-0.00994013
-0.0203797,-0.00656173
0.0129355,0.0362757
0.0182911,0.0228813
-0.00578358,-0.0112745
0.00990448,0.00294678
0.0725149,0.0451268
0.100546,0.0384235
0.10131,0.0515713
0.079138,-0.0471143
0.0303446,-0.0406964
0.0455217,-0.0229477
0.034661,-0.0320791
-0.0828417,-0.0442409
-0.14563,0.00646795
-0.0829613,-0.022885
-0.0202903,-0.0326104
0.0163037,0.00827966
0.00778775,0.0445336
-0.00264828,0.0738892
-0.00641239,0.0562683
-0.0300857,-0.00182258
-0.0320419,-0.0227881
0.00599461,-0.0162548
0.0532862,-0.0208867
0.0503653,-0.0037476
-0.0189696,0.0182556
-0.0414334,-0.000762145
-0.0145236,-0.0459291
0.0142156,-0.0642809
0.0161337,-0.0100709
0.000821943,0.0676361
-0.0202084,0.024951
0.0079537,-0.00813172
0.0278528,-0.0237694
0.0159429,-0.00484966
-0.00215943,0.01185
-0.0109666,-0.00708119
0.0106119,0.000472034
0.0322641,0.00561267
0.0482609,0.0216055
0.0306879,0.0303139
-0.0406722,-0.0277454
-0.0947207,0.0269204
-0.073855,0.0149494
-0.0309198,0.000101317
-0.00759764,0.0156827
0.0355872,0.00718138
0.0407499,-0.0115751
0.0041057,-0.00639867
0.0155316,0.00879245
0.0875106,0.00063089
0.115994,-0.0120404
0.0489351,-0.012098
-0.0607993,0.00593633
-0.113069,-0.00746018
-0.102181,-0.00551773
-0.0577605,0.00453442
0.00707129,-0.0241269
0.0406267,-0.0195453
0.0141703,-0.0327587
-0.0110057,0.011237
-0.0261273,0.0810108
-0.0361199,0.0278954
-0.017509,-0.043474
0.0284456,-0.0218151
0.0742574,-0.00237806
0.0738839,0.000100193
0.0293785,0.00218743
-0.0233354,-0.00692923
-0.0629808,-0.0153983
-0.0406936,-0.00495211
-0.00269481,0.00978588
0.0198609,0.00167394
0.0534631,0.00756164
0.0799595,0.0237026
0.0533525,0.0089483
-0.0135965,-0.0185656
-0.0684214,-0.00833836
-0.0721729,-0.00384121
-0.0254267,-0.00653142
0.0169132,-0.0273034
0.0269954,-0.0169172
0.0182403,0.00752683
0.0119685,0.0441318
0.0168097,0.0508394
0.0143326,-0.0122692
0.0194225,-0.0288249
0.00439057,-0.00595322
-0.0320314,-0.0283784
-0.0458061,-0.01468
-0.0215912,0.000854109
0.0136384,0.00368477
0.0341569,0.00626645
0.0231857,0.0114387
-0.0193818,0.00752083
-0.0718436,-0.000299843
-0.0678308,-0.0104755
-0.0122561,-0.0228046
0.0315518,0.00152492
0.02658,0.0235863
0.00331961,0.0553244
0.0041094,0.0304491
0.0119241,-0.0237474
0.0173147,-0.0200497
0.00339659,-0.00167579
-0.0269498,-0.0207956
-0.0361716,-0.0268161
-0.0118779,-0.00330197
0.0266648,-0.00367508
0.0575553,-0.0382815
0.0677119,-0.0415568
0.063274,-0.000176261
0.0514109,0.0560655
0.00421991,0.0309271
-0.052854,0.0355121
-0.0987429,0.061438
-0.0893838,0.0134725
-0.0284384,-0.0438668
-0.0100409,-0.0464687
0.0137834,-0.0353035
0.0622686,-0.0309112
0.064876,0.0221749
-0.00314855,0.0821347
-0.0696507,0.0136561
-0.0281895,0.00224997
0.0685273,0.0251886
0.0667618,0.00936583
0.00382646,0.00364431
-0.0623715,-0.0252208
-0.0420149,-0.046216
0.00779669,-0.0376241
0.00201342,-0.00229975
-0.0518486,-0.0133705
-0.0555298,0.0115109
-0.0167002,0.016599
0.0240778,0.0208012
0.0218435,0.0178427
0.00832898,0.0195162
0.015833,0.0272186
0.0308064,-0.00290506
0.0275379,-0.025534
-0.0178368,-0.0116938
-0.0620596,-0.000650217
-0.0517012,-0.037794
-0.00676502,-0.0455203
0.0189677,-0.00120354
0.0433308,0.0156129
0.0925506,-0.00820741
0.0753889,0.0674284
0.0137138,0.0344842
-0.0304884,-0.0296609
-0.0181314,0.0218008
0.0248794,0.0379288
0.0407482,-0.0254124
0.0242445,-0.0618339
-0.0103401,-0.0412999
-0.0234213,-0.0273202
-0.0103865,-0.0129778
-0.0105948,0.0177284
-0.0288882,0.0593767
-0.052301,0.0621738
-0.0370956,0.0478734
-0.0156906,0.016219
0.0134098,-0.0514997
0.0153578,-0.0499601
-0.00682663,-0.018975
0.0113317,-0.0250233
0.0594868,-0.0593677
0.0565616,-0.0664879
0.00822373,-0.0614123
-0.0384343,0.00823061
-0.0571687,0.000205925
-0.0527038,0.0325141
-0.0140414,0.106858
0.025304,0.100056
-0.0218144,0.0150956
-0.0693217,0.0346232
-0.0571047,0.0113266
3.42e-05,-0.0245155
0.018869,-0.0152341
0.0311842,-0.0143308
0.0383914,-0.00572083
0.0217565,0.0221205
0.0202245,-0.00907988
0.0289392,-0.0189289
0.0268843,-0.0393958
0.044826,-0.013365
0.0804153,0.0671737
0.0585681,0.0458714
-0.00282299,-0.0590868
-0.069512,-0.010891
-0.0749453,0.0131898
-0.0221087,0.000309474
-0.000595673,-0.0140722
-0.0212798,-0.0181561
-0.016698,-0.00811564
0.0211864,0.000676
0.0342204,0.0155889
0.0166805,-0.00879179
-0.00737464,-0.0185162
-0.0335606,0.00799167
-0.0434635,-0.0118565
-0.0361642,0.0244188
-0.0168015,0.0229488
-0.0132095,-0.0450041
-0.0164885,0.00109736
-0.0155962,-0.0130906
0.00482819,-0.0558766
0.0225548,-0.0461741
0.0263903,-0.00649801
0.0528859,-0.0160857
0.0914387,-0.0286294
0.0209408,0.0397893
-0.0428849,0.0696772
-0.0196608,0.070206
-0.0178343,0.0512627
-0.0426889,0.00244288
-0.022106,0.0410953
-0.00484999,0.0435726
-0.00689106,-0.0182996
0.00343595,-0.0384362
0.0200368,-0.00721898
0.0145659,-0.00828789
0.00678017,-0.00989158
-0.000637056,-0.00938027
-0.00776267,0.00409379
0.00125675,0.0130285
0.0268668,0.0139395
0.0226946,-0.0120843
-0.000911528,-0.0775325
-0.000172436,-0.0561811
0.0252151,-0.00664442
0.0522691,0.00405434
0.0187526,0.00122864
-0.0413402,-0.0188506
-0.0665626,-0.018723
-0.026755,0.0560334
0.0213951,0.0544124
0.0361441,0.0411445
0.0401785,0.0142831
0.0503055,-0.00567684
-0.00103887,0.00242792
-0.0786788,-0.0121252
-0.0889523,0.0197244
-0.0405326,-0.00313567
0.0179398,0.0034277
0.0444995,-0.0211236
0.0428913,-0.0295462
0.0267364,-0.0273772
0.0224283,-0.00544905
-0.0182879,0.021632
-0.0604096,0.0171746
-0.0464765,-0.00902298
-0.0309191,-0.0184574
-0.0153776,-0.0264494
-0.00580237,-0.0182928
-0.00431376,-0.01041
-0.0019181,0.0144238
0.00137245,0.0183277
0.00658018,-0.00495115
0.0238619,0.0142342
0.033492,0.0562728
0.0294227,0.0161151
0.00272197,0.00505319
-0.0263718,-0.00794614
-0.0514363,-0.0155595
-0.0488971,-0.0146651
0.0126489,-0.019463
0.0482088,0.0194896
0.0450075,0.0237263
0.0695608,-0.0325529
0.0661068,-0.114676
0.020577,-0.011528
-0.0305345,0.0634045
-0.0560435,-0.00587446
-0.0394414,0.026125
-0.0189018,0.0217533
0.0277073,-0.000176174
0.0603846,-0.00460057
0.0483111,0.0446292
0.0386086,-0.00159922
0.00612928,-0.0157326
-0.0514217,-0.0150073
-0.0412735,-0.0128183
0.0270079,0.0208794
0.0337311,0.0118833
-0.0197762,0.00690758
-0.069603,-0.000745826
-0.0574241,-0.00836556
-0.038402,-0.012989
-0.0229589,0.00189146
-0.00123838,0.00875754
0.00221254,0.0105976
0.000451096,0.00848521
-0.00831995,-0.00936783
-0.02345,-0.0206244
-0.0301505,-0.0167324
-0.0186502,-0.0184547
0.000979208,-0.0092687
-0.0101597,-0.0149757
0.00291101,0.0417186
0.0698107,0.0481019
0.117459,0.0174439
0.0986475,-0.0104004
0.00505571,-0.0189518
-0.0743149,-0.0123207
-0.0755158,-0.011463
-0.0397832,-0.0137391
-0.0425995,-0.0082567
-0.0286026,-0.00854535
0.0304553,-0.00328017
0.0643019,0.0145552
0.041842,0.00629017
0.0270459,0.0332839
0.0275844,0.0307312
0.0217276,0.032834
0.00472937,0.0221172
0.00921443,-0.0325028
0.0110286,-0.0228132
-0.000846801,-0.0227108
0.0146691,-0.0152029
0.0275499,-0.00711139
0.0117104,0.00322462
-0.0158523,-0.00505763
-0.0613831,-0.00371906
-0.0811301,0.0130606
-0.092756,-0.0182434
-0.0488685,-0.0327518
0.017944,-0.0516934
0.0673581,-0.032917
0.024138,0.0326502
-0.00435521,0.0874606
-0.024191,0.0184628
-0.019698,0.00422192
-0.0111998,0.0108611
-0.0137536,0.0145909
-0.00805069,0.0118733
0.0132795,0.00243273
0.0341455,0.00273631
0.0456778,0.0017985
0.0429991,-0.00225265
0.0280797,-0.00577553
0.0229135,-0.0148266
0.0183263,-0.0166861
0.00440376,-0.00260894
-0.0140273,-0.000247425
-0.0329814,-0.00996316
-0.0571317,-0.0100094
-0.0697299,0.00534612
-0.0412483,0.00918053
0.0290479,-0.00147189
0.0520779,-0.0133763
0.031025,-0.0151939
0.00357591,-0.00934376
-0.00482653,-0.00940381
0.0109756,-0.011839
-0.00720536,-5.74e-05
-0.0358579,0.0075401
-0.0139942,0.0116941
0.0208839,0.0111495
0.0338978,0.013433
0.0284569,0.0112027
0.0210486,0.0112907
0.0174786,0.0346129
0.0166399,0.0454736
0.00852369,-0.00969109
-0.0081221,-0.0093527
-0.0193356,-0.00194115
-0.0326829,-0.0217517
-0.040844,-0.020149
-0.0341147,-0.0359101
-0.00391259,-0.0168921
0.0195295,-0.0201984
0.0145474,0.00329567
-0.00734828,-0.00307857
-0.0224816,-0.00871607
-0.0197603,0.00547464
0.00539509,0.018836
0.0186373,0.0167538
0.0178618,0.0130052
0.0146245,0.0116588
0.0133294,0.0139255
-0.00415967,0.0119135
-0.0252258,-0.00170587
-0.0428066,-0.0117084
-0.0432652,-0.0199232
-0.0158857,-0.0280292
0.015201,-0.0254643
0.03025,-0.0121386
0.0322754,-0.0137874
0.0374681,0.00760233
0.0332452,0.0192227
0.0179683,-0.00534391
0.00229852,-0.0297968
-0.0069298,-0.0279381
-0.0105865,-0.00389119
-0.011504,0.02311
0.0119247,0.0181418
0.0227298,0.0359279
-0.00536678,0.0426209
-0.019147,0.029196
-0.00547274,0.0110126
0.0243545,-0.00320012
0.029618,-0.0126677
-0.0201115,-0.00997018
-0.0677144,-0.0188824
-0.0341757,-0.0158067
0.00709337,-0.00711894
0.0330901,0.000161414
0.0415352,-0.00326895
0.0378258,0.0060619
0.0210121,0.0251164
-0.0392658,0.0252445
-0.0789131,0.0214364
-0.0500551,0.0176854
0.0423381,0.01676
0.0943752,0.00862824
0.03731,-0.0114162
-0.0391867,-0.0255523
-0.0706935,-0.0309184
-0.0372861,-0.0293239
0.00019741,-0.0203392
0.0172832,-0.0094321
0.0220677,-0.00122892
0.0313983,0.00878441
0.0366541,0.016122
0.0227521,0.00662708
0.00963498,0.00454055
-0.00121471,0.010039
-0.0112514,0.0140772
-0.0392161,0.00616697
-0.0767259,0.00219425
-0.0931454,0.00521344
-0.0926201,0.00355054
-0.02401,-0.000559915
0.0669675,-0.00552747
0.0657916,-0.00832487
-0.0159084,-0.0200293
-0.0790168,-0.0174842
-0.0322232,-0.0055654
0.0909828,-0.00110584
0.147683,-0.000807947
0.106922,-0.02007
0.0563286,-0.0106355
0.00272175,0.00485909
-0.0922868,-0.0102028
-0.157243,-0.0244143
-0.120348,-0.0280987
0.00668,-0.0201474
0.128188,0.00091035
0.134721,0.0126644
0.113551,0.0178368
0.0884516,0.0149027
0.0310806,0.0227439
-0.0457305,0.0336403
-0.10982,0.0265679
-0.16531,0.0219486
-0.168114,0.0176812
-0.0766323,0.00586916
0.0537828,-0.00879954
0.119722,-0.0031547
0.0450079,-0.000735542
0.0562572,-0.00992558
0.148872,-0.0156682
0.107073,0.00231317
-0.034212,0.0231993
-0.123556,0.0188039
-0.131427,-0.00869176
-0.0871774,-0.0361584
-0.0242193,-0.0277625
0.0903064,0.000613266
0.108493,-0.00400021
-0.025443,-0.0109625
-0.154342,0.0131525
-0.199212,0.0241083
-0.069839,0.00517941
0.111038,-0.00375668
0.221116,0.00768834
0.234539,0.0146269
0.114816,0.00761344
0.0279777,-0.000363201
-0.00782084,-0.00406897
-0.0691108,0.00113666
-0.0795324,0.00153829
-0.00462323,-0.014244
0.0258423,-0.0331587
-0.0386043,-0.0403885
-0.074173,-0.0322986
-0.0530599,-0.0191551
-0.102958,0.00205366
-0.198595,0.0254393
-0.254822,0.0349437
-0.0377105,0.00958123
0.0812846,-0.0032188
0.164891,0.0100735
0.155685,0.0109555
0.0984552,0.00020568
0.0223222,0.00617786
-0.0432693,0.00977099
-0.0708161,0.00918699
0.0521562,0.00434491
0.0692926,0.0158083
0.0275271,0.0197435
0.114654,0.00410004
0.214567,-0.00406382
0.191251,-0.0133669
-0.0155175,-0.00904987
-0.270222,0.00262157
-0.29142,0.0103541
-0.075095,-0.0162481
0.105258,-0.0352756
0.111273,-0.0363007
0.0549816,-0.0264145
0.00038873,-0.00383408
-0.021307,0.0118784
-0.0290067,0.0180232
0.00257833,0.0141817
0.040287,0.0133298
0.0551225,0.012284
0.0489478,0.00893205
-0.0067327,0.00631108
-0.0484973,-0.00135515
0.0126693,-0.0117869
0.0623708,-0.00398728
0.0211318,0.010817
-0.0288921,0.00338196
-0.0826924,-0.000446335
-0.149944,0.00319722
-0.195811,-0.00369668
-0.21276,-0.00660799
-0.132274,-0.00662219
-0.0717539,-0.00751288
-0.0172231,-0.00544802
0.111094,-0.00137037
0.163563,-0.00265183
0.0986427,-0.00165913
0.0239867,-0.00694283
0.0902871,0.00719464
0.201229,0.0147886
0.174096,0.0150312
0.0900735,0.0253622
-0.00117575,0.00848929
-0.0648714,-0.00853105
-0.0778778,-0.00559373
-0.0504755,-0.00912956
-0.0359578,-0.0223487
-0.0342788,-0.0267663
-0.036502,-0.0211683
-0.0507105,-0.0148549
-0.0272026,-0.011445
0.0231384,-0.0102108
0.0668723,0.0231083
0.0960215,0.0397298
0.0794618,0.027704
-0.00181066,0.0409387
-0.0494164,0.0363551
-0.0534253,-0.00382529
-0.0581807,-0.0417936
-0.0627097,-0.0185079
-0.0535465,-0.00702985
-0.020892,-0.00906169
0.0212074,-0.0325212
0.0437965,-0.0416374
0.0527508,0.00657118
0.00977194,0.0158002
-0.0465613,0.0148858
-0.0546371,0.0182549
-0.0112177,0.038025
0.0121317,0.040706
-0.0169524,0.0435909
-0.06417,0.0199712
-0.0796298,-0.0209911
-0.0377844,-0.0407575
0.0415939,-0.0402461
0.086927,-0.0162541
0.0803083,0.0173705
0.0438751,0.00962443
0.00710799,-0.017159
-0.00297669,-0.019098
0.0464342,0.00124216
0.0635698,0.00428183
0.0331946,0.00725491
-0.0328862,0.0140549
-0.0796483,-0.00584712
-0.0807341,-0.0228691
-0.058888,-0.0354576
-0.0369405,-0.0259488
-0.0468059,-0.0125248
-0.0410696,-0.000439638
0.00158847,0.0140473
0.0641141,0.021807
0.0997881,0.0280526
0.0745005,0.0115112
0.0218397,-0.0154678
0.00146918,-0.0104501
0.014914,0.00798646
0.054844,0.020268
0.0845867,0.0238226
0.0373369,0.0252332
-0.0312045,0.00764224
-0.0511556,-0.0118581
-0.0490755,-0.0148706
-0.0310063,-0.0156025
0.00308373,-0.0128486
0.00231775,-0.00086365
-0.014036,0.0222353
-0.0288112,0.00753093
-0.0536345,-0.0182382
-0.0544246,-0.0159862
-0.0273902,-0.00878098
0.021747,0.00302832
0.102653,0.00553441
0.0870036,-0.00219057
0.0273859,-0.0110616
-0.0460211,-0.00213204
-0.10461,0.022034
-0.201709,0.00115266
-0.201255,-0.0100921
-0.0105291,-0.0131944
0.139904,-0.0108805
0.187106,0.00107374
0.175107,0.00592028
0.0854231,0.0109104
0.0237553,0.0293109
0.0141795,0.0238222
0.0110119,-0.0101185
-0.00687524,0.000318136
-0.0429015,0.00829605
-0.0531008,0.00542966
0.0152205,0.00250552
0.080063,-0.0142967
0.0682568,-0.0151125
0.00498754,-0.00648216
-0.0575933,-0.0172831
-0.0997021,-0.0142505
-0.0878955,-0.00344704
-0.0406325,0.00112987
-0.000105139,-0.00573816
0.0115482,-0.0169928
-0.00222335,-0.0163292
-0.0171991,0.00283381
-0.0361228,-0.000406095
-0.0457857,0.00272595
-0.019913,0.0160226
0.0201388,0.0302937
0.0591281,0.0296112
0.0944654,0.0211677
0.0685854,0.00854673
-0.0173249,0.00895266
-0.053499,0.00728708
0.00807082,-0.00919814
0.0123763,-0.0152986
-0.0448099,-0.0130615
-0.0424047,-0.0204999
0.00236766,-0.00883956
0.0618426,0.00904503
