Comp Ch 3,Comp Ch 4
-0.0582391,0.0343796
-0.0756684,0.0979297
-0.093349,0.0967199
-0.0566561,0.0757377
0.0305071,0.0552349
0.0580288,-0.000136548
0.0153442,-0.0318758
-0.0105007,-0.0934044
0.0194337,-0.157053
0.041212,-0.148466
0.0351438,-0.0251581
-0.0132688,0.167416
-0.0216415,0.183247
-0.00281874,0.167579
-0.0155333,0.0725579
0.0047706,0.027153
0.0401003,0.117464
0.0138069,-0.0613415
-0.000270672,-0.113035
0.0136168,-0.0919488
0.047538,-0.126272
0.0389506,-0.138323
-0.0733754,-0.139516
-0.166902,-0.054523
-0.135878,0.00584107
0.00884098,-0.02023
0.0609382,-0.0519846
0.0670199,-0.0119105
0.0746893,0.00487241
0.08729,0.0564514
0.0620038,-0.00938863
0.0308701,-0.0174839
0.00295767,-0.0579785
-0.0541288,0.125179
-0.0748449,0.105763
-0.0386121,0.046114
-0.00713386,0.136648
0.0150782,0.0854035
0.0171092,0.033763
-0.0112493,0.0839967
-0.0283376,0.046786
-0.0240301,0.209355
-0.0261041,0.129324
0.00733629,0.0258898
0.0285654,-0.0035283
0.0201036,-0.075045
-0.0100465,-0.0886127
-0.0230722,-0.0977494
-0.00940452,-0.109851
0.0215812,-0.0812207
0.0381725,-0.0411017
0.0186437,-0.0205764
-0.0143966,-0.00624234
-0.012237,-0.0320251
0.00150281,-0.0672787
0.0133704,-0.070742
0.0166138,-0.0705912
0.00975956,-0.0454711
0.00855357,0.0248039
-0.00323504,0.0549484
-0.0171489,-0.0130578
-0.0298862,0.0389234
-0.0424927,0.0974513
-0.0236309,-0.0192347
-0.00446381,-0.0934842
-0.031592,-0.0261181
-0.0101384,-0.0095832
0.0413499,-0.018533
0.0410216,-0.0146915
-0.00606729,-0.0186535
-0.00693511,0.0356617
-0.00249633,-0.0388386
0.0141585,-0.0557457
0.0753885,-0.00768559
0.0576991,0.0486249
0.0152378,0.0925006
-0.000165523,0.0793278
-0.0335459,0.000306107
-0.0503717,-0.0171077
-0.0190541,0.00974526
-0.00535689,0.023642
-0.0399395,0.000768854
-0.0294494,-0.0167578
-0.0200218,0.0355278
-0.0119934,0.0397121
0.021597,-0.0218021
0.0821336,-0.0209898
0.110313,-0.0147622
0.112742,-0.0273901
0.0955256,-0.0250018
0.0271453,-0.013123
-0.0689086,0.0155823
-0.110631,0.0289912
-0.111732,0.00168629
-0.0763207,0.0268246
0.00830597,0.0396738
0.115655,0.0291543
0.109286,-0.0510241
0.0182452,-0.0976238
-0.0425592,-0.064077
-0.0629532,-0.00673075
-0.0588401,0.105622
-0.0946513,0.063318
-0.117683,0.0423365
-0.10676,0.00585654
-0.0374222,-0.0227556
0.0218369,-0.0438327
0.00494627,-0.0435158
-0.0161378,-0.0354588
0.0314603,-0.00816719
0.099139,-0.0877456
0.105612,-0.0489604
0.0749447,0.0498574
0.053551,0.0774612
0.0689783,0.156955
0.0283018,0.11241
-0.0609218,0.0387442
-0.0388775,-0.0156816
0.0571905,-0.0674237
0.0777164,0.00435675
0.00464353,-0.0438308
-0.0989395,-0.155203
-0.0996918,-0.104033
-0.0733124,-0.00219159
-0.0535393,0.071139
-0.0389243,0.112966
-0.00284293,0.120368
-0.00086887,0.057269
-0.0183934,0.0141363
-0.0278403,-0.0146729
-0.0286791,-0.0105883
0.0303964,-0.0090355
0.0753306,-0.0557587
0.0424783,-0.0277082
0.0167619,-0.0280066
0.0375471,-0.040543
0.0610206,-0.0694915
0.0697923,-0.110775
0.065356,-0.063751
0.0318096,0.0385497
-0.0207924,0.0814184
-0.0559881,0.0690503
-0.0717113,0.0491274
-0.080349,0.0499485
-0.0604279,0.0321965
-0.0462537,0.00869059
-0.0360657,-0.0208007
-0.0204623,-0.0548945
0.0244618,-0.0543259
0.0642352,-0.0174001
0.0552732,0.0620657
0.037775,-0.0021463
0.0452177,-0.0588468
0.0517262,-0.0425836
0.0193063,0.0269985
-0.0378436,0.051015
-0.0610386,0.0416583
-0.0281466,0.00569144
0.0258449,-0.0134318
0.0523168,-0.0102847
0.0613719,-0.0240385
0.0537866,-0.100005
0.0124556,-0.12514
-0.00271781,0.0114712
-0.00582534,0.148791
-0.0427685,0.0597555
-0.105243,0.0107082
-0.12771,-0.0595703
-0.0658009,-0.0342893
0.0362724,0.0653986
0.0623143,0.0587689
0.0320831,0.0583552
0.0208582,0.0769792
-0.00277707,0.0214492
-0.0185018,-0.0326277
0.00189874,-0.0409873
0.0208659,-0.0504794
0.0191253,-0.0566637
0.00452306,-0.0458859
-0.0103822,-0.0441987
-0.0326898,-0.0240653
-0.0135958,-0.0155399
-0.0127752,0.0731082
-0.0497254,0.128999
-0.0591216,0.0234783
-0.0062009,-0.0363316
0.0184919,-0.0137934
0.0669042,-0.0291337
0.141979,-0.109262
0.098154,-0.131084
-0.0269661,-0.0643277
-0.082079,0.066701
-0.0105011,0.135932
0.084944,0.134293
0.042945,0.101751
-0.0313002,-0.0308578
-0.0252634,-0.087776
-0.0303434,-0.0476339
-0.00990702,-0.0201941
-0.0321098,0.0273775
-0.0742593,0.0801298
-0.0870056,0.00964695
-0.0642319,0.0144596
-0.0121472,-0.00551745
0.0295566,-0.020482
0.0736414,0.0496884
0.0978689,0.0212204
0.122072,-0.115504
0.101445,-0.236452
0.0163947,-0.217689
-0.109341,-0.0631269
-0.197375,0.083983
-0.162056,0.128737
-0.0528353,0.197827
0.0584851,0.160247
0.10896,0.0619275
0.0614224,-0.00114949
0.0292812,-0.0225461
0.0126909,-0.0319064
-0.00310352,-0.0289226
-0.0122229,0.0322601
0.00433776,0.0103025
0.0208546,-0.0958834
0.0393362,0.0258032
0.0470851,0.114167
0.0339297,0.0494293
0.0398185,-0.0342591
0.0530399,-0.0145195
-0.00132817,0.00308951
-0.0673747,0.00831191
-0.0799753,-0.0131265
-0.0680539,-0.0301014
-0.0475365,-0.0587919
-0.0310433,-0.119234
-0.016765,-0.0540692
-0.00246964,0.0260755
0.00550317,-0.0644034
0.0178693,-0.0284363
0.0385998,0.0454306
0.0501015,0.0148584
0.048409,-0.00087129
0.0373196,0.051727
0.00356831,0.105114
-0.0472921,0.0564897
-0.0812085,-0.00274463
-0.0775548,-0.04328
-0.0473348,-0.0719561
-0.0779812,-0.00560517
-0.0804336,0.00961419
0.0259723,-0.0369704
0.159955,-0.0736904
0.145109,-0.0698285
0.0978315,0.0424411
0.0634165,0.0925561
0.00952736,0.025855
-0.0644884,-0.0110322
-0.0868744,0.0198971
-0.0744689,0.0277071
-0.00749565,-0.00542465
0.0716565,-0.0187925
0.0679722,0.0480648
-0.000452525,0.0417783
-0.0445031,-0.0130583
-0.0249958,-0.0160361
0.0188455,-0.0089958
0.0532255,-0.0220147
0.0613251,-0.00854379
0.0158954,-0.00489313
-0.0421772,-0.0198296
-0.0690789,-0.0322603
-0.076769,-0.0290217
-0.0516182,0.0343709
-0.0325038,0.0280751
-0.0341871,0.012141
-0.0277026,0.0913869
-0.0395777,0.00908831
-0.0363535,-0.000637417
-0.00902249,0.0044422
0.0509906,-0.0343677
0.0806039,-0.0247785
0.0641902,-0.0196087
0.0342134,-0.0260029
0.00901629,-0.00714813
0.0403683,0.00407524
0.114347,0.00475646
0.130793,0.0127648
0.0153068,-0.0507585
-0.0257487,-0.051655
-0.00561077,0.0374863
-0.0435689,0.0570359
-0.0969316,0.0204028
-0.115271,0.0296155
-0.134129,0.0146143
-0.114592,-0.0307236
-0.0388074,-0.0525175
0.0506448,-0.0586223
0.150118,0.0364715
0.168211,0.0974368
0.0881666,0.0304504
0.00520178,-0.0711795
-0.0867386,0.0042031
-0.107002,0.0241474
-0.086042,-0.0221205
-0.0266916,-0.0385985
0.0397718,-0.012247
0.0303084,-0.0109233
-0.0144833,-0.0335172
-0.0506104,0.058851
-0.0494341,0.0806805
0.00932422,0.0385974
0.0495253,0.0178949
0.05324,0.0198889
0.0171459,-0.000596778
-0.019985,-0.0161734
-0.0246096,-0.0263969
-0.0135168,-0.0206477
-0.00873939,-0.000883877
0.0357471,-0.0559259
0.0539889,-0.0691692
0.0652505,-0.0550078
0.0526569,0.0113255
0.00819249,0.0293196
-0.0285813,0.0193957
-0.0288723,0.0554521
-0.00960177,0.033003
0.0358234,-0.00421075
0.0536683,0.0590464
-0.00152286,-0.00835441
-0.042894,-0.00817712
-0.0642883,0.0172181
-0.0534254,-0.053533
-0.0224365,-0.0966267
0.0155994,-0.0488784
0.0520578,0.00298122
0.0408054,0.0448115
-0.0220465,0.00659641
-0.0588843,-0.0361391
0.0184892,-0.00411657
0.0520955,-0.00560442
-0.00776713,0.0289993
-0.082841,-0.00667807
-0.0810172,-0.0161776
-0.00908297,0.0169067
0.0511998,0.0595003
0.118455,-0.0395089
0.112553,0.0616516
0.0627457,0.0670546
-0.034366,-0.0234875
-0.0850857,-0.0358672
-0.0796181,-0.0215118
-0.0551001,0.00447177
-0.0207763,0.035451
0.030688,0.0330169
0.0560491,0.0115447
0.0553987,0.00659908
0.00519976,-0.0379409
-0.0338022,0.00027048
-0.0479734,0.0497718
-0.0592106,0.0494501
-0.0430661,0.0468456
-0.0172158,-0.00256514
0.0162714,-0.0860079
0.053729,-0.149409
0.0682162,-0.124327
0.0387137,-0.0256422
-0.0137904,0.0548264
-0.0715944,0.0676865
-0.0743713,0.0522803
-0.00134488,0.071927
0.0458306,0.0154265
0.0474886,-0.0530593
0.00907951,-0.0319588
-0.0240477,0.0170106
0.0158623,-0.0248245
0.0174618,-0.0195631
-0.0315347,0.00278976
-0.0414572,0.0168952
-0.0269447,-0.0325534
-0.0024301,-0.0171118
-0.015706,0.0845237
-0.0506495,0.0801244
0.00481884,0.0578603
0.0640859,-0.0232354
0.0520583,-0.0241103
0.00979859,-0.0571918
0.0107301,-0.047454
0.037047,-0.0142839
0.0240299,0.0219858
0.0258599,0.0666577
0.0205123,-0.0358209
0.0247386,-0.0352238
0.0420002,-0.0428692
0.0181178,0.0168855
-0.0233446,0.0532832
-0.0315519,0.0215767
-0.0393099,-0.0023492
-0.0316194,-0.0186349
-0.0534141,-0.0293959
-0.0568458,-0.0644161
-0.0026656,-0.0930714
0.0251877,0.00700083
0.0214632,0.0989626
0.015369,0.00509552
-0.0177702,-0.0349411
-0.0680367,-0.016687
-0.0972178,0.0363114
-0.0672443,0.0759249
0.0123425,0.0617569
0.102114,0.0397195
0.121333,-0.0191039
0.0958861,-0.022482
0.0984558,0.0170292
0.102961,0.0308679
0.0225253,-0.0328966
-0.0873073,-0.0139746
-0.139569,-0.0829808
-0.078131,-0.0512592
0.0428923,0.00205288
0.0805987,-0.091461
0.00628199,-0.0280077
-0.0450637,0.0528811
-0.0722594,0.000542771
-0.0655083,0.0393787
-0.0146081,0.0221695
0.0140196,-0.0639085
0.0233622,-0.070379
0.0176869,-0.0108884
-0.00262623,0.0631181
-0.0380644,0.12334
-0.0793817,0.0638162
-0.0456255,0.0043657
0.00652809,-0.0515643
0.020206,-0.035336
0.0465197,0.0907412
0.0739264,0.0977295
0.0888175,0.00229152
0.0708249,-0.00922419
0.0163643,-0.0257784
-0.0581096,-0.0398007
-0.0865489,-0.0178959
-0.0371351,-0.0487247
0.0342578,-0.0423199
0.051988,-0.0084374
0.0183891,0.0991601
-0.0486979,0.07839
-0.0453748,-0.0560651
0.0152519,-0.0747998
0.0354931,-0.00438441
0.0131463,0.0409827
-0.0175778,-0.00199662
-0.037102,-0.0194977
-0.0394214,-0.0218646
-0.0220459,-0.0391782
-0.0124404,-0.0337372
-0.0147042,-0.0272314
-0.0121014,-0.0111149
-0.00807719,0.0209998
0.00743252,0.0849489
0.0482134,0.157188
0.0292873,0.106867
-0.012191,-0.0892091
-0.0125487,-0.107413
0.018513,-0.110313
0.0499137,-0.137547
0.0470107,-0.0235903
0.0377339,0.0713437
0.0912552,0.0996686
0.0691824,0.0648464
-0.0351628,0.0340964
-0.114471,0.0362286
-0.131499,0.0621653
-0.0595719,0.01099
0.0243914,-0.0476011
0.0336544,-0.0477748
0.0185344,0.00329877
-0.00903939,0.0393373
0.0133355,0.0287214
0.0839046,-0.0288806
0.0897256,-0.0458086
0.0450142,-0.140628
-0.00780094,-0.0880789
-0.0603788,-0.0412911
-0.0663417,0.0202075
-0.0523227,0.0502278
-0.046679,0.0637963
-0.0369696,0.0352311
-0.00855614,0.0137227
0.00907111,0.0382609
0.0124563,0.0507762
0.0115432,0.0312658
-0.00944487,-0.0343481
-0.0316371,-0.0450079
-0.0405707,-0.120299
-0.0413912,-0.114374
-0.0249988,-0.00594835
0.0180916,0.104589
0.0425648,0.013798
0.0449959,0.0447437
0.0727665,0.205434
0.0718602,0.0244841
0.0470958,-0.0464296
0.0121627,-0.00407214
-0.0115713,0.00243202
-0.0197322,-0.00200189
-0.0344319,0.0166553
-0.068858,-0.0490391
-0.0421387,0.0214286
-0.00173559,0.0916957
0.0368701,0.070006
0.0203208,-0.0953322
-0.0197736,-0.102807
-0.0459916,-0.0357779
-0.0144554,-0.0391715
0.0319999,-0.129839
-0.000346727,-0.12871
-0.0117735,-0.00888651
0.0313001,-0.0101446
0.0976488,0.0518727
0.0800441,0.143732
0.0244705,-0.00160499
-0.00507354,0.0068058
-0.0137762,0.0913352
-0.0427142,-0.0372693
-0.0623176,-0.144767
-0.0296125,0.00514925
-0.0119645,0.163181
0.0015155,0.109915
-0.0189419,0.0456917
-0.0275071,-0.0209039
0.0154203,-0.0437173
0.0076463,-0.0415268
-0.0151756,-0.0235618
0.00273459,-0.0532094
0.0163997,-0.0481459
0.011629,0.0498133
-0.0171305,0.0410601
-0.0261058,-0.00604476
-0.0167923,-0.0257984
0.00418264,-0.0297411
0.0167285,0.0869336
-0.0151191,-0.0173124
-0.0434869,-0.0751748
-0.0140375,0.00651043
0.000239055,0.0302919
0.0212094,-0.0243112
0.0504224,-0.022033
0.0351956,0.0995342
0.0245964,0.00134618
0.00744225,-0.0379758
-0.0107578,0.0391027
0.00471739,0.0307613
0.0328563,-0.00575851
0.0199989,-0.0448146
-0.00104626,-0.0881835
-0.0147872,-0.0282122
-0.0448673,0.0257804
-0.0413237,0.0640932
-0.0298401,-0.0140783
-0.0173325,0.0368282
-0.0103281,-0.00519511
0.0352456,-0.170421
0.0540316,-0.115959
0.00821715,0.10308
-0.0257042,0.0329647
0.00846653,-0.0227957
0.0279949,-0.0296181
0.00251923,0.0632184
-0.0149705,0.106092
-0.0275359,0.0702578
-0.0233034,0.0590042
0.0118508,0.0639067
0.0422827,0.0665152
0.0367485,0.0607251
0.0154401,-0.0159414
-0.020298,-0.0960225
-0.0652276,-0.0530373
-0.0691365,-0.0238311
-0.0389488,-0.0227957
-0.0181924,-0.0247159
-0.00824727,0.00494525
0.00747982,0.0159343
0.0287567,0.00998989
0.0630946,-0.00944111
0.149129,0.0642882
0.117816,0.094164
0.0061878,-0.098264
-0.0460419,-0.127813
-0.00782033,-0.0710497
-0.00486216,-0.0506576
-0.0318544,-0.00499859
-0.0738086,-0.00163694
-0.0790711,-0.0259517
-0.0168738,0.0214434
0.00453514,0.0188632
0.0259869,-0.0102964
0.0581363,-0.0258874
0.0453401,0.0692314
0.017354,-0.0592553
0.00194934,0.00194597
-0.0128142,0.035758
-0.037846,0.00912141
-0.0623036,-0.00322117
-0.0543886,-0.0188857
-0.0308919,-0.0219932
-0.0111492,0.00399755
0.0170427,0.0369571
0.0258329,0.0369674
0.0114806,0.0474052
-0.00594781,0.0342148
-0.0278012,0.0169838
-0.0273895,0.0258508
-0.0121072,-0.0179246
-0.0015671,-0.0452652
0.0185457,-0.0479482
0.022909,-0.0534374
-0.00378043,-0.0056736
-0.0302331,0.0396516
-0.0232249,0.0148159
0.0310718,0.0141237
0.0573221,0.00337396
0.0619418,0.0621297
0.0540587,-0.0822273
0.0287772,-0.0198815
-0.0073553,0.0134726
0.000903788,0.0451516
0.0267479,0.0285547
0.0377787,-0.0470675
-0.0453956,-0.0504803
-0.0920822,0.0275054
-0.0781818,0.0895389
-0.0486044,0.0577691
0.0159716,0.0606553
0.0590872,0.0202418
0.0486103,-0.0536253
0.00875903,-0.107843
0.00215815,-0.075855
0.0118868,0.0684392
-0.041313,0.120722
-0.0640107,0.0261134
-0.0340164,-0.0917572
0.0208394,-0.173364
0.0680236,-0.115111
0.0817626,-0.0402164
0.0849121,0.0843775
0.0525019,0.0205168
-0.00702749,0.00145279
-0.0528904,0.128657
-0.0943391,0.107428
-0.102997,-0.0505458
-0.0679813,-0.0773497
0.00927391,0.0141644
0.0646316,-0.0222657
0.0734535,-0.0906018
0.061456,0.0370756
-0.0190656,0.149133
-0.0831343,0.106507
-0.0810902,0.0171037
-0.0311612,-0.00177034
0.00718676,0.034901
-0.0166907,0.00314652
-0.0114991,-0.0623441
0.0541164,-0.100801
0.112815,0.0150947
0.110109,0.0320399
0.0478674,0.0996189
-0.0527827,-0.080641
-0.115003,-0.127056
-0.126293,-0.0255489
-0.0579745,0.0612028
0.0152575,0.0660725
0.0340383,-0.0270674
0.0103884,-0.0353031
0.00428393,0.0103319
0.0205162,-0.0220379
0.0211812,-0.0403615
0.0283371,-0.0170013
0.00559383,0.0812095
-0.0248797,-0.00810111
-0.0239486,-0.0233766
0.00484728,-0.00770614
0.0767975,-0.0431017
0.147162,-0.0729266
0.118035,-0.0345196
0.0117078,0.0281727
-0.11362,0.0830569
-0.133103,0.0617653
-0.0494877,-0.00761465
0.0146249,-0.0738973
0.0252479,0.00209714
0.0338616,0.0342343
0.0313912,0.0558568
0.0184259,0.0249224
-0.038164,0.0299881
-0.0210096,-0.024629
-0.0240804,-0.0292932
-0.099106,-0.0325481
-0.0757364,-0.0668826
0.0012111,-0.0117333
0.00631702,-0.0129891
0.046083,-0.0253848
0.0902344,-0.020107
0.0634228,0.0630451
0.0246789,0.15002
-0.00791549,-0.0301557
-0.06804,-0.0243907
-0.0595037,-0.1321
0.0272413,-0.0960026
0.0543698,-0.0436991
0.0386516,0.0663222
0.0212337,0.0811431
0.0085333,0.0531355
0.011084,0.0491002
-0.00415015,0.0674349
-0.0403123,0.0550019
-0.0758308,0.0203685
-0.0904563,-0.0552301
-0.0520937,-0.0628095
0.0112415,-0.0963426
0.0401745,-0.0775938
0.0338362,-0.0846055
0.027481,0.0982509
-0.00294439,0.125919
0.00896398,0.0841028
0.0249976,0.0631617
-0.00653286,-0.0270257
-0.0195634,-0.0257585
0.00200235,0.0766728
0.0327384,-0.00818872
0.104421,-0.0519881
0.114044,-0.0659442
0.0328602,0.042568
-0.0694658,0.00604565
-0.119544,0.00425033
-0.117088,0.0334891
-0.0883956,0.0261356
-0.049402,-0.0170064
0.00293122,-0.0573264
0.0302869,-0.0564319
0.0691725,-0.110573
0.0923887,-0.0814123
0.10151,-0.0139284
0.0689681,0.229277
-0.0282599,0.12824
-0.0855689,-0.124385
-0.0729866,-0.0391118
-0.072544,-0.00603762
-0.0392311,-0.0128795
0.0159539,0.0249847
0.0454347,-0.0499674
0.0473395,-0.00724322
0.0227075,0.0179662
0.0440552,-0.0724236
0.12335,-0.115748
0.0822616,0.00853255
-0.0672882,0.150081
-0.186599,0.0845165
-0.176724,-0.0204219
-0.095473,-0.0637511
-0.0255623,0.0113687
0.0383128,0.0478217
0.0943225,-0.0479121
0.112131,-0.0268382
0.0874553,-0.00014377
0.0466768,0.0154509
0.0275469,0.0774071
0.00154986,0.158647
-0.0453222,-0.0200456
-0.0874547,-0.0877564
-0.0601572,-0.0410956
0.0336334,0.0133114
0.103768,-0.0660759
0.115482,-0.0093551
0.0912232,0.0557133
0.0269976,0.00515646
-0.0483675,-0.00552188
-0.0491588,-0.0266804
0.00977023,-0.0145405
-0.00791892,-0.0212834
-0.0916338,0.0378018
-0.153625,0.260262
-0.114778,-0.0237548
-0.0410035,-0.180793
-0.0225438,-0.0267733
0.0240625,0.00804153
0.109882,-0.0524981
0.126816,-0.0203467
0.0995981,-0.0368199
0.0514506,-0.139509
-0.0105883,-0.0819787
-0.0379509,0.130205
-0.0453586,0.024578
-0.0620432,-0.0387444
-0.0893399,0.0333161
-0.0902446,0.111087
-0.0535753,0.029466
-0.0223577,0.0497203
0.00387656,0.0530887
0.0244395,0.0161739
0.0448326,0.0235574
0.066682,0.0294788
0.0379962,-0.0292928
0.0187632,-0.0328628
0.00998315,-0.0624497
-0.0545633,0.0196644
-0.0415214,0.0347787
0.0440547,-0.0556539
0.0642897,-0.059518
0.0890755,0.0251821
0.0912393,0.0668643
0.0386096,0.0184992
-0.0790481,-0.0456639
-0.104133,-0.0304524
-0.028805,-0.0268746
0.0402018,0.0273712
0.0453762,-0.019476
0.0579924,0.0112237
0.0440751,0.000681302
-0.00568702,-0.000435363
-0.0488089,0.0307747
-0.0925729,-0.0475334
-0.087319,0.028145
-0.0427928,0.0244035
-0.0271473,-0.038869
-0.0114832,-0.0729791
-0.0122272,-0.0875397
-0.064051,0.018502
-0.0716375,0.0558359
0.0311069,-0.0288993
0.117635,0.0208206
0.119966,0.0493092
0.120009,-0.0314264
0.152893,0.0221787
0.0823041,0.0642902
0.0147959,0.112855
-0.0347853,0.0341554
-0.115721,-0.0453394
-0.164488,-0.0588557
-0.193003,-0.0349888
-0.0890977,-0.028343
0.0320589,-0.0140316
0.0907561,-0.0177837
0.0751972,-0.0356725
0.0520501,-0.0129515
0.0142511,-0.00176469
-0.0099632,-0.017439
0.00350884,-0.00120823
0.0155227,0.0645981
-0.00601303,0.0378402
-0.0765136,0.00949182
-0.0486797,-0.00590234
-0.0155141,0.0375458
-0.0423784,0.00417893
-0.0154216,0.0112345
0.038368,-0.0470399
0.0737218,-0.00859608
0.0618598,-0.0491421
0.0342771,0.0392038
0.0694819,0.0572946
0.117838,-0.0117478
0.0880002,0.0607856
-0.0111118,0.0470597
-0.0667613,0.0545496
-0.116124,-0.0522171
-0.0721114,-0.139539
-0.0421594,-0.128894
-0.0232792,-0.11913
-0.0445716,0.00096553
-0.0442001,0.0929809
-0.017668,0.0666046
-0.0418946,0.0474185
-0.00497371,0.0775171
0.063793,0.0254541
0.106578,-0.0373812
0.0821216,-0.0406042
-0.0015637,0.00177503
0.00909917,-0.078416
0.0538928,-0.00725858
0.00613792,0.203327
-0.0282547,0.129247
-0.0663694,-0.041228
-0.165369,-0.0615607
-0.198637,0.00328546
-0.104589,0.0339936
0.0319056,-0.0234985
0.198232,-0.0899994
0.273165,0.0345868
0.152016,0.111484
0.00356463,-0.0571485
-0.0702916,-0.0635733
-0.0993365,-0.128731
-0.118764,-0.0968597
-0.0901521,0.0206574
0.000136739,0.0613404
0.045982,-0.0178837
0.0845272,-0.0625667
0.0491824,-0.0460744
-0.00451398,0.0674346
0.0492741,-0.00582248
0.0550253,-0.00311046
-0.00418072,0.048325
-0.021007,0.0747861
0.031404,0.0620148
0.00218068,0.0715076
-0.0990024,0.0612218
-0.106653,-0.0208476
-0.0148238,-0.0509658
0.0194717,-0.0191096
-0.0826311,-0.0141148
-0.159881,-0.0289324
-0.0715998,0.00296691
0.0962677,-0.000812278
0.126929,-0.0627807
0.0597302,-0.0305709
0.0275571,0.0165884
0.044247,-0.063786
0.0852403,-0.114778
0.107348,0.118817
0.0139354,-0.0244678
-0.0298598,-0.235198
-0.0360036,-0.0636159
0.0229801,0.147288
0.0363831,0.0612045
0.0549327,0.00467794
0.0882178,0.01826
0.0695168,0.072705
0.0497939,0.168189
-0.0589528,0.0965633
-0.261591,-0.0150905
-0.256268,0.0342799
-0.0383898,0.0284859
0.046938,-0.0137305
-0.0649405,-0.0758475
-0.016131,-0.0652492
0.027986,-0.089895
-0.0242193,-0.0200204
-0.0417154,-0.158199
-0.115625,-0.0342398
-0.00961286,0.107948
-0.00707321,0.222532
-0.142648,0.121794
-0.171735,0.0218821
-0.0867014,-0.00159047
0.111435,0.00875475
0.356396,-0.0863162
0.469761,-0.0938404
0.346793,-0.0195018
0.172358,0.0326853
0.0147787,-0.00686627
-0.154527,-0.0584844
-0.240734,0.0728653
-0.199558,0.0703256
-0.158973,-0.0584671
-0.0959488,-0.0297801
0.0165454,-0.0564682
0.123507,-0.0642032
0.154218,-0.0189821
0.187252,0.0080851
0.122654,0.0231369
0.0111407,0.0095752
-0.0901522,-0.0752096
-0.223878,-0.0839382
-0.220156,0.092246
-0.0359647,-0.0360296
0.00459491,-0.129023
-0.0299912,0.0840609
-0.0807369,0.0570924
-0.0895427,0.0582164
-0.035463,0.0992711
0.00302993,0.0284723
0.0626132,0.0199181
0.0900247,0.00605671
0.0867644,-0.0311003
0.108997,-0.0855802
0.0794821,-0.0720993
-0.00328934,0.065247
-0.0699501,0.124942
-0.0937688,0.0489012
-0.0808173,-0.0975144
-0.00464013,-0.0941687
0.0757135,-0.0666445
0.113101,-0.0238785
0.117931,0.0144908
0.101454,0.0418267
0.0404365,0.0592426
-0.0504362,0.0810754
-0.102715,0.0365516
-0.0357049,-0.0279379
0.0648052,0.0246652
0.0926476,0.0730844
0.00515164,0.00672801
-0.0878038,0.0234257
-0.0893301,-0.163975
-0.0258935,-0.117983
-0.0678235,0.0201347
-0.161794,0.0690303
-0.172627,0.132837
-0.124659,0.118724
-0.0638442,0.0137228
-0.017736,-0.127061
0.0451799,-0.0856535
0.0106593,-0.0853561
0.0240217,0.0148832
0.15048,0.0412346
0.268022,-0.0366049
0.30338,-0.143461
0.234651,-0.148803
0.132029,-0.0654007
-0.0592887,0.0534061
-0.206015,0.115049
-0.16619,0.139479
-0.0727118,0.165337
-0.0392349,0.0525817
-0.0162122,0.0045316
-0.0388207,0.015771
-0.061388,-0.0614795
-0.0305501,-0.102287
-0.0236238,0.121071
-0.0693316,0.166372
-0.0532858,0.0372758
0.0251352,-0.0383376
0.0245654,-0.0554594
0.0025281,-0.0368977
0.0608697,-0.0300053
0.117801,-0.078365
0.121258,-0.0849899
0.0585094,-0.00222681
-0.0342957,0.0174887
-0.0818262,-0.109991
-0.0344286,-0.192654
-0.00106102,-0.0951579
0.0122619,-0.0490838
0.0154985,0.0707108
-0.0586709,0.20027
-0.0548806,0.0467786
0.0213315,-0.108362
0.0531481,-0.0333231
0.0224342,-0.0833087
-0.00314867,-0.0150501
-0.0462966,0.188799
-0.0292504,0.255217
0.0218402,0.303702
0.00024895,0.0965695
-0.0378306,-0.164653
-0.00680093,-0.158862
0.0387635,0.112482
0.0928679,0.144352
0.0864938,-0.0881277
0.0425355,-0.137172
-0.0610391,-0.0672614
-0.17213,-0.104955
-0.199577,-0.120726
-0.103462,0.0543313
-0.0206623,0.11126
0.0455015,0.0716588
0.0855902,-0.0207401
0.0327648,-0.101136
0.00803494,-0.0587258
-0.000638975,0.00168051
-0.000879195,0.00807852
-0.0413484,-0.110746
-0.0103069,0.0890669
0.0124326,0.0380415
0.0603989,-0.0380289
0.128181,-0.0565829
0.12713,-0.0293213
0.0789772,0.0886119
0.0771862,0.230832
0.0385053,-0.107226
0.018799,-0.569794
-0.00404384,-0.425259
-0.081805,-0.179107
-0.16596,0.127705
-0.0871908,0.322588
0.0348778,0.454492
0.0511668,0.405933
0.0222658,0.229473
-0.0353088,0.100997
-0.0325579,0.0339338
-0.0146765,-0.091727
0.0423207,-0.175813
0.0608883,-0.146536
0.0443079,-0.0716099
-0.0618703,0.152502
-0.149432,0.0517434
-0.145262,0.00308405
-0.0765708,0.0232814
0.0234451,0.0520618
0.0780486,0.0262149
0.0679569,-0.156562
0.0658889,-0.1352
0.0625246,-0.0930285
0.112891,-0.0270221
0.055324,-0.00825766
0.0178319,-0.0416368
0.0868173,-0.0586157
0.0389067,-0.171547
-0.0837082,-0.266506
-0.0872409,-0.239254
0.00577497,0.00875117
0.0160766,0.203639
-0.00495986,0.174341
0.0165174,0.251995
0.0275156,0.246293
-0.081999,0.202255
-0.20952,0.0480039
-0.220206,-0.141745
-0.105716,-0.129686
0.049679,-0.0278219
0.103588,0.0963764
0.0277205,0.172998
-0.0294457,-0.0834544
-0.0663753,-0.108038
-0.0217414,0.0189497
0.104763,-0.0103478
0.127173,-0.0901959
0.0473785,-0.111762
-0.0442113,-0.00246309
-0.0783354,0.100777
-0.0825545,0.229925
-0.0591794,-0.00371345
0.01296,-0.140765
0.141455,-0.226203
0.218006,-0.316294
0.235075,-0.128906
0.111404,0.220702
-0.126394,0.211555
-0.246389,-0.0127004
-0.214905,0.0456615
-0.0312637,0.16358
0.143598,0.141425
0.186976,0.00798932
0.088209,0.0238823
-0.00460885,-0.0141765
-0.0182963,-0.0739551
-0.0506629,-0.0847221
-0.0441115,-0.0606687
-0.042192,0.0408496
-0.0387211,0.10224
0.00233406,0.0100952
0.0294239,-0.110165
0.00919088,-0.0352149
0.0693648,-0.0143228
0.14016,-0.121126
0.15317,-0.05381
0.0825941,0.0606141
-0.113983,-0.0846973
-0.22529,-0.102383
-0.149064,-0.0578401
-0.0774514,0.175629
-0.0870177,0.23505
-0.103279,0.0310135
-0.0630192,0.019713
-0.0359685,0.0604443
0.0260793,0.0294188
0.0805783,-0.00219625
0.0805807,0.003591
0.0363592,0.0067379
0.00673158,-0.00105651
-0.0524861,-0.0209018
-0.028579,-0.0475285
0.0940034,-0.0575674
0.223753,-0.0615298
0.267433,-0.0979977
0.153084,-0.0860338
0.0178701,-0.0433613
-0.157965,0.00912759
-0.321994,0.0838988
-0.22995,0.0549375
-0.0212376,0.11186
0.0619484,0.020643
0.0810989,-0.0298906
0.0706672,-0.0281239
0.0369748,-0.0321118
-0.00333801,-0.00950352
-0.03028,0.00973409
0.0188714,0.0400204
0.0658619,0.0152737
0.00555192,-0.00974421
-0.124245,-0.0475982
-0.154301,0.0183991
-0.107456,0.0762952
-0.0172153,-0.0379306
0.0601225,-0.0469148
0.0581908,-0.125753
0.0182716,-0.0998863
0.0266377,-0.0135642
0.0892316,-0.0217049
0.131129,0.0193407
0.107319,0.095371
0.00671949,0.151333
-0.0847224,0.0963691
-0.143283,-0.0210474
-0.103935,0.0379433
-0.0411641,0.0422478
0.0229545,-0.0433783
0.0595406,-0.0146035
0.0363639,0.025901
-0.00252435,-0.0123699
0.0166298,0.0455429
0.0469088,-0.0210052
0.0674567,-0.0418242
0.0646583,0.020056
0.0440705,0.0365441
0.0178351,-0.074192
-0.00431712,-0.108618
-0.00742519,-0.0173352
-0.0573184,0.00513289
-0.13687,-0.0204032
-0.15951,-0.0915368
-0.111181,-0.0186541
-0.0423509,0.0139005
0.0154534,-0.00278926
0.0440224,0.0435792
0.059616,0.0772949
0.111183,0.076974
0.0547134,0.0311838
-0.0537095,0.0118916
-0.0595609,0.0984635
-0.0192533,0.0266336
0.0211551,0.0317239
0.0589226,0.0544397
0.100543,-0.0078246
0.100936,-0.137969
0.00301254,-0.0363364
-0.0925418,-0.0150252
-0.0840434,-0.029072
-0.018437,-0.0241456
0.0483009,-0.0428621
0.0938218,-0.00172875
0.0774754,0.0123614
0.0626413,-0.00184827
0.0616096,0.000297504
0.0306594,-0.00426249
0.0106977,-0.0483271
-0.0259885,0.0110746
-0.0530178,0.0402887
-0.0569512,0.00354925
-0.0571509,-0.0260293
-0.0246094,-0.0437645
-0.0160432,-0.0299939
-0.043715,0.0188101
-0.0764601,0.0190195
-0.117665,-0.0108731
-0.0638989,-0.0060262
0.0144537,0.0159072
0.0326568,0.0274071
0.0118424,0.00524761
0.0424278,0.000422678
0.100472,-0.0525802
0.100342,0.021686
0.0477664,0.0770073
-0.0335684,0.0127692
-0.110905,-0.00787475
-0.122413,-0.0468346
-0.0205733,-0.0576774
0.0589939,0.0563998
0.016309,0.00752914
-0.0534026,-0.00118572
-0.0510786,0.00578028
-0.0375477,0.00671396
-0.000989611,-0.0191027
0.0101782,-0.0449667
0.041861,-0.010605
0.0592216,0.00747722
0.0269096,-0.00274093
0.0500532,0.0767226
0.0427395,0.0928467
0.0693798,0.0491917
0.110188,0.0293298
0.153938,0.020357
0.152217,-0.019788
0.0896721,-0.0893793
-0.03983,-0.108793
-0.122469,-0.0495559
-0.133317,-0.000714745
-0.0990136,0.0158858
-0.0871415,-0.000553049
-0.107086,-0.00896307
-0.110416,-0.0230312
-0.0909617,0.00819099
-0.0304926,0.0559154
0.022829,0.106739
0.0181338,0.0454897
0.0201041,-0.123548
0.0127843,-0.0127903
-0.0169545,0.0111149
-0.0105364,0.0189678
0.00163704,0.0737251
0.0248585,-0.0241326
0.0274682,-0.0794382
-0.000798317,-0.00957217
-0.00463494,0.0683222
0.00891043,0.0699162
0.0156973,0.0343277
-0.00910071,0.0270245
-0.0203811,0.00537969
0.0102131,-0.0122426
0.0689051,0.030107
0.092832,-0.00051652
0.0431713,-0.0600389
0.0238388,-0.0516754
0.0012362,-0.0917687
-0.0251391,-0.0911555
0.018021,-0.0323216
0.050656,-0.00732413
0.0121411,-0.0526475
-0.000940512,0.0433983
-0.00426318,0.102489
-0.0133959,0.0703722
-0.0361084,0.0144595
-0.0372701,-0.0285394
-0.0283481,-0.0827644
-0.0231213,-0.040698
-0.0365427,0.00797782
-0.0592387,0.0276434
-0.0534413,0.0368178
-0.0197945,0.0447381
-0.000619231,0.0332743
0.0196182,0.0165365
0.0335422,0.00642396
0.031364,-0.0197932
0.0441085,-0.0121246
0.0561445,-0.00355723
0.0345795,-0.0316749
0.00284924,-0.0536136
0.0084201,-0.0406335
0.0285618,0.00314062
0.0384563,-0.00322813
0.0619538,0.0114416
0.0402695,0.0337795
-0.0215336,0.0532674
-0.0761853,0.017284
-0.0577381,-0.0199822
-0.0392237,0.0184732
-0.0131312,0.0746174
-0.00888881,0.0118916
-0.0428814,-0.0889343
-0.0561406,-0.018504
-0.0507372,0.0207624
-0.0214885,-0.0105966
-0.0094511,-0.0210421
-0.0422508,-0.0161992
-0.0546568,0.0374041
-0.0193337,0.014796
0.0476981,-0.0393896
0.134504,-0.0506946
0.176183,-0.0151384
0.161509,0.0220992
0.0977693,0.0311706
-0.0556605,0.0456721
-0.182603,0.0416878
-0.171101,0.00268726
-0.0750482,-0.00974549
-0.0403024,0.112775
0.0019566,0.0152472
0.0690971,-0.066028
0.118893,-0.033884
0.108336,0.00959172
0.0479834,-0.0081639
-0.016941,-0.032253
-0.0402886,-0.0126572
-0.0476005,-0.00656264
-0.0417189,-0.0225012
-0.0132017,-0.0543959
-0.00801548,-0.0316855
-0.0238483,-0.000817511
-0.010616,0.0279991
-0.0114727,0.0854525
-0.0246014,0.00128358
0.00619654,-0.0669835
0.0461349,-0.00371132
0.043439,0.0341669
0.00973277,0.00569729
-0.0268701,-0.00266621
-0.0419642,0.0356385
-0.0389346,-0.0297038
-0.0198977,-0.0658096
0.00956252,-0.0488311
0.0285815,-0.011051
0.00338518,0.00755159
-0.010313,0.0146128
0.00454245,0.0444036
0.0449092,0.0441107
0.104902,0.0360462
0.0941125,0.0583791
0.0299095,-0.00306091
-0.0205871,-0.0862639
-0.0410663,-0.0815389
-0.0269666,0.0593514
-0.0459774,0.0354315
-0.0572342,0.00517088
-0.0580975,0.0165961
-0.0673117,-0.000461895
-0.0595302,0.0233593
-0.0134584,-0.0483787
0.0393823,-0.0750036
0.0663826,0.0116955
0.0616297,0.0827717
0.0390409,0.0566186
-0.0341019,0.00838592
-0.0825813,-0.000705084
-0.0509304,-0.0159687
-0.020083,-0.0189185
0.0360175,-5.09e-05
0.0896618,-0.0194982
0.0887288,-0.0278051
0.0593938,0.0194157
0.00953835,0.0537629
-0.0379505,0.0170395
-0.0434254,0.0145363
-0.0267758,0.00425237
-0.00572223,-0.0666759
-0.00312881,-0.082744
-0.0035607,0.00822164
0.0116732,0.0124813
0.0277474,-0.0263662
0.023115,0.0601846
-0.00568777,0.0323426
-0.0602493,-0.0630366
-0.100799,-0.0532583
-0.0922562,-0.0233901
-0.00807711,0.000897887
0.0885167,0.0268318
0.115472,0.0470467
0.0731692,0.0343109
0.0349343,0.0159912
-0.00680088,0.0253788
-0.0538268,0.0077411
-0.0368603,-0.0158061
-0.00731213,-0.0239212
0.0121839,-0.0422513
0.0262562,-0.0463516
-0.00355992,0.0111218
-0.0630483,0.00636119
-0.0755719,-0.017674
0.0102911,-0.0479999
0.0896336,-0.00187265
0.104845,0.0641461
0.078572,0.0693951
0.0133704,0.0117578
-0.0541234,-0.00560377
-0.0803631,0.018671
-0.0394687,-0.016601
0.00799856,-0.0595208
0.0430611,-0.0411012
0.0357538,-0.0131685
-0.0191122,0.00318164
-0.08637,-0.00816973
-0.071459,-0.0217941
-0.0292266,0.0182421
-0.0144967,0.0515903
-0.011627,0.0910941
-0.00798779,0.072629
0.00235887,-0.0108893
0.023945,-0.0245056
0.0280746,-0.0114696
0.0311076,-0.0116201
0.0129446,0.000917562
-0.0181503,0.0474869
-0.0154925,0.0964548
-0.00252382,-0.00326947
0.0336586,-0.10415
0.0365766,-0.0481122
0.0166655,-0.00812618
0.024593,-0.0281486
0.0189707,-0.0588725
-0.0118223,-0.0663082
-0.00860979,-0.0668171
0.00248396,-0.054209
-0.0105848,-0.0398842
-0.0153221,0.0176433
-0.0114573,0.0710671
-0.00859356,0.110139
-0.00707425,0.14049
-0.0229014,0.0738596
-0.0345937,0.00325589
-0.0303266,-0.0359865
-0.0133803,-0.0443168
-0.00190836,-0.0259826
-0.00453854,0.0160969
6.49e-05,0.0127333
0.0237915,-0.0139439
0.0302946,-0.0103806
0.0110544,0.0183444
0.00152735,0.00279943
0.0100684,-0.02359
0.0190494,0.00141873
0.0218192,0.024275
0.00815023,-0.0219788
-0.00313852,-0.00867223
0.0126652,-0.021095
0.0205175,-0.054284
-0.0146303,-0.0701252
-0.0079998,-0.0504433
0.0451003,-0.0197661
0.0801259,-0.00316066
0.0785119,0.00293631
0.0503509,0.0538041
-0.0060665,0.060275
-0.0550646,0.0904936
-0.0580502,0.113117
-0.0566255,0.00983603
-0.0631011,-0.0768073
-0.0471301,-0.0448883
-0.0428497,-0.0249611
-0.0333649,0.0482858
-0.0254504,0.041101
-0.00645057,-0.0113672
0.00808656,-0.0211741
0.0007648,-0.0286822
0.00380357,-0.0457358
0.00242181,-0.0503709
0.00866781,-0.0546594
0.0213824,-0.0370197
0.0241929,3.26e-05
0.0207432,0.0824182
0.0179466,0.110119
0.0415917,0.0518544
0.0445436,0.00298245
0.021532,-0.00864887
-0.0113227,-0.0173927
-0.0459608,-0.0225131
-0.0572962,-0.0133906
-0.0779983,0.010347
-0.0805801,0.0224103
-0.0637416,0.0168095
-0.0258166,0.00980934
0.0624089,-0.0341537
0.12081,-0.0412026
0.0704981,0.0229391
0.0265474,0.0103481
0.0230843,-0.0697994
0.0275455,-0.0275056
0.0188708,0.0106618
0.0109218,0.0149305
0.0100399,0.00210525
0.0268931,-0.019573
0.0249786,-0.0325469
-0.00639708,-0.0180644
-0.0279354,-0.00149401
-0.00961942,-0.0237969
0.0167354,-0.0572254
0.0163203,-0.0868211
-0.0134233,-0.0152197
-0.0383029,0.074589
-0.0517854,0.163972
-0.0576076,0.189109
-0.0223929,0.125787
0.012134,0.0118445
0.013686,-0.0910644
0.000693097,-0.119386
8.13e-05,-0.103675
-0.00161683,-0.0649244
-0.00606052,-0.0265234
-0.0239488,0.0108198
-0.0379628,-0.0124759
-0.0228801,0.0158033
0.00488995,0.0541422
0.026889,0.0925152
0.0447034,0.0510683
0.0448935,-0.0111373
0.023855,0.0367328
-0.024031,0.0532034
-0.0324262,-0.00652684
-0.00260846,-0.0612568
0.0169919,-0.0439234
0.0134168,0.00845999
-0.0117369,-0.0448855
-0.0289486,-0.0655585
-0.0208685,-0.00533491
0.00247801,0.0176831
0.0142522,0.0210228
0.0140794,0.040428
0.00935709,0.069045
0.00862917,0.0197964
0.00340746,-0.0419772
-0.00229348,-0.000273228
-0.00191186,-0.0100799
-0.0115488,-0.0238199
-0.027205,-0.08993
-0.0162416,-0.0786006
0.0152699,0.0158593
0.0235257,0.0329342
0.0100905,0.0337872
0.0056636,0.0402866
0.0105592,0.0296771
0.00992858,0.0108055
0.00667436,-0.0193325
0.0102491,-0.0162988
0.00967896,0.00463358
0.000499558,0.0134806
-0.0244571,0.0103779
-0.0414892,0.0223648
-0.0676201,0.033805
-0.0592967,-0.0149185
0.00390092,-0.0216319
0.0374587,-0.0318905
0.036775,-0.0206827
0.0478511,-0.017977
0.0792762,-0.0232295
0.0521004,-0.0266385
0.00628015,-0.0334842
-0.0325193,0.0177303
-0.0437825,0.018496
-0.0163586,-0.0270585
0.0176756,-0.0377548
0.017738,0.034492
-0.00610344,0.0482407
-0.0214013,0.0520533
-0.0239222,0.0285543
-0.0234807,-0.0459286
-0.0267094,-0.0448136
-0.0252637,-0.0660228
0.00592885,-0.0439563
0.021152,0.0231202
0.0315065,0.0735841
0.0270921,0.106427
0.00582941,0.0475921
-0.0117654,-0.00348964
-0.0222968,-0.0407935
-0.0216096,-0.0405527
-0.016522,0.0257036
0.0055711,0.00392966
0.0175682,0.00459606
0.019735,0.0264852
0.0230318,-0.0391118
0.00493759,-0.0868551
0.00966529,-0.0303898
0.0303735,0.00421229
0.030526,0.00709761
0.011734,0.0514303
-0.01085,0.0741062
-0.0149622,0.0473468
0.0107698,0.0136024
0.0470463,0.00224478
0.0594658,0.00025979
0.0158368,-0.0186655
-0.064238,-0.0231933
-0.124007,-0.0146413
-0.123477,-0.00427972
-0.0813179,0.00732382
-0.0321491,0.00347287
0.0270063,0.00256703
0.0465395,-0.013395
0.0287923,-0.0185208
0.0197104,-0.00763884
0.0184532,0.00475009
0.0111589,-0.00749776
0.00466804,-0.0342669
-0.00156274,-0.0228047
-0.00842932,-0.0274899
-0.00414133,0.0568894
0.00200274,0.0457442
0.0085585,-0.024369
0.017425,-0.0384315
0.0109021,-0.0299771
-0.00636887,-0.0130859
-0.0171184,0.00353869
0.0170096,0.0142915
0.0854609,0.00431925
0.0851601,-0.0144794
0.00160653,-0.0172113
-0.0552365,-0.0248884
-0.0652712,0.0223565
-0.0358047,0.0600913
0.000353123,0.0673749
0.0163811,0.0601488
0.0217289,-0.0115904
0.0214414,-0.0304504
0.0160415,-0.0220134
-0.00385331,-0.00571134
-0.0181041,0.0586288
-0.013223,0.0356756
-0.000202729,-0.00566372
0.00433046,-0.0246827
-0.00506871,-0.0248524
-0.0156128,-0.0204525
-0.0140915,-0.0348544
-0.0140292,-0.0464813
0.00243364,-0.0304721
0.0178592,-0.0156523
0.0135937,-0.018516
-0.011564,0.0142655
-0.00105522,0.00443014
0.0288058,-0.0184526
0.0285104,-0.0235416
0.020646,-0.00268893
0.00632271,0.048503
-0.0256012,0.0347284
-0.0481845,0.0500029
-0.0464521,0.014826
-0.0274107,0.0121963
0.000431616,0.0166516
0.0136235,0.0617288
0.0014047,0.00649335
-0.00104957,-0.0749436
0.00690397,-0.0604944
0.00643087,-0.0323589
0.00489877,-0.00421924
0.00376458,0.0427217
-0.00682811,0.0322097
-0.0160743,0.00207147
-0.00460521,0.0204104
0.0123131,0.00179961
0.043459,-0.00954555
0.0617042,-0.00129195
0.042402,-0.00474129
0.00693022,-0.0162057
-0.0142361,-0.00644109
-0.0185635,0.0134202
0.00764495,-0.0337616
0.0196884,-0.0572364
0.025897,-0.031926
0.0180297,0.0686651
-0.0105289,0.0544475
-0.0146335,-0.0561006
-0.0424248,-0.0842059
-0.0559513,0.00516113
-0.0482888,0.0429578
-0.0410921,0.00296222
0.0014241,-0.00670861
0.0150372,0.0285826
-0.0148827,0.0389945
-0.0109354,0.04786
0.00455743,0.0617023
-0.00209337,0.0249864
-0.0101547,-0.0427538
-0.0109988,-0.0172687
-0.0264723,0.0257854
-0.0103157,-0.00192406
0.0224217,0.00506233
0.0321977,0.0141816
0.0379622,-0.00184675
0.0288404,-0.0133401
0.0111267,-0.0487714
-0.0109855,-0.0482332
-0.00887014,-0.0395157
-0.00749159,-0.0204258
0.00170996,0.00599486
0.0202043,0.000847726
0.0136226,-0.00392341
0.00724783,-0.000788956
0.00163753,0.00475601
-0.0103203,0.00360691
0.00673898,-0.0191753
0.0480933,-0.0413582
0.0645357,1.84e-05
0.00120385,0.0393499
-0.0489141,0.0209634
-0.0575927,0.0158162
-0.0421703,0.0367923
-0.0174954,0.0219865
-0.00690293,-0.00612518
-0.0152204,-0.0173279
-0.00702407,0.000623183
0.0301221,0.0202789
0.0461303,0.0262376
0.0296573,0.0146381
-0.0275879,0.00779265
-0.0540538,-0.00645084
-0.0255207,-0.00709564
0.0175745,0.0150503
0.0485506,-0.0144395
0.0561801,-0.0532959
0.0349026,-0.0272116
-0.0171797,-0.00554121
-0.0351627,-0.0201392
-0.0117502,-0.0225002
-0.00427123,-0.00313072
-0.0101367,0.00281905
-0.0238016,-0.00691068
-0.0392514,-0.00482374
-0.0238871,0.0277453
0.0269252,0.0528478
0.0678529,0.0430222
0.0464529,-0.0260325
-0.00433605,-0.0389395
-0.00294997,0.00667803
0.00787815,0.00585179
-0.0176565,0.00306533
-0.038225,0.0454925
0.00399697,0.0454932
0.0417734,-0.0549842
0.0345088,-0.0519088
-0.0220826,-0.0226452
-0.0403519,-0.0129486
-0.00697917,-0.00305292
0.0248221,0.0365403
0.0298234,0.0217458
-0.00747269,-0.0126481
-0.0512435,0.0031995
-0.0719209,-0.02528
-0.0512912,-0.0124464
-0.0178152,0.0636391
0.00305095,0.0438797
0.0192408,0.0205126
0.0329474,-0.00497763
0.0314246,-0.0272054
0.0108972,-0.0384318
-0.0141938,-0.0427906
-0.0214921,-0.0567746
-0.00891772,-0.0828702
0.0186405,-0.00237299
0.0394432,0.110771
0.0398031,0.0427136
0.0244813,0.0058245
0.0131668,0.0674679
-0.00544765,0.0863587
-0.0239802,0.0115389
-0.0241653,-0.0528264
-0.0167907,-0.00513205
-0.0075853,0.00800518
-0.0112876,-0.0186186
-0.0102826,-0.00498935
7.26e-05,0.0555732
-0.00527735,0.0546396
-0.0207238,-0.0486843
-0.013565,-0.0693917
0.00794673,-0.0444439
0.0182061,-0.0316975
0.022483,-0.00578386
0.0301962,0.0180515
0.0294436,-0.0020192
0.0131898,-0.00802026
-0.0140811,-0.0221389
-0.00202591,-0.0115607
0.0312151,-0.0117269
0.0279347,-0.0106651
-0.00438544,-0.0346122
-0.0269656,-0.0813303
-0.00856128,-0.0125331
0.0116997,0.0387136
0.00817288,0.0867883
-0.00682833,0.0675285
-0.0340751,0.0460116
-0.0453453,0.00447542
-0.0415118,-0.0152449
-0.017561,-0.0167055
-0.0158357,-0.00592618
-0.0133257,0.0110006
0.00426014,0.00415552
0.0147823,-0.00763156
0.011842,-0.00752733
0.00846442,-0.00103537
0.0155537,-0.0132571
0.0282774,0.000821194
0.0435075,-0.00780465
0.0380313,-0.013603
0.019323,0.0239544
0.0101371,0.0207695
0.0112463,-0.00927947
-9.48e-05,-0.000404859
-0.0114468,-0.0175239
-0.0176341,-0.0330723
-0.0133763,0.00185428
-0.0181088,0.0302942
-0.0210194,0.00538698
-0.0210654,0.000715801
-0.0344344,0.0318678
-0.044159,0.00416916
-0.0180137,-0.0162751
0.0223475,0.0182186
0.0571584,0.0326126
0.0729797,0.00191232
0.0476788,-0.0359294
0.0186784,-0.00786144
-0.0103748,0.00259579
-0.0377236,-0.0421536
-0.038287,-0.0894269
-0.00747641,-0.0823229
0.0107456,-0.056553
-0.00798212,-0.0619412
-0.0397768,-0.0188145
-0.0394665,0.0180867
-0.0141142,0.0897093
0.040307,0.132665
0.0646571,0.125883
0.044993,0.0963351
0.00751403,0.0472095
-0.0225145,-0.0126672
-0.0248613,-0.0112166
-0.0337886,-0.00780424
-0.0586729,-0.0449856
-0.0640614,-0.0504058
-0.0618218,-0.00727898
-0.0327197,0.0439337
0.0168764,0.0224292
0.0153781,-0.019968
0.0204457,-0.0151082
0.0490011,0.00105224
0.0629617,-0.004294
0.0408616,-0.0269574
0.00992329,-0.0432571
-0.00281803,-0.0363351
-0.0163415,-0.0220933
-0.0290378,-0.032487
-0.0297845,0.00580508
-0.022295,0.0334671
-0.0187215,0.0257756
0.0156168,0.0287557
0.0496071,0.0445748
0.0527173,0.0525344
0.0573798,-0.00575866
0.058013,-0.131893
0.0294329,-0.105992
0.00660971,-0.0310458
-0.0289744,0.0254588
-0.0560616,0.0607199
-0.030706,0.0492814
-0.0179829,0.0268574
-0.0198186,-6.28e-05
-0.0169095,-0.00551517
-0.0188787,0.00261799
-0.0204639,-0.00600206
-0.0117583,-0.00471759
0.0221893,-0.0257995
0.0655166,-0.0438792
0.066855,-0.000549327
0.0249312,0.0915079
-0.0091717,0.0799767
-0.0254353,-0.00863633
-0.0259546,-0.030841
-0.0289986,0.00300498
-0.0429895,0.00345414
-0.0469696,-0.00788987
-0.0247928,-0.0291438
-0.00227009,-0.0276439
0.0109571,-0.00048454
0.0202957,0.0100822
0.0299286,0.0127692
0.0368039,-0.00406706
0.0441958,-0.0176617
0.0362458,-0.0190181
0.0202024,-0.00289535
-0.00338264,0.0125563
-0.0380181,-0.0111133
-0.0493561,-0.0136881
-0.0616987,-0.000492268
-0.0387464,0.00220495
0.00552308,0.0217475
0.0309642,0.0379467
0.0422748,0.0173542
0.0692256,0.0292628
0.062018,-0.0113189
0.0315987,-0.0494515
-0.00483787,-0.045623
-0.0502222,-0.0029292
-0.0833139,-0.0319667
-0.0858585,-0.0225178
-0.0779774,0.00672676
-0.0427258,0.0265131
0.0111173,0.0620687
0.0451222,0.0411237
0.0581503,0.0453787
0.0444459,0.0143155
0.0237954,0.001676
-0.000293221,-0.0161534
-0.0146649,-0.0393638
-0.0199952,-0.0431134
-0.0354212,-0.0496123
-0.0112982,0.0218058
0.0172241,0.0364317
0.0333702,-0.00273091
0.0435739,-0.00624158
0.026243,-0.00606298
-0.00858755,0.0291943
-0.0342659,0.0162985
-0.0298257,-0.00366476
-0.0100378,-0.0133781
0.0207366,-0.0222269
0.0501289,-0.022711
0.0476772,-0.0309277
0.0232738,-0.0101637
-0.010586,0.0160192
0.000653756,-0.00408986
0.0242872,-0.0207644
0.027603,0.0236777
-0.0168229,0.031595
-0.0602557,-0.0252714
-0.0641162,-0.00763038
-0.0426686,0.0215306
-0.0125702,0.0066924
0.00560054,-0.0159921
0.00966115,-0.018297
-0.00457348,0.00535219
-0.00935961,0.0231136
-0.00246015,0.0282155
0.0197297,0.0352071
0.0376321,0.0183683
0.0407243,0.0330262
0.0399367,0.0617416
0.00966693,0.0521082
-0.0254291,-0.0360016
-0.00710838,-0.0632875
0.0265434,-0.0385762
0.0713511,-0.0404766
0.026475,-0.0354352
-0.0892085,-0.0557443
-0.17581,-0.0260077
-0.160321,0.0632985
-0.0556647,0.0556704
0.013149,0.00846637
0.0580256,-0.00128317
0.0768446,-0.00669538
0.0806603,-0.0301501
0.0944959,-0.0423852
0.103501,-0.0582341
0.0894384,-0.0324229
0.0426274,0.049877
-0.0383122,0.045234
-0.114848,0.0263483
-0.130826,0.0157913
-0.114074,-0.0045528
-0.0590137,0.00326242
0.0138228,-0.000385694
0.0496473,-0.0410468
0.0604977,-0.049721
0.0537192,0.0164313
0.022207,0.0305366
0.0124786,0.0329303
0.0211597,-0.00515985
0.0179531,-0.00107863
0.0246736,0.0268162
0.0202079,0.0376632
0.00560646,0.03577
-0.0157448,-0.013696
-0.00566746,-0.0204274
-0.00851266,-0.0138868
-0.0104206,-0.0240804
-0.0110191,-0.00897048
-0.0232058,0.00500156
-0.0609763,0.0212384
-0.0752209,-0.0142883
-0.0413235,-0.0443193
0.0212465,-0.030855
0.0718165,0.00383058
0.0703528,0.00546261
0.0436466,0.0374666
0.010763,0.0418807
-0.0220542,0.0593969
-0.0471718,0.0207353
-0.0356045,-0.00956612
0.0047802,-0.0498677
0.0296031,-0.0729044
0.00138349,-0.00672805
-0.0635119,0.0390426
-0.0911218,0.00689851
-0.0295097,-0.015545
0.0380265,-0.00581535
0.0656921,0.0311761
0.0812164,0.00551052
0.0630477,-0.0273395
0.0154009,-0.0374692
-0.00864455,0.0259546
0.0160154,0.0583517
0.0473086,0.0389092
0.0409835,-0.0334449
0.0243746,-0.0601148
-0.0290691,-0.0544331
-0.0912864,-0.0778135
-0.0845324,-0.0670098
-0.029395,0.0330726
0.0054166,0.0833977
0.0169193,0.0532537
0.0209253,0.0468669
0.0025033,0.0501286
-0.0161307,0.0211448
-0.0131713,-0.00741662
-0.00831311,0.0565337
-0.0213131,-0.0267923
-0.0241684,-0.0814556
-0.0106855,-0.0371061
0.0127955,0.0239002
0.0179941,-0.00218953
0.0139328,0.00491379
-0.00430244,-0.0334986
-0.0208009,-0.0304579
-0.0195181,-0.0332673
-0.00674472,-0.0193195
0.0195581,0.0238163
0.057205,0.0220442
0.0628256,0.023054
0.05693,0.0270828
0.0272616,0.0242083
-0.000534586,0.0170317
-0.0186396,0.0195159
-0.0306179,0.0216431
-0.0190145,0.0140395
-0.00216693,0.00598269
-0.0012081,-0.00633325
-0.0146987,-0.00298044
-0.0385482,-0.00533581
-0.064437,-0.0521457
-0.0604221,-0.0466464
-0.026258,0.0315912
0.00513164,0.0359914
0.011211,-0.0226669
0.0349498,-0.0330783
0.0598554,-0.00982935
0.0508927,-0.0286739
0.0241811,-0.073204
-0.00847977,-0.000601889
-0.0455609,0.0623581
-0.0731075,-0.0132685
-0.049316,0.0221109
-0.00936279,0.0234027
0.0311624,0.0422251
0.0390515,0.00197042
0.025052,-0.0307609
0.00613419,0.00698588
0.00265526,-0.00144882
0.0301413,-0.0370951
0.0744608,-0.0113789
0.0960387,-0.0111979
0.0737404,0.0469518
0.0234362,0.0385126
-0.00607607,-0.00280779
-0.0438074,0.0323271
-0.0777878,0.0362385
-0.0487026,0.0112866
0.00855848,-0.0172729
-0.0144172,-0.0368099
-0.0687877,-0.0219595
-0.0698672,-0.0284062
-0.0423795,-0.0328127
-0.0123167,0.00119103
0.0038816,-0.0155598
-0.00249848,-0.0264321
0.00377197,0.0308922
0.0220787,0.0297598
0.0555949,0.0325563
0.0961435,0.0447384
0.0971463,0.013744
0.0491161,-0.0148933
-0.0150322,-0.0220415
-0.0748991,-0.0270837
-0.0928669,-0.0309855
-0.0692365,-0.0362765
-0.0393686,-0.0172639
-0.0172121,0.0198838
-0.00494871,0.0464631
-0.00456181,0.00770231
0.0201891,0.00823253
0.0496663,0.0168885
0.0469176,0.014493
0.0321018,-0.00220304
0.00533878,-0.0101873
-0.0433355,-0.00217058
-0.0888135,0.00453265
-0.0709734,-0.0141927
-0.0406456,-0.0350844
-0.0239912,-0.0210727
0.00784116,0.0479311
0.0200238,0.0246254
0.0289018,0.0117653
0.0488207,0.0156691
0.0470408,0.0194075
0.0435328,-0.0141291
0.0465128,-0.00651714
0.04851,-0.00658076
0.0391805,-0.0276911
0.0305082,-0.0881239
0.0178813,-0.064725
0.000500244,0.00252422
-0.0190861,0.0597464
-0.0449819,0.0642531
-0.0216084,0.0172081
0.0209142,-0.0391242
0.0408043,-0.0493518
0.0292101,0.0116666
-0.0024913,0.0586109
-0.0452385,0.0385836
-0.0467255,0.0125122
-0.0134561,-0.00225413
0.00695751,-0.0181549
0.00463778,-0.0237438
-0.0338604,-0.00808312
-0.0659066,0.00868685
-0.0558898,0.00720484
-0.0102747,0.00494571
0.0329824,0.00263772
0.040848,0.0245311
0.0109522,0.0494183
0.00329926,-0.0217441
-0.00848616,-0.0495933
-0.0307713,-0.0158067
-0.0121392,-0.0179981
0.0452661,-0.0164851
0.0651612,0.0357057
0.00750312,0.0370828
-0.0548303,-0.0146664
-0.0648821,0.000102878
-0.0382205,-0.00231008
-0.0119581,-0.0109289
-0.00203726,-0.000607235
0.0160195,0.00209369
0.038533,-0.00231153
0.0618998,-0.000842365
0.057342,0.00820722
0.0330696,0.0104437
0.00908547,-0.00423835
-0.0193201,-0.0181867
-0.0117585,-0.0313014
0.01669,-0.031195
0.0148358,-0.0297542
-0.0123813,-0.0283534
-0.0383727,0.016729
-0.0488919,0.0147726
-0.0537601,0.0162808
-0.0468552,0.0213273
-0.0131295,0.0130659
0.0171175,0.00289491
0.0221832,-0.0219676
0.0159538,-0.0206258
0.00658567,-0.0121469
0.00676627,0.0738521
0.000645365,0.120588
-0.0212625,0.0344396
-0.0307259,-0.0693782
3.57e-05,-0.0321273
0.0162803,-0.0296092
0.038352,-0.00500993
0.0476684,0.0135809
0.0379066,0.00500405
0.0032709,0.0223431
-0.0219,-0.00705997
-0.056856,-0.0418884
-0.0456185,-0.0706043
0.0201903,-0.0486084
0.0695304,0.049669
0.0690961,0.0505271
0.0378336,0.000135065
0.00275269,0.00778589
-0.0279454,-0.0519555
-0.0396419,-0.0187455
-0.0644771,0.0129814
-0.0490213,0.00449255
-0.0108773,0.0465343
0.0182427,0.055458
0.0190215,0.034691
0.0211355,-0.00900282
0.0362798,-0.0599528
0.0360616,0.00458184
0.00899331,0.082068
-0.0428093,0.0467806
-0.0354271,-0.0331561
0.0292149,-0.0373698
0.06352,-0.0198079
0.0806313,0.0104326
0.0504889,-0.0109684
0.0247957,-0.0442887
-0.0139448,-0.0228257
-0.0709654,0.0648502
-0.092956,0.00897937
-0.0662496,-0.0423531
-0.0379346,-0.0164538
-0.0353454,-0.00164695
0.0160194,0.000160263
0.0343379,-0.00944959
0.00728698,-0.00876808
-0.0345001,0.00294163
-0.055313,0.00763517
-0.0232494,-0.000262885
0.0242532,-0.00359841
0.0184104,-0.0211192
-0.0301764,-0.0270428
-0.0546921,-0.0122337
-0.0333563,0.039035
0.0021087,0.0473447
0.0358089,0.0305518
0.0799047,-0.00800035
0.0963816,-0.0616822
0.0643138,-0.0100173
0.0263941,0.0192452
-0.00683585,0.0178529
-0.0329474,-0.0325858
-0.0263853,-0.00136876
-0.0504815,0.0930104
-0.0421649,-0.0116823
0.0185862,-0.0369693
0.0491865,-0.00813504
0.0299294,0.00528093
0.0240878,-0.0239408
0.0467181,-0.0249633
0.0789233,0.00697922
0.0555643,-0.00242127
-0.00392728,-0.00446714
-0.0451757,0.0292254
-0.0608981,0.0754422
-0.0547303,-0.0238116
-0.0414963,-0.0749697
-0.0316133,0.0482352
-0.030969,0.0331683
-0.0123709,-0.038081
0.0315294,-0.00439929
0.0325457,0.0239949
-0.0134515,0.00264129
-0.0597121,0.00160574
-0.0773063,0.0133408
-0.0504676,-0.00134478
0.0115232,-0.00107375
0.0307698,0.00766128
0.0128693,0.00118229
0.0065065,-0.0375507
0.0143452,-0.0354554
0.0260285,-0.0167295
0.0268369,-0.00628133
-0.000375053,-0.0360584
-0.0113813,0.0308198
-9.19e-05,0.0707818
0.0218679,-0.0294001
0.0287476,0.00656182
0.00955445,-0.0168539
0.0196315,-0.0610655
0.032573,0.00516518
0.0385959,0.0612518
0.0443324,0.0125284
0.0390639,0.0175565
-0.00202821,0.0276822
-0.0311549,-0.00186046
-0.0444201,-0.0173811
-0.0385725,0.00647557
-0.0481836,0.0118506
-0.0293998,0.0129947
0.00806856,-0.00453004
0.0314617,-0.025415
0.0139149,-0.032662
-0.000795323,-0.00357551
-0.025535,-0.0397674
-0.0454117,-0.0201743
-0.0393501,0.0289236
-0.0232839,0.0347289
0.000407326,0.0158694
0.0397408,-0.00244517
0.0473034,-0.0029953
0.00333644,-0.00132568
-0.0297161,-0.014981
-0.0453085,-0.0335814
-0.0157326,-0.0128835
-0.00325651,0.040195
-0.00536815,0.121693
0.00772486,0.0397314
0.0139647,-0.0486289
0.0519937,-0.0109112
0.0382937,-0.028251
0.012241,-0.0368855
0.0421842,-0.019967
0.0513945,-0.0504327
0.0226396,-0.01099
-0.000623036,0.123358
-0.0337749,0.0375671
-0.0111424,-0.101509
-0.00098537,-0.00791834
0.00526943,0.0137771
0.0194422,-0.00854131
-0.0134496,-0.0527359
-0.0375537,-0.0259536
-0.0450061,0.0207181
-0.0502314,0.0404517
-0.0299689,0.0165587
-0.00474641,-0.043364
0.00428009,-0.0643427
0.024343,0.0325057
0.0492099,0.0238331
0.0604069,0.0615624
0.0358774,0.106175
0.00486253,-0.0110327
-0.00162937,-0.054071
0.0149247,0.0442092
0.0171965,0.0216325
0.0123902,-0.0704621
-0.0151542,-0.0435145
-0.0659718,-0.0087169
-0.0911799,0.000107431
-0.0651687,-0.00984609
-0.034389,0.00432855
-0.0204221,0.0232109
-0.0119043,0.0402559
-0.022777,0.00269744
-0.00829809,-0.00267515
0.0287859,-0.00621992
0.031769,-0.0070065
0.0135612,0.0211102
-0.000220063,-0.01066
0.00606755,-0.0277097
0.0119784,-0.0213326
0.0286673,-0.0249167
0.0342507,-0.0105086
0.0273046,0.00099061
0.0220725,0.0163572
-0.00467694,0.0122905
-0.01113,0.022542
-0.00123059,0.0403217
-0.00181863,-0.00956601
-0.000537928,-0.00279967
0.021069,0.0105091
0.0153714,-0.0333831
-0.0106218,-0.0342402
-0.0259946,-0.0236559
-0.044065,-0.0407251
-0.0219903,-0.0311189
0.0258987,0.0445716
0.0530065,0.0495189
0.0257429,-0.0234169
0.00243524,0.00247254
-0.034036,-0.020993
-0.037555,-0.00281683
0.00179357,0.0352835
0.0377208,0.00493867
0.0656037,-0.00342943
0.0966869,0.0308449
0.0948009,0.0283341
0.0358669,0.0176935
-0.0528708,0.00563295
-0.115657,0.0103878
-0.0892376,-0.0033209
-0.0467114,-0.0102614
-0.0442646,-0.0235387
-0.0611108,-0.0372139
-0.0591375,0.0365798
-0.0431037,0.10344
-0.0063381,-0.0709207
0.0201178,-0.0454536
0.0428876,-0.0175341
0.0685202,-0.053852
0.0870437,-0.0366216
0.0782474,0.0239445
0.0262082,0.0403716
0.00737059,0.00423387
-0.0120966,-0.0248047
-0.0118999,-0.0442476
-0.0126461,0.0341331
-0.0258824,0.0822038
-0.0115095,0.0271435
0.0167188,0.0194134
-0.00227821,0.00806755
0.0139044,-0.0343503
0.0356196,-0.0342608
0.0234314,-0.00209084
-0.0171083,0.0311195
-0.0232289,0.0223654
-0.0346653,0.00604011
-0.0608189,-0.031911
-0.0596671,-0.0074637
-0.0315244,0.0186908
0.0169336,0.0117782
0.04087,-0.0358367
0.0410767,-0.0675651
0.00651951,-0.0125222
-0.0496231,0.0312944
-0.0424226,0.00825043
0.0131455,-0.00134663
0.0234947,-0.0136776
0.0149336,-0.0117547
0.00622822,0.00455157
-0.0304607,-0.00109862
-0.0559253,0.0488572
-0.0267108,0.0214069
0.0191513,-0.00222238
0.0428664,0.0241701
0.0399786,-0.0229106
0.0452666,0.030148
0.0459247,-0.000848276
0.0324212,-0.0272089
0.0159997,0.0180183
0.0236462,0.0181754
0.0147045,-0.047666
-0.0220006,-0.0401058
-0.065935,-0.0147551
-0.0677594,0.0113013
-0.026443,0.017044
0.00712585,-0.0167759
0.0213738,-0.00858918
0.0128374,0.00492397
-0.0143798,0.0472363
-0.0371654,0.00110529
-0.017398,-0.00224576
0.00427698,-0.000332498
0.0022554,-0.00444354
-0.00647977,0.0244346
-0.0203821,0.0106978
-0.0238529,-0.00457118
-0.0181117,0.0155432
-0.0010611,-0.0309841
0.0289441,-0.0575185
0.0587647,-0.0562532
0.0815166,0.0266095
0.0577257,0.0186341
0.0213158,-0.0251691
-0.00605067,0.0292561
-0.0174137,0.0500678
-0.0106517,-0.00892071
0.0137304,-0.012875
0.0346874,0.00378008
0.0268938,0.00760017
-0.0394247,-0.0390928
-0.0762871,0.0267845
-0.0278623,0.0552297
0.017122,0.0395015
0.0274562,-0.0202588
0.0059106,-0.0220196
-0.0145314,-0.00434841
-0.0087987,-0.018149
0.0187283,-0.00751237
0.0631343,-0.00857097
0.0543669,-0.0075405
-0.0197277,0.0091425
-0.0904681,0.0353771
-0.0943467,0.0184167
-0.0582598,-0.0397244
-0.0244638,-0.0358265
2.24e-05,0.000266276
0.00212846,-0.0141622
-0.00608795,-0.0123561
-0.00229362,0.0177408
-0.00601557,0.0324711
-0.0137278,-0.0146224
-0.00149771,-0.0525114
0.0351477,0.0206073
0.0511377,0.0278532
0.0464843,-0.0162483
0.0438142,0.00668321
0.0143276,0.0228725
-0.0204695,0.00949367
-0.0424639,0.0124976
-0.0228055,0.00478901
0.00202024,0.0126428
0.0252168,0.0433145
0.0224031,-0.0326708
0.0231506,-0.0225761
0.0263375,-0.00859463
0.0261258,0.0155638
-0.00743913,0.0369307
-0.0112852,-0.00269154
-0.00748294,-0.0768584
-0.0430992,-0.0258552
-0.0639016,-0.0114514
-0.0531859,0.00162818
-0.0211719,-0.0210176
0.0150632,0.0243215
0.0488975,0.0418232
0.0508842,0.0113701
0.0142547,0.0110927
-0.0206102,0.0125337
-0.00376305,-0.0128728
0.0243375,-0.0230309
0.0531482,-0.0328006
0.0844482,0.00494383
0.0653266,0.0390471
0.0078437,-0.00789257
-0.0553496,-0.0113565
-0.0382351,-0.0304752
-0.0359778,-0.0107137
-0.057249,-0.0016595
-0.0617307,0.0100031
-0.0512667,0.0242438
-0.0283111,0.0427402
-0.0165847,0.040503
-0.0172048,0.00335444
-0.0065284,-0.0320873
0.0224387,-0.0292545
0.0492245,-0.00826898
0.0457274,0.0065088
0.0354604,-0.0218964
0.0332918,-0.0315202
0.00410999,-0.00119735
-0.0125962,0.035786
-0.0268679,-0.00388483
-0.0577265,-0.0294856
-0.0466745,0.0210727
-0.0162148,-0.00771978
0.0233914,0.0118056
0.0621536,0.0551533
0.067069,0.0444855
0.0576228,-0.0165465
-0.0011227,-0.0287426
-0.0382458,0.0470832
-0.0337516,0.0179963
-0.0205899,-0.0279577
-0.0234253,-0.0465306
-0.0663587,-0.0299953
-0.0405077,-0.018279
0.0413383,-0.00646017
0.0777725,0.00670058
0.0539888,0.00634512
-0.00749519,-0.0146452
-0.0375381,-0.0511956
-0.0228201,0.0124131
-0.00385215,0.0715273
0.0144584,0.0297188
0.0259006,0.000335384
0.0319302,-0.000688626
0.0151443,0.00880244
0.00194729,-0.0183701
0.0180906,-0.0263365
0.0242227,-0.0257533
0.015167,-0.0175533
-0.0126179,0.0614505
-0.0396457,0.0353128
-0.0610073,-0.0271654
-0.0588286,-0.0494943
-0.0346446,-0.021394
0.0028675,-0.00212958
0.0123841,0.0133944
0.0129319,0.00868611
0.0170869,0.0240214
0.0118362,0.0434595
-0.00292621,0.0119422
-0.0130197,-0.0156894
0.0134307,0.0158647
0.0303725,0.0197529
0.027603,-0.0561429
0.0433812,-0.069508
0.0380381,0.00977107
0.0114961,0.015153
-0.0357768,-0.0100493
-0.0436574,0.00687818
-0.0245446,0.0272582
-0.0162309,0.0117421
-0.0133735,0.00979801
-0.0123959,0.00191377
-0.0146712,0.0365956
-0.0235735,0.0208537
-0.0172159,-0.000334432
0.0140097,-0.00801709
0.0439923,-0.0414353
0.0428542,-0.0546387
0.0440476,-0.0229935
0.0475362,0.0442771
0.026113,-0.0100375
0.00835768,0.0361159
-0.00706939,0.0651789
-0.0366499,-0.0278257
-0.0654839,-0.0330008
-0.0555309,-0.00987222
-0.0199618,-0.0129634
-0.00528931,-0.0248024
0.0033168,-0.0376072
-0.010985,-0.00911258
-0.0226774,0.0285333
-0.0114049,0.0248544
0.00506246,0.00146235
0.010167,0.00240774
-0.000107954,0.0195109
-0.00519032,0.0279901
-0.010525,0.0201174
-0.0172133,-0.0279059
-0.0028014,-0.0243325
0.024588,-0.0108507
0.0982735,-0.0051088
0.118959,0.010221
0.0586227,0.00350965
-0.0113121,-0.00867182
-0.0591276,-0.010992
-0.0646367,0.00400714
-0.0443461,0.0155258
-0.0235669,0.0305609
0.00212003,0.0467779
0.00659088,-0.0179767
-0.00415334,-0.0521184
-0.0308476,-0.0407639
-0.0486609,-0.023313
-0.0302538,0.00138632
0.0014974,0.0138521
0.00203365,0.0144789
-0.0137641,0.00440079
-0.0251361,-0.000832212
-0.00257896,0.0306572
0.0326705,-0.00415895
0.0551457,-0.0338086
0.0675284,0.00857415
0.0675169,0.00326625
0.0982558,-0.00751755
0.107077,0.0368471
0.0311221,0.0301164
-0.0449274,-0.00154117
-0.0975089,-0.0143809
-0.0843317,-0.0309278
-0.0513256,0.0272043
0.00114556,0.0419909
0.0218785,0.00793575
0.0055115,0.0441273
-0.0171085,0.0329696
-0.0185985,-0.0525595
-0.0220523,-0.055507
-0.0267926,-0.0431859
-0.0164331,-0.0108035
0.00648646,-0.00405376
0.00939132,0.0050684
-0.010061,0.00873169
-0.0154569,-0.00170366
-0.0159115,-0.0079993
-0.00796114,-0.013177
0.00537022,-0.00591913
0.0134698,0.0119435
0.00636241,0.0311565
0.00288795,-0.0163926
0.00126751,-0.0280898
-0.0139127,-0.00511132
-0.026616,0.00152058
-0.0220002,0.0105022
0.0130792,0.015646
0.078729,0.0255401
0.111016,0.00280612
0.073076,0.0257561
0.00813357,0.0327438
-0.0329523,-0.0231678
-0.00363718,-0.0252962
0.0382253,-0.0302605
0.0255539,-0.00515305
-0.0285189,0.0362355
-0.0695902,-0.00228268
-0.100951,-0.0141343
-0.0717144,-0.00456472
-0.0219011,0.00584369
0.00680528,4.13e-05
0.0362281,-0.00409424
0.0236161,-0.00491868
0.00577742,-0.0309409
0.00968774,-0.0256651
0.0132568,0.0155634
0.00464505,0.0254271
-0.00263922,0.0246875
-0.0026967,0.0148822
-5.53e-05,0.00480607
-0.00510486,-0.013129
-0.0124789,-0.0077236
-0.0370189,-0.0286737
-0.0508786,-0.0452205
-0.0295709,-0.0112485
-0.0146869,0.062528
-0.011078,-0.0101103
0.0122991,-0.023149
0.0558207,0.00837147
0.0768396,0.0769018
0.0462323,0.0477168
0.0093954,-0.0417954
-0.0194404,-0.0460039
-0.0310113,0.00297125
-0.00791239,0.0151078
0.009377,0.00388422
0.00480908,0.00848229
-0.00146266,0.00229391
0.00110722,-0.0237953
0.00133082,-0.0259315
-0.00232221,0.00775751
-0.00750743,0.0132843
-0.0121536,0.0190627
-0.00845383,0.00349519
0.00826093,-0.0136694
0.0225684,-0.00506278
0.0308164,-0.00398642
0.0364388,-0.00113431
0.0309653,-0.00189024
0.0258983,-0.00200924
0.00778967,0.0142766
-0.0191447,0.0160622
-0.0194169,0.00232045
-0.00129479,-0.0358608
-0.0188312,-0.00275526
-0.0382113,0.0156233
-0.012794,-0.0214863
0.00982553,0.00785581
-0.0125848,0.0284064
-0.033495,0.0364422
-0.0135922,0.0155183
-0.00508296,0.0146136
-0.00736012,-0.0451496
-0.0252843,-0.0542279
-0.0347676,-0.0374941
-0.020611,-0.0326904
0.0241113,0.00610593
0.048241,0.0414035
0.0574926,0.0427303
0.047707,0.00966513
0.0236581,-0.0208565
-0.00140761,-0.0146343
-0.00922957,0.00234948
0.000680824,0.0113346
0.0138046,0.0115969
0.0143568,0.018271
-0.000894626,0.0162645
-0.0141317,0.0126912
-0.0262306,-0.0108045
-0.0114946,-0.00934572
-0.000423622,-0.00771018
-0.000490245,-0.0162397
-0.0227413,-0.00268361
-0.0559977,0.0151897
-0.0553,-0.017058
-0.0121143,-0.0298477
0.0240114,0.00550297
0.020402,0.00323801
0.0179313,-0.022824
0.0115267,0.0062513
0.00600052,0.0172567
-0.00232962,-0.0247912
-0.0129994,-0.0141242
-0.00415133,-0.00728924
0.0225683,0.0153314
0.0208777,0.0209388
0.00522167,0.0229844
0.0112526,0.0454193
0.0148171,0.0163425
0.00183994,-0.00211901
-0.0219331,-0.00935528
-0.0143226,-0.0190639
0.00387936,-0.00627705
0.00575899,-0.0231305
0.0164697,-0.00701102
0.0216628,0.00627051
0.00875742,-0.000431228
-0.00810066,-0.0020412
-0.0224572,0.00108855
-0.0218922,-0.00305957
0.00301201,0.00429217
0.0239382,0.00255238
0.0047491,-0.00548681
-0.0216038,-0.0122903
-0.0359329,-0.0194503
-0.055522,0.0183167
-0.0230406,0.0448875
0.0170737,0.00401801
0.041368,-0.0437494
0.0293235,-0.0476718
0.019545,0.0395174
0.0162534,0.00085563
0.0106315,-0.0329197
0.0100286,0.0145553
0.0155267,0.0157243
-0.00361178,0.00602257
-0.0288936,0.0393248
-0.046385,-0.00735794
-0.0298891,-0.0292073
-0.00846526,0.0212226
0.00481611,0.00254342
0.00188012,-0.0140543
-0.00233638,-0.00974347
-0.0062411,0.00266677
-0.00294215,0.00506329
0.011251,0.00596515
0.0239251,0.0005863
0.0274686,0.00417686
0.0236527,-0.000951371
0.0181931,-0.00318957
0.0208611,0.00977546
0.0173923,0.0179116
0.0101739,0.00581752
-0.0135279,0.00658856
-0.0228459,0.00337353
-0.0419278,-0.0271568
-0.053214,-0.0307261
-0.0287613,-0.0211474
0.0299764,0.00470293
0.0566241,0.0313993
0.0175262,0.00994597
-0.0207966,0.0023774
-0.0297027,0.00356712
-0.0148406,0.00734192
-0.00898081,-0.0172008
-0.00702757,-0.0282106
-0.00587838,0.0292251
-0.00619446,0.0380838
-0.00476006,-0.0179849
-0.00213685,-0.0178807
0.0205429,0.00911963
0.0445945,0.0258262
0.0583866,-0.00895798
0.0628271,-0.013875
0.053789,0.000812725
0.0397108,0.001599
0.0196548,-0.00642692
-0.00664356,0.00462435
-0.0306929,0.0332526
-0.0680755,0.0463654
-0.0841961,-0.0578394
-0.073016,-0.0673315
-0.0517538,-0.0403679
-0.0428609,-0.00888157
-0.0368028,0.0155051
-0.00174285,0.00526267
0.0120757,0.0073505
0.00129581,0.00509414
0.00606347,0.00182751
0.024039,0.00396193
0.0513889,0.000551306
0.0388584,-0.0186056
0.0145281,0.0124129
0.0303705,0.0316744
0.0369393,0.0172507
0.0109171,-0.0134549
-0.00632123,0.00299563
-0.00839016,0.00368041
0.00214154,0.0100543
0.0128549,-0.00334116
0.0148882,-0.00392174
0.0150812,0.0117244
0.00693812,0.00974348
0.00790901,-0.00729539
0.0139848,-0.00740279
0.00561461,0.00871699
-0.0135413,0.0148917
-0.0244739,0.00886908
-0.0278972,-0.00259943
-0.0298516,-0.0100289
-0.0316939,-0.00369271
-0.0353108,-0.00501714
-0.0376474,-0.00806572
-0.0257857,-0.00932872
-0.0120521,-0.00601832
-0.00773635,-0.00862992
0.00378227,-0.0253721
0.0221149,-0.00814521
0.0316979,0.0101471
0.0272665,0.0201709
0.021135,0.0180093
0.0211045,0.00843251
0.0072761,0.00589341
-0.0151051,0.00149378
-0.033815,-0.00899258
-0.0287598,-0.0144727
-0.0135918,-0.011856
-0.000838464,-0.00272886
0.0198522,-0.00398406
0.0570851,0.00325575
0.0773248,0.0121298
0.0655163,0.00212766
0.0406115,-0.0058712
0.0057751,0.0228993
-0.0403664,0.0040368
-0.0731815,-0.00455921
-0.0705666,-0.000700528
-0.027357,-0.00625119
0.0025407,-0.0141348
0.00622455,-0.0111704
-0.00278273,0.00712241
-0.00575113,0.00417367
-0.00114567,-0.00200416
-0.00362447,0.00796273
-0.00649822,0.0160882
-0.000728464,0.00787505
5.94e-05,-0.000720881
0.00416295,-0.0115449
0.00754265,-0.0167095
0.000364517,-0.0193941
-0.0260031,-0.0207783
-0.0451503,-0.0133608
-0.0497379,0.00600359
-0.0406692,0.0120594
-0.0131766,0.00488767
0.0193112,-0.00198416
0.0397492,-0.000236055
0.0436326,-0.00674785
0.0438076,-0.0101212
0.0336498,0.0058101
-5.94e-05,0.0205984
-0.0220419,0.0139852
-0.0223431,0.00945363
-0.0194794,0.0020273
0.0130058,0.00633843
0.0479636,0.000369464
0.0663135,-0.0104176
0.0685349,0.00541606
0.0492516,0.0125751
0.0183296,0.0103398
0.00527282,0.0110877
0.00361671,0.00783871
-0.0007795,0.00663879
-0.00606548,0.010694
-0.0143941,0.005743
-0.0254812,0.00532329
-0.0404896,0.0105256
-0.0517083,0.00985911
-0.0402691,-0.00264737
-0.0264094,-0.0144705
-0.00895802,-0.0209933
0.0190586,-0.0245909
0.0205422,-0.0291278
-0.0206997,-0.0273923
-0.0418597,-0.00950097
-0.0498527,0.00215398
-0.0423637,0.00210061
0.00777969,-0.00175105
0.0776427,0.0047506
0.0985232,0.00757872
0.0896358,-0.00120663
0.042105,0.00103754
-0.0185196,0.00807112
-0.0474232,0.00940484
-0.0533322,0.00312586
-0.0344076,-0.00594936
-0.0270089,-0.00395584
-0.0227428,0.00228774
0.0149159,-0.00215162
0.0638331,-0.00751207
0.0524651,-0.00434744
0.00161879,0.00287653
-0.0348931,0.0104063
-0.0464532,0.00934786
-0.0452653,0.00674336
