Comp Ch 3,Comp Ch 4
-0.0707286,-0.0151409
-0.00368634,-0.0534411
0.0838794,-0.112838
0.087385,-0.0506202
0.0183736,0.0644023
-0.0222797,0.0604864
-0.0641683,0.0101591
-0.122885,0.0313363
-0.154533,-0.0690165
-0.121177,-0.100905
0.038924,-0.0441244
0.123608,-0.202895
0.148635,-0.306147
0.1671,-0.208
0.0612151,-0.0324544
-0.124447,0.193645
-0.136041,0.346532
-0.00330929,0.271701
0.0699012,0.148484
0.0654283,0.0937729
-0.0217298,-0.0404436
-0.0287626,-0.0348299
0.024505,-0.0200938
-0.0284338,0.0372981
-0.088336,0.123984
-0.0357367,0.0581625
-0.0105065,0.104193
-0.00283103,0.0470327
0.0558221,-0.0814195
0.139569,-0.0933246
0.0521352,-0.121565
-0.0413359,-0.122453
-0.0715582,-0.0615924
-0.0414408,-0.0213073
-0.0214406,-0.0202307
0.0157631,-0.00170057
0.0776772,0.046704
0.142346,0.0398101
0.105358,0.0280063
-0.0314662,0.0177099
-0.0695404,-0.00876943
-0.0788025,-0.00560011
-0.0841096,-0.00335269
-0.0471383,-0.0509849
-0.039917,-0.0962768
-0.0594887,-0.0790342
-0.0169365,-0.0105322
0.0753142,0.0973378
0.0615679,0.0587407
0.0132809,-0.0119142
-0.0103524,-0.0462025
-0.0203693,0.00442637
-0.0555904,0.00366449
-0.0781784,0.0216257
-0.0661937,-0.0013089
-0.00441466,-0.0289944
-0.0129335,-0.0152282
-0.0486518,-0.0289707
-0.0627749,0.0105988
-0.00364402,0.0369238
0.0614218,-0.00164742
0.129954,-0.03147
0.151485,-0.0251986
0.105891,0.0767896
0.0344269,0.0339185
-0.0168909,-0.124617
-0.0157275,-0.105998
0.00261452,0.0477189
-0.0501957,0.0379662
-0.0985404,0.157099
-0.0431184,0.0365908
0.0567063,-0.122005
0.0379687,0.00841066
-0.0273172,0.0161767
-0.0365747,0.0155906
-0.0391669,0.0390277
-0.0401949,0.0735467
-0.0124763,0.0502329
0.0443745,0.0175737
0.0857121,-0.012816
0.0652849,0.0121529
0.108349,0.00335645
0.0977202,-0.0138119
-0.0117781,-0.0127113
-0.0777416,-0.038515
-0.0653368,-0.0493943
0.0160091,-0.0668348
0.0907957,-0.0555989
0.0842992,-0.0184347
-0.0260935,-0.00432056
-0.157388,0.0311888
-0.137991,0.0357085
-0.034868,0.0594444
0.0146163,0.046889
0.00989801,0.00443601
-0.0254909,-0.0135934
-0.0556782,-0.051685
-0.053138,-0.0391808
-0.0451101,0.00464674
0.00160341,0.00987527
0.0351347,-0.0131502
0.0367822,-0.0280282
0.0236162,-0.0518186
0.0123364,-0.019856
0.0164612,0.00461751
0.0468544,-0.024846
0.0321695,0.0806644
-0.0103801,0.119121
0.0188428,0.0354948
0.06536,0.012321
0.01621,-1.32e-05
-0.00741843,-0.0215412
0.00460274,-0.0107141
0.0138635,0.0580259
0.0283169,0.0558436
0.013735,-0.0715107
-0.0191615,-0.0304964
-0.0538791,-0.0231559
-0.0861911,-0.0160481
-0.0778923,-0.0340984
-0.0244579,-0.0067261
-0.003933,0.0353493
0.00864091,0.0246061
0.0192366,-0.00242536
0.0307261,-0.00198196
0.0410176,-0.00594387
0.0322198,0.013514
0.0202475,0.0089214
0.0186837,-0.012951
0.0213445,-0.0185831
0.0596441,-0.00922229
0.072981,-0.0442733
0.0207033,-0.0530515
-0.0605282,-0.0826311
-0.100594,0.0351813
-0.089663,0.0693025
-0.0353275,-0.169587
0.00169583,-0.0297613
-0.0120506,0.0737687
-0.0264599,0.0534267
-0.0150475,0.00781203
-0.000408723,0.00491454
0.049206,0.0472493
0.0992126,0.0409035
0.0619804,0.0434443
-0.0164949,0.0473758
-0.0613431,0.0208394
-0.0618717,0.0247285
-0.0289778,0.0183773
-0.00478949,-0.0586367
0.00471467,-0.0970612
0.0183463,-0.0952654
0.0413425,0.031155
0.0379205,0.0859223
-0.0202586,0.0477867
-0.0466056,0.0154105
-0.0217167,0.0253052
0.0109337,0.0373212
0.028832,-0.000915927
0.0355041,-0.0119775
0.0392977,0.00816377
0.03391,-0.0181857
0.0504265,0.0359832
0.0624693,-0.0117875
0.0203571,-0.101328
-0.0403403,-0.0887628
-0.0755855,-0.00946387
-0.0794732,0.0482851
-0.0506846,0.0629716
-0.0139235,0.0684094
0.0011967,0.0686896
0.0114973,-0.0264793
0.0383833,-0.143562
0.0494363,-0.136087
0.0113283,-0.0769278
-0.0508938,0.0217357
-0.0496422,0.045848
-0.017039,0.0202667
-0.0241817,0.0590408
-0.0419025,0.092207
-0.060105,2.56e-06
-0.0119965,-0.0405866
0.0447067,0.000373857
0.0344443,-0.0413361
0.0217452,0.00690693
0.050475,0.0216299
0.0853612,-0.00478427
0.116148,0.0488348
0.0598485,0.108529
-0.0471051,-0.010889
-0.0938393,-0.054969
-0.0712682,0.0227806
-0.0158572,0.0783658
0.00846918,0.0525986
0.00975503,-0.0998101
0.0451676,-0.0875875
0.0397469,0.00631626
-0.0146281,-0.00159629
-0.0515384,-0.0946223
-0.0479934,-0.0479461
-0.00584035,0.0148994
0.0272809,-0.0307878
0.0123321,-0.0774556
0.0101775,0.0514164
0.00207216,0.0832109
-0.0190504,0.081886
-0.0459341,0.0520316
-0.0547593,0.0396102
-0.0300362,-0.0226652
0.00621142,-0.0122504
0.0112678,-0.00793832
-0.00250647,-0.0526899
-0.000425503,-0.0447017
0.0201585,-0.0173296
0.011443,-0.0177033
4.58e-05,-0.00480367
0.0209207,0.00849652
0.0548899,0.0176975
0.0627663,0.0327704
0.0374896,-0.00595777
0.0231246,0.0155366
0.0395871,0.0471557
0.0265253,0.0193653
-0.021902,-0.00869068
-0.0892841,0.00835623
-0.100351,-0.0455996
-0.0212372,-0.073657
0.0249816,-0.0146188
0.0232003,0.0343493
0.0181693,0.0134183
0.0111854,0.0201432
0.010176,-0.0053312
0.00489534,-0.00979391
-0.00556572,0.0283207
-0.0255415,-0.0417506
-0.0344991,-0.0887031
-0.012405,-0.0315568
0.00168323,0.0998737
0.016868,0.154079
0.0172135,-0.0166212
0.0059171,-0.0572037
-0.0128663,0.0388656
-0.0172281,-0.0133072
-0.0132904,-0.0733866
-0.0127659,-0.0982259
-0.00763802,0.0105007
0.0127404,0.0189597
0.0283404,0.0108847
-0.00470758,0.100173
-0.0214596,0.0612028
-0.0211113,-0.0493734
-0.012927,-0.060468
0.00657828,-0.0301252
0.0191696,-0.0532426
0.0277855,-0.0553827
0.0225039,0.0803197
0.011568,0.0965896
0.0192409,0.0881222
0.0265003,0.0373384
0.0230428,0.0106645
0.00546718,-0.0674333
0.020674,0.0255887
0.0206128,0.0317667
-0.0177955,0.0282254
-0.0624294,-0.00242239
-0.0682965,0.00199347
-0.0620571,-0.0221527
-0.0485393,-0.0615913
0.00551147,-0.0800648
0.0455826,-0.0882313
0.0399529,-0.0248851
0.00479733,0.0765114
-0.00477104,0.15375
-0.0178411,0.0571731
-0.0219893,-0.129415
-0.00885883,-0.0510435
-0.000455199,-0.0263353
0.0190445,-0.0233312
0.0277089,0.0187507
0.0307201,0.0137955
0.0447358,0.00768091
0.0570435,-0.0689823
0.0349505,-0.103935
-0.00810747,-0.0471017
-0.0403715,-0.04805
-0.0572046,-0.0169848
-0.0073249,0.0527077
0.0366176,0.098681
0.0241911,0.131388
-0.0107434,0.112454
-0.0557194,0.035925
-0.0444575,-0.0518253
-0.000563032,-0.0879924
0.0192709,-0.0184209
0.0322497,0.0393153
0.055251,0.0631097
0.0203929,0.0559081
-0.0466712,0.0504131
-0.1042,-0.03937
-0.0757123,-0.105827
-0.0329687,-0.0311075
-0.0113075,-0.0259243
0.00932576,-0.0615307
0.0310791,-0.0475672
0.0370535,0.0341546
0.0508222,0.0409703
0.08491,0.159515
0.0761844,0.0572278
0.0444081,-0.0929269
0.00625457,0.0933507
-0.0374907,0.162036
-0.0511972,-0.100574
-0.0522459,-0.150206
-0.0614272,-0.0410635
-0.0522193,-0.0118656
-0.027716,0.0240082
-0.00616611,-0.00596075
0.0162659,-0.0292115
0.0115184,0.0467866
-0.00678372,0.0220808
0.0442553,-0.0115077
0.0860629,-0.0641282
0.0609135,-0.0542846
0.00254254,0.00983796
-0.0616163,-0.0224417
-0.0777509,-0.0516832
-0.052,-0.00474473
-0.0294927,-0.006632
0.0278204,-0.0188573
0.08425,0.0376599
0.083082,0.0718007
0.0463606,0.0419776
0.00131138,0.0134195
-0.0407811,0.0263506
-0.0307626,0.0423112
-0.0120558,-0.00128003
-0.0284219,-0.0555796
-0.0358483,-0.0120008
-0.00549971,-0.00537268
0.0308261,-0.0118429
0.0500716,-0.0160499
0.0422835,-0.0317617
0.0477897,-0.0769849
0.0614069,-0.0832525
0.051671,0.0031819
0.0128691,0.079971
-0.0432826,0.0276107
-0.0646398,-0.0108919
-0.0631885,-0.00361294
-0.05587,0.0326201
-0.0370654,0.123855
-0.0437852,0.0477481
-0.0171455,0.0284542
0.025845,-0.0355957
0.0310271,-0.000749487
-0.011531,0.0017262
-0.0599016,-0.0147038
-0.0357134,-0.0200746
-0.00961374,-0.0467406
-0.00392378,0.00510913
0.00556655,0.0784538
0.0222529,-0.0253906
0.0375867,-0.0478402
0.0336462,-0.0755883
0.0356894,-0.055564
0.000258497,0.00594473
-0.0461558,-0.00299388
-0.0573931,-0.0174915
-0.0549272,0.0069598
-0.0354527,0.0661164
0.0113869,0.0664399
0.0688828,0.0425617
0.0937895,0.0192357
0.0839185,0.014036
0.0460716,0.0121444
0.00888901,0.00289638
0.0221355,-0.000920054
0.0021153,-0.0414781
-0.0707942,-0.0336059
-0.0686096,0.140863
-0.01021,0.0385286
0.0335934,-0.122546
0.0482289,-0.0433879
0.0591885,-0.0781045
0.0488106,0.00608813
0.002376,0.0149736
-0.0413411,-0.0703883
-0.0419531,0.0453694
-0.0396928,0.0879456
-0.0701412,-0.00518761
-0.0492983,-0.0233777
-0.0276967,-0.0139045
-0.0268582,-0.0417365
-0.0229357,-0.0311118
4.24e-06,-0.0122188
0.0159716,0.0198286
0.0351669,0.0190806
0.0314718,0.024105
-0.0173261,0.0216607
-0.0454662,-0.0123272
-0.0355313,-0.0391003
0.0150253,0.00486618
0.0473784,0.0934372
0.0348309,0.0511243
0.0163948,-0.0664661
0.00975518,-0.0864787
0.0108516,0.0201811
0.0256809,0.125718
0.0312451,0.0302936
0.00346094,-0.0737105
-0.034405,-0.10218
-0.0206291,-0.0692435
0.0215025,0.0395724
0.0673817,0.030576
0.141671,0.0114806
0.143176,0.0392926
0.0212683,0.0233395
-0.0807178,-0.0691347
-0.138553,-0.0460677
-0.163057,0.00737746
-0.10503,0.0296167
-0.0378277,0.0245393
0.00189217,0.0252371
0.0330874,-0.0145806
0.0585964,0.00199172
0.0474033,-0.026825
0.0193324,0.00291134
-0.0139923,-0.0167012
-0.0228822,0.0139083
-0.0186152,0.0527915
-0.0133753,0.0502668
-0.0153329,0.0326712
-0.0343205,0.0192257
-0.0326943,-0.00777305
-0.00744637,-0.00357047
0.00352731,0.00290119
0.000599184,0.00697476
0.0190471,0.0356626
0.0579307,-0.0267336
0.0566514,-0.0884868
0.0302209,-0.0865748
0.0161539,-0.0423149
-0.0290681,0.0235952
-0.0106593,-0.0771793
0.0374784,-0.046393
0.0372406,0.0389682
0.0179084,0.164833
-0.0347042,0.057992
-0.0863383,-0.0389724
-0.0225573,-0.0205712
0.0845749,-0.00211749
0.106716,0.00634631
0.0479055,0.0103119
-0.0290531,0.0271998
-0.0883213,0.0810131
-0.0854612,0.0148452
-0.0494961,-0.0441818
-0.0140136,-0.00898845
0.0093839,0.0253673
-0.00687596,-0.029965
-0.026603,0.00137034
-0.0497735,-0.0304121
-0.0267343,-0.069987
0.0346813,-0.0261011
0.0763669,0.0153877
0.0577183,0.0686932
0.00510465,0.0507417
-0.0168395,-0.0293944
-0.011897,-0.0893897
-0.0106233,-0.014497
-0.0185657,-0.0213427
0.014847,0.0285233
0.0358653,0.0503538
0.0401489,-0.0144339
0.0333232,-0.0239973
0.00202337,-0.0101442
-0.0214281,3.08e-05
-0.028155,-0.0433792
-0.0187394,0.00754811
0.00929048,0.086005
0.0592472,0.04507
0.0593692,-0.0180864
0.0229262,-4.49e-05
-0.0164137,0.0100649
-0.0548949,0.00736751
-0.0572379,0.00221916
-0.0115109,-0.00276687
0.0238459,-0.059748
0.018245,-0.103594
-0.00500422,-0.0260127
-0.0485793,0.0430266
-0.0468921,-0.0345357
-0.0383934,-0.117593
-0.0220782,0.038262
-0.0120665,0.0845742
0.0237482,0.0980011
0.0614114,0.0349722
0.097033,0.0484328
0.103515,0.0657882
0.0650298,-0.069819
0.0101659,-0.0373551
-0.0734868,-0.0585515
-0.0981572,0.0497272
-0.0793137,0.0638283
-0.0730597,0.0327227
-0.05655,-0.00322531
0.00371165,-0.0551808
0.0699448,-0.0864898
0.0926581,-0.0217154
0.023361,0.0240715
-0.0306275,-0.0376107
-0.0647424,-0.0345507
-0.0640993,0.0209607
-0.0296038,0.0791235
-0.0116461,0.0345219
0.0205692,-0.00656655
0.0376716,-0.00984986
0.0101301,-0.0293518
-0.00464148,-0.010845
0.0342419,0.0572314
0.0710367,0.0297524
0.0723858,-0.0108672
0.0337395,-0.038232
-0.0176228,-0.0548959
-0.065634,-0.022842
-0.102399,0.0180774
-0.0906583,-0.0316108
-0.00701619,0.0502495
0.0667417,0.0548009
0.108885,-0.0160163
0.0564069,0.0219048
-0.0387453,0.0251821
-0.0863247,0.0172482
-0.0621744,0.00533063
-0.00482589,-0.0168716
0.0524816,-0.029097
0.0502421,-0.00113393
0.0107819,0.0607714
-0.0131001,0.0202549
0.0322633,-0.00271901
0.0892891,0.0102057
0.0765804,-0.0374672
0.00769011,-0.0603056
-0.0175471,-0.013998
0.00180184,-0.00577257
0.0184575,-0.00983541
0.0227901,-0.0210051
-0.0201455,-0.0156093
-0.0466725,-0.0012064
-0.0158716,-0.00543821
-0.0377514,0.00374545
-0.0865576,0.0113231
-0.0817405,0.017266
-0.0620738,0.0380671
-0.0263021,0.0606039
-0.000988228,-0.0871577
0.007763,-0.0473403
0.00745168,0.0784241
-0.00250264,-0.0189151
-0.011556,-0.0823003
0.0145237,-0.0381469
0.0439413,-0.0311563
0.0423813,-0.043925
0.0153195,-0.0219269
-0.0114437,0.0229101
-0.044295,0.0410128
-0.043359,0.0942397
-0.0097078,0.0699664
0.0245381,-0.0507486
0.0114187,-0.0582603
0.0177576,0.0724049
0.084349,0.0778236
0.152101,0.0503846
0.113885,-0.0113006
-0.00522601,-0.0328898
-0.0810047,-0.0355789
-0.10634,-0.00879536
-0.068047,0.0354583
-0.00157476,0.0447414
0.0458922,-0.0892581
0.0566471,-0.16465
0.00862723,0.0336129
-0.0552935,0.122886
-0.0800743,0.00653264
-0.0303693,0.0334992
0.0294684,0.0251751
0.035896,-0.00527498
0.0217547,-0.0606199
0.0460288,-0.0502852
0.0418346,-0.0608439
-0.0161307,-0.0628566
-0.0515048,-0.022827
-0.00407521,0.0712649
0.0890111,0.0270529
0.105926,-0.00719103
0.0533313,0.0721124
-0.0158883,0.0541622
-0.0634295,0.0410285
-0.0814042,0.0514768
-0.0787574,-0.00110334
-0.0685564,-0.0153086
-0.0329936,-0.0264987
-0.00780018,0.0363196
-0.0348323,0.0226165
-0.0567796,-0.013641
-0.0891342,-0.0456301
-0.125818,-0.0768837
-0.0647044,-0.00526504
0.0247403,0.0838146
0.0831985,0.00393202
0.089295,-0.0103416
0.0698929,0.0423001
0.0739463,0.0638903
0.0509725,-0.0364297
0.0361932,-0.00686851
0.02044,0.00451989
-0.018355,-0.018947
-0.0249842,-0.0414401
0.0231758,-0.0780612
0.0737514,-0.0359088
0.0761595,-0.0219879
0.0588936,-0.0400274
0.0208452,0.00521255
0.0138542,-0.00551107
0.0472657,-0.0743439
0.0536256,-0.0631808
0.0320803,-0.0232457
-0.00535823,0.088037
-0.0420714,0.226132
-0.0822982,0.0446277
-0.0712865,-0.0488452
-0.111055,0.00115727
-0.13244,0.00371627
-0.0697358,-0.00744098
-0.0205887,-0.0460519
-0.0116157,-0.0903879
-0.00208821,-0.111608
0.0304523,-0.0374444
0.0472183,0.143798
0.0439334,0.0881482
0.0109123,-0.00162974
0.0247008,0.0252891
0.0341741,0.111885
-0.0146412,-0.0285409
-0.0366722,0.02735
-0.0335548,0.0286748
-0.0201696,-0.00501361
0.0116147,-0.012667
0.00719762,-0.0448468
-0.00863472,-0.116059
-0.0371071,-0.0701617
-0.0609297,0.0619405
0.0252695,0.0677383
0.100347,0.0285144
0.0895868,-0.0372479
0.0210946,-0.00900285
-0.0290275,0.0416821
-0.0521765,0.0583112
-0.0362195,0.014419
0.00610264,-0.0231694
0.0477611,-0.105996
0.0556044,-0.0435235
0.0372017,-0.0123521
-0.0336405,-0.0919905
-0.0445158,-0.0875904
0.0202265,-0.0279028
0.0584439,-0.0495322
0.0633342,0.0215585
0.0549774,0.105517
0.0238393,0.0731775
-0.0350723,0.141942
-0.0858944,0.0780676
-0.0515635,0.0224379
-0.00105343,0.0140365
-0.0273336,0.0220061
-0.0619403,-0.0828336
-0.0694956,-0.117124
-0.0648824,-0.0821451
-0.0339854,0.0116707
0.0538511,0.0259851
0.0939381,0.0729838
0.0393138,0.175704
-0.0366081,0.0592821
-0.0504842,-0.0507082
-0.0411663,-0.0354059
-0.0219711,-0.0632413
-0.0223846,-0.0229681
-0.00128849,-0.0135448
0.0397735,-0.0308832
0.0832203,0.0319261
0.116284,-0.0345477
0.116767,-0.114923
0.0886034,0.0281674
0.0123881,0.0857906
-0.0658053,0.0673701
-0.12817,0.00210743
-0.126799,-0.0492164
-0.0445432,-0.0811771
0.0141479,-0.115631
0.0297227,-0.109351
0.0471104,0.0456193
0.0531363,0.147482
-0.00979244,0.118835
-0.0340767,0.100072
-0.0137926,0.0178754
0.0210976,-0.0183195
0.071164,-0.0432339
0.0418538,-0.00315025
0.0374837,-0.0451116
0.0276725,-0.0396056
0.0115503,0.0380659
-0.0315863,-0.00954407
-0.0858261,-0.0775037
-0.0655471,-0.0575241
-0.0155832,-0.0369752
-0.0072012,0.000401025
0.00161986,0.0208497
-0.00133993,0.0495129
-0.0146216,0.0393204
-0.0358604,0.0484542
-0.0244212,0.0584875
0.0139559,-0.0443195
0.00249058,-0.105509
-0.0353487,-0.024118
-0.0392971,-0.112555
-0.00475174,0.0447784
-0.00938007,0.158956
-0.0430361,0.0288647
-0.0159092,-0.0185717
0.0624578,0.0633311
0.128736,0.0634869
0.103053,0.0326908
0.0539064,-0.00160753
0.0185099,0.0258763
-0.0303928,-0.00378727
-0.0401482,0.0197293
-0.0246863,-0.0205699
-0.0290596,-0.0347479
-0.024309,-0.0186998
-0.0308197,-0.0717929
-0.0218297,-0.0593369
-0.00667319,-0.0803716
-0.00138138,-0.0641927
-0.00846025,-0.0452465
-0.0485991,-0.0236045
-0.066898,0.0562515
-0.0867809,-0.0466995
-0.0463712,-0.0334705
0.0710444,0.00877293
0.145475,-0.0421952
0.126633,-0.0423066
0.0847939,0.0298214
0.0598795,0.106864
0.089272,0.145096
0.104151,0.161224
0.0491189,-0.135801
-0.00385771,-0.183598
-0.103554,0.108328
-0.122384,0.198066
-0.090082,-0.00284191
-0.0525838,-0.0382092
-0.0258283,0.0604474
-0.0252572,0.145841
-0.0251143,0.00671533
0.00658031,-0.0327896
0.0106773,0.00315395
0.0296475,-0.0125934
0.0701463,0.00515096
0.0417632,-0.0507221
-0.0369328,-0.144151
-0.0695921,-0.0366415
-0.0796653,-0.0141746
-0.0324967,0.0626545
-0.0126341,0.0233352
-0.052985,-0.105108
-0.0554263,-0.0611026
-0.0126723,-0.0392777
0.0571087,-0.0187657
0.099618,-0.00583262
0.0410871,-0.0583286
-0.0424396,-0.0405188
-0.0890601,0.0257424
-0.0627636,0.0932514
-0.0165255,0.0694744
0.0276907,0.0215724
0.040336,0.021614
0.0464979,0.0132666
0.0396177,0.0209607
0.0448095,-0.0410852
0.104187,0.0382725
0.150427,0.0573569
0.134334,0.0355544
0.0469648,-0.0542091
-0.0662378,-0.0997631
-0.153087,-0.051476
-0.113639,0.0827896
-0.0129016,0.114842
0.038888,0.00285182
0.0383537,-0.131982
0.0448763,-0.0432655
0.0293994,-0.0213749
0.0163242,-0.00855318
-0.0766235,0.0353262
-0.152989,0.0547565
-0.150758,-0.0346093
-0.0992817,0.00463788
0.0142951,-0.0288488
0.0283759,-0.00763149
0.00193466,0.0562266
-0.00474744,0.0516362
-0.0157285,-0.00923836
0.0541937,0.0542298
0.107353,0.011761
0.105749,-0.142176
0.0740279,-0.0796873
0.0338208,-0.0570046
-0.0269572,-0.0226122
-0.0717182,0.0465693
-0.106351,-0.0150301
-0.0905791,0.162979
-0.103932,0.0939218
-0.0815027,-0.0533653
0.0277172,-0.0174129
0.0750715,0.0335215
0.0743174,0.0164625
0.136974,-0.0428631
0.244181,0.00949488
0.278441,0.0802468
0.213491,0.0600935
0.0473967,-0.0941975
-0.172026,-0.133488
-0.292974,-0.107507
-0.269522,-0.00639171
-0.135325,0.0369553
-0.011651,0.11124
0.011894,0.15548
0.0171711,0.13151
-0.0276196,-0.0506498
-0.0304284,-0.0579454
0.0221474,-0.0421766
0.0354435,-0.04054
0.0414429,-0.0287313
0.0336305,0.0577131
-0.00505596,0.0122107
-0.0359482,-0.0127864
-0.0582625,-0.0555275
-0.0413474,-0.0582428
0.0370156,-0.091139
0.090615,-0.0343455
0.0538385,0.0511162
0.00125213,0.0531848
0.0134253,0.051189
0.0971363,0.0285559
0.101711,0.0261212
0.0223277,-0.00918479
-0.0982468,-0.115373
-0.244332,-0.109952
-0.282421,0.0525373
-0.228404,0.031892
-0.143169,-0.0244356
0.0457746,0.0127687
0.198373,0.02379
0.212791,-0.0336441
0.209716,-0.0439307
0.218042,0.0636856
0.153792,0.126902
0.00310955,0.0293939
-0.0158124,-0.0635877
0.0278716,0.0604487
0.000807105,0.041729
0.024456,0.0108769
0.0317793,0.0284658
-0.0336093,-0.0596184
-0.135788,-0.145371
-0.134185,-0.0851201
-0.115437,0.0198135
0.0353395,0.0460063
0.143602,0.141861
0.151548,0.207886
0.0711541,0.0688493
-0.0576016,-0.105143
-0.107049,0.0244379
-0.0758829,-0.145824
0.0129985,-0.201466
0.0132722,-0.234561
-0.0913145,-0.111697
-0.0546981,0.0243414
0.0388633,0.0888007
0.0673243,-0.00239121
0.0700078,-0.0948724
0.02065,-0.0187985
-0.121019,0.0961799
-0.216938,0.133212
-0.28345,0.0958838
-0.252134,0.149236
-0.0455095,0.126044
0.204911,0.0744992
0.289342,-0.0378605
0.169934,-0.103484
0.0655079,-0.0464725
0.0618759,0.0827653
0.0923273,0.151023
0.118786,-0.0572147
0.0523568,-0.125072
-0.104818,-0.0500008
-0.155019,0.0391335
-0.217373,-0.00801302
-0.225916,0.0228088
-0.0333521,0.021017
0.0952834,0.0122345
0.0741299,-0.0107805
0.0427284,0.00947111
0.096999,-0.0197455
0.163228,-0.0013141
0.22303,-0.0669382
0.093638,-0.127868
-0.096194,-0.185686
-0.132992,-0.079688
-0.113011,-0.00987444
-0.0449232,0.0568298
-0.02051,0.313214
-0.0231928,0.275515
-0.0117591,-0.0199158
0.0277338,-0.0862749
0.000431516,-0.0424582
0.00941214,-0.0332203
0.120953,-0.0523488
0.143659,0.0126996
0.0178632,-0.00462582
-0.116961,-0.0829811
-0.211377,0.0221043
-0.188906,0.108033
-0.0824312,0.0111879
-0.00324525,-0.0343917
0.0379651,-0.0716028
0.0594225,-0.1067
0.0606828,-0.011362
0.066939,0.0633408
0.12486,-0.0664165
0.167602,-0.0318486
0.133526,-0.0627175
0.0286075,-0.0162309
0.0523478,0.0455401
0.0478735,-0.0115884
-0.045177,0.0557246
-0.0651028,0.14237
-0.143278,0.0875487
-0.189315,-0.206624
-0.15718,-0.166266
-0.043641,-0.0372759
0.149441,0.0603155
0.208529,0.0785472
0.209001,-0.00837022
0.00689065,0.062504
-0.139367,0.12785
-0.0896558,0.122157
-0.0701656,-0.0686852
-0.13162,-0.0974137
-0.144099,0.00753811
-0.0740271,0.0163232
-0.00353897,0.0570432
0.019695,0.019222
0.112772,-0.164947
0.179767,-0.0634062
0.122593,0.0534907
0.00690963,0.0992158
-0.17117,0.0739717
-0.217289,0.081904
-0.0536481,0.0694254
-0.0336433,0.00532062
0.0110989,-0.03846
0.00619658,-0.068299
-0.0353743,-0.109745
0.0272849,-0.0684044
0.0680273,-0.0480796
0.0348953,-0.0228517
0.0315417,0.0313788
0.164393,0.0704774
0.279935,0.115149
0.23276,0.0068379
0.0896401,0.00430347
-0.110698,-0.00282902
-0.22402,0.00424907
-0.228729,-0.0104976
-0.127524,-0.0480586
0.0265089,0.00215339
0.128576,-0.0217295
0.0527817,0.0278971
-0.0211896,-0.0941474
-0.0932086,-0.13226
-0.140076,-0.0289885
-0.161846,-0.016705
-0.184004,-0.0490677
0.0568519,0.0372553
0.24924,0.0307822
0.193651,0.0489245
0.14836,0.105922
0.0613278,0.0346454
-0.0218209,-0.0119248
0.0275755,-0.0162257
0.0316545,0.175581
-0.110069,0.227665
-0.167625,-0.110452
-0.111645,-0.163999
-0.0131038,-0.0346043
0.182546,-0.0282962
0.146353,-0.0137802
0.00329687,-0.0341685
-0.00345653,-0.0341344
-0.0278151,0.05938
-0.0704177,0.157875
-0.0890568,-0.131241
-0.0728051,-0.237222
0.0398517,-0.0863872
0.201382,0.0143832
0.200734,0.0203167
0.0793095,0.156729
-0.102664,0.0870032
-0.196907,-0.00218292
-0.0628444,0.0467565
0.000682418,0.0547057
0.0505629,-0.0497104
-0.0158763,-0.123909
-0.0676221,-0.0723088
-0.0782586,0.072802
-0.0624575,0.156068
-0.032418,0.0433111
-0.00353785,0.0158434
-0.0315729,-0.0519404
0.000132193,0.0200757
0.058148,0.0946123
0.0146015,0.0667794
-0.0802834,0.0135177
-0.107763,0.00393899
-0.0766772,0.0395521
-0.0470196,-0.011524
-0.00436885,-0.107405
0.0908976,-0.123627
0.180351,-0.17042
0.183212,-0.198757
0.128667,-0.0787931
0.0847037,0.0188315
0.0292579,0.0555254
-0.0113953,0.0730654
0.00469823,0.0512738
-0.0298103,0.130794
-0.0849408,0.085979
-0.0660928,-0.0341066
-0.0257317,-0.0712822
0.0639115,0.031433
0.0287048,0.1355
-0.077653,0.0852215
-0.0951316,-0.0624634
-0.0704708,-0.0431951
-0.0133156,-0.0174515
0.0244637,-0.0823249
0.0454917,-0.0787624
-0.0160377,0.0109551
-0.0569481,0.0595688
-0.039413,0.0205952
-0.0592694,-0.0439585
-0.0642506,-0.0608437
-0.0653313,-0.00320834
-0.0363075,0.0328551
0.00289884,0.0528658
0.0197658,0.0399566
0.0550872,0.0210857
0.114541,0.0279146
0.135159,0.00941078
0.133058,0.0011128
0.098277,0.00503157
0.0346307,-0.0256533
-0.0196588,0.00768169
-0.056111,0.0297024
-0.0206635,-0.00114779
0.053405,-0.0361111
0.0196469,-0.0658364
-0.0780441,-0.032289
-0.114515,0.0237593
-0.0509086,0.0220786
0.0581331,-0.023728
0.101101,-0.0465129
0.0487854,-0.0400746
-0.0161337,-0.0807367
-0.0846138,-0.104137
-0.086676,0.0643272
-0.0020915,0.130762
0.0186338,0.122996
0.0031035,0.0134116
-0.033651,-0.0162092
-0.0531369,0.00782152
-0.0559495,-0.00192773
-0.0143927,0.00390799
0.0550904,0.0499333
0.0522197,0.0238093
0.0206878,-0.0923413
0.0164255,-0.0687466
0.00411174,-0.00948572
-0.082309,-0.0336739
-0.151798,0.0256909
-0.0806602,0.0782103
0.0437101,-0.00781126
0.145465,-0.0249907
0.183097,-0.0596883
0.140485,-0.0237542
0.0893445,0.0604174
0.0829747,0.0771182
0.0640438,0.179117
-0.0165348,0.0329308
-0.0599399,-0.143846
-0.0166227,-0.0565353
0.00253298,-0.0116054
-0.0350162,-0.0180569
-0.0745376,-0.0172933
-0.0885438,-0.0060052
-0.0920584,-0.0153183
-0.101218,-0.0539237
-0.0593986,-0.0217815
-0.043063,0.0233187
-0.0542976,-0.00949365
-0.0594035,0.0124798
-0.022759,0.0541455
0.0350771,0.0406492
0.0668715,0.0495799
0.0631336,0.00124469
0.0321776,-0.0514254
-0.00297003,-0.0223313
-0.0112872,0.00373254
0.00868502,0.00856663
0.0251077,0.0924776
0.0094221,0.0203477
-0.0231831,-0.0218276
-0.0381851,-0.0220286
0.0101582,-0.00780644
0.089577,0.00167251
0.103057,-0.0184562
0.0699069,-0.0576022
-0.0205259,-0.0918959
-0.0635882,-0.0864419
-0.0837362,0.0218407
-0.101874,0.0462353
-0.0571196,0.0368888
0.0349017,8.55e-05
0.0669298,-0.0645346
0.0442699,0.039569
0.0116698,0.0557904
0.128599,0.0443349
0.204542,0.0839995
0.181702,-0.00570548
0.0607989,-0.0201989
-0.138645,0.0198252
-0.171333,0.0179075
-0.111779,0.0589625
-0.0742425,0.0753767
-0.0559711,-0.0612057
-0.0560043,-0.00873825
-0.0518201,0.00311351
-0.0630838,-0.0413197
-0.0367831,-0.0570698
0.00647719,-0.0734445
0.0287495,-0.0503389
0.0138553,0.00583352
-0.0202725,0.0221625
-0.0155438,-0.016938
0.01109,-0.0388456
-0.0110543,-0.00171611
-0.0535647,-0.00451676
-0.039766,-0.0121717
0.009554,-0.000450563
0.0257248,0.00241308
0.0188133,0.0142925
0.0547591,0.0475882
0.0846711,0.0530341
0.0260104,0.013407
-0.0253788,-0.0110441
0.0203693,-0.00853645
0.0963059,-0.00597142
0.144755,-0.00306486
0.100272,-0.0030475
-0.0160985,-0.0197041
-0.101204,-0.0351281
-0.0979639,-0.0463306
-0.0380962,0.0096872
0.0377061,0.00391373
0.0645352,0.0153059
0.0555806,0.0376339
0.023424,0.00747006
0.000832455,0.0245827
-0.0045997,0.0332813
-0.0329756,-0.0275188
-0.0739835,0.0433322
-0.0762811,0.0358313
-0.108794,0.0125286
-0.101692,0.0313553
-0.0100558,0.0462404
0.0625352,-0.0207541
0.0928874,0.0373346
0.0734906,0.00828602
0.00460303,-0.189796
-0.0311117,-0.0703893
-0.0312075,-0.0402173
-0.00860946,-0.0538212
0.0560426,0.0725302
0.0638891,0.109404
0.0321433,0.0273446
-0.00832046,0.00586334
-0.0589182,-0.0416051
-0.0332019,-0.0304886
0.0400874,0.00434122
0.0567106,0.00453199
0.00984127,0.00358031
-0.0539664,-0.023887
-0.0855686,0.0300691
-0.0577949,0.0223038
-0.0230612,-0.00854824
0.0225148,0.0080188
0.0640735,0.0152566
0.0487682,-0.0247437
-0.00118527,-0.0284913
-0.0244502,0.0366836
-0.0321914,-0.0264508
-0.00171243,-0.0559673
0.0415828,0.0706269
0.0540884,0.0605658
0.0414987,-0.00958881
-0.00214281,0.00656141
-0.0574081,-0.0116077
-0.113096,-0.0474484
-0.118944,0.0154023
-0.095745,0.0225726
-0.0775162,-0.0500986
-0.010502,0.0116842
0.0785362,0.0248688
0.119471,0.0147221
0.0916951,-0.0529371
0.0895726,-0.0512218
0.107126,-0.0447482
0.136604,-0.0155926
0.101699,0.0399249
0.0318144,0.091144
-0.0473676,-0.00794627
-0.120829,0.00414557
-0.118871,0.0247829
-0.0736271,-0.0595957
-0.0448785,-0.0316348
-0.0304625,0.0157073
-0.0155427,0.027485
-0.0199962,-0.00594156
0.0109184,-0.0440908
0.0549509,-0.00250183
0.0447125,0.0253448
-0.0146546,0.0496654
-0.0556631,0.06298
-0.0412531,-0.0236355
-0.014985,-0.0106426
0.0066833,0.00644223
0.0197978,0.0265673
0.0173879,0.00545669
0.0319948,-0.0140636
0.0552073,-0.0025727
0.0570364,0.0200105
0.0492245,0.0107323
0.0586693,-0.0217497
0.0323422,-0.0232131
-0.0287078,0.00351453
-0.0342897,-0.0130243
-0.0514319,-0.0114758
-0.108399,-0.037698
-0.102839,-0.0524905
-0.0634248,0.00812531
-0.0666637,0.00237078
-0.0522751,-0.03844
-0.014169,-0.0759133
0.0504673,-0.0389506
0.0951442,0.0837174
0.0784267,0.120037
0.0583537,0.00320934
0.0438788,0.00178953
0.0138631,0.0223997
0.0107747,-0.00225077
0.00478961,-0.00371447
0.0310241,0.0210259
0.0530337,0.0266661
0.0436708,0.0241966
0.0178972,0.00324982
-0.0221681,-0.017025
-0.06212,0.0213377
-0.0745992,-0.00469655
-0.0460863,0.00431109
-0.00290912,0.0130829
0.0184629,-0.0539622
0.0325871,-0.0550373
-0.0206122,-0.0163082
-0.0577833,-0.0152723
-0.0617551,-0.000922205
-0.075631,-0.00638339
-0.076742,-0.0536121
-0.0153516,-0.0180859
0.052558,0.0255104
0.0616548,0.00825888
0.0449399,0.0185816
0.0512512,0.0278216
0.0558749,0.0302331
0.0448619,0.0638533
0.0609184,0.0734845
0.0852403,-0.0035135
0.0571047,-0.0208903
-0.0223889,-0.0533306
-0.0942901,-0.0378365
-0.0927515,-0.00920261
-0.0466495,-0.0323893
-0.081594,-0.0309159
-0.0486462,-0.0461829
0.0263102,-0.0218043
0.0464724,0.0460094
0.0188553,0.0233664
0.0120918,0.0147746
0.0194252,0.0312535
0.0269271,0.0163906
0.0119044,-0.0199997
-0.0111636,-0.00742148
-0.0314193,0.0236064
-0.0361253,-0.0133581
-0.0133726,-0.0291558
0.022548,0.00742672
0.0418899,0.0072369
0.043471,0.0201973
0.0161713,0.00813771
-0.00666003,0.0614344
-0.0412407,0.00243705
-0.0331577,-0.067772
-0.0033139,-0.0134046
-0.00154486,0.0203033
-0.0291746,0.000346935
-0.0481377,-0.0266098
-0.0333637,-0.028764
0.0402677,0.0158244
0.106606,0.0543078
0.126135,0.0473032
0.0905159,-0.0264583
0.0327782,-0.0555358
0.000704004,-0.0331879
-0.0495234,-0.0111694
-0.0754423,-0.0274061
-0.117082,0.00305498
-0.140204,0.00377586
-0.06358,0.0466177
-0.002578,0.0112687
0.0172027,0.0131693
0.0103524,0.0738629
0.0311006,0.107094
0.0398703,0.0817599
0.0111608,-0.0565115
0.000886423,-0.107438
-0.00160265,0.00965479
-0.00708956,0.0113977
0.0070623,-0.0734308
0.0214908,-0.0572133
0.0315767,-0.0387819
0.0340354,-0.033352
0.0260244,-0.00702474
0.0198694,0.0247603
-0.026627,0.0543087
-0.0454698,0.0287549
-0.055582,-0.00174285
-0.0596686,0.0223954
-0.0271739,-0.00446283
0.021716,-0.0656333
0.0428093,-0.0168222
0.0234736,-0.0136865
-0.00632883,0.00710277
-0.0100684,-0.00701536
0.0161321,-0.00842998
0.0745312,0.0171391
0.112473,0.0540673
0.085061,0.0390739
0.0297826,0.0131485
-0.0323011,0.0260404
-0.0605665,-0.0137119
-0.0265098,5.89e-05
-0.026871,0.0106642
-0.0538676,0.00703256
-0.0596507,0.0248484
-0.0362453,-0.0363506
0.0385171,-0.0326792
0.118686,0.0774106
0.121668,0.0295431
0.0683298,-0.0347107
-0.0343527,-0.0400738
-0.107274,-0.036845
-0.072063,-0.034606
-0.0363695,-0.0491709
-0.0540385,-0.0507716
-0.0399271,0.0102438
-0.00917196,-0.00718714
0.0332668,0.0416188
0.089245,0.0527071
0.0766065,0.0157973
-0.00729649,-0.0479315
-0.0648212,-0.0727725
-0.0844684,-0.0532269
-0.0424662,0.0102505
-0.0232893,-0.0221113
-0.00409372,-0.0588607
0.0176598,0.0522258
0.0078458,0.0807996
-0.00881769,0.0687028
-0.02128,0.071396
-0.0444035,0.0365409
-0.00855095,0.010332
0.03563,0.00421092
0.0439856,0.00821585
0.0142975,-0.0255131
-0.00393137,-0.0310917
0.0130381,0.0112823
0.0209921,0.00531033
0.00977468,-0.0735024
0.0144182,0.0014947
0.00583789,0.0192566
-0.0271628,-0.0172209
-0.029238,0.010966
-0.00956662,0.0391404
0.0232509,-0.00585799
0.0330899,-0.0177793
0.0281837,0.0196882
0.00992813,0.0547504
0.0087861,-0.00372069
0.00209457,-0.0331093
-0.0265876,-0.0319963
-0.0311504,-0.0301102
-0.015773,-0.0352167
-0.0148096,0.0183932
-0.00779646,0.0732599
0.0310927,-0.0298725
0.0577363,-0.0430739
0.0650882,0.0110957
0.0344619,0.0151242
-0.00750665,0.0125531
-0.0384149,0.000648121
-0.0401518,0.0101426
-0.019225,0.00316971
-0.0239248,-0.01532
-0.0302728,-0.0178747
-0.0128459,-0.00316364
-0.00624899,-0.00827836
0.0133216,0.0335332
0.036707,0.0467653
0.0257635,-0.0195069
-0.0338287,-0.0525002
-0.0612921,-0.0322353
-0.0101584,-0.00892396
0.0404275,0.0176527
0.0711054,0.0180219
0.0506768,0.00504328
0.0268165,0.0258478
0.0342523,-0.00160935
0.0126471,-0.025736
-0.0636786,-0.0374122
-0.110468,-0.0311561
-0.0813474,-0.0186128
-0.00672835,0.0482441
0.0294864,0.0259679
0.0322796,-0.0520462
0.0416468,0.0349251
0.0291393,0.101364
0.0149837,0.00698988
7.21e-05,-0.0900395
-0.0218622,-0.0562184
-0.0361889,-0.0204416
-0.030663,0.0117904
0.0192395,0.0415891
0.0495216,0.0605498
0.0271428,0.0568683
-0.0111133,0.0422216
-0.0372284,-0.0061969
-0.0612043,-0.0304977
-0.0519044,-0.0245939
-0.0290219,0.010178
0.00163856,0.0252735
0.00730714,0.00814982
0.0147965,-0.0138718
0.0371093,0.000218139
0.0654454,0.0151689
0.0823684,0.0193823
0.0714878,-0.0177936
0.00729311,-0.0327218
-0.047639,-0.0265736
-0.067997,-0.035529
-0.0522447,-0.016297
-0.0152188,-0.0271399
0.00243939,-0.0180889
-0.00100907,0.000696776
0.00385682,-0.0040919
0.00432658,-0.000680764
-0.000296014,0.00547781
0.0100786,0.00417798
0.0431811,0.0330637
0.0223482,0.00948725
-0.0122868,0.0230689
-0.0253645,0.00754403
-0.0294573,-0.000501258
-0.0119609,0.0316692
0.0172671,0.0234352
0.0192047,-0.0491523
0.000518597,-0.0210164
-0.0210042,0.0188131
-0.0482262,0.0350196
-0.0392986,-0.00479571
-0.0185168,-0.04289
-0.00346504,-0.033702
0.00302128,-0.0829582
0.0125069,-0.0483676
0.0742921,0.0729637
0.158971,0.0478267
0.176491,0.0451256
0.106395,0.0171488
-0.0160336,0.0106245
-0.127376,0.0131708
-0.1741,0.0100586
-0.122724,0.0103517
-0.0648114,0.00575478
-0.0299652,0.0140703
-0.0138055,0.00731877
-0.00463616,-0.0234785
-0.0151766,-0.0391982
-0.0297364,-0.0506504
-0.0201872,-0.0629954
0.0433572,-0.0142587
0.075581,0.023944
0.0483632,0.00908416
-0.00273143,-0.0442946
-0.0233427,-0.043667
-0.0199011,0.0113027
0.00903327,0.0838572
0.0233241,0.0309381
0.0162038,0.00758325
0.0203599,0.0259029
0.023383,0.0284604
0.0334134,-0.00254761
0.0595282,-0.0389701
0.0944497,-0.0781718
0.115161,0.000684066
0.0754678,0.0619793
0.0109029,0.0225224
-0.0772954,-0.006882
-0.131381,-0.02414
-0.137593,0.0359625
-0.0918226,0.0374632
-0.0349022,-0.00718894
-0.0123263,-0.0128467
-0.00923582,-0.0129971
0.0118179,-0.0208301
0.028631,-0.0354713
0.0113467,0.0338012
-0.000641491,0.0209382
0.00968629,0.0401637
0.00308162,0.0890162
-0.0209927,-0.04264
-0.024205,-0.0589003
-0.0139282,-0.00737127
0.00678888,-0.018676
0.0436724,0.00874328
0.0298057,0.0206992
-0.00958665,-0.0135825
-0.0345798,-0.0380082
-0.0408401,-0.0391955
-0.012144,-0.0419078
0.0369412,-0.0118682
0.0456862,0.0128106
0.0218745,0.0222768
0.00308211,0.0267318
-0.0187831,0.0420414
-0.0298781,0.0505915
-0.0271655,-0.00932135
0.00588964,-0.0440241
0.0193746,-0.0610896
0.0176985,-0.0493157
0.00419012,0.0294653
-0.0277217,0.05908
-0.0170758,0.0655833
0.0352214,0.00637107
0.134711,-0.00538757
0.166305,-0.000607793
0.101755,0.00161988
-0.00909348,-0.0072904
-0.0986913,-0.0155049
-0.160383,-0.0117157
-0.15746,0.0189568
-0.0815796,0.0401686
0.021667,-0.0264209
0.070364,-0.013264
0.0568177,-0.0372928
0.0126833,-0.0802888
-0.0174311,-0.00209997
-0.0265492,0.0822687
-0.0209426,0.0295591
0.00945557,-0.050607
0.0307282,0.00453448
0.0301635,0.0527808
0.00947876,0.00562723
-0.0134608,-0.0176691
-0.0214761,-0.00178306
-0.0298405,0.00562682
-0.0263233,0.00528646
-0.0102206,-0.0204799
0.0151964,-0.0504036
0.0210031,-0.0285279
-0.0108616,-0.000117075
-0.0315517,0.0228739
-0.00229045,0.0477419
0.0406622,0.0393106
0.04921,0.0170147
0.0357697,0.00628735
0.0372855,-0.0171499
0.0178483,-0.0231564
-0.0188841,0.0153998
-0.0399679,-0.000944343
-0.0474789,-0.0439563
-0.0258205,-0.0217311
0.027684,-0.00955834
0.0411035,0.0307369
0.030172,0.0351692
0.00620255,-0.0385182
-0.00242409,0.016947
0.0194338,0.0361577
0.0549154,-0.00196255
0.0199659,0.00114236
-0.0557855,-0.0100984
-0.111482,-0.0381446
-0.108405,-0.0438702
-0.0603721,-0.000134249
-0.017658,0.0642028
0.00721359,0.0690438
0.0259296,-0.00372073
0.0361816,-0.0409228
0.0531229,-0.0257832
0.0507754,-0.0214651
0.0236932,-0.0221202
-0.00329087,0.0125292
0.00205364,0.0232687
0.026489,0.0319456
0.0499816,0.0570512
0.0281714,-0.0357007
0.0168116,-0.0263722
-0.0101397,0.0099337
-0.0551354,-0.0558156
-0.0498639,-0.0490169
-0.0229609,-0.0341494
-0.00215112,-0.0681747
0.0438798,-0.0630799
0.0306739,0.0231673
-0.035448,0.0651218
-0.0850394,0.0694526
-0.0820522,0.0838562
-0.0190874,0.0459404
0.0243631,-0.0253694
0.0466243,-0.0598652
0.0471704,-0.0307336
0.0196881,0.0701546
-0.00433341,-0.00530979
-0.0121083,-0.00631993
0.0177441,0.0714438
0.0449898,0.0119513
0.0310464,-0.00914432
-0.00930572,0.00207232
-0.0191737,0.00265427
0.00468505,0.000260021
0.0272889,-0.0064486
0.0151623,-0.00297819
0.014233,-0.00361693
0.0286525,-0.0268213
0.0263619,-0.0410165
-0.0126009,-0.0479417
-0.0627192,-0.0419196
-0.0848046,0.0160069
-0.0837144,0.0363141
-0.0423316,0.0269231
-0.000925926,0.048736
0.00320931,0.0398695
0.00659524,0.0293458
0.0197824,-0.042927
0.015667,-0.0629241
0.0162373,0.00600121
0.020875,0.00307523
0.0288952,-0.00779532
0.0396674,-0.00075788
0.0453212,0.0101528
0.046377,-0.0188969
0.0295357,0.00215527
0.0109151,0.0395658
-0.0204369,0.0330935
-0.0635605,3.77e-05
-0.0734831,-0.0303318
-0.0414608,-0.0251559
-0.00303084,0.0107784
0.00375717,0.00428287
-0.00900405,-0.0190794
-0.00556337,-0.0368905
0.0140652,-0.0450416
0.012193,-0.0467304
0.00390197,-0.0124549
0.00878442,0.0590334
-0.00204792,0.0431655
0.0101722,0.0568484
0.0562965,0.00358612
0.0656589,-0.0296091
0.0386133,-0.0390494
0.0224523,-0.0101189
0.0169079,-0.00123776
-0.0152794,0.00438651
-0.0382356,-0.0150497
-0.0505816,0.00445941
-0.0671145,-0.0113648
-0.0699605,-0.0571195
-0.0507549,0.0141424
-0.0154764,0.0270632
0.0303505,0.0345906
0.0716837,0.0706296
0.0616447,0.0569382
0.00793134,0.0413089
-0.0733124,-0.00630633
-0.0707862,0.0333559
0.00967347,0.0382107
0.0962922,-0.052702
0.122127,-0.0639972
0.0601325,-0.0337679
0.0414704,-0.0530725
-0.0150544,-0.0246965
-0.106954,0.017486
-0.0879445,0.0273219
-0.0227488,0.00152045
-0.0158863,-0.0334259
-0.0256395,-0.0224153
-0.0216458,0.0405075
-0.0116279,0.021519
-0.0142294,-0.0180922
-0.0196288,0.0172356
-0.0229182,0.00734547
-0.00796129,0.00567932
0.00990617,0.00873166
0.0264498,-0.00274089
0.0271097,-0.0597982
0.0146845,-0.0488333
0.0110789,-0.0435096
0.010487,0.00679636
0.00785388,0.0379341
0.0328362,0.05861
0.0611556,0.0444168
0.0525406,0.0443716
0.00882863,0.0656256
-0.0580265,0.0214784
-0.0843088,-0.0435296
-0.0519083,-0.0382967
-0.0109803,-0.00850049
0.0260436,0.0151532
0.0346836,-0.00567542
0.0347503,-0.0480077
0.0401606,-0.0303956
0.0634516,-0.0311997
0.10922,-0.0632934
0.0642513,0.00745774
-0.0394434,0.077113
-0.115426,0.0247203
-0.122253,-0.0253699
-0.0605132,-0.0219787
-0.0166073,-0.00251139
-0.019764,0.0439712
0.0027098,0.0190643
0.00361444,-0.0268512
0.00968415,-0.0303617
0.00577919,-0.00160029
-0.00503144,0.0241522
-0.0104377,0.00253318
0.00350751,-0.0309662
0.038174,-0.00255954
0.0549038,0.0504832
0.0491075,0.0682357
0.0125564,0.0434201
-0.022423,-0.00877958
-0.000166419,-0.0531919
0.0292633,-0.0694315
0.00657426,-0.0795079
-0.0430669,-0.0702144
-0.0322854,0.0339326
-0.00114635,0.0906726
0.0100809,0.046664
0.0150286,0.021076
0.00382096,0.00260477
-0.00509692,-0.014306
-0.0150076,-0.0208831
-0.027611,-0.0028281
-0.0468004,0.0194671
-0.0478595,0.0406813
-0.031111,0.0295924
-0.0188916,0.0145498
-0.0032114,0.00706957
0.0205055,0.0128625
0.0663469,0.00842991
0.0938794,-0.0078582
0.0878661,-0.0587785
0.0575329,-0.0862724
-0.00364237,-0.0679533
-0.0616516,-0.0452459
-0.0544254,0.0171206
-0.0514893,0.0300713
-0.0445183,0.0228627
-0.0292029,0.00811284
0.000708786,0.0138804
0.00671881,-0.0270334
0.00556837,-0.0357511
0.00542174,-0.0190617
0.0298602,0.0509616
0.0745156,0.0960521
0.0624188,0.0257982
0.032373,-0.0034798
0.00412575,-0.029977
-0.0427433,0.0281726
-0.0731333,0.0563742
-0.0874004,0.00513056
-0.0548166,0.00916085
-0.00574675,0.0120418
0.0434486,-0.0110047
0.0632402,-0.0304674
0.0788651,-0.0318715
0.0681694,-0.0305862
0.0234878,-0.0335137
-0.0235218,-1.36e-05
-0.046752,-0.011489
-0.0473851,-0.055018
-0.0286342,-0.0378288
-0.0286654,0.0395558
-0.0455929,0.0225761
-0.0591574,0.02602
-0.0284846,0.0349548
-0.00519971,0.0164386
0.000630832,0.0156938
0.00624429,0.00495944
0.0202559,-0.000531161
0.0193196,-0.00426753
0.00816148,-0.00556437
0.00758924,-0.0133908
0.0100835,-0.0452837
0.040877,-0.0665917
0.0762194,-0.0128751
0.0910032,0.0422161
0.0685938,-0.000481676
-0.0166539,-0.00714973
-0.066357,0.00263662
-0.0513764,0.0216789
-0.00902836,0.049083
0.00932785,0.0572539
0.015405,0.0429914
0.00404362,0.00988234
-0.0201773,0.00527968
-0.0273933,-0.0333757
-0.0212905,-0.0128274
-0.0385423,-0.00788051
-0.0478994,-0.0259762
-0.0167722,-0.0161649
0.0203028,-0.00229385
0.022922,-0.0267194
0.0113444,-0.0535236
0.0099663,-0.0624391
0.0220567,0.00866417
0.0264845,0.0300657
0.000613162,0.0659383
-0.0460293,0.0978355
-0.0663923,-0.00209589
-0.0223082,-0.0124641
0.0132852,-0.00978868
0.00499454,-0.0135791
-0.0162061,-0.0210068
-0.0172389,-0.020047
0.0257127,-0.0027653
0.0873039,0.009906
0.126359,-0.00619033
0.105364,-0.0190997
0.0165766,0.00769295
-0.0627343,0.0632257
-0.0791053,0.0206934
-0.0645531,-0.01137
-0.021821,0.00214809
0.0444668,-0.0235999
0.0959711,-0.067323
0.0892652,-0.0346079
0.00210915,-0.0102688
-0.0771469,0.0441006
-0.138451,0.00737903
-0.133246,-0.0374916
-0.0516167,-0.0213405
0.0220537,0.0451722
0.0534518,0.0439866
0.0290039,0.00955087
0.00145987,-0.00308021
-0.0140491,0.0455761
-0.0208663,0.0403377
-0.0224908,-0.04563
-0.00634923,-0.0434426
0.017451,-0.0310391
0.047478,0.00521413
0.0619638,-0.0121766
0.0449377,-0.0371628
0.0228503,-0.0164167
0.00649572,0.00405337
-0.000636675,-0.0289126
0.00245897,-0.0437532
-0.0254525,-0.0141025
-0.0574874,0.065984
-0.0367367,0.120492
0.000762995,0.0839755
0.00682135,0.00205288
0.0270108,0.00808224
0.0218303,0.00370786
-0.0103243,-0.0337985
-0.00107959,-0.0145711
-0.00240426,0.000988855
-0.0193008,-0.0281223
-0.00768171,0.00640391
-0.00234072,0.0171043
-0.0137027,0.013228
-0.0260382,0.00345501
-0.0212932,-0.00151809
-0.010927,-0.011289
0.00498256,-0.0309085
0.012238,-0.0395608
0.00604963,-0.0348807
0.00655209,-0.0355648
0.0420888,-0.0212953
0.0781845,0.0012478
0.053139,-0.0166771
-0.0209904,-0.0201817
-0.072277,-0.00659155
-0.0493,0.032876
0.0104733,0.0167148
0.0626937,0.00600781
0.0477884,0.0281116
0.00734452,0.0370758
0.0594133,0.0346317
0.0893591,0.0325212
0.0341994,-0.0282667
-0.033122,0.00977175
-0.0828727,0.0786128
-0.117123,0.0228115
-0.11247,-0.0388705
-0.0787591,-0.0496432
-0.0313963,-0.0214315
0.00371974,0.00102071
0.0204963,0.00589375
0.0134771,-0.000228634
0.00138704,0.00590979
0.0120314,0.0118422
0.0379098,-0.0305038
0.0611902,-0.00853965
0.0645293,-0.00589171
0.0397764,-0.02718
0.000589017,-0.013942
-0.050366,0.018469
-0.0668643,-0.0343205
-0.0167622,-0.0376466
0.0222782,-0.00979109
0.0225657,0.0365679
0.0179825,0.0533158
0.00164731,0.00896316
-0.0132546,0.0173142
-0.00476104,0.0396185
0.00687409,-0.0341387
0.00988275,-0.0915689
0.0174787,-0.0966122
-0.00535503,-0.0340685
-0.0274153,0.00771523
-0.0242824,0.0429043
-0.00386906,0.0780504
0.0259788,0.069651
0.0339197,0.0436261
0.00466807,0.000977215
-0.0265265,-0.0120759
-0.023801,0.0375115
-0.0111993,0.0560708
0.0489412,-0.00106606
0.11396,-0.000625141
0.0892296,-0.00822712
-0.000871089,-0.0468441
-0.0587949,-0.0910847
-0.0842317,-0.0311085
-0.0848072,-0.00179274
-0.0773021,0.036069
-0.0354036,0.0137217
0.0102565,-0.0224547
0.0102223,0.0101001
-0.00678638,0.0447628
0.0120857,0.00147105
0.0567323,-0.0812912
0.0832162,-0.0500193
0.055805,0.0340105
0.0163462,0.0418185
0.0066118,0.0377906
-0.00915442,0.0605129
0.00281676,0.0309812
-0.00220353,0.0126096
-0.0203346,-0.00615846
-0.0416906,-0.015984
-0.0409142,-0.01269
-0.0484859,-0.0247414
-0.040614,-0.0271614
-0.0317016,-0.00646828
-0.00998022,-0.0581003
0.0226618,-0.0148438
0.0204132,0.0519591
0.00547807,-0.036488
-0.00404185,0.0185836
-0.0203073,-0.0114624
-0.0294898,-0.0575425
-0.0195195,-0.0416831
0.0177523,0.000487582
0.0441832,0.047557
0.040722,0.0640545
0.0375692,0.0495823
0.0492056,0.0268047
0.0614623,0.0359259
0.0690981,0.0148727
0.0644777,-0.000667499
0.0307322,-0.0197846
-0.0280366,-0.042198
-0.0783561,-0.034758
-0.0390958,-0.0147293
0.0113955,-0.00222057
-0.0192306,-0.00595199
-0.08293,-0.000129654
-0.0982858,-0.0103537
-0.0660684,-0.00855403
-0.0189258,-0.00742863
-0.0110579,-0.0165269
-0.000196004,-0.00588076
0.0259352,0.0263336
0.0404764,0.0133264
0.0372364,0.0172432
0.0222728,0.0187105
0.00571137,0.0153844
0.0119056,-0.025889
-0.000133552,-0.0490958
-0.0223376,-0.0208229
-0.0098293,0.00118883
-0.0109363,0.0064526
-0.0344367,0.00596838
-0.0104576,0.0235008
0.0403839,0.0194202
0.0556859,0.0173108
0.0351653,-0.0182233
-0.00604133,-0.00152822
-0.0307034,0.0222404
-0.0172465,-0.0161886
0.00491445,-0.0187856
0.0233613,0.00252222
0.0292605,0.042711
0.062275,0.0102615
0.100796,-0.0492034
0.0581039,-0.0866806
-0.0136085,-0.053853
-0.051613,0.05707
-0.0467129,0.124865
-0.0360597,0.00764919
-0.0212753,-0.0199841
-0.0325601,-0.0271863
-0.0367078,-0.0199646
-0.0384205,-0.00659184
-0.0254697,0.00247765
0.00841747,0.0707973
0.0203631,0.0602039
-0.000540466,0.0140732
-0.00601387,-0.00377635
-0.00682694,-0.00548549
-0.0212842,0.0068296
-0.0230213,0.0128852
-0.0019076,-0.0108937
0.00670504,-0.0161848
0.00929544,-0.017012
0.0143217,-0.0165593
0.0263162,-0.00788053
0.0311883,-0.00940966
0.0297627,0.00595403
0.0199378,0.00340844
0.0161172,-0.00911963
0.0069215,-0.0364246
-0.00804883,-0.0738644
-0.00960467,-0.0607207
0.00229736,-0.020946
-0.000232265,0.0358876
-0.000778892,0.0452049
-0.0343574,-0.00919149
-0.0748882,-0.0369342
-0.0716534,0.000596393
-0.0368089,0.000510038
-0.0154897,0.0497958
-0.00178305,0.0259486
0.00277598,0.0457775
0.00792393,0.0182578
0.021923,-0.0462819
0.0516872,-0.107376
0.0697577,-0.118084
0.0486273,-0.0537309
0.0392767,0.0744568
0.0531201,0.137633
0.0399627,0.131227
-0.0096424,0.110886
-0.0609302,0.0551789
-0.0445814,0.00153735
-0.00408196,-0.0011954
-0.00878012,-0.00653811
-0.0394525,-0.0171505
-0.0372065,-0.0196566
0.0105576,-0.0196063
0.049592,-0.0142878
0.0641364,0.00712097
0.0414863,-0.0124024
-0.00364846,-0.0338386
-0.0344258,-0.0472296
-0.0374012,-0.068706
-0.0546362,-0.0531469
-0.0563617,0.00829023
-0.0226552,0.00823305
0.00841495,0.00309841
0.00407539,0.0178222
-0.0164982,0.010622
-0.0141725,-0.00199287
0.010605,-0.0315885
0.0391822,-0.0355314
0.065895,0.000586539
0.0852888,0.0135061
0.0773431,-0.00571206
0.0244531,-0.0261201
-0.00829445,0.0124661
-0.0269504,0.0791837
-0.0485168,0.0591342
-0.0508845,0.0195895
-0.0345602,0.0324599
-0.0358702,-0.00277283
-0.0449936,-0.0348286
-0.0425859,-0.0526499
-0.020198,0.0175375
-0.00925795,0.0227177
0.0111651,0.00861892
0.0193824,0.00511394
0.00644607,-0.00813793
0.000335473,-0.00195601
-0.000378407,0.00428271
0.00812028,-0.000955359
0.0128952,0.00626503
0.0116136,-0.00538508
0.0219395,-0.0343148
0.0346369,-0.0266261
0.0530927,-0.0177221
0.0602551,-0.0442628
0.043787,-0.0474742
-0.00119142,-0.0113787
-0.0580095,-0.00978641
-0.0782078,0.0422725
-0.0320734,0.0463915
-0.0114653,-0.000825767
-0.0150107,0.00162655
-0.014684,-0.0291899
-0.00948222,-0.0274797
-0.0143901,-0.00418358
-0.0179466,0.0966137
-0.0203565,0.0989659
-0.00623755,0.0388648
0.00484384,0.0205018
0.0343589,-0.0200532
0.10559,-0.0579979
0.120643,-0.0619858
0.0767441,-0.00170053
0.00315369,-0.00019206
-0.0518247,-0.0524618
-0.0293682,-0.0575915
-0.0186397,0.00417008
-0.051002,0.0476314
-0.0570327,0.00844628
-0.0287374,0.0327035
-0.00745364,0.0498189
-0.00475073,0.0437305
-0.00755485,0.0754215
-0.0171195,0.0386428
-0.032282,-0.0425081
-0.0405244,-0.0245823
-0.0398756,-0.0387014
-0.0123609,-0.0376777
0.0371023,-0.02902
0.0704796,-0.0160506
0.0631762,0.00185956
0.0329252,0.0244365
0.0296244,0.0117836
0.0321533,0.00623699
0.0181623,-0.0505206
0.000748366,-0.0547329
-0.00691452,0.00106067
-0.0144643,0.0267981
-0.0421138,0.0165658
-0.047391,0.00133467
-0.0412063,-0.0176694
-0.0282283,0.0103068
-0.0151141,0.011455
0.0265362,0.00822663
0.0816547,0.0179501
0.0829662,0.0123179
0.0360447,-0.0298698
-0.0128737,-0.0261143
-0.03789,0.00701052
-0.0345708,-0.0192519
-0.00836019,-0.0155428
-0.003602,0.0105091
0.0108232,-0.0154388
0.002496,-0.0476485
-0.0218591,-0.0387189
-0.0171216,0.042555
-0.0138175,0.103007
-0.0229455,0.0247881
-0.0415085,-0.0401022
-0.040079,0.0168371
-0.0229742,0.04005
-0.0202867,0.0339607
-0.0178238,0.0212447
-0.00403048,0.0096151
0.0266518,0.00115145
0.0354615,-0.0194754
0.0285304,-0.0462679
0.02714,-0.048181
0.0230336,-0.00960176
0.0181445,0.0428806
-0.00363539,0.0313885
-0.0101089,0.00093588
-3.08e-05,-0.028708
0.0183149,-0.0466277
0.0419367,-0.028435
0.0761323,-0.0452698
0.0853452,-0.0527325
0.0285523,0.0195759
-0.0408721,0.0653477
-0.082265,0.0619002
-0.0567007,0.0288357
-0.0017704,0.0332233
-0.00215321,0.0478702
-0.0201761,-0.0115917
-0.0339484,-0.0430846
-0.0488095,-0.0463097
-0.0327558,-0.0250472
-0.0260613,0.00114996
-0.0313693,-0.0114872
-0.0279316,0.00812812
-0.0124501,0.00441564
0.0206135,0.0135865
0.0362138,0.0151317
0.020816,0.00733527
0.00747366,0.0204366
0.00158139,-0.0134942
0.0261234,-0.0233041
0.0459557,-0.0100727
0.0265769,0.00122836
0.0213872,0.00608145
0.0379301,0.0310655
0.0842101,0.000994911
0.114486,-0.0285069
0.0865117,-0.0112276
0.0129957,-0.0149502
-0.0805877,-0.000412095
-0.116719,0.0195467
-0.0744685,0.00990989
-0.0233224,0.00872575
-0.0247363,0.00923326
-0.0529819,-0.00720801
-0.0320541,-0.000513147
0.0126054,0.00789841
0.011453,0.00594562
-0.00923976,-0.0080314
-0.0533908,-0.0202781
-0.0727323,-0.0239127
-0.045541,0.000535014
0.0137183,-0.00940296
0.0303788,-0.0439132
0.0398128,-0.0107147
0.0773377,0.0538274
0.105093,0.00333847
0.0643887,-0.00497792
-0.00200212,0.014242
-0.0333978,0.0266071
-0.0350404,-0.00453384
-0.0333633,-0.0130788
-0.0186309,-0.00550987
-0.0111266,-0.0298599
-0.020962,-0.031343
0.00970589,0.0243414
0.0250918,0.00723246
0.00259854,-0.0590205
-0.00934348,0.0749095
-0.00879444,0.0778955
-0.00419219,-0.0293883
-0.0110653,-0.0287362
-0.0105888,0.0228586
-0.00345829,0.0277313
-0.0118228,-0.00402205
-0.00494032,-0.0303989
0.0284091,-0.0219931
0.0628648,-0.00660014
0.0713246,-0.00390369
0.0422032,-0.0139343
0.000480436,-0.00123645
-0.0346336,0.0175821
-0.0472123,-0.0199657
-0.0296248,-0.00314221
-0.0343419,0.0270641
-0.0450387,0.0571813
-0.0502229,0.0213139
-0.0339853,-0.00541872
-0.0116012,0.00105141
0.00330549,-0.00923082
-0.00392718,-0.0147331
0.00554459,-0.00637344
0.0341465,0.013322
0.0489868,0.00750032
0.0306119,-0.0418107
0.00585761,-0.0150247
0.00459609,0.0201337
0.0187685,0.0138365
0.0298936,0.0335092
0.0141446,-0.00948646
0.00944607,-0.0200459
0.0278064,-0.00181701
0.0390292,0.0174978
0.025537,-0.009088
0.000812223,-0.0290168
-0.0209864,-0.050321
-0.0452447,-0.0456848
-0.056323,-0.00314636
-0.0583674,-0.016473
-0.0541211,-0.00898095
-0.0317509,0.047904
-0.0195635,0.056955
0.0152408,0.0194272
0.0593962,0.0208571
0.0494689,0.0342946
0.0280085,-0.00172508
0.0464355,-0.0119485
0.0573953,-0.00921739
0.0360725,-0.00647296
-0.0246463,-0.00330088
-0.0977563,0.00624319
-0.0835554,0.0166393
-0.0311464,0.00462262
-0.00634842,0.0132704
0.00975074,0.0349428
0.0163467,-0.0287144
0.0129177,-0.072531
-0.00605465,-0.0563936
-0.0356199,-0.0420552
-0.0273401,-0.0589908
0.00593238,-0.058894
0.0227613,-0.00220808
0.0391148,0.095519
0.0518,0.0259367
0.0517247,0.031412
0.0299173,-0.00871829
0.0129392,0.00930523
-0.00449517,0.0678192
-0.0343524,0.0301144
0.00778163,-0.00939018
0.0565173,-0.0176517
0.033184,0.00352268
-0.0227658,0.00503013
-0.063217,-0.0251099
-0.0720601,-0.0451289
-0.0546635,0.0441358
-0.0363123,0.0520335
-0.0244143,0.0324386
-0.0153085,0.0172334
-0.0122824,0.00604977
0.002943,-0.00606586
0.052061,0.020036
0.0821687,-0.00903008
0.0749574,-0.0294922
0.0335622,-0.0214139
-0.0162387,0.00120864
-0.0544836,0.00315707
-0.0455958,-0.0342241
-0.0188589,-0.0466951
-0.0105234,-0.00197288
-0.0118106,0.0544943
-0.0260983,-0.0348517
-0.0451869,-0.0289097
-0.0298164,-0.00134191
0.0107004,0.0438652
0.0306511,-0.026084
0.0224462,-0.030215
0.0185936,0.0079205
0.0488965,0.00107968
0.115467,0.01493
0.142704,0.0341354
0.0576339,0.0300716
-0.0375389,-0.00810902
-0.0858307,-0.00649738
-0.103933,-0.00642227
-0.103256,-0.0135456
-0.0339694,-0.0125672
0.00781112,-0.00835321
0.0030587,-0.0141134
0.0191065,-0.0306255
0.0936706,0.016645
0.0862978,0.00758317
0.000321741,0.00779111
-0.0662875,0.0308863
-0.0904431,0.00772104
-0.0557961,-0.0186015
-0.010607,-0.0199237
0.0187882,0.000306712
0.0517586,0.00474553
0.0844668,0.00363419
0.0708299,0.0124828
-0.00876153,0.00409372
-0.0723055,-0.00907975
-0.06828,-0.0147626
-0.0581357,-0.0347719
-0.0415292,0.0329559
-0.0350881,0.0389391
-0.0264362,2.35e-05
-0.0112695,0.00959716
0.0132363,-9.12e-05
0.0374966,0.029044
0.0402537,0.0207893
0.0189193,-0.0423163
0.0156477,-0.0150696
0.0246706,-0.0590475
0.0203719,-0.063443
0.0342554,0.00865477
0.0463146,0.0805685
0.0358889,0.0177574
0.0356882,-0.00580089
0.0235139,0.00616676
-0.0416838,-0.0113791
-0.0667479,-0.00264997
-0.0377692,0.0487629
-0.015506,0.043954
0.00574681,0.0103053
-0.0142267,-0.0378844
-0.0450003,-0.031281
-0.0648881,-0.0218701
-0.0486698,0.00459948
-0.0148236,0.00044953
0.0269074,0.0395048
0.052267,-0.028795
0.0482173,-0.0252543
0.0310002,-0.0106403
0.0251659,0.00130747
0.0352153,0.0207918
0.0601823,0.0151578
0.0506197,0.0205439
0.0132366,0.0170623
-0.00458002,0.00296681
-0.0128251,-0.00646191
-0.0260796,0.00854447
-0.0581648,0.00155835
-0.0599083,-0.0422217
-0.0133222,-0.0237841
0.00841752,-0.00163638
-0.0190136,-0.0132133
-0.063222,0.00444501
-0.0664171,0.0151609
-0.00238882,0.0357095
0.118044,0.014504
0.221744,-0.0507523
0.225528,-0.0751393
0.109094,-0.0456997
-0.0875965,-0.00180733
-0.267705,0.0329312
-0.237062,0.047468
-0.092517,0.0153923
-0.00171228,0.0150372
0.0246285,0.00609729
0.00951408,0.0134591
-0.0159441,0.0158834
-0.0328953,-0.0233514
-0.0256724,-0.0116814
-0.0230277,-0.00902054
-0.0346778,0.00819699
-0.0238655,0.0133569
-0.00256474,-0.0111816
0.0256539,-0.0203173
0.0556977,0.00371169
0.0807748,0.0286706
0.0862881,0.0384492
0.0625452,0.0331619
0.0281295,0.019488
0.0150832,0.0132539
0.0357151,-0.00328809
0.0426216,-0.0140591
0.0264763,-0.0236183
0.0334484,-0.0303333
0.0195117,-0.021171
-0.00756637,-0.0328651
-0.0236007,-0.0136116
-0.0432251,-0.0142726
-0.0761447,-0.0387441
-0.103706,-0.0501138
-0.0843732,-0.0121811
-0.0245556,0.0476423
0.0392981,0.0335091
0.095362,0.011304
0.0821897,0.0647243
0.0108564,0.0486511
-0.0397332,-0.00065278
-0.0589595,0.0146236
-0.0375975,0.00615369
-0.0185822,-0.0111403
-0.0176008,0.0226978
-0.0229873,0.00949858
-0.0222016,-0.0074265
-0.0133001,-0.00942989
0.0330009,-0.0189186
0.0804547,-0.014901
0.135066,-0.0142202
0.163336,-0.0165744
0.0958748,-0.00553168
-0.0220838,-0.00223209
-0.0987556,0.00322494
-0.111888,-0.0751695
-0.0788074,-0.0321289
-0.0532429,0.0832666
-0.0536208,0.0461414
-0.0287396,-0.0487972
-0.0234022,-0.0494058
-0.0192765,0.0244366
-0.000440859,0.030026
0.00402231,-3.28e-05
-0.00780752,-0.0186371
-0.00942716,-0.000483401
-0.0107469,0.00957963
-0.00669494,0.00810716
0.0268416,0.00773716
0.0548928,0.010032
0.0707347,0.00936899
0.062433,0.0181278
0.00489625,-0.00502143
-0.0376189,-0.0169613
-0.0252459,-0.0101847
-0.00570282,-0.0170896
0.0109008,-0.00555863
0.0421418,0.00187039
0.0533693,0.0210556
0.0466091,0.0186802
-0.0429719,-0.00712258
-0.0321576,0.00842103
-0.0305854,0.0072399
-0.0489105,-0.0327582
-0.0548996,-0.0211971
-0.0362618,0.00250659
-0.0158263,-0.016631
-0.0163469,-0.0184786
-0.0366847,0.00398315
-0.0279569,0.0427711
0.0258939,0.0192003
0.0842427,0.00497771
0.098318,-0.00190779
0.0716929,-0.0159147
0.02169,0.0339862
0.00662198,-0.00520478
0.0214545,-0.0188421
0.0294127,-0.0384188
0.00445539,-0.00235247
-0.0427259,0.0188061
-0.0867964,0.0238935
-0.0755634,0.0272547
-0.0385552,0.00404466
0.00608891,0.0333569
0.0326944,0.0241507
0.0192587,-0.00306711
0.00852121,-0.0077862
0.0147369,-0.0197999
0.0128863,-0.0332775
0.00883964,-0.056149
-0.000348998,-0.0109984
-0.0184974,0.0564886
-0.0192085,-0.00352202
-0.0028609,-0.018195
0.026219,-0.0136467
0.0701536,-0.0057301
0.0653438,0.000546361
0.0201613,0.00384355
-0.0297383,0.00294839
-0.0588292,0.0188331
-0.0595979,0.0104711
-0.0728335,-0.00974406
-0.0649178,-0.0144992
-0.027435,0.0129111
0.0394594,-0.00235996
0.0652966,0.0255813
0.0441288,0.0306065
0.0148959,-0.018665
-0.00198766,-0.0937635
-0.0158673,-0.0626105
-0.0182903,-0.0503479
0.00706678,-0.0197658
0.0376699,0.00839601
0.0397262,0.0524509
0.00220988,0.0854911
-0.0260121,0.0733605
-0.0174849,0.043254
-0.00195411,0.0126629
0.0121818,-0.00552064
0.00167178,-0.0110752
-0.0349078,-0.0331931
-0.0481964,-0.00950529
-0.0354088,-0.0145969
-0.00697971,-0.0162135
-0.00574409,0.0169968
-0.025637,0.00259074
-0.0434576,-0.0119362
-0.0409561,0.0130754
-0.014511,-0.00280732
0.0232839,0.00290942
0.0386073,0.00730495
0.0428238,-0.00146304
0.0385394,0.0320742
0.0303031,0.0293796
0.0293835,-0.0314841
0.0332494,-0.0592619
0.0286857,-0.0649229
0.0363884,-0.0419546
0.027957,0.0940446
-0.00872595,0.03066
-0.0280108,-0.0419113
-0.0249269,-0.0293854
-0.0155228,-0.0417619
0.0103953,0.03742
0.0268688,0.0467376
0.0135175,0.0529394
-0.00857832,0.0549473
-0.00101614,0.0196552
0.0411803,0.000156766
0.0458308,-0.0212099
0.00749211,-0.00925914
-0.0652422,-0.0114428
-0.0771027,0.00603808
-0.0340018,-0.0466497
-0.0101526,-0.0388247
-0.00110593,-0.0084553
0.00979442,-0.0114695
0.00314884,-0.0453203
-0.0124359,0.00548295
-0.010827,0.0329638
-0.00628014,0.0194287
-5.48e-05,-0.0327126
-0.00202365,-0.0198542
-0.00534331,0.0291999
0.00197219,0.026357
0.00175139,-0.00968455
0.00165087,0.00121121
0.00887308,0.0312768
0.00433736,-0.00457886
0.00852665,0.0082933
0.0110007,-0.0037308
0.000141352,0.00183639
-0.0298956,0.00453576
-0.0371659,-0.0149923
-0.016857,0.00131422
-0.0125114,0.0108528
-0.00239133,-0.0212237
0.0353576,-0.0425107
0.0376552,-0.0191315
0.0196865,0.0409401
-0.00794625,0.0214667
-0.0235458,0.00613012
-0.00850078,0.0163435
0.00765761,0.0145545
0.02318,0.0145312
0.0291148,-0.0151795
0.0435321,0.00844551
0.0515924,-0.0197224
0.04945,-0.0449229
0.0365832,-0.0372897
0.00219715,0.0138476
-0.0416092,0.0125242
-0.0520303,0.00923222
-0.0178815,0.0272297
0.007387,-0.019145
-0.00782442,0.000833602
-0.041642,0.0205791
-0.0575553,0.0195007
-0.0592757,0.004673
-0.0478925,-0.0192303
-0.0233206,0.00554294
0.00328813,0.0349889
0.0240865,0.043539
0.00192749,-0.0217586
-0.0260318,-0.0311345
-0.0272157,-0.0247523
0.00743612,-0.0204089
0.0434964,0.0109294
0.0487381,0.037187
0.0207539,0.00653616
0.0207047,-0.0118832
0.0455924,-0.00997098
0.0452486,-0.0123702
0.0258043,-0.0125261
0.0172978,-0.00191736
-0.00306436,0.019029
-0.0201543,-0.00329895
-0.0136684,-0.0490575
-0.00452809,-0.0268614
0.0046401,0.018728
0.00626615,0.0129243
0.00856034,0.0105321
0.00838539,-0.00331973
0.00502425,-0.0119782
-0.00705967,0.00865369
-0.0177511,0.0309809
-0.018537,0.0242722
-0.017724,0.00418991
-0.0205292,-0.00954725
-0.0227595,-0.00839075
-0.0213122,0.00031314
-0.019455,0.00442864
-0.0178463,0.00837505
-0.0116043,-0.00223724
-0.00646323,-0.0252067
-0.00500565,-0.0288349
0.00724774,0.00104231
0.0223251,0.0212901
0.0284894,0.00491705
0.0291746,-0.00662701
0.0223519,-0.00202106
0.00222362,0.011651
-0.00937208,0.00323583
-0.00790081,0.00480335
-0.0121589,0.0181104
-0.00873213,-0.0108849
-0.00407383,-0.0290656
0.00983141,-0.00801682
-0.0030271,0.0177935
-0.0066741,0.0140365
-0.00559571,0.0038879
0.00171427,-0.00623332
0.0101274,-0.0118173
0.0187128,-0.00783096
0.022595,-0.00182812
0.0244922,-0.00396829
0.0245535,-0.00900603
0.00804792,0.00398326
-0.0121718,0.0132405
-0.0109746,0.0128121
-0.00365377,0.00101776
-0.00480717,-0.0116996
-0.000317357,-0.0112164
0.00899735,-0.00752255
0.00267866,0.0118616
-0.0104988,0.0534229
-0.02937,0.0170851
-0.0338016,0.00426448
-0.0361128,0.0056652
-0.0406883,-0.0207081
-0.0108058,-0.0266614
0.0169297,-0.0190324
0.0351387,-0.0169724
0.043606,-0.0112484
0.0388281,0.00451412
0.00490482,0.0113908
-0.0195239,0.00121158
-0.0495735,-0.00784579
-0.0698949,-0.0135047
-0.038547,-0.0142934
-0.0177948,-0.00987491
-0.00885719,0.0067107
0.000456864,0.0230243
0.0299357,0.0148906
0.0549647,0.00276532
0.0448262,0.00173497
0.0324694,-0.00418534
0.0303341,-0.0127548
0.0267862,-0.0128755
0.0115913,0.00604312
-0.00682889,0.0119495
-0.0148732,0.0344374
-0.0111241,0.0175801
-0.00312682,-0.0147641
-0.000808223,-0.00306049
-0.000837312,0.0111867
0.00393328,0.00310443
-0.00524751,-0.0116341
-0.0255354,-0.0057712
-0.0281437,0.000302747
-0.00317804,0.00985051
0.0108686,0.00253162
0.0297352,-0.000948899
0.0388905,0.00343129
0.0189223,0.00858343
-0.016179,0.00843663
-0.0377351,0.000785158
-0.0551784,-0.00472632
-0.0489606,-0.0137641
-0.00697598,-0.0305569
0.046487,-0.0233358
0.0315366,0.0096058
0.0107852,0.0179139
0.000841889,-0.00215682
-0.00490923,0.00124613
-0.00339782,0.00975082
0.0179456,-0.00232908
0.0444274,-0.0292486
0.0746206,-0.027237
0.076121,0.0038449
0.0400282,0.0277682
0.000468093,-0.00363855
0.0147948,-0.00609246
0.0339892,-0.0014625
-0.0102773,-0.00615423
-0.0977371,0.0182923
-0.130245,0.0273818
-0.107825,-0.0122435
-0.0540082,0.0113285
-0.00725382,0.0372801
0.00196913,-0.022329
-0.0170101,-0.0394302
-0.0524645,-0.017758
-0.0732051,5.6e-05
-0.0377043,0.0302244
0.000385371,0.000359151
0.0289523,-0.00390099
0.0686044,-0.0107549
0.0942844,-0.0211859
0.0873558,-0.0146852
0.042227,0.0151969
-0.0220445,0.0353081
-0.041518,0.0120614
0.00969172,0.0147541
0.0596688,0.0281191
0.0683053,0.0253786
0.0333647,-0.00683579
-0.0138252,-0.0245878
-0.0155795,-0.00607195
0.00751222,0.0046399
-0.0135761,0.0012172
-0.0466639,-0.00146383
-0.0571091,-0.00638517
-0.0469522,-0.0065175
-0.0373136,-0.00696834
-0.0310457,-0.00247212
-0.025385,-0.00490836
-0.000298982,-0.00608812
0.0431061,-0.00877788
0.0701612,-0.00557823
0.0590663,0.00145356
0.00668673,8.13e-05
-0.033522,-0.000204433
-0.0379569,-4.87e-05
-0.0150255,0.00293802
0.0212228,0.0083307
0.0909563,0.00891352
0.088954,-0.00800366
0.0374504,-0.017762
-0.0345332,-0.019315
-0.0491219,-0.0176408
-0.00872516,-0.0137557
0.0109563,-0.0191257
-0.0201787,-0.0191546
-0.0489258,0.000923179
-0.0512696,0.013783
-0.0579436,0.00891058
-0.0317518,0.00825097
0.0122939,0.012351
0.0458955,0.0118069
0.0630932,0.00525354
0.0223836,0.01081
-0.0543891,0.0195332
-0.07895,0.00975109
-0.0390974,-0.000292431
0.0516347,-0.0072383
0.0758241,-0.0062326
0.0433101,-0.000894869
0.0285181,-0.000365228
-0.00896307,0.0107708
-0.0400915,0.0230052
-0.0398782,0.0285509
-0.0142764,0.0177117
0.0207977,0.0139497
0.0251012,0.00973456
-0.0226234,-0.00725348
-0.0496052,-0.0203796
-0.0605428,-0.0212102
-0.080935,-0.0151901
-0.0557952,-0.00406876
0.0332298,-0.00695171
0.138612,-0.0100081
0.206147,-0.0101252
0.140265,-0.00476686
0.049593,0.00340629
-2.28e-05,0.00869821
-0.0179635,0.00293829
0.00512839,0.00272234
0.027134,0.00663841
-0.0223723,-0.00315548
-0.105191,-0.0139365
-0.156871,-0.00546608
-0.253823,-0.00171505
-0.332456,-0.0243597
-0.155652,-0.044085
0.160727,-0.0407988
0.35109,-0.0164445
0.255968,0.00873631
0.128808,0.0266905
0.0554188,0.0357294
0.0114735,0.0301233
-0.0340188,0.0232183
-0.0844928,0.0169797
-0.143615,0.0140094
-0.11859,0.0144745
0.00523099,0.0127505
0.109832,0.00778701
0.0891548,-0.000449957
-0.0523895,0.00563693
-0.206827,0.00861558
-0.0859395,0.00148307
0.199537,-0.0131992
0.238754,-0.0094958
0.134352,0.00525526
0.0533832,0.00795478
-0.0158425,-0.0135438
-0.127844,-0.0257797
-0.320434,-0.027518
-0.302645,-0.0286028
-0.0712013,-0.0334999
0.187477,-0.0180554
0.238135,0.0158799
0.0644321,0.0333652
-0.0976103,0.0204302
-0.081188,0.00549138
0.032428,-0.00491487
0.0179367,-0.00755017
-0.0565624,0.00964515
-0.023955,0.0317492
0.0754834,0.0257475
0.212451,0.00866809
0.236546,0.00285694
0.150234,0.00388983
0.000473855,-0.0112727
-0.101468,-0.0196138
-0.138628,-0.024744
-0.111478,-0.0240795
-0.0158181,-0.0172283
-0.0689132,0.00199318
-0.0739372,0.0173425
0.0885941,0.017426
0.15326,0.0244602
0.0166141,0.0177694
-0.164801,0.00137133
-0.0965646,-0.0116932
0.0975112,-0.00757584
0.109066,0.00285109
0.0167532,0.00157097
-0.0872199,-0.00429176
-0.205799,0.000589505
-0.263902,-0.0196199
-0.255616,-0.0399608
-0.149706,-0.0161818
0.0578647,-0.00552184
0.224062,-0.00262138
0.284739,-0.00234999
0.257396,-0.0136708
0.120527,-0.0178122
0.0552606,-0.018757
0.0425803,-0.0118488
0.0477891,0.0162597
0.0317794,0.0352424
-0.015948,0.043169
-0.0679227,0.0304246
-0.0996227,0.00386685
-0.105551,-0.00260143
-0.081042,0.00864816
-0.0518444,-0.00846593
-0.0341917,-0.0215403
-0.0435982,-0.0092202
-0.0285688,0.0154571
0.0256955,0.0134788
0.0688357,-0.0234249
0.0768472,-0.00212621
0.0679919,0.0273547
0.074658,0.0139777
0.0825925,0.020685
0.0606396,0.029237
0.0105955,0.0214713
-0.0416365,0.0116528
-0.109741,-0.00301047
-0.15606,-0.0183623
-0.104932,-0.0230533
-0.0255835,-0.0269412
0.0215584,-0.0271715
0.0248956,-0.0167931
0.00736676,-0.0200226
-0.0320727,-0.00922673
-0.0816355,0.00763317
-0.082784,0.00366655
-0.038641,-0.00788163
-0.0564096,-0.0121912
-0.0249311,-0.0116724
0.0160255,-0.00202043
0.0618269,0.00717985
