Comp Ch 3,Comp Ch 4
-0.0185577,0.00563297
-0.00937939,0.0229787
-0.0464079,0.0700513
-0.0267371,0.144873
0.0334841,0.0647209
0.112513,-0.0102214
0.105458,-0.0225713
0.0738351,0.00899799
0.00982624,0.0154515
-0.0245866,-0.0486478
0.000223817,-0.128629
-0.0608771,-0.164051
-0.146936,-0.190939
-0.0911528,-0.0279576
-0.0287047,0.119165
0.047396,0.0847387
0.0334421,0.0848538
0.0404238,0.0534775
-0.0168847,0.0909406
-0.0715163,0.0510411
-0.106165,0.00114312
-0.0971352,-0.0593322
-0.00807808,-0.0247413
0.0718854,0.0407022
0.082586,-0.0200003
0.0726641,-0.0317127
0.0497657,0.0107153
-0.00335237,-0.0498763
0.00887711,-0.091588
0.0837776,-0.0630813
0.12343,-0.0391695
0.0838094,0.107362
1.1e-05,0.160329
-0.0559661,-0.0883146
-0.0550125,0.0333566
-0.0438513,0.11332
-0.0260218,0.070033
-0.0275205,0.0508953
-0.01676,0.0300085
0.00490044,-0.012899
0.0100847,-0.0294855
-0.0147698,-0.0756337
0.0147584,-0.0769141
0.0789979,-0.093949
-0.0328923,-0.135182
0.0260136,-0.19832
0.104036,-0.191561
0.0450269,-0.0675082
-0.0672006,-0.00692513
-0.0496892,0.179169
0.0154064,0.232126
0.0343623,0.202147
-0.0267194,0.216156
-0.117211,0.0545216
-0.0810901,-0.0782964
-0.0840307,-0.0719699
-0.0498302,-0.0726398
0.0577963,-0.0207027
-0.0388,0.0486308
-0.118538,-0.0072325
-0.0548918,-0.0749758
0.0598248,0.00846054
0.119441,0.0834621
0.101052,0.11416
0.0191973,0.0443113
-0.0193605,0.0199149
-0.00167101,0.0249649
0.0596979,-0.0940682
0.0479768,-0.180977
0.0210296,-0.101137
0.0350708,-0.0930473
0.0394452,-0.021111
0.0363862,0.0941492
0.0193771,0.107252
-0.0378997,0.15328
-0.0777952,0.0260782
-0.0506964,-0.106285
-0.0345598,-0.0446544
-0.0616767,-0.0234438
-0.0453401,-0.00411436
-0.0103996,-0.0311388
-0.0152427,-0.0545246
-0.0742053,0.119569
-0.115524,0.152862
-0.00295323,0.041903
0.158937,-0.0205914
0.284065,0.0377899
0.28043,0.00961959
0.127187,-0.0791489
-0.0762789,-0.103315
-0.220228,-0.0228343
-0.219047,-0.0529716
-0.0606178,-0.0463395
0.0785307,0.0665151
0.0729239,0.15065
-0.0158699,0.0573699
-0.105207,-0.0485739
-0.142647,-0.111604
-0.0437284,-0.127768
0.21289,-0.0989824
0.306058,-0.140732
0.232148,-0.25432
0.0906027,-0.218791
-0.0279059,0.143487
-0.187562,0.319827
-0.431945,0.264287
-0.53297,0.181509
-0.383326,0.126788
-0.0202981,-0.0163607
0.201735,-0.101111
0.216327,-0.0520054
0.183729,-0.169248
0.175286,-0.20873
0.115005,-0.0992522
0.0469216,0.106313
0.0339505,0.201414
-0.00115197,0.166307
-0.0169055,0.0787567
-0.0177133,0.0552927
0.001701,0.0384271
0.0329565,-0.0295355
0.0837198,0.00226247
0.0836277,0.0805813
0.0306684,-0.0328994
-0.0326363,-0.0502751
-0.0497038,-0.0328341
-0.0772795,-0.00864885
-0.09142,0.0453987
-0.114619,-0.00593047
-0.129343,-0.102698
0.00487852,-0.0207059
0.144505,0.0418361
0.204162,-0.043334
0.111434,-0.00565257
0.0250183,0.0269689
-0.0576578,0.0383263
-0.127581,0.0436258
-0.115936,-0.0495789
-0.0323293,-0.204373
0.06216,-0.176308
0.0842612,-0.130096
0.051613,-0.0287089
0.0201019,0.12799
0.0208896,0.215351
0.0158169,0.0984467
-0.00114122,-0.0337218
-0.0837912,-0.13027
-0.12969,-0.163449
-0.147125,-0.224845
-0.0752954,-0.163601
0.002664,0.041469
0.0387972,0.127148
0.028206,-0.00445151
-0.0124257,0.0573417
0.00707143,0.118477
0.0643943,0.229084
0.106794,0.231769
0.134018,0.0932757
0.103417,0.0360737
0.0206529,-0.00991909
-0.0248557,-0.0954952
0.0146175,-0.0534241
0.16673,0.0103579
0.187519,-0.0646877
-0.000398053,0.0348555
-0.20118,0.0458823
-0.382584,0.0192353
-0.233557,0.0645663
0.0122759,0.0439067
0.0866386,-0.033864
0.102048,-0.0434421
0.121516,-0.0244051
0.102975,-0.150704
0.0112791,-0.0550274
-0.0574741,0.0898326
-0.019238,0.0418826
0.0223141,0.0348976
0.0277629,-0.0262178
-0.00960325,-0.057643
-0.0529803,-0.0354013
-0.0914038,-0.0367155
-0.0233395,-0.0643239
0.127636,0.108491
0.237151,0.1426
0.232444,0.0326432
0.0127517,-0.0290516
-0.149138,-0.00169493
-0.219354,-0.0122349
-0.266773,-0.0649728
-0.200849,-0.0428416
-0.0236707,0.0385904
0.0133323,-0.0756147
0.0035285,-0.139355
-0.0127699,0.0462914
-0.0755846,0.0232879
-0.0684304,-0.00970696
0.00638315,0.0376611
0.0261461,0.0607679
-0.0886046,-0.0612127
-0.0837536,-0.0460684
0.0963279,0.0688396
0.165665,0.0457173
0.0866225,-0.00133827
0.0453753,0.02629
0.112451,-0.0427742
0.181334,-0.0549119
0.189928,0.0687957
0.103416,0.0324208
0.0343154,0.0011169
-0.0371932,-0.011231
-0.16317,-0.0332756
-0.130277,-0.0154958
0.00881469,0.0281096
0.183694,0.139289
0.145543,0.0486682
0.0680537,-0.15725
0.0727637,-0.0905459
-0.0440374,0.034247
-0.270258,0.0649873
-0.368413,-0.0683023
-0.26771,-0.0884065
-0.136358,-0.164259
0.0162765,0.081624
0.286585,0.219409
0.460936,0.0378936
0.381206,-0.0853649
0.0532081,-0.0624017
-0.331212,-0.0657469
-0.429549,-0.0153176
-0.252315,0.0367302
-0.0990265,0.0249413
-0.0332316,0.0424715
0.0398138,0.0151068
0.0174575,-0.097926
-0.0163281,-0.0900093
0.0156012,0.00707919
0.0286413,0.152977
0.00734737,0.142675
0.054029,-0.0352315
0.162564,0.00646546
0.19191,0.138943
0.0805911,-0.117285
-0.0513723,-0.167726
-0.151308,-0.102411
-0.106612,-0.134276
0.0915559,-0.200115
0.10181,-0.020616
0.00643936,0.205644
0.0598044,0.289531
0.0927773,0.208133
0.0350543,0.140909
-0.0487025,0.178826
-0.0708463,-0.0321834
-0.0950424,-0.0759505
-0.115659,-0.051277
-0.0602632,0.0155596
0.0971724,-0.0236615
0.183565,-0.160344
0.0695527,-0.0661067
-0.0787091,0.0446055
-0.12086,0.0878067
-0.100279,-0.024078
-0.04985,-0.0566101
-0.002951,-0.0991791
0.0126573,-0.186283
0.0248946,-0.0549582
0.025501,0.00574804
0.0525158,-0.0724903
0.0526332,0.0808834
0.0619958,0.0814245
0.108224,0.0145854
0.124986,0.0503311
0.0560829,-0.00293525
-0.0681113,0.00191639
-0.117335,-0.0156183
-0.126689,0.00154932
-0.0951075,0.0817483
-0.0699939,0.0904209
-0.0492823,0.0834208
-0.0891171,0.00720833
-0.128134,0.0651011
-0.104594,-0.050071
0.13487,-0.140229
0.267913,-0.0541208
0.178104,0.0388531
0.0794335,0.0414978
0.0942761,-0.00569279
0.0849628,0.00864246
0.132519,0.00647686
0.116824,-0.0220211
-0.000832616,-0.108175
0.0180594,-0.146726
0.00674537,-0.0452016
-0.169698,0.0653523
-0.194048,0.089318
-0.0834475,0.0545545
-0.100564,0.0239856
-0.112985,-0.027617
-0.0135028,-0.00484478
0.00870453,-0.0869095
-0.0494182,-0.18145
-0.0541092,-0.0715039
-0.0869451,0.0550398
-0.086224,0.0456482
-0.0428468,-0.026552
0.0150026,-0.0798857
0.127753,0.0922718
0.176363,0.275867
0.0590337,0.182835
-0.0267551,0.136658
-0.0773737,0.0239745
-0.0579182,-0.0440415
0.00610252,-0.0965336
0.000970661,-0.0832004
0.025915,-0.0797518
0.0626029,-0.149567
0.0199767,-0.11257
-0.0575773,0.0183434
-0.0805739,-0.0277817
-0.0613877,0.00718947
0.00801344,0.134319
0.0792565,0.208047
0.0574392,0.09632
0.0661196,0.0188648
0.0905748,-0.015131
0.0153827,-0.0091074
-0.0712433,0.00897196
-0.141599,-0.0786628
-0.162571,-0.205324
0.0590772,-0.103032
0.372849,0.0759953
0.340871,0.170415
0.153985,-0.0266219
0.0765672,-0.0488488
-0.000501748,-0.0685151
-0.0878787,-0.125069
-0.151868,0.00594067
-0.24191,0.0486982
-0.281878,0.111348
-0.199864,0.13341
-0.0650044,0.12541
0.120141,0.0659866
0.186032,-0.215732
0.149932,-0.197445
-0.032285,0.0160206
-0.249831,0.0457659
-0.186316,-0.00702094
-0.0156868,0.0259348
0.16967,0.150269
0.194704,0.116746
0.114619,0.0402511
-0.0221997,0.0214475
-0.133215,-0.040432
-0.113228,-0.111179
-0.0126423,-0.118592
0.0373513,-0.167702
0.0512165,-0.237484
0.00345721,-0.153514
-0.0337981,0.0140344
0.0336091,0.117593
0.164421,0.136285
0.129453,0.122058
-0.0818109,0.0889577
-0.261797,0.0517008
-0.229819,0.00920914
0.0109689,0.0687765
0.197705,0.0708789
0.224292,0.0316033
0.0808522,0.0216147
-0.0974924,-0.0576094
-0.104644,-0.0379023
0.0599288,0.0640924
0.216589,-0.00966507
0.179849,-0.0107831
0.0106635,0.0179971
-0.156283,-0.0186195
-0.189501,-0.017834
-0.0883726,-0.0130464
-0.0443038,-0.0619161
-0.0339758,0.0484692
-0.0549215,-0.026974
0.000376064,-0.0906849
0.0719726,-0.0394788
0.0589033,-0.014783
-0.0894199,-0.0677052
-0.248123,-0.0734781
-0.156683,0.089766
0.101538,0.0189758
0.217884,-0.0616245
0.146705,0.0341762
0.0997202,-0.026857
0.0290811,0.0146062
0.00211699,0.106497
0.20476,0.00926061
0.190982,-0.00396158
0.0173863,-0.0217585
-0.13586,-0.256592
-0.247611,-0.264587
-0.150248,-0.209207
-0.0902632,-0.0582177
0.0509089,0.196485
0.0630386,0.25568
0.0811181,0.33477
0.131307,0.261699
-0.0349812,0.131278
-0.117709,-0.00697876
-0.0555239,0.0357007
-0.076854,0.0478976
-0.0611216,0.000408273
-0.0581378,-0.0121534
-0.149019,0.0881679
-0.121434,-0.00458245
0.0357341,-0.0936602
0.158597,-0.0289989
0.20406,-0.0581364
0.20097,-0.100737
0.187464,-0.081678
0.0808211,-0.0699843
-0.0445406,0.0597935
-0.228906,0.0142804
-0.309109,-0.117948
-0.165502,-0.136679
-0.0333633,-0.120752
0.00934548,-0.0857712
0.0442979,-0.0407966
0.058054,0.0201354
0.0783126,0.0898686
0.152224,0.100244
0.173886,0.0619534
0.14426,0.094993
0.0068976,0.0516969
-0.0956539,0.0229489
-0.207209,0.00171333
-0.172154,-0.0234051
-0.0603363,-0.0151117
0.0419386,-0.0314645
0.223095,0.0304397
0.451435,0.0891259
0.476075,-0.0376541
0.23322,-0.0358419
-0.140526,0.0118782
-0.476288,-0.090327
-0.559112,-0.100577
-0.336118,-0.018628
-0.143901,-0.0369301
-0.00333789,0.0349319
0.0583321,-0.131748
0.0374761,-0.0407101
-0.000953443,0.234907
-0.0618901,0.182917
-0.0368388,0.0228619
0.0536408,-0.00559751
0.0619501,-0.0262706
0.0277474,0.0313107
-0.0004001,0.000190685
0.0466784,0.0312551
0.0833961,0.00948655
0.138784,-0.01326
0.181742,-0.0757599
0.145604,-0.0979787
0.081544,-0.0938992
-0.000536531,-0.0731564
-0.0663604,-0.0804028
-0.0056056,-0.180665
0.148227,-0.112892
0.0375655,0.0462468
-0.175463,0.192574
-0.220643,0.253125
-0.103152,0.154284
-0.0305307,0.0483274
-0.0056339,-0.0653256
0.0127123,-0.0347062
-0.0271082,0.110955
-0.0218804,-0.100577
-0.00841623,-0.144163
-0.0455224,-0.0450566
-0.0588731,0.0963406
-0.0641724,0.100789
-0.0143216,0.186665
0.0596872,0.260955
0.11833,-0.0139406
0.210985,-0.16337
0.164256,-0.169455
0.0304034,-0.135049
-0.0116958,-0.0320272
-0.0397512,-0.0042362
-0.0533173,-0.00463834
-0.0497919,-0.030896
-0.0680551,-0.0486511
-0.0312903,0.0310285
0.0699998,0.0934372
0.117437,0.0956487
0.160989,0.060128
0.220097,-0.0773681
0.0795486,-0.242165
-0.169848,-0.130246
-0.321054,-0.00424956
-0.312981,0.0936706
-0.116539,0.164655
-0.068167,0.191787
-0.0769528,0.16182
0.0481077,0.162827
0.122439,-0.0496298
0.0974435,-0.0800306
-0.0131348,-0.0601586
-0.09565,-0.0618564
-0.122376,-0.100505
-0.030484,-0.0767996
0.0977699,-0.0467785
0.152093,-0.046776
0.132839,-0.0911708
0.113197,-0.102258
0.0686133,0.0182725
-0.0235235,0.0605925
-0.130931,-0.014922
-0.142184,-0.0566667
-0.0529728,-0.0600341
0.0165347,-0.0988199
0.0582199,-0.0470495
0.129167,0.021888
0.148171,0.115411
0.0587025,0.149995
-0.00976547,0.118583
-0.115149,0.0688496
-0.145679,0.0859802
-0.126473,0.0570022
-0.0565925,-0.00509045
0.204888,-0.0967552
0.316185,-0.0346343
0.092287,0.0816116
0.00467629,0.0393537
-0.130891,0.0246379
-0.192914,-0.0138658
-0.121388,-0.0424152
-0.0817078,-0.000616422
0.0623201,0.000315082
0.255365,-0.039851
0.259879,-0.0609228
-0.00376812,-0.0490152
-0.335483,-0.0891545
-0.385312,0.0760454
-0.204031,-0.00498194
-0.087673,-0.0522604
-0.00839739,-0.0712298
0.084513,-0.0404233
0.145467,0.047255
0.135897,0.00820766
0.0778047,0.0345215
0.0256252,0.100752
0.00897259,0.0310665
0.0775762,0.0825806
0.227439,-0.0197928
0.323449,-0.0782439
0.224732,-0.119916
-0.107771,0.00590643
-0.379429,0.0232531
-0.360186,-0.0152752
-0.150422,0.00706328
0.0457049,0.0693672
0.0846632,0.0447506
0.0548167,-0.0188983
0.0512886,-0.00866101
0.0459382,-0.0299506
-0.0372365,-0.0861086
-0.134446,-0.0608079
-0.159227,-0.00200262
-0.154452,-0.0995014
-0.0217306,0.0105636
0.167853,0.0418554
0.267295,0.0636541
0.358106,0.0834199
0.312309,0.129536
0.0310327,0.117382
-0.206109,0.0386659
-0.287969,-0.0199393
-0.229653,-0.0989678
-0.0762064,-0.133802
0.0466913,-0.103595
0.0980437,0.042361
0.0776869,0.0469333
0.0375415,0.0102879
-0.000568002,0.0347787
-0.0413085,0.0654487
-0.0228579,0.0799321
-0.0371242,0.0569889
-0.145698,-0.00250372
-0.243876,0.0119006
-0.151525,-0.0659155
-0.0183441,-0.0358265
0.0577627,-0.0417332
0.0749597,-0.0368242
0.0838125,-0.00697752
0.111157,-0.0373314
0.122397,-0.0293391
0.105683,0.035386
0.0691179,0.0620021
0.0285543,0.093662
-0.0147015,0.0235832
0.067526,0.00767009
0.200187,-0.0417714
0.189312,-0.104433
0.0199515,-0.167879
-0.204794,-0.075303
-0.299356,-0.0235322
-0.189231,0.0102269
-0.0403286,-0.0347448
0.0965103,-0.0380001
0.0526219,0.0129838
-0.0674426,0.180711
-0.100983,0.0271132
-0.090923,0.0863631
-0.0257463,0.165366
0.0354028,0.12597
0.174437,-0.0625633
0.27042,0.0161808
0.159641,0.0672774
0.0714542,-0.12415
0.00446374,-0.160878
-0.0501876,-0.0135168
-0.084259,-0.0285405
-0.206765,-0.0803441
-0.162113,-0.0515424
-0.0632706,-0.0105462
-0.067835,-0.0402967
-0.0247738,0.0308552
0.0544583,0.0717038
0.0278431,0.0417354
-0.129851,0.00877576
-0.151031,0.0237307
-0.0394567,0.000881788
0.0178916,0.00412892
0.106231,-0.0162714
0.166254,0.0791535
0.101571,-0.0108481
0.0246317,-0.0155196
-0.0215222,0.121891
0.000579359,0.0742739
0.0378303,-0.0236758
0.0324214,-0.0382871
0.110847,0.00947685
0.217013,-0.139238
0.283436,-0.216865
0.131088,-0.180655
-0.111375,-0.0118986
-0.259704,0.15984
-0.250254,0.176696
-0.155886,0.0839775
0.00543609,0.0138425
-0.0299126,0.0636468
-0.0854691,-0.00267584
-0.075151,-0.125965
-0.0189641,-0.0474883
0.0570183,0.032534
0.0331847,0.0708562
-0.00854202,-0.000718193
0.0394764,-0.208516
0.160333,-0.0523957
0.13549,0.00450639
0.0468511,0.107909
0.0200351,0.148965
-0.0271649,0.0443408
-0.134325,-0.161944
-0.186873,-0.184912
-0.0856045,-0.0413905
0.0591019,0.0888795
0.114989,0.173489
0.0519866,0.107852
0.0855335,0.133987
0.0677918,0.113145
-0.0429248,0.0134953
-0.206496,-0.178325
-0.221426,-0.120043
-0.0463192,-0.0517602
0.0551394,0.0252349
0.064238,0.110365
0.111554,0.0519233
0.121139,-0.0910658
0.095267,-0.0664754
0.0461734,-0.0637346
0.0150092,0.0126652
0.0527453,0.0242678
0.0318081,-0.0335738
-0.105886,0.0189555
-0.306433,0.133391
-0.343225,-0.0186518
-0.0785791,-0.14809
0.231904,-0.0558123
0.364307,0.0459581
0.331888,0.047903
0.220604,0.0645372
0.0320851,0.0515759
-0.0199818,0.00284374
-0.138099,0.0539352
-0.239045,0.0148915
-0.204785,-0.0806403
-0.0841532,-0.0391406
-0.0425639,0.00976122
-0.0146317,-0.0786131
-0.0214345,-0.0863076
-0.0176662,-0.00920375
-0.0223102,0.0451472
-0.0436978,0.023557
-0.0217893,-0.0133079
-0.012376,0.085702
-0.00730123,0.00374713
0.0455397,-0.0331823
0.0274404,-0.0465245
-0.00415847,-0.177017
-0.066624,-0.123514
-0.0960181,0.0341568
0.0150862,0.0733604
0.0875226,0.0227883
0.0895303,0.203725
0.0854583,0.16438
0.0537338,0.0659259
0.0636197,-0.00927936
0.176112,-0.038452
0.250731,0.0346271
0.141559,-0.0464227
-0.052116,-0.148808
-0.233977,-0.149286
-0.149406,0.020819
-0.0374688,0.124599
-0.0318065,0.0984918
-0.0312383,-0.0237832
-0.102387,0.038109
-0.135928,0.0763297
-0.125543,0.0203127
-0.0653334,0.0227131
0.113307,-0.0559052
0.166863,-0.0836957
0.062357,-0.11183
-0.0952361,-0.145428
-0.0524527,-0.109394
0.182349,-0.0145557
0.276344,0.0263443
0.135438,0.0358375
-0.053347,0.0608752
-0.241138,0.131045
-0.20557,0.0754363
-0.00930067,-0.0984918
0.0916695,-0.160431
0.131013,-0.0744276
0.240481,0.103928
0.199369,0.115487
-0.0356339,0.122073
-0.133214,0.158402
-0.139284,0.00492696
-0.193276,-0.112864
-0.203002,-0.18997
-0.103935,-0.13588
0.0027616,0.0483298
-0.0210069,0.173001
-0.0265692,0.119562
0.0452102,0.0569089
0.09859,0.105057
0.123366,0.105789
-0.0159603,0.144372
-0.0661493,-0.0390133
-0.0523297,-0.138369
-0.0279505,-0.0198288
0.0819799,-0.107346
0.0722883,-0.0552113
-0.0502499,-0.0901303
-0.0589926,-0.245879
0.0714256,-0.301271
0.0640408,-0.308127
0.0038223,-0.0717951
0.0773846,0.0592501
0.0398997,0.185318
0.0135924,0.374953
-0.0510819,0.272398
-0.148706,0.169577
-0.186694,0.0151243
-0.115041,-0.0497574
0.00699189,0.0627264
0.109292,-0.00159643
0.146053,0.0807318
0.104567,-0.0412574
0.131419,-0.0501863
0.165414,0.00229942
-0.00967023,-0.00392671
-0.183046,0.0487646
-0.12224,0.0451798
-0.121462,0.0173648
-0.0539967,-0.00554159
0.00951878,-0.174709
0.191459,-0.336376
0.134377,-0.315259
0.0150647,-0.124202
-0.0203938,0.0464782
-0.108202,0.0645355
-0.068741,0.274026
0.0891181,0.290962
0.103136,0.188331
0.0016263,0.00956958
-0.0870805,-0.134521
-0.14678,-0.168398
-0.0628568,-0.187063
0.0269709,-0.188371
0.0648889,-0.0403149
0.189056,0.156401
0.12602,0.228955
-0.0370315,0.16544
-0.185732,0.0930341
-0.349907,0.0776855
-0.196861,0.0295953
0.132917,0.0943843
0.253171,0.0274001
0.356289,0.0380458
0.189223,-0.177941
-0.0245666,-0.268195
0.0186397,-0.128964
0.000836186,0.11866
-0.0601328,0.276608
-0.164875,0.111293
-0.219769,-0.125188
-0.14323,-0.274189
-0.0112326,-0.293406
0.0627722,-0.202668
0.133528,-0.0447865
0.0354536,0.141535
-0.130299,0.247908
-0.186032,0.131788
-0.083036,0.10396
0.0710309,0.0796324
0.118213,-0.0248567
0.102192,-0.0148753
-0.161264,-0.205377
-0.145958,-0.13547
0.0730284,-0.129662
0.226321,0.260826
0.132961,0.419581
-0.00809011,0.0738223
-0.0511778,0.00258209
-0.105113,0.0287865
-0.0221339,-0.00424051
0.0854882,-0.048381
-0.0300966,-0.119867
-0.0809297,-0.0268525
0.0227748,0.0441167
0.145502,-0.196758
0.0987481,-0.372729
-0.0283531,-0.225397
0.0205988,-0.098904
0.168496,-0.0964532
0.196884,-0.11857
-0.00256981,0.0856541
-0.353826,0.144295
-0.411228,0.0518356
-0.152323,0.0471305
0.0141421,0.0955581
0.190702,0.173665
0.14515,0.235491
0.0126207,0.254985
0.000710949,0.279674
-0.106503,0.128767
-0.117278,0.032561
0.0634869,-0.224579
0.23456,-0.150034
0.246474,-0.101423
0.0546491,-0.0768006
-0.206672,0.0207795
-0.064226,0.0665031
0.178749,0.153024
0.290883,0.152383
0.289482,0.0646192
0.102551,0.0201714
-0.123496,-0.100077
-0.28376,-0.141479
-0.148289,-0.158328
0.0932498,-0.275318
-0.116684,-0.241073
-0.559131,-0.0585076
-0.560322,0.0458169
-0.231226,0.0714591
0.201171,0.0306232
0.410797,0.0933452
0.404876,0.180333
0.228198,0.0871254
0.00826074,0.0977491
-0.0628383,0.0626057
-0.0280058,0.0324738
-0.0848902,-0.189216
-0.113072,-0.561209
-0.0729607,-0.68111
-0.11317,-0.351467
-0.148854,-0.0658221
-0.0783823,0.481788
0.0688932,0.849873
0.249757,0.681064
0.220564,0.256943
0.0788085,-0.0709306
-0.010196,-0.0227278
0.0563168,-0.130157
0.193544,-0.224864
0.144358,0.0439035
-0.00600399,0.239337
-0.124747,0.240997
-0.154458,0.108379
-0.114739,-0.314195
-0.102621,-0.67721
-0.0472202,-0.922301
-0.00915747,-0.961926
0.0457972,-0.447629
0.0392786,0.148697
0.0358195,0.668488
0.0474723,0.921195
-0.0139191,0.774259
-0.11943,0.299657
-0.192437,-0.267751
-0.0835875,-0.22351
0.11979,-0.0656723
0.230789,0.132037
0.231656,0.407217
0.123499,0.51225
-0.0580338,0.198753
-0.144682,0.083806
-0.125249,-0.00250452
-0.064523,-0.115066
-0.0334612,-0.199502
0.013439,-0.321514
0.0223405,-0.259794
0.00349101,-0.0692565
-0.00597508,-0.0103249
-0.0589509,-0.0678912
-0.0735242,-0.123364
-0.0529688,-0.204086
-0.037173,-0.144571
-0.0843146,-0.0318638
-0.098164,0.0314464
-0.103144,0.182117
-0.0557927,0.237667
-0.0309533,0.187707
0.00155056,0.00333569
0.124235,-0.0618094
0.198233,-0.0420065
0.193004,-0.0471701
0.103214,0.00988746
0.0505005,0.0232649
0.0408642,-0.0214236
0.0181669,-0.0807609
-0.00545899,-0.282166
0.0721278,-0.289497
0.183513,-0.169325
0.101316,-0.08217
-0.178744,0.0771899
-0.402461,0.299374
-0.374971,0.266557
-0.199011,0.0164156
-0.100022,-0.036826
-0.0185086,0.051986
0.174375,0.0347541
0.337839,-0.0304525
0.409647,0.0599107
0.437007,0.129025
0.2687,0.0337214
-0.148897,0.013785
-0.53955,-0.142496
-0.471992,-0.153542
-0.261868,-0.0806764
-0.0481211,-0.0949782
0.182216,0.0023136
0.209172,-0.109002
0.0707879,-0.0953844
-0.0549378,0.179451
-0.0766672,0.227579
-0.0470918,0.114947
-0.0483518,0.0190263
-0.0491824,0.052854
0.0917523,0.0510302
0.304539,-0.0826088
0.510139,-0.0266491
0.414435,0.1103
0.00095087,0.0441759
-0.321343,0.0702608
-0.438411,-0.0526806
-0.38582,-0.0530384
-0.224028,-0.0218312
0.0124335,-0.0484244
0.238205,-0.0328818
0.224197,0.0263548
0.214113,0.0763047
0.137727,0.0781876
-0.0588999,0.100595
-0.140417,0.00902348
-0.104813,-0.0930021
-0.176442,-0.124214
-0.108301,-0.145523
0.0222097,0.0117894
0.0703574,0.0425778
0.190708,-0.00236514
0.102153,-0.0144391
-0.0165643,0.00522324
-0.0753818,-0.0652055
0.050626,-0.0794217
0.211739,-0.021776
0.199425,-0.0141546
0.133945,0.137005
-0.0421096,0.0987433
-0.107842,-0.0220967
-0.209666,-0.0332343
-0.227911,0.0137505
-0.124311,-0.019018
0.0234086,-0.0936925
0.0790655,-0.0277134
-0.0138488,0.0411902
-0.150672,-0.0051421
-0.232287,0.00458114
-0.103981,-0.0213715
0.0548267,-0.0447893
0.107311,-0.0337501
0.0546862,0.0482639
0.0650926,-0.0542831
0.0854519,-0.11934
0.0723318,-0.0732538
0.0200515,-0.0631271
0.000280647,0.074254
-0.0141459,0.156182
-0.0943656,0.0704409
-0.14102,0.0203869
-0.0700889,0.0628461
-0.0306468,0.219766
0.0309242,0.119
0.217329,-0.0190067
0.366816,-0.00807477
0.429207,-0.0573096
0.34159,-0.0392477
0.0402032,0.121644
-0.309291,0.071707
-0.502158,-0.223954
-0.361711,-0.072764
-0.134007,0.00203312
-0.0247913,-0.017032
0.12353,0.0240055
0.153096,0.0692998
0.0115419,0.0601828
-0.124716,0.00207719
-0.138277,-0.0702926
0.0129387,-0.0690312
0.0964048,-0.0550482
-0.0140516,-0.010989
-0.114766,-0.0326554
-0.0687252,-0.0935704
-0.0608929,-0.0771328
-0.013677,-0.0427197
0.0449145,0.00443867
0.0786067,-0.0530326
0.160896,-0.0936453
0.14323,-0.0314994
0.10057,-0.00143398
0.113167,0.285899
0.0459469,0.258702
-0.0574197,0.0749196
-0.0960077,0.0647709
-0.0116391,-0.0531551
0.108618,-0.0596726
-0.0117605,-0.0679441
-0.198079,0.054764
-0.220506,0.0522715
-0.120849,-0.0179334
0.0181334,-0.0141124
0.0614772,0.00218836
0.0458247,-0.0951935
0.0241404,-0.167833
-0.0251486,-0.0774356
-0.0574857,-0.0484575
-0.0720753,0.0288311
-0.0427702,0.155364
0.0890808,0.031893
0.196018,-0.0746612
0.168958,-0.046581
0.0947726,-0.0187329
0.0952177,-0.0535957
0.091505,-0.0167408
0.0791978,-0.0872867
0.0408696,-0.0580464
-0.0128531,0.128848
-0.138867,0.185772
-0.250138,0.227258
-0.141488,0.0854668
-0.0441462,0.045314
-0.060708,0.0398455
-0.0491621,-0.0208016
0.0445893,-0.092194
0.10863,-0.0872661
0.0662541,0.000287281
-0.02342,0.0764315
-0.0879315,0.0268662
-0.0239877,-0.0124106
0.0553631,-0.0420741
0.0394016,-0.166515
-0.0268615,-0.138809
-0.0576774,-0.00691128
0.00640491,0.0411113
0.0725557,0.0567059
0.0225252,0.092667
-0.0423071,0.0893935
-0.0884497,-0.0440446
-0.0570323,0.0286608
0.0612728,-0.000460971
0.148175,-0.0990866
0.0782466,-0.154607
-0.03037,-0.152468
-0.0652912,-0.0966247
-0.0513727,-0.0527271
-0.0466151,0.0224975
-0.0432586,0.165959
-0.0382803,0.212612
-0.0251493,0.130581
0.00275128,0.0258102
0.0727116,-0.055872
0.0838269,-0.073199
0.0427124,-0.102328
0.023274,-0.106611
0.00926946,-0.0358281
0.0523362,0.0466365
0.169584,0.0448705
0.0550919,0.0445983
-0.140253,0.0733589
-0.12855,0.115895
-0.101588,0.0559513
-0.10415,0.0493814
-0.123758,-0.00123733
-0.066626,-0.0777935
0.04823,-0.0705185
0.0854286,-0.00711008
0.0952122,-0.0266008
0.0781211,-0.0667628
0.0774986,0.0295217
0.0876076,0.123743
0.092697,-0.00258147
0.0625512,-0.0111037
-0.00325385,-0.103631
-0.046041,-0.123506
-0.102926,-0.0459176
-0.0723203,0.0410023
0.0487058,0.129091
0.173212,0.0815189
0.262101,0.0153604
0.207879,-0.0713359
-0.025433,-0.0896916
-0.298861,-0.0293377
-0.350991,0.0337084
-0.249926,-0.031555
-0.108437,-0.057753
-0.0417283,0.0525306
-0.063848,0.15556
0.00197001,0.103711
0.0241043,0.0220162
0.0152473,-0.00200204
0.041796,-0.010908
-0.00494331,-0.0839217
0.0207029,-0.0835019
0.0802865,0.0323393
0.0785949,0.0443149
0.018213,0.0616401
-0.0637423,-0.0879586
0.00175019,-0.141972
0.0936743,-0.094739
0.139803,0.0119479
0.072231,0.0442474
-0.0602621,-0.0250477
-0.0556884,-0.0736341
0.0357981,-0.0517876
0.118599,0.0369235
0.113922,0.105126
0.10465,0.110905
0.0930466,0.0818317
-0.00427773,0.0485362
-0.160254,0.0408412
-0.218979,0.051651
-0.214749,-0.0139199
-0.151257,-0.00901581
-0.020856,0.0407073
0.0598583,-0.00922433
-0.0412337,-0.0521569
-0.0750715,-0.0608864
0.024373,-0.0794041
0.0584531,-0.0404398
0.0490279,0.0452496
0.0454716,0.048998
0.0482408,0.00336031
0.0410332,-0.0458063
0.105369,-0.013712
0.171983,0.0588345
0.126434,0.0273187
0.0140321,0.0122747
-0.107631,-0.0226249
-0.233828,0.00218854
-0.210175,0.045339
-0.046965,-0.0630243
0.0728654,-0.0647686
0.137985,-0.0818872
0.155357,-0.0330608
0.193141,-0.0308988
0.20075,0.0217481
0.0353408,0.0166806
-0.211278,0.0113794
-0.247626,-0.0246016
-0.167022,-0.210976
-0.100232,-0.207583
-0.0704463,0.0775073
0.0106298,0.220526
0.0692826,0.144838
0.0347984,0.0863288
-0.0127302,0.0348087
0.0171093,-0.0126338
0.0553721,0.0112394
0.0792625,0.045809
0.0670923,0.0893815
0.0180411,-0.0128003
0.0183386,0.0289821
0.0379114,0.0606743
0.0913334,0.0181174
0.0507986,0.0029709
-0.083067,0.00845138
-0.152571,-0.0509663
-0.155472,-0.102732
-0.0787646,-0.08988
0.0130069,-0.014777
0.0282119,0.0252328
0.0292401,-0.0201035
0.00830691,-0.0803405
0.0326767,-0.0581569
0.030301,0.0192123
-0.00632018,0.0225462
-0.0117386,-0.0150294
0.0174914,-0.0169619
0.0425039,-0.0396179
0.0384188,-0.0866781
0.0521848,0.012515
0.124844,0.14336
0.123438,0.117047
0.0422714,0.0838043
-0.0606085,0.0330561
-0.107571,-0.0315251
-0.0854714,0.0384744
-0.126183,0.0986554
-0.132949,-0.142909
-0.0967524,-0.175706
-0.0324569,-0.0741641
0.0462177,0.0466238
0.0416259,0.065562
-0.0151141,0.0841936
-0.0379502,0.00414022
-0.0212476,-0.0214874
0.00949222,0.0750246
0.0711637,0.0678227
0.228996,-0.0628039
0.250861,-0.109894
0.10333,-0.0424637
-0.0483718,-0.0278507
-0.170969,-0.0948634
-0.128936,-0.0661547
-0.0571608,-0.0362693
-0.00327993,0.0568226
-0.00589834,0.0814834
-0.0351097,0.0625822
0.0088674,0.024394
0.120841,-0.0499404
0.13926,-0.0279282
0.12495,0.0398576
0.111159,0.0338194
-0.00700771,0.077212
-0.181236,0.0246205
-0.214436,0.0129478
-0.237935,-0.0772486
-0.162212,-0.00855555
-0.0455415,0.0146788
0.0482661,0.00862839
0.0783059,0.0304246
0.0881322,0.0123137
0.0977015,-0.00457937
0.0993715,0.0310222
0.0798601,0.0253139
0.04782,-0.00721188
-0.0116137,-0.0246243
-0.0693701,-0.00074993
-0.116578,0.00423472
-0.122279,0.0324919
-0.0604528,0.00324848
-0.0581371,-0.0567465
-0.0345168,0.0074901
0.0501006,0.00453202
0.103086,-0.0208589
0.131906,-0.0460989
0.0951083,-0.0230495
0.0540652,0.00431254
-0.00542708,0.00672161
-0.0432479,-0.050467
-0.0113536,-0.0313989
-0.00117916,-0.00753984
-0.0338492,-0.0632749
-0.0636907,-0.0552034
-0.0596686,-0.0352201
0.00556776,0.0183752
0.107021,0.0944848
0.118513,0.1177
0.054859,0.0595586
-0.0602947,0.0643409
-0.0770172,0.0946272
0.0323149,0.068236
0.0665213,-0.00861425
0.0389164,-0.098096
-0.00139658,-0.137843
0.0329333,-0.0825441
0.092232,-0.0277556
0.0467578,0.0801023
-0.101962,0.0436799
-0.189942,0.0191614
-0.157314,-0.0384029
-0.0649091,0.00299438
0.0150338,-0.0552382
0.0507151,-0.0637386
0.0170702,-0.0335027
0.0162961,0.00269731
0.0267718,0.0576057
0.0112263,0.0248856
-0.0200914,0.0104587
-0.0356153,-0.0116161
-0.0620576,0.00612468
-0.0625878,0.0761776
-0.0362364,0.0430664
-0.00856414,0.00761086
0.0383821,-0.0208026
0.070425,-0.0167083
0.0913951,0.0362515
0.0633335,-0.0278118
0.026182,0.0190541
0.0223322,0.02155
-0.00883211,-0.0156331
-0.0686282,0.00110467
-0.127429,-0.0048608
-0.102051,-0.0574718
0.00975225,-0.11426
0.129871,-0.10225
0.227719,0.0104746
0.189099,-0.0248899
0.0373858,-0.0896439
-0.0743355,0.00450423
-0.0710911,0.101894
-0.060275,0.110292
-0.0138064,0.0946275
-0.0145482,0.0522432
-0.0756935,0.0671995
-0.0689482,0.0476213
-0.0211547,-0.0134783
0.0183461,-0.0206843
0.0604948,-0.0257501
0.0293429,-0.0415247
-0.00824052,-0.00875291
-0.0559573,0.0158567
-0.0642175,-0.0186383
-0.00327018,-0.0336812
0.0293989,-0.0361031
-0.0145315,-0.0154327
0.00821596,-0.0377166
0.0194825,-0.0778659
0.0269408,0.0410563
0.0150514,0.0518248
0.0365855,0.0684398
0.0587159,-0.00649131
0.0426952,-0.0452698
-0.00904458,0.0141632
-0.073929,0.0119681
-0.0643505,0.00860838
-0.0267803,0.0403951
-0.00581774,0.0322554
0.00570842,0.0281793
0.0114166,0.0371848
-0.0218843,-0.105255
0.024438,-0.0484424
0.0542865,0.0301716
0.00503796,-0.00293319
-0.0204941,-0.00823574
-0.0334017,0.00299064
-0.0532535,-0.0181716
-0.0418976,-0.0471985
-0.0584725,-0.0236763
-0.0501221,0.00887363
0.0278665,0.0166089
0.0655054,-0.0288926
-0.00308083,0.0095318
-0.0245025,0.064512
0.00649326,0.0591741
0.0899778,-0.0225891
0.100299,-0.0443848
0.0495419,0.0228309
-0.011086,0.0745261
-0.0470697,0.0216513
-0.0497802,-0.0324459
-0.0207033,-0.110552
0.0284447,-0.156816
0.0415958,-0.0930079
0.00529401,0.00813216
-0.0115912,0.0673073
7.77e-05,0.0384495
0.0538966,0.0235768
0.0531132,0.0482407
-0.0195336,0.0476448
-0.0720246,-0.0327101
-0.0201176,-0.0650383
0.0271598,-0.00572961
0.0384283,0.11146
-0.00651234,0.171315
-0.0705194,0.103907
-0.0999032,0.0420526
-0.046141,0.0364526
0.0169362,-0.00688461
0.114406,-0.00176807
0.142744,-0.0144206
0.0776545,-0.0455215
-0.0436332,-0.0997973
-0.11569,-0.103415
-0.101723,-0.115249
-0.0719092,-0.149089
-0.0234056,-0.0757137
0.0343545,0.0159584
0.0695121,0.119515
0.0701706,0.154754
0.0284293,0.16351
-0.0382225,0.00145002
-0.067226,-0.0580657
-0.0500848,-0.0436909
-0.000922511,-0.0774204
0.00444711,0.0049898
0.025906,-0.0268338
0.0289316,-0.0534923
0.00910021,0.0143513
-0.0112951,0.0826207
-0.0233232,0.0556
-0.0235891,0.0352985
0.00333113,0.0424147
0.0483841,0.0347811
0.0604535,-0.0060449
0.0219728,-0.0597095
-0.0333466,0.00725096
-0.0676603,0.0166101
-0.0578627,0.0223437
-0.00527661,0.0530171
0.0318799,0.00357126
0.0283974,-0.0884583
0.023996,-0.0824851
0.0055072,-0.0619535
-0.0203427,-0.00390807
-0.0492123,-0.00400892
-0.0254817,-0.0208261
0.0637987,0.0253452
0.116757,0.0573837
0.100433,-0.0184901
0.0363226,-0.0342469
-0.013486,-0.0113871
-0.0534986,-0.150679
-0.0713075,-0.296504
-0.0784608,-0.187233
-0.0510697,-0.0405751
-0.0384876,0.139238
-9.65e-05,0.252418
0.0455761,0.250811
0.0620131,0.16558
0.0452358,0.0956734
0.024269,0.0182189
0.0291882,-0.0248206
-0.000862675,-0.0248064
-0.0476323,-0.00605346
-0.0544837,0.0122657
-0.043776,0.00406657
0.00163185,0.00399608
0.0330724,0.00659641
0.0247676,-0.0263356
0.0236661,-0.031218
0.0121253,-0.0259672
0.058821,-0.0557382
0.0711726,-0.0468793
0.00217508,0.00662879
-0.0887602,0.0124411
-0.128754,0.0102801
-0.0913812,-0.0335088
-0.034307,-0.0252675
-0.00730843,0.012899
-0.00653809,0.00167875
0.00651525,0.0108407
0.0290863,-0.0128092
0.0175864,-0.0268634
0.0273746,-0.00528942
0.0332898,0.0415218
0.0244662,0.0406986
0.0260967,0.017033
0.0513306,-0.000552224
0.0638516,0.0298068
0.0307799,0.0141807
-0.0186903,-0.041137
-0.0245506,-0.048968
-0.00573136,0.0260476
0.00659366,-0.00242204
-0.0134216,-0.0372451
-0.0786486,0.00971757
-0.041509,0.00992585
0.0278336,0.000718437
0.00444503,0.0039959
-0.0692993,0.0646358
-0.0705701,-0.0138185
-0.0244577,-0.0907305
0.00797203,-0.0537121
0.0659731,-0.0326484
0.101318,0.00751363
0.0928364,0.0272182
0.0318996,0.0394503
-0.0425627,0.0424558
-0.0336281,0.0220505
0.0011645,-0.0232965
0.0349131,-0.0286318
0.0425897,-0.0442232
0.0617126,-0.0531054
0.023726,-0.0389301
-0.0238228,-0.00433654
-0.0531407,0.0699392
-0.0995802,0.113648
-0.125035,0.0954936
-0.101748,0.0494468
-0.0293575,0.0119505
0.00510971,0.0100781
-0.0253842,0.0116428
-0.0481616,-0.00249532
8.1e-05,-0.0233269
0.0775975,-0.057449
0.11477,-0.0760338
0.0832376,0.0388236
0.0139916,0.0400687
0.0141874,-0.0809935
0.0315073,-0.0867176
0.0310093,-0.0915115
0.0162929,-0.0582164
0.00528817,-0.0410891
-0.0165534,0.0699081
-0.00437331,0.103587
-0.016854,0.00705838
-0.0652535,0.04726
-0.0355689,-0.0440273
0.0391453,0.0565881
0.0461192,0.0543894
-0.00160434,0.0302157
-0.0834879,0.0169082
-0.0909512,-0.00290031
-0.0286975,-0.0561004
0.0375394,-0.0596547
0.0621348,-0.0049399
0.0214731,0.025989
0.00492043,0.0335409
0.0227474,0.00981036
0.0153159,-0.00916504
0.000967255,-0.0481322
-0.0140256,-0.107073
-0.0571209,-0.125759
-0.0387103,-0.0399281
0.0326477,0.110222
0.0741645,0.125929
0.112317,0.10609
0.103794,0.0947938
-0.0107376,0.0392058
-0.101708,-0.00897949
-0.0787699,-0.0191324
-0.0126919,-0.00717275
0.0638476,0.0545446
0.0563229,0.0404438
0.0150525,-0.00924051
-0.0207234,-0.00273186
-0.0197432,-0.0251684
0.00355004,0.00952913
-0.00882884,0.028271
-0.0442029,-0.0307708
-0.0545077,-0.084432
-0.0272625,-0.121785
-0.0347884,-0.0980016
-0.0714395,-0.0793864
-0.0978481,-0.0198953
-0.0976254,0.002674
-0.0614746,-0.0412173
0.0314164,-0.0766759
0.0722122,-0.0416474
0.0538765,0.0718639
0.0483487,0.109797
0.075584,0.0939395
0.0750874,0.0579754
0.0552575,0.0211856
0.0749464,0.0414992
0.0714397,0.09749
0.0309934,0.000466726
0.00603107,-0.0865742
0.00419293,-0.0311352
-0.0285172,0.039916
-0.0615502,0.0199386
-0.0986245,0.027906
-0.118675,0.00707109
-0.0504248,-0.0599889
0.0222053,-0.0688285
0.0345363,-0.0437805
0.00984377,0.0117548
-0.00198098,0.0404831
0.0645539,0.0268448
0.110729,0.00512621
0.043164,-0.010814
-0.0501058,-0.0130841
-0.120376,-0.0117482
-0.0915016,-0.0248174
0.0155734,-0.0639267
0.0535933,-0.129644
0.0358424,-0.00750017
-0.00977948,0.00753238
-0.0425304,0.04219
0.00981312,0.107035
0.0469014,0.0758493
0.0196671,-0.00255186
-0.00128675,-0.0346593
0.016083,-0.0242698
0.00216672,-0.0264544
0.020996,0.023786
0.0504116,0.058241
0.0544996,0.0495189
0.0429147,0.017013
0.014575,0.0379861
-0.0795576,0.0551101
-0.153136,-0.0348644
-0.163486,-0.129692
-0.102379,-0.0684945
0.0225461,0.0793537
0.0824384,0.0985677
0.0757306,-0.0283372
0.0493943,-0.0539882
0.00864906,0.0351466
-0.0217431,-0.00490769
0.00728336,-0.00780875
0.0503319,0.0210795
0.0427799,-0.00173404
0.0190463,-0.0212186
0.0558711,-0.0503001
0.155691,-0.014859
0.174385,0.0315667
0.060062,5.96e-05
-0.0974598,0.069946
-0.198451,-0.0860581
-0.177683,-0.203833
-0.103848,-0.0382964
-0.0677277,0.0253398
-0.0279438,0.0618921
-0.0149994,0.091937
-0.0267995,0.114771
-0.0033404,0.0803342
0.0554949,-0.0117787
0.0707212,-0.06553
0.0392523,-0.0577861
0.0103002,0.0142737
0.0243344,0.0420365
0.0591914,0.0379563
0.0503034,-0.00386824
0.0201798,-0.0287638
-0.0107592,0.0347435
-0.010384,0.00363123
-0.014939,-0.0164429
-0.0167005,0.000791016
-0.0181677,0.0184104
-0.0457054,-0.0160566
-0.102884,-0.0240903
-0.140375,-0.0330317
-0.100393,-0.032173
0.0371538,-0.0171254
0.154351,0.0475141
0.10319,0.00440303
0.0231508,-0.0467434
-0.00801626,-0.0553149
-0.0360624,-0.00944597
-0.0216198,0.041031
0.0148078,0.0673025
0.0585353,0.0301554
0.0485349,0.0606108
0.00957809,0.0708146
0.0196128,-0.0547871
0.0341744,-0.138603
0.0451052,-0.215447
0.0596168,-0.216973
0.0723683,-0.0413022
0.0587409,0.172725
-0.0227695,0.200378
-0.0938368,0.113498
-0.107188,0.0379702
-0.100693,-0.0118082
-0.0695517,-0.0486036
-0.0593483,0.0517647
-0.0788517,0.13225
-0.0314157,0.026414
0.0425475,0.00550747
0.0779821,-0.0451005
0.0787962,-0.00659454
0.0450928,0.049437
0.00630433,0.0460536
-0.0181205,-0.018929
-0.0172,-0.132032
-0.0101655,-0.132599
0.00474813,-0.0342256
0.0124668,-0.0115283
0.0131944,0.0590806
0.017845,0.087283
0.00250122,0.0415396
-0.0261501,-0.0239316
-0.0088399,-0.0143581
0.0261272,-0.0630613
0.0553746,-0.0368044
0.0451381,0.00691122
0.0330177,0.0478404
-0.01479,0.00391798
-0.0399669,-0.0436162
-0.0261529,0.0306228
-0.00257876,0.0586337
0.0135878,0.0405713
-0.0228001,0.0168202
-0.0683176,-0.00998679
-0.0627322,0.0142142
-0.0834191,0.00220386
-0.0697002,-0.102974
0.0221401,-0.221467
0.0821151,-0.239336
0.090979,-0.169322
0.0469181,0.0628686
0.0150883,0.20779
0.0322506,0.238277
0.0544274,0.17021
0.0602507,0.0369573
0.026066,-0.101708
-0.0403746,-0.0888679
-0.0736774,-0.0842212
-0.0957141,-0.0211946
-0.0651545,0.0662954
0.0138383,0.0979033
0.0475011,0.0600067
0.052496,0.0501085
0.0161117,0.0972977
-0.0378017,0.0803893
-0.0550919,0.020937
-0.0356077,-0.0804573
-0.00162285,-0.0253691
0.0274758,0.0079945
-0.0121348,-0.0557325
-0.0678498,-0.105197
-0.0547081,-0.0956453
0.0265366,-0.0826643
0.0919458,-0.0316395
0.105773,0.0151388
0.143906,0.0616704
0.131957,0.0729688
0.00213995,0.023733
-0.127971,-0.0293111
-0.180464,0.00625873
-0.0992261,0.0664893
-0.000357484,0.0611748
0.00961099,0.082837
-0.0122583,0.00390864
-0.000543243,-0.0448313
0.0227896,0.000609119
0.01133,0.0204782
-0.00980228,-0.00901018
0.0119829,-0.0325284
0.0457761,-0.0147676
0.0208626,-0.0612168
0.00971311,-0.0709353
0.0270389,-0.046969
0.047505,0.0249543
0.0266595,0.00427194
0.00934667,0.0104264
0.0144133,0.0426905
-0.0275497,0.0531182
-0.0586092,0.0374904
-0.0624623,0.0142379
-0.0605879,0.00900211
-0.0249712,-0.0351127
0.0145015,-0.0614316
0.0462981,-0.0132636
0.0499874,0.00365186
0.020429,0.0208616
-0.000167665,0.00945561
0.00476175,-0.14081
0.0164897,-0.202648
-0.00782972,-0.196855
-0.0577074,-0.146932
-0.073266,-0.00568219
-0.0551615,0.163851
-0.0410828,0.265473
-0.0178367,0.218438
0.0166904,0.146979
0.0345239,0.0517289
0.0812365,-0.0330729
0.0870219,-0.0846135
0.0994298,-0.0690162
0.0774802,0.00962516
0.00832575,0.148004
-0.0397886,0.0773807
-0.0596061,0.0212127
-0.0967278,-0.00717798
-0.056535,0.0215025
-0.00394006,-0.0440118
-0.00501833,-0.0513321
-0.0273354,-0.0105441
-0.0463834,-0.020492
-0.0145217,-0.042903
0.00935763,-0.0326953
-0.00269697,-0.0302658
-0.01419,-0.0556577
0.00808255,-0.0536121
0.0402663,-0.0429955
0.0638554,-0.0282218
0.0847792,0.0127246
0.118453,0.0743682
0.0930424,0.0158217
0.0101417,-0.00677232
-0.0726585,-0.0330129
-0.13253,-0.0692065
-0.126199,-0.0216864
-0.0617046,-0.0444461
-0.00143155,0.0199145
0.0477623,0.0739293
0.0600858,0.0534566
0.0588599,0.0186366
0.0554753,0.0913606
0.0523202,0.0176471
0.0341639,-0.0178637
-0.017307,-0.0316671
-0.0763201,-0.0406479
-0.108325,-0.0447376
-0.062913,0.0243445
0.0217049,0.0594656
0.0689223,0.0641244
0.0327956,0.0506
-0.0280515,0.0158029
-0.0556044,0.00258988
-0.0623465,-0.00501742
-0.0362198,-0.0289384
-0.0084198,-0.0303794
0.00693095,-0.0516999
0.029878,-0.0646369
0.0627411,-0.0541289
0.0791577,-0.0618068
0.0545924,-0.0601124
-0.00672211,-0.0311395
-0.084623,0.0328841
-0.0920992,0.073436
-0.0661179,0.107307
-0.0151503,0.0722294
0.0840055,0.0837525
0.179904,0.0578304
0.185849,0.0467176
0.0682715,-0.0203205
-0.0771445,-0.0776048
-0.135498,-0.0860831
-0.0989692,-0.0252375
-0.0506168,-0.00437301
-0.0304367,0.00687041
0.00349922,0.00957141
0.0364242,-0.081804
0.0241769,-0.112638
0.0091582,-0.00309448
-0.00209302,0.0425815
0.0155383,0.0501241
0.0351799,-0.0150574
0.0452816,0.0229502
0.030345,0.0456832
-0.02367,0.0139395
-0.0738392,0.00976779
-0.0778044,-0.00681594
-0.0924638,0.0358546
-0.079271,0.0520712
-0.0552162,0.0339287
0.0207001,-0.0179443
0.113018,-0.0472656
0.132602,-0.0294817
0.042695,-0.0336488
-0.103528,-0.0915308
-0.136232,-0.106962
-0.0355847,-0.0363725
0.0239596,0.0800729
0.05872,0.0731257
0.0477604,0.00656166
-0.00921787,-0.0629587
-0.0113688,-0.0454613
-0.0324722,0.0406258
-0.00721138,0.0566519
0.124594,0.0773913
0.200192,0.0934594
0.113894,0.0578568
-0.0294022,0.026932
-0.0927207,-0.0212067
-0.0293644,-0.0119826
0.0280652,0.01962
-0.00328148,0.0182184
-0.0104671,0.0295801
-0.00521207,-0.0418381
-0.0370375,-0.101455
-0.0048118,-0.106024
-0.00433452,-0.0348322
-0.00933092,-0.0324936
-0.018129,-0.0266404
-0.058848,0.0884462
-0.0830248,0.0469352
-0.105472,0.0206902
-0.0859176,0.0202152
-0.0294835,0.0160447
0.0180152,-0.028516
0.0716652,-0.0177207
0.0974832,0.0355269
0.0811394,0.0251835
0.0379553,0.00741262
0.0345026,0.042604
0.0323901,0.0944605
-0.00546612,-0.0294435
-0.0344281,-0.132255
-0.0645074,-0.143626
-0.0800155,-0.106074
-0.0678257,-0.0332347
-0.0190517,0.0669806
0.0735957,0.0635028
0.115862,0.0417684
0.0491474,-0.00724434
0.00390223,-0.0656001
0.0155701,0.00838066
0.00369129,0.0427916
-0.0155866,0.0351541
-0.00908425,0.0523759
-0.00186008,0.0441754
-0.000392232,0.0154229
-0.0116356,-6.2e-05
0.000157829,0.00502939
0.0345581,0.0516165
0.0616052,0.0526955
0.0770774,-0.0213083
0.0206871,-0.043312
-0.0360632,-0.032764
-0.0618972,-0.0947992
-0.0638848,-0.0514146
-0.0255124,0.0117004
0.0104766,0.00782602
0.0388441,-0.0399993
0.0495027,-0.0485036
0.0267144,-0.00629142
0.0131653,0.0103792
-0.0317311,0.0527872
-0.0885027,0.0783294
-0.0875626,0.0647851
-0.0652131,-0.0191694
-0.0709895,-0.0958456
-0.0344017,-0.0449436
0.0235127,-0.000490761
0.0482613,0.022988
0.038204,0.0723806
0.0320874,0.0809582
0.0297348,0.044676
0.0229337,-0.00506062
0.0165353,-0.0604894
0.00547628,-0.0574104
0.000853855,-0.0729657
-0.0336199,-0.0210068
-0.0526785,0.13131
-0.0481375,0.11501
-0.0221796,-0.00130025
0.00152587,-0.0130794
-0.0125927,-0.00346046
-0.0610026,1.34e-05
-0.0621398,-0.0180014
0.0126596,-0.0657344
0.107887,-0.0317343
0.108533,-0.0305452
0.0866809,-0.047066
0.0694887,-0.0547523
0.034475,-0.0655299
-0.0021979,0.0453207
0.0439069,0.0925635
0.0992293,0.0691761
0.0662402,0.0130221
-0.0231408,0.0102088
-0.106118,-0.0152528
-0.143262,-0.0312859
-0.10677,-0.0183922
-0.0517672,-0.000431797
-0.0493678,0.0347265
-0.0433746,0.0568207
0.0317844,0.0746679
0.0964576,-0.0380149
0.0818761,-0.166146
0.0264801,-0.15599
-0.0156697,-0.120666
-0.0454877,-0.0305434
-0.037773,0.0999622
-0.00815461,0.114139
0.0306174,0.109519
0.0211301,0.0806243
-0.0197589,0.0207112
-0.0382664,-0.0183944
-0.00343074,-0.00250619
0.0362015,-0.00953289
0.0539128,0.0297419
0.0326344,0.111284
-0.0200703,0.0640057
-0.031433,-0.00161656
-0.00119174,-0.00397861
0.0139169,-0.0106904
0.0141913,-0.0306716
-0.0176719,-0.0451486
-0.0688544,-0.0805383
-0.0951619,-0.101327
-0.0808889,-0.0805706
-0.0477949,-0.0381997
-0.00538564,0.00223917
0.0320576,-0.010186
0.078593,-0.0251284
0.101286,0.00591834
0.099396,-0.00876473
0.0554034,-0.0191973
0.00421976,0.00541392
0.00752741,-0.0154735
0.055383,0.00147654
0.0382732,0.168738
-0.0385832,0.19836
-0.105241,0.0435107
-0.0537754,-0.0127905
0.00670279,-0.0335623
0.0103515,-0.0165137
-0.0024574,0.0172294
-0.000263131,0.00344429
0.0179,-0.00558509
0.0749936,-0.0341117
0.0442892,-0.0421746
-0.0532464,-0.0105438
-0.076083,-0.0206616
-0.0300679,0.0161949
-0.000834248,0.0110024
-0.00412002,-0.0189469
-0.0540021,-0.0249051
-0.0551019,-0.0620349
-0.0135924,-0.0411135
0.00399918,0.018025
-0.00598664,0.0358572
-0.0116626,0.0425761
0.00664646,0.00959125
0.0137491,-0.0247744
0.00652296,-0.0178217
-0.0143456,-0.0263771
0.0203094,0.00758757
0.033521,0.0217693
0.0347768,0.000981897
0.0471856,0.035895
0.07306,0.0762598
0.115218,-0.000470656
0.140741,-0.0796646
0.0560518,-0.0349109
0.000310722,-0.0447174
-0.0455669,-0.037916
-0.153462,0.0230277
-0.178103,0.0562073
-0.136174,0.0886235
-0.0605152,-0.0102361
-0.0107883,-0.105731
0.0164478,-0.0660402
0.0373368,-0.0118937
0.0347099,0.00507699
-0.0273373,0.0351597
-0.054963,0.0445029
-0.0157261,0.00865448
0.028615,-0.0365622
0.0389065,-0.0206237
0.0251651,0.0325031
0.0157926,0.0566461
0.0147118,0.0687668
0.0135296,0.0557858
0.015987,-0.0172443
0.0233044,-0.0784351
0.0228137,-0.0448278
0.0182469,0.0366039
0.0384493,0.0486584
0.118815,0.0330785
0.127147,-0.00199263
0.00886626,-0.0173758
-0.107019,-0.0317874
-0.105067,-0.0634673
-0.0459348,-0.0392545
-0.0204629,-0.0416657
-0.0285746,-0.0245016
-0.0106197,0.0194983
0.0109438,0.0434258
0.00776121,-0.0626402
-0.0202928,-0.0588484
-0.0656339,-0.00800544
-0.0615591,0.0042242
0.00347507,0.0605257
0.0431253,0.0877795
0.0646362,0.104906
0.0762587,0.0563851
0.0921424,-0.0292483
0.0752841,-0.0298237
0.0111985,0.0005101
-0.0567543,0.0383983
-0.0691997,0.0360646
-0.0242907,0.0032239
-0.00258475,0.00728348
-0.012592,-0.036928
-0.0165358,-0.0510384
-0.0254412,-0.007086
-0.0171505,-0.0116957
-0.0259534,-0.0240709
-0.0405774,-0.0226441
-0.0301438,-0.0073462
-0.00730538,-0.00931158
-0.0133605,-0.0125398
-0.0138887,0.013949
0.00570471,-0.0318916
0.042783,-0.0379341
0.0745574,-0.0296338
0.0426751,-0.0280665
-0.020788,-0.0304637
-0.0750534,0.0336841
-0.0674528,0.123337
-0.0126961,0.0715886
0.0295906,0.0445959
0.0454536,-0.00244103
0.0506654,-0.01388
0.048223,-0.046966
0.00894017,-0.0138307
-0.0464069,-0.0132971
-0.046782,-0.0156955
-0.00119673,-0.00955165
0.0259427,-0.0253238
0.033099,-0.0323518
0.0450741,-0.00718235
0.0159975,0.036668
0.0284419,0.0343656
0.0744795,-0.0138707
0.0948941,-0.0290061
0.0667658,0.00943384
-0.0356949,0.061014
-0.155712,0.048176
-0.193527,0.0254363
-0.108854,-0.0157222
-0.0366115,-0.0706314
0.00277034,-0.102934
0.0178734,-0.0294785
0.0151463,0.018749
0.0197883,0.0232482
0.0234971,0.113752
0.0032351,0.0866947
-0.0281524,0.000784705
-0.0257508,0.0182935
0.0018794,0.0101339
0.0182361,-0.00584434
0.0341055,-0.0233391
0.0563974,-0.0454549
0.0866489,-0.0513154
0.0859485,0.00215161
0.0293943,0.0137705
-0.0154227,-0.00866817
-0.010506,0.00188394
0.0285064,-0.000997477
0.0772573,0.0468246
0.033888,0.0280385
-0.0426481,-0.0798135
-0.0430299,-0.12208
-0.00629563,-0.0911428
-0.0105584,-0.0908846
-0.0389523,-0.0623437
-0.0683438,0.0273765
-0.0847719,0.0705392
-0.045791,0.0614463
-0.00347605,0.0764341
0.0108055,0.080716
0.0230699,0.0503823
0.0454868,0.0435567
0.0391476,0.048562
0.0197732,0.0168888
-0.0248706,0.0230819
-0.0352807,-0.0233945
-0.0301255,-0.0352735
-0.0303881,-0.0289534
-0.0198971,0.0318519
-0.03396,0.0248197
-0.0232134,-0.00127457
-0.0120014,-0.00893576
0.00131103,-0.0236535
0.014249,-0.0303879
0.0114045,-0.0565951
0.0324719,-0.0780456
0.103012,-0.000368777
0.134491,0.021721
0.0787295,0.0317416
-0.0444515,0.0236863
-0.12798,-0.0179869
-0.0916253,0.0191602
-0.0281073,0.0351349
0.0215269,0.0333327
0.0474264,-0.00416316
0.0292048,-0.0253215
-0.00530421,-0.0254236
-0.0563665,-0.00329261
-0.0955053,0.00180941
-0.0798234,0.0073618
-0.0191439,0.0187359
0.0479078,0.00594602
0.0721974,-0.0252053
0.0687639,-0.0618083
0.0265831,-0.0920241
0.0079697,-0.133115
0.0699125,0.00192678
0.176687,-0.00821981
0.201394,-0.0351724
0.0609717,0.122093
-0.124642,0.173711
-0.228652,0.0365795
-0.153586,0.0280204
-0.042432,0.0231007
-0.00739021,0.00635422
0.00593635,0.00527724
0.0136711,0.0375686
0.0057815,-0.0270477
-0.0113364,-0.0513128
-0.0142485,0.0156675
-0.01098,0.0119037
-0.00148628,0.0385342
-0.00920196,-0.00385774
-0.0434273,-0.0561921
-0.0581498,-0.0044802
-0.0177391,0.00824042
0.0351198,-0.0171829
0.0488987,-0.0751293
0.0433268,-0.0915519
0.0342049,0.00590479
0.0281748,0.0865473
0.0253518,0.031525
0.0407256,-0.0163162
0.011638,-0.0152693
-0.0141895,-0.0355703
-0.0176773,0.0234429
-0.000254517,-0.00353834
0.0269171,-0.0381918
0.053272,0.0162243
0.0608914,0.0529102
0.00569528,0.0172136
-0.0179547,0.0139738
-0.0082536,0.000177986
-0.0377487,0.0251669
-0.0399501,-0.0255578
-0.0481018,-0.0571827
-0.0579956,0.0562257
-0.0566976,0.0508038
0.00957452,0.04315
0.0382935,0.0230076
-0.000240892,-0.00828592
0.0271447,-0.027644
0.0527066,-0.0153063
0.022034,-0.0166047
-0.0482273,-0.0352513
-0.0785866,-0.0373975
-0.018648,0.0321573
0.00658364,0.00405403
0.020409,-0.0425134
0.0250369,-0.00717531
-0.0115683,-0.0486486
-0.0491595,-0.0918398
-0.0306104,-0.0659894
-0.00674329,-0.0142221
0.0176618,0.051381
0.0413856,0.131952
0.0444244,0.120889
0.0570213,-0.0190961
0.0466942,-0.0115487
0.0202137,-0.0193571
0.00823219,0.00812375
0.00567932,0.093718
-0.0263718,0.0573678
-0.0896007,-0.0348695
-0.137883,-0.0298752
-0.119283,-0.0940257
-0.0327075,-0.141194
0.0478537,-0.0942353
0.0797687,0.0804644
0.0805163,0.140934
0.0649658,0.0805477
0.058022,0.0113458
0.078552,0.013587
0.0451333,-0.0144154
-0.0197396,-0.0164534
-0.0897416,0.0197642
-0.10391,-0.054149
0.0227203,-0.0702025
0.110462,0.0316105
0.0380128,-0.025051
-0.0692677,-0.0132177
-0.0558928,0.0552303
-0.0244492,0.0564503
0.00992594,0.0238714
0.00815853,-0.0227221
-0.00204086,-0.0134253
-0.00223356,-0.00658581
0.00641143,-0.0218855
0.0533548,-0.0334626
0.0886991,-0.0392786
0.0494936,-0.0304844
-0.0345744,-0.00916529
-0.089695,0.0187143
-0.0879372,-0.0535131
-0.0722379,-0.0180317
-0.0275489,0.0460969
0.00875694,0.0708297
0.023427,0.0404768
0.0721732,-0.0151491
0.0928072,-0.0474215
0.0390698,-0.0134735
-0.0191117,0.0507141
-0.0783447,0.0468644
-0.0751061,0.0533839
-0.0325126,-0.00242127
-0.00220646,-0.0145337
0.00284929,-0.0577372
0.00383374,-0.058642
0.0298358,0.0349335
0.0263294,0.0327271
0.0186119,-0.0231666
0.0426103,-0.0435344
0.057808,0.0402786
0.0553311,0.0258901
0.00712619,-0.065688
-0.0595769,-0.0882071
-0.0959859,-0.0234337
-0.0659077,0.024885
-0.00817108,0.0407486
0.0232066,0.0705561
0.0261817,0.052719
0.01115,0.00457619
-0.0331087,-0.0635746
-0.0330582,-0.0873594
0.0102341,-0.0101066
0.0406104,0.0864833
0.0701209,0.0675073
0.0766031,0.0288091
0.0206139,0.0374212
-0.052179,0.0302997
-0.0560665,-0.00414228
-0.00351162,-0.0224502
0.0771122,-0.0250834
0.0957197,0.0169039
0.0614084,0.00631561
0.0103906,-0.047597
-0.0471988,-0.0376372
-0.119721,-0.00275519
-0.0878277,-0.00323024
-0.00977091,0.00853467
0.0422409,0.01005
0.0159139,-0.0267051
-0.0757454,-0.0597685
-0.139443,-0.014203
-0.138985,-0.0199757
-0.0781773,-0.0187718
0.00709705,-0.0506097
0.0722321,-0.0139164
0.0995156,0.0437294
0.086785,0.0952736
0.0642514,0.0884271
0.0396251,0.0302844
0.0272458,0.0138447
0.0158526,-0.0230579
0.000767989,-0.016191
0.0177724,0.0124255
0.0312143,-0.042255
0.0333683,-0.0535427
0.0383903,-0.0736235
0.0609038,-0.0787261
0.0560197,-0.0042668
0.0400354,0.0600936
-0.0615541,0.123204
-0.173314,0.0529478
-0.176456,0.00152903
-0.11087,-0.00809796
-0.0475615,-0.0458809
0.000927022,0.0157201
0.0369686,0.0319948
0.0385093,-0.0209511
0.0304677,0.0146684
0.0462369,0.0300001
0.0651688,-0.0636464
0.0842226,-0.0368859
0.0335372,-0.028942
-0.0408127,-0.0333387
-0.0440054,-0.0166746
-0.041688,-0.0124276
-0.0238829,0.0121844
0.0115641,0.0735917
0.0077739,0.00971115
0.0195349,-0.0391358
0.00646791,0.0617831
-0.0229709,0.0662105
0.00617975,-0.0186298
0.045514,0.0201802
0.0457148,-0.0203298
0.014352,-0.0311325
-0.0329277,-0.00106369
-0.00580493,0.00533558
0.00655713,0.0556884
-0.0409989,-0.00319378
-0.0145346,-0.0414568
0.010942,0.0186613
-0.0102561,0.0170419
0.00611448,-0.0154589
0.0487556,0.0247335
0.102382,-0.0171822
0.128571,-0.0585946
0.0286782,-0.0414752
-0.0694621,-0.0487893
-0.0889079,-0.000578653
-0.0824849,0.0260741
-0.0466472,0.035328
-0.0272401,0.0325028
-0.0279616,0.0260673
-0.0281523,-0.0210069
-0.0366839,-0.0319538
-0.0225702,0.00870074
-0.0110237,0.0474779
-0.0353296,0.0172948
-0.0361116,-0.021205
-0.0189954,-0.0338299
0.021478,-0.0214299
0.0682397,-0.00520203
0.0770088,-0.0110008
0.0913641,-0.00100556
0.0976728,0.0270093
0.0486074,-0.00295928
-0.0103132,-0.00919622
-0.0291194,0.00770893
-0.00592597,0.00624685
0.00235477,0.00500182
-0.029679,0.00794304
0.00468678,-0.0276387
0.0413607,-0.0317252
0.0157474,-0.021471
-0.0331949,-0.0303337
-0.0677665,-0.0111718
-0.0778162,0.0393152
-0.0669898,0.0645329
-0.0384323,0.0204435
0.0248765,-0.0283783
0.0660781,0.0356372
0.05592,0.0148106
-0.00160235,-0.0698469
-0.0390968,0.00768863
-0.0123966,0.0400665
0.0142136,-0.0126204
0.0467314,-0.0339577
0.0973266,0.0291817
0.112846,0.041839
0.051938,0.00373694
-0.0842725,0.0104353
-0.153348,0.00413359
-0.0919437,-1.06e-05
-0.034031,-0.00994145
0.00504829,-0.0118799
0.0276709,-0.000958907
0.0209388,-0.00549005
-0.00916701,-0.0342568
-0.0244786,-0.0165259
-0.0404374,0.0243554
-0.0529605,0.0259536
-0.0422313,0.000176821
-0.00492276,-0.00666977
0.033909,-0.00606484
0.0344161,-0.0164159
0.00496142,-0.0024588
-0.0327764,0.00121519
-0.0438622,0.0126802
0.00677599,0.00991385
0.0821179,0.00787565
0.0675128,0.0187238
0.0604421,0.00970814
0.0617187,-0.0191228
0.0693001,-0.0256763
0.0843139,-0.0190247
0.0357429,-0.0140744
-0.00834484,-0.00870819
-0.0482737,0.0274558
-0.0606174,0.034578
-0.0109167,-0.0114873
0.0133072,0.0126392
-0.00178692,0.0201395
-0.028105,-0.0155058
-0.0533444,-0.0264845
-0.0812152,-0.0125566
-0.0929721,0.0216044
-0.0554934,0.0564059
-0.0035338,-0.0466505
0.00216104,-0.0155062
0.00349512,0.0336407
0.00378839,0.00431182
0.000141323,0.00387353
0.0305907,-0.0250206
0.0539181,-0.00506565
0.0377761,0.00770996
0.0154918,-0.00923657
-0.00611481,-0.0287284
0.00363553,-0.0316217
0.0566509,-0.0189808
0.0917129,0.0272968
0.0901661,-0.00633124
0.0146573,-0.051172
-0.0641841,-0.0285701
-0.0540935,0.0180437
-0.0737418,0.0270628
-0.0974069,-0.0058029
-0.0762106,0.00537635
-0.0249373,0.0022812
0.0146746,0.0541322
0.0350747,0.0371306
0.0490512,0.00442896
0.0495872,0.0329279
0.0736675,0.0358728
0.0629667,0.00526069
-0.0130524,-0.00652467
-0.0319926,-0.0114073
0.010362,-0.0123246
-0.00184915,0.00355124
-0.0386696,-0.00924372
-0.071071,-0.0130845
-0.037984,-0.029134
0.0140135,-0.0442264
0.0307458,-0.000260894
0.0159371,-0.0579645
-0.0213986,-0.0257221
-0.0438126,0.00994567
-0.0428915,0.0227818
-0.0462555,0.0376729
-0.0525504,0.0313515
-0.0151102,0.0438607
0.0554155,-0.0338496
0.0574839,-0.0150203
0.0396218,0.113102
0.0687848,0.0483348
0.0164076,-0.0732748
-0.0333772,-0.0412178
0.0188827,0.00015314
0.0429112,-0.00987118
0.0305779,0.0073101
0.000579944,0.0159209
-0.0516147,-0.0191357
-0.0521089,-0.0514719
-0.0226923,-0.00801399
0.00460687,0.0299415
0.0186617,0.000490142
0.0270116,-0.0302812
0.0182152,-0.000625611
0.000527499,0.0109012
-0.0153424,-0.00147988
-0.00724439,0.0121709
0.00920018,0.0119876
-0.00125187,0.00252343
-0.0194159,-0.027168
-0.00832568,-0.00859562
0.0294747,-0.00799021
0.0458603,-0.0164785
0.00475149,-0.00133499
-0.0218711,0.0379594
0.0203054,0.0391304
0.0293248,-0.0082938
0.00639416,-0.0204101
-0.023628,0.0419711
-0.0575784,0.0024025
-0.0443135,-0.0339697
-0.00634871,-0.00839299
0.0208488,0.0230358
0.0863887,0.0146917
0.110968,-0.019371
0.0269054,-0.0192856
-0.0808355,-0.0147977
-0.109248,-0.035316
-0.0522518,0.0242421
-0.0061798,0.0842428
-0.000986075,0.021903
-0.00768584,-0.0713937
0.0262679,-0.0521893
0.0349548,-0.0122277
0.0320296,0.0111102
0.0218798,0.0115906
-0.0226807,0.0233255
-0.0204585,0.062224
-0.0377258,0.0300906
-0.0560009,-0.0434862
-0.0355667,-0.0389839
-0.0152475,-0.00910859
0.0203789,0.070086
0.0206652,0.0317114
0.00656851,-0.0128835
0.00948496,-0.00911639
0.0222841,-0.022786
0.0378655,-0.0244772
0.0390501,-0.0244122
0.0183239,-0.0517249
0.00371205,-0.0444144
0.0020592,0.0457248
-0.0219917,0.0373384
-0.0328974,0.0112618
-0.0494977,0.0123139
-0.051013,0.0131391
-0.0186306,-0.0202077
0.02381,-0.0299888
0.0468374,0.009812
0.0454391,0.0124988
0.0226592,0.0232213
-0.0212613,0.00612373
-0.0529319,-0.0121651
-0.0371922,-0.0182813
-0.00670478,-0.030548
0.0116315,-0.00177391
0.0287001,0.00843348
0.0441431,-0.00782706
0.0558507,0.0103226
0.0645991,0.0311972
0.0770454,-0.0163534
0.0104148,-0.0539784
-0.109,-0.0203241
-0.122037,0.0933175
-0.0772327,0.0590824
-0.0355772,0.0110647
0.0469066,-0.000370871
0.146956,0.0307011
0.174943,0.00979761
0.118302,-0.0856257
0.0217144,-0.0413655
-0.0628555,-0.000753013
-0.113425,0.016776
-0.112267,0.00679597
-0.124023,-0.0113614
-0.0906568,-0.0269377
-0.0212278,0.00632577
0.0244963,0.0101625
0.0355327,0.0459608
0.0271579,0.0564626
0.00677247,0.0113224
-0.0179824,-0.032259
-0.0314845,-0.00673678
-0.00820149,1.82e-05
0.00610249,-0.0102211
0.00537064,-0.02493
0.00154922,-0.0228509
0.0136872,0.00884087
0.0432559,0.0064413
0.0448669,0.00511416
0.0456439,-0.0524229
0.0145989,-0.0115009
-0.0110415,0.00878039
-0.00355561,-0.0152062
-0.0124449,0.00338713
-0.0235322,-5.64e-05
-0.0205596,0.00538371
0.00166043,-0.0168151
0.0333853,0.013627
0.0430073,0.0448195
0.0367643,0.0104543
0.0264133,-0.0259659
0.00721493,-0.0177202
-0.0372354,-0.00310543
-0.0693432,0.0133612
-0.0892602,-0.0365015
-0.0793564,0.0133866
-0.0517813,0.0807394
-0.0151825,0.0318344
0.00473664,-0.0274695
0.0413532,-0.00604142
0.073057,0.0044442
0.0752042,-0.0339223
0.0543869,-0.00100562
0.0327666,0.0420371
0.0238815,-0.00377023
0.0123756,0.0144358
-0.0203128,-0.00103823
-0.0214205,0.00334016
-0.00396217,0.0310257
0.00928457,-0.0265716
0.00887798,-0.0346798
0.000582712,-0.0120158
0.00124634,-0.00902602
-0.0216087,-0.00591815
-0.0390877,0.00117669
-0.00925488,-0.00404732
0.0177378,-0.0134426
0.0267244,-0.031061
0.0297935,-0.02009
-0.00270396,0.0183513
-0.0296632,0.0235806
-0.0642066,0.0160203
-0.0859722,-0.00204093
-0.0619114,0.0287259
-0.00618562,0.0160251
0.0180785,-0.0441833
0.0256695,-0.0720243
0.0358806,-0.00319773
0.0362852,0.00136254
0.0347325,0.024311
0.0109109,0.0357997
0.0101133,0.0159136
0.0368552,0.0151383
0.0218316,-0.0156155
0.0107306,-0.0160767
0.00693798,0.0458312
-0.00461241,0.0158228
-0.0192304,-0.0367635
-0.0303745,-0.00332298
-0.00647609,0.0164913
0.016222,-0.00064529
0.0204411,0.00211646
0.0112884,-0.0102309
0.024199,-0.00568209
0.0458612,0.0124747
0.0250196,0.0157969
-0.0196915,-0.0200664
-0.0668779,0.0107798
-0.0865176,0.00943113
-0.0449719,-0.0165901
-0.00872022,-0.00905873
0.00902677,-0.00512938
0.00959987,0.00148163
-0.0121897,-0.00192681
-0.0343012,0.014553
-0.0381876,0.020461
-0.0152509,0.018704
0.0233063,0.000710249
0.048236,-0.0134451
0.0494094,-0.00128336
0.0412787,-0.000780893
0.0450657,-0.00959273
0.017947,-0.0169678
-0.00772956,-0.0108019
-0.0119037,-0.012294
-0.0198901,-0.0159708
-0.0151679,0.00742434
-0.00388233,0.00891831
-0.00960326,-0.00729207
-0.0186973,0.00200855
-0.0208595,5.53e-05
-0.0111321,0.0154419
-0.00241693,-0.0035177
-0.00232774,-0.0252489
-0.0032899,0.000296253
-0.00483428,-0.0115231
-0.00238921,-0.000623491
-0.0218535,0.00138487
-0.017805,-0.000622721
-0.00071521,0.00334427
0.0125402,0.00744438
0.0349671,-0.0126976
0.0549445,0.0242008
0.0392001,0.00861435
0.00429247,-0.00486366
-0.0239678,0.00265931
-0.0276922,0.016158
-0.0115691,0.0246562
0.0120466,0.0153873
0.0216007,-0.0117893
0.0230519,-0.0150995
0.0165943,0.00242243
0.00772299,0.011167
0.00659021,-0.000938005
-0.00105035,-0.00459481
-0.0136682,-0.00695815
-0.0229224,-0.00598739
-0.0196166,0.00230497
-0.00375913,0.00411448
0.0147483,0.0045929
0.021004,-0.0118266
0.0238504,-0.0104009
0.0210544,0.00287825
0.0294413,0.0280814
0.0274734,0.0145253
0.0101712,-0.0289156
-0.0365872,0.00363569
-0.0586824,-0.00250368
-0.0647722,0.0276709
-0.104463,0.00712893
-0.112963,-0.0363447
-0.0453107,0.00625534
0.0197262,0.0158732
0.016372,-0.0130889
-0.00571506,0.002481
-0.00702621,-0.00261913
0.05352,-0.00764237
0.0777391,-0.0313229
0.0455301,-0.0410807
0.0163266,-0.0155423
0.0159827,0.0130925
0.0279349,0.0157466
0.0260195,0.00969009
0.0171457,0.0310998
0.0144805,-0.0461744
0.0253677,-0.0270674
0.0396243,0.035602
0.0460244,0.0380763
0.0408358,0.0342229
0.0186735,-0.000272168
0.0020613,-0.00943297
-0.00595356,-0.025501
-0.0273513,0.000190593
-0.0509403,-0.00900002
-0.0472687,-0.0429128
-0.0442652,0.0339136
-0.0319812,0.0580667
0.00642572,0.0561309
0.017616,0.0164292
-0.0211822,-0.00131666
-0.0630023,-0.0305554
-0.104393,-0.0225413
-0.0998783,-0.0107266
-0.0727108,-0.0100464
0.00295807,-0.0087623
0.0860605,-0.00896212
0.105949,-0.0308549
0.0675091,-0.0155042
0.0548785,0.00383516
0.022808,0.00798357
-0.0234787,0.00748344
0.00686732,-0.00273319
0.0714693,-0.0127423
0.0730784,-0.00895763
-0.000510378,0.00887098
-0.0810751,0.00893394
-0.0766829,0.00135644
-0.0225995,-0.0115692
0.00900873,-0.00613411
0.0166722,-0.00388392
0.0149707,-0.00403509
-0.0242767,-0.00576748
-0.085605,-0.00229021
-0.111212,-0.00362424
-0.0477433,0.0019333
0.0759213,0.0092594
0.129353,0.00540753
0.0956417,0.00378772
0.0584415,0.0251233
0.01385,0.0315465
-0.0466301,0.0587484
-0.060475,-0.0213733
-0.00922386,-0.0274732
0.0625855,-0.00863182
0.100768,-0.00525063
0.109488,-0.0129557
0.0896293,0.00793222
0.02897,0.01129
-0.0617815,0.0148384
-0.0833774,0.0387297
-0.0848125,-0.0181267
-0.0754705,-0.0423086
-0.0992029,-0.0313571
-0.108142,-0.00926139
-0.0758345,-0.00816534
-0.0636528,0.0102408
-0.00729579,0.0111346
0.0505445,0.0154295
0.0977945,0.0155756
0.110451,0.0109902
0.0179349,-0.0104413
-0.0930937,-0.00934454
-0.116924,-0.000597802
-0.128106,0.0183658
-0.0201818,0.0165299
0.165759,0.00855146
0.190591,-0.00176595
0.138621,-0.0187558
0.0598506,-0.00750557
-0.0096647,-0.0125812
-0.0722703,-0.0335857
-0.166599,-0.0365592
-0.153151,-0.0143951
0.0143425,-0.00429097
0.189549,0.00494468
0.16959,0.0072833
0.0782872,-0.00586187
-0.0472704,0.00249775
-0.0881611,0.00879213
-0.0407707,0.00168164
-0.0297005,-0.00441506
-0.120739,0.00490909
-0.092978,0.0246264
0.0170628,0.0232391
0.104512,0.00203807
0.134876,-0.000796117
-0.0716487,0.0220081
-0.117327,0.0206038
-0.0257251,-0.00160369
-0.0301818,-0.0136759
-0.01589,-0.0052833
0.145992,-0.00594351
0.248851,-0.00579366
0.178565,-0.00223259
-0.0715184,-0.000477962
-0.302192,-0.000659823
-0.282611,0.0181315
-0.184727,0.0181862
0.0860186,0.0134888
0.19798,0.0282112
0.170134,0.0179082
0.135613,-0.0274105
0.0543741,-0.0622376
-0.137785,-0.0469849
-0.151866,0.00124056
0.0145032,0.00502468
-0.00133903,0.0245766
-0.0809475,0.040479
-0.102893,0.0210479
0.0401868,-0.01122
0.247771,-0.00881591
0.0528295,-0.00689614
-0.0546306,-0.0179208
0.0399173,-0.0188657
0.140394,-0.0174361
0.115747,-0.0153956
0.0669666,-0.00705251
-0.0138766,-0.00425559
-0.035145,0.00486353
0.0105873,-0.000719052
-0.00515688,-0.0119463
-0.0859727,-0.00651387
-0.193172,0.00565533
-0.28779,0.0182577
-0.295688,0.0324178
-0.152763,0.00939877
-0.154703,-0.00510438
-0.098989,-0.0062884
0.23749,-0.00787453
0.418195,-0.00238856
0.337103,0.0189175
0.197897,0.0194892
0.108567,0.00628031
0.0828379,0.0138421
0.0444469,0.00616504
0.00686305,0.00879968
0.0216233,0.0201736
0.0102919,0.00752608
-0.0865821,-0.0150039
-0.216536,0.00254073
-0.245055,0.0146973
-0.173114,-0.0167189
-0.0689549,-0.0312794
0.062892,-0.0178084
0.0878789,-0.0146658
0.106278,-0.012036
0.0125535,-0.0148369
-0.0404547,-0.0130239
-0.134223,0.00405097
-0.277005,0.0299485
-0.161272,0.0350007
0.208321,0.0217303
0.262129,0.0205529
0.0725698,-0.0056071
0.0233668,-0.0404836
-0.00656898,-0.0383386
-0.0351713,-0.0360029
7.13e-05,-0.0327186
0.0688874,-0.0167245
0.0442906,0.00157025
0.025979,0.0118166
0.0449739,0.0181901
0.0267181,0.0135332
-0.0313687,0.00717693
-0.0922185,0.0149333
-0.0998464,0.0175587
-0.0210517,0.0054346
0.000985821,0.00245205
0.0358721,0.0157959
0.0651035,0.00420051
0.063569,-0.00248609
0.0628089,-0.0102308
0.0354671,-0.020004
-0.0232312,-0.0194937
-0.0647909,0.00294368
-0.0172045,0.0368012
0.0434301,0.0403929
-0.0084293,0.00225183
-0.0614508,0.00172765
-0.0540011,-0.0130692
-0.0303718,-0.0231029
-0.0460542,-0.00169595
-0.0560526,0.0194762
-0.0740243,0.0217641
-0.0558859,0.0151739
0.0134429,-0.000662599
0.0885282,-0.0239325
0.0824485,-0.0452736
0.0202069,-0.045816
0.0175022,-0.0227706
0.028304,0.00895968
0.0685477,0.0300855
0.0953158,0.0279927
0.0685538,0.0118432
0.0343761,-0.00107914
-0.00831899,-0.00516138
-0.067412,-0.00663338
-0.0971198,0.00877486
-0.0807192,-0.00222534
-0.0587549,-0.0096433
-0.0244031,-0.00853711
0.00740564,-0.00935701
0.0202216,0.00505377
