Comp Ch 3,Comp Ch 4
-0.0671455,-0.0143952
-0.0493019,0.0184467
-0.0331839,0.0351858
1.01e-05,0.0116568
0.0336898,0.0356406
0.0348957,-0.00849933
7.63e-05,-0.0720493
-0.0543792,0.0131802
-0.0937268,0.0749538
-0.117661,0.0665804
-0.125124,0.00641242
-0.0473544,-0.109658
-0.0686971,-0.110638
-0.191126,-0.0674489
-0.155368,-0.0463411
-0.00041125,0.0579298
0.173439,0.056587
0.199026,-0.00460004
0.162381,-0.0543823
0.0948065,-0.0486653
0.011397,0.0886732
-0.00526344,0.106653
0.05438,0.0895729
0.125925,0.133264
0.150806,0.0446019
-0.0239045,0.0268498
-0.0766212,-0.0104667
0.0280795,-0.00448612
0.0629358,0.0554872
-0.100175,0.00347715
-0.241568,-0.0256297
-0.0912464,-0.0252783
0.0622332,-0.130292
0.0815683,-0.180445
0.0806481,-0.210377
0.0676358,-0.194391
-0.0208274,-0.190748
-0.10791,-0.156786
-0.148923,-0.162191
-0.123064,-0.0551399
-0.0367349,0.268538
0.0398345,0.299451
0.0636137,0.219343
0.150723,0.22565
0.21129,0.190037
0.0889287,0.117536
-0.145224,0.112415
-0.130561,0.0813743
0.0982229,0.0788635
0.0630379,0.0513351
-0.0450754,-0.0737834
-0.0309443,-0.127727
0.0129777,-0.152218
-0.017758,-0.0863236
-0.0561492,-0.00143782
-0.0297876,0.0248718
-0.00403765,-0.0111665
-0.00905359,0.042686
-0.0537123,0.0352627
-0.123424,0.0456186
-0.132651,-0.00603773
-0.0885943,-0.0598679
-0.00923783,-0.0722665
0.0960365,-0.105224
0.124886,-0.0519257
0.023635,0.0165604
0.0125832,0.0339339
0.0405402,-0.100034
-0.000267435,0.0288139
-0.00820511,0.0888536
0.0549782,-0.00119157
0.104367,0.0593173
0.0761477,-0.0264331
0.0219735,-0.0513324
-0.0489587,-0.0666605
-0.0516241,-0.0200484
0.00658538,-0.0236617
-0.00390425,-0.0207539
-0.0222522,0.00217576
-0.0734956,-0.0556737
-0.14882,-0.0856504
-0.194546,-0.0427599
-0.113125,0.0191408
0.0489747,0.041219
0.262459,0.12181
0.331026,0.0478055
0.213484,-0.0470888
0.0274488,-0.00715932
-0.0665791,0.0348326
-0.0555589,0.0269612
0.00340348,0.0438363
-0.0532891,-0.0378488
-0.147901,-0.0557281
-0.0909898,-0.0487118
-0.0949031,-0.0387718
-0.149076,0.0231449
-0.025438,-0.0349124
0.157301,-0.0956679
0.186542,0.0452289
0.248753,-0.0117559
0.141376,-0.0426556
-0.112137,0.104143
-0.126826,0.0958097
0.0234782,0.0394383
-0.0318051,0.107239
-0.146691,0.0534544
-0.159537,-0.00389563
-0.124559,-0.0448405
-0.0749365,-0.0485807
0.0672799,-0.0230264
0.240909,-0.127198
0.21764,-0.0297678
-0.00523406,-0.11541
-0.175007,-0.127585
-0.195717,-0.0133445
-0.158677,0.0810717
-0.0280265,0.122581
0.00775457,0.218779
0.10694,0.237572
0.327835,0.17186
0.439325,0.0524765
0.252551,-0.0382122
-0.0773244,-0.0476405
-0.292475,-0.0291215
-0.340601,-0.0475501
-0.280663,-0.016142
-0.124871,-0.0488482
-0.00918152,-0.0625349
-0.0226232,-0.0945285
0.0718633,-0.109363
0.152151,-0.0486186
-0.0141875,-0.0324427
-0.0833731,-0.000137892
-0.0439921,0.041414
0.0741922,0.0504811
0.150819,0.0592384
0.0197073,-0.0246001
-0.091336,-0.0250661
-0.0621581,-0.0498676
-0.0532012,-0.0481918
-0.0318705,-0.00694617
-0.00687232,0.086048
0.0611759,0.0237835
0.216976,-0.0483333
0.248174,-0.0905186
0.209929,-0.102173
0.206636,-0.0782428
0.0588758,-0.0773749
-0.0717203,0.166307
-0.210019,0.0893613
-0.168723,0.062144
-0.146669,0.160432
-0.164686,0.0859578
-0.0875857,-0.0192768
0.00218802,-0.0175122
0.0459606,-0.0821939
0.0625856,-0.0827737
0.0918106,0.0449552
0.0326579,0.0681696
-0.0178697,0.0370045
-0.0953241,-0.012291
-0.113334,-0.00574474
-0.0264129,-0.0604488
0.0108882,-0.0977056
-0.0914923,-0.0105057
-0.122119,-0.00218028
-0.0418934,0.042005
0.0404662,0.0929731
0.0569093,0.0167352
-0.0159537,-0.0218527
-0.056703,0.0229064
0.0809855,0.148907
0.166268,0.151847
0.081827,-0.017135
0.0197216,-0.0600083
0.128257,-0.0485646
0.241962,-0.187553
0.165608,-0.275185
0.0299977,-0.223994
-0.175934,-0.307747
-0.228738,-0.236651
-0.142668,-0.0706129
-0.0160227,0.149869
-0.0256412,0.305718
-0.127828,0.283911
0.0222939,0.284037
0.27521,0.188976
0.291074,0.0894901
0.0870338,0.0299574
-0.146125,-0.0217514
-0.309715,0.00357946
-0.164458,0.0116489
0.0928007,-0.0437233
0.188124,-0.0450209
0.14688,-0.00428567
-0.0045867,0.127574
-0.129346,0.0687922
-0.137186,-0.0232173
-0.177822,-0.0295139
-0.156896,-0.0104386
-0.0376644,-0.0703895
0.0426641,-0.0460456
-0.010096,-0.0288063
-0.0162193,-0.103512
0.0309588,-0.0172527
0.0816028,-0.0181392
0.0549078,-0.0860419
0.0980669,-0.0867026
0.13364,-0.0543481
0.0275135,-0.0415272
-0.0883493,0.0597451
-0.027986,0.000392923
0.141114,-0.0340004
0.0805459,0.0137279
-0.13797,0.050224
-0.10259,0.0430042
0.0218892,0.087867
0.0174824,-0.0195502
-0.0336449,-0.0408441
0.000982649,-0.0028647
0.0686147,-0.0113198
0.130086,0.0190398
0.0752637,0.00121733
-0.00901229,-0.00611276
-0.108591,0.0672702
-0.130382,0.0121507
-0.113292,-0.00194719
-0.128955,-0.00434848
-0.044764,-0.00042046
0.0577473,0.0309197
0.0828067,-0.00366462
0.0862517,0.0171516
-0.018147,0.0555705
-0.071516,0.00280164
-0.0211751,-0.0931819
0.059416,-0.135103
0.104053,-0.068821
0.0715344,-0.0366227
-0.0505667,-0.0342675
-0.0480007,0.0163165
0.141528,0.0772352
0.113942,0.00673386
-0.0308463,0.0336112
-0.0840918,0.093764
-0.0729248,0.0456798
-0.0506056,0.020897
0.00471017,0.064243
0.023273,0.0682682
0.000204985,-0.0107487
-0.0102869,0.040034
-0.0142311,-0.0122959
-0.0220678,-0.137374
-0.0356038,-0.0646638
-0.040041,0.0146
-0.031057,0.07894
-0.0067486,0.0385568
0.0435495,-0.010546
0.0428224,-0.0432661
-0.0211166,-0.0219253
-0.080492,-0.0860276
-0.0300937,-0.121335
-0.0420042,0.0111433
-0.020844,0.0662524
0.059122,-0.00184533
0.0667799,0.059574
0.0819204,0.135042
0.0842001,0.121497
0.0805144,0.025347
0.0930067,-0.00361039
0.0424471,-0.036897
-0.0444099,-0.0912587
-0.106016,-0.112382
-0.0748047,-0.127871
0.0545703,0.0311646
0.157026,0.114734
0.166509,0.0429956
0.0478748,0.0405123
-0.195968,0.00164142
-0.226524,-0.0606496
-0.0864249,0.0186995
0.000404117,0.00988369
0.0151495,-0.00824374
0.0420722,-0.0382945
0.0796872,-0.0470975
0.0124322,0.0356835
-0.112489,-0.0472033
-0.123526,-0.0878232
0.0225887,-0.110072
0.0985277,-0.0926403
-0.0232882,0.0667879
-0.181038,0.0599153
-0.16236,0.0352563
0.0412827,0.0361484
0.140775,0.0601186
0.111139,0.0611523
0.0678427,-0.0478041
0.0693837,-0.0317275
0.0790901,-0.0108022
0.0767021,0.0464983
0.0571005,0.0364654
-0.0219261,-0.0117824
-0.0754401,-0.0162166
-0.0633194,0.00291326
-0.0916565,-0.0616173
-0.113722,-0.00836557
-0.085332,0.0389485
0.0547847,0.0207366
0.0907186,-0.055386
-0.00630383,0.00456442
-0.0834209,0.0419495
-0.00821887,0.0534692
0.0593337,0.0616044
0.0563129,-0.0476143
0.0310072,-0.074907
0.0234765,0.035996
0.0467096,0.0806265
0.0298371,-0.0407874
0.00136677,0.0428532
-0.016473,-0.0169548
0.00355384,-0.0104867
-0.029001,0.0143382
-0.106614,0.0136603
-0.0797689,0.00132927
-0.0767696,0.0161081
-0.0885185,0.027894
-0.00916425,0.0227309
0.154503,-0.0107085
0.190087,-0.0476961
0.0731197,-0.0698676
-0.0378697,-0.0860322
0.00178905,-0.00722599
0.072428,0.0275909
0.00643554,0.0354614
-0.0885128,0.0546677
-0.106933,0.0294019
-0.102226,0.00622242
-0.0964924,-0.0531667
-0.0134147,-0.115747
0.0605183,-0.0283717
0.106964,-0.025598
0.0830159,0.033081
-0.0261925,0.0766331
-0.0192021,0.0869491
-0.0105994,0.0328444
4.11e-05,0.0198029
0.0219717,0.0311913
0.0652143,0.00494694
0.0811146,-0.0464604
0.141342,-0.0183494
0.123498,0.0746059
-0.0515419,0.00286239
-0.0961251,-0.0267311
-0.173946,0.0535707
-0.143375,-0.0825414
0.00306999,-0.0330062
-0.0054917,-0.035132
-0.0291435,-0.0572877
0.0199928,-0.0193065
0.0617365,0.0500676
0.0440749,-0.0673678
0.0469001,-0.0686239
0.044973,-0.00643232
0.0310765,0.0569388
-0.012315,0.03287
-0.119935,0.0310831
-0.170001,0.114926
-0.0836834,-0.00159414
0.00438413,-0.000886446
-0.00285355,-0.000108788
0.0370986,0.012911
0.100635,-0.0060223
-0.00060391,-0.0181167
-0.043807,1.42e-05
0.0178421,-0.0089007
0.0840234,-0.0568958
0.108766,-0.0998124
0.0561822,-0.114625
0.0186687,-0.0266525
0.0151634,0.0264835
0.0381415,0.0373701
-0.0235027,0.0311941
-0.0678278,0.0377384
-0.0614978,0.0462756
-0.0366964,0.0597012
-0.00577118,0.0502873
0.0153405,0.00432438
0.0230145,-0.00721329
0.00708938,-0.0358821
0.00966776,0.0628374
0.0552515,0.00869127
0.0653137,0.0294884
-0.00319577,-0.036846
-0.0781304,0.0010392
-0.0516142,0.051114
0.038082,0.0218943
0.0361534,-0.015658
0.0308995,-0.045858
0.00886812,-0.0512736
-0.0464374,-0.0601172
-0.0348618,-0.0606815
-0.0532782,-0.0368965
-0.0444158,-0.0760284
-0.000788835,-0.00277841
0.0279339,0.0526563
0.0322156,0.0107092
-0.00390447,0.00488743
-0.00938761,-0.0039153
0.0152049,0.0678848
0.00902973,0.0173918
0.0173801,0.078743
-0.126585,0.0685728
-0.202864,-0.0031449
-0.0775165,0.00917157
0.0600894,0.0255845
0.0941079,-0.0144868
0.0590473,0.0163449
0.0614001,0.040836
0.0544906,-0.148096
0.0320388,-0.0498931
-0.0261385,0.0454537
-0.0364034,0.0181172
0.0175083,0.0400623
0.0602635,-0.00562699
0.0329198,-0.0239941
0.00137784,-0.0394926
0.0254714,0.00530404
0.120097,0.0109775
0.0825064,-0.00519984
-0.0283517,-0.0166276
-0.0892355,0.00645309
-0.11441,-0.0215078
-0.123856,-0.0269893
-0.0856227,-0.0318993
0.0174537,-0.010394
0.063042,0.0154918
0.0554766,0.0689142
0.0389654,0.034937
-0.024837,-0.0463101
-0.102391,-0.0877584
-0.0956304,-0.0389855
-0.0567905,0.00521531
0.033332,0.0435813
0.108596,0.0542107
0.102002,0.00283661
0.04551,0.0364763
0.00705537,-0.00436484
0.0367962,-0.089724
0.0256538,-0.085257
-0.03311,-0.0770647
-0.0535547,0.0291991
0.0247827,0.0805249
0.0873864,0.045673
0.0370652,0.00185879
-0.0138835,0.0246765
-0.0260038,0.0516442
-0.0309069,0.0836621
-0.00719627,0.0380916
0.0100499,-0.0537243
-0.00652811,-0.0600891
-0.0454605,-0.015706
-0.077319,0.016282
-0.0406115,0.0669103
-0.0210345,0.163385
-0.0248991,0.141903
-0.00962918,-0.093546
0.0479088,-0.0693539
0.0519249,-0.11254
0.0279601,-0.0636377
-0.0238078,-0.00119003
-0.0125591,-0.0991671
0.0275699,-0.0877636
0.0226633,0.000668052
0.0187061,0.0647618
-0.00861347,0.0487747
-0.0366348,0.127446
-0.0407672,0.0698145
-0.0306205,0.00944092
-0.029296,-0.049257
-0.0117698,0.00510883
0.0303441,0.0126549
0.039763,0.00581066
0.0257098,-0.0737071
-0.0423222,-0.00589393
-0.0668288,0.010896
-0.00463213,-0.0428044
0.103236,-0.0632302
0.122178,0.00768451
0.107339,0.0411119
0.0557942,-0.0231424
-0.0482852,0.000497648
-0.0905204,0.0197975
-0.0709666,0.0344564
-0.0182355,0.0298277
0.0295807,0.00105018
0.0485962,-0.0028962
0.0313833,-0.126593
0.0276502,-0.0406189
0.0227259,-0.0370761
-0.0673928,-0.0531041
-0.169908,0.0818362
-0.15158,0.0776057
-0.0335897,0.0048023
0.141801,-0.0528572
0.0913642,-0.0423232
-0.020775,-0.0513776
-0.0563468,-0.0324513
-0.0715785,0.00671224
-0.026219,0.0603683
0.0348233,0.0741389
0.0327996,0.0512924
0.0437962,0.037579
0.0394643,-0.102715
0.0389613,0.0336527
0.0344098,0.0713123
0.0349084,0.0548659
0.0316707,0.0291603
0.0315388,0.0201367
0.0739966,0.0513493
0.0882521,0.0394099
0.0297027,-0.058851
-0.0369491,0.0707013
-0.131497,-0.0877754
-0.133752,-0.0871847
-0.0672776,0.0917231
-0.00217831,-0.0489092
0.0309312,-0.0518672
0.00479314,-0.018194
-0.0215573,-0.0270355
0.000386191,-0.020338
0.056839,0.056995
0.0234714,0.0154462
-0.0426884,-0.0263557
-0.0706285,-0.0513198
-0.0707878,0.0386888
-0.0769916,0.0267063
-0.0730714,-0.1057
-0.0210554,-0.0805915
0.034678,-0.00890978
0.0713614,0.00315027
0.103204,-0.0488309
0.0876954,-0.00840921
0.0924976,0.10933
0.0701505,0.156621
0.0245957,0.0136274
-0.00635715,-0.139207
-0.0686916,-0.198855
-0.0420543,-0.13456
0.025835,0.0459753
0.0592975,0.166986
0.0503833,0.124228
0.0379265,0.074919
-0.00366886,0.107692
-0.0850349,0.00729874
-0.137249,-0.0652095
-0.133002,-0.0457701
-0.0779821,-0.0178207
-0.0571514,0.00531228
-0.0157366,0.0676883
0.00978905,0.0767253
0.0459675,-0.0367679
0.0771972,-0.0832891
0.0836134,-0.0130496
0.0520285,0.0371408
-0.0114462,0.0473687
-0.0540201,-0.0526436
-0.0195113,-0.0533206
0.00339086,0.0142118
-0.00936069,0.0796934
0.00707046,-0.0510811
0.0717743,-0.0690508
0.131982,0.0207486
0.156457,-0.0249283
0.0908825,0.0207545
0.0442357,-0.107147
-0.0440829,-0.0870196
-0.201595,-0.00283655
-0.207133,0.106906
-0.0819343,0.0727894
0.0101058,0.0499243
0.030676,0.0229534
0.0592477,0.0670398
0.0776435,0.0294047
0.131452,-0.0101426
0.150033,0.00619631
-0.0164379,-0.0287945
-0.112904,-0.0406531
-0.0514584,-0.0660592
-0.03686,-0.0205821
-0.056464,0.0814648
-0.0838631,0.0194944
-0.103751,-0.0656945
-0.0606262,-0.0402125
-0.00586584,-0.0710511
0.0151982,0.0264841
0.0393724,0.0747122
0.0944511,0.0646311
0.116088,0.000492936
0.0435734,-0.00600053
-0.0471816,0.0597558
-0.0018278,-0.0750976
0.0234212,0.00790299
0.0183892,0.0989089
-0.099186,0.00300444
-0.177383,-0.150469
-0.0611131,-0.16644
0.0300382,-0.0883863
0.0332885,0.0744889
0.0036357,0.125879
0.00131978,0.0993217
0.00976003,0.0925261
0.0710211,0.00273706
0.161397,-0.0409734
0.159431,-0.0143627
0.0661225,0.0196873
-0.0536171,-0.0476716
-0.106529,-0.101309
-0.0891293,-0.191081
-0.130717,-0.139355
-0.0845926,0.126358
0.00950122,0.193845
-0.0248036,0.0959233
-0.0607247,0.0513694
0.0123,0.00177112
0.0695152,-0.0725981
0.102398,-0.061966
0.107545,-0.0330091
0.0702468,0.0277149
0.0103051,-0.0221186
-0.0612179,-0.026773
-0.0144932,-0.0594499
0.0909414,-0.0863208
0.0160304,0.0697688
-0.127996,0.0915978
-0.123581,0.183202
-0.0256769,0.136446
-0.0315176,-0.0199906
-0.0258079,-0.0181299
0.0211649,0.0404392
0.0394952,-0.0166571
0.107609,-0.0464418
0.239517,-0.0646659
0.172782,-0.0332714
-0.0717386,-0.114276
-0.285794,-0.0579337
-0.267863,0.0392913
-0.158041,0.0860099
-0.0520531,0.0418096
0.0990852,-0.0428545
0.291443,0.0428548
0.290612,-0.113303
0.153088,-0.145234
-0.000534618,-0.123155
-0.125949,-0.0535052
-0.127468,4.9e-05
-0.109155,-0.0119163
-0.0985471,0.0581077
-0.0727694,0.12024
-0.00454277,0.135825
-0.0153635,0.036553
-0.0461574,-0.0346769
-0.060923,-0.0656546
0.013181,0.0170287
0.0494931,0.0240815
0.0419591,0.0496525
0.0906968,0.129583
0.0671021,0.193544
0.0174725,0.055282
0.0633466,-0.0858054
0.122298,-0.0636466
0.0835602,-0.0223318
-0.00140363,-0.069353
-0.101674,-0.0748131
-0.119237,-0.109299
-0.030322,-0.0355429
0.056058,0.176061
0.0495688,0.109424
-0.03839,-0.0203475
-0.081798,0.038932
-0.0485039,0.0182994
-0.031276,-0.0607633
-0.0510473,-0.0817638
-0.0552165,-0.0349151
0.0560769,0.0438098
0.0774067,-0.0935971
0.040099,-0.142593
-0.0327958,0.0344208
-0.0482058,0.0388085
-0.11316,-0.0900285
-0.0301052,-0.0773553
0.224939,0.164856
0.37961,0.154257
0.321181,-0.0683863
-0.0993116,0.0191564
-0.334908,0.144763
-0.21166,-0.0719288
-0.0981022,-0.14258
-0.0625178,-0.0276415
-0.0453306,-0.0357861
-0.00491541,0.109706
0.0531868,0.0605567
0.135595,-0.0434648
0.0445531,0.0247734
-0.0983702,0.134919
-0.216132,-0.097755
-0.230528,-0.301077
-0.086405,-0.247461
-0.0561923,-0.0762162
-0.0440743,0.0362236
0.0307902,0.0420744
0.125703,0.154834
0.188365,0.39707
0.261093,0.191182
0.272709,0.0204987
0.197164,0.11567
0.0374729,-0.101234
-0.0813283,-0.300265
-0.00371668,0.00542484
-0.0245356,0.0305299
-0.113403,-0.0255089
-0.153281,0.027804
-0.114873,0.0156711
-0.028475,0.13299
-0.0212941,0.234921
0.0169767,0.103699
0.0605173,0.0170501
0.0231961,-0.184447
-0.0195132,-0.194937
0.027718,-0.113702
0.0232297,-0.215105
-0.0551527,-0.195729
-0.100401,-0.288476
-0.0793526,-0.341584
-0.0832827,-0.138508
-0.0606682,0.302623
0.00212324,0.414122
0.136414,0.254183
0.342748,0.195824
0.391303,0.145011
0.235277,0.035468
0.00348299,-0.0747139
-0.282985,-0.103673
-0.276373,-0.000639201
-0.175393,0.115546
-0.132531,0.0747278
-0.0759728,0.126498
-0.0318228,0.0994641
0.0064435,-0.0217711
0.0484481,-0.0424967
0.0075514,0.0213607
-0.0446057,-0.1018
-0.119092,-0.0868233
-0.106706,-0.127344
0.0223097,-0.0943922
0.0274319,-0.0767145
-0.0231656,-0.0612599
-0.0200718,-0.101931
-0.0323852,-0.025228
-0.00479838,-0.082616
0.093567,0.0142649
0.232517,0.150737
0.256027,0.196763
0.160101,-0.00623429
0.0368436,-0.0762651
-0.0373181,0.00323606
-0.0291509,0.0182131
-0.0599707,-0.0183363
-0.0844138,-0.0098349
-0.0382193,-0.0424722
0.00881269,0.0100691
0.0228046,-0.00211382
0.0513519,-0.0536892
0.158945,-0.10771
0.0757232,0.0710853
-0.0837126,0.317479
-0.215987,0.0163185
-0.282501,-0.085412
-0.229137,0.140788
-0.0560607,0.0582061
0.204618,-0.0304239
0.374298,-0.0106053
0.248469,-0.0275529
0.00477316,-0.0207648
-0.175528,-0.0681447
-0.191238,-0.0300354
-0.150686,0.03227
-0.174334,0.121535
-0.220201,0.118402
-0.11566,-0.042357
0.148875,-0.179093
0.26913,-0.209734
0.306011,-0.0705576
0.231439,-0.0294905
0.119184,-0.161097
0.031256,-0.169242
-0.0462224,0.136371
-0.174339,0.00488427
-0.304597,0.0378817
-0.201438,0.155221
-0.0982204,0.232735
-0.0223755,0.19732
0.0972067,0.0664536
0.198205,0.0260032
0.139819,-0.103789
0.0656866,-0.15722
-0.00130991,-0.0981843
-0.0736979,-0.0914121
-0.110671,-0.179153
-0.0487147,-0.276395
0.00403397,-0.0642991
-0.0591277,0.108698
-0.102524,0.282504
-0.0715533,0.214616
-0.00536792,0.223764
0.10659,0.152895
0.201895,0.0452039
0.279545,-0.0274686
0.0807651,-0.0304568
-0.132292,-0.0722224
-0.148193,-0.0876563
-0.11965,-0.119361
-0.0468261,0.0523268
0.0891069,0.163202
0.116186,0.0255195
0.0638136,-0.0666625
-0.0458591,0.0184707
-0.0402897,-0.0193934
0.205039,-0.0946603
0.231839,-0.0812963
0.027331,-0.044425
-0.258107,-0.0811978
-0.306107,-0.0810504
0.0168254,-0.0302976
0.200828,-0.169206
0.0177651,-0.0932124
-0.126847,-0.0519363
-0.0913895,-0.0154815
-0.0379063,0.146636
-0.0107904,0.188209
-0.0224865,0.0663789
-0.0821746,0.0600923
-0.0996896,0.0666289
0.00135844,0.0899048
0.0587395,-0.0224794
-0.0206676,-0.0361196
-0.0921098,0.0351981
0.00825391,-0.00453354
0.232698,-0.0069364
0.223874,-0.0235703
0.054126,-0.0835677
-0.0550204,0.0394593
-0.166133,0.161406
-0.176043,-0.0241292
-0.0357312,-0.0645105
0.0325871,0.0274755
0.165801,0.0232441
0.225127,-0.064874
0.102131,-0.0220087
-0.0450694,0.0189378
-0.213078,-0.158443
-0.200612,-0.134025
-0.089873,0.133569
-0.0341988,0.135937
0.0151746,-0.0480758
0.232388,-0.00210138
0.344813,0.088377
0.187367,0.0977687
-0.0239554,0.059151
-0.0207973,0.0139362
-0.0202059,-0.0965055
-0.00865701,-0.0294214
-0.061161,-0.0486329
-0.205952,-0.103733
-0.196291,-0.142493
-0.115731,-0.131203
0.0170107,-0.0131761
0.0422282,-0.0559988
-0.0492744,-0.0798138
-0.138046,-0.032879
-0.0334562,0.0177772
0.0900994,0.127562
0.1499,0.185352
0.166006,0.237484
0.0260213,0.249903
0.050908,0.0584301
-0.0823642,0.000531994
-0.211812,-0.0179849
-0.0695563,0.0633907
-0.0779256,-0.0222933
-0.0907031,-0.142668
0.0178567,-0.157493
0.0619948,-0.0419845
-0.0613613,0.0329158
-0.0208081,0.000453214
0.183227,-0.0999856
0.309335,-0.132063
0.171896,-0.151354
-0.12061,-0.00831498
-0.185867,0.152953
-0.0874484,0.105419
-0.0327907,0.0999474
0.0272714,-0.0682497
0.150454,-0.0970306
0.249166,0.0510356
0.302782,0.102908
0.173913,0.03819
0.0121754,0.0251355
-0.150882,0.0240629
-0.320554,0.136973
-0.27304,0.113677
-0.181979,-0.0646122
-0.107698,-0.0835365
-0.0872009,-0.0506293
-0.110552,-0.103976
-0.0612402,-0.142742
0.0521448,-0.189463
0.209274,-0.142207
0.260844,-0.054956
0.125386,0.02939
-0.0842247,0.0615159
-0.202926,0.0243002
-0.0906258,0.00930894
0.165828,0.142628
0.366507,0.173271
0.216579,-0.00600168
-0.12666,0.0752672
-0.162365,0.0152683
0.0263189,-0.0789458
0.0286992,0.00999051
-0.100279,0.15409
-0.189932,0.105631
-0.147921,-0.0991204
-0.014723,-0.0867425
0.195221,-0.0583734
0.258928,-0.0385615
0.253589,-0.0522807
0.221122,0.0314265
-0.0493351,0.0523423
-0.33026,0.0279621
-0.370216,0.00175857
-0.224196,-0.000824218
0.00948377,0.0198437
0.144846,0.0342394
0.0997081,0.0279395
-0.0527462,0.0259348
-0.134819,-0.00675131
-0.183413,-0.0558734
-0.124445,-0.0738784
-0.0123568,-0.0528024
0.0169634,-0.00833334
-0.0405604,0.020532
-0.0445167,-0.0369872
0.0895153,-0.102757
0.144637,-0.117976
0.101041,-0.00995463
0.0400094,-0.125622
0.122584,-0.101183
0.0491093,-0.0783419
-0.0627553,-0.0246705
-0.0478892,0.0264146
0.0745209,0.20365
0.184185,0.140107
0.177719,0.177624
-0.0134392,0.12687
-0.270865,0.0479593
-0.310256,-0.0346635
-0.197573,0.0859662
-0.0666514,0.205121
0.150379,0.188036
0.26237,0.109177
0.300133,-0.0152997
0.127444,-0.222679
-0.00986284,-0.313763
-0.00340112,-0.0896456
0.0705713,0.00790156
0.0197184,-0.00296238
-0.253462,0.237149
-0.290341,0.0497736
0.0273075,0.0696798
0.324558,0.00955079
0.275248,-0.317873
0.0324788,-0.422492
-0.172104,-0.135137
-0.134007,-0.144755
-0.0677949,0.0574253
-0.108644,0.272997
-0.211487,0.23325
0.101373,0.170162
0.367139,0.0996449
0.0969264,0.0219326
-0.240058,-0.075975
-0.236466,-0.275505
0.0660648,-0.223893
0.0755301,0.0331643
0.067895,-0.00763099
0.156474,-0.0202853
0.277615,0.304385
0.26423,0.273894
-0.0229119,0.148002
-0.358358,0.053184
-0.412543,0.0809024
-0.261439,0.0488633
-0.191216,-0.334003
-0.120314,-0.501382
-0.130717,-0.304318
-0.0389958,0.0426425
0.046458,0.281605
0.0624712,0.345522
0.0503316,0.182034
0.0228439,-0.0284424
0.202981,-0.0444017
0.299634,-0.0784415
0.281664,-0.081686
0.21551,-0.0846229
0.125528,-0.15451
-0.0865283,-0.0265656
-0.357222,0.0648377
-0.489601,0.0282313
-0.284704,0.239623
0.0284547,0.419579
0.256761,0.168368
0.349666,-0.134175
0.236711,-0.220394
0.0193922,-0.529308
-0.0371787,-0.453744
0.0926004,-0.228455
0.180524,-0.131747
0.214648,0.0284994
0.456445,0.216797
0.471518,0.277892
0.154206,0.0275221
-0.272883,0.0778342
-0.737693,0.308937
-0.699725,0.213774
-0.42427,0.017606
-0.237327,0.0436054
-0.125843,0.125281
-0.024724,0.200625
0.0619712,0.0606181
0.110406,0.0275504
0.0803375,0.0631888
0.0710957,0.0180715
0.136901,0.0175779
0.117084,0.0118555
-0.0464524,-0.0538559
-0.0938785,-0.174387
-0.0371215,-0.287934
0.101003,-0.3386
0.31486,-0.315469
0.409617,-0.138439
0.146256,0.0828079
-0.13141,0.0259272
-0.256003,-0.115915
-0.202677,-0.0214929
-0.202737,0.16299
-0.0871195,0.198188
-0.0454049,0.190576
-0.0414081,0.172557
-0.0272258,0.12332
0.0267645,0.0779359
0.100262,0.0146741
0.130935,-0.0635577
0.0501712,-0.0883668
-0.0647666,-0.0500332
-0.15451,-0.0142115
-0.128465,-0.00491439
-0.0592054,-0.0542771
-0.0628344,-0.13782
0.105041,-0.114083
0.294676,0.0214597
0.352325,0.0615194
0.232098,0.0260214
-0.0152529,-0.0250141
-0.0965055,-0.0503911
-0.0859793,-0.0838834
-0.105205,0.0406758
-0.112434,0.0309909
-0.147369,-0.0877788
-0.153209,-0.209681
-0.070694,-0.11925
-0.0194534,-0.0336341
0.0442261,0.160125
0.0850419,0.246829
0.0457555,0.161902
0.0543783,0.151374
0.146836,0.116348
0.210007,0.0879595
0.146186,0.0548516
-0.0100364,-0.0189984
-0.158075,-0.0355719
-0.00633454,-0.0575089
0.0860139,-0.0651402
-0.0281848,-0.0173818
-0.174717,-0.0743011
-0.254147,-0.0598789
-0.211102,0.0204526
-0.182571,0.0801877
-0.066714,-0.00998189
0.164459,-0.118951
0.265114,-0.092182
0.173039,-0.133281
0.0715546,-0.0924214
-0.0306644,0.115776
-0.0950235,0.123293
-0.0835923,0.0230155
0.0305646,-0.116771
0.152122,-0.0121607
0.127781,0.0969911
0.0561854,-0.0112559
0.0335941,0.0409366
0.0529495,0.0961454
0.126344,0.0775743
0.274895,0.0500678
0.342181,-0.0153437
0.193748,-0.0533019
-0.0559174,-0.00556845
-0.268964,0.0479485
-0.23084,0.00255431
-0.282722,-0.175044
-0.275554,-0.153028
-0.125533,-0.0887962
-0.134269,-0.0462051
-0.26479,-0.00610863
-0.23158,0.0643851
-0.0362393,0.145694
0.102495,0.205203
0.164072,0.0839012
0.134345,0.023204
0.0666394,0.00813833
-0.00508602,0.0170821
-0.0307477,-0.0165842
-0.0030468,-0.0222594
0.0535375,-0.0375192
0.108626,-0.0342784
0.119671,-0.0624977
0.081984,-0.0877903
-0.00909037,-0.0901195
-0.0456942,-0.0313836
-0.0275997,0.0298253
-0.0129574,0.0437657
-0.0315098,-0.0129392
-0.0874449,0.0943216
-0.100814,0.0399693
-0.0158968,0.0140986
0.0734257,0.00112324
0.12496,-0.033115
0.0365053,-0.0519171
-0.0804781,-0.0224514
-0.0377753,0.00851694
0.0440225,-0.0311218
0.0355004,0.007488
0.0412239,0.0421857
0.144559,0.0336334
0.205776,0.0101092
0.169003,0.0386605
0.0110729,0.0729738
-0.119597,-0.0313203
-0.168695,0.0623904
-0.211992,-0.0194076
-0.153571,-0.0567098
-0.0947807,-0.0479296
-0.0551565,-0.127967
-0.0428143,-0.167491
-0.0146074,-0.129303
0.0199965,-0.0470886
0.0627785,0.0801684
0.121671,0.130379
0.156942,0.047755
0.126383,0.0353986
0.101301,0.113992
-0.0202695,0.105479
-0.103349,0.0966524
-0.0461707,0.048632
0.0333696,-0.00627301
0.00118199,-0.00988805
-0.0251691,-0.0254889
-0.0245946,-0.00300723
-0.0358122,0.00809895
-0.0468058,-0.0175184
-0.0820918,-0.00969392
-0.104188,-0.00767308
-0.0922744,-0.0295937
-0.0658814,-0.0382944
0.0249642,-0.0348558
0.118187,-0.0848114
0.107592,-0.0323884
0.0932475,0.000712963
0.0663671,-0.00923612
0.021169,-0.149713
0.00760739,-0.0812197
-0.00356631,0.0490367
-0.0403458,0.0775029
-0.0176862,0.0950377
0.0215435,0.121665
0.00157036,0.0147616
-0.0268128,-0.0768732
-0.0991164,-0.0312992
-0.123165,-0.0443958
-0.048182,0.00731561
-0.0207122,-0.00490976
0.0242946,0.0821861
0.0202659,0.0398893
0.0425444,-0.0231641
0.131648,0.0860876
0.227364,0.0349611
0.121993,-0.0334126
-0.0181654,-0.0371306
-0.105665,-0.032706
-0.0862939,-0.0157036
-0.0353158,-0.0395402
-0.0216146,-0.0346313
-0.00370865,0.065418
-0.022604,0.085934
-0.034955,0.0673748
-0.0195811,0.0205594
0.00360946,-0.0516136
-0.00911608,-0.057428
0.0126029,-0.0237485
0.0334804,-0.00111726
0.0336218,0.00151613
0.0202256,-0.0119017
-0.0106822,-0.0138297
-0.0393722,-0.0365832
-0.0276677,-0.0629224
0.0133066,-0.0865728
0.0275133,-0.0804303
0.00781418,0.0247719
0.005912,0.0408039
-0.0379618,0.0478341
-0.042706,0.0730762
-0.0177926,-0.00318247
0.0063496,-0.0185101
0.014686,0.0102823
-0.000699522,0.118366
-0.0496159,0.0849756
-0.0738395,-0.0918073
-0.0369908,-0.0318209
0.0180905,0.0177802
0.0416005,0.00542718
0.0238843,-0.0117256
0.000866625,0.00248385
0.000867558,-0.010126
0.0133139,-0.0183625
0.0402409,-0.0232335
0.0923452,-0.0305364
0.10944,0.010984
0.0410307,0.0562971
-0.0469212,0.0971452
-0.135623,0.0769363
-0.123138,-0.0120275
-0.0705692,-0.0329985
0.0125915,0.014107
0.0781399,-0.0188165
0.124586,-0.145716
0.171028,-0.172656
0.139645,-0.0557073
0.144908,0.0263086
0.111403,0.0543691
-0.0413736,0.0604477
-0.109696,0.0893088
-0.129227,0.0439764
-0.148045,0.0356301
-0.184855,0.0455044
-0.190009,0.023715
-0.118131,-0.0289537
-0.0439078,-0.0709112
0.0436062,-0.0181323
0.0770977,0.0166923
0.0694096,0.00994604
0.0571203,0.0137082
0.0553085,-0.00513579
0.0392489,-0.00414206
0.0328089,0.0466074
0.0580638,-0.044562
0.109151,-0.0406438
0.0868495,0.0502788
-0.0380567,0.066205
-0.15599,-0.0272189
-0.138045,-0.00875668
-0.00211541,-0.0954826
0.0623075,-0.116821
0.0553555,-0.0470302
0.0323273,-0.0450061
-0.0403972,0.00293491
-0.0791465,0.104476
-0.0558791,0.10447
-0.00724559,0.0756156
0.0230491,0.00730953
0.0205979,0.0046901
0.00992624,-0.023214
-0.0177205,-0.0531623
-0.04211,-0.0228676
-0.0246817,0.0256614
0.0163266,0.0660156
0.0602578,-0.0224707
0.109339,-0.0503237
0.113214,-0.0652443
0.100534,-0.0542582
0.0400416,0.056315
-0.0469666,0.0171273
-0.101894,-0.0425077
-0.0917644,-0.084456
-0.0699022,-0.0974696
-0.0169436,-0.0506653
0.0141964,0.0240611
-0.0431872,0.110003
-0.101775,0.140739
-0.0666087,0.137789
0.0694571,0.131763
0.137305,0.0320945
0.0294249,0.0159406
-0.0724771,-0.0929297
-0.0710523,-0.0641785
-0.0505387,0.0234317
0.0275166,0.0189739
0.0694877,0.0230639
0.0730605,-0.0224559
0.0371106,-0.0623924
-0.0044252,-0.0589673
-0.00537082,-0.0429903
0.0382176,-0.0184474
0.0771602,-0.0126921
0.0747756,0.0333114
-0.00512923,0.0172295
-0.057959,0.0130047
-0.0540157,0.0324734
-0.0446559,0.0166062
-0.023918,0.00689599
-0.0149954,-0.0189366
-0.0429329,-0.0146443
-0.0656206,0.00867971
-0.052584,-0.010625
-0.00912559,-0.0234435
0.0135458,-0.0145049
0.0318781,-0.063527
0.0674544,0.00392601
0.148915,0.0290682
0.146953,0.0593843
0.0504017,0.0188809
-0.0562063,-0.0499481
-0.12102,-0.133398
-0.0802107,-0.0905915
-0.037164,-0.0859779
-0.0118917,-0.00643295
-0.000612809,0.058637
-0.0313342,0.0252026
-0.0542143,0.0698968
-0.0036432,-0.0100216
0.0710066,-0.109689
0.0875358,-0.0935231
-0.00322418,0.0313604
-0.00117266,0.0637379
0.0548402,0.0864201
0.0401431,0.101727
-0.013918,0.0360926
-0.0244674,0.00828759
0.00375579,0.0547453
0.0484509,0.0965351
0.074097,0.124159
-0.0278419,0.0537047
-0.122419,0.0474649
-0.117032,0.015958
-0.0651838,-0.058716
0.0147729,-0.0246044
0.00281232,-0.0336701
-0.0266093,-0.111477
-0.00613568,-0.0257942
0.0193811,0.0606591
0.0305196,-0.00815631
0.0570379,-0.00122432
0.0903485,-0.0358238
0.104869,-0.080791
0.0497638,-0.0179449
-0.0347328,0.0204621
-0.105069,-0.0408456
-0.112227,-0.0440819
-0.0532405,0.0473729
-0.0309523,0.117517
-0.0267556,-0.00644347
-0.0524646,-0.0651435
-0.054006,-0.0958841
0.00651539,-0.082799
0.0863107,-0.0843502
0.116205,-0.052178
0.017559,0.0013914
-0.0303155,0.0985887
-0.0146324,0.160345
0.0146514,0.0356158
-0.0111892,0.0117144
-0.0143102,0.0326835
0.0453957,-0.0252272
0.0508476,-0.0218664
-0.0646604,-0.0133908
-0.0863036,0.0396946
0.0270518,0.0566336
0.059775,0.032922
0.053182,0.015397
0.0680051,0.0105871
0.0651843,0.0021096
0.0170034,-0.0363402
-0.0118911,-0.0699187
-0.0446958,-0.0897251
-0.103767,-0.0445495
-0.0593,0.0307238
0.0363075,0.0579671
0.0429688,-0.0402896
0.0274719,-0.0552754
0.0430626,-0.0316009
0.00934036,-0.00748189
-0.0385626,-0.00252293
-0.0439176,-0.0188936
-0.0310845,-0.0790813
-0.0360482,-0.109769
-0.0545716,-0.00968617
-0.0268139,0.0822567
0.0498818,0.0923502
0.0920075,0.121513
0.0895625,0.0831842
0.0475132,0.069311
-0.0573485,-0.0222302
-0.0782867,-0.00796332
-0.0748054,0.0726997
-0.0447236,0.0354645
0.0149543,-0.00990629
-0.0177969,-0.151273
-0.0334552,-0.0851754
0.010127,0.0250765
0.0691611,0.0729337
0.0840693,0.0115219
0.0898883,0.0204286
0.11443,0.0493349
0.112322,0.00999997
0.0257704,-0.0185365
-0.0793563,-0.032323
-0.170757,0.0054672
-0.200573,0.00454011
-0.180989,-0.0213177
-0.073537,-0.0753147
0.0282582,-0.0903372
0.0651984,-0.0380605
0.0701611,0.012418
0.0498826,0.0762111
-0.0165749,0.0993808
0.00582483,0.00686848
0.0908193,-0.0571677
0.110884,0.00518251
0.0471695,0.0220758
-0.0339374,0.034331
-0.0482991,-0.00641351
-0.0518694,-0.0278111
-0.0433589,-0.0302988
0.0313916,-0.084835
0.0698422,-0.040313
0.0537179,0.0370663
-0.00838017,0.05847
-0.0463395,-0.00183923
-0.00709523,-0.0167524
0.0168063,-0.0302374
0.0637011,-0.0523618
0.0646761,-0.0635145
0.00402358,-0.0731675
-0.0646366,-0.00804403
-0.0446885,0.136971
-0.0131007,0.190117
-0.0406451,0.19365
-0.0755229,-0.0450795
-0.000498888,-0.0877726
0.0710317,-0.0389367
0.0437607,-0.00551546
-0.0225042,0.0130395
-0.0230565,0.0327001
0.0145873,0.0173937
-0.0035406,-0.0210303
-0.0768834,0.026085
-0.0581856,-0.00521233
0.0131253,-0.00793181
0.0423124,0.0112075
0.0207087,-0.0139308
-0.011676,0.0144207
-0.0392768,0.0289379
-0.0396017,-0.107589
-0.0121726,-0.122732
0.0146626,-0.115355
0.00672957,-0.103748
-0.00569447,-0.0639098
0.00556739,0.0010967
0.0361307,0.0519697
0.059019,0.105301
0.0723895,0.133558
0.0707642,0.125515
0.014706,0.0441328
-0.0282072,-0.0131758
-0.041413,-0.0149067
0.00953373,-0.0295008
0.135953,-0.0100466
0.0879669,0.00667065
-0.07307,-0.0239595
-0.138321,0.0449223
-0.091517,-0.0158347
-0.052822,-0.0686643
-0.0295686,-0.0419076
0.00402282,0.0431027
0.00176717,0.0931438
0.00059882,0.0386543
-0.0255875,0.009626
-0.0523512,-0.0501903
0.0400681,-0.0408384
0.106096,-0.0860866
0.0866505,-0.0776492
0.0320149,0.0128856
-0.0494769,0.0420963
-0.0605715,-0.000897714
-0.0198236,-0.0351809
-0.0067109,-0.00741638
0.00218708,0.0382506
0.0257826,0.0990184
0.0079101,0.0723537
-0.0176314,0.000314098
-0.0285938,-0.0701358
-0.000851443,0.00121186
0.0334281,0.0574964
0.0713931,0.0164197
0.0902286,-0.0347543
0.0441971,-0.0116822
-0.0420288,-0.00586265
-0.0664861,-0.0224348
-0.0132591,-0.0384762
0.0100923,0.00296115
-0.00131293,0.0383394
-0.0432102,0.0184394
-0.105452,-0.00370009
-0.108671,0.00637804
-0.0382527,0.0373556
0.00939847,0.0364198
0.0393734,-0.0385497
0.0748825,-0.0694485
0.0597624,-0.0594313
-0.00412493,0.0262776
-0.0535163,-0.0280686
-0.0650965,-0.0777768
-0.0204713,-0.092396
0.0518634,-0.0754208
0.0752041,-0.0140761
0.0943655,0.100383
0.10081,0.093663
0.102948,0.0965451
0.0577325,0.0326838
0.011486,0.0275139
-0.0360113,0.0478966
-0.114114,-0.00527332
-0.0892027,-0.035641
-0.0406419,-0.0291453
-0.0217743,-0.0347385
0.0279852,-0.0700577
0.0862916,-0.0193542
0.0465186,0.00471776
-0.0246165,0.0574004
-0.106184,0.0762276
-0.130057,0.0773798
-0.0731342,0.0424868
-0.0233719,-0.00165025
0.00312438,-0.00513795
0.015885,0.00138493
0.0217407,0.00528859
0.0157435,-0.00605994
0.009686,-0.0173246
0.00506818,-0.00909425
0.00495673,0.000119635
0.00787482,0.00465971
0.00384442,-0.0041166
-0.00676018,-0.0196787
-0.0124895,-0.0234347
0.0113086,-0.0128732
0.0542835,-0.00673261
0.0403394,-0.0279585
-0.0160079,-0.0551355
-0.0596264,-0.0688209
-0.0548376,-0.00831672
0.0100394,-0.0127643
0.0861672,-0.0454176
0.173454,-0.0395081
0.130198,-0.0848019
-0.0644089,-0.0772669
-0.117037,0.0372098
-0.0986703,0.0511927
-0.0484945,0.0205764
-0.00976656,0.0505413
-0.0110923,0.0382122
0.0412774,0.069339
0.0499036,-0.0596319
0.00676669,0.02483
-0.0439362,0.0565516
-0.00119649,0.0652917
0.0396083,0.0660183
0.0484236,0.0917193
0.00900575,0.0712368
-0.00277189,0.0318512
-0.0194907,0.027139
-0.0294636,0.000114933
-0.0131672,-0.00624876
-0.00260548,-0.0193342
-0.0126182,-0.0339843
-0.0130341,-0.0668523
0.010581,-0.0472288
0.0234033,-0.00485985
0.0188209,-0.120885
0.0153655,-0.0374608
-0.0104219,0.0285874
-0.0093747,-0.00318649
-7.55e-05,-0.00495885
-0.000119075,-0.00647739
0.00496666,0.000144199
0.00830434,0.00946863
0.0106987,0.00922715
-0.00225796,0.0051343
-0.0132374,0.00382209
-0.0140769,0.0102159
-0.0175576,0.0162708
-0.020964,0.0163749
-0.0201955,1.93e-05
-0.0164604,-0.0228342
-0.016132,-0.0317616
-0.0415328,-0.022911
-0.0407177,-0.00569787
-0.0392613,0.0118826
-0.00152532,0.0110525
0.0629305,-0.00447566
0.114034,-0.00734535
0.159031,0.004623
0.144227,0.0106641
0.0312135,0.00552985
-0.0264821,-0.0111179
-0.0600009,-0.00765335
-0.102714,0.00182406
-0.0903405,0.00419095
-0.0958856,0.0294529
0.02003,-0.0105463
0.133472,-0.0696118
0.11827,-0.0659261
0.00334271,-0.0858024
-0.126594,-0.0617418
-0.127057,0.095392
-0.0721974,0.176062
-0.0862314,-0.0293167
-0.0351641,-0.114654
0.0377546,-0.0792635
0.067225,0.030008
0.0541217,0.136263
0.0191676,0.052887
0.0237505,0.166579
0.0153201,0.0737546
-0.0080136,0.0256708
-0.0174216,-0.00597292
-0.0187952,-0.0225149
-0.0198698,-0.045962
-0.0111892,-0.0274639
0.00185764,-0.0220938
0.0113822,-0.0116293
0.0179244,-0.00469328
0.0250751,-0.00198716
0.042487,0.000237571
0.0337335,0.00255658
-0.000765075,-0.00713556
-0.0277585,-0.0181476
-0.0250317,-0.0260733
-0.00621826,-0.0185323
0.0201134,0.00196958
0.0341882,0.0122622
0.0205194,0.010806
-0.0131334,-0.000783018
-0.02216,-0.0274794
-0.0152785,-0.0555557
-0.0291689,-0.0652766
-0.028181,-0.0167575
-0.0028896,0.0394844
-0.00130645,0.0601583
0.0146403,0.0244603
0.00548692,-0.0354693
-0.01472,-0.039624
-0.00401408,-0.00074343
0.0312797,-0.0379557
0.14569,-0.0706858
0.189016,-0.0124995
0.174543,0.0111207
0.0833123,0.0532067
-0.0969417,0.0916957
-0.211846,0.0439515
-0.19076,0.0422621
-0.10405,0.0691447
-0.0476713,0.0649292
-0.038311,-0.0258691
-0.0383245,-0.026673
-0.0232581,0.0518644
-0.0015609,-0.0495902
0.0161869,-0.0486767
0.0132103,-0.0255436
0.0075116,-0.0295854
-0.0175647,-0.0157448
-0.0472968,-0.00583029
-0.0460803,0.00555689
-0.019703,0.00251408
0.0303889,-0.0213767
0.0796743,-0.0315211
0.0802418,-0.0525135
0.0497072,-0.026595
0.0373041,0.0138811
0.0614513,0.0187058
0.0397303,0.0188584
-0.0157326,-0.00541598
-0.0157389,0.00740119
-0.0020145,0.00474672
-0.00346156,0.0312609
0.00352986,0.0197096
0.0147939,0.00407933
0.0122015,-0.0521546
0.0256766,-0.106318
0.0166223,-0.00650497
-0.0188307,0.059857
0.00490379,0.0260839
0.0333036,-0.0233208
-0.00453679,0.00646143
-0.0675296,-0.00129762
-0.114128,-0.00658377
-0.0614359,0.012613
0.0275552,0.0927218
0.0124142,0.0791705
-0.0248913,0.0160486
-0.0366241,0.00602681
-0.0289946,0.057988
0.0224447,-0.0164369
0.0496683,-0.018302
0.0371725,-0.0382061
0.0800807,-0.0341856
0.151274,-0.028354
0.147443,-0.0286359
0.0316353,0.0408601
-0.130114,0.0246471
-0.179165,0.0305572
-0.144773,-0.0298728
-0.0724265,-0.0647039
-0.0106164,0.000738077
0.0405565,0.0781991
0.0710565,0.00606293
0.028928,-0.0137338
-0.0663439,-0.0460709
-0.0876569,-0.0432505
-0.0319175,-0.0217806
0.0560072,-0.0347479
0.0741362,-0.0339622
0.0510371,-0.0324424
0.000649112,-0.0614153
-0.0330099,-0.0102518
-0.0120632,0.0668752
0.00211835,0.0963668
-0.0056385,0.0494011
0.0044329,0.0329028
0.0100112,-0.00647631
0.0118413,-0.0316043
-0.0155132,-0.0141167
-0.0268584,-0.0161258
0.0108802,-0.0332315
0.0281977,0.032403
0.0282479,0.058836
0.0479355,-0.0386457
0.0423714,-0.0155647
0.0175258,0.0280773
-0.0313356,0.0540609
-0.0594985,0.0878389
-0.0641116,0.123469
-0.0213018,-0.0339136
0.080965,-0.102523
0.116925,-0.0757992
0.0484787,-0.061558
0.0173245,-0.0435607
0.0468881,0.0567468
0.0393125,0.0338579
0.0699022,-0.0305973
0.00556875,0.0106726
-0.112542,-0.00125114
-0.163567,0.00743668
-0.115693,0.0283638
-0.0681766,-0.0638565
-0.0157248,-0.00368431
0.00468739,0.0239347
0.0190113,-0.00560484
0.0171923,-0.0022909
-0.0240574,-0.00576672
-0.0367994,-0.000941931
-0.00256823,0.0211799
0.0310197,0.0112607
0.0896374,-0.0309834
0.11802,-0.0598975
0.0863706,-0.0531695
0.0369902,-0.00140994
-0.0365679,0.0103916
-0.0833696,0.042056
-0.084251,0.0108913
-0.0242803,0.0108312
-0.00458924,0.0173158
-0.00981642,0.0304533
-0.0197235,0.00498299
-0.0140772,0.0284803
-0.0223117,0.00627532
-0.00173868,-0.127242
0.0208219,-0.143424
0.0215354,-0.0481109
0.0292911,0.0348866
0.0263241,0.125222
-0.000823649,0.117216
-0.0142681,0.077998
-0.00259744,0.0318438
-0.00746914,0.0097852
-0.00770107,-0.00478893
-0.000507166,0.0237041
-0.0111663,-0.0589729
-0.0108067,-0.121789
-0.00270716,-0.0828933
-0.000558235,0.0606278
0.0183138,0.0964464
0.000779956,0.0127171
-0.00489524,0.0113396
0.00729164,0.0107728
0.00547613,-0.0197996
0.0264906,0.0238735
0.0373381,-7.34e-05
0.0352843,-0.0097846
0.0245987,-0.016174
0.0108416,-0.015188
-0.00880732,-0.048594
-0.0401692,-0.0269716
-0.0183203,-0.00873336
0.0156335,0.022596
0.0281929,0.101988
0.0305881,0.0811535
0.0833267,0.018573
0.140217,0.0127306
0.105149,-0.0320707
-0.00482389,-0.00508462
-0.156189,-0.0103227
-0.216129,-0.0387423
-0.127301,-0.0467508
-0.0680393,-0.0100471
-0.0497691,0.0298753
-0.0637177,-0.0102087
-0.0104631,-0.13419
0.0384293,-0.203038
0.0255316,-0.126527
0.0146633,0.0319376
0.00059558,0.159657
-0.0160447,0.124982
-0.00341365,0.0448282
0.0433487,0.0776269
0.0674922,0.0650661
0.0564769,-0.0118105
-0.0183251,-0.0260853
-0.0115808,0.0093984
0.0456408,-0.0168618
0.0252431,-0.0103515
-0.0483732,0.0144902
-0.0294828,-0.0418512
0.0353911,-0.0668779
0.0522957,-0.0423908
0.0217181,-0.0346047
-0.0163133,-0.0425394
-0.0306126,0.0137772
-0.0138739,0.0703491
-0.00771254,0.0970695
0.0136726,0.067828
0.0488363,0.00968425
0.0608353,-0.0349893
0.058516,-0.0595079
0.0282333,-0.0323297
0.0378924,-0.000408359
0.0660433,-0.0504037
0.00674511,0.0306202
-0.0762069,0.0832762
-0.110083,0.0934045
-0.0520363,0.0294177
-0.0159265,-0.0544376
-0.0406167,-0.0338919
-0.0639644,0.00354962
-0.0243004,0.0276751
0.0426652,0.00314263
0.068899,-0.0219563
0.0249098,0.0176437
-0.0237218,-0.0139826
-0.0458461,-0.073168
-0.0239423,-0.0635801
-0.00677938,0.012686
-0.0193791,0.110331
-0.0274187,-0.00744299
-0.00664999,-0.0624254
-0.00597899,-0.0371309
0.017731,-0.0226978
0.0301486,-0.00665554
0.0262667,-0.0366202
-0.00136419,-0.0801976
-0.0175712,-0.0053648
-0.00430758,0.0684969
0.0137319,0.0967288
0.00677241,0.134339
-0.0207269,-0.0216293
-0.0314221,-0.112582
-0.0339081,-0.0148179
-0.0238769,0.0277178
0.0256614,-0.0369609
0.0451722,-0.0240488
0.0267332,0.000879117
0.00852645,0.0170764
0.0195326,0.0654092
0.0486808,0.0507044
0.0748729,0.0258798
0.0788804,0.0264834
0.039138,0.0249521
-0.00755533,-0.0071806
0.00331565,-0.0216752
0.00806539,-0.0412386
-0.00225664,0.0119441
-0.0795488,-0.044599
-0.0690752,-0.0691357
-0.028759,-0.0326619
-0.0478376,-0.0263874
-0.0635498,-0.0746673
-0.0407878,-0.0282011
-0.0312418,0.101313
-0.0236809,0.0812797
0.00693243,0.0309811
0.0416227,0.0499522
0.0637907,0.0497137
0.0620183,0.0223531
0.0453333,0.0246223
-0.0041395,0.0929453
-0.0370035,-0.031314
-0.0275515,-0.0506278
-0.00114944,-0.0131405
0.0137761,-0.0795024
0.0386629,-0.0720895
0.0568365,-0.0821872
0.0258509,-0.12269
0.0074154,-0.142519
-0.0105573,-0.126112
-0.0459218,-0.0675171
-0.0635532,0.0753274
-0.0686138,0.220936
-0.0635685,0.238116
-0.0324085,0.165634
-0.00890156,0.0712753
-0.00870346,-0.0196801
6.81e-05,-0.0723027
0.00952793,-0.00819901
0.0166799,0.065582
0.02755,0.0244801
0.0519659,-0.109673
0.0793013,-0.125545
0.0852571,-0.0747413
0.0998767,0.0265056
0.0769192,0.0884023
0.0465614,0.0652943
0.0314573,0.0608152
-0.038876,0.0175806
-0.0758577,-0.0170091
-0.0974555,0.00504513
-0.107789,-0.0528108
-0.037842,-0.0897531
0.0417441,-0.052495
0.0686215,-0.0592949
-0.00222915,0.0122243
-0.120552,0.0475323
-0.161202,-0.0440208
-0.101338,-0.059236
-0.0551282,-0.0195752
0.0065613,-0.000148382
0.0649757,0.0882465
0.104358,0.080575
0.0833133,0.0524324
0.0379593,0.0669724
0.0281366,-0.0273402
0.0419708,-0.0655559
0.043619,-0.0267264
0.00907804,-0.0906886
-0.018634,-0.0419921
-0.00225655,0.00490252
-0.00785268,0.0355238
-0.0360466,-0.022844
-0.0754232,-0.0421707
-0.0770492,0.0318992
0.00379395,0.0690544
0.049453,0.0340729
0.0553961,-0.0691333
0.0395325,-0.0351063
0.044301,-0.00605421
0.0681111,0.0450194
0.0491229,0.100937
0.00476832,0.0854636
-0.0507847,0.0506142
-0.0651066,0.0526489
-0.0324547,-0.039442
-0.0191256,-0.0767263
-0.0272691,-0.0280876
-0.00204843,0.0154615
0.0308895,0.0151411
0.0260936,0.0122912
-0.038462,-0.0217101
-0.0693829,-0.0596643
-0.0538328,-0.0315606
-0.00327683,-0.0229381
0.04861,0.0187392
0.110409,0.010374
0.130326,-0.073433
0.0574208,-0.139273
-0.0275491,-0.0547952
-0.0374026,0.0824319
-0.0193593,-0.00881576
-0.090179,0.00609483
-0.133046,0.0892973
-0.100811,0.0313191
-0.0218973,0.0577025
0.0516043,0.0662863
0.131683,0.0219122
0.153625,0.027556
0.0692717,0.00793656
-0.019499,-0.0562741
-0.0986369,-0.101269
-0.114529,0.0184397
-0.0214751,0.101002
-0.0033072,0.00722251
-0.00931342,-0.0342701
-0.0147307,-0.00487026
-0.0103142,0.0487258
0.0169072,-0.0268765
0.00813908,-0.0400585
-0.0296826,-0.0324146
-0.0403012,-0.0191589
-0.0342961,-0.0071641
-0.0142238,0.0504618
-0.00236248,0.0321996
0.0290956,-0.00259734
0.0815059,0.0386495
0.0864176,0.00649449
0.0821707,-0.0123323
0.0548954,-0.0236612
-0.0322827,-0.0150532
-0.0265158,0.00717137
0.0997965,-0.00674058
0.11685,-0.0257292
0.0898702,-0.0199324
0.00851467,-0.0535586
-0.133045,-0.0529751
-0.162403,-0.0204733
-0.086634,-0.0291374
-0.0461008,0.00214072
-0.0573556,0.0499451
-0.0677582,0.0364326
-0.0480792,0.0735961
0.000554726,0.0497479
0.003475,0.0292222
-0.00869544,0.0037195
0.00401839,-0.031024
0.0323954,-0.0742474
0.0465621,-0.166227
0.0583273,-0.246545
0.0652086,-0.123375
0.0490533,0.0019075
0.0206722,0.145137
0.00987261,0.234164
-0.00377129,0.182046
-0.0178941,0.147163
-0.0282479,0.0447615
-0.00170941,-0.0503385
0.0355809,-3.71e-05
0.0405474,0.0337365
0.00168769,0.0339065
-0.03138,0.0201654
-0.0524914,0.027168
-0.0502825,-0.00083497
-0.0286391,-0.0255088
-0.00732954,-0.0228454
0.00779918,-0.0705655
-0.00796356,-0.0438226
0.0152271,0.0042511
0.0299347,-0.00570669
0.0241531,-0.0172911
-0.0116762,-0.0363669
-0.026605,-0.0300774
0.0132712,-0.0667072
0.0320956,-0.0715134
0.0305068,0.0124581
0.00223837,-0.000813398
-0.0143396,-0.000950197
-0.0388981,0.0452705
-0.0389001,0.0832296
-0.036357,-0.0110541
-0.0178786,-0.0181985
0.00181478,0.0146683
0.0240544,0.0191436
0.053329,0.0300742
0.05041,0.0245822
0.0396687,-0.0398375
0.0526126,-0.0253624
0.0407226,-0.0162171
0.00623509,-0.034898
-0.0166566,-0.0704331
-0.00398117,-0.0739159
0.0167235,-0.0472926
-0.00430608,0.0446511
-0.0504558,0.053156
-0.0288494,0.0412334
0.000649813,0.0425791
-0.0346836,0.0213288
-0.0555463,0.0156937
-0.0641073,-0.011414
-0.0332485,-0.0219516
-0.0134468,0.0537659
0.00840743,-0.0128664
0.0219679,-0.115274
0.0195478,-0.0444666
0.0281327,0.0866575
0.041157,0.0497042
0.0128053,0.0137023
-0.0160475,0.0298581
0.00322145,0.0196828
0.0197496,0.00597369
0.00243342,0.00472103
-0.00267328,-0.00450495
-0.0247946,0.0332389
-0.0450723,0.0485179
-0.0266187,0.0104771
-0.00600111,-0.021066
0.0115404,-0.0306644
0.0502288,-0.0339564
0.0698733,-0.0269407
0.0496135,-0.0139565
-0.0272306,-0.0101839
-0.0632669,-0.0154993
-0.0501986,-0.0307727
-0.0338731,-0.0387248
-0.0316705,-0.038099
-0.0282892,-0.0262088
0.0343024,0.0428357
0.0769467,0.0382131
0.0480619,-0.00346177
0.000976858,0.0563782
-0.0139261,0.0660264
0.00948916,0.00901859
0.0328986,0.0147282
0.0616078,-0.0215292
0.0696563,0.0152471
-0.0116899,0.013247
-0.0980241,-0.00869837
-0.0943253,-0.0130025
-0.0494079,-0.0461272
-0.0197534,-0.0503835
-0.00508818,-0.0422413
0.0298115,-0.0250358
0.0406558,0.0172167
0.010096,0.14787
-0.0157313,0.077107
-0.0174661,-0.0621088
0.00341815,-0.0168431
0.00178095,0.000561284
-0.0289223,-0.0210271
-0.0415317,-0.0339544
0.0373326,-0.0312692
0.112452,-0.0132204
0.115714,0.00342954
0.07947,-0.0326718
0.0298335,0.0104375
0.0153621,0.0495991
-0.0394511,0.0258932
-0.0942088,-0.0136394
-0.0332645,-0.0419649
-0.0325194,-0.0593726
-0.0870569,0.00244395
-0.0771662,0.0619083
-0.0189904,0.00827361
0.00925564,0.0181487
-0.00146041,0.0128233
-0.0176832,0.0152814
-0.00485098,0.0505569
0.0240587,0.0520683
0.0617954,-0.109363
0.0257017,-0.0375562
-0.0503259,-0.0507659
-0.0555343,-0.0293447
-0.0199442,0.0503108
0.0175006,0.0357899
0.0475209,-0.0368955
0.0707585,-0.0103929
0.0717279,0.0273344
0.0344832,0.0319433
-0.000960986,0.0521529
-0.0392046,0.0695891
-0.0816877,-0.000960263
-0.0778922,-0.0395192
-0.0301124,0.0186946
0.0151175,0.0251294
0.0484073,-0.0119173
0.0681957,-0.0155433
0.0136835,0.0310232
-0.0455095,0.0371542
-0.0281285,-0.045432
0.0338778,-0.0440639
0.0887596,-0.0331274
0.122715,-0.009527
0.0925167,0.0190841
-0.0084369,-0.00483044
-0.13402,-0.0836341
-0.140469,-0.0487744
-0.0505207,-0.0306602
0.0591572,0.0158989
0.093607,-0.020575
0.057564,-0.0593301
-0.0175288,-0.00384529
-0.115471,0.117167
-0.170024,0.125503
-0.146455,0.0652403
-0.0410469,-0.0204774
0.0709043,-0.0700229
0.0811769,-0.0240632
0.0797895,0.018045
0.0832632,-0.0125361
0.0500081,-0.0515961
-0.00612005,-0.092237
-0.0133241,-0.0208924
-0.0124525,-0.0437834
-0.00285097,0.0411988
0.0215231,0.0666334
0.0507714,0.0364164
0.0609828,-0.0503447
0.0264679,-0.105835
-0.0316339,-0.0182544
-0.0738019,0.0481801
-0.0534555,0.0749504
-0.00869923,0.0763059
-0.0277436,0.070375
-0.0241719,0.0517103
0.00498628,-0.0315924
0.0421323,-0.0676078
0.0475841,0.0533844
-0.00648546,0.0907746
-0.0434022,0.0152395
-0.0419785,-0.00850796
-0.0409633,0.0605813
0.0113961,0.0211651
0.0717726,-0.0578218
0.0620394,-0.0627073
-0.00721881,-0.0428869
-0.0594851,-0.00438983
-0.0405432,0.00935672
-0.003203,0.0112694
0.0122238,0.0186355
0.0223248,-0.0365035
0.0165926,-0.0188197
-0.0182302,-0.00879426
-0.0263368,-0.000863594
0.0135295,-0.0298052
0.0226919,-0.0943388
0.00960997,-0.0452469
0.0333157,0.0161244
0.0636061,0.023313
0.0195188,0.0399181
-0.0607667,-0.00715661
-0.0372141,-0.0193455
0.0491175,0.037664
0.0616736,-0.000478372
0.00561423,-0.0144211
0.00154791,0.0252943
-0.00923648,0.0596903
0.0619762,0.0316087
0.0833348,0.0138851
-0.0012525,-0.00853181
-0.106861,-0.0338655
-0.134863,-0.0263534
-0.0656618,-0.000331621
-0.0371358,-0.0135969
-0.0173268,-0.00696215
-0.00122763,-0.00597016
-0.0291345,0.0132772
-0.0517192,-0.0281098
-0.0426767,-0.0590363
0.0178836,-0.0546818
0.0628188,-0.00955661
0.0423721,0.0241466
0.0133309,0.0117783
-0.0161108,0.0448379
-0.00972655,0.0467138
0.00996704,0.0616492
0.0167123,0.0508589
0.0224627,0.0075827
0.0284386,-0.0237073
0.0462056,-0.0277462
0.0553171,-0.023999
0.0360857,-0.00836935
0.0234402,0.0425431
0.0203442,0.0325575
-0.0217299,-0.0238051
-0.0576254,0.00915255
-0.0657409,0.0542383
-0.0257135,-0.0625653
0.0238615,-0.0410881
0.05132,0.027187
0.0509248,0.0590429
-0.00890942,-0.0490796
-0.0560455,-0.0616592
-0.00779433,0.0137253
0.039409,0.0872757
0.00262599,0.0494983
-0.0868521,-0.0219977
-0.110688,-0.0120596
-0.039213,-0.00817793
0.00497542,-0.0303285
0.0186112,-0.0380117
0.0112248,-0.0433886
-0.00228596,-0.0877246
0.0188363,-0.177103
0.0639075,-0.107709
0.122855,-0.0155413
0.14141,0.0427227
0.0767803,0.0583553
-0.0170633,0.115862
-0.0706491,0.160738
-0.100365,0.133243
-0.114225,0.0386566
-0.0629965,0.0201899
0.0155321,0.00607955
0.0353823,-0.0352902
0.0284884,-0.00902623
0.0040878,0.00905014
-0.0237535,-0.0360408
-0.0547175,-0.0503564
-0.0514928,-0.0195132
-0.0153415,-0.031977
-0.00596509,0.011825
-0.0230557,-0.0388273
-0.0319287,-0.0376143
-0.0231366,0.0319297
0.101685,0.0307907
0.178055,0.10234
0.105277,0.0914599
0.0190751,-0.108875
-0.0295017,-0.0801641
-0.0373165,-0.0293678
-0.00949248,-0.0207304
0.0341777,0.0295463
0.0512479,0.109049
0.00675934,0.0054774
-0.0609117,-0.000878645
-0.0872365,0.00819323
-0.0823227,0.00239112
-0.0510096,0.0222658
-0.0348158,-0.0085772
-0.0190311,-0.0326159
0.0191681,-0.0108079
0.0451678,-0.033379
0.0453438,-0.0414086
0.0226291,-0.0100751
0.0414589,-0.00923963
0.0202073,0.0213472
-0.0123226,-0.0102955
-0.0148283,-0.062823
-0.03001,-0.091442
-0.0412013,-0.048462
-0.0153743,-0.0356854
0.01536,-0.00485383
0.0289717,0.00991399
0.0459969,0.063405
0.0490634,0.0504217
0.0114654,0.0419837
-0.0414719,0.0769495
-0.0521458,0.0905142
-0.0110381,0.0107702
0.0312504,-0.0286105
0.048026,-0.0402757
0.0331131,-0.0234329
-0.00820388,-0.036146
-0.0569847,-0.0298764
-0.0645812,-0.0298703
-0.0461116,-0.038959
-0.00294408,-0.0225624
0.0474431,0.0151657
0.0397247,0.127559
-0.00167458,0.124687
-0.0511131,0.0525309
-0.0641708,0.00346648
-0.00284585,-0.0123249
0.0189096,0.00109278
-0.0321342,0.0159642
-0.0730389,-0.0304503
-0.0111272,-0.065898
0.0932981,-0.0609667
0.109611,-0.0212503
0.0839802,0.0416276
0.017834,0.0407358
-0.0450224,-0.044871
-0.00358492,-0.0375332
0.0298275,-0.0384637
0.0467832,-0.0555442
0.0358279,0.00574784
0.0193346,0.0940682
-0.0239904,0.0409185
-0.100907,-0.0423762
-0.129209,-0.0289922
-0.0629932,-0.0416385
0.00977985,-0.0271947
0.0282856,0.0104256
0.0211992,0.0381033
0.0248364,0.0374453
0.0343621,0.00769526
0.0296744,0.00843453
0.0107905,0.00893946
-0.0194464,-0.00458859
-0.0213082,-0.0064864
-0.00835436,-0.00481792
0.00449302,-0.00299796
0.0217134,0.0418455
0.0633836,0.0226807
0.104722,-0.0271212
0.0756132,-0.0380528
-0.0383369,0.000599037
-0.149806,-0.00166542
-0.123935,-0.0167705
-0.0344618,-0.0107414
0.0064985,0.0156255
0.00109122,0.029929
-0.0272708,-0.00639963
-0.0309488,-0.0122496
-0.00692545,-0.0137685
0.0129635,0.00101152
0.0151551,0.043256
0.0205872,0.0248543
0.0370709,0.00381865
0.0419167,-1.85e-05
0.0257364,-0.0657216
0.0197868,-0.0531138
0.0350574,0.0662547
0.0825573,0.0366966
0.136075,-0.0571948
0.123425,-0.0296602
0.0265865,0.00971234
-0.109101,-0.00111161
-0.20026,0.0183271
-0.181665,0.0576005
-0.0710156,0.0162368
0.0238043,-0.0234021
0.0458901,-0.0141217
0.00960031,0.0441135
-0.00689989,0.0538931
-0.017889,-0.0340889
-0.0189267,-0.0600666
-0.00118638,0.018463
0.00308773,0.0509814
0.0361076,-0.0319101
0.103734,-0.0576339
0.102381,-0.0685956
-0.0126357,-0.0372129
-0.12545,0.0759293
-0.0866338,0.0600391
0.0116611,0.0389612
0.0588413,0.0387502
0.0745544,0.0100688
0.0545513,-0.0289198
0.0126608,0.00162296
-0.0301918,-0.00215271
-0.0348082,-0.026138
-0.0180915,-0.0157585
-0.0337605,-0.0811179
-0.045505,-0.0972678
-0.0183099,-0.0266092
0.00795212,-0.0369653
0.0145839,-0.0405809
0.0134141,0.0926762
0.0101502,0.103203
0.00201713,0.0121816
-0.00504039,0.0140241
-0.00166675,-0.00458888
-0.014283,-0.00201822
-0.0405636,-0.0375065
-0.027849,0.0170126
-0.0128791,0.122529
0.0103126,0.0711202
0.0139338,-0.0322796
0.0252703,-0.0215136
0.0663741,0.0392382
0.0765212,-0.00434771
0.0508091,-0.0163808
0.0263471,-0.00711538
-0.0242189,-0.0145837
-0.0565713,-0.01545
-0.0670359,-0.00862258
-0.0562773,-0.0263431
-0.0403389,0.00157638
-0.0152184,-0.0254891
0.0282455,-0.0448473
0.0414988,-0.0416797
0.00677169,-0.0267176
-0.0281762,-0.0288991
0.014598,-0.0181335
0.107795,0.0448209
0.140709,0.0423234
0.0490506,-0.0285782
-0.0558742,-0.00725065
-0.0677467,0.00269829
-0.0638643,0.0276564
-0.0854871,0.0086997
-0.0618786,0.0442323
-0.00403593,0.0274022
0.0389315,-0.00771839
0.0345425,0.0324841
0.00944696,0.0484458
-0.00675133,-0.0366427
-0.00832379,-0.0323757
-0.00213163,0.00718083
0.0181493,-0.0218929
0.0496242,-0.0127633
0.0417624,0.00853777
0.0108893,0.0465138
-0.00745379,0.032895
-0.0865649,0.000277036
-0.132534,-0.0143002
-0.0861131,0.0067489
-0.00978437,-0.00779168
0.0474977,-0.030667
0.0525537,-0.0438701
0.0543924,0.00529517
0.0692021,0.00506561
0.0725161,0.0016269
0.0445766,-0.0486299
-0.00135374,-0.0945012
-0.0255177,-0.0165159
-0.0482656,-0.0132823
-0.0764066,-0.0284623
-0.0479953,0.034442
0.0192181,0.0891543
0.0540987,0.0791988
0.0219155,-0.0219672
-0.0531449,-0.0801298
-0.110496,-0.0399939
-0.0449298,0.0608435
0.0148179,0.0961246
0.0441936,-0.0100483
0.0447545,-0.0307967
0.0392357,-0.0232748
0.0605155,0.025155
0.0498294,0.0760522
0.0207478,0.0262964
0.036902,0.0413287
0.0368195,0.0948714
-0.0286303,0.0163266
-0.0770366,-0.0186532
-0.0989089,-0.0556284
-0.073792,0.00585618
-0.0453304,0.0161914
0.00642841,-0.0261031
0.0679886,-0.0457431
0.0888472,-0.0371671
0.0882182,-0.0358518
0.0597787,-0.0231015
0.0114706,0.00794917
0.0265598,0.026694
0.0722071,0.00891243
0.0142661,-0.031407
-0.0284304,-0.125104
-0.0182336,-0.124388
-0.0157577,-0.0244515
-0.0571109,-0.00334809
-0.0786447,0.0642759
-0.0617164,0.0898973
-0.0245091,0.0699861
-0.00466079,0.0218066
-0.0172932,-0.0432251
-0.0530201,-0.0327238
-0.0569701,0.0256025
-0.0325673,0.0834877
-0.00648786,0.041957
0.0150606,0.0273753
0.0309554,-0.0277347
0.035795,-0.045586
0.00587893,-0.0033077
-0.0204051,0.0372711
-0.0282006,0.0197935
-0.0226334,-0.0520352
-0.0051979,-0.0487057
0.0306521,-0.0823326
0.074178,-0.0657635
0.0996513,0.059345
0.0756464,-0.0144823
0.076432,0.0438438
0.0182545,0.0599523
0.00464519,0.0628097
0.0339143,0.00314469
-0.00636245,-0.0145066
-0.0599237,0.040727
-0.0783566,0.0537023
-0.073838,-0.0148622
-0.0640054,-0.0415458
-0.0284039,-0.0273272
-0.0226739,-0.019869
-0.0313471,0.0122833
-0.0152316,0.0323637
-0.0126197,0.0097882
-0.00317255,-0.0301234
0.032085,-0.0211556
0.0508941,0.0151488
0.0128442,-0.0498501
-0.00636942,-0.0488138
0.00634002,0.0145549
0.0370357,-0.0468001
0.0371906,-0.109952
0.0114843,0.00457025
-0.0326323,0.108751
-0.0489719,0.0305999
0.00179215,-0.0446906
0.0391631,-0.0107846
0.0414315,0.0371094
0.0157076,0.0784599
-0.00252608,0.0597457
0.0336139,0.0464788
0.0526633,0.0142966
0.0144614,3.87e-05
-0.0344432,-0.0262563
-0.0586905,-0.0479847
0.00921996,-0.0483597
0.0553643,-0.00544122
0.039161,0.0196623
0.0079615,0.0399743
-0.0453556,0.0182977
-0.0904036,-0.0050743
-0.0632238,-0.00389098
-0.0180693,0.0260814
-0.0238477,0.0231541
-0.0245474,-0.0186019
-0.0165789,-0.0115221
0.00264572,0.00608539
0.0174491,-0.042014
0.0372714,-0.0795296
0.091493,-0.102376
0.0901982,-0.0423697
0.0260883,0.00577733
-0.0121203,0.0162285
-0.092425,0.0189594
-0.103382,0.0636734
0.00586165,0.0518527
0.0505781,0.0314541
0.0533493,0.0167725
0.0428944,-0.0221937
0.0170281,-0.0155135
0.000810691,0.00892128
-0.0188481,0.0214851
-0.0287691,-0.00121362
-0.0441912,-0.0096096
-0.0392464,-0.0116262
-0.0228329,0.00555868
-0.031428,0.00609798
-0.0300688,-0.0347776
-0.0135358,-0.0615295
0.0209288,-0.0147311
0.0438708,-0.0179693
0.0291141,-0.00250428
-0.00177152,0.0271912
-0.00826827,0.026569
0.0180326,0.0471165
0.0135479,0.109101
-0.0375575,0.0834316
-0.0755836,-0.0261734
-0.0210078,-0.0451467
0.0280668,-0.0202765
0.0887101,0.000745534
0.0936398,-0.00165527
0.0528053,0.000428468
-0.0170096,-0.0231549
-0.0785233,-0.0293679
-0.0637921,-0.0356981
0.0241652,-0.025767
0.0610504,0.0139598
0.0416193,0.0125158
0.0180722,0.0184442
0.00993452,-0.0318352
-0.0104727,-0.00108704
-0.0175104,0.0111015
0.00899955,0.00230525
0.0135555,0.00330803
0.00820744,0.00173631
-0.0650579,-0.00329369
-0.0780895,-0.00625396
-0.0581019,0.0103566
-0.0448702,0.0148395
-0.0158738,-0.0138601
0.00666212,-0.0166414
-0.00051478,-0.0260586
-0.00635596,-0.0047095
0.0299414,0.0489983
0.0472259,0.0518783
0.0307917,-0.0080235
0.0154407,-0.0179174
0.0109596,-0.0149034
0.0185062,-0.00317251
0.0322852,-0.00319499
0.0275798,-0.00336101
0.00742574,-0.00608025
0.00444175,-0.016809
0.0313966,-0.0276669
0.0234519,-0.00490043
-0.008172,-0.0360278
-0.0238505,0.0408808
-0.025539,0.0119599
-0.0255598,0.00488331
-0.0486137,0.0224353
-0.0669558,0.0169747
-0.0374943,-0.0401361
0.0536241,-0.0240045
0.106728,0.00883934
0.0819664,0.029469
0.0245139,0.0464209
-0.0710248,0.0435958
-0.115015,0.0266108
-0.0537766,0.0134243
-0.000899461,-0.0335815
0.0131026,-9.6e-06
0.004302,0.0153897
-0.00705596,-0.0325707
-0.0272702,-0.0684552
-0.0452833,-0.0537074
-0.0213734,-0.0189295
0.00470291,0.0158145
0.0192682,0.0352017
0.0206558,0.0466526
0.0151299,-0.00893896
0.0430569,-0.0161446
0.0492186,-0.0216354
0.0303052,-0.0166161
0.0259462,0.0238222
0.00406065,0.0480812
-0.0350619,0.0213795
-0.04551,0.0266234
-0.0435578,0.0495684
-0.0130599,0.00646807
0.110667,-0.0480369
0.220767,-0.0201377
0.147126,-0.0121429
-0.0235151,0.00147385
-0.178866,-0.0397672
-0.181252,-0.036457
-0.095384,-0.0288826
-0.0192231,-0.0360615
0.0132016,-0.00538616
0.00965723,0.0574621
0.0230024,0.0261197
0.0317824,-0.0439527
0.0103966,-0.0136033
-0.0119099,0.0254758
-0.0132093,-0.00100721
-0.0144132,-0.0223444
-0.00629502,-0.0017972
-0.00400995,-0.00389761
-0.0118146,0.0298611
-0.00918309,0.0391458
0.00635919,0.0152915
0.0287845,0.0475986
0.0610718,0.0340292
0.0746162,-0.0375542
0.0526408,-0.0778871
0.00708466,-0.0433072
-0.0297186,0.022599
-0.0422296,-0.00345352
-0.0546867,0.0213588
-0.0391922,0.0200876
0.00362454,0.0106751
0.0313079,0.0330228
0.0149432,-0.00970231
-0.00921691,-0.0201076
-0.0112721,-0.0664906
0.0260109,0.0045823
0.0417326,0.0704715
0.0117618,0.0164113
-0.023173,0.0144908
-0.0318928,-0.00741987
-0.0325799,0.00786704
-0.0375122,-0.00573782
-0.0196285,-0.0370579
-0.00191849,-0.0195524
-0.0119234,0.00726032
-0.015398,0.0327001
-0.0119504,0.0279091
0.00119209,-0.0105987
0.0218058,-0.0211475
0.0314212,0.000741444
0.0325265,0.0289906
0.0340669,0.00866721
0.0282117,-0.00951669
0.0431731,-0.0407643
0.0528884,-0.00329662
0.00567912,0.00975551
-0.0534698,-0.00576749
-0.0688425,-0.0109839
-0.0407459,-0.0255662
-0.015024,-0.0375762
0.0162253,-0.00466912
0.0234071,0.0300654
-0.00212996,0.0248015
-0.0239986,-0.00869863
-0.0317218,-0.0104872
1.93e-05,0.00747807
0.0614662,0.00436435
0.0644525,-0.00270723
-0.00389821,0.00284337
-0.0424347,-0.0194983
0.00372277,-0.0166611
0.0345566,0.0138767
0.00590045,0.0257212
-0.0490618,0.0208503
-0.0660334,0.00737837
-0.0440991,0.0037849
-0.0171414,0.00722735
0.0144991,-0.0106197
0.0233972,0.0152239
0.00775839,0.0486074
-0.014073,-0.00142213
-0.0384901,-0.0467376
-0.0280843,-0.0213429
-0.0112724,-0.0107497
0.00710043,-0.00852963
0.0384963,-0.0171924
0.0580749,-0.049817
0.0658618,0.0346358
0.0483928,0.0839681
0.0394424,-0.00272352
0.041016,-0.0378842
-0.00914178,-0.00296537
-0.0186559,0.00413014
-0.00292756,0.024896
-0.023821,-0.000914383
-0.0483376,-0.0215241
-0.0501152,0.0183889
-0.0542752,0.0136086
-0.050938,-0.0125921
-0.0252364,-0.00681186
-0.00687207,-0.00160661
0.00596823,-0.00871736
0.0199857,-0.0172233
0.0321194,0.00377246
0.0229905,0.0235475
0.000964674,0.03441
-0.00537562,0.00105545
-0.000690778,-0.00450951
0.0145717,-0.00339515
0.0359938,-0.0166707
0.0466362,-0.0172308
0.0299261,-0.0107428
-0.0144329,-0.035233
-0.0338304,-0.0736636
-0.0266388,-0.0209644
-0.00396812,0.052228
0.0236171,0.00314913
0.0355584,0.0170667
0.0237925,0.0144095
-0.00283599,0.0368847
-0.0163244,0.0171952
-0.00834729,-0.0268408
-0.010841,-0.00181918
-0.0166178,0.00873796
-0.00361366,-0.00931479
0.000823484,0.0122186
0.00857846,0.0306818
0.00966612,-0.0025783
-8.57e-05,-0.00523224
-0.0132514,0.0404071
-0.028597,0.0230212
-0.0269784,0.00768319
-0.0168817,-0.00405097
-0.00869032,-0.00922931
-0.00884977,-0.013181
-0.0113811,-0.0060793
-0.0106192,0.0050881
-0.00722766,-0.0381401
0.028668,-0.0130296
0.116614,0.0153203
0.141866,0.00791419
0.0648854,-0.00202639
-0.0177748,-0.00481207
-0.0247906,-0.00655313
-0.00326749,-0.0100065
-0.0507929,-0.0162192
-0.0954697,-0.000604591
-0.0833272,0.0204729
-0.0192874,-0.00493076
0.00259613,-0.0118229
-0.00657616,-0.0202999
-0.0272008,-0.0234752
-0.0313024,-0.0217466
-0.0133522,-0.0221174
-0.00315156,0.00235679
-0.0145066,0.0306796
0.00353083,0.0195063
0.0227145,0.0107695
0.0196282,-0.0044206
0.00428065,-0.0105263
-0.000462374,0.0126547
0.0387146,0.0326016
0.0692452,0.0176428
0.0615226,0.015877
0.0580772,0.0179411
0.0527274,0.0127732
0.020623,-0.0117682
-0.0154219,-0.000882305
-0.0384189,-0.00848026
-0.0537399,-0.0208663
-0.0580035,-0.0181225
-0.0631733,-0.00653959
-0.0643112,-0.0167814
-0.0272692,-0.0446034
0.000978503,-0.0320593
0.0199501,-0.000442541
0.0194457,0.0428096
0.000172885,0.0484048
-0.010624,-0.0253013
0.00158457,-0.0529213
0.00296877,-0.0147686
-0.00456289,0.0719101
0.005821,0.023688
0.0230647,0.0202175
0.0309882,0.0271803
0.0194466,0.008407
0.00545108,0.000109041
0.00339943,-0.000615376
0.0196553,0.018066
0.0253555,0.0180546
0.0198037,0.0178577
0.00479188,0.014868
-0.00692604,0.00216667
-0.0111213,-0.00753479
-0.0283831,-0.00412992
-0.0420696,-0.00915638
-0.0422323,-0.0296716
-0.0224585,-0.0449186
0.00405042,-0.0563408
0.00178509,-0.0503323
0.000942312,-0.0292996
0.0156758,-0.000671971
0.0243994,0.01604
0.028231,0.0169797
0.00853677,0.0168798
0.00248082,0.0220166
-0.00106782,0.0168262
-0.00291834,0.0076001
-0.00868658,0.00287216
-0.0307237,0.00326055
-0.0523825,-0.00325613
-0.0515138,0.0129762
0.0165291,0.0328321
0.0758341,0.022201
0.0539215,-0.00313087
0.00724509,-0.0289866
0.00153843,-0.0337087
0.00993726,-0.0395655
-0.00405813,-0.0431776
-0.00900668,-0.0150699
-0.000312226,-0.000185437
-0.00161723,0.0119126
-0.000257081,0.019385
-0.000696831,0.0354287
0.00561509,0.0249729
0.0102827,0.00490858
0.0143336,0.0116755
0.0295447,0.0208714
0.0202738,0.029565
-0.0149981,0.0207998
-0.034732,0.00758699
-0.0362792,0.00610099
-0.0257112,-0.012477
-0.0122618,-0.0205874
-0.000448383,-0.0110527
0.0191129,-0.0126606
0.0132429,-0.0119786
0.000785955,-0.00149169
0.0212543,0.000427236
0.0253996,-0.000376682
0.00956916,0.00186624
-0.000137931,0.00762874
-0.00378628,0.0154965
-0.00586929,-0.00439148
-0.00491419,-0.00376724
-0.0115899,-0.00343749
-0.0147369,-0.0216835
-0.0157026,-0.0162969
-0.0126585,0.000683267
-0.0100316,-0.00724912
0.0041957,-0.00851068
0.0363848,-0.00620672
0.0519339,-0.00776613
0.0375105,-0.00782701
0.00739943,-0.00769464
-0.0553719,-0.00578563
-0.0968608,-0.00177335
-0.109568,0.000722557
-0.121549,-0.000187713
-0.0514117,-0.0052515
0.0947533,0.00307961
0.144959,0.0265458
0.0773626,0.0393407
-0.0175861,0.0363911
-0.0221494,0.0308883
