Comp Ch 3,Comp Ch 4
0.186742,0.000581259
0.152366,0.00179472
0.0763333,-0.0271073
0.0199742,0.0180259
0.130051,0.0487765
0.128806,0.0342508
-0.0104637,0.0154548
-0.1555,-0.0551485
-0.137906,-0.0818689
-0.00234078,0.00246038
0.0153527,0.0873742
-0.0483914,0.0630469
-0.130814,0.0187102
-0.131696,0.00679597
-0.0520286,0.000668088
-0.0231155,-0.0380792
-0.023222,-0.0616784
-0.0209059,-0.10434
-0.00814749,-0.0808482
0.0297178,-0.0364411
0.054055,0.0205457
0.0189761,0.0882743
-0.0447402,0.114335
-0.0451031,0.0330336
0.0104006,0.0468967
0.117695,0.0278628
0.137516,0.00708633
0.0520773,0.0125424
-0.0532703,0.0328168
-0.0668348,0.00500357
-0.0646999,-0.0207716
-0.0596538,-0.0149654
-0.0339033,-0.098347
0.00210139,-0.0689475
0.0258917,-0.0312183
0.124742,-0.0178312
0.236888,0.0499079
0.201407,-0.0129401
0.026574,-0.0440505
-0.0771682,-0.0868767
-0.0864356,-0.149861
-0.0437374,-0.0820733
0.00570161,-0.0630173
0.0110652,0.0537954
0.0503616,0.184936
0.0601223,0.212166
0.0367117,0.200386
-0.0457388,0.0576265
-0.108851,-0.0509602
-0.0335345,-0.0744597
-0.0236297,0.0264622
-0.0659269,0.0532877
-0.0622645,-0.0240656
-0.0755345,-0.109711
-0.0334752,-0.00233272
0.0239336,0.0652733
-0.00259386,0.00517667
-0.0215409,-0.0300626
0.0222322,0.00122615
0.0809858,0.0157191
0.113104,-0.00826183
0.0852142,-0.0187747
0.0300006,-0.0444553
-0.0625052,-0.0773313
-0.0636193,-0.0672071
0.0127407,0.00137174
0.0365792,0.123171
-0.0190665,-0.0607183
-0.0658962,-0.0489029
-0.078499,-0.011566
-0.0412225,0.00381095
-0.00350963,0.0268285
-0.0102026,0.0177822
-0.00697055,0.0329714
0.0303678,0.0122055
0.0755186,-0.0442504
0.0941316,0.0502146
0.0850011,-0.00611513
0.0528998,-0.0716109
-0.0210478,-0.0802096
-0.0746206,0.0441426
-0.043108,0.0801953
-0.0264488,0.0108429
-0.0171179,-0.00226653
-0.0325068,-0.0279944
-0.0208352,-0.0345114
0.00721348,0.000714447
0.0457917,0.022154
0.0318381,0.0151207
0.0420069,0.0425729
0.0558018,0.095227
0.0154886,0.0216146
-0.0715935,-0.043231
-0.154032,-0.0131669
-0.234613,-0.01619
-0.194954,-0.0162591
-0.0736168,-0.0130309
0.0972321,-0.0105552
0.180638,0.00363354
0.152484,-0.0182789
0.109747,-0.0337331
-0.0397389,-0.0335412
-0.0984937,-0.0303192
-0.0633487,-0.0467952
0.0220019,-0.0363012
0.143217,0.0528521
0.220848,0.0725672
0.127023,0.0455677
-0.010311,-0.0108573
-0.0890101,-0.0454888
-0.106069,0.0670473
-0.0298337,0.0847101
0.10241,-0.0666782
0.0591608,-0.0564014
-0.0129994,-0.0204453
0.0239949,-0.0198613
-0.0145537,-0.00352011
-0.038396,0.0214734
-0.016519,0.0298486
-0.0558407,-0.00260333
-0.0809787,0.0303649
-0.0839767,0.0335601
-0.0743878,0.0142025
-0.0210961,0.00296481
0.015277,0.0151213
-0.0489675,0.0246498
-0.0687245,0.0157856
-0.050731,-0.00886349
-0.0348017,-0.0126354
0.0122079,-0.0385514
0.0417724,-0.0211533
0.0347275,0.0134456
0.0137025,-0.00246533
-0.0593885,-0.0275669
-0.0399029,-0.00117281
0.0266901,0.000453663
0.107267,-0.0276854
0.165031,-0.0389332
0.177452,0.0219954
0.0779796,0.0397104
-0.0693226,0.0333593
-0.184743,0.0176579
-0.196458,-0.00207907
-0.087495,-0.0149061
0.0555366,-0.0219312
0.163136,-0.00747862
0.112185,-0.0114275
0.0946342,-0.0204793
0.157149,-0.0244787
0.148001,-0.0438281
-0.0642899,-0.00514885
-0.268914,0.0134423
-0.228871,0.0105137
-0.0322599,0.011684
0.0471702,0.0025028
0.00134106,0.00664968
-0.0133034,0.0423335
0.0218513,0.0052668
0.0461635,-0.000729986
0.0319479,0.0605085
0.00762279,0.0320496
0.0252674,-0.0341369
0.0506221,-0.044919
0.0586973,-0.033039
0.030319,0.0449263
-0.053154,-0.0148189
-0.0693318,-0.0446103
-0.0191874,-0.0841783
0.0442405,-0.10849
0.0565412,-0.000684066
0.0078208,0.0822589
-0.0537193,0.0567759
-0.0380449,0.0286444
-0.0312955,0.100416
-0.0674999,0.0894474
-0.0678461,0.044121
-0.0444495,-0.00729563
-0.0283258,-0.021919
0.0609487,-0.0075909
0.182044,0.0104655
0.164306,0.0243936
0.0422546,-0.0392142
-0.138272,-0.0583825
-0.192025,-0.047788
-0.0174436,-0.0589111
0.123092,-0.0500607
0.0901091,-0.0147303
0.00602839,-0.039136
-0.0507071,0.00290139
-0.0499567,0.0623726
0.028847,0.0742986
0.102543,0.0749572
0.100545,0.0193275
-0.0419803,-0.0699068
-0.195882,-0.0761726
-0.202318,0.00133892
-0.109335,0.0307509
0.0465732,-0.0446151
0.0775602,-0.0560889
0.00451247,-0.0241934
0.00873542,0.0408894
0.017626,0.10842
0.0138302,0.031444
0.0245169,-0.00822491
0.0451226,0.0308507
0.0481377,0.0422553
0.0564545,-3.83e-05
0.0648131,-0.0497937
0.0505576,-0.0260399
0.0272387,0.025128
0.0350914,0.0113982
0.0437212,0.00504608
-0.00156451,0.00932112
-0.0751751,0.00841516
-0.107421,0.0135632
-0.0501771,0.0144986
-0.00226561,-0.0136936
-0.035567,-0.00198304
-0.0704741,-0.0308021
-0.106475,-0.0423551
-0.0770747,-0.0381142
-0.0346612,-0.0232826
0.0925387,-0.0366918
0.247246,0.0415621
0.154064,0.0288627
-0.0079285,0.017099
-0.0340245,-0.0169809
0.0179985,0.00569775
0.0633586,-0.0139725
-0.0194438,-0.0453131
-0.07198,0.0106977
-0.0396754,0.0329185
0.0171075,0.0300501
0.0276513,-0.0113688
-0.0108458,-0.0403154
-0.0454402,-0.00563561
-0.0943003,0.0243114
-0.127086,0.00741228
-0.0812668,-0.044998
-0.0231037,-0.0506714
0.00513464,-0.0112828
0.0142634,0.0529812
0.0285578,0.0319873
0.0288751,-0.0027562
0.0086474,-0.0430004
-0.0266112,-0.0513093
-0.0285369,-0.00743003
-0.0260534,0.103016
0.0295851,0.085928
0.0831378,-0.0163584
0.138305,-0.0370494
0.200036,0.0444646
0.136476,0.0489951
0.0276603,0.00351376
-0.0113422,0.0105484
-0.0965258,-0.0222546
-0.152721,-0.0550719
-0.0990682,-0.038225
0.0167878,-0.0796627
0.0654778,-0.0364899
0.000476987,0.0210689
-0.0539749,0.0336388
-0.0528376,0.0254192
-0.0368232,0.0275404
-0.0716501,0.0568927
-0.0926749,0.0249864
0.00749248,-0.0489459
0.0768385,0.000240682
0.0170297,0.0320951
-0.0568004,-0.0129713
-0.0148457,-0.00163614
0.0355471,-0.00875459
0.053102,-0.00634778
0.0592508,0.0141061
0.0479539,-0.0444077
-0.032585,-0.0479044
-0.020238,0.020425
0.0475042,0.0209069
0.0380588,0.0307821
0.0171816,0.0151812
0.0304877,0.0173384
0.0458389,0.0470111
0.00953772,0.00209578
-0.0660396,-0.0715654
-0.127573,-0.029807
-0.110737,0.00678581
0.00111549,-0.000516389
0.0824543,0.0123387
0.09835,0.0174529
0.074093,0.0141059
-0.00488557,0.0227025
-0.0667048,-0.0052055
-0.0626383,-0.00581372
0.00696216,-0.0059111
0.0505833,-0.00450311
0.0504468,-0.0292061
0.034622,-0.0425392
0.0472942,-0.0554733
-0.00915512,-0.0366527
-0.0449505,0.0509923
-0.0438832,0.0720129
-0.0671082,0.0979236
-0.0731811,-0.0029835
-0.0531454,-0.0808217
-0.0265376,-0.103693
0.0549561,-0.0455531
0.0755862,0.0273931
0.036086,0.0405999
0.0310159,0.0344915
0.025049,0.00796025
0.0048912,0.0118984
-0.0138156,-0.0231103
-0.0140516,-0.0359666
-0.011634,-0.0400823
-0.0074002,0.0235388
0.00457694,-0.00863603
0.0175528,0.0125504
0.0167572,0.0103302
0.00401456,0.0403973
-0.0245369,0.0862933
-0.0445686,0.0588462
-0.0315902,0.0266777
-0.0115812,-0.00366212
-0.0016003,-0.0125665
0.0290105,8.96e-05
0.0442833,-0.00722351
0.0222407,0.028851
-0.0550481,-0.0501563
-0.0937368,-0.186544
-0.025361,-0.128848
0.0343648,0.0691882
0.0660707,0.075257
0.0951478,-0.0123107
0.058378,0.00245989
0.0203122,-0.0272904
0.0344842,-0.0560102
0.00963504,0.0142849
-0.056857,0.08147
-0.121018,0.0707192
-0.148264,0.0973242
-0.0979724,0.0323342
-0.0222276,0.00958304
0.00937685,0.030146
0.0239231,0.0223932
0.0540528,-0.0313652
0.0942603,-0.0430533
0.0865332,-0.0551631
0.031859,0.012417
0.00494318,0.0672001
-0.00677017,0.0661446
-0.0190586,-0.0483596
-0.0281237,-0.0844524
-0.031417,-0.0398601
-0.0153322,-0.0644019
0.00171957,-0.0515638
-0.00806869,-0.00289113
0.0072597,0.00621642
0.00499419,0.0538616
-0.0362516,0.0344144
-0.0264605,-0.0119307
0.0576871,0.0180926
0.0850679,0.0185028
0.0613198,-0.0155899
-0.0248334,-0.0697975
-0.082616,-0.0951387
-0.0256049,-0.0550706
0.0738012,-0.0164865
0.118149,0.0448186
0.0878707,0.139717
-0.0282181,0.0302689
-0.108651,-0.0141746
-0.119301,-0.0786791
-0.0544804,-0.067309
-0.0126563,-0.0452793
0.0220567,-0.0142066
0.0426133,0.0529541
0.00385047,0.0304272
-0.0272624,0.0632583
-0.0172566,0.126834
-0.0103135,0.0766831
0.000965052,0.0918622
0.0127341,0.0310038
0.0103262,-0.015571
0.0214794,-0.051291
0.00824151,-0.0366893
0.0221871,-0.0937611
0.0835273,-0.000460408
0.077605,0.0276608
-4.27e-06,-0.00660023
-0.0797746,0.0181005
-0.0850811,-0.00691639
-0.0265213,-0.0333812
-0.00584556,-0.0507189
-0.0159447,-0.0239235
-0.0221795,0.0310287
-0.0121452,0.0350739
0.00626207,0.0215223
0.011453,0.0122459
-0.00358424,0.00509013
-0.014888,-0.00828698
-0.00514815,-0.0083375
0.00382395,-0.0773436
0.0206491,-0.0862661
0.0299416,-0.0636968
0.0181136,-0.0931534
0.0167925,-0.0300087
0.0364668,0.0178979
0.0415139,0.12747
0.0333097,0.0520033
0.021938,-0.0245236
-0.0123976,0.0972357
-0.0578309,0.0552636
-0.0403384,0.00752301
-0.0339011,0.0345605
-0.0289404,0.00612341
-0.00567983,-0.0253996
-0.00160667,-0.00142354
-0.0220145,0.0226236
-0.0209733,-0.0189124
0.0294013,-0.0230514
0.0803604,0.0144533
0.0827127,0.0320655
0.0160596,0.0195605
-0.0580674,-0.012266
-0.0948792,-0.0204447
-0.0967332,-0.0444816
-0.0478963,-0.0621688
-0.00521678,-0.0938171
0.0142575,-0.0820275
0.0526085,0.0401522
0.0640462,0.0966081
0.0388324,0.0274623
0.0180219,0.0350899
0.0437566,0.0249531
0.0443033,-0.0289507
0.0487929,0.00967561
0.0547588,0.0379506
0.0624779,0.0694748
0.0379127,0.0425881
-0.00356227,-0.00975709
-0.0866751,-0.0374814
-0.123928,-0.0535392
-0.0767919,-0.0519911
-0.0498365,0.0055595
-0.0270851,-0.0363624
-0.0148096,-0.0287582
-0.0176179,-0.0160987
-0.0326445,-0.0199201
-0.0216992,-0.074892
-0.0018332,-0.061023
0.0166046,0.0629235
0.00592859,0.129735
-0.0175145,0.0261074
-0.0236653,-0.0167366
-0.00301747,0.0100818
-0.00483292,0.0517626
0.023549,0.0898047
0.0725733,0.092617
0.0829638,-0.038232
0.0697964,-0.0160597
0.0110027,-0.117493
0.0156349,-0.164164
0.0416354,-0.0321173
0.0358591,0.0391704
0.0234804,0.0091049
-0.0185632,0.0484635
-0.0509699,0.0776638
-0.0567389,0.07313
-0.0436757,0.0326524
-0.0113565,0.0111283
0.0132096,0.00677877
0.0131952,0.0050628
0.000427913,0.000112647
-0.0260832,-0.0333469
-0.0326743,-0.0309163
-0.0298902,-0.0398381
-0.025031,-0.0419522
0.00716391,-0.0475932
0.0336801,-0.0308112
0.0205961,0.0213259
-0.0130851,0.0451619
-0.046952,0.0193019
-0.0335884,0.0159894
0.0235711,-0.0429244
0.0745299,-0.0797185
0.0594465,-0.0369099
-0.00340175,0.0672986
-0.0791747,0.0754458
-0.0720715,-0.00076907
-0.00601594,0.014522
0.0432237,-0.00714882
0.065702,-0.0172958
0.045582,-0.0320266
0.0150978,-0.0183463
0.0172202,0.0260781
-0.0393159,-0.0195132
-0.0504942,0.00856414
0.00715441,0.0712751
0.033149,0.0022836
0.0370768,0.0247152
0.0142345,0.0527456
-0.0465209,-0.0578572
-0.0527708,-0.0661172
-0.0124631,-0.0281756
0.000906966,0.0030651
-0.00348417,0.0176405
-0.0257333,0.00379128
-0.043728,0.00837144
-0.0281331,0.0109584
-0.0209728,-0.00463177
-0.0181693,0.00832164
0.0207765,0.00818145
0.0610217,0.0352441
0.0625549,0.0191155
0.0609736,0.0257529
0.0314353,0.00171717
0.00790235,-0.0241468
0.00426863,-0.0144964
-0.00150811,-0.0311012
-0.0190775,-0.0712529
-0.0504281,-0.0481271
-0.065311,0.0330755
-0.0221795,0.0630442
0.0564636,0.0713012
0.087533,0.0188264
0.0612581,-0.00106344
0.0174548,-0.0543339
-0.0267567,-0.102109
-0.0333039,-0.0960696
-0.0115158,-0.0427817
-0.0360708,-0.0284704
-0.0703072,0.00693956
-0.0216406,0.0861443
0.0398788,0.118503
0.0163227,0.0451329
-0.0398291,-0.0511171
-0.0275193,-0.0205787
0.00298044,0.0288702
0.0311488,0.00412944
0.0191766,0.0262068
0.00156023,0.0408949
-0.00696248,0.0440665
0.0153009,0.0107885
0.0547678,-0.0435446
0.0728419,-0.0531712
0.0826504,-0.0506169
0.0776402,-0.00139425
0.0323992,-0.0242897
-0.0793954,-0.0586689
-0.110898,-0.0365439
-0.0706359,0.0786529
-0.0620481,0.103057
-0.0515431,-0.023706
-0.0532377,-0.0531773
-0.0552721,0.00864312
-0.00948794,0.0715151
0.0267829,0.106138
0.0214813,0.0367128
0.0166378,0.00255749
-0.0106534,0.00183333
-0.0596384,0.00811295
-0.0366051,0.012425
0.0370658,-0.013912
0.0500594,-0.0378136
0.0117577,-0.0219582
0.0140276,-0.0422876
0.0148494,-0.0753828
0.0133021,-0.070089
0.0228463,-0.0508585
0.0199,-0.0546715
0.0327676,-0.0484618
0.0547937,-0.00531658
0.0619511,0.0741539
0.0402696,0.127566
-0.0226914,0.0080385
-0.0625797,-0.015069
-0.0389905,0.00752256
0.0208049,-0.0251658
0.0310543,-0.0168964
-0.0100024,0.0828364
-0.0286315,0.056504
-0.0145993,0.057589
-0.00639596,0.0115515
-0.0439148,-0.0133422
-0.0456162,0.0171455
0.0284112,-0.014206
0.12225,-0.0327929
0.105854,-0.0395931
0.018176,-0.0439574
-0.0599094,0.000772353
-0.0653068,0.0192026
-0.0430475,-0.028358
-0.065268,-0.00352373
-0.0824701,-0.0465524
-0.0409197,-0.0834265
-0.00259121,-0.119095
0.0173981,-0.112672
0.0338646,0.0121733
0.0163128,0.157126
-0.00826325,0.131838
0.0149541,0.12033
0.0218451,0.101029
0.0252077,0.0161182
0.0204717,-0.0486755
0.00722996,-0.0580234
-0.0205796,-0.0561501
-0.0338864,-0.0338312
-0.0523578,-0.0345534
-0.0146841,0.0205768
0.0355208,0.0190395
0.0674794,0.0317056
0.0930576,-0.000735835
0.0845013,0.0100445
0.0569213,0.0467598
0.024296,0.0247541
-0.0216125,-0.00624071
-0.105089,-0.0271381
-0.118065,-0.039065
-0.0330491,-0.0152572
0.0274187,0.0448006
0.0259557,0.00320014
0.0199256,0.0314186
0.0329964,0.0136041
0.0227133,-0.0261657
-0.01714,-0.0577769
-0.0413552,-0.0379492
-0.0632803,-0.00757213
-0.0855114,-0.00940593
-0.0474889,-0.0104256
0.0109149,0.0295408
0.0627444,0.0254195
0.0858992,-0.0211648
0.0469871,0.0203859
-0.0139909,-0.0156009
-0.0569574,-0.0547933
-0.0494491,0.0102526
-0.00475527,0.0239696
0.0280107,0.0238573
0.0157871,0.0296992
-0.0171641,0.0181215
0.00365401,-0.0106629
0.0417181,-0.0342328
0.0441852,-0.0135318
0.0137112,-0.121614
0.016417,-0.0989335
0.0543244,0.114068
0.0758353,0.0714333
0.0399239,-0.0398374
-0.0389502,-0.00295542
-0.099067,0.0290491
-0.0757354,0.0823408
-0.0312895,0.0681757
-0.00934375,-0.0503353
-0.00837195,-0.0592118
-0.0317443,-0.00216071
-0.0627645,0.00431116
-0.0296118,0.0466208
-0.00350099,0.0468307
0.0330754,0.0136187
0.0833684,-0.0173577
0.0686817,-0.0589504
0.0369452,0.0239636
-0.0134149,0.0279377
-0.0380443,-0.00211452
-0.0228749,-0.00983334
0.0329866,-0.00124515
0.0537446,-0.0286082
0.00246977,-0.0185986
-0.0591483,-0.051545
-0.0718966,-0.0544951
-0.0267984,-0.0258255
0.0040891,-0.0249646
0.0106654,-0.0153684
0.0230208,0.02584
0.0151203,0.0396223
-0.0177483,0.0640099
-0.029425,0.0687133
-0.011308,0.0425944
0.0243884,0.0177243
0.023732,0.0208963
0.00657296,0.0235633
0.0277009,0.0133216
0.0583131,-0.00406201
0.0384128,-0.0250897
0.00328485,-0.00251432
-0.00929217,-0.0351088
0.0175598,-0.0342789
0.0492558,-0.0399684
0.00994251,-0.0402601
-0.0823188,-0.021687
-0.105476,-0.0676117
-0.0553402,-0.0188343
0.000429516,0.0280828
0.025573,-0.00345843
-0.00740727,0.0071345
-0.0418392,0.0142153
-0.0164974,0.0340587
0.0327531,0.0323285
0.0654811,0.00276307
0.0406395,-0.0021727
0.0066699,0.0615187
0.00294987,-0.0111566
-0.000683937,0.0644609
-0.0136107,0.0268543
0.0255201,-0.0408533
0.0418148,-0.0723118
0.0483259,-0.0584727
0.0627529,0.0302979
0.0190675,-0.00728683
-0.0512705,0.0195412
-0.107816,0.0418996
-0.0880261,0.0759697
-0.0497377,0.0453733
-0.046367,-0.0216476
-0.0917562,-0.114441
-0.0697198,-0.0253114
0.00535572,0.00895845
0.0722958,-0.0141387
0.123987,-0.091723
0.107101,-0.0524438
0.0467331,0.085346
-0.0253557,0.105272
-0.0327109,0.0250131
-0.0177889,-0.00852141
-0.00494243,-0.0156241
0.00111578,0.00877213
0.028333,0.0521257
0.0301422,0.0575569
0.00785198,-0.0466202
-0.0269248,-0.063146
-0.0240023,-0.00316234
0.0036002,0.0061889
0.0415724,0.0333083
0.0163304,0.0127805
-0.00285175,-0.0200957
-0.00233593,-0.0349605
-0.0533875,0.0247147
-0.0447122,-0.0780869
-0.0226131,-0.163667
-0.026775,-0.0824144
-0.00215648,0.0258797
0.0441017,0.0417268
0.04652,0.0709531
-0.00985968,0.118552
-0.042352,0.0826745
-0.0339612,0.0332951
-0.0258128,0.0342975
-0.0123678,0.0321957
0.0090536,-0.00505389
0.048981,-0.121516
0.0781231,-0.180903
0.0460603,-0.0500295
0.0476765,-0.0476407
0.0849583,-0.0521964
0.0830747,0.103505
0.0488902,0.161847
-0.00569791,0.107653
-0.0363061,0.0424624
-0.0812525,0.0307349
-0.131981,0.0378053
-0.120657,-0.0211306
-0.0800764,-0.0852996
-0.0361245,-0.0617866
-0.0079854,0.0410909
0.04522,-0.00788274
0.0852043,-0.0258112
0.0419424,0.0549598
-0.0047311,-0.0479316
-0.00564051,-0.00832603
-0.00434528,0.0140249
0.00493215,-0.0456498
5.61e-05,0.0327311
0.00754601,0.0595994
0.0738278,0.0184278
0.0588632,-0.0298141
-0.0293356,-0.105719
-0.0810478,-0.0605142
-0.038228,-0.00717936
0.0368717,-0.0143315
-0.0139577,-0.0850684
-0.10236,-0.0530169
-0.0957933,0.0439376
-0.0373071,0.0745583
0.0131715,-0.085341
0.0590198,-0.0371295
0.0794794,0.0943344
0.0412125,0.0947423
0.0236355,0.114077
0.00723192,0.0789917
-0.0299774,0.0233645
-0.0494623,0.0173955
0.00154168,0.00628184
0.127336,-0.0625505
0.18064,-0.0787468
0.0973435,-0.0613663
-0.0102245,-0.0668552
-0.0781651,-0.0495385
-0.117348,0.011909
-0.0626285,0.0676354
0.00969621,0.0757314
0.00845982,-0.00130962
-0.00895138,0.0374029
0.0156231,0.0311765
0.0244268,0.04999
-0.0424043,-0.0613891
-0.0768951,-0.0111592
-0.073681,0.0823794
-0.0886951,0.0360392
-0.00911269,-0.0433562
0.0527715,-0.0471299
0.0781677,-0.0484837
0.115084,-0.0493892
0.0703231,-0.0458781
-0.00335249,-0.0445287
-0.0505959,0.00749325
-0.054872,-0.0244471
-0.0383475,-0.103795
-0.0328709,0.0218781
-0.0833522,0.102323
-0.0614214,0.0529078
0.0650573,-0.0107023
0.142383,0.0160685
0.11512,-0.0405141
0.038803,-0.0219644
-0.053885,0.0400404
-0.078066,0.0404511
-0.0562375,0.0563475
-0.025301,0.0217652
-0.00279824,-0.0586757
0.00840844,0.0325575
0.0258473,0.0677563
0.0282599,0.00268185
0.0473814,-0.0457282
0.0157146,-0.0381166
-0.0268799,-0.0249868
-0.012265,0.00104135
0.0132069,-0.0240227
-0.0495815,-0.00326507
-0.0755728,0.0381075
-0.0180379,0.00819471
0.0144034,0.0160949
0.00600515,-0.00172924
-0.0004976,0.00827746
-0.0086516,-0.0239974
0.00621568,-0.053157
0.0110717,-0.0513218
0.0172249,-0.0727934
0.0529651,0.0235476
0.0609463,0.0973954
0.0404714,0.0621866
0.0251349,0.0807459
-0.00423103,-0.00609335
-0.0376763,0.0132862
-0.0599031,0.0300771
-0.0426624,0.0139073
-0.0347425,-0.0107419
-0.0203909,-0.0413356
0.0155817,-0.0142735
0.0892651,-0.0238054
0.13326,-0.0764243
0.0583813,-0.14032
-0.0528153,-0.12354
-0.138714,-0.039561
-0.15382,0.0774031
-0.0995153,0.134496
-0.0468493,0.121744
0.0192454,0.1455
0.0463887,0.0526691
0.0572194,-0.0169138
0.0479203,-0.0566172
0.0413413,-0.0557095
0.110267,-0.0432379
0.148915,-0.0741485
0.0645534,-0.10548
0.00735994,-0.051909
-0.066004,0.0774901
-0.0723078,0.109625
-0.0563734,0.00880472
-0.0960355,0.00494994
-0.0980059,0.0659842
-0.0350743,0.0257881
-0.00261882,0.0179073
-0.0484054,0.0170754
-0.0348512,-0.0323874
0.0391312,-0.0348584
0.151917,-0.0664458
0.20011,-0.0246931
0.216225,0.00475642
0.171558,0.0149408
0.0452788,0.0438035
-0.202463,0.0265987
-0.384582,0.0852372
-0.335695,0.0423753
-0.142234,-0.131699
0.025822,-0.156033
0.128562,-0.161308
0.109737,-0.0944198
0.0442841,0.105844
0.0365146,0.156545
0.100023,0.0899778
0.148085,0.00550261
0.152237,0.00136036
0.145132,-0.0305789
-0.00386905,-0.0956353
-0.175259,0.0149701
-0.173732,-0.0359516
-0.00422703,-0.0331045
0.189535,0.0657483
0.214145,-0.0512266
0.0332784,-0.0364319
-0.18435,0.0961628
-0.30268,0.0583275
-0.14652,0.074932
0.0392061,-0.0582166
0.0765138,-0.0630201
0.00498556,0.0322558
-0.0591394,0.0415948
-0.0962453,0.0753598
-0.203312,0.0795836
-0.165621,0.00586545
0.035538,-0.0123745
0.138898,-0.0391782
0.152703,-0.00105594
0.137891,0.114117
0.0508781,-0.00617513
0.00115272,-0.284154
0.0611381,-0.0570425
0.0868497,-0.00330712
0.0474466,0.00307162
0.0139927,0.0176583
-0.00357713,0.0777305
-0.017542,0.181869
-0.0216259,0.143906
0.0287111,0.0634384
0.106557,0.0691353
0.0729569,-0.0319562
-0.136749,-0.170295
-0.291323,-0.117924
-0.29406,-0.0631112
-0.120057,0.0401457
0.0409794,-0.0858466
0.0938567,0.0189774
0.140987,0.0476362
0.143339,0.037876
0.10234,0.0411359
0.029753,-0.0504048
-0.0560049,-0.146706
-0.0546394,-0.255341
0.014422,-0.176565
-0.0058834,-0.0476883
0.00580927,0.0347722
-0.0180612,0.0537399
-0.00134701,-0.0384526
-0.0499168,-0.00228869
-0.122162,-0.0178838
0.00890952,0.132825
0.167758,0.220355
0.0593433,0.144466
-0.0902042,0.134212
-0.0443909,0.212312
0.225487,0.122559
0.4523,-0.0254307
0.408464,-0.0291373
0.164801,-0.066137
-0.268235,-0.124214
-0.604516,-0.131871
-0.464115,0.0190844
-0.142701,-0.0561774
0.0525851,0.118245
0.0884174,0.0833378
0.0496903,-0.0543807
0.103996,-0.0976059
0.220702,-0.0764165
0.260689,-0.0583812
0.1495,0.0228337
-0.169449,0.0241682
-0.31761,-0.0107691
-0.25365,0.0221037
-0.171714,-0.00397442
-0.205024,-0.0789663
-0.137883,-0.0493328
0.111438,0.0448281
0.22093,0.142369
0.116509,0.08649
-0.0361518,0.0384995
-0.129726,-0.029819
-0.0708534,-0.0312848
0.138036,0.0314035
0.219717,-0.0130981
0.152461,-0.0962628
0.186143,-0.148016
0.293023,-0.165368
0.245177,-0.125319
0.0598502,-0.0321009
-0.140644,0.0475463
-0.292126,-0.0207609
-0.283616,0.0842526
-0.211637,0.20949
-0.0672173,0.212684
-0.00941847,0.0701998
-0.0823971,-0.0335405
-0.126905,-0.0530466
-0.0599667,-0.128357
0.104758,-0.0994995
0.326798,-0.163198
0.231121,-0.155126
-0.00378752,0.164979
-0.140283,0.223845
-0.109488,0.0546949
-0.0499206,-0.0100573
-0.0460747,-0.016578
-0.0302237,-0.0598676
0.06012,0.044584
0.0963333,0.127607
0.152463,0.0913991
0.0102353,-0.0483992
-0.0971034,0.0234513
-0.035471,0.138358
0.0182602,-0.0827552
0.0358769,-0.0710497
-0.0481507,0.00368032
-0.118527,0.00313305
-0.125875,0.0262817
-0.0273205,0.00938263
0.127035,0.0284057
0.144624,0.018197
-0.000434458,-0.0806368
-0.0790496,-0.0469983
-0.000542308,-0.0285409
0.14461,0.0310552
0.193966,-0.112449
0.174769,-0.119723
0.0396967,-0.173246
-0.0936524,-0.328224
-0.157277,-0.203624
-0.109404,0.252463
-0.0095896,0.475673
-0.00972272,0.24505
0.0080846,0.0322344
-0.021644,0.00432318
-0.100485,0.0754766
-0.181267,0.109213
-0.144501,-0.0937036
0.000694063,-0.0980783
0.0726231,-0.0131356
0.139138,0.0193945
0.15229,0.0103009
0.192463,0.00957049
0.170156,-0.0148362
0.117387,-0.113437
-0.0332761,-0.18673
-0.214674,-0.207064
-0.232149,-0.094861
-0.113468,0.123892
-0.0815034,0.0925908
-0.129517,0.0101935
-0.0944824,0.0759716
0.0294362,0.076557
0.0886544,0.0789253
0.110481,-0.000634795
0.0660409,-0.0500195
0.0358581,-0.00246144
0.00862048,-0.00259147
0.029753,-0.0138268
0.07545,0.0491123
0.0964925,0.078977
-0.00620394,0.0819817
-0.0262558,0.0678401
-0.0642399,-0.0748504
-0.138618,-0.11135
-0.0908329,-0.0425317
-0.0246728,-0.0649957
-0.0730239,-0.010341
-0.150572,0.0527373
-0.137557,-0.00599364
-0.0314764,-0.00751454
0.11201,-0.0367457
0.20574,-0.110559
0.119714,-0.00214683
0.019075,0.0913055
0.100128,0.0693807
0.195503,0.118576
0.231117,0.13329
0.191602,-0.0504356
0.0722234,-0.201464
-0.0755738,-0.229069
-0.0460285,-0.0924573
-0.0519422,0.0338263
-0.127364,0.173189
-0.190884,0.162281
-0.220749,0.0864809
-0.136671,0.0295485
0.0315269,-0.0630819
0.0498202,-0.0887077
0.0030046,-0.00695213
-0.0492562,-0.0536361
-0.060252,0.127041
-0.0231859,0.20303
0.0358136,-0.0420478
0.047801,-0.143365
0.0899684,-0.156668
0.194903,-0.0395869
0.227003,0.0265848
0.217437,0.0245222
0.124468,0.0662621
-0.0707575,0.098215
-0.159534,0.0302165
-0.213587,-0.0195646
-0.261762,-0.0192235
-0.182216,-0.00936657
-0.144416,-0.00156148
-0.072699,-0.00935275
0.0102542,0.0112218
0.00947191,-0.031401
-0.0145741,-0.0139868
-0.0134453,0.00409268
0.00744296,0.0167195
0.0548431,0.00995795
0.0959208,-0.0249523
0.0788463,-0.0624626
0.0182737,-0.0877273
-0.0199455,-0.0691977
0.0610684,-0.0434403
0.100557,-0.0659795
0.0273606,-0.031008
-0.021349,0.0686862
0.0264349,0.108998
0.246449,0.0422366
0.362049,0.0597195
0.181777,0.0347379
-0.127497,-0.0223014
-0.348784,0.0401604
-0.405012,0.085942
-0.236123,0.0359401
-0.0279753,0.0147439
0.0137868,-0.0334173
-0.0651313,-0.0581295
-0.051508,-0.0320989
0.063186,-0.113946
0.127375,-0.0981461
0.099172,-0.000254556
0.0708041,0.0826887
0.0463632,0.0407347
0.00601882,-0.022756
-0.00776037,0.0150251
-0.0094281,0.0757096
-0.0173221,0.021058
-0.00919115,0.0390596
-0.00632287,-0.0113679
0.0100811,0.0606702
0.0149337,0.137854
0.0177432,-0.0655584
0.0609251,-0.142474
0.10945,-0.0913643
0.0644743,-0.0095165
-0.0174972,0.0865793
-0.0239008,0.0650359
0.0124817,0.00464363
0.0199186,-0.001728
-0.0568406,-0.037695
-0.11027,-0.0685705
-0.0797653,-0.0298664
-0.0138194,-0.0363451
0.043676,0.0310191
0.0343079,-0.0271401
0.00302306,-0.091213
-0.0161707,0.0104966
0.0559421,0.101083
0.0840393,0.135939
0.0507916,0.0285982
0.00335224,-0.074701
-0.0681686,0.0146543
-0.0441147,-0.00358296
0.0271284,-0.0544753
0.0572739,-0.0210608
0.0365726,-0.0352356
-0.0254839,-0.0288252
-0.0756805,-0.0435683
-0.123233,-0.0105338
-0.0865461,-0.00926294
-0.0314985,0.00870439
-0.0130054,0.0642745
-0.0385048,0.122472
-0.0918671,0.0651938
-0.0514545,-0.0054159
0.0725485,-0.0450759
0.124484,-0.0259267
0.0859136,0.00953913
0.0603162,0.0240996
0.0590485,0.0246159
0.0415483,-0.00493889
0.0258677,-0.0382369
0.000606407,-0.0580096
-0.0376139,-0.0578775
-0.0154632,-0.0221268
0.0412758,-0.0167461
0.0580622,-0.028104
-0.0198337,-0.0292838
-0.0429537,-0.00623838
-0.017815,-0.00205777
-0.0164678,0.0348802
-0.0163461,0.00476307
-0.00423488,0.0196739
0.0269703,0.0612808
0.0343219,0.0749393
0.0232203,0.0653543
-0.0154585,0.0226146
-0.0938003,0.00530993
-0.100089,0.0432502
-0.0470088,0.0258831
-0.0318455,-0.0171575
-0.0339182,-0.0510159
-0.0240157,-0.0327524
-0.000792643,-0.0188229
0.0377002,-0.0208793
0.0501225,-0.0102916
0.0544994,-0.014544
0.0275837,-0.0142226
-0.0214284,-0.015679
-0.0417727,-0.0095157
-0.0159971,-0.00274226
0.0140655,0.027655
0.0478848,0.016308
0.106091,-0.0318196
0.15644,-0.0157923
0.131229,0.0225437
0.0244444,0.0360806
-0.144945,-0.0451912
-0.192451,-0.026285
-0.0996774,-0.0307347
-0.0569014,-0.029783
0.0119393,-0.055466
0.103833,-0.0580015
0.0918612,0.0618438
0.0291522,0.00380724
-0.0561353,-0.0466237
-0.104257,0.0348249
-0.0735161,0.0803869
-0.0364765,0.0325974
-0.0545616,-0.0172912
-0.0267885,0.0246693
0.0236534,0.0657589
0.0447788,0.0459193
0.0763597,0.0468501
0.079223,0.00554214
0.0311162,0.00897936
0.000727416,-0.0381456
0.0167096,-0.0165619
0.0217957,-0.00293258
-0.0176163,0.0423593
-0.0318773,0.0346536
-0.0165424,-0.00424407
-0.00569389,-0.109728
-0.00914256,-0.145974
-0.0281387,-0.0384317
-0.0330116,0.123639
-0.0107837,0.102747
0.0456805,-0.0242565
0.133055,-0.0517861
0.163707,-0.0287558
0.146883,-0.0455538
0.0663794,-0.0480701
0.0217715,-0.00224941
-0.0300792,0.0211336
-0.166292,0.0419731
-0.213251,0.0370358
-0.118539,-0.0068856
-0.0133299,-0.0211802
-0.00705207,-0.0114677
-0.0371077,0.0142922
-0.0498401,0.030519
-0.0353837,0.024661
-0.000247109,0.0165953
0.0754591,0.0244779
0.0845904,0.00232139
0.056276,-0.022073
-0.012981,-0.0405572
-0.0948296,-0.140848
-0.104257,-0.0961534
0.026416,0.0552165
0.145125,0.1117
0.142594,0.0640775
0.080518,0.0752752
-0.0739753,0.0963912
-0.240926,0.0724007
-0.223882,-0.0250319
-0.0231658,-0.00878369
0.145359,-0.0596776
0.154981,-0.0834242
0.0592798,-0.0155259
-0.0182837,-0.0358834
-0.0100984,-0.0456209
0.0289016,0.022613
-0.0154327,-0.00120508
-0.0727089,-0.0543012
-0.0354601,-0.0602383
0.00842949,0.0269592
0.0503752,0.0913034
0.06945,0.0326029
0.0291252,-0.000813577
-0.00145233,0.024389
0.0384843,0.0120555
0.0433031,-0.0175925
0.00634691,-0.0251357
-0.0148941,0.00426919
-0.0217109,0.00581057
-0.0239042,-0.0176446
-0.0354591,-0.0294692
-0.0426035,-0.0169489
-0.0365489,-0.0146549
-0.0209616,0.0106453
-0.00508011,0.0394826
0.00872655,0.0239798
0.0218179,0.0116341
0.0324753,0.0194788
0.0369891,-0.0274241
0.0598055,-0.109726
0.0488588,-0.0385205
0.0118614,0.0619286
-0.0177094,-0.00806078
-0.0558868,-0.00949982
-0.0651806,0.0418049
-0.0385073,0.0434688
-0.0324595,0.0100244
0.00894078,-0.0287199
0.0514387,-0.038715
0.046131,-0.0232669
0.0243148,-0.0278832
0.00323703,-0.0322071
-0.00244893,0.0219795
-0.0271627,0.0763644
-0.0303842,0.0824682
-0.0553159,0.05955
-0.0199623,-0.0676543
0.00901725,-0.103935
0.0028268,-0.0229662
-0.0454349,0.0570587
-0.0242698,0.0477232
0.0383231,0.0346926
0.0617771,0.00836076
0.0542128,-0.0489512
0.0472776,-0.0372791
0.0260502,0.0246713
0.0014711,0.053796
-0.0317692,0.0452125
-0.0707386,0.0133385
-0.0788979,0.0149442
-0.0492504,-0.0371923
0.0109515,-0.0214098
0.0430816,-0.00428733
0.0848368,-0.0246751
0.140502,0.00303649
0.0997519,-0.035482
-0.00632176,-0.0940596
-0.104658,0.0238745
-0.126353,0.089304
-0.0922884,0.0372367
-0.0442594,-0.0150888
0.0225408,-0.0382583
0.044914,-0.0248906
0.024974,-0.0136122
0.0102009,0.05637
-0.00849384,0.0532787
-0.000743464,0.0130954
0.0224035,-0.0221243
0.0144461,-0.0687108
-0.0242792,-0.0697018
-0.0479369,-0.0443546
-0.0293454,-0.0428067
0.000646217,-0.0462025
0.0159428,0.00292677
0.0124085,0.101225
0.0186563,0.135747
0.0162612,0.0616379
-0.0233031,0.00598253
-0.0378299,-0.0268529
-0.0230565,-0.0217621
-0.00287247,-0.013935
0.00843394,0.00154879
0.00321426,-0.0109162
-0.00770693,-0.00462129
0.00701556,0.10423
0.0486429,-0.0040103
0.0995135,-0.0842438
0.114527,-0.021791
0.0990608,0.00523521
0.0207363,-0.0434435
-0.0869682,-0.00980394
-0.0959674,0.0201841
-0.0477814,-0.00837528
0.00372071,0.0287252
0.0530498,0.0344455
0.0745826,-0.0217402
0.0741315,-0.0549469
0.0488497,-0.0364339
-0.0431178,-0.0203329
-0.128523,0.0282895
-0.138391,0.0409913
-0.0973256,-0.0173209
0.00387245,0.0111917
0.0635696,-0.0102682
0.0456357,-0.00746102
-0.0112197,0.011202
-0.0535837,-0.0642856
-0.0572352,-0.0444563
-0.0450553,-0.0183591
-0.0154525,0.0150032
0.00314912,0.0877115
0.00794074,0.0707859
0.0193744,0.0367616
0.0490025,0.0415724
0.101041,-0.00297807
0.0778565,-0.0319491
-0.0180589,-0.0224852
-0.0748601,-0.0155213
-0.0949701,0.00442227
-0.0528385,0.0169748
0.022242,0.031033
0.0522159,0.0197702
0.0423218,5.7e-05
0.0326252,-0.0181853
0.00518922,-0.0188359
-0.0122877,-0.0056962
-0.0221468,-8.05e-05
-0.0224058,-0.0289694
0.00753425,-0.0594992
0.0572676,-0.0637363
0.0585211,-0.0198857
0.0219253,-0.0750568
-0.0223952,-0.121182
-0.0432604,-0.0281357
-0.0186773,0.104916
-0.0107849,0.13694
-0.00698194,0.167316
0.00951258,0.0649175
0.0231817,0.0179069
0.0115601,-0.0154628
0.00531354,-0.0606377
-0.00622383,-0.0320189
-0.0233909,0.0458636
-0.0150952,0.0186466
-0.00752544,-0.0133665
0.00646919,-0.0233432
0.0256011,-0.00600341
0.0292647,-0.0296365
0.0335155,-0.0140122
0.0254914,0.0328555
-0.01378,0.0620075
-0.0383698,0.016645
-0.0455269,-0.0275944
-0.0462236,-0.0067595
-0.0276372,-0.0140229
-0.0240854,-0.024327
0.0158271,-0.0180654
0.0631565,-0.0262605
0.111806,-0.0261361
0.129154,-0.0206465
0.0440642,-0.0841799
-0.0307514,-0.111955
-0.0967583,-0.0648267
-0.149158,-0.0140396
-0.124596,0.0491618
-0.0421148,0.0847275
0.038257,0.0970283
0.0747626,0.0624349
0.0576034,0.0762843
0.0100592,0.0486257
-0.0136554,0.0346699
0.00851179,0.0177856
0.0596697,-0.0420347
0.085892,-0.0604473
0.034498,-0.0408969
-0.0297391,-0.0358351
-0.0926491,0.00263256
-0.0941251,0.0419947
-0.079093,0.013231
-0.0736791,-0.00531225
-0.044234,7.26e-06
-0.00275806,-0.000206955
0.0501964,0.0101078
0.0756143,0.011268
0.084291,-0.00471325
0.0777928,-0.0171315
0.0430006,-0.0302136
-0.0100552,0.0122823
-0.0603812,0.0240769
-0.0784062,-0.00953268
-0.0135754,-0.0201266
0.0124874,-0.000134116
-0.0370391,-0.0179815
-0.0322043,-0.0260096
0.030578,-0.0340274
0.0561837,-0.0434813
0.0345602,-0.0250449
0.0252815,0.0484374
0.012132,0.0682785
-0.0147726,0.0560663
-0.0210539,0.00998108
0.012439,-0.0157506
0.0561304,-0.0268363
0.0405487,-0.0268638
0.00802018,0.0178008
-0.019232,-0.00952833
-0.0471541,-0.00491585
-0.0530927,0.0395534
-0.0344247,0.0260029
-0.02495,-0.0518853
-0.0174547,-0.0523825
-0.0523328,-0.032297
-0.0160137,-0.0440707
0.100271,0.0439328
0.174771,0.0475208
0.145386,-0.00693582
0.0378571,0.0220174
-0.0541591,0.0441352
-0.0772221,0.0248713
-0.0728095,0.00199195
-0.0752261,-0.0196359
-0.0511906,-0.0206147
-0.00458569,0.00451371
0.0324019,0.0275322
0.0122724,0.0216354
-0.0240747,0.0207113
-0.0376979,0.0216522
-0.0398814,0.00841116
-0.0280125,0.00045367
-0.0241665,0.00053806
-0.0314657,-0.00446861
0.00675352,-0.0126267
0.0776467,-0.0250414
0.0872772,-0.0485542
0.0482941,-0.0407501
0.0110782,-0.0481599
-0.040735,-0.0572099
-0.0071705,-0.0616812
0.0442048,-0.0738428
0.0273027,-0.0514838
-0.0229419,0.037686
-0.0552813,0.0975686
-0.0869974,0.0963601
-0.0807733,0.117901
-0.0015365,0.0991416
0.0721623,0.0085361
0.0848964,-0.0832659
0.0534833,-0.0475042
-0.011556,0.0155297
-0.0434601,0.0688636
-0.0533068,0.0318372
-0.0345892,-0.0451335
0.0277919,-0.0351456
0.0564147,0.0150257
0.0504973,0.0197883
0.0172701,-0.0133724
-0.0398247,0.00728913
-0.0663429,-0.0133667
-0.0510608,-0.093046
0.00129716,-0.0160999
0.0333204,0.0107663
0.0351335,0.00758722
0.053041,0.029538
0.0506264,-0.0132687
4.89e-05,-0.0268899
-0.0576807,-0.0360991
-0.0768455,-0.0242711
-0.0295161,0.00443546
0.0029827,0.0530736
0.0116895,0.0766014
0.0242034,0.0411462
0.054758,-0.00935654
0.0539797,-0.0408687
0.0380401,-0.0675454
0.0573398,-0.0834287
0.0705759,-0.0422594
0.036867,0.0447982
-0.0282778,0.102902
-0.117669,0.0767016
-0.135445,0.0509044
-0.0738626,0.0220858
0.00576696,-0.0174606
0.0570794,-0.0380365
0.0481883,-0.0256054
0.0126359,0.0123104
-0.0166356,0.039091
-0.0543535,-0.026277
-0.0462255,-0.0276809
-0.0087359,-0.0251232
0.0310661,-0.0547575
0.0500331,-0.0262586
0.0122371,0.00450259
-0.0325836,0.0274132
-0.0510268,0.0299564
-0.0236783,0.00567148
0.0356248,-0.00310868
0.0490458,0.0338615
0.0343008,0.0238405
-0.000840081,0.00165358
-0.0255413,-0.00448252
-0.0254018,-0.00851005
-0.00597976,-0.0142501
-0.00443702,-0.0247996
-0.00503868,0.00767222
-0.0202593,-0.0141411
-0.0376235,-0.0316289
-0.00263124,-0.0266277
0.0712803,0.00203485
0.114392,0.0428326
0.0932254,0.0190246
0.0418278,-0.056051
-0.0251237,-0.0497251
-0.057685,-0.0164101
-0.0800702,-0.00648872
-0.07763,0.0434659
-0.0562113,0.0185359
-0.0293137,0.0105741
0.0269308,-0.0022813
0.0620628,-0.0134876
0.0493521,0.00768521
0.0309635,0.037557
0.0284657,0.00837834
0.0286872,-0.0168562
0.0344191,-0.0531721
0.00100726,-0.0674885
-0.0535019,-0.0522294
-0.0575668,0.10625
-0.0216543,0.172483
0.00357319,0.071334
0.0252461,0.0471938
0.00948079,-0.0157187
-0.0190106,-0.0580436
-0.0441114,-0.0299561
-0.0395655,-0.0340842
-0.0348731,-0.0470106
-0.059951,-0.0133004
-0.067102,0.00901134
-0.0379632,0.0187962
0.0125501,-0.0115796
0.0440342,-0.0189944
0.0283652,-0.0112479
0.0467334,-0.00825541
0.134103,0.0386526
0.158437,0.0714464
0.0952983,-0.0156825
0.000661303,-0.0035553
-0.06393,0.00519123
-0.041567,-0.021649
-0.0494805,-0.0496484
-0.0678738,-0.0451875
-0.0974327,-0.0289096
-0.0552811,-0.042849
0.0167182,-0.0361662
0.0130272,0.0136946
0.0382487,0.0263892
0.0817517,0.00539279
0.0726092,0.00238307
0.0118561,0.0307237
-0.0548059,0.0283636
-0.0886027,-0.0343591
-0.0688666,-0.0366
-0.0413727,0.0251763
0.00934381,0.0535501
0.038632,0.0207778
0.0694623,0.0170797
0.0837379,0.0319049
0.0606809,0.0450952
0.0269551,0.0350883
-0.0191608,0.00355397
-0.0567071,0.00492284
-0.0471093,-0.00547325
-0.0123736,-0.0141035
-0.0118885,-0.00909972
-0.0238678,0.00961418
-0.0321283,0.0129649
-0.0312904,-0.00459971
-0.023881,-0.0191469
-0.0176557,-0.0250014
-0.007368,-0.0323661
0.00228508,-0.0395647
0.0130675,-0.0395385
0.0233306,-0.0360813
0.0294487,-0.023535
0.0400757,0.00526742
0.0504344,0.0289967
0.0427794,0.0259201
0.0467407,0.0137947
0.0362775,0.00246661
0.00252325,-0.0260262
-0.023964,-0.0542112
-0.0487481,-0.0205161
-0.03065,0.0658093
-0.00913685,0.0669233
-0.048939,0.0457166
-0.0577257,0.00132003
-0.0512971,-0.00337235
-0.0284179,0.00584782
0.0016879,-0.0321921
0.00930221,-0.0739489
-0.00604287,-0.0596222
0.00728404,-0.00751285
0.0620794,-0.00953288
0.120841,-0.0206232
0.108393,0.0515637
0.0551482,0.0526249
0.0171623,0.0394571
-0.0270227,0.0292502
-0.0304383,0.0251605
-0.0329893,0.00766048
-0.101957,-0.0426566
-0.103201,-0.0482368
-0.0655656,0.0455693
-0.0322306,0.0730829
0.0308949,0.0263903
0.0211221,-0.00810608
-0.0114949,-0.0261133
-0.0188603,0.00776606
0.00282782,0.00760227
0.0225679,-0.00272736
0.0246209,-0.0161517
0.0366044,-0.0266853
0.0516263,-0.0102069
0.0370509,0.0123612
0.00381897,0.0111076
-0.0287582,0.016573
-0.0419373,0.0066939
-0.0375967,-0.0368899
-0.000584906,-0.0428691
0.0507813,-0.00876886
0.118188,0.0327108
0.135459,0.0538663
0.0967471,0.0153738
0.00275282,-0.0396569
-0.115538,-0.0597055
-0.139174,-0.094793
-0.0949716,-0.087444
-0.0776178,-0.137623
-0.0521421,-0.0454131
-0.0319715,-0.0239885
0.0170211,0.037476
0.0776854,0.090208
0.0540825,0.0904002
-0.0211461,0.0659962
-0.08496,0.0511543
-0.0894534,0.00601547
-0.0146014,0.0519336
0.0592493,0.0398023
0.121296,0.0105132
0.115405,0.048298
0.0592071,0.061806
-0.0090371,0.030856
-0.0613756,0.00430023
-0.0576569,-0.0126363
-0.0377434,-0.0199225
-0.0108504,-0.0122937
0.0182163,-0.00931185
0.014429,-0.0100775
-0.00619432,-0.010598
-0.0100916,-0.0226837
-0.000800037,-0.0378599
0.022332,-0.032355
0.032651,-0.0137724
0.00926261,-0.0141836
-0.0284808,-0.0114118
-0.0520822,-0.00817917
-0.0259378,-0.00176432
0.0105855,0.00977535
0.0205389,0.0115582
0.0263907,0.00614899
0.0441543,-0.00191655
0.0777248,0.00351256
0.0675169,0.00330461
0.0345808,-0.0304106
0.0339003,-0.01702
0.0301482,0.0321543
0.0131092,0.00765711
-0.0257227,-0.0842956
-0.0801562,-0.128836
-0.161459,-0.0615617
-0.125548,0.0724246
-0.0424091,0.0108334
0.0116661,-0.0418995
0.034117,0.0339603
0.0391976,0.126638
0.0180678,0.066619
-0.00354434,0.021676
-0.0204253,0.0435718
-0.0469651,0.0521464
-0.0134878,0.0273551
0.0442392,0.0484984
0.046241,-0.0273725
0.0266868,-0.0778228
-0.0119003,-0.0198045
-0.0302993,0.0123202
0.0129518,-0.0402923
0.053931,-0.0541732
0.0427185,-0.0649276
0.00880382,-0.0689236
-0.0106026,-0.00883559
-0.0168436,0.115462
-0.0148083,0.0819306
-0.0103427,0.0255492
0.0138899,0.00770528
0.0362771,0.00529642
0.0458319,-0.0082287
0.0323005,-0.00909311
-0.0425733,0.00798007
-0.115693,0.011469
-0.117685,0.014646
0.0119394,0.00792743
0.146648,-0.00536167
0.139784,-0.0202266
0.0188513,-0.0205094
-0.100579,-0.00513371
-0.108963,-0.00332639
-0.0342952,-0.0020668
0.0238221,-0.0113083
0.0492127,-0.0371859
0.0345284,0.0070173
0.00477426,-0.0304868
0.00723298,-0.120996
0.0270126,-0.139611
0.0159437,-0.0840366
-0.0819617,-0.0177254
-0.130565,0.0699435
-0.0843226,0.106607
0.0414773,0.100607
0.115986,0.121586
0.0902877,0.0841979
0.0185262,-0.0174876
-0.0131834,-0.0446199
-0.0173701,-0.0447814
-0.0179548,0.016471
-0.0147588,0.00885178
-0.0260855,0.0381858
-0.016943,0.0556216
0.0151932,-0.00155158
0.0554087,-0.0275062
0.0642465,-0.0262629
0.0265737,-0.0222522
-0.0326807,0.00668932
-0.0688406,0.0368258
-0.0837371,0.0274181
-0.0701986,0.00664382
-0.0109096,-0.0150462
0.0280448,-0.0276919
0.0317317,-0.0424888
0.0192685,-0.0125511
-0.00708995,-0.02215
-0.0165857,0.01116
0.00124132,0.0241474
0.0251449,0.0130591
0.032089,0.0116352
0.0121813,0.017357
-0.00111639,0.00331268
0.000192251,-0.00480839
0.0184817,-0.00427129
0.0447556,0.00373791
0.0861964,0.000120271
0.0846625,-0.0366545
0.0496502,-0.0763436
-0.0181612,-0.118199
-0.104742,-0.135304
-0.124945,-0.065067
-0.0573189,0.0498852
0.0509173,0.105367
0.104946,0.148781
0.0701802,0.0947449
-0.0120425,0.0449803
-0.083486,0.0169806
-0.102019,-0.0321804
-0.0893383,-0.0481205
-0.0748903,0.000386075
-0.0421341,0.01179
-0.00481615,-0.0179039
0.00728563,-0.007578
0.027076,0.0153639
0.0889782,-0.00958244
0.129423,0.0161854
0.0834459,0.0393206
0.0280429,0.0102436
-0.0113514,0.00286946
-0.0549887,-0.031972
-0.0442392,-0.00239783
-0.018434,0.00453401
0.00292384,-0.00700432
-0.0126684,0.0144866
-0.0431138,-0.0116718
-0.0420159,-0.0285663
-0.0146144,-0.00942946
0.0197163,0.0144027
0.0344575,0.0024472
0.0214456,-0.0162299
0.00763843,0.00591539
0.0170803,-0.0201893
0.0529707,0.00359724
0.0790304,0.0145158
0.0661869,0.00284412
0.0119663,0.0136761
-0.0251656,0.0106939
-0.0241879,0.000854431
-0.0133975,-0.00403537
-0.0295893,0.000166654
-0.0817715,0.011059
-0.0867442,0.0275016
-0.0503045,0.0131776
-0.0154689,-0.00468818
0.005409,0.00562543
-0.00994358,-0.0309014
-0.0237475,-0.0917665
-0.00866601,-0.118573
0.0540297,-0.102519
0.100118,-0.0532136
0.0673427,-0.0350583
0.0374157,-0.0112237
-0.0261511,0.0738999
-0.0713129,0.199297
-0.0606495,0.143486
0.000235665,0.00824466
0.0293471,-0.012974
0.0171661,-0.00826009
0.0101339,0.0110576
0.0624925,-0.0530377
0.0735365,0.00842286
0.0386036,0.0837571
-0.0328514,0.0485665
-0.0644287,-0.000588043
-0.0363177,-0.00653015
-0.0367999,-0.0236055
-0.0455606,-0.0155611
-0.0336707,-0.0034483
-0.034352,-0.00332668
-0.0143182,-0.0111209
0.0155945,-0.017701
0.0222538,-0.0204206
0.00348509,-0.0176297
-0.0103616,-0.0180211
-0.00745546,-0.0146328
0.00877243,-0.00547918
0.0291943,-0.0147159
0.038433,0.0159203
0.0161929,0.0140186
0.0117122,0.027049
0.00655859,0.015028
0.00113122,0.000132502
0.000927623,-0.0222664
0.00881617,-0.0239209
0.019254,-0.0250807
0.0142929,-0.0153873
-0.0198881,-0.0260792
-0.0561747,-0.0365448
-0.0406226,0.00677588
0.0165196,0.0278624
0.0580112,-0.000914639
0.0285853,-0.0290209
0.0290259,-0.0096315
0.0618009,0.0308523
0.0725205,0.0569239
0.0328547,0.0654413
-0.0187285,0.0585752
-0.0612837,-0.0155995
-0.105291,-0.0832326
-0.118725,-0.0644952
-0.0615308,-0.0695658
-0.00159263,-0.0260609
0.00993096,0.0266614
0.00259234,0.11926
-0.0178673,0.0640731
-0.014578,-0.00360104
0.0480423,-0.00522044
0.0414272,0.0258945
0.033898,0.0296633
0.0108598,0.018338
0.00346611,0.0264744
-0.0143625,0.0132273
-0.00714548,-0.00161405
0.0222145,0.00214167
0.0550255,0.0393609
0.0144588,0.00440815
-0.0405644,-0.0671779
-0.0089298,-0.138094
0.0416511,-0.194643
0.0479938,-0.108148
0.016628,0.000663769
-0.0349673,0.051453
-0.0327429,0.0532989
0.0319941,0.0541083
0.0375014,0.0904963
-0.0034258,0.0800926
-0.0620195,0.0530145
-0.0902832,0.0349789
-0.070475,0.0256953
-0.0275706,0.00899871
0.00288397,-0.0129022
0.0294567,-0.0378309
0.0255361,-0.0420174
0.0120064,-0.00837035
0.00972048,-0.0163216
-0.00966548,-0.0201041
-0.028935,-0.0228394
-0.0101944,-0.0366765
0.0213554,-0.0435488
0.0172575,-0.026873
-0.00406157,0.00397992
-0.00274803,0.0229053
0.00784083,0.0401084
0.00900855,0.0396451
0.0173589,0.0307964
0.0664971,0.0256808
0.120469,0.0228514
0.148482,-0.0115373
0.111125,-0.018355
-0.0344684,-0.0188009
-0.157026,0.0159217
-0.184273,0.0485748
-0.123131,0.0312689
-0.0449367,-0.0280491
-0.0142332,-0.0365592
-0.00522742,-0.0330948
0.0246657,-0.09095
0.0532697,-0.0940015
0.049435,-0.0401063
0.0076946,0.0608268
-0.0281093,0.0939066
-0.00358918,0.101078
-0.0158642,-0.017764
-0.0275717,-0.00742748
0.0217161,0.0525802
0.10291,0.0335265
0.119565,0.008551
0.0662127,-0.00522992
0.0549077,-0.0404925
0.0334602,-0.0485274
-0.0326496,0.000713054
-0.0498761,-0.00395159
-0.0398335,-0.0347231
-0.0599572,-0.0420852
-0.0447568,0.0292884
-0.0175576,0.0837225
-0.0269669,0.0137276
-0.0386729,-0.0425037
-0.0544541,-0.0575536
-0.0722457,-0.0139456
-0.0872436,0.00938972
-0.0547925,-0.067028
0.0148266,-0.0628453
0.0217252,-0.0171543
0.00135841,0.00165351
0.0541926,0.0245097
0.109576,0.0385989
0.075785,0.0548556
0.0254176,0.0762265
0.017773,0.0880176
0.00537277,0.0520404
-0.0261077,-0.000660434
-0.064459,-0.0328064
-0.0932445,-0.0570771
-0.0704879,-0.0171024
-0.0237705,0.0246667
0.0105635,0.0195903
0.0546527,0.0132864
0.121009,-0.0236727
0.149364,-0.0171053
0.0731012,-0.0140307
-0.0426829,-0.0365016
-0.0826876,-0.0804852
-0.0414278,-0.0844084
0.013748,0.0195615
0.0685679,0.0892748
0.063914,0.0588512
0.00261377,0.0597242
-0.0475228,0.0320849
-0.0719153,-0.0322395
-0.0565405,-0.041092
0.00516393,-0.014915
0.0629212,-0.00419644
0.0528995,0.0198157
-0.0425937,0.010131
-0.0882582,0.00322244
-0.026847,0.0115692
0.0441294,0.0403201
0.0836166,0.00112615
0.0582835,-0.0185161
-0.0248344,-0.0472219
-0.0747293,-0.0391106
-0.0471571,-0.0545304
-0.00498109,-0.0232768
0.00809597,-0.0576468
-0.0119415,-0.0847746
-0.0282701,-0.00556175
-0.0300171,0.0486167
-0.0256921,0.0676032
-0.0128122,0.073552
0.00462329,0.0539434
-0.014545,0.00285068
-0.00503514,-0.00252106
0.0639217,0.0227649
0.122893,0.015975
0.111384,0.00625648
0.0324383,0.00461168
-0.0294418,-0.0159576
-0.0510991,-0.0389643
-0.0549584,-0.0256512
-0.0433163,-0.00190161
0.00275876,0.0594738
0.00800848,0.0779703
0.00476382,-0.0474519
0.0204745,-0.0665563
0.00262983,-0.0614507
-0.0472502,-0.00954572
-0.0865983,0.0217748
-0.0816946,0.0474167
-0.0254704,0.0475916
0.00430248,0.0336524
-0.00444234,0.0232132
-0.00518106,0.00984509
0.0129323,0.00575245
0.0550714,0.0167976
0.0819176,0.00760783
0.0737825,-0.0316884
0.0478156,-0.0440584
0.00138292,-0.0668623
-0.0338085,-0.135205
-0.0372081,-0.0956157
-0.0194867,-0.0296205
0.0271436,-0.00322209
0.0879737,0.0324488
0.0544825,0.0178712
-0.0193898,0.0260038
-0.0567188,0.0372107
-0.0471058,0.041207
-0.0175057,0.0767007
-0.0140079,0.106064
-0.000247333,0.0863502
0.00182186,0.0457585
-0.00844064,0.0103763
-0.0150998,-0.0271652
-0.0240783,-0.0446698
-0.015999,-0.0700759
-0.0190033,-0.0620701
-0.0186368,-0.0434828
-0.0121175,-0.0243568
0.0183679,0.00545043
0.0396752,0.0213819
0.0500649,0.0279734
0.0317411,0.0382319
-0.0176254,0.0472258
-0.0256496,-0.0133997
0.0197084,-0.03561
0.0293002,-0.0146064
0.00553175,-0.0127768
-0.0168921,-0.0324804
-0.0168822,-0.0306879
0.00277784,-0.0162563
0.0500967,-0.00429391
0.081835,0.0107402
0.0736908,0.0658168
0.0625128,0.0552851
0.0188738,0.0151674
-0.0789058,0.00365246
-0.151806,0.0311144
-0.170497,-0.000814882
-0.14071,-0.0433755
-0.0152846,-0.0340919
0.0970473,-0.0114696
0.102315,-0.0192962
0.0404709,-0.0123701
-0.0130048,0.00487706
-0.0286927,0.00384994
-0.0382709,-0.00249879
-0.0459122,0.0070385
-0.0514223,-0.00559025
-0.0126595,0.00963651
0.0612669,0.013293
0.0893807,0.00672113
0.0620194,-0.00797404
-0.0167056,-0.0228046
-0.0677121,-0.0402693
-0.0394167,-0.0823437
0.0352561,-0.0975465
0.0691329,0.0110747
0.0715511,0.114089
0.0506117,0.0923076
0.025907,0.023157
0.0141776,-0.0502921
-0.0299842,-0.0208982
-0.061053,-0.00191139
-0.0670139,0.00985151
-0.0457156,0.0299717
-0.0158123,0.0229369
0.0136138,0.0205201
0.00641519,0.035221
-0.0285161,0.0404475
-0.0279864,0.0160582
0.0129653,-0.00888996
0.0157694,0.0188411
0.0161709,-0.0279942
0.0591747,-0.0317616
0.0750436,-0.0122655
0.0607155,-0.0158756
0.0305697,-0.0221651
-0.00990604,-0.00676941
-0.0580101,0.0163355
-0.080332,-0.00498025
-0.0149618,-0.00117271
0.0535468,0.0140107
0.0831255,0.00370182
0.00395474,0.0151972
-0.116728,0.0282768
-0.0867447,0.00969307
0.0375844,-0.0379658
0.087438,-0.0771767
0.0723242,-0.0690991
0.0102035,-0.0321384
-0.0527026,-0.0198492
-0.0690229,-0.0357153
-0.061513,-0.00837731
-0.037329,-0.0342901
-0.0103456,0.0286821
-0.00148086,0.0685507
0.01085,0.0425449
0.00780108,-0.00370669
0.0113694,-0.0014338
-0.00139242,0.0282417
-0.0148002,0.0397352
0.00538752,0.0549053
0.0271536,0.0527884
0.0491541,0.047648
0.0664161,0.0319282
0.0234686,0.00532991
-0.042294,-0.00887551
-0.0870859,0.0177764
-0.103198,0.0142792
-0.0698505,0.00387176
0.0153252,-0.0278964
0.0619582,-0.0567034
0.0569548,-0.0647299
0.0558722,-0.0433683
0.0167203,-0.027048
-0.0113062,-0.0129962
-0.0145497,0.0187279
-0.0428933,-0.029236
-0.019066,-0.073427
0.0419413,-0.065898
0.0806426,-0.0247664
0.0436158,-0.046883
-0.0234335,-0.114198
-0.0541268,0.0342211
-0.0562383,0.194056
-0.00163372,0.190126
0.0861986,0.0752481
0.0965359,0.0126754
0.0394138,0.040543
-0.0286669,0.0512295
-0.0532824,-0.0823455
-0.0155348,-0.0269557
0.0212536,0.02963
0.0308836,0.0246834
-0.00342166,-0.0659976
-0.0513678,-0.0757198
-0.0753825,-0.00256142
-0.100436,-0.0211582
-0.105608,-0.026111
-0.050698,-0.0236729
0.0486182,-0.00928313
0.0650577,-0.00107431
0.0344906,0.0135872
0.0403534,0.0291152
0.025487,0.0067855
-0.0166271,-0.0264213
0.0156103,-0.00833835
0.0630851,0.00551502
0.0795021,0.0126682
0.0514077,0.0123783
0.00992874,0.0608956
0.0463461,0.0394458
0.027143,-0.0110072
-0.0471279,-0.0244349
-0.108649,-0.0213491
-0.0957309,-0.0309106
-0.0233965,-0.0303557
0.034789,0.0151577
0.0473835,0.0180054
0.0203128,0.0106576
-0.0708503,0.00855307
-0.0814193,0.00127942
0.000985195,-0.0267243
0.0485987,-0.0369054
0.0283667,0.0035018
0.0209913,0.0185729
-0.0354486,-0.00137114
-0.0844828,-0.0441492
-0.0354849,-0.0656903
0.066572,-0.0951785
0.0907728,-0.0401527
0.0461149,0.0405243
0.00903299,0.0994812
-0.0255138,0.128489
-0.0388364,0.0795069
-0.0258661,0.0301662
0.000163682,0.00164949
0.0293744,-0.0133717
0.0543622,-0.0490975
0.023328,-0.0629059
-0.0203277,-0.0337824
-0.00653192,-0.00804158
0.00292403,0.0135244
-0.0174973,0.0153435
-0.0377933,0.011107
-0.0449813,0.0648028
-0.0391674,0.0424342
-0.0107482,0.00928013
0.0197625,0.00104271
0.0357455,0.00539805
0.044795,-0.0149634
0.0469709,-0.0280966
0.00388026,-0.0210548
-0.0689394,-0.0427862
-0.100113,-0.0351612
-0.0273123,0.0104294
0.0229548,-0.00547576
0.0176415,-0.0353712
0.0270924,0.0185593
0.038634,0.0129267
0.0158675,0.0213111
0.00854203,0.0248834
0.0135144,0.00507482
0.0223332,-0.00209239
0.0400703,0.00347028
0.0446347,-0.0026866
0.0332747,-0.0204651
0.00743509,-0.0280188
-0.00163845,-0.0204794
5.49e-05,-0.00160214
0.00176244,0.0112361
-0.00528797,0.0275624
-0.0199313,0.002211
-0.068048,-0.0345572
-0.0988147,-0.0210233
-0.0627703,0.0171253
-0.0213269,0.0350023
-0.0168131,0.0280664
-0.0197381,0.00494302
0.0118365,-0.0192967
0.0333088,-0.0111972
0.0443585,-0.00355973
0.0528634,0.00392943
0.0193784,0.0176923
0.0131016,0.0686596
0.0299296,0.00861003
0.0147665,-0.0662426
0.0397711,-0.110478
0.079598,-0.0199697
0.0542023,0.0336058
0.0239164,-0.0326361
-0.00318119,-0.0654282
-0.0460888,-0.0125492
-0.086283,0.0738489
-0.0931131,0.10089
-0.0613643,0.0633142
-0.0380143,0.0155405
-0.00914863,0.0113343
0.0620761,0.0149076
0.0692043,0.00684525
-0.0215118,-0.00628207
-0.144409,-0.0278137
-0.155117,-0.0373774
-0.054977,0.00563678
0.0358971,0.0182962
0.0476258,-0.0105185
-0.00283073,-0.00165851
-0.0335103,-0.0536012
0.0121061,-0.0512682
0.0905025,-0.0385936
0.127149,-0.0362269
0.0733766,0.0297883
0.0198895,0.0889786
0.00429295,0.122601
0.0383792,0.0104321
0.0373808,-0.0222501
0.032344,-0.0339324
0.0311667,-0.0108038
0.000255006,0.011515
-0.0380741,0.0388628
-0.0487797,-0.0196299
-0.0536495,-0.0295636
-0.0113717,0.00270006
0.0344625,-0.00922073
0.0255748,-0.0217443
-0.0207722,0.00938318
-0.0636142,0.0100864
-0.0455354,-0.0280666
-0.0200582,-0.0536629
-0.00246031,-0.0439955
0.011947,0.00195155
-1.65e-05,-0.00380909
-0.00236459,0.00569017
0.00730995,0.0291777
0.00638627,-0.00939003
-0.0212099,0.0128757
-0.0504011,0.0215825
-0.0436095,0.00716237
0.00936328,-0.0423581
0.0515983,-0.0100667
0.0769267,0.0572407
0.0686174,0.0363838
0.093331,0.0264226
0.143289,0.00736009
0.0497325,0.016227
-0.0808147,0.0360008
-0.101172,0.0138821
-0.0924343,-0.0238246
-0.0722242,-0.0167804
-0.0468752,-0.0543376
-0.000962548,-0.11253
0.056256,-0.0253817
0.0425875,0.0490056
-0.0286297,-0.00435896
-0.0988979,-0.0056468
-0.0736443,-0.0202973
-0.0284887,-0.0387936
-0.00240753,-0.0229204
0.0382785,0.0441548
0.0679214,0.111933
0.0460131,0.0262927
0.0233749,-0.03283
-0.00441071,-0.0149815
-0.0298513,0.0105352
-0.0185196,0.0564894
0.00514967,0.0847325
0.0426534,0.0226418
0.0334486,-0.0527266
-0.0262884,-0.0360594
-0.0439384,-0.0229864
0.00785384,-0.0301782
0.0552059,-0.0279017
0.0867123,-0.0139216
0.0607971,0.0773748
-0.0076483,0.00868748
-0.0533791,-0.0621409
-0.032241,-0.00369738
-0.00450168,0.0258349
0.0208397,0.0318056
0.0297234,0.0222217
-0.00746753,-0.0219528
-0.0584749,-0.0316843
-0.0969191,-0.0179869
-0.0918311,-0.0303355
-0.0452168,-0.0266124
0.00338608,0.0151248
0.0376878,0.0497998
0.0276987,0.0223442
0.0290751,0.00791166
0.0577833,-0.0281311
0.0793151,-0.0333405
0.041076,-0.0240314
-0.00479726,0.023203
-0.0262195,0.0746541
-0.0209101,0.0116635
-0.00574765,-0.0285012
0.00755306,0.00314861
0.01368,0.00447588
0.0189643,-0.0284657
-0.00455461,-0.013502
-0.0253268,-0.0378063
-0.0374335,-0.0622246
-0.0344688,-0.061977
-0.0290152,0.00428902
-0.035644,0.0628411
-0.0569544,0.0518959
-0.0462764,0.00136137
0.024614,0.000707173
0.0905749,-0.00216013
0.113696,-0.0324257
0.0774491,0.00228699
-0.0109159,0.0895273
-0.09794,0.0585897
-0.0632898,-0.00574064
0.020868,-0.0232853
0.0167969,-0.0308624
0.0186392,0.0130007
0.0524356,0.0296665
0.0922873,-0.00128539
0.0970298,0.00375726
0.0497686,0.0161659
-0.0320362,0.0256811
-0.0886719,0.0211156
-0.110525,-0.0391766
-0.0711988,-0.0926457
-0.0526696,-0.0342227
-0.0381175,0.0368482
0.0136119,0.0485101
0.0384241,-0.0334217
0.0481485,-0.0245215
0.0366847,0.0229367
-0.0068397,0.0570938
-0.0195869,0.0138196
-0.0142288,-0.0611476
-0.00534374,0.00634193
-0.0129186,-8.01e-05
-0.0214325,-0.0279134
-0.0410019,0.00404519
-0.0384273,-0.051301
0.0136506,-0.0225048
0.0379846,0.0110034
0.0361251,-0.00314682
0.0425679,0.0209546
0.0319447,0.0311335
0.0145605,0.00752395
-0.0109131,0.00225019
-0.0537157,-0.00573026
-0.0760525,0.00748766
-0.0459703,0.00053976
0.0124365,0.0120184
0.0298895,-0.0164504
0.0199602,-0.00208064
-0.0206577,0.0112732
-0.0598743,-0.0151024
-0.0112341,-0.00794658
0.0749777,0.00381526
0.145405,0.00280951
0.138403,0.00280658
0.0991461,-0.00198694
0.0322039,-0.00231834
-0.0312067,0.00410319
-0.0750148,0.011238
-0.0761212,0.0332922
-0.0840833,0.00891513
-0.0986763,-0.0710592
-0.0610668,-0.0337912
-0.0294415,-0.00610115
-0.0100709,0.02538
0.011202,0.0507217
0.00847818,0.0186173
0.0591481,0.0225117
0.110916,0.0583907
0.0907965,-0.0307802
0.0584534,-0.0396285
0.0590845,-0.0357519
0.0573196,-0.0338729
0.0385937,0.0696018
-0.0387029,-0.0221781
-0.132334,-0.0176358
-0.161629,0.0338372
-0.130757,0.0220809
-0.112916,0.0278488
-0.0320877,-0.0151017
0.0929306,-0.0316153
0.129214,-0.018263
0.0747184,0.00249031
-0.0460419,0.0254994
-0.0904976,0.00393033
-0.0512024,-0.0165745
0.00299258,-0.0125194
-0.00399888,-0.0138502
0.00656916,-0.0144
0.0174404,-0.00277886
0.0123952,0.00346146
0.00939516,-0.00572939
0.0106157,0.000168864
0.0265463,0.00341414
0.0350756,0.0191423
0.0298517,-0.0121242
0.0146153,-0.0349838
0.0242555,0.000621817
0.0318634,0.00670436
0.00895326,-0.00126363
-0.00921498,-0.00425861
-0.002187,-0.00298682
0.0189566,0.00248612
0.00695136,-0.000392327
-0.0250914,-0.0046708
-0.0404734,0.00740672
-0.0430894,0.0191317
-0.0396971,0.040741
-0.0476002,0.0347794
-0.0497652,-0.0109118
0.0103249,0.00984536
0.0543724,-0.0188472
0.0683913,-0.0325592
0.0515978,-0.0165447
0.00894949,0.00157049
-0.0241243,-0.0118772
-0.00449167,-0.00323897
0.0535415,-0.00984382
0.0950377,-0.00838368
0.0915977,-0.00497971
0.031905,-0.021663
-0.0512154,0.0137609
-0.0759565,0.0341315
-0.0685299,-0.00972162
-0.0816159,-0.0168346
-0.0554871,0.0287465
-0.0391391,0.0577531
-0.0194469,-0.00852867
-0.00065085,-0.0144691
0.0259671,-0.00681097
0.0430058,0.0234885
0.0419018,0.0314738
0.0247519,-0.0204262
0.0138902,-0.030927
-0.00641552,-0.0286909
-0.0206472,0.00115235
-0.0268681,0.0296237
-0.045975,-0.00214362
-0.0526445,-0.0106975
-0.00576315,0.0138846
0.0148205,0.0118636
-0.00466182,-0.00410922
0.025414,0.0407664
0.0807575,0.0558698
0.0753737,-0.0609745
0.024973,-0.0425686
-0.0223541,-0.0346321
-0.0414792,-0.0329911
-0.0360254,0.00312119
-0.0186064,0.00769647
-0.0241626,0.0117924
-0.0214858,0.0307563
0.0208553,0.0149538
0.0550599,-0.021756
0.0527644,0.00510353
0.0134437,0.00776329
-0.0186114,0.0063194
-0.0334694,0.0161854
-0.0280244,-0.00221549
0.00965335,-0.0178549
0.0310108,-0.00753351
0.0257862,-0.000255514
0.0123788,0.0239194
-0.0131073,0.00119608
-0.0318248,-0.0021593
-0.0393892,0.0212592
-0.053247,-0.0173288
-0.0359396,-0.0347229
-0.00402562,-0.0054346
0.0172495,-0.0014919
0.0180552,0.00391192
0.00899842,-0.00151183
0.0180501,0.00100454
0.0281808,0.00872246
0.0279239,-0.00243996
0.0266655,-0.0172516
0.0247592,-0.0277245
0.022784,-0.0122048
0.0192369,0.0163047
0.00795248,0.0224871
-0.000559822,0.0167076
-0.0113229,0.0107634
-0.021728,0.0122515
-0.0193894,0.0168584
-0.0164948,0.0162785
-0.037397,0.00648458
-0.0516576,-0.0237816
-0.0450434,-0.0243087
-0.0495663,-0.018296
-0.0571334,-0.0127521
-0.0366615,-0.0156452
-0.00573148,0.00420318
0.0217429,0.0139695
0.0447912,-0.00779553
0.0652103,-0.0237349
0.081253,-0.00549505
0.0911666,0.0293692
0.0748435,0.053338
0.0212553,0.0216578
-0.0233536,-0.01
-0.0757715,0.0302826
-0.0886238,0.00249491
-0.0234052,-0.0156783
0.0283734,-0.0245599
0.020762,-0.0388069
-0.00596239,-0.0345144
0.0132608,-0.00827318
0.0428923,-0.025639
0.0364278,0.00360467
0.00614482,0.00572806
-0.0208907,0.00619954
-0.0396545,0.0271657
-0.0391539,0.0459506
-0.0218962,0.0409665
0.00846618,-0.0350454
0.0382628,-0.00299298
0.0322512,0.0246762
0.0423327,0.0124266
0.0380891,0.000492013
-0.00489954,0.0340157
-0.0351847,0.0234168
-0.0443079,-0.0674652
-0.0289852,-0.0664409
-0.0501306,-0.0225723
-0.0674124,0.0117893
-0.0331288,0.016592
0.00916162,0.0130539
0.0369954,-0.0190499
0.0303874,-0.0479322
0.0196539,-0.0178316
0.0282599,0.0409636
0.0383941,0.0239527
-0.00775365,-0.0037746
-0.0545954,0.0377357
-0.0664196,0.0691978
-0.0340499,-0.0312837
0.0443399,-0.0570359
0.101958,0.0025844
0.104907,0.0597331
0.086816,0.0229924
0.0614243,0.0123144
0.0500697,0.0393248
0.0122259,0.0037058
-0.0619115,-0.059491
-0.111299,-0.0304915
-0.0895835,-0.0325173
-0.0429639,-0.033131
-0.0268866,-0.00481465
-0.0299165,0.00835878
-0.026793,0.0120976
-0.0265723,0.00798199
-0.0400832,-0.0148896
-0.0555109,-0.0343448
-0.0547229,-0.00164142
-0.024714,-0.00233255
0.014179,-0.00504537
0.038267,-0.0024909
0.00616241,0.0256258
-0.0234439,0.0221458
-0.0104592,0.00208432
0.013972,0.00474981
0.0251719,-0.00786547
0.125238,-0.00100715
0.161762,-0.0244638
0.12207,-0.00491159
0.0402179,0.0169364
-0.0176245,0.00203328
-0.0319289,-0.00490918
-0.0108598,0.00442862
-0.0135501,-0.00897348
-0.0114933,6.18e-06
-0.0259576,0.0560404
-0.0583626,0.0423838
-0.0603303,0.0385428
-0.0690893,-0.0191999
-0.0585269,-0.0228741
0.00826179,-0.0281464
0.0588834,-0.0262247
0.0676117,-0.00784904
0.0306214,0.00537784
-0.0224383,0.00328864
-0.0352809,0.00692068
-0.0172168,-0.0173098
0.0148183,-0.0193125
0.0146748,-0.010945
-0.0106515,0.0144614
-0.0219718,0.0054429
-0.0262785,0.0468205
-0.043673,-7.24e-05
-0.0436594,-0.00294663
-0.0235154,-0.00282963
-0.0026115,-0.00672427
0.0298123,-0.0072834
0.0527463,0.00509255
0.0723166,0.00250079
0.0621887,-0.0366559
0.0209302,-0.0233582
-0.0208123,-0.0297103
-0.0336272,-0.0103938
-0.00497186,0.0211962
0.0335189,0.0220454
0.0837967,0.0167867
0.105834,0.0118938
0.0583424,0.0052986
-0.0198534,0.0129623
-0.0733679,0.0192617
-0.0762432,0.0167726
-0.0613479,0.0210898
-0.0679323,0.0225339
-0.0637917,-0.00889226
-0.0441008,-0.00858286
-0.0188315,-0.0133249
-0.000925019,-0.018822
0.00364915,-0.015119
0.00299443,-0.00412318
0.0102828,-0.000304892
0.0249483,-0.00445465
0.0283144,-0.0002838
0.00237318,-0.00500162
-0.0280748,-0.022347
-0.0384536,-0.0374191
-0.0251317,-0.0261692
-0.00768006,0.0194764
0.0016335,0.0308874
0.00188434,0.0083625
0.00533277,-0.00281269
0.012039,-0.00621853
0.0329418,-0.0078809
0.0586935,-0.00938383
0.0531148,-0.0093601
0.0127852,-0.00115808
-0.021433,0.00965898
-0.0360294,0.0088911
-0.0423057,-0.00631061
-0.0332481,-0.00682095
-0.0126582,-0.00465666
0.00868976,0.00188808
0.0333266,0.0153216
0.0484995,0.0187926
0.0367578,0.0139892
0.0204815,0.0172849
0.0286272,0.0191689
0.0723566,0.0151094
0.102331,-0.0109189
0.0718599,0.00452774
-0.0030988,-0.0149107
-0.0565949,-0.00807032
-0.0632421,0.00851751
-0.0366266,0.0284307
-0.00320248,0.0400323
0.0197543,0.00256717
0.00795416,-0.0097016
-0.0243449,-0.00335662
-0.0541949,-0.00986949
-0.0647154,-0.0259086
-0.0594514,-0.023162
-0.0418968,-0.0265814
-0.0565433,-0.0219753
-0.0887493,-0.0421888
-0.0849763,-0.00219211
-0.0416821,0.0287058
0.0229982,-0.0226439
0.0858336,-0.0428171
0.153558,0.00355862
0.151255,0.0318423
0.0534828,0.0441714
-0.0171903,0.038168
-0.0210013,0.00896244
-0.00151459,-0.0105756
0.0243938,-0.00150859
0.0315982,-0.00155091
0.0418053,0.0138028
0.0418151,0.0272579
-0.00298615,0.0216583
-0.0336288,0.00605795
-0.0473216,-0.00471739
-0.0488129,-0.00993089
-0.026144,-0.00930333
-0.0586916,-0.0102288
-0.114729,-0.0147726
-0.0967452,-0.0196053
-0.0250036,-0.0131617
0.013535,-0.0106754
0.0266996,-0.0156903
0.00394532,-0.0137874
-0.0208613,-0.0115266
0.0158325,-0.00915262
0.0175264,0.000917922
0.0659858,0.0148179
0.0628063,0.0172186
0.00608021,0.0122276
0.0669101,0.0178854
0.110685,0.0201583
0.115164,0.0192573
0.0939319,0.00730711
0.0402792,0.000646919
-0.0176682,-0.000309853
-0.0511279,-0.00321773
-0.0658747,-0.0127708
-0.0568727,-0.0187342
-0.0667322,-0.0186504
-0.108079,-0.0146147
-0.11177,-0.00474858
-0.145618,0.00286769
-0.183799,0.00805947
-0.0524502,0.0182321
0.0992704,0.0122444
0.156242,-0.0084817
0.122477,-0.0181259
0.0486749,-0.0229396
0.0129709,-0.0192348
0.00746192,-0.0149374
-0.0142156,-0.0101244
-0.0327474,-0.00529922
0.0358344,0.0106976
0.0862136,0.016137
0.0628929,0.00718085
0.0149581,0.00203004
-0.0183182,0.00702203
-0.0119992,0.00522546
-0.0115015,0.000232017
-0.0177483,0.00739258
-0.0465002,0.0193712
-0.0494879,0.0204936
-0.0256565,0.0118885
0.0337961,0.0151072
0.0762597,0.0132913
0.0128923,-0.0025652
-0.0138374,-0.00752647
0.0140239,-0.00529786
0.0354043,-0.00409715
0.02028,-0.000121201
-0.00219723,-0.00839042
-0.0200013,-0.0120155
-0.0176647,-0.00273428
-0.00775487,0.0111325
-0.0118933,0.00526703
-0.0545147,0.0135552
-0.0112302,0.0294421
0.0767002,0.0212788
0.104881,0.00488208
0.111477,0.0115867
0.0213932,0.0105237
-0.13722,-0.00870136
-0.202243,-0.0370446
-0.103796,-0.0360581
0.00265457,-0.0367689
-0.0414298,-0.0276224
-0.195477,-0.00886783
-0.247316,-0.0123053
-0.106039,-0.0320527
0.0389495,-0.0264111
0.110301,-0.00573891
0.0860377,0.00816357
0.0846579,0.0295744
0.107379,0.0409063
0.210974,0.0280265
0.246432,0.00589861
0.127852,0.00813914
0.0979565,0.00878159
0.114401,0.014582
0.0747449,0.0148656
0.0115409,0.00712622
-0.03253,0.00494106
-0.0564422,0.0111913
-0.0705484,0.000157549
-0.0720319,-0.0213954
-0.119627,-0.0223426
-0.171052,-0.0194844
-0.101661,-0.0254963
0.0596381,-0.0312966
0.119341,-0.00392637
0.0447332,0.0402718
-0.00510303,0.044184
-0.0353897,0.0188198
-0.0700548,-0.000981251
-0.164577,-0.0154226
-0.250202,-0.00999512
-0.290779,0.000774952
-0.199306,-0.00557432
0.0227156,-0.0260742
0.151136,-0.0158581
0.174582,-0.0101074
0.144755,-0.00961506
0.132221,0.00774341
0.123805,0.0192724
0.0636779,0.0159489
0.0898772,0.00308192
0.136607,-0.00999517
0.0581782,0.00637663
-0.018953,0.00933344
-0.0707941,-0.00122104
-0.0834087,-0.0100753
-0.0650348,-0.0144121
-0.0258808,-0.0231046
0.0348656,-0.0131018
0.0437391,-0.00264759
-0.0119654,0.00316009
-0.0135969,0.0189291
0.0262958,0.029156
0.058042,0.0224439
0.0634969,0.0198257
0.0292671,0.0143362
0.00313596,0.0231088
-0.0278281,0.0379828
-0.0756545,0.0326393
-0.016094,0.00532637
0.0139739,-0.0165512
-0.0683727,-0.0458337
-0.0698695,-0.0551231
-0.0315495,-0.0441295
-0.00978445,-0.0415705
-0.0215506,-0.0340654
-0.0338281,-0.0022381
-0.0318338,0.0120493
-0.0201054,0.00859223
-0.0163012,-0.00370731
-0.0154579,-0.0078674
0.00118088,0.00304756
0.0483209,0.023382
0.0743488,0.0285647
0.0595574,0.019086
0.0247456,0.0112612
-0.0191923,0.0121762
-0.0506343,0.000404897
-0.0506347,-0.013789
-0.00973438,-0.0186363
0.0190354,-0.0203954
0.0287573,-0.014182
0.0251627,-0.00460701
0.0191243,0.00525582
0.027249,0.0174019
0.0390092,0.018453
0.0354175,0.0111553
0.0130138,0.00915781
-0.0222211,-0.00549299
