Comp Ch 3,Comp Ch 4
0.110061,-0.0343168
0.0401252,-0.00961516
-0.0795571,0.00660185
-0.174186,0.0538117
-0.156464,0.0214712
-0.0918565,-0.0562949
-0.0458435,-0.0352872
0.0732998,0.0387517
0.0200424,0.0173031
-0.0157821,0.028663
-0.0600137,-0.0195552
-0.0522765,-0.0348442
0.0104905,0.0355545
0.189295,0.012352
0.215114,-0.0208296
0.100237,-0.0749425
0.0967351,-0.0796084
0.122822,0.0325626
0.0998147,0.0313853
0.0451573,-0.00217358
-0.0690097,-0.0234397
-0.13738,-0.0122733
-0.107845,-0.00796537
-0.113499,-0.00769401
-0.22939,0.052933
-0.207599,0.0657273
0.0412234,0.0506849
0.13853,0.03088
0.104059,-0.0103911
0.0547994,0.00190966
0.00909137,-0.0143607
0.00415702,-0.0111195
0.0402808,0.0107451
0.00992171,0.0406182
-0.00581847,0.111275
-0.0291324,-0.0245724
-0.00148646,-0.0781546
-0.00433508,-0.0437785
-0.0262216,-0.0202051
-0.016489,0.00990567
0.0088437,0.0326792
0.00656658,-0.00688648
-0.00134523,-0.0557459
-0.0136287,-0.048929
-0.0391943,-0.0522953
-0.0384286,-0.052711
-0.0299523,-0.0475366
-0.00447243,-0.0630797
0.0246002,0.0983749
0.0594175,0.137344
0.081442,0.0679096
0.0804268,0.010284
-0.00370689,-0.017539
-0.0981623,-0.0158992
-0.0648227,-0.034798
0.000719772,-0.0536429
0.0368665,-0.0232233
0.0156325,0.0542785
-0.0895764,-0.00100559
-0.1298,0.0354658
-0.0102311,0.0276745
0.0954075,-0.0219071
0.0208505,-0.0465167
-0.0494761,-0.00469597
-0.0356379,-0.0141306
0.014932,0.012624
0.0633715,0.051121
0.0791584,0.0498514
0.0731489,0.0114801
0.0435452,-0.0199549
-0.0173854,-0.0213734
-0.0780749,-0.00842605
-0.090068,-0.0433021
-0.0078171,-0.0416644
0.086464,0.0125318
0.0564196,0.00273625
0.0215398,0.0350359
-0.0237852,0.0665628
-0.0231089,0.00471506
-0.0242224,-0.0409654
-0.0171489,-0.039421
0.000557185,-0.0271426
0.0138012,0.000609398
0.0214026,0.00832145
0.0304937,-0.00926564
0.0189167,0.0238151
0.0107666,0.051044
0.00139835,-0.0324458
0.00194603,-0.028065
-0.0110292,0.0211415
-0.018706,0.0430485
0.000692155,0.0588828
-0.00123049,0.0522627
-0.000631517,0.00352706
0.0067444,-0.0634469
0.0335505,-0.0327145
-0.0371254,0.0687911
-0.126689,0.0314737
-0.102672,-0.0416723
-0.0940009,0.00714035
-0.0367401,-0.0137327
0.0361852,-0.0324118
0.10038,-0.0131237
0.137865,-0.00813069
0.116809,0.000762093
0.0505315,0.0109003
0.00742955,-0.024456
-0.0334064,-0.0255824
-0.0635389,-0.0145373
-0.0532435,0.0034283
-0.0474454,0.00255649
-0.0135086,-0.00918791
-0.0105791,-0.00711467
-0.0395939,-0.00787909
-0.0369711,-0.0227398
0.0400549,0.013474
0.0808237,0.0335224
0.0535058,-0.0672931
0.0266019,-0.0734222
0.00237203,0.0513259
-0.0134043,0.0561116
-0.0152795,0.0558858
0.00103499,0.0141018
-0.0240642,-0.0941781
-0.0753797,-0.0690696
-0.0633313,-0.0191595
-0.0161453,-0.121685
0.0103476,-0.105571
0.0290691,0.0500283
0.0623367,0.073896
0.0485532,0.0476277
-0.00200645,0.0780127
-0.0231832,0.129377
-0.0157294,0.0797945
0.0194204,-0.00175457
0.0418827,0.0458313
0.035218,0.0457026
0.00865197,-0.0438394
-0.0111231,-0.0385215
-0.00978795,0.0581608
0.000654608,0.0650579
0.00794009,0.0420197
-0.0095749,0.00712013
-0.0202936,0.0164775
-0.0178949,0.0192472
-0.00068225,-0.00183482
0.00848962,-0.0378817
-0.00561396,-0.063757
-0.0271717,-0.0488094
-0.0277747,-0.0869889
0.0113511,-0.166361
0.0705963,-0.157861
0.0692894,-0.147222
-0.000345606,-0.0184629
-0.0501257,0.0912819
-0.0574595,0.0747213
-0.0354092,0.0850863
-0.0263936,0.0609679
-0.000522642,0.0569239
0.0256025,0.0804654
0.028194,0.050019
0.00401826,0.0304938
-0.00628508,0.0248297
0.0245545,0.0254971
0.0138716,-0.0260938
-0.0336733,0.0114435
-0.0168941,0.0458937
0.00996259,-0.0498415
0.0145011,-0.120887
0.0171182,-0.119249
0.0339755,-0.00516097
0.00574872,0.0738207
-0.0674111,0.0411464
-0.0859872,0.0201708
-0.0369382,-0.00644847
0.0538512,-0.0115849
0.078097,-0.00886357
0.0652278,-0.0590189
0.049305,-0.0106264
0.0229125,0.00171509
-0.0173817,-0.039807
-0.0145234,0.0152821
-0.0200541,0.0299646
-0.0771177,0.0400572
-0.104907,0.112013
-0.0726979,0.123473
-0.00261811,0.0613633
0.031489,0.000426049
0.00401755,-0.02427
-0.00621576,-0.0927351
-0.0341708,-0.180047
-0.0359682,-0.156674
0.0433698,-0.11039
0.106084,-0.0923699
0.0922358,-0.0076203
0.0892239,0.101682
0.0654946,0.150021
0.0174444,0.130799
-0.0175839,0.151712
-0.0215234,0.0784326
-0.00785302,-0.000308622
0.00069033,-0.0376614
0.00331847,-0.0760654
-0.0053666,-0.0895896
-0.0308034,-0.0763037
-0.037674,-0.00458616
-0.025512,0.0637324
-0.0177914,0.0850217
-0.0158193,0.0114049
-0.0251756,-0.0427039
-0.0401961,-0.0105231
-0.0415633,0.0154196
-0.0357964,-0.00869783
-0.0163013,-0.0257361
0.0178659,-0.0161157
0.0396984,-0.0580038
0.032575,-0.063169
0.0197086,-0.0226343
0.0194287,-0.013459
0.00106841,0.0128964
-0.0200682,0.04182
-0.0358163,0.0702845
-0.0122287,0.0427266
0.00969549,0.0173329
0.0418644,0.0240598
0.0484363,0.0451682
-0.0216954,-0.0534866
-0.0699972,-0.0540598
-0.0322833,-0.0353959
0.0404439,0.0158867
0.0789832,0.0196273
0.109721,-0.0356076
0.0818384,0.0190055
0.0106848,0.0657498
-0.0483067,0.028563
-0.0985897,-0.0140031
-0.100896,0.0512506
-0.0718374,0.0120943
-0.0207072,-0.0651754
0.0422099,0.0131722
0.0546305,0.00206836
0.0268083,-0.0088202
-0.00258588,-0.0557784
0.0010508,-0.107711
0.0127601,-0.0293747
0.00658337,0.032527
-0.00339481,-0.0442115
-0.00510609,-0.014091
-0.00558908,-0.0143249
-0.0176415,-0.0475167
-0.0160102,0.0616088
0.00491352,0.0709841
0.00993814,0.0843532
0.00087604,0.104112
-0.00541742,0.032789
-0.00478388,0.0128994
-0.00176394,0.000832322
0.00875897,0.0208583
0.0123117,0.0179817
0.0224138,0.00508947
-0.0219575,-0.0298329
-0.00588757,-0.00403361
-0.00150921,-0.00363543
-0.0189992,-0.00819672
-0.0208334,0.0144084
-0.0285891,0.103683
-0.0404426,-0.0957917
0.00566071,-0.183166
-0.00619577,-0.10881
-0.0297005,-0.0277721
-0.0304248,-0.0566919
0.0236251,-0.0267477
0.0867191,0.0035706
0.116298,0.0435404
0.0683876,0.0550537
-0.00925147,0.0426524
-0.038201,0.0345306
-0.0433408,0.0229617
-0.0434726,0.0230128
-0.0259197,0.0131236
0.0268847,0.00943278
0.0567582,-0.00281932
0.000623814,0.00880935
-0.0247661,0.0317295
-0.00572379,-0.0695649
0.0224739,-0.0160298
0.0484752,0.042555
0.0516422,-0.0234563
0.0655611,-0.0183462
0.0165337,-0.0428455
-0.0573518,-0.0145294
-0.0673435,0.0164946
-0.0234281,0.0286604
-0.0163705,0.1081
-0.0598621,0.00411067
-0.0630707,-0.0402076
-0.030035,-0.0642352
-0.00592251,-0.0363281
0.026019,0.0194493
0.0484006,-0.0374663
0.0392665,-0.108469
0.0164394,-0.124959
-0.0170683,-0.024645
-0.0661291,0.11455
-0.0922061,0.0978288
-0.0668375,0.0498437
-0.0220864,0.0669742
0.0546504,0.105199
0.0576308,0.101561
0.0282368,0.145977
0.00895776,0.00611377
0.0454192,-0.0486136
0.0927067,-0.0490759
0.107891,-0.0595537
0.0391683,-0.04191
-0.0473387,-0.0420976
-0.0927435,-0.0115121
-0.0576711,0.00865987
-0.00487843,-0.0219917
0.00961681,0.0395155
-0.0128904,0.0261576
-0.0171616,-0.0249202
-0.0034307,-0.0568909
-0.0156473,-0.0282754
-0.0120356,-0.0115382
0.001128,-0.0112146
0.0332234,-0.00333154
0.0472229,0.00876058
0.0140679,0.0336877
0.0220315,0.00153775
0.0128967,-0.0219235
0.0139052,-0.00779816
0.00808069,0.0468985
-0.0282912,0.0522675
-0.0368678,0.0260914
-0.0263864,-0.0413551
-0.00212075,-0.0289553
0.0115385,-0.0058488
-0.00751253,-0.00693907
-0.0109869,-0.00835444
0.0141843,0.0017147
0.047083,-0.0306333
0.0534781,-0.052005
0.0642608,-0.0141326
0.0352805,-0.0150307
-0.0267923,-0.0281194
-0.0866527,-0.0208878
-0.110854,-0.00238374
-0.100567,-0.0158001
-0.115216,0.0364632
-0.0933968,0.0628557
0.0130902,0.100408
0.0986956,0.0960849
0.135117,-0.0187928
0.0711628,-0.110561
-0.0174183,-0.0949479
-0.0551674,-0.106111
-0.0558548,-0.161237
0.0148972,-0.112601
0.0578574,-0.0762241
0.080345,-0.084078
0.0392773,-0.0775753
-0.00847014,0.0146668
0.0132427,0.141414
0.0455096,0.217318
0.00640652,0.203692
-0.0490714,0.116386
-0.0527036,0.0331163
-0.0307449,-0.0211505
0.0176818,-0.0575631
0.0265047,-0.0335905
0.01381,0.0345816
0.00373003,0.137161
0.029088,0.158829
0.0426151,0.0932657
0.00184199,0.0603587
-0.00730155,0.0162864
-0.0584787,0.00475599
-0.0776782,-0.0394619
0.0204222,-0.088466
0.0851673,-0.0514484
0.0568204,-0.0456931
-0.000234638,-0.0555833
-0.0123027,-0.0315202
-0.0346195,-0.0253697
-0.092337,-0.0327818
-0.129469,-0.0324009
-0.0566549,-0.0520184
0.0557882,-0.0148285
0.115288,0.0160646
0.104542,0.0654608
0.0377384,0.0929743
-0.0426913,-0.0382168
-0.122912,-0.0762676
-0.213614,-0.0500069
-0.202002,-0.0314705
-0.0597184,-0.0312901
0.104462,-0.0147158
0.125761,0.0109977
0.0893185,-0.0285247
0.090552,0.0341972
0.0794878,0.012276
0.0494158,-0.0244302
0.0392163,-0.0527706
0.10922,-0.0256963
0.16932,-0.00500835
0.140101,0.00660252
0.0447529,0.0544964
-0.0431666,0.0614311
-0.0794833,0.0474067
-0.113423,0.0541737
-0.16983,0.0353028
-0.151456,0.0126425
-0.0744454,0.0242215
-0.0589734,-0.0405749
-0.0417853,-0.125762
0.0376321,-0.0381213
0.0982502,-0.0925875
0.0929208,-0.0592223
0.0293144,-0.0303957
-0.00210946,0.0689961
-0.0404883,0.0527375
-0.0549695,-0.0113219
-0.0922704,0.0106796
-0.144369,0.0370184
-0.150873,0.00573519
-0.0750298,0.0469082
0.105358,0.134039
0.274319,0.0495158
0.238661,-0.0393149
0.0559959,0.0484049
-0.0319815,0.0589824
-0.0271967,0.0480772
-0.00689804,0.053563
0.00757127,0.00193809
0.00841531,-0.0785305
0.0282644,-0.124168
0.0283563,-0.111156
-0.0281961,-0.102075
-0.0831546,-0.0795639
-0.101562,-0.0614646
-0.0437063,0.048938
0.00596314,0.106165
0.0591581,0.120817
0.0813514,0.111186
0.0286532,0.0292702
-0.0594722,0.0211826
-0.121709,-0.0694184
-0.0606565,-0.237432
0.0769347,-0.120375
0.148106,0.0816756
0.0958965,0.0638462
0.0282489,0.0713236
-0.0252644,0.0934498
-0.0830534,0.0494515
-0.0885249,-0.0393557
-0.0358949,-0.0351882
0.00295423,0.0661811
0.00170008,0.0527919
0.0307287,-0.00441013
0.0651056,-0.0609377
0.0356352,-0.056282
0.00360897,-0.0381354
-0.00861584,-0.0223721
-0.0291286,-0.0550409
-0.0532729,0.0358643
-0.077534,0.00616778
-0.0867259,0.0341013
-0.0613548,0.0823136
-0.0119702,0.0116772
0.0117005,-0.0405665
0.0385191,-0.0573835
0.0447197,-0.0827549
0.0915098,0.0779366
0.127763,0.0631308
0.0835753,-0.0048929
0.0637665,0.0547044
0.0462518,0.0153296
-0.0231095,-0.0483938
-0.069379,-0.0457901
-0.156246,0.00581632
-0.152767,0.0174384
-0.060826,0.0104592
-0.0364953,0.0363303
0.0237819,0.00882408
0.0878128,0.00391202
0.127216,-0.00405608
0.145646,0.0207511
0.0970053,0.0108832
-0.00181923,-0.00553198
-0.0796365,-0.00636311
-0.115275,-0.07347
-0.0789809,-0.0678708
-0.0768235,-0.0825996
-0.0996123,-0.0870525
-0.11737,-0.076362
-0.0886472,-0.0723936
-0.0130819,-0.132103
0.0616045,-0.143368
0.0771344,-0.0295184
0.072308,0.051182
0.114115,0.0943508
0.132096,0.10434
0.0892411,0.148071
0.00553077,0.161633
-0.0274472,0.0947374
0.0186407,0.00623469
0.0915319,-0.0720211
0.0134909,-0.0307149
-0.099856,-0.00529851
-0.103381,0.0608358
-0.0369852,0.253039
0.0237958,0.224648
0.0810818,0.0396057
0.0675305,0.0121367
4.28e-05,0.00774048
-0.0247048,-0.00828882
-0.0334935,-0.0577044
-0.126686,-0.096916
-0.118973,-0.147266
-0.0407529,-0.0655203
0.0316124,-0.117033
0.0712913,-0.227488
0.0611589,-0.121097
0.0467112,0.103025
-0.0242615,0.169484
-0.0968054,0.0755162
-0.0668736,0.0477749
0.00933217,-0.027529
0.0253697,0.0272663
0.0575586,0.0304714
0.0206687,-0.00253461
-0.0292811,-0.0398332
-0.0288439,-0.0774631
0.0163103,-0.135623
0.0637765,0.00683652
0.00508057,0.112659
-0.067883,0.0814149
-0.0320406,0.0137437
0.0582942,-0.0401844
0.0901821,-0.046059
0.0507035,-0.028072
0.000153007,-0.0184041
-0.00123241,0.0245046
-0.0041418,0.00108015
0.00563206,-0.0702956
0.00308144,-0.0645842
0.0440747,-0.0542704
0.0421673,0.00863548
-0.0342715,0.130957
-0.119177,0.161368
-0.171185,0.0204733
-0.11607,0.00565948
-0.0194232,0.0156965
0.0722865,0.0244178
0.109297,0.0120537
0.0770593,-0.0458074
0.0549747,-0.0683272
-0.00884547,-0.00894472
-0.0744232,-0.0211309
0.00627146,-0.0589761
0.130289,-0.0654698
0.11202,-0.0298268
0.0440001,-0.00867319
0.00876056,0.0365686
-0.0306388,0.00756368
-0.088918,0.0952304
-0.0861185,0.0973181
-0.00539978,0.0475299
0.0406807,0.00866417
0.00445041,-0.0330794
-0.0432567,-0.0295965
-0.0466538,0.00749717
-0.0661293,-0.0182916
-0.0621662,0.011256
-0.0283607,-0.0175226
-0.00475628,-0.0145964
0.0475362,0.0134672
0.0834339,0.0144733
0.0622703,0.0268152
-0.0145546,-0.0565664
-0.0470293,-0.0269422
-0.0491758,0.0326267
-0.00743953,0.0132347
0.0648208,-0.0148373
0.0350869,0.0151915
0.0318137,0.000938195
0.0572617,-0.0687925
0.0805703,-0.101126
0.00927215,-0.0725434
-0.0670422,0.0188518
-0.0796674,0.0895387
-0.0634198,-0.0161007
-0.00178632,0.0556125
0.0368944,0.141772
0.0296752,0.0727236
0.00494061,-0.0494772
-0.0299055,-0.0936555
-0.0353161,-0.113762
-0.0164218,-0.184486
-0.0175623,0.0772064
-0.0118811,0.132872
0.0114965,0.0304263
-0.00692493,0.0521983
-0.0584556,0.0255391
-0.0681027,-0.105098
0.0149287,-0.0451958
0.0683165,0.0710833
0.0521264,0.0279957
0.04132,0.144174
0.00215666,-0.135179
0.000359253,-0.169496
-0.00264674,0.0384798
0.000777233,0.027576
0.0175314,0.00636797
0.0178604,0.00677186
-0.0059861,0.0108236
-0.0489451,0.0781879
-0.0652498,0.0739442
-0.0264462,0.138141
0.0337091,0.165491
0.0628832,-0.0988615
0.0566512,-0.0397469
0.0198374,-0.0105499
0.00952431,-0.0402731
-0.0242861,-0.0295844
-0.0671927,0.0868803
-0.038875,-0.0372643
-0.000723418,-0.185624
0.0240107,-0.127109
0.0449833,-0.0549201
0.0717298,0.0785418
0.0718387,0.177574
0.0424445,0.0799987
0.0284235,-0.0709592
-0.0102317,-0.0590221
-0.0642882,0.0377054
-0.0619313,0.0313372
-0.047087,-0.0276836
-0.0547524,-0.0573222
-0.0475269,0.0707124
-0.0130345,0.00126129
0.0344536,-0.0624082
0.0124545,-0.0869968
-0.0600838,-0.148447
-0.0640033,-0.0437885
-0.00366477,-0.0146682
0.0332185,-0.265833
0.0487264,-0.242252
0.0295363,0.0103068
-0.0106696,0.240857
0.00632874,0.174387
0.0657661,0.190129
0.0413298,0.202155
-0.00763309,0.162759
-0.0331344,-0.0129552
-0.035267,0.0152219
-0.0251641,-0.178694
-0.00413865,-0.0284784
-0.0036914,0.122744
-0.00705444,0.125808
0.0180402,0.13303
0.00164382,0.0111446
-0.00953781,-0.0998041
-0.0030687,-0.10772
0.0355806,-0.0230676
0.0818853,0.0395227
0.116165,-0.0281953
0.0555789,-0.0497062
-0.0199907,-0.162676
-0.02005,-0.104379
-0.04359,0.00763034
-0.0385084,-0.0780399
-0.0618142,-0.0962349
-0.098625,-0.00729653
-0.0627292,0.104456
0.00332708,0.152611
0.0533656,0.0144866
0.00853604,-0.00232841
-0.0957802,0.116345
-0.105981,0.105516
0.000164088,0.0494614
0.0458239,-0.0424367
0.0682884,-0.0764478
0.109124,-0.0492438
0.15382,0.00148072
0.130077,-0.0354393
0.0579011,-0.00792459
-0.0218466,-0.0285862
-0.0889696,0.00755711
-0.116615,-0.0569581
-0.01461,-0.0888679
-0.0190888,-0.0536911
-0.0311654,0.029438
-0.00561139,0.15871
0.0228104,0.0946331
0.0483705,-0.0311419
0.0546537,-0.0988868
0.0217738,-0.00542106
-0.0484227,0.0271508
-0.0655391,-0.068832
-0.052721,0.0525754
-0.0718252,0.0999012
-0.00697205,0.0618723
0.0101601,-0.0406372
-0.0744676,-0.0849242
-0.0864687,0.0756642
-0.107828,-0.0913675
-0.0424246,-0.243086
0.034405,-0.238258
0.107612,-0.113574
0.192821,0.0202676
0.218314,0.0793211
0.165812,0.146861
0.0647,0.260363
-0.0568967,0.215784
-0.184393,0.0568845
-0.186709,-0.0564352
-0.0593884,-0.0429209
-0.00814192,-0.0510999
0.0358621,-0.0399461
0.117913,0.115648
0.128833,0.0585139
0.0345081,0.00166584
-0.0865718,-0.0496953
-0.0971868,-0.0362592
-0.056847,0.117655
-0.0794999,0.0953342
-0.0715372,0.0200617
-0.00097279,0.0717083
0.0696181,0.0350884
0.0808673,-0.0847162
0.0634828,-0.104361
0.00402261,-0.0831883
-0.135191,-0.0883455
-0.0649565,-0.0248201
0.0909246,-0.00736187
0.106096,-0.101085
0.0256574,-0.052694
-0.00519496,0.125529
-0.0364264,0.0377421
-0.0880631,0.0879474
-0.117242,0.026996
-0.0865931,-0.0453998
0.00386507,0.00479587
0.0422758,-0.122774
0.100275,-0.109179
0.157814,-0.097692
0.0851928,-0.180746
-0.00196839,0.02751
-0.0086583,0.190344
-0.040212,0.234173
-0.0227824,0.0903485
-0.0282544,-0.00328113
-0.032994,0.111839
0.0371043,-0.0380775
0.0753903,-0.159007
-0.0344102,0.0174706
-0.170736,-0.0247568
-0.205319,-0.110929
-0.0943405,-0.0879733
0.0994621,0.0718159
0.182682,0.0654474
0.115328,-0.0239982
0.0648066,0.0227889
0.0453358,0.109378
-0.0240571,-0.00671258
-0.112614,-0.0471759
-0.134878,-0.0194652
-0.0694061,-0.0356679
0.0656457,-0.0592592
0.204646,-0.148799
0.255574,-0.0622833
0.139454,0.104011
-0.0704471,0.238143
-0.166406,0.0817453
-0.181553,-0.121825
-0.028593,-0.0894343
0.171786,-0.0546501
0.197037,-0.0993606
0.100825,-0.0709681
-0.0313058,0.0549162
-0.22421,-0.0636771
-0.163241,-0.0126842
-0.106114,0.211093
-0.0231039,0.106064
0.0110613,-0.0365876
-0.083549,-0.00820153
-0.0744178,0.0353922
-0.00416648,0.084121
0.0596391,0.237105
-0.0463624,0.115587
-0.0997818,-0.0785349
-0.151744,-0.0780156
-0.166547,-0.041541
0.0292363,-0.088652
0.36252,-0.101423
0.504205,-0.0200184
0.541722,0.0983644
0.511216,0.0620087
0.262017,-0.0156428
-0.0214174,-0.00230594
-0.340404,-0.0582769
-0.608049,-0.0751076
-0.656196,-0.144207
-0.455129,-0.0373843
-0.14582,-0.000496437
0.109722,0.00868978
0.0875902,0.00364057
0.013372,0.21624
-0.0284417,0.241375
-0.131845,-0.0309003
-0.105603,-0.0234874
0.0174595,0.00021735
0.112184,-0.0834807
0.093335,-0.155572
0.116223,-0.139463
0.0845299,0.0672031
0.0715789,0.0973048
0.240324,-0.0317912
0.358659,-0.0645154
0.359609,0.0361119
0.0250712,0.133496
-0.246111,-0.0511984
-0.301467,-0.164467
-0.193359,-0.0691512
-0.0389091,-0.0507326
-0.0467138,-0.0414226
-0.162418,0.072054
-0.184067,0.0353257
-0.168112,0.0825726
-0.0167108,0.0641543
0.184432,0.0888015
0.202601,0.0748582
0.19978,-0.0205603
0.151235,-0.0748606
-0.0133956,-0.0317095
-0.0922678,-0.0859557
0.0106806,-0.00607034
0.0349446,0.0235749
0.0459134,0.00193776
0.108693,-0.0695055
0.0420463,-0.136888
-0.0366638,0.000328657
-0.0801449,0.126258
-0.105218,-0.0184051
-0.000815735,-0.0182266
0.0337435,0.0838193
-0.0973682,0.155075
-0.138265,0.134373
-0.127389,0.0338694
-0.111992,-0.0141249
-0.00185977,-0.115809
0.0306095,-0.240587
0.0384926,-0.076845
0.0528013,0.0688612
0.120699,0.0370728
0.157045,0.0858651
0.150995,0.129366
0.10149,0.237523
0.0609021,-0.0637582
0.0367086,-0.346415
0.0167339,-0.19138
-0.0380275,0.0988226
0.036536,0.158459
0.0514618,0.0200966
0.0103106,0.0707667
-0.00176221,-0.0917364
-0.136799,-0.0734123
-0.367677,-0.0293435
-0.308169,0.112687
-0.0655967,0.141953
0.120259,0.00281469
0.173804,-0.0292833
0.174826,0.0768397
0.0762361,0.145308
-0.0303949,-0.0567729
0.0276212,-0.240626
-0.0888132,-0.142219
-0.234769,0.0356359
-0.0986933,0.0465879
0.0616811,-0.00102376
0.038663,0.0206853
-0.139259,0.100711
-0.227535,0.0743946
-0.0647954,0.0905162
0.244644,-0.110746
0.558456,-0.222607
0.770503,-0.0713935
0.597176,-0.122984
0.148306,-0.252503
-0.268464,-0.248222
-0.571529,0.069667
-0.527879,0.338793
-0.424332,0.23761
-0.325738,0.0640315
-0.185858,0.0216558
-0.019307,0.029495
0.106246,0.00540351
0.148438,0.0113211
0.0597048,0.104001
0.000629809,0.0989009
0.0898623,-0.0171327
0.169254,-0.0681433
0.0695916,-0.0525958
-0.0947097,-0.106413
-0.0540652,-0.0526666
0.274346,0.157878
0.442461,0.0298011
0.323423,-0.0505566
-0.0892901,-0.00956147
-0.387442,-0.0206452
-0.376101,-0.00642168
-0.354847,0.00138104
-0.10408,-0.055232
0.0399907,-0.0785568
0.0118084,-0.0957866
0.0387169,-0.157544
-0.00618265,0.00408087
-0.0947249,-0.0301872
-0.0905362,-0.0852882
-0.0307761,0.0318527
-0.00804074,0.235967
0.012364,0.269399
0.0278302,0.124821
0.0954194,0.151082
0.247609,0.14829
0.325007,0.115326
0.274232,-0.094226
0.281162,-0.153138
0.178528,-0.119658
0.0651051,-0.116384
-0.0516091,-0.0614562
-0.270241,-0.0904914
-0.45013,-0.0207763
-0.376961,-0.0023375
-0.26854,0.0308375
-0.149994,0.0820327
0.00966271,-0.0353239
0.0316516,-0.0847717
0.0598676,-0.0719432
0.0878968,-0.129569
0.148844,-0.0423284
0.212305,0.138358
0.313465,0.135521
0.456179,0.0397114
0.405191,-0.0246521
0.209835,-0.0233992
-0.0973536,-0.107696
-0.373557,-0.161313
-0.264895,-0.00722908
-0.23876,0.1496
-0.302645,0.0815547
-0.294865,0.107063
-0.140882,0.0646555
0.113823,0.0230021
0.19584,-0.0167273
0.104575,-0.0316548
0.0200891,-0.00632326
-0.11375,-0.103189
-0.183477,-0.0585316
-0.0513273,0.0300288
0.0277056,0.0131009
0.0104546,-0.0878237
-0.165897,-0.0924282
-0.301968,0.0700132
-0.10897,0.116422
0.188331,0.146668
0.164874,0.0668615
0.0837487,-0.00811844
0.118355,-0.00113876
0.201868,-0.0504946
0.157895,-0.0774985
0.169547,-0.106109
0.170132,-0.0128375
0.0106823,-0.0434052
-0.0606649,0.0121069
0.0416501,0.185651
-0.0554284,0.133004
-0.127557,-0.0472817
-0.009799,-0.1812
-0.0274529,-0.0597167
0.00544294,-0.0739294
0.0956311,0.0248351
0.273016,0.0968629
0.346712,0.105516
0.204599,0.0927289
-0.166325,0.0592187
-0.526585,0.00684503
-0.470684,-0.0169299
-0.222113,-0.0858318
-0.0917549,-0.154034
-0.0210703,-0.107304
-0.0192035,-0.0891451
-0.0566478,-0.124419
-0.0693947,-0.158988
-0.0494425,-0.0409046
0.0189842,0.0855791
0.0996002,0.350206
0.114251,0.375713
0.173007,0.0688827
0.138807,-0.00858664
0.0948272,-0.0233246
0.0833758,-0.086918
-0.0452549,-0.0877565
-0.0594621,-0.100786
-0.00551284,-0.112148
0.00932352,-0.0722336
0.00593022,0.0122058
0.00341677,0.0884414
-0.0392349,0.0358251
-0.0439638,0.0791914
-0.0141179,0.104889
0.0152464,0.0199752
0.09942,-0.0106098
0.0473587,-0.0395908
-0.00796122,-0.0624368
-0.00858578,-0.0930812
-0.00634752,-0.071495
-0.00338891,0.0109638
0.0043127,0.0879751
0.0183544,0.0314592
0.0123606,-0.0200149
-0.0128849,0.0129483
-0.0147289,0.0524677
0.0105443,0.0319253
0.0366948,-0.00120795
0.0862272,-0.00371158
0.0796278,-0.0868168
0.00577893,-0.117758
-0.0323601,-0.0779025
-0.0455187,-0.0305156
-0.0813131,0.0761542
-0.161234,0.0763263
-0.183043,-0.0029405
-0.0789968,0.0551659
0.0171227,0.0596889
0.0250042,-0.0383498
0.0253601,-0.0733304
0.0169316,-0.000537004
0.0138382,0.0227117
0.0206663,0.0124749
0.045921,0.00206455
0.0550757,-0.0281393
0.0363233,-0.00660553
0.0176012,0.000744566
-0.00244701,0.011148
-0.029341,0.0335955
-0.0276501,-0.0147953
-0.012591,-0.0618177
0.0199517,0.0599461
0.0567363,0.00928948
0.0836252,-0.000501106
0.00879792,0.0386026
-0.023116,-0.0194256
-0.0540064,-0.0666051
-0.0597643,0.048268
0.0270877,0.00360866
0.115297,0.0257181
0.17141,-0.0657324
0.1345,-0.0638105
-0.0199889,0.0396494
-0.212639,-0.0345382
-0.295066,0.0259015
-0.203398,0.106866
-0.0323049,0.12307
0.062271,0.0608544
0.0658041,0.0373222
0.0580033,0.0910931
0.101024,-0.0241352
0.205992,-0.0910781
0.242596,-0.0863987
0.161671,-0.0398731
0.0394452,0.0289688
-0.0747591,0.0118685
-0.184526,0.00679381
-0.11932,-0.0173921
-0.0891204,-0.0456589
-0.120561,-0.0393143
-0.0913168,-0.0194248
-0.0149797,-0.0339805
0.0305268,-0.0772749
0.0561104,-0.0861196
0.103636,-0.0550664
0.0837186,0.0191983
0.0191015,-0.0608879
-0.0353781,-0.0545489
-0.098943,0.0117812
-0.0992729,0.0932711
-0.0700267,0.107993
-0.025824,0.0769544
-0.00312485,0.0779168
-0.00108506,0.057719
-0.00410363,-0.00320206
0.0275774,-0.0381545
0.0580155,-0.0347931
0.0595615,0.00272439
0.0623563,-0.00299715
0.0380572,-0.00780929
-0.0116513,-0.0354976
0.00993619,-0.0864311
-0.000335775,-0.0251239
-0.0745123,0.0846899
-0.0773345,0.0589486
-0.0127022,-0.0534462
0.0332102,-0.0655713
0.0159035,-0.0399038
-0.0340295,0.0829613
-0.0566423,0.0787514
-0.0297,0.025009
-0.0213801,0.0635703
-0.008182,0.0299076
0.0119453,0.0192099
0.0528471,0.00084073
0.14234,0.0895955
0.180335,0.0352869
0.154085,-0.161948
0.0514034,-0.112818
-0.0582945,0.026078
-0.0940028,0.0116086
-0.0898737,-0.0853177
-0.0595008,-0.0664021
-0.0344502,-0.0272593
0.0406682,-0.0121681
0.0924523,-0.00778494
0.0357362,0.0338119
-0.0730528,0.0638555
-0.126761,0.0635826
-0.141485,0.0420123
-0.139107,-0.00868642
-0.0743925,-0.0462687
-0.00470313,-0.0295472
0.0538794,0.0219963
0.081994,0.0264521
0.0707582,0.00733583
0.0414793,0.0044439
0.0481669,-0.0028649
0.0910115,0.0323413
0.0748875,0.0159632
0.0106549,0.0137294
-0.0402857,-0.000422005
-0.0625053,0.0166569
-0.0614694,0.0114089
-0.0391925,-0.0381832
-0.0420807,-0.0839101
-0.0403388,-0.0880352
0.0216165,0.0255943
0.0282272,0.0317087
-0.00885385,-0.0344693
-0.0189818,0.00596434
-0.00475299,-0.0350677
0.0284571,-0.036146
0.058674,0.00543929
0.0928602,0.03781
0.0823364,0.0543398
0.0266973,0.0272323
-0.0260783,0.0387061
-0.0791994,-0.00984309
-0.0547963,-0.0523558
0.0414069,-0.00461731
0.0884039,0.0418855
0.0761915,0.0637145
0.00902205,0.0829232
-0.0945001,0.0201232
-0.127912,-0.0168243
-0.106184,0.0398008
-0.0715275,-0.00639578
-0.000361539,-0.0657436
0.0329555,-0.0589959
0.0103587,-0.0958793
0.013886,-0.159908
0.0409081,-0.157743
0.0486186,-0.0961858
0.0348165,0.0315734
0.0235881,0.125074
0.0202819,0.0982805
0.0569455,0.0990343
0.0815427,0.14599
0.0562574,0.0823708
-0.00898555,0.0375224
-0.0567382,0.0465975
-0.0413712,-0.0360994
-0.0222326,-0.0253322
-0.0169226,-0.0336112
-0.028722,-0.0417924
-0.0263519,0.00106391
-0.0269041,0.0278313
-0.0543928,0.0050864
-0.100712,-0.0284349
-0.129138,-0.0106104
-0.0993514,0.0626054
-0.0234263,0.0427943
0.0530373,-0.00318962
0.106034,-0.0120087
0.121859,-0.0217402
0.10878,-0.0420889
0.0544469,-0.0433035
0.0309444,-0.0271541
0.0177578,-0.0244068
0.0367641,-0.00773689
0.0885651,0.00877705
0.135772,0.00734523
0.116381,-0.00320518
-0.0197686,-0.0114819
-0.174746,-0.0184498
-0.186591,-0.0393093
-0.117387,-0.0119479
-0.0158445,0.0481614
0.0222244,-0.00573928
0.027891,0.0269072
0.0172763,0.00988508
0.00574263,-0.0364228
-0.00488968,-0.0317674
-0.0240457,-0.0554731
-0.0388625,-0.0541548
-0.0714563,-0.0188421
-0.0756977,0.0237867
-0.0279457,0.0476816
0.00333326,-0.0126754
0.0218525,-0.0371512
0.0409669,-0.0177002
0.0340589,0.0321841
0.0298464,0.138334
0.011881,0.112852
0.00366869,0.000796522
0.00329611,0.0118082
0.0114252,0.0109245
0.0414768,-0.00994355
0.064303,-0.012061
0.0840961,0.0086084
0.0742886,0.00676591
-0.0165325,0.00527268
-0.0942183,-0.016831
-0.0680264,-0.0292997
-0.0574962,-0.0510257
-0.0811467,-0.0586344
0.0136391,-0.0566482
0.140689,-0.0531788
0.161306,-0.0492768
0.0847407,0.0359678
-0.0315323,0.0889375
-0.135793,0.0944587
-0.144223,0.0848124
-0.0775593,0.0183523
-0.0303415,-0.0266349
0.015139,-0.029187
0.0437091,-0.00208386
0.0222015,-0.042134
-0.0182765,-0.0277401
-0.056214,0.0171925
-0.0416592,-0.0796009
0.00528797,-0.0302596
0.0300203,0.119714
0.00768041,0.0836286
-0.012415,-0.0292305
0.0144698,-0.0758186
0.042651,-0.0441337
0.0548344,0.0157341
0.0564816,0.0354738
0.0470095,0.0196622
0.00930709,0.00237135
-0.0175349,0.0276997
-0.0594624,0.0228426
-0.0938006,-0.0122979
-0.0406918,-0.0154666
0.0331614,-0.0435326
0.0422633,-0.0788991
0.0433058,-0.0502754
0.051685,0.0391424
0.0250849,-8.4e-05
0.02019,-0.0105006
0.00326153,0.0415343
0.00532153,0.0411547
-0.0109623,-0.00884039
0.00609999,-0.0129163
0.00521275,-0.0137091
-0.0641665,0.000267853
-0.0735345,0.0731809
-0.0560335,0.0277431
-0.0315674,-0.0108775
0.00113905,-0.0161705
0.0345532,-0.0262623
0.0473506,-0.0512603
0.0396861,-0.0367498
0.0332021,-0.0331662
0.0286126,0.0407232
0.00867997,0.0392542
-0.00744702,0.00264417
-0.0416236,0.109483
-0.0930549,0.101332
-0.0915632,-0.0242575
0.0196262,0.00196961
0.100037,-0.0341469
0.0933945,-0.0552176
0.0722304,-0.0349073
0.0525648,-0.0329947
0.0187383,-0.0422387
-0.0248616,0.0156183
-0.0459989,0.028518
-0.0578876,0.032559
-0.0650901,-0.027369
-0.0542114,-0.0620852
-0.0301282,-0.00419242
0.0264864,0.0949545
0.0323296,0.0627332
0.0114304,0.0108122
-0.0169067,0.00902902
-0.0652556,-0.0222295
-0.0596966,-0.0346788
-0.0181028,-0.047669
-0.0098778,-0.0277142
0.0130762,-0.00345908
0.0503623,-0.0138263
0.0534225,-0.0254876
0.0030904,-0.019651
-0.0284608,-0.0278667
-0.0317638,-0.0167069
-0.0382435,-0.00446086
0.029207,-0.00626705
0.10457,0.0129035
0.122285,0.0479953
0.0981694,0.0353968
0.0528381,0.0500026
0.00895562,-0.018496
0.00635362,-0.0325777
-0.0142272,-0.0166191
-0.0441883,-0.0258515
-0.0411365,0.0288583
-0.0416455,0.025377
-0.0637424,0.0136719
-0.0704098,-0.0108032
-0.0564661,0.0138551
-0.0281544,0.0624415
-1.95e-05,0.0347032
0.0274997,0.0067614
0.0424654,-0.00499601
0.012686,-0.000725426
-0.0337738,0.0788149
-0.0705333,0.0653357
-0.0900515,-0.031451
-0.0433578,-0.0437124
0.0398833,-0.0457673
0.0825498,-0.0514369
0.0725939,-0.0555664
0.068651,-0.0722693
0.0764403,-0.0164619
0.0233197,0.0478641
-0.0182629,-0.0142478
-0.0196413,-0.0323508
-0.0146789,-0.0063841
-0.0205046,0.0223631
-0.0229646,-0.000884666
-0.00995581,0.0114746
0.00484685,0.0477319
0.00748452,0.0225972
0.0299757,-0.0291796
0.0525599,-0.0425881
0.0382036,-0.0441374
0.0415561,-0.008587
0.0882835,0.0357023
0.117734,0.0740469
0.0539775,0.026748
-0.113911,0.0339604
-0.25118,0.0760735
-0.207513,0.0116931
-0.0586542,-0.0310102
0.0302686,0.047081
0.04152,0.0146367
0.00881898,-0.0273194
-0.0319541,-0.0318255
-0.040342,-0.0514107
-0.02737,-0.139597
0.00952752,-0.147946
0.0355474,-0.0898019
0.0545876,-0.0586883
0.0675637,0.0287981
0.051548,0.0364142
0.0315868,0.0727822
0.00775287,0.105524
-0.0124607,0.157595
-0.0182121,0.0887928
-0.0245147,0.0417411
-0.0364729,0.0544529
-0.0197863,0.0346749
0.000863046,-0.00966681
0.00686439,-0.0134277
-0.0213318,-0.0369839
-0.0469944,-0.0133517
-0.0500772,-0.0310304
-0.0361572,-0.0649311
-0.0162101,-0.0553046
0.0023837,-0.0832155
0.0106912,-0.101532
0.00865322,-0.101241
0.0458783,-0.017051
0.162683,0.038741
0.267823,-0.0141988
0.291062,0.0552426
0.190797,0.108715
0.0012652,0.109643
-0.181631,0.0728743
-0.279551,0.00875636
-0.214121,-0.000545501
-0.140185,0.0268411
-0.0596374,-0.0210649
0.000821667,-0.0269421
0.0118507,-0.00470395
-0.00530912,-0.00985171
-0.0332818,-0.0117906
-0.0708859,-0.00647663
-0.0527725,0.0248247
0.00323155,0.015381
0.0368429,-0.0449418
0.0869599,-0.0424528
0.109962,0.00386539
0.0629281,0.000692072
-0.0165951,-0.0162826
-0.0612557,-0.0027716
-0.0253865,-0.00757826
0.0110302,0.00953021
0.0217067,0.0212325
0.0269227,0.0105216
0.0320051,0.00655632
0.0174208,0.0136051
-0.00416805,-0.0018865
-0.0267616,0.00183881
-0.039659,0.00744822
-0.0311256,-0.00723461
-0.0146247,-0.018547
0.00289579,-0.0246404
0.0022058,-0.0288378
-0.0268682,-0.0241214
-0.0257454,-0.0107338
0.0111892,-0.00995309
0.0489416,-0.0149392
0.0771403,-0.00677055
0.0723146,-0.0103664
0.0368654,-0.0497419
-0.000194908,-0.102322
-0.00248962,-0.0624951
0.0360024,0.116522
0.0264182,0.0969804
0.0145841,0.000678701
-0.032779,0.0460851
-0.0856714,0.0169844
-0.106874,0.0196354
-0.0805277,0.0589955
0.0078799,0.0123694
0.0938627,0.0161262
0.128241,0.0625229
0.112404,0.0300904
0.0293719,-0.0233535
-0.0641022,-0.0370866
-0.109209,-0.0255495
-0.0943582,0.0161206
-0.0339518,0.0292496
0.0301317,0.00861487
0.0339036,0.0110636
-0.00382259,0.0350178
-0.026394,0.01772
-0.0172746,-0.0349847
0.0116654,-0.0750756
0.0163442,-0.0642278
-0.0314839,-0.0484253
-0.100869,-0.0332035
-0.0793815,0.00365276
-0.0245259,0.0202008
0.00592246,0.011448
0.0228961,0.0132817
0.0268103,0.0128929
0.0225393,0.0130971
0.0159803,0.0204658
0.0130981,0.0278357
0.0111684,0.0277437
0.00324511,0.0144511
-0.00784557,0.00337178
-0.0128296,-0.0019449
-0.0109763,-0.00874937
0.000447108,-0.0395557
0.0553935,-0.0799242
0.0998799,-0.0821133
0.110257,-0.0280777
0.109729,0.0110756
0.124536,-0.0640384
0.105504,-0.122191
0.0859901,-0.100459
0.0348842,0.0302669
-0.0778976,0.0972987
-0.134712,0.0238583
-0.121349,-0.00202625
-0.0793385,0.0782878
-0.075577,0.151183
-0.0849822,0.128152
-0.0942392,0.0877593
-0.0686564,0.0648205
-0.0403069,0.018824
-0.0235322,0.00398329
-0.0549783,-0.026957
-0.0560447,-0.0258845
-0.0263768,-0.0191026
0.0103123,0.0111395
0.0372148,0.00594842
0.045939,-0.0184555
0.0529455,-0.0109569
0.0604045,-0.0144403
0.0594899,-0.000955988
0.0497575,-0.00299565
0.0398176,-0.0246142
0.0208053,-0.0437351
0.003879,-0.0562199
0.00979927,-0.0547752
0.0234704,-0.0421854
0.0267518,-0.0316153
0.0101241,-0.0275015
-0.00582772,-0.0133021
-0.0124316,0.0031105
-0.0144546,0.0135958
-0.0152179,0.027077
-0.0162356,0.0309656
-0.0166076,0.0250226
-0.0134539,0.0201779
-0.00785321,0.0280658
-0.000693198,0.0329469
0.00159606,0.0179655
-0.000177117,0.00205082
-0.000473526,-0.0155202
0.00375121,-0.0292864
0.00474734,-0.0299485
0.00164407,-0.0257347
-0.0026274,-0.0290903
-0.0107524,-0.0426041
-0.0187847,-0.0563581
-0.0213527,-0.0754188
-0.0133434,-0.0369785
-0.0092054,-0.00428993
-0.000565585,-0.0598647
0.00160126,-0.084796
-0.00522805,0.119188
0.0333084,0.143025
0.103589,0.102746
0.1474,0.0777733
0.132939,0.071681
0.129034,-0.00462982
0.117522,-0.0236405
0.0577075,0.00881858
-0.0472724,-0.0299196
-0.188059,0.0263591
-0.277445,0.038621
-0.231753,0.0014951
-0.139518,0.0319241
-0.0426733,0.0216212
-0.000495199,0.00421983
0.0239358,-0.00476969
0.0198504,0.00734991
-0.00926308,0.007778
-0.0121211,-0.00308071
0.0111272,-0.00961886
0.0249093,-0.0246346
0.0214192,-0.0335746
0.0188483,-0.0395879
0.00555137,-0.0284706
0.00916045,-0.0489264
0.0299866,-0.0329267
0.0457166,-0.0173042
0.0532294,-0.00380565
0.0486392,0.00664282
0.0367651,0.0110414
0.0146734,0.0165046
-0.00528728,0.0207014
-0.0109365,0.0136658
-0.0135443,0.00256482
-0.0198404,0.00392594
-0.0305353,0.00747572
-0.0377873,0.000778033
-0.0321506,-0.0140463
-0.0190616,-0.0331054
-0.00764516,-0.0458152
0.00721456,-0.048504
0.0273785,-0.0354921
0.0335247,-0.00445971
0.0488144,0.0205948
0.0563799,0.0377475
0.113514,0.0521998
0.203243,0.0461099
0.176629,0.0382463
0.0469056,0.0277509
-0.123146,0.0119763
-0.202744,-0.00167442
-0.170627,-0.0124626
-0.124022,-0.000568487
-0.0779082,0.00666422
-0.0480025,-0.00370412
-0.0236365,-0.00754604
0.000492221,-0.00697786
0.0090562,-0.00500018
0.00392493,-0.0148764
0.0191273,-0.0388894
0.0409182,-0.0332784
0.0116992,-0.000283927
-0.0220225,-0.00977928
-0.00506545,-0.00783584
0.0202569,-0.00299485
0.020008,-0.0337589
0.00958282,-0.0686942
-0.0119235,-0.0393493
-0.0268078,0.0781777
-0.0210368,0.112615
-0.0118828,0.0263203
0.00705716,0.00849485
0.0187182,-0.0164917
0.0127881,-0.0837492
0.0107285,0.0149776
0.0615511,0.100942
0.122575,0.0186564
0.128576,0.0348452
0.0852924,0.0195453
0.0443837,-0.011157
0.0171548,0.0186057
-0.0134237,0.0024376
-0.0777584,-0.0221036
-0.08743,-0.00339543
-0.0380777,0.0251595
0.0140956,0.0260632
0.0218891,0.0242514
-0.0504223,-0.00684497
-0.0768294,-0.0228958
-0.0626414,-0.0507142
-0.0686571,-0.122279
-0.0641174,-0.155135
-0.0519209,-0.106662
0.00116284,-0.0820993
0.000391369,-0.0235906
-0.0436341,0.0426481
-0.0330628,0.0898781
0.0141673,0.103074
0.03485,0.118249
0.0376319,0.114343
0.0404876,0.090206
0.0336566,0.0357704
0.00869036,-0.0112225
0.00549061,-0.00855462
0.0336748,-0.0226154
0.0468189,-0.0256198
0.0165217,-0.0361959
-0.0226294,-0.0371823
-0.040291,-0.0239506
-0.0262233,0.0299851
-0.00788467,0.0582229
0.0113405,0.0356264
0.0237868,0.0177905
0.000943637,-0.00641988
-0.0287901,-0.0280725
-0.0162813,-0.0634161
0.0244016,-0.0937114
0.0404928,-0.135103
0.0484341,-0.0436248
0.0710307,0.0525821
0.0689983,0.0121888
0.048176,0.0343488
0.00533964,-0.00362358
-0.0395572,-0.0447641
-0.0601153,0.0798038
-0.0553731,0.105053
-0.0465168,0.0563316
-0.0391622,0.0273229
-0.0357408,-0.0360078
-0.0341781,-0.00506421
-0.0284156,0.0236114
0.0457053,0.0123229
0.128618,-0.0426923
0.140106,-0.0298383
0.0872587,-0.0101285
-0.0119402,-0.0145267
-0.0920786,-0.0409156
-0.108798,-0.0321157
-0.0852533,-0.0208276
-0.053817,0.00811051
-0.0257269,0.020529
0.000640806,0.0489203
0.0175607,-0.0247457
0.0112846,-0.0916284
0.00933393,-0.0996539
0.0143605,-0.0451735
0.0122133,0.00425141
0.00698683,0.0478427
0.00679417,0.0911636
0.0312901,0.105622
0.0645001,0.056081
0.0364808,-0.0116866
-0.00812448,0.0283255
-0.0734588,0.0278811
-0.130536,0.00984528
-0.0900087,0.0185954
0.000618981,0.000163778
0.0609018,-0.00144586
0.0581075,0.0112624
0.0566563,-0.0122736
0.0816301,-0.0162443
0.109494,0.00328036
0.0744147,0.030631
0.00138296,0.0165452
-0.0409553,-0.0250949
-0.0854481,-0.0343718
-0.118681,-0.0220811
-0.0795452,-0.00704606
-0.0386509,0.00644257
-0.0229777,0.0318933
0.0171832,-0.0253452
0.0345563,-0.103705
0.0168578,-0.0697086
0.0196281,-0.0269641
0.0242926,0.00420362
0.0242182,0.0169845
0.0230187,0.0100157
0.013522,0.0218472
-0.00687705,0.0522374
-0.0171208,0.0317049
-0.0470315,-0.0162573
-0.0408181,-0.0591331
0.0151519,-0.0880435
0.0290897,-0.0328325
0.0132656,0.0470444
0.00919324,0.0865655
0.018607,0.0544003
0.0288088,0.0248558
0.00118072,0.0252309
-0.0267176,0.0281102
-0.0236856,-0.0100087
-0.027754,-0.0270664
-0.0291237,-0.00471611
-0.00909209,0.0503517
0.00435686,0.00889089
0.0216645,-0.035561
0.0251531,-0.0209363
0.00772455,-0.0200194
-0.0123126,0.00175729
-0.0219089,0.027563
-0.0118814,0.00357917
0.00612038,-0.0325036
0.0246959,-0.0453716
0.0373081,-0.0353965
0.0507389,-0.0117749
0.0635713,0.00648913
0.0466096,-0.0152549
0.0193656,-0.0388511
-0.0125683,-0.004258
-0.0486236,0.0263635
-0.074586,0.0222208
-0.0634103,0.0100527
-0.0435271,0.0142459
-0.0514165,0.0192433
-0.0193246,0.0342887
0.024934,0.0393118
0.0237084,0.0376743
0.0197639,0.0205015
0.042118,0.0232565
0.0652663,0.0287666
0.0771171,-0.0227796
0.0350227,-0.0310651
-0.0196454,0.00845669
-0.0331302,-0.0448976
-0.0332197,-0.0728513
-0.0520805,-0.06881
-0.0210508,-0.0324331
0.00982909,0.0259336
-0.00208848,-0.0182374
-0.0178747,-0.0325747
-0.0353483,0.00156384
-0.0476237,0.0824485
-0.00554013,0.0888538
0.0356831,0.0217104
0.00596953,-0.0114326
-0.0183846,-0.00950636
-0.0209032,-0.0217948
-0.0154945,-0.0232458
-0.0116091,0.00307604
-0.000337881,0.0071778
0.0294322,0.0194026
0.0342019,0.00391792
0.0366284,0.00295537
0.0468466,0.0317158
0.0570561,0.0329116
0.029264,0.0121136
-0.0160349,-0.00546369
-0.0275319,-0.0153093
-0.0241529,-0.0213569
-0.0430914,-0.00327768
-0.0314745,0.00173692
-0.0141284,-0.0100762
-0.00565944,-0.00369253
-0.000703853,6.12e-05
0.00516702,-0.0147438
0.00437505,-0.0346826
0.00184225,-0.010958
-0.00423612,0.0429548
-0.00389837,0.0127102
0.0533796,-0.0270362
0.124488,-0.0695437
0.125691,-0.050937
0.045989,-0.063744
-0.0401807,-0.115074
-0.0887124,-0.119301
-0.0730704,-0.0362254
-0.0657645,0.0967315
-0.0513713,0.137254
-0.0458088,0.140431
-0.0319549,0.0868762
-0.0110389,0.0326059
-0.023849,0.0373286
-0.0184117,0.053457
0.00594288,0.0348369
0.028587,0.0158511
0.0304375,0.0151905
-0.0206886,0.0320506
-0.0615308,0.0070191
-0.0467637,-0.0177326
0.0353632,-0.0320409
0.118089,-0.0214298
0.0950327,-0.0523304
0.0583777,-0.0773805
0.0276745,-0.112058
-0.0115497,-0.0970896
-0.0415923,-0.00674429
-0.0436935,0.0444686
-0.0126446,0.0735404
0.0463879,0.035794
0.106107,-0.0228842
0.0912829,-0.0298369
0.0336981,0.00711491
-0.0416452,0.0217408
-0.111168,0.0445569
-0.126645,0.0688978
-0.116261,0.0321829
-0.0653304,0.00348086
-0.0220904,0.010248
0.0131226,-0.0171
0.026899,-0.060606
0.0185341,-0.0536808
0.0234298,-0.0507216
0.0425538,-0.0373293
0.0616836,0.0158267
0.0705703,0.0537188
0.0378461,-0.0128463
0.0104678,0.00561642
0.0206765,0.0293202
0.00663243,-0.0190095
-0.028225,-0.0184778
-0.064346,0.025251
-0.0475544,0.0445283
-0.0298439,0.0389557
-0.0401489,0.0172615
-0.0464007,0.000751781
-0.0222252,-0.0134331
0.00992624,-0.0376084
0.0197398,-0.0656663
0.00712735,-0.05968
0.0131436,-0.0367014
0.0203883,-0.0368804
-0.0053687,0.0083176
-0.0134215,0.056318
0.000696184,0.0630485
0.011635,0.0417595
0.0462818,0.0230052
0.0543195,0.00860284
0.0254111,0.00375562
-0.0135084,-0.00724896
-0.0310694,-0.0196177
-0.0276271,-0.0331518
0.0106914,-0.0298119
0.0426478,0.00101114
0.0490451,0.0444825
0.0321672,0.0525653
0.00331111,0.0436871
-0.03573,-0.0217658
-0.0376787,-0.0365049
0.00243728,-0.00667464
0.0168544,-0.0128298
-0.0190708,-0.0447526
-0.0309782,-0.0298014
-0.0229806,0.033511
-0.0379084,-0.00279493
-0.0374679,-0.0137442
-0.0135313,0.00741631
0.00878343,-0.0377028
0.0259657,-0.0324394
0.0373236,0.0425718
0.0594652,0.0907213
0.0650091,0.0357355
0.0577576,0.0166583
0.0209451,0.0311319
-0.0340815,0.0303125
-0.081237,-0.0302196
-0.0808008,-0.0616457
-0.0533957,-0.0247051
-0.00732462,-0.0237918
0.0652358,-0.0596658
0.108608,-0.064639
0.100337,-0.0437127
0.0172478,0.0485839
-0.0500077,0.0616478
-0.0618502,0.0586301
-0.0192865,0.0661941
0.000772876,0.061487
-0.0097707,-0.0103016
-0.0551861,-0.0207599
-0.0912995,0.008587
-0.0611149,-0.0119519
-0.0154434,-0.0561486
-0.00496148,-0.030252
-0.00850745,-0.00123718
-0.0196399,0.0123367
-0.0541647,0.023612
-0.0396374,-0.00437707
0.0704245,-0.0444432
0.153394,-0.0267873
0.0996454,0.029942
0.0214746,0.0414998
-0.0226426,0.00508184
-0.0383058,-0.0251067
-0.021811,-0.0350833
0.00998769,0.0441354
-0.00682042,0.056288
-0.0261281,-0.00781036
0.00375399,-0.0210701
0.0221255,-0.0139284
0.0371092,-0.0222491
0.0271874,-0.0257836
0.000963129,-0.0249952
-0.0050567,-0.0363884
-0.0150365,0.00304117
-0.0187064,0.0731602
-0.000832441,0.0130487
0.0070928,-0.00971555
0.00434922,-0.0259643
0.0159888,-0.0505854
0.0186995,-0.0569723
0.0273118,-0.0766904
0.0293517,0.014142
-0.0095308,0.094374
-0.0429648,0.0743067
-0.0261219,0.0112426
-0.0389348,-0.0237641
-0.0518098,-0.0259448
-0.0224687,-0.0169711
0.00209145,-0.0126529
-0.000454778,0.00621159
0.0026766,0.0432428
-0.00213129,0.057641
-0.0131598,0.0315383
0.00598379,0.0161154
0.0266712,0.00526709
0.0211074,-0.00907735
0.0251687,0.014517
0.00293886,0.0412713
-0.0180794,-0.00954806
0.010652,-0.048044
0.0452147,0.00413891
0.0244777,0.00761083
-0.0143461,-0.01733
-0.0173413,-0.0311215
0.0185008,-0.0360508
0.0256891,-0.023105
0.000520324,-0.00824057
-0.00730634,0.0113289
-0.00146606,0.0293866
0.0336583,0.0115365
0.124004,-0.0184877
0.137064,-0.0168067
0.063539,0.00247922
-0.0528721,0.00181685
-0.135614,-0.0252842
-0.111923,-0.0311898
-0.0937654,0.0191018
-0.106723,0.0241031
-0.0775495,0.0147347
-0.0223916,0.0805339
0.00794224,0.0309808
0.00265475,-0.0587181
0.00234881,-0.0447291
-0.0114977,0.00791259
-0.0359655,-0.00603194
-0.0163218,0.0385885
0.023263,0.00936825
0.0368001,-0.0175558
0.0317114,-0.0121423
0.031945,0.0112403
0.0329773,-0.0416588
0.0271375,-0.0324264
0.0371295,0.0308275
0.0150195,0.0371036
-0.00160567,0.0229787
0.00241409,0.0140969
-0.0150638,-0.00801596
-0.00422173,-0.00329338
0.00938566,-0.000536852
0.00503104,-0.0214536
-0.0038341,-0.0440359
-0.0145469,-0.0353924
-0.0193234,0.0353681
0.00238976,0.033646
0.0313295,0.00442141
0.0278735,-0.0242272
0.00545671,0.012461
-0.0077363,0.00796954
-0.0172889,-0.00625953
-0.0203403,-0.0194822
0.00545309,-0.0505819
0.0782055,-0.0405972
0.157,0.017937
0.148025,0.035307
0.0521631,0.0183919
-0.0714862,0.0386228
-0.160847,0.0334771
-0.142687,0.0233322
-0.0978282,0.0126454
-0.058154,0.00132688
-0.0392964,-0.0167958
-0.0182974,-0.0194542
0.000783582,-0.0518662
-0.0112511,-0.099966
-0.00956448,-0.082498
0.0290792,-0.0263148
0.103266,0.00864352
0.126966,0.0163968
0.0845082,0.0842597
0.000224916,0.110022
-0.0841789,0.111561
-0.120326,0.0911237
-0.0900465,-0.011018
-0.0203223,-0.0424755
0.047325,-0.0382644
0.0770404,-0.0326351
0.0618314,-0.0244367
0.0103485,0.00458592
-0.0323034,-0.0139278
-0.0369149,-0.0321126
-0.0303909,0.0211762
-0.0261594,0.0342355
-0.0132616,0.00172312
0.00296232,-0.0146641
0.0228473,0.0144141
0.0421698,0.0189067
0.0784969,-0.0186689
0.0827394,-0.0616611
0.0545327,-0.0410623
0.0135346,0.0121738
-0.0459869,0.0214177
-0.076691,0.0252001
-0.0579863,0.0267979
-0.0256673,0.0131238
-0.00825008,0.00865962
0.00707752,0.0131732
0.00869584,-0.0260789
-0.0125789,-0.0755676
-0.0119099,-0.0827856
0.00349242,-0.00839446
0.00358972,0.0689303
0.0135532,0.0262317
0.0133957,0.00463344
-0.00645279,0.00447899
-0.0285686,-0.0281738
-0.0401941,-0.0580319
-0.00702046,-0.0641175
0.00113216,-0.0289639
0.00248797,0.0171979
-0.00846721,0.0247414
-0.0181951,0.0335978
-0.0192109,0.0850358
-0.012107,0.0478654
-0.00148913,0.0259706
0.0202744,0.0181824
0.0721041,0.00593846
0.153996,0.00291256
0.199125,0.000874858
0.131729,0.00263192
-0.0060891,0.0179477
-0.126647,-0.0013582
-0.136257,-0.0264933
-0.0811122,-0.0014047
-0.0664603,-0.0457419
-0.0657824,-0.0463595
-0.045686,0.00398721
-0.0143203,0.0441706
0.0278488,0.0165689
0.0450317,-0.0160054
-0.00308714,-0.00352509
-0.0646856,-0.0467075
-0.0554438,-0.0882875
-0.0187771,-0.000108986
-0.00811278,0.0426041
0.0114499,0.0156918
0.0307871,0.0177525
0.0436336,0.00826412
0.0337396,-0.0074832
0.00136414,-0.00114686
-0.0276028,0.017519
-0.0196472,0.0257923
-0.00333988,0.0248137
0.00962304,0.0186395
0.017698,0.0188618
0.0112281,0.00619956
0.00608166,-0.012722
0.0279781,-0.014972
0.0601529,-0.0161625
0.0592677,-0.0317982
0.033805,-0.0275847
0.0016044,0.0130391
-0.0220538,0.00827074
-0.0175058,-0.0228856
-0.00287207,-0.0167922
0.0122542,-0.015504
0.0141822,-0.0266255
-0.0151106,-0.0452463
-0.0169341,-0.0518595
0.0172827,-0.0134894
0.0351684,0.0330261
0.0232766,0.0523932
-0.00614197,0.0906682
-0.0373758,0.0843615
-0.0705441,0.0575128
-0.068113,0.0315634
-0.029297,0.0149957
-0.0270173,0.00960286
-0.0540976,-0.0114225
-0.0493278,-0.0135971
-0.0143833,-0.00980382
0.00636607,-0.0213292
0.0181145,-0.024405
0.023259,-0.0204093
0.0246332,-0.0131558
0.034755,-0.0113311
0.0394866,-0.0399918
0.0405606,-0.0608075
0.0245416,-0.105258
-0.00124147,-0.0578382
-0.000360677,0.0549429
-0.00261288,0.0458922
-0.00464321,0.0346117
-0.0139197,-0.00436172
-0.00827856,0.0220687
-0.00826041,0.0377995
0.00319018,0.0360542
0.0396937,0.0496265
0.0715403,0.0281859
0.0638647,-0.0107363
0.0370823,-0.0434107
-0.00656043,0.0142756
-0.0261552,0.0448356
0.016301,-0.0102218
0.0294404,0.000647906
-0.0355112,0.0368334
-0.0627645,-0.0214427
-0.0321372,-0.0226655
-0.0064237,-0.0170872
-0.0226626,-0.0234594
-0.034986,-0.0146315
-0.0491929,-0.0150452
-0.00230427,-0.0305012
-0.00932321,-0.0284792
-0.0719886,-0.0216672
-0.0469852,-0.0122015
0.0257389,0.010316
0.051019,0.01621
0.038968,0.0177712
0.0266931,0.0272213
0.0170495,0.0308491
-0.00277194,0.0222108
-0.0287149,0.0109509
-0.0316389,0.00249426
-0.0245324,-0.00468929
-0.01117,-0.00796643
0.00281715,-0.0158186
0.00784752,-0.00904482
0.021348,0.00480181
0.0398434,-0.00507163
0.0391723,-0.0214964
0.0264159,-0.0430041
0.0452854,-0.062734
0.0677662,-0.08222
0.0425682,-0.0285177
-0.00293222,0.0522897
-0.0213931,0.013174
0.0045369,-0.0258496
-0.00378976,-0.0372681
-0.02208,0.013897
-0.0483635,0.0596673
-0.104361,0.0505041
-0.0938438,0.0891831
-0.0514314,0.0885593
-0.0117717,0.0846429
0.0191954,0.0280169
0.0313313,-0.0378809
0.0246271,-0.0425861
0.0226359,0.00973885
0.0566266,-0.0434467
0.075301,-0.0744065
0.0428917,0.0176314
-0.0309369,0.0736527
-0.0750961,0.031914
-0.0409465,0.010795
-0.0158035,-0.00313143
-0.00661311,-0.0142589
0.01556,-0.0344891
0.0259834,-0.0343495
0.0183917,-0.0126184
0.0130654,-0.00316338
0.0210338,-0.00532869
0.0278233,-0.00597026
0.0222495,0.00330895
0.00985072,-0.00595286
-0.00816277,-0.0252895
-0.0276413,-0.0119827
0.00976488,0.0014975
0.0430045,-0.00898204
0.0287003,-0.00232401
-0.0198153,0.00607685
-0.0453175,0.00429152
-0.0519857,0.00623457
-0.0604843,-0.0666501
-0.00337129,-0.0427479
0.0404978,0.0422702
0.0271172,0.0402717
0.00861281,-0.000823797
-0.0131078,-0.0265012
-0.0208523,-0.0648141
-0.0330662,-0.0463641
-0.0200248,0.0597396
0.0304649,0.0992051
0.0327319,0.0409615
0.00316148,0.0152692
-0.0384604,0.0109167
-0.0417628,0.00965371
0.00415648,0.00286771
0.0387818,0.00782371
0.0336306,0.0105073
0.00780154,0.00652117
-0.0132296,-0.0275886
-0.0146379,-0.0384006
0.00199763,-0.0195184
0.00958493,0.00709335
0.00747638,0.00408848
0.000207598,-0.00159827
-0.024386,0.000659057
-0.034817,-0.00347045
-0.0201317,-0.00501086
-0.00188029,0.00409581
0.00878245,0.0121215
0.0157348,0.0139321
0.00963811,0.0153852
0.000423235,0.00614694
0.0606929,0.0118914
0.0414036,0.0131909
0.0269775,-0.00411014
0.0150173,-0.0470716
-0.0056826,-0.0693916
-0.0324344,-0.0612188
-0.00986253,-0.0314628
0.00621888,-0.0251158
0.0459917,-0.0496533
0.069769,-0.0584854
0.0511262,-0.0495597
-0.0104668,-0.0358657
-0.0363702,-0.016812
-0.0321458,0.111563
-0.0303294,0.143806
-0.0451811,0.108006
-0.0412588,0.103865
-0.0509775,0.0286501
-0.0570223,-0.0085789
-0.0321403,-0.00467615
0.0045283,0.00699417
0.0209347,0.0345612
0.0160523,0.0246892
-0.000947514,0.019029
-0.010501,0.0035205
-0.0108985,-0.00878637
-0.00788159,-0.016442
-0.0052376,-0.0195795
-0.000714763,-0.0190739
0.007905,-0.0261939
0.0140968,-0.0259933
0.0150015,-0.0294548
0.0145699,-0.032869
0.0126746,-0.0287505
0.0118919,-0.0228727
0.0109743,-0.0198261
0.00881987,-0.0172067
0.00120075,-0.00725012
-0.0128874,0.0116436
-0.0240379,0.0214335
-0.028624,0.0203569
-0.0224114,0.016316
-0.0103293,0.0104377
0.0105591,0.00809868
0.0380346,0.0122164
0.0468646,0.0141777
0.05387,0.0138606
0.0709417,0.0154624
0.149289,-0.00421073
0.19437,-0.0391915
0.0995447,-0.0720827
-0.0222111,-0.085346
-0.142283,-0.0732995
-0.158776,-0.0923387
-0.176283,-0.12968
-0.150648,-0.0615956
-0.0681687,0.0748732
0.0204,0.198438
0.0271464,0.0898002
-0.00810253,0.114665
0.0312201,0.0758674
0.108395,0.0422923
0.128789,0.0241842
0.0942265,0.0167378
-0.0130771,0.0237841
-0.138596,0.000173113
-0.141154,-0.00852387
-0.113404,0.00393114
-0.0825081,-0.0117437
-0.0181015,-0.0257609
0.0434912,-0.0152555
0.0566083,-0.0037407
0.0326921,-0.00949406
0.0132754,-0.0188205
0.0207813,-0.00437553
0.0309192,-0.0158595
0.0191687,-0.0273123
-0.00140272,-0.0199367
-0.022961,-0.0234531
-0.0284572,-0.0268143
-0.0121999,-0.0160727
0.0088434,-0.00474453
0.0198099,-0.00124584
0.0269051,0.00178555
0.0319703,0.00668457
0.0376237,0.00747924
0.0409151,0.00948288
0.03056,0.0193121
0.00940687,0.0312142
-0.00824797,0.0323003
-0.0140894,0.0166958
-0.0183797,0.00275431
-0.0231165,0.00034683
-0.0262567,-0.00293748
-0.0281945,-0.00362035
-0.0292689,-0.00850734
-0.0204375,-0.0211894
-0.00525514,-0.0580161
0.000786004,-0.118673
0.0145628,-0.14185
0.0353562,-0.163819
0.05869,-0.0630286
0.0905094,0.0196252
0.0815391,0.107448
0.061159,0.146064
0.025661,0.107942
-0.00114374,0.0151736
-0.010349,0.0526815
-0.035198,0.105646
-0.0195839,0.0981409
-0.0282059,0.0508919
-0.0603085,0.00179176
-0.0621871,0.00044497
-0.102602,-0.00748287
-0.10923,-0.00381836
-0.0627357,0.0171931
-0.0176769,-0.0157166
0.0330136,0.00936841
0.0707368,-0.0250222
0.0632023,-0.056835
0.0412942,-0.061475
0.00741741,0.00905543
0.00592466,0.0275379
0.0319191,-0.00818567
0.0329713,-0.0212432
0.0191431,-0.0276004
-0.00580556,-0.0325667
-0.0518582,-0.0244617
-0.0742864,-0.00692952
-0.0346815,-0.00104399
-0.0111562,0.00672691
0.000621205,0.013804
0.00585241,0.0132568
0.0051641,0.0129713
0.00275933,0.0114641
0.00167294,0.00195057
0.00299322,-0.00720726
8.43e-05,-0.00592292
-0.00821994,0.0049
-0.0155669,0.00439224
-0.0102709,-0.00834512
-0.00179527,-0.0220565
0.00796882,-0.0306363
0.0203335,-0.0281123
0.0394671,-0.0171938
0.0603596,-0.00101637
0.0661189,0.0112521
0.0496173,0.0249676
0.0093929,0.0237716
0.0114219,0.00908781
0.0726368,-0.00786083
0.0826881,-0.0320154
0.0120902,-0.0319318
-0.0744788,-0.0537274
-0.0903304,-0.0568353
-0.0549943,0.0878349
-0.0333789,0.0481181
0.00395594,-0.038659
0.0142262,-0.0582394
-0.0255125,-0.0476118
-0.0499913,0.00606484
-0.0470948,0.010613
-0.0200832,0.0134711
0.0179721,0.0811816
0.0178809,0.129143
0.0058427,0.0654578
-0.0109321,0.0572243
-0.0245519,0.0510732
-0.00887718,0.000570203
-0.0124328,-0.013952
-0.00842874,-0.0137079
-0.000661862,-0.00254808
-0.00940424,-0.000764954
-0.0161907,-0.013566
-0.012257,-0.0205237
-0.000963374,-0.0290753
0.00889967,-0.0380085
0.00788671,-0.0349296
0.00205794,-0.0275399
0.00391583,-0.0219728
0.0142522,-0.0120154
0.0266092,-0.00701813
0.0312469,-0.00920918
0.0229646,-0.00587193
0.0114971,-0.0017604
0.0106431,-0.00183171
0.0157409,-0.000183996
0.0170303,0.00670327
0.00575797,0.0178325
-0.0109106,0.0204873
-0.019787,0.0145611
-0.0204011,0.00768324
-0.0161712,0.00193004
-0.0116541,-0.00293095
-0.0179015,-0.00219392
-0.0271883,-0.00139657
-0.0202992,-0.00906601
-0.00848659,-0.0145065
-0.00157553,-0.0191053
0.0144411,-0.0261538
0.0279616,-0.0353782
0.0759621,-0.0323628
0.132888,-0.107758
0.151563,-0.0872701
0.14749,-0.00885567
0.0911039,-0.0681903
-0.0266073,0.0142524
-0.126464,0.156997
-0.164824,0.167406
-0.13079,0.157551
-0.0738213,0.098807
-0.0330244,-0.0644933
0.00663172,-0.0757202
0.00421346,-0.0361453
-0.0323234,0.0336734
-0.0564538,0.0626439
-0.0534133,0.0243623
-0.0349375,0.0194143
-0.0157416,-0.00552849
0.00373895,-0.022452
0.014121,-0.0162697
0.00755182,-0.00620049
0.00565098,-0.000158655
-0.00047712,-0.00829544
0.00598629,-0.0155244
0.0233987,-0.0232807
0.0318199,-0.03815
0.0271564,-0.0322317
0.0143883,-0.0198432
0.00155345,-0.00839308
0.001907,0.00505649
0.00510408,0.00386312
0.00385946,0.00206688
-0.00458317,0.0266799
-0.0119368,0.0220788
0.0109583,0.0102313
0.061061,-0.00330037
0.116771,-0.0126697
0.140187,-0.0116557
0.0841426,0.00212867
-0.0450919,0.0231431
-0.127909,-0.00492625
-0.1188,-0.0428235
-0.077085,-0.0695178
-0.0417433,-0.119302
-0.0199737,-0.112298
-0.000686383,0.00160574
0.0103777,0.0498354
0.017099,-0.000709756
0.0645985,0.0585744
0.0851211,0.0897474
0.0315619,0.060824
-0.0389315,0.0238973
-0.0791665,0.0412492
-0.0532534,0.0707675
-0.00843933,0.0786742
0.00672592,0.0060292
0.0341079,0.0168815
0.041384,-0.0276565
0.0195828,-0.042155
0.00796592,-0.0151765
-0.015461,-0.0402799
-0.0353473,-0.0229689
-0.00988104,0.0157117
0.0179026,0.00126984
-0.0127912,-0.0288457
-0.0368746,-0.0618629
-0.0355311,-0.0803498
-0.0162214,-0.0281897
0.00515949,0.0694996
0.014087,0.0618915
0.0320176,0.0361795
0.0259073,0.024728
0.0305768,0.0144002
0.0391536,0.000449146
0.0103318,-0.0144799
-0.0155223,-0.0228044
0.00270982,-0.0280283
0.0135727,0.00220785
0.0069606,0.0118676
-0.0164855,0.00606859
-0.0392523,0.00890882
-0.0651196,0.00292683
-0.0569929,0.00578364
-0.00486144,-0.0149771
0.0510748,-0.0306143
0.0774339,-0.0531255
0.0713625,-0.0584921
0.0359172,-0.00654661
-0.00328279,0.0174676
-0.0114389,0.0252301
-0.0127247,0.0472097
-0.0113268,0.0254522
0.00728568,-0.0049459
0.00157176,0.00767016
-0.00835157,0.0116191
0.01543,0.0107577
0.00206466,0.0303113
-0.0151998,-0.00303928
-0.0701599,0.0316862
-0.133271,-0.0620179
-0.0788321,-0.0690983
-0.0326736,-0.0164563
0.0211101,-0.022551
0.0331956,0.00966721
0.0194616,0.0239094
0.0322361,0.0281059
-0.00364406,0.0293236
-0.0362508,0.0128235
-0.0260239,-0.0217485
0.0105426,0.00448338
0.0553039,0.0189807
0.093333,-0.00166453
0.0844763,-0.0238045
0.0395894,-0.0201986
0.000564635,-0.00491017
-0.0217835,0.0126138
-0.00996437,0.0305274
0.011143,-0.00360878
0.0191735,-0.0182383
0.0141947,0.0156074
0.00471638,0.059193
-0.0122249,0.0219191
-0.051956,0.0178634
-0.0725944,0.0288026
-0.039353,-0.05072
0.0128823,-0.102941
0.0210226,-0.0334059
0.00272536,-0.000643706
-0.00403898,0.0455324
0.00413364,0.027328
0.00508457,0.0416043
0.0411726,0.0390493
0.0956187,-0.0375949
0.130921,-0.038796
0.086405,0.0175354
-0.0347775,-0.0171047
-0.148064,-0.0261436
-0.148414,-0.0275036
-0.0821363,0.0196708
-0.046419,0.0576211
-0.0254534,0.00761079
0.0270058,-0.027699
0.0233225,-0.0210919
-0.0151116,-0.0024595
-0.0228493,-0.0170803
-0.00478915,-0.0496015
0.0182668,-0.0318948
0.0499101,0.0122535
0.0459711,0.0402368
0.0163244,0.0517008
-0.00589039,0.0264015
0.0311469,0.0201847
0.0560226,0.0080904
0.0033087,-0.0117471
-0.0427,-0.0170624
-0.0265883,0.00885308
-0.029234,0.000328675
-0.0294925,-0.0109269
-0.00406223,-0.00975052
-0.00137097,0.00454216
0.0138302,-0.00644105
0.0278252,-0.01063
0.0446802,0.0090316
0.0410459,0.00426608
0.0262668,0.0116223
0.0168194,0.037451
-0.0392897,-0.00948289
-0.0930573,-0.0560742
-0.0824446,-0.0439083
-0.00695049,0.0315077
0.029957,-0.00105691
0.0484028,-0.0630859
0.0690976,-0.0496178
0.0434949,-0.0253787
0.00741577,-0.00825194
-0.00600648,0.00966638
0.00394688,-0.00410178
-0.0111955,-0.00117394
-0.0334549,0.083767
-0.0345024,0.0821333
-0.0370564,-0.00339853
-0.0442658,-0.0316626
-0.0403242,0.0449982
-0.0355884,0.0557286
-0.0280268,0.0357456
-0.00251352,-0.00305566
0.0514672,-0.0315524
0.0728533,-0.0343636
0.0462813,-0.039704
0.0285406,-0.00893237
0.0126389,0.00722041
0.0204445,-0.033845
0.04587,-0.0145215
0.0616901,0.0414313
0.0271714,0.0198863
0.0184856,0.0276503
0.0150185,-0.00411372
0.00298313,0.0139087
0.0166992,0.00688045
-0.00475283,-0.0158951
-0.0470284,0.0211997
-0.114964,0.0386372
-0.148033,-0.0432508
-0.0835892,-0.0340446
-0.0193651,-0.0285207
0.012865,-0.0348577
0.0300915,-0.00839411
0.0238113,0.0372387
0.0251257,0.0193447
0.0346239,-0.0189026
0.0129955,0.00354381
-0.00693187,-0.0230327
-0.0164343,-0.0134819
-0.0380946,0.0325966
-0.0184597,0.00912023
0.0135085,-0.00946616
0.00426305,0.0044737
0.0314776,-0.00778958
0.058212,0.0520809
0.0353198,0.0432103
0.00897853,-0.0302974
-0.0344321,-0.00780127
-0.0602706,-0.00858512
-0.0106868,-0.0183242
0.0570099,-0.0207891
0.0846542,0.0215273
0.0695721,0.00657451
0.0507348,-0.0152412
0.0146443,-0.0188419
-0.0398396,-0.0322052
-0.0476787,0.00577521
-0.0575772,0.0306269
-0.0584098,0.0182623
-0.0111359,-0.0161179
0.0184451,0.00457774
0.0136172,-0.0194916
-0.0150675,-0.00314364
-0.0111872,0.00902344
0.00380429,0.00904468
0.00714055,-0.000476499
0.000209678,-0.0111124
-0.00280305,0.00182692
-0.0220602,-0.00957685
-0.0340875,-0.00785416
-0.0348492,0.0397944
-0.0321555,0.0100697
-0.02875,-0.0280278
0.00229513,-0.0183816
0.0443934,-0.00787914
0.0664251,0.00286343
0.0826864,-0.0128476
0.0662391,-0.0184552
0.0135366,-0.00887949
-0.0406384,0.0163036
-0.0604099,0.00950348
-0.0488037,-0.00315609
-0.0237359,-4.25e-05
0.00161857,0.0120225
0.0438567,0.0197345
0.0664291,0.0124528
0.0570623,0.0249651
0.0167166,0.0298062
-0.0419591,-0.0259158
-0.0998726,-0.0202367
-0.0629278,0.0169368
-0.00595435,0.0110735
0.00433279,-0.0105963
0.00172096,-0.0104125
-0.0061904,0.00867201
-0.00340414,0.00491134
0.0481998,0.0106683
0.0971233,0.0240951
0.0794259,0.000844926
0.00382929,0.00540033
-0.100538,0.0300509
-0.137026,-0.0614162
-0.0479713,-0.0526841
0.0150433,-0.0649502
0.000777733,-0.0591708
0.0174895,0.058168
0.0599737,0.0935795
0.0414761,0.0258236
0.0124514,0.0161331
0.00397444,0.00937764
0.00402423,-0.0314509
0.0208927,-0.0481811
0.0382052,-0.0100563
0.00431773,0.00357406
-0.0420452,-0.0363363
-0.0558171,-0.000211055
-0.0626171,0.014358
-0.0580482,-0.00566448
-0.00448818,-0.0015116
0.0657952,0.0144528
0.0938606,0.0203646
0.0857083,0.0346694
0.0417354,0.0321831
-0.0100369,0.00248463
-0.0217598,0.0206915
-0.0200883,-0.0115933
-0.0156376,0.0021359
0.0354019,0.0154286
0.0605344,-0.0490194
0.0341666,-0.0128982
-0.0391453,0.0424577
-0.100686,0.0147005
-0.0865108,-0.0608691
-0.0496805,-0.0644329
-0.0318218,0.0127451
-0.0546893,0.0391016
-0.0690389,0.00609713
-0.0505104,-0.0112233
0.00638822,-0.00686256
0.0778303,-0.000300843
0.0858899,-0.00195433
0.0522526,0.00561994
0.0214782,0.0120249
0.000487466,0.0129792
0.00231061,-0.0027953
-0.0133459,-0.0145137
0.00542613,0.0130545
0.0148048,0.0162704
0.0119237,0.0169659
0.0185524,0.00398427
0.0244217,-0.0103071
-0.000449249,-0.0169873
-0.0190809,-0.0438342
-0.0112082,-0.054592
0.00737158,-0.0841571
0.0213697,-0.0971013
0.0244358,0.0511117
-0.00586263,0.107032
-0.0281803,0.0660178
-0.0427734,0.0341498
-0.0276565,0.040081
0.0173504,0.0307474
0.0294638,0.010344
0.00858637,0.0114182
-0.0368491,-0.0408185
-0.0241165,-0.0110309
0.0259554,0.0205437
0.0498608,0.0262648
0.0646915,0.0264123
0.0933119,-0.0256861
0.0890916,-0.0479751
0.0297172,-0.02649
-0.0441537,0.00370504
-0.106782,-0.000776858
-0.123671,-0.00395523
-0.118276,0.00389204
-0.0865964,0.00557907
-0.0194545,-0.00193386
0.0184023,-0.0202631
0.0235664,-0.0246596
0.0292318,-0.00836153
-0.00112095,0.00357554
0.00900543,0.0020275
0.0704755,-0.00655213
0.111983,-0.0105785
0.108277,0.000997985
0.046406,0.0113989
-0.0408011,0.0130637
-0.1029,0.00366655
-0.0943961,-0.00175109
-0.0550707,-0.00275766
-0.0195908,0.0107641
-0.00413824,0.0332421
-0.00341159,0.0289952
0.0359015,-0.0367803
0.0932864,-0.0314902
0.0962882,-0.00856148
0.023762,0.00718546
-0.0648378,0.0139538
-0.10429,-0.0169133
-0.0732531,-0.0504469
-0.0458692,0.0384821
-0.0197561,0.0220863
-0.00598166,-0.0114892
0.0362735,0.0143824
0.0678685,0.0626468
0.0120637,-0.00170423
-0.0317406,-0.0386441
-0.0560627,-0.0175199
-0.016927,-0.000497391
0.0409104,-0.00221415
0.0494831,0.0402189
0.0279105,0.042694
0.0174194,-0.0378366
0.0413773,-0.00696166
0.103314,-0.0167029
0.127373,-0.0370572
0.0751789,-0.0338697
0.0372793,0.0106735
-0.0306631,0.0384512
-0.111218,0.057193
-0.114775,0.0198349
-0.0786931,-0.0193045
-0.0556514,-0.0150124
-0.0144332,-0.00618884
0.00572772,-0.001429
-0.00507523,-0.0233153
-0.0128995,-0.0182252
-0.012415,-0.000113174
-0.00998752,0.000726848
0.00104297,-0.0321051
-0.0168618,-0.0263173
-0.0247428,0.0321285
0.0158312,0.0155917
0.0349592,-0.0202149
0.0311478,-0.0475935
0.0930383,-0.000347558
0.15422,0.0773693
0.0943075,0.0445621
-0.0317337,0.0447367
-0.137833,0.00218951
-0.152429,-0.042283
-0.0777673,-0.0319295
-0.0280124,-0.0452837
-0.00920698,0.0105394
-0.0115532,0.031546
-0.00865742,-0.00132214
0.0071051,0.0225017
-0.0141576,0.00718076
-0.030831,-0.0187792
-0.00338151,-0.0321211
0.00903149,-0.00528622
0.0251414,-0.00883689
0.075277,-0.0277602
0.123088,0.00396104
0.122752,0.0167909
0.0725015,-0.0036547
0.00949849,0.0205679
-0.0546843,0.00186109
-0.0880703,0.0147787
-0.0543822,0.0152029
-0.0181387,0.0098444
-0.00662549,0.022144
-0.0191031,0.00064525
-0.0303865,-0.0226465
-0.0356256,0.00110269
-0.0254001,0.028902
-0.00619143,0.0557713
0.0010006,-0.00547628
0.00920172,-0.018928
0.0341752,-0.0123824
0.0465291,-0.00480332
0.0307147,-0.0200307
0.001482,0.027516
-0.0203128,-0.0188976
-0.0130336,-0.0286481
0.0142047,0.0010681
0.0523084,-0.01068
0.052388,-0.018613
0.0143941,-0.0478624
-0.000325218,-0.0149658
-0.0424498,0.0121209
-0.0757825,0.00555771
-0.063824,0.0187637
-0.0386092,-0.00261097
-0.0227048,-0.0108484
-0.0128057,0.00559955
-0.00982469,0.00692999
-0.0114473,-0.00722679
-0.000896852,-0.0217764
0.021625,0.0140484
0.0309225,0.0681184
0.0282181,-0.00897521
0.023932,-0.0364327
0.0174248,-0.0269795
0.00109248,0.0150094
0.000791022,0.0304928
0.0275025,0.0338479
0.0493373,0.0498019
0.0676016,0.0140876
0.0765908,-0.0344738
0.0340297,-0.0256134
-0.0448197,0.0319356
-0.104032,-0.0256294
-0.0754902,-0.0411179
-0.0247921,0.023405
-0.0309474,-0.0155365
-0.0351354,-0.0412818
-0.0126826,-0.0116018
0.000425705,-0.00486858
-0.00919045,-0.00945969
-0.0120207,-4.71e-06
-0.00105012,-0.00576862
0.00618259,5.22e-05
0.0206251,0.0282246
0.0224145,0.0312447
0.012813,0.0418887
-0.000914114,-0.0243555
0.0065967,-0.0344688
0.0334304,0.03073
0.0393099,0.0245716
0.0305139,0.0144556
-0.00153658,0.00725803
-0.0503185,-0.025727
-0.0565966,0.00764561
-0.0342265,0.0988415
-0.000760474,0.0212339
0.0728913,-0.0666986
0.103089,-0.0511935
0.0735684,0.00334365
0.030806,0.0105659
-0.0211288,-0.00667627
-0.0529228,-0.0105618
-0.0448751,-0.0146219
-0.0325156,0.00113986
-0.0279774,-0.025257
-0.014467,-0.00779
-0.00665092,-0.00273576
0.0124892,0.00297694
0.0382993,0.0256648
0.0350698,0.000565803
0.0330542,-0.0372864
0.0165463,-0.0284035
-0.0146585,-0.0150794
-0.0281513,-0.00549162
-0.0176338,0.00635448
-0.00468092,0.00671228
-0.0113174,0.0314435
-0.0263541,0.0220314
-0.0371461,0.00461573
-0.0282103,-0.0099401
-0.00429484,-0.00273272
0.0190908,0.00636961
0.0226153,0.00275302
0.0052667,-0.00988708
-0.0176803,0.00102747
-0.018979,0.0198859
-0.00242914,0.0122618
0.00592495,-0.00138627
0.0043386,0.0163955
-0.003005,0.0253087
-0.00835371,-0.00794514
-0.00254693,-0.0230305
0.0160212,-0.0153801
0.0271319,-0.00566265
0.0209721,0.0101802
0.0137602,-0.0185854
4.37e-06,-0.0073333
-0.0271391,-0.00553395
-0.0444241,0.0129221
-0.039571,0.00222646
0.0108732,-0.00958124
0.0484753,0.000913706
0.031099,0.0118307
-0.0116939,2.86e-05
