Comp Ch 3,Comp Ch 4
0.0412485,-0.0563692
0.107051,-0.0208645
0.120546,0.0705953
0.035138,0.0136075
-0.0231056,-0.0320357
-0.0346416,-0.00607681
-0.0343614,0.0431104
-0.0521758,-0.0105633
-0.0641048,-0.064979
-0.0245892,0.0239869
0.0564508,0.0461177
0.0711295,-0.0567753
0.0768033,-0.0274941
0.0432736,0.0165242
-0.028272,0.00211417
-0.0615229,-0.0336921
-0.00262707,-0.0149896
0.0656183,0.014253
0.0403143,0.00166687
-0.105032,0.00929137
-0.202188,0.0278817
-0.104461,-0.00344453
0.00381683,0.00265564
0.0437488,0.0592915
0.142747,-0.0330116
0.100304,-0.0394371
0.0419941,0.053322
0.0492285,0.0553545
0.0516405,-0.00372151
0.100223,-0.0241934
0.104488,-0.0377125
0.00641319,-0.0489092
-0.0852299,-0.0412799
-0.112124,-0.0371242
-0.0573655,-0.0611449
0.0262193,0.00511262
0.0843921,0.0383733
0.0255924,0.0166006
-0.0391884,0.0412721
-0.0780257,0.0349881
-0.00762725,0.0609786
-0.0620714,0.00388849
-0.194941,-0.0509291
-0.151516,-0.062913
-0.0185233,-0.0130757
0.0556394,0.104686
0.0288628,0.114292
0.0247215,-0.00554207
0.0766981,-0.00319833
0.116501,0.00081188
0.103168,-0.012915
0.056682,-0.025578
0.0123275,-0.0425188
-0.0112225,-0.0239218
-0.00668705,-0.0263712
-0.0080387,-0.046963
-0.00657874,-0.0304771
-0.0164806,-0.0340273
-0.0399958,-0.0133678
-0.0607186,0.0128487
-0.0595475,0.0133426
-0.023358,-0.00605946
0.00695285,0.00356088
0.0225062,0.0183992
0.0275707,0.0154309
0.0282733,0.0132344
0.0411485,0.0141427
0.0813551,0.00308096
0.0799159,0.00756372
0.0374727,0.0263838
-0.0194929,0.0380206
-0.0575264,0.0435872
-0.0963422,0.0462964
-0.146634,0.0384163
-0.183698,0.00817358
-0.0632277,-0.0137015
0.0955029,-0.0180836
0.105058,-0.0198997
0.0708396,-0.0159558
0.109074,-0.0138895
0.133322,-0.012373
0.0784979,-0.00871263
0.00772843,-0.00778444
0.00431588,-0.0139781
0.00617905,-0.0415098
-0.0134146,-0.041692
0.00292894,-0.00166989
-0.0236003,0.0206415
-0.0602822,-0.00970199
-0.0864124,-0.0157524
-0.0797925,-0.0111821
-0.0584448,-0.0457782
-0.0567851,-0.0293963
-0.00118043,0.0280513
0.0711991,0.0271243
0.0967023,0.0791315
0.0497983,0.0314381
-0.0289021,0.00941342
-0.0477759,0.00339306
-0.00481253,-0.0142936
-0.0354044,0.00933991
-0.0974923,0.00351128
-0.11809,-0.0284329
-0.0367644,-0.0193121
0.0594927,-0.0159611
0.0523007,-0.0204422
0.0507632,0.000410718
0.0794056,0.00752148
0.0733004,0.0406214
0.00482419,0.010152
-0.0847304,-0.0440402
-0.137388,0.0092432
-0.0378264,0.0263177
0.0910344,0.0116942
0.0854554,-0.0295891
0.00762006,0.00749904
-0.0162232,0.0350349
0.0163275,-0.00913786
0.024983,-0.00250736
-0.00359094,-0.029628
0.00895546,-0.0385401
0.0360622,0.0337734
0.0211456,0.0787672
-0.0161813,0.0428351
-0.0317707,-0.0562209
0.0259258,-0.0115683
0.0278639,0.00366194
0.0209682,-0.0811271
-0.000792924,-0.0756156
-0.0504672,0.00396918
-0.109782,0.0726717
-0.125613,-0.0113174
-0.0902559,0.00881468
-0.0208852,0.0103207
0.0632609,-0.0357798
0.122657,0.0195342
0.120978,0.0337675
0.071898,0.0571751
0.0150737,0.0283096
0.0147886,-0.00413104
0.0311094,-0.0761675
0.0181458,-0.10529
-0.00112997,-0.0366774
-0.023068,0.0222663
-0.0732479,0.0549305
-0.0738996,0.00932647
-0.0180728,0.0306036
0.0384318,0.019864
0.0956557,0.0253199
0.0973915,0.0644575
0.0203755,0.00351785
-0.0724728,-0.0166001
-0.093175,0.0580049
-0.086452,-0.0327166
-0.0325992,-0.00979919
-0.00828466,-0.0247782
-0.0289306,-0.0460698
-0.0185585,0.0500069
-0.00448528,0.045386
0.00174007,0.024589
0.00467067,-0.0272391
0.0361517,-0.0306278
0.081974,0.00174509
0.0738315,-0.0346438
0.0867285,-0.0841237
0.110367,0.00708239
0.0841997,0.0238206
-0.0410291,-0.0518928
-0.169459,-0.0208787
-0.184718,0.0221936
-0.0658818,0.0430616
0.00305425,0.0857118
0.012326,-0.012674
0.0345665,0.0206144
0.0397155,-0.00997378
0.0527717,-0.0306995
0.0976392,0.00152723
0.109982,-0.0437255
0.0660996,-0.0454911
-0.0372378,0.143374
-0.118096,-0.10057
-0.119681,-0.210668
-0.0800261,-0.0939608
-0.0515884,0.122462
-0.0431818,0.123027
-0.00637906,0.0472999
0.0143357,-0.00193041
-0.0291206,-0.0366026
-0.0623816,-0.0491374
0.0184563,0.023114
0.112765,0.0461078
0.0888439,-0.116387
0.0058152,-0.118258
-0.0955946,0.0337774
-0.0803279,0.159911
0.0531646,0.117595
0.0987876,0.0195872
0.0317564,0.100871
-0.0111326,0.0722753
-0.00469676,-0.0319342
0.0334256,-0.0409586
0.0567268,-0.0248842
0.0111828,-0.0301727
-0.0135501,-0.0172768
0.0110679,-0.0970972
0.0469373,-0.137687
0.0536675,0.06633
0.00111751,0.0954859
-0.0455942,0.0357854
-0.0737119,0.0477316
-0.0669136,0.0559225
-0.067145,0.0535709
-0.0644055,-0.000443234
-0.0298459,-0.107783
0.0519813,-0.0834097
0.0808631,-0.0156449
-0.00729462,-0.00679321
-0.0758498,0.0225983
-0.0531378,0.0225932
0.0186937,0.0154779
0.0666783,-0.0221116
0.0907994,-0.0311896
0.104467,-0.0597121
0.100716,-0.0867252
0.0839078,-0.0455603
0.0480092,-0.10897
0.0228169,-0.0682658
-0.0363669,-0.107986
-0.114831,-0.0497063
-0.166205,0.181059
-0.199353,0.262691
-0.154242,0.239858
-0.0453602,0.102832
0.0346331,0.0450565
0.142273,-0.00521183
0.220007,-0.0360203
0.164154,-0.167138
0.0346804,-0.0974365
-0.0841164,0.0804969
-0.109524,0.0572127
-0.0641938,0.0625915
-0.0560739,-0.00694239
-0.061586,0.0164646
-0.0442898,0.019498
0.0233789,-0.00983381
0.0849975,-0.0206814
0.0152943,-0.0324538
-0.082609,-0.0528226
-0.061351,-0.0159003
0.0415793,0.00422209
0.0746836,-0.0612005
0.0961821,-0.0542149
0.0907223,0.0166212
0.0194425,-0.0161048
0.0129051,-0.0311361
0.0132142,-0.0650884
-0.0146282,-0.0157291
-0.0307885,0.073171
-0.0384254,0.0309238
-0.0520357,0.0057915
-0.0640265,0.0726063
-0.061446,0.00908724
-0.025789,-0.0838857
0.0183392,-0.0912173
0.0586444,-0.0947611
0.0637306,0.0475277
0.0166202,0.107346
-0.0239224,0.0308892
-0.0555753,-0.0877782
-0.0552662,-0.0252537
-0.0292191,0.0358782
-0.00777161,0.0361719
-0.00365563,0.0281258
0.00916523,0.0290993
0.039568,0.0377104
0.06771,0.0278434
0.046307,-0.00966191
-0.000844203,-0.0150389
-0.0346775,-0.0566049
-0.0403514,-0.0455872
-0.046568,0.0576193
-0.0375289,0.0553895
0.0791664,-0.053523
0.154835,-0.0487169
0.103383,-0.0134102
0.0680109,0.00296859
-0.00656252,0.00981003
-0.145981,0.00159964
-0.222341,-0.01258
-0.144069,-0.0321805
0.0573601,-0.0419437
0.120427,0.00577447
0.0620283,0.109034
0.0432336,0.0502809
0.100622,-0.00855681
0.0894356,-0.00124667
0.0230704,0.0699413
-0.00610659,0.077948
-0.0402835,-0.0429714
-0.0520934,-0.0739873
-0.0280372,-0.0510374
-0.0252448,-0.0211731
-0.0320955,-0.00637642
-0.0377847,-0.00740378
-0.0332773,0.0194092
-0.021436,0.0328869
-0.0201341,0.0293295
-0.0213255,0.00722998
0.0040907,-0.024098
0.0314921,0.0725106
0.0346169,0.095648
0.0153675,-0.0563957
-8.69e-05,-0.0623615
-0.0133912,-0.0325735
-0.0218087,-0.0194868
-0.0286638,-0.0231237
-0.0179981,-0.0258348
-0.013108,0.00729694
-0.00237407,-0.00432846
0.00705046,-0.0352878
0.0247321,0.0117488
0.0229968,0.00416666
0.00319303,0.00570246
-0.0131382,0.0223087
-0.0175778,0.0354105
-0.00783187,0.0474789
0.00226831,0.0229194
0.00224227,-0.0280323
0.00544548,-0.0337133
0.0127893,-0.0225323
0.0376369,-0.0317004
0.0536727,-0.000223066
0.0380579,0.0205082
0.00815231,-0.0243486
-0.0180299,-0.0164878
-0.0235116,0.0193358
-0.0200394,-0.0252818
-0.015332,-0.00327546
-0.0138085,0.0012245
-0.00192283,0.0105291
0.000642064,0.0354696
-0.00341595,0.0338286
-0.00673338,0.00655908
0.000261984,-0.00136685
0.00478959,0.0153212
-0.00600873,-0.0228331
-0.0132112,-0.0284474
9.44e-05,-0.0368696
0.0203572,0.00121533
0.0202855,0.00903994
-0.00237653,0.0956217
-0.023202,-0.034781
-0.0241735,-0.0507818
-0.00355163,-0.0117188
0.0202634,0.00902512
0.0173049,0.023351
0.0198895,0.0372198
0.0184406,0.0273668
0.00227269,-0.000928132
0.0143556,-0.00760827
0.00164711,-0.0352783
-0.0228592,-0.050985
-0.0185973,-0.0352648
-0.0124102,0.0313046
0.00279161,-0.0202456
0.00185316,0.00763227
-0.00967212,0.0124937
-0.00880744,0.0570418
-0.020925,0.0220137
-0.0310591,-0.0545323
0.00487894,-0.0112096
0.0565038,0.0102806
0.0379617,0.0355005
-0.0244105,-0.0128971
-0.0121988,0.00727259
0.0192548,0.0196308
0.029436,-0.00801402
0.0601264,-0.00265832
0.0966007,0.00176489
0.0755807,0.000166807
0.010015,0.0039391
-0.107089,0.00831258
-0.153057,-0.0175655
-0.110829,0.014354
-0.0738217,-0.0011889
-0.0280508,-0.0404247
-0.000444302,0.0166696
0.039635,0.0308726
0.0539872,-0.00195454
0.0208186,-0.00324658
-0.0142469,0.00156202
0.000567313,-0.0338248
0.0346704,0.00187839
0.0460431,-0.0556546
0.0696987,0.00108904
0.0127152,0.0275335
-0.01521,0.0212192
0.0334523,0.017931
0.0281585,0.00596988
-0.00346911,-0.0187292
-0.0368551,-0.0106726
-0.0721049,0.0291098
-0.0346415,0.0061841
0.00386138,-0.0461508
0.0370489,-0.0407849
0.0528479,-0.0354035
0.0233982,0.0204364
-0.0312941,0.0588628
-0.0806976,0.0316713
-0.099778,0.0195601
-0.071845,0.000837022
-0.0215412,-0.0428982
0.0112865,-0.0554897
0.0378412,0.00101824
0.0491808,0.0188806
0.0497539,0.0172125
0.0709884,-0.0033112
0.0428404,0.0196322
-0.0109951,-0.0130655
-0.0558694,0.046309
-0.0566027,0.0102914
-0.0496753,-0.0494725
-0.0143336,-0.0271136
0.0760612,0.035355
0.128083,0.0448966
0.0876547,0.00782937
0.0368123,0.0186197
0.0105868,0.0222354
-0.0418862,-0.038343
-0.048496,-0.0640307
0.000268448,-0.0618661
0.00119616,-0.000399141
-0.0502312,0.0634685
-0.0669866,-0.0141929
-0.0343072,0.0523393
-0.0198838,0.0564731
-0.0247233,-0.0242974
-0.0133626,-0.0382233
-0.0186999,-0.0235241
-0.0216555,-0.0144076
0.0304598,-0.00416304
0.0875361,0.0459725
0.10493,0.0368717
0.0445439,0.00163951
-0.0919572,-0.0562667
-0.177833,-0.0719252
-0.150194,-0.0126015
-0.0518857,0.000523544
0.0218613,-0.0191529
0.0795464,-0.024721
0.10356,0.00844953
0.0952572,0.0708497
0.097153,0.000255257
0.132383,-0.0291141
0.11413,0.0272512
0.0314617,0.0749691
-0.0717106,0.0682383
-0.128405,0.0178603
-0.109215,0.0100335
-0.004673,-0.0202457
0.0590583,-0.000983004
0.0633087,0.00584797
0.0472178,-0.0558421
-0.0203739,-0.0409453
-0.111019,0.0198804
-0.110015,0.017585
-0.0343991,-0.0271263
0.0345268,-0.0598734
0.0193896,-0.0364859
-0.0184467,0.0532629
-0.0327081,0.0226074
-0.0316196,-0.024037
-0.0324854,-0.0480761
0.00631684,0.00662553
0.0725047,-0.000463161
0.08004,0.00769364
0.0399302,-0.00340667
-0.00331,-0.0524268
-0.0146152,-0.0142132
-0.0135169,0.0420519
-0.00743185,0.0141991
0.000461928,0.0144716
-0.0325496,0.0444468
-0.000463026,0.0451864
0.0678844,0.028283
0.0473374,0.00494823
-0.0169738,0.00509503
-0.0811179,0.011481
-0.0442835,-0.0695708
0.0504717,-0.0128522
0.0442824,0.0135271
-0.016454,-0.0370069
-0.0608171,-0.00503571
-0.0598953,0.158602
-0.0218576,0.0264961
0.0679798,-0.0903968
0.0895227,-0.0338107
0.00351448,0.0165921
-0.0680365,-0.0333339
-0.0393755,-0.0239765
-0.00100104,-0.00295452
-0.00343008,-0.00114897
-0.0292433,0.0107653
-0.0201803,-0.00423415
0.0235312,-0.0681889
0.0311879,-0.0322643
0.0120791,0.0636656
0.0151882,-0.107367
0.0272999,0.00946086
0.0326089,0.0833441
0.033531,0.0204677
0.0147859,0.0226284
-0.0216083,0.00942113
-0.0424095,-0.000574476
-0.0283568,-0.00407714
-0.00373971,0.00681471
0.0342162,0.0190933
0.0436669,0.0138077
0.0447617,0.00109123
0.044379,-0.00192274
-0.00296736,-0.0109761
-0.0490205,-0.0163297
-0.0514266,-0.00383846
-0.0621933,0.00836722
-0.0620584,-0.0125058
-0.0232176,-0.0388074
0.0302163,0.0202716
0.035302,0.058274
0.0183226,-0.0109991
-0.00494097,-0.0303106
-0.0286537,-0.0164064
-0.035301,-0.00665136
-0.0431949,-0.00406686
-0.0323873,-0.0106193
0.0215796,-0.00945877
0.0532314,0.0187879
0.0914891,0.0465741
0.137265,0.0446792
0.129037,-0.0233986
0.0762576,-0.0259886
-0.0187829,0.0314314
-0.0939891,0.00774093
-0.15853,-0.0404554
-0.14698,-0.0831221
-0.0728227,-0.0253177
-0.00284993,0.0834499
0.0238525,0.0456033
0.0218122,-0.00136652
-0.00831594,0.0129277
-0.047133,0.0093216
-0.0454074,-0.0299703
-0.0195854,-0.0458848
-0.00052152,0.0307489
0.00633805,-0.00126403
0.0165898,-0.0352205
0.0519191,0.0240835
0.0542903,0.0324193
0.0242403,0.00706775
0.026985,-0.033662
0.0233057,-0.0341673
0.0469157,0.0347346
0.107399,0.0184846
0.167794,-0.0234405
0.135426,-0.049514
0.0682856,0.016274
-0.0567191,0.0253984
-0.141883,-0.0121206
-0.17878,-0.0269706
-0.10376,0.0124853
-0.0304652,0.0577065
0.00626627,0.0685688
0.0215138,0.00716146
0.016168,-0.00330012
-0.00139128,0.00896902
-0.0278511,-3.31e-05
-0.0337127,-0.0107807
-0.0203437,-0.0143396
0.00782633,-0.0238238
-0.00882205,-0.0340944
-0.0429193,-0.0288163
-0.0325711,-0.0407544
-0.0134088,-0.0428172
0.0057266,-0.036997
0.0264205,-0.00276339
0.00674308,0.0427118
-0.0321051,0.0252289
-0.0385453,-0.0381756
0.00315563,-0.0203013
0.0505245,0.0437472
0.0498628,0.0619707
0.00438382,0.0486676
0.00461295,-0.00388694
0.0116812,0.0360781
0.00315051,0.0371499
0.0304628,-0.0142176
0.000442877,-0.0205497
-0.043322,0.00746416
-0.0030987,0.0375931
0.0231494,-0.0207329
0.012855,-0.0184461
0.0203135,0.0191706
0.0319075,0.0172577
0.0404901,-0.031014
0.0377829,-0.0276053
0.00529105,-0.0354224
-0.0249903,-0.0433059
-0.0564368,-0.0327399
-0.0697426,0.0127937
-0.0368861,-0.0400231
0.00118323,0.0271664
0.0139365,0.0526453
0.00578327,-0.0066041
0.0157069,-0.0177273
0.0504889,0.0341507
0.0538955,0.00751576
0.0293408,-0.00576568
4.96e-05,0.018857
-0.036802,0.00900863
-0.0502224,0.00289131
-0.0405888,0.00929025
-0.0237386,-0.0816865
0.0022301,-0.0376866
0.0174378,0.0405439
0.0338459,0.00355472
0.064996,-0.0279286
0.0512286,0.00240232
-0.00919108,0.00795458
-0.0575521,-0.00516641
-0.083401,0.00985637
-0.0582455,0.0125472
-0.00628917,0.0145346
0.0125912,0.00836669
0.0560446,0.02351
0.0700006,0.0186707
0.0406194,0.0210572
0.0545964,-0.00434218
0.069708,-0.0514147
0.0437978,-0.00173732
-0.000334306,0.00887393
-0.0635985,0.0123391
-0.0846172,0.0306172
-0.0735307,0.00818709
-0.0737621,-0.00505542
-0.0604508,-0.00150036
-0.0478877,-0.019602
-0.0318294,-0.0292811
-0.0232651,-0.0220825
-0.0274332,-0.0185226
-0.0172149,-0.0206625
0.028143,0.0766824
0.050196,0.0528914
0.0416989,-0.0585665
0.0300182,-0.0517391
0.0218355,0.042223
0.0273011,0.0253423
0.0383084,-0.0795474
0.0405296,-0.0101057
0.0258043,0.0551052
0.00956306,0.0505436
-0.00158503,0.0160066
-0.000997431,-0.00578117
0.00834495,-0.0282782
0.083436,0.000253012
0.0586669,-0.00688812
0.00690866,-0.0272379
-0.0295381,-0.00303212
-0.0475156,-0.0117335
-0.0455322,0.00209082
-0.0391973,-0.00419056
-0.0476554,-0.00981259
-0.056909,0.00198233
-0.068664,-0.00943742
-0.0656535,0.00540664
-0.0573134,0.0470633
-0.0245279,0.025161
0.0376999,0.00603187
0.0768044,0.0199651
0.0677299,-0.017151
0.0524733,-0.00830621
0.0407305,-0.0266498
0.0451011,-0.0538129
0.048275,0.00505501
0.0286801,0.0251479
-0.00466561,0.0348804
-0.0397774,0.0313442
-0.0438402,-0.00822156
-0.0470444,-0.041263
-0.0341865,-0.00337077
-0.00705537,-0.0215259
-0.00822738,-0.0257593
-0.00891635,0.0206962
0.00459965,0.0260729
0.0355304,-0.0377326
0.0726825,-0.000114442
0.0302527,0.0430461
-0.0387239,0.0027922
-0.0265396,-0.0390744
0.0237282,-0.000607133
0.0390709,-0.043435
0.0312452,-0.0246834
0.0195068,0.0400179
0.0592551,0.0569915
0.129931,0.0264736
0.093878,-0.00159121
-0.03318,0.0155603
-0.142135,0.0473308
-0.199667,0.07535
-0.18709,0.00751479
-0.116438,-0.0424839
-0.0374042,-0.0117296
0.00125952,-0.0260318
0.0243835,-0.0510814
0.0423987,-0.062858
0.055312,-0.0219224
0.0566335,0.0266044
0.0501397,0.019953
0.0439692,0.00546495
0.039055,-0.00291047
0.0135328,0.00937363
-0.0156141,-0.00511094
-0.0096528,0.00659092
0.0063045,-0.00863842
0.00619432,0.0332766
-0.0113806,0.00100535
-0.0186398,0.0428007
-0.0154597,0.0389556
-0.0212275,-0.0232132
-0.0104769,-0.0510142
0.0336523,-0.0424875
0.052133,-0.025381
0.0462564,-0.00829434
0.00805249,0.0133719
-0.0483958,0.0209244
-0.0303227,-0.0283808
-0.00417117,-0.0132921
-0.0357787,0.024465
-0.0386369,-0.0197258
-0.0290349,-0.0229118
-0.0245597,0.0408493
-0.00274617,0.0166058
0.0657043,0.00851258
0.108692,-0.00972153
0.0987814,-0.01714
0.051751,0.0233778
0.00760359,0.0530263
-0.0468763,-0.017486
-0.0634796,-0.0341469
-0.0262324,-0.049658
0.000412119,-0.0599735
-0.00355734,0.0680162
-0.0149652,0.00443961
-0.012474,-0.0113865
0.000519774,0.0365486
0.00534658,0.0288469
-0.0117486,0.00529719
-0.0220132,-0.0261621
-0.0216414,-0.0382595
0.00239724,-0.000707322
0.0154964,0.0488374
-0.000842736,0.0715163
0.00126589,0.0144173
0.0286113,-0.0728324
0.0203459,-0.0820362
-0.0272776,-0.089802
-0.0761035,-0.0377501
-0.0970852,0.0231725
-0.063959,0.0300047
-0.0124399,0.0870651
0.00346238,0.0775735
0.02313,0.0815865
0.0578148,0.0293816
0.0589135,0.00976726
0.0635023,-0.0329905
0.0745171,-0.0239749
0.0558715,-0.0659221
0.00547217,-0.0130179
-0.0311595,0.0236727
-0.0257633,-0.0255993
-0.0129312,-0.0776522
0.00745191,0.0367956
0.0290355,0.0804483
0.0202921,0.0319461
0.00764159,0.006207
-0.0307614,-0.0391491
-0.0466383,-0.0447272
0.0340739,0.0140146
0.108623,0.00872275
0.0751114,-0.0477535
-0.0195636,-0.0794433
-0.059212,0.0069986
-0.0607484,0.0501968
-0.0695667,0.024229
-0.0573084,-0.00201705
-0.0438737,0.0376054
-0.0380285,0.0384012
0.000147456,0.00920982
0.0286565,-0.0164907
0.0299261,-0.0319274
0.00195135,-0.00992394
-0.0122074,0.00923134
-0.00316733,-0.0152489
-0.000723537,-0.0184075
-0.000972761,-0.00258025
0.0111712,0.00792403
0.0432129,-0.0135285
0.0329742,-0.0529391
-0.00407732,0.0310524
-0.0256331,0.0745146
-0.0468251,0.0414518
-0.0418786,-0.00635486
-0.0274037,-0.0420124
-0.0241833,-0.00788979
-0.0170935,0.0149276
0.00179792,0.00620229
0.0375039,0.000821585
0.0353857,-0.00932797
0.0112313,-0.0377058
0.0141436,-0.0666006
0.0292099,-0.0544697
0.0657864,0.044386
0.0513687,0.0868092
0.011957,0.0178043
0.0194829,0.0265484
0.0310463,0.027851
-0.00623525,-0.0343612
-0.0518319,-0.0354037
-0.0573937,-0.0134885
-0.0332129,0.0255427
-0.0338229,-0.0241863
-0.0418139,0.0318677
-0.0604963,-0.0174103
-0.0353428,0.0266803
0.0169028,0.0390073
0.0633087,-0.0851903
0.0818038,-0.0445028
0.0561825,-0.0502322
0.0468929,-0.00859084
0.0910694,0.0709322
0.135604,-0.00206147
0.108543,0.0180141
0.00690286,-0.0201353
-0.116445,-0.0889036
-0.199624,0.0259737
-0.17259,0.0396191
-0.0590341,0.0528985
-0.0387777,0.0562753
-0.029625,0.00895785
0.0108203,-0.00361457
0.0766059,0.104324
0.137865,-0.0187741
0.13576,0.0141676
0.0490763,0.0172211
-0.0836474,-0.0117602
-0.162821,-0.0344434
-0.154173,-0.0589877
-0.0583381,0.0073579
0.0204217,0.0138946
0.0590486,-0.0451834
0.0320108,-0.047548
0.0141099,-0.0284512
0.00465656,0.00611536
-0.0150992,-0.0186835
-0.00450558,-0.0210511
0.0221552,0.0255871
0.0554204,0.0657165
0.0712888,0.00644808
0.0539681,-0.066909
-0.0139965,-0.023754
-0.0996407,0.0368839
-0.0820028,0.0461887
0.0278331,-0.00818819
0.0719511,0.0479193
0.0672535,-0.00819582
0.020184,0.0330404
-0.0468048,-0.0244794
-0.083058,-0.0461981
-0.0584033,0.0392779
0.0188207,-0.0367191
0.0837454,0.00125502
0.0932586,0.0292006
0.078232,-0.0202958
0.021547,0.00282847
-0.0361167,-0.00729547
-0.0153979,-0.00464681
0.0230342,0.0311649
0.00146174,-0.0180358
-0.0389856,-0.016447
-0.0661566,-0.0159037
-0.051802,0.0148854
-0.0353094,0.0105902
0.00683389,-0.00741384
0.0445206,-0.0409356
0.0550666,-0.0211074
0.0594389,-0.0119625
0.0224435,-0.0555852
-0.0369972,-0.000543089
-0.10026,0.1033
-0.0881936,0.0507272
-0.0319997,-0.0400137
-0.0545585,0.00444827
-0.0820203,0.0110252
-0.0519249,0.035256
-0.00210847,0.055232
0.014206,-0.0689468
0.0146144,-0.0955243
0.0221945,0.00997889
0.0346847,0.0111838
0.0662581,0.0128848
0.0940888,0.0364029
0.0744828,0.0097077
0.0843574,0.0834021
0.118036,-0.00132743
0.120936,-0.11497
0.059761,-0.135639
-0.00695397,-0.00658945
-0.0861263,0.0808418
-0.116527,0.0770865
-0.119065,0.0602531
-0.109279,0.0370842
-0.0743977,0.0135672
-0.0358806,-0.00870082
0.0255038,-0.00745941
0.0474991,0.0237204
0.0652546,0.0239605
0.0641838,-0.0260858
0.0281986,-0.0575704
-0.0154522,-0.076602
-0.037016,-0.0536079
-0.0657652,-0.0495384
-0.0625344,0.0742939
-0.0297718,0.0659666
-0.00358577,0.0259659
-0.0081391,0.00256703
-0.00745944,-0.0197278
0.0213968,-0.0196323
0.0462401,-0.0346712
0.0406113,-0.036738
0.0303618,0.0303258
-0.00578342,0.0536378
-0.0313349,0.0303189
-0.02776,0.00925157
-0.00841252,0.0173408
-0.00440016,-0.00288356
0.0155427,-0.00507389
0.0235626,-0.0266513
0.0208597,-0.0107694
0.0168753,-0.000782213
0.0169133,-0.00769304
0.0226737,-0.0206959
0.0276289,-0.00820515
0.0188764,0.00795455
0.000990237,-0.00819597
-0.00713263,0.0223796
-0.0186399,-0.0215549
-0.0153479,-0.0144263
-0.0277302,0.0279311
-0.00382846,0.0125477
0.0214779,-6.81e-05
0.00546716,-0.0136621
0.0113184,0.00953813
0.0221794,0.108543
-0.0125146,-0.031313
-0.0235491,-0.104481
-0.0556259,-0.121596
-0.0880191,-0.114157
-0.0629444,0.0147658
-0.0445618,0.100311
-0.0270248,0.00301914
0.0179936,0.00372348
0.0672593,0.0618275
0.076433,0.107548
0.0337893,0.0690162
-0.0121477,-0.068578
-0.0121235,-0.0342476
-0.0123272,0.00356857
-0.010298,0.0758846
0.0257695,-0.0185749
0.0598478,-0.0284213
0.0568584,-0.0418343
0.0459483,0.093135
0.0555844,0.0804529
0.0612667,0.0281219
0.074411,-0.0747814
0.0689261,-0.0480055
0.0954059,0.00172854
0.0907233,-0.0397322
0.0179047,-0.0315797
-0.114371,-0.0377619
-0.200834,0.00497398
-0.186287,0.0510846
-0.147091,0.0576258
-0.102431,-0.0353758
-0.107507,-0.0872271
-0.0937563,-0.0187646
-0.00233479,-0.0363226
0.0773616,0.0143324
0.0710371,0.00235674
0.0677745,0.0155464
0.018735,0.0134728
-0.00956049,0.0571575
-0.00301271,0.034533
0.00419264,-0.012521
-0.00803348,-0.0174826
0.0324269,-0.0177068
0.042355,0.00073691
0.0160626,0.0334522
0.0378057,-0.0028884
0.044989,0.0205531
0.0635322,0.0362226
0.109513,0.0583682
0.0793135,-0.105324
-0.00539328,-0.114831
-0.0149518,0.0313463
0.041074,-0.0108414
0.0736649,-0.0361773
0.033642,-0.0012689
-0.0572814,-0.0394096
-0.143349,-0.00572774
-0.118678,0.0851834
-0.000357955,0.095994
0.0227111,0.115313
-0.0266741,0.00500482
-0.0526162,-0.0460866
-0.0582333,-0.0554111
-0.0021751,-0.0175338
0.0574839,-0.00206921
0.0490113,-0.0716442
-0.073616,-0.0386006
-0.152179,0.0339229
-0.104981,0.0168757
-0.0127334,0.0063687
0.0594408,0.10574
0.00279465,-0.018463
-0.0329856,-0.032388
-0.0430787,-0.0364722
-0.00881439,-0.0255351
0.0182585,-0.036249
0.0235788,-0.0487549
0.0408528,0.0359149
0.0402592,0.0337644
0.0431439,0.0712696
0.0558227,-0.0191813
0.0795354,-0.0321458
0.056854,0.0403785
0.0947891,0.161713
0.104701,0.0103163
0.0327918,-0.0306793
-0.0435773,-0.0491562
-0.041423,0.00518497
0.0393912,-0.0115392
0.076891,-0.0412141
0.0460948,-0.112266
0.00471767,-0.215387
0.0519861,-0.164786
0.0614561,0.0254287
0.0040662,0.100947
-0.100877,0.0452545
-0.246121,0.0690753
-0.308098,0.1019
-0.252165,0.15097
-0.188054,-0.0396497
-0.0789773,-0.0219674
0.0465783,0.0464498
0.174974,0.0559448
0.238868,0.00689204
0.183227,0.000444505
0.102447,-0.0394938
0.0844431,-0.0487888
0.0596501,-0.0145235
0.00887213,0.00163411
-0.0390711,0.0657271
-0.00570043,0.0820974
0.0655492,0.0525003
0.0792762,0.0690546
0.0219922,-0.0128452
-0.107796,-0.161025
-0.218322,-0.093706
-0.127373,0.0508369
0.0343263,0.110839
0.0879713,0.0379989
-0.0281668,-0.0976196
-0.0790608,-0.0755463
-0.0726825,-0.0656293
-0.0346928,0.00165948
-0.0132433,0.0947359
0.029642,0.0358496
0.0969899,-0.0174507
0.129666,-0.00515766
0.0825042,-0.0618669
-0.00880385,-0.221086
-0.037239,-0.16711
0.0384776,-0.179047
0.0964751,0.0296188
0.0931165,0.136219
0.0981583,0.0634356
0.0404159,0.0778354
-0.0435652,0.129336
-0.106172,0.103126
-0.165084,0.0962091
-0.181462,0.0461346
-0.0960724,0.0573341
-0.0571937,0.113137
-0.0523343,0.00850119
-0.0571256,-0.0476805
-0.00936678,-0.0384781
0.0877584,-0.00717088
0.126671,-0.0252267
0.0779364,-0.00496149
0.0420195,-0.0282125
0.0395713,-0.0347958
0.0445071,-0.124815
0.00828551,-0.0925824
-0.00839008,-0.000489865
-0.0240283,0.0148474
-0.0215543,-0.0576319
0.0515283,-0.0826464
0.091062,0.0102537
0.0401597,0.0671582
0.00149894,0.0386349
0.00206463,0.0248643
0.00408061,0.0162477
-0.0394825,0.0102374
-0.12746,0.0202913
-0.180834,-0.0188286
-0.107504,-0.0391029
-0.0101246,0.119573
-0.0334808,0.0103016
-0.0395061,-0.0500008
-0.130013,-0.00394767
-0.145976,0.0639018
-0.00290992,-0.0296087
0.127192,-0.0123544
0.147261,0.0120706
0.11512,0.00551207
0.111382,0.0160695
0.0911317,-0.103874
0.0954341,-0.0898528
0.0796053,-0.00278596
0.107872,0.0119975
0.143547,0.00247891
0.103538,0.00816188
0.0691929,0.105923
0.0393373,0.0904165
-0.106066,0.0618366
-0.163893,0.0289501
-0.0872281,-0.0535789
-0.0533683,-0.0465772
-0.0988027,-0.0707654
-0.111511,0.0556705
-0.16578,0.0168447
-0.111318,-0.0541387
0.0501864,-0.0160666
0.0611572,0.0853089
-0.0558141,-0.0692744
-0.0535984,-0.111406
0.0193838,-0.0158498
0.0212849,-0.0522805
0.0321995,-0.0916836
0.0530032,0.00869775
0.0890717,0.121671
0.0962472,-0.00680664
0.0448585,-0.0158082
-0.0275985,0.0108239
-0.0617617,0.127715
-0.0545701,0.249561
-0.0308733,0.0521077
0.0542251,-0.0169686
0.0406092,-0.0588037
-0.00192199,-0.0568346
-0.015436,0.00228631
-0.0173283,-0.03355
-0.00318722,-0.0824294
-0.0396445,0.0811575
-0.0552826,0.126445
-0.00826543,0.00490305
0.033774,-0.026593
0.0691284,-0.0244864
0.10985,-0.0731492
0.105251,-0.154642
0.0500418,-0.0963109
-0.0381412,-0.0300364
-0.138351,-0.0205789
-0.151598,0.0470702
-0.0522641,-0.0254713
0.0658088,0.06455
0.0702107,0.114435
0.0772687,-0.0329739
0.0351676,-0.0688292
0.0151745,-0.00512299
0.08231,0.0225961
0.0694489,0.021532
-0.0658235,0.0749553
-0.201332,-0.0077282
-0.183603,0.0201523
0.00828513,0.0682303
0.06848,-0.00594916
-0.0266667,-0.215225
0.0148258,-0.18346
0.057326,0.0270593
0.0618431,0.120158
0.081311,-0.0379423
0.0996802,-0.0487033
0.0166116,0.0124966
-0.0816038,0.0550597
-0.100468,0.149879
-0.066974,0.134434
-0.0605897,0.0948414
0.0141841,0.0464766
0.156631,-0.0183618
0.168813,-0.0516403
0.0949477,-0.0207465
0.032453,0.0300973
0.00270019,-0.0482765
-0.144084,-0.0525265
-0.305695,0.0081745
-0.34572,0.0302338
-0.191131,-0.00181021
0.0405112,-0.0715997
0.134288,-0.0586069
0.212615,-0.0159642
0.256636,-0.0160078
0.146543,-0.0164631
0.0225886,-0.0232425
-0.0599235,-0.00344268
-0.0592785,0.0178006
-0.0189215,-0.0152652
-0.0564088,-0.028632
-0.0181684,-0.00922229
0.119794,-0.0103331
0.216164,0.0402736
0.212191,-0.0924683
0.0300047,-0.126767
-0.231484,0.0345089
-0.2381,0.148123
-0.139388,0.0317538
-0.139666,0.0826795
-0.0806826,0.0614431
-0.101114,0.0434853
-0.148559,0.00307486
-0.0141104,-0.0353812
0.217031,-0.0284559
0.327707,-0.00666804
0.28027,0.0249523
0.202466,-0.0473244
-0.00518167,-0.0244812
-0.156706,0.0159998
-0.179278,0.0273065
-0.0924068,0.0725908
-0.00937056,-0.020994
0.0178302,-0.0548412
0.0133652,-0.063673
-0.00905285,-0.0907837
-0.0243612,-0.0219066
-0.016128,0.0428877
-0.0230081,0.00749987
-0.0289542,-0.0184545
-0.0525021,0.0275853
-0.0809027,0.0790258
-0.0587398,0.0504178
-0.0274496,0.013372
-0.0243062,0.00322628
-0.0452273,-0.0701776
-0.0638475,-0.0108647
0.0082915,0.0313556
0.107045,-0.00488139
0.106004,-0.0049908
0.0528951,-0.0144015
0.0253436,-0.0145811
0.02515,0.0384691
0.0485939,-0.0258606
0.0684388,-0.0638094
0.0658636,-0.0631594
0.0461697,0.0248355
0.00668625,0.0483057
-0.0651446,0.0475168
-0.0769992,0.0768215
-0.0236982,0.026463
0.00889015,-0.0157351
-0.00628177,-0.081099
-0.018151,-0.0818038
0.0145513,0.0358272
0.0675795,0.0455329
0.0559737,0.0301629
-0.0192331,0.0202166
-0.0222199,0.0128954
0.0406171,-0.00471423
0.0527239,-0.0252397
0.0202609,-0.0397917
0.0079241,-0.00455966
-0.0133082,0.0738109
-0.102402,0.0702675
-0.12141,-0.0625928
-0.0650024,-0.041297
-0.0036495,-0.0134221
0.0326572,-0.00925413
0.021528,-0.00166486
-0.00929107,0.00758994
-0.023179,0.00809669
0.000746916,0.0104476
0.010633,0.0040158
0.00215737,-0.0162918
-0.01134,-0.0221522
-0.0245373,0.00512323
-0.0114555,-0.0078709
0.0354754,-0.0155239
0.0669028,-0.00181622
0.0689158,0.0188452
0.016376,0.0103198
-0.0440262,-0.0153985
-0.011884,-0.00361481
-0.00856469,-0.0108534
-0.0332704,0.00613701
-0.0143875,0.010078
-0.0206385,0.00333417
-0.0212346,0.0395542
-0.00615384,0.0297237
-0.0346727,-0.0230083
-0.0615322,-0.0197113
-0.00784649,0.0222613
0.0332943,-0.0529335
0.0681343,-0.0210417
0.0926822,0.0033034
0.0670734,0.00984443
0.025406,-0.0157774
-0.00885551,-0.0414689
-0.0502244,-0.00107354
-0.0500374,0.0350043
-0.0259149,0.0285725
-0.00229846,0.0061381
0.0383991,-0.0539494
0.0790339,-0.0136666
0.0877145,0.146273
0.0320138,0.052048
-0.0353986,-0.0600513
-0.0901605,0.0117378
-0.116339,0.0293194
-0.0877388,-0.0093112
-0.0664017,-0.0215039
-0.0297911,-0.0244247
0.0204219,-0.00158766
0.0181972,-0.0107663
0.0284396,-0.0396584
0.0485388,-0.0336552
0.0392018,0.0187492
0.0153467,-0.00456926
-0.00499585,-0.074062
-0.0095357,0.00459963
0.0291929,0.0607166
0.0945967,0.0932176
0.108462,0.0663434
0.0949319,-0.0339953
0.0249647,-0.0274573
-0.0532603,0.0169681
-0.060727,-0.00649687
-0.0898056,-0.0262407
-0.11328,-0.0188696
-0.0642943,0.00169327
-0.000809071,0.00286051
0.0347685,-0.0169523
0.0421649,-0.0423108
0.0453167,-0.0561502
0.0380774,-0.0506757
0.0104378,0.0349478
-0.0312589,0.0504321
-0.0515747,-0.0135859
-0.0675151,-0.0156467
-0.0749153,0.0333684
-0.0328107,0.00764168
0.0386715,-0.035995
0.0951763,-0.0110017
0.0825682,0.0147254
0.0421705,0.00294598
0.0164969,0.0199155
-0.0087923,0.050395
-0.0390156,-0.00677027
-0.0540758,-0.0366561
-0.0376457,0.0103076
-0.0168843,0.00925148
0.0114132,0.0578395
0.052056,0.0689376
0.0634624,0.00353106
0.0221873,-0.0259669
-0.0394687,-0.01721
-0.084481,-0.00996686
-0.120615,-0.0148178
-0.0784881,0.00892382
-0.00504912,0.00792945
0.0558619,-0.0162449
0.0856409,-0.0557877
0.0622966,-0.0350719
0.0143282,0.0116591
0.0105231,0.00558328
0.0542077,0.0236421
0.0538123,0.0177846
0.0334579,-0.00352871
-0.0115678,-0.036541
-0.0554421,-0.0269664
-0.0326502,0.00100972
0.013926,-0.035067
0.0122047,0.00979395
-0.00850103,0.0769298
-0.020402,0.0579067
-0.0169643,0.00108782
-0.012243,-0.0349184
-0.00857566,-0.000793158
-0.00549971,0.0483418
-0.0194099,0.0123036
-0.0180639,-0.00361496
-0.0181867,-0.0206405
0.0110445,-0.0388396
0.068111,-0.0323728
0.0647508,-0.0497665
0.0250563,-0.022114
-0.0134555,0.0143122
-0.0325279,0.0268215
-0.0239965,0.00588452
0.00765894,-0.00986105
0.0260081,-0.01185
0.00279208,0.010257
-0.0268796,0.0174973
-0.0287235,0.0151036
-0.0128565,0.00860563
-0.0263698,-0.00074184
-0.0460068,0.00217396
-0.0342739,-0.00441093
-0.00961755,0.0183732
0.0183732,0.0325882
0.0609867,0.00510515
0.0593949,-0.00660001
0.0135412,0.0172358
-0.0112854,0.0268581
-0.0241195,-0.0172908
-0.0233952,-0.0220062
0.00269495,-0.0177015
0.020429,-0.00186042
0.043058,0.0536989
0.0462275,0.0229242
0.0349665,-0.0270484
0.0454968,-0.014642
0.0170967,-0.0641642
-0.0165515,-0.0567878
-0.0497173,0.0116429
-0.0596797,0.0373369
-0.0343405,0.0541454
-0.0153368,-0.0318235
-0.00606148,-0.0814248
0.00340557,-0.0161632
0.00415322,0.00943011
0.00101436,0.00219104
0.0117237,0.0399232
0.00429291,0.0307061
-0.0413049,0.0395136
-0.100948,0.00678575
-0.122835,-0.0131155
-0.0944522,0.0159512
-0.0387168,-0.0118799
0.0187731,-0.0044687
0.0540783,-0.0102556
0.104603,-0.0368072
0.15772,-0.0156134
0.131443,0.0355828
0.0960275,0.0285874
0.0092726,0.0126765
-0.070289,0.00119024
-0.0436788,-0.00315362
0.0139761,0.00145152
0.0333694,0.00668898
0.0254637,0.0104873
-0.019863,-0.0326617
-0.0583953,-0.0114207
-0.0398951,0.0248619
0.00450296,-0.035351
0.0398891,-0.0493746
0.0181829,-0.0240629
-0.043663,-0.0267203
-0.0794374,-0.00587086
-0.0999302,0.0145685
-0.0808982,0.00768973
-0.00677258,0.0288894
0.0486566,0.0363992
0.0637402,0.0377575
0.0588946,0.000868518
0.0698994,-0.00751524
0.0696935,0.0245076
0.0564646,0.0201295
0.0213138,-0.00877115
-0.018597,-0.0278223
-0.0393554,-0.0165085
-0.0458292,-0.013281
-0.0495127,-0.0276104
-0.0646771,-0.0123632
-0.0549891,-0.0129446
-0.0166019,0.00940502
0.0124232,0.0263418
0.0179771,0.018205
0.0108938,0.0130284
0.00485753,0.00617685
0.00638951,-0.00365562
0.0148745,0.00343534
0.00892379,0.014344
-0.00581825,0.00422823
-0.0125527,0.00439507
-0.00384882,-0.00123851
0.00464471,-0.0200912
-0.000156117,-0.0342039
-0.010521,0.00206547
-0.0416167,0.0311657
-0.0218635,0.0132889
0.00584569,-0.0381917
0.00926243,-0.027491
0.041442,0.00814556
0.0598275,0.0109607
0.0495744,0.000679462
0.038518,0.0170979
0.024455,0.0180722
0.0294258,0.0108412
0.0233878,-0.0142963
0.0167134,-0.034207
-0.0163819,0.0122722
-0.050705,0.0304046
-0.0595043,0.010318
-0.0770142,-0.0113139
-0.0616849,0.00735923
-0.016249,0.0137536
0.0225529,0.000550824
0.0418164,-0.0174421
0.0359308,-0.0321587
0.0109226,-0.00416195
-0.013907,0.00596261
-0.012486,-0.000528497
-0.00830764,-0.00417276
-0.00530401,-0.00199096
0.00201364,0.00403267
0.0125922,0.00787565
0.0179102,0.00859791
0.0310912,0.00238889
0.0452936,-0.000156538
0.0344978,0.00711553
0.00565722,0.0201703
-0.0276538,0.0269393
-0.0481607,0.00311289
-0.0435778,-0.0177436
-0.0217198,-0.035276
-0.00618922,0.000156397
0.00158919,-0.0274142
0.00740781,-0.0610465
0.0143854,-0.0702854
-0.00128208,-0.0373254
-0.0231478,0.0608113
-0.0140894,0.0607339
-0.0101265,0.00199932
-0.00624038,0.0356325
-0.0318936,0.0159813
-0.046127,0.018659
-0.0490879,0.0603251
-0.0266321,0.043325
0.0278341,0.00490129
0.0992391,0.013707
0.107242,0.0221279
0.0714374,0.00643251
0.0472421,-0.0136315
0.00292044,-0.00281841
0.0599724,-0.0497887
0.0993979,-0.0639206
0.0328377,-0.0403139
-0.0602819,-0.0399536
-0.113619,-0.053215
-0.101715,-0.0338836
-0.0687125,0.0130476
-0.041156,-0.0149214
-0.0140294,-0.013699
0.00229013,0.0136697
-0.00349753,0.04784
-0.0177757,0.0666066
-0.0268495,0.0342002
0.00402647,0.0120002
0.03512,0.0137669
0.0265073,0.0055656
0.00533496,0.00300601
-0.00126841,0.0036607
0.00491705,0.00139229
0.0157585,-0.00236996
0.0225999,0.00551997
0.0313515,0.0227477
0.0186657,-0.0152725
0.00335241,-0.0157967
0.00151505,-0.0163514
0.00199877,-0.0580301
0.00142927,-0.0815975
0.00172612,-0.0702383
0.00168156,-0.00555217
-0.02175,0.0735389
-0.0524736,0.0959422
-0.0503441,0.0746651
-0.048895,-0.00634897
-0.0431675,-0.0270232
-0.0238738,-0.0217498
-0.0213669,-0.0110824
-0.0406839,0.0107947
0.0214385,0.0161565
0.125351,0.0203801
0.14463,0.00680456
0.111376,-0.0184119
0.0703958,-0.0251642
0.0138802,-0.0225843
-0.0437697,0.0170498
-0.0793015,0.0138379
-0.0685563,-0.00469918
-0.0178887,0.0473761
0.0245296,0.0162835
0.0209009,-0.0846926
-0.0269488,-0.0982096
-0.0607357,-0.0368585
-0.0481258,0.043728
-0.00902892,0.0656346
0.0207671,0.0487942
0.0155991,0.027511
0.00112825,0.0210194
-0.00239417,0.00471547
1.91e-05,-0.000711946
0.00671795,-0.0159215
0.0179597,-0.0113851
0.0292312,0.00649693
0.0119228,0.0120857
-0.00996241,0.00706918
-0.0176545,-0.00409449
-0.0139699,-0.0109222
-0.000877834,-0.0125238
0.0104748,-0.00840277
0.00165083,-0.0114145
-0.00501551,-0.0148895
-0.00948481,-0.00667089
-0.00639192,0.00261808
0.00398661,0.00967179
0.0149413,0.0194444
0.00492588,0.0460627
-0.0273973,0.0220407
-0.0560099,-0.0420064
-0.0608186,-0.1165
-0.0485939,-0.142048
-0.0323962,-0.0301812
0.0501392,0.00518215
0.0941869,0.0417583
0.0593272,0.0588628
0.0647184,0.0605173
0.046091,0.0655001
0.0168689,0.0180827
0.00522483,-0.0454515
-0.0175191,-0.0530788
-0.0144877,0.0363194
-0.0181027,0.0894478
-0.0188227,0.0346643
0.00141279,0.0276673
0.0232833,0.0161894
0.0398268,0.00140323
0.0367378,0.012743
0.0122773,-0.000815955
-0.0311245,-0.0141951
-0.0840341,0.00512168
-0.0981648,0.0199943
-0.0733265,-0.0120484
-0.0313271,-0.0218839
0.000417266,-0.0173959
0.0212147,-0.0268499
0.0198391,-0.0326293
0.0238098,-0.0248831
0.0251331,-0.0142741
0.0196397,-0.00895608
0.0249447,-0.0114554
0.0479207,-0.0132461
0.0507277,-0.00533405
0.0155807,0.0142212
-0.0353761,0.0292154
-0.0927763,0.02618
-0.094369,0.0102009
-0.0307622,0.0144927
0.044907,0.0051769
0.0896452,-0.0830326
0.0538159,-0.0611903
0.022903,-0.0499072
0.00977563,-0.0201246
-0.0055067,0.0254974
-0.0176768,0.0282704
-0.0200862,0.0546373
0.0251138,0.0787237
0.0500849,-0.0219836
0.0165963,-0.0368968
-0.0456953,0.00520786
-0.0713529,-0.000309233
-0.0316753,-0.0441214
0.00481762,-0.0394407
0.0144139,0.0166306
-0.0364208,0.00252923
-0.0456327,0.0172821
-0.00199563,0.0526353
0.0252423,0.0539355
0.0360322,0.0331121
0.0393333,0.022675
0.0507731,0.0208898
0.0513701,0.0128298
0.0283046,-0.00831955
-0.0135135,-0.0230397
-0.0477284,-0.0436286
-0.0588558,-0.0503582
-0.0267233,-0.00256103
0.00774087,0.0281638
0.0149449,0.0263191
0.00294195,0.0225902
-0.00555536,0.011293
-0.0038264,-0.00138837
0.00356638,-0.0052512
-0.00404648,-0.00483393
-0.00465649,-0.00753127
-0.00933829,-0.0167552
-0.0223859,-0.0192535
-0.0170199,-0.0171187
-0.00135801,-0.0142659
0.0104275,-0.0068015
0.0175124,-0.000739528
0.0173655,-0.00178617
0.0213933,-0.00462824
0.0307821,0.00431495
0.0187467,0.0223601
-0.00251834,0.0264818
-0.0238634,0.0181153
-0.0424513,0.00876927
-0.0416959,0.000296747
-0.0336639,-0.000435196
-0.0504788,0.00194229
-0.082346,-0.0176372
-0.0326302,-0.0702571
0.102173,-0.071089
0.142485,-0.0221656
0.0982915,-0.0839747
0.065566,-0.0808308
0.0108081,0.00507838
-0.022472,0.096091
-0.0128926,0.102097
-0.0524301,0.0764904
-0.064534,0.065737
-0.021249,0.010803
-0.0166735,-0.0825345
-0.00408146,-0.120275
0.00488074,0.00414908
0.0352472,0.0779949
0.0482412,0.095141
-0.0274834,0.0464768
-0.0613574,0.0241946
-0.0492566,0.00664136
-0.0254624,-0.00231788
-0.00248697,-0.0057738
0.0158661,-0.00228503
0.0241384,-0.00650762
0.0270986,-0.012754
0.0237537,-0.0146498
0.0194177,-0.00814344
0.0170738,0.00192564
0.0177629,0.00451452
0.0130174,-0.00170114
0.00652631,-0.0155096
0.00402371,-0.0216189
-0.00111242,-0.0156414
-0.00277038,-0.00839019
-0.0095481,-0.00502622
-0.016832,-0.00445824
-0.0233176,-0.00880234
-0.0227355,-0.0123556
-0.0145469,-0.00861214
-0.00517589,-0.00365859
0.000678799,-0.00371796
0.00244007,-0.00694406
-0.00156391,-0.00223209
0.000392504,0.0112196
0.0172443,0.0211559
0.0282199,0.0212092
0.00833414,0.0104125
-0.0225393,0.00115312
-0.0701032,-0.00362808
-0.0647631,0.000135844
-0.00906803,0.000201414
0.0246383,-0.00120211
0.0497539,-0.00452867
0.0782254,-0.0229452
0.0565488,-0.0524668
0.0142304,-0.0570505
6.85e-05,-0.0598593
-0.0130873,-0.0677527
-0.0320453,-0.0457558
-0.0454229,0.0138345
-0.0202726,0.0879603
0.0166012,0.0956079
0.0206279,0.0915883
0.038186,-0.0119871
0.0678699,-0.0574961
0.0585474,-0.0176862
0.0379803,0.0850125
-0.0122625,0.0630511
-0.0766096,0.0373635
-0.108512,0.0267443
-0.0693761,-0.0138478
-0.0276275,-0.0118327
-0.0125677,0.00135176
0.00659387,0.018419
0.018476,0.0154334
0.0126543,0.00614611
0.00494054,0.00741305
0.00291922,0.00265462
0.0045545,-0.00863766
0.00492034,-0.013007
0.00794238,-0.016782
0.00828142,-0.0224353
0.00516133,-0.0247561
0.00282828,-0.0231274
0.00315177,-0.0150842
-0.00326364,-0.00442591
-0.00855086,-0.00131752
-0.00616476,-0.00707218
-0.000605156,-0.0112581
0.00572953,-0.00708894
0.0117908,-0.00436142
0.0129715,-0.00319052
0.00936565,0.0025451
0.00954953,0.00512439
0.0115743,0.00547551
0.00498643,0.00669374
0.00760636,0.00454421
0.0247847,0.00284247
0.0036536,-3.61e-05
-0.0251044,-0.0119437
-0.0534858,-0.024975
-0.0986487,-0.0271366
-0.136734,0.00180442
-0.0943603,-0.0546301
-0.0126946,-0.103947
0.104431,-0.0459164
0.145005,-0.0454143
0.101657,0.016193
0.0854467,0.0816026
0.0837044,0.124595
0.0424709,0.0817718
-0.00753487,0.0030107
-0.0709325,0.0568977
-0.0914554,0.0605931
-0.004247,-0.0290866
0.0830632,-0.0541234
0.0877871,-0.00242188
0.0344556,0.0186244
-0.0465815,0.00281985
-0.0990996,-0.000403899
-0.0766061,0.00308655
-0.0291713,0.00634302
5.13e-05,0.0198059
0.0029657,0.0184811
0.0024018,0.00333103
0.000444181,-0.00579725
-0.00357084,-0.00709225
-0.00768655,-0.008906
0.000771046,-0.0201093
0.00218653,-0.0292244
0.00480543,-0.0301509
-0.0023088,-0.0234602
-0.0226374,-0.0136551
-0.0251424,-0.0041035
-0.0181963,0.00261132
-0.00431033,0.0126532
0.0233602,0.0203478
0.0277432,0.0169543
-0.0172592,0.0101445
-0.0502982,0.000278067
-0.0301331,-0.00842352
-0.011198,-0.0142103
-0.00692017,-0.00802146
-0.0129831,-0.00219057
-0.0129149,-0.00465951
0.0110744,-0.00636247
0.0379961,-0.00595686
0.0496968,-0.00605742
0.070593,-0.00274149
0.0655611,0.00164617
0.0376357,0.00656968
0.0289618,-0.0195387
0.000432065,-0.0465724
-0.0454033,-0.0410005
-0.0387672,-0.00275296
-0.0067195,0.00658045
0.0125604,0.0135372
0.0287636,0.0488932
0.00725668,0.0141166
-0.0283653,0.0199829
-0.059189,0.0316945
-0.051633,0.0336807
-0.0215235,0.0163553
0.0118439,-0.0281196
0.00718175,-0.0432064
-0.00289689,-0.0046533
0.0632152,-0.00312709
0.119825,-0.00213735
0.0803795,0.0306476
-0.00814061,0.0367923
-0.103463,0.0218868
-0.147154,0.00771058
-0.104276,-0.00207119
-0.0275693,-0.000425954
0.028384,0.0111567
0.0583883,0.00257977
0.0856628,-0.00320523
0.0629155,-0.000661233
-0.0071333,-0.0128112
-0.0504337,-0.00866192
-0.0266544,-0.00760865
0.00704608,-0.0141388
0.0243151,-0.0364503
0.0172631,-0.0661748
0.0283725,-0.10521
0.0194547,-0.0617516
-0.00703701,0.111758
-0.00648875,0.116127
-0.000417935,0.0156273
0.0127649,-0.0615234
0.0106336,-0.0220335
0.000598826,0.0561717
-0.00749023,0.018227
-0.024189,0.0297614
-0.0388956,0.0334781
-0.0653444,-0.0619915
-0.0685372,-0.00752049
-0.0506561,0.0244047
-0.013933,-0.00518194
0.0289804,-0.00991199
0.0600437,0.0106911
0.0616948,0.0312286
0.0640618,0.029668
0.0426002,0.0205908
-0.00141266,0.0116065
-0.0290733,-0.0145136
-0.0169155,-0.0151949
0.00200548,-0.0181337
0.0131786,-0.0228481
0.0175274,-0.0173792
-0.00476233,-0.00620642
-0.0186592,-0.000706643
-0.010288,-0.00296992
0.00477222,-0.00908712
0.00693811,-0.0141977
-0.00884077,-0.00876168
-0.0208564,0.00507091
-0.010676,0.0116951
0.018057,0.016315
0.0233614,0.0131939
-0.00113183,0.00219265
-0.0559397,0.00142832
-0.0953482,0.0038116
-0.0474937,-0.00474668
0.0193858,-0.0091766
0.0344511,-0.0400493
0.024808,-0.0257615
0.0357192,0.00993043
0.0426996,-0.0130591
0.0423968,-0.0318632
0.0422876,-0.0597839
0.0383486,-0.0473192
0.0150382,0.0288805
-0.00945426,0.0538925
-0.0304155,0.0172724
-0.0372346,0.0339453
-0.0304011,0.0180556
-0.000889278,0.0121422
0.0191594,-0.0155316
0.0138001,-0.0573365
0.0109579,-0.0122487
0.0113655,0.0164718
-0.0136759,0.0457821
-0.024419,0.0668994
-0.0155837,0.0549547
-0.0141743,0.0354335
-0.0228352,0.0150816
-0.0308594,-0.00914418
-0.0226978,-0.00595258
-0.00396816,0.00566349
0.0075083,0.0040063
0.00886707,0.00831344
-0.00212486,0.00888852
-0.00917544,-0.00243189
0.00365994,-0.014666
0.0199862,-0.0116164
0.0197501,-0.0114723
0.0137348,-0.0249177
0.0150775,-0.0438362
0.00516103,-0.025653
-0.00842643,0.01387
-0.014293,0.0269529
0.0053659,-0.00124785
0.0637802,-0.052943
0.0779918,-0.0839507
0.025445,-0.0926809
-0.0544344,0.0160527
-0.129839,-0.00050991
-0.11633,0.00228043
-0.019306,0.0478236
0.0643962,0.0440284
0.0782318,0.0451138
0.052116,0.0270108
0.0272593,-0.0556729
0.0200062,0.00106991
0.00902407,0.042767
-0.005523,0.0311069
-0.0286974,0.033122
-0.0311004,0.0246573
-0.0118414,0.000730496
-0.00611511,-0.000472819
0.00216924,0.00733536
0.00187956,-0.00516668
-0.00192126,-0.00814397
-0.00813224,-0.00201989
-0.0199236,0.000621446
-0.0298656,-0.0026037
-0.0124283,-0.00678312
0.0136324,0.00983109
0.0242085,0.0178096
0.0218975,-0.00920783
0.00406347,-0.0281824
-0.00811103,-0.034713
-0.00424727,-0.0298584
0.0087477,-0.019961
0.0112774,-0.00849179
0.00759647,0.00495985
0.00238782,0.00963466
0.00365329,0.0029584
0.00662811,0.0124444
-0.000113402,0.014008
-0.0166537,0.00247686
-0.0256991,0.0143618
-0.0307896,0.0199831
0.00884416,0.00141075
0.049941,-0.042031
0.046363,-0.0921033
0.0219596,-0.0526104
-0.0206144,0.0519244
-0.0748986,0.0700685
-0.0718188,0.0144321
-0.0132713,0.017838
0.0189554,0.0340641
-0.00886987,-0.00164746
-0.0263758,-0.0330603
-0.0120309,-0.0176178
0.00734759,0.00896781
0.0448996,0.00857844
0.0786609,0.00469134
0.0774726,-0.0034782
0.0436287,0.00262584
-0.00650019,0.017496
-0.0634193,0.0322767
-0.0778891,0.0252279
-0.0164303,-0.022072
0.0291271,-0.0227915
0.023766,-0.0206744
0.0599179,-0.0167185
0.0960228,0.0114288
0.0518274,0.0184658
-0.0261307,0.00580957
-0.08799,-0.00396559
-0.0983055,-0.0037318
-0.056122,0.00421614
-0.0150311,0.00984032
0.00527698,0.0087516
0.0131456,0.00295855
0.0176652,-0.0059559
0.0111379,-0.0177186
-0.00423774,-0.0177303
-0.00765456,-0.0149517
-0.0118409,-0.0269964
-0.00771508,-0.0577255
0.0117406,-0.0637815
0.0281595,-0.0349244
0.0358421,0.0516617
0.0458965,0.051056
0.0565139,0.00278067
0.0335429,0.0264799
-0.0233388,-0.0108602
-0.0940342,-0.00858715
-0.122196,-0.0220807
-0.0853651,-0.00895197
-0.0402169,0.014855
-0.00881387,0.027226
0.0145822,0.0695697
0.0346751,0.0445948
0.0598793,0.0690704
0.054515,0.0298396
0.0405416,-0.0661322
0.0244915,-0.0372397
0.00820628,-0.000559809
-0.00273766,0.00439837
-0.0255834,0.0453522
-0.0330315,0.00492822
-0.0062223,-0.0330286
0.0204994,-0.00916552
0.0266367,0.0113634
0.0173848,0.0158643
0.00330202,0.0137324
-0.0110989,0.00310166
-0.00860358,-0.00863661
0.00708581,-0.0134715
0.014615,-0.0167018
0.0074745,-0.0187782
-0.000566378,-0.0139025
-0.0054617,-0.00341966
-0.0117679,0.000921279
-0.00970502,-0.00146068
-0.00493055,-0.00124258
-0.000689188,0.000647847
0.00664325,0.000239392
0.0102963,0.00322186
-0.00289519,0.00813004
-0.00716072,0.00557086
4.18e-05,0.00473708
-0.00142982,-0.0378151
-0.0287007,-0.0169358
-0.0556482,0.0247592
-0.0516017,-0.0612168
-0.0084177,-0.130235
0.0193785,-0.140033
0.0621918,-0.0778327
0.137998,0.0807851
0.136537,0.110668
0.0283352,0.00634835
-0.0567144,0.0330957
-0.0684558,0.105777
-0.0852865,0.0832314
-0.0642122,0.0258363
-0.0312781,0.0182268
-0.00541126,0.0251963
0.0357425,0.0426154
0.0554028,0.0285231
0.0417714,-0.0189064
-0.000955039,-0.0216692
-0.0346014,-0.0146999
-0.0431158,-0.0219244
-0.00911172,-0.0232387
6.14e-05,-0.021225
-0.0141525,-0.00872278
-0.0125818,-0.00202523
-0.00356226,0.00302023
0.00186255,0.00522336
0.00346666,-0.00703235
0.00831584,-0.0160232
0.0128574,-0.0135962
0.0162392,-0.00809336
0.0146418,0.00114574
0.00659406,0.00928421
-0.00163966,0.00462339
-0.000687055,-0.00200722
-0.00121606,0.001023
-0.00129879,0.00461073
-0.00634188,0.00232063
-0.0129327,-0.00464495
-0.0172304,-0.00512564
-0.0157632,-0.000975339
-0.00780658,-0.00261065
-0.00135846,-0.00419347
0.00306967,-0.00877423
0.0112606,-0.0152822
0.0327094,-0.0172129
0.0508515,-0.0107125
0.0551036,-0.0212187
0.0257951,-0.020445
-0.0317311,0.0346286
-0.0772141,0.0696046
-0.108853,-0.00937868
-0.105692,-0.0330405
-0.0808668,-0.0375528
-0.0180417,-0.0553953
0.106024,0.0114595
0.169181,0.0793775
0.0985097,0.0683235
0.00766396,-0.00810774
-0.0294565,-0.0268762
-0.048236,-0.0183455
-0.036475,-0.0351286
0.0215141,-0.00833226
0.0682661,0.00698279
0.0722087,0.0681096
0.0305883,0.0584722
-0.0118339,0.0162241
-0.0384766,-0.00721606
-0.0302101,-0.00778769
-0.0185381,0.00580046
-0.013393,0.00158838
-0.0167274,-0.00642577
-0.0265937,-0.0108082
-0.0308744,-0.00679448
-0.0272692,-0.00285062
-0.017582,0.00042322
-0.0131382,-0.00354678
-0.0111548,-0.0162008
-0.00652322,-0.0240072
0.000314737,-0.0176351
0.0083286,-0.00495235
0.011609,0.00884555
0.0079842,0.014229
0.00486152,0.00461218
0.00606339,-0.0013774
0.00896675,0.00325412
0.00835883,0.00813305
0.00658297,0.00745564
0.0207769,0.00418078
0.0531474,0.00386902
0.0855359,0.000732029
0.088761,-0.0147855
0.0486093,-0.0275284
-0.00420261,-0.0557064
-0.0599491,-0.0797321
-0.0678554,-0.0477653
-0.0759515,0.000637672
-0.0751348,0.0371077
-0.071722,0.0192019
-0.0326974,-0.000217495
0.0159125,-0.0387872
0.0554961,-0.0278747
0.0389449,0.0234429
-0.0143744,0.0698183
-0.0491939,0.0708852
-0.0449694,0.0806137
-0.0191633,0.0511211
0.00597096,0.0428577
-0.00107336,0.0411298
-0.000898927,0.00835155
0.0244577,-0.0125336
0.0419016,-0.0173883
0.023987,-0.0228843
0.0141959,-0.0192825
0.0241718,-0.0137171
0.0379328,-0.00559086
0.0366278,-0.00660904
0.0198387,-0.015047
0.00821783,-0.0193608
0.00467609,-0.019567
-0.00173898,-0.0177773
-0.0105329,-0.019096
-0.0228746,-0.0150291
-0.0344923,-0.0118784
-0.0321636,-0.0127752
-0.0190853,-0.00841392
-0.0080512,-0.00409716
-0.00314509,-0.0054365
-0.00174946,-0.00757067
0.00318797,-0.00567345
0.0127406,0.00263542
0.0157592,0.010595
0.0120367,0.0186902
0.0030437,0.0150612
-0.00222064,0.00299709
-0.00637249,-0.0019632
-0.0043602,-0.00219252
-0.002333,-0.00358036
-0.0102771,-0.00376794
-0.0260873,0.00194014
-0.0328225,0.0076996
-0.0216525,0.00604879
-0.00381778,0.00737999
0.0157515,0.00723731
0.0458288,0.00351623
0.0709974,0.00304723
0.0793503,-0.00186282
0.0604646,-0.0341929
0.0259343,-0.0282873
-0.0182277,0.0211739
-0.0633816,-0.00422077
-0.105618,0.0467786
-0.149799,-0.0310529
-0.0819425,-0.0391344
0.0779016,-0.0274291
0.215058,0.0070761
0.214095,0.0076995
0.077196,-0.0222433
-0.0836749,-0.0216956
-0.188619,0.0508927
-0.192882,0.039523
-0.0945989,0.0116019
-0.00801336,0.0323348
0.0272923,0.039661
0.0523739,0.0283652
0.0478401,0.014451
0.0225814,-0.015538
0.0116123,0.000209131
0.00497319,0.0153076
0.00832016,0.00601968
0.0164694,0.00353231
0.0098272,-0.00722366
-0.00478675,-0.0125138
-0.0125465,-0.0105378
-0.0141316,-0.0100417
-0.0133218,-0.0105811
-0.00604887,-0.0144822
-0.00387472,-0.0177006
0.00169654,-0.0178106
0.0125418,-0.0126024
0.0210128,-0.00614033
0.0183758,0.00375187
-0.00168928,0.00940685
-0.0108727,-0.0043859
-0.00165801,-0.00660615
0.0375368,-0.00617031
0.0577569,0.00273308
0.0231738,0.00435197
0.00738576,0.0103213
-0.0206252,0.0100081
-0.0520727,-0.0150643
-0.0568845,0.000441497
-0.0510607,-0.00704087
-0.0466049,-0.0208116
-0.00776577,-0.00346763
0.0454255,0.0350603
0.0664659,-0.00607242
0.0972351,-0.0337846
0.117724,-0.00293954
0.0512326,-0.0248671
-0.0862255,-0.0179208
-0.145847,0.04115
-0.0990752,0.044455
-0.00207284,0.0182673
0.0141482,0.00397909
-0.00482885,-0.0116569
-0.0147017,-0.0296527
-0.00384709,-0.0220568
0.0175238,-0.01279
0.0100926,0.00442191
-0.00109182,0.0228522
0.0146761,0.0211104
0.0515254,0.0220583
0.0739528,0.0216206
0.0538324,0.0185778
0.00300871,0.00855612
-0.0361726,0.00595084
-0.0332377,-0.00492377
-0.00976581,-0.0200789
0.00623844,-0.0236633
-0.00186086,-0.0133795
-0.0143211,-0.0324752
-0.0271938,-0.0628543
-0.0465873,-0.0371539
-0.0341714,-0.0334574
0.0013791,-0.0104261
0.0233206,0.0272033
0.035462,0.0627419
0.0132886,0.0543799
-0.00631203,0.0413589
-0.040657,0.0511676
-0.0524896,0.0331812
-0.0402046,-0.0377787
-0.0434774,-0.0250746
-0.0627544,-0.0537002
0.000788225,0.0143996
0.0953501,0.0904221
0.098881,0.0334693
0.059743,-0.0243197
0.0350397,-0.0255335
0.0246036,-0.00261957
0.00866277,-0.0104872
-0.0146011,-0.0131794
-0.0302197,-0.0160134
-0.0132631,-0.0196415
0.0172126,-0.0189399
0.0120894,-0.0436441
-0.0208089,-0.0186549
-0.0248852,0.000107701
0.000365497,-0.00879729
0.0199031,0.0205718
0.0139669,0.0451566
0.0205972,-0.000112149
0.0134662,-0.00593797
-0.0128494,0.00238055
-0.0232427,0.0147657
-0.0268299,0.025156
-0.0380665,-0.0132086
-0.0370434,-0.0706519
-0.0248431,-0.0177974
-0.00728587,0.0386523
0.0198847,0.00341983
0.0349214,0.0263426
0.023806,0.0350353
0.00277512,0.00528231
-0.00933405,-0.0229204
-0.00482584,-0.0313515
-0.00299111,-0.00148399
-0.00177944,0.0225839
0.00876033,0.0152016
0.021673,0.00128664
0.0358396,0.0115762
0.040729,0.0220152
0.0636317,0.0079178
0.0711542,0.0293335
0.0290287,0.0480374
-0.0371037,0.0318453
-0.0921817,-0.0566189
-0.0856758,-0.0829739
-0.0353009,-0.0550522
-0.0131291,-0.0142065
-0.0196736,0.013976
-0.00639155,0.0184352
0.0134125,0.00570763
-0.0115566,-0.0154396
-0.0279792,0.00933147
-0.0250088,-0.0211342
-0.0128046,-0.0299871
-0.00480838,-0.00140896
-0.00485348,-0.0897919
0.00271001,-0.0172839
0.0128412,0.0484944
0.028436,0.0515727
0.036904,0.047368
0.0304662,0.021091
0.0178997,0.00801813
0.00786133,-0.00508184
0.00158745,-0.00996525
0.00425119,-0.00888742
8.95e-05,0.0150694
-0.0198127,0.0164099
-0.0228558,0.0100787
-0.00210951,-0.00691365
-0.00359106,0.00215965
-0.00108922,0.0292416
-0.00911771,0.0280379
-0.0208094,0.035573
-0.0325308,-0.00945468
-0.0203573,-0.0241015
0.00376399,-0.0386279
0.0212296,-0.031688
0.0126775,-0.00396475
0.0245095,0.00676395
0.0554554,0.012261
0.0508976,0.00659703
0.0145617,0.0156016
-0.0161724,-0.0202844
-0.0305102,-0.0280562
-0.0307583,-0.0309402
0.0306863,-0.0105201
0.0776248,0.00767632
0.0669291,-0.000393143
0.0284126,0.0206136
-0.0106654,0.0220121
-0.0378286,0.0138558
-0.0585451,0.0054736
-0.0629911,-0.000598555
-0.0392586,-0.00867818
-0.0151062,-0.0142906
-0.0232846,-0.0581048
-0.0254658,-0.030193
-0.0307973,0.0165558
-0.0157664,-0.0183251
0.0329192,0.00985158
0.0566639,0.0148917
0.0371636,0.0106957
0.01507,0.0159015
-0.00443928,0.0301585
-0.0258782,0.0328769
-0.0425744,0.00483487
-0.0227569,-0.00769861
0.0111149,0.0111347
0.0205636,0.00954625
0.0246683,-0.0157746
0.0212325,-0.00171855
-0.0042426,0.0140875
-0.00665333,-0.0482114
0.019444,-0.0353871
0.0281907,0.0484145
0.0190187,0.0174834
0.00467597,-0.00611731
0.000484349,-0.0227363
0.00159194,0.0221944
-0.00800651,0.00902565
-0.0316082,-0.00942267
-0.0467251,0.00854616
-0.0229336,0.0195458
0.00123634,-0.00103549
0.00501864,-0.0024698
0.00544053,-0.00224513
0.00832154,-0.000235951
-0.00081068,-0.0383225
-0.00384002,-0.0107409
-0.00333058,-0.00795419
0.00343663,-0.0302004
0.000786227,0.00489619
-0.00431703,0.0154006
0.000531029,0.00976779
0.00916301,-0.0122187
-0.000646575,-0.0244548
-0.00428239,0.0105732
0.00735261,0.0312825
0.00469093,0.0174458
-0.0234018,0.0184681
-0.0235115,0.000483642
-0.000342387,0.015312
0.0204634,0.033003
0.0264332,-0.0272389
0.0244731,-0.0399422
0.0199331,0.0212649
0.0055282,0.0191256
-0.0142009,-0.0574211
-0.0286473,-0.0183728
-0.024004,0.00774467
-0.00536071,0.0143861
0.0087218,-0.00121346
0.0225557,-0.0142818
0.029526,0.0103828
0.015015,0.0167597
-0.0168773,-0.023165
-0.0411769,-0.0118698
-0.035226,0.0082898
-0.0145507,0.0258239
-0.00715445,0.0137221
0.0183141,-0.0141191
0.0309264,0.0121174
0.0280079,0.0195726
0.0318138,-0.0263454
0.0210989,-0.0266929
-0.00414018,0.000768296
-0.0173144,0.00919733
-0.0185543,0.0074929
-0.000443458,-0.00482801
0.0377609,-0.00450073
0.0256504,0.00346083
-0.0267398,0.0153871
-0.0355828,0.0209426
-0.0179758,0.00209847
-0.0203803,-0.0335651
-0.00913084,-0.00941574
0.0461401,0.00268789
0.0990337,0.0233929
0.0833207,0.0132035
0.0318891,-0.0305569
-0.0527857,0.0307333
-0.100876,0.0402895
-0.0640578,-0.0394116
-0.0413446,-0.0207342
-0.0530382,-0.0148833
-0.0407196,-0.0510565
0.00644034,-0.00706883
0.0368771,0.0277963
0.0390086,0.0260086
0.0343027,0.0222887
0.0102916,0.00518476
-0.00609716,-0.00655022
9.93e-06,0.0299321
0.00971634,-0.0129928
0.0116981,-0.0232057
-0.0149772,0.0316743
-0.0625597,-0.00866495
-0.0626242,-0.0153898
-0.00459034,-0.00555511
0.0605413,-0.0288993
0.0972678,-0.0479575
0.0627731,0.0165218
0.0237359,0.112741
-0.0192483,0.0682775
-0.0393259,-0.0569672
-0.0275235,-0.0266842
-0.0265361,0.00395829
-0.0390436,-0.0158904
-0.0511934,-0.0398461
-0.0639837,-0.0256031
-0.029785,0.000802074
0.025788,-0.029807
0.0732282,-0.0350324
0.0954842,0.0167711
0.0564381,0.0505471
-0.0135252,0.0347852
-0.064353,0.00893468
-0.0549723,0.00256847
-0.027588,-0.00387482
0.00423714,-0.00977627
0.0466837,0.00182074
0.059182,0.0277685
0.0270925,0.0305455
0.0133657,-0.0113659
0.0191968,-0.0598367
0.0159279,-0.0466186
0.00572803,-0.0276087
-0.00960372,0.0328462
-0.0176133,0.0675782
-0.0192073,0.0104252
-0.00367043,-0.0169244
-0.0289047,-0.0353275
-0.0238099,0.00706672
-0.00318266,0.0273304
0.0170421,0.0198222
0.0154124,0.028724
-0.0110499,-0.0243896
-0.0381697,-0.011334
-0.0662848,0.0180257
-0.0716994,-0.00126361
-0.0298271,-0.0178355
0.00560408,-0.0116495
0.0183189,0.0277322
0.0399387,-0.0210387
0.0644056,-0.0249755
0.0930149,-0.0071163
0.09885,-0.00801721
0.0706791,-0.0335251
0.00813735,-0.0143713
-0.0425959,0.0295945
-0.0646802,0.0256407
-0.0643837,-0.00324736
-0.0283899,-0.00833673
0.00149653,0.037527
-0.000671897,0.0179531
-0.0198754,-0.00888359
-0.0452879,0.00166247
-0.0823734,0.0198202
-0.0753765,-0.00517505
-0.0267547,-0.000884047
0.0181607,0.00255696
0.0522858,0.00190466
0.0672957,-0.00657449
0.0591362,-0.00198731
0.0432611,0.00391369
0.0294223,-0.00848884
0.0198729,-0.00995188
0.00390525,0.00178548
-0.0101672,-0.011903
0.00116506,-0.0271012
0.0263858,-0.0251568
0.0310919,-0.00953456
0.0125619,0.0122916
0.00320368,0.0329676
-0.00217712,0.0379874
-0.0145091,-0.00970298
-0.0121562,-0.027627
-0.0137981,-0.0139492
-0.0220596,0.00529843
-0.0243237,0.00781439
-0.0445614,0.0202008
-0.0499305,-0.00994925
-0.0159885,-0.023143
-0.000321021,-0.0028492
0.000385424,0.0162161
0.00444995,0.0120417
0.00995842,-0.00419624
0.00670703,-0.012278
-0.0043719,-0.00517413
-0.0198159,0.0474347
-0.0312837,0.0445247
-0.0188369,-0.0105094
0.0319482,-0.00427197
0.0847302,-0.0129397
0.0842835,-0.0764507
0.0299349,-0.0091008
-0.0193967,0.036551
-0.0316233,0.0232123
-0.0113649,0.0143832
-0.00981696,0.00869546
9.11e-05,-0.0223773
0.0235462,-0.0179993
0.0290768,-0.00369468
0.0219617,-0.00974409
-0.00348219,0.000816408
-0.0445916,-0.033684
-0.0439792,-0.00367249
-0.0212576,0.0564234
-0.0131782,0.0479355
-0.00888213,0.034346
-0.019608,-0.0404467
-0.0072735,-0.0433651
0.0195079,-0.0213578
0.0364649,0.00853983
0.0131629,0.0599668
-0.00163066,0.000292208
0.00384339,-0.046566
0.020632,-0.0354466
-0.00435641,-0.0131467
-0.0357617,0.0276527
-0.038752,0.0339678
-0.0367516,-0.0434638
-0.000257059,0.00399521
0.0378093,0.0158434
0.0368219,-0.0159043
0.0384202,-0.022881
0.0488354,0.0146688
0.021722,0.0198929
-0.00868155,0.000567445
-0.00516843,0.000688881
-0.0240344,0.00724203
-0.0417244,0.016415
-0.040942,0.0106609
-0.0280474,0.0200813
-0.0135767,0.0130877
-0.00173639,-0.0274894
-0.00232653,-0.0256582
-0.00569011,-0.0138099
0.00843068,-0.0269546
0.00813417,-0.00708574
-0.0141156,0.0268286
-0.0115426,0.00922058
0.0160384,0.00460492
0.032752,0.0638214
0.0420742,0.0128363
0.0520295,-0.0258896
0.0177151,-0.0185174
-0.0288774,-0.0232503
-0.0370467,-0.0335467
-0.036859,0.0169601
-0.000139632,0.0172788
0.0326484,-0.0200853
0.0456401,-0.0148811
0.0505246,0.00554413
0.0151251,0.0165131
-0.0249642,0.00982353
-0.0301228,0.00476653
-0.0331114,0.00120598
-0.0456409,-0.000496722
-0.0476271,-0.00844602
-0.0208579,-0.0127249
0.00161653,-0.0287951
0.0132678,-0.00836267
0.0204211,-0.0038804
0.00395636,0.00988375
0.00108239,0.0192441
0.00973725,0.0308596
-0.00216548,0.0171936
-0.00896533,0.00986817
0.00691531,0.0202999
0.0207359,-0.0177507
0.0212638,-0.018602
0.00671854,-0.00620315
0.00972736,-0.0220992
0.0208217,-0.0266364
0.02618,-0.0051798
0.0178554,0.0162668
-0.00356577,-0.0139925
-0.0234107,-0.0232886
-0.0314994,-0.0295479
-0.0291338,-0.0295336
-0.0153417,-0.00109708
0.00962455,0.0647834
0.020643,0.134547
-0.00705602,0.0355568
-0.0224979,-0.00375832
-0.0169096,-0.0180566
0.00435109,-0.00869308
0.0387395,0.0233781
0.0482997,-0.016877
0.0069564,-0.0189073
-0.055884,-0.0120773
-0.0881449,-0.0439912
-0.048517,-0.0465247
-0.0164985,-0.0158881
-0.00438003,0.0225141
0.0263516,0.0174592
0.0707675,0.0280267
0.0768674,0.0224941
0.053929,-0.0132802
0.0232489,-0.04032
-0.00493423,-0.0392223
-0.0110235,-0.0329692
0.00849192,0.0164158
0.00215776,0.0431637
-0.0397354,0.02536
-0.0230075,0.00223943
0.00417425,0.0108017
-0.00736782,0.0040466
-0.0201644,-0.0102019
-0.0337026,0.00858749
-0.0356284,0.0210291
-0.0218535,0.0187266
0.013008,0.000821742
0.0446086,-0.0017683
0.0510766,-0.0226112
0.0254351,-0.0216307
-0.00546102,0.0045585
-0.0295753,-0.0112421
-0.0488672,0.00404872
-0.0345516,-0.0494421
-0.00156382,-0.0675061
0.0265163,0.00418474
0.0154776,0.0269551
0.0144362,0.0381396
0.0698015,0.0409783
0.102596,-0.0111885
0.040661,-0.0119243
-0.087503,-0.0119488
-0.156892,0.00528554
-0.148881,0.0332363
-0.0811995,0.00582244
-0.01191,-0.00336349
0.0421061,0.00215212
0.0789052,0.00604326
0.0967794,-0.0111963
0.0810697,0.00983333
0.0369604,0.00921928
-0.00692069,-0.00482804
-0.0248442,-0.00856945
-0.0193249,-0.011511
-0.0108497,0.00161581
0.0104218,0.02598
0.0281431,5.48e-05
0.0506811,0.00660469
0.0587841,0.0299956
0.0201558,0.0190679
-0.0294679,-0.00721854
-0.0539832,-0.0385405
-0.0274448,-0.0390412
-0.00361795,0.0327759
0.0115498,0.0307371
0.0143426,-0.0416672
-0.0208873,-0.0361242
-0.0479568,-0.0369647
-0.0336769,-0.00660732
-0.0138191,-0.0050522
-0.0035575,0.0150257
0.00959923,0.011663
0.0306963,0.0175219
0.0351774,-0.000436203
0.00428525,-0.00121217
-0.0201242,0.0165697
-0.0327031,0.0177823
-0.0201234,0.00912404
-0.000895708,-0.0206845
0.00248791,-0.0167421
0.00241135,0.0081316
0.0136528,0.0191185
0.0209836,0.0167828
0.00461021,-0.0194717
-0.0297356,-0.00156765
-0.0622361,0.00705646
-0.0611813,-0.00257116
-0.0275897,-0.0187246
-0.0086722,-0.00527044
-0.000412897,0.0998078
0.00978845,0.0544852
0.0133303,-0.0816027
0.0585707,-0.0354724
0.100046,-0.0235175
0.100923,-0.0166262
0.0760541,0.0110057
0.0287372,-0.0250791
-0.00144848,-0.0313267
-0.00407432,-0.0453867
-0.0068771,0.0331296
-0.0262781,0.072052
-0.0481405,0.016815
-0.0665824,-0.00871169
-0.0564212,-0.00900058
-0.0373227,0.0326547
-0.00937697,-0.0230246
0.0108166,-0.0429886
-0.0304645,0.0204415
-0.0341604,0.0315822
0.0147684,-0.0461041
0.0400602,-0.00228485
0.0286119,0.00778205
0.0236544,-0.0380787
0.0365599,-0.0583007
0.0232697,0.0208067
-0.017495,0.0711937
-0.0273165,0.0368785
-0.0035025,0.00599727
0.0440535,0.0210588
0.0618961,0.0209181
0.0204798,0.015844
-0.0507117,-0.0110645
-0.0910725,-0.00852966
-0.0733227,0.0201927
-0.0159155,0.0246468
0.0242987,-0.0166843
0.0495085,-0.0174345
0.0406636,-0.0220944
0.0291935,-0.0197383
0.0505049,0.00763388
0.0375634,0.0047496
0.00527351,0.0238945
-0.0104237,-0.00406723
-0.0588731,-0.0494543
-0.108496,-0.0531986
-0.140788,-0.00186586
-0.103316,-0.00169363
-0.0245646,-0.00785795
0.069546,0.0389872
0.136488,-0.0117285
0.114298,-0.0267048
0.0573142,-0.00759337
0.0099828,-0.00963611
-0.01817,0.0230843
-0.0295123,0.0393491
-0.024626,0.0153222
-0.0110318,0.0078732
0.0062295,-0.00907928
0.0289507,-0.0117016
0.0367605,0.000308262
0.0337128,-0.0100856
0.0298916,0.0565022
0.02079,0.0250873
0.0214268,-0.00506782
0.0204424,0.025622
-0.0130432,0.0130722
-0.0721582,-0.0363937
-0.113899,-0.0484912
-0.127817,-0.0037006
-0.153144,-0.0162501
-0.137045,-0.0112574
-0.0407093,0.0178334
0.0893716,-0.0112571
0.158823,-0.0153799
0.147425,0.0147291
0.0872421,-0.00863199
0.0348673,-0.0101888
0.00447665,0.00759225
-0.0230864,0.0203575
-0.0243642,0.0109577
0.0111979,0.00454157
0.0281176,-0.0205633
0.0168885,-0.0149635
0.00809693,0.014474
0.0135705,0.0214349
0.0336602,0.0222496
0.0300119,0.0235731
-0.00798344,-0.00374755
-0.0129245,0.0238787
0.0285246,0.0492645
0.0599256,-0.00379179
0.0368498,-0.00358323
-0.0324427,-0.0202128
-0.0864003,-0.0553839
-0.0991843,-0.0464386
-0.061672,-0.00480823
-0.0286368,-0.00563943
-0.0108738,0.00709962
0.000321284,-0.0072575
0.00259664,-0.0193303
-0.018763,-0.0116159
-0.0471081,-0.0111227
-0.0455242,-0.0125624
-0.0114552,-0.00182527
0.0147178,0.0150934
0.0144043,0.0130597
0.0113411,0.000122628
0.0152326,0.000796647
0.0225941,0.00515948
0.0302469,0.00102712
0.0314508,-0.00719204
0.0210532,-0.0139938
0.00974228,0.0410209
0.013944,0.0229197
0.0302402,0.0114743
0.0468682,0.0134154
0.0625445,0.0103685
0.0483713,0.0109909
0.00768609,-0.00137128
-0.026925,-0.00857689
-0.0432097,0.00468631
-0.0509915,0.00979804
-0.0672102,-0.00423207
-0.0878172,-0.0141999
-0.101097,-0.0295047
-0.0957662,-0.0443728
-0.0700002,-0.0368761
-0.0362144,-0.00759612
-0.000818802,0.0130357
0.054801,0.0123724
0.120024,0.0120958
0.151929,0.0197635
0.126324,0.0276815
0.0689316,0.0284375
0.034897,0.0187749
0.057122,-0.00024133
0.0695952,-0.00398507
0.0114184,-0.00172742
-0.064623,-0.000843484
-0.0878233,-0.00681329
-0.056846,-0.0150251
-0.0143723,-0.0174816
-0.0197128,-0.0160565
-0.0180905,-0.00596087
-0.00244948,0.0106347
-0.00469414,0.0162358
-0.0101602,-0.00946699
-0.0210429,-0.0146552
-0.0172077,-0.00679442
0.00356311,-0.000316789
0.0121199,-0.00294443
0.00242929,0.00348341
-0.0243593,0.01083
-0.0567136,0.0122455
-0.0812532,0.00956312
-0.0704664,-0.00852838
-0.0247687,-0.000233069
0.0123529,0.00562691
0.0236686,-0.0244051
0.0326962,-0.0193739
0.0437935,0.00289815
0.0454561,0.0122511
0.0339468,0.0244131
0.0136799,0.0306038
0.00453764,0.00991589
0.0277459,-0.0252339
0.0549581,-0.0392016
0.0553259,0.00970518
0.0135975,-0.0195771
-0.0331612,-0.00490882
-0.0671772,0.0079389
-0.0677441,0.0154215
-0.0182843,0.0195308
