Comp Ch 3,Comp Ch 4
-0.059144,-0.001512
-0.00270519,-0.0338351
0.124041,-0.0284349
0.103337,-0.0438633
0.011247,-0.0569881
-0.0370548,0.0249581
-0.0609497,0.0568135
-0.0536171,-0.0228018
0.0271549,-0.0768616
0.127847,-0.0141597
0.152015,0.00842564
0.0771148,-0.119439
-0.0551221,-0.133466
-0.122667,-0.103153
-0.101713,-0.110555
-0.0511734,-0.0376487
-0.0257593,-9.32e-05
-0.0566939,0.00540442
-0.0438741,0.0110265
0.0390937,0.133402
0.0318569,0.200261
-0.0440099,0.122172
-0.0924795,0.0182534
-0.0510156,0.0226763
-0.0425831,0.0273222
-0.0492488,0.048641
0.0149353,0.0554996
0.067416,-0.0479664
0.0248377,0.0410557
-0.0377401,0.0830648
-0.0474769,0.0339338
-0.0823092,-0.039743
-0.0545042,-0.0135554
0.064625,-0.00580917
0.142764,-0.0191764
0.150975,-0.0340631
0.140455,-0.0598863
0.0844227,-0.0610465
-0.00525589,-0.0360839
-0.0637495,-0.0194197
-0.0843124,0.0436488
-0.0729309,0.0237654
-0.0647319,-0.158632
-0.0320915,-0.0652158
0.0101887,0.0868949
0.0120052,-0.0455108
0.011591,-0.0403782
0.00658813,0.0310877
0.0067625,0.0221811
0.018128,-0.0143155
0.0144324,0.0344208
0.00198991,0.0146347
0.0113894,0.00202866
0.0320029,0.00647406
-0.00200601,-0.0220219
0.0123671,-0.0135678
0.0462772,0.0153676
0.0168828,0.0430007
-0.0129657,0.00935999
-0.0456047,-0.00985686
-0.0675129,-0.00743351
-0.0201245,0.0152306
-0.00851659,0.00867549
-0.00547603,-0.00235236
0.0210019,-0.00114563
0.0457833,0.014064
0.0360752,0.0151143
-0.00349097,-0.00493451
-0.00976635,-0.0472075
0.00342779,-0.0514518
0.00833404,0.00422528
-0.0219697,0.00554586
-0.0345849,0.00194463
-0.00465879,0.0106422
0.0465281,0.00962538
0.0515236,0.00198114
0.0191134,-0.00231598
0.0269354,0.0127146
0.0454221,0.0201973
-0.00356309,-0.00697719
-0.0488854,-0.0141743
-0.0987967,0.0472967
-0.128682,0.0684122
-0.07891,0.0174344
-0.0286728,-0.0245319
0.00324833,-0.0355896
0.00902312,-0.0657275
0.0833275,-0.0203484
0.146642,0.0438154
0.0422443,0.0336806
-0.143946,-0.0109249
-0.169484,-0.00546805
-0.0509646,-0.0170114
0.0622859,-0.0258586
0.144698,0.0258913
0.155882,0.0516001
0.123466,0.00801362
0.0845032,-0.0271563
0.0426683,-0.00440669
0.0391603,0.0101341
0.0465789,-0.0382211
0.0523505,-0.0425647
-0.0475317,-0.117603
-0.164922,-0.00648502
-0.192623,0.0755794
-0.0953503,0.0554709
-0.0561553,0.060432
-0.107442,0.0313448
-0.134418,0.00517721
0.00763566,-0.0100713
0.0757596,0.0158645
0.0724333,0.014946
0.0414424,-0.019444
0.0518261,-0.0137458
0.131042,-0.0606792
0.0598069,-0.00413702
-0.108468,0.0973046
-0.134978,-0.0626996
0.0112735,0.0228206
0.0950406,0.0504992
0.0397811,-0.00696485
0.0331952,-0.0161858
0.0716894,-0.0291792
0.0361345,-0.0226319
-0.00468578,0.0113368
-0.0500909,0.0202046
-0.0206178,-0.0014177
0.0128574,-0.0236777
-0.0434959,-0.0484784
-0.114242,-0.00870542
-0.0474186,0.0361009
0.0371934,0.0183861
0.0944918,0.00114571
0.0716497,0.043693
0.0280488,0.026749
0.00716599,-0.0572729
-0.0360391,-0.0663054
0.00146091,-0.0610419
0.00151611,-0.00685707
-0.0256557,0.0407549
-0.0222358,0.0801817
0.0743896,-0.0117432
0.115092,-0.00363359
-0.00352445,0.0263027
-0.0937694,0.0123434
-0.0848408,-0.025014
-0.0435409,-0.0461391
-0.0620347,0.0183638
-0.0992429,0.0206009
-0.0832638,0.0162784
-0.0525425,0.0134843
-0.00192783,-0.00111705
0.0540226,0.00259593
0.0592197,0.00706684
0.0390219,-0.0722946
0.0541919,-0.0752452
0.0598429,0.0152923
0.0228499,0.0745953
-0.0353244,-0.0373674
-0.0362907,-0.00190164
-0.00815193,0.0401381
0.0126129,-0.0171136
0.0366826,-0.0147188
0.0178728,0.0335715
0.0391878,0.0276229
0.0534939,0.0164217
0.00991485,-0.0174973
-0.0246511,-0.0450847
-0.0351253,-0.0466909
-0.0447353,0.00957378
-0.0392479,0.019537
-0.00321622,-0.0170044
0.0223462,-0.0123411
0.0349672,0.0382576
0.0207561,0.0404177
-0.0170635,-0.00728869
-0.0405335,-0.0221443
-0.0225904,0.00282132
0.0074393,0.0195816
0.0286128,0.0166592
0.0375722,-7.33e-05
0.0674321,-0.0202222
0.076319,0.00627261
0.0280343,0.116084
-0.0253061,0.0581604
-0.0293841,-0.0273008
-0.00172882,-0.055232
0.00336718,-0.0615667
-0.0034293,-0.0488615
-0.0105435,-0.0783732
-0.0266034,0.0096872
-0.0147295,0.0598081
-0.0158617,0.0349299
-0.0262605,0.0323057
-0.00512755,-0.0282293
0.0173072,0.0167504
0.0361136,-0.0011132
0.050721,-0.0459767
0.0232737,-0.0149989
-0.0399127,0.00391684
-0.0921607,0.024006
-0.0836736,0.0294916
-0.0164964,-0.0250439
0.0228957,-0.015787
0.0221834,0.0379969
0.0304321,0.0526596
-0.0398611,-0.00996003
-0.12694,-0.0202579
-0.122503,0.0210159
-0.0326172,0.0316803
0.122974,-0.0492361
0.244913,-0.0586526
0.240127,-0.0186046
0.116557,-0.00944548
-0.05223,-0.0256964
-0.126206,-0.00516894
-0.0748471,0.000249256
-0.0315877,-0.0773649
-0.0296399,0.0774656
-0.0593094,0.144563
-0.048759,0.0177147
-0.0169373,-0.0596108
0.0198748,-0.0411148
0.00133405,-0.0317227
-0.048326,0.00753164
-0.0536464,-0.00684555
-0.0294884,0.00543595
-0.0122884,0.0078695
0.0139865,0.0141448
0.040727,-0.0502105
0.0428173,0.0400306
0.0321831,0.0770843
0.0211156,-0.00724949
-0.0155554,-0.0216364
-0.0439528,-0.0634833
0.0116788,-0.0782146
0.0706765,-0.00815821
0.0317638,0.0543839
-0.000734201,0.0513036
-0.00036548,0.0240494
0.0207491,-0.0177099
0.0468416,0.0447174
0.0489585,0.0822715
0.00206222,-0.0740712
-0.0419143,-0.0403669
-0.0344619,-0.024816
0.00350441,-0.0137202
0.000505936,-0.00305416
-0.0161476,-0.0135375
-0.0456615,0.0260082
-0.0641889,0.0146201
-0.0319422,0.0436554
0.00058154,0.0379956
0.000151696,-0.0343058
-0.00873868,-0.0345457
0.00955646,-0.043106
0.0245333,0.00381743
0.0234669,0.0717591
-0.000300519,0.0680462
-0.0304249,0.0232969
-0.0408821,-0.00160163
-0.0220144,-0.0129109
0.00211216,-0.0250158
0.0271257,-0.0244972
0.0289388,-0.0150895
0.0538094,-0.00709746
0.0883272,-0.0109054
0.0773393,-0.0425872
0.0161572,-0.00905084
-0.060479,0.0156596
-0.0680956,-0.0395788
-0.037475,-0.00401525
-0.0386948,0.0795832
-0.0490651,-0.000153917
-0.0458922,-0.0244295
-0.0292434,-0.0838956
0.00903265,-0.0506712
0.041079,-0.0159819
0.0203451,0.0313537
-0.0320403,0.0343487
-0.025042,0.0190646
0.00657671,0.0654547
0.0456374,0.0601902
0.0765171,0.0664513
0.0435112,-0.047874
0.0375112,-0.0889557
0.0329927,-0.0150019
0.019696,0.0133918
0.0124947,0.0207527
0.00232448,0.0185235
-0.0114488,0.0156051
-0.011848,0.000686967
-0.0218605,-0.00459006
-0.0109261,-0.0153416
-0.00306838,-0.0237915
-0.00760091,-0.0279092
-0.0089437,0.0008553
-0.0046142,0.0553072
-0.00666108,-0.0276958
-0.0228086,-0.000872144
-0.0155831,0.0173289
0.0484794,6.47e-05
0.0795121,-0.0237797
0.0418197,-0.0211458
-0.0116344,-0.0213271
-0.0506882,0.024696
-0.0461182,0.058501
-0.0377163,0.0304854
-0.0315547,-0.00412545
-0.0235221,-0.00916334
-0.0298752,-0.00862298
-0.0484721,-0.00334531
-0.0415451,-0.00644868
-0.00182957,-0.0285593
0.0321319,-0.019756
0.0287239,0.0586351
0.0190112,-0.00263055
0.0308178,-0.0495686
0.0290078,-0.042935
0.0261268,-0.0333461
0.0191012,-0.0178627
-0.0069476,-0.00386083
-0.0218301,0.037398
-0.0122075,0.0244314
-0.00924464,0.00545658
0.00627564,-0.00344949
-0.00104637,-0.000494101
-0.00106803,0.0416916
0.0257414,0.0358027
0.00801985,0.00761045
-0.019849,-0.00711664
-0.0209493,-0.00996367
-0.0181867,-0.0161484
-0.00981705,-0.00882486
0.00208511,-0.0200152
0.0124667,-0.000134207
0.0236788,0.0384187
0.0320187,0.0310538
0.0271781,0.0374801
0.00782518,0.0091289
-0.011741,0.0209291
-0.00776869,-0.049065
-0.00587254,-0.0751087
-0.00153875,-0.0957648
0.0056572,-0.0287832
-0.000935083,0.050628
0.00379308,0.0502776
-0.0103587,0.0601602
-0.0340328,0.0385596
-0.0349587,-0.0115381
-0.0431319,-0.0375542
-0.0595745,-0.00202059
-0.0472505,-0.00434785
-0.0208354,-0.00852522
0.0185505,-0.00592552
0.0567955,0.014598
0.0780498,0.0168014
0.0552043,0.00469552
0.0321252,0.000837716
0.0767933,-0.0468045
0.0893435,-0.0124378
0.0231855,-0.0323046
-0.0257319,-0.0195182
-0.0504524,-0.0124261
-0.0282075,-0.00858001
-0.0116136,0.0182246
-0.0150125,0.0406909
-0.0217458,0.0217682
-0.0243815,0.0110265
-0.000750633,-0.00956219
0.0111236,-0.0150486
-0.0120172,0.00268039
-0.0421515,0.0471868
-0.0550323,0.0439113
-0.0356417,0.0100008
-0.0281467,0.0128188
-0.0200381,-0.0330366
-0.00766524,0.0306337
-0.0184603,0.0145229
-0.0330784,-0.0257662
-0.0382829,0.0166989
-0.0209824,-0.0548318
0.0432909,-0.00116226
0.0896285,-0.0263036
0.0831284,-0.0187419
0.0629579,-0.0292949
0.0562419,-0.000522383
0.0464938,0.0129827
0.0268442,0.0101272
-0.0131674,-0.0221156
-0.0264193,0.000318148
-0.0341402,0.0196381
-0.0363814,0.0123289
0.00798611,0.00706884
0.0390265,0.0034055
0.0238238,0.00248373
-0.0188722,-0.00975152
-0.055676,-0.0214829
-0.0539987,-0.0203049
-0.0519725,-0.0188509
-0.0354543,-0.00939308
-0.00923987,0.00409938
0.0513586,-0.0122455
0.0861599,-0.0056148
0.0424061,0.0387924
-0.0557608,-0.00460468
-0.0936146,-0.0069003
-0.0404436,0.0259186
0.0296021,0.0406357
0.0418011,0.00573337
0.0309134,-0.0130888
0.0250927,0.000871741
0.022374,0.00375951
0.0192885,-0.0026711
-0.00262852,0.022766
-0.0350327,0.0399258
-0.0362498,0.0290593
-0.0131251,0.0129947
0.0138284,0.00584101
0.0377157,-0.00124912
0.038049,-0.00798445
0.0169846,-0.0136522
-0.00158274,-0.00872984
-0.00841816,-0.0170144
-0.00561428,-0.0416688
-0.00774899,-0.0443446
-0.00688207,-0.0602985
-0.00044204,-0.0976187
-0.00521437,-0.081056
-0.0253969,-0.0147558
-0.036385,0.081954
-0.0320284,0.135705
-0.0118395,0.0456103
0.0248232,0.0156417
0.0325607,0.00284382
0.00108411,0.0201455
-0.00856609,0.0823226
-0.0111624,0.0568211
0.00129611,-0.0355716
0.0105853,-0.00489763
0.00677833,0.00298527
0.00674019,-0.0437672
0.0112705,-0.0107742
0.0177127,-0.00315389
0.020526,-0.00184273
0.0178613,-0.000289987
-0.0129189,-0.0133649
-0.0302179,-0.0201575
-0.0241515,-0.012263
-0.0228069,-0.0041049
-0.0117222,0.00979073
0.0416506,-0.0273251
0.102581,-0.0252143
0.0639757,-0.0122631
-0.0166295,-0.010686
-0.0733882,0.00606174
-0.0684977,0.00585314
-0.027774,0.0152427
0.00552777,0.0215208
0.000401367,0.00538028
-0.00770276,-0.0135022
-0.00313065,-0.01512
-0.000629088,0.00896397
-0.00819129,0.0102795
-0.0191291,0.00141781
-0.0131464,-0.0114804
-0.0112834,-0.0436415
-0.0113431,-0.0119897
-0.00832283,0.0390189
0.00790469,0.0111225
0.0360286,-0.00475323
0.0329253,0.00381204
0.00582287,0.0176303
-0.00068072,-0.00621169
0.00671317,-0.00357983
0.00629213,0.000840752
-0.00642611,0.00676969
-0.0265677,0.0226904
-0.00861978,0.013936
0.0349556,-0.0152127
0.0412611,-0.0550585
0.0159338,0.0106194
0.00253089,0.0113876
0.000974379,-0.00486652
-0.0138494,0.0248658
0.00352633,-0.00109166
0.0189298,-0.0161628
0.0266595,0.0305973
0.0155704,0.103104
-0.0204865,-0.0410242
-0.0338194,-0.085511
-0.0284469,-0.0410425
-0.0187848,0.00620097
0.00573501,0.00844992
-0.00315693,-0.00204115
-0.00492214,0.0220155
0.00325499,0.0321292
-0.0239731,0.0446773
-0.0256958,0.0462882
0.00161105,-0.0276225
0.0290926,-0.0130917
0.0631196,0.00715661
0.0617865,-0.00284583
0.0124895,-0.06505
-0.0171585,-0.0957274
-0.0489443,0.0242667
-0.0663173,0.058918
-0.0446039,0.0206708
-0.0160351,0.0305125
-0.0035683,-0.0174775
0.00530973,-0.0246933
0.0106081,-0.0234374
0.0146825,0.0133228
-0.00589113,0.0252971
-0.028984,-0.0675204
-0.0251189,-0.0141818
-0.00555423,0.0532008
0.025808,0.0533205
0.0533308,0.00314804
0.0459863,-0.0288668
0.0285457,-0.0208666
0.0122101,-0.0196097
-0.0110147,-0.0207141
-0.0343556,0.0333851
-0.0640545,0.0326384
-0.0601358,-0.0255869
-0.0199946,0.0197183
0.0414582,0.0139196
0.091067,-0.0329095
0.0897354,-0.0416814
0.0581576,-0.0287359
0.040776,-0.0278055
0.0533368,0.0317497
-0.0115423,0.0591308
-0.0815123,0.0315924
-0.072573,0.0106721
-0.00342877,0.0143606
-0.0108101,-0.00642527
-0.0429633,-0.0466544
-0.0371958,-0.0429749
-0.0369361,-0.0538934
-0.0299804,-0.0252019
-0.0230534,-0.00144056
-0.0263903,-0.0391447
-0.0237172,-0.0156401
-0.0250181,0.0263211
-0.0135143,0.051161
0.0279149,0.0655657
0.0776435,0.0856924
0.0766867,0.0911564
0.0727351,0.0402221
0.0452398,0.00325947
0.0173653,0.0121522
-0.0039813,-0.0167423
-0.0079202,-0.0950368
0.0196554,-0.0651878
0.0128824,0.0417016
-0.022461,0.05636
-0.0516376,0.000556257
-0.0474906,-0.0243571
-0.0475687,-0.0066259
-0.0331772,-0.0552257
-0.0061652,-0.0309319
-0.0191732,-0.0279946
-0.0274271,0.00357392
-0.020495,0.0346378
0.0309527,0.00695322
0.117216,-0.0182472
0.148992,-0.0335836
0.0572967,-0.0219843
-0.0352994,0.000542464
-0.0839282,-0.0333899
-0.0949123,-0.018217
-0.0557928,0.0312295
-0.0466858,-0.0241604
-0.0401459,0.113009
-0.0292403,0.0939792
-0.0145837,-0.0228304
0.0199328,-0.036049
0.0516994,-0.019658
0.0846267,-0.0230473
0.0698351,0.00838151
0.0187546,0.049523
-0.0194633,0.0151961
0.00399744,-0.0613418
0.0324517,-0.0499094
0.0302797,0.0338423
-0.0180645,-0.0461113
-0.0322059,0.00290506
-0.0178743,0.0318178
-0.0162886,0.0210649
-0.0140934,0.0147885
-0.00268678,0.0221738
0.0206282,0.0137325
0.0221553,-0.00645144
0.0117338,-0.049859
7.9e-05,-0.0254968
-0.019048,-0.0295005
-0.0334728,-0.0793277
-0.0435149,-0.0216134
-0.0544611,0.0946122
-0.0245322,0.00986738
-0.0194754,-0.0250219
-0.0189484,-0.0232954
-0.00593422,-0.000330929
0.0391306,0.0336066
0.10985,0.0642934
0.124419,0.0684221
0.0969929,0.0448645
-0.0120542,-0.0114058
-0.0506888,-0.0136064
-0.0279301,-0.00930293
-0.0386528,-0.0133872
-0.0388956,0.00156707
-0.00459935,-0.00687783
0.0155916,0.0022423
-0.00718846,-0.0249666
-0.0677056,-0.0776967
-0.0927506,-0.0158719
-0.0668099,0.0587436
-0.0139831,-0.00199067
0.0433217,-0.0573356
0.0760769,0.00125058
0.0601614,-0.026116
0.0054301,-0.0569472
-0.0103146,0.0583619
0.0421634,0.0963197
0.0478136,-0.0206185
0.00732332,-0.0256009
-0.00737766,-0.00582837
-0.0161628,0.0214826
-0.0207631,0.0347592
0.011833,0.0552692
0.021062,0.00475364
0.00980454,0.00276304
-0.0150614,0.0281788
-0.0384518,-0.00628684
-0.0358239,-0.0139655
-0.0415009,0.0111267
-0.0748638,-0.0118184
-0.0718153,-0.08897
-0.0411718,0.00738409
0.00036031,0.0230179
0.0502999,-0.0279185
0.0507475,-0.018356
0.0216159,-0.0590846
0.0147775,0.00299703
0.0313835,-0.00320084
0.0277351,-0.0325465
-0.00505193,-0.0146293
-0.00433373,0.0575082
0.0469799,0.0650441
0.0911492,0.0328964
0.0959621,-0.00537427
0.0494098,-0.113276
-0.0318064,-0.0415344
-0.0671352,0.0248412
0.0189438,0.0618707
0.116685,0.0693338
0.089816,-0.024379
0.0101092,0.00710708
-0.0678021,0.0704445
-0.140372,0.00569282
-0.116525,-0.05611
-0.0550883,0.0554162
-0.0299169,0.06247
-0.0315041,-0.0588234
-0.0206722,0.0574608
-0.00837012,0.0130069
-0.00236336,-0.11488
-0.0312564,-0.10264
-0.0233085,0.00919178
0.00501022,0.0807643
0.00347965,0.00215991
0.0193011,-0.0840095
0.0339786,-0.0606985
0.0414182,-0.0225194
0.0449871,0.0733907
0.0307602,0.0627457
0.00444241,0.0439363
-0.0180179,-0.0325946
-0.0305241,-0.0848462
-0.0194141,-0.0800709
0.0167077,-0.0437507
0.0471681,-0.0268374
0.0718127,0.0237652
0.0471691,0.0974927
-0.0231496,0.0808573
-0.0742814,0.0319259
-0.0444824,0.0640516
-0.0156974,0.0363233
-0.0243927,0.00250058
-0.0135899,-0.0214377
0.0256376,-0.0176051
0.0387275,0.00605469
0.0119934,-0.0124021
0.0117727,-0.00349975
0.0512588,0.0129122
0.0257367,-0.0208442
-0.0220132,0.00108209
-0.026914,0.00280171
-0.0268372,0.0695262
-0.076819,0.0131109
-0.096475,-0.0962647
-0.0500775,-0.0925806
0.00160623,-0.0466956
0.0155638,0.0166996
0.0274132,0.0312962
0.0794622,0.0222453
0.137438,0.0603776
0.131998,-0.00722042
0.0595567,-0.0113671
-0.0631068,-0.0149096
-0.126834,-0.0581673
-0.136168,-0.0427315
-0.127907,0.0468337
-0.0709706,0.0246415
0.0265718,-0.0408463
0.0705863,0.0256815
0.054932,0.0153859
0.0435116,-0.00287829
0.0461351,-0.0146422
0.0564111,-0.0379862
0.0760362,0.0200318
0.089737,0.146216
0.0568407,0.00486008
-0.0611221,-0.0799506
-0.100978,-0.0380486
-0.0388194,-0.0569207
0.0648114,-0.0440629
0.114583,-0.0526696
0.0659184,-0.0189903
-0.0281913,0.0670658
-0.0590912,0.0876432
-0.0523994,0.0386922
-0.0706745,0.0103377
-0.14922,-0.00218138
-0.226669,-0.000706248
-0.260502,0.0115885
-0.133183,0.00652037
0.0173751,0.0118689
0.149494,0.0363617
0.109983,0.0272611
0.0849397,0.0278485
0.130828,0.0330028
0.21723,-0.0305187
0.159543,-0.0420779
0.0430292,-0.0117846
0.012348,-0.0587471
-0.00328469,0.0272821
-0.0219105,0.0543755
-0.0218249,-0.0300715
0.063155,-0.0210936
0.1743,-0.00413067
0.16463,0.0590877
-0.0179669,0.00845842
-0.237166,-0.0344367
-0.257341,-0.0112024
-0.13764,-0.0110505
-0.0635323,-0.0346278
-0.0687188,-0.0871794
-0.136295,-0.118465
-0.152528,-0.00896879
-0.0210161,0.0736678
0.0924332,0.0546068
0.113548,0.0174593
0.152782,0.0337692
0.117809,-0.0222934
0.000799109,-0.000402346
-0.115642,-0.00220069
-0.104568,-0.0431884
0.0581857,-0.00970082
0.190875,0.0811729
0.123644,0.0763615
0.0538866,0.0205264
0.0727348,0.0912188
0.138461,-0.0533796
0.107345,-0.0774919
-0.029672,-0.058924
-0.172311,-0.0651213
-0.195615,-0.0897579
-0.189568,-0.0454456
-0.101125,0.0535678
0.0241394,0.0350414
0.131702,0.0660387
0.187881,0.113416
0.0960156,-0.0183069
-0.0127682,0.031816
-0.112996,0.0572868
-0.186136,0.0205126
-0.148796,-0.0210546
-0.0532379,-0.0614862
0.0116029,-0.0703487
0.0456805,-0.0749647
0.0686269,-0.0917607
0.166359,-0.069136
0.139414,0.0167112
-0.00769922,0.0264003
-0.13515,0.0411731
-0.193105,0.15919
-0.117141,0.225159
0.0408982,0.140991
0.0766714,-0.0950063
0.104762,-0.115191
0.132604,-0.0985927
0.108501,-0.0698246
0.0239496,-0.0140623
-0.0806303,0.0368095
-0.157727,-0.00217586
-0.110732,-0.0394214
-0.0496892,0.0135913
0.0172969,0.0691015
0.0653817,0.00616615
0.0769515,-0.0336549
0.0692994,-0.0419488
0.0751651,-0.0331396
0.0669395,-0.0400416
-0.000881664,0.0883793
-0.123916,0.0389486
-0.248387,-0.0489156
-0.173501,-0.0424054
-0.0229322,0.0650613
0.0195877,0.0698417
0.03814,-0.0460418
0.059122,-0.0271956
0.0396803,0.100767
0.0250031,0.0217005
0.0668072,-0.0858506
0.158374,-0.117975
0.178137,-0.0256301
0.130195,0.0422335
0.0666402,-0.0143625
0.0116685,0.0389977
-0.0762807,-0.0412924
-0.0985092,-0.0663922
-0.0515996,0.0498223
-0.011192,0.119718
0.0362766,-0.00924422
0.072133,0.015276
0.0953192,0.0128184
-0.02147,-0.0617871
-0.131207,0.028589
-0.1875,0.0609549
-0.189887,0.0784719
-0.114063,0.0765615
-0.110149,-0.0931146
-0.145572,-0.0248026
-0.133166,-0.123641
0.00755356,-0.0420272
0.153011,0.119386
0.128995,-0.00416561
0.0900035,-0.159459
0.128179,-0.115969
0.155457,-5.02e-05
0.196057,0.0846871
0.16442,0.014917
0.0856685,0.0222479
0.0396388,0.0344397
0.0276417,0.0127882
-0.0294719,0.00603892
-0.0968024,0.0392267
-0.196617,0.0518674
-0.247838,0.0401999
-0.194442,-0.0362431
-0.0869052,-0.0579933
-0.0233335,0.0212175
0.0297333,0.0474344
0.097867,0.00111459
0.17851,-0.0443595
0.174245,0.0346991
0.142422,0.0347418
0.108704,0.0120611
0.00296355,0.0513167
-0.115735,-0.00912149
-0.132541,-0.131834
-0.0735744,-0.0224386
-0.0741826,-0.0230667
-0.0846481,-0.0695766
-0.06238,-0.0932451
-0.0549563,-0.0180042
0.0484083,0.0956255
0.126799,0.0767497
0.087045,0.0951839
0.0691653,0.0373018
0.0354504,-0.00896942
-0.043467,-0.0682941
-0.0350939,-0.0130542
0.0228934,-0.0143428
-0.0774294,-0.010648
-0.170601,-0.0130514
-0.169307,0.00862482
-0.0849232,0.0827653
-0.0191089,0.0094164
0.0123024,-0.052124
0.0742593,-0.0144121
0.128213,0.0853216
0.194423,-0.0152524
0.171493,-0.0967337
0.05404,-0.145637
0.0301,-0.120473
0.0544131,0.130606
0.0176421,0.109427
-0.0323285,0.160724
-0.0428222,-0.00605715
-0.0505925,-0.125811
-0.0424147,-0.0391945
-0.0236528,-0.0175431
-0.00661829,-0.0611114
0.00390734,-0.0350405
-0.0308319,0.114567
-0.0808002,0.0833279
-0.116895,-0.0462896
-0.150308,-0.125457
-0.15097,-0.138292
-0.122219,0.0564961
-0.0107751,0.152815
0.131672,0.168717
0.22387,0.0811406
0.14214,0.119231
-0.0566753,0.020919
-0.11499,-0.0636999
-0.00984036,-0.0808968
0.144633,-0.0496248
0.164255,0.11903
0.144869,-0.00265464
0.0965476,-0.0185463
0.0271699,0.0171323
-0.0221869,0.00248026
0.0469903,-0.0248028
0.123948,-0.0815861
0.0997609,-0.0245763
0.00105198,-0.0633911
-0.122945,-0.0910009
-0.116403,-0.088582
-0.11084,-0.0528305
-0.155599,-0.0453541
-0.176164,-0.0576108
-0.187821,0.0222769
-0.177234,0.017323
-0.137239,0.0754216
-0.121197,0.0447053
-0.0728272,0.063191
0.0235266,0.0757382
0.181342,0.0388229
0.294739,-0.0111756
0.380936,0.0602476
0.395463,0.0648638
0.20498,0.0245334
-0.0770995,-0.00194449
-0.203623,-0.0191921
-0.15086,-0.00431724
-0.0480285,-0.00996687
0.0827632,-0.0649846
0.10607,-0.0810635
0.054396,-0.142261
-0.0797765,-0.0922732
-0.301048,-0.0379905
-0.33172,0.000201547
-0.130768,0.0935313
0.00247701,0.109392
0.0721262,0.0880149
0.0846986,0.00982375
0.0592902,0.0324445
0.0312884,-0.0181092
0.0276599,0.00441387
0.0362313,0.0307653
0.0106258,0.0112078
-0.0345146,-0.00241886
0.00245957,0.0520425
0.0607752,0.0153249
0.0732439,-0.0980022
0.0715921,-0.0297419
0.0239707,0.0111768
-0.0247022,-0.0946097
-0.0565453,-0.0838867
-0.0764389,0.0210997
-0.0626377,0.0196593
-0.0362163,0.0817776
-0.0496914,0.0383617
-0.0383263,-0.0479186
-0.0201093,-0.0222131
0.0058757,-0.0222323
-0.0101011,0.0381459
-0.0152727,-0.0975309
0.0588259,-0.0817247
0.0989974,-0.0011723
0.0874469,0.0204561
0.0309254,0.0112494
0.0158574,0.122631
0.0715769,0.0204593
0.121143,-0.0272866
0.0646698,0.128494
0.0289027,0.126525
0.0681841,-0.00803073
0.0945223,-0.0589993
-0.120367,-0.0043296
-0.346203,-0.0077722
-0.249034,0.0357426
-0.0950886,0.103833
-0.0186387,-0.0461445
-0.00473761,-0.0661288
-0.120668,0.0113705
-0.167632,0.0575406
0.056324,-0.104739
0.27757,-0.103063
0.256308,-0.0560183
0.0950362,0.0630185
0.0382848,0.0626374
0.0654006,-0.0117582
0.0279351,0.0129868
-0.0758895,-0.0128635
-0.0755034,-0.055702
-0.000737465,-0.0909901
-0.0335138,-0.0439889
-0.100519,-0.0353276
0.0110903,-0.076797
0.192563,0.0132476
0.23223,0.0451383
0.137359,0.0389581
0.0542291,0.0758735
-0.0228668,0.141909
-0.0649171,0.0428527
-0.0486132,-0.0934255
0.0119548,-0.118609
-0.0256316,-0.0151098
-0.241492,-0.0161554
-0.409964,0.146306
-0.350706,0.170148
-0.110943,-0.146769
0.188619,-0.075842
0.365707,-0.0435214
0.431031,0.10727
0.324952,0.0939459
0.105595,0.0569946
-0.0866274,-0.0155267
-0.127691,-0.0132197
-0.188575,0.028762
-0.176528,0.0505746
-0.151377,-0.110153
-0.102648,-0.152021
-0.0893288,-0.0752434
-0.0240959,0.0318654
0.051632,0.0540287
-0.00216733,-0.0267975
-0.0677182,0.0132523
-0.0704485,0.0495677
-0.0398934,0.0464308
0.0678709,0.0753999
0.135751,0.0974192
0.0646159,0.0448866
0.0283759,-0.0820066
0.0309589,-0.11888
0.0417693,-0.161507
0.00358886,-0.137451
-0.00285305,-0.0243032
-0.00815202,-0.0739114
-0.0544205,0.0164807
-0.0117212,0.202769
0.00299417,0.109408
-0.0210289,0.0503699
-0.026089,-0.0283657
0.0451802,0.0169464
0.0849225,0.0614667
0.0331796,0.0530876
0.0473226,0.0193332
0.0434292,-0.0171754
-0.00801594,-0.0572744
0.0689217,0.0321894
0.100107,0.00370128
-0.00190683,-0.101165
-0.100188,0.0640497
-0.0704058,0.0901401
-0.0660169,-0.0379465
-0.118414,-0.00141826
-0.198488,-0.160581
-0.203437,-0.247792
0.0104294,-0.162026
0.197604,-0.102241
0.103626,-0.0503702
-0.0460876,-0.0563429
-0.0196681,0.0346862
0.0544289,-0.0314602
0.0984162,-0.118284
0.231217,0.247706
0.148132,0.158657
0.0311123,0.124437
0.02536,0.236393
-0.0532141,0.304764
-0.125263,0.281101
-0.164853,0.0989538
-0.111595,-0.0156484
0.156039,-0.128618
0.293751,-0.207659
0.250853,-0.252968
0.106652,0.0309687
-0.13834,0.0745245
-0.297235,-0.0841414
-0.224411,-0.150381
-0.0776247,-0.0434556
-0.0526098,0.0113455
-0.0642703,0.0623349
-0.0814411,0.0361722
-0.119516,-0.00528687
-0.0744289,0.0771309
0.0682765,0.0504764
0.13277,0.023843
0.0737483,-0.0181482
0.0915231,-0.0282954
0.11069,-0.0135269
-0.025052,-0.0183757
-0.120238,-0.139326
-0.114005,-0.00584055
-0.0165931,0.116832
0.0164213,-0.0123403
-0.0308342,0.113906
-0.0282253,-0.0150109
0.0741407,-0.104789
0.159522,-0.0159992
0.202945,0.00296439
0.133588,0.0626703
0.00100883,-0.0547893
-0.159677,-0.0858954
-0.220903,-0.103922
-0.0961836,0.055538
0.082963,0.0595639
0.177782,-0.0487101
0.0797615,-0.00285224
-0.00836013,0.00854997
0.0309587,-0.0347808
0.133801,-0.142194
0.260518,-0.0285066
0.170158,0.0622494
0.0352038,-0.047637
-0.15427,-0.0933649
-0.339641,0.00337416
-0.306369,0.156031
-0.192426,0.125105
-0.183326,-0.025234
-0.149586,-0.000706411
0.0324945,0.0865343
0.18907,0.0343121
0.182233,0.0253734
0.0219124,0.0169416
-0.102958,0.0289419
-0.0674671,0.107257
0.097032,0.092159
0.162567,-0.0575542
0.0618942,-0.0614901
-0.0638209,-0.0190209
-0.153543,-0.0319077
-0.116553,-0.0443055
0.0411731,-0.0557729
0.122174,-0.0955066
0.0824005,-0.0807051
0.051781,-0.00347048
0.0979193,0.071514
0.0683448,-0.0844075
0.0169153,-0.162587
0.0204984,0.0251168
0.00853205,0.0945804
-0.00630642,0.0569909
-0.00355944,0.0295679
-0.049225,0.0598045
-0.120197,0.0460848
-0.123817,-0.00135404
-0.0898673,0.0551302
-0.0534479,0.0158075
-0.0314946,0.00430614
-0.0294751,0.0462545
0.00290999,-0.0161261
0.0728367,-0.034607
0.10725,-0.0282356
0.0570306,0.000388086
0.0454148,-0.0188731
0.0780175,0.00702901
0.112402,0.0573659
0.0893909,0.0396001
0.0320231,-0.0219248
-0.0820274,0.04535
-0.195291,-0.160233
-0.190841,-0.079023
-0.110936,0.115958
-0.0402739,-0.0314976
0.0747536,-0.0680652
0.109556,0.0603546
0.04744,0.00991207
0.0260221,-0.0327542
0.0525906,0.0124248
0.0970182,-0.00271359
0.0965186,0.0128535
0.0451797,0.000597436
-0.0352828,-0.00276874
-0.0670038,0.00690085
-0.0798603,-0.00525259
-0.0447175,0.00367219
0.0196496,0.0573777
0.0225011,0.0610972
-0.0100929,0.0555812
-0.0366847,0.0112622
0.000161102,-0.0101558
0.0335736,-0.0165801
0.00735189,-0.060169
-0.0244879,0.00499522
-0.0881762,-0.0074586
-0.149282,-0.12687
-0.104362,-0.0891252
-0.0328489,0.0382338
0.028654,0.0804742
0.0680453,0.0066622
0.148539,-0.0412148
0.155293,-0.0177448
0.0823147,0.0328632
0.0603092,-0.00288435
0.0873553,0.0227963
0.0911063,0.0384713
0.0467731,0.0265373
-0.0619666,0.0104268
-0.102649,-0.0277455
-0.0592057,-0.0411469
-0.0169202,-0.034091
-0.0326881,0.0198898
-0.027301,0.022851
-0.0154862,0.0125995
0.00159869,-0.0012773
0.00328937,-0.0118183
0.0059493,-0.00291243
-0.00557206,0.0238045
-0.0248196,-0.0222214
-0.0427611,-0.063988
-0.0625677,-0.0336526
-0.0855572,0.0622254
-0.087214,0.131148
-0.069551,0.0298876
-0.0393767,-0.146822
-0.0268038,0.0477302
-0.0456363,0.0176375
-0.0123388,-0.0196067
-0.0069774,-0.00870934
0.0187806,-0.0610341
0.0869922,-0.0218197
0.153876,0.0287335
0.206639,0.0219103
0.179266,0.00801883
0.119582,0.0169277
0.064022,0.00607991
-0.0295648,0.0391343
-0.133607,0.0620415
-0.188331,-0.0265735
-0.138554,-0.0581968
-0.0857629,-0.0691661
-0.0464744,0.0619118
-0.0162411,0.0230753
0.0262175,-0.0463483
0.0797215,-0.0692726
0.0709473,-0.0464314
0.0474277,-0.0455986
0.0537915,-0.000668767
0.0795928,0.0442118
0.0828339,0.0791487
0.0381763,0.083751
-0.0375675,0.0555119
-0.085306,0.0229808
-0.0932623,0.00852496
-0.091457,0.00273744
-0.0604958,-0.00373685
-0.0106832,-0.0223732
0.0644627,-0.0479551
0.0856044,-0.0408103
0.0492455,-0.0180958
-0.0338279,-0.0423509
-0.126548,-0.0651893
-0.100767,-0.0853954
0.0192928,0.0955599
0.0671386,0.104437
0.0675476,-0.0322668
0.0345572,-0.0527441
-0.00781834,-0.0114573
-0.0267037,0.049592
-0.0299993,0.0356652
-0.0128646,0.068921
-0.0251956,-0.0120773
-0.0536179,-0.031609
-0.0439232,-0.0325371
0.0069482,0.0360906
0.0260396,0.0309099
0.00304563,-0.000282151
0.00834345,0.0131991
0.0727573,-0.00822477
0.108972,0.00677862
0.0804522,0.0220093
0.0302064,0.0265227
-0.0278857,-0.0201808
-0.0704746,-0.0144177
-0.0538183,-0.0127194
-0.0182756,-0.0266662
-0.00525524,-0.0295409
0.00355853,-0.0238373
0.0138673,-0.0217187
0.0397008,-0.0335102
0.058347,-0.0255624
0.0351369,0.0107703
-0.000473548,-0.0328633
-0.0224878,-0.00855879
-0.0307921,0.0179672
-0.016372,0.0263482
-0.0336205,0.0181044
-0.0188895,-0.00454957
0.0129491,0.0342581
0.0364636,0.0163589
0.0852742,0.038309
0.0901072,0.0379187
0.0421371,-0.0217367
-0.0164163,-0.0458697
-0.0598273,-0.00595824
-0.109152,0.023715
-0.0978284,0.000437636
-0.0504886,-0.0145691
0.00155132,-0.0554284
0.0149104,-0.0568606
-0.0216535,0.0512964
-0.0502678,-0.00022039
0.0109921,-0.0212628
0.0442221,0.0828815
0.0434948,0.0587356
0.0338163,0.0457792
-0.00637715,0.00145332
-0.0118496,0.0146161
0.00155779,-0.0421459
-0.0222997,-0.0807486
-0.0429052,-0.0578282
-0.0671154,-0.0558057
-0.117297,-0.000699609
-0.0835987,0.0542052
-0.0111706,0.0561888
0.046582,0.0734221
0.0731129,0.0322185
0.0950961,0.0100672
0.103282,0.0134905
0.0875574,0.00850028
0.0365898,0.00252985
-0.0124908,-0.0152051
-0.0197647,-0.0223144
0.0168363,-0.0214139
0.0447255,-0.026442
0.00836986,-0.0130785
-0.0272503,0.00615004
-0.0174559,0.0080845
-0.00709874,0.00948038
-0.0151281,0.0107396
-0.0196324,-0.0124194
-0.0148852,-0.019962
-0.021443,-0.0298428
-0.026186,-0.0596788
-0.0261258,-0.0507973
-0.0103009,-0.0458693
0.0130203,-0.0103194
0.0189882,0.0534153
0.014613,0.0326555
0.0212639,0.018243
0.0221848,0.004451
0.030887,-0.0185201
0.039023,0.0418911
0.0352016,-0.0809807
-0.00965993,-0.0686233
-0.0844769,0.0483906
-0.0305193,0.0486312
0.0553566,0.0790416
0.00898524,0.0589442
-0.0165201,0.0389787
-0.066826,0.024938
-0.141044,-0.0631629
-0.103122,-0.0383119
-0.00720667,0.0118765
0.0547799,0.00381621
0.0595738,0.0108282
0.0639773,-0.000853552
0.0940797,-0.050039
0.0692886,-0.00973679
0.00229291,0.0085027
-0.0381687,0.00827359
-0.0485708,0.0383152
-0.00538028,0.0314173
0.0127756,0.0213715
0.00123395,0.0031216
-0.00369999,-0.0154251
0.0116077,-0.0158886
0.0280577,-0.0100354
0.0231719,-0.0110878
0.0063835,-0.0148276
-0.0151468,-0.0250758
-0.00993653,-0.033488
0.00118903,-0.0170864
-0.00829183,0.0303154
-0.0166411,0.0260399
-0.0193132,-0.00445187
-0.0124772,0.00019128
-0.00598933,0.0117061
0.00140187,0.0215535
0.000489084,0.0209238
-0.00949727,0.00699612
-0.0135498,-0.00651651
-0.00804229,-0.00830405
0.00369718,-0.012532
0.0127369,-0.0294108
0.00829094,-0.022511
-0.00035539,0.0105314
-0.0146457,-0.0166395
-0.0132739,-0.0315672
-0.00496637,-0.057011
0.0062622,-0.119938
-0.00780866,-0.0710863
-0.0196083,0.00174577
-0.00141647,0.137289
-0.0207756,0.191441
-0.0188108,0.0642806
0.0278452,-0.0483897
0.0169613,-0.018565
-0.0668201,-0.0266205
-0.103992,-0.0547324
0.0363467,-0.0151266
0.212635,0.00365375
0.193708,-0.0322939
0.0992049,-0.103017
-0.00699859,-0.0269726
-0.0704329,0.0756746
-0.0772897,0.106329
-0.0514364,0.100402
-0.0251625,0.0996699
-0.0130701,0.0482646
-0.00522994,-0.0137625
0.00297971,-0.0206002
-0.0044067,-0.00508774
-0.017944,0.00667803
-0.0234771,0.00785684
-0.0165364,-0.0174155
-0.0200549,-0.0413466
-0.0408897,-0.0292761
-0.0373826,-0.0122914
-0.0205805,-0.0134465
0.00145984,-0.00980835
0.0103716,-0.00720009
0.0094736,-0.00483256
0.009225,-0.000354578
0.00680855,-0.00845158
0.00385126,-0.0193041
0.0106642,-0.0223831
0.0188577,-0.0205156
0.0191514,-0.00772269
0.00679287,0.00707956
-0.00277286,0.00554538
0.00182359,-0.00153414
0.0146233,-0.00606522
0.0199596,-0.00744035
0.00913783,-0.00302308
-0.00889327,0.00406675
-0.0176232,0.0103704
-0.0135098,0.00871473
-0.00193247,0.00265988
0.00109425,0.00452704
-0.00576351,0.00519321
-0.0122552,0.000197735
-0.0061889,-0.00389479
0.00666497,-0.000836921
0.0299856,0.00556084
0.0513837,0.0192542
0.0628782,0.0237883
0.0264836,0.00736003
-0.0188754,-0.00330916
-0.0488196,-0.0016015
-0.0826995,0.00152581
-0.173119,0.00563849
-0.252018,0.000179984
-0.169246,-0.0348058
0.0904716,-0.0746504
0.307387,-0.0690123
0.28177,0.0146125
0.181092,0.0289818
0.127797,-0.0292308
0.0812171,-0.0358963
0.0112107,-0.0551098
-0.0410938,0.0283749
-0.0878622,0.02653
-0.0976928,-0.0454842
-0.0791414,0.00739695
-0.0384763,0.0619779
0.000516897,0.0924332
-0.0173961,0.0788124
-0.0289664,0.0467335
-0.0408817,0.0227439
-0.0531658,0.0256165
-0.0490274,0.0135545
-0.049819,-0.000406402
-0.042973,-0.0126106
-0.0341894,-0.0157877
-0.0283861,-0.0184583
-0.0180897,-0.0223709
-0.00164038,-0.00661309
0.0191991,0.00608741
0.0378294,0.0045327
0.0471197,-0.00208974
0.0448997,-0.0117382
0.0409212,-0.0184643
0.0356793,-0.0246817
0.0316765,-0.0221087
0.022558,-0.00999969
0.0102325,0.00413346
-0.00419246,0.00926618
-0.0134067,0.00154136
-0.0169286,-0.00234154
-0.0170441,-0.0027858
-0.0137953,-0.00191287
-0.0115355,-0.00309319
-0.00804528,-0.005754
-0.00117853,-0.00826189
0.0041786,-0.00242487
0.011945,0.00205853
0.0225306,-0.00288534
0.0264702,-0.00429853
0.0242425,-0.00716408
0.0237588,-0.0104316
0.0207538,-0.00725624
0.010938,0.00457015
-0.00866535,0.0177808
-0.0256294,0.0148331
-0.0425917,0.0088483
-0.0576976,0.00435369
-0.0467464,0.00661673
-0.0372238,0.0124035
-0.0582821,0.0212684
-0.0830544,0.0129236
-0.0830129,-0.0255567
-0.0284607,-0.0706389
0.0566086,-0.0731581
0.141267,0.0054824
0.18269,0.0437466
0.212236,0.0257218
0.201875,-0.0790056
0.0789383,-0.107901
-0.0401486,-0.0136057
-0.138745,0.0221005
-0.124106,0.0572657
-0.0441859,0.0196977
-0.0127051,0.0557365
-0.0456005,0.102574
-0.0782633,0.0841803
-0.0606739,0.0200928
-0.0181174,9.4e-05
-0.00904709,0.0111984
-0.0114621,0.0238839
-0.0111127,0.0107634
-0.000667647,-0.0119844
0.00789928,-0.01958
0.00950298,-0.0200959
0.00477138,-0.0167886
0.00839179,-0.0101416
0.0133598,-0.00742061
0.00996693,-0.0120189
0.00503244,-0.0187751
-0.000327593,-0.0137523
0.000226918,-0.0111456
0.00390512,-0.0156037
0.00492359,-0.0176879
0.00258232,-0.0192185
-0.0027802,-0.0129879
-0.0070229,0.00258273
-0.008122,0.00938183
-0.00160075,0.00162575
0.000994332,-0.0055455
-0.00377371,-0.00226779
-0.00444719,0.00133933
-0.00163281,0.00546385
0.00177364,0.00771225
0.00317733,0.0109211
-0.000576936,0.00665705
-0.00435258,0.00530361
-0.00269337,0.00769883
0.00347668,0.00517177
0.0104707,-0.000511163
0.00837158,-0.00290579
0.00113882,0.00150908
-0.00505327,0.00823273
-0.0084041,0.0181241
-0.00687128,0.0123435
-0.000982851,-0.00782089
0.0032494,-0.027729
-0.0022352,-0.0301431
-0.0222181,-0.0145462
-0.0233225,-0.0297193
0.00094176,-0.0528596
-0.00558305,-0.0739589
-0.00227659,-0.0388048
0.0359589,-0.00706485
0.0492189,-0.0130191
-0.0136226,0.00730171
-0.0372137,0.0323647
0.0224249,0.00414836
0.144572,0.112102
0.190372,0.0746954
0.0744968,0.0518471
-0.053102,0.0450736
-0.0838135,0.00693018
-0.041226,0.0188301
-0.0330347,0.0200639
-0.0348305,0.000541526
-0.0424813,0.0106889
-0.060607,0.0197278
-0.0814138,0.0168796
-0.0494325,0.00434178
-0.0105309,-0.000897352
0.00734818,-0.00798146
0.0296681,-0.0202881
0.0293665,-0.0284625
0.00609197,-0.0326887
-0.0121136,-0.032251
-0.0178594,-0.0219985
-0.00971145,-0.0159148
0.00519782,-0.0189495
0.00675527,-0.0227103
0.00342552,-0.0189957
0.00325794,-0.0135812
0.0177993,-0.00512705
0.0301878,0.00587298
0.0279361,0.0157018
0.014887,0.0148142
-0.00832731,0.00738786
-0.0147006,0.00461316
-0.00476361,0.00192212
-0.00278385,-0.00225413
-0.00391956,-0.00085013
0.0045877,-0.0183892
-0.00549726,-0.0524281
-0.0153255,-0.0365447
0.0166833,0.0142556
0.0530436,0.0153718
0.0464517,-0.0127903
0.0257965,-0.0264631
-0.00952829,-0.00700144
-0.0504619,0.0787749
-0.0623151,0.0146723
-0.0739556,-0.0388101
-0.0988187,-0.0259026
-0.0859087,0.108023
-0.0419159,0.0672883
-0.0213118,-0.0510927
0.0665739,-0.073497
0.155009,0.00714996
0.163799,0.0119843
0.124695,0.0194944
0.06455,0.0293396
-0.00237307,0.0122469
-0.0616831,-0.0345322
-0.0700599,-0.0649
-0.0373252,0.00464161
-0.0260028,0.018982
-0.00483122,0.0260053
0.00994289,0.0384768
0.00769616,0.0401132
-0.00227836,0.0247066
-0.0132693,0.0153941
-0.00973866,0.0088369
-0.0058651,0.0012156
-0.0175782,-0.00322371
-0.0369853,-0.00954778
-0.0513677,-0.0195913
-0.0512666,-0.00913377
-0.0363072,0.00121441
-0.00952081,-0.00189151
0.0129377,-0.00736756
0.0271664,-0.0111898
0.0516727,-0.0165158
0.092922,-0.0132599
0.132754,-0.00330073
0.121417,-0.00545613
0.0794837,-0.0207122
0.00541499,-0.0386669
-0.0337808,-0.0185666
-0.0327284,0.0276832
-0.00472496,0.0318792
0.000974999,0.026567
-0.057855,-0.0150958
-0.105578,-0.0651312
-0.144004,-0.0531741
-0.148312,0.0148866
-0.116703,0.0154365
-0.0445898,3.24e-06
0.00997871,0.00802565
0.0256885,0.00424266
-0.0153531,0.0133586
-0.0213742,0.0621791
0.0223426,0.0576712
0.0339686,-0.0280659
0.011837,-0.0364701
0.0586204,0.0111652
0.113508,0.0514732
0.151762,0.00615409
0.13037,-0.0129118
0.0366581,-0.00913654
-0.0409103,-0.00450075
-0.071182,0.000395307
-0.0514271,0.00444162
-0.0102699,0.00643298
0.0152976,0.0081088
0.0117741,-0.00143968
0.0075351,-0.00995308
0.00828265,-0.0144846
-0.00243356,-0.00722253
-0.0222535,0.00231541
-0.0413928,0.000458016
-0.0476047,-0.00754697
-0.0445233,-0.0183443
-0.0228868,-0.0217939
-0.00676895,-0.013662
0.00756413,-0.00124524
0.0108097,0.00248803
0.000655314,0.00523993
0.0116696,0.00703389
0.0214835,0.00207706
-0.00987678,0.00237054
-0.0192445,0.00895636
-0.00535053,0.0078288
0.00661009,0.000343289
0.0343331,0.00136872
0.0483821,0.012612
0.0662022,0.0235194
0.0954423,0.0215329
0.0596479,0.0131141
0.0205886,0.00488254
-0.026758,-0.00450702
-0.0289561,-0.0320421
0.0105729,-0.0710616
0.0589516,-0.0978998
0.0386689,-0.0376553
-0.0659647,0.023095
-0.132633,0.0357389
-0.150911,-0.0754613
-0.141288,-0.089786
-0.0916346,-0.0150599
0.010204,0.00957703
0.0618366,-6.05e-05
0.0326768,0.0805586
0.003662,0.135756
0.00591849,0.110957
0.0340532,0.0614186
0.037787,0.0416622
0.0186879,0.0131247
0.0142623,-0.0166115
0.00117306,-0.00141012
-0.00284439,-0.0069962
0.00885958,0.0292243
0.0199219,0.0338624
0.0253542,0.0077287
0.0290292,-0.000974512
0.0273436,-0.0134616
0.0221851,-0.0337573
0.0186309,-0.0346134
0.00673013,-0.0262976
-0.0122623,-0.0169007
-0.027165,-0.0176012
-0.0341666,-0.0229088
-0.0281816,-0.0337454
-0.0215159,-0.0374946
-0.0181973,-0.0244734
-0.016027,-0.00583604
-0.0106461,0.0023032
-0.00381839,0.00946809
0.00944634,0.00792126
0.0213131,0.0025463
0.0218865,0.00480658
0.0179647,0.00854979
0.0173436,0.00132192
0.0182212,-0.0104332
0.0179971,-0.0114896
0.0078343,0.00140374
-0.00862998,0.00840549
-0.0173727,0.00407023
-0.0174716,-0.00416635
-0.0118305,-0.0136914
-0.00976076,-0.0126445
-0.010794,-0.00194965
-0.0139904,0.00737527
-0.0122487,0.0128522
-0.00581215,0.0168496
0.00389946,0.012185
0.013035,0.00735249
0.0129778,0.0097843
0.00934691,0.00994291
0.00965052,0.00121298
0.0130134,-0.00408801
0.0124901,0.000982802
0.0131268,0.0182192
0.0181135,0.0217908
0.0196421,0.014269
0.00121365,-0.000792567
-0.00690597,-0.0192519
0.00280929,-0.0267652
0.0620304,-0.0351576
0.0798776,-0.0309807
0.0116469,-0.0113957
-0.0494929,0.0252469
-0.0698951,0.000869506
-0.0972623,-0.0570273
-0.0862601,-0.0813788
-0.0479683,0.0254691
-0.0500752,-0.0154589
-0.0130349,-0.0642097
0.0426798,0.0138038
0.0527615,0.0549074
0.0482294,0.0140999
0.0287085,0.0170009
0.00708657,0.114178
-0.000690582,0.081887
-0.00275589,0.0130119
-0.00713516,0.0197231
-0.00935032,0.0402291
-0.00300933,0.0259759
-0.00469948,0.00934757
0.00484592,-0.000274398
0.0123054,-0.00117362
0.013175,-0.000500626
0.00731975,-0.0142188
0.00711678,-0.0278099
0.00549588,-0.0292133
-0.000356768,-0.0202499
-0.0132659,-0.0121512
-0.0228562,-0.0156404
-0.0239388,-0.0247941
-0.0225477,-0.0292002
-0.0177605,-0.0248182
-0.0168552,-0.0105864
-0.0166852,3.33e-07
-0.00334541,-0.00546429
0.00604191,-0.0110023
0.0126192,-0.00873232
0.016832,0.028952
0.0195742,0.104641
0.0369088,0.0798534
0.0929992,-0.0311927
0.121082,-0.0989165
0.07207,-0.0481204
-0.0141262,-0.0648683
-0.0898601,-0.154412
-0.0839086,-0.0668945
0.0352501,0.0116086
0.147766,0.00807131
0.0841623,0.0289932
-0.00460431,0.0985288
-0.0697176,0.0869843
-0.137797,0.0250068
-0.166144,0.0277103
-0.128267,0.0521899
-0.0777729,0.0689759
0.0200231,0.0254456
0.0664151,-0.0344575
0.0563812,-0.0283056
0.0378361,-0.00637322
0.0160968,0.0444996
-0.00619755,0.0460808
-0.0219069,0.00749709
-0.0105856,0.00220365
-0.00649762,-0.0128733
-0.00286442,-0.0292736
0.00260012,-0.0359232
0.00634733,-0.029973
0.0115807,-0.0155737
0.0141707,-0.00568092
0.0196524,-0.00383873
0.0246875,-0.0219328
0.0253537,-0.0373678
0.0175721,-0.0307848
0.00925904,0.0140053
0.00381354,0.0541258
-0.00163736,-0.00146417
-0.00505196,-0.040298
-0.0163657,-0.0530724
-0.0183148,-0.0149753
-0.0121221,0.0298395
-0.00374156,-0.00968927
0.00185803,-0.0319733
-0.0112526,-0.0103785
-0.0417411,0.0257628
-0.0471131,0.0815328
-0.027224,0.0669225
0.0181989,0.0456103
0.0510427,-0.00938224
0.0490891,-0.00806786
0.0432707,-0.00204692
0.0627667,-0.00844308
0.0646431,-0.000330416
0.0607681,-0.0354749
0.0470811,-0.01524
0.00332099,-0.00964107
-0.0691548,-0.0542624
-0.10931,-0.000661782
-0.103052,0.0303053
-0.0775516,-0.0283457
0.00371755,-0.0182958
0.0675161,-0.0187286
0.055885,0.00984143
0.0124359,0.074775
0.00742011,0.0403596
0.0304787,0.00842135
0.0283752,0.0105407
0.0282745,0.00347652
0.0220958,-0.0113477
-0.0140663,-0.0329487
-0.044009,-0.0316442
-0.0466834,0.00133569
-0.0277609,0.0175149
-0.0243271,0.00211952
-0.0407203,-0.00342642
-0.0461614,-0.0203612
-0.0526468,-0.0262607
-0.0364235,-0.00186628
-0.0151356,0.0190193
0.00449489,0.0530552
0.0232456,0.0293768
0.0623614,0.00949324
0.0784799,0.00965715
0.0577708,0.00205009
0.0370348,0.00765597
-0.00949392,-0.0471328
-0.0292147,-0.142404
-0.0159545,-0.100465
-0.030142,-0.0216522
-0.0392641,0.0425669
-0.0191486,0.0221034
0.024792,0.0654187
0.0381442,0.0673503
0.0265558,0.0325785
0.0472752,0.0174588
0.0986794,0.00217849
0.0899531,0.0250106
-0.00174892,0.00983423
-0.0862206,0.00246871
-0.103965,-0.00791863
-0.083983,-0.00297548
-0.0490914,0.00664108
-0.0317756,0.0213488
-0.0060223,0.0366128
0.0205223,0.0332988
0.0266047,0.00830225
0.0163836,-0.0158541
0.0103928,-0.031672
0.0142641,-0.0388722
0.0176383,-0.0336656
0.0125849,-0.0233364
0.00499288,0.000225343
-0.00335895,-0.00872637
-0.00312541,-0.0211287
0.00104334,-0.0118176
0.00169427,0.000191654
0.00639383,-0.00816877
0.0137769,-0.0311373
0.0254953,-0.0198747
0.0234023,0.0295318
0.00476196,0.0552804
-0.0319961,0.0436146
-0.0873193,0.00656385
-0.0899732,-0.0190778
-0.0425676,-0.0792302
0.0145616,-0.0971309
0.043282,-0.00138011
0.0492018,0.0131958
0.0861433,-0.00724215
0.148525,0.0293345
0.151289,0.0825289
0.0640381,0.0482277
-0.0755708,0.020111
-0.188423,-0.0375748
-0.18341,-0.0188642
-0.0701417,0.028477
0.0432695,0.0369942
0.0726542,0.0176605
0.0329638,0.0566371
-0.0386755,0.0404276
-0.0926566,-0.00995816
-0.0558559,-0.0322134
0.0226343,-0.0422047
0.0626192,-0.0445641
0.0574708,-0.0353417
0.0301987,-0.0476728
0.00346253,0.00668651
-0.0126866,0.0184693
-0.00821018,-0.00421972
-0.00150819,-0.00997828
3.56e-05,-0.0119747
-0.010902,-0.0100931
-0.0505661,0.0297866
-0.0633987,0.0131501
-0.0161754,0.0221863
0.0310461,0.0584282
0.0515426,0.0324335
0.0587006,0.000742424
0.0536285,-0.012477
0.0292662,-0.0179505
-0.010342,-0.0136768
-0.0240566,-0.00874849
-0.029627,-0.00999674
-0.0221298,-0.0180926
-0.00409182,-0.0263607
0.020764,-0.0100278
0.03505,-0.0190545
0.0165431,-0.0640551
0.0130206,-0.0449424
0.0181822,-0.00100885
-0.0108443,0.047018
-0.0135525,0.0930154
0.0100081,0.126244
-0.00682988,0.075063
-0.0362857,-0.0880085
0.0109149,-0.0782638
0.0567589,-0.0058109
0.0689072,-0.0834615
0.0351178,-0.145713
-0.00747448,-0.035339
-0.00936523,0.0533343
-0.0161314,0.0319481
-0.027185,0.0473819
-0.0631069,0.0655814
-0.107499,0.0465674
-0.0643971,0.0429442
0.000362569,0.039902
0.0381171,0.0273825
0.0501958,0.0107776
0.0251811,0.0123603
-0.0120195,0.00430765
-0.047465,-0.0176031
-0.0602713,-0.0204803
-0.0394576,-0.0200374
-0.0172114,-0.0153943
-0.00802688,-0.010154
-0.00530501,-0.00228902
-0.00501655,-0.0077358
0.00411443,-0.0132768
0.00975698,-0.0108462
0.0381102,-0.00757268
0.0697999,-0.00427104
0.0579868,-0.000180847
0.031268,0.0086325
0.0442194,0.0102683
0.0674765,0.00962842
0.0403511,0.00719429
-0.0295655,-0.0231761
-0.0592414,-0.0594936
-0.049011,0.0190886
-0.0146687,0.0616655
0.0297046,-0.00163784
0.037644,-0.00738301
0.0248773,-0.00568975
0.00716499,-0.0220501
-0.0173261,-0.0551991
-0.0471587,-0.0755112
-0.0571609,-0.0774359
-0.0692316,0.0466037
-0.0389281,0.0508994
0.0196405,0.0491704
0.0128194,0.0340652
0.0010042,-0.00293378
0.00369792,0.0140069
0.00481453,-0.00177835
0.00366681,-0.0211072
-0.00412847,0.00393848
-0.0127291,0.00486785
0.0165677,-0.0101609
0.0330757,0.00415664
0.00384642,0.0339626
-0.010255,0.0407869
-0.0012126,0.0276744
0.0110682,0.0188701
0.0219693,-0.00163959
0.0515767,-0.0190271
0.0692262,-0.00487972
0.0360922,0.0264931
-0.0405689,0.0119427
-0.103075,-0.0293481
-0.0976404,-0.00783179
-0.0537764,-0.0126549
-0.0431082,-0.0376895
-0.0356948,-0.0260494
-0.00316851,0.00864277
0.0367255,0.0563866
0.0965242,-0.0142971
0.155493,-0.0599119
0.146332,-0.0287581
0.100522,-0.00222881
0.0538196,-0.0401128
-0.0273573,-0.0614406
-0.109193,-0.0486544
-0.139935,0.0280931
-0.12359,0.107014
-0.027816,0.0949436
0.0429466,0.00117754
0.0823515,-0.0301348
0.0731375,0.0712193
0.010146,0.055756
-0.0285055,-0.0581337
-0.0380726,-0.0105489
-0.0783394,0.00469725
-0.102178,8.64e-05
-0.0686754,0.0147083
-0.0141672,0.00725819
0.0077408,-0.0662529
0.0204551,-0.0357323
0.0266426,0.0394629
0.0178627,0.025855
0.015163,-0.00174085
0.02244,-0.00788627
0.0256943,-0.00150651
0.0183669,-0.00362258
0.00538686,-0.0130965
-0.00712296,-0.0214719
-0.0128671,-0.0131065
-0.00777467,0.000259354
-0.0144199,0.00980498
-0.0348135,0.00198379
-0.00865679,-0.0263187
0.0482279,-0.022479
0.0763886,0.0223355
0.0488776,0.0449191
0.0176214,0.0236527
0.00389884,0.0189345
0.00371136,0.0234644
0.0596929,-0.0373891
0.0766287,-0.0353458
0.0392616,-0.0440206
-0.0444116,-0.0424674
-0.116075,0.00133102
-0.13529,0.0417811
-0.125316,-0.0131527
-0.0827092,-0.0702516
-0.0283399,-0.0204568
0.0140771,0.00633671
0.0628784,0.00649406
0.0726165,0.0262805
0.0419816,0.0476328
0.0346485,0.0611709
0.0625711,0.038026
0.0538513,0.0262974
0.0374507,0.0194025
0.0216176,-0.00250647
-0.0139047,-0.0188596
-0.0240197,-0.0166931
-0.00896074,-0.00504349
-0.012473,0.0267513
-0.0220306,0.0277102
-0.00926909,-0.0359322
0.00956446,-0.031424
-0.00213646,-0.000141645
-0.0141908,0.0200615
-0.0215387,0.00861545
-0.025644,-0.0261383
-0.00914971,3.46e-05
0.0130155,0.0388408
0.00513329,-0.00817216
-0.0278212,-0.00705468
-0.0464414,-0.0291739
-0.01241,-0.0839673
0.0242737,-0.0722808
0.0525302,-0.0046172
0.0633473,-0.0966001
0.0320017,-0.136438
-0.0200372,0.00791985
-0.0705193,0.128507
-0.0994793,0.159056
-0.0910316,0.145719
-0.03921,0.0406156
0.041741,0.0201496
0.100601,0.023423
0.0853965,-0.00769578
0.0602392,-0.0162213
0.0641858,-0.0169544
0.0648504,-0.0102652
0.0166824,-0.000739191
-0.0513046,-0.00267479
-0.0884046,-0.00446233
-0.0611173,-0.0315552
-0.00386333,-0.0521247
0.0189663,-0.0122108
0.00368217,0.00654195
-0.0155128,-0.00855455
-0.010216,0.00265518
-0.00169259,-0.000209732
-0.0192535,-0.00986671
-0.0422434,-0.0186724
-0.0350018,-0.0156063
-0.0165813,-0.0102821
-0.00438425,0.00123929
0.00441028,0.00723695
0.0182246,0.0121438
0.0295239,0.0140451
0.034537,0.0159821
0.0347645,-0.00471206
0.0484384,-0.0350105
0.0540148,-0.0269797
0.0375922,-0.0164497
0.0168859,0.020562
-0.0223619,0.0398731
-0.0668871,-0.00558553
-0.0679864,-0.0187891
-0.0306356,0.00783648
-0.00869441,-0.0233576
0.00614229,-0.0164998
0.019428,0.00865863
0.0429396,-0.00362365
0.0274044,-0.00557804
-0.00587923,0.0220258
-0.0502106,0.0352921
-0.0823559,0.0124524
-0.0558895,0.0627522
-0.0119486,0.0756717
0.026533,0.0103664
0.0662671,-0.0570607
0.0929687,-0.0460177
0.0623531,0.0195372
0.00404918,0.022866
-0.0338151,-0.0160445
-0.0357095,-0.0256967
-0.0205972,-0.00993893
-0.0094697,-0.0178863
-0.00604311,-0.030215
-0.0175651,-0.0261151
-0.0313372,-0.0122681
-0.0260901,0.0144484
0.00398508,0.0182328
0.0343289,0.0317833
0.0434979,0.0158719
0.0236073,0.00493588
-0.00601102,0.0105819
-0.0161071,-0.0207528
0.0056912,-0.0291347
0.0478109,-0.0100213
0.12101,0.0140365
0.105857,0.00594124
-0.00718756,0.00939173
-0.102249,-0.00374211
-0.135442,-0.031572
-0.108046,-0.0274925
-0.0657199,-0.016072
-0.02773,0.00202396
-0.0115866,0.0495961
0.0111813,0.0253521
0.0346782,-0.0456213
0.0672543,0.00417065
0.0526506,0.0597558
0.0468108,0.011063
0.0985574,-0.0243638
0.0855124,0.00229846
0.0158397,0.0220426
-0.0257557,0.00181025
-0.048328,-0.0403922
-0.073079,-0.0616557
-0.0985309,-0.0251715
-0.101165,0.0201476
-0.0621846,0.0324314
0.000447049,0.0178145
0.0418194,0.0312723
0.0397743,0.0210863
0.0312471,0.00185236
0.0235362,-0.00702896
0.00868292,0.0356107
-0.0110882,-0.00613342
-0.00859075,-0.010038
-0.00971359,-0.00820535
-0.0263299,-0.0160661
-0.0218842,0.00989759
0.007778,-0.00187089
0.0502001,-0.0156975
0.0822324,-0.0127711
0.0717946,-0.0139142
0.05154,-0.00530327
0.0159179,-0.00452358
-0.029895,0.00451045
-0.0484456,0.0299555
-0.0425428,0.0486948
-0.0361839,0.00650478
-0.0327092,-0.0094737
-0.0445796,-0.0273328
-0.0525786,-0.0509647
-0.0201655,-0.0186947
0.0353898,0.00562737
0.0507949,-0.00616936
0.0349464,-0.0012202
0.0442219,0.0120478
0.0596668,-0.036355
0.0266396,-0.043537
-0.0313303,0.0320331
-0.06827,0.0203878
-0.040955,-0.00506095
0.00103669,0.0120107
0.00816424,0.0345101
0.0190095,0.0292818
0.0186128,0.00485868
-0.00339717,0.0277267
-0.0296068,0.0589369
-0.0384851,0.00610165
-0.0242771,-0.00331774
-0.000740231,-0.0337153
0.0119238,-0.0150164
0.00579219,0.0490059
-0.0109334,-0.00670941
-0.0117773,-0.0727347
0.0148958,-0.0869246
0.0319807,-0.0527807
0.0133837,-0.00178754
-0.014419,0.0214479
-0.0309235,0.0229683
-0.0151276,0.0176901
0.0450438,0.0031026
0.100582,-0.0147547
0.108966,-0.0317319
0.055206,0.0256621
-0.0479804,0.0535782
-0.0854703,0.0162941
-0.0378943,0.0372908
-0.0105244,0.018401
-0.00830167,0.00598558
0.00703389,0.00314481
0.0174074,0.0160434
-0.00333631,0.00947317
-0.0458739,-0.0497648
-0.0589788,-0.0285147
-0.0411135,0.0147435
-0.00614073,-0.0211282
-0.0102148,-0.0337159
-0.0266082,-0.0321876
-0.0165192,0.0111543
0.0013205,0.0186694
0.0172022,0.0140372
0.0394411,0.0122163
0.046344,-0.0494563
0.0366355,-0.0780295
0.0149942,0.0225534
0.0156295,0.0552785
0.00899488,0.0503472
-0.00614415,0.02852
0.0239948,0.0170981
0.0367134,0.00819306
0.000888094,-0.00386117
-0.0358044,-0.0154355
-0.038807,-0.0124501
-0.021071,-0.00292265
-0.0110722,-0.00851028
0.0521945,-0.00494901
0.0832091,-0.0173686
0.0117117,-0.0332123
-0.063197,-0.0374707
-0.0971485,-0.0101521
-0.0683314,0.0467856
-0.0200853,0.0268428
0.00322854,-0.00311331
0.0458596,0.0171953
0.0508134,0.053318
0.0293198,-0.0075929
0.0133855,-0.00313705
0.00500784,0.00741335
0.0173439,-0.000983496
0.0381231,0.00958311
0.00614311,0.0236256
-0.0526149,0.000114809
-0.0727788,-0.0285799
-0.0574851,-0.00789315
-0.0267231,-0.0028832
0.0428474,-0.0135323
0.0639388,-0.0105886
0.0358811,-0.00970813
0.0119726,-0.028552
0.0131956,-0.0422476
-0.015861,-0.0351853
-0.0369746,0.00887892
-0.0116687,-0.00166268
-0.0228468,-0.00677803
-0.0636465,0.00566435
-0.0369423,-0.0141584
0.036779,0.0520965
0.0602066,0.0505163
0.0289453,0.0225252
0.00559446,0.00753332
-0.0043854,0.00772346
0.00592874,0.0531321
0.0553423,0.0270696
0.0601211,-0.0218826
0.0120107,-0.0125527
-0.0421612,-0.00887312
-0.0641372,-0.00918029
-0.0387785,-0.00247158
0.00608979,0.00055269
0.029095,0.00154457
0.0104603,-0.0174447
-0.028969,-0.0137624
0.00702281,-0.0195224
0.0569469,-0.0185573
0.0389339,-0.00240186
-0.010699,-0.0106701
-0.0448155,-0.0192355
-0.0555099,-0.0182179
-0.0289695,0.000898064
-0.00477637,0.0263857
0.00787736,0.0297561
0.00484243,0.0168781
-0.02152,0.00447946
-0.0295352,0.00159519
-0.00435004,-0.00527251
0.0214884,-0.0212661
0.0265006,-0.0337527
0.0118339,-0.0337308
0.0215126,0.00186213
0.0227457,0.0359683
0.022574,-0.0218743
0.0201278,-0.0517773
0.011915,-0.0412402
-0.00737503,-0.00280118
-0.0208523,0.0403823
-0.0286316,0.0406144
-0.0250569,0.0424097
-0.00599158,0.0359835
0.00876728,0.020034
-0.000920692,0.00742892
0.00443483,0.0211418
0.00765664,0.0172377
0.0120066,0.000693052
0.00737592,0.00634454
-0.0128854,0.0129398
-0.0327544,0.00591449
-0.035792,0.0237906
-0.0282805,-0.0687943
-0.0128359,-0.0819672
-0.00640731,0.007664
-0.0128233,0.0377875
-0.00816996,0.0219703
0.0305089,0.00162293
0.0574302,0.00195121
0.0390402,0.00493787
-0.0102525,-0.00613474
-0.0596652,0.0338549
-0.0630645,-0.00154234
0.0180945,-0.0350927
0.106381,-0.0193415
0.107037,-0.0197437
0.0584964,-0.0086736
0.0365738,0.00650487
0.0212825,0.0204119
-0.00159927,0.0362306
-0.0253649,-0.000383459
-0.0559524,-0.0117036
-0.0984855,-0.0125986
-0.100458,-0.0132814
-0.0391568,0.00338428
0.0315629,-0.001273
0.0660474,-0.00655588
0.0950965,-0.0213594
0.0580201,-0.0165779
-0.0294139,-0.000223228
-0.0709329,-0.0134308
-0.0598591,-0.0221647
-0.0113951,-0.0268799
0.0190286,-0.0665895
0.0179571,0.0395069
0.0101548,0.0653281
-0.0172498,0.0113652
-0.0263474,0.0327701
-0.0105645,0.00323765
-0.0218502,-0.0427664
-0.041617,-0.063367
-0.035257,-0.0118856
-0.00650688,0.034211
0.0453271,0.0327284
0.080345,0.0265635
0.0791728,0.0319338
0.039047,0.0256245
-0.0283675,0.0197295
-0.0487898,0.0122891
-0.0207912,0.0148116
-0.00300688,0.00171782
-0.00896474,-0.0269026
-0.0240527,0.00769972
-0.0434632,-0.00956664
-0.0571669,-0.025501
-0.0391048,-0.0204521
0.00564188,-0.0392521
0.0322993,0.0148881
0.0454036,0.0303349
0.0347517,0.00647771
0.0277372,-0.00477002
0.013365,-0.00458793
-0.0150868,0.0046359
-0.0252318,-0.012172
0.00205431,0.00664168
0.0394706,0.0099477
0.0566836,0.0167085
0.0480733,0.0175566
0.00526158,-0.0135899
-0.00379554,-0.000188517
-0.0141501,0.011642
-0.0197279,0.00382916
-0.00821162,-0.00999845
0.0124112,0.00275399
0.0149806,0.00542286
-0.00866279,0.00771748
-0.0259718,-0.00707646
-0.0250305,-0.0472604
0.0239955,-0.0435856
0.0745471,0.00448747
0.0495127,0.00871862
-0.0226693,-0.0210083
-0.0869068,-0.00898532
-0.104496,0.026597
-0.0580394,0.0287315
-0.00445301,0.00735333
0.0234515,-0.00800782
0.0713341,-0.00824131
0.095322,0.0157819
0.0469524,-0.000504772
-0.0445257,0.0153955
-0.0864361,0.000562921
-0.070501,-0.0471932
-0.0446315,-0.0474601
-0.0223123,-0.00670194
-0.00691465,0.0216922
0.0037204,0.00755747
0.0344017,0.0191935
0.0663475,0.0276343
0.0624287,0.0208035
0.0236749,0.0348464
0.00370453,0.0560244
-0.003907,-0.0137051
-0.0140591,-0.024497
-0.0124178,-0.034891
-0.00865131,-0.0553224
-0.0208274,-0.0577207
0.00389337,0.034342
0.0202065,0.0728649
0.0039722,0.0206701
-0.0233095,-0.00801711
-0.0365353,-0.0210128
-0.0239348,-0.0128303
-0.00493216,0.0011652
0.0199221,-0.0340831
0.0444606,-0.0474319
0.0564712,0.000340994
0.0250009,0.0159534
-0.0291257,0.0165428
-0.0486461,-0.00387039
-0.0253801,0.00297821
-0.00323737,0.00919395
0.0378916,-0.00643798
0.0411155,-0.00746342
0.0232098,0.00244366
-0.00795949,0.0598478
-0.0358809,0.0563137
-0.0296318,0.00959015
-0.0193538,-0.00398357
-0.00178746,-0.00716402
-0.00428892,-0.0299083
-0.00157121,-0.00409623
0.00146752,0.00304139
0.016778,0.00816479
0.0343021,0.0151963
0.0372752,0.0197456
0.0303539,0.0185426
0.00420864,-0.000474344
-0.0260631,-0.0187731
-0.00908173,-0.0500597
0.00691174,-0.0336652
-0.0171146,-0.0228362
-0.0471351,-0.00516096
-0.055673,0.0072156
-0.0357565,0.00795167
-0.00931297,0.00406025
-0.00631343,0.0168768
-0.00386688,-0.00846616
-0.0102833,-0.0310678
-0.0307787,-0.00783256
-0.0264526,0.00482436
0.00794636,0.00738451
0.0842519,0.0139149
0.11895,0.0162756
0.0805812,0.00400137
0.0340256,-0.0122972
-0.00632296,-0.0090661
-0.0457791,-0.0091065
-0.0551395,-0.0149393
-0.0579088,0.00121081
-0.0496058,0.00820416
-0.0117731,0.0201467
0.019673,-0.0276029
0.0307747,-0.0499621
0.0444624,0.0219247
0.0503904,-0.00056423
0.0270003,-0.0170197
-0.00901122,0.037399
-0.0366265,0.03729
-0.058774,0.0174706
-0.0549569,0.0159172
-0.0223427,0.019304
0.0128169,0.0103485
0.0412053,-0.0201586
0.0408223,-0.0386293
0.0228439,-0.0176483
0.0131722,0.0120119
-0.0106315,0.0529555
-0.0254863,0.0687074
-0.0158565,-0.0164303
-0.0260592,-0.0160286
-0.0472928,-0.0167188
-0.0343504,-0.0255195
-0.00039746,-0.0338917
0.0333711,-0.0339267
0.0500542,-0.01466
0.042842,0.011769
0.0129587,0.0611661
-0.00446353,0.0255357
0.000101212,-0.0163372
-0.000609388,-0.0147473
0.0025881,-0.00411837
0.0362291,0.00447782
0.0727952,0.00510223
0.0604728,0.00755663
0.0265046,-0.0163656
0.00677983,-0.0686046
-0.0240684,-0.0724325
-0.0143232,-0.0495009
-0.0310489,0.0222917
-0.0755669,0.0422295
-0.0836455,0.0233437
-0.065539,0.0412479
-0.0497466,0.0421183
-0.0310231,-0.000767507
-0.00469724,-0.0119072
0.0220976,0.0158753
0.0232245,0.0280125
-0.0058491,0.0175753
-0.0200133,0.0269279
-0.0116775,0.021089
0.00118407,0.00178453
0.00147125,-0.000631581
-0.00789336,-0.01837
-0.00303668,-0.0219145
0.0180724,-0.0191254
0.0521228,0.0089239
0.0900773,-0.0244148
0.108875,-0.0522289
0.0811421,-0.0331626
0.0214101,0.0752536
-0.0370068,0.0325953
-0.0616233,-0.0244296
-0.0508644,0.0128083
-0.0495602,0.0145741
-0.00951931,-0.0196673
0.0508506,-0.00255582
0.0458293,-0.0150906
-0.00527153,0.000473953
-0.0621868,0.021631
-0.0826894,-0.00382453
-0.0371143,0.0706723
-0.0108639,-0.00274322
-0.00873028,-0.0679952
0.00385421,-0.0269329
0.0113411,0.00406393
0.0295319,-0.000268488
0.0269503,-0.0320766
0.00229314,-0.0401535
0.00769289,-0.00078678
0.0231141,0.0104411
0.0148958,5.86e-06
0.00900547,0.00872679
0.00404198,0.0101489
-0.00768276,0.00443814
-0.0235036,-0.000178254
-0.0339643,-0.00281079
-0.0402012,0.00720943
-0.0364164,0.0217149
-0.00779244,-0.00981165
0.0325178,0.0119452
0.0615714,0.0272369
0.101014,-0.00591169
0.117681,0.0182285
0.0420189,0.0218478
-0.0473617,-0.0339689
-0.0674055,-0.05394
-0.0479837,-0.0207684
-0.00516142,0.00256542
0.0151317,0.0189915
0.0320851,0.0127128
0.0165131,0.0410885
-0.0283647,0.0381539
-0.0737098,-0.0252696
-0.0793812,-0.015916
-0.0866405,-0.0113785
-0.0968021,0.0320452
-0.0690942,0.0117948
-0.0061027,-0.0305772
0.072511,-0.0155373
0.133902,-0.0276532
0.135832,-0.0125431
0.0718439,0.00977395
0.0157938,-0.00451676
-0.0256335,0.0111324
-0.0602573,0.00104013
-0.0538767,0.00532465
-0.0114777,0.0194369
0.0237917,-0.0265676
0.0554998,-0.0616952
0.0670107,-0.0189549
0.0349783,0.0055817
0.0139616,0.0468662
-0.0177728,0.0618715
-0.0445161,0.0381598
-0.061629,0.0124198
-0.0557964,-0.00325236
-0.0368109,-0.00708015
-0.0221751,-0.0289049
-0.0119136,0.00661048
0.00990552,0.00261801
0.0492019,-0.0187393
0.0897033,-0.00840004
0.0688126,-0.00699446
0.0291853,0.0214574
-0.0270559,0.0601421
-0.0796093,-0.00192848
-0.0786961,-0.0292473
-0.047223,-0.0348285
-0.0259504,-0.00327704
-0.0267295,-0.00858149
-0.0287417,-0.0515642
-0.0130459,-0.0161713
0.00439734,-0.0136529
0.0110267,-0.0135658
0.0117065,0.0312532
0.00235451,0.00391984
0.00653566,0.018515
-0.00168516,0.0623753
-0.0157519,0.0514231
-0.000613642,-0.0353213
0.0433595,-0.0224376
0.0530555,0.0146435
0.0391713,-0.0078301
0.045989,0.0156395
0.0704201,0.0305077
0.0787271,0.0186656
0.0559315,-0.0460842
0.0276595,-0.0123232
-0.0167782,0.0177246
-0.0956464,-0.0327405
-0.116617,-0.0390633
-0.0795503,0.0157148
-0.0256035,0.00229997
0.0269888,-0.00537818
0.0271072,-0.000246898
0.0390217,-0.00489508
0.0873065,-0.0363909
0.0794881,-0.0460248
0.00174746,0.0301074
-0.0719902,0.0622939
-0.114066,-0.00961339
-0.0593518,-0.0198718
0.00171789,0.0262762
0.0113753,0.0277224
0.0037738,0.00711693
-0.0055981,0.00704903
-0.0105073,0.0217937
-0.0123743,-0.000796423
0.00731704,-0.0507738
0.0415343,-0.0524913
0.0668933,-0.0190032
0.0551309,0.0317297
0.0111135,0.0334084
-0.0254134,-0.00270951
-0.0610431,-0.028581
-0.082423,0.0141305
-0.0587778,0.0552077
-0.0223757,-0.0188179
2.86e-05,-0.0545808
0.0164149,0.016483
0.0292912,0.0307735
0.0414664,0.00599705
0.0465312,-0.0185227
0.0284197,-0.0192497
-0.0114705,0.0142657
-0.035358,0.033251
-0.02701,0.0603254
-0.0205923,-0.00112137
-0.0333787,-0.062147
-0.0191821,0.00808636
0.0134279,0.0725852
0.0427542,0.00914168
0.0434237,-0.0224443
0.00323675,-0.113581
-0.0144299,-0.108701
0.0382716,0.0198922
0.0650084,0.0185553
0.0416015,0.00331399
-0.0047348,0.0164778
-0.0296212,0.0234687
-0.0246173,0.00957642
-0.0200439,0.0120627
-0.013087,0.0211247
-0.0109624,0.0259832
-0.00758739,-0.00291731
-0.0058619,0.0268263
-0.0160908,0.0823032
-0.0324541,-0.0234949
-0.0249523,-0.0944804
-0.0123278,-0.0224556
-0.0050039,0.0165281
0.0182851,0.00534042
0.0404992,0.00608434
0.0343402,0.00749986
0.0240578,0.00112249
0.0216525,0.00993711
0.0170215,0.0264117
0.0161479,-0.0187268
0.0145737,-0.00590132
0.00118831,0.00634202
-0.00748694,-0.0359721
-0.0285565,-0.0284673
-0.0850718,0.0132823
-0.116694,-0.0421636
-0.0797774,-0.0452692
0.0042809,-0.00232027
0.0372637,0.00928458
0.0804063,0.0159149
0.0758901,-0.0138091
0.0338649,0.0836347
-0.0233678,0.0865062
-0.0379901,-0.00821067
0.00223952,-0.00896647
0.036207,-0.0138505
0.0411089,-0.0245219
0.0239784,0.0294418
0.021951,0.0178778
0.0591815,-0.0418974
0.0742418,-0.0401815
0.0317882,-0.014059
-0.0224837,-0.00705552
-0.0591698,0.00824015
-0.0482684,0.00683664
-0.0326438,0.0249019
-0.0295254,0.0349915
-0.0229446,0.0268575
-0.00501736,0.00213729
0.011096,-0.0162626
0.012073,-0.0339969
-0.0104222,0.00121627
-0.0388653,0.0186466
-0.032885,-0.0353441
-0.0186157,-0.0726405
-0.0207447,-0.0118636
-0.0109997,0.0218
0.0207959,0.0100634
0.0403082,0.00256729
0.0238517,-0.00357727
0.00916199,0.0024104
-0.00410679,0.0395419
-0.00738404,0.07566
-0.0154477,-0.0186647
-0.0177289,-0.0271364
-0.0149757,0.0117309
-0.0141045,0.00747863
-0.00549441,0.0128464
0.00128123,-0.00922012
0.0123226,-0.0292236
0.00812979,-0.027304
-0.000538411,-0.0205762
-0.00179027,-0.0211251
-0.00227983,-0.00914527
-0.000426144,0.0105368
0.00814577,0.00991817
0.0174099,0.0135494
0.024979,-0.00370215
0.037649,0.0122377
0.0457098,0.0356717
0.0316729,0.0383469
0.0106355,0.022987
-0.0121547,0.0105348
-0.0268868,0.011523
-0.0367141,-0.0072993
-0.0452842,-0.0403881
-0.0538889,-0.0579872
-0.0415909,-0.0848926
-0.0217895,-0.0392842
-0.00354424,0.0112613
0.00892454,0.000594464
0.0263305,0.000785012
0.0577014,0.0316932
0.0728038,0.0359996
0.0416355,0.0247421
0.00192954,0.01826
-0.0175244,0.0194402
-0.0188548,0.0154879
0.00194665,0.00926396
-0.00300772,0.00798389
-0.0308776,0.00496636
-0.0375397,-0.00921211
-0.0210579,-0.0157593
0.00766917,-0.00570078
0.045247,0.00548117
0.0487278,0.0194015
0.0286253,0.00456382
0.00180694,-0.0218634
-0.0164902,-0.00981887
-0.0245294,0.00120723
-0.0320701,-0.00346324
-0.00294101,-0.011814
0.0366103,-0.0125727
0.00161768,-0.00166342
-0.0502464,0.00696178
-0.067395,0.0101703
-0.0541005,0.00154754
-0.0100121,-0.00116626
0.017857,-0.00129552
0.0152821,-0.0129303
-0.00265172,-0.0162956
-0.00965278,-0.011245
0.00142223,-0.000772603
0.045363,-0.00027455
0.0914103,-0.00366093
0.0896462,0.00227868
0.0502195,0.01791
-0.000206095,0.0301636
-0.0742656,0.0252595
-0.109172,0.0261988
-0.0963704,0.0212482
-0.0485399,0.00662501
0.0180626,-0.00480817
0.0765903,-0.0152648
0.0516376,-0.030085
0.00326486,-0.0428492
0.018202,-0.0352678
0.0253282,-0.0165695
0.00772247,0.00362534
-0.00331491,0.0177019
-0.0176655,0.0195125
-0.0197147,0.014753
-0.0117026,0.00495484
-0.00477774,-0.00866316
-0.00372104,-0.0223347
0.0104888,-0.0155194
0.0352093,-0.0098105
0.0600467,-0.00662151
0.0622624,0.000409644
-0.0133367,0.0134953
-0.103535,0.020935
-0.108911,0.0189098
-0.054743,0.012738
0.00814455,0.00968111
0.0529766,-0.0081951
0.0450116,0.00611848
0.00890754,0.00569205
-0.0205919,-0.0102805
-0.0264388,-0.0121747
-0.015027,-0.0116197
0.0288112,0.00367225
0.0519205,0.021192
0.0147287,0.0175265
-0.063894,0.0183448
-0.0894028,0.00901134
-0.0436726,-0.00644474
0.0535983,-0.0101453
0.0901873,-0.00701303
0.072381,-0.00221386
0.0665061,-0.00315619
0.0474788,-0.00494522
0.0315732,-0.00902374
0.0563424,0.00466148
0.0558893,0.0142158
-0.0111051,0.00482426
-0.0943394,-0.00614302
-0.125495,-0.0317457
-0.060968,-0.0477262
-0.0113956,-0.0365622
-0.0287218,-0.0119533
-0.0160521,0.00760485
0.00535175,0.00886238
0.0394877,0.0114229
0.0459095,0.0144976
-0.0621507,0.00372038
-0.217607,-0.000657181
-0.205063,0.00571812
0.00685415,0.00562198
0.241545,0.00403054
0.231354,0.00885026
0.0481882,0.00969082
-0.137154,0.0128494
-0.209888,0.0143935
-0.0960877,0.012546
0.1073,0.009864
0.133778,0.0127796
0.137836,0.0187095
0.16504,0.0102815
0.113635,-0.00808324
0.0524611,-0.0175124
-0.00412814,-0.0314137
-0.0342864,-0.0277711
-0.00967934,0.00776206
-0.0107491,0.0242661
-0.0331126,0.0180496
-0.0544494,0.0157103
-0.0732985,0.025318
-0.0743946,0.0180221
-0.0330671,-0.0240254
