Comp Ch 3,Comp Ch 4
-0.0961216,-0.0125887
0.0434298,-0.0781023
0.0724584,-0.171349
0.0151215,-0.0860765
-0.0154204,0.120413
-0.0774062,0.0776606
0.00688544,-0.0547549
0.221718,-0.0269377
0.178483,0.0570906
0.116326,0.126832
0.0585964,0.137038
-0.0876149,0.0397907
-0.336414,-0.0939414
-0.381734,-0.31862
-0.155388,-0.3286
0.04393,-0.165354
0.173807,-0.0983204
0.242318,-0.062876
0.291008,-0.0394885
0.1884,-0.132776
0.0383455,-0.142339
-0.043406,0.0740962
-0.0862625,0.266722
-0.0985914,0.401038
-0.116953,0.493886
-0.149469,0.242512
-0.114095,0.1334
0.00431591,0.0966416
0.0307741,0.021488
0.0568742,-0.0127582
0.0454813,-0.0191026
0.0304012,-0.0403675
0.00918002,-0.0940937
-0.0190498,-0.0900902
-0.0477372,-0.0375976
-0.111863,-0.00433565
-0.163344,-0.0993288
-0.0665574,-0.222387
0.106552,-0.343881
-0.00467812,-0.2471
-0.0569174,-0.0183927
0.0381408,0.159486
0.0684905,0.145741
0.0956788,0.0228794
0.0914792,0.0593989
-0.00234163,0.0346904
0.0132472,-0.0381483
0.0443732,0.0794895
0.00339688,0.0995965
0.00847436,0.00519883
0.0498218,0.0248847
0.0830871,0.0240638
0.0628467,-0.0242699
0.00518917,-0.0877746
-0.00657991,-0.0463487
0.00104619,-0.0723201
-0.0267766,-0.0470261
-0.0307719,0.0394621
-0.0264798,0.0425327
-0.104154,-0.0483377
-0.0990455,-0.0707658
-0.0316233,0.0255736
-0.017421,0.0220553
0.0366024,0.0722242
0.102695,0.0288946
0.0849658,-0.0261296
-0.0145751,0.027606
-0.141661,0.0667897
-0.189987,-0.0144968
-0.0654161,-0.0638382
0.104305,-0.0463108
0.205451,-0.00777654
0.162606,-0.015901
-0.0115236,-0.0230271
-0.202527,-0.0141731
-0.246063,0.0331373
-0.0962904,0.0773341
0.133058,0.0718323
0.198458,0.0409347
0.10028,0.0157706
-0.0642909,0.00252347
-0.0340516,0.012124
0.0809327,0.0160458
0.0844834,0.0102657
0.0938795,0.0308293
0.110274,-0.0258914
0.0201973,-0.0888711
-0.140293,-0.0521053
-0.190511,-0.0677938
-0.0993994,-0.124198
0.00015198,-0.111449
0.0368152,0.00597123
0.0591797,0.0981322
0.0476746,0.0855347
0.00754821,0.0844541
-0.0384019,0.0859355
-0.0484776,0.0589877
-0.0497233,0.125265
-0.0419135,0.0372407
0.00623664,-0.0228036
0.0617595,-0.00740351
0.0883934,0.00252048
0.0149527,-0.0869263
-0.0707576,-0.11032
-0.0288494,-0.0162558
0.0510312,0.0121619
0.0576655,-0.0086796
0.0363282,-0.0321348
-0.0307639,0.00652262
-0.123801,0.0277069
-0.135883,0.030477
-0.0381489,0.00466454
0.0971867,0.0235088
0.151682,0.00195545
0.131191,-0.0539956
0.115868,-0.0504295
0.040192,-0.000880351
-0.0893671,0.0459809
-0.202193,-0.00970654
-0.0707345,-0.0159029
0.0260907,-0.0324098
-0.0297391,-0.0506491
-0.0806088,-0.125502
-0.0380235,-0.0544063
-0.00943413,0.0578845
0.0397093,0.0910246
0.139876,0.14517
0.173517,0.109931
0.150905,0.0195902
0.0765678,-0.0905255
-0.0858777,-0.172093
-0.216921,-0.0753883
-0.186531,0.0620939
-0.0963724,0.0736638
-0.0515429,0.0693596
-0.031827,0.0522575
-0.0311723,0.10675
-0.00542762,0.033449
0.0313825,-0.0784961
0.0515648,-0.0560752
0.0855346,0.00264689
0.0740056,-0.0912936
0.0262064,-0.123881
-0.0214858,-0.0498455
-0.0253721,0.0259975
0.0167816,0.00539832
0.0477917,0.0258114
0.0305295,0.040062
-0.00975346,0.10992
-0.0700903,0.0534162
-0.0679077,-0.0639204
-0.0221724,-0.0506209
0.00802525,0.00443584
0.0523576,0.0125139
0.119494,0.0451712
0.125681,0.108606
0.128098,0.0682494
0.104096,-0.0369046
0.0151518,-0.0451485
-0.0165853,-0.0234684
-0.0511303,-0.0390966
-0.114069,-0.0475695
-0.104742,-0.0203592
0.00274969,-0.0447424
0.0839698,-0.0890128
-0.00709804,-0.0215865
-0.108954,0.0326881
-0.102692,0.0901492
-0.0747712,0.0105154
-0.133429,-0.0396408
-0.193865,0.00400619
-0.0714236,-0.000175259
0.164595,-0.0226436
0.154949,0.0598607
0.0485356,0.0886832
0.052466,0.0733084
0.0531877,-0.0475031
-0.0193583,-0.0342849
0.00869159,0.00168986
0.0658617,0.00949136
0.0928916,0.0258471
0.120236,-0.0299919
0.0860733,-0.0661755
0.014939,-0.0320753
-0.0570653,-0.00991528
-0.0824721,-0.0136432
-0.0796062,-0.0565615
-0.0741652,-0.0235152
-0.115554,0.0510643
-0.102731,0.0202155
-0.0792373,-0.0564544
0.0152435,-0.0614632
0.0897144,0.0390676
0.0791147,0.0750136
0.0707723,-0.0114945
0.0462098,0.0232513
0.0127321,0.0100994
-0.016571,0.036376
0.0179765,0.0143132
0.0268075,0.0191191
0.0140855,0.0304476
-0.0614768,0.0329825
-0.0320568,0.029083
-0.00814756,-0.0229496
-0.0276958,-0.0534769
-0.00582495,-0.0107265
-0.0204025,-0.0467174
-0.0430389,-0.00829576
-0.0466107,0.0104431
-0.0700184,-0.029606
-0.0670508,-0.0619742
0.0577017,0.0200032
0.179548,0.0512526
0.136898,0.0311735
0.026952,0.00878562
-0.0573314,-0.00430325
-0.063235,-0.0105576
-0.0690934,0.0130615
-0.0413092,0.0281268
0.00124026,0.027534
0.055912,0.00109437
0.0620554,-0.0361076
0.0368385,-0.0200978
0.0546613,0.00644595
0.0703873,0.0193981
0.0171528,0.014424
0.000711314,-0.0286443
-0.032135,0.00543135
-0.0703553,0.10569
-0.0932294,0.0171639
-0.099078,-0.0377876
-0.0511141,-0.0481859
0.0890851,-0.0532733
0.0829302,0.0338868
-0.0119501,0.0913581
-0.0219564,-0.0193979
0.032815,-0.0801026
0.0254207,0.0140888
-0.0417874,0.0208947
-0.0217863,-0.0899578
0.0060772,-0.105622
-0.0265115,0.0410481
-0.0621903,0.0722785
-0.0503479,-0.00326823
0.0181162,-0.0225719
0.0587561,0.00390239
0.047794,0.0350068
0.029518,0.0410256
0.0366906,0.0250048
0.016275,0.00268241
-0.0409557,-0.0138336
-0.0500322,-0.0335687
-0.0161255,-0.0292138
-0.0107328,0.0190932
-0.0542595,0.00489121
-0.069148,-0.0188465
0.0118366,-0.0147589
0.128786,-0.00725524
0.159488,0.00713536
0.0623446,-0.000858603
-0.036463,-0.00754113
-0.0313119,-0.0139487
0.0272514,-0.0247991
0.00433597,-0.0194573
-0.0458578,-0.0135172
-0.129827,0.0386351
-0.0791499,0.0525207
0.0685859,-0.0251782
0.123448,-0.0110986
0.0661982,0.0271444
-0.0188638,-0.0404559
0.00347624,-0.00436847
0.03905,0.039585
0.0237656,-0.0375981
-0.0417267,-0.0125397
-0.113168,0.0509593
-0.108828,0.0430544
-0.0971759,-0.0196087
-0.0576177,-0.0303973
0.0537976,0.0483018
0.0637168,0.0489077
0.0399423,-0.0188599
0.10269,-0.0165994
0.0874127,-0.0173675
0.0114145,0.000536653
-0.038661,0.0134253
-0.051011,-0.00554166
-0.0216171,-0.0249363
0.000209751,0.0069454
-0.0237048,0.0288602
-0.037829,-0.027804
-0.0136267,-0.00861691
0.010084,0.0314019
-0.0157438,0.0161904
-0.0522772,0.00996659
-0.0446282,0.084329
-0.0152978,-0.0398081
0.0354593,-0.0687245
0.0565141,-0.0371922
0.0184742,-0.00429689
-0.0395623,-0.0173916
-0.0265165,-0.0307088
0.0198679,0.00319735
0.0429682,0.00581943
0.0104837,0.0163082
-0.0259833,0.0499038
-0.00723885,0.00336002
0.0376047,0.00302485
0.111855,0.00858174
0.133921,-0.0100906
0.0805667,-0.0175086
-0.0209482,-0.0262267
-0.0989072,0.000281966
-0.0872418,0.00606486
-0.0588999,-0.00391717
-0.000944283,-0.0114332
0.00263488,-0.00358319
-0.0044026,0.0074751
0.0203239,0.0100115
0.0519248,0.020784
0.00190218,0.106481
-0.0467653,0.0344326
-0.0618744,-0.0610308
-0.0677876,-0.036276
-0.0569755,-0.00788033
-0.0332911,-0.00689623
-0.00599212,0.0101564
0.074839,0.0234586
0.125475,-0.0137693
0.102726,-0.0270333
0.00435279,-0.010905
-0.0899438,-0.0161661
-0.0616318,0.0141368
-0.0184593,0.0176878
-0.000108935,0.00349381
0.00980039,-0.0407388
0.0105849,-0.0820482
0.0253989,-0.0129872
0.0283855,0.0286411
0.00256874,-0.00520855
-0.00564424,0.00297166
0.00602364,0.017078
0.00768185,0.0427573
-0.0164869,0.0382395
-0.0442301,0.0345964
-0.045185,-0.0151669
-0.0265213,-0.047904
-0.00341098,-0.0192718
0.0248442,0.00508635
0.0536149,0.0528351
0.0575193,0.0215392
0.0440157,0.0350712
0.0108323,4.72e-05
-0.018996,-0.0276929
-0.021562,-0.0404631
0.00874487,-0.11483
0.0387635,-0.109403
0.0348736,-0.0140617
-0.00976382,0.044771
-0.035582,0.0773258
-0.0423685,0.0840567
-0.0264624,0.0726427
-0.0249787,0.00851096
-0.0243651,-0.0238222
-0.0227654,-0.0396066
-0.0114838,-0.0173362
0.00134837,0.0145313
0.0140715,0.0177778
-0.0112355,-0.00446487
-0.00962577,-0.0267359
0.0183136,-0.0264661
0.0316748,-0.0156131
0.0264404,0.0351259
0.0172178,0.144559
-0.00552251,-0.0473333
-0.0221859,-0.0183189
-0.0310008,0.0206198
0.032882,-0.00352641
0.0778896,-0.0384289
0.0271987,-0.00289937
-0.0408527,0.0122883
-0.0667955,0.0338045
-0.0375165,-0.0500792
-0.0127284,-0.00378906
-0.0189076,0.0247714
-0.0152537,-0.0259834
0.0279318,-0.0185058
0.0380856,-0.0190753
0.00905336,-0.0259325
-0.0273938,0.0344673
-0.0328041,0.0332755
0.0131358,0.00360815
0.0718402,-0.017289
0.0534975,-0.000280466
0.00824364,-0.0216388
0.00435777,-0.0817124
-0.0116609,-0.0893398
0.0035827,-0.0598506
0.0221618,0.0676694
0.0149629,0.0974702
0.0366426,0.059634
0.0611749,0.0228668
0.0234124,0.0655881
-0.0453748,0.00388945
-0.0650256,-0.00957665
-0.0819892,-0.00408969
-0.0742751,-0.00842942
-0.0272555,-0.00413931
0.00147435,-0.0112107
0.00387264,-0.0234485
-0.0119673,-0.0131294
-0.0280137,0.041365
-0.0216662,-0.018529
0.00227538,-0.0178485
0.0176044,0.0130831
-0.00181235,-0.0176811
-0.0158863,-0.0403723
-0.00608418,0.0103079
0.0369607,0.0248399
0.0786831,-0.0148119
0.0643655,0.00159861
0.00712469,-0.00306042
-0.0600438,-0.0267118
-0.0413486,0.0262473
0.00612155,-0.0179358
0.0402274,0.0195895
0.0410706,0.0434333
0.0490917,0.0292849
0.0288681,-0.0645844
-0.0351994,-0.0622328
-0.0734298,-0.00201642
-0.0746187,0.0180626
-0.0274443,0.026156
0.0105714,0.0551899
0.0404858,0.0203863
0.0627812,-0.0121352
0.0362411,-0.0228634
-0.0298779,-0.00301617
-0.0408467,-0.022442
0.00162585,-0.0323093
0.0136223,-0.0124949
0.0217145,0.039807
0.0111512,0.0257534
-0.0269332,-0.0253959
-0.0315779,-0.00566341
-0.0341355,-0.0576029
-0.0252102,0.0127239
-0.00949787,0.132682
0.0181604,0.0131183
0.0454548,-0.0865566
0.063683,-0.0236263
0.0599812,0.0211948
0.0406197,0.0240345
-0.00391723,0.0128299
0.000733878,0.0189536
0.0169623,0.00166174
-0.00271664,-0.0228167
-0.0294138,0.00334527
-0.0319512,-0.00699501
-0.050111,0.0240401
-0.0858275,-0.0538204
-0.0796453,-0.117308
-0.0242186,0.0123435
0.0156354,0.150159
-0.00724112,-0.0360004
-0.0149692,-0.0463812
0.0102715,0.0295623
0.0393872,0.010848
0.0515637,0.0109599
0.032998,0.0104569
0.0281774,-0.0121463
0.0331017,-0.00494603
0.0151635,-0.00350511
-0.0191897,-0.0312704
-0.0424478,-0.0456162
-0.034592,0.0694092
0.0495075,0.0146038
0.0826644,-0.0186517
0.0224683,0.0612483
-0.0309844,0.0419857
-0.0362015,-0.00559265
-0.0206602,-0.0490466
-0.0183409,-0.0576703
-0.00241881,-0.0399837
-0.00190035,0.0119275
-0.000715581,0.0184806
0.00409895,-0.000383183
-0.00128958,-0.00613843
0.000286916,-0.0156092
0.0158148,-0.0174734
0.0348884,0.00166873
0.0333344,0.0550218
0.010136,0.0817215
-0.040143,0.029991
-0.0754668,0.00550396
-0.0726114,-0.0370131
-0.0490064,-0.0660574
-0.033382,-0.0141716
-0.0335666,-0.0110519
-0.0222976,0.0103744
0.0195094,0.00813712
0.0487485,0.020423
0.0794685,0.0757945
0.103275,0.113767
0.0958996,-0.00820451
0.0627798,-0.0373975
-0.00664608,-0.0441709
-0.0327741,-0.0750368
-0.0471073,-0.0598212
-0.0538613,-0.0353673
-0.0307836,-0.0965016
0.00243167,-0.0748737
0.0267456,0.0203753
0.0691445,0.0305602
0.0906707,0.0231991
0.00657006,0.080746
-0.0756584,0.0435248
-0.0777808,0.0329708
-0.0408367,0.0118647
0.0124639,0.0216335
0.0331948,0.0352471
-0.0125137,-0.00158396
-0.084806,-0.00554836
-0.0802922,0.0145275
-0.0606834,0.02341
-0.0495382,0.0245785
-0.0108447,-0.0704531
0.0405864,-0.0161709
0.0505135,0.0304894
0.0591671,-0.0822964
0.0824818,-0.0189932
0.0505806,0.0150541
-0.00252656,-0.0580009
-0.0365797,-0.0258384
-0.0330134,0.0162796
-0.0058306,0.0597513
0.0316928,0.0378723
0.0401284,0.0211482
0.0243357,0.0237967
0.0253985,0.00862889
0.0337989,0.00807256
0.0627918,-0.0129877
0.0413711,-0.00276366
-0.0517465,0.0121579
-0.0695275,-0.0159116
-0.00600165,-0.00127337
-0.0467505,0.00716586
-0.075792,-0.0489437
-0.0193418,-0.0146128
0.019451,-0.0134259
0.016699,-0.0439964
-0.0101632,-0.02013
-0.0603677,-0.0156138
-0.0464791,-0.0317949
0.0039986,-0.0706775
0.0377022,-0.0133069
0.0656101,0.00166773
0.0695493,0.0388476
0.0776651,0.020724
0.0868225,0.0663394
-0.00248501,0.0573546
-0.114444,0.00532424
-0.126199,0.0452102
-0.0566003,0.0691176
-0.0243191,0.122631
-0.0411265,0.0166242
-0.0283882,-0.0902302
0.00254351,-0.0397241
0.0199145,-0.0171215
0.0289559,-0.0155184
0.00819055,-0.0203259
0.0344193,-0.000248512
0.0299854,-0.0599873
0.00151975,-0.0608663
-0.0262521,0.0107039
-0.0266136,0.083534
0.0121471,0.0180268
0.0572969,-0.0143419
0.012604,-0.0375516
-0.0154163,-0.00610154
0.00837589,-0.0111857
0.0634478,-0.0173653
0.149435,0.018881
0.144625,0.0176923
0.019555,0.00525967
-0.126847,-0.0258374
-0.156808,0.0205146
-0.0553854,0.0577964
-0.00464085,0.0187954
0.00641556,-0.00805169
0.00909014,0.00369888
-0.00841689,0.0167034
-0.0299332,-0.0364989
-0.0325892,-0.0117624
-0.0173219,0.0350736
0.0186699,0.00228996
0.0453119,-0.0942271
0.0666109,-0.144774
0.081588,-0.0700201
0.0797442,0.0335509
0.0386281,0.0620084
-0.068267,0.0864004
-0.114114,0.0685891
-0.0761303,0.0161076
-0.0415688,0.0419037
-0.0670443,-0.0263832
-0.0724838,-0.000340316
-0.0296847,0.0602655
0.0176733,-0.00308047
0.0287347,-0.000927724
0.00105151,0.00769651
0.00305006,-0.00549168
0.0351101,-0.00782845
0.069204,-0.019661
0.091797,-0.0238976
0.0728894,-0.0249164
0.00336881,-0.0259444
-0.0296699,0.00409802
-0.017612,-0.00992212
-0.0202408,-0.0508969
-0.0532572,-0.0339567
-0.110117,0.0181754
-0.0540572,0.049122
0.0880398,0.0376603
0.167291,0.00178137
0.0709084,-0.0121503
-0.0236421,0.0298569
-0.0342233,-0.0122473
-0.014146,-0.0249631
-0.0202388,-0.0241513
-0.0175704,-0.0250446
-0.000110372,0.00451216
-0.00294787,0.00571346
-0.0222966,0.00957039
-0.0514215,0.010118
-0.0693914,0.0151575
-0.0430729,-0.00848174
0.00663217,-0.00158599
0.0603761,0.00847312
0.0720535,-0.000306317
0.0545393,-0.0046008
0.025982,-0.00245096
0.0477647,-0.00125008
0.0640109,-0.00285497
0.00962128,0.00441435
-0.071384,0.00138204
-0.103799,-0.00793936
-0.095086,-0.0137237
-0.0609344,-0.0115388
-0.0389157,-0.00150197
-0.0172786,0.0263982
0.00210387,0.0357074
0.0259728,0.00767108
0.052517,0.0091779
0.0954975,0.0155489
0.0904373,-0.00479104
0.0616763,0.0134831
0.0123623,-0.0344607
-0.0588948,-0.037991
-0.0615758,-0.0237642
-0.00258369,0.0194392
0.0124165,0.00778311
-0.00945047,-0.00952167
-0.0213106,-0.0307667
-0.0130852,-0.019234
-0.00898468,-0.00799255
-0.00404125,0.0185579
0.0190079,0.047569
0.0378608,0.00959781
0.0207031,-0.0341508
-0.0282579,-0.0109626
-0.0379243,0.073127
-0.0351465,0.0352178
-0.0131978,0.0110504
0.00256091,0.00795494
-0.0254411,-0.0131508
-0.0301423,-0.0195666
0.0211827,0.0186063
0.0408291,0.0273384
0.0437767,-0.0278531
0.0553519,-0.0402361
-0.0084704,-0.0232683
-0.0913133,-0.00174394
-0.114015,0.00307358
-0.0568122,0.000317962
0.0602057,0.00733426
0.123099,0.025963
0.105252,0.0338559
0.0397998,-0.00120674
-0.0470082,-0.0522153
-0.0569071,-0.0234176
0.0115733,0.069241
0.0306099,-0.0860171
0.0262284,-0.0356324
0.0364034,-0.0306858
-0.00451305,-0.0829948
-0.0313748,0.0512333
-0.0563322,0.0485443
-0.0457998,0.0692927
-0.0180763,0.0315792
0.0347781,-0.0127292
0.124825,-0.0272735
0.147063,0.0164614
0.116689,0.0403596
0.0345163,0.0142714
-0.120262,-0.00374341
-0.18882,-0.0064561
-0.149232,0.0104665
-0.0706468,0.0072773
-0.0117876,-0.00629986
0.0209555,-0.00349343
0.0118794,0.0409597
-0.0202029,0.0125166
-0.0687156,-0.0227048
-0.0649173,0.0011784
-0.0574568,0.0345525
-0.00816366,0.0276457
0.0611099,-0.076593
0.0963802,0.00915524
0.0428727,-0.0659504
-0.0144884,-0.0752254
-0.0455278,0.00721018
-0.0260737,0.0487759
0.0558794,0.0865261
0.0921632,-0.0242766
0.0724727,-0.145569
0.0919673,-0.0744338
0.131933,0.13758
0.0750953,0.035337
0.0530315,-0.102934
1.64e-05,0.0557599
-0.0141459,0.0219406
-0.0260164,-0.0415578
-0.0284936,-0.075284
0.00597591,-0.0695392
-0.0508256,0.0024224
-0.105871,0.133833
-0.08406,0.117662
-0.0530306,-0.0843474
-0.0568865,-0.0977475
-0.0802614,-0.0823932
-0.0853082,0.0284364
-0.0631001,0.158074
-0.0487341,0.0721922
-0.0619665,0.0905637
-0.0289733,0.0101569
0.0479679,-0.0107255
0.067757,0.00289328
0.0870147,0.0174906
0.088816,-0.00879132
0.0535448,-0.0151551
0.0302931,0.0154687
0.0039145,-0.00909712
0.0155522,-0.0248334
0.0379546,0.0544689
0.0172704,-0.0369574
-0.0367092,-0.0831646
-0.0326613,0.0283044
0.0346435,0.0131709
0.0836708,-0.164219
0.0853569,-0.147713
0.0854983,-0.00138408
0.0569299,0.0795116
-0.0292005,-0.00557653
-0.0954721,-0.00695821
-0.0610024,0.053761
-0.0546403,0.0845471
-0.0200815,-0.0328268
0.0245466,-0.00247366
0.0171555,0.0331451
-0.00440547,0.0572958
-0.0772716,-0.00529919
-0.0458441,0.0170003
0.0166609,0.0280193
0.0389662,0.0138114
-0.00353461,0.015618
-0.052953,0.0304238
-0.0490458,-0.00556536
-0.0633087,-0.0740688
-0.0395912,-0.0874186
-0.00732497,-0.043948
0.0375625,-0.0456536
0.0897103,0.054234
0.0325666,0.0669142
-0.0582553,-0.0146367
-0.0774806,-0.0193283
-0.0404399,0.000498099
-0.00666959,-0.112071
0.0170292,-0.0806854
0.0360265,0.0895702
0.0697855,0.140956
0.0521655,0.0237894
0.0422232,-0.0458842
0.0705876,0.0611716
0.0915393,0.0449687
0.0458796,-0.0302858
0.00105654,-0.0881095
-0.0132548,0.0073759
-0.0826621,0.0419888
-0.0670402,0.024521
0.0304326,-0.00588567
0.080441,0.000775992
0.0755345,-0.046462
-0.0290628,-0.0489654
-0.151484,-0.0592747
-0.165568,-0.0421816
-0.13243,0.035047
-0.0524135,0.142573
0.0574951,0.0876422
0.129983,0.0211152
0.107136,0.0443403
0.0897926,-0.0358589
0.0414305,-0.0262551
-0.0503188,-0.0111816
-0.0842261,0.0558694
-0.0347954,-0.109001
0.000677538,-0.135306
0.0150864,0.00679007
0.092564,0.0457071
0.126711,0.00921476
0.0390839,0.0175507
-0.0439635,-0.0119163
-0.0317915,0.0256929
0.0122977,0.0648579
-0.0575483,0.00734842
-0.128028,-0.0177436
-0.0977498,-0.023488
-0.0527792,-0.112526
-0.0072477,-0.128024
0.0605967,-0.000277228
0.0917223,0.0907257
0.00578438,0.0531147
-0.0491204,-0.0145098
-0.0164298,-0.0385533
0.0439109,-0.0874669
0.0458935,0.0277997
-0.0117063,0.0683678
-0.064088,0.0617024
-0.061241,0.0855921
0.0223301,0.0816754
0.0344224,0.037431
-0.0599404,-0.0558704
-0.0344485,0.0227593
0.01973,0.0316085
0.0799798,0.0657556
0.0719538,0.0666296
-0.0278881,0.00386709
-0.0452125,0.0143882
-0.0801085,-0.106041
0.0299956,-0.13447
0.130016,0.0374144
0.0713777,0.0288975
-0.00758571,-0.0227653
-0.116509,-0.0380286
-0.0619082,-0.109137
0.108414,-0.188161
0.120391,-0.176061
0.112007,-0.16079
-0.0610035,0.0772136
-0.191055,0.197052
-0.116022,0.16374
-0.0470381,0.0791
0.0752112,0.0489218
0.20299,0.0230754
0.258413,0.0646324
0.224018,0.115113
-0.0101508,-0.0547368
-0.168369,-0.0470646
-0.199865,-0.0728955
-0.0541915,0.0501225
0.067271,0.069764
0.0734877,0.0212341
-0.076241,0.0259283
-0.266515,-0.0278645
-0.303867,-0.0564513
-0.112493,-0.0497776
0.0654115,-0.00663652
0.0614873,-0.00853663
-0.0160307,-0.00275073
-0.0640883,-0.0801524
0.0345353,-0.0251524
0.0640925,0.0238549
-0.0319613,-0.0977808
-0.0825185,0.0144667
-0.0627388,0.0150782
0.0397536,-0.0730977
0.10162,-0.0399007
0.0921652,0.114919
0.156104,-0.00286897
0.246896,-0.00913926
0.206215,0.0523218
0.0996723,0.0823529
-0.0493283,0.061603
-0.179938,-0.0192339
-0.0523358,-0.0187007
0.210417,-0.0158981
0.228506,0.0246803
0.0832215,-0.0390195
-0.11976,0.0326373
-0.110513,0.00856184
-0.0740314,0.0215795
-0.146135,0.0317564
-0.259795,0.0235394
-0.194776,-0.0717856
0.0642969,-0.181011
0.169645,-0.113007
0.0197237,-0.0287985
-0.165083,-0.0272694
-0.122149,0.17685
-0.00904057,0.160267
0.0449772,0.0276191
0.0462097,-0.0491276
0.0212932,-0.0475304
-0.0553473,0.0110808
-0.00425054,-0.0234543
0.0389238,0.0377839
-0.00320294,0.0431489
0.0540858,-0.0471004
0.139,0.00692552
0.217599,0.0530783
0.237346,-0.0464059
-0.00586284,0.00591486
-0.184535,-0.0282948
-0.211691,0.0110153
-0.180346,-0.00573896
-0.0722123,-0.0445196
-0.0137007,0.0216179
0.0669842,0.176716
0.0173201,-0.0201455
-0.0720925,-0.0762228
-0.026999,-0.0646049
-0.00867761,-0.0526345
-0.0205722,0.00555968
-0.0344708,0.0526702
-0.0355772,0.0510972
0.00601691,0.0177838
0.0408938,-0.0124744
0.075114,0.00148896
0.0782295,0.0382566
0.0428426,-0.00465116
0.0317257,0.0131582
0.12382,-0.053731
0.161726,-0.156592
0.167026,-0.0888115
0.127351,0.0658253
0.0291934,0.0519398
-0.0708082,-0.0291124
-0.201527,0.000289824
-0.243607,0.00840216
-0.163385,-0.0309766
-0.0837453,-0.0209669
-0.043827,0.0506702
-0.0280593,0.0496323
0.061435,0.0604441
0.160656,0.0325496
0.129149,-0.00757336
-0.0162379,0.0484903
-0.0976998,0.0605563
-0.137545,-0.000285432
-0.00974799,-0.0416236
0.0385883,-0.0436889
-0.0594259,0.0467283
-0.000286642,0.0301561
0.127916,-0.015542
0.188409,-0.0359823
0.0786379,-0.0880911
-0.0308961,-0.0285267
-0.0907644,0.106231
-0.0613412,-0.181184
0.0696356,-0.0424479
0.134018,0.0755761
0.112535,0.0331511
0.0102087,0.0600084
-0.119327,0.0840428
-0.101544,0.00343211
-0.0907207,-0.0368193
-0.118979,0.00423482
0.060221,0.0377635
0.137047,0.026436
0.0554787,-0.121407
-0.0460547,-0.256675
-0.172775,-0.0534102
-0.16856,0.156233
-0.102177,0.0973194
-0.034107,0.0219333
-0.0167122,-0.0596399
0.00786619,-0.0953945
0.00464614,0.0520925
0.0249696,0.125864
0.116823,0.092423
0.148006,0.052035
0.110858,0.0555931
0.11155,0.0221906
0.101067,-0.0276941
0.0256149,-0.0764855
-0.0628282,-0.0791125
-0.0686792,-0.00130889
-0.0640139,0.0150421
-0.0798673,-0.0387291
-0.0458869,-0.117788
-0.00490279,0.0735567
-0.0483074,0.041775
-0.0721386,-0.0352113
-0.0498446,-0.0359513
0.0145957,0.00430858
0.078464,0.0389878
0.0675997,-0.00267315
-0.0777531,0.0506778
-0.164298,-0.00969855
-0.0792014,0.00789712
0.118261,0.0538269
0.241269,-0.0333578
0.288151,-0.0516645
0.187855,0.0328501
-0.0506008,-0.0149456
-0.221475,-0.0560501
-0.135215,-0.00123317
0.0661717,0.0319949
0.185631,-0.0830232
0.0898191,-0.0139453
-0.0999954,0.0388011
-0.107142,-0.0160816
-0.0825923,0.0679252
-0.0579278,0.0698716
-0.0433901,-0.0430787
-0.0256992,-0.021721
-0.0218257,0.00920204
-0.13942,-0.0693303
-0.10316,0.000975348
-0.00744831,0.0459422
-0.0388871,0.151443
-0.0547907,0.0566091
-0.00747011,-0.0662943
0.0698249,-0.0330856
0.182797,-0.0274273
0.147441,-0.0729596
0.0402626,-0.141087
0.0415359,-0.0690404
0.0115024,-0.0832606
0.00393707,0.0360711
0.111681,0.132532
0.176415,0.11301
0.0442142,-0.110371
-0.143544,0.00852244
-0.289072,-0.0501448
-0.299452,0.017572
-0.107396,0.0373985
0.0718294,0.0421912
0.20999,0.0433188
0.270123,0.0874942
0.189714,0.0688783
0.0205067,0.0579836
-0.0330469,0.0216603
-0.0260325,-0.0529294
-0.0412491,-0.0550288
-0.0763363,-0.0281537
-0.215272,-0.0216895
-0.310211,0.107954
-0.0941266,0.154623
0.0715781,-0.0466869
0.142867,-0.0515001
0.110191,-0.124001
0.00290317,-0.041703
-0.028549,-0.0415329
-0.00625377,-0.0405316
0.0141274,-0.0362073
-0.0329329,-0.0645591
-0.0226394,0.0257258
0.0572697,0.0948402
0.178728,-0.0437804
0.260958,-0.0500516
0.182325,0.0165823
-0.0220532,-0.0324881
-0.216858,0.0367709
-0.27633,0.0729652
-0.230109,0.0388469
-0.132457,0.081596
-0.0416162,0.111257
-0.040164,-0.149427
-0.0293991,-0.0916256
0.0422571,0.00371763
0.111291,0.0219474
0.124383,-0.0698667
0.156227,0.0250181
0.240606,0.0851649
0.212918,-0.0142667
0.0856526,-0.0258752
-0.101984,-0.0124242
-0.171658,0.0426544
-0.0222327,-0.0279355
0.0381814,-0.0771054
0.0387624,-0.00924232
0.14327,0.00671029
0.172521,-0.0309317
0.0729589,0.0774508
-0.106949,0.0955303
-0.249432,-0.020418
-0.127153,0.0530275
0.0860635,0.134572
0.00788658,0.0301429
-0.0537949,-0.070826
0.0131044,0.00887451
-0.00188827,-0.00592784
-0.132692,-0.0755417
-0.130203,-0.220357
-0.0388714,-0.161202
-0.0113729,-0.167538
0.0476696,-0.0833752
0.00957668,0.216926
-0.0779314,0.148064
-0.123774,0.111126
-0.147163,0.0710397
-0.120024,-0.0138233
-0.0518376,-0.0237699
-0.0256686,-0.031736
-0.0633533,0.0285239
-0.030456,0.168771
0.061081,0.0369069
0.200676,-0.0489764
0.230207,-0.0104163
0.117034,0.0677189
0.0103805,0.038609
-0.0970228,0.00252733
-0.0549313,-0.0211079
0.157679,-0.0552559
0.252971,-0.0969343
0.208854,-0.0429656
0.0473409,-0.0179682
-0.0916889,-0.104806
-0.0569574,-0.035232
-0.0616932,0.0503477
-0.0730805,0.00577174
0.00909898,0.0105962
0.0263311,0.0282814
-0.0119407,0.0461755
-0.0754484,0.0405004
-0.132569,-0.0342928
-0.0853294,0.0107192
-0.000267143,-0.00196915
0.0221021,-0.0344958
0.0347644,-0.0667111
0.0410852,0.0618426
0.0266672,-0.00400358
0.0178031,-0.00309695
0.0178723,0.0188059
0.0169163,-0.0443192
0.00758505,-0.0240362
-0.0228185,-0.0232529
-0.042673,-0.0160243
-0.0555244,0.036159
-0.0453962,0.0519834
-0.0250788,0.03491
-0.0113647,-0.0279062
-0.00655195,-0.0686429
0.00218288,-0.0211014
0.00863968,0.0791928
0.0204911,0.0711585
0.02566,0.023514
-0.0159625,-0.0392706
-0.0590562,-0.0440304
-0.0613722,-0.0428582
-0.0286211,-0.031876
0.0231578,0.021407
0.0524057,0.0317226
0.0474208,-0.0707812
0.0660244,0.0275714
0.0872946,0.0766065
0.0389479,0.0402465
-0.0160645,-0.00526105
0.0603169,-0.0191015
0.178458,-0.00763681
0.109239,0.017217
0.0231687,0.0403146
-0.0555026,-0.0072331
-0.0950275,0.0604116
-0.0730242,-0.013614
-0.0257886,-0.0121495
0.0258185,-0.0214395
-0.00767834,-0.0905504
-0.0680132,-0.0593673
-0.127422,0.0155321
-0.137574,0.0351088
-0.0712087,0.0232319
-0.0292804,0.0196085
-0.0093065,0.0180368
0.0289106,0.0490427
-0.00613611,0.0205273
-0.0543392,-0.00489725
0.00294059,-0.00878859
0.108421,-0.010695
0.171638,-0.0161543
0.167312,-0.0227541
0.110729,-0.0537714
0.0260055,-0.0680146
-0.0380238,-0.0533169
-0.0468819,-0.0841944
-0.0642396,-0.0167661
-0.0926349,0.0639381
-0.0847771,0.0324097
-0.0809662,0.0473039
-0.0779982,0.101349
-0.102197,0.0180822
-0.0807054,0.0207031
-0.0484356,0.0438638
0.00875485,0.00914175
0.0778448,-0.0338738
0.130262,-0.0148881
0.0994005,0.0419921
0.0574859,-0.016575
0.0310658,-0.0479543
0.0114412,-0.0278644
0.0225198,-0.0371106
0.0349436,0.0207307
0.0135687,0.0426742
-0.0133621,-0.00690551
0.00620684,-0.0125532
0.066221,0.0238764
0.0825884,0.0387734
0.0521007,0.0135599
-0.0186835,0.00163242
-0.0787968,-0.00196755
-0.0682252,-0.00535678
-0.0856803,-0.00665723
-0.0555391,-0.0307396
-0.0388797,-0.0240092
-0.0370146,0.00107629
-0.0284606,-0.016216
-0.0252383,-0.0144299
-0.0106755,-0.0388511
0.0248039,-0.0226064
0.0404569,-0.0552573
0.0206767,-0.0056022
-0.0130137,0.0513019
-0.0241557,0.067912
0.00210161,0.0616945
0.0212905,-0.0506968
0.0275741,-0.0290351
0.00139027,0.0198475
0.0101231,0.0498923
0.0297974,0.101793
0.0585314,-0.0224735
0.0982246,-0.0376193
0.09553,-0.0297665
0.0950467,-0.0262176
0.0554832,-0.0336238
-0.0517759,-0.02527
-0.133266,-0.00690274
-0.151455,0.0133056
-0.134633,-0.00126744
-0.0618621,-0.00769812
0.0135915,-0.000550267
0.0422812,0.0191072
0.018054,0.0168903
-0.00315665,-0.0132389
-0.0131516,-0.00872228
-0.0250371,-0.0167399
-0.00393688,0.00495662
0.00478849,0.0754685
-0.0193307,0.00739386
-0.0175128,-0.0716674
0.0152813,-0.0134143
0.0382981,0.0359294
0.0413876,-0.023642
0.0294728,-0.0358471
0.0222726,0.0521199
-0.00399261,0.0263709
-0.024476,-0.0292579
-0.0222435,-0.0178661
-0.00248859,-0.0248963
0.0204125,-0.0406182
0.0117737,-0.026147
-0.0130976,0.0429152
0.0437466,0.0532734
0.133511,0.0259048
0.126551,0.0070918
0.0401951,-9.2e-05
-0.057199,0.0259923
-0.0902747,0.0568823
-0.0468678,0.02378
-0.0083226,-0.00213883
-0.0209274,0.0137209
-0.0561615,-0.00561151
-0.058973,-0.0194682
-0.0415993,-0.0196976
-0.00443083,-0.00136774
0.0348871,-0.00328474
0.0377697,-0.0148764
0.0154643,-0.0196661
-1.09e-05,-0.022757
-0.00170957,-0.0191862
0.0198054,-0.00526174
0.0201729,0.00751673
0.00883059,0.00908173
0.0140467,-0.0245037
-0.00901488,-0.0177298
-0.0186152,0.00440497
0.01663,0.000922954
0.0544417,-0.00114832
0.0869381,-0.0108238
0.0602189,-0.0128789
-0.0072277,0.00725667
-0.0539598,0.00992324
-0.0898784,-0.00636607
-0.0988633,0.0109153
-0.0607901,0.0102139
-0.023798,0.00151702
-0.016782,-0.00108293
-0.0177119,-0.0102502
-0.0257082,0.00421024
-0.0286832,0.00912856
-0.00851379,-0.0266765
0.0323361,0.0225835
0.0576704,0.0372387
0.0647802,-0.000353717
0.036594,-0.0566711
-0.0121982,0.0279028
-0.0464378,0.000647682
-0.0651406,0.00428134
-0.0501916,0.0336799
-0.00199656,-0.0138466
0.0331605,-0.0202081
0.0176814,-0.0131035
0.0199619,-0.0433103
0.0382885,-0.01974
0.0350936,0.0316304
0.0416988,0.0164315
0.0547956,0.0646781
0.0160684,0.0610998
-0.0353457,0.0645905
-0.0472174,0.032803
-0.0390565,-0.0120157
-0.00159853,-0.00664057
0.0540825,-0.044686
0.106881,-0.0288588
0.0834784,-0.00936089
0.0111035,-0.00166636
-0.0680692,-0.0159936
-0.10612,-0.0498397
-0.0580944,-0.0670702
-0.0245684,-0.0881936
-0.032153,-0.0937796
-0.0358916,-0.0435625
-0.0178589,0.0352352
-0.00350139,0.0459924
0.00994508,0.0442088
0.0211408,0.0755476
0.0240838,0.0711201
0.0218043,0.0341657
0.0189175,0.0345604
0.0122185,0.0242938
0.00129141,-0.00502027
-0.0344079,0.0150329
-0.0468044,0.0222442
-0.0270663,0.00513671
-0.0157391,-0.00433174
-0.0103868,-0.0327498
0.00411525,-0.0218233
0.0263982,0.0162787
0.0652,0.0469527
0.108418,-0.0132296
0.13669,-0.0494198
0.104747,-0.0205531
0.0444268,0.00151648
-0.020729,-0.05985
-0.102744,-0.0641556
-0.131724,-0.028919
-0.0723336,-0.0036571
-0.0634648,0.00353976
-0.0327168,0.0190092
0.00569516,0.0462427
0.00804387,0.0498462
0.00301558,0.00737089
0.00112382,0.0083731
-0.000265676,0.0132332
-0.00735041,-0.0382294
-0.0203028,-0.0354671
-0.0257159,-0.0180071
-0.0116945,-0.0134487
0.00969624,0.0221423
0.023473,-0.00563917
0.0502936,-0.0127729
0.0470432,-0.0265901
0.0166855,-0.0474294
0.0166481,0.0358163
0.0170604,0.0844335
0.00869477,0.0398082
0.0096908,0.000800412
-0.0168643,0.0173667
-0.0407501,0.0206918
-0.0325513,-0.0407188
-0.000158902,-0.0233063
-0.00211499,0.0100258
-0.0176607,0.0252174
-0.0195938,0.0534031
-0.0193051,0.0518573
-0.0172875,-0.0433735
-0.0124374,-0.0879869
0.0245859,-0.0254463
0.100874,-0.0279901
0.144627,-0.0183034
0.102988,0.0388876
-0.0157953,0.0415032
-0.140916,-0.00177228
-0.157091,-0.00220758
-0.0584458,0.00115075
0.00114713,0.0331895
0.0104944,0.00374928
0.0419193,-0.0199209
0.0658571,0.00501687
0.0321594,0.00530391
-0.0165571,-0.0245905
-0.0376356,-0.0392136
-0.0336755,-0.0407899
-0.0258844,-0.0152394
0.0170439,0.0170856
0.0591918,0.015337
0.0619461,-0.0727265
0.0234168,-0.0334882
-0.0352752,0.0846446
-0.0543035,0.0575278
-0.061792,0.00175263
-0.027318,-0.0226128
0.0172338,0.0115324
0.0320133,0.0215018
0.0477692,-0.00137655
0.0661376,0.0121337
0.0450729,0.0232286
-0.0193751,0.0507619
-0.0562901,0.0138254
-0.0519013,-0.0131697
-0.0561266,-0.016091
-0.0373286,-0.0118845
-0.000350982,0.00255834
0.0228727,0.00988514
0.0199938,-0.0115757
0.0471154,0.00602505
0.0446486,0.00509874
-0.00841881,-0.0299968
-0.0123082,-0.0126481
0.0164304,-0.0112426
0.0343852,-0.0209903
0.0257223,-0.0180572
-0.0281873,0.000837228
-0.0599445,0.0150401
-0.0443226,-0.00677342
-0.010081,-0.0115064
0.0126916,0.013081
0.0210375,-0.0120876
0.0155882,0.00101307
0.00109411,-0.00912108
-0.0147141,0.0010939
-0.0108733,0.00769318
0.0119432,0.00517811
0.0262579,0.0193594
0.00107485,0.00162827
-0.0206392,-0.0127335
-0.035945,-0.00702654
-0.0400585,0.00961125
-0.00513481,0.0179308
0.0537427,-0.0112565
0.0869237,-0.0166357
0.0673998,0.00112008
-0.00240084,-0.0010529
-0.063033,-0.0208315
-0.0587358,0.00870698
-0.0494863,0.00612499
-0.0320239,0.00202271
-0.00713204,0.0239109
0.0568727,0.0231686
0.108468,-0.0156986
0.048438,-0.0467677
-0.0294308,-0.0775929
-0.0588324,-0.00398019
0.00833865,0.119919
0.0771375,0.107925
0.039714,-0.0174676
-0.0216751,-0.0678105
-0.0680148,-0.0318293
-0.104206,0.0055655
-0.0812017,0.0272837
-0.0159468,0.0341154
0.0211676,0.0188114
0.0283233,0.00555453
0.0181887,-0.00751177
-0.00135299,-0.0174146
-0.0141438,-0.022723
-0.0123341,-0.00753649
-0.00135976,-0.00662411
0.0152861,-0.00864333
0.0147841,-0.0268809
0.0140645,-0.0329496
0.00810106,0.000424626
-0.00770731,0.0374756
-0.0175951,0.0161685
-0.0129048,-0.00802093
-0.00248898,-0.00765845
0.0105025,-0.00141327
0.0154969,0.00563616
0.0126549,0.00824099
0.00928565,0.00827025
0.0163508,-0.013295
0.015611,-0.0789035
0.00303417,-0.0212072
0.00758752,0.0300827
0.0277886,0.0146149
0.0292453,-0.047057
0.044653,-0.0304104
0.0509607,-0.0292978
0.0179628,-0.0324801
-0.0184434,0.0132632
-0.0600313,0.00624472
-0.00752876,-0.0182421
0.0574497,0.0644133
0.038385,0.10827
0.0116486,0.0679601
-0.0597044,0.0506289
-0.102124,0.00666289
-0.0651287,0.00569481
-0.0572481,-0.00206533
-0.0502475,0.0188092
-0.0472339,-0.00394974
-0.0421278,0.00467893
-0.0327318,0.0168242
-0.0272558,0.00169735
-0.00270871,-0.0120136
0.0747705,0.00506149
0.158541,-0.0188864
0.142438,-0.0326639
0.0498986,-0.0351675
-0.0384798,-0.0218448
-0.0530447,0.000933788
-0.0223619,-0.0119609
-0.0117333,-0.0171216
-0.00782983,-0.00758098
-0.00559917,0.000774455
-0.00242097,-0.00908157
-0.00375271,-0.0152978
-0.0142189,0.0024265
-0.0205073,0.00881091
-0.0253549,0.0108882
-0.0223339,-0.00112371
-0.00293288,-0.0146827
0.0231186,-0.0324074
0.0465461,0.0076464
0.0456711,0.055817
0.0284976,0.0375848
0.0201405,-0.00622103
0.0252367,-0.0497073
0.0178711,-0.00250619
-0.00228587,0.0243652
0.021326,0.0138185
0.0159246,-0.00167248
-0.0158746,-0.0147327
-0.019253,-0.00669702
0.00230122,0.0243803
-0.00555272,0.0300632
-0.0382751,-0.0453631
-0.0348788,-0.0530227
-0.000897742,0.00792814
0.0358023,-0.0216093
0.0128475,-0.0183921
-0.053647,-0.0652314
-0.0229562,-0.123821
0.0194282,-0.0348868
-0.0217224,0.00413679
-0.0756083,0.0264121
-0.0936067,0.132014
-0.0611955,0.109071
0.0103634,0.0585813
0.0737582,0.0320726
0.0826556,0.014557
0.0375799,0.0218557
0.00269299,0.020251
-0.0201777,0.0107384
-0.0169925,0.0128817
-0.0099269,0.0135792
-0.00826756,0.00237011
-0.00147227,-0.00761342
-0.00274871,-0.0155738
-0.000721559,-0.0208287
0.00572685,-0.0222545
0.0116248,-0.0201557
0.0192214,-0.0219833
0.0201976,-0.0192324
0.00913644,-0.0134427
-0.0010178,-0.0122611
-0.00724706,-0.0120702
-0.0114146,-0.00830412
-0.00781066,-0.0178865
0.000442782,-0.0313415
0.00337623,-0.0255684
0.00569167,0.00185355
0.0162754,0.0416911
0.0179096,0.0296589
0.0251558,0.00727432
0.040206,0.0330394
0.014912,-1.8e-05
-0.00428854,-0.00993126
0.000477339,-0.0153764
0.00759594,0.00925531
0.0135078,-0.0178874
0.0099871,-0.0598275
0.00104414,-0.0314843
-0.00611675,0.0542611
0.0120242,0.0688617
0.00483625,0.0322789
-0.0334577,-0.0105505
-0.0532006,-0.0169616
-0.0785547,-0.0215008
-0.0751658,-0.0147231
-0.0460892,-0.0148662
-0.0417187,0.0100526
0.0013386,0.016495
0.020798,0.00965496
0.013753,-0.00458232
0.0219851,-0.0328399
0.0729304,0.00252961
0.0550812,0.00198134
0.0409142,-0.00710709
0.019558,-0.00948746
0.00419637,0.00503621
-0.00321339,0.00808784
-0.0107551,0.0121356
-0.0179434,0.0246046
-0.0204629,0.0284222
-0.0149352,0.0183309
-0.00559505,0.0061304
0.00140388,-0.00360332
0.00641591,-0.0105473
0.00892259,-0.0159874
0.0107789,-0.0183037
0.0135069,-0.021821
0.0111198,-0.0175182
0.000500479,-0.00333846
-0.00746958,0.00653113
-0.00981747,0.00645765
-0.0132496,0.0109408
-0.014129,0.00594878
-0.0180912,0.000764781
-0.0286741,0.0153314
-0.0326168,0.0203293
-0.0278598,-0.00721528
-0.0130741,-0.0542442
0.00845266,-0.10362
0.059519,-0.118514
0.133249,-0.0681986
0.17146,0.00329015
0.145907,0.072506
0.10949,0.0852092
0.0680171,0.0661176
-0.0465005,0.0344722
-0.18269,0.0363167
-0.251523,0.01038
-0.169759,0.0652241
-0.0918483,-0.0249085
-0.0201985,-0.0129379
0.0357139,-0.00841606
0.0302685,0.0630241
0.0157756,0.0420206
0.0115893,0.00976363
-0.018205,0.0216021
-0.0444616,0.00122174
-0.0241528,0.0028353
0.000900838,-0.00804715
0.0199453,-0.0321383
0.0323799,-0.0275311
0.0344286,-0.0178035
0.0267184,-0.0185254
0.0268677,-0.026376
0.0379082,-0.0273367
0.0358883,-0.0188083
0.0291639,-0.00924316
0.011774,0.00153945
-0.00483117,0.0117193
-0.0164741,0.0173267
-0.023076,0.0156418
-0.0261873,0.0122388
-0.0266264,0.00957752
-0.0228291,0.00341437
-0.0173922,-0.00525338
-0.0138389,-0.012086
-0.0129661,-0.0170104
-0.0149216,-0.0104301
-0.0146878,-0.00241627
-0.00851293,-0.00573724
-0.00189552,-0.00943512
5.72e-05,-0.00415799
0.00895908,0.000796694
0.0560384,0.00801787
0.132247,0.0159027
0.171027,0.0297401
0.151095,0.0281298
0.109306,0.0174851
0.0643075,0.00454976
-0.00301224,-0.0333233
-0.0399752,-0.0829098
-0.0693502,-0.0588338
-0.145233,-0.0166496
-0.197868,-0.0842851
-0.107748,-0.103973
-0.0521891,-0.045548
-0.0525045,-0.037381
-0.0486416,0.0323879
-0.0247738,0.0316664
0.00259087,0.0909142
-0.0386687,0.153976
-0.0916436,0.0921774
-0.043029,0.0821597
0.0224012,0.0488798
0.0450016,0.0505702
0.0416062,0.0239159
0.0508622,0.00661378
0.0575115,-0.00837704
0.0542273,0.00153373
0.0499654,0.00609306
0.0387248,-0.0104791
0.0362001,-0.017068
0.0416356,-0.0317728
0.0395092,-0.0325153
0.0333875,-0.00241957
0.0112743,-0.0172788
-0.0101684,-0.0696991
-0.0213034,-0.0767612
-0.0385936,-0.0265475
-0.0457326,-0.00335821
-0.0367622,0.0140484
-0.0268287,0.0259929
-0.0180126,0.0133991
-0.00669995,-0.0113275
-0.00552212,0.00965542
-0.0124377,0.00373642
-0.0108427,-0.027036
-0.00329144,-0.00336546
-0.000935381,0.00666666
-0.00253566,-0.0337136
0.002493,0.000377877
0.00366084,0.00559053
0.00197866,0.00591479
0.0165402,0.0589083
0.0486469,-0.0406834
0.0508784,-0.0656097
0.029993,-0.0229992
0.0309738,0.0763708
0.0111942,0.0394949
-0.0198452,0.0254423
0.00684974,0.0223769
0.0651759,0.0130718
0.0925512,0.00194043
0.0394102,-0.00657782
-0.0892655,0.00155804
-0.161555,0.00760295
-0.0879206,-0.00751116
-0.0271523,-0.0308607
0.0135616,-0.0415764
0.0341212,-0.0230474
0.0218933,0.00258806
-0.0119805,0.0194559
-0.0532391,-0.0151076
-0.0573808,-0.0321976
-0.0425866,-0.0102197
-0.0197456,-0.0205376
0.0126531,-0.0299373
0.0286185,-0.0162686
0.027944,0.0317868
0.0302903,0.0313554
0.031994,0.0217565
0.0287323,0.0438629
0.024823,0.0207234
0.0262245,0.00531086
0.0189172,-0.00927017
0.0103721,-0.0395452
0.00871405,-0.00882228
0.00434747,0.00605867
-0.0114266,0.0152668
-0.0293086,0.0221834
-0.038577,0.00784781
-0.0377051,-0.0186319
-0.0335639,-0.0276579
-0.0233663,-0.0359178
-0.0119998,0.00684863
-0.00900952,0.0690081
0.002284,0.0299027
0.0154256,0.00236511
0.0194158,-0.00146967
0.0201183,-0.0042198
0.0323582,-0.0173529
0.0471916,-0.00725713
0.0738231,0.00401955
0.0657147,-0.00574302
0.00279245,-0.00256751
-0.0539126,-0.0281375
-0.0510321,0.0386477
-0.0652868,0.0278917
-0.0669524,0.00668917
-0.0199056,0.0280051
0.0318405,0.00238297
0.052066,-0.0242274
0.0475329,-0.0270052
0.0667344,-0.00640945
0.0955807,0.022608
0.092677,0.0387137
0.0645966,0.0478755
-0.0223004,0.00219594
-0.0811405,-0.0205619
-0.115513,-0.0438454
-0.0971757,-0.0451612
-0.0582841,-0.0200614
-0.0507015,-0.00312727
-0.0555713,0.0280846
-0.0532624,0.00226623
-0.0355572,0.00527643
-0.0243496,-0.0121963
-0.00698555,-0.0159338
0.0134369,-0.0304295
0.0464778,-0.0350734
0.0652672,-0.0212702
0.0529178,0.0358461
0.0166167,0.0284844
-0.0137426,-0.00617467
0.0101847,-0.0205899
0.0331479,-0.00352046
0.0415284,0.0202475
0.0528074,0.00929655
0.0450706,0.00808472
0.0062681,0.0212147
-0.0341474,0.0106037
-0.0439298,0.00138719
-0.0195859,0.0136748
0.0172131,0.0189297
0.0417424,0.0313827
0.0310939,-0.0278733
-0.0029514,-0.0387127
-0.0391136,-0.0262717
-0.094791,-0.0202226
-0.110366,-0.00168417
-0.0309581,-0.00523771
0.064658,-0.0137994
0.151686,-0.0459956
0.202257,-0.0776993
0.133104,-0.0239178
-0.0111567,0.0696651
-0.153929,0.112201
-0.203398,0.0403489
-0.14045,-0.0175295
-0.0817312,-0.0259871
-0.0347618,0.0261485
0.0248202,0.0202338
0.0833591,0.0201039
0.0971725,0.0131175
0.0652917,0.00708582
0.0192598,-0.00650362
-0.0456904,-0.00149246
-0.0852727,0.0019472
-0.0560735,-0.0186732
-0.0185283,-0.00846504
0.0136531,0.0209087
0.0351919,0.00457327
0.0298668,-0.00542163
0.0120661,-0.0180176
0.0117943,-0.017991
0.0119771,-0.00961004
0.0129339,-0.00584812
0.0131778,-0.0206353
0.0119881,-0.0193863
-0.00239711,0.00472967
-0.0183896,-0.0183605
-0.0126918,-0.0203339
0.00727519,-0.0205794
0.0366253,-0.0164648
0.0455541,0.00113784
0.0460816,-0.00959681
0.0563705,0.0295528
0.0747141,0.0564718
0.0635737,0.0281793
0.0244888,-0.0140875
-0.0593614,0.0154839
-0.159852,0.0197285
-0.161181,0.0346091
-0.061479,0.0444317
0.0308451,-0.0168791
0.0654293,-0.035121
0.0603784,0.000243622
0.0345742,0.0038004
-0.0160232,0.00933857
-0.0652397,-0.000938742
-0.0808037,0.0111013
-0.0815329,0.0264633
-0.0580296,-0.0434698
0.00261751,-0.044108
0.0936399,-0.0227043
0.133293,-0.000221863
0.072777,-0.00671157
0.000188518,-0.0134794
-0.0437985,0.00762269
-0.0390823,0.0246913
-0.0317771,0.0107357
-0.0250773,-0.0193789
-0.00583798,-0.0227379
0.0101904,-0.0177868
0.00656236,0.00940349
0.0077113,0.0311039
0.0270968,0.0361314
0.046825,0.0386563
0.0430417,-0.0271308
0.0252733,-0.0341216
-0.00111986,-0.0291195
-0.0426963,-0.0164794
-0.0523799,-0.0196648
-0.0124263,-0.000624309
0.0233703,0.00863257
0.0205645,0.00195044
-0.0185131,-0.0118833
-0.015855,0.00721987
0.0457113,0.00439618
0.0948603,0.00525442
0.0618214,0.0234807
-0.0118485,0.0378636
-0.0445074,0.0242186
-0.0430646,-0.021838
-0.0491368,-0.0312764
-0.0752161,0.0130076
-0.0683497,0.0206831
-0.0310521,0.0255428
-0.0138039,0.0391849
-0.0103845,-0.00205159
0.0115298,-0.0108283
0.0131626,-0.0106662
0.00467093,-0.0183133
-0.00132302,-0.0105162
0.0130192,-0.051807
0.0227369,-0.0878101
0.0196969,-0.027113
0.00497628,0.0678135
0.00485093,0.0636393
0.0345474,0.0342491
0.0500348,0.0247081
0.0369423,0.0144533
0.02164,-0.0309948
0.0153745,-0.0413886
-0.00251773,0.0236105
0.0158861,0.024834
0.023946,0.0152235
0.0222708,-0.0235798
0.0151009,-0.0940144
-0.0366492,-0.069196
-0.0745836,0.0262516
-0.0320611,-0.0467235
0.0470104,-0.0320894
0.102934,0.0573463
0.121021,0.117492
0.0369776,0.0698277
-0.100236,0.0111039
-0.200043,-0.0102618
-0.173434,0.00429258
-0.0689874,0.0357315
-0.0147501,-0.00566275
-0.00570617,-0.0349147
-0.00981514,-0.00683272
-0.00102941,0.0162073
0.0105536,0.000109756
-0.00476225,-0.00755061
-0.0102473,-0.0219753
0.000694677,-0.0348583
0.0175602,-0.0377625
0.0388443,-0.0182015
0.0505406,-6.64e-05
0.0480639,0.022881
0.0321063,0.0298248
0.0183456,0.012957
0.0120355,0.00182262
0.0104533,-0.00560042
0.0258219,-0.0183825
0.0404577,-0.0369883
0.0556328,-0.020823
0.0632524,0.0241366
0.0342757,0.0171964
-0.0157573,0.0165245
-0.0394175,0.0158305
-0.073032,-0.0140628
-0.0724328,-0.00951273
-0.03545,-0.032335
0.0306747,-0.060527
0.05598,-0.0313539
0.0572301,0.027548
0.0959683,0.0539644
0.0857154,0.0339939
-0.0073833,0.0053944
-0.0810138,-0.0161602
-0.0945659,-0.0439908
-0.0576543,-0.00328724
-0.0231679,0.076469
-0.059008,0.0671215
-0.057805,-0.0330093
-0.00286699,0.0269696
0.0043757,-0.000971047
-0.00142611,-0.0341882
-0.00368251,0.0167297
0.00794686,0.0389484
0.0183622,-0.010814
-0.000221944,-0.033841
-0.030555,-7.27e-05
-0.0274306,-0.0123892
-0.0130092,-0.0335658
0.0103266,-0.0139584
0.0227373,0.0140785
0.0161483,-0.00125568
0.0155667,-0.0107469
0.0198254,0.00493033
0.017209,0.00953388
0.00767736,0.0142935
-0.00180002,0.0109836
-0.00540399,0.00234101
-0.00888797,-0.00772924
-0.00959197,-0.0074287
-0.0137079,-0.00013446
-0.0144758,0.00178292
-0.0148559,0.00538166
-0.0115184,0.00146013
-0.0027242,-0.00545827
0.0242416,-0.0027267
0.068549,0.00446534
0.0990686,0.0015899
0.086983,-0.00187095
0.0436174,0.00257724
-0.0130189,0.0121327
-0.0391345,0.00869277
-0.0199601,-0.0192782
-0.027099,-0.0524776
-0.0216099,-0.0557059
0.00166533,-0.0216442
-0.00729879,-0.0241221
-0.00649572,0.0683037
-0.0217072,0.0612184
-0.0612556,-0.000428726
-0.082266,-0.051568
-0.0344604,0.00205314
0.0568208,-0.00861163
0.0569169,-0.0121652
0.00313769,0.0348909
-0.0297386,0.0169958
-0.0246726,-0.0118076
-0.00725843,0.0559717
-0.0102114,0.057925
-0.00539349,0.0204381
0.0137256,0.0151833
0.0245571,-0.0058369
0.0243697,-0.0126488
0.0141905,0.00676204
-0.00113917,-0.00312082
-0.0069659,-0.00897463
-0.00770012,-0.02571
-0.00524051,-0.0250627
-0.00550478,-0.00533818
-0.0029041,-0.0165197
0.00772817,-0.0237607
0.0139804,-0.0237316
0.0132424,-0.0151576
0.00766526,-0.00462955
-0.00536689,0.00223391
-0.0132923,0.00430512
-0.0153697,0.00879409
-0.0133303,0.0090505
-0.00946665,0.00367557
-0.0120773,0.00225686
-0.018967,0.0034355
-0.0220411,0.00629104
-0.0192775,0.0147403
-0.00594833,0.0119923
0.015757,0.000522261
0.0496199,-0.00394406
0.105392,-0.00239995
0.161701,0.00168946
0.164049,0.00143957
0.075464,0.00100332
-0.0506583,0.00696563
-0.105622,0.00156901
-0.100818,-0.0129239
-0.0404199,0.0459326
-0.0111579,-0.00859698
-0.0189016,0.0169073
-0.0920309,-0.00495025
-0.0558115,-0.121474
-0.0193652,-0.143136
-0.0372664,-0.0382869
-0.00958422,0.0723623
-0.0278572,0.0329093
-0.0859915,0.00542188
-0.0715599,0.0564436
-0.00575201,0.0615044
0.0289566,0.0519394
0.0420577,0.0270651
0.0297822,0.000536257
0.0343691,-0.00848936
0.0416616,0.0320336
0.0394807,0.0471279
0.0374171,-0.00458451
0.0396922,-0.0290986
0.0325269,-0.00881668
0.0156903,-0.00185624
-0.00267375,-0.00864182
-0.0107674,-0.00636872
-0.0125912,-0.0127648
-0.0122132,-0.0270706
-0.0150022,-0.0218143
-0.0222389,-0.0194638
-0.0213863,-0.0235414
-0.00823244,-0.0232962
0.000554935,-0.0118583
0.0033586,0.00239525
-0.00117249,0.00839079
-0.00828692,0.00948462
-0.00481188,0.0083166
0.00493853,0.00677181
0.0103333,0.00944196
0.00691219,0.0139904
-0.00433022,0.0126174
-0.0197014,0.0113624
-0.0274875,0.00460188
-0.0179725,-0.00484523
0.0199181,-0.00308506
0.0892874,-0.00184218
0.137187,-0.0214219
0.141213,-0.05291
0.0706249,-0.038946
-0.0300426,-0.00422722
-0.0845017,0.0536656
-0.0605968,0.0622142
-0.0305249,0.045772
-0.0308804,-0.0556292
-0.00533651,-0.00966786
0.00580919,-0.0362178
0.0223293,-0.0111115
0.0174868,0.0227888
-0.056076,0.0981227
-0.130785,0.0477062
-0.106222,-0.0148911
-0.0477558,-0.0262896
-0.00592201,-0.0408598
0.00890481,-0.0292862
0.000491154,0.00146096
-0.00735939,0.0347942
-0.00408433,0.0455003
0.0058307,0.0129404
0.0209319,-0.0249085
0.0376705,-0.0238901
0.0425124,-0.0109875
0.049226,-0.00926374
0.0388175,-0.00120713
0.0158362,0.00219376
-0.00347761,0.00613966
-0.00946875,0.0032443
-0.000284053,-0.00503358
0.00472955,-0.00925629
-0.00858316,-0.00882911
-0.027156,-0.00892878
-0.0295239,-0.01297
-0.0155155,-0.0115118
-0.0019929,-0.000493432
0.00166665,0.00702504
-0.00564942,0.0100712
-0.0136072,0.00948614
-0.00553151,0.0024905
0.0104581,-0.0106901
0.0123023,-0.00924041
0.00872704,0.00846175
0.0332059,-0.00269293
0.0650764,-0.00892091
0.102813,-0.0643239
0.110589,-0.111302
0.103116,-0.000113387
0.0301397,0.026839
-0.0402655,-0.0302373
-0.0247333,-0.0613583
0.00466069,0.0531434
-0.0203026,0.146825
-0.0694147,0.0736339
-0.105962,-0.0191003
-0.0661075,-0.00264603
-0.0171037,0.0160515
-0.0364457,0.0180743
-0.0916646,0.0185371
-0.124464,0.0249893
-0.0625323,-0.0199567
0.00113382,0.0286444
0.0115935,0.0408027
0.0103674,0.0114855
0.0144624,-0.00578422
0.013835,-0.012226
0.0178334,-0.0191588
0.0502141,-0.0220634
0.0368891,-0.0144299
0.0178099,-0.0155224
0.0336357,-0.0180633
0.0240681,-0.0154217
0.0114269,-0.0158054
0.0276294,-0.0197264
0.0413702,-0.0170814
0.0388944,-0.00409865
0.0165328,0.010322
-0.0107143,0.0240701
-0.0267139,0.027702
-0.0258728,0.0129819
-0.0170471,-0.00509942
-0.0190297,-0.00716053
-0.0282244,-0.00828398
-0.0353442,-0.0131289
-0.0259683,-0.0157777
-0.011699,-0.00193515
-0.00401254,0.00237498
-0.00178807,-0.00559397
-0.00437716,0.00542115
-0.00555256,0.00373349
0.0104484,-0.0124323
0.0430727,-0.0207864
0.0817137,9.2e-05
0.120201,0.0474202
0.122741,0.0318258
0.0886762,-0.0141823
0.0532114,0.0257509
0.00956922,0.0186468
-0.065515,0.0311667
-0.0697637,-0.00174356
0.00362309,-0.0905741
-0.0231681,-0.168631
-0.133255,-0.118211
-0.143265,-0.0716573
-0.0249844,0.0255337
-0.00455964,0.121113
-0.0193864,0.126079
-0.0124693,0.0662889
-0.0108368,0.0610684
-0.0208753,0.0608732
-0.0581303,0.0195804
-0.0738732,0.00313585
-0.0496513,0.0252379
0.00944178,0.00615931
0.052216,-0.0259403
0.0481932,-0.0117574
0.0255121,-0.00595695
0.0178446,-0.0149725
0.0277163,-0.00670605
0.0296327,-0.00307851
0.0290705,-0.000539782
0.0312558,0.0117445
0.0263629,-0.0126271
0.0238165,-0.0338178
0.0239851,-0.0251768
0.0194052,-0.0186693
0.00301811,-0.0148409
-0.015302,-0.0101899
-0.0255664,-0.00257315
-0.0214206,-0.00294016
-0.00985023,-0.00886514
-0.00773976,-0.00664458
-0.0130684,-0.00314228
-0.0152235,0.000904304
-0.00579487,0.00630307
0.00892516,0.0140376
0.0160273,0.0120875
0.0130828,0.00122117
0.00196057,-0.00539275
-0.00151397,-0.0152841
0.0104221,-0.0113355
0.0234984,0.00230905
0.0253184,-0.00958571
0.0175924,0.000428528
-0.0122527,0.0230102
-0.0319061,0.0135493
0.0169308,-0.0205907
0.0870177,-0.0468703
0.101487,-0.0277163
-0.00849186,0.0146982
-0.136073,0.0198433
-0.100346,-0.0112776
0.0352583,0.085382
0.0756486,0.0112191
0.0578061,-0.0572183
0.032644,-0.0494092
-0.0169251,-0.0164925
-0.0313064,0.00163152
0.00067558,0.0482882
-0.00704264,0.0619817
-0.0649196,0.0217379
-0.113986,0.0143648
-0.109883,0.0373016
-0.0601877,-0.00626243
-0.0145577,-0.000698129
-0.0106243,0.0193034
-0.0124534,-0.00818591
0.0157827,0.00840615
0.0272798,0.0287055
0.0278383,-0.0123357
0.039435,-0.0143576
0.0469474,-0.00788822
0.0441048,-0.0105816
0.0353983,-0.0276503
0.0222409,-0.0270398
0.00950667,-0.0123564
0.00189114,-0.0116617
-0.00308268,-0.00260084
-0.0062603,0.0199274
-0.0010914,0.0258835
0.0218418,-0.00239158
0.0369557,-0.0304312
0.0297932,-0.0210426
0.0121331,-0.013322
-0.00619437,-0.00896364
-0.050206,0.00350893
-0.0624105,0.0179128
-0.0364697,0.0157158
-0.0109889,-0.00600287
0.0103794,-0.0201598
0.0411367,0.0339582
0.0559277,0.0266052
-0.0100552,-0.0569655
-0.0826727,-0.0290101
-0.0202257,0.00429062
0.067318,-0.0094931
0.0971362,-0.0232537
0.0556646,-0.00187895
-0.0157397,0.0082489
-0.0856108,0.0141706
-0.101617,0.0115885
-0.0306419,0.00744209
0.0213174,0.00968467
0.044536,0.0400901
0.0468079,0.0330063
0.0331403,-0.0136728
0.00167405,0.0147414
-0.0499601,-0.00283821
-0.045556,-0.00265587
-0.00486973,0.00220602
-0.006613,-0.00321046
-0.0181561,-0.017188
-0.0138472,-0.0408803
-0.00383288,-0.0511266
-0.000472317,0.00529598
-0.00980854,0.0404124
-0.0236539,0.00409476
-0.0174729,-0.0116644
-0.0113356,-0.020205
0.011239,0.0195746
0.021634,0.0324107
0.0303471,0.013946
0.0281908,-0.0335584
0.0114913,-0.00728347
0.0109329,0.0114716
0.0184464,-0.0144691
0.0545133,-0.041108
0.147661,0.0335321
0.146983,0.0693229
0.0467915,-0.0308365
-0.0599356,0.0126341
-0.143919,0.0617035
-0.133015,0.0295982
-0.0509951,-0.0523316
-0.0386149,-0.0364024
-0.0477828,-0.00150449
-0.0313281,-0.00150892
0.0272578,-0.0116515
0.0416302,-0.0171281
0.013732,0.0574768
-0.0230215,0.0580438
-0.051378,-0.0620274
-0.0343857,-0.0427216
-0.0206732,0.0151175
-0.00436091,0.00584707
0.0127978,-0.0118203
0.0118611,0.000816867
0.0300336,0.0344658
0.0392066,0.00220281
0.0316568,-0.0302765
0.0459218,-0.0183114
0.125021,0.0106367
0.147875,0.00168518
0.0728895,-0.0140633
-0.0298735,-0.00562398
-0.117369,-0.0140725
-0.105863,-0.0273565
-0.0632402,0.0225301
-0.069294,0.0224329
-0.0503028,0.0102928
0.00515316,0.0234922
0.00348951,0.0345213
0.0118089,0.0438668
0.00268337,-0.00745129
-0.0429217,-0.071441
-0.0349448,-0.0277571
0.0092217,-0.0192082
0.0244802,0.0342071
0.00315974,-0.00524936
0.00580502,-0.0105382
0.0360846,0.000366903
0.0545408,0.0100408
0.0378351,-0.0173405
0.0138803,-0.00811888
-0.0108066,-0.0343124
-0.0236434,-0.0347138
-0.010784,0.00438039
0.00749705,0.0323248
0.0351094,0.0443801
0.0392064,0.0225852
0.0191584,0.0057537
-0.0288407,-0.0310158
-0.0638787,-0.0200763
-0.0415646,0.0364746
-0.0200159,-0.0126651
0.00299916,-0.000729778
-0.0047204,0.0273763
0.00515955,0.00367655
0.0155363,-0.0287669
0.0169043,-0.0253912
0.0403102,0.0332524
0.0635669,-0.0187783
0.0150603,-0.0189954
-0.0409321,-0.0611994
-0.0416848,-0.0271571
0.00140866,0.0810621
0.0531745,0.0541083
0.0531723,0.0205991
-0.0233896,0.0169815
-0.114582,0.00703
-0.111364,0.00824746
-0.0137988,0.0431268
0.0903798,0.00300007
0.0999954,-0.00996004
0.0239588,-0.0215693
-0.0615152,-0.0869743
-0.0793062,-0.0473387
-0.0435011,0.00976889
-0.00903712,-0.00799337
0.0363381,0.0253921
0.0595487,0.0648822
0.0430372,0.0106183
0.0117456,-0.0316126
-0.0379346,-0.030616
-0.0488481,-0.0458243
-0.0198082,-0.0420701
0.0175649,0.0125811
0.00134235,0.0620376
-0.0346338,-0.0430899
-0.0157965,-0.00877762
0.00469434,0.0655055
0.000698324,-0.0402694
-0.0158578,-0.00579596
-0.0157633,0.0268819
0.0270439,0.034772
0.059766,0.0656518
0.0742988,0.0240157
0.0784642,0.0136368
0.0511987,0.0273449
0.00774254,-0.00771893
-0.0294292,-0.00560971
-0.0609563,0.00706017
-0.0693234,-0.0394249
-0.061049,-0.00143344
-0.0228647,-0.000406714
0.0123327,-0.0636157
0.0272767,-0.0245375
0.0293127,-0.0115721
0.0399555,-0.00104498
0.0569353,-0.00102131
0.0613593,-0.0272195
0.0319833,-0.0176738
-0.0332964,0.00719086
-0.0373704,0.055191
-0.0607509,-0.00818541
-0.0978651,-0.0290416
-0.0909849,0.0412721
-0.0638376,0.0659187
-9.1e-05,-0.0198997
0.0829635,-0.0478231
0.156226,-0.0351608
0.126609,-0.0294238
0.0200575,-0.00267807
-0.0590856,0.0888137
-0.104441,0.0308892
-0.0932019,-0.00662771
-0.0402753,0.00202187
0.0216719,-0.0117625
0.0478475,-0.00149939
0.0291235,-0.00742506
0.00463514,-0.0342338
-0.00709752,-0.0207281
-0.0104085,-0.0229113
-0.0017622,-0.0118174
0.00276193,0.00158693
0.00403489,-0.0346956
0.00851054,-0.0389147
0.0069118,0.0426635
-0.00384797,0.0442164
-0.0124846,0.0156376
-0.0204425,0.0468927
-0.0157934,0.087538
-0.0180833,-0.0181779
-0.0236237,-0.0363033
0.0182576,-0.0357069
0.0512796,-0.0547378
0.0606158,-0.012605
0.0454725,0.0189633
0.0112057,0.00569301
-0.047332,0.0103159
-0.04491,0.034073
0.0144836,0.042632
0.0400192,0.00973501
0.0209935,-0.0283363
-0.0149019,-0.0173445
-0.0573357,-0.00953792
-0.0797187,0.0243282
-0.0723394,-0.0368387
-0.00947167,-0.0117168
0.0339041,-0.0105482
0.0561614,-0.0488068
0.0930073,-0.0329489
0.0943791,0.0206715
0.023139,0.0319517
-0.0503397,0.0225275
-0.125703,-0.00328552
-0.124184,0.016705
-0.0602247,0.0113411
0.039922,0.0335108
0.114321,0.0151333
0.108006,-0.0149737
0.045574,0.00824157
0.00599082,-0.000115557
0.0444798,-0.00647662
0.0580233,0.0324831
0.0185459,-0.0207249
-0.0200146,0.0100397
-0.0409844,0.0184702
-0.0519476,-0.0299356
-0.0298167,0.00519835
-0.0299556,0.0192049
-0.038608,-0.00737706
-0.013087,-0.0585901
-0.000158634,-0.0460471
-0.00891222,-0.0240664
-0.0253645,0.0100758
-0.0330802,-0.00232419
0.00287765,0.0198611
0.0114481,0.0457122
-0.0128014,0.0277327
-0.0150566,0.0159846
-0.0058094,-0.00106283
0.00225981,-0.00617921
0.0222596,-0.0116365
0.0260462,-0.0233602
0.0116707,-0.0130696
0.00404131,-0.00248367
0.00374729,-0.0197825
-0.00179721,0.0078959
-0.00175665,0.0151058
0.0148377,-0.00742568
0.0149541,-0.018209
-0.00994763,-0.0299692
-0.022301,0.000748193
-0.0126031,0.0245174
-0.0109509,0.0233872
0.00261451,0.0105461
0.014405,0.0173246
0.0185762,0.0108882
0.0164439,0.0118421
0.00523687,0.00110645
-0.00586486,-0.0215607
-0.00471621,-0.0123441
0.00984091,-0.007458
-0.00183112,0.00419724
0.00100375,0.00495226
-0.00375256,-0.00514356
-0.0037086,0.00176488
-0.00727043,-0.00102856
-0.00137275,-0.0180045
0.0229397,-0.00731845
0.0245973,0.00419363
0.0270936,0.00455705
0.0221524,-0.0102314
0.0144472,0.00399923
-0.006745,0.0472159
-0.00852998,0.0581532
0.00988762,-0.00837574
0.0325777,-0.0282142
0.0303597,-0.0242806
0.00558873,-0.0109154
-0.0347973,-0.00144296
-0.066128,-0.00393052
-0.0580474,-0.0019289
-0.00666648,-0.0400286
0.0129208,-0.0305208
-0.00198535,0.00842192
-0.0324004,0.0128335
-0.0405123,0.0602076
-0.0298864,0.0406612
-0.0244421,0.00258798
-0.0119048,-0.0156782
0.0168183,-0.0246771
0.0366763,-0.0135466
0.0295658,-0.0112191
0.0128911,-0.0109817
0.0122336,-0.00662259
0.0335494,0.00841209
0.0457709,0.0151276
0.0363468,0.0384413
-0.00550069,-0.0310542
-0.0696995,-0.0239793
-0.112893,0.036603
-0.0793768,0.0170294
0.01814,-0.0237683
0.0875852,0.0228204
0.0635038,0.00318788
-0.00314444,-0.0162774
-0.0340554,-0.0112864
-0.00187722,-0.0233642
0.0342344,-0.0414159
0.0469726,0.00354058
0.0413402,0.0285643
-0.0030886,0.0430773
-0.0390722,0.0167577
-0.0432158,-0.00695774
-0.00986175,-0.0221051
0.0210316,-0.0145017
0.0277238,-0.0132034
0.0267471,-0.0108092
0.0291002,-0.00519977
0.0223826,0.00847027
0.00568354,0.00479324
-0.00518655,0.00392979
0.000253597,-0.000120059
-0.00659015,-0.0103151
-0.0316559,-0.00933326
-0.0547036,-0.00947425
-0.0769189,0.00720464
-0.107208,0.0566109
-0.0969428,0.0119568
-0.0372001,0.000291724
0.0102869,0.0027293
0.0269436,-0.00741552
0.0659399,-0.00462127
0.120697,0.000926361
0.147711,-0.0025374
0.105814,-0.00224343
0.025909,0.0169133
-0.0369661,0.0130233
-0.0321541,0.00222558
-0.0235038,0.00366445
-0.0379535,-0.00395992
-0.063878,-0.0203396
-0.0442661,-0.0151193
-0.0235714,-0.0144775
-0.00208456,-0.00721534
0.0175389,0.000611835
0.0319049,0.0129901
0.0253556,0.0172924
0.0180776,0.000724222
0.0168498,-0.00948876
0.0125069,-0.00800283
0.00594516,-0.00208486
-0.0059638,0.00107022
-0.0104959,0.0169812
-0.0150602,-0.0487569
-0.0251491,-0.0159822
-0.0137728,-0.00298592
0.0167427,0.0104086
0.027904,0.055681
0.00439921,-0.00564719
-0.0056929,-0.02772
0.0014074,-0.00566723
-0.00282936,-0.00108709
-0.0124706,-0.017952
-0.0247579,-0.023743
-0.0184802,0.0254341
0.0060112,0.00916389
0.0257891,0.00198525
0.0299576,0.00521799
0.0152194,-0.00531477
-0.0201962,0.0217536
-0.0460678,0.0387012
-0.0517946,0.00285305
-0.0318998,0.0403042
-0.00612698,-0.00503491
0.00970337,-0.0372929
0.0450276,-0.0342434
0.053753,-0.0237906
0.0408229,-0.00428374
0.0167029,0.0128833
-0.0208333,-0.00720413
-0.0343117,-0.00792631
-0.0236232,-0.0111818
-0.0219977,0.00420943
-0.0423408,0.017184
-0.0447691,0.012847
-0.0134788,-0.00324525
0.0132343,0.0244889
0.0196108,0.040893
0.0500832,0.0411493
0.0570929,-0.0372782
0.0448905,-0.0628774
0.0432514,0.0133504
0.0369412,-0.0056903
-0.00152563,-0.0342381
-0.038418,0.0043036
-0.0488287,0.019429
-0.0454348,-0.00112109
-0.00330351,0.00126043
0.0476194,-0.000433846
0.0492935,-0.00841548
0.018851,-0.0287616
-0.00338572,0.00434118
-0.0106397,0.0460773
-0.00101496,0.0300992
0.0103567,-0.0200053
-0.0120045,-0.0156966
-0.0488799,-0.00126585
-0.0390644,0.00786867
-0.0282437,0.00747027
-0.0280411,-0.0102692
0.00155308,-0.00934027
0.0203808,-0.000317901
-0.0111565,-0.00504512
-0.0430009,0.00517321
-0.0411218,0.0231628
-0.0281618,-0.0142951
-0.0073486,-0.00392804
0.00936912,0.0154237
0.00456539,-0.00237917
0.00426701,-0.0259205
0.00488198,0.00435778
0.0107953,0.00112932
0.0458671,0.0315365
0.0652818,0.059778
0.0578933,-0.0263044
0.0319107,-0.0502728
0.035723,-0.0179886
0.0409805,-0.0026927
0.012501,0.00287456
-0.0309066,-0.00607661
-0.0689152,-0.00920058
-0.0402987,0.0109719
0.0133008,0.00792714
0.0280902,0.00647923
-0.00542027,-0.00333321
-0.0331346,-0.00622835
-0.038531,0.00793389
-0.0241075,0.00352928
-0.0130517,-0.00671316
-0.0026733,-0.0155156
0.0123701,0.0461047
0.0109728,0.0890939
-0.00405208,-0.0527882
-0.00713687,-0.0584453
-0.00935735,0.018243
-0.012663,0.00785395
0.00548135,-0.008429
0.00690049,-0.00214345
-0.0178015,-0.000380035
-0.0264828,-0.0138364
0.00586012,-0.0120742
0.0288738,-0.0180772
0.0311277,-0.0151796
0.0164855,-0.00455439
0.0219654,0.00770713
0.0268433,0.0111791
0.0185285,-0.0126666
0.0040354,-0.00113277
-0.0102911,0.0178129
-0.0185058,0.0090832
-0.0191332,-0.0190004
-0.00483897,0.00745833
-0.00265371,0.00422568
-0.0127191,0.0110412
-0.0173686,0.0260153
-0.00483633,0.00766863
0.0123945,0.0337922
0.0190151,0.0161836
0.0106645,-0.0267392
-0.00560441,-0.0204215
-0.00413096,0.0216446
0.026349,0.0172443
0.0537229,-0.019293
0.0364833,-0.0175113
-0.00522155,-0.0146302
-0.0210953,-0.0107861
-0.013975,-0.00969105
-0.0155756,0.00208134
-0.0106377,0.0066485
0.0210083,-0.00233979
0.0483065,-0.00313166
0.0170919,0.00197309
-0.0618726,-0.0387161
-0.107805,-0.022409
-0.102931,-0.00479392
-0.0555973,0.0121453
-0.0207393,-0.00155
0.00818209,0.0037657
0.0523162,0.0208702
0.0722092,0.0235302
0.0571565,0.000302962
0.0457354,-0.00511272
0.038588,0.00610892
0.0124149,-0.00525404
-0.0245367,-0.0331841
-0.0405212,-0.00403503
-0.0470817,0.0300973
-0.036877,0.0743804
0.0110169,0.0156004
0.0534562,-0.0375643
0.0818671,-0.013347
0.0807049,-0.0207769
0.0460008,-0.0208843
-0.0153307,-0.00901175
-0.0753599,0.0287943
-0.1261,0.0467999
-0.104865,-0.00592737
-0.00497253,-0.0197676
0.0563533,-0.008182
0.0497991,-0.000980617
0.0308974,0.0249589
-0.00335598,-0.0189776
-0.00841521,0.012328
-0.00875519,0.000647464
-0.0195734,-0.00507278
-0.00688863,-0.00176649
0.00715193,-0.00895675
0.02207,-0.0163566
0.0383704,0.0170221
0.069207,0.0200925
0.0657184,-0.010221
0.0123622,-0.0169289
-0.0594816,-0.00226567
-0.101486,-0.000664033
-0.0734527,-0.00430545
-0.0112523,-0.00577406
0.0193516,0.000525785
0.0235058,-0.00477274
0.0259936,0.0107891
0.0214224,0.00646492
0.0100064,-0.0143772
-0.00430852,-0.019717
-0.00481445,-0.0177169
0.000205416,-0.00701073
-0.000407686,0.00528065
-0.0185897,0.014034
-0.0404915,0.02219
-0.0403546,0.0152204
-0.0282793,-0.00840785
-0.00874351,-0.00879459
0.0138325,0.00867241
0.0340851,0.0104878
0.037753,0.00155402
0.0110034,-0.000982856
-0.0299354,0.00586958
-0.0421286,0.0108045
-0.0298864,-0.00497337
-0.01608,-0.0118205
-0.00225209,-0.00874345
0.0333479,-0.00805115
0.0678948,-0.00324367
0.0762825,-0.00196404
0.0492177,-0.00344959
0.0177879,0.0062279
-0.00865704,0.0217636
-0.0306898,0.00395178
-0.0436973,-0.0132486
-0.0331341,-0.01675
-0.0254851,-0.00754469
-0.0269963,0.00312778
-0.0133745,0.00703789
0.0164345,0.00745703
0.0414186,0.00539729
0.0343244,0.00159575
0.0178441,-0.000709585
0.012749,-0.00144113
0.0199624,-0.000300459
0.0149119,0.00558125
-0.00215582,0.0136655
-0.0215546,0.0106142
-0.0269991,0.01002
-0.0104299,0.0144666
0.0116661,0.00926694
0.000341352,-0.0103244
-0.0104767,-0.0195513
-0.00761931,-0.00773464
-0.01713,-0.00839514
-0.0260538,-0.000996979
-0.007636,0.00254456
0.0153486,-0.0192746
0.0250836,-0.020194
0.0215612,-0.0114188
0.0196378,-0.00936877
0.0320707,0.00275469
0.0142709,-0.00375168
-0.0158769,0.0146785
-0.03564,0.0191266
-0.0508734,0.00745329
-0.0694681,-0.00898068
-0.0657888,0.000943678
-0.0389286,0.0247577
0.0085084,0.0221006
0.046476,0.00367933
0.0696944,0.000177298
0.0604181,0.000376689
0.0113573,0.00822074
-0.00530268,-0.0025368
0.0125948,-0.00333508
0.0135623,-0.0215464
0.0311044,-0.0405346
0.0525521,-0.014212
0.0310034,0.0152925
-0.000911143,0.023705
-0.0392874,-0.0081034
-0.0559258,-0.00994574
-0.0318691,-0.00519569
0.012723,0.00525397
0.0150421,0.0119048
0.013684,0.000631962
0.00142882,-0.021916
-0.0375396,-0.00580042
-0.0688382,0.0172194
-0.0499241,0.00810525
0.0173358,-0.0104316
0.0457439,-0.0132829
0.029548,-0.0120037
0.00112854,-0.0108508
-0.0273025,-0.00321079
-0.0577227,0.0118813
-0.0636253,0.0244135
-0.00649362,0.0206005
0.0575291,0.0128115
0.0624956,0.00295829
0.0258843,-0.00128469
-0.00862815,-0.00832491
-0.034134,-0.00915782
-0.00534898,-0.00381302
0.0339078,0.00687042
0.030248,0.0085142
0.0420636,0.00538111
0.0263158,0.00194477
-0.0319919,-0.00185589
-0.0854981,-0.00655189
-0.0534959,-0.00405983
0.0197021,0.00650398
0.0859861,0.00638449
0.115521,0.00842046
0.0357554,0.00524044
0.011553,-0.0017831
0.0130169,-0.0126171
-0.0250155,-0.0147089
-0.0531994,-0.0155521
-0.0508314,-0.0173491
-0.0652417,-0.0101618
-0.0646782,0.00479987
-0.0226796,0.0104188
0.00456681,0.00467731
0.0097148,0.00808968
0.0267893,0.00497852
0.0542328,-0.00378861
0.0498096,0.00324424
-0.00823706,0.00575776
-0.0613493,0.0186647
-0.0517106,0.0234717
-0.00528804,0.009246
0.050126,-0.00920657
0.0290954,-0.0285265
0.000889893,-0.0328712
-3.79e-05,-0.022941
0.00405599,-0.00703344
0.0183672,0.017774
0.0411359,0.0277858
0.0292101,0.0154668
-0.0122332,-0.0055674
-0.0668506,0.00668005
-0.102356,0.0140112
-0.11045,0.0117285
-0.126564,0.00182869
-0.228209,-0.0031204
-0.101664,-0.00784998
0.109227,-0.0214905
0.22412,-0.0127443
0.208923,-0.0104231
0.170127,-0.00919538
0.155084,-0.0135025
0.100242,-0.0031706
0.00122679,0.0126356
-0.035137,0.0120819
0.0141382,0.0134255
0.0247137,0.0141178
-0.0419601,0.00243724
-0.069588,-0.0062476
-0.0317359,0.00378418
-0.0293997,0.013148
-0.0205352,0.0116837
0.023932,0.00804784
0.0758904,0.00529879
0.0943613,0.00456661
0.082435,0.00182422
-0.0265758,-0.0117478
-0.246298,-0.0144683
-0.385694,-0.00578978
-0.271439,-0.014442
-0.00874393,-0.0151518
0.137864,-0.00113367
