Comp Ch 3,Comp Ch 4
-0.0262191,-0.0774823
-0.070357,-0.0456342
0.00127146,-0.143602
0.00580817,-0.128581
-0.0910949,-0.0870537
-0.109579,0.0195394
0.0261926,0.0186479
0.0352914,0.0230439
-0.0543261,0.0651973
-9.39e-05,0.0505997
0.0446012,0.0749831
-0.0028618,0.0836197
-0.0286331,0.0484122
0.0163734,0.0540273
0.0296701,0.0522053
-0.0403989,0.0311975
-0.0159356,-0.0530853
-0.0651459,-0.0309649
-0.191465,-0.0237137
-0.120082,-0.0907268
0.0679426,-0.0892677
0.241741,0.0378471
0.204925,0.0362642
0.0797043,-0.0734929
0.0356435,-0.0903689
0.0301374,-0.0692964
0.0115585,0.00234866
-0.0121164,0.0595359
-0.0463609,0.0912686
-0.146353,0.0624817
-0.253909,0.111622
-0.209427,0.0759323
0.0396432,0.0537657
0.227314,0.0607803
0.205883,0.0307041
0.0212928,0.00133125
-0.0222105,-0.0917778
0.0954963,-0.175703
0.139857,-0.0872258
0.0194637,0.0290635
-0.284038,-0.00834666
-0.351859,-0.0137666
-0.133681,-0.0661354
0.165609,-0.173978
0.177447,-0.261356
0.12818,-0.207578
0.0891837,-0.096055
0.0529592,0.00402019
-0.0216575,0.241012
-0.0706216,0.29444
-0.0329158,0.134423
0.0352315,0.122023
0.0485781,0.11855
0.0725542,0.0181112
0.10671,-0.0656633
0.0618076,-0.0230371
-0.0149451,0.0456767
-0.123732,0.124335
-0.218914,0.170444
-0.124468,0.154688
0.0138019,0.0379612
0.0329711,-0.025079
0.0289025,-0.0455656
0.0764593,-0.0651939
0.099455,-0.103035
0.0230479,-0.178843
-0.0297628,-0.192319
0.00217405,-0.0453452
-0.00211966,0.151769
-0.00117074,0.130126
-0.0219269,0.0334066
-0.0832706,0.00414699
-0.0477522,-0.0940778
0.106248,-0.143909
0.147205,-0.079589
0.00695144,-0.0944185
-0.121082,-0.0607285
-0.172788,0.0147725
-0.0870718,0.0347191
0.0351078,0.0415347
0.119335,0.069516
-0.0284541,0.101261
-0.308085,0.0613521
-0.250709,0.00314109
0.163802,0.00973192
0.265936,-0.0855578
0.124082,-0.0270821
0.136729,-0.0177475
0.162053,-0.111965
0.0605329,-0.0996241
0.00962319,0.0235077
0.0014672,0.0378513
-0.100994,0.0270093
-0.443545,0.0238652
-0.547075,0.0876315
-0.122022,0.088046
0.41872,0.110096
0.416333,0.150219
0.22131,0.0957953
0.0965629,-0.0534446
0.0611505,-0.0756362
0.0417263,-0.0131561
0.0150691,-0.0968353
0.0328542,-0.156644
0.020122,-0.111507
-0.0867037,-0.178567
-0.191499,-0.0739859
-0.217287,0.0967412
-0.0515874,0.0723988
0.126817,0.0953296
0.158599,0.0998862
0.0715579,0.0532389
-0.171037,0.0178267
-0.350064,-0.0179083
-0.186321,-0.115768
0.118276,-0.141222
0.136854,-0.0417446
0.0197494,0.0259591
0.0168498,0.0608854
0.0929476,0.0768022
0.0673765,0.101273
-0.0148562,0.114143
-0.0516729,0.111593
-0.0342218,0.0448673
0.0273941,0.00495836
0.106691,-0.00397693
0.12169,-0.0118655
0.00914481,-0.0265024
-0.0353085,-0.0306901
0.0131486,-0.0418777
-0.00871262,-0.105561
-0.0542603,-0.155694
0.0303139,-0.0956678
0.0860177,0.0586644
-0.0597635,0.0529078
-0.275827,0.0240253
-0.249939,0.00643626
0.0195274,0.044337
0.240446,0.0354365
0.232434,-0.000117208
0.121257,-0.0260941
0.0214953,0.0353563
-0.0224667,0.0660863
-0.0118145,0.0146328
0.0277848,-0.0171933
0.0153363,-0.0975593
-0.0295355,-0.0573611
-0.0561571,-0.0529764
-0.0146193,-0.0264395
-0.0531672,0.0628992
-0.109824,0.0292268
-0.0842348,0.0777417
0.0209527,0.0786999
0.166638,0.0258067
0.209229,0.00423919
0.0834019,-0.0751513
-0.0368939,-0.159959
-0.100262,-0.161081
-0.164869,-0.0683018
-0.239243,0.0745235
-0.204086,0.0375235
-0.0946157,0.00207111
0.0328288,0.0402329
0.113504,0.0722231
0.20235,0.0456957
0.170428,0.0289227
0.0483779,0.0742519
0.00617319,0.0420684
0.000696899,0.0442577
-0.00908777,0.130799
0.00103991,0.081725
0.0407453,-0.0613037
0.0392388,-0.0929462
0.00125023,-0.0899763
-0.0443564,-0.156205
-0.0390364,-0.125539
-0.0383109,0.0245228
-0.0372102,0.0139374
-0.00441482,0.00976428
-0.00232644,0.0538954
-0.0105378,0.0713675
-0.034998,0.0232064
-0.0490955,-0.0332539
-0.0197954,0.0173722
0.0308526,0.0297667
0.0690409,-0.102298
0.051646,-0.0808481
-0.0677017,-0.0920264
-0.15363,-0.0357593
-0.0896743,0.0666481
-0.00584745,0.127471
0.0530578,0.128542
0.0639929,0.131852
0.0549486,0.0786276
0.0370101,0.00743306
0.0604118,0.0119349
0.0895497,-0.0276152
0.101979,-0.0495944
0.0739148,-0.0373305
5.24e-05,-0.0366412
-0.0527525,-0.0489796
-0.117342,-0.0812453
-0.196379,-0.0779512
-0.208283,-0.0692424
-0.100997,-0.0571482
0.0884042,-0.0454942
0.20168,-0.0592835
0.249453,0.0460501
0.195619,0.181003
0.0920615,0.123493
-0.024481,-0.00218385
-0.085642,0.00481722
-0.0942212,-0.0213301
-0.139681,-0.0561953
-0.150094,-0.0494515
-0.0806762,-0.0479169
-0.0658729,0.000849517
-0.0907774,0.0481623
-0.0835354,0.105352
0.00578966,0.0704482
0.129741,0.0635579
0.11689,-0.0168796
0.0888464,-0.0543665
0.087369,0.0195659
0.0723559,-0.0112076
0.0454651,-0.0447978
0.0690726,-0.013001
0.0689284,-0.0182533
0.0246354,-0.0416231
-0.0243451,-0.0555817
-0.0828468,-0.0711729
-0.0916915,-0.00721538
-0.0209394,0.123352
-0.000157537,-0.0131825
-0.037342,-0.0200162
-0.0644291,0.0474289
-0.0435779,0.0529822
-0.0108341,-0.0932856
-0.0163219,-0.134776
-0.0442126,-0.0268625
-0.0339326,0.0416545
0.0177875,0.0422673
0.0578955,0.0858984
0.0690265,0.0713275
0.0494445,0.043764
-0.00872532,0.118231
-0.0472609,0.00843988
-0.0732166,-0.061299
0.00273476,-0.00799521
0.0226955,-0.00851315
0.00971284,-0.0160349
0.0403007,0.0138326
0.0488502,-0.0200206
0.0161867,-0.0762665
0.00134902,0.00203552
-0.0392198,0.000125964
-0.0600435,-0.0589699
-0.00858784,0.061156
0.0440028,0.0412912
0.0161842,-0.00632049
-0.0463072,-0.0716039
-0.0159337,-0.0192305
0.0303434,-0.014166
0.0680107,-0.0489402
0.122458,-0.0554493
0.131453,-0.0532246
0.0497735,0.0337044
-0.0811873,0.124163
-0.108385,0.0922402
-0.102412,0.0250799
-0.0624246,-0.0529004
0.0419118,-0.0208414
0.0483221,0.0364768
-0.0131158,0.033417
-0.15143,0.029529
-0.198019,0.0693931
-0.0553172,-0.0758966
0.120791,-0.0857857
0.0916245,-0.0447489
0.0401258,-0.0446782
0.03488,0.0200481
0.00447251,-0.000892863
0.0269088,-0.0221093
0.0224879,0.0533437
-0.0313071,0.0533071
-0.0287039,0.0146803
0.0367278,0.0322769
0.0591713,0.0175835
0.0462892,0.00304794
0.0556156,0.00914715
0.0527405,-0.00412398
0.0264749,-0.00394086
0.00680133,0.00725184
-0.0273976,0.0169008
-0.0552624,0.0433548
-0.062719,0.00463509
-0.0386298,-0.0765433
-0.02202,-0.0619914
-0.0519823,-0.0364129
-0.0773069,-0.0361112
-0.107783,-0.0485489
-0.0320251,-0.0238946
0.112077,-0.0341195
0.189081,-0.0278979
0.118195,0.0509798
0.0391007,0.119809
-0.0357606,0.0583246
-0.0258668,-0.00768753
0.0582795,0.0413113
0.0859357,0.045551
-0.070849,0.0067122
-0.143232,0.000543273
-0.0882605,-0.052026
-0.0554453,-0.0613691
-0.0486387,-0.0377572
-0.0382128,-0.00925657
-0.0470351,0.0137954
-0.0113327,0.00294709
0.0295828,-0.0174032
0.0637245,0.00379858
0.072542,0.0130438
0.0732807,-0.0130272
0.0380673,-0.0620432
0.00963698,-0.104973
-0.0190638,-0.0700614
-0.0606928,0.111962
-0.0903178,0.135337
-0.0267449,0.0493572
0.0534551,0.0192209
0.0819433,0.0261929
0.0443329,-0.000808835
0.0117792,-0.0819566
-0.00953636,-0.0374464
-0.0322381,0.0910322
-0.0146585,0.0401925
0.0358283,-0.0417751
0.0450975,-0.0619263
-0.0142644,-0.00327547
-0.0855942,0.0177663
-0.120826,-0.039639
-0.0709129,-0.0433943
0.0071146,-0.0419123
0.0115868,-0.0522584
0.039258,0.0312032
0.0732201,0.117472
0.0595765,0.130392
0.0111033,0.0735862
-0.062027,-0.0469121
-0.0530694,-0.0144541
0.0337629,-0.0162837
0.106318,-0.0342881
0.102171,-0.0288455
0.00378713,-0.0115715
-0.0209257,-0.0310681
0.0805944,0.0323262
0.11141,0.0144593
0.0135051,-0.023397
-0.0724395,0.0268247
-0.103079,0.0125014
-0.083616,-0.00350111
-0.0665238,-0.0626862
0.033165,-0.0592042
0.150976,-0.053468
0.141546,-0.0306201
0.0324752,-0.00527459
-0.117621,0.00838895
-0.242014,0.0814222
-0.177233,0.0700897
-0.000669535,0.0893922
0.0343147,0.108544
-0.0213742,-0.0299516
-0.017004,-0.0953416
-0.00484406,-0.105418
-0.00747139,-0.0303113
-0.00151116,0.0141631
0.00381104,0.0344967
0.0099661,0.047914
0.0205647,0.0261521
0.0498179,-0.0124032
0.0785965,-0.0560971
0.0504516,-0.0786525
0.0188475,-0.022805
0.0256196,0.0726755
0.0408717,0.0240923
0.0555426,-0.0108726
0.0358577,0.0289173
0.00488451,0.0856073
0.00274981,0.0263588
-0.0108272,-0.0429082
-0.0689266,-0.0409368
-0.119009,-0.0243204
-0.110032,-0.0189917
-0.0123646,-0.0334305
0.0581041,-0.0429336
0.0530374,-0.0262581
0.0582031,0.0728606
0.0613253,0.087828
0.0341825,0.0094284
-0.0152387,-0.00928701
-0.0411033,0.0154247
-0.0432738,0.0184502
-0.0412495,-0.016201
-0.0398782,-0.054143
-0.0412095,-0.0319138
-0.0492629,-0.00921199
-0.0391485,-0.0652532
-0.0219808,0.00228639
-0.00322518,0.0431116
0.04255,0.0505878
0.101108,0.0509557
0.114879,0.0686555
0.0702567,0.0533699
0.0130582,-0.0122657
0.000219916,-0.0540292
-0.0230418,-0.0370993
-0.0223254,0.0183499
0.0308973,-0.0129207
0.0541418,-0.0325014
0.0193304,-0.0442645
-0.00239268,-0.0201602
-0.0543471,-0.0281437
-0.0681463,-0.0290185
-0.0357225,0.00696332
-0.0597583,-0.0318172
-0.105533,0.00499432
-0.0558741,0.106038
-0.00882695,0.0642404
0.025346,0.0130159
0.0447356,-0.0104282
0.0300779,-0.0328851
0.0121114,-0.0920081
0.00924485,-0.0794499
0.00957569,0.0100145
0.0160147,0.0617359
0.0135253,0.0114179
0.00938846,0.0588718
0.00243345,0.0219794
0.00154256,-0.0959589
0.0215272,-0.0527651
0.00830031,-0.0122575
-0.0165941,0.0399802
-0.0299153,0.0368548
-0.0114693,0.0845069
0.0341355,0.0456315
0.0499562,-0.0069868
0.0266188,-0.068427
0.0114367,-0.0648458
0.00910878,0.00143718
-0.0555429,-0.0279085
-0.0822107,-0.0510851
-0.0302921,0.0166647
0.0434359,0.103834
0.0976543,0.0378577
0.0830446,-0.0624716
0.0220691,-0.0356975
0.00928649,0.046164
0.0531701,0.0383687
0.0756158,0.0623896
0.0109096,0.0717244
-0.0792608,0.0251154
-0.134241,-0.0171133
-0.117361,-0.0245818
-0.0694141,-0.0491384
-0.0383532,-0.0440835
-0.0168554,-0.00481213
-0.00335283,0.0542291
0.0225201,0.0443074
0.0314967,0.00359938
0.0184566,-0.00500536
-0.0043101,-0.060229
-0.0162279,-0.0434241
-0.0154239,0.0302825
-0.0418793,-0.0252346
-0.0649084,-0.0602773
-0.0244714,-0.0758961
0.0403435,0.018832
0.0693015,0.0521976
0.0648431,0.0443066
0.100184,0.0307937
0.0957434,0.0123161
-0.000467242,-0.0117033
-0.0893122,-0.0259185
-0.0376431,0.00376587
0.0456854,0.00143727
0.0766969,0.0217006
0.0235889,0.0266866
-0.043204,0.0380609
-0.0452163,0.0319985
0.00806344,-0.0902959
0.0320366,-0.0998851
-0.0165918,-0.00909033
-0.0521358,0.0279685
-0.0487305,0.00100459
-0.0176443,-0.0237023
0.00222439,-0.00607954
0.0145033,0.0192566
0.0139532,0.00617407
-0.00215307,-0.0159947
-0.0165418,-0.0023014
0.00668751,0.00061142
0.0623197,0.00568185
0.0738969,0.0164831
0.0477201,0.000607762
-0.0178198,-0.0248482
-0.0741547,0.00456134
-0.078433,0.0202165
-0.0513888,-0.00918218
-0.0325379,0.00391541
-0.0066027,0.0304044
0.0230294,0.0452375
0.0452227,0.0397349
0.031076,-0.001329
0.0225997,-0.0225877
0.00576769,-0.0120986
0.000845352,-0.00502799
0.00450371,-0.0173964
-0.00413613,-0.00121431
-0.0278966,-0.00780535
0.017434,-0.0343525
0.0660976,-0.00102653
0.0206415,0.0549834
-0.0162636,0.0338069
-0.00187685,-0.0636085
-0.0175684,0.0215052
-0.0535383,0.0375609
-0.0440121,-0.00998043
0.000371095,-0.0586772
-0.000678557,-0.0453993
-0.0226358,-0.0771358
-0.0284766,-0.101811
-0.0266997,-0.0659998
-0.0187085,0.048651
-0.00169615,0.157338
0.020507,0.138261
0.00621378,0.0871915
-0.010651,0.00678867
-0.0114699,-0.00895037
0.00338358,0.031692
0.0287844,0.0167094
0.028305,-0.0487677
0.0143833,-0.0294662
0.00984018,0.00600412
0.0288871,0.00649133
0.0466495,-0.0071375
0.040764,-0.00742609
0.0216055,-0.0019425
-0.00444578,-0.00546961
-0.0128511,-0.00885594
-0.00900043,-0.0150111
0.00136505,-0.0141518
0.02679,-0.0247478
0.0283187,-0.0156013
-0.0101128,0.00493442
-0.0560148,-0.0355468
-0.0759601,-0.0479711
-0.0610255,-0.0213086
-0.019084,0.0272471
0.00422255,0.0432717
-0.00644016,0.0132578
-0.00733715,-0.0149547
-0.00208515,-0.0119589
0.0313279,-0.0195656
0.0480091,-0.00499603
0.0583587,-0.0131431
0.0469605,-0.0160786
0.0132831,-0.0765974
-0.0119413,-0.0965008
0.00454356,0.0748138
0.0151245,0.176294
-0.0197997,0.0800238
-0.0540622,0.00605284
-0.00492023,-0.00155291
0.0300923,-0.00535286
-0.00441037,0.00611383
-0.024033,0.045902
-0.022387,0.0483754
-0.0316814,-0.0296037
-0.0400413,-0.0229674
-0.0169966,0.0362318
0.00337436,-0.0427283
0.0271447,-0.0566971
0.0571408,-0.0563437
0.045119,-0.00935971
0.0321192,0.0441819
-0.00392254,-0.0193512
-0.0554403,-0.0440898
-0.0948231,0.00505563
-0.0427478,-0.00157639
0.00938639,-0.0135416
0.0176571,-0.0222602
0.018106,-0.0291008
0.0184113,-0.0483303
0.0241145,-0.0328011
0.00919899,0.0384544
-0.0142653,0.0684368
-0.0242824,0.00769286
-0.0253315,-0.0217161
0.00761935,0.00176044
0.0418521,0.0568193
0.048212,0.0500022
0.0275201,-0.00191483
0.0207975,0.0019603
0.0385484,-0.00940862
0.0905869,0.00661486
0.0885588,0.00617908
0.0110552,0.084603
-0.047783,-0.00317212
-0.0850436,-0.0332198
-0.107674,-0.0125981
-0.109717,-0.0330087
-0.081596,-0.0513529
-0.0259405,0.00512276
0.0377213,0.0641448
0.0451229,0.022993
0.0238727,-0.0278033
-0.0370857,-0.0381098
-0.0570077,-0.0160988
-0.0142476,-0.0456533
0.0210176,-0.0172558
0.0275086,0.0179145
0.0486554,0.00825603
0.0441042,-0.0392767
0.0136201,-0.03652
0.0217945,0.014016
0.0548723,0.0327894
0.044752,0.044679
0.0103665,0.0227079
-0.00637456,0.0397354
-0.0188247,0.065909
-0.0263255,0.0379099
-0.0265473,-0.00407868
-0.0130395,-0.0283471
-0.0193273,0.00265696
-0.0268411,0.0701832
-0.0255938,0.0284862
-0.00909923,-0.0743647
-0.0250552,-0.101601
-0.0310319,-0.116496
-0.0350639,-0.102789
-0.0544463,-0.0716641
-0.0375897,0.0246493
0.00102995,0.0548511
0.0190336,0.047981
0.0576386,0.0883379
0.10094,0.0789586
0.132561,0.0380591
0.132026,-0.0159736
0.0765288,-0.03944
-0.00403662,-0.0284974
-0.00573168,0.024519
-0.000655834,0.0167853
-0.0135656,-0.0467428
-0.044004,0.0315587
-0.0760406,0.071821
-0.112064,0.0744227
-0.12257,-0.0425892
-0.0825352,-0.0318907
-0.000882209,0.0151078
0.0524785,-0.0455217
0.0957816,-0.0901136
0.0946018,0.0519893
0.0699053,0.0588857
0.022764,-0.0219359
-0.0598883,-0.00280038
-0.104745,0.0181932
-0.0832176,0.011614
-0.0367191,-0.0184968
0.00862507,-0.0382229
0.0438583,-0.0060835
0.057408,0.00833974
0.0379516,0.020891
0.0300404,0.0183661
0.0117141,-0.0401202
0.00903012,-0.0105844
-0.0100677,0.0150565
-0.0453037,0.0059482
-0.0195017,-0.0301467
-0.0101877,-0.0497616
-0.103258,-0.0263426
-0.114338,0.0575701
-0.0445199,0.00721092
0.0296711,-0.0531458
0.0730615,-0.0419
0.0779988,-0.0377137
0.0839032,-0.0417799
0.0462271,-0.0684675
0.00243088,-0.0937146
0.00121191,0.0124699
0.0498557,0.110644
0.096488,0.174095
0.115613,0.131476
0.060412,0.00378266
0.0120424,0.0215694
-0.0272382,0.0605816
-0.0954855,-0.050864
-0.136057,0.00044335
-0.157221,0.0290119
-0.156102,-0.0368455
-0.117335,-0.0603011
-0.0583251,0.0369016
0.0204165,0.0350529
0.0876696,-0.0622683
0.139722,-0.0132581
0.134093,-0.0298892
0.0636626,-0.0332765
0.0126276,-0.00302917
-0.0189367,-0.0832598
-0.0460429,-0.079344
-0.0601389,0.00234121
-0.0112535,0.0250394
0.0170512,0.0362156
0.025193,0.0519807
0.0156641,0.0123316
0.000320655,0.00413346
-0.00550691,0.0328017
0.00105034,0.0715859
0.0261339,0.0178336
0.0258698,-0.0608645
0.0215301,0.0247925
0.0311093,0.0037119
0.0311768,0.00237072
0.00517274,0.015674
-0.035466,-0.00111846
-0.0838552,0.00730545
-0.0620918,0.0264128
0.00647629,0.0258521
0.0743848,0.0204088
0.0876813,-0.0159561
0.0452943,-0.0455375
-0.054181,0.0109206
-0.0907186,0.0156378
-0.0644657,-0.0175805
-0.0535239,-0.0259279
-0.0318235,0.0117978
-0.00185572,-0.0314239
0.0148267,-0.0138197
0.00729805,-0.0339282
-0.00635719,-0.0689324
-0.005132,-0.108437
-0.0251317,-0.0148939
-0.0313981,-0.00041321
-0.0186839,-0.00171554
0.00498151,0.00101026
0.0104396,-0.0397463
0.028663,0.116294
0.0519863,0.100092
0.0863193,0.0751334
0.0967251,0.127743
0.0422998,0.0581731
-0.0315307,-0.111727
-0.0389065,-0.0606403
0.0209982,-0.0938724
0.0162659,-0.0741445
0.0271075,0.0146319
0.029514,0.00879179
-0.0100931,0.0220883
-0.0367929,0.0495858
-0.041934,0.0705575
-0.0362369,0.0718402
-0.045928,0.0500522
-0.0367576,-0.0207855
-0.00131448,-0.0625856
0.0109265,-0.0896859
0.0338505,-0.0936255
0.0488226,-0.0839656
0.0732475,-0.0128097
0.0815971,0.0607101
0.0372753,0.0785763
-0.00531416,0.107141
-0.0406074,-0.0456605
-0.0998154,-0.0688241
-0.0754836,0.058279
0.0102933,0.134928
-0.00626507,0.122111
-0.0491894,-0.00190113
-0.0319237,-0.0274882
-0.0207861,-0.0136668
-0.0278639,-0.0444626
-0.0351416,-0.0609893
-0.0235367,-0.098176
-0.0192679,0.0153146
0.00195998,-0.0448617
0.0282381,-0.219833
0.0370021,-0.228855
0.0153053,-0.0108017
-0.0599174,0.116142
-0.0763587,0.0245844
-0.000567785,0.159363
0.0587165,0.215849
0.0884177,0.0809699
0.106303,-0.0146884
0.0931076,0.0185688
0.0245819,0.0446878
-0.0123142,-0.0321763
0.00245463,-0.071642
0.0228047,-0.106652
-0.0401092,-0.0295508
-0.0630815,0.13675
-0.0259276,0.0529703
-0.0266025,-0.0231908
-0.0269155,-0.115377
0.0285896,-0.0747522
0.055481,0.0370633
0.0161762,0.0780313
-0.0191403,-0.028275
0.0131279,-0.0165867
0.00853986,0.0268925
0.0264131,-0.0535223
0.0456839,-0.0279135
0.011376,-0.0195054
-0.0129492,0.0014553
-0.0362974,0.0781827
-0.0700775,0.0125863
-0.0590629,0.00700068
-0.0167728,0.0331826
0.00563649,-0.0244268
0.0437797,0.0284551
0.111916,0.0601714
0.104372,0.0163764
0.041765,0.043488
-0.0719004,0.0170473
-0.16982,-0.041594
-0.124056,-0.0620578
-0.00633554,-0.075313
0.0575993,-0.0989539
0.0919734,0.0411953
0.0738606,-0.0431873
-0.0430826,-0.0003166
-0.088531,0.0248414
-0.0386398,-0.0542058
0.0116449,-0.0042627
0.0402578,0.0784018
0.00739222,0.0652444
-0.0761602,0.0497649
-0.12995,0.0414041
-0.130892,0.0394731
-0.0298648,-0.0484858
0.0665547,-0.065989
0.0836542,-0.039208
0.0201561,-0.0856526
-0.0363755,-0.079551
-0.00626812,-0.00912027
0.051947,0.0235541
0.0630226,-0.0231399
0.0674591,0.128053
0.0690898,0.240418
0.0744173,-0.0768974
0.0842487,-0.166629
0.0371711,-0.210331
-0.016863,-0.123076
-0.00023121,-0.0297971
0.0890846,0.017137
0.150288,0.227441
0.072715,0.177017
-0.0844553,0.0132715
-0.126282,0.130509
-0.135592,0.176527
-0.171684,-0.0557568
-0.129662,-0.183436
-0.0331715,-0.0797275
0.0189927,0.0382152
-0.00993138,0.122878
-0.111504,0.101799
-0.112724,0.0236604
-0.0139278,0.00770051
0.106945,-0.0929428
0.20577,-0.0940182
0.272109,-0.0958043
0.229675,-0.0421337
0.136847,0.131049
0.016184,0.0540313
-0.15052,0.0173448
-0.172745,-0.0120461
-0.0657906,-0.0486952
-0.0263522,-0.045083
-0.0359179,0.0285605
-0.0618973,0.025031
-0.0981841,-0.066071
-0.0505728,-0.0333706
0.00758199,0.0756171
0.0114076,-0.0516732
-0.0431896,-0.0088643
-0.0416124,-0.0498126
-0.024164,-0.169059
-0.0838939,-0.211078
-0.1091,-0.100193
-0.0436644,-0.0224063
0.0125456,0.328153
0.0116057,0.432362
0.083953,0.138522
0.195297,-0.199639
0.229085,-0.0784622
0.106105,-0.0906993
0.00762278,-0.0526387
-0.0188342,-0.0198517
0.0495285,-0.110274
0.105,-0.0864173
0.0998512,0.0159413
0.0320094,0.0205133
-0.0541913,0.0208705
-0.135692,0.0483226
-0.230676,0.166062
-0.261172,0.174406
-0.149749,0.0381567
-0.0886408,0.00343554
-0.0625674,-0.0317998
-0.00883424,0.0163431
-0.0175248,0.00796037
0.112374,0.0445395
0.454538,0.0227922
0.600111,-0.166467
0.359065,-0.212045
-0.154717,-0.281228
-0.522897,-0.295321
-0.364707,-0.0418369
-0.119663,0.0872726
-0.0861673,0.124509
-0.0752919,0.187479
-0.00960415,0.0986782
0.0410263,0.13945
-0.0355176,0.0484168
-0.187604,-0.01641
-0.290851,-0.00193719
-0.0709521,0.0165961
0.440909,0.121889
0.848308,0.163484
0.665217,0.0996379
0.0842562,0.131163
-0.458604,0.0985724
-0.452787,0.0463504
-0.0229002,-0.098998
0.156767,-0.194392
0.150196,-0.0388167
-0.0664109,-0.018944
-0.250772,-0.0555452
-0.251379,-0.00584603
-0.170532,-0.071247
-0.114122,-0.200372
0.035026,-0.295093
0.0951864,-0.108821
0.0961471,0.0516382
0.107376,0.20091
-0.109743,0.270438
-0.166715,0.120689
-0.106546,0.154259
-0.0321142,-0.0397404
-0.0330161,-0.361385
-0.0393506,-0.435734
-0.0260223,-0.350175
0.0524896,-0.046286
0.169055,0.205192
0.288633,0.221301
0.272401,0.346549
0.0855625,0.368126
-0.0247383,0.10232
-0.129504,-0.0804697
-0.202327,-0.0793819
-0.0716234,-0.0323509
0.109848,-0.0494161
0.193931,-0.0779116
0.128334,-0.0194625
0.0928289,0.133696
0.0189103,0.0758325
-0.169154,-0.000516205
-0.228126,0.0163177
-0.132222,-0.0179443
-0.0138778,0.127569
0.0567849,-0.172831
0.0428257,-0.204541
-0.0144758,-0.129692
-0.0638308,-0.121609
-0.0415767,-0.0491986
-0.0301843,0.00156659
-0.0214933,0.0769802
-0.0431149,0.11739
-0.0964657,0.0633499
-0.0759247,-0.0265971
0.0350827,-0.0725966
0.122328,0.0979405
0.0607469,0.0279252
-0.00716126,0.0266144
-0.102317,0.0911392
-0.139011,0.102965
0.00197681,-0.0239937
0.205192,0.0713115
0.213465,0.117661
0.131233,0.0201197
0.00971472,-0.313872
-0.00309257,-0.343213
-0.0490096,-0.167769
-0.104936,-0.101741
-0.0819992,0.0807108
-0.125958,0.172895
-0.169765,0.194506
-0.069784,0.274774
0.178402,0.151169
0.239931,-0.0501103
0.0547023,-0.0977811
-0.0989781,0.00412283
-0.0541062,0.0164012
0.044477,0.00878684
0.0728055,0.0314096
0.175824,0.128658
0.250079,0.0217964
0.278238,-0.160971
0.15784,-0.239943
-0.0254891,-0.190846
-0.102157,-0.12986
-0.103776,0.0689037
-0.132783,0.171864
-0.185859,0.169499
-0.169107,0.00596288
-0.26001,-0.062006
-0.282687,-0.0690475
-0.170815,-0.111869
-0.00279112,-0.0217863
0.158807,0.0391117
0.149367,-0.0005608
0.094606,-0.00211811
0.00505273,0.168117
0.0441768,0.323167
0.130925,-0.105628
0.108799,-0.229566
0.0165054,0.00598349
-0.104627,-0.0170701
-0.160469,-0.0932609
-0.170233,-0.108289
-0.0743064,-0.121902
0.119578,-0.101696
0.231807,0.00298549
0.269329,0.259752
0.181778,0.276454
-0.010281,0.000390655
-0.0987843,0.0553816
-0.10278,0.197671
-0.154476,-0.0475203
-0.147627,-0.129299
-0.126554,-0.0824134
-0.0957717,-0.0266557
-0.0461394,0.0763821
0.0302654,0.0366886
0.0656583,0.0552234
0.0891752,-0.00970518
0.0972389,-0.141352
-0.0292631,-0.263724
-0.0944198,-0.113376
-0.145993,-0.1121
-0.108722,-0.0633135
0.0901313,0.213195
0.390985,0.25694
0.478925,0.128983
0.275416,-0.102959
-0.266269,0.00733507
-0.462346,-0.213741
-0.223804,-0.055949
-0.0271735,0.0806056
0.0344718,0.125463
0.00482348,0.165098
-0.0309228,0.0456039
-0.0345061,-0.0487377
-0.00143676,0.0172634
0.113389,-0.0228497
0.290984,-0.0672522
0.289769,-0.0160103
0.146196,0.00557852
-0.0241045,0.0985185
-0.120891,0.143702
-0.10366,0.00160411
-0.11589,-0.0360746
-0.120659,-0.0478161
-0.127236,0.0115466
-0.133613,0.0348461
-0.116639,0.0122173
-0.067274,-0.0466973
-7.3e-05,-0.084984
0.0534526,-0.0830463
0.0734205,-0.166032
0.0702866,-0.225998
0.0608021,-0.332746
0.0198954,-0.19222
0.00183637,-0.0401641
0.0104552,0.128809
-0.144546,0.437143
-0.249489,0.374044
-0.157847,0.200234
0.101892,0.11191
0.206871,-0.00836778
0.14498,-0.0953686
0.165761,-0.127826
0.206101,-0.0754866
0.200445,-0.0206292
0.119739,-0.0221003
-0.0251184,-0.0174155
-0.103339,0.127997
-0.132794,0.118954
-0.17057,0.0655172
-0.166008,-0.0133493
-0.078111,-0.0309104
-0.0276107,-0.0679241
0.00258281,-0.0901254
0.0200424,-0.0719206
-0.0320901,-0.10106
-0.054626,-0.120143
-0.0192712,-0.0808207
-0.0163778,-0.0467544
0.00123652,0.0124187
-0.0166039,0.0592353
-0.0172772,0.104396
-0.0209155,0.127466
-0.00140888,0.00961966
0.0801309,-0.0644662
0.106721,-0.0187722
0.0229447,0.0245573
-0.0244199,0.0853364
-0.0180319,0.0408822
-0.0107354,-0.00220989
0.00220719,0.00599548
0.0749573,-0.0786817
0.0941459,0.0440981
0.0530998,0.0815191
-0.0039303,-0.0833476
-0.0319504,-0.00178784
-0.0414282,0.0971256
-0.0382097,-0.103134
-0.0168122,-0.0540648
-0.0106168,0.0221466
0.00973988,-0.0181149
0.0210623,0.0143262
0.0237106,0.0352275
0.00147369,0.00199004
-0.000679058,-0.0893928
0.0106738,-0.0167665
-0.000303518,0.103148
-0.0099671,0.0830411
-0.0125,0.0209356
0.0011736,-0.0533423
0.0011488,-0.069381
0.0388564,-0.067893
0.0926397,-0.0678667
0.0379952,-0.0279601
-0.0887438,-0.0224203
-0.159888,0.0337216
-0.174734,0.0240631
-0.0982685,0.0248548
-0.00468828,0.100808
0.0106297,0.0581769
0.0406332,0.0931368
0.11283,0.0808761
0.2023,0.0195893
0.224017,-0.0134243
0.134944,-0.0303316
0.0431661,-0.0409511
0.0371677,-0.0489471
0.0750182,-0.0655378
0.0906678,-0.0664441
-0.0688233,-0.0506304
-0.171713,-0.0106308
-0.16677,0.0178064
-0.158404,0.0127675
-0.125298,-0.00227016
-0.0809081,0.0140104
-0.0496243,0.0200984
-0.0188218,0.0195545
-0.0190276,0.0144338
-0.0462633,-0.010507
-0.0595566,0.0163803
-0.0106678,0.0386735
0.0528184,0.0354681
0.0585598,-0.0262488
-0.0095174,-0.0724013
-0.0289349,-0.0356595
0.0183564,-0.0377473
0.110294,-0.0196388
0.183545,0.0363751
0.139219,0.00591997
0.0132784,-0.0123669
-0.01708,-0.045429
0.0120683,0.0365923
0.0560932,0.0762274
0.0730898,0.0275469
0.016328,0.0137592
-0.0687241,-0.0112009
-0.0867247,0.0651857
-0.0615296,0.014914
-0.0221933,-0.0136848
-0.00837218,0.0280193
-0.0347441,-0.0261469
-0.0663105,-0.122698
-0.0854293,-0.115602
-0.0674896,-0.0354823
-0.0422411,0.0353391
-0.00922745,0.0799271
0.0100961,0.0698995
0.0311838,0.0676408
0.0732043,0.0480152
0.0936471,0.0226736
0.0670055,0.00339693
0.0201201,-0.0446547
0.000350253,-0.0395888
-0.00253238,-0.0796006
0.00870798,-0.111139
0.0125095,-0.0822151
0.00967042,-0.0263167
0.0185651,0.00281977
-0.00183435,0.0303791
-0.0304446,0.0398597
-0.039906,-0.0125828
-0.0278202,-0.0395208
-0.00636773,0.0659342
-0.00762471,0.14612
-0.0177997,0.0424327
-0.012634,0.037057
-0.00416844,0.0446981
0.0206665,0.0205393
0.00577328,-0.0111427
-0.0239288,-0.0109504
-0.0647456,-0.0175102
-0.0425379,-0.000700153
0.00471496,-0.0168272
0.0553367,-0.0625829
0.093586,-0.0122136
0.0636319,-0.00743066
0.00255153,-0.0253545
-0.0307384,0.0533254
-0.0170428,0.0263373
0.0295945,-0.0143268
0.0442036,0.00648009
0.0123136,-0.0295254
-0.0381418,-0.0410288
-0.0710177,0.00605275
-0.0788039,0.0322268
-0.0635886,0.0244404
-0.0531559,0.00845803
-0.0143346,-0.0263373
0.0386442,-0.0172006
0.0708139,-0.00454759
0.07516,-0.0159956
0.061942,-0.0441348
0.0221826,-0.00964276
-0.0273728,0.0447085
-0.0115154,0.0765883
0.00892437,0.000672518
0.0211623,-0.0677704
-0.00767917,-0.0427071
-0.0383491,-0.031524
-0.0431197,0.00837037
-0.03089,0.0122832
-0.0276107,0.0131729
-0.0504747,0.0529982
-0.0437762,0.0238294
-0.00780018,-0.0181665
0.0419103,0.0538195
0.0756993,0.0190596
0.0556942,-0.00480354
0.00825204,-0.0078071
-0.0255934,-0.037472
-0.0315128,-0.00723494
-0.000952521,-0.0140368
0.0397209,-0.0068093
0.0615719,0.0249806
0.04353,0.0240591
0.0104006,0.0169775
-0.00904885,-0.00231984
0.00623324,-0.0269434
0.0190487,-0.0537831
0.00743687,-0.0985174
-0.0214101,-0.117316
-0.0324904,-0.0414668
-0.0172548,0.0659038
0.0297068,0.0404325
0.0479465,0.0276312
0.0144971,0.0523912
-0.0818036,0.00943766
-0.137334,-0.0321715
-0.0633088,-0.00656166
-0.00169921,-0.0291892
-0.00661485,0.0196005
0.00329016,0.102979
0.00725803,0.0867818
0.0195083,0.0362416
0.0350827,0.0214114
0.0476944,0.0328151
0.0411654,0.0379532
0.00789041,0.0163615
-0.0082297,-0.00462048
-0.0154346,-0.030273
-0.00258182,-0.0303319
0.0312195,-0.0916605
0.0497364,-0.141969
0.0300209,-0.128727
-0.0137812,0.062938
-0.045357,0.0925554
-0.0329752,0.0521252
0.00520025,0.0560001
0.0530946,0.0349293
0.111315,0.0181536
0.109864,0.0164798
0.0330328,-0.0095804
-0.0554764,-0.0135162
-0.11689,-0.00939123
-0.14622,-0.0169705
-0.137982,-0.0339174
-0.0964903,-0.0347339
-0.0415253,-0.0281559
0.0172465,-0.0108743
0.0663605,0.0719907
0.0565849,0.0264809
0.0527079,-0.0367858
0.02656,-0.0125121
-0.044518,-0.0991191
-0.0749724,-0.0437935
-0.0531954,0.00155647
0.0376544,-0.0643165
0.135625,-0.0157772
0.170976,0.0452476
0.122102,0.0489748
0.0273239,0.0702185
-0.072217,0.0594922
-0.0833765,0.0471065
-0.0624486,0.0397316
-0.0664952,0.00351885
-0.0430474,0.0127866
0.0236137,-0.0217664
0.0609621,-0.0704879
0.0493527,-0.0139727
0.0186073,-0.0145219
-0.00113547,-0.0253802
-0.00208061,-0.0458593
-0.0217235,-0.00298739
-0.0422846,0.102435
-0.051886,0.0457791
-0.036331,0.00452175
0.00649885,-0.0243638
0.0440367,-0.00747042
0.0262949,-0.0210104
-0.0200568,-0.0170708
-0.0296742,-0.0095135
-0.0184867,-0.00239575
-0.00351972,-0.00953463
0.0184413,-0.0145833
0.017881,0.0367807
-0.00121438,-0.00500217
-0.0229736,-0.0766594
-0.0267031,-0.0190757
0.00208478,0.0192463
0.0484334,0.0707506
0.085397,0.0495626
0.0794659,0.00427657
0.0423908,0.0269783
-0.000432896,0.0173932
-0.00728341,-0.00710035
0.0197051,-0.0233637
0.021884,-0.0195431
-0.0581543,0.019464
-0.101211,0.0362952
-0.0959949,-0.0851513
-0.0317605,-0.0768807
0.00739797,-0.0778147
0.0197839,-0.0479077
0.00396643,0.052938
4.97e-05,0.05232
-0.017533,-0.0201258
-0.034216,-0.0315336
-0.0108773,0.0559288
-0.0147695,0.113745
-0.0338313,0.00642968
-0.0184426,-0.0321594
-0.00234389,-0.0363616
0.00270569,0.0107656
0.0468728,0.0191726
0.0831154,-0.0777158
0.0827376,-0.009719
0.0646245,0.0713782
0.0188312,0.0571938
-0.0391073,0.0436898
-0.0406869,0.0369791
-0.00206581,0.0150579
0.0145794,0.00865145
0.00372152,-0.00251704
0.0271076,-0.052302
0.0285485,-0.0387852
0.00600873,-0.0450864
-0.0233649,0.025314
-0.0569125,0.00881253
-0.0791338,-0.0729066
-0.0631325,-0.0430197
-0.0517899,-0.0242762
-0.0494581,-0.00754441
-0.00284618,0.102676
0.0528108,0.0595092
0.100477,-0.00314306
0.0930594,-0.0161462
0.0861826,0.0120833
0.0796935,0.00307975
0.00586225,-0.0716343
-0.0552455,-0.0203221
-0.0491379,0.0534143
-0.0606896,0.0954802
-0.0515463,-0.0262955
-0.0469625,-0.0367637
-0.0484091,0.0106635
-0.0551628,-0.00440745
-0.0249824,-0.030734
0.01268,-0.0441876
0.0466475,-0.0643979
0.076961,-0.0653676
0.0788805,0.00543127
0.0323204,0.0616203
-0.023041,0.0144037
-0.0179782,-0.0133078
0.00401667,0.00897461
-0.0259418,0.0713594
-0.0397973,0.0740172
-0.0277862,0.00315308
0.0340763,-0.0162871
0.0706541,-0.00225888
0.0613266,0.0137577
0.00611344,-0.000658653
-0.0637987,-0.030747
-0.0641264,-0.0302568
-0.0303296,-0.00440286
0.00691432,0.0245689
0.0255453,0.00132036
0.00701005,-0.0377869
-0.00579139,-0.0529023
-0.0108804,-0.00704547
-0.017451,-0.00598289
-0.0297215,0.0148916
-0.017588,0.0309713
0.0523003,0.0171308
0.142403,0.00564946
0.183788,0.0544136
0.0987252,0.0805684
-0.0535164,-0.0501121
-0.151305,-0.0684271
-0.136938,0.0151701
-0.0933543,-0.0340657
-0.0585001,-0.0352789
-0.0102874,-0.00739719
0.0257086,0.00854874
0.0452715,0.00832946
0.0278805,0.0246089
-0.0171768,0.0227892
-0.0270801,0.013072
-0.0151082,0.0272859
-0.00714101,-0.00928726
-0.00678866,-0.0810094
-0.00498026,-0.0494857
-0.00458448,0.0505092
0.00773802,0.0800666
0.0105494,0.0365203
-0.0233913,-0.0184207
-0.041427,-0.071499
-0.00201253,-0.0995504
0.044942,-0.0609461
0.0629111,-0.000384459
0.031736,0.0345566
0.00301242,0.0668081
0.0258711,0.065467
0.0327109,0.0572609
0.0182781,0.0403935
0.00787686,0.0143756
0.00853292,0.00429137
-0.00177202,-0.029355
0.00900696,-0.03996
0.0376653,0.00389725
0.0309722,0.00307762
0.0249539,-0.0444779
0.0199472,-0.0290389
-0.000798358,-0.0424491
-0.0145025,0.00677275
-0.0257751,0.0493233
-0.0297463,0.0319841
-0.0375462,0.0114259
-0.0514429,0.0356813
-0.0597429,0.0246336
-0.10597,-0.0331319
-0.128325,-0.057618
-0.105166,-0.0418879
-0.077425,-0.0245963
-0.00158287,0.0206722
0.0943187,0.0709682
0.170385,-0.0480441
0.182869,-0.0834403
0.114789,-0.0128876
0.0469691,0.0390272
0.018994,0.0699613
0.0065769,0.0796954
-0.0229419,0.0220522
-0.0459898,-0.0341426
-0.0297996,-0.0361865
-0.0154247,-0.0406913
-0.0146903,-0.0257329
-0.000326383,-0.0612711
0.01361,-0.0730349
0.000100028,-0.0310642
-0.0468854,0.030269
-0.106379,0.0531355
-0.104762,0.0981802
-0.0395329,0.097443
0.0346316,0.0259841
0.0646913,-0.00648427
0.00315447,-0.0474139
-0.0248661,-0.00478759
0.0115839,0.0302991
0.0733245,0.0205091
0.100137,0.02107
0.0989334,0.0163318
0.0372188,0.003122
-0.0304035,0.00412221
-0.115443,-0.0404503
-0.132902,-0.0368166
-0.0721014,0.00935398
-0.0141768,-0.0205891
-0.000186778,-0.0273195
0.00490907,-0.00123224
0.0265284,-0.00076178
0.0373553,0.00431255
0.0302587,-0.0260491
0.0308846,-0.0328288
0.0382425,0.00223464
0.0586228,0.0321978
0.0545303,0.0303623
0.0193041,0.0454736
0.0160991,-0.0167696
0.0520734,-0.0584397
0.073471,-0.0330926
0.0388149,-0.0944394
-0.0250207,-0.0326091
-0.0781831,0.0672596
-0.119433,0.0584514
-0.0924155,0.00183596
-0.0367253,0.01545
-0.013899,0.0198922
-0.000594607,0.0327832
-0.000936485,-0.0235804
-0.00913961,-0.0706746
-0.0239874,-0.0756887
-0.0353929,-0.0179549
-0.0128939,-0.00961724
0.0209477,0.00618583
0.00111072,0.0436546
-0.00595366,0.0721361
-0.0199168,0.0950983
-0.0281152,0.066652
0.0182821,0.019632
0.0745085,-0.0223101
0.066535,-0.0352984
0.0394116,-0.0493817
0.0609342,-0.0604837
0.0730835,-0.0730106
0.0208142,-0.0132876
-0.0249206,0.0983502
-0.0536472,0.102503
-0.0490453,0.042015
-0.0327494,0.0125621
-0.0209203,0.000617765
-0.0265401,-0.00168206
-0.0324471,-0.0149272
-0.00737214,-0.01509
0.017976,0.0150112
0.0339438,-0.0426925
0.0343773,-0.0540983
0.0163455,-0.0398726
0.00327553,-0.00114648
-3.94e-05,0.0348039
-0.014179,0.0147246
-0.0131615,-0.0229453
-0.0161728,-0.0307407
-0.0471693,-0.024822
-0.0519772,-0.0124081
-0.00947198,-0.0376982
0.0341404,-0.0495093
0.0862454,0.0475708
0.112533,0.0986771
0.0972326,0.0593218
0.0627193,-0.01792
-0.0246469,-0.0849479
-0.101391,-0.0792508
-0.0796264,-0.0252376
-0.0369002,0.0721694
-0.077729,0.0172827
-0.123423,-0.00121344
-0.0472282,0.00785191
0.0574221,-0.0194772
0.0846985,-0.00135148
0.0649046,-0.0152322
0.00398542,0.00261654
-0.0300118,0.0405097
0.014128,0.0723375
0.00659914,0.0192153
-0.00238816,-0.0170739
0.0498312,0.00243977
0.0365398,0.0300818
-0.00517916,0.0380364
-0.0510115,-0.00492721
-0.0591643,-0.0220691
-0.00773489,-0.0336012
0.0323463,-0.0322417
0.0103284,-0.0208862
0.00157719,-0.0234675
0.00572783,-0.0410696
0.0171566,0.00990051
-0.0104453,-0.0350298
-0.0316976,0.00239425
-0.0291514,0.0971754
-0.0284261,0.0498325
-0.00833596,0.0430318
0.0129533,0.0605103
0.0204021,-0.0330444
0.0167226,-0.0262841
0.0380679,-0.00201195
0.0324287,-0.00824658
0.00773613,-0.0495374
0.00134593,-0.0500792
0.00508692,-0.0126373
0.000707633,0.0227758
-0.0192732,0.0247001
-0.0290275,0.00845689
-0.0362498,-0.00352262
-0.0283347,-0.0235101
-0.00648147,-0.00181722
0.0207447,0.028058
0.027091,-0.00566394
0.00832547,-0.0522221
-0.0019639,-0.0534264
-0.0157233,-0.032877
-0.00490783,-0.0243228
0.0328679,0.0266185
0.0568236,0.0754749
0.0536463,0.0547717
0.0185381,0.0402166
-0.00604668,0.0296903
-0.0235211,-0.00965425
-0.0274104,-0.0490283
-0.0285615,-0.0817867
-0.0350027,-0.107651
-0.0408261,-0.0710207
-0.0246455,0.0698905
-0.0266531,0.13337
0.00013072,0.0516191
0.0337812,0.00313754
0.0436531,0.0103531
0.0442709,0.00161641
0.03133,0.0459621
0.00966483,0.0216836
0.001815,-0.0345438
-0.0332743,-0.0524499
-0.0645136,-0.0501444
-0.0428055,0.0404215
0.0136912,0.0266127
0.0584112,-0.00809968
0.0456338,0.0244335
0.0278549,0.0316976
0.013541,-0.0192436
0.0323614,-0.0130716
0.0202178,0.0132847
-0.0325218,0.00369089
-0.0605313,-0.00652024
-0.0743201,-0.0233077
-0.0471285,-0.0189349
-0.0134277,0.0143051
0.0107888,-0.0383727
0.0148484,-0.0429762
-0.00981498,0.00450856
0.0126446,0.0151442
0.0732251,-0.0052249
0.0659555,-0.0105115
0.0226568,0.00248068
-0.0280808,0.00190117
-0.0492384,0.017808
-0.0339264,0.00962102
-0.0108234,0.00946919
-0.00709569,0.0214427
-0.0215016,-0.00663225
-0.0156679,-0.0415589
-0.00542981,-0.111845
0.00479274,-0.147458
-0.00345428,-0.0896164
-0.0144257,0.159978
-0.0236584,0.196628
-0.0174866,0.050586
-0.0175771,0.0151183
0.000595247,-0.0187159
0.0371713,0.0425726
0.0391036,0.0344344
0.0507318,0.00820562
0.0747602,-0.00213117
0.0693146,0.0129745
0.0102646,0.0156125
-0.0402278,-0.0178093
-0.0462886,-0.0111597
-0.0442892,-0.00653096
-0.0632444,-0.00508677
-0.0375926,0.000511732
0.0193751,-0.0127849
0.0572239,-0.0178086
0.0777783,-0.0106414
0.122693,-0.00270129
0.131217,0.0276299
0.033287,-0.0168543
-0.100246,-0.0596531
-0.170354,-0.0584796
-0.163423,-0.069662
-0.097899,-0.0320085
-0.0323646,0.0427137
-0.0183923,0.0448002
-0.016717,0.0276822
0.013104,-0.0229535
0.0647161,-0.0171839
0.0598996,-0.0252852
0.0193203,0.0126665
0.00619015,0.0271232
0.0243849,0.0340662
0.027015,0.0405408
0.0231849,0.0149706
0.0187337,-0.0134182
0.0105044,-0.0133141
0.00856411,0.0348142
0.0100385,0.0322134
0.0110897,0.0154461
0.00351633,0.0123963
-0.00024447,-0.010695
-0.00435137,-0.0154676
-0.00392008,-0.00605316
0.0041559,-0.00656927
0.00042013,-0.00693093
-0.00530578,-0.00719197
-0.00295707,-0.0129843
-0.0013272,-0.0175926
0.0290338,-0.0107675
0.0573856,0.00700639
0.0565506,0.0162953
0.0286939,0.00910629
0.00651582,0.00739863
-0.0214768,0.004356
-0.0292088,0.00324981
-0.0639236,0.00524965
-0.0734665,-0.00816382
-0.0282527,-0.0298122
-0.0102497,-0.0437797
0.00399729,-0.0655106
0.0261289,-0.0712338
0.0172201,-0.0787667
-0.0712025,0.0430991
-0.108581,0.136846
-0.0874799,0.0504967
-0.0398098,-0.0250113
0.0117944,-0.0242036
0.0189684,-0.0151281
0.0352125,-0.0138744
0.0572038,0.00680134
0.052923,-0.0139208
0.026614,-0.0194654
0.013354,0.0290818
0.0257773,0.0658847
0.0406474,0.115535
0.0237325,0.0705423
0.0132331,0.0182329
0.00654076,0.012439
-0.00809862,-0.000522187
-0.0263854,-0.0224604
-0.0172457,-0.0367632
-0.00903727,-0.0257778
-0.0140178,0.00018772
-0.0242859,0.014374
-0.0275038,0.00528928
-0.00330087,-0.0127673
0.0168187,-0.0170825
0.0546191,-0.00520987
0.0593996,0.0061904
0.0117948,0.000277975
-0.0322901,-0.0176553
-0.0583404,-0.0240627
-0.0462002,-0.0196276
0.0100725,-0.0124729
0.0487812,-0.0310572
0.0451882,-0.0770849
0.0287362,-0.128988
0.0464199,-0.0563482
0.0373073,0.0590979
0.027964,0.0308752
-0.000676505,-0.0127603
-0.0470569,0.0148037
-0.0549992,0.0825995
-0.0501519,0.0751504
-0.0337481,-0.0753884
-0.0217683,-0.0559213
-0.012065,0.127638
0.000739457,0.0926107
0.00722788,-0.0245762
0.0172657,-0.0193499
0.0163482,0.0194201
0.00112472,0.0105501
-0.0415509,-0.0298876
-0.0679405,-0.0457836
-0.0534359,-0.00924719
-0.0148995,0.0635487
0.0217609,0.057333
0.067624,0.0124892
0.108398,-0.0372384
0.097472,-0.04942
0.0303023,0.00828251
-0.0346471,0.0233592
-0.066128,0.0146404
-0.0537226,0.00383221
-0.0109033,-0.00522181
0.0214174,-0.00320012
0.0216125,0.00719522
0.0225409,0.0108234
0.0374267,0.00604834
0.0416485,-0.00623653
-0.0130751,-0.0159433
-0.0796772,-0.01454
-0.110872,0.000135719
-0.0737433,0.0137494
0.00871017,0.00372127
0.075336,-0.0145515
0.0767959,-0.0282712
0.0434525,-0.0521966
0.0318996,-0.109437
-0.0285922,-0.108716
-0.116586,-0.0131513
-0.0846614,0.00296088
-0.0128269,0.0373683
0.0314748,0.0640073
0.0257461,0.0887925
-0.00652773,0.0458851
0.0252643,0.0183184
0.0818445,0.0253076
0.0632233,0.0246299
-0.000936428,-0.0149006
-0.0510927,-0.0302807
-0.0315775,0.0473842
0.0183618,0.0391334
0.0183316,-0.0030426
-0.0107439,0.011497
-0.0263288,0.0125666
-0.0195057,0.00780084
0.000551447,-0.00454631
0.0165134,-8.57e-07
0.0182324,-0.00153063
0.0142773,-0.0120884
0.00568857,-0.0331843
0.000352573,-0.059474
0.0012095,-0.0641955
-0.000265095,-0.00264119
-0.0073078,0.0499851
-0.0163076,0.0283045
-0.0160306,0.0158619
-0.0153712,-0.0010018
-0.0176916,-0.0129053
-0.014452,-0.0112082
-0.00672663,-0.0040848
0.00613623,0.00397059
0.0174811,0.0053101
0.0385537,0.00230495
0.0500523,0.00559907
0.0401447,0.0129057
0.0158903,0.0173995
0.00420018,0.0210969
0.0190074,0.0179382
0.0505757,0.0064132
0.103223,0.00124874
0.102269,0.00809617
0.0241203,0.00938276
-0.0448421,-0.00237544
-0.0634581,-0.00927562
-0.100733,-0.0616076
-0.118659,-0.148598
-0.118054,-0.205703
-0.112014,-0.186329
-0.115626,-0.0379163
-0.0859261,-0.0436993
0.00573393,-0.030438
0.0916697,0.124195
0.0806873,0.299798
0.0448858,0.258503
0.0247877,0.0265502
0.00676264,-0.011831
-0.0154075,0.0692299
-0.0338298,0.0713818
-0.0176236,0.0143176
0.0257379,-0.0343443
0.0266172,0.00529825
0.0254402,0.0293218
0.0392833,-0.00405529
0.06341,0.00346756
0.0625783,-0.00984087
0.0458554,-0.0110782
0.0189977,-0.0137511
-0.000931981,-0.0234768
-0.0118553,-0.0335656
-0.0159543,-0.04095
-0.019865,-0.0420137
-0.0278907,-0.0411114
-0.0384187,-0.0338055
-0.0408532,-0.0188893
-0.0313675,-0.0114846
-0.0157994,-0.00855111
-0.00439444,-0.00165207
-0.00136521,0.000776156
0.00190099,0.00127957
0.0086741,0.0042522
0.0259322,0.00942021
0.0789804,0.013229
0.111294,0.0154547
0.0853489,0.0125919
-0.00227787,-0.000162576
-0.0714365,-0.00471357
-0.058805,1.79e-05
0.0130423,-0.005274
0.132471,-0.00929335
0.080788,-0.0072676
-0.0886851,-0.00482464
-0.22771,-0.00860654
-0.221206,-0.0342245
-0.0825193,-0.061049
0.0564637,-0.0720942
0.100435,0.000178794
0.0948308,0.119613
0.0727153,0.0985388
0.0173286,0.0372717
-0.0367713,-0.000803443
-0.0555837,-0.0198102
-0.0252513,-0.0284772
0.00241307,-0.0304984
0.0219028,-0.0193062
0.0121867,-0.021867
-0.00522621,0.00140375
-0.0137512,0.0450861
-0.011197,0.0418182
0.00384085,0.00303999
0.0123747,-0.0116404
0.00689338,-0.0125848
0.00452212,0.0181445
0.0143806,0.036688
0.0257637,0.0181368
0.026225,0.00813995
0.00758317,0.00954953
-0.0154515,0.00634413
-0.0192782,-0.0115336
-0.0102206,-0.0242299
-0.000906265,-0.0231562
-0.00553284,-0.0186966
-0.0192507,-0.014219
-0.0268895,-0.00601243
-0.0207176,0.00297423
-0.00427573,0.0054512
0.00862288,0.00812499
0.00387027,0.0140581
-0.00636543,0.0123606
-0.00628329,0.00440087
0.00514496,-0.00253424
0.0138869,-0.000776449
0.0108761,0.00354424
-0.0033842,0.00621917
-0.00332336,0.00132488
0.0435462,-0.00128077
0.134668,-0.022535
0.173437,-0.0549945
0.117812,-0.084932
-0.0293212,-0.0620066
-0.209256,0.0246519
-0.198712,0.0300612
-0.0684758,0.0132856
0.0207044,0.0099801
0.0712365,0.00272259
0.0441609,0.00805828
0.00211108,0.0341194
-0.0382506,0.000641292
-0.0389509,0.00817278
-0.0331404,0.0315701
-0.00689361,0.0210558
0.00824055,0.0185129
0.0108692,-0.0107831
-0.00320887,-0.0108044
-0.00216294,0.0259204
-0.000298091,0.0427439
-0.00030197,0.0104833
0.00631942,0.00341382
0.0150817,-0.0011932
0.016098,-0.00376194
0.0135354,0.00521653
0.0131287,0.00552562
0.0178271,-0.00695541
0.0166686,-0.0184777
0.00713411,-0.0201808
-0.000748413,-0.0138961
-0.0185211,-0.00349387
-0.0402663,-0.00259913
-0.0243403,-0.0154208
0.00444244,-0.0227627
0.00155077,-0.0168734
-0.0103467,-0.0110415
-0.0112038,-0.00586874
-0.00753995,-0.00182132
-0.00737152,0.00490034
0.00780234,0.00893677
0.0162846,0.0131593
0.0222461,0.0144808
0.0392291,0.00609977
0.0575287,-0.0126128
0.049896,-0.0094734
0.0252738,-0.00624348
-0.0206771,0.0104518
-0.0446507,0.00745948
-0.0294699,0.000563346
-0.0570333,-0.0100995
-0.0647901,-0.00144001
-0.0396658,-0.00627667
-0.0125853,-0.0282574
0.0601812,-0.0171566
0.0997485,-0.00751682
0.0738035,0.0126598
0.00806423,0.0142148
-0.0730348,0.0121719
-0.082516,0.0173912
-0.024432,0.0124188
0.0093322,0.000722488
0.0145191,-0.00118869
0.0202217,0.00329585
0.0180377,0.0101963
-0.00172796,0.00984116
-0.0165128,0.00734144
-0.0125862,9.99e-05
0.00206063,-0.00606924
0.00995542,0.000226308
0.0127516,-6.25e-05
0.00224499,-0.0140331
0.00103452,-0.0368473
0.00672068,-0.0332148
0.00500953,0.0515392
-0.00997744,0.103305
-0.00570642,0.046024
0.00616039,0.0155663
0.0109135,-0.053018
0.0128419,-0.0431982
0.00520379,0.000841057
-0.00913488,0.00468521
-0.0166681,-0.0485544
-0.0249799,-0.0645942
-0.0389182,-0.0269822
-0.0514071,-0.0368592
-0.0432159,-0.0526921
-0.0112993,0.0188377
0.0482473,0.0708284
0.103803,0.0187097
0.115546,0.0189884
0.0750537,0.0667248
-0.0130637,0.0600432
-0.0653565,-0.0111582
-0.0455504,-0.0314171
0.0172802,0.000699755
0.0247976,-0.0178856
-0.0275585,-0.00409741
-0.0498387,0.0587546
-0.0325673,0.0394384
0.0218054,-0.0333693
0.0376592,-0.0177213
-0.00721045,-0.0102283
-0.0649047,-0.0131646
-0.0666168,-0.00675675
-0.0341652,-0.00861406
-0.0496634,-0.0454609
-0.0314628,-0.0229439
0.00944898,0.0183
0.0599364,0.0185911
0.0693476,0.00250505
0.0343807,0.00588949
0.00552891,-0.00171704
0.0103699,0.00317424
0.0214134,0.0121565
0.0252723,-0.0406542
0.0317504,-0.0632616
0.0256283,-0.0689089
0.013064,0.015941
0.0108467,0.0319748
-0.00398422,0.00507227
-0.0436442,0.0388134
-0.0462954,0.10484
-0.0106561,0.0743443
0.0130287,0.0125375
0.0166302,-0.00371353
0.003493,-0.0179111
-0.0204748,-0.0133502
-0.0134969,-0.0147512
0.0019136,-0.0295876
-0.0106994,0.000698163
-0.0243232,0.0238241
-0.0180956,0.00300851
-0.0107086,-0.0166736
0.0415121,-0.0543125
0.079217,-0.0681329
0.0440746,-0.0194299
-0.0433309,-0.00512201
-0.0853054,-0.017127
-0.0484417,-0.0424436
0.0041306,0.00972929
0.00832109,0.061916
-0.00382801,0.0116964
0.0195024,-0.0300514
0.037083,-0.0240091
0.0374179,-0.00577745
0.0551631,0.0237938
0.047403,0.04881
0.00332948,0.0960244
-0.0481442,0.0599474
-0.0800774,0.011687
-0.0559367,0.0684904
0.00286359,0.000360038
0.0352734,-0.0561508
0.0296325,-0.0295304
0.00732008,-0.00410079
-0.0253088,-0.0392916
-0.0520635,-0.0222758
-0.0638536,-0.029603
-0.0442279,-0.010855
-0.0150452,0.000710402
0.0175414,-0.0116127
0.0451514,-0.00194049
0.0628458,-0.00760336
0.051035,-0.0070696
0.0155521,0.00255449
-0.0182936,0.0144221
-0.0275579,0.0124394
0.00262907,-0.000661387
0.0127902,-0.00814377
0.0145177,-0.0183978
-0.000815584,-0.00593127
-0.0132921,0.00436917
-0.0194655,0.0128218
-0.0232972,-0.00147418
-0.0144239,-0.000486324
-0.0028998,0.00659345
0.017901,0.00614315
0.0410058,0.00371267
0.0562164,-0.0143281
0.0491063,0.00112873
0.0321231,0.0254993
0.030706,0.00912745
0.0215903,-0.00570146
-0.0208558,-0.0123878
-0.0532635,0.00988922
-0.051986,-0.000352177
-0.0198693,-0.00295557
0.0143093,0.00447844
0.0234567,0.0288796
0.00585479,0.0282769
-0.00138497,0.0151351
-0.0341125,-0.0322924
-0.0841133,-0.0347138
-0.077768,-0.011118
-0.0578244,0.00831323
-0.0453094,-0.0171886
-0.0321096,-0.0604585
-0.00608519,-0.0443182
0.0538812,0.00797805
0.0861503,0.0511172
0.0819943,0.0258176
0.0634021,0.0160692
0.0534788,0.0132536
0.0442528,0.00454653
0.0274883,0.0029559
-0.0071979,-0.0192355
-0.0252117,0.00459051
-0.0084228,0.01624
-0.00600115,0.0102309
-0.0125251,0.02231
-0.0147227,-0.0276849
-0.0166455,-0.0298977
-0.0249079,-0.0143273
-0.02683,0.00618486
0.0143482,0.0251317
0.0771804,0.0206138
0.0607676,-0.00545149
-0.0259916,-0.0355923
-0.0971661,-0.0486933
-0.114516,-0.0174739
-0.0726555,0.0246287
-0.0391786,0.0265347
-0.00977723,0.0272954
0.0199279,0.0120421
0.0342688,0.00268598
0.0319031,0.00390933
0.023995,0.00650502
0.0352829,0.00266751
0.0412776,0.0136775
0.0450503,0.026954
0.0209745,-0.00684591
-0.0205134,0.0145603
-0.0590424,0.00143878
-0.0607088,-0.00619449
-0.0115056,-0.0179153
0.0412824,-0.0205163
0.0543004,-0.0339525
0.0547623,-0.0411925
0.0599274,0.0114622
0.0469101,0.0207402
0.0313613,-0.0151145
-0.0240838,-0.01065
-0.0605768,0.0105045
-0.069578,0.0404114
-0.0488229,0.00489466
-0.0229167,0.00802705
-0.00885353,0.00906714
-0.00755606,-0.0177284
0.00167291,-0.014876
0.0257719,-0.0214607
0.034321,0.00179175
0.0240853,0.0234085
0.00769607,0.00723525
-0.029708,-0.00912938
-0.0731648,-0.00107409
-0.0649865,0.00595254
-0.0145612,-0.00276253
0.0248821,-0.012883
0.0285294,-0.0159174
0.0275222,-0.00718206
0.0286968,0.0204497
0.0267752,0.0116999
0.0254799,-0.00460375
0.0267308,0.000166858
0.0117826,0.00972258
-0.0017561,0.0152242
-0.00254062,0.0142474
0.00541017,-0.00605591
0.00262451,-0.0200497
-0.0105569,-0.0358669
-0.0346917,-0.0121332
-0.0482879,0.00532616
-0.0332377,0.0260902
-0.0101556,0.0268559
0.00744403,0.0117833
0.00357131,-0.0317304
0.00906153,-0.030282
0.018545,-0.00653297
0.00707969,0.0115278
0.00748013,-0.00257847
0.0211332,0.000487956
0.0183187,0.032208
0.0219863,0.00700313
0.033964,-0.00594172
0.0337952,-0.00430036
0.0143383,-0.0035658
-0.026811,-0.00616169
-0.0416924,-0.00493242
-0.029957,0.00198206
-0.0153748,0.00405976
-0.01474,-0.00483523
-0.00204435,0.0064636
-0.00228406,0.0264
-0.0161544,0.00628274
-0.0192197,-0.00890445
-0.0248163,-0.00298369
-0.00690358,0.00504195
0.0239878,0.0126055
0.0538172,0.00789835
0.0462054,-0.00477545
0.0110535,-0.0157556
-0.0170944,-0.0253007
-0.00926128,-0.00704935
0.00565048,0.013196
0.0172526,0.0295517
0.0116476,-0.0187704
-0.0156297,-0.0461023
-0.01998,-0.0391315
-0.000239903,-0.00654329
0.00339991,-0.0181279
-0.00533288,-0.0175169
-0.0152462,0.0553962
-0.0222141,0.0627729
-0.0274425,0.0350357
-0.0369735,0.0298216
-0.0418277,0.0118442
-0.0168744,-0.00064904
0.00575656,-0.00710416
0.0152935,-0.0109691
0.0242104,-0.00632221
0.0178696,-0.0100393
0.00477327,-0.00145247
0.00417656,0.00402025
0.0181847,-0.0159911
0.0176523,-0.0219335
0.0284492,-0.0224282
0.0381832,-0.0215105
0.0317128,0.0205731
0.0259104,0.0159668
0.00819538,-0.0102584
-0.0192286,-0.00392716
-0.0396067,0.00731185
-0.0444723,0.0103255
-0.0349645,0.00768184
-0.0085446,-0.00409116
0.0283873,0.00471154
0.0440698,-0.0102857
0.0118608,-0.0119088
-0.0429237,-0.0062456
-0.0630154,-0.0101792
-0.0365908,-0.0168313
0.00364869,-0.038966
0.0338923,-0.0178835
0.0400299,-0.0106239
0.0381291,0.0184011
0.0100684,0.0554988
0.0104134,0.0359231
0.0121465,0.0199575
-0.0171455,0.027999
-0.0114073,0.0318658
0.0120311,-0.0391758
-0.0138911,-0.0659258
-0.0464014,0.0147386
-0.0241326,0.0612297
0.0142846,0.0139071
0.0226167,0.0194746
0.0129254,0.022986
0.010207,-0.0246829
0.0265123,-0.0513462
0.0358212,-0.0392619
0.0382205,-0.0250273
0.0309871,0.0128054
-0.015715,-0.012537
-0.0622906,-0.0368747
-0.0782958,0.0084813
-0.0773073,0.0397954
-0.0405489,-0.00773486
-0.0125192,-0.0269694
-0.0138041,0.00852264
0.0184946,0.0419945
0.0753375,-0.00126871
0.0888334,-0.0174282
0.0741557,0.0180451
0.047778,0.045069
0.0120151,0.0191715
0.00220235,0.00497512
-0.00646982,-0.0134032
-0.0430897,-0.0356427
-0.0829728,-0.0306094
-0.0802663,-0.0241577
-0.0625274,-0.00226493
-0.0506235,0.0135837
-0.0297461,0.0240299
0.0104334,0.0124855
0.0351563,0.00316165
0.047538,-0.00202766
0.0491853,-0.00610632
0.0341807,-0.00211252
0.00981508,0.0269419
-0.0113696,0.0363236
-0.00187954,-0.0128995
0.0214632,-0.0305357
0.0313876,-0.0201757
0.029964,0.00215712
0.0181041,-0.00291401
0.00889276,-0.00624454
0.00135781,-0.0042965
-0.00368796,-0.00758231
-0.0195616,-0.0158064
-0.0228538,-0.00435681
0.00471913,0.00477009
0.0397335,0.0111475
0.0401058,0.0268799
0.0203883,-0.0168858
-0.0145587,-0.0128654
-0.0560506,0.0123518
-0.0803888,0.0144933
-0.0697953,0.0227184
-0.0617046,0.0141585
-0.0380185,-0.00758943
-0.0109048,-0.0122027
0.0203335,-0.0116318
0.0582647,-0.0171104
0.0665109,-0.00909804
0.0253792,0.033744
-0.0110305,-3.46e-05
-0.0119897,-0.00540679
-0.00076459,1.41e-05
-0.00531448,0.0017397
-0.0143452,0.00553441
-0.0037998,-0.00275316
0.0133002,-0.00881332
0.0120412,-0.00846363
0.00754771,0.00337171
0.0161858,0.019994
0.0144341,-0.00487954
-0.000860446,0.000434473
-0.0153768,0.0177462
-0.00719594,-0.0348629
0.035022,-0.0198081
0.057959,-0.0281601
0.0236575,-0.00585428
-0.0102685,0.0198844
-0.0195487,0.0349499
-0.0308303,0.0041951
-0.0211062,0.0032459
-0.0135146,0.0057
0.000295572,0.000692062
0.0325006,-0.00938253
0.0462673,-0.0308755
0.0461718,-0.0514229
0.0306792,-0.0442868
-0.00260997,0.00328272
-0.0384645,0.0706042
-0.0435276,0.0828829
-0.0313911,0.035002
-0.0339675,0.0178094
-0.0223886,0.00389937
-0.0105405,-0.00228283
-0.0251491,0.00328032
-0.0394825,-0.0213374
-0.0444877,-0.0261573
-0.036419,0.00204088
-0.0132026,0.00453874
0.0185766,-0.0259511
0.0359865,-0.0217952
0.0495163,-0.0177846
0.0498972,0.0135344
0.0405717,0.0236957
0.0208263,0.000516506
0.0194173,-0.0343572
0.022121,-0.0425714
0.00793056,-0.0173294
0.011167,0.0182834
0.00104766,0.0347358
-0.0146871,0.00594341
-0.0240561,-0.012021
-0.0303214,0.0052129
-0.0201026,0.00668093
-0.000882792,0.0255729
-0.00365477,0.0115387
-0.0204988,-0.00950374
-0.0369936,0.00595829
-0.0327313,0.000375559
0.00526254,-0.0107776
0.0247719,-0.031565
0.0149831,-0.0402181
0.00436753,0.00319001
0.00736465,0.0399988
0.000430311,0.00726215
-0.0167454,0.0224443
-0.0301696,0.0307584
-0.0275104,-0.0104601
0.0146488,-0.00893097
0.0625696,-0.0073663
0.0952034,-0.00870141
0.0633874,0.00945057
-0.00146086,-0.000883593
-0.0127954,-0.010212
-0.0083648,-0.024761
-0.0152029,-0.010517
-0.00512641,0.066286
0.0202334,0.0634091
0.0373957,-0.0339565
0.0163011,-0.0375863
-0.0400252,-0.0166713
-0.079539,-0.0163089
-0.0698853,-0.0498627
-0.0236144,-0.0556377
0.0143378,0.0196844
0.00391043,0.0643858
-0.0232475,0.031438
-0.0359067,-0.00943963
-0.0180172,-0.0171386
-0.00276488,-0.00379838
0.00728982,0.0125848
0.0259741,0.0185288
0.034531,0.0256674
0.0205192,0.0293547
0.00225003,-0.00649606
0.000251823,-0.0437723
0.0135655,-0.0423295
0.0136512,-0.0248197
0.00648895,0.0390819
-0.00294,0.0222176
8.72e-05,0.00775845
0.0111782,-0.00585481
0.0169202,-0.0265793
0.0127621,-0.042877
0.0129964,0.0183672
0.00255494,0.0370546
-0.0170998,0.017613
-0.0351143,0.0225723
-0.0484752,0.0105199
-0.0346501,0.00145999
0.00376213,-0.0130257
0.0385648,-0.021848
0.0446193,-0.01934
0.00962429,0.00782674
-0.0159141,0.0297357
-0.0120955,0.011851
-0.00628608,0.00117981
0.00160157,-0.0198567
0.00644487,-0.00342038
0.0130161,0.00605663
0.0235135,-0.0211206
0.0251254,-0.0352805
0.0167188,0.00338688
-0.00516834,0.00227737
-0.0262912,0.0150016
-0.0427944,0.0249459
-0.0450963,0.0200098
-0.0168659,0.0262519
0.0117801,0.0367025
0.0191903,-0.00428207
-0.00840242,-0.0543635
-0.0234762,-0.0167202
0.00218391,-8.58e-06
0.0172129,0.0117754
0.00155206,-0.0175536
-0.0176433,-0.0452791
-0.0226117,-0.0651213
-0.00931921,-0.0305674
-0.000331572,0.027314
0.0282004,0.0311598
0.0801609,0.0119064
0.124186,0.00502234
0.0779912,0.0140321
-0.0178636,0.00856503
-0.0802117,0.00834249
-0.0774801,0.0410069
-0.0305426,-0.016876
0.0160289,-0.0129293
0.0387903,0.0380603
0.0281313,0.0130103
-0.00258001,0.012269
-0.031263,0.0149422
-0.0425415,0.00740709
-0.023045,-0.0115339
0.00879982,-0.0351434
0.0253534,-0.0382639
-0.00134818,0.0137207
-0.0592191,0.00403247
-0.0822369,-0.0199941
-0.0459629,-0.0268894
0.0105927,-0.0149778
0.0401195,-0.018883
0.0381764,-0.00548011
0.0016546,0.0607539
-0.0165279,0.0505073
-0.00972453,-0.0122491
0.00958806,-0.00171843
0.0254932,-0.0139011
0.0159714,-0.00224345
-0.00200764,-0.00573417
0.00402371,-0.0159299
0.0116119,0.0109375
0.0340197,0.011412
0.0323812,0.0184633
0.00220443,0.0018183
-0.0217867,-0.0204378
-0.00945406,0.00550029
0.00474266,-0.000265002
0.00521743,0.00323263
0.0117439,-0.0220017
0.00782003,-0.0222066
0.00842454,0.00682869
0.0122958,0.022875
-0.00492442,0.0202014
-0.019035,0.0190779
-0.0154774,0.00864765
-0.0227677,0.00152937
-0.0258276,-0.0078182
-0.0113715,-0.0176893
0.00186392,-0.0101259
0.00598679,0.00557231
0.0259616,0.0158984
0.018711,0.0126438
-0.000283754,-0.00326118
0.00803048,-0.027591
0.0403346,-0.0557137
0.0598367,-0.043572
0.0476224,0.00207752
-0.00865906,0.0133906
-0.0642802,0.00721493
-0.0842936,0.0168444
-0.0716775,-0.03359
-0.0193089,-0.0273424
0.0198854,0.0301206
0.00653862,0.0315222
0.00479948,0.00104229
0.0274892,0.0183945
0.033765,0.0359595
0.0268721,0.0290278
0.0121728,0.0174336
-0.00810418,-0.00721298
-0.0292377,-0.0291158
-0.0404168,-0.00792064
-0.0400545,0.0129526
-0.0220618,0.0232381
0.000924036,0.0419731
0.0119481,-0.00542996
0.027367,0.00254994
0.0174752,0.0378032
-0.0112512,-0.0270979
-0.0213397,-0.0510295
0.00184273,-0.026951
0.0166148,-0.00288013
0.00436304,-0.0338617
0.037879,-0.0226714
0.0696652,-0.04821
0.0371046,-0.0494345
0.00995884,-0.00391121
-0.00699716,0.0427725
-0.0338031,0.0495258
-0.0409954,0.0361553
-0.045074,0.0176005
-0.0573239,0.00330561
-0.0391301,-0.00259162
-0.0144343,0.00637142
-0.00191355,0.0101617
0.0120826,-0.00892746
0.0336099,-0.0219677
0.0394659,-0.0116929
0.0679329,0.0203026
0.0863725,0.0129965
0.0568922,0.00680465
0.00402231,0.00494898
-0.0468031,-0.0065493
-0.0665068,-0.000253976
-0.0336081,0.0123266
-0.0104883,-0.00674236
-0.00379114,-0.0136125
0.0195851,-0.0389908
0.0227418,-0.00152941
-0.0118139,0.0297875
-0.0285204,0.0157204
-0.0268159,0.00885231
-0.0208945,-0.0225292
-0.00806187,-0.0360464
-0.00100068,-0.00515324
-0.00627506,0.00390602
-0.0133254,-0.0204222
0.000833984,-0.0018439
0.0102638,0.0142289
0.0154424,0.0199185
0.0134396,0.0284475
0.00522041,0.081175
0.00438645,0.0090273
0.0199949,-0.0542288
0.0151071,-0.0345305
0.00620247,-0.0121119
-0.0200347,0.0281886
-0.0351209,0.0121919
-0.0178691,-0.023593
0.0150427,-0.0336821
0.0309779,-0.0310736
-0.000707723,-0.0325958
-0.0279434,0.00701313
-0.00720191,0.0554638
0.0158976,0.0354152
0.0118962,0.00786453
0.00582724,-0.00780763
-0.00940669,0.00116688
-0.0285748,0.0276964
-0.00625389,-0.0232012
0.0342805,-0.00463828
0.0636385,0.00128214
0.0722796,-0.0016023
0.0447514,-0.00639026
-0.00495779,0.00741748
-0.050999,0.0167918
-0.0458591,0.0106596
-0.0178662,-0.00207979
-0.0232981,-0.0090407
-0.0459678,0.00104311
-0.036489,0.0113689
-0.0174385,0.0061419
-0.0219261,-0.00884377
-0.0234044,-0.0214586
0.0018729,-0.0256902
0.0270253,-0.0236127
0.0265807,-0.0177318
0.0350878,-0.00296295
0.031502,-0.0116091
0.0084588,0.00877211
-0.0166505,0.00528583
-0.0258333,0.00397435
-0.0159463,0.0250298
0.00819171,0.00510289
0.0325071,-0.0230416
0.0373899,-0.0257053
0.00337239,0.006791
-0.023959,0.0419185
-0.0245395,0.0312008
-0.0221646,0.00102464
-0.00125193,-0.0111052
0.0402712,0.00460838
0.0484897,0.00406671
-0.00616979,-0.00566509
-0.0164177,-0.00829757
0.0454219,-0.0232576
0.0533695,-0.0164575
0.00459694,0.0381952
-0.0438213,0.0213709
-0.0609207,0.0337865
-0.0518529,0.000991212
-0.0269252,-0.0076782
-0.0244544,-0.015108
-0.0299763,-0.0237521
-0.0211417,-0.00344111
-0.00140207,0.0138822
0.0136703,0.0108205
0.0145323,-0.00584817
0.0154216,-0.0208331
0.0484919,-0.00241951
0.0811459,0.00258664
0.0818258,0.00529664
0.0391326,-0.00591699
-0.0480493,-0.0163375
-0.0878696,-0.014111
-0.0734567,-0.023955
-0.0100615,0.0206904
0.0256693,0.0241235
0.0406227,0.00590056
0.0464418,0.0104615
0.0198863,0.0176631
-0.0347933,0.0124373
-0.0862138,0.00278635
-0.0791036,-0.0209613
-0.0318229,-0.0526964
0.0136913,-0.00436402
0.0318984,-0.00163055
0.0305394,0.00875678
0.0228949,0.0115733
0.0190094,0.0052182
0.00216955,0.00391115
-0.00491136,0.00618383
0.00343669,-0.00920757
0.0057485,-0.0344888
0.00541747,-0.020377
0.0014684,0.0251453
0.0457141,0.0725856
0.103143,0.0579591
0.139767,0.0427186
0.0959909,-0.0421611
-0.0249401,-0.0933516
-0.138673,-0.044114
-0.145935,-0.0475159
-0.0831693,-0.0123078
-0.0239216,0.0050833
0.0127515,0.0038299
0.0150226,0.0600386
-0.0123187,0.0106462
-0.0193076,-0.0389775
-0.0302587,-0.0118845
-0.0415321,-0.00114913
-0.00783471,0.0440473
0.0189618,0.0605345
0.0132767,0.0242297
0.0141582,0.0113209
0.00609897,0.046467
-0.00450724,0.0354585
0.00535494,-0.0430709
0.026822,-0.0368106
0.0339235,0.0155079
0.0090969,0.0248157
-0.000129507,0.000779694
0.0220208,-0.0126812
0.0648724,-0.0307979
0.100462,-0.0375946
0.0738804,-0.0227466
0.00670557,0.00677579
-0.0566413,0.0124156
-0.0714617,-0.0170884
-0.0505338,-0.0169784
-0.0451372,0.00997742
-0.0404338,-0.00156681
-0.0183015,0.000899134
-0.0186755,0.00518926
-0.0209888,-0.000274143
-0.00354234,-0.0223805
0.0163958,-0.0196328
0.00434204,-0.0354775
-0.0295457,0.0136175
-0.0510566,0.0145135
-0.041188,0.00470248
-0.0211422,-0.0166432
0.00865131,0.0286628
0.0236001,0.0172463
0.00907537,-0.0168451
0.0569621,0.0519224
0.109205,0.0601331
0.0931568,-0.0389082
0.0293631,-0.012588
-0.0393431,-0.0492429
-0.046226,-0.032117
-0.000830455,-0.0177896
0.0164784,0.00710678
0.000485365,0.0385477
-0.00616154,0.0415404
0.00844517,-0.000347194
0.0268317,-0.0162041
0.0012215,-0.00966626
-0.0333672,-0.0114055
-0.0462249,-0.0118012
-0.0213653,0.0231811
0.0152615,0.0130615
0.0103885,-0.0165663
-0.024393,-0.0224177
-0.0418559,-0.0215955
-0.03687,-0.0292139
-0.023711,0.0155713
-0.0135385,0.0345512
-0.00349197,0.00931257
0.0210425,0.00724278
0.042004,0.0528348
0.0624491,0.0743928
0.0568824,0.0170234
0.0265657,0.0205212
-0.00246166,-0.00907168
-0.0273009,-0.0808867
-0.0375493,-0.0891738
-0.0268419,-0.065594
-0.0199783,0.00744831
-0.0190557,0.0101522
0.00598017,0.00368873
0.0159168,0.019376
0.00293123,0.0530647
-0.00224918,0.0482445
-0.00625013,-0.0421581
-0.00393357,-0.0135174
-0.00466021,0.00820125
-0.0188311,-0.000206332
-0.0104304,0.0152274
0.00293317,0.0234483
-0.00319416,0.0184147
-0.0172381,-0.00260379
0.00936023,-0.00362081
0.0500404,0.00838348
0.0730772,0.0215152
0.0657444,0.0128142
0.0305431,0.00653744
-0.0114307,-0.00110024
-0.0243449,-0.0051701
-0.0267681,-0.0307973
-0.0293879,-0.0448862
-0.0479036,-0.0307164
-0.0745868,-0.0267046
-0.0575763,-0.00734714
-0.0140856,0.00691517
0.0342864,0.00365229
0.0982389,-0.00892922
0.123381,-0.0139041
0.076186,0.00325527
0.00773278,0.00176684
-0.0302629,-0.0147242
-0.0238615,-0.0191259
-0.0277736,0.0247683
-0.0570158,0.0306636
-0.0670248,0.0145978
-0.065944,0.0306511
-0.0351286,0.0246473
0.0139347,-0.0107156
0.0336171,-0.0234877
0.0431538,-0.00852745
0.039479,0.00813083
0.0225125,0.00490234
-0.00786466,-0.0150334
-0.0337239,0.00162757
-0.0271975,0.0193282
-0.000910023,0.0410408
0.00139826,-0.00307817
0.00325588,-0.0207022
0.010627,-0.00456698
0.0245574,0.0200844
0.0116406,0.0047568
-0.0389875,-0.0057918
-0.0700358,-0.0116835
-0.0658075,-0.0310013
-0.0435483,-0.00429485
-0.0140614,-0.0163424
0.0335714,-0.0303929
0.0748592,0.0159554
0.0810177,0.0368904
0.0636691,-0.00186591
0.0476097,0.0115803
0.036428,0.0246039
0.0102763,-0.0251737
-0.027612,-0.0309897
-0.060014,-0.00505466
-0.0638324,0.0637402
-0.0523436,0.0253606
-0.031483,-0.00273677
-0.00839843,-0.008717
0.0150615,-0.0297864
0.0226005,-0.0255874
0.0346256,-0.0222755
0.0445079,-0.0177693
0.029396,0.00839132
0.013916,0.0116402
0.000677342,-0.00160928
-0.0108792,-0.00205726
-0.01065,0.0144685
-0.00258999,-0.00588559
0.0030227,-0.00864847
0.00478994,0.00765348
0.00399966,0.0207789
-0.00259902,0.0215947
-0.00508541,0.0128112
-0.00633528,0.0143323
-0.00812464,0.0124827
-0.00510594,-0.00687995
-0.00213465,-0.0314224
-0.00200937,-0.0260825
-0.0138283,-0.0215406
-0.0197358,-0.00526665
-0.00913613,-0.00106244
0.00673989,0.00336983
0.0144427,0.00617135
0.00958539,-0.00324649
0.0094559,0.00824266
0.016112,0.0234331
0.0116537,0.0165877
-0.0124977,0.00488199
-0.030117,0.0095108
-0.0119239,0.00872068
0.0143298,0.00854039
0.0219639,0.00606864
0.0129245,-0.0234397
0.000338396,-0.0442656
-0.00269071,-0.0351861
0.00110341,0.00121858
-0.00509067,0.0227872
-0.0154204,0.0167151
-0.0213222,0.00145115
-0.025085,-0.012162
-0.0209319,-0.0142982
-0.012022,-0.0133222
-0.00772169,-0.00880053
-0.00553813,0.00433515
-0.00790174,0.0157964
-0.00699933,0.0153501
0.00113016,0.00895204
0.00933734,0.00137826
0.0143946,-0.00893404
0.0112817,-0.0129305
0.0125547,-0.0127548
0.0234434,0.00788772
0.0236579,0.0133245
0.0134026,0.0087883
0.00147067,-0.00857293
-0.00113116,-0.0142639
-0.00189557,-0.00331514
-0.00358805,-0.015592
0.00420548,-0.0101726
0.00899414,-7.88e-05
0.0154674,0.0231896
0.0122535,0.0293735
0.00924243,0.0216864
0.00623174,0.015619
0.00793786,0.0087207
0.000910421,0.00622854
-0.0224902,-0.006833
-0.0410678,-0.0132722
-0.0394384,-0.00733747
-0.0299099,0.00323476
-0.0246935,0.00701528
-0.0186467,0.00427967
0.0128394,-0.000172424
0.0509694,1.92e-05
0.0817863,-0.00188768
0.0781304,-0.00247233
0.0270585,0.000351331
-0.030013,0.00314438
-0.0565344,0.00327359
-0.0470908,0.00143246
-0.0383359,-0.00323962
-0.0607513,-0.0088745
-0.0586277,-0.00842168
-0.0245685,-0.00155052
0.0143493,-0.0022102
0.0476809,-0.00334423
0.0698345,0.00195714
0.0629362,0.00596666
0.043529,-0.000354671
0.0147318,-0.00315222
-0.0109875,-0.00416759
-0.0184188,-0.0107339
-0.0145368,-0.00762755
-0.0119408,-0.00167294
-0.0201458,0.00380336
-0.0181137,0.00172856
-0.00660033,-0.00236169
0.00633974,-0.000910802
0.0184594,-0.00266314
0.0253353,-0.00434742
0.0262438,0.00434959
0.0307608,0.014536
0.0224309,0.0107666
0.000404306,0.00542259
-0.00781912,0.0109213
-0.0215482,0.0181721
-0.0385858,0.00910316
-0.0552869,-0.00507993
-0.0481546,-0.0289768
-0.0270718,-0.0615836
-0.0244024,-0.0618595
-0.0198545,-0.0318071
-0.00861641,0.015371
0.00388595,0.0271506
