Comp Ch 3,Comp Ch 4
-0.152639,0.0733849
0.0212421,0.0413767
0.266739,-0.0087154
0.242934,-0.0288517
0.095915,-0.0506695
0.00533105,-0.0699121
-0.0911102,-0.0931642
-0.107618,-0.114455
-0.0417737,-0.143938
-0.0933431,-0.0986704
-0.157712,0.0124192
-0.119103,0.0797856
-0.077081,0.164738
-0.0577022,0.201071
-0.0396273,0.174852
0.0097763,0.122554
0.101087,0.000398972
0.145834,-0.0946763
0.0879966,-0.0764159
0.0427208,-0.0084562
0.0377188,-0.0465133
0.0396814,-0.0596733
-0.0576187,-0.0646134
-0.133614,-0.0632251
-0.169954,-0.116057
-0.178162,-0.0740687
-0.100808,-0.0242835
0.0849111,0.00358407
0.221657,0.0156471
0.222501,-0.0958077
0.0513707,-0.184401
-0.0433013,-0.0412551
-0.0333453,0.0478224
0.0288584,0.153631
0.0180281,0.209875
-0.0336326,0.295849
0.0134142,0.238691
0.0465115,0.0368042
-0.138993,0.0644039
-0.326628,0.0735407
-0.123944,0.0174563
0.130474,-0.0015147
0.128476,-0.0196196
0.185255,-0.0409547
0.204549,-0.0453079
0.188549,-0.0836216
0.190112,-0.0610513
0.0995016,-0.00682219
-0.094989,0.0395494
-0.236685,-0.0550224
-0.291821,-0.157592
-0.168729,-0.0449149
-0.00488535,-0.0262648
0.0153455,-0.0677528
0.103697,-0.0203291
0.119407,-0.00712925
0.0921932,-0.116781
0.0292784,-0.275709
-0.0856661,-0.123471
-0.268564,-0.0021759
-0.334695,-0.0279982
-0.0742926,0.0965427
0.160616,0.154961
0.209439,0.22237
0.249898,0.255565
0.199883,0.190031
0.0675117,0.077535
-0.00950162,-0.00587588
-0.0309823,-0.0213028
-0.0352052,-0.0310634
-0.0319913,-0.0204992
-0.0257593,-0.0105041
-0.0320478,-0.0242766
-0.00223942,-0.0569359
0.0279195,-0.109684
-0.0615433,-0.197103
-0.164654,-0.134323
-0.191908,0.0617147
-0.0736029,0.064958
-0.010006,-0.0349919
-0.00871165,-0.0313178
0.0406432,-0.0328383
0.0765838,-0.0610857
0.0934144,-0.00628014
0.0687926,-0.0508692
0.0270091,-0.113903
0.0165503,0.130361
0.0228802,0.0826304
0.0515953,-0.0341785
0.0264584,0.0461155
-0.0845308,0.121192
-0.110388,0.172239
-0.0861897,0.137671
-0.0391153,0.0616405
0.0847306,-0.0434359
0.108272,-0.179399
0.161545,-0.17122
0.124509,-0.141861
0.0257765,-0.146036
-0.0469839,-0.032649
-0.0130352,0.0216243
-0.0336707,0.0395718
-0.0894743,0.0504427
-0.0313254,0.106659
-0.0242168,0.175009
-0.0428407,0.138617
-0.0432301,0.141931
-0.0333016,0.0911114
-0.0451722,0.0406151
-0.0246764,-0.00339879
0.0628501,-0.0693836
0.109534,-0.0311373
0.0772411,0.0338461
0.047248,0.0561295
0.00700737,-0.0362774
-0.00363116,-0.0828336
0.00140459,-0.111802
-0.0391729,-0.0336913
-0.0604835,0.0269016
0.0221602,0.00891426
0.19884,-0.0284159
0.177766,-0.0355175
-0.160608,-0.0331994
-0.541207,0.0505413
-0.316555,0.0243476
0.107403,-0.053632
0.238282,-0.0487834
0.184508,-0.034656
0.0895184,-0.0434506
-0.0427093,-0.0527376
-0.0522189,0.0598706
-0.0481141,0.0269694
-0.101221,-0.0619779
-0.100778,-0.00579081
-0.0369375,-0.0432795
0.124381,-0.156363
0.10212,-0.130518
0.0623239,-0.0526847
0.0251693,0.0864516
0.0278937,0.110863
0.130446,0.0968512
0.177007,0.0865096
0.0112643,0.0221292
-0.0892209,-0.0466059
-0.0915558,-0.0753089
-0.128507,0.082107
-0.0305172,0.0715531
0.00629209,0.0270797
-0.0506729,0.0400847
-0.0768217,0.0241292
-0.00298904,0.0318294
0.0888463,0.0778702
0.0652367,0.053091
0.0215577,0.0199082
0.0920604,0.0269114
0.10386,-0.0504747
0.0750953,-0.0605277
-0.076695,-0.0541268
-0.250683,-0.0325317
-0.186607,0.00543918
-0.061443,0.0315947
0.0403211,0.00342863
0.0941588,-0.0228552
0.0175176,-0.0137689
-0.0151365,0.00038226
-0.0288213,0.0091539
-0.0907067,0.00750055
0.00792132,-0.0134679
0.104375,-0.0314809
0.024373,-0.102082
0.0215008,-0.130529
0.0277369,0.0178313
-0.0195147,0.153225
-0.0516221,0.0770391
-0.0102323,-0.0270853
0.0644367,0.018253
0.118042,0.0650221
0.0760518,-0.0714346
0.0505615,-0.0961079
0.0250829,-0.0466118
-0.0345205,-0.0564521
-0.0636589,0.0632571
-0.0530197,0.122024
-0.00481957,-0.00755665
-0.0304856,-0.111601
-0.0911265,-0.137902
-0.0846923,-0.152415
-0.0119808,-0.116202
0.0187126,-0.0291209
-0.00712133,0.136617
0.0577898,0.202788
0.112526,0.204151
0.120837,0.20355
-0.00507851,0.156642
-0.0900691,0.0414871
0.0161053,-0.111672
0.0500563,-0.00280479
0.125639,0.0624305
0.127245,-0.0268232
0.0163318,-0.11447
-0.109505,-0.0870414
-0.18079,-0.106595
-0.09045,0.0158828
-0.00469219,0.0465119
0.0287007,0.0449779
0.0455952,0.0262645
0.0344155,-0.00461118
0.0726869,-0.0130026
0.0183966,-0.0403757
-0.0859475,-0.0503529
-0.147949,-0.0615508
-0.100806,-0.0677147
-0.0198603,-0.0067093
-0.0337924,0.0245463
-0.00764639,0.0214684
0.0732848,0.0110877
0.0938623,0.000476256
0.0342393,0.0133038
-0.0387041,0.0270482
-0.0713049,0.0260692
-0.0448558,0.00536816
0.0189185,-0.00349463
0.0484132,-0.00312452
0.0596029,-0.0122709
0.0893718,-0.0798112
0.072756,-0.019779
0.00726048,0.0128286
-0.0698188,-0.106417
0.0121036,-0.047431
0.148947,0.0408031
0.112547,-0.00535542
-0.018003,0.047171
-0.141628,0.0424712
-0.185042,0.103437
-0.0235357,-0.0334135
0.0849216,-0.072618
0.0867215,0.0150629
0.0306134,0.0235415
-0.0800883,0.0170457
-0.120851,-0.0312069
-0.0546754,0.0675238
-0.0524161,0.0470752
-0.0131311,-0.0217267
0.0962964,-0.00531793
0.121873,-0.0450326
0.0189648,-0.0553084
-0.0889261,0.0508804
-0.186357,-0.0128849
-0.1068,-0.0902844
0.000640862,-0.0139116
0.141355,0.0152262
0.251343,0.0596941
0.23532,0.0632117
0.0547831,0.0268305
-0.144291,0.0557217
-0.126794,0.0352455
-0.037115,0.0155778
0.00620163,-0.0104002
-0.0553408,-0.0172035
-0.0584052,-0.0262441
-0.0415428,-0.0220257
-0.0299431,-0.00214307
-0.0187602,0.00907587
-0.0169815,0.030237
-0.00560082,0.0594016
-0.000718588,0.00575851
0.0128564,-0.0330481
0.0250651,0.0120839
0.0138931,-0.0404112
0.0373508,-0.0230823
0.0778087,0.0124919
0.0556526,0.0322264
-0.0147191,0.00256244
-0.0860005,-0.0631145
-0.0912982,-0.067398
-0.0632567,-0.159604
0.00831098,-0.141083
0.0756023,-0.0727373
0.145343,0.0630008
0.132967,0.0944612
0.0292974,0.0899037
-0.0959004,0.161315
-0.129654,0.18339
-0.075125,0.0440667
-0.0246105,-0.051639
-0.0117098,-0.0643867
-0.00826237,-0.0608856
0.0357086,-0.04628
0.0653779,0.0021403
0.0534572,-0.0116276
0.0519492,-0.0520922
0.0554484,-0.0406588
0.0848253,0.0266301
0.0963751,-0.02718
0.000660934,-0.0655742
-0.14609,-0.0263995
-0.161176,0.0303731
-0.0874772,0.0876994
-0.0427019,0.00968313
0.0231819,-0.00572611
0.068109,4.32e-05
0.0694444,0.0333397
0.0328509,0.0376544
-0.0127675,0.0011814
-0.0268882,-0.0151864
-0.0114372,-0.0199886
-0.032614,0.0115199
-0.0469161,0.0251685
-0.0345689,0.00392374
0.00404895,-0.00322759
0.021484,0.00126996
0.0114256,0.0275092
-0.0211409,0.0488009
-0.0655356,-0.0143719
-0.0557038,-0.0621763
0.0285922,-0.0301524
0.112806,-0.032911
0.0958263,-0.012598
0.0507531,0.0693029
0.0251423,0.0411836
0.0229798,-0.00140309
0.0286434,-0.0212623
-0.0182564,-0.04493
-0.0936804,-0.0379721
-0.0820321,0.0157294
-0.0232832,-0.020484
0.0491355,-0.111566
0.0742856,-0.0753687
0.0306971,0.0207029
-0.0227051,0.00149183
-0.0263184,0.0391817
0.018895,0.196562
0.0181557,0.186052
-0.00492692,0.0451053
-0.0111333,0.0255864
-0.0508496,0.0119134
-0.0431592,0.0232833
0.0409561,-0.047862
0.0700961,-0.0219044
0.0105602,-0.0102934
-0.0876737,0.0120866
-0.0834735,-0.0389564
-0.0509571,-0.049148
-0.00320893,-0.024547
0.10189,-0.0387121
0.109947,-0.0721535
0.00470816,-0.0994376
-0.0676473,-0.0377737
-0.0978468,-0.00725006
-0.0571551,0.0440222
0.00810482,0.0168706
0.0149978,-0.0452036
0.0206822,-0.0829848
0.011781,-0.0881046
-0.00554263,-0.0724377
0.0055089,-0.0563444
0.00648339,-0.0151114
0.0185888,0.0805805
0.0124302,0.156013
-0.0133577,0.148445
0.0111051,0.0552913
0.0581226,-0.00726563
0.0511388,-0.00629246
0.0488836,0.0284653
0.0691542,0.0929524
0.0397122,0.0714114
-0.064693,-0.0358453
-0.101889,-0.0509377
-0.0852141,0.00246032
-0.0554374,-0.0194756
-0.0115872,-0.073477
0.0026157,-0.0627983
0.0221997,0.0133947
0.0379872,0.0200669
0.0207844,0.0547372
-0.0195988,0.0537115
0.022238,0.0128918
0.130569,-0.0129923
0.134412,0.0483546
0.0769762,0.0202367
-0.17177,-0.0343482
-0.13836,-0.0462525
-0.113078,-0.031117
-0.0950084,-0.0281893
-0.0178388,-0.022672
0.0320764,-0.0343973
0.0428906,-0.0122833
0.0120356,-0.000413277
0.00622529,0.0200179
0.0487221,0.0188257
0.0460275,-0.0604279
0.0235682,-0.0687229
0.0189455,-0.0207637
-0.0257489,0.00104685
-0.0222587,0.026334
0.0532156,0.027217
0.105045,0.0129431
0.072561,0.0222629
-0.0199532,-0.0235075
-0.0582393,-0.0135828
-0.0486331,0.0185596
-0.0649524,0.0361183
-0.0466571,0.0166904
0.0132486,-0.00110393
0.0511945,-0.0143448
0.0339323,-0.0300747
-0.000319567,0.053364
-0.0288239,0.0992551
-0.0420199,-0.0219821
-0.0381144,-0.0531364
-0.0397735,0.0281537
-0.0465494,-0.00525809
-0.026861,-0.0617564
-0.00127754,-0.0672685
0.0213754,-0.0495759
0.0336428,0.0407763
0.0421127,0.0518936
0.0330302,0.0123755
0.00354766,-0.0150105
0.00254551,0.039359
0.0268463,0.13489
0.0219967,0.0996312
0.00818074,-0.00318853
0.0183205,-0.016843
0.0082489,0.00342284
-0.0183256,-0.0374072
-0.0325698,-0.0535982
-0.0445402,-0.053512
-0.0367971,0.04716
-0.0207554,-0.00181182
-0.00681683,-0.0535393
-0.00682631,-0.0397981
0.00822732,-0.00589343
0.0307629,0.0523037
0.0420263,0.0229586
0.0366743,-0.00694136
0.0327679,0.0160578
0.0612638,-0.0278128
0.0628448,-0.0961976
0.0240783,-0.0969387
-0.0460499,-0.0563567
-0.0797241,0.0118721
-0.0521513,-0.00584218
-0.0552715,-0.0358791
-0.0456345,0.0195645
-0.0104946,0.146359
0.0138584,0.121992
0.0353251,0.0272776
0.0283853,0.0125776
0.00949035,-0.0713959
0.0142676,-0.0655012
0.0280332,-0.0334813
0.0523572,0.0282455
0.068175,0.0684664
0.0234007,0.0503989
-0.0396792,0.0290339
-0.0763151,0.00586937
-0.0730928,0.0190835
-0.0177835,0.0459972
0.0219941,0.0189821
-0.00595022,-0.043361
-0.0319798,-0.040765
-0.023998,0.0118344
0.00370615,-0.00683547
-0.00349878,-0.0500594
-0.00108717,-0.0357635
0.0239219,0.0132219
0.0396177,-0.0034266
0.0972388,-0.0814758
0.120795,-0.097113
0.0392305,-0.0708379
-0.0639027,0.0278704
-0.104823,0.0413454
-0.0646653,0.0262432
-0.085629,0.0396286
-0.099028,0.00376621
-0.0385803,-0.0129259
0.034104,0.0286705
0.0592676,0.00846769
0.0292173,0.031809
-0.0163371,0.0294391
-0.0256851,0.0271556
-0.00117321,0.0161645
0.0155639,0.0107548
0.0090519,-0.00697431
-0.00726947,-0.018262
0.0104604,-0.0484104
0.056551,-0.0338459
0.0744221,0.00817696
0.0625235,-0.00288976
0.0257436,-0.00319493
-0.00911526,0.0254251
-0.0378328,-0.0336886
-0.0305869,-0.033427
-0.0177739,0.00143767
-0.00800707,0.00895905
-0.0173649,0.0355316
-0.0263291,0.0829341
-0.00265712,0.0723053
0.0474667,0.00863707
0.0659777,0.0252244
0.034737,0.0120641
0.0117956,-0.0281852
0.0124904,-0.0687754
0.0170273,-0.0957905
-0.0226742,-0.0550061
-0.0693596,-0.0175704
-0.0823225,-0.0500696
-0.0444665,-0.0474802
-0.0240647,0.0280635
-0.0132314,0.160019
0.030456,0.123937
0.0917659,-0.0179215
0.0718717,-0.0945945
0.0106917,-0.112089
-0.00180952,-0.112437
-0.0137799,-0.0551883
-0.0314155,-0.0160364
-0.0651639,0.0492295
-0.0951735,0.0226357
-0.0318263,-0.00768647
0.00066667,0.0168663
0.00118664,0.0559816
-0.00566046,0.00223941
-0.00745806,0.0167614
-0.00302151,0.0612067
0.00662174,0.0653713
0.0219527,0.0829378
0.0356798,0.0881291
0.0338223,0.0925054
0.00995269,0.0144539
-0.0112946,-0.139962
-0.00656088,-0.0194623
0.0164192,0.078497
0.0342535,-0.000988253
0.0372027,0.0153732
0.0212727,0.0443968
-0.0181195,-0.0295965
-0.0195411,0.0152006
0.0057972,-0.0228517
0.00830986,-0.0813207
0.0125706,-0.0202054
0.0130459,-0.0209773
-0.000815848,-0.0338279
-0.0127059,0.0237736
-0.0196967,0.0109932
-0.0170186,-0.00967058
-0.0130492,-0.109978
0.00184076,-0.121432
0.0271302,-0.043645
0.0237005,-0.0447875
-0.0228426,-0.0352703
-0.0714604,0.0593498
-0.0640538,0.140163
-0.0207965,0.0806167
0.0154715,0.062761
0.0423655,0.0424946
0.0442105,0.0751989
0.0245917,-0.0479218
0.0242856,-0.0629494
0.00883438,-0.0793543
-0.0040603,-0.0160372
-0.0085282,0.00567419
-0.0192477,0.0312534
-0.0229107,-0.0120561
-0.00626463,-0.0115704
0.00588884,0.0141816
0.0174248,-0.0186733
0.0338336,-0.00698085
0.032966,0.00247941
0.0301705,0.0332336
0.0485065,0.12225
0.0443653,0.0517918
0.0566102,-0.0438173
0.0448424,-0.0786335
-0.00501787,-0.0639479
-0.100256,-0.037602
-0.128622,0.0532153
-0.0954899,0.0368718
-0.0644999,-0.0431597
-0.0170962,-0.0723024
0.0137849,-0.0475793
0.0181997,0.0168046
0.00950304,0.0767263
0.00335935,0.0332751
0.00761801,-0.0516687
0.0171826,-0.111737
0.0184779,-0.14225
0.00305587,-0.198389
-0.00413075,-0.139775
-0.00476319,0.0155768
-0.0021876,0.231581
-0.00271541,0.290592
0.000204494,0.196687
0.0153599,-0.0270084
0.0220792,-0.0962192
0.00522138,-0.0553355
-0.00153658,-0.0566649
-0.00581839,-0.0383667
-0.0310383,-0.0356087
-0.0375835,0.0408036
-0.0249519,0.153801
-0.0127772,0.171584
-0.014562,0.180339
-0.00104722,0.135385
0.0234033,0.00146517
0.0458395,-0.108568
0.070772,-0.134261
0.0760544,-0.0543287
0.0607709,0.0424177
0.0557838,0.0723876
0.026058,-0.00729368
-0.0219503,-0.118128
-0.065015,-0.166276
-0.0661831,-0.0946166
-0.0551853,-0.0640743
-0.0201751,-0.0222466
-0.00743767,0.0118257
-0.011621,0.0543174
0.00533455,0.0783954
0.0257262,0.0579517
0.00423364,-0.0582486
-0.0151512,-0.114122
-0.0233192,-0.0115999
-0.0347729,0.036694
-0.038778,0.033126
-0.0308628,0.0189363
-0.00867292,0.0341397
0.026929,0.0118843
0.0873656,0.0391372
0.103618,0.0759985
0.0506389,0.0895061
-0.0385797,0.0402236
-0.0520824,-0.0406301
-0.00377519,-0.0363116
0.0167023,-0.019174
0.0111636,-0.0334843
0.010716,-0.028115
0.0140889,-0.0432998
0.000583431,-0.0374376
-0.0210329,-0.0687312
-0.0314743,-0.126808
-0.0546273,-0.131777
-0.0579725,-0.0683951
-0.0320734,0.0352894
0.0170714,0.103626
0.0575358,0.099108
0.0442,0.0542973
0.0152715,0.0617913
-0.0192609,0.0188404
-0.0235931,-0.01558
0.0042319,0.00366432
0.00978549,0.0337908
0.00174682,0.113922
-0.000110441,0.159835
-0.000799664,0.0281904
0.0150636,0.0151184
0.0311591,-0.0444316
0.00315596,-0.113468
-0.0147142,-0.0729048
0.00692432,-0.0590091
0.00808497,-0.0382454
-0.00193798,-0.0626192
0.0181306,-0.160968
0.0224971,-0.214555
0.0117379,-0.0690606
-0.00554185,0.0995311
-0.0706663,0.129867
-0.0836468,0.143162
-0.0405651,0.167718
-0.00933661,0.15631
0.0189625,0.0940833
0.0291974,0.0214962
0.0247329,-0.064521
0.0110221,-0.06196
0.0102915,-0.0113939
0.0118158,-0.0601924
0.021811,-0.0769212
0.0190456,-0.0132258
-0.0116663,0.102263
-0.0461203,0.0964738
-0.0406546,0.0150117
0.0240506,-0.0147566
0.0346707,-0.0844695
0.0383364,-0.0637235
0.0467779,-0.00815967
0.0362212,-0.0199816
0.0146449,-0.00466159
-0.0199743,0.0079556
-0.0394747,0.00923789
-0.0303088,-0.0395886
-0.0125159,0.0230358
0.00568943,-0.0329485
0.0110094,0.0298933
-0.00472337,-0.00562189
-0.0346729,-0.0364368
-0.0433965,-0.030098
-0.0159768,0.0380084
-0.00595364,0.0769066
0.0162309,0.0852152
0.0232365,-0.0279735
0.00403915,-0.062737
-0.00609946,-0.0627556
0.0217868,-0.0404235
0.028746,-0.10469
-0.00899403,-0.0907772
-0.0556099,0.0262327
-0.0734985,0.0679632
-0.030178,0.0721906
0.0278556,0.00180525
0.0447811,0.0615001
0.0374312,0.0531867
0.0174935,-0.0593703
0.0116618,-0.0568165
0.00442667,-0.0622866
-0.00891811,0.0273247
-0.00133826,0.0864454
0.00279179,0.0813234
2.07e-05,0.0113933
0.00345223,0.0882635
-0.00916076,0.0510529
-0.013648,0.0376421
-0.021927,-0.0582219
-0.0349348,-0.128988
-0.048801,-0.0197231
-0.0354288,-0.0265883
0.00811275,0.0284486
0.0417577,-0.0987006
0.0542259,-0.247684
0.0182666,-0.227413
0.000910274,-0.0875001
0.0645082,-0.0459301
0.112417,0.0848593
0.0904442,0.259321
0.0269502,0.383575
-0.0559121,0.305122
-0.0676381,0.0644112
-0.0256664,-0.0702537
-0.00646909,-0.112007
0.00601372,-0.0557405
0.00349407,0.139704
-0.029858,-0.0114537
-0.0602073,-0.126958
-0.0766227,-0.00276401
-0.0654618,-0.00679647
-0.00667884,-0.0111077
0.0354071,-0.0150111
0.0448366,-0.00704531
0.072667,0.0159808
0.0632123,0.0256397
0.0214238,-0.00834918
-0.0368447,-0.146347
-0.0589853,-0.207185
-0.059314,-0.155366
-0.0393906,-0.065453
-0.00174606,0.119236
0.0274354,0.112457
0.0190218,0.0820934
0.032624,0.122921
0.100071,0.0958846
0.122709,0.0527965
0.0461961,0.0636541
-0.0159218,0.0399356
-0.045873,-0.0115016
-0.0844775,-0.0278178
-0.12464,-0.0399614
-0.133761,-0.0439216
-0.094724,-0.0746453
-0.00328797,-0.0861031
0.0354261,-0.0686691
0.0477346,-0.0501481
0.0513173,-0.0667801
0.0237437,-0.0313389
0.00106424,0.0160218
0.0137896,0.0122366
0.00425551,0.00611817
0.00642194,-0.0326127
0.0271813,0.0207121
0.0473501,0.0643293
0.0470432,0.0286902
0.0621568,-0.0216928
0.0537188,0.0414376
0.0106697,0.113755
-0.0467335,0.0636668
-0.0804252,-0.0650453
-0.0545057,-0.0867681
-0.0156921,-0.0507904
0.0557642,0.0238683
0.0937281,-0.0580526
0.0600977,-0.0452748
-0.0627542,-0.0469812
-0.15285,-0.0216878
-0.166122,0.0255966
0.015778,0.0397803
0.0708214,0.121315
0.0118295,0.162825
-0.035226,0.169787
-0.0183163,0.211475
0.0654122,-0.0569115
0.143216,-0.187903
0.161836,-0.188494
0.101194,-0.127928
-0.0552566,-0.00116395
-0.178798,0.056387
-0.189703,0.0519345
-0.109457,0.030299
-0.0602446,-0.0118952
-0.0153638,-0.0151466
0.0351201,-0.0459568
0.0866228,-0.0247507
0.0976439,-0.00146303
0.0637818,-0.0221303
0.0337184,0.108562
0.0250239,0.0743052
0.0173304,-0.0165163
-0.0275702,0.00560216
-0.0564006,0.013591
-0.0519628,-0.0534145
-0.0185625,-0.0714009
0.0383316,-0.0354175
0.0705598,-0.00589313
0.0725126,0.000759932
0.073283,-0.00952814
0.0460114,-0.0406717
-0.0202118,-0.0340253
-0.035363,0.0751063
-0.00115612,0.0712542
-0.00326917,-0.00658087
-0.073594,-0.0310714
-0.157625,-0.00887999
-0.0909963,0.0392578
-0.00166751,-0.0294439
-0.0360406,-0.0721378
-0.0409011,-0.0716436
0.0477441,-0.0301712
0.0962308,-0.0202333
0.0532468,0.0487433
0.00951842,0.0617312
-0.0294953,-0.0570142
-0.0293464,0.100304
-0.0164311,0.0461129
-0.000895076,-0.0634571
0.0171828,0.0130733
0.0176412,0.0587057
0.0505899,0.00292729
0.099655,0.0324779
0.0865363,9.36e-05
0.0327871,0.0340476
-0.0391394,0.0290164
-0.0740962,0.0183824
-0.0379277,-0.0196967
-0.000906217,9.92e-05
-0.0198322,-0.00372812
-0.0482068,-0.00578216
-0.0678179,0.0337478
-0.0417479,0.00876036
0.0249595,-0.0084692
0.0873982,-0.00250338
0.0921967,-0.026337
0.0412265,-0.0489846
-0.00187695,-0.0372497
-0.00719751,0.00388167
-0.0162764,0.0451666
-0.0114314,0.0104005
-0.0425036,-0.0329381
-0.0755614,-0.0307875
-0.0867317,0.0045913
-0.0154879,0.0191593
0.0615961,-0.0402333
0.0801364,0.0265026
0.0434467,0.0532137
-0.00643936,0.00200288
-0.0420666,-0.0492611
-0.0298707,-0.0766632
0.0225143,-0.0459255
0.0388513,0.0665564
0.0145153,0.0588238
-0.0175174,0.0393361
-0.0349285,0.0531384
-0.0145242,-0.0127391
0.0267421,-0.0277308
0.0224642,-0.108232
-0.00125144,-0.0782275
-0.0389657,-0.0187976
-0.0480933,-0.0332378
-0.0329416,0.0205959
-0.0205389,0.0297214
0.00228225,0.0581767
0.0372886,0.0239841
0.070278,-0.0390062
0.0655727,-0.00303186
0.0321173,0.0231398
0.0199622,-0.0396065
0.0158906,-0.0781212
-0.0302943,-0.107985
-0.0359795,0.00721897
-0.0272373,0.10609
-0.0429482,0.0890305
-0.0470825,0.0919637
-0.0623921,0.0237229
-0.0194808,0.015194
0.0332995,0.143769
0.0275811,0.114787
0.0385799,-0.065813
0.0193715,-0.00689757
2.22e-05,0.0124337
0.0698643,-0.0179613
0.118066,-0.032909
0.0374154,-0.0510118
-0.096044,-0.0195977
-0.0687547,0.075362
0.038046,0.0146864
0.0931654,0.0317336
0.0152849,-0.0725027
-0.108945,-0.107177
-0.160106,-0.0668946
-0.114866,0.0333211
-0.03402,-0.0335598
0.0328391,-0.0844631
0.0526646,-0.0588948
0.0111681,0.0121666
-0.048224,-0.142486
0.0294427,-0.0674811
0.177349,0.0225106
0.179392,0.0264897
0.0779682,0.0326041
-0.0500808,0.0818188
-0.145732,0.120804
-0.17489,0.0911462
-0.144931,0.0981773
-0.0149491,-0.0625744
0.0900723,0.0063479
0.121908,0.030797
0.0976928,0.00577958
0.0595971,-0.015785
0.0613737,-0.066938
0.0522364,-0.0751988
-0.0348687,-0.0716354
-0.0427261,-0.0213635
-0.0748335,-0.0151483
-0.11933,-0.101339
-0.0921248,0.064518
-0.0676709,0.0583856
-0.0752494,-0.104778
-0.032153,-0.0812856
0.0469021,0.109557
0.110238,0.181718
0.187323,0.165536
0.175177,-0.0306601
0.0956597,-0.0822715
-0.0153909,0.101555
-0.147787,0.0494679
-0.227739,-0.0339394
-0.219823,0.0368215
-0.0494759,-0.0452733
0.0575329,-0.0925531
0.0552609,-0.0129936
0.117197,0.122976
0.210883,0.043358
0.232239,-0.0917173
0.159765,-0.0634023
-0.0451182,-0.0519988
-0.21816,-0.126796
-0.12146,-0.0986595
0.00510576,-0.00127045
0.0882494,0.127079
0.114721,0.144999
0.00900918,-0.0188174
-0.0927437,-0.0637172
-0.122435,-0.0536975
-0.139485,0.00458138
-0.0776799,0.0707534
-0.0282515,0.0136641
-0.0191467,0.0974492
-0.0568827,0.132447
-0.0988365,0.0318549
-0.0811128,-0.0629206
0.00217685,-0.0708236
0.136846,0.0653355
0.264367,0.0734451
0.215159,0.0401814
0.0587698,-0.149315
-0.143714,-0.29892
-0.251822,-0.15179
-0.189704,-0.0922707
-0.024219,0.0506599
0.0604579,0.221574
0.0757534,0.229149
0.07474,0.0208701
0.0368145,-0.0646239
-0.00627952,-0.0687868
-0.00313228,-0.0573532
0.00857841,-0.0231233
-0.00728943,-0.0562436
-0.0417643,-0.0769891
-0.0790095,-0.0284813
-0.0969213,-0.00256564
-0.0483112,0.0708984
0.0953247,0.0503179
0.169987,0.231584
0.215834,0.166593
0.268143,-0.0536676
0.428685,-0.175252
0.361796,-0.126304
0.0952857,-0.00409569
-0.179787,0.0184646
-0.424868,0.0292149
-0.433291,0.0488736
-0.267166,0.10344
-0.0971365,0.133469
-0.072394,0.0140955
-0.0419109,0.00107505
-0.049995,0.028426
-0.0910152,-0.0193304
-0.0410782,-0.00838425
-0.0261786,0.0296302
-0.0154359,0.0121105
0.082501,-0.117023
0.115055,-0.171407
0.0687844,-0.248925
-0.0290898,-0.0021703
-0.0429292,0.0331788
-0.0268384,-0.0941981
0.0371506,-0.0238745
0.139973,0.168277
0.139176,0.0602359
0.0330827,-0.018384
-0.0540742,-0.0478618
-0.0891833,-0.0279185
-0.0861926,-0.0438309
0.0303411,-0.00763673
0.295278,0.110719
0.317103,0.241926
0.0999531,0.0705992
-0.123437,-0.0127424
-0.283558,-0.0249282
-0.0413079,-0.0575691
0.226498,-0.0823302
0.256944,-0.0545805
0.164962,0.0848568
-0.12473,0.128504
-0.35426,0.0646761
-0.261245,0.0121408
-0.148457,-0.0689859
-0.162439,-0.0224589
-0.0941054,0.0492952
-0.0172873,0.0385301
0.00735351,0.00302815
0.0442102,-0.127062
0.0525877,-0.237491
0.0268836,-0.306146
-0.0201102,-0.461725
-0.00800172,-0.30924
0.0811353,0.147294
0.0944134,0.246393
0.0780929,0.259027
0.0982366,0.374682
0.139577,0.280417
0.113944,0.159175
-0.00541265,0.0733582
-0.193038,-0.0120586
-0.212857,-0.0163142
-0.0237253,0.0428053
0.0604996,-0.0204392
-0.0553272,-0.159223
-0.0294005,-0.11702
0.186909,0.073294
0.251399,0.171569
0.128598,0.131128
0.102895,0.030716
0.121379,0.0876736
0.0483507,-0.0838666
-0.066211,-0.17935
-0.353017,0.0180793
-0.422002,0.0608316
-0.262128,0.0189543
-0.120943,-0.122944
0.0363439,-0.0799061
0.0894574,-0.196981
0.035531,-0.243202
-0.0500787,-0.12302
-0.0794589,0.0794353
0.00727655,0.093078
0.0965391,-0.166692
0.203637,-0.341402
0.176808,-0.21366
0.0445979,-0.0631961
-0.0911123,0.0677082
-0.203297,0.243955
-0.112665,0.364541
0.0826653,0.397278
0.106751,0.351346
0.188023,0.138853
0.344523,0.0236676
0.274133,-0.0993317
0.203708,-0.0524469
0.072451,-0.062151
-0.115178,0.091483
-0.2521,0.0157388
-0.32371,-0.21816
-0.273684,-0.391852
-0.258424,-0.292357
-0.210721,0.0318841
-0.0237797,0.178023
0.216076,0.107814
0.37916,0.00963105
0.321742,-0.03157
-0.0354685,-0.0128486
-0.230456,-0.0170434
-0.240284,-0.0386898
-0.0800896,0.0101774
0.0198819,0.153097
-0.05063,0.223948
-0.111728,0.123284
-0.0529003,-0.0252455
0.0157132,-0.00737352
0.0531955,0.0502047
0.100546,0.107664
0.109467,0.0556769
0.0608004,-0.023215
-0.0516452,0.0378439
-0.150617,0.0461572
-0.138116,-0.250623
0.0402069,-0.177554
0.0583845,-0.128213
0.149284,-0.148245
0.352191,-0.130206
0.721505,-0.112406
0.800501,-0.0638078
0.256359,-0.0684998
-0.341349,0.0382373
-0.795282,-0.0975492
-0.815659,-0.0866037
-0.434514,-0.0144822
-0.0826633,0.0825664
0.120581,0.116285
0.157386,0.162552
0.0577455,0.254446
-0.0985329,0.339021
-0.229936,0.339516
-0.157135,0.0584231
0.0741395,-0.119565
0.257157,-0.220762
0.529331,-0.213546
0.527472,-0.183976
0.0932993,-0.125667
-0.29904,-0.0364555
-0.677047,0.067743
-0.409478,-0.185705
0.149832,-0.247036
0.415699,-0.0684154
0.348471,-0.031075
0.0103601,-0.0381925
-0.151435,0.180521
-0.0501165,0.346369
-0.0205984,0.490268
-0.11908,0.302913
-0.0648513,0.056042
-0.00823744,0.00783147
-0.112821,0.106948
-0.16908,-0.103182
-0.161074,-0.196065
-0.0669889,-0.269318
0.0734385,-0.198141
0.0578748,0.0116657
0.135266,0.159458
0.0743093,0.0901172
-0.040341,-0.0316903
0.0306207,-0.0769418
0.255567,-0.220776
0.346413,-0.151343
0.255257,-0.00694778
0.0128769,0.0891415
-0.150684,0.36499
-0.133179,0.149892
-0.0348172,-0.308158
-0.05707,-0.47553
-0.143424,-0.199636
-0.222836,0.0926569
-0.183968,0.0631699
-0.0809012,0.110545
-0.0493013,0.0562966
0.00345661,0.172006
0.0511733,0.138903
0.108571,-0.00847153
0.0817942,-0.0127104
-0.0167892,0.037099
-0.0555706,0.0773575
0.111923,0.118038
0.284005,0.0253773
0.334019,-0.0223316
0.217517,-0.0747102
-0.15351,0.00858845
-0.256477,0.0138946
-0.21132,-0.146257
-0.0887119,-0.0777415
0.053288,0.136549
0.0044636,0.135814
-0.0279188,-0.0899316
-0.0391447,-0.0637588
-0.133198,-0.0985403
0.00697606,0.0293562
0.143214,-0.0293947
0.0737448,-0.0139753
-0.0605127,-0.0207125
-0.102591,-0.033626
0.0314074,-0.0215257
0.154156,-0.013814
0.19168,-0.0221283
-0.0154258,-0.0997655
-0.120306,-0.147502
-0.00387229,0.00312336
0.134627,0.191702
0.325801,0.254813
0.308721,0.171527
0.016177,0.117571
-0.420142,-0.0068101
-0.630103,-0.096949
-0.486158,-0.0110485
-0.0928572,-0.065852
0.114376,-0.0996686
0.121815,-0.0869826
0.193485,-0.0567135
0.198188,0.0114363
0.167976,-0.0665982
0.100616,0.0416832
0.212373,0.122189
0.235795,0.0257567
0.0444401,-0.0897978
-0.184015,0.0535585
-0.344587,0.0839936
-0.219284,0.0266829
-0.101496,0.0458882
-0.0529614,0.063764
0.0123964,-0.0222919
0.0274144,-0.0460705
0.0350696,-0.0785163
0.0174185,-0.0869734
0.0541858,-0.0899122
0.0581721,-0.077514
-0.0556534,-0.120621
-0.118476,-0.188165
-0.160665,-0.0788617
-0.170652,0.00775963
-0.0909135,0.101862
0.0268005,0.232246
0.157719,0.146909
0.221504,0.0732003
0.184017,0.0614174
0.0472084,0.0419817
-0.0464699,0.0107627
0.0622272,-0.0239926
0.207292,-0.130909
0.281791,-0.0475363
0.187769,0.0234597
-0.109505,0.0820484
-0.397558,0.0128991
-0.38137,-0.166409
-0.219072,-0.101159
-0.0827992,-0.0359713
0.0369486,0.0826221
0.0412723,0.1563
0.00562969,0.161669
-0.0298039,0.105297
0.0371617,0.0287639
0.102003,-0.0450468
0.24368,0.0507159
0.425337,0.0455002
0.320261,-0.143582
-0.0161399,-0.0803558
-0.265287,0.0377491
-0.237333,0.0144579
0.0327728,-0.118322
0.202618,-0.194227
0.0640064,-0.175369
-0.273944,0.00423234
-0.329729,0.133787
-0.198344,0.110424
-0.0973418,0.0576076
0.0130026,0.109638
0.102168,0.0700939
0.111706,0.00222148
0.0744669,-0.0237229
0.00610354,-0.0558351
-0.0472329,-0.0414699
-0.0706591,-0.116727
-0.0826528,-0.17373
-0.0895828,-0.127052
-0.0505329,0.00715542
-0.048602,0.0501658
-0.0307471,0.077395
0.0121904,0.0797794
0.120541,0.198137
0.212196,0.165639
0.208131,-0.0120455
0.174334,0.0331595
0.117041,-0.0537619
0.106706,-0.119094
0.0267237,0.00941845
-0.0858124,0.16925
-0.116274,0.0685296
-0.0858985,-0.0371553
-0.070128,0.00973833
-0.0445315,0.0196387
-0.068322,-0.0597698
-0.115396,-0.112964
-0.0684136,-0.0800635
0.0849831,-0.0879716
0.253213,-0.0635172
0.270741,-0.0495311
0.107913,-0.0378294
-0.14013,0.00564635
-0.249047,0.0430458
-0.175393,0.0770143
0.0347671,0.0626828
0.136743,0.00998802
0.124913,0.0156166
0.0601871,0.0672753
-0.0810584,0.0242691
-0.172796,0.0824888
-0.27612,0.107255
-0.129421,-0.0988065
0.0669228,-0.124242
0.125031,-0.0664496
0.130979,-0.0454623
0.0524948,-0.0181271
-0.0765426,-0.0355108
-0.133496,-0.0562294
-0.0638427,-0.0339112
0.0631811,0.0301682
0.123526,-0.00311442
0.0901525,0.0183528
0.0215119,0.0600461
0.0257096,0.0693948
0.0810877,0.0230178
0.0831692,-0.0254238
-0.0237701,-0.090234
-0.0771679,-0.0928921
-0.074171,-0.0520257
-0.0480838,-0.0107842
-0.00335263,0.110734
0.00190026,0.115531
0.014767,0.00741083
-0.0102313,-0.101247
-0.0638292,-0.222673
-0.0779544,0.0156082
-0.0600552,0.161055
-0.0136065,0.131423
-0.0163145,0.107744
-0.0122627,0.130353
0.014401,0.159201
0.0194458,0.0661595
0.0658075,0.04203
0.101216,0.0062793
0.153451,-0.05282
0.191811,-0.161612
0.108995,-0.174234
-0.0375516,-0.221576
-0.0550414,-0.0605535
-0.0424963,0.136182
-0.07331,0.108041
-0.0835106,-0.0519317
-0.0704512,-0.126345
-0.00310701,-0.078502
-0.00133674,-0.0691739
-0.0740659,0.0139713
-0.104298,0.102178
-0.0588127,0.118709
-0.00132427,0.136534
0.0669196,0.0987657
0.140164,0.0584688
0.203952,0.00484702
0.0709248,-0.0335972
-0.106028,-0.0329932
-0.188855,-0.0451043
-0.0953198,-0.083605
0.0548663,-0.122605
0.15214,-0.108799
0.096907,-0.0685754
0.0190978,0.0018282
-0.0236822,0.0825084
-0.100215,-0.0161701
-0.140932,0.0105054
-0.11997,0.0308226
-0.0590781,0.0443154
-0.0404354,0.0206942
-0.0883759,0.0108172
-0.0899359,0.0240146
-0.0114406,0.0718929
0.028365,0.119601
0.0239784,0.0393104
0.0771326,-0.0601695
0.155548,-0.0508338
0.107159,-0.00785629
0.0382093,0.0696594
-0.0118428,0.130015
0.0101611,0.022163
0.101194,-0.0479658
0.0807138,-0.0461353
0.067103,-0.0454545
0.0181522,-0.0759777
-0.0261984,-0.0724914
0.00187699,-0.0413445
0.00618001,-0.0593811
-0.0135769,0.0416163
-0.0254748,-0.0297001
-0.0890313,-0.159696
-0.140539,-0.0202167
-0.182315,0.0427532
-0.102712,0.0262437
0.0156997,0.0403694
0.0356852,0.0152482
0.0101344,-0.0717903
0.0215845,-0.00609111
0.0627398,0.151254
0.05264,0.133859
0.0786706,0.0636859
0.107044,0.00508744
0.112794,-0.0365265
0.0920657,-0.012731
-0.00563853,-0.0104673
-0.119354,-0.0614085
-0.0870854,-0.0457246
0.093621,-0.0117826
0.259229,-0.028013
0.15386,-0.0950906
-0.0892975,-0.0994076
-0.357043,0.0139433
-0.379044,0.0876252
-0.144483,0.14991
0.00625853,0.0974575
0.0778354,0.0509062
0.0728598,-0.0018091
0.0464012,-0.00215321
0.035331,0.0298156
0.0108934,-0.0200322
0.00124919,-0.0645175
-0.0264483,-0.0609571
-0.0608399,0.035586
-0.0335402,0.0797612
-0.00472942,0.0204988
-0.0106957,-0.0909222
0.00502839,-0.0465475
0.0224127,0.0269063
0.0256903,0.0347942
0.103372,-0.00346312
0.162611,0.0600144
0.117872,0.043194
0.0790531,-0.0700171
0.0923699,-0.0275192
0.149463,-0.076573
0.0666181,-0.0976766
-0.115484,-0.106039
-0.231515,-0.0314841
-0.176648,0.0472895
-0.120818,0.0838229
-0.0918851,0.0625469
-0.0153952,0.0110236
0.107182,0.072625
0.153117,0.0426836
0.0897035,-0.0621481
-0.0439617,-0.202901
-0.117943,-0.0816688
-0.0734432,0.101473
0.0356901,0.0761215
0.133454,0.0983448
0.0604425,0.0759035
-0.00267133,0.05104
-0.061397,0.0336343
-0.0367611,-0.0240613
0.0198051,-0.0399483
0.034508,-0.040037
-0.0354758,-0.0359756
-0.0864929,0.0366743
-0.0780587,-0.0195576
-0.0782446,-0.228893
-0.0160601,-0.218274
0.0560337,-0.0820133
0.0996682,0.173274
0.161181,0.170497
0.111695,0.108543
-0.0290271,0.0576668
-0.12206,0.0366928
-0.151159,0.055132
-0.091999,-0.00720111
-0.0502842,-0.0672311
-0.0128274,-0.0966503
0.0846075,-0.0534157
0.151749,-0.0177401
0.111114,0.0543665
-0.00407557,0.147481
-0.078302,0.103997
-0.0287674,0.0869867
-0.0102479,-0.00285301
-0.0115275,-0.0569235
0.0122104,0.0302311
0.0283128,-0.0184282
0.0313148,-0.140929
0.0186962,-0.175601
-0.00737666,-0.189942
0.033461,-0.116375
0.0644703,0.0999518
0.0784568,0.0849719
0.0437281,-0.0134792
-0.047368,0.0834361
-0.0446843,0.0576934
-0.123825,0.0464947
-0.11824,0.0497559
-0.0721337,0.0469691
-0.0661568,0.0365284
-0.0670404,0.0259661
-0.0214503,0.0252353
0.0586362,0.00593272
0.0362273,-0.0375809
-0.00518243,-0.0498729
-0.0201237,0.0336525
-0.0248032,0.0363004
-0.0315368,-0.0455868
0.00621868,-0.089177
0.0238924,0.0468038
0.0144352,-0.0243864
0.0374094,-0.138826
0.108292,-0.110308
0.161712,-0.115015
0.0801988,0.0554256
0.000131702,0.208148
-0.0403648,0.126557
0.0656873,0.0339662
0.151808,0.00107234
0.0811561,-0.0401667
0.0283253,-0.0388252
-0.0732992,0.0248799
-0.13937,0.028188
-0.163162,-0.0526558
-0.105682,-0.0750647
0.00851883,-0.027919
0.0347596,0.0275411
-0.0391811,0.0164567
-0.086403,0.0301439
-0.0521037,0.0558517
0.122892,-0.00944471
0.173385,-0.0887154
0.0825053,-0.0487253
-0.0381911,0.0339748
-0.104574,0.108163
-0.0982267,0.085274
-0.0646938,0.050894
-0.0398983,0.0405951
-0.0394127,0.00607261
-0.0123945,-0.0728446
0.00731366,-0.171853
0.0353042,-0.1988
0.0918538,-0.0943481
0.0171524,-0.00969371
-0.123247,0.106168
-0.145181,0.259201
0.00192742,0.15281
0.113646,-0.0172
0.0717044,-0.0182107
0.031315,-0.107766
0.0530034,-0.0943729
0.0758381,-0.0547939
0.0263752,-0.0129499
-0.0158821,0.0479683
0.0356354,0.0470122
0.149797,0.0550293
0.123376,0.114395
0.0191704,0.0265783
-0.125158,-0.0103024
-0.146666,-0.0992413
-0.0581228,-0.148366
-0.037154,0.0102262
-0.0104415,0.122581
-0.0479259,0.0164598
-0.0742965,-0.0200299
-0.0619185,0.0201088
-0.0361697,0.0126341
-0.0354054,-0.00305269
-0.0433233,0.0250503
-0.0463172,-0.0715161
-0.0118518,-0.0894248
0.0334059,-0.0778916
0.134138,0.0428844
0.154202,0.119266
0.119578,0.0441157
0.100238,0.0323761
0.0158635,0.0499625
-0.0861602,-0.0678549
-0.0882693,0.0137817
-0.0113997,0.0325062
0.0956576,0.00443687
0.216661,-0.0247818
0.24557,-0.0610173
0.152025,-0.077036
-0.0978144,-0.0376904
-0.253958,-0.0279082
-0.272568,-0.0694515
-0.20782,0.030101
-0.169503,0.0844607
-0.112625,0.0192419
-0.0576698,-0.0818346
-0.0628095,-0.129021
-0.0525982,-0.0856129
0.0560937,0.121037
0.132868,0.178808
0.252961,0.068247
0.214718,0.0471382
0.0586755,-0.0123291
-0.0226298,-0.0215835
-0.0754969,0.0132136
-0.00553735,-0.0441014
-0.00631967,-0.0318582
-0.0194155,0.0368542
-0.0277347,0.051619
0.0841453,0.00121707
0.138993,-0.0374678
0.0208015,-0.0580997
-0.0689295,-0.0409976
-0.103345,-0.0615398
-0.123866,-0.0651102
-0.130676,0.0391847
-0.119238,0.100569
-0.0916093,-0.0671834
0.0824549,-0.117138
0.208986,-0.0566902
0.165836,0.0391108
0.0423269,0.104653
-0.0220883,0.176359
0.0261318,0.115513
0.0273384,-0.0403167
0.00972029,-0.0666992
-0.0571631,-0.011613
-0.0608023,-0.0189331
-0.0157526,-0.0338793
-0.0641658,0.0927262
-0.0754373,0.0124656
0.0390328,-0.041587
0.0737185,0.0134795
-0.00683403,0.0348365
-0.0831917,-0.0486811
-0.055426,-0.000646226
0.085685,0.0472595
0.160099,0.065676
0.109923,-0.106297
0.0042,-0.162057
-0.0626661,-0.117178
-0.0844541,0.0086839
-0.125405,0.116853
-0.0719518,0.0872672
-0.00311428,0.0305368
-0.0114534,0.0861634
-0.0319019,0.0965047
-0.0016351,0.0835423
0.000933186,-0.0266827
0.0265579,-0.049908
0.0741999,-0.0269577
0.0459562,-0.00369477
-0.0274199,0.0764126
-0.0727894,0.0109496
0.0380238,-0.112588
0.160533,-0.0786246
0.101543,-0.0885812
-0.00596407,-0.0247246
-0.0292553,-0.0400657
0.0775921,-0.0463374
0.100668,-0.00633822
0.152803,0.0293733
0.222624,0.0349171
0.00776253,0.0235019
-0.208423,0.0468475
-0.298945,0.0211224
-0.266628,0.00646108
-0.154652,0.00563227
0.0212238,0.00100805
0.0447686,-0.00736402
-0.0317731,-0.0103907
-0.0252906,-0.0399323
0.0402166,-0.089515
0.0725031,-0.0177711
0.0405068,0.0625923
-0.0531681,-0.0177366
-0.109206,-0.0703954
-0.0346894,-0.0462879
-0.00747172,0.00221869
-0.0557538,0.00854084
0.019809,-0.0400242
0.103919,0.0259971
0.0820389,0.109063
0.104612,0.0336571
0.107297,-0.0631461
0.0630606,0.063913
-0.0721311,0.139029
-0.18405,-0.0396714
-0.12411,0.0561751
-0.0145791,0.10276
0.0523419,0.0610398
0.0845611,0.0256957
0.257858,-0.0536444
0.36222,-0.0232962
0.212536,-0.0674913
0.00536569,-0.117894
-0.0931681,-0.145883
-0.0033909,-0.202748
0.0370159,0.017478
-0.143034,0.179337
-0.322704,0.165903
-0.302898,0.120999
-0.238446,0.0407089
-0.0998942,0.00901194
0.0374464,-0.0402035
0.0649608,-0.0241326
-0.0193368,-0.0195355
-0.0590418,-0.0785745
0.0341471,-0.107652
0.115424,-0.172501
0.108636,0.0197741
0.0480076,0.187751
0.0364723,0.19304
-0.0240344,-0.00418896
-0.0473687,-0.0730972
-0.0261571,-0.0399274
0.0119717,-0.0158695
0.0372684,0.00606175
0.0370677,-0.00402401
0.0816442,-0.0300444
0.0672722,-0.0912941
-0.000549605,-0.0239645
-0.0374291,0.0483471
-0.0586057,0.0216754
0.0215933,0.0255155
0.0852529,0.0498705
0.0145499,-0.000988328
-0.101284,0.00780008
-0.12891,0.0665889
-0.0351669,-0.00943623
0.032931,0.0343112
0.0421506,-0.00420843
0.0377513,-0.100601
0.0270832,-0.0852852
0.0460537,-0.0137753
0.166415,-0.0136148
0.294064,-0.0525667
0.374607,0.0164846
0.208675,0.00545166
-0.0910665,0.0639156
-0.313618,0.0264493
-0.28563,-0.0786174
-0.212673,-0.0257979
-0.199192,0.0621464
-0.194909,0.00415818
-0.168987,-0.0187899
-0.0315105,0.0358058
0.0219579,0.105955
0.0275699,0.0799363
0.0455789,0.0395209
0.0726136,-0.0300446
0.0516891,-0.0979043
0.0353574,-0.0809721
0.0329921,-0.029304
0.00958107,0.0466891
0.067863,0.0758191
0.127681,0.022428
0.101366,-0.0238602
-0.031772,0.0189406
-0.223641,-0.00761746
-0.215739,-0.0763443
-0.142294,-0.0306835
0.011849,-0.0126198
0.138777,-0.00308674
0.175658,0.0320551
0.189202,-0.0779577
0.198388,-0.04333
0.111933,0.0234669
-0.0176448,0.00323995
-0.114921,0.0595243
-0.0448024,0.0581669
-0.0297106,0.00182848
-0.0315382,-0.0187591
0.0316431,-0.0358438
0.0861103,0.0518884
0.0914222,0.131783
-0.00141243,0.0995025
-0.0663351,0.00863921
-0.0525718,-0.0603608
-0.0910713,-0.0862496
-0.164704,0.0105042
-0.106158,0.000251067
-0.0430369,-0.0614858
0.0373805,-0.0730364
0.135427,-0.0642218
0.207593,-0.0350469
0.00729401,-0.00177642
-0.263671,0.0405983
-0.207827,-0.0136348
0.0301135,-0.0532588
0.18206,0.0397315
0.123721,0.11843
0.0274909,0.0341436
-0.103422,-0.00685149
-0.125803,0.00206565
-0.0348823,-0.0305158
-0.0340184,-0.0295899
0.00386466,0.0746551
0.0924415,0.0365001
0.0930178,0.0115384
0.00937169,-0.0104541
-0.0805239,-0.00709599
-0.154375,-0.0111854
-0.108653,0.0194848
0.0182021,0.0159406
0.117711,-0.11506
0.151293,-0.0668311
0.0697209,0.0439955
-0.0294846,-0.0240949
-0.0420305,-0.0199298
0.0660251,-0.0422802
0.147199,-0.0727555
0.1706,0.0630846
0.134391,0.0691979
0.0278188,0.0118388
-0.0606233,0.0119421
-0.216675,-0.0211426
-0.221782,0.0370364
-0.101604,0.00119669
-2.55e-05,-0.013355
0.0522177,0.0397765
0.0146901,0.066993
-0.0302651,0.104329
0.0140434,0.0434712
0.0441994,-0.039254
0.0742011,-0.0711655
0.0266109,-0.0743388
-0.0129331,-0.0479198
0.091468,0.0540891
0.0575505,0.0279027
-0.0236047,-0.0176246
-0.0820948,-0.0711781
-0.0285651,-0.0608279
0.0240916,-0.00505402
-0.0612758,0.0750967
-0.147207,0.0613514
-0.0507635,0.0419958
0.0355873,0.0697725
0.0590322,0.0199264
0.0468952,-0.0399607
0.0541805,-0.0752494
0.122729,-0.0268556
-0.0010788,-0.0805587
-0.200198,-0.064234
-0.215366,0.0540385
-0.0404552,0.0415425
0.0736225,-0.046798
0.110754,-0.012226
0.0829636,-0.0145013
0.0705087,-0.200214
0.052516,-0.109358
0.00279459,0.0425357
-0.039018,0.150178
-0.0158646,0.235323
-0.0173757,0.0507579
0.0539677,0.0326281
0.0418301,0.0252542
-0.0128307,-0.1254
-0.0382341,0.00296599
-0.0365571,0.134381
-0.0603489,0.100244
-0.0887296,0.0229065
-0.104277,-0.0667376
-0.0599141,-0.086737
0.0230304,-0.158494
0.108159,-0.142935
0.196824,-0.0633185
0.178622,-0.0078179
0.135209,0.0646099
-0.0326538,0.171499
-0.142977,0.0595831
-0.125162,0.0307296
-0.0751507,0.0344095
-0.0557108,-0.0246016
-0.060282,-0.00132313
0.00797319,-0.0267534
0.130805,-0.0472756
0.121383,0.0201603
-0.00121544,0.0591125
-0.118778,0.0121195
-0.0874286,0.000491484
-0.0148749,0.00428842
0.0139251,0.0152612
0.0111525,-0.0113447
0.0124016,-0.0951911
-0.00219862,-0.138391
-0.0329912,-0.0718522
-0.0501486,-0.0631638
-0.0824259,-0.0319749
-0.081392,0.080197
-0.0312623,0.100441
0.0839327,0.073183
0.165585,0.00972754
0.163409,0.0326765
0.0780314,-0.00236117
-0.0114685,0.101136
-0.0243394,-0.0221759
0.0732758,-0.0857892
0.1881,-0.0310155
0.218932,0.0560535
0.11722,0.0832031
-0.128844,0.0328738
-0.281814,-0.0301434
-0.266223,-0.127618
-0.189247,-0.0353158
-0.0914692,-0.026849
0.00582066,-0.0278052
0.0458593,-0.00335352
0.0379285,0.035926
0.00939066,0.0702855
-0.000637866,0.06078
-0.0043849,-0.0239269
0.00523347,-0.0736859
0.0590253,-0.0292458
0.0907117,0.0480979
0.0244266,0.0826757
-0.0376187,0.0359264
-0.0262208,0.0244934
0.0580268,-0.00101291
0.0692568,-0.054514
-0.00368932,-0.0914642
-0.0185696,-0.0412893
-0.00460323,-0.0254162
-0.0609018,-0.109368
-0.0769712,-0.0702864
-0.0512027,0.0551536
-0.012946,0.111378
0.00339555,0.137492
0.0156801,0.048538
0.0326395,0.05652
0.00105105,0.0262068
-0.0321788,0.0418924
0.0114739,-0.0930595
0.0579626,-0.0857288
0.0543532,-0.0321373
0.07008,0.0147022
0.0976952,0.0705849
0.0829747,0.0860679
0.00550397,-0.0241377
-0.0990568,0.0166335
-0.135122,0.000417943
-0.0540755,-0.0419637
0.00141688,-0.0650765
0.00567594,-0.0318635
0.00473354,-0.0886211
-0.00483148,-0.185529
-0.00163566,-0.0780394
-0.0259262,0.0158198
-0.00268681,0.108129
0.0892106,0.158389
0.166257,0.0935283
0.100539,0.0147336
-0.0918329,-0.0061455
-0.230046,0.0173323
-0.186431,0.0536517
-0.116996,0.0302471
-0.0186299,0.0166031
0.0828853,-0.016832
0.110105,-0.0836816
0.10715,-0.0812628
0.111647,-0.0515835
0.084411,-0.00441651
0.00176447,-0.0862368
-0.0632727,-0.0271177
-0.0765154,0.0987599
-0.0758584,0.0331768
0.0261138,0.0309921
0.235087,-0.0805358
0.229815,0.0485393
0.0585383,0.0606558
-0.129487,0.0579571
-0.228141,0.00454721
-0.173288,0.0122447
-0.133101,0.0173475
-0.0152205,0.0178732
0.0284763,0.0195759
0.0146152,-0.00448032
0.00376256,-0.0405904
-0.00387342,-0.0475237
0.0421475,-0.0143518
0.0658419,0.0525828
0.0214793,0.07575
-0.0621748,-0.0218098
-0.113695,-0.0676181
-0.0543013,0.0047189
0.0500951,0.0787333
0.0626338,-0.141603
0.0406894,-0.19741
0.117893,-0.086236
0.146663,0.0250851
0.0596432,0.068199
-0.0703685,0.0743985
-0.115165,0.0520724
-0.0917125,-0.0107415
-0.0815164,-0.0342227
-0.0529977,-0.0425182
0.0230258,-0.0519827
0.0701626,0.0742866
0.00390338,-0.0117006
-0.0316916,-0.0446892
-0.0305171,0.0399345
-0.0267415,0.0235049
0.0642853,0.0603567
0.141306,0.0613285
0.140397,0.0381028
0.0303388,0.0518294
-0.114508,0.0860706
-0.102489,0.0171419
-0.0108172,-0.0163548
0.00261428,-0.00144217
-0.0160859,-0.0108858
-0.0102489,-0.0154678
-0.00203043,-0.016924
0.0106494,-0.0176558
0.0312332,-0.022627
0.050488,-0.0211155
0.0490701,-0.0246331
0.0493122,-0.0553333
0.100788,-0.0767876
0.145114,-0.0332197
0.11167,0.00410425
-0.0224744,-0.0539152
-0.180849,-0.0476265
-0.230582,0.0441189
-0.158229,0.134598
-0.0794484,0.0227096
0.00424084,-0.0122793
0.0453396,0.00401616
0.0600097,0.0160894
0.0513794,0.00830854
0.0264223,0.0235868
-0.0340642,-0.0274592
-0.0637326,-0.00576243
0.00364351,0.0605297
0.0367981,0.0559089
-0.0110166,-0.0263466
-0.068669,-0.0534212
-0.111749,-0.0263662
-0.045668,-0.0243994
0.0362531,-0.0343825
0.0843998,0.00238929
0.0920542,-0.0129213
0.0657409,-0.0050096
0.0341671,0.00999892
0.0285558,0.0138235
0.0179104,0.0305157
-0.011109,0.0460711
-0.0409269,-0.0186715
-0.0473441,-0.0425145
-0.049561,-0.00872444
-0.0553258,0.0113658
-0.0287151,0.0281654
0.00542062,-0.0133453
0.0205672,-0.0286232
0.0380308,-0.00991
0.0479244,-0.0295961
0.00207444,0.0253363
-0.0114271,0.0262912
0.037364,0.0097741
0.079389,0.00402683
0.0714825,-0.0205463
0.0599236,-0.0581907
0.0538409,-0.0322524
0.080689,-0.0275973
0.0274319,-0.0579608
-0.0636488,0.0699376
-0.113029,0.177614
-0.134517,0.136692
-0.126489,0.0768671
-0.0892856,-0.0920553
-0.0265903,-0.0384378
0.0363887,0.0204812
0.0405808,-0.125445
-0.00623638,-0.107077
-0.0270274,-0.00805092
0.0159272,0.0778264
0.0625007,0.0773584
0.046211,0.0440266
0.00835226,0.0424321
-0.0241569,0.0157074
-0.0306405,-0.00085701
0.0514997,-0.0594534
0.117823,-0.122591
0.130075,-0.149959
0.140053,-0.0653998
0.0493937,0.0137261
-0.0850335,0.0859937
-0.130386,0.121573
-0.160528,0.0549184
-0.120172,0.0513877
-0.0574986,-0.0209118
-0.0166878,-0.0578659
0.00600883,0.0119076
0.0158358,0.0500043
0.0247094,0.0156169
0.0368887,0.00708384
0.0247648,0.00564927
-0.000155601,0.0107499
-0.0467649,0.0217607
-0.0412843,0.00961596
0.0166785,0.00765829
0.0024345,-0.0566437
-0.0153556,-0.0764855
0.0119781,-0.0592663
0.0314369,-0.0704455
0.0266174,-0.0969075
0.0202105,-0.120905
0.0561067,0.00303607
0.0464823,0.165998
0.0152479,0.0870705
0.00343182,0.0516986
-0.0124912,0.017049
-0.0375757,-0.0114108
-0.0186112,0.0356268
-0.00601267,0.051832
-0.0276083,0.0184418
-0.0483334,0.0054239
-0.0365587,0.0156444
-0.0196982,-0.0235364
-0.00268821,-0.0895831
-0.0188207,-0.0470667
-0.00709221,-0.0508793
0.0451187,0.0346007
0.087409,0.06208
0.0806306,-0.0246537
0.0246272,-0.0523837
-0.0272615,-0.00822972
-0.0400122,0.0253198
0.0135366,-0.0427037
0.10069,-0.0443212
0.138405,0.0274232
0.059052,0.0736453
-0.0860957,0.0623047
-0.158281,0.0205824
-0.0501442,0.0234582
0.0206085,0.0222986
0.00717317,0.0258252
-0.0323143,0.00678061
-0.047363,-0.00317737
-0.0696172,-0.00297207
-0.0605657,-0.0203764
-0.0045408,-0.00507357
0.048957,-0.00172409
0.091258,-0.00567498
0.0624791,-0.00634399
-0.0208372,-0.0110011
-0.0837456,0.00658742
-0.107948,-0.00121986
-0.0682385,0.0186878
0.0138944,-0.00800836
0.0600674,-0.0694163
0.0317766,-0.0755898
0.00111186,-0.0369475
0.0339052,0.0437073
0.13091,0.0166747
0.296051,-0.0104143
0.343675,0.00759785
0.149043,-0.0299598
-0.15917,-0.0502912
-0.374277,-0.0950805
-0.250223,-0.0761468
-0.0933808,0.0388885
-0.0562143,0.126532
-0.0578055,0.185455
-0.0144164,0.0963213
-0.0318256,0.00323834
-0.10049,-0.0373427
-0.0934226,-0.0312297
-0.0567196,-0.00624153
-0.00733229,0.000372783
0.0660481,0.00673784
0.15591,0.0013742
0.204795,-0.0149128
0.186567,-0.111727
0.0754429,-0.196664
0.0451954,-0.0849845
0.164251,0.0865694
0.104773,0.108639
-0.0796558,0.125988
-0.192445,0.0503518
-0.147921,-0.0745616
-0.107813,-0.00229348
-0.134413,0.146946
-0.122174,0.0580099
-0.0692432,-0.0663942
-0.0176594,0.0254874
0.000188291,-0.0441285
-0.00637995,-0.0326243
0.00703091,0.0237693
0.00843335,0.0506636
0.0236622,-0.00869897
0.0395329,0.0142332
0.0330432,-0.00118858
0.05828,-0.0814558
0.123425,-0.137466
0.168335,-0.112479
0.135596,-0.0142947
0.0756703,0.105402
0.0318192,0.119617
-0.0439168,0.0234439
-0.0354207,0.00984692
-0.0699698,0.0267944
-0.0951145,0.0163172
-0.0798711,-0.0364771
-0.0485888,-0.0507796
0.0287971,-0.017208
0.0622619,-0.00239259
0.0522169,0.0420071
-0.0191797,0.0403837
-0.106363,-0.034872
-0.12178,-0.0858237
-0.0801837,-0.0623854
-0.0302571,0.00810259
0.02881,0.0208962
0.0547825,0.0146371
0.0990728,0.041193
0.161001,0.0570083
0.0918795,0.00477017
-0.0688611,0.0161575
-0.121456,-0.000116221
-0.0591253,-0.037066
-0.0138893,-0.103882
-0.0133961,-0.0926605
0.0204815,-0.0573096
0.0468093,0.0292604
0.0285969,0.100777
-0.0233045,0.132089
-0.0289552,0.134198
-0.0275944,0.0681221
0.00444347,-0.0109292
-0.00139456,-0.0437421
-0.00631718,-0.0436123
0.0387607,-0.0376926
0.0511861,-0.0278613
0.0280049,-0.0175938
-0.0054889,-0.0225619
-0.0519765,-0.018503
-0.067551,-0.00468469
-0.0796885,0.0443351
-0.0318813,0.0310244
0.0439429,0.00843411
0.102058,0.038184
0.166806,-0.0678746
0.164121,-0.111289
0.0334391,-0.041185
-0.0907437,0.0217194
-0.103056,0.049696
-0.0991077,0.0227081
-0.050829,-0.012848
-0.0446822,0.0121775
-0.0670633,-0.102049
-0.0377299,-0.15
-0.00401151,-0.0381114
0.00417529,0.0394867
0.00684502,0.0569941
0.00151022,0.0887374
0.0277662,0.133226
0.0589766,0.130182
0.055324,0.0328545
0.0990907,0.0213862
0.0793737,0.0507438
-0.0297896,0.0144311
-0.13851,-0.0437167
-0.0495964,-0.0242289
0.0596592,-0.0118625
0.0495038,-0.102755
-0.0139185,-0.24019
-0.0714646,-0.278791
-0.0544783,-0.0944401
-0.0351042,0.0666624
-0.0181955,0.0964529
-0.00175514,0.0899105
-0.00224042,0.154389
0.0148334,0.216812
0.039976,0.129445
0.0786422,0.0456591
0.0720328,0.0100141
0.0466188,0.00502317
0.00841366,-0.010625
-0.0470214,-0.0211707
-0.0182885,-0.038655
-0.00624651,-0.0363674
-0.00983662,-0.01762
-0.0239736,-0.00294805
-0.0411867,0.00373056
-0.0178079,-0.0350643
0.046707,-0.132907
0.0725494,-0.0869835
0.0467976,-0.0346056
-0.0401353,0.00443971
-0.116641,-0.0042676
-0.10801,-0.0732686
-0.0583434,-0.0140104
-0.0632116,0.034905
-0.0637999,0.0527744
0.025949,0.0587953
0.14211,0.059896
0.168188,-0.00157915
0.139095,-0.0653364
0.0544832,0.0349855
-0.0321313,0.0594612
-0.0536781,0.0494746
-0.0422042,0.0199726
-0.00556305,0.00853315
-0.0176047,0.0204966
-0.0424228,0.021821
0.00435005,0.0221672
0.0363175,0.00403312
-0.0173707,-0.0444533
-0.0799741,-0.0963191
-0.0879645,-0.161641
-0.000167337,-0.190465
0.0221537,-0.0772622
0.00391678,0.12416
0.00653595,0.177664
0.00320727,0.101458
0.0474927,0.0231917
0.0800034,-0.0248938
0.0565232,0.00391922
0.0348068,0.0192158
-0.0103269,-0.0114039
-0.0348424,0.0316808
-0.018312,0.0574829
-0.0094543,0.0439726
-0.0105972,0.0185844
-0.0310186,-0.00878776
-0.0523892,-0.0177527
-0.0504803,-0.0152757
-0.0455834,-0.0256401
-0.0142871,-0.00836874
0.0634521,-0.0469076
0.0733021,-0.0212585
0.0344017,-0.0132062
-0.0275162,0.01042
-0.0701276,0.0118944
0.0477954,-0.0166414
0.114219,-0.0334742
0.066281,-0.0366501
0.0444086,-0.0273064
0.00157303,0.0216113
-0.0126007,0.0617068
-0.0245045,0.0315058
-0.0952663,0.0159076
-0.0886277,-0.0212365
-0.0645722,-0.0541198
-0.0647864,-0.114367
-0.0201171,-0.182806
0.0310225,0.00324514
0.0257708,0.0786047
0.000611703,0.00323161
4.34e-05,0.0550067
-0.000331663,0.0833164
-0.00497385,0.0748411
0.021526,0.0851995
0.0712383,0.0541102
0.0813602,0.0516316
0.0373315,0.0666727
-0.0017292,0.0189332
0.0238394,-0.0629905
0.0996934,-0.0540441
0.0794793,-0.00206573
-0.0324848,-0.0526986
-0.160073,-0.111601
-0.178198,-0.0562544
-0.0924517,-0.00677467
0.000168934,0.0460734
0.0356034,0.0750292
0.0251824,0.0646651
-0.0125466,0.0384566
-0.0554196,-0.0283525
-0.0189416,-0.066523
0.0600332,-0.0364187
0.10541,-0.0118965
0.0895133,-0.011211
0.0226444,0.0468953
-0.0853375,0.0836116
-0.1199,0.00937447
0.00234636,-0.0640787
0.0561481,-0.0495583
0.0385927,-0.046432
0.0435853,0.0801478
0.0481123,0.100507
0.0595955,-0.0124493
0.0180263,-0.0539199
0.000400207,-0.0526682
0.0208823,-0.0240484
0.0320931,-0.022972
0.0927944,-0.031275
0.0407311,-0.0396782
-0.0550444,-0.0536101
-0.0927936,0.0324977
-0.122727,0.0742417
-0.0686843,0.0274908
-0.0479366,0.00418541
-0.0518623,-0.0135954
-0.0470959,-0.0123495
-0.0449141,0.03848
-0.0304036,0.0293078
0.0248092,0.00985979
0.109819,0.0140128
0.114462,-0.00283539
0.0333874,-0.00904159
-0.0675465,0.00580015
-0.074589,-0.0160106
-0.060456,-0.00318914
-0.0620418,0.000324984
-0.0125146,-0.021658
0.034529,0.00607904
0.0429335,0.0297009
0.0555266,0.021644
0.108075,0.0132098
0.159349,-0.0143992
0.0887828,-0.0638554
-0.0827163,-0.0743592
-0.143465,-0.0282917
-0.0272449,0.0453948
0.0280154,0.0679347
-0.00296341,0.0192143
-0.00112925,-0.0478103
-0.0126031,-0.0703755
-0.0614984,-0.0743716
-0.0778666,0.092346
-0.0613258,0.100326
-0.018819,0.0680062
0.0180212,0.0141419
0.040894,-0.0214553
0.0373803,-0.0123563
0.0222111,-0.101177
0.03464,-0.0478837
0.0513797,0.0107125
0.0427372,0.0491897
0.0504595,0.0875452
0.0496326,0.0615354
0.0414051,0.0495001
0.0183572,0.0221161
0.015517,-0.0334913
-0.040594,-0.114856
-0.094456,-0.0896546
-0.11617,-0.0220645
-0.0700613,-0.0215795
0.00617385,-0.0798989
0.0739381,-0.130846
0.10612,0.00239742
0.0636358,0.149684
-0.0430217,0.160582
-0.10195,0.0219686
-0.0601432,-0.0917769
-0.00663228,-0.0625383
0.00882959,0.0579373
0.0119753,0.0780068
-0.00154876,0.0652185
0.00304965,0.0436274
0.0236808,0.0140481
0.0646224,0.014109
0.0784756,-0.031631
-0.00209143,-0.0304248
-0.0489784,0.0159238
-0.0290314,0.05782
-0.0566973,0.021236
-0.0156925,-0.0654877
-0.00520946,-0.0650652
-0.0105908,-0.0656059
-0.0194167,-0.0542304
-0.00833742,-0.007942
0.00824884,0.00200041
0.000638917,0.0305002
-0.013046,0.0474561
-0.0401077,-0.00400246
-0.0229506,0.00321871
0.00479193,-0.00709129
-0.00661837,-0.0543094
0.000794752,-0.0499977
0.0230036,0.0237581
0.0524161,0.0568073
0.0556216,0.0185086
0.0422431,-0.031722
0.0225838,-0.0351193
0.0227106,-0.023966
0.0756274,0.0172287
0.106179,0.0507107
0.0381322,0.0924519
-0.0911101,0.0234264
-0.143692,-0.0283691
-0.107446,-0.0112253
-0.0921217,-0.0427825
-0.0814025,-0.142178
-0.0261235,-0.097839
0.00844895,-0.0496855
0.0293492,0.0595231
0.0477972,0.116611
0.106346,0.0772947
0.168126,0.0833879
0.122765,-0.00873722
0.00733786,0.00152326
-0.079785,0.0389788
-0.0530505,0.0441477
0.0184551,0.0176859
-0.00264669,-0.0118103
-0.0892437,0.00458942
-0.0759447,-0.015147
-0.0416039,0.00879332
-0.0268293,0.0146006
-0.0124946,0.00020474
-0.0160897,-0.0365629
0.00714292,-0.0785935
0.0396776,-0.11151
0.044228,-0.0961346
0.0205801,-0.0515728
-0.0357755,0.0198705
-0.0561309,0.0599852
0.0179296,0.0514951
0.0188298,0.0121138
-0.0291895,-0.0225607
-0.0186623,0.0377495
-0.00676891,0.114509
0.0258733,0.0244773
0.0246136,-0.0272964
0.0281141,-0.0516009
0.0576705,-0.0884163
0.106189,-0.0349231
0.121339,0.150358
0.0981751,0.139123
0.0310769,0.00494129
-0.0298837,-0.011127
-0.0200029,0.0100163
-0.0923998,-0.0417784
-0.141797,-0.0867318
-0.161281,-0.0239392
-0.100019,-0.0087658
6.18e-06,-0.0222893
0.0623966,-0.0205255
0.0582197,0.00341322
0.0214169,-0.0194996
-0.0450862,-0.0191262
-0.0581692,0.0077642
-0.0263348,0.0409608
-0.0291658,0.0410017
-0.0114801,0.0181018
0.0257362,-0.00580143
0.0505141,0.0056626
0.0368621,-0.0195599
0.0134593,-0.0512492
-0.0126492,-0.0642805
-0.0157139,0.0254954
-0.0172012,0.0571017
0.0675032,0.0675569
0.147344,0.0289994
0.156643,-0.01769
0.0832849,-0.0636993
-0.0523588,-0.0105183
-0.132533,-0.0348099
-0.110577,-0.0287595
-0.0756717,-0.00725042
-0.0723669,-0.00147342
-0.0423423,0.0607324
-0.00383438,0.0500619
-0.00146206,0.0080359
-0.0322804,0.0219175
-0.0270111,-0.0813002
0.058397,-0.00464368
0.120197,0.068005
0.127222,0.0557511
0.0665895,0.0353255
0.0047786,-0.0533494
0.0323549,-0.0360207
0.0613107,-0.0126929
0.0305268,-0.022346
-0.124822,-0.03534
-0.191278,0.0113327
-0.0245644,-0.05264
0.127716,-0.118819
0.194496,-0.0891693
0.137472,0.00369096
-0.0518225,0.147892
-0.199258,0.135461
-0.190496,0.077338
-0.0900059,0.0214669
-0.0374411,-0.0048954
0.0101775,-0.0288601
0.0601497,-0.0668043
0.0735047,-0.00255893
0.00546489,0.0025326
-0.0719759,0.0239044
-0.0897433,-0.0383403
-0.0154,0.0136418
0.0364615,0.047371
0.0173545,0.0326841
0.00402002,0.0347679
0.04054,0.0208789
0.0930565,-0.0136863
0.104661,-0.00573967
0.0523331,0.00131204
-0.0344965,-0.0376042
-0.0584759,-0.0719219
-0.0631449,-0.00381525
-0.0831104,0.031489
-0.0181234,-0.0467023
0.0124114,-0.0184806
0.028286,0.00473531
-0.00385103,0.00629462
-0.03617,0.0118519
-0.0537775,0.0218226
-0.0309104,-0.0321136
0.00559368,-0.0546227
0.0219222,-0.0356222
0.0523215,-0.0136161
0.122632,0.0290885
0.156335,0.0580855
0.100037,0.0148106
0.0425173,-0.00947575
0.00878935,-0.0232329
-0.0373855,-0.0102651
-0.13423,-0.0199091
-0.167079,-0.00856434
-0.0976549,0.0234889
-0.0331983,0.0599024
0.022516,0.0346623
0.0514326,-0.0443185
0.0493476,-0.00844817
-0.00382013,-0.0207554
-0.0338465,-0.0572616
-0.04329,0.058782
-0.0160757,0.0931713
0.0476417,0.00697907
0.0775018,0.0534242
0.0284666,-0.00710515
0.0198165,-0.0672463
0.125337,-0.0192535
0.160514,-0.0246768
0.0878206,0.0145815
-0.0938566,0.00714101
-0.17422,-0.000172771
-0.134999,0.0442103
-0.0693411,0.042273
0.01115,0.00708764
0.0500048,-0.0868675
0.0616234,-0.128291
0.0475425,-0.106175
0.00987066,0.0118941
-0.103841,0.0933584
-0.177709,0.041382
-0.11548,0.0554974
-0.0662627,0.0858257
-0.0264296,0.0302325
0.0222821,-0.0543763
0.0314696,-0.0397924
0.0453547,0.00725364
0.0481293,0.0442291
0.0230266,0.00251261
0.0210407,-0.010571
0.0434823,0.000661514
0.0528575,-0.0127639
0.0505523,0.0399896
0.0485622,0.00460263
0.0633361,-0.0576349
0.0451154,-0.0792066
0.0261583,-0.0349867
0.0331321,-0.00543551
-0.00330024,0.0328472
-0.0234682,0.072442
-0.0781123,-0.00944538
-0.130298,-0.024241
-0.0403472,0.0173155
0.0353072,-0.00865677
0.0386921,-0.00884512
0.0565155,-0.00696119
0.0648397,0.0169321
0.0441078,0.0328718
0.0114093,0.0241493
-0.0552086,0.00789841
-0.0970866,-0.0556316
-0.0978697,-0.13251
-0.0272454,-0.00754252
0.0100556,0.0967932
-0.0234723,0.07827
0.00987668,0.00812132
0.0846687,-0.023182
0.104926,-0.016379
0.0534808,-0.0201014
-0.0212294,-0.00619438
-0.0504484,0.0337194
-0.0670638,0.0764735
-0.0427028,0.00706439
0.0148055,-0.050878
0.0314769,-0.0182176
0.00534477,0.0226603
-0.000460068,0.0510039
-0.00582778,0.000563657
-0.00801873,-0.00533562
0.000580369,-0.00692861
0.00660258,-0.0175507
-0.0436997,-0.0271077
-0.0704494,-0.0595182
-0.0265227,-0.0807416
0.030905,-0.0375118
0.0731848,-0.0396333
0.0862593,-0.00820915
0.00741013,0.00169474
-0.0131183,0.0260327
-0.00669283,0.0527552
-0.0169557,0.0181007
0.0373768,-0.00816156
0.0685099,0.055641
0.00604594,0.0468146
-0.0363434,0.0499634
-0.0937935,0.0548784
-0.0940439,0.0331382
-0.000287516,0.00148949
0.0284279,-0.0535824
-0.00102609,-0.0387803
-0.0448818,-0.0194256
-0.0472462,-0.0333613
0.0303333,-0.0376041
0.0641804,-0.0190423
0.0616136,0.00641281
0.061759,0.062904
0.0662661,-0.00440054
0.0564284,0.00451661
0.0194936,0.00664539
0.022358,-0.0276546
0.050142,0.0367859
0.0458295,0.0904116
-0.0244846,0.036291
-0.1258,-0.0893366
-0.178244,-0.0951615
-0.207073,-0.0391326
-0.122429,-0.0499523
-0.0181307,-0.0184623
0.0819724,0.067097
0.159926,0.0493081
0.109833,-0.0159354
0.00398112,-0.0324289
-0.0624191,-0.0224562
-0.0395726,0.0153552
-0.0160119,0.0310655
0.00645046,0.0262595
0.0424794,0.0435322
0.0701908,0.0570692
0.0614696,0.0102596
0.0405456,-0.0409117
-0.0435644,-0.0300679
-0.0807167,-0.00531571
-0.014662,-0.121484
0.0407165,-0.0585314
0.0255304,0.0572117
-0.0106588,0.0132384
-0.00622859,-0.0315754
0.035996,0.028119
0.000172256,0.062681
-0.0530057,0.0128881
-0.0654259,0.0246458
-0.0389593,0.00778269
-0.00651296,-0.0401809
0.0124417,0.00334236
0.0177934,-0.0445694
0.017949,-0.00942094
0.00821322,0.0511191
0.00431976,0.106739
0.0110642,0.10358
0.0310948,0.0127797
0.0631974,-0.0199686
0.0565118,-0.0306263
0.0166173,-0.0397857
-0.0232464,-0.0146576
-0.0261853,0.00598029
-0.00864504,0.0121869
-0.012735,-0.0510296
-0.00916014,-0.0726703
0.000613102,-0.0444526
0.00118203,-0.00288673
-0.0221824,0.0345431
-0.042407,0.0324517
-0.0348878,0.0239523
-0.00700691,-0.0174159
0.0528047,-0.00887803
0.101208,-0.0494449
0.0754363,-0.0578773
-0.00387692,-0.0236934
-0.0784478,0.0388394
-0.105829,0.0641213
-0.0688801,0.0325528
-0.00883566,-0.00526652
0.0106061,-0.0300189
0.0200015,-0.017284
0.0138953,0.0230439
0.0132936,0.00128115
0.00282935,-0.00150933
-0.014175,0.0340906
-0.0173105,0.0571873
0.00571806,-0.0112332
0.0312815,-0.0253323
0.028747,-0.0173841
-0.00390991,-0.0430273
-0.0465199,-0.00345921
-0.0350892,0.0201789
-0.00978244,-0.0211608
0.0223946,-0.0326861
0.0526662,0.0193137
0.0993338,-0.0361131
0.139508,0.0413913
0.0898258,0.00617003
-0.0380618,-0.0127884
-0.142027,-0.00731448
-0.106006,-0.0208579
-0.0725888,0.0098839
-0.0564274,0.0175355
-0.02148,-0.0141045
0.0301621,0.0235871
0.038253,0.0218643
0.0244711,0.0441017
0.00914185,0.0262868
0.00606022,0.00125849
0.009449,-0.00882342
0.0145764,-0.00426811
0.0113581,-0.010167
-0.00800521,0.00262933
-0.0150736,0.0646426
-0.0131017,0.0206426
-0.00637279,-0.0192255
0.0044991,-0.00871241
0.0121255,-0.00684745
0.00608316,-0.00776925
0.0166621,-0.0106324
0.0259214,-0.0149148
0.00899885,-0.0176963
-0.0110459,-0.0211832
-0.0202088,-0.0345561
-0.017326,-0.0572258
0.00127768,-0.0324401
0.0235714,-0.00783213
0.0285825,-0.0322858
0.00373848,0.00286372
-0.0124192,0.0691226
-0.0130956,0.0788875
0.00675604,0.0621187
0.0220549,-0.0216661
0.00824002,-0.0461498
-0.0346814,-0.0224188
-0.0800416,0.0207609
-0.0735028,0.0302292
-0.0567975,-0.0123372
-0.045053,-0.0328444
0.0164327,0.00949557
0.0755034,0.0617437
0.0586397,0.0054872
0.0271145,-0.0586691
0.034764,-0.0211135
0.035676,0.0133267
0.0114002,0.0242528
-0.00702848,-0.00240754
-0.0044483,-0.0131296
0.000568836,-0.00715524
0.00779732,-0.00227868
0.00770285,0.00409178
-0.00130557,-0.00253611
-0.00509009,-0.00335349
0.0152947,0.0016546
0.0208191,-0.0201665
-0.00787459,-0.0107509
-0.0340047,0.00533846
-0.0419678,-0.00803746
-0.0286268,0.0124744
-0.00114735,0.0317684
0.046999,0.0231001
0.0454831,0.0216566
0.015794,-0.0461885
-0.0110447,-0.0585426
-0.00868739,0.0117976
-0.000229238,0.00369891
-0.00799363,0.00939963
-0.0254979,0.0317075
-0.0482579,0.0136745
-0.0450429,0.0130383
-0.0153341,0.0111998
0.0290203,-0.013021
0.0621741,-0.024456
0.0534731,-0.0347583
0.031356,-0.0146707
0.00543784,0.0203154
-0.0177781,-0.00176171
-0.0252485,0.0113246
-0.0233624,0.0242351
-0.0277596,0.0161992
-0.0102893,0.00722996
0.00525202,0.0050981
0.00744907,0.00811416
0.00378851,0.00386854
0.000257796,-0.00329462
-0.00525223,-0.000680659
-0.00856006,0.00190677
-0.00559297,-0.00195178
-0.00927404,-0.00298529
-0.0133156,-0.00336482
-0.0124166,-0.00789273
-0.00529552,-0.00620599
0.00181455,-0.00404166
0.00185366,-0.0144002
0.000253627,-0.000845517
0.000863577,-0.00691588
0.00537601,-0.00712346
0.0165586,0.0018738
0.0249501,0.0116756
0.0280425,-0.00134489
0.0223375,0.00275338
0.0107865,-0.00311136
0.00681319,0.0345804
0.00698248,0.0293227
0.00259274,-0.000685814
-0.00709002,-0.00232771
-0.0135895,-0.024102
-0.0172418,-0.0241412
-0.0135652,-0.0208327
-0.014325,-0.0149092
-0.0197146,-0.00593697
-0.04325,-0.00681371
-0.0482631,-0.0135817
-0.0334855,-0.00714146
-0.00306448,-0.00953902
0.0186875,0.00745129
0.0365402,0.0287083
0.0402822,0.00319236
0.036643,-0.00274248
0.0269143,0.0120571
0.0220136,0.0163083
0.0195937,0.0141575
0.0524226,0.0043414
0.0927595,-0.00837392
0.0556788,-0.00584786
-0.000170387,0.00559834
-0.00174009,0.0218847
0.00473876,0.0370163
-0.0321728,0.00730821
-0.0553581,-0.0102129
-0.0650033,-0.00961572
-0.0471626,-0.0161467
-0.030687,-0.00415107
-0.0412553,-0.0109637
-0.0404879,-0.0266652
-0.0452333,-0.0295936
-0.0497176,-0.0117538
-0.0211123,0.00689818
-0.00892423,0.0222492
-0.0022818,0.00982932
0.0200879,-0.0255172
0.0277772,-0.0272094
-0.00366696,-0.00397569
-0.0285866,0.00392678
-0.0287006,0.0074845
0.0218559,0.019548
0.0555003,0.0102861
0.0503333,0.00479135
0.0388213,0.00853993
0.0346879,0.00616826
0.0311748,0.0104892
0.0275466,0.0126364
0.0226751,0.01081
0.0146957,-0.00241058
-0.0204328,-0.00625195
-0.0631006,-0.0055686
-0.0727571,-0.0122463
-0.033906,-0.0147834
-0.00865489,-0.014682
0.0110561,-0.0191506
0.0134733,-0.0122757
-0.0153076,0.00812949
-0.0069428,0.0113267
0.0369742,-0.00692074
0.0648439,0.00551023
0.0771394,0.0181232
0.0405978,0.0158007
-0.0365438,0.0181482
-0.0457129,0.0251372
-0.0190871,0.0162939
-0.0127734,0.010034
-0.0924338,0.0057772
-0.140778,0.00937172
-0.0496333,-0.012574
0.0942302,-0.0372557
0.190849,-0.0309094
0.142218,-0.0102592
0.021721,0.0050133
-0.0648387,0.00865755
-0.0502851,0.00868178
-0.00852292,0.0138796
0.00921384,0.017977
-0.00105426,0.0121059
-0.00288274,-0.00485359
-0.00485076,-0.0207009
0.000377797,-0.0132541
0.0399212,0.00377699
0.0692836,-0.000677338
0.0633665,-0.00764146
0.0359978,-0.0125268
0.015463,-0.0181531
-0.03969,-0.0186326
