Comp Ch 3,Comp Ch 4
0.00260485,-0.0370083
0.0239918,0.0542479
0.0307745,0.103659
-0.0058937,0.107656
-0.0638231,-0.0226989
-0.0819323,-0.0597891
-0.0742573,-0.0254592
-0.0104578,0.0326
0.0409222,0.0389317
0.00377089,0.0376186
-0.0209901,-0.0359665
-0.00801367,-0.0512685
0.0270945,-0.0313404
0.07119,0.0327176
0.0578574,0.0173267
0.0181717,0.000880951
-0.0151458,0.0606389
-0.0335756,0.0240959
-0.0173989,-0.00212511
0.0159836,0.00364136
0.0288361,-0.0442234
0.00660357,-0.0226952
-0.00264597,0.0422345
0.0262138,-0.0145408
0.0438759,-0.0884419
0.0152959,0.00383972
-0.0495801,-0.00868575
-0.0870558,-0.101055
-0.119906,-0.0549236
-0.180801,-0.0228272
-0.20732,-0.0293067
-0.0852068,0.00118332
0.0586472,0.0504182
0.125174,0.0811265
0.119637,0.0731757
0.13376,-0.00187736
0.12388,-0.0513246
0.0907727,0.0215586
0.0828513,0.0388272
0.102769,0.000354548
0.086944,0.0367841
0.0324169,-0.0363007
-0.0328835,-0.0912211
-0.0343971,-0.00794131
-0.0403903,-0.0306283
-0.0365931,-0.0365692
-0.0201562,0.0111264
0.00307958,-0.0146523
-0.0028349,-0.00522348
-0.0103738,0.116862
-0.00900581,0.0498882
-0.00251568,0.0223539
-0.0375721,0.0400341
-0.0970821,0.0476495
-0.103347,0.0184854
-0.0823044,-0.0138537
-0.0520458,-0.0301372
-0.0275904,-0.014012
-0.00963891,-0.00657271
-0.0118573,-0.0125953
0.00287272,-0.0241858
0.00495312,-0.0549793
0.00169722,-0.0254702
0.0498294,-0.000931797
0.117824,0.00839579
0.110826,0.0375291
0.0657561,0.0476524
0.029405,0.0235806
0.0027793,0.0128752
-0.0120808,0.0283248
-0.00847838,0.0223944
-0.0251338,0.0179271
-0.0578161,-0.015188
-0.0690549,-0.0826855
-0.0265444,-0.067076
0.0452857,0.0235817
0.0813489,0.0501508
0.0613402,-0.00154272
0.0218647,0.0077094
0.00482338,-0.0362352
0.0221036,-0.0453986
0.0251033,0.000659368
-0.00513853,0.0490459
-0.0399349,0.0391992
-0.0298013,0.0501861
-0.0389176,-0.0209321
-0.0625836,-0.074406
-0.0948479,-0.0158097
-0.101611,0.0305424
-0.0460845,0.000739004
0.0119469,0.0131702
0.0374916,0.0228243
0.0255607,0.0349192
0.0322825,0.0266068
0.018778,-0.0962926
0.0259267,-0.0425629
0.0416798,-0.0499406
0.0360081,-0.0790873
0.0303159,0.017638
0.0279081,0.0301799
0.0277802,0.0205572
0.0101522,0.0153992
-0.0126908,0.0128249
-0.0265716,-0.00338558
-0.0258509,0.00850608
-0.027427,0.0269205
-0.0284288,0.0056327
-0.0236112,0.0202312
-0.00212598,0.0416208
0.045293,-0.00231894
0.0853909,-0.0295378
0.0646765,-0.0521114
0.031789,-0.0559255
-0.031374,-0.0658505
-0.0564757,0.066948
-0.0277656,0.082289
-0.0130447,-0.031427
-0.0345519,-0.0582875
-0.0409991,-0.0210924
-0.004976,0.0486778
0.0138447,0.053642
0.0300014,-0.0138479
0.0183407,-0.0222349
0.00305563,0.00165195
0.0159183,-0.00538959
0.0395348,-0.0191439
0.000931005,-0.000782007
-0.0983818,0.0319348
-0.126277,-9.19e-07
-0.0643628,-0.00991063
0.0456562,-0.00784265
0.0901853,0.0114744
0.071842,0.0131371
0.0543721,0.00708391
-0.00403118,0.0412903
-0.00729717,0.0642785
0.0299507,-0.0327831
0.0105253,-0.102786
-0.0518523,-0.045873
-0.102626,-0.032078
-0.103115,0.02877
-0.00892203,0.0785242
0.14491,0.0509766
0.196664,0.0149602
0.107541,0.0113629
-0.0109964,-0.000135989
-0.0695947,-0.0295385
-0.0908188,-0.0305862
-0.072092,-0.000692869
-0.0452455,0.0221406
-0.0363995,0.00016183
-0.0453438,-0.0465693
-0.0408809,-0.110122
-0.0289582,-0.00589455
-0.0135789,0.0948009
-0.0113106,0.106006
-0.0161771,0.0293161
0.0148572,-0.037875
0.0221794,-0.0126369
0.0104857,0.00673279
0.0310829,0.0103058
0.0506275,0.00318115
0.0830987,0.0162181
0.123913,0.000347718
0.137271,-0.0202483
0.0549352,-0.0190439
-0.0404728,0.00417313
-0.0859592,0.000655647
-0.0936156,0.000419851
-0.081039,0.00376572
-0.0677426,0.00374797
-0.0151716,-0.0158912
0.012514,-0.0590067
0.00488423,-0.0919019
0.000182891,-0.0633824
-0.0258204,0.00131313
-0.0483001,-0.0177632
-0.0531687,-0.00497138
-0.0118127,0.0561709
-0.0143768,0.0593369
-0.0470004,0.0490853
-0.00807138,0.0561555
0.0237623,0.0519857
0.0463357,0.0389061
0.0427394,0.0284168
0.0497452,0.00892278
0.0972756,-0.0319422
0.159447,-0.0962401
0.141316,-0.112305
0.0558395,-0.0465092
0.00458061,0.00367451
-0.0443985,0.00689378
-0.100317,0.0117233
-0.132841,0.0221036
-0.107034,0.0327374
-0.0547204,0.0441388
-0.0334962,0.0451764
-0.0100265,0.020799
0.033831,0.00943158
0.0397656,0.0201916
0.0212594,0.0206631
0.0200928,0.0181747
-0.00279904,-0.013471
-0.0401525,-0.0242958
-0.0518714,0.0142153
-0.0432688,-0.0220207
-0.000658759,-0.0380281
0.0660567,0.0428935
0.0755506,0.0112772
0.0586077,-0.0203514
0.0391415,-0.0462471
0.0251291,-0.0427447
0.00822161,-0.00260376
-0.0465658,0.038914
-0.0931173,-0.00708349
-0.0793173,0.0127255
-0.0409582,0.0206083
0.0240139,-0.000320184
0.0618505,0.0144664
0.0601154,-0.0168296
0.0341365,-0.0488185
-0.00546367,-0.00436894
-0.039089,-0.00578306
-0.0184488,-0.0124902
0.0371663,-0.0028324
0.0606306,-0.0779217
0.0352928,-0.142467
-3.43e-05,-0.0857566
-0.00249388,0.0788867
-0.00391367,0.147992
-0.0480808,0.119318
-0.101996,0.105821
-0.1182,0.0630341
-0.0843412,-0.00683418
-0.0371774,-0.0394414
0.034941,-0.0205377
0.0729068,0.00466599
0.0660986,-0.0523481
0.0543282,-0.132348
0.0521611,-0.108568
0.0420834,-0.0267744
0.0176143,0.0611334
0.0120172,0.0838941
-0.00799406,0.0671264
-0.0398198,0.0309412
-0.0218286,0.0302939
0.0223257,0.0173033
0.0463093,-0.0165569
0.0537686,-0.0160829
0.0652777,0.0121452
0.0685957,0.0399461
-0.0146659,0.00188788
-0.108954,-0.0282411
-0.118101,-0.000540505
-0.0543609,0.000938173
-0.0255884,-0.0111731
-0.0467284,-0.0242135
-0.024556,0.000307939
0.004052,-0.0104605
-0.00285159,-0.0196947
-0.00947693,0.0152829
-0.00279355,0.0420655
0.000530608,-0.0102188
-0.00232622,-0.0763177
0.000390956,-0.090386
0.00492772,-0.0373657
0.0188676,0.0337883
0.0494506,0.0128952
0.0596327,-0.0138108
0.0496005,-0.00585821
0.0294346,-0.0148992
0.035368,0.0322761
0.0973923,0.059732
0.0774737,0.0631556
-0.0288433,0.0595405
-0.120056,0.0439836
-0.13526,0.00424935
-0.0932152,-0.0035762
-0.0265797,-0.0143855
0.028527,-0.0381464
0.0530037,-0.0483491
0.0339985,-0.0665698
0.00188962,-0.0314543
-0.0215729,0.0142416
-0.00543996,-0.00455057
0.0194024,0.00466357
-0.0105237,0.0144816
-0.0488604,-0.0159849
-0.0522158,-0.0295813
-0.0219197,-0.0299543
0.0592043,-7.11e-05
0.0868302,0.0408093
0.0548263,0.0360642
0.0196172,0.0256478
-0.0131449,0.026277
-0.014082,0.0550393
0.0157882,0.0469808
0.0194121,-0.0441008
0.0022658,-0.0283018
-0.021273,0.0261905
-0.0133256,0.0181243
0.00100298,-0.0576554
-0.00532869,0.00645142
-0.0222994,0.0409511
-0.0434265,-0.000709636
-0.0463081,-0.0013809
-0.0358192,0.0160271
-0.0326165,-0.0106517
-0.024639,0.00155003
-0.000717746,0.0502745
0.0154519,-0.0266728
0.0167735,-0.0773161
0.00387689,-0.0398631
-0.0215717,-0.0245826
0.0135208,-0.049598
0.0720017,-0.000160343
0.0931098,0.0114999
0.0615405,0.000509938
0.0234506,0.00224765
-0.0016283,-0.00895079
-0.0134701,0.00344858
-0.0334722,0.0311956
-0.0277964,-0.00176306
0.028729,-0.0165361
0.0729773,-0.0251303
0.0878644,0.0403286
0.0191159,0.0499091
-0.079578,0.0284917
-0.114028,0.00951654
-0.11064,-0.0470718
-0.0771159,-0.0314503
-0.0331728,0.0150541
-0.0404526,0.030701
-0.0497384,-0.0157527
-0.0238286,-0.0316136
0.0455609,-0.0110179
0.115055,0.00675723
0.0928087,0.0399033
0.022797,0.0279706
0.031244,0.0277484
0.0546371,0.0701085
0.111282,-0.0229721
0.0959959,-0.0456735
-0.00131426,-0.0595569
-0.100954,-0.0562541
-0.136062,-0.0155663
-0.0821485,0.0201544
0.034231,0.0148177
0.10592,0.00609339
0.101091,0.0203757
0.0645095,0.0333252
0.0150515,0.00262888
-0.0411553,-0.00761186
-0.128228,-0.00474291
-0.139123,-0.0368394
-0.0950575,-0.023898
-0.0856386,0.0227052
-0.0889089,0.0750783
-0.0342707,0.0841462
0.0211136,-0.0215358
0.0562056,-0.00930521
0.0966807,0.0287398
0.119128,0.0216234
0.0914386,-0.0530078
0.00763264,-0.0318351
-0.0530144,-0.00933571
-0.0499778,-0.0326754
-0.0148845,-0.00184292
-0.0149345,0.0547144
-0.0612987,0.0629327
-0.0772809,-0.0350171
-0.0272625,0.00144027
0.00487591,-0.0808743
0.0422548,-0.0874018
0.0579113,-0.0191608
-0.00129468,0.00158384
-0.0264586,0.0377747
0.0624231,0.0293643
0.13837,0.0111631
0.150202,-0.0124247
0.0962018,0.00978248
0.0137582,0.0362027
-0.0645186,0.00752356
-0.0976619,0.00438739
-0.0629157,0.00645429
-0.0426434,0.00301835
-0.0361693,-0.0141219
-0.0194204,0.00299771
-0.00992418,0.0192456
0.0242681,-0.00057541
0.045508,-0.00870442
0.00696683,-0.0276646
0.0379653,-0.0143176
0.0496639,0.00447903
-0.0306811,-0.0106089
-0.129422,0.0131189
-0.101175,-0.0188598
0.0372221,-0.0459463
0.128932,-0.0220534
0.11274,0.0137598
0.0306975,-0.013641
-0.0364739,-0.0223386
-0.110721,0.0194142
-0.120974,0.0562203
-0.05764,0.0693558
-0.0452922,-0.0307001
-0.0470938,-0.0068998
0.0024158,0.0286897
-0.00587177,-0.0053845
-0.0240045,-0.0360202
0.0384769,-0.070321
0.117011,-0.0111152
0.07885,0.0544216
0.0348511,0.0139651
0.0576519,0.016129
0.0347487,0.0104617
-0.0121139,0.0276662
-0.0246868,0.00303176
-0.0158412,-0.0251788
-0.0188069,-0.0434048
-0.0213204,-0.0292516
0.0379995,-0.018936
0.0488081,-0.0255184
0.00378893,0.0296329
-0.0466353,0.075482
-0.0456821,0.0423642
-0.011935,0.0167241
-0.0060715,-0.00386605
0.00723501,-0.026081
0.0155545,-0.0489298
0.0111479,-0.0264324
-0.0126662,0.00298813
-0.0200844,-0.00330464
0.00175406,-0.0255074
0.0237184,-0.00851909
-0.00428705,0.047748
-0.0475178,0.00832753
-0.0831201,0.0155289
-0.0514691,-0.0176815
0.0193322,-0.0326342
0.0768613,0.0296522
0.0919334,0.0523836
0.0745248,0.0335939
0.0339778,0.0117059
-0.0172594,-0.0178541
-0.0652424,0.0160552
-0.0895351,-0.00458111
-0.0840924,-0.0572662
-0.0634204,-0.0152355
0.0194795,0.0101623
0.105084,0.00396677
0.116301,-0.00215906
0.0854877,-0.0406424
0.0478073,-0.0260695
0.0422056,0.00574093
0.00170997,0.0462305
-0.0429012,0.018388
-0.0138939,-0.00843158
-0.0283876,-0.0172595
-0.0182065,-0.0174868
-0.0278415,0.0244611
-0.0624641,0.0668188
-0.0651333,0.0350944
-0.0494887,0.00997647
-0.038043,0.00771132
-0.0498438,-0.0169627
-0.0512083,-0.03557
-0.0264715,0.00282402
0.00438166,-0.061352
0.0316656,-0.0678951
0.0396431,0.0164604
0.0411234,0.0121637
0.0324608,-0.0545674
-0.00526664,-0.0798397
-0.0348769,0.00242075
-0.0147924,0.1356
0.00620116,0.127896
0.0190304,0.074836
0.0421783,0.0404316
0.0539695,0.0204996
0.0274862,-0.046979
0.012105,-0.0846475
0.0386658,-0.0303062
0.0267187,-0.0517293
0.0582118,-0.0650356
0.0818412,-0.000144497
0.0372233,0.0570762
-0.0678362,0.0443631
-0.111935,-0.0349487
-0.093255,-0.0729839
-0.0561507,-0.0491461
-0.00350079,0.0673921
-0.0294115,0.0921791
-0.0099306,0.0477768
0.115857,-0.0253899
0.271939,-0.0752349
0.31479,-0.0717893
0.169247,-0.0264854
-0.0401483,-0.0393774
-0.19985,-0.0205198
-0.278943,-0.0105805
-0.291572,0.0637408
-0.214752,0.130012
-0.0916659,0.00650245
-0.0227873,-0.00447215
-0.0172199,0.031642
-0.0175751,0.0237773
0.0623867,0.00587334
0.14507,0.0104611
0.0974184,-0.0119797
0.00351919,-0.0257256
-0.00319039,-0.021889
0.0226601,-0.0282199
0.00937045,0.0333288
-0.0318947,0.00963254
-0.0530205,-0.0388684
-0.0226208,-0.0389634
0.0450554,0.020401
0.094339,0.0722374
0.0819804,-0.0560969
0.0890667,0.0227196
0.0719511,0.0611186
0.00117509,0.02142
-0.0703716,-0.0731975
-0.0937478,-0.107541
-0.0689797,-0.00489709
-0.0421351,0.0802492
-0.042654,0.0152521
-0.0445899,0.00207893
0.0238768,0.0157288
0.1253,-0.0370184
0.166547,-0.0988002
0.125389,-0.032511
0.0376847,0.0544991
-0.0615743,0.020396
-0.0829771,-0.0183344
-0.0122912,-0.0439087
0.0750276,-0.0220196
0.0560857,-0.0259353
-0.0300122,0.0379127
-0.10567,0.0623692
-0.148409,0.0613622
-0.117703,0.0317565
-0.0557603,-0.0025942
0.0291201,-0.0103399
0.0499755,-0.00348242
0.019014,-0.0165619
-0.0200838,-0.0266674
-0.0320291,0.0270613
-0.0519676,0.01392
-0.027925,0.00156139
0.0332719,0.0475883
0.0908126,-0.00427208
0.097802,0.0117355
0.0303188,0.00176234
-0.00537592,-0.0075628
-0.0176842,-0.0522425
-0.0340176,-0.00759813
-0.0163995,0.0136114
-0.0163468,0.0131778
-0.0152238,-0.0798433
-0.0226284,-0.0234698
-0.0480347,0.00292129
-0.0292819,0.0793573
0.0147627,0.0676738
0.0620001,-0.0714964
0.0644295,-0.00127234
0.0157926,0.0209124
-0.0274092,0.0526259
-0.0593866,0.0279223
-0.0354109,-0.0564844
0.132435,-0.0315635
0.272645,-0.0157529
0.236851,-0.0893367
0.0798677,-0.0169628
-0.0838537,0.0271158
-0.129337,0.0239146
-0.190473,0.0433738
-0.242061,0.0678258
-0.184334,0.00495494
-0.0927612,0.00607534
0.00606161,-0.020455
0.0181603,-0.0869746
0.0399049,-0.088289
0.0999216,0.0546689
0.106547,0.0973668
0.0415372,-0.0243295
-0.00975051,0.0337823
-0.070295,0.0451006
-0.0700238,0.0413034
-0.0104006,0.011288
0.0449862,-0.030778
0.0586523,-0.023061
0.0669854,-0.0221333
0.102665,-0.0251657
0.129871,0.00631465
0.046631,0.0635445
-0.0656587,0.0466689
-0.109621,0.00294009
-0.0792185,-0.047558
-0.0291791,-0.0287675
-0.0742991,-0.0324508
-0.079363,-0.0627377
0.00150697,-0.026438
0.0719343,0.000304584
0.118519,0.0226768
0.0862024,0.0390568
-0.00265506,0.0111353
-0.0582717,-0.0563925
-0.0080933,-0.0818369
0.0585499,-0.0110101
0.112724,-0.0177886
0.0555917,-0.00103794
-0.0182009,0.0687992
-0.0391946,0.082824
-0.0598421,0.00844684
-0.0898317,-0.00689956
-0.133707,-0.00543882
-0.131792,-0.0191931
-0.079861,-0.0242898
-0.0128479,0.0395778
0.0502013,-0.00248389
0.0860193,-0.0962264
0.0413131,-0.0811374
-0.00585186,-0.0456346
0.00861812,-0.0589987
0.0245194,0.055305
0.0125548,0.105928
-0.00965528,0.0459277
-0.0105228,0.0183221
0.00314699,-0.0227545
0.0329445,-0.0178332
0.0580192,0.00710304
0.0452548,0.0405765
0.018975,-0.00765711
-0.00320596,-0.00814706
-0.0103663,0.0166817
0.0121078,0.0224063
0.0344845,-0.00446809
0.0289036,0.0235953
-0.00125737,0.0861749
-0.050052,0.0937689
-0.0685289,-0.025395
-0.0457352,-0.0337946
-0.0387052,0.00440216
0.0307554,-0.0527548
0.0951359,-0.0638226
0.108134,0.0120785
0.0510026,0.00852436
-0.00481179,-0.0245499
-0.0228918,-0.00373208
-0.0653737,0.025817
-0.114138,0.0310072
-0.102466,0.0499496
-0.0342347,-0.0163571
0.0107357,-0.047354
0.0183245,0.0101152
0.00636751,-0.0745441
0.0349389,-0.035691
0.0462363,0.0501068
-0.0037032,0.07134
-0.0608136,0.0403203
-0.0470462,0.0340715
0.0173837,0.0014639
0.088785,-0.0259234
0.109975,-0.0310637
0.0440175,-0.0462277
-0.0305823,-0.0050278
-0.0543849,-0.0237729
-0.0233422,-0.0185826
-0.0095538,0.0406658
-0.0162941,-0.0443406
-0.0227529,-0.0158193
-0.0323813,0.0656431
-0.0307035,-0.0240226
0.0536096,-0.0148587
0.0994834,0.0775929
0.0994227,0.00797293
0.0496125,-0.00304982
-0.0178537,-0.00940035
-0.0422763,0.0402583
-0.0722686,0.0781988
-0.0994188,-0.0627798
-0.0529043,-0.0935788
0.0160981,-0.0690732
0.0354633,-0.036077
0.0155366,-0.0305448
-0.00476975,0.00335993
-0.0133761,0.0530438
-0.000444232,0.0447628
0.00377397,0.00374523
-0.00717889,0.00210695
-0.0298135,-0.0610384
-0.0503328,-0.0637446
-0.0435281,0.00925502
0.0031679,0.0523287
0.0613839,0.0494303
0.0781196,0.135012
0.0647628,0.0610329
0.0347154,-0.00105898
-0.0253162,-0.0345284
-0.0560168,-0.0855241
-0.0665769,-0.0425985
-0.0137684,0.0836866
0.0289985,0.00889687
0.0225402,-0.0194433
0.0100349,-0.0336629
-0.00733389,-0.0855867
-0.0146051,-0.0771463
-0.0108834,-0.0484821
-0.00585437,0.0666287
-0.00038999,0.0202917
-0.00725153,-0.0417796
-0.00141859,0.00555992
0.029973,0.0183011
0.0412738,0.0869013
0.0284084,0.0301251
-0.0261388,-0.0701518
-0.0886167,-0.0835474
-0.0674472,0.0619718
0.0197956,0.0732858
0.0850853,-0.00787021
0.0886798,-0.025616
0.0500386,-0.0735667
-0.000985959,0.017262
-0.0532541,0.0742151
-0.118056,-0.0119732
-0.0948022,0.0416998
-0.0201339,0.093172
0.055076,-0.0482585
0.0946103,-0.0974933
0.0946509,-0.040471
0.0859939,0.058756
0.0410721,0.0404478
-0.0331735,0.0690204
-0.062312,0.00821152
0.011105,-0.0242109
0.0922586,-0.0481971
0.0773399,-0.0427723
0.00751344,0.0286801
-0.10339,0.0699803
-0.120589,-0.0416213
-0.0435049,-0.0830568
0.00209878,-0.0501706
-0.0108297,0.0294423
-0.0425921,0.0787318
-0.0547278,0.0084458
-0.0744509,-0.0683588
-0.0232776,-0.00112248
0.0231001,0.0453126
0.0132974,-0.0595808
0.0247719,-0.01342
0.0489255,0.0515569
0.0146191,-0.0166959
-0.0462999,-0.193436
-0.0114691,-0.0831616
0.0838476,0.101905
0.161382,0.0770029
0.1227,0.0655503
0.0504886,0.0675707
-0.0370323,0.0731688
-0.0850422,0.0669341
-0.0340698,0.0121967
-0.00777131,-0.0134059
-0.035,-0.0111688
-0.0871934,-0.0508825
-0.0998182,-0.0222581
-0.120436,-0.0598466
-0.0516215,-0.0645205
0.0521179,0.0152167
0.0892776,0.0715403
0.0871825,0.0260312
0.0694854,0.0522959
0.0344238,0.0346627
-0.0355578,0.0261393
-0.048558,-0.0738556
-0.0507819,-0.0836118
-0.0655155,-0.0590504
-0.0197166,0.00675764
0.0455757,-0.0442105
0.0937682,-0.0336386
0.0774611,0.00204186
0.0259303,0.0675972
-0.0270244,0.0159868
-0.0428942,-0.0324215
-0.0215996,0.0370871
0.000681074,0.0533441
-0.0175982,0.0114892
0.0167646,-0.0134073
0.0104111,0.0417766
-0.0128289,-0.00407046
0.0206666,-0.00265515
0.0422949,-0.0158699
0.0517356,-0.0240649
0.0134737,0.0146846
-0.0394357,-0.00189849
-0.0762329,-0.0457567
-0.0351712,-0.0592247
-0.00313767,-0.0177878
0.0131367,-0.00868688
0.0234414,-0.0247119
0.0201157,0.0250751
0.00422281,-0.0101771
-0.0237526,-0.000807766
-0.0578662,-0.0139331
-0.0504065,0.0759818
-0.0407874,-0.051047
-0.0323164,-0.0481091
0.0197384,0.196604
0.0519591,0.0361966
0.0833069,-0.0692591
0.0506066,0.106911
0.00215104,0.0244172
-0.00987554,-0.0170278
-0.0398711,0.00996086
-0.0479085,0.0238091
-0.0242063,-0.018579
0.0211658,0.0109948
0.039045,0.0119078
-0.00749525,-0.0352545
-0.020366,-0.0616141
-0.0170442,-0.0377868
-0.0414205,-0.0590688
-0.0663839,-0.0127632
0.014218,0.00873063
0.081253,-0.00600983
0.132038,0.0173789
0.145723,0.0407734
0.0609931,-0.0218631
0.0338001,-0.0160246
0.143672,-0.0129739
0.180346,-0.0623211
0.0982551,-0.0923179
-0.0621862,0.0593333
-0.183104,0.108324
-0.186075,0.0196092
-0.179859,0.00417928
-0.119921,-0.0286027
-0.0862534,-0.0115563
-0.12869,0.0654859
-0.133202,0.0159812
-0.142455,0.0308659
-0.0860445,-0.0300972
-0.0250917,0.0508438
0.0325667,-0.0204686
0.166727,-0.0333319
0.185475,0.0972167
0.0742028,-0.0463144
0.0109746,-0.0170412
-0.0250334,-0.0244638
0.028795,-0.0312301
0.0936426,0.0433128
0.122334,-0.00609513
0.0829642,-0.047343
0.0291594,0.0390501
-0.0354449,-0.0727053
-0.0587956,-0.178373
-0.0015196,-0.0233387
0.0045087,0.0594005
-0.0304996,0.0547638
-0.029651,0.0583677
-0.0390213,0.00633191
0.0355834,0.0554564
0.106558,0.064488
0.0816873,-0.0410368
0.00910275,-0.0623325
-0.0217544,0.0526693
-0.0522887,0.0627381
-0.0663885,-0.01185
-0.0237387,-0.115502
-0.0375384,0.00499958
-0.117724,0.0765719
-0.10279,-0.0205295
0.0251478,-0.0150008
0.218845,-0.000328999
0.272262,0.00455681
0.159852,0.0432775
-0.00233692,0.0823245
-0.143061,0.108872
-0.22664,-0.0465375
-0.246461,-0.114251
-0.185815,-0.000443212
-0.150097,0.00694304
-0.0867077,-0.0384074
0.0163824,-0.0478059
0.065458,-0.0881921
0.136233,0.0371511
0.227146,0.0436645
0.292013,-0.0718308
0.286503,-0.0562734
0.151951,0.0489115
-0.126559,-0.0338359
-0.322606,-0.150356
-0.276355,0.0925103
-0.117379,0.11718
-0.106371,-0.00113242
-0.0712931,0.0172593
-0.0810412,0.0369048
0.0190196,0.0862688
0.22298,0.033984
0.259522,-0.0982368
0.134368,-0.0584427
0.0883698,-0.0381386
0.0751505,-0.0445547
0.00999689,0.0278866
0.0179656,-0.0506608
0.0995609,-0.0464096
0.0749322,-0.0197529
-0.0647791,0.221321
-0.231559,0.186528
-0.243472,0.00728885
-0.126478,-0.00328173
-0.0256843,0.0111249
-0.0158334,-0.0179569
-0.0624488,-0.0255218
-0.116098,0.0132106
-0.0729347,-0.100181
0.10714,-0.0404192
0.187529,-0.00857974
0.147501,-0.0806906
0.114871,-0.0706089
0.101664,0.00385713
0.018317,0.049362
-0.0657376,-0.0257329
-0.160003,0.0252637
-0.140212,-0.0224987
0.0793175,-0.0207945
0.180626,0.0115061
0.105832,0.0516913
-0.0375466,0.0581324
-0.129973,-0.0349764
-0.099747,-0.114882
-0.0797826,-0.0935868
-0.0881901,0.147654
-0.0773022,0.227574
0.0130167,0.0853549
0.0646306,0.00573845
0.0983746,-0.0178658
0.156653,-0.0166542
0.214324,-0.0559127
0.225731,-0.0534304
0.168736,-0.020862
0.0487729,-0.115234
-0.04129,0.00463605
-0.245974,0.1135
-0.432267,-0.0741676
-0.21258,-0.0947435
0.147574,0.0415185
0.11228,0.0658187
-0.0773708,0.043706
-0.205068,-0.0121106
-0.193252,-0.02237
-0.136517,-0.0166067
-0.0332308,-0.00491333
0.0821529,0.0424298
0.173368,0.0664065
0.160139,0.0518726
0.076925,-0.0395728
0.0405031,-0.115566
0.0653284,-0.13397
0.151776,0.0411712
0.163012,0.0253894
0.108007,-0.00992832
0.0417385,-0.0674301
0.0591757,-0.0272483
-0.0352846,0.0489417
-0.0797072,0.0670899
-0.0469396,0.104652
-0.116443,0.0834119
-0.189998,0.0228772
-0.202406,-0.0122828
-0.160831,0.00755431
-0.059842,0.0822518
0.0159588,0.0426466
-0.0333081,-0.0513435
-0.0467579,0.0124531
-0.129918,-0.0310462
-0.0871349,-0.0906195
0.0760471,-0.0150439
0.206116,-0.0106608
0.185369,-0.280526
0.130047,-0.335735
0.118063,-0.21239
0.0644388,-0.0257427
-0.0526919,0.19331
-0.0152567,0.192067
0.0767314,0.143747
0.107436,0.136048
0.0611988,0.00893237
-0.0147778,-0.0794144
-0.0611243,-0.0859188
-0.072345,-0.0475533
-0.0801025,-0.000103435
-0.103722,0.119006
-0.0348772,0.119745
0.00678003,0.114727
0.0402221,0.166237
0.111812,0.0663415
0.0714605,0.0674016
-0.0369164,0.0274773
-0.0948197,-0.00970655
-0.0867349,0.0207002
-0.0742623,0.0087441
-0.0739971,-0.0247109
-0.0225582,-0.0416914
0.0722475,0.00598689
0.120842,-0.0750061
0.220195,-0.0262006
0.238755,-0.0642978
0.211554,-0.101464
0.198301,-0.0264127
0.0905402,-0.147408
-0.0879114,-0.123781
-0.181149,0.0282958
-0.269342,0.0857236
-0.304673,0.0155312
-0.231794,-0.019377
-0.0809863,0.0629726
-0.0207649,0.0758027
0.00244354,0.0383177
0.0361118,0.0388866
0.0850149,0.0095546
0.055045,-0.0335255
0.0372171,-0.0456548
-0.0142789,-0.00783586
-0.137995,-0.0339867
-0.247278,-0.0317629
-0.220045,-0.0281087
-0.0240321,-0.00313221
0.187647,0.0174042
0.272649,-0.0329435
0.190899,0.00601632
0.0808651,0.0262908
-0.016897,-0.0128132
-0.073384,-0.0987965
-0.040481,-0.0715744
0.0190785,0.104159
-0.00206807,0.172403
-0.0503239,0.0381262
-0.021604,-0.00895013
0.0236341,-0.0129416
0.0629241,0.0291686
0.0210468,-0.0537885
0.0418481,-0.01683
0.0872399,-0.00255961
0.0427181,-0.0103038
0.0073434,0.0137394
0.021229,0.00987322
0.022263,-0.00273372
0.00455691,0.00101861
-0.0284863,-0.0366506
-0.046041,-0.0531459
-0.0519283,0.0323298
-0.0517102,0.0967256
-0.0382762,0.00405347
-0.00709472,-0.0751344
0.00920907,-0.0378069
0.00835608,-0.0285422
-0.0181956,-0.0105671
-0.0250056,0.0204365
-0.0174712,0.0242806
-0.0190817,0.0291073
-0.0226763,0.0419588
-0.0198352,0.00800448
-0.0132799,0.0358559
-0.00434698,-0.0278503
0.0322029,-0.0692755
0.0157265,0.0641177
0.000540994,0.00654001
0.0240827,-0.0357734
0.0356431,-0.0193099
0.0469117,-0.0297666
0.0516812,-0.0284292
0.0123836,-0.0284549
-0.0742727,-0.0113386
-0.118925,0.070537
-0.0496147,0.0956953
0.0127757,0.0146984
0.0634831,-0.0277316
0.0806788,-0.0182205
0.0385004,-0.0291339
0.0668953,0.0232923
0.110025,0.0143231
0.08981,-0.00133111
0.0635109,-0.00676376
0.0255904,-0.00596467
-0.0191571,-0.0111772
-0.026646,-0.00897558
-0.00884082,0.000717701
-0.0211032,-0.00443877
-0.0834876,-0.0278302
-0.142495,-0.000417996
-0.147054,0.0314594
-0.130489,0.0386901
-0.0801233,0.00973578
0.025837,0.016829
0.0445005,0.0416055
0.00460448,-0.00961831
0.0165581,-0.0882829
-0.00538337,-0.0759627
0.0415726,-0.00726415
0.0994083,0.0210805
0.0651701,0.0451016
0.0120821,0.0581581
-0.0274766,0.0026279
-0.016494,-0.0731295
0.0173439,-0.0328452
0.0299731,0.0255618
0.0365548,0.0289496
0.029669,0.0306275
-0.0194111,0.00152358
-0.0447362,-0.0427466
-0.0485663,-0.0147405
-0.0584107,0.0173965
-0.0260426,-0.00522886
-0.0183943,-0.0251974
-0.00187188,0.00879658
0.0838224,0.0293065
0.132466,0.0220957
0.0857734,-0.00283949
0.0396915,-0.0083776
0.0245416,0.0211338
-0.00938942,0.0326885
-0.100399,0.0166227
-0.167048,-0.0256603
-0.170378,-0.0177781
-0.105362,0.00900562
0.0239246,-0.00456734
0.121946,0.00603017
0.0974232,0.00162344
0.0556887,-0.0219592
0.0276418,-0.00428731
-0.00293524,-0.00529386
-0.00523739,-0.0308954
-0.00834331,-0.00368204
0.00683723,-0.00392308
0.0376857,-0.0183537
0.0357655,0.00903873
-0.00870119,0.00183769
-0.0591629,-0.0100027
-0.0745911,0.0320639
-0.072002,0.0226561
-0.043945,-0.00580521
0.00582117,-0.0178218
0.0549055,-0.02492
0.0915179,0.00291067
0.0665504,-0.00900042
0.00700574,-0.00498827
-0.0650509,0.0272956
-0.0728827,0.0236481
-0.0443415,-0.0368079
-0.0154745,-0.0251453
0.00404897,0.0421962
0.0206462,0.0467059
0.0500818,0.0298085
0.0537257,-0.018136
0.0378364,-0.0833286
0.0421334,-0.0342577
0.0499504,0.0128613
0.0746678,-0.00778019
0.0820989,-0.0150572
0.049535,-0.00723756
-0.00387373,-0.00668337
-0.0161509,-0.0285952
-0.0144076,-0.0141781
-0.0168112,0.0176451
-0.0246122,0.0454971
-0.0837265,0.0754493
-0.109874,0.107219
-0.0906478,0.035227
-0.0288834,-0.00452233
0.0318724,-0.00921093
0.0485197,-0.0331385
0.0297763,-0.0270553
-0.0201858,0.00333753
-0.0546069,0.0372617
-0.0475807,0.02937
-0.00231771,0.0186045
0.0287015,-0.0109391
0.0157609,-0.0313899
-0.0280527,-0.0502487
-0.0395217,0.00597604
-0.0351743,0.0211546
-0.0349256,-0.0217724
-0.0049526,-0.0531201
0.0165101,-0.0583213
0.011485,-0.0752786
0.00166707,-0.0489593
0.0033819,0.0397149
-0.00260967,0.0134556
0.0216453,0.00633853
0.0213957,0.0578314
0.0346054,0.0330737
0.0965086,-0.0211848
0.0313542,-0.0836101
-0.0124973,-0.0919617
0.0248977,0.0569357
0.0038687,0.0532962
-0.0149919,0.0616409
-0.00449665,0.0952368
-0.0120764,0.0419641
-0.0246141,-0.00143398
-0.0219648,-0.0213433
0.00323658,-0.0285841
0.0323062,-0.00643271
0.0534559,0.0255493
0.0562868,-0.00215245
0.0234291,-0.018004
-0.0133503,0.0335907
-0.0258854,0.0235979
-0.037143,-0.0192388
-0.0226041,-0.026295
0.00879607,-0.0245579
0.0478516,-0.0403043
0.0603379,-0.000727592
0.0441493,0.00563717
-0.00338005,-0.0233762
-0.0561541,-0.00773675
-0.0719622,0.0112588
-0.0737274,0.00537268
-0.0445212,-0.00581327
-0.0357044,-0.0366674
-0.0636484,-0.0224557
-0.0800874,0.0344306
-0.0461379,0.0215867
-0.0206246,-0.00624637
0.015672,0.00728946
0.0247278,0.0274091
0.0322561,0.0191012
0.047316,-0.0136985
0.0316005,-0.0166701
0.0390859,-0.0498499
0.0703893,-0.0159562
0.103771,0.0930559
0.0762161,-0.00884005
0.00892559,-0.0907996
-0.0212014,-0.0171774
-0.0130603,-0.0330765
-0.00917843,0.0262845
-0.0716769,0.0576425
-0.124861,-0.0424314
-0.0633808,0.0121085
0.00429298,0.10865
0.0292522,0.0952263
0.0401759,0.0129013
0.0605189,-0.0487013
0.0523991,-0.0165285
0.0135414,-0.0286968
-0.0216382,-0.0394357
-0.0631192,-0.0124787
-0.0436142,0.0262582
0.0112804,0.00590997
0.0521246,-0.00391034
0.0840044,-0.00501277
0.121153,-0.0283932
0.0716389,-0.0332686
0.00748485,-0.0255866
-0.0297417,0.0126542
-0.0837868,0.0137367
-0.117723,-0.022141
-0.0939238,0.0426759
-0.0668501,0.0908093
-0.0235172,0.00276441
0.00498364,-2.2e-05
-0.0177332,-0.0185237
-0.0385157,0.00983956
-0.046978,0.0166919
-0.0235643,0.0106728
0.0544758,-0.0154894
0.115901,0.00175939
0.0902936,0.0312449
0.0260598,0.0379936
-0.0107614,-0.0335911
-0.00438867,-0.0510424
0.0212773,0.017837
0.0110077,-0.0167304
-0.0103834,-0.0296211
-0.0549687,0.00263866
-0.0651132,-0.00229701
-0.0130953,-0.00840599
0.0162377,0.00839359
0.023963,-0.0327003
0.030403,0.00150008
0.0541456,0.026502
0.0390467,0.0173242
-0.00234765,-0.00708777
-0.0417062,-0.0543856
-0.0748922,-0.0628475
-0.066501,-0.00795124
-0.0331899,0.00971863
-0.0330438,-0.0163692
-0.0309642,0.0116753
0.000202964,0.0274667
0.0369462,-0.0195942
0.0880245,-0.0199732
0.101743,-0.00714469
0.113562,0.0163988
0.086597,-0.00722348
0.0233152,-0.0221459
-0.0124492,0.0127117
-0.0331503,0.0448444
-0.051007,0.0288026
-0.0570349,-0.00407702
-0.0594362,-0.00644905
-0.043015,-0.0249859
-0.0490065,-0.0109636
-0.0563481,0.0258148
-0.0575431,0.0521913
-0.0259346,0.0293296
0.0781048,0.0127655
0.121468,0.0161836
0.0996533,0.00229378
0.055869,0.00485828
0.0224284,0.0115689
-0.00364938,0.00137308
-0.0237075,0.000524803
-0.045083,0.0109359
-0.0656952,-0.0155044
-0.0526095,-0.0307549
-0.00503079,-0.0122022
-0.000587039,-0.0096616
-0.0163201,-0.0109102
0.0143961,-0.00376498
0.0211668,-0.0139445
-0.0544622,-0.0417949
-0.0875474,-0.00206149
-0.0203892,0.0203875
0.0448012,0.00312469
0.051195,-0.0235769
0.0536151,0.0194065
0.0450605,0.0325429
0.01934,-0.0131979
-0.00376345,-0.00680193
-0.0113102,0.00100988
-0.00319309,0.010989
0.00721932,0.0127596
0.00065331,-0.00560285
-0.012712,-0.0253817
-0.020432,-0.0103815
-0.025381,-0.0100838
-0.0235267,-0.0157687
-0.0195781,0.0386617
-0.0166417,0.0410679
-0.0175311,0.0140729
0.0138514,-0.0424851
0.0391364,-0.0671007
0.0410867,-0.0120627
0.0417172,0.0489442
0.0475711,0.0458895
0.0294761,0.0247892
0.0131975,0.0211956
-0.0133765,0.0262995
-0.0311762,-0.00330377
0.00214193,-0.00957296
0.0194019,-0.0170412
-0.011177,-0.0242593
-0.00402311,0.00666144
0.0456928,0.0247389
0.0321083,0.0219944
-0.0201686,-0.0186348
-0.0633091,-0.0472328
-0.12188,-0.0175929
-0.111625,0.0185808
-0.0327055,0.00589638
0.0119372,-0.00880258
0.0103852,0.0013659
0.0141682,0.0150466
0.0148745,0.0150967
0.0198975,0.00985204
0.0188402,-0.0551314
0.0380402,-0.0470006
0.028959,-0.0172839
-0.00731468,0.0296804
-0.0201767,0.0427016
-0.000786429,0.0286215
0.0248457,0.0156526
0.0223011,0.0197173
0.00986319,0.0129972
-0.00297057,-0.00875895
-0.0110845,-0.041913
-0.0161827,-0.0252864
-0.0125028,-0.0277852
0.00439286,-0.0320911
0.0118838,-0.0506999
0.0113694,-0.0154777
0.00987128,0.048668
0.00298318,0.0265803
-0.0108101,0.037
-0.0252231,0.00160782
-0.0322971,0.00500872
-0.0158434,0.00762316
0.0309567,-0.00610373
0.0481749,-0.0285356
0.0180847,-0.0162458
-0.0248389,0.0538949
-0.0467904,0.019028
-0.0243661,-0.0350818
0.0160788,0.00104581
0.00327683,0.0193194
0.003761,-0.0107258
0.0601467,-0.00824385
0.0539459,0.0010937
0.0227913,0.00443305
0.018218,0.00323648
-0.00140212,-0.00400216
0.0108197,-0.000257022
0.0223172,0.0218428
0.017883,0.0236618
-0.00211361,-0.00585936
-0.00481465,-0.0158977
-0.0207386,-0.00248467
-0.0421119,0.00134255
-0.0255989,-0.0124343
-0.00540746,0.0105549
-0.0011798,0.00886665
-0.00322077,0.00184746
-0.0159107,-0.010053
-0.0293974,-0.0109228
-0.00691664,-0.00271638
0.0151571,0.000287588
0.00650099,0.00183719
-0.0142687,-0.0270048
-0.0315965,-0.0943251
-0.0529105,-0.0355418
-0.0512431,0.0551591
-0.03528,0.0617981
-0.0203912,-0.0328184
0.00486584,-0.0813607
0.0428392,-0.00166464
0.047419,0.0658844
0.0286949,0.0564433
0.0124119,0.0302776
0.0292409,0.0301731
0.0738606,0.0258221
0.0708005,0.0284788
0.0289808,0.00113771
-0.0239019,-0.0216047
-0.0452956,-0.0189418
-0.0349565,-0.0305224
0.0147871,-0.0297136
0.0523299,-0.0234918
0.0362004,0.00341057
-0.0119973,0.0414963
-0.0399584,-0.00194857
-0.0284357,0.00974988
-0.00414667,0.0105905
-0.0133356,0.00410312
-0.0296286,0.011184
-0.0267133,-0.00406606
-0.0259632,-0.0219679
-0.0472938,-0.0196644
-0.0688664,0.00185998
-0.058147,0.0402329
-0.0209187,0.0269206
0.035605,0.0077238
0.0848346,-0.00369103
0.0786709,-0.0169333
0.0336177,-0.0470618
-0.0122835,-0.0215979
-0.0243298,-0.017135
0.0126958,-0.0157454
0.0431184,-0.0122758
0.0288338,-0.00582304
0.00681544,0.0179548
-0.0108082,0.00756954
-0.0225887,0.011204
-0.019551,0.0181788
-0.0197328,0.0127842
-0.0221177,-0.00621249
-0.00511692,-0.0154024
0.017422,0.0030217
0.028154,0.000705999
0.0260996,-0.0063303
0.00249292,-0.00374933
-0.0148516,-0.00484152
-0.00333687,-0.00812182
0.01258,-0.00193089
0.0172688,0.0131229
0.0135834,0.0215788
0.00712411,0.0212595
-0.0161019,0.0202466
-0.0377571,0.0156348
-0.0486675,0.00404411
-0.0362527,-0.0263741
0.000185233,-0.01197
0.0278157,-0.00730652
0.033207,-0.0536604
0.029712,-0.0208158
0.00161646,0.0263941
-0.00464576,0.0252971
0.00255936,0.0211416
0.0118161,0.00173008
0.0144311,-0.00281099
0.0177472,0.0235496
0.0120766,0.00807685
-0.0388713,0.00256859
-0.0658933,0.0245788
-0.078193,0.0323697
-0.0422146,0.00918043
0.00375084,-0.0597305
0.0290536,-0.0555202
0.0275502,0.0257259
0.0167453,0.0160403
0.0129135,-0.102957
0.0290827,-0.0198561
0.0249696,-0.0421419
0.0194123,0.00345765
0.0223963,0.0238777
0.0315514,-0.00658322
0.00910976,0.0429611
-0.00709216,0.031626
-0.00303016,0.0374713
0.0196387,0.045407
0.0262329,0.00296091
0.0158674,-0.0268349
-0.0130675,-0.0403951
-0.0567433,-1.73e-05
-0.0604841,0.0645089
-0.0284806,0.0248041
0.00437123,-0.00517921
0.00732965,-0.00558373
-0.00341015,-0.00143375
-0.00680707,0.00761471
-0.00248052,0.0110568
0.00216256,0.00115242
0.00901392,-0.0121409
0.0110405,-0.0145747
0.00316299,-0.0147851
-0.00105387,-0.0164364
0.00756228,-0.0153424
0.00764184,-0.00762649
-0.00537273,-0.00217559
-0.0124497,-0.000850988
-0.0108964,0.00460228
-0.00244504,-0.00119351
0.00751687,-0.0138574
-0.00214101,-0.0246279
-0.0152704,-0.0226979
-0.0249252,0.00381672
-0.0259163,0.00308547
-0.0420575,-0.001241
-0.00441709,0.00441498
0.0839615,0.0140892
0.144682,0.0186106
0.152285,0.000938364
0.078319,-0.0141524
0.00278619,-0.00598995
-0.0466948,0.0479323
-0.0661763,0.0517004
-0.0636929,0.0220097
-0.0484044,-0.0268713
-0.034937,-0.0600901
-0.0612824,-0.0520149
-0.0954143,-0.0290207
-0.0604365,-0.0255576
-0.0220566,-0.0188571
0.008281,0.0122541
0.0089761,0.0174042
-0.00789553,0.0141456
0.0119185,0.0311609
0.0182705,0.0393263
-0.00476064,0.0350951
-0.0318259,0.0251557
-0.0149964,0.0150686
0.0238789,0.0242119
0.0696924,0.0162509
0.0643615,-0.0523469
0.0409898,-0.0539229
0.0253703,0.00198058
0.0129777,0.00439972
-0.0002024,-0.011755
-0.00368864,-0.00125369
-0.00455127,9.88e-05
-0.00531162,-0.000201075
-0.0114575,-0.0110504
-0.0104662,-0.012776
0.00222464,0.0295216
0.022788,0.0197285
0.0383371,0.00898814
0.0254408,-0.0207315
-0.0287409,-8.09e-05
-0.0590133,0.00653037
-0.0274376,-0.00596181
-0.0030662,0.012597
0.0225434,0.013725
0.0530077,-0.00814576
0.0350186,-0.0332024
-0.0158958,0.00285211
-0.0619727,0.0286507
-0.072253,0.0256547
-0.0458145,-0.00381681
-0.00433756,-0.00789042
0.0303415,0.00245941
0.0456098,0.0148018
0.0197738,-0.0366327
0.00301309,-0.0447044
-0.00582008,-0.0361366
-0.0170119,-0.0238411
-0.00874165,0.00645894
-0.0165913,0.00982333
-0.0179566,0.0162491
-0.00137119,0.0363972
0.00469005,0.0388144
0.00775626,0.0269152
0.0357808,0.0172927
0.0216639,0.0128878
-0.016461,0.00842362
-0.0261721,-0.00147036
-0.0127926,-0.00999992
0.00454428,-0.0322797
-0.00558037,-0.0208506
0.0123931,0.0110645
0.0282266,-0.00297724
0.0250681,-0.039212
0.017995,-0.0488781
0.0291658,-0.038524
0.0561121,0.0104901
0.0514067,0.0508563
0.0227225,0.0188605
-0.0137116,0.0133403
-0.0384898,0.0287103
-0.0286437,0.0232703
-0.00578558,0.0208485
-0.0082805,0.00715851
-0.0267536,-0.0502274
-0.0378418,-0.0737354
-0.0390883,-0.0345055
-0.0431387,0.0339114
-0.0154348,0.0667489
0.00782581,-0.00749662
0.0113473,-0.0138127
0.00763228,0.019021
-0.00669243,0.0312188
-0.00193293,0.00872977
0.0302742,0.0027572
0.0450042,-0.00595141
0.0311133,-0.00132893
-0.0240486,0.00761611
-0.0619534,-0.0184517
-0.0440119,0.00554999
0.00279544,3.61e-05
0.0258402,-0.047158
0.0176173,-0.0612743
-0.00952237,-0.0296179
-0.0143882,0.0466178
-0.0124526,0.0105367
0.00179519,-0.00864174
0.0174503,0.0226005
0.0195368,0.0227149
0.0160254,-0.0169347
-0.0184997,0.0115956
-0.0507618,-0.0248081
-0.0506686,-0.0454129
-0.0277607,0.00373218
0.0126604,0.0246926
0.0497552,0.00717004
0.0599229,0.0346103
0.0586812,0.0434156
0.0433711,-0.0330843
0.0154161,-0.0733396
0.0260494,-0.0432381
0.0129445,-0.000648993
-0.0212915,-0.00705384
-0.0298018,0.0185001
-0.0216234,0.0181224
0.00428585,0.0110839
0.0161364,0.0559572
0.0258917,0.0725005
-0.0170901,0.0632375
-0.0572756,0.0461432
-0.0187753,0.0156711
0.0143823,-0.00978264
-0.000180004,-0.039917
-0.00379901,-0.0357798
-0.00447806,-0.0278422
-0.00883902,-0.0393383
-0.020587,0.0156074
-0.0237204,0.0447702
-0.0101467,-0.0134772
0.00326428,-0.0223456
0.0115891,-0.028479
0.00791036,-0.0331765
0.0158307,-0.0343179
0.00918927,-0.0387417
-0.00485078,-0.0281439
-0.01739,0.00832395
-0.00259626,0.0460995
0.010414,0.0469846
0.0180866,0.024282
0.00958915,0.0156125
-0.0038357,-0.00503287
0.0254874,-0.0171433
0.0585461,0.00451244
0.0550199,0.0375245
0.0149027,0.0177162
-0.0349089,0.00223644
-0.0391381,-0.0415502
-0.0266335,-0.0327942
-0.00183451,-0.00147283
0.0284155,-0.00511002
0.0277047,-0.0202949
-0.0038902,-0.0061071
-0.0475853,0.0171351
-0.0631358,-0.0061579
-0.0676268,-0.0138295
-0.056381,-0.00328295
-0.0295491,-0.00316151
-0.0110776,0.00182146
-0.00337933,0.0169922
0.00332805,-0.020454
-0.00297631,-0.0577745
-0.00487348,-0.0224244
0.0130358,0.058616
0.0324931,0.0746138
0.038194,0.0323042
0.0193688,0.00323751
0.0148382,-0.00709055
0.0271776,-0.00964745
0.0344358,0.00381741
0.0310876,0.0105564
0.0257255,0.00801262
0.0185541,0.00383548
0.00176574,0.00368691
-0.0173288,0.00126284
-0.00552094,-0.0157573
0.041534,-0.0338586
0.0595321,0.00906617
0.0262517,-0.00314535
-0.0239412,0.00971236
-0.0575763,0.0259105
-0.031195,0.0169446
-0.018074,-0.00649901
-0.0107632,-0.0301288
0.00355032,0.00586124
-0.0216927,-0.0493594
-0.045214,-0.0564081
-0.0401231,-0.00849225
-0.0167778,-0.024078
-0.0162112,-0.0486491
-0.0140508,0.00206236
-0.00565661,-0.00112615
0.0096713,-0.128186
0.0301052,-0.122732
0.030789,0.0522997
0.00144879,0.112068
-0.00551581,0.0522583
0.0106719,0.0115079
0.0188059,0.0510353
0.0100793,0.121963
0.0232188,0.0776011
0.0388439,0.0548869
0.0240148,0.0525091
0.0010187,0.0455941
-0.0242375,0.0367089
-0.0375995,0.020536
-0.0244111,0.00579263
-0.0111615,-0.00096435
-0.00478871,0.00158616
0.00141897,-0.00593197
0.00644908,-0.0232497
0.00600923,-0.0382317
0.00204309,-0.0471735
0.0167347,-0.0409541
0.0202413,-0.0295774
-0.0108871,-0.023405
-0.0394999,-0.0323014
-0.0385518,-0.0412539
-0.0153009,-0.0379358
0.00831442,-0.0232887
0.026384,-0.0121043
0.0276458,-0.00701122
0.0450753,-0.00101314
0.0587401,-0.000979704
0.0374782,0.00994471
-0.0169973,0.0115572
-0.0783417,-0.00354643
-0.117089,-0.00689382
-0.0669223,0.0190873
0.0549547,-0.000191183
0.154454,-0.0258876
0.140847,-0.0550698
0.036374,-0.0180884
-0.0463034,0.029892
-0.0758358,0.0118659
-0.0555195,-0.0239456
-0.0281669,-0.0453099
-0.02327,-0.025392
-0.024758,0.0331844
-0.0188335,0.0119331
-0.0147904,-0.0187207
-0.0125018,0.0465292
0.00781498,0.0900404
0.0310952,0.0789179
0.012698,0.0524729
-0.0122088,-0.0281686
-0.0166831,-0.0163649
-0.0275808,0.028389
-0.0294361,-0.0212901
-0.00194147,-0.00257675
0.016455,-0.0270361
0.0126326,-0.0330174
-0.00427407,-0.0111358
-0.00103651,0.0120167
0.0181323,0.0252468
0.0302511,0.0293555
0.0248727,0.021826
0.0119162,0.0153181
0.00310514,0.0101121
-0.00277044,-0.0164737
-0.00893938,-0.0414587
-0.0105353,-0.0413284
-0.0183562,-0.0387
-0.0185257,-0.0334971
-0.0182849,-0.0214264
-0.0156192,-0.0117065
0.000680846,-0.00419312
0.0143267,0.0313689
0.0181581,0.0484489
0.0443991,0.0445582
0.0595175,0.012862
0.0487207,-0.0105327
0.0526374,-0.0152845
0.0487904,0.0294485
0.0104206,0.0413012
-0.0094753,0.0245412
-0.00636242,0.025488
-0.0178172,0.0104279
-0.0352173,0.011038
-0.0569176,-0.0708454
-0.0650452,-0.12975
-0.0509162,-0.0375429
-0.0645177,-0.038607
-0.0487785,-0.0866175
-0.0097786,-0.0627383
0.00839821,0.0173021
0.0185715,0.105035
0.0272465,0.096759
0.0366559,0.0901962
0.0335058,0.0577085
0.0318904,0.0346535
0.0373061,0.0251433
0.0248447,0.00824399
0.00140757,-0.00158712
-0.0101865,-0.00675878
-0.017822,-0.0255483
-0.0263244,-0.029572
-0.0173568,-0.0215566
-0.00738778,-0.0180712
-0.0146909,-0.0333075
-0.0127481,-0.0201366
-0.00540317,0.0366547
-0.00280617,0.007201
-0.00596732,-0.0190303
-0.00868212,-0.0289559
-0.0100853,-0.0204647
-0.0128873,-0.0546151
-0.0177551,-0.0404267
-0.00564824,0.0448831
0.0231959,0.0337272
0.0244261,0.0244236
0.000574934,0.026871
-0.0569172,-0.0141966
-0.0404186,0.0137989
0.0397512,0.0102132
0.0828357,0.00363935
0.069838,0.0110646
0.0554103,-0.000298967
0.0422654,-0.0474053
0.00634483,-0.0322064
-0.026968,-0.00232426
-0.0298919,0.0114785
-0.0275872,-0.0055182
-0.0330537,-0.000865999
-0.0352595,-0.00305214
-0.0155289,0.0024317
0.00810632,0.0104568
0.00329423,-0.0216289
0.0204851,-0.00238788
0.0155394,0.0745118
-0.0197652,0.0367805
-0.029819,0.0238788
-0.0187497,0.0378088
-0.00684692,-0.0365852
-0.00203586,-0.101569
0.0117171,-0.0873863
0.0466178,0.00530406
0.0541752,0.0488305
0.0413002,0.0160113
0.0203891,0.0195528
0.0155087,-0.00274181
0.0113242,-0.0138627
-0.00600011,0.000268762
-0.0329558,0.0293923
-0.0361661,0.0285069
-0.0383073,0.0262067
-0.0441703,0.0283222
-0.0263429,0.0113086
0.000604255,0.0110612
0.00835511,0.010492
-0.00598071,-0.00235288
-0.0194485,-0.0140341
-0.0310841,-0.016379
-0.0211679,-0.0175387
0.0130943,-0.0227199
0.0312934,-0.0200931
0.0279318,-0.017523
0.0322877,-0.0109806
0.0360786,-0.00387273
0.0211464,-0.0126094
0.00847566,-0.0195248
-0.011694,-0.0107615
-0.0335334,-0.0032547
-0.0290139,0.00541508
-0.025433,0.00832243
-0.0217054,0.0114737
-0.00507816,0.0044183
0.00977838,0.0164139
0.0312261,0.0296778
0.0293022,0.00478284
0.0107106,-0.0322334
-0.0150171,-0.0447281
-0.00888334,-0.0274048
-0.0218009,-0.00325871
-0.060034,0.0382287
-0.0652378,0.0356048
-0.0171867,-0.0283561
0.0345404,-0.00108742
0.0585409,0.0153634
0.0554599,-0.00944687
0.0425223,0.00860676
0.0199103,0.0552033
-0.00414225,0.0335065
0.000853239,-0.0135873
0.0119491,-0.0236341
0.00156361,-0.0338413
-0.00363177,-0.0236426
0.0040511,-0.0172129
0.0265004,-0.0243016
0.024958,-0.0652166
-0.00650824,-0.0398543
-0.0354082,0.0292127
-0.0293857,0.089809
-0.00227701,0.089858
0.00931612,0.0307483
-0.00637399,0.0336798
-0.0317466,0.00136569
-0.0402089,-0.00410972
-0.0210284,0.0194345
0.0124579,0.00227832
0.0195513,-0.0102824
0.0144966,0.0126098
0.0060774,0.0063266
-0.00307553,-0.0179828
-0.00334166,-0.0258454
0.00138841,-0.0217016
0.0158728,-0.0199109
0.0224002,-0.023774
0.0133676,-0.029617
0.0044649,-0.0443688
-0.0201697,-0.00935039
-0.0162177,0.0672122
0.00284836,0.0409107
0.038344,0.0112345
0.0711558,-0.00522037
0.0434374,-0.0384327
-0.00162734,-0.0389513
-0.00738018,-0.0228741
-0.0120756,0.00117086
-0.0325468,-0.0180912
-0.059606,-0.0209133
-0.0840115,0.0598321
-0.0834892,0.0554009
-0.033487,0.0392625
0.00567374,0.0311389
0.0214847,-0.0706137
0.0178173,-0.0687964
0.00551009,-0.0494925
0.00521815,-0.0242238
0.0211219,0.00627508
0.0238217,0.0264829
0.0013994,0.0439565
-0.0280241,0.0463894
-0.0407836,0.026346
-0.00875313,0.014165
0.0292284,0.0213669
0.043809,-0.00299077
0.0487151,-0.00984617
0.0515358,-0.00787411
0.0397181,-0.010739
0.0160916,0.00385767
-0.0139577,-0.00203406
-0.0247635,-0.0434415
-0.0363107,-0.00611005
-0.0514121,0.057198
-0.0493753,0.0115225
-0.0375211,-0.0175661
-0.0028646,-0.0092104
0.0408226,0.0208453
0.0689026,0.0303531
0.065486,0.00596406
0.0476286,0.00674818
0.0248432,0.0029053
-0.0262401,-0.0248511
-0.0456416,-0.0278448
-0.0201277,-0.027163
-0.0134366,-0.0191428
-0.0193042,0.00510296
-0.0275088,0.00369583
-0.0263588,-0.0067071
-0.00768194,-0.0153734
-0.00421432,-0.0260182
0.00937512,-0.00786345
0.0111326,0.038741
-0.00636436,-0.0309071
-0.00882989,-0.0202664
0.0232317,0.0321449
0.0144036,0.0112292
0.00448567,0.00187241
0.019001,0.0260258
0.00348193,0.00335486
-0.00850989,-0.0234209
0.000317356,-0.0315564
0.0344796,0.0099135
0.0328148,0.0154353
0.02882,0.0199991
0.021336,-0.0129465
-0.0147049,-0.0323341
-0.0261187,0.000599862
-0.0114545,0.00230635
-0.018757,-0.00329763
-0.0259832,0.0400081
-0.012514,0.043355
-0.0060881,-0.00174219
-0.0165984,-0.00833226
-0.0207806,0.00516667
-0.0355334,0.001094
-0.0287209,0.000705335
-0.0195869,-0.00408717
-0.00685804,-0.0119778
0.0148354,-0.0144987
0.0243251,-0.00743531
0.017178,0.0150923
-0.00125352,0.053562
0.00140496,0.0265514
0.0415233,-0.013717
0.0544445,-0.01691
0.0375838,-0.0523322
0.021055,-0.0430315
-0.0209725,-0.0437183
-0.0150426,0.00155885
0.025138,0.0127394
-0.00244271,0.0337019
-0.0372902,0.028247
-0.0512634,0.0226344
-0.0840244,-0.0155091
-0.078329,-0.0598019
-0.0145312,0.0300476
0.0255032,0.0790153
0.0528979,-0.021906
0.0603776,-0.0347462
0.049721,-0.0120854
0.0639563,-0.00771485
0.0502162,-0.0116471
0.019613,-0.0204565
0.0103361,-0.0226017
0.00854307,0.00557605
-0.0128131,0.0433505
-0.0532451,0.00714145
-0.0540824,-0.00161457
-0.0324411,0.0401649
-0.0321148,0.0355004
-0.0279965,0.0116835
0.00598003,0.0118172
0.038342,-0.00166052
0.0657633,0.00446617
0.0549045,0.00395503
0.00313891,-0.0201434
-0.0440084,-0.0583835
-0.0578511,-0.0798639
-0.0547344,-0.0536584
-0.0210906,0.0340959
0.0131221,0.0727394
0.0247812,0.0580021
0.0249178,0.0237762
0.019757,0.0162594
0.0265644,-0.014795
0.0297176,0.0178579
0.00748993,-0.00101365
-0.0241908,-0.0280008
-0.0546897,-0.0237145
-0.080955,-0.0370372
-0.0923143,-0.0424478
-0.0530432,0.00443656
-0.0290336,-0.0162674
-0.0116574,-0.0458648
0.0409078,-0.024183
0.103738,0.0569683
0.122435,0.0248338
0.0991299,0.0329151
0.0598826,0.0416502
0.0208149,0.0390776
-0.0186448,-0.0236525
-0.0414765,-0.0261169
-0.0377853,0.00518644
-0.0372085,-0.015283
-0.0120455,-0.0171977
0.0242627,0.0421295
0.0312612,0.034205
0.0012986,0.0271255
-0.0141688,0.00974359
-0.0105924,-0.00462551
-0.0135198,-0.00823975
-0.0347097,-0.0180809
-0.0553323,-0.0213836
-0.0519532,0.00300171
-0.0338332,-0.00558659
-0.00215166,-0.00705357
0.00910804,-0.00642056
0.0107829,-0.0131195
0.0163158,-0.0170471
0.0274573,-0.00537842
0.0593751,-0.00317816
0.073859,0.00672066
0.0606059,0.023618
0.051768,-0.0287551
0.0363232,-0.0459523
-0.017685,-0.00988534
-0.0522462,-0.0143021
-0.0591261,-0.0123022
-0.0472855,0.00882619
-0.0457314,0.0035419
-0.0414935,0.0147033
-0.0370225,0.0792383
-0.0380467,0.0264409
-0.0206341,-0.00548649
0.0198194,-0.00616075
0.0543449,-0.00507066
0.062114,0.0186217
0.0510337,0.011135
0.00668157,-0.00818089
-0.0374022,-0.00928904
-0.0484036,-0.024738
-0.00688138,-0.0322643
0.031802,0.0131342
0.0170278,0.00692089
-0.0203928,-0.0252371
-0.0496997,0.0291258
-0.0216174,0.026836
0.011722,0.0132217
0.0142811,-0.013673
-0.0133155,-0.0115222
-0.037213,-0.00704157
-0.0259027,-0.0278453
0.0201863,-0.0600591
0.0486871,-0.103232
0.0543003,-0.0125723
0.0601733,0.133054
0.0522574,0.0585328
0.0549981,0.0331592
0.0237725,0.0384335
-0.0184778,-0.0224579
-0.0180755,0.00182499
-0.0157408,-0.0149628
-0.00894382,-0.00399508
-0.024287,-0.0139104
-0.0492228,-0.0045106
-0.0499388,-0.00262015
-0.0347518,-0.0106124
-0.0253805,0.0147057
-0.00120394,-0.00999703
0.011761,-0.0167266
0.0208235,0.006861
0.0102754,0.0499001
-0.0196969,0.0403973
-0.0323643,-0.00181462
-0.00777815,-0.0162186
0.0287853,-0.0210649
0.0663757,-0.00971406
0.0763797,0.00412382
0.0563069,0.0252971
0.00337282,-0.0107517
-0.0513908,-0.00976879
-0.0514945,-0.0140858
-0.0206784,-0.0497719
-0.0182314,-0.0289953
-0.0407524,0.00778719
-0.0375693,-0.00364749
-0.0291577,0.00988156
-0.0323716,0.019312
-0.0219515,-0.0122437
0.00318186,0.00147352
0.0299255,0.0310049
0.0416347,0.0126318
0.0138878,-0.00130259
-0.0162894,-0.0397323
-0.00526546,-0.0448659
0.00384426,-0.0340148
0.00552621,0.00512558
0.00475584,0.0536625
0.0100095,0.0477117
0.0243567,0.0164032
0.0394378,-0.0222545
0.0496858,-0.0140404
0.0462159,0.0203838
0.0413259,0.0227696
0.0119959,-0.0114747
-0.0202076,-0.00322703
-0.0260044,0.01945
-0.0216398,-0.0105378
-0.0146763,-0.0286723
0.0177162,-0.013797
0.019023,-0.00140434
0.00801573,0.00928982
-0.0110575,0.0212129
-0.055836,0.0105334
-0.0702254,-0.00228533
-0.0201749,-0.00780856
0.00543063,0.0251099
-0.00747748,0.00301832
-0.0220423,-0.0277021
-0.00224992,-0.0400805
0.00760917,-0.0317003
0.0208929,0.00462797
0.0235808,0.0160425
0.026685,0.0171263
0.0292742,0.0182069
0.0352582,0.0229235
0.0109915,0.0305663
-0.0118726,-0.00491531
-0.0177175,-0.0288396
-0.0184999,-0.0217926
-0.0289153,0.0178123
-0.0133181,0.0072705
-0.00313745,0.00409598
0.0223909,0.048191
0.0284153,-0.0109682
0.00280856,-0.0180647
-0.0279178,0.0249616
-0.0598653,-0.00493866
-0.0658099,-0.0135908
-0.0343573,-0.00996621
0.0313691,-0.0186543
0.0659928,-0.0103912
0.0605412,-0.00731374
0.0315659,-0.0115212
-0.00977059,-0.0122891
-0.0289817,-0.010021
-0.00951415,0.00521948
0.00682952,0.0131404
0.00390554,-0.00278967
-0.000700173,0.00681252
0.00595563,0.0313694
0.0151774,0.000111295
0.0070769,-0.0231282
-0.0102,-0.00310745
-0.0131602,0.00610953
-0.005062,0.0225351
-0.0235326,0.0179422
-0.0381274,-0.00677436
-0.0265038,-0.00864852
-0.00469416,-0.00455477
0.0160593,-0.0146824
0.0265805,-0.0073118
0.0168172,0.03566
-0.0103322,0.00366307
-0.0207806,-0.0424128
-0.0248784,-0.0383384
0.0237119,0.014174
0.0581856,0.00815586
0.0458557,-0.0166792
0.0265076,-0.0316153
0.020975,-0.0254006
-0.0032716,0.0110106
-0.0188716,0.0415553
0.00313864,0.0371118
0.0336915,-0.025516
0.0301681,-0.0119348
0.014162,0.00880641
-0.00515394,0.0200855
-0.0403642,0.00738326
-0.0612486,0.00714025
-0.0500001,0.00799612
-0.0430043,-0.0344497
-0.0342259,-0.00578012
-0.0235908,-0.000118233
-0.0062201,0.017078
0.0343868,0.00724902
0.0585599,-0.00350992
0.0683423,0.00996611
0.0264614,0.0262418
-0.0321757,0.0213728
-0.0590874,0.00807572
-0.0325427,0.00300556
-0.002147,-0.00760253
-0.00167297,-0.00725809
0.0323661,0.00473338
0.0545718,0.00630046
0.0377483,-0.000663532
0.00686483,-0.00012975
-0.00109913,0.00549775
-0.00896441,-0.0169036
-0.0270779,-0.0448758
-0.0287308,-0.0359532
-0.0247955,0.00154435
-0.0257627,0.0327799
-0.0302862,0.0185585
-0.0228179,0.00906536
-0.0123707,-0.0137433
-0.00937414,-0.0331972
-0.0145514,-0.000612779
0.0084435,-0.00217371
0.042128,0.0303441
0.042967,0.0127323
0.0338672,-0.000973101
0.029434,0.00769144
0.0212395,0.02548
0.00505199,0.0157569
-0.0118395,-0.0372428
-0.0341939,-0.0300464
-0.0383647,-0.0221787
-0.0253393,0.00776789
-0.00371613,-0.010064
0.0101187,0.00556312
0.0132368,0.0316028
0.0143119,-0.00477183
0.00530475,0.0177675
-0.00337393,-0.00692431
-0.004355,-0.0124979
-0.00348258,-0.0170846
0.00454999,0.00698608
0.020434,0.0381197
0.0265345,0.00166321
0.0144262,-0.0139255
-0.00015223,0.0081958
0.00300501,-0.00785872
0.036682,-0.0273041
0.0646291,-0.00878707
0.0606159,-0.0128077
0.0324002,-0.00756902
-0.00915068,0.00941531
-0.0371842,0.014368
-0.067559,0.0100241
-0.0824004,0.0037281
-0.0684235,-0.00471611
-0.0427696,-0.004813
-0.0232829,-0.00572098
-0.0100279,0.00468051
-0.00707004,0.0174772
0.00569074,-0.00228535
0.0192834,-0.017938
0.0297359,0.0111079
0.0126369,-0.017797
-0.0391533,-0.0145738
-0.0693121,0.0117326
-0.0575358,0.0217742
-0.00936468,0.00231601
0.0349632,-0.0214386
0.0671032,0.00573604
0.0768019,0.0282892
0.0524619,-0.00275216
0.0368003,-0.0265478
0.031113,-0.0239823
0.00689349,-0.0168322
-0.0277536,0.0401597
-0.0224038,0.0490507
0.0101385,-0.0140438
0.0165706,-0.00589024
0.0215866,-0.00399447
0.0300416,-0.00355745
0.014899,0.00704382
0.0224586,-0.000236631
0.0114894,0.00281792
-0.0238153,0.00855631
-0.0592606,0.00420546
-0.0735751,-0.00653388
-0.0550666,-0.00907674
-0.0433668,-0.00760101
-0.031233,-0.029066
-0.0118205,0.00179654
0.0207251,0.0325594
0.0376581,0.0340019
0.0376925,-0.00218049
0.0260143,-0.0324286
0.019751,0.0105971
0.00764558,0.0125557
-0.00526065,0.0031178
-0.0231393,-0.0476051
-0.0139642,-0.0361796
0.00387918,0.01674
0.0257521,0.0472729
0.0512145,0.0133108
0.0422119,-0.0224337
0.00982267,-0.000908598
-0.0245199,0.00392691
-0.0397994,-0.012661
-0.0345189,-0.00666274
-0.02185,-0.00828206
5.1e-05,0.00247481
-0.00208159,0.0209298
-0.000909539,0.00985343
-0.000817932,0.00500267
0.00457102,0.0192897
0.00343705,-0.0204161
-0.0124689,-0.0287082
-0.0124724,-0.0149522
-0.0110171,0.000429665
-0.0118421,0.000103958
0.00923191,-0.00362574
0.010889,0.00015613
-0.00199505,-0.0161952
-0.0124728,0.0128075
-0.0189926,0.0312865
-0.0269338,0.0107178
0.00146937,0.0406879
0.0689088,0.0472011
0.111541,0.0113754
0.105768,-0.0278684
0.0691393,-0.0409724
0.00507666,-0.0506323
-0.0707697,-0.021675
-0.118523,0.0103323
-0.0892124,0.0118616
-0.0486927,0.0242087
-0.0253001,0.0164869
-0.0038628,-0.0130693
0.0190708,-0.0187834
0.0207807,-0.0084524
0.00316748,0.00308013
-0.0169968,-0.0322594
-0.0189074,-0.0117157
-0.00796665,0.0436077
0.00713362,0.0431688
-0.00275573,0.019127
-0.00831574,-0.0192597
0.0132986,-0.026126
0.00728773,-0.037084
0.0167031,-0.0531575
0.0686591,0.0025224
0.104446,0.0340049
0.0738151,0.0162477
0.0179946,-0.00561815
-5.41e-05,-0.00894379
-0.0354832,-0.00304408
-0.0586636,0.000834337
-0.0443041,0.00767833
-0.0379688,0.0152362
-0.021757,0.0427926
-0.00732176,0.0114235
-0.0220397,0.00727541
-0.0403789,0.010577
-0.0255598,-0.00338977
-0.0132459,-0.0191536
0.0015445,-0.000925165
0.0103656,0.0190842
0.0199243,-0.00823846
0.0219173,-0.0112585
0.0115712,-0.006325
0.00400871,0.00585721
0.0161109,-0.00307497
0.035819,-0.0364564
0.0400947,-0.00892632
0.0327183,-0.000745837
0.0155582,-0.00254031
-0.00867956,-0.0256287
-0.0333077,0.00566962
-0.0546076,0.0327383
-0.0312899,0.0421545
-0.00969081,-0.00684769
-0.0155904,-0.0246455
-0.00549886,-0.00993798
-0.00312868,0.0103881
-0.00338212,0.0232259
-0.00509498,0.0147393
-0.00679035,-0.00901047
0.00484413,-0.0200993
0.0193729,-0.0538792
0.0233388,-0.0113669
0.0238516,0.0335404
0.052637,-0.0151673
0.0468766,-0.030411
0.0227305,0.0251826
-0.00664243,0.0181405
-0.0383208,0.0120311
-0.0463811,0.00920886
-0.00331638,-0.0240218
0.0395651,-0.0289416
-0.0197959,-0.0154096
-0.0488539,0.0435375
-0.0374961,0.069787
-0.0170059,-0.00202882
-0.0011501,-0.0125464
0.00885118,0.0177725
0.00555014,-0.00628862
-8.34e-05,-0.0108514
0.0204199,-0.00720886
0.0239034,-0.00401077
0.0220506,0.0178878
0.0264117,0.021431
0.00530018,0.00233459
-0.0203721,-0.00954267
-0.0425026,-0.0121101
-0.0449765,-0.000409035
-0.0260598,-0.0082285
0.021333,-0.00203571
0.0560387,0.0418155
0.0278933,0.0230757
-0.0228348,-0.00205295
-0.0505128,-0.0372214
-0.0518511,-0.0564757
-0.0242524,-0.0417374
0.00232978,-0.0216047
0.0195835,-0.0316827
0.0414225,0.0455235
0.0514947,0.0742053
0.0569112,0.00177235
0.0464987,-0.0229496
0.0373474,-0.00825142
0.0082062,-0.0306698
-0.036192,0.00381727
-0.0550217,0.00863759
-0.0441095,-0.00764881
-0.0123473,-0.00569156
-0.00201253,-0.0034945
-0.010846,0.012133
-0.00383961,0.038352
-0.013594,0.0182304
-0.0246068,0.00943839
-0.0171034,-0.0211997
0.00229879,-0.00810767
0.00422447,0.0124053
0.0151557,-0.0510138
0.0407435,-0.0133358
0.0527934,0.0505113
0.0450138,0.032595
0.0147441,0.009025
-0.00394463,-0.0173713
-0.0250171,-0.00649187
-0.0312876,-0.00535223
-0.0161102,-0.00879384
-0.00494404,0.00625431
0.00252038,0.00651995
0.0126894,-0.00162901
0.0133523,-0.00807153
-0.00561609,-0.0201349
-0.0208075,-0.0132086
-0.0284008,0.00427297
-0.0319255,0.0122773
-0.0348768,0.00148187
-0.0333092,0.00318297
-0.0175013,-0.00803558
0.00483632,-0.00748898
0.0224775,0.00705061
0.0227438,-0.0212838
0.0246759,0.00271675
0.0264897,0.0129799
0.00673199,-0.0060133
-0.0219534,0.0302901
-0.0100089,0.0158464
0.0335466,-0.0008234
0.0604855,0.00678247
0.0611806,-0.00630985
0.0390884,-0.0223953
-0.00332226,-0.017769
-0.0136354,0.000159213
-0.0274659,0.0145766
-0.0741771,-0.000945734
-0.0898045,0.0142945
-0.0339238,0.0387346
0.0106035,-0.0105212
0.0430442,-0.0251838
0.0745154,-0.0167934
0.071931,0.00310653
0.0384275,0.0156065
-0.0188243,0.00710931
-0.0391875,0.00510349
-0.0303216,-0.0216686
-0.00602564,0.00307311
0.00795913,0.00546524
-0.00745196,-0.00957515
-0.0223728,0.0190932
-0.0313344,0.00752573
-0.0209745,0.0115886
-0.0105074,0.00576966
0.0019881,-0.0136207
0.0200718,-0.0143769
0.0213768,-0.0154805
0.0119621,0.00914672
-0.0112083,-0.0105712
-0.024685,-0.0106156
-0.0222521,0.00320683
-0.0163542,0.00770772
0.000824903,0.0107963
0.0101735,-0.00029424
-0.0107308,-0.0207579
0.00699735,-0.0170447
0.0346743,-0.00734447
0.0356648,-0.00110203
0.0188284,0.00760783
-0.0182251,0.0111875
-0.0412281,0.0198273
-0.0411479,-0.0106707
-0.0158167,-0.0142971
0.0131965,-0.00691551
0.0199815,-0.0195367
0.0124257,-0.0161051
0.00986502,0.0220522
0.00234695,-0.00519421
0.0049352,0.0762162
0.0118676,0.0380851
-0.00219221,-0.0574397
-0.0152979,-0.0293177
0.00396521,-0.0143494
0.029966,-0.0157101
0.0308775,0.0260203
0.0149288,0.0193318
-0.00728768,-0.00819155
-0.00986917,0.00532088
-0.00697664,-0.00550711
-0.00427176,-0.0298191
0.00637791,0.00613457
0.00138214,0.00830419
-0.0119276,-7.2e-05
-0.0137109,0.0256313
-0.0106444,0.050005
0.00464286,0.010845
0.00421207,-0.0192345
-0.00331127,-0.00740688
0.024252,-0.00739529
0.0291176,-0.00840706
0.0160535,-0.0107076
-0.00546583,0.00949211
-0.0399657,0.0175444
-0.048957,0.00761641
-0.0194886,-0.00335828
-0.00227877,-0.0210488
0.00546187,-0.0233865
0.00473237,-0.0388765
0.0058549,0.00387235
-0.00294907,0.0157433
-0.00826686,0.0238972
-0.00164332,0.0243234
0.0064485,0.000340814
0.0106649,-0.0159937
0.0179838,-0.00189024
0.0410499,-0.00483824
0.0603669,-0.00700689
0.0372981,-0.00301343
-0.0152137,-0.00195039
-0.0692877,-0.0262986
-0.0859639,-0.0426294
-0.0830049,0.00868534
-0.0778895,0.0295731
-0.0448863,0.00632792
0.0160929,0.00382325
0.0580716,0.0672639
0.0602427,0.0469336
0.0535908,-0.0265816
0.0436001,-0.00354269
0.0342399,0.000150945
0.011349,-0.0152907
-0.00618058,-0.0118379
-0.0130556,0.00141967
-0.0132482,-0.00932425
-0.00753584,0.000333981
-0.0160521,0.0139433
-0.00891367,0.00630606
0.00986215,-0.00714839
0.0278284,-0.00755091
0.0277817,0.00132137
0.0220232,-0.00193333
0.0202804,-0.016748
0.0213753,-0.0178788
0.0163267,-0.0141062
0.00527992,-0.0118466
0.000940598,-9.36e-05
0.00571573,0.00577571
-0.0148429,-0.00182327
-0.0278389,-0.0247522
-0.0154032,-0.0293188
-0.00704188,0.00193913
-0.00671239,0.0148057
-0.00412978,0.0249561
0.000958884,0.0112441
0.00974737,0.0283891
0.00734799,0.00084647
0.013435,0.00989103
0.00468535,0.00792933
-0.0153673,-0.0270596
-0.0253984,0.0275949
-0.0286654,0.0329604
-0.039923,-0.00567874
-0.0478788,-0.0077527
-0.0331715,0.00310672
-0.0367191,-0.00344754
-0.0339521,-0.00233084
0.0019659,0.00509054
0.0392812,0.0097228
0.0356621,-0.00591145
0.0173751,-0.0211331
0.0094232,0.00105636
-2.37e-05,-0.0176013
-0.000421484,-0.00968297
0.0161844,-0.00582708
0.0395412,-0.00609503
0.039954,-0.00839601
0.0197244,0.00581713
0.0010795,0.0130333
-0.00619824,0.0105033
-0.0105749,0.0115423
-0.00978097,0.0108473
-0.0116422,-0.00181416
-0.0156986,-0.0195109
-0.0250749,-0.00586338
-0.0304146,0.0209891
-0.0105941,0.0111976
0.0144497,0.0020053
0.0168193,-0.0075911
0.013836,0.0188347
0.00734046,-0.0190252
-0.0136028,-0.0203274
-0.0253168,-0.0121104
-0.0133208,-0.00336873
-0.00523787,0.0139596
-0.0163286,0.015361
-0.0183639,-0.0383124
0.00832932,-0.0033145
0.0327252,0.0296362
0.0486739,-0.0249117
0.0414032,-0.00246332
0.00684798,0.0291287
-0.0192129,0.00783562
-0.0159345,0.00693818
0.014282,-0.00584754
0.0222352,-0.00547041
0.0233182,-0.00755056
0.0321686,-0.00449056
0.0321197,-0.00591563
0.0261143,-0.0132106
0.010611,-0.00388302
-0.0122239,0.00436818
-0.0202944,0.0084995
-0.016536,0.0106935
-0.0150203,0.0194394
-0.0194583,0.00389902
-0.0285331,-0.00753067
-0.0307944,-0.0173585
-0.0156135,-0.0143078
0.00739487,-0.000916726
0.0192256,0.0236793
0.0151891,0.0216517
0.00781752,-0.000228132
0.00723831,-0.00892397
-0.000341829,-0.00719315
-0.00974044,-0.000292992
-0.015847,0.00259341
-0.017058,0.00413699
-0.0209305,0.00348378
-0.0177256,0.000142169
-0.0090216,-0.0013825
-0.00581975,-0.00807164
-0.00636929,-0.0199161
-0.0129618,-0.0168619
-0.0220997,-0.0121227
-0.0306058,-0.00283122
-0.0282823,0.0171086
0.00178545,0.0109911
0.0436852,0.000325602
0.0613237,-0.00749665
0.0585385,-0.0172022
0.057736,-0.012136
0.0429134,-0.00888679
0.0111116,0.00525464
-0.0267497,0.0171975
-0.042931,0.0164505
-0.0418454,-0.00149292
-0.036954,-0.0043006
-0.0179028,0.00448318
0.0074277,0.0126916
0.0137823,0.0261243
0.0141946,0.0254488
0.000146715,0.0184106
-0.00456194,0.00189358
-0.00276153,-0.00305047
0.000775041,-0.00990249
0.00829428,-0.0140604
0.00998786,-0.0101023
0.00698659,-0.00133103
0.00252655,0.00250489
0.00035842,0.00224558
-0.0111841,0.00208177
-0.0212942,0.000682509
-0.0216705,-0.00351346
-0.0215979,-0.00809952
-0.015251,-0.0131372
-0.00316967,-0.0212277
0.00452849,-0.0196159
0.0139652,-0.00579674
0.0231734,0.00310084
0.0177354,-0.00173088
0.00436147,-0.00222599
-0.00836325,0.00338025
-0.0281353,0.00939673
-0.0280798,0.0115951
0.00459984,0.0111194
0.0244765,0.00954623
0.0330662,0.0122986
0.0307473,0.0144272
0.0287556,0.00828944
0.0192684,0.00622849
0.000909964,0.00665813
-0.0151411,-0.00342514
-0.0204245,-0.0139923
-0.0136208,-0.0122789
-0.0111826,-0.00289961
-0.0115766,0.00158551
-0.00832701,-0.00633771
-0.0037196,-0.0156478
-0.00213791,-0.0247663
-0.00395641,-0.0258289
-0.00155929,-0.00857348
0.0104225,0.00512756
0.0215217,0.0112383
0.0231237,0.0186278
0.0150684,0.019236
0.00882695,0.00626745
0.0135301,-0.000498194
0.00441822,-0.00314686
-0.0177784,-0.0137166
-0.0272584,-0.0191686
-0.0202114,-0.0103541
-0.0135625,0.0105079
-0.00118498,0.0257896
0.0159867,0.0231551
0.00842074,0.0149886
-0.00456003,0.0106504
-0.0142735,0.00127093
-0.0248563,-0.0051253
-0.0161691,-0.0099272
0.00630788,-0.0130776
0.0150527,-0.0074386
0.00566886,-0.000309122
-0.00369174,0.000338736
-0.00539241,-0.00268336
0.0102794,-0.00511458
0.0256466,-0.00327321
0.0167144,-0.000619455
0.00860837,0.00986384
0.00998119,0.0196113
0.00912201,0.00873974
-0.00251659,-0.00268051
-0.0102921,-0.00589683
-0.00994891,-0.0119747
-0.00843317,-0.0197375
-0.000873038,-0.0192815
0.0124571,-0.016001
0.0117565,0.00332496
-0.00798335,0.0113807
-0.0784983,0.00864495
-0.129248,0.0109617
-0.120634,0.00963305
-0.0485342,-0.00402448
0.0545515,-0.0230375
0.129032,-0.0153891
0.148176,0.0167977
0.0857314,0.0236044
-0.011451,0.0154105
-0.0631728,0.00641174
-0.0344396,-0.00567254
0.065896,-0.00789653
0.120035,-0.00387376
0.0866181,0.000279332
0.0701693,0.00251679
0.0354714,0.00824158
-0.0655417,0.00852369
-0.12952,-0.00208659
-0.135867,0.00413023
-0.142695,0.00498547
-0.124411,-0.00904508
-0.0757541,-0.0145891
0.0303364,-0.00373743
0.0911613,0.00868384
0.0831954,0.0157922
0.0699267,0.0159782
0.0544427,0.00736409
0.0539402,-0.00723226
0.0579109,-0.00192705
0.057066,0.0102279
0.0525868,4.59e-05
-0.0221251,-0.0207044
-0.210751,-0.0178167
-0.300215,-0.00905513
-0.196328,-0.0211773
0.040749,-0.0215244
0.25434,-0.0112755
0.177998,-0.00430916
0.027145,0.00301079
-0.0120702,0.00921425
-0.00341593,0.011539
0.0463212,0.00312349
0.00384053,0.000342494
-0.0458864,-0.00265014
0.00668636,-0.00180766
0.0961321,-0.00671224
0.0988549,-0.00948629
0.0404122,-0.0123686
0.0387552,0.00635577
0.051264,0.0350012
-0.0128064,0.0269562
-0.127137,0.0144842
-0.162586,0.0124525
-0.0976928,0.000241623
0.00888436,-0.0146805
0.0896321,-0.0155046
0.0600939,-0.00262477
0.00810361,0.000607492
-0.0258141,0.00894652
-0.102447,0.00942548
-0.124055,-0.000318381
-0.0587507,-0.00860287
0.0537847,-0.00264057
0.112679,0.00242729
0.136496,0.00196789
0.079212,0.00467272
0.0207541,0.00355505
0.0112571,-0.00354313
-0.0119084,-0.00510737
-0.0152752,-0.00355872
-0.0103422,-0.00895966
-0.0125868,-0.0081863
-0.00830195,0.00177261
-0.00909739,0.0030977
-0.0297918,-0.0134257
-0.0743585,-0.0146568
-0.209694,0.00484484
-0.281063,0.00499734
-0.180402,-0.0111135
0.00592327,-0.0218516
0.169925,-0.00185762
0.151673,-0.00102055
0.105787,0.000726866
0.121472,0.0160368
0.170165,0.0164308
0.137123,0.0195424
0.0578733,0.0216784
0.0448951,0.0216362
-0.00928702,0.0233261
-0.0606612,0.0161898
-0.0772415,0.0120833
-0.0619008,0.00724794
-0.0130309,0.0118692
0.0366721,0.00303796
0.0433982,-0.0194093
-0.00232932,-0.0222172
-0.0781736,-0.0182501
-0.0993775,-0.0178367
-0.0586174,-0.0170901
-0.00684906,-0.0175938
0.00554804,-0.0211828
0.0060783,-0.018099
-0.00884788,-0.0128871
-0.00266677,-0.0125413
0.0280668,-0.00454732
0.052595,0.00632576
0.027312,0.0129675
-0.0363538,-0.00167199
-0.0674913,-0.0203984
-0.041583,0.01065
0.0152607,0.0169548
0.0182112,-0.00270131
-0.0135592,0.00463787
-0.0318988,0.0322456
-0.0573407,0.0390021
0.00889128,0.034272
0.105054,0.0112638
0.111431,0.00495198
0.116838,0.00747008
0.0801376,-3.65e-05
0.0141499,-0.0134072
-0.0460529,-0.025508
-0.0593026,-0.0198982
-0.0708689,0.00315551
-0.08113,-8.95e-05
-0.0537977,-0.0151873
-0.0312783,-0.0268229
0.00421161,-0.024843
0.0244634,-0.0139963
0.0137737,-0.0050006
-0.00338375,-0.001698
-0.00195665,0.00540171
0.00426627,0.013738
0.00315909,0.0178663
0.00618004,0.0187201
0.00451229,0.0159446
0.0129398,0.0173447
0.0326798,0.0108388
0.0342335,0.00221701
-0.00182382,0.00872869
-0.0527375,0.0148042
-0.0571422,0.0062116
-0.0215772,-0.019589
