Comp Ch 3,Comp Ch 4
0.0350201,0.151715
0.00530909,-0.0170644
-0.0121352,-0.0172845
-0.0170404,-0.0139754
-0.0211168,-0.119001
-0.0156322,-0.0549862
0.0205892,-0.0145644
0.0502094,0.00258018
0.0282125,-0.00784942
-0.00390592,-0.0273949
0.00529881,-0.010124
0.000257924,0.0219354
-0.0199066,0.0757198
-0.0404723,0.0401377
-0.0386943,-0.0220178
-0.0508725,-0.0643849
-0.0593407,0.0132191
-0.02236,0.024545
0.0190965,0.00463532
0.0452366,0.000298925
0.0663323,-0.00053483
0.0551335,0.00164744
0.037308,0.00828424
0.0270404,-0.00464148
0.00833579,-0.00867133
-0.0175558,-0.00818395
-0.0403201,-0.0104508
-0.0469693,-0.0146912
-0.0413948,-0.03607
-0.069108,-0.039747
-0.0897553,-0.0164956
-0.0747191,0.00603955
-0.0341651,0.00532878
0.0144633,0.0022934
0.0643225,0.00674218
0.116658,0.0197355
0.119425,0.00503999
0.0812732,0.0134426
0.0360896,0.00688768
0.0231486,-0.00671467
-0.00935733,-0.0318722
-0.0336793,-0.0362027
-0.0388639,0.00562482
-0.0454775,0.0115617
-0.0417036,0.00143069
-0.0318011,0.0252119
-0.0360667,0.0195811
-0.0376261,0.0318057
-0.0365005,-0.00467271
-0.016979,0.00243698
0.00205384,-0.00381724
0.0290127,0.00333536
0.0620022,-0.00675135
0.0682824,-0.0208848
0.0432731,0.020739
0.0291084,0.0933293
0.0253333,0.0755982
0.014498,0.0189722
-0.00298473,-0.0217592
-0.0226501,-0.0677727
-0.0398496,-0.0241162
-0.0273244,-0.0423254
-0.00114132,-0.116861
-0.00167664,-0.131313
-0.00549002,-0.0788652
-0.0114987,0.109648
-0.0322675,0.114175
-0.0348146,-0.0605312
-0.0643904,-0.0880946
-0.0780694,0.0293874
-0.00847431,0.0928761
0.0990686,0.0478752
0.127216,0.1456
0.0683899,0.13784
0.00425579,-0.00622135
-0.0105685,-0.0100072
-0.00695209,-0.0919694
-0.0208414,-0.0887406
-0.00881939,-0.0717646
-0.00278553,-0.000984988
-0.0232764,0.083307
-0.0221077,0.03408
0.000956772,0.0211474
0.00660261,0.0283702
-0.00869407,-0.0480329
-0.0126768,-0.0102265
-0.0163438,0.022011
-0.0137739,-0.0340638
-0.00255463,-0.0552261
0.0146686,-0.0472702
0.010814,-0.0471429
-0.0257304,0.0185769
-0.0707358,0.0588319
-0.0781314,0.0111343
-0.0366008,0.051775
0.0380336,0.0948963
0.0782674,-0.0348289
0.0704447,-0.0339525
0.0392988,0.0235871
0.002515,-0.0467107
-0.0176055,-0.0610304
-0.0202951,-0.000842325
-0.00508645,-0.0185531
0.0281562,-0.0445562
0.0476141,0.064734
0.0614131,0.0827389
0.0801798,0.0609943
0.0898222,0.0521796
0.0258473,-0.0060147
-0.0503337,-0.0293535
-0.0659031,-0.0484477
-0.072185,-0.0367944
-0.0731474,-0.0162371
-0.0436684,-0.0188962
-0.0294234,0.0256603
-0.0272122,0.0308464
-0.00055553,0.0262176
0.00945403,-0.0002498
0.0117132,-0.0383214
0.00551048,-0.0238926
-0.00867241,-0.123148
0.0147244,-0.12893
0.0470158,0.0505686
0.0546708,0.0178975
0.0258309,-0.0479466
-0.0113436,-0.0455834
-0.0435553,-0.0263271
-0.0494277,0.0184013
-0.0477756,0.0275771
-0.0428955,0.0143662
-0.0272673,0.0183961
-0.00140717,0.119634
0.0128966,0.181568
0.0147167,0.0457741
0.04503,-0.0417338
0.0544321,-0.0496235
0.0390424,-0.0232311
0.0365887,0.0233217
0.00794443,0.0186036
-0.0281166,0.0494741
-0.0330975,0.093593
-0.00993937,0.00151809
-0.00635548,-0.0697293
-0.0226811,-0.142733
-0.010789,-0.0725805
0.0104744,-0.0696694
0.0278332,-0.0879661
0.0169657,-0.0254829
-0.0250209,0.0237887
0.00698532,0.00557678
0.056079,-0.0340244
0.0427662,0.0239011
0.00782516,0.0901226
-0.0133349,0.0131535
-0.0246697,0.0363719
-0.01808,0.0700451
-0.0134743,0.00169583
-0.00470225,0.00578994
-0.0139509,0.0467647
-0.0412236,0.0767352
-0.0375464,0.0334576
-0.000497946,0.00204498
0.0532701,-0.0072801
0.0330267,-0.0429758
-0.0115026,-0.0781267
-0.025364,-0.0103701
-0.0422801,0.0651876
-0.0425838,-0.0256376
0.0266383,0.0108022
0.0932064,-0.011629
0.0643007,-0.00706752
-0.0184589,0.0594947
-0.0973203,0.0616214
-0.0950734,-0.0780627
-0.0202026,-0.0055139
0.00999692,-0.00514743
0.0361754,-0.0696437
0.0691745,-0.0376306
0.0578709,-0.054265
0.0247494,-0.0393163
0.022065,0.0834715
0.0222276,0.0531217
0.00142688,-0.0673485
-0.0571277,-0.00836772
-0.0874706,0.013397
-0.0168135,0.0787033
0.0664818,0.0867559
0.0803246,0.0367404
0.041848,-0.0681412
0.0111616,-0.156345
-0.0159429,-0.0904997
-0.0798699,0.0414553
-0.0824384,-0.129696
-0.0246338,-0.0442532
-0.0264597,-0.0749323
-0.0457493,0.0274657
-0.00119286,0.0605424
0.0335301,0.127315
0.0111986,0.214169
-0.0262945,0.0955137
-0.0111332,-0.0313324
0.0352357,-0.0463047
0.100623,0.0180816
0.0993054,0.0097055
0.0588755,-0.103138
0.0419815,0.0217639
0.0287663,0.0546633
-0.0242778,-0.0296713
-0.0681634,-0.0433003
-0.0966403,0.0453453
-0.103041,0.0885157
-0.038288,-0.00124903
0.0154248,-0.0302549
0.0624934,0.00926988
0.175796,0.0358479
0.174105,-0.00440406
0.0459555,-0.0759239
-0.080222,-0.10783
-0.111467,-0.0183696
-0.117734,-0.0320741
-0.119942,-0.091898
-0.0712347,0.0568662
-0.0252464,0.0487643
0.0167146,0.0358708
0.0120963,0.0764087
0.0150897,0.133523
0.0107362,-0.204487
0.00162245,-0.207877
-0.0263818,0.00530344
0.0198042,0.054382
0.0896703,0.0764855
0.0355148,0.0209202
-0.00577484,0.0656755
-0.0393138,0.0792798
-0.0913102,-0.0830634
-0.119019,-0.0956062
-0.109108,-0.0225274
0.032263,0.0887195
0.156085,0.0324963
0.175301,0.0106951
0.0433603,0.00137591
-0.13934,0.101089
-0.150918,0.0637393
-0.0184246,-0.0203651
0.104875,0.00531956
0.123618,0.0201304
0.0690035,-0.00616458
0.0769167,-0.0238287
0.100409,0.0226327
0.0514584,-0.032193
-0.0345663,-0.0396414
-0.160411,-0.00217958
-0.200886,-0.0524195
-0.165804,-0.0765676
-0.0793096,-0.00486845
-0.0219675,-0.000861178
0.0403008,0.00424842
0.176532,-0.0171295
0.250028,-0.00674155
0.176933,0.0110447
0.046264,-0.0594677
-0.0188768,0.0065075
-0.0270944,-0.0115847
-0.0198066,-0.0834559
-0.036045,-0.0391734
-0.0496756,0.0824544
0.0209501,-0.0314562
0.0860517,-0.0447947
0.0903555,0.140121
0.0275254,-0.0394632
-0.00511743,-0.0114602
-0.0412958,0.040321
-0.0547574,0.0747849
-0.0386829,0.0329075
-0.0985086,0.0114001
-0.143612,-0.0195142
-0.122406,0.01046
-0.135146,0.0129637
-0.0786759,0.0605828
0.0366588,0.0983694
0.0718288,-0.0187251
-0.0915764,-0.142889
-0.201304,-0.0534899
-0.11255,-0.0273677
0.161162,-0.0100255
0.221364,-0.0263981
0.0618961,-0.0020814
-0.0603455,0.0482397
-0.0522391,0.0225599
0.078302,-0.012028
0.179805,0.00290939
0.13181,0.000697742
0.0696144,-0.0053266
0.0391708,0.0275275
0.0326228,0.0524493
0.018956,0.0279135
-0.0247591,0.0393956
-0.0350432,0.081567
-0.0238475,-0.0160523
-0.00387162,-0.0476831
-0.00473605,-0.0484281
-0.0282593,0.0138909
0.00102155,0.00987671
0.0388588,-0.139301
0.0411091,-0.100082
0.00318102,0.0854583
-0.0592907,0.0197222
-0.104275,-0.0428258
-0.0979455,-0.126493
-0.0250332,0.0547529
0.0396199,0.126641
0.0573729,0.0952135
0.0226886,0.0414672
-0.0392822,-0.0188827
-0.0570794,0.00884758
-0.0453748,0.0228813
-0.00892631,-0.00540119
0.000813431,-0.0227472
0.00364439,-0.0014212
0.0287496,0.00560541
0.00656292,-0.0386322
-0.0203872,-0.00549575
-0.0451243,-0.0199367
-0.089481,0.0134038
-0.0605632,-0.0256971
-0.00388994,0.0131147
0.0662192,0.0049664
0.0918381,-0.0580253
0.0953276,-0.00479459
0.0996863,0.00161172
0.0745879,0.0199886
0.0152968,0.0118451
-0.0542986,0.00102973
-0.0826221,-0.0373819
-0.0812724,-0.0151162
-0.0489736,0.00951958
0.0380802,-0.0139764
0.0869049,-0.0351623
0.0664724,-0.0451963
0.00158561,0.00560651
-0.0560206,0.0675849
-0.0503959,0.0654061
0.011008,0.0892331
-0.0108737,-0.0239154
-0.0364104,-0.0574564
-0.0204163,-0.0387283
0.0301916,0.00290634
0.0467752,0.0774505
0.0687212,0.00588132
0.0553662,-0.00145475
0.0306053,0.0440953
-0.0309574,-0.0528658
-0.116559,-0.206007
-0.0870794,-0.0625876
-0.00578567,0.0720531
0.042013,0.0514195
0.0711812,0.0338186
0.0399971,0.0578631
-0.018887,0.0782775
0.0276256,-0.00220884
0.0663337,-0.00666102
-0.0195976,-0.0337987
-0.115032,-0.0837052
-0.0507916,-0.0236834
0.0341494,0.00522658
0.0219885,0.0129282
-0.0222351,0.00289911
-0.034961,0.00762887
-0.00835069,0.0702387
-0.00873336,0.0175172
0.0187098,-0.04128
0.0329783,-0.0347559
0.02294,-0.016517
0.0232145,-0.00561969
0.00688179,-0.0178582
-0.0326,0.00650253
-0.0697893,0.0394202
-0.089479,0.0357614
-0.0135316,-0.0267804
0.0849111,-0.103275
0.11076,-0.0993638
0.0696279,-0.0450311
0.00789684,0.0776514
-0.0166164,0.0954954
-0.040456,0.0823866
-0.037367,0.0470045
-0.0283898,0.0394004
0.00958152,0.0299124
0.0676666,0.0605939
0.0526464,0.0544852
-0.015277,0.00995005
-0.0533729,-0.120429
-0.0228921,-0.104141
0.000976871,-0.0511274
0.0368962,-0.054338
0.0198116,-0.058877
-0.0516521,0.0426792
-0.123417,0.0517258
-0.108243,0.00977251
-0.0352715,-0.0132419
0.0543944,-0.0508893
0.153479,-0.0511419
0.128114,-0.021454
0.0271347,-0.00993727
-0.00890839,0.0354508
-0.0139808,0.0678964
-0.0507341,0.0989141
-0.0852159,0.11765
-0.106958,0.0840802
-0.121341,-0.0140568
-0.0917339,-0.0863995
0.0260845,-0.0708446
0.115997,-0.00977796
0.124094,0.0196863
0.104082,0.045796
0.0903627,-0.0189644
0.0583538,-0.0174396
0.0206338,0.0192307
-0.029554,-0.00429596
-0.0551971,-0.0193556
-0.0289016,0.059016
-0.000494123,0.0420602
-0.0223082,-0.0625103
-0.0348045,-0.0391811
-0.0109338,-0.021954
0.0297475,-0.0392119
0.0314731,-0.0205572
-0.00835033,-0.0472956
-0.0270135,-0.0207729
-0.0177178,-0.0212431
-0.0206628,0.0933641
-0.0438992,0.0227487
-0.0538477,-0.0573215
-0.0349815,0.0153617
-0.0238408,0.0593911
-0.00566132,-0.0274048
0.0426985,-0.00503232
0.0666884,0.000894527
0.0573981,-0.039768
0.0265125,-0.0231273
-0.0124899,0.00339467
0.0152467,0.0578214
0.0402776,0.0518609
0.0194839,0.0216586
-0.0116128,0.0468964
-0.013973,-0.082326
-0.00712368,-0.126497
-0.0218463,-0.0680225
-0.0323377,0.0599335
-0.0254605,0.0701268
-0.0363221,0.0317424
-0.05094,-0.0157095
-0.0349882,-0.0300914
0.0213784,-0.00990198
0.0793751,0.00130532
0.0814712,0.125347
0.0318215,0.053863
-0.00170496,-0.0713261
0.0344271,-0.0561903
0.0704181,0.000897421
0.0282408,0.0126769
-0.0318407,0.00797316
-0.0575152,0.0222751
-0.0884096,0.0360315
-0.115783,0.0514677
-0.10036,-0.000780787
-0.069309,-0.0539709
-0.0279498,-0.00955925
-0.0457835,0.0117685
0.0349847,0.00967382
0.182322,-0.0237331
0.226896,-0.0468841
0.138691,-0.0257411
0.0358706,-0.0553238
-0.0315131,0.0401583
-0.101131,0.0248293
-0.108455,0.00703733
-0.0606542,-0.00823653
0.0133657,0.00053356
0.0367746,-0.00121627
0.0158666,-0.0287245
-0.0241617,-0.0602141
-0.0693545,-0.064791
-0.0398431,0.0318771
-0.00194196,0.0639109
0.0136991,0.0101143
0.0482654,0.0518133
0.0464389,0.00967832
0.00646506,-0.0399093
-0.0212057,-0.0434388
0.000920665,0.0539655
0.0587634,0.0630424
0.0705367,0.0362029
0.0191556,0.0424417
-0.0156445,0.00151374
-0.0190024,-0.0877054
-0.034002,-0.186503
-0.0239692,-0.0770141
0.00430865,0.0964265
0.0100573,0.0502657
-0.0342131,0.0230609
-0.0639131,0.0209874
-0.0681271,0.0160118
-0.0384917,0.0546542
-0.0150445,0.0446275
-0.0052875,-0.022637
0.00469717,-0.0613271
-0.00623899,0.0229701
-0.0100206,0.0738716
0.0429122,0.0615992
0.0463511,0.0252778
-0.0236441,-0.00713552
-0.0520444,-0.0326379
0.00456985,-0.0304753
0.0518169,-0.0370005
0.0898703,-0.00481307
0.0977571,0.00927751
0.0167615,-0.0419985
-0.0354967,-0.0872473
-0.0539916,-0.0128558
-0.0307654,0.0219292
0.0445286,0.0222119
0.0772526,0.0750243
0.0528491,0.000701302
-0.0213483,0.00913586
-0.0176836,-0.0247747
0.020107,-0.0764378
0.0280652,-0.137868
-0.00406661,0.0243244
-0.0776136,0.0431651
-0.0982019,0.0655634
-0.0370111,0.040213
0.0615753,0.024144
0.0980655,0.0334534
0.0371369,0.0378735
-0.00136572,0.028912
-0.00564097,-0.0586007
-0.0772848,-0.114633
-0.105937,0.0653978
-0.107274,0.0401943
-0.0784759,-0.0476775
0.00758581,0.0248311
0.0533248,0.00775235
0.0382652,-0.00318023
0.0161362,0.0182604
-0.00175921,0.0307256
0.0326302,-0.0166734
0.0432822,-0.0788113
0.0212076,-0.118719
-0.00737434,-0.00809044
-0.0232081,0.0741804
-0.0165425,-0.0304332
0.00247712,-0.0379059
0.0229954,0.0837614
0.0191214,0.215083
0.006268,0.0114378
-0.00967484,-0.0955372
-0.0306017,-0.0704524
-0.0671507,-0.00684896
-0.0909431,-0.0214262
-0.0268752,0.00414511
0.0364432,0.0334301
0.0535463,0.0155431
0.0575501,-0.0167043
0.0583845,-0.0389101
0.0641838,0.00896495
0.0926172,0.00580995
0.0597,-0.01422
-0.0177055,-0.115014
-0.11381,-0.042398
-0.146712,-0.00506313
-0.0943564,-0.011088
0.00222531,0.00568739
0.0782787,0.13051
0.0284228,0.165118
0.0190923,0.0214475
0.0862968,-0.067068
0.100336,-0.0879534
0.0260146,-0.00564882
0.00935485,-0.164764
0.0650017,-0.0359854
0.0882834,0.143548
0.050712,0.144023
-0.0137149,0.129597
-0.068313,0.083544
-0.0380889,0.0297211
-0.0680151,-0.0999651
-0.129222,-0.141476
-0.105052,-0.103664
-0.0447073,0.015446
-0.0652493,0.0224955
-0.0733385,0.0713941
-0.0445523,0.0670093
0.0178695,-0.0467496
0.0939209,-0.0242782
0.0965787,0.00602914
0.066705,0.0671169
0.0457423,0.0527748
-0.00524958,-0.0902182
-0.0603471,-0.0414469
-0.0747344,-0.0221107
-0.0349142,-0.0863513
-0.00577477,-0.114166
0.035486,-0.0567199
-0.0226446,0.0941521
-0.122118,0.0021844
-0.116908,0.0262701
-0.0233022,0.114709
0.114686,0.0701072
0.158138,-0.0288117
0.0930279,0.0244562
0.130278,0.0363841
0.171312,-0.0106993
0.104748,-0.0524585
-0.00498423,0.0825931
-0.01482,-0.0112784
0.0434476,-0.149434
0.0218404,-0.0719176
-0.0906676,0.155845
-0.134589,-0.0214957
-0.147907,-0.0729384
-0.103576,-0.120807
-0.0472839,0.01244
-0.0357781,-0.00647085
-0.0495093,0.0301489
-0.0253124,0.0817871
0.0456262,0.0549232
0.0138285,0.052496
-0.0359188,-0.0235991
0.0165621,0.00452289
0.0373734,0.0403556
0.018408,-0.0676686
0.0297724,0.0178517
0.0478523,0.0238469
0.0212162,-0.00400935
0.0448735,-0.027361
0.100534,-0.0420716
0.0473992,-0.0131807
-0.0350908,0.0335292
-0.0857383,0.0248491
-0.102364,0.00349858
-0.0523666,0.0287487
0.00590791,0.116859
0.0186527,-0.0745039
-0.0102859,-0.169688
-0.0269452,-0.143911
-0.000542463,-0.154814
-0.0658047,-0.0495842
-0.107369,0.012915
-0.0160023,0.101148
0.147236,0.18716
0.22257,0.116308
0.184236,0.0690094
0.101798,0.117056
-0.0321394,0.0554607
-0.0590202,-0.0186281
-0.00742757,-0.0430615
-0.00488657,-0.0451603
-0.0773182,-0.0431389
-0.0834685,-0.0324538
-0.102702,-0.00580566
-0.107405,-0.0580333
-0.125955,-0.0555574
-0.160954,-0.0421495
-0.0782063,-0.00869107
0.0689132,0.00704921
0.135315,0.0732696
0.15522,0.102759
0.0995534,0.0276093
0.0491394,0.0179607
0.0443296,0.0107794
0.0746915,-0.0888706
0.0663089,-0.0875571
0.0175646,-0.0478742
-0.0174617,0.0232971
0.0433394,0.00588447
0.111314,0.13069
-0.0131246,0.0487213
-0.0749322,-0.0568867
-0.0793348,-0.0111685
-0.120038,-0.0228357
-0.0973139,-0.0327224
-0.136676,0.0107334
-0.159043,0.0559278
-0.095734,0.129385
-0.0261647,-0.0642166
0.0520371,-0.0533014
0.112017,0.017318
0.151171,-0.100797
0.214285,-0.0927789
0.236046,0.00744407
0.146281,-0.000669651
-0.207509,0.0955343
-0.336491,0.000540791
-0.282652,-0.118562
-0.115182,0.02178
0.0904734,0.118184
0.18866,0.0322277
0.134816,-0.118743
0.0996504,0.0427771
0.0478408,0.0641345
0.0315488,-0.00673976
0.0574378,-0.06404
-0.00729763,-0.0954283
-0.0882044,-0.0255028
-0.118687,0.0305157
-0.0829761,0.0356586
-0.0377407,0.0952015
0.015612,-0.0114367
0.0717252,-0.0171454
0.0675381,0.146936
0.0644411,0.110396
0.116533,0.0236233
0.0642902,0.0167381
-0.00769164,-0.064971
-0.000328862,-0.154888
-0.0298843,-0.120917
0.0675209,-0.0504401
0.134935,0.0366414
-0.0208781,0.0221612
-0.124531,-0.0700087
-0.0923207,0.0543153
-0.134161,0.0175141
-0.126617,-0.000795366
-0.0722095,0.0362363
-0.0525353,0.203705
-0.0577922,0.189491
-0.0253659,-0.15553
0.0771259,-0.128236
0.139664,-0.0218793
0.0724273,-0.0781574
-0.0658874,-0.051926
-0.237347,-0.0322515
-0.231219,-0.265353
0.0469558,-0.364807
0.250583,-0.0120262
0.214839,0.310293
-0.0442205,0.22018
-0.199703,0.119111
-0.270196,0.13509
-0.0594418,0.122415
0.198968,0.0527499
0.324921,-0.176794
0.490407,0.0629627
0.420129,0.142928
0.0539142,0.0849597
-0.302664,-0.0451207
-0.316406,-0.0234465
-0.177783,-0.0360828
-0.0363731,-0.0328717
-0.128494,0.0340201
-0.254104,-0.00470409
-0.232086,-0.104566
0.00319079,-0.122248
0.191518,-0.125147
0.272693,-0.00511407
0.19301,0.0967756
0.0449369,0.0125623
-0.0899343,-0.118445
-0.188352,-0.126979
-0.193997,-0.0918626
0.104139,-0.0828364
0.474667,0.0852026
0.584132,0.184749
0.323237,0.209553
-0.0388038,0.206459
-0.390791,-0.0261995
-0.559954,-0.00921468
-0.246324,0.0840608
0.0595515,-0.0614574
0.107698,-0.067499
0.112607,-0.0458789
0.0216341,-0.0933029
-0.28515,-0.115668
-0.376218,-0.128632
-0.512335,-0.175323
-0.431007,0.0430265
-0.0407312,0.145767
0.185214,0.0671174
0.206338,0.00451497
0.372008,-0.0264008
0.449431,-0.0182698
0.429267,0.0740369
0.552062,0.0879954
0.447368,0.15535
0.278504,0.0104062
-0.0567523,-0.0349558
-0.544866,0.0639919
-0.766152,0.0541712
-0.388463,0.00846301
-0.134382,0.00793113
-0.0258473,0.0279523
-0.00140107,-0.00369788
0.0167045,-0.076734
0.138631,0.0159976
0.341634,-0.0579788
0.129958,-0.070702
-0.169252,-0.00529122
-0.2558,-0.0730345
-0.356292,-0.0848159
-0.173001,-0.113416
0.145033,-0.154916
0.298839,-0.0927453
0.314677,0.152694
0.196719,0.128288
0.108156,0.045114
0.017095,0.0333078
-0.0464709,0.0609454
0.0338683,-0.054145
0.194169,-0.156825
0.169091,-0.0924574
0.0216615,-0.00237648
-0.152435,0.195221
-0.258302,0.181054
-0.283906,0.0631635
-0.193133,0.132893
-0.0904786,0.00595915
-0.0399842,-0.032433
-0.0541322,0.031687
-0.0820879,-0.0149562
-0.0471844,0.00114192
0.0110741,-0.0603978
0.0658271,-0.0912663
0.0751479,-0.00126588
0.104782,-0.0486873
0.123914,-0.131844
0.120161,-0.149114
0.118642,0.0201771
1.88e-05,0.0995347
-0.179372,0.0150436
-0.1846,-0.0100169
-0.0916878,-0.028784
0.0345252,0.0393849
0.121885,0.183896
0.0767271,0.0849297
0.045547,-0.0136764
0.102053,-0.0775889
0.158635,-0.109757
0.0775771,0.010914
-0.0458106,0.0791808
-0.0792711,0.0374388
-0.0252783,0.103285
-0.00202872,0.106522
0.0175451,0.00159783
0.0620682,-0.0731825
0.0366517,-0.0876525
-0.0449624,-0.0586972
-0.13127,-0.0616866
-0.246993,-0.0349493
-0.263209,-0.231803
-0.185801,-0.254165
-0.0904734,-0.0968258
0.114367,0.0252078
0.312786,0.0396728
0.484194,0.18717
0.423349,0.157543
0.186368,0.109772
0.1488,0.122013
0.0725177,0.0752921
-0.050014,0.128484
-0.183936,0.0892145
-0.35506,-0.039979
-0.335284,-0.0930897
-0.177507,-0.0866919
0.00213265,0.0298083
0.129571,0.109694
0.0886743,0.0100953
-0.0902527,-0.00428296
-0.181434,0.0832772
-0.166908,0.0462139
-0.181613,-0.0334165
-0.0791378,-0.0414451
0.103627,-0.113491
0.102231,-0.226146
0.0287511,-0.120975
-0.0453398,-0.193016
-0.00393345,-0.207512
0.109875,-0.0774758
0.229051,0.0660946
0.185138,0.162032
0.0541675,0.214298
-0.132812,0.0633838
-0.276692,-0.0620668
-0.224177,-0.11744
0.145023,-0.199923
0.349136,-0.0782943
0.201999,0.0202367
-0.0501071,0.0116794
-0.264751,0.198414
-0.300374,0.268353
-0.0573147,0.224405
0.0863799,0.165771
0.0268506,0.180596
0.10054,0.0484142
0.132004,0.050156
0.124199,0.133765
0.125376,-0.0826897
0.163583,-0.0811401
0.0514224,-0.0420567
-0.246399,-0.113682
-0.232549,-0.0514089
-0.0845792,-0.185361
0.0173764,-0.144886
0.157392,0.0493125
0.117415,0.0322976
-0.0769858,0.105057
-0.212057,-0.131044
-0.16164,-0.273044
-0.0397109,-0.156423
0.0608682,-0.0447798
0.12117,0.0305374
0.120284,0.131404
0.0161548,0.118338
-0.0325097,0.0773627
0.0596485,-0.0426258
0.101023,-0.0476136
0.0703162,0.0735804
0.0788764,0.146391
0.0810988,0.0767647
0.00768539,-0.0342353
-0.0476522,-0.0517528
-0.0320874,0.013067
0.0296847,-0.0112933
0.0738294,-0.0384862
0.00636868,-0.0420712
-0.0462111,-0.040255
0.00322927,-0.0511942
-0.0251452,0.0187184
-0.223399,0.0264846
-0.349491,-0.0982294
-0.219462,-0.00525594
0.00301191,0.088012
0.0576294,0.0144602
-0.0259706,-0.0129741
-0.0996298,0.00530424
-0.0509254,0.031573
0.115982,0.0301184
0.301698,-0.0357678
0.390667,0.0366068
0.255543,0.0126241
0.0490746,-0.072523
-0.114544,-0.130239
-0.201462,-0.133314
-0.188678,-0.139758
-0.122417,-0.0846783
0.0597849,0.0922593
0.259354,0.168105
0.170978,0.206101
0.185924,0.296642
0.0824805,0.21454
-0.194019,0.0827044
-0.290899,0.0409874
-0.377306,-0.0704305
-0.312519,-0.135432
-0.0663396,-0.116955
0.0949522,-0.256373
0.150408,-0.293546
0.135212,-0.26455
0.123588,-0.151185
0.276123,-0.0762372
0.243275,0.287637
0.144636,0.194457
-0.0408214,0.181941
-0.416847,0.252936
-0.387165,0.141895
-0.118637,0.00859091
-0.0652248,0.0127706
-0.0428528,0.00992242
0.0259438,-0.0278236
0.136197,-0.00477602
0.263867,0.00277402
0.314391,-0.0316787
0.224002,-0.0180598
-0.0476379,0.0395268
-0.239307,0.0455373
-0.310256,-0.0831367
-0.216487,-0.100317
0.00622338,0.0287877
0.0677519,-0.0357102
0.031102,-0.0877314
0.0134378,-0.142952
0.0192281,-0.135303
0.0895912,0.0594741
0.122737,0.0305779
0.104902,-0.02746
0.0762169,0.0183176
0.086329,0.00561828
0.00871623,0.0133939
-0.194032,0.0538317
-0.26521,0.012377
-0.144881,0.0741472
0.000843421,0.143494
0.0702333,0.00630521
0.147517,-0.0304051
0.105541,0.0245341
-0.0584876,0.0215977
-0.0288902,0.017177
0.283172,0.0357906
0.46258,-0.0596584
0.322411,-0.106864
-0.134412,-0.0941121
-0.465973,-0.0479246
-0.424803,-0.0330811
-0.255362,0.0404818
-0.00776677,0.078108
0.0939785,0.0854642
0.0916722,0.0454712
0.0871089,0.0095913
0.0248389,-0.0273495
-0.0906386,-0.142904
-0.0503975,-0.0892055
0.0765237,0.0118848
0.128909,0.0326577
0.100055,-0.116581
-0.0209302,-0.0216128
-0.0944804,0.0820726
-0.128102,0.0636543
-0.0874255,-0.0238238
0.0531347,-0.0325327
0.0957118,0.110544
0.0383812,0.0932831
-0.0299646,-0.0210752
0.00442679,-0.0584899
0.0357643,-0.0594702
-0.0368618,0.0104982
-0.151089,0.056639
-0.217739,0.024819
-0.128235,0.0584231
0.168702,0.0777248
0.503498,0.0407313
0.548306,0.0257665
0.398424,-0.010595
0.0540432,-0.0259771
-0.426986,-0.0354053
-0.501646,-0.0219165
-0.23481,-0.0747284
-0.143213,-0.120846
-0.162653,0.0216738
-0.169379,0.0356741
-0.0709411,-0.0126673
0.0744028,-0.0463737
0.0953525,-0.0220073
0.077375,-0.0093254
0.17222,-0.137988
0.318853,-0.0714104
0.243668,0.0652209
-0.0353029,0.0689087
-0.266247,0.179792
-0.306656,0.0976838
-0.110838,0.0166322
0.030723,-0.031612
0.0370642,0.00277404
0.0162005,0.0346994
0.0197186,0.0105581
0.0718447,-0.0586559
0.0718436,-0.0187006
0.0164153,-0.0438317
-0.0375085,0.0942194
-0.0366013,0.0682549
-0.0379812,-0.0678785
0.00696756,0.0163435
0.0596518,0.0162745
0.224036,-0.0578903
0.240044,-0.0591658
0.0212529,-0.0264088
-0.15673,-0.0552593
-0.247207,-0.0451792
-0.154789,-0.0243404
0.121302,0.0271605
0.326847,0.0361866
0.29849,-0.0838425
0.181112,-0.00511958
-0.0347149,0.0140358
-0.196196,0.0626005
-0.129003,0.162993
-0.151753,0.0501979
-0.239947,-0.0752777
-0.276483,0.00841856
-0.220418,-0.00090546
-0.169736,-0.00973802
-0.116114,-0.00668038
-0.00879218,-0.00737859
0.101948,-0.00709435
0.178707,-0.00389016
0.180755,-0.0416164
0.148101,-0.0307722
0.104876,-0.0480811
0.0624163,0.00942309
0.0665378,0.0546512
0.0657682,0.0297167
0.0198707,0.029082
-0.0292325,0.0238916
-0.0625825,0.0235059
-0.0623867,-0.024838
-0.0131046,-0.0313875
0.0982658,0.0626726
0.152731,0.00909303
0.119731,-0.0231861
0.00321497,-0.00206888
-0.249613,0.00836154
-0.332488,-0.0632547
-0.0909615,-0.0715704
0.0532231,-0.0653627
0.0718394,0.0117752
0.0856903,-0.000764451
0.0995158,-0.0665626
0.0788314,0.00924714
0.0569422,-0.00402384
0.0509071,0.0440018
-0.00476748,0.159529
-0.0540909,0.131886
-0.156979,-0.160717
-0.22899,-0.0703704
-0.19825,0.0375686
-0.0578022,0.0249631
0.133398,0.0189846
0.309416,0.0396879
0.40425,0.0310684
0.336495,-0.000296369
0.119754,-0.0177175
-0.156045,0.0112429
-0.290705,-0.00306277
-0.207814,-0.0445165
-0.0300692,-0.00173006
-0.0271366,-0.00543158
-0.151563,-0.0189855
-0.110455,-0.0256467
0.0218714,-0.016487
0.0531854,0.0245027
0.00696722,-0.0275012
-0.060249,-0.0586355
-0.0446796,0.0286647
0.0153969,0.0908441
0.00983284,0.0126163
-0.00816594,-0.0120374
-0.0107324,0.00533757
0.0496433,0.0123005
0.096244,-0.00213182
0.0854288,-0.00927021
0.0110469,-0.0350675
-0.0329052,0.0468845
0.00597344,0.0375274
0.0279211,-0.0118268
0.00466544,-0.0396879
0.00896714,-0.0381548
-0.00507224,0.00606426
-0.0899267,0.061834
-0.130938,0.02598
-0.0775964,-0.0438685
-0.0743051,-0.0255257
-0.0562809,-0.0165381
0.0108281,0.00702885
0.0656203,-0.0222977
0.10807,0.00051767
0.16126,0.0126916
0.172766,0.0261292
0.0580518,0.0691101
-0.0874593,0.0431944
-0.153046,0.0177969
-0.0909308,0.00210756
0.0673134,-0.0187493
0.112205,-0.0500664
0.0239282,-0.0847663
-0.0147281,-0.0122859
0.163711,0.00493293
0.25897,-0.153287
0.15385,-0.116674
-0.0163374,-0.052062
-0.189931,0.0396711
-0.236469,-0.0111254
-0.181682,0.0580254
-0.120859,0.104228
-0.0263551,0.0977102
0.109104,0.0851469
0.109278,0.033204
0.00581461,0.0138981
-0.119283,0.0589043
-0.146746,0.0281473
-0.0924213,-0.0760651
-0.0399561,0.0221659
-0.0322507,0.0383911
-0.0385246,-0.0409277
-0.0178674,-0.0501203
0.0654234,-0.063936
0.118859,0.0113853
0.113146,-0.0288059
0.0709263,-0.00929039
0.040702,7.34e-06
0.0180846,-0.00897433
0.035522,0.00775037
0.0477696,0.0158574
0.0994682,0.0362968
0.0892116,0.0530547
0.00662814,-0.0108261
-0.087582,-0.0526378
-0.158796,-0.0275317
-0.0784677,0.0217301
0.0453696,-0.00525847
0.0460926,-0.0762862
-0.0357323,1.48e-05
-0.0688824,0.00599376
-0.0471667,-0.00383969
-0.0229454,0.0331799
0.00654775,0.0179564
0.0108188,0.0196653
0.0621113,0.0318282
0.163647,-0.0284676
0.187269,-0.0195517
0.109753,0.027608
-0.118194,0.0345227
-0.348981,-0.0122068
-0.299309,-0.0372154
-0.0830873,0.016789
0.053461,0.000291099
0.0855705,-0.0132646
0.0973523,0.0102984
0.054289,-0.0121284
0.0175288,0.013345
-0.00664314,-0.0542086
-0.0453201,-0.0487346
-0.0845829,-0.0527217
-0.0402395,0.0590701
0.0435474,0.078675
0.122204,-0.00169992
0.15527,0.00662861
0.118738,-0.0140503
0.0806891,-0.0609706
0.0451678,0.0230781
-0.0224409,0.0674258
-0.0708789,0.0106494
-0.0728883,0.00814161
-0.0520475,0.00318853
-0.0529435,-0.00608048
-0.0164498,-0.0124032
0.0172571,-0.0021953
-0.018655,-0.0110645
-0.0799286,-0.0480769
-0.0533319,-0.028321
0.0699779,0.132841
0.0990956,0.150155
0.0366906,-0.087626
-0.0182814,-0.049093
-0.0587474,-0.0353326
0.020253,-0.00486559
0.118392,0.0197794
0.0891696,0.00929367
-0.00150315,0.0290466
-0.0660522,0.00412638
-0.100195,-0.013477
-0.0567144,-0.0328968
-0.0291877,-0.0216488
-0.0826745,-0.0202426
-0.0603266,-0.0482711
0.027177,-0.0166926
0.0749449,-0.0286364
0.0591552,-0.0187504
0.012323,-0.0206249
-0.0314972,0.00769379
-0.0742305,0.0283089
-0.0745389,0.0520774
-0.0150489,0.00635983
0.0269573,-0.00126184
0.0371584,0.0189464
-0.00543609,-0.0310851
0.0157237,-0.0229341
0.138946,0.0215452
0.189584,0.0729531
0.0810792,0.0411528
-0.124173,-0.0868016
-0.160704,-0.0742826
-0.0817232,-0.0488799
0.0140008,-0.0106449
0.115113,0.0991577
0.117907,0.0408425
0.0351837,0.0518268
-0.0347685,0.0617339
-0.0712583,0.0166994
-0.0366478,0.0314787
-0.00853052,-0.00522594
-0.00143399,-0.0811311
-0.0278564,-0.0649387
-0.0398152,-0.0308311
-0.0204493,0.0157941
-0.00840636,0.0259218
-0.0236795,0.00272909
0.00019605,0.0308465
0.0325633,0.0121233
0.0299213,0.0278386
0.0105026,0.0865453
-0.03835,-0.0466279
-0.0931438,-0.113395
-0.0434,-0.00677547
-0.0072485,0.035389
-0.0247131,-0.0250881
-0.0142128,0.00525144
0.0390147,-0.0211004
0.094307,-0.0584555
0.197399,-0.0665286
0.227465,-0.0498105
0.174323,-0.00262665
0.0458162,0.0261735
-0.149389,0.0478822
-0.262227,0.0502792
-0.150811,0.0439409
-0.0630492,0.00389389
-0.0349401,-0.00239315
-0.0208009,0.0351678
-0.049942,0.0542301
-0.0822567,-0.0100263
-0.101046,-0.0638077
-0.0557932,-0.031362
0.0125574,-0.0194752
0.0874597,-0.000121948
0.152962,0.0186108
0.124151,0.00628087
0.081314,0.0392615
0.0117426,-0.0372697
-0.0836801,-0.025261
-0.111233,0.0360141
-0.0796206,0.0359198
0.0531268,-0.0133046
0.111156,-0.000911612
0.0797306,-0.0210529
-0.00283084,-0.0446163
0.0135857,0.0339103
0.00325561,0.00674639
0.0183021,-0.0061939
0.047834,-0.0238271
0.0570016,-0.0198574
0.0767671,0.00120436
0.0286541,0.0273611
-0.0648106,0.0440283
-0.140559,0.0364259
-0.162347,-0.00336975
-0.0932051,0.0169717
-0.0213668,0.111361
0.00743889,-0.0178491
0.0139711,-0.0770859
0.0113825,-0.0719608
0.0585509,-0.0424681
0.152836,0.00882022
0.214901,0.0262039
0.153555,-0.0147363
0.00214432,-0.0363184
-0.0492477,-0.0221332
-0.0148035,0.0398366
-0.0231794,0.0553447
-0.0429675,0.0469138
-0.152183,0.0622268
-0.184265,-0.0127389
-0.102764,-0.0436742
-0.0567013,-0.0234016
-0.066209,-0.0221769
-0.0307262,-0.0199172
0.0463932,-0.0172233
0.0868109,-0.00329858
0.00963758,0.00939962
-0.00206646,0.0201653
0.0981958,-0.0396354
0.198609,-0.0109235
0.186026,0.0144173
0.163721,-0.0234707
-0.0931464,0.021292
-0.221647,-0.0167953
-0.137767,-0.00603302
-0.226123,-0.101342
-0.0944249,-0.0197711
0.0771883,0.0491089
0.078134,0.0364653
0.0611161,0.0192858
0.0484155,0.00774217
0.043178,0.0504548
0.0473691,0.0922027
0.0479372,0.000379939
0.0826082,-0.00787553
-0.0206436,0.00211034
-0.139114,-0.00152063
-0.157649,0.0249951
-0.117992,-0.00326202
-0.0275006,-0.0586009
0.0300051,-0.014528
0.0418021,0.0087671
0.0411493,0.0117648
0.0373571,-0.00421638
0.00505221,-0.0419727
0.0330316,-0.0279361
0.058686,-0.0180147
0.039342,-0.0222568
0.0122886,0.0049079
-0.00495241,-0.0431464
0.0579433,-0.105158
0.133432,-0.0334972
0.0581927,0.0890947
-0.0864593,0.104868
-0.239226,0.042345
-0.25025,-0.00938563
-0.0494574,0.0448631
0.0456072,-8.26e-05
0.075459,-0.0368344
0.134784,-0.0292513
0.171929,0.0206744
0.143627,0.0232173
0.200181,0.0277879
0.234491,0.0183111
0.184046,0.00651683
-0.019003,0.0398054
-0.252411,-0.00177211
-0.347574,-0.0590611
-0.252564,-0.0726149
-0.190834,0.0539633
-0.133389,0.0151659
-0.0594297,-0.0531213
0.0376166,-0.00473152
0.126708,0.0264846
0.155033,0.0559514
0.177417,0.0576729
0.161696,-0.0184588
0.04747,-0.0342622
-0.0250551,-0.00867802
-0.133534,-0.0167244
-0.212022,-0.0486919
-0.196764,-0.0649309
-0.0797288,-0.0365558
-0.0373618,0.0324615
-0.00319923,0.0334186
0.116418,0.0171071
0.163313,0.015941
0.154292,-0.0300552
0.166486,-0.0341281
0.124813,-0.0226091
-0.0263547,-0.0127017
-0.139744,0.0534518
-0.148922,0.0399904
-0.104784,0.0194097
-0.100536,0.00525043
-0.0481615,0.0153181
0.0681628,0.0459918
0.104136,-5.52e-05
0.137856,-0.00833958
0.0962466,0.0156837
-0.0158269,0.0806933
-0.0477799,0.0230073
-0.0419222,-0.0450816
-0.0728097,-0.0549606
-0.101457,-0.05311
-0.0510858,-0.0633868
0.0502969,-0.0772049
0.0405301,-0.049879
-0.00187288,-0.0240963
-0.0396056,0.0100374
-0.0550497,0.00270971
-0.0120657,-0.00652636
-0.0051159,0.0155441
0.0104296,0.0321171
0.0825982,0.0680235
0.102651,0.0606316
0.0782173,0.0371137
0.0376362,0.0320791
-0.00813755,0.0167068
-0.0497687,0.00234038
-0.0183238,-0.00626433
0.0593342,0.00352435
0.122664,-0.00479459
0.0647522,0.00223795
-0.0520477,0.0136813
-0.0794777,0.00368561
-0.0669152,-0.015718
-0.0471522,0.0106841
-0.0075934,-0.0150906
-0.00934742,-0.0416312
0.0337344,-0.0351262
0.0988295,-0.0458845
0.0113166,-0.101525
-0.081562,-0.0375168
-0.114408,-0.0180087
-0.0871919,0.0229743
-0.0333074,0.055583
-0.0285745,0.086212
-0.0303969,0.0459721
0.0730668,0.0588917
0.111442,0.0381716
0.0714814,-0.0225468
-0.0525969,-0.0286207
-0.136421,-0.0239784
-0.0749408,0.0387818
0.0808744,0.00834156
0.175347,-0.0325386
0.132921,-0.0405324
0.0420087,-0.00509921
-0.0624374,0.00427825
-0.0768495,-0.00799188
-0.0441434,0.00116567
-0.0274632,-0.00672122
0.0253949,-0.0155183
0.0717141,-0.0101942
0.0521853,-0.00014786
0.000697879,0.0212514
-0.0575176,0.0327634
-0.0926521,0.00941405
-0.0221314,-0.0219566
0.0866084,4.58e-05
0.0968379,0.0703145
-0.0022818,-0.0147172
-0.113772,-0.0761942
-0.133162,-0.0407285
-0.078657,0.0200589
-0.0263352,0.014165
-0.0297081,-0.0130136
-0.00191581,-0.0117824
0.0936349,0.00485199
0.207533,0.00210843
0.160972,-0.0103555
0.0192619,0.00145694
-0.0695757,0.0647836
-0.11234,0.0777478
-0.103491,0.0190422
-0.060696,-0.0529741
-0.0159636,-0.0449893
0.00290658,0.00459888
-0.00858898,0.0210676
-0.0070123,0.00958696
0.0147178,-0.0329328
0.0353815,-0.0834192
0.0251503,-0.0444416
0.0101046,0.0242472
0.00626309,0.0890617
-0.00973145,0.0295262
-0.0228335,-0.010568
-0.026472,-0.00569114
-0.0300552,0.00999274
-0.053382,0.0187834
-0.0527384,0.0115411
-0.00699144,-0.00565772
0.0539657,-0.0169278
0.141873,-0.0139252
0.114176,-0.0224737
0.0333571,-0.0363246
-0.0132656,-0.0219549
-0.049514,0.00185365
-0.0542607,-0.016465
-0.0314856,-0.00505912
-0.00357889,-0.0351977
0.0332058,0.0234347
0.0448067,0.0409708
0.00887371,0.0241505
-0.0781367,0.0580833
-0.128889,0.0893884
-0.103695,0.0241484
-0.0351329,-0.044526
0.0618528,-0.0181116
0.157513,-0.00411932
0.148946,-0.0155385
0.0762478,-0.0389078
0.0376772,-0.035279
0.0149488,-0.0282103
0.019914,-0.0203499
0.00198381,-0.0065721
-0.0458969,-0.0122609
-0.0222821,-0.0242234
-0.0100728,-0.0256014
0.016454,-0.0118887
0.00500881,0.0221557
-0.0690552,0.0617449
-0.10797,0.0572887
-0.0435859,0.0379662
0.0200794,0.0293245
0.0327138,0.0184433
0.0316408,0.0108966
0.00646961,0.0122152
-0.0320282,-0.01214
-0.0673156,-0.0555348
-0.104843,-0.0447551
-0.110406,-0.0055258
-0.0832673,-0.0169723
-0.0293114,-0.0376199
0.0870407,-0.0359938
0.305551,0.00528874
0.565305,0.0279947
0.535003,0.0632191
0.103949,0.0418061
-0.339724,-0.0733223
-0.591635,-0.101684
-0.540098,0.0453844
-0.29483,0.0759096
-0.109204,-0.00973767
0.0574547,0.0151865
0.108032,0.0627685
0.123229,0.012955
0.137508,0.0260627
0.0862772,0.0562673
0.067631,0.0111241
0.0571151,-0.0985872
0.0789794,-0.0190955
0.0840065,0.0105477
0.0230494,-0.0334195
-0.0796987,-0.0490901
-0.0695774,-0.000115988
0.0241943,0.0252652
0.0665049,0.0149441
-0.00278594,0.00109729
-0.0352196,-0.00303131
-0.0426496,-0.0078231
0.00460053,0.00245203
0.0424149,0.0100631
-0.00349369,0.0104371
-0.0551226,0.00867796
-0.0622252,0.0010921
-0.0620089,-0.00634522
-0.0478071,-0.0102913
-0.037123,-0.0115277
-0.0296505,-0.0153788
-0.0222806,-0.0148293
-0.00351244,-0.00416684
0.0212638,0.0100723
0.0380082,0.0115392
0.0384832,0.00750969
0.0364278,-0.00865562
0.0419036,-0.0229136
0.0444228,-0.0209334
0.0547286,-0.0274191
0.0643406,0.0111361
0.062786,0.0194471
0.0748286,-0.0205886
0.111055,-0.0708891
0.0842525,-0.0195098
0.00558952,-0.0302164
-0.0887815,-0.016984
-0.0657555,0.0565577
-0.0520016,0.117433
-0.0935923,0.0629838
-0.0893098,0.012801
-0.019878,0.0364965
0.0136049,0.032441
0.030049,-0.0120722
-0.0378392,0.00877454
-0.0991668,-0.0211909
-0.0478749,-0.0415797
0.0192642,0.0199856
0.013547,0.0517737
-0.0474958,0.0137263
-0.0546455,0.000859924
-0.0117682,-0.00403958
-0.00862574,-0.0213764
-0.019728,-0.0374912
0.00752581,-0.0436265
0.0248662,-0.0342525
0.0492375,-0.0106663
0.0672779,0.00767289
0.0584804,0.00510009
0.0600149,-0.0048326
0.0870432,-0.00996562
0.0896594,-0.00530625
0.0483701,0.00535104
0.00153784,0.00684358
-0.0739988,0.00229567
-0.117401,-0.00059492
-0.0873945,-0.00346982
-0.0476985,-0.00513946
-0.0383677,4.44e-05
-0.0347465,0.00465856
-0.018537,-0.00527334
0.00769399,-0.00866398
0.0206554,0.00294655
0.0247506,0.0180506
0.0291009,0.0167851
0.023837,0.00944517
0.0144966,0.00289905
0.00890647,0.00386694
0.00853708,0.0086691
0.00686036,0.00994036
-0.00942228,-0.013054
-0.0355094,-0.0428977
-0.0434433,-0.073992
-0.0216954,-0.0638682
0.0188302,0.0221842
0.111812,0.00552033
0.248088,0.0733118
0.299297,0.0479952
0.156331,-0.0531876
-0.0377844,-0.00306375
-0.181662,-0.0267086
-0.149528,-0.0252777
-0.0924658,0.00562423
-0.104048,-0.00819933
-0.118089,0.0138057
-0.121473,-0.0403303
-0.104442,0.0153209
-0.0510422,0.119654
0.0267687,0.0529345
0.0107628,0.00332191
-0.0164564,0.0116531
0.0272154,0.0604631
0.0598866,0.0385804
0.0754758,0.0094556
0.0278763,-0.00113402
-0.0140649,-0.00807169
-0.00660023,-0.0016607
-0.00341388,-0.00313774
0.0170994,-0.0164564
0.0188648,-0.0198952
0.0142933,-0.0195771
0.0204324,-0.0130284
0.0405295,-0.00534001
0.0322743,-0.0100042
-0.00310721,-0.0139527
-0.0388079,-0.00738944
-0.0476689,-0.00137148
-0.0366761,-0.0100578
-0.0352953,-0.0175995
-0.0456232,-0.0259188
-0.0500419,-0.0289446
-0.0375191,-0.0223338
-0.00717831,-0.010654
0.0193811,-0.00331576
0.0279287,-0.00960786
0.0234646,-0.0112577
0.0202712,-0.00567382
0.0280142,0.004829
0.0404691,0.0132034
0.0592749,0.00870324
0.0620349,-0.00107924
0.077954,0.0118263
0.146881,0.0413173
0.197283,0.0102078
0.207574,-0.0183211
0.120399,-0.0259317
-0.128489,-0.0109194
-0.349733,-0.00460027
-0.331788,0.00377183
-0.205233,0.0316624
-0.0340763,0.0369174
0.0427596,0.0306383
-0.0183635,-0.000838584
-0.058791,-0.0714983
0.0450413,-0.0441892
0.111051,-0.0472658
0.0684737,0.00167456
0.0442283,0.031355
-0.0129979,-0.00805888
-0.116415,-0.0122643
-0.112615,-0.0248663
-0.0430497,0.0787029
-0.00868896,0.128452
0.0352751,0.0312878
0.0978044,0.0060879
0.0977403,0.0133545
0.0748351,0.0088347
0.0630552,-0.0105786
0.0581326,-0.0209846
0.0381982,-0.0213681
0.0227856,-0.0222038
0.0162179,-0.0033694
0.00646911,-0.00174205
-0.0114768,-0.0090666
-0.034076,-0.00635901
-0.051312,0.00595419
-0.0583893,0.00983808
-0.0582487,0.00136416
-0.0553946,-0.00907057
-0.0471467,-0.013795
-0.0308259,-0.0119754
-0.0133142,-0.00737442
0.0033161,-1.01e-05
0.0213614,-7.63e-05
0.0405395,-0.00784846
0.0453134,-0.00663913
0.0370748,0.00149014
0.0329282,0.00903351
0.0255483,0.0125529
0.00845879,0.00947837
-0.0136972,0.000959503
-0.0430638,-0.0122127
-0.0509457,-0.030492
0.0249347,-0.0321283
0.188316,-0.0218286
0.202325,0.0219819
0.0525974,0.0694045
-0.123392,0.0793998
-0.223805,-0.100257
-0.157105,-0.15501
-0.0245502,0.0600944
-0.0178381,0.0660303
-0.00637991,-0.144747
0.0839218,-0.0443956
0.0923231,0.0374243
0.0667352,-0.0473522
0.0361297,-0.0789812
0.00619548,0.0663546
-0.00307248,0.1186
-0.0425679,0.100318
-0.0795524,0.134263
-0.1042,0.0865546
-0.108357,0.0194768
-0.0450337,-0.00785852
0.0155563,-0.0112952
0.0363605,-0.0161684
0.0373052,-0.0147701
0.0353544,-0.0181038
0.0381439,-0.0205707
0.0323564,-0.0188606
0.0193643,-0.019985
-0.00336919,-0.0132317
-0.0293534,-0.0141001
-0.0482153,-0.0199006
-0.043199,-0.0146772
-0.035707,-0.00225299
-0.0317821,-0.0013828
-0.024229,-0.0111737
-0.0194719,-0.0189693
-0.0139446,-0.0263939
0.00694048,-0.0233574
0.0203401,-0.00932766
0.0198766,0.0064932
0.0452087,0.0113194
0.125092,0.0100834
0.262229,0.0164977
0.407967,0.0312772
0.380499,0.0331051
0.124438,0.0232743
-0.23743,0.0106452
-0.424715,-0.00566344
-0.426707,-0.0172995
-0.242637,-0.0232886
-0.10161,-0.0135838
-0.0545097,0.00653117
-0.0118368,-0.0776153
0.0295788,-0.0741092
0.0404058,-0.0316582
0.0416204,-0.072431
0.072192,-0.0472372
0.102,-0.0162806
0.139803,0.0418775
0.206673,0.105303
0.127157,0.0770885
-0.0253504,0.0433526
-0.116469,-0.0132412
-0.186851,-0.0180373
-0.14699,-0.0128276
-0.0560796,0.0571942
-0.0223966,0.0630307
-0.0219975,0.0106032
-0.00774137,-0.0136762
0.0298531,0.0457974
0.0301668,0.0744353
0.0065705,-0.00920368
-0.00761154,-0.0588708
-0.0159341,-0.00747726
-0.0112361,0.00565898
-0.00951466,-0.0231312
-0.0178352,-0.0051793
-0.00565172,0.00517515
0.045097,0.00482337
0.0828679,0.0105776
0.0797727,0.00757265
0.0554238,-0.018218
0.0212237,-0.0345903
0.0104179,-0.00985608
0.0115856,-0.0071642
0.00548232,-0.0117619
-0.00859905,-0.0176488
-0.0243459,-0.0148011
-0.0353047,-0.00464173
-0.0411961,0.00525942
-0.0386537,0.00511061
-0.036467,-0.00780589
-0.038621,-0.0151553
-0.0382525,-0.0111703
-0.0299073,-0.00244781
-0.00842638,0.00436868
0.00881037,8.78e-05
0.0238243,-0.0233403
0.0493134,-0.0309372
0.165613,-0.0173647
0.350866,-0.0188373
0.403442,0.0487145
0.231719,0.039526
-0.100432,-0.0205997
-0.363538,-0.030591
-0.329088,0.0575524
-0.10455,0.0316421
0.00495456,-0.0356848
-0.0701336,-0.0222782
-0.166844,0.0357409
-0.210892,0.0636007
-0.162429,0.0487219
-0.0497616,0.0287149
0.0265206,0.0141447
0.0229985,0.00941011
0.0506767,-0.0232654
0.0729009,-0.0189932
0.0789622,-0.0173043
0.119541,-0.0447857
0.107639,-0.0181362
0.0735445,-0.0305246
0.0551399,-0.0225377
0.000807185,0.0394335
-0.0310707,0.0322389
-0.0503273,0.00785146
-0.0184338,-0.0042058
0.0166865,-0.00668969
0.0143855,-0.00590509
-0.00394281,-0.0155055
-0.00453343,-0.0200207
0.0099828,-0.025441
0.0174095,-0.0100957
-0.00144663,0.0368361
-0.0334156,0.0499982
-0.0510794,0.0180164
-0.0442811,-0.0131117
-0.0188112,-0.00751594
0.00635899,-0.00651015
0.0116085,-0.00834182
-0.0071686,0.000780982
-0.0109184,0.00747548
0.00733427,0.00525942
0.0251486,0.0266452
0.0373662,0.0212075
0.0261313,-0.0421799
0.00282086,-0.0169919
-0.00124759,-0.0661172
0.00788875,-0.205828
-0.000216353,-0.156056
0.00585555,-0.0455355
0.0129783,0.0810695
-0.0118696,0.123354
0.0259043,0.107673
0.109011,0.152765
0.110481,0.0612471
0.0290295,0.0345745
-0.0950424,-0.0165994
-0.199893,-0.0635417
-0.184322,-0.00210781
-0.0863735,-0.0408465
-0.024825,-0.0211349
0.018552,0.0689046
0.154019,0.043027
0.285909,0.0103068
0.247342,0.0349622
0.0994071,0.036017
-0.0833047,0.00663427
-0.264416,-0.013927
-0.232777,-0.0238107
-0.0590709,-0.0140536
0.0152887,-0.0124054
0.0382658,-0.0211847
0.00434286,-0.0318722
-0.0681219,-0.0192878
-0.0575064,-0.00903189
0.0529814,-0.00329791
0.148269,0.0019293
0.171148,0.00410686
0.1154,0.00464637
-0.00396836,0.00176911
-0.153084,-0.00519313
-0.203277,-0.00883937
-0.11934,-0.0045703
-0.0423339,-0.00457299
0.00273489,-0.00856463
0.0247033,-0.00959695
0.0145189,-0.00851799
-0.00410924,-0.0103211
-0.0217006,-0.00906524
-0.0208903,-0.00554009
-0.0293023,0.00957988
-0.010869,0.0174419
0.145173,0.039854
0.277491,0.00509485
0.241106,-0.0402731
0.0933361,-0.0706048
-0.130278,-0.0406228
-0.220682,0.0393695
-0.156016,0.0190288
-0.0538697,-0.0397297
0.0838984,0.017414
0.276782,0.0963716
0.328544,-0.0386342
0.157903,-0.0683605
-0.101752,-0.0638157
-0.313786,-0.00706513
-0.363783,0.0796959
-0.236641,0.0911572
-0.0992414,0.0488148
0.0252736,0.0232632
0.119246,0.0367314
0.130567,0.0292105
0.0246504,-0.00532601
-0.118863,-0.0051316
-0.158851,-0.000359934
-0.0829101,-0.00571608
-0.0125431,-0.00888368
0.0309743,-0.0205368
0.0569088,-0.0304004
0.0511221,-0.0184423
0.0448494,-0.0144597
0.0475489,-0.0226118
0.0144468,-0.0243519
0.0271875,-0.0179054
0.0599461,-0.00897261
0.0621944,-0.000943622
0.0358717,0.00341581
0.00968793,0.00480804
-0.00308041,-0.00571728
0.00864413,2.2e-05
-0.0107507,0.0245595
-0.0568215,0.0133236
-0.097692,0.012326
-0.0258935,0.00545044
0.070509,-0.000606159
0.120713,-0.00591813
0.156207,-0.0096705
0.157614,-0.00197278
0.120008,-0.00457982
0.0826022,-0.00896982
-0.0105696,-0.0124011
-0.0711477,-0.00309594
-0.0789763,0.00849144
-0.0877718,-0.00650252
-0.118845,-0.0262199
-0.122001,-0.0149941
-0.126198,-0.000649495
-0.0899998,0.00255041
-0.0354714,0.0104943
0.0129708,0.0162398
0.0493563,0.0123003
0.0739816,0.0043634
0.0620232,-0.00212961
0.0356171,0.000684852
0.0705656,-8.61e-05
0.119172,-0.00457155
0.0827927,-0.00346014
-0.00894342,0.00198137
-0.117763,0.00567087
-0.150066,0.012706
-0.102771,0.0331344
-0.0584931,0.0263372
-0.0574589,0.000791002
-0.0246721,0.00291635
0.0531487,-0.0201926
0.110904,-0.0190099
0.100725,0.0071264
0.0261224,0.0197473
-0.0911179,-0.00902187
-0.184825,-0.0343546
-0.134312,0.0392653
-0.00500607,0.0533779
0.0391227,-0.060821
0.0433587,-0.0303304
0.0569536,-0.0162534
0.0634021,-0.00593017
0.0600014,0.0156893
0.0770547,0.0328581
0.092144,0.0274181
0.0785264,0.0190244
0.0592642,-0.00392073
-0.0267118,-0.014112
-0.128116,0.0149979
-0.146638,0.030111
-0.130953,0.00187543
-0.0644373,-0.0507042
0.0538259,-0.0752448
0.117151,-0.0375215
0.139167,0.00831074
0.137623,0.0227944
0.0613083,0.0486288
-0.0332745,0.00198815
-0.120779,-0.0476756
-0.0845331,0.0101699
0.0246389,0.0365522
0.135007,-0.015569
0.192667,-0.037521
0.0847195,-0.00206091
-0.0803116,0.0256441
-0.210513,0.0235815
-0.213115,0.00123697
-0.0975428,0.0396121
-0.0245422,0.0443161
0.00134891,-0.00810039
-0.00598407,-0.0358201
-0.015199,-0.025182
0.0193872,-0.00423339
0.038089,0.00307702
0.0211843,-0.0246735
0.0330043,-0.017905
0.106966,0.0438701
0.173579,0.0178658
0.170494,-0.0103336
0.0616348,0.0231533
-0.115818,-0.00466098
-0.243577,0.00251171
-0.231122,0.000259061
-0.138757,-0.0108476
-0.0743509,-0.023068
0.0066504,-0.0332337
0.0879288,-0.0377281
0.116216,0.0191449
0.0627859,0.0373357
-0.0121315,-0.00662157
-0.0303771,-0.03716
0.0315269,0.00425514
0.113622,0.0198063
0.127838,-0.0220378
0.0671461,-0.065464
0.019399,-0.0370085
-0.0238247,0.0469705
-0.0356514,0.0606043
-0.0296383,0.0190838
-0.0643801,0.0132859
-0.06444,0.0173874
-0.00709534,-0.0119274
0.052467,0.0288448
0.0558486,0.0837912
0.00373484,-0.0568724
-0.0315948,-0.0557355
-0.0344207,-0.010174
0.0192673,-0.0127082
0.101691,0.0149572
0.0790964,0.0103697
-0.0290804,-0.00837691
-0.0867249,0.00330245
-0.134523,0.00225705
-0.11488,-0.0151168
-0.0613878,0.0213796
-0.00547988,0.00766646
0.0287516,-0.00379265
0.0555112,0.0256509
0.0479005,-0.0340143
0.0173222,-0.0599857
0.0360623,-0.047944
0.057879,0.000778039
0.0175306,-0.0403946
-0.00934103,0.0341113
0.0147471,0.109773
0.0630246,0.0190562
0.0748581,-0.0132561
0.000997758,0.0204663
-0.0708195,0.0332636
-0.117923,0.00512259
-0.110215,0.0202788
-0.0730454,-0.014149
0.00153201,-0.0548833
0.0517232,-0.0511931
0.0861165,-0.00939121
0.0895076,0.0206487
0.0208989,0.0250944
-0.0798486,0.00654953
-0.0850655,-0.00786106
-0.0072327,-0.0120225
0.0367886,0.00252799
0.0244202,0.049907
-0.0260803,0.00943995
-0.0818363,-0.00450253
-0.0827129,0.00139542
-0.0411402,-0.00542116
0.0284753,-0.00702749
0.0746947,-0.00483907
0.152458,-0.00304268
0.192936,0.00778313
0.18892,0.00306536
0.166015,-0.0129655
-0.00426289,-0.0184169
-0.202069,-0.00223979
-0.298429,-0.0237378
-0.290428,-0.0296412
-0.131362,-0.0212226
0.0602852,0.0459434
0.132008,0.00547618
0.132029,0.0114247
0.117342,-0.0267404
0.0558889,-0.0371932
-0.0112386,-0.0230609
-0.0283164,0.00304814
0.0427965,0.0043059
0.0321404,0.0253084
0.0332682,0.0205853
-0.00149789,0.021871
-0.0394324,0.0490173
-0.0267295,0.0536039
-0.0411086,0.00965479
-0.0422563,-0.0353623
-0.000709953,-0.00101583
8.9e-05,0.0064307
-0.0311869,0.0362902
-0.0886552,-0.0255982
-0.0924887,-0.035018
-0.0732048,-0.0112876
-0.0546661,-3.99e-05
-0.015952,-0.00382076
-0.00310149,-0.0154716
0.0064897,-0.00610424
0.0429211,0.0160261
0.0871296,0.0296683
0.101782,0.00667932
0.0181221,-0.0524171
-0.0193702,-0.0495206
0.0178373,-0.0180647
0.048547,-0.0173883
0.079391,0.0149312
0.0769586,0.0292608
0.0393231,-0.00081708
0.000640162,-0.0269917
-0.0335941,-0.0207801
-0.0137868,0.0265243
0.0830072,0.0711725
0.157497,0.0364187
0.0811067,-0.0437184
-0.105277,-0.0208451
-0.202137,0.0375843
-0.114162,0.05054
-0.0131797,-0.012272
0.0285674,-0.0621717
0.0169197,-0.0188141
-0.0217704,0.00747668
-0.0499484,0.0100578
-0.0741845,0.00785473
-0.0342354,0.0062794
0.0103144,0.0131625
0.0237117,0.0164612
0.0237377,0.00672163
-0.0103969,0.0123089
-0.0613951,0.0204956
-0.0915084,-0.0122052
-0.0832292,-0.0368437
-0.0179646,-0.00320529
0.0670955,-0.000381913
0.0832524,-0.0819016
0.0487699,-0.0414553
0.0282273,0.0666514
0.0181348,0.0412077
0.0286749,-0.0181187
0.0492413,0.0112469
0.0733911,0.030212
0.0889755,-0.0202553
0.103674,-0.0324266
0.107752,-0.0154594
0.0128894,-0.00835786
-0.0689557,-0.0042819
-0.0397618,-0.0115936
-0.00706866,-0.00296924
0.031731,0.0198647
0.00154188,0.0181386
-0.0660091,0.014094
-0.074966,0.0354906
-0.0284614,0.0197109
-0.0289491,-0.0120134
-0.0907801,-0.015085
-0.141385,-0.0199523
-0.139994,0.0037671
-0.0525677,0.0146834
0.0353691,-0.00864455
0.0422311,-0.00889246
0.0332965,-0.0555135
0.0209367,-0.117503
0.00791182,-0.024594
0.060685,0.0833078
0.103381,0.0794583
0.149109,0.0750848
0.135973,0.0634982
0.0644459,0.0374697
-0.0673686,-0.0121442
-0.164517,-0.0279627
-0.162988,-0.0258606
-0.0435423,-0.0150744
0.0318788,-0.00974896
0.0325731,0.02208
-0.000629557,0.0109917
-0.0192936,-0.0119343
-0.0317356,-0.03204
-0.0180098,0.00934283
-0.00185863,0.00152743
-0.00164208,-0.0301607
0.0141098,-0.060666
0.00408894,0.0242832
0.0132482,0.0403505
0.0375014,0.00854455
0.0167899,-0.0217228
-0.0054018,-0.0378718
-0.00505403,-0.0421195
0.00779589,-0.0138608
0.0200949,0.00378393
0.0011364,0.0513762
-0.0200424,0.0366508
0.049965,0.00848318
0.141819,0.0157334
0.115502,0.0338138
0.0158944,-0.00315987
-0.0785466,-0.0284916
-0.160624,-0.0260787
-0.125653,-0.0257012
-0.0269565,-0.0362042
0.062477,-0.0351199
0.111647,-0.0324899
0.0902478,-0.0386283
0.0817308,-0.00521661
0.0905777,0.0496405
0.0191746,0.0334564
-0.0932887,0.00761192
-0.187883,0.0444321
-0.130165,0.0537227
-0.0292661,0.0263854
0.0109603,0.0172939
0.0354392,0.0205006
0.00366595,-0.00851327
-0.060191,-0.0548994
-0.0758734,0.0132153
-0.084112,0.0140147
-0.072914,-0.0227676
-0.0173741,-0.0118336
0.090795,0.0114442
0.156762,0.00623017
0.118693,-0.0231524
0.0384202,-0.0447872
-0.00757859,0.0395086
-0.0380236,-0.0154588
-0.0316157,-0.0759445
-0.0148203,0.0303624
0.0118895,0.0633036
0.0306179,-0.00269611
0.012198,-0.0194365
-0.0348634,0.0231612
-0.0175132,0.0297037
-0.00928912,0.00770927
-0.0121684,-0.00256837
0.0129282,0.00462192
0.0118553,0.00579663
0.0582059,-0.0234747
0.121102,0.0193594
0.0669855,0.00108298
0.0222566,-0.00177794
-0.0384427,-0.00205801
-0.0723759,-0.00119538
0.00761623,0.00238762
0.0377799,-0.0159613
0.00857954,-0.00624024
-0.0456019,0.0027161
-0.107879,-0.0204793
-0.0962898,-0.00974763
-0.048027,-0.0130495
0.00434998,-0.0236079
0.0243237,-0.00694715
0.0303748,0.0225263
0.0402339,0.0213718
0.0245521,0.0247547
0.0116656,0.0090687
0.00845007,0.0214281
-0.0381782,0.00948237
-0.0884188,-0.00738039
-0.0769456,-0.00166323
-0.0687301,-0.0698232
-0.0508209,-0.0381901
0.00650636,-0.0135855
0.141806,-0.0906915
0.197307,-0.0165809
0.157523,0.0235671
-0.00414655,0.0232307
-0.159706,0.0645776
-0.142461,0.0256777
-0.0703382,0.0107293
0.0122584,0.0126947
0.069675,-0.000743992
0.108349,-0.00588207
0.159293,0.00904348
0.136834,0.0267275
0.0291042,0.00564611
-0.0726787,-0.0173822
-0.146999,-0.00986444
-0.150199,-0.0104017
-0.080454,0.0181993
-0.00661497,0.0406339
0.0402357,-0.00145078
0.0521124,-0.0441472
0.045678,-0.0328581
-0.00113482,0.0157743
-0.027358,0.000544716
-0.0230355,-0.00340901
-0.00225936,0.0448179
0.019457,0.0239769
0.0579369,-0.01547
0.0421222,0.000583832
-0.0212045,0.0108093
-0.0807531,-0.0147854
-0.094478,-0.00712738
-0.0697051,-0.000712274
0.00482495,0.00161138
0.0514787,0.00989353
0.0595367,-0.0114487
0.042108,-0.00934722
0.0592696,-0.00879502
0.114424,0.0120476
0.111322,0.0301667
0.0646931,0.00513626
0.0297072,-0.0250553
-0.0569986,-0.0229729
-0.118576,-0.016055
-0.175361,0.00577901
-0.206898,0.00183278
-0.138238,0.0405137
-0.0108938,0.0429359
0.0791771,-0.0313298
0.0885445,-0.028665
0.0954608,-0.0175534
0.10312,-0.00926212
0.0457825,-0.0367909
-0.0589583,-0.000626271
-0.0785826,0.0285637
-0.059772,-0.0127549
-0.0338307,-0.0155728
0.00930992,0.00203613
0.0263667,0.00701735
0.0180418,-0.00406853
0.0507399,-0.0151767
0.068099,-0.0113786
0.117041,0.0201682
0.179588,0.0214929
0.159895,0.0360083
0.0565989,0.0366209
-0.0592557,0.0293357
-0.154397,-0.0204646
-0.146644,-0.0353951
-0.0820196,-0.0251537
-0.0551064,0.00221428
-0.0783275,0.0137977
-0.0870312,0.0264778
-0.0661027,0.0163302
-0.050843,-0.0114525
-0.0287464,-0.0281372
-0.0157753,-0.0266421
-0.0186387,-0.0064738
-0.0133181,0.000280698
0.0214966,-0.00706366
0.0835894,0.0203638
0.132231,0.0236982
0.129435,0.00921521
0.128668,0.0181434
0.131589,0.0260045
0.0604885,0.0341891
-0.0479926,-0.0417638
-0.0975272,-0.0689539
-0.119812,0.0209287
-0.10343,0.00391921
-0.0393131,-0.0247621
0.0327414,0.00875094
0.0489106,0.00993073
0.0330124,0.0113038
-0.0320287,-0.0130809
-0.0967964,-0.0236678
-0.0574117,0.0104016
-0.0129205,0.0246937
0.0259436,0.0358179
0.0790704,-0.00453113
0.100962,-0.0378888
0.0571697,-0.0220604
-0.0136334,0.00585198
-0.0517083,-0.0148751
-0.0575254,-0.0843125
-0.0471988,-0.0235153
-0.0630136,0.0505946
-0.0707953,0.0339702
-0.0582239,0.00732373
-0.0493719,-0.02728
0.0161049,-0.0694603
0.103912,0.00891906
0.144251,0.0554514
0.14369,0.0578858
0.111712,0.0420125
0.0370177,0.0142147
0.0105493,0.0164731
-0.0397304,-0.00799002
-0.095866,-0.00333239
-0.0825874,-0.00718246
-0.0693519,-0.022366
-0.0427608,-0.0100343
-0.0161653,0.0015555
0.00143736,0.00247879
0.0273028,0.017198
0.036342,-0.0299103
0.0430489,-0.0224761
0.0192253,-0.00845129
-0.0312409,-0.0290823
-0.0793996,0.00354118
-0.100262,0.0169317
-0.0570155,0.0210603
-0.0224012,0.0201452
-0.0161347,0.0113511
-0.0204599,0.00229065
0.00893122,-0.00219054
0.0956456,-0.000381314
0.174718,-0.0135022
0.172141,0.0628554
0.0299427,0.0383471
-0.0554694,-0.0318812
0.0243499,-0.0505879
0.0924854,-0.0565168
0.0911733,-0.037895
0.0195028,0.00296949
-0.0899444,-0.0146025
-0.165668,0.0159683
-0.12338,0.0742759
-0.0277597,0.0785895
0.0883112,0.0107791
0.163395,-0.0421323
0.0807037,-0.0434744
-0.100826,-0.0261672
-0.149173,-0.00357502
-0.0370936,-0.0029401
-0.0178076,0.0507743
-0.0574903,0.0301138
-0.05161,-0.0230883
-0.0320808,-0.0157067
-0.045541,-0.0391095
-0.053666,-0.0416963
-0.0364868,-0.015424
-0.00658292,0.0110061
0.00483752,0.0244823
-0.00394216,0.0201113
-0.00259268,0.00860117
0.00995349,0.00202921
0.0255098,-0.00770908
0.0292318,-0.00368524
0.0279489,0.0147062
0.0519504,0.00468163
0.0880667,-0.00377712
0.0893097,0.000222953
0.0703873,0.00192368
0.0180249,0.000845436
-0.0151028,0.00060347
0.00718393,0.0156224
0.00273386,0.0172057
0.00712227,-0.00950739
0.0374804,-0.0284181
0.024044,-0.010381
-0.00923689,-0.00411101
-0.038884,0.026566
-0.0828206,0.0176789
-0.0431618,-0.032155
0.0360982,0.0250342
0.0259442,0.0233886
-0.0213366,-0.0105364
-0.0315447,-0.0173637
-0.0397831,-0.00492126
-0.00803374,-0.00208647
0.0127069,-0.0126191
-0.0314802,-0.0152163
-0.0412846,-0.0173512
-0.0143503,-0.0144098
-0.00145599,0.0129771
-0.026066,0.0266604
-0.0174919,-0.0128267
0.0583484,-0.0313809
0.124572,0.0385182
0.128734,0.0120113
0.0299411,0.0152934
-0.0898123,0.0318399
-0.0995126,0.0208855
-0.0240603,-0.0664813
0.0301155,0.0243544
0.0405667,0.0620454
0.0288578,-0.00173811
0.0206992,-0.0348769
0.0220405,-0.0175478
-0.0175542,-0.0205052
-0.0794409,0.00211092
-0.103833,0.0135334
-0.0760422,0.00246552
-0.0314498,0.00143016
-0.0177767,0.00292448
0.0143171,-0.0192218
0.0646239,-0.0342429
0.0696435,-0.0267388
0.0302242,0.00684633
-0.0132021,0.0303016
-0.0488538,0.0240279
-0.0714736,-0.00206476
-0.0524475,0.0153539
0.00834662,-0.0142479
0.0451887,-0.00675478
0.0841899,0.0117586
0.168567,-0.0290067
0.220568,-0.0180939
0.143193,-0.00079904
0.00232995,0.00970511
-0.15844,0.0252066
-0.256815,0.0313526
-0.204311,0.00848378
-0.073377,-0.0160015
0.0298443,-0.0367582
0.0516905,9.28e-05
0.043625,0.0294026
0.0331513,0.0302616
0.0211962,0.000146322
0.0225595,-0.0116819
0.0502604,-0.0211686
0.0121915,-0.0162874
-0.0639384,-0.0192686
-0.0472896,-0.00851805
0.00966811,-0.0303239
0.0680818,2.68e-06
0.0695444,0.00808486
-0.0222045,0.00218253
-0.0932404,0.0575142
-0.0478066,0.0188462
0.100685,-0.019838
0.139889,-0.0161625
0.075763,0.0117124
-0.031416,0.00476059
-0.103756,-0.00726518
-0.0956196,0.0325708
-0.0275433,-0.0170094
0.0270044,-0.0212368
0.00881515,-0.0131756
-0.00107909,-0.00416205
0.00485662,-0.0185822
-0.00818038,-0.0310705
-0.03796,0.00403323
-0.0380071,0.0517377
-4.98e-05,0.00344905
0.0378179,-0.00366523
0.0449637,0.00744732
0.0176558,0.00240051
-0.0268982,0.00659301
-0.0392743,0.00421868
0.0123499,0.00927143
0.021932,0.000129171
-0.0331531,-0.0205074
-0.0712393,0.042052
-0.0870965,0.048535
-0.0661551,0.0119279
-0.0209405,-0.00794199
0.039745,-0.023838
0.0415643,-0.00370904
0.0446141,0.0127232
0.095519,-0.053412
0.116343,-0.0472894
0.0658042,-0.0461843
0.0122952,-0.00138848
-0.0033856,0.0419292
0.00624984,0.0217209
-0.0125913,0.0193458
-0.0579852,0.063479
-0.0707294,0.11544
-0.0588163,-0.0133676
-0.0181548,-0.117799
0.0559866,-0.0993996
0.049572,0.00175504
0.0311079,0.0460933
0.0198179,0.0393636
-0.00139243,-0.0289489
0.0251815,-0.0332947
0.0937742,0.00882306
0.131671,0.0288863
0.106327,0.00103197
0.0347261,-0.00359016
-0.0807005,-0.0160337
-0.164675,-0.0332893
-0.151015,-0.0345536
-0.124063,-0.0102939
-0.0587435,0.0387058
-0.0441802,0.0400226
-0.0382199,0.0186233
-0.0265317,-0.000486065
-0.0303243,-0.0134306
-0.00696212,0.015082
0.006854,-0.0144518
0.00351371,0.00184862
-0.00255111,-0.00253039
-0.00621025,-0.0108329
0.039583,-0.011631
0.0977898,-0.0147758
0.122061,-0.0258425
0.0938644,-0.00725797
0.0271501,-0.00955616
-0.040131,-0.0332424
-0.0401103,0.0115178
-0.0110596,0.0341994
0.0126354,0.0400336
0.0178069,0.0252453
0.0227737,0.0345958
-0.0245452,-0.0470244
-0.0588517,-0.0504727
-0.0579988,0.00597106
-0.0375439,0.0411012
-0.00979428,0.00656355
-0.0224729,-0.00668525
-0.0109689,-0.00542718
-0.00184112,0.00597117
-0.00507745,0.00107366
0.0269902,0.0136896
0.0822875,0.0295654
0.0862337,0.00684339
0.0450772,-0.00517039
-0.0121373,0.011518
-0.00319919,0.0193884
0.0435586,0.0112046
0.0402813,-0.00540412
0.0274439,0.0145028
0.0277243,-0.00715731
0.0276348,-0.00351269
-0.0104132,0.0039402
-0.0534275,-0.00238945
-0.0673584,-0.0493246
-0.0647258,-0.131042
-0.0537602,-0.0865338
-0.0596871,0.056979
-0.0748758,0.0542761
-0.0501454,-0.0114892
-0.0270227,-0.00206302
-0.00683468,0.0352405
-0.0100406,0.0256262
0.00130544,0.00698856
0.0486063,0.0163893
0.0944346,0.0135485
0.0689286,0.037619
0.0249913,0.0818336
0.00777305,0.0216072
-0.00263871,-0.0153061
-0.0287236,-0.021626
-0.0259315,-0.00893078
0.0289666,0.00820331
0.121536,-0.0175781
0.142901,-0.0419885
0.0787241,-0.00629806
-0.0391142,0.033146
-0.105135,-0.0195198
-0.0697546,-0.0140587
0.0198469,0.00519421
0.021084,-0.00890875
-0.0388657,-0.00365534
-0.0716106,-0.00271215
-0.0794898,-0.0194199
-0.0833945,-0.0229873
-0.0470768,-0.000682402
0.0297617,0.00861842
0.0319145,0.0151384
0.0249237,-0.0107121
0.0162281,-0.0413687
-0.00324412,-0.0340423
-0.00446964,-0.0570459
0.0209949,-0.0470521
0.0117919,0.0182923
-0.0212521,0.0413185
-0.0186624,0.0278351
-0.000774462,0.0104763
-0.0176514,-0.00275448
-0.0242471,0.00523388
0.00248643,0.0556255
0.0379568,0.00386209
0.040348,-0.00894624
0.024719,0.00572217
0.0190562,0.0308651
-0.024365,-0.00832821
-0.0585201,-0.0222921
-0.0523367,0.0288573
-0.00816786,-0.0116937
0.0447972,0.0084473
0.0680072,0.00891638
0.0853079,0.00497498
0.0803065,0.035781
0.0687084,0.0610131
0.0264791,0.00169762
0.00426973,-0.0522748
0.0225188,-0.0696911
0.019412,-0.00884419
-0.0481026,-0.00720674
-0.125334,0.00693925
-0.135985,0.0192201
-0.0725605,0.0198186
-0.0385571,0.00570249
-0.0254371,-0.0154931
0.00300837,-0.00845927
0.0238346,0.00811155
0.0266356,0.01784
0.0221611,0.00915564
0.0255884,-0.00211101
0.0297584,-0.00227997
0.0229132,-0.00748365
-0.0084251,-0.0107034
-0.0325783,-0.00676597
-0.0124896,-0.0213691
0.00455015,0.00144235
0.00410361,0.0088465
-0.0106531,0.00370691
-0.0162069,0.0123464
-0.0135966,0.0155329
0.00700906,-0.0168348
0.0364011,-0.0272172
0.0556865,0.0503735
0.0534015,0.0269416
0.0529257,0.00252709
0.0465307,0.00965486
0.0426367,-0.017879
0.0607279,-0.011954
0.0606574,-0.00617815
0.00185811,-0.00882689
-0.0798758,-0.00383179
-0.102841,-0.00659943
-0.0787867,-0.00797816
-0.0795145,0.00948356
-0.0829961,-0.0123338
-0.0825243,-0.0160836
-0.0640241,-0.0442617
-0.0476621,-0.0486208
-0.0294162,-0.000177305
0.00945277,0.00426243
0.0512589,0.0139074
0.0630872,0.0343138
0.0435118,-0.00632793
0.0576079,-0.00877529
0.105949,0.0128212
0.142916,0.00954483
0.158609,0.00807951
0.112779,0.0125977
-0.0344745,0.00643705
-0.132064,-0.00204537
-0.16711,-0.00935968
-0.127334,-0.000870357
-0.0484152,0.0108053
-0.00509998,0.0159279
0.0163128,0.00847376
0.0265572,0.00608339
0.0289342,0.0119005
0.00416832,0.0149336
-0.0387282,-0.00739358
-0.0665864,-0.024232
-0.054011,-0.00995394
0.00310289,-0.00305325
0.0826804,0.000750277
0.122333,0.0102193
0.105267,0.0121371
0.0396079,0.00575148
-0.0207354,0.00113307
-0.0643759,0.00111798
-0.103904,-0.00596141
-0.0772307,-0.0102862
-0.00149068,-0.0174704
0.0383714,-0.0211713
0.0203094,-0.0132547
0.0106991,-0.00265133
0.022285,0.00428831
0.0289474,0.0058852
0.0185762,0.00799447
0.00678123,0.00407272
-0.00536843,-0.00147427
-0.0215615,0.000753287
-0.0269451,-0.00280038
-0.00964917,-0.00409808
0.00956092,0.00051393
0.0173886,0.0112208
0.0140587,0.0211426
0.0107741,0.022474
0.0056051,0.0173037
0.0060323,0.0053356
0.00273027,-0.00654212
-0.0201533,-0.0108411
-0.0247363,-0.00901501
-0.0296452,-0.00764164
-0.0207914,0.000294078
0.0338785,0.0024408
0.0701439,-0.00665513
0.0541361,-0.0142154
-0.0235268,-0.0150373
-0.101022,-0.013372
-0.0899324,-0.0110667
-0.0492621,-0.00338649
-0.0174052,0.0126897
0.0284299,0.0199868
0.0489744,0.014759
0.0254083,0.00531203
-0.02515,-0.0056947
-0.0544175,-0.00693576
-0.0338491,-0.00202808
0.0107194,0.00598841
0.0438423,0.00305582
0.102582,0.0057888
0.11436,0.00524794
0.0580823,-0.00702861
0.0109302,-0.00753545
-0.0134942,-0.000609272
-0.029194,-0.00512663
-0.063579,-0.0117384
-0.0565495,-0.00504488
-0.0111077,0.0152939
0.0594793,0.0223019
0.0857235,0.0206189
0.0195321,0.0115142
-0.0641233,-0.000395271
-0.0944941,-0.00811529
-0.0790768,-0.00749383
-0.0601304,-0.00969689
-0.0441643,-0.0146364
-0.0245419,-0.0177885
0.0196885,-0.0180229
0.0640436,-0.0155777
0.0494185,-0.0105102
0.0161992,-0.00362164
0.000227384,0.00220223
0.00202104,0.00331919
0.0331159,0.00590401
0.0505535,0.0232633
0.0427851,0.0270079
0.0142873,0.0227222
-0.0174444,0.0178746
-0.034612,0.00267208
-0.00764265,-0.00654425
0.00254964,-0.000432945
-0.0222468,-0.000956011
-0.0393114,-0.00483481
-0.0241528,-0.00570138
-0.0180885,-0.00800594
-0.025821,-0.0190192
0.0177887,-0.0199169
0.0788698,-0.0156091
0.101949,-0.0141081
0.113144,-0.00201573
0.0746307,0.0192873
0.0276133,0.0271702
-0.00749042,0.02124
-0.0371086,0.0141379
-0.0653541,0.00953355
-0.122803,0.00729939
-0.127412,-0.0018889
-0.100768,-0.0116827
-0.0563978,-0.0106652
0.015064,0.00574359
0.067483,0.0144962
0.079413,0.00939859
0.0477398,-0.00744618
0.00600727,-0.0137921
-0.0331345,-0.017923
-0.075923,-0.0169309
-0.0787337,-0.0127005
-0.0400012,-0.00475213
-0.00891244,-0.00528269
0.0344481,-0.00500343
0.0569121,-0.00231157
0.0587514,-0.00879081
0.0457738,-0.012787
0.0347086,-0.00622421
0.0282928,0.0020224
0.0126447,0.00939934
0.0181108,0.0189514
0.0223134,0.00953562
0.00645397,-0.00681755
-0.00370168,-0.0181423
-0.0124193,-0.0153078
-0.00880091,0.00824746
0.00768228,0.0105161
-0.00453406,0.00852136
-0.0218977,0.0247723
-0.00824231,0.0356244
0.00227326,0.0251003
0.0082778,0.009038
0.0201807,0.00516274
0.0207256,-0.000382511
0.00849409,-0.00555219
-0.0145063,-0.0107899
-0.0260402,-0.0036545
-0.0311993,-0.000456318
-0.0324162,-0.00925332
-0.0376567,-0.0215752
-0.0399247,-0.0166743
-0.0218949,-0.00234231
0.013504,-0.0121489
0.0209247,-0.012523
-0.0158239,0.00783336
-0.0381044,0.0105558
-0.0359939,0.00295564
-0.0295023,0.0010043
-0.0013378,-0.00420288
0.0496507,-0.0122715
0.0796171,-0.0110176
0.0671236,-0.000656509
0.0283356,0.00460845
-0.00801633,0.0167243
-0.00355652,0.0172231
0.0374009,0.00578775
0.0742145,0.00185326
0.0811484,0.0143727
0.055817,0.00465116
0.0161555,-0.00292407
-0.0842726,-0.00911405
-0.149835,-0.00765299
-0.141002,-0.00543203
-0.102004,-0.0150856
-0.0541624,-0.0221444
-0.0072546,-0.0190212
0.0504743,-0.0151172
0.114369,-0.0093882
0.107343,-0.00649927
0.084355,-0.00405781
0.0896593,0.0134369
0.0549607,0.0386158
-0.0350532,0.0499852
-0.107749,0.043172
-0.040083,0.0190677
0.0438429,-0.00411849
-0.0388397,-0.00648456
-0.0697425,0.00605544
-0.0869201,0.0249548
-0.112466,0.0102499
-0.112968,-0.00431798
-0.000865993,-0.00782033
