Comp Ch 3,Comp Ch 4
-0.0227558,0.0101567
-0.0309567,0.0132203
-0.0191402,-0.00198202
0.00258697,-0.00648471
0.00511659,-0.0023629
0.00153186,-0.00268452
-0.00120247,-0.000528938
0.007454,0.0060562
0.0134365,0.00744027
0.025237,0.00332466
0.0396277,0.00404549
0.0286212,-0.00664612
0.00713699,-0.0186067
-0.0219991,-0.00421717
-0.032469,0.0140415
-0.0252011,0.0140086
-0.00675684,0.0142983
-0.0022186,0.0262741
-0.00760393,0.0232979
-0.00435676,0.00683781
-0.00325526,-0.0187639
-0.00664105,-0.015107
-0.00431644,-0.0086816
-0.00187256,-0.00401888
-6.28e-05,0.00880201
-0.00116851,0.0103373
-0.00464422,0.000172859
-0.00361551,-0.0107062
0.000755242,-0.0210858
-0.000796931,-0.0176848
-0.0020486,0.000975577
0.0104199,0.00770577
0.0123259,0.00355782
0.0104739,0.00109781
0.0104143,0.0230076
0.0124592,0.0183853
0.00958131,-0.00546039
0.00157861,-0.00734679
-0.000952046,-0.00342382
-0.00152001,-0.00349644
-0.00155213,0.00394895
-0.00209683,0.0100265
-0.00016374,0.00941084
0.00280064,0.0136577
-0.00250863,-0.00600092
0.00301842,-0.0182456
0.0160059,0.00584167
0.00123975,0.0201872
-0.00465012,0.0181311
0.00992635,0.0164241
0.013738,0.0211494
0.00692795,0.0177012
-0.00194495,0.000314007
-0.0173511,-0.0181091
-0.0243176,-0.0142982
0.00147954,-0.0134636
0.0369956,-0.00901809
0.0473367,-0.002201
0.031567,0.000890466
0.00277308,0.00113827
-0.030937,0.00221267
-0.0544518,-0.0104306
-0.066355,-0.0244913
-0.0597354,-0.0228111
-0.033769,-0.0128285
0.0313736,-0.000398978
0.0587085,0.00319245
0.0391691,0.00575258
0.00452517,-0.00237609
-0.0336564,-0.0142571
-0.0554347,-0.0103762
-0.0463854,-0.00267879
-0.0379496,-0.00357687
-0.0238246,0.00268022
-0.00474642,0.00957651
0.0180378,0.0077008
0.0351448,0.00465399
0.0497799,0.00430757
0.0584469,-0.00980043
0.0409075,-0.0151501
0.0060427,0.000118258
-0.0243162,0.00568906
-0.0399804,0.00482806
-0.0240597,0.0113568
0.00267986,0.0139318
0.016347,-0.00882818
0.0308792,-0.0308449
0.0304762,-0.0113766
0.0140852,0.0122551
-0.00347552,0.00618434
-0.0220222,0.0120433
-0.0349439,0.0186742
-0.0401961,0.009805
-0.031134,-0.00543785
-0.0177663,-0.00286095
-0.00465703,-0.0142464
0.00874551,-0.0125293
0.0149296,0.00310724
0.0155745,0.00214566
0.0103476,0.0024004
0.00291542,0.010578
0.00625364,0.00847228
0.0140827,-0.00993441
0.0099131,-0.0178436
0.0173577,-0.00168296
0.0717743,-0.00517778
0.127332,0.00441283
0.11417,0.0212619
0.0554898,0.0217773
-0.0257879,0.0126887
-0.0813444,0.00912707
-0.0929726,-0.00844652
-0.0878239,-0.0231003
-0.0814027,-0.016792
-0.050869,-0.00556907
-0.00981142,-0.00314513
0.00957085,0.0128256
0.0131017,0.0215131
0.00578225,0.0190602
-0.0094858,1.3e-05
-0.00778853,-0.0110819
-0.0145179,-0.00528838
-0.0244124,-0.00324229
-0.0337606,-0.00536895
-0.024574,-0.00717619
-0.00760403,0.00908776
0.00367921,0.0101014
0.0124265,-0.00330166
0.0185135,-0.0157389
0.0336946,-0.0187572
0.0642259,-0.00671602
0.104918,0.000803973
0.120604,0.00147823
0.0774619,0.0103402
0.0261572,0.0208283
0.000300816,0.0135685
-0.0284191,-0.00404653
-0.0697965,-0.0023523
-0.113645,-0.00422225
-0.0984801,-0.00542606
-0.0573349,0.002707
-0.0320396,0.00587169
-0.0214198,0.00638675
-0.0096596,0.0101819
-0.00376565,-0.00632844
0.00370531,-0.0298684
0.0126361,-0.0336928
0.049456,-0.0178628
0.0663563,-0.000108117
0.0390427,-0.000446014
-0.00587844,-0.00112504
-0.0292684,0.0137552
-0.0268893,0.0105491
-0.0262394,-0.00403197
-0.0209961,-0.00709041
-0.00513094,-0.00195297
0.00960291,0.00312724
0.014339,0.0152294
0.0181569,0.0234275
0.0183559,0.0186606
0.00750344,0.013766
-0.00356054,-0.000834947
-0.00377631,-0.0136063
-0.00318236,-0.00353472
-0.00162744,0.0034382
-0.010558,0.00100117
-0.0209687,0.00710695
-0.020074,0.0139878
-0.00866588,0.00918064
0.013799,-0.00616624
0.0368725,-0.0117391
0.0845989,-0.00506403
0.121338,-0.00193027
0.0951276,0.00166056
0.0420593,0.00432387
-0.0242692,0.00258778
-0.0800545,-0.00134349
-0.0730997,-0.00175389
-0.0636676,-0.021297
-0.0510441,-0.0231811
-0.0361436,-0.010406
-0.0319026,-0.000439231
-0.0308466,0.0032975
-0.0175302,0.0142389
0.0100355,0.0260678
0.0471569,0.0148798
0.057029,-0.00281608
0.0333711,-0.00713656
0.00180383,0.000416229
-0.0414731,0.00401733
-0.0602764,0.00908376
-0.0312795,0.00884905
-0.0157317,-0.00902284
-0.00995375,-0.00310321
0.00791452,-0.00638125
0.0212069,-0.0154865
0.018662,-0.0208817
0.00989271,-0.0163246
0.0128951,0.00584189
0.0316941,0.00828893
0.0347177,0.0101625
0.0159182,0.0097901
0.0026501,0.00464356
-0.00404868,-0.00714411
-0.0180418,-0.0124938
-0.0238596,-0.00715165
-0.0220402,0.0115305
-0.0152754,0.011034
0.00041828,0.00801467
0.00881799,-0.00156133
0.0119479,-0.000895211
0.0206331,-0.00425232
0.0189747,-0.0126449
0.00151665,-0.00287835
-0.0125473,0.00369439
-0.00654854,0.00152939
-0.00638142,0.0113979
-0.0131971,0.0166039
-0.0146503,0.0113211
-0.0089059,-0.00240053
-0.00497896,-0.0118266
0.00135717,-0.00519985
0.00954254,-0.00387789
0.00955842,-0.00195756
0.0055264,0.00250135
0.00743791,0.00557534
0.0178118,0.00230387
0.0428679,0.00025279
0.0463426,-0.0131217
0.0253229,-0.0153781
0.000395986,-0.00426032
-0.0207398,0.00298817
-0.0134582,0.00139612
-0.019423,0.00691776
-0.0327109,0.0163545
-0.0298393,0.00977268
-0.0126575,-0.00745127
-0.0130331,-0.0125504
-0.0470771,-0.0123167
-0.0528657,-0.00780236
-0.0217201,-0.000950746
0.00111063,0.00434379
0.0333036,0.00248355
0.0627782,-0.00358025
0.0688329,-0.0100145
0.0597813,-0.0220282
0.0419353,-0.0123603
-0.000266365,0.0015217
-0.0329118,0.00155599
-0.0340835,0.0120929
-0.035013,0.0226573
-0.0146358,0.0210466
0.00750012,0.00898618
0.0206175,-0.00386325
0.0157503,-0.00522956
-0.00487099,-0.00671597
-0.0283559,-0.00537096
-0.0384897,0.00528976
-0.0301489,0.0165601
-0.0262746,0.0197615
-0.0173887,0.013463
-0.00379562,-0.00428227
-0.00619884,-0.0245627
-0.0153738,-0.029133
-0.012727,0.00761303
0.00146478,0.0151007
0.00799002,0.0229706
0.000387712,0.0227082
0.000713123,0.0119431
0.0127969,-0.00827559
0.0215166,-0.0230679
0.0192806,-0.0179314
0.0163782,-0.0154384
0.0143593,-0.00728226
0.0151865,0.00251127
0.02026,0.00367445
0.0212015,0.00226089
0.0220395,0.00341523
0.0460977,-0.011516
0.0392856,-0.0233198
0.0182271,0.00186796
0.00717842,0.0167964
-0.00274759,0.00939847
-0.00888,0.0147555
-0.0142143,0.0194798
-0.0327978,0.000723816
-0.0455137,-0.0192712
-0.0421951,-0.0157415
-0.0288897,-0.0100781
-0.0158463,-0.000681402
-0.00208021,0.000965361
0.0120318,-0.0084193
0.00932023,-0.00454865
0.0117403,-0.0055628
0.00564295,-0.0105706
-0.00111352,-0.00918501
-0.0141324,-0.00502915
-0.0352018,0.0102506
-0.0415111,0.0140929
-0.0357948,0.0147548
-0.0297716,0.0193743
-0.0135437,0.0209191
0.0131228,0.00402397
0.0668002,-0.0221389
0.134336,-0.02894
0.189672,-0.0284863
0.175634,-0.00348322
0.0848608,0.0131477
-0.0441239,0.0157432
-0.154176,0.0156383
-0.171162,0.016391
-0.133641,0.000746912
-0.105115,-0.0159695
-0.0483863,-0.0137542
0.0221364,0.00501275
0.0472038,0.012924
0.013315,0.0146685
-0.0148235,0.0241778
-0.014893,0.0211074
-0.0117356,-0.00544555
-0.0394716,-0.0205799
-0.0505765,-0.0131164
-0.0208072,-0.0145598
-0.00595957,-0.0133415
-0.00489391,-0.01686
0.00971926,0.0105141
0.0287257,0.0117901
0.0441458,-0.0274891
0.0668088,-0.00708224
0.0607639,-0.000395073
0.0411317,0.0064996
0.0374578,0.0162634
0.0341968,0.0152679
0.0229965,0.0198946
0.00507851,0.0314252
-0.00952407,0.0230134
-0.0163886,-0.014813
-0.0141853,-0.0200112
-0.0147483,-0.0241128
-0.0222327,-0.00862272
-0.0156337,0.00762233
-0.000129271,0.0048273
0.0107567,0.00502721
0.00867601,0.00370874
0.00222236,0.00470545
0.00216654,-0.0139391
0.00798807,-0.0206932
0.0116652,0.00446377
0.00566127,0.00485045
-0.00501599,0.00321848
-0.00802472,0.00603235
-0.0106357,0.00853775
-0.00512578,0.0202317
0.00718485,-0.00550778
0.00826448,-0.0156995
-0.00408465,-0.0143105
-0.014382,-0.0166238
-0.0121471,-0.00418473
-0.000148201,0.0123274
7.78e-05,0.000967176
-0.00823241,0.00159016
-0.0342485,-0.00411636
-0.0468499,-0.0239201
-0.0324279,-0.0107215
0.000217002,-0.00209934
0.0293727,0.0108339
0.045267,0.0209419
0.0426672,0.022368
0.0268597,0.0161716
0.009719,-0.00532431
0.00920047,-0.0189785
0.00369595,-0.0203513
-0.0063917,-0.00370054
-0.0124506,0.00186509
-0.00964271,0.000239367
-0.0118789,0.00583497
-0.0129091,8.72e-05
-0.00818162,0.0103169
0.0131787,0.0228077
0.0207598,-0.0210183
0.00357359,-0.0303709
-0.0164632,-0.00608789
-0.035225,0.00813916
-0.0294505,0.0241948
-0.0454867,0.0379927
-0.0684108,0.0200438
-0.0564503,-0.0115226
-0.0537004,-0.0264479
-0.0303398,-0.0246346
0.0349374,-0.0205994
0.0963713,-0.00292653
0.107316,0.00089659
0.0811837,0.00080556
0.0512534,-0.0204603
0.0430586,-0.0186822
0.0185668,-0.0042518
-0.0085176,-0.00539406
-0.0238649,0.010975
-0.0390494,0.0711193
-0.031229,0.118619
-0.0261444,0.104671
-0.00892336,0.0773471
0.0124873,-0.0132294
0.0281213,-0.146607
0.0340668,-0.138037
0.0186794,-0.0758525
-0.00486852,-0.0274865
-0.00375236,0.00053644
0.0124326,0.0185897
0.0218847,0.0311499
0.00923186,0.0649459
-0.0215158,0.0350895
-0.0605128,-0.0118118
-0.0703461,-0.0528584
-0.0725919,-0.0490451
-0.0687174,-0.00972344
-0.0304908,-0.0125016
0.0378032,-0.00190479
0.0745785,0.025363
0.0683569,0.0175688
0.0491106,-0.00572282
0.0249019,-0.00429529
-0.00480485,-0.0106944
-0.0343056,-0.011362
-0.0391218,0.0211737
-0.0187345,0.0346783
-0.0102918,0.0143121
-0.00976333,0.0116136
-0.00482625,-0.0111636
0.00806017,-0.0356068
0.0247736,-0.0164758
0.0342787,0.00161921
0.0330852,0.000164696
0.0252582,0.0035537
0.0168741,0.0230827
0.0104736,0.019768
0.00307283,-0.00711328
-0.0102298,0.0247096
-0.0276874,0.0473777
-0.0322121,0.00811334
-0.0372455,0.000243861
-0.0278109,-0.0139569
-0.00838844,0.00491963
0.001437,0.0418158
0.00566589,0.0484129
0.0177706,0.0303074
0.0158332,-0.00945155
0.00548372,-0.0605882
-0.0168572,-0.0666696
-0.0075306,-0.0557676
0.0146924,-0.0493136
0.00716345,-0.0298083
-0.0159516,-0.0440601
-0.030855,-0.00997578
-0.0142453,-0.00143872
0.0148814,0.0324101
0.00495503,0.0364713
-0.00403957,0.0292174
-0.00184429,0.0352362
0.00514437,0.0290903
0.00910459,-0.00597494
0.0113555,-0.0335727
0.01638,-0.0224466
0.025255,-0.00374685
0.0271083,0.0157172
0.0167058,0.0404063
0.0074948,0.0409821
0.000886973,0.0254635
-0.00737151,0.0058617
-0.00462677,-0.0321861
-0.00113174,-0.0560769
-0.011607,-0.0369703
-0.0193075,-0.0159166
-0.0222889,0.0360707
-0.0032243,0.0874044
0.00909822,0.0752256
0.0118428,0.00845245
0.0290196,-0.0250697
0.0191315,0.010759
-0.0345949,0.0075318
-0.0409987,0.00229454
-0.0195002,-0.0667444
0.00185011,-0.10445
0.0378831,-0.0305356
0.0690681,0.0299256
0.0609368,0.0201485
0.0466527,0.00605826
0.0173381,-0.0165871
-0.0291918,-0.0244506
-0.117101,-0.0540647
-0.309509,-0.0367615
-0.423831,0.0428747
-0.312031,0.0312721
-0.100377,0.0918841
0.173522,0.0338529
0.395511,-0.0608512
0.396162,-0.0788873
0.245799,-0.00403079
0.176587,0.0242617
0.115472,0.0375631
0.0358871,-0.0150695
-0.0821035,0.0703349
-0.26096,0.0491844
-0.383958,-0.0709341
-0.260683,0.0407571
0.0297582,0.0387688
0.289983,-0.0434378
0.402019,0.0242947
0.315226,0.0192485
0.146203,-0.0289832
-0.0386534,-0.0196281
-0.138483,-0.0209246
-0.126863,-0.0352014
-0.10726,-0.0310664
-0.0612045,-0.0037805
-0.0121007,0.0109854
-0.00965696,0.00714652
-0.00240361,0.0220307
0.0149596,0.0259459
0.0160367,0.000147181
-0.0130017,-0.0398533
-0.023751,-0.0266772
-0.0242795,-0.00476155
-0.0308617,0.00410867
-0.0198302,0.00497829
0.00658225,0.0130593
0.00917878,0.0137062
-0.0308195,-0.00860731
-0.0621598,-0.0273582
-0.0443561,-0.0223844
-0.0167231,-0.00168889
-0.021414,0.0122327
-0.0418181,0.0244196
-0.0396588,0.0215013
-0.0269967,0.0497765
0.0269244,0.0326304
0.0839795,-0.00391106
0.0693814,-0.0176728
0.0268817,-0.023932
-0.00404969,-0.0128709
-0.0156549,-0.0215205
-0.00813934,0.0026148
0.00107652,0.0230512
-0.00187582,0.0102919
-0.0149652,0.000560419
-0.0263413,-0.0136306
-0.0150059,-0.0123428
0.00227856,0.00781724
0.013566,0.0199821
0.00221536,0.0202421
-0.010125,0.00778375
0.00430352,0.0135833
0.023437,0.00636211
0.0266045,-0.0346308
0.0227153,-0.0465205
0.00866828,-0.0405067
-0.00848373,-0.0221348
-0.010792,-0.000684448
-0.000721859,0.037726
-0.000973285,0.0251835
-0.0171551,0.00739779
-0.0297068,-0.00640989
-0.0244023,-0.00728435
-0.00322453,0.00799952
0.0150332,0.00188669
0.0223449,0.0143499
0.0106464,0.020705
-0.00530863,0.0236632
-0.00414005,0.0268467
0.0102972,0.00925576
0.0240646,-0.0112707
0.0142592,-0.0234712
-0.00841346,-0.0390588
-0.00741563,-0.0211417
-0.00152583,-0.000587667
0.000544807,0.00668096
0.0103385,-0.0357972
-0.00122264,0.000993337
-0.0152014,-0.00295146
-0.0102709,-0.0480866
0.00461202,0.0110442
0.00693029,0.0485183
0.0243863,0.0303282
0.0241948,0.0122346
0.00522603,0.0276685
-0.00476066,0.0190216
-0.0241405,-0.0376546
-0.0401104,-0.0648958
-0.0173571,-0.0249092
-0.00982822,-0.0011497
-0.00449294,0.0276263
0.00919347,0.0299922
0.0283617,0.0315845
-0.0207949,0.00919433
-0.0759796,0.00613484
-0.077267,-0.0295235
-0.0330412,-0.039513
0.0726482,0.0211621
0.132495,0.0238374
0.118032,-0.0111281
0.0581306,0.00650085
-0.0101589,0.00174921
-0.0528992,0.0147997
-0.12052,0.0218918
-0.124812,-0.00824648
-0.0874087,-0.0230675
-0.0162503,-0.0266094
0.0924648,7.6e-05
0.158758,-0.0017517
0.121156,-0.00537212
0.0576473,0.000619771
0.0269147,-0.00833958
0.0232013,-0.0195892
0.0157985,-0.00203524
0.00900269,0.0240135
-0.0224704,0.0350251
-0.0490362,0.0261858
-0.0604482,0.0237545
-0.040945,0.0266013
-0.00525673,0.0102851
0.00633146,-0.0224852
-0.000372689,-0.0229275
-0.00951019,-0.0246516
-0.0273454,-0.0241852
-0.0276288,-0.0224435
-0.0106345,-0.0018224
0.0043412,0.0038676
-0.00210135,-1.61e-05
-0.0178938,-0.0179332
-0.0287231,-0.0372744
-0.0435329,-0.0183873
-0.0516141,-0.00382302
-0.0321998,0.00767729
0.00393531,0.0480329
0.0327006,0.0494025
0.0313279,0.0217752
0.0299405,-0.0151807
0.0547506,-0.0202943
0.0435141,-0.0189345
0.0206654,-0.0238874
-0.00321635,-0.00493393
-0.0147508,0.0194982
-0.0137388,0.0278975
-0.00915185,0.0140344
0.0145668,0.0150854
0.0300316,-0.0267219
0.0132567,-0.0303805
-0.000378848,0.00612712
-0.0164337,0.0240536
-0.0265972,0.0169878
-0.0251736,0.0260184
0.0231845,0.0240174
0.0392028,-0.00643295
0.00379149,-0.0218983
-0.00175981,-0.0341402
-0.00189185,-0.0314758
-0.0323999,-0.016415
-0.0678347,0.000219939
-0.064787,0.00709411
-0.0599642,0.0125634
-0.0357367,0.0520292
-0.0203969,0.0484728
-0.00561366,-0.00508864
0.022417,-0.0309134
0.0743159,-0.069186
0.0988806,-0.0194967
0.0675276,-0.00349823
-0.0310203,0.00801758
-0.065819,0.0456501
-0.00822403,0.0124179
0.0602409,-0.0159207
0.080675,-0.0284951
0.0515376,-0.00388073
0.0150216,0.058077
-0.00369546,0.0748111
-0.024582,-0.0653251
-0.0331652,-0.0254909
-0.00653702,0.0170803
0.00463398,-0.01664
0.00570006,-0.00496705
0.0114238,0.0361288
0.0298966,0.0476174
0.035563,0.0219844
0.0261178,0.0205208
-0.000275749,-0.00695885
-0.0781876,-0.0435364
-0.139465,-0.0600728
-0.115081,-0.0401234
-0.0533613,-0.0351334
0.015794,-0.0231156
0.0470499,-0.0116712
0.0579044,0.00521744
0.0529945,0.0253193
0.0254328,0.035415
0.0171619,0.01458
0.0062915,0.00305709
-0.00339905,0.0197829
-0.00670682,0.0367149
-0.00168159,0.0326377
-0.00313688,0.0206525
-0.00340112,0.00497579
0.00733639,-0.0260927
0.0301819,-0.0593026
0.0394441,-0.0614769
0.0323053,-0.0366125
0.0239171,-0.0299321
0.00786052,-0.020226
-0.00808024,0.00516623
-0.0327552,0.00133813
-0.0541769,0.026545
-0.0580523,0.0227386
-0.0370104,-8.89e-05
-0.0135315,0.0143306
0.00397874,0.0508695
0.00457604,0.0428738
-0.00364234,0.0287183
-0.00242942,0.0280903
-0.00119965,0.0135457
0.0164334,-0.0306333
0.0306878,-0.0522584
0.0367327,-0.0329462
0.0284735,-0.0282025
0.00516419,-0.0295752
-0.0150729,-0.0143339
-0.0213629,0.00847864
-0.0155269,0.0192334
-0.0164772,0.0167382
-0.0281396,-0.0344196
-0.00706077,-0.0340913
0.00532494,0.0222735
0.00953621,0.0608741
0.0105817,0.0476159
0.0107292,0.0317255
0.0106166,0.0272161
0.00735698,0.000890007
-0.013399,-0.0347407
-0.0606982,-0.0436709
-0.0559913,-0.0259024
-0.0137341,-0.0288847
0.0343962,-0.0199511
0.0762191,-0.00642246
0.0844843,0.0118585
0.0153422,0.0100855
-0.0528608,0.0484382
-0.0581497,0.0169504
-0.033956,-0.00685327
-0.0351153,0.0324772
-0.0107392,0.0309705
0.0243035,0.016534
0.0240721,0.0115794
0.017386,0.0155964
0.0283212,-0.0101949
0.0570564,-0.0433661
0.0583556,-0.0497131
0.0252391,-0.038848
-0.0455462,-0.0291284
-0.082722,-0.0151061
-0.0596037,0.00176589
-0.0271693,0.0319266
0.0270757,0.0549046
0.0551992,0.0523988
0.0193862,-0.0119648
0.0252877,-0.0306943
0.0229405,-0.00814507
0.0202815,-0.00372789
0.00678743,0.0205789
-0.00794096,0.037852
-0.0119668,0.00740034
-0.00829406,-0.0218833
0.00213913,-0.0506907
0.0144279,-0.036849
0.0266583,-0.0126791
0.00731063,-0.01466
-0.0152137,-0.00101935
-0.0252812,0.024047
-0.0187059,0.0158857
0.00248883,0.0112532
0.0132109,-0.00261479
0.00453733,0.00411977
-0.0188149,0.00260016
-0.0372183,0.00689161
-0.0151515,0.0109698
-0.012442,-0.00730717
-0.00775578,-0.00865816
0.0135807,0.0168526
0.0353372,-0.00596529
0.0116369,-0.0571196
-0.0267622,-0.0604544
-0.0202788,0.00661875
-0.00624246,0.0349161
-0.00414764,0.0195587
0.0257933,0.0134977
0.0445007,0.0318711
0.0194542,0.0316595
-0.0122418,0.00124532
-0.0284062,-0.0150942
-0.0425467,0.00560469
-0.0484199,0.019618
-0.035404,0.0125936
-0.0120664,-0.000342458
0.00552051,0.00756506
0.0156772,0.00361792
0.0328287,-0.0186887
0.0361662,-0.0378698
0.017698,-0.0450466
0.00694945,-0.0158899
0.00234594,-0.00366348
-0.0012973,0.00897771
0.00113072,0.0165795
-0.0063872,0.0142665
-0.0123422,0.0267053
-0.00737648,-0.00651239
-0.0105387,-0.0225685
-0.0177685,0.00322609
-0.0139651,0.0144507
-0.00748204,0.0121669
-0.00410399,0.0109969
0.000572709,0.00529539
0.00761078,-0.0177201
0.0189655,-0.0403079
0.0363178,-0.0223887
0.050032,-0.00683894
0.0410161,-0.000616077
0.0493456,0.00152882
0.0619198,0.0260314
0.0391728,0.0303479
0.00301742,0.0322007
-0.0191963,0.021802
-0.0479954,-0.0083609
-0.0679028,-0.0101993
-0.0572124,0.00652316
-0.0344252,-0.00405811
-0.0368193,0.00498132
-0.033727,0.0130727
-0.0143949,0.0191915
0.0103815,-0.0142982
0.0206028,-0.0733146
0.0454892,-0.0600008
0.0463839,-0.00370189
-0.00476532,0.0128628
-0.0364082,0.0231374
-0.033626,0.0257463
-0.0230288,0.0120585
0.0071014,0.0113419
0.0169754,-0.0131379
-0.00139811,-0.0328854
0.00328964,-0.00692899
0.0259531,0.0043574
0.031925,0.00283747
0.0220779,0.0157429
-0.00109954,0.0166199
-0.0241603,0.0134279
-0.0279405,-0.00318635
-0.0176735,-0.0106853
-0.0222655,-0.00253453
-0.0441513,0.00141127
-0.0378918,0.0385931
-0.0063042,-0.00391398
0.0571413,-0.0403477
0.111772,0.0285712
0.0819384,0.0382345
0.0327701,-0.0375725
-0.00924051,-0.0354907
-0.0412537,0.0182294
-0.0372744,0.0478161
-0.0394725,0.042984
-0.0400331,0.00119952
-0.00981171,-0.0379474
-0.000415477,-0.071068
-0.0100377,-0.0455713
-0.0037981,0.0129523
0.00387268,0.0151683
-0.0261766,-0.00295893
-0.0788737,0.0016927
-0.145585,0.0275633
-0.128756,0.0234624
-0.0211583,0.0201744
0.0601052,0.019228
0.0844343,-0.0155275
0.147415,-0.0350876
0.158302,-0.0212058
0.0860034,-0.00885928
0.0494545,-0.0223432
0.0326172,0.0156489
0.0142654,0.0659488
0.013378,0.0299484
-0.0082418,-0.0033585
-0.0392995,-0.0134213
-0.0360876,-0.00716606
-0.0206507,-0.0138103
-0.0160982,-0.0199295
-0.0120174,-0.00504225
-0.0306007,-0.00798242
-0.028741,0.0242984
-0.0332303,-0.00163156
-0.0158516,-0.0265784
0.0283236,-0.0124684
0.0510783,4.28e-05
0.0265673,-0.00251374
-0.00890825,0.00598876
-0.0376169,0.00185587
-0.0287457,-0.00195026
0.00783139,-0.000748956
0.0318785,-0.00488912
0.0188435,-0.00294842
-0.00123912,0.00286223
-0.00421644,0.0239213
0.0158498,0.0294389
0.0186718,0.0148624
0.0158628,0.0023217
0.0442286,0.00215244
0.0396443,-0.0260389
-0.0353318,-0.0355938
-0.100814,-0.0204397
-0.0924134,-0.0108709
-0.0394734,0.00834278
-0.0209867,0.00560949
-0.0274246,0.0176596
-0.0192335,0.0111006
-0.00424098,-0.0125531
-0.00081001,-0.0052814
-0.0149276,0.00191619
-0.00862229,0.00829718
0.0157618,0.0223393
0.0253812,0.0219551
0.119513,0.0237387
0.198305,0.00461871
0.230703,-0.0245843
0.157906,-0.0439116
0.0166677,-0.0283677
-0.093114,-0.0116774
-0.123482,-0.0170522
-0.113985,-0.00912744
-0.0767505,0.0189964
-0.0794383,0.0153853
-0.102023,0.0169556
-0.144127,0.0546871
-0.135292,0.119679
-0.0674378,0.0940738
-0.0092799,-0.0575471
0.0144758,-0.130517
0.0214846,-0.0546923
0.0072969,0.00238965
-0.0131372,0.00227024
-0.016434,-0.0296412
-0.0164795,-0.0602208
0.00066957,-0.0300176
0.0478883,-0.0237817
0.0770792,0.0277555
0.0632492,0.0276172
0.0551434,0.0407972
0.0632599,0.0515206
0.0707853,0.0218079
0.0349807,-0.019559
-0.0204072,-0.0446042
-0.0165943,-0.017964
0.0283582,0.0135585
0.0433754,0.0337614
0.0919871,0.0267513
0.110879,0.00212069
0.0669524,-0.00559947
0.0328494,-0.0118288
-0.0367363,-0.0112197
-0.124296,0.00601776
-0.131899,0.00738495
-0.12009,-0.00571214
-0.102881,0.000912821
-0.0600563,0.00687638
0.0113768,-0.00340952
0.0464507,-0.0209041
0.0293475,-0.0293615
0.0379841,-0.0171489
0.072999,0.0182411
0.0523436,0.0402827
0.0360362,0.0368752
0.0494496,0.00965434
0.0603021,-0.0124629
0.0378029,0.00145089
-0.0234642,-0.00923652
-0.0752467,-0.0114694
-0.0970085,-0.00535977
-0.0556106,-0.00486909
-0.0361416,-0.0101258
-0.0508017,-0.00868575
-0.0175588,0.0122617
-0.00563458,0.00415905
-0.0143048,-0.00929697
-0.00828958,-0.00663143
-0.00385172,0.00468532
0.0110486,-0.00661009
0.0634152,0.0127065
0.0694215,5.29e-06
0.0474975,-0.00705996
0.0332742,0.000391411
0.00507049,0.00879967
-0.0617119,0.00622923
-0.0507219,0.0108924
-0.0160431,-0.000504435
0.0216622,-0.0207536
0.111438,-0.0139239
0.126418,0.00775927
0.100416,0.000772441
0.0396556,-0.00847166
-0.0551354,-0.0152349
-0.144471,0.00336626
-0.16984,0.00197988
-0.128177,0.0132888
-0.0811477,0.0317209
-0.045663,0.0302896
-0.0249739,0.0183758
0.0452724,0.00144104
0.0985801,-0.025582
0.092205,-0.0292167
0.0450243,-0.0106993
-0.0218523,0.00163976
-0.0331919,0.00032436
0.00235704,-0.00232535
0.00545132,0.00862087
0.0088296,-0.000301698
0.0503345,-0.0129444
0.0633541,-0.00405842
0.0321008,-0.00161167
-0.00878629,-0.0169686
-0.0521747,-0.00772858
-0.0293209,0.0262652
-0.0139716,0.013573
-0.00226661,0.0137698
0.0167428,0.00252167
0.0139097,-0.00981875
0.0156603,-0.00883412
-0.0226718,-0.00807575
-0.0633675,-0.0112445
-0.0585568,-0.00694496
-0.0469376,0.00400167
-0.0280686,0.0169359
0.0165721,-0.0125262
0.051728,-0.0233122
0.0523587,-0.00333346
0.0688399,0.00210315
0.0995772,0.0155506
0.0864892,0.033614
0.028514,0.0285843
-0.0328062,0.000779798
-0.0699623,-0.00553469
-0.0828952,-0.0113029
-0.0547478,-0.042637
-0.0211176,-0.0160975
-0.0145204,-0.00430663
-0.00806974,-0.0158611
0.0021543,-0.0188602
0.0315474,0.028156
0.106784,0.0288897
0.116446,0.00194218
0.0541353,-0.00615951
-0.0210395,0.000941934
-0.0707829,0.00512002
-0.0936486,0.00977871
-0.0897302,0.0232864
-0.0381865,0.0214098
-0.0147246,-0.0152844
-0.0168174,0.0229803
-0.0230321,-0.01912
-0.0167456,-0.0292569
0.00221737,-0.0108521
0.0165157,-0.0205189
0.0176805,-0.00688584
0.0160903,-0.004533
0.0311545,0.0154742
0.0367028,0.0189572
0.0245254,-0.000205588
0.00708627,-0.0124588
-0.00135653,-0.0055352
0.014896,0.00147371
0.0277537,0.0331717
0.00565737,0.0393321
-0.0149313,0.028756
-0.0210148,0.0153213
-0.0217952,-0.00525028
-0.0222159,-0.0257557
-0.00553194,-0.0321216
0.00912804,-0.0173445
-0.00894655,-0.00815382
-0.032705,0.000140394
-0.00597734,0.0122066
0.0318429,0.0199382
0.0223659,0.0171061
0.0126406,-0.0169619
0.0210785,-0.037304
0.0301843,-0.00939196
0.0104793,0.00558603
-0.00798541,0.0196415
-0.00988946,0.0237961
-0.0105006,0.0115775
-0.0155785,0.0034557
-0.0209386,-0.0114666
-0.0138076,-0.027199
0.00620785,-0.0243411
0.0153154,-0.0228674
0.0114521,-0.0297441
0.0101596,-0.0179166
0.0100449,0.00437659
0.00462243,0.0154824
0.00407163,-0.00483508
0.017998,0.00319645
0.00986082,0.0126162
0.0025506,0.0118291
-0.00608677,0.0173657
-0.0456338,0.0285776
-0.115041,0.0328903
-0.118974,0.0177029
-0.0781203,-0.00298323
-0.0222385,-0.0192471
0.0373275,-0.0384305
0.0677179,-0.00842408
0.0685333,0.00701997
0.0688694,0.0180566
0.0687798,0.0059342
0.051577,-0.00823409
0.0405363,-0.0102502
0.0344692,-0.00979683
0.0233598,0.00229034
0.00399353,0.00571551
-0.0155758,0.00913972
-0.0247135,0.0272318
-0.0201465,0.0277674
-0.0156697,0.005234
-0.0144523,-0.00141608
-0.0180736,-0.0211079
-0.0332046,-0.0255101
-0.0436576,-0.0201408
-0.0373911,-0.0146723
-0.0341968,-0.022697
-0.0483979,-0.0253408
-0.00770206,-0.000744615
0.0558108,-0.00973352
0.075856,-0.0228207
0.0736263,-0.0100486
0.0591323,0.0035127
0.0349314,0.04603
0.00267494,0.0402552
-0.0261781,0.0345198
-0.0467538,0.0278917
-0.0561597,-0.000778568
-0.0422042,-0.0170621
-0.0188768,-0.054844
-0.0155842,-0.00767229
-0.0239445,0.0169008
-0.00152412,0.00527386
0.0108819,0.00177256
0.00414488,-0.00436082
0.00257102,0.0252113
0.00355848,0.0317115
0.0103815,0.0112424
0.0206769,0.00798935
0.0165584,0.000678024
0.0140669,-0.0166067
0.0103581,-0.0257965
0.00388552,-0.017821
0.0110752,0.0153379
0.0347808,0.0182851
0.0615606,-0.0188126
0.0447537,-0.0257637
-0.0192665,-0.0221675
-0.0999707,-0.0206849
-0.161016,0.00562329
-0.134279,-0.0138875
-0.0331425,0.00292705
0.0550604,0.0287771
0.0747908,0.012897
0.0792261,0.000101462
0.0762765,-0.00125839
0.0432212,0.00260017
-0.00352922,-0.00267783
-0.0284498,0.0142458
-0.00434714,0.0411877
0.0204493,0.0333794
0.0123375,0.00638538
-0.000531419,-0.0171287
0.00869766,-0.0360725
0.0235095,-0.0136757
0.0263025,-5.3e-05
0.0163877,-0.00204204
0.00679973,-0.0047659
-0.00207515,-0.00951916
-0.0212221,-0.000629477
-0.0262243,0.00840767
-0.000819368,-0.0140492
0.00593497,-0.0146712
-0.0232349,-0.00556374
-0.0366453,0.00853774
-0.0316906,0.010755
-0.0157025,0.0181607
-0.0143569,0.0139556
-0.0226588,0.00175995
-0.0186848,-0.0227776
-0.0235524,-0.0547669
-0.0325517,0.00544329
-0.0403201,0.0458343
0.0012724,0.0188891
0.0522365,-0.00952973
0.0758447,0.00784621
0.0559345,0.00336937
0.01882,-0.00701886
0.00823382,-0.00773237
-0.0151377,0.0272434
-0.0740612,0.0373443
-0.0578157,0.0230526
-0.0120834,-0.0120245
0.0294969,-0.0370595
0.0689213,-0.0665808
0.0860995,-0.0146463
0.05948,0.0209423
0.0229366,-0.00375025
0.0101099,0.00690235
-0.0051716,0.00860487
-0.0162857,-0.0160079
-0.028505,-0.0109146
-0.0449452,0.0192084
-0.0346068,0.0127779
-0.0131092,-0.0226937
0.00288159,-0.0387728
0.00357231,-0.00657379
0.00300134,0.0235727
0.00650934,0.0291638
0.00393105,0.0263304
0.00777469,0.0194045
-0.0258519,0.00934228
-0.0606807,0.00151855
-0.058678,-0.0415286
0.00614985,-0.032039
0.0953064,0.0248997
0.0800604,0.0391756
0.00774751,0.0243671
-0.0189356,0.0349154
0.0180639,0.00919738
0.05422,-0.0133061
0.0548283,-0.00403891
0.0398362,-0.0306495
0.0334862,-0.0562802
-0.000760893,-0.0375689
-0.0509569,0.0177781
-0.071917,0.0323695
-0.0734515,0.0274492
-0.0916154,0.0208276
-0.0843121,-0.0116846
-0.0743057,-0.0359508
-0.195767,-0.049848
-0.238659,-0.0438547
-0.0934652,-0.0741271
0.113286,-0.0207604
0.131287,0.0371937
0.0921595,0.0265042
0.0968234,0.0145392
0.0919656,0.0172658
0.0736695,0.0361492
0.128812,0.0593641
0.084721,0.0285283
-0.00788152,-0.00280801
-0.0524871,-0.00317001
-0.0421004,-0.018758
0.00407238,-0.0109534
0.0850672,0.0188894
0.164243,0.0020949
0.118114,0.0156895
0.0314803,-0.00316756
-0.0621888,-0.00785117
-0.135916,-0.0203094
-0.200432,0.00769347
-0.115258,0.0114033
0.00302398,-0.00597566
0.0921184,-0.000859868
0.121675,-0.00099247
0.0552459,0.0136529
-0.00920677,0.013534
-0.026231,-0.0142196
-0.0286593,-0.0169752
-0.0506908,0.0129249
-0.0418478,0.0504847
0.0046863,0.0159351
0.0643807,-0.0534361
0.0599348,-0.0388271
0.0235359,-0.0230842
-0.0456625,-0.0462886
-0.0965251,-0.0188051
-0.0843787,0.0303463
-0.0528861,0.019839
-0.0492669,-0.00338031
-0.0533939,-0.00293592
-0.0568484,0.00137556
0.0252569,0.0246418
0.121074,0.0369513
0.0863876,0.0402249
0.0379658,0.0391359
0.0142276,0.0165671
0.0356008,-0.0228472
0.0654061,-0.0382205
0.077067,-0.0419466
0.0714057,-0.0657697
0.0598545,-0.0044202
0.0325426,0.0225198
-0.00320633,0.0268382
-0.0328954,0.00676552
-0.0869552,-0.0197063
-0.090681,-0.0289183
-0.0385301,-0.0118975
0.0233973,-0.00657648
0.0482486,0.00527815
0.0106321,0.00243661
-0.0435586,0.0205654
-0.0713342,0.0239046
-0.179427,-0.00700563
-0.291989,-0.0313182
-0.357394,-0.00316391
-0.234972,0.0441766
0.0564253,0.0846834
0.311255,0.0458516
0.403167,-0.001536
0.317276,-0.0317883
0.169657,-0.0331339
0.0627277,-0.0479454
-0.0132804,-0.0207465
-0.051821,0.0465531
0.00881477,0.00282606
0.0950543,0.0208895
0.07457,0.0451376
-0.0301146,0.0250851
-0.11142,-0.00447275
-0.141168,-0.024227
-0.126915,-0.0408391
-0.0643368,-0.0342101
-0.0598264,-0.0112971
-0.029412,-0.0290296
0.0182123,-0.077
0.0176567,-0.0228152
-0.187445,0.0100682
-0.309765,0.0467978
-0.247773,0.026422
-0.017155,0.0280489
0.265633,0.00635492
0.33108,-0.00909406
0.226865,-0.00347238
0.229935,0.00624142
0.211432,0.0131551
0.0747229,-0.0128887
-0.0342763,-0.0508446
-0.0641052,-0.0682014
-0.0915957,-0.0166051
-0.151674,0.0362332
-0.191368,0.0510831
-0.0914041,0.0371336
0.0550962,0.0280126
0.11259,0.0412649
0.0773728,0.000549168
-0.00251966,-0.0303127
-0.066879,-0.056094
-0.0377741,-0.030905
0.055441,-0.00728417
0.103016,0.0181502
0.0758884,0.071747
0.0273185,0.0452201
-0.0107477,0.0116395
-0.0215105,-0.0100087
-0.0172988,-0.0285702
-0.0304086,-0.030665
-0.182709,-0.0193488
-0.224638,-0.00307136
-0.0932409,0.0102675
0.0962564,0.0157298
0.193758,0.0134927
0.162326,0.00119757
0.0566583,-0.00595382
-0.0518038,0.00143711
-0.0948768,0.00276827
-0.0798861,0.0319147
-0.0364622,0.0358901
0.00429747,0.0246476
0.0164067,0.012826
0.0115893,-0.0220459
0.0247725,-0.0167678
0.0517732,-0.004769
0.0681363,-0.0159668
0.0605279,-0.014775
0.0215334,-0.0118207
-0.0278333,-0.00970516
-0.0584323,-0.0112108
-0.0594484,-0.0316506
-0.0413107,-0.055882
-0.0787118,-0.0369797
-0.149707,-0.049414
-0.10117,0.036571
-0.0257145,0.090003
0.0408013,0.0466187
0.109839,0.041986
0.130282,0.0388316
0.113753,-0.00809567
0.0925924,-0.0715839
0.093151,-0.0662461
0.0833859,-0.0222347
0.0468401,0.00571097
-0.0112094,0.00330062
-0.057856,-7.26e-05
-0.0857807,0.0136271
-0.125116,0.0171236
-0.140317,0.00349256
-0.0966175,-0.00137241
-0.0166705,-5.89e-05
0.0285681,-0.018281
0.0551564,0.0130442
0.0155337,0.0345589
-0.111937,0.00672836
-0.170586,-0.0126394
-0.105859,0.011372
0.0519063,0.0259444
0.15608,0.0404639
0.05808,0.0177939
-0.104943,-0.0126531
-0.00344061,-0.0147749
0.176183,0.00642227
0.268401,0.0363892
0.185808,-0.0113376
0.0526679,-0.0391694
0.0313541,-0.0234666
-0.0195491,-0.00761234
-0.0999773,-0.01598
-0.178239,-0.0234643
-0.155513,-0.012495
-0.160009,-0.0322787
-0.216751,-0.0225022
-0.0813797,-0.0301808
0.0695606,-0.0361319
0.149174,-0.0189167
0.222749,0.0129325
0.231881,0.0382686
0.127568,0.0416813
0.0144839,0.0269788
-0.0436375,0.00506295
-0.0239912,-0.00844736
-0.00279178,-0.0046787
-0.019489,0.0360253
-0.0305102,0.0369606
-0.0147794,0.0213557
0.00663652,0.0107342
0.0172815,-0.011498
0.00717601,-0.0144327
0.00623276,-0.0108541
-0.0165075,-0.0159457
-0.0389573,-0.0193733
-0.0239099,-0.00928785
-0.00802161,0.00357033
-0.0187225,0.0139504
-0.0479083,0.0194452
-0.0904259,0.024238
-0.0676333,0.0154127
0.0213728,0.0140844
0.041885,0.0257463
-0.00415992,-0.0190233
-0.0349671,0.0182813
-0.0478584,0.0151899
0.00069288,0.0291006
0.0520602,0.0232699
0.073724,-0.0219765
0.0516094,-0.0411648
0.0244041,-0.0337718
-0.000546872,-0.0406165
-0.000371905,-0.028489
0.0128095,0.00169559
-0.0154497,3.79e-05
-0.05741,0.00412549
-0.0583648,-0.0148342
-0.0276057,0.00549958
-0.00894507,0.00991521
-0.0113953,0.0178313
-0.0419069,0.00468522
-0.0671404,-0.0269341
-0.0271487,0.0085543
0.0337229,0.00717268
0.0816272,0.042298
0.0855878,0.00478004
0.0895284,-0.028943
0.0663803,-0.0122921
0.0193374,-0.000976541
-0.0118235,-0.0141663
-0.0132176,0.000378432
-0.0130416,0.00898535
-0.0276606,-0.035007
-0.0320172,-0.00895986
-0.022443,0.00342389
-0.00484686,-0.0356166
-0.0157938,-0.0330227
-0.0468708,0.0187416
-0.114441,0.0454663
-0.131491,0.039781
-0.0136534,0.0355667
0.0883391,0.0174184
0.167843,-0.00874722
0.18443,-0.0176178
0.12714,-0.0248097
0.0226379,-0.0120233
-0.115359,0.0220617
-0.151243,0.0275291
-0.128851,-0.00567074
-0.0697327,-0.0120543
0.00430647,-0.0264053
-0.000284003,-0.0385006
-0.0449577,0.0053822
-0.0391116,0.0581013
0.0341696,0.040834
0.101704,-0.028228
0.0943903,-0.0422175
0.111372,-0.0271247
0.0691087,0.0190083
-0.0609034,0.0120205
-0.113052,-0.0239927
-0.0185543,0.00191956
0.104119,0.0113003
0.132314,-0.0238527
0.0444385,-0.0446607
-0.0282951,-0.00197007
-0.0391864,-0.00273307
-0.00853564,-0.00560778
-0.00202906,0.00545981
-0.026125,0.00505352
-0.00902268,0.012979
0.0149925,0.0227068
0.0111589,0.0281341
-0.0303268,0.0158982
-0.119344,-0.00162673
-0.154063,-0.00594605
-0.136682,-0.0154759
-0.0556768,-0.0202918
0.0781621,0.00355946
0.147079,0.0175898
0.0796529,0.016763
0.0100376,0.0261377
-0.0651072,0.0273852
-0.0713768,0.019041
0.00786118,0.0177495
0.0832146,0.00409881
0.0848744,0.00491542
0.0404031,0.0133686
0.0109887,0.0177198
-0.00205838,0.022058
0.0179865,0.0205331
0.04099,0.00173496
0.0201042,-0.0191578
-0.01954,-0.0260993
-0.0394448,-0.0364746
-0.00985752,-0.0152246
0.0405204,-0.0012897
0.0198408,-0.000736142
-0.0101902,0.00395661
-0.0219064,0.00263754
-0.0187728,-0.00888637
-0.00795391,-0.0100672
-0.00207333,0.00431237
-0.0119055,0.0153228
-0.00824446,0.0102373
-0.00133695,0.00518504
0.00693621,0.00283373
0.0226279,-0.00500072
0.0200085,0.00355459
0.0122602,-0.0253361
-0.00643613,-0.10047
-0.0547058,-0.126565
-0.0532943,-0.0507948
-0.0192058,0.000230801
-0.0136411,0.0231038
-0.0071452,0.0540054
0.0121678,0.0209231
0.0182877,-0.0142243
-0.0157919,0.00533955
-0.0625802,0.013545
-0.0498187,0.0103594
-0.0274067,0.0300873
-0.038881,0.0256738
-0.0355224,0.00482061
-0.0240832,-0.00306428
0.00577117,-0.0069147
0.0456706,-0.00210832
0.0843973,0.0132058
0.0369696,0.0102189
-0.0159643,0.00719408
-0.0161414,0.0107197
0.0335941,0.00195095
0.0545325,-0.0175561
0.0612614,-0.00846788
0.0837428,0.0248503
0.0705028,0.0252938
0.0481951,0.025192
0.0433402,0.0163117
0.0174145,0.00517695
-0.0390621,0.0165792
-0.0814015,0.0202317
-0.0853045,0.00783958
-0.120645,-0.0167006
-0.190733,-0.0329745
-0.131348,-0.0315867
0.00791151,-0.0327615
0.0944255,0.00125286
0.118436,-0.019155
0.117335,-0.0157259
0.100622,0.00910661
0.0268688,-0.00204386
-0.0180077,-0.0034349
-0.0615593,-0.0174955
-0.0519048,-0.016847
-0.0340219,0.00787098
-0.00521982,0.0162338
0.0412488,0.0273794
0.0405615,0.0218065
0.0242143,0.0248154
0.0507112,0.0125662
0.0812133,-0.00261721
0.0572354,-0.0036398
0.0157746,-0.000333173
-0.0196393,-0.0021406
-0.0426951,-0.00673172
-0.0615478,-0.00739683
-0.0792021,-0.018649
-0.0849538,-0.0224861
-0.0857193,-0.0258285
-0.0801499,-0.0264406
-0.0242594,-0.0046343
0.0513971,0.0844632
0.0668465,0.0566352
0.0868278,3.74e-05
0.0988943,-0.010772
0.0435,0.0130525
-0.0695228,0.00822245
-0.0815459,0.00678636
-0.020168,-0.00661859
0.0599852,-0.00424224
0.0998644,-0.000287545
0.0597887,-0.0014629
-0.0333889,-0.000281175
-0.062695,0.0113235
-0.0462264,-0.00557919
-0.0169961,-0.0195095
0.0129811,-0.00587847
0.0304038,-0.00833562
0.0243343,-0.0019295
0.0058792,0.0112427
0.00344449,-0.00668877
0.0122882,-0.00856435
0.0162751,-0.00636904
0.0134456,-0.0198997
0.00247206,-0.0217973
-0.0210006,-0.00899295
-0.0308139,0.00313214
-0.0329066,0.0109666
-0.0267944,0.016757
-0.0300437,0.0179246
-0.0262898,0.00605538
-0.0112372,-0.000458055
-0.000531822,0.0017802
0.0102762,-0.000918297
0.0194668,-0.00216746
-0.00905965,-0.00381806
-0.0284647,-0.00654727
0.0146618,-0.00809745
0.0599402,-0.00637519
0.0643541,-0.0200317
0.0323193,-0.0445137
-0.0141537,-0.0145514
-0.0260835,0.0184699
-0.00341259,-0.0169142
0.0227321,0.00818609
0.0285511,0.0537854
0.0131322,0.0271939
-0.00565553,0.0155668
-0.00348871,-0.00426395
0.000969554,-0.00478356
0.0229421,-0.00914736
0.0024157,-0.02691
-0.0715805,0.00972303
-0.244835,0.0238532
-0.424539,0.0042718
-0.429344,-0.00668635
-0.234066,-0.0295125
0.103732,-0.0510357
0.382062,-0.0139141
0.504627,0.024117
0.408559,0.0280725
0.204375,-0.00427876
0.0600573,0.0298532
-0.0250851,0.0235376
-0.0715619,-0.0188114
-0.0677242,-0.0226579
-0.0708858,-0.0178138
-0.0982141,-0.0107038
-0.0125759,0.0109443
0.0245857,0.0015823
0.0307396,0.0121117
0.0546044,0.0329072
0.0802399,0.00839288
0.0770601,-0.0172192
0.037429,-0.0139985
-0.0465346,-0.000347265
-0.104305,0.0177709
-0.0961778,0.0132074
-0.0837428,-0.00229146
-0.0675876,-0.0240803
-0.0429999,-0.0313131
-0.0325476,-0.0214058
0.0028365,-0.00788571
0.0331957,0.00923168
0.0184908,0.0167007
0.0301515,0.0172107
0.0467963,0.0270395
0.0326437,0.0313019
0.0162443,0.0181049
-0.0154061,0.00317442
-0.0480944,0.00462383
-0.0293022,0.0157973
0.0230605,0.0105881
0.042205,-0.00105235
-0.000462241,-0.00676348
-0.0322877,-0.0150199
-0.0278609,-0.0164198
-0.0197814,-0.0199586
-0.0340883,-0.0193952
0.00774545,-0.0217741
0.0519109,-0.015737
0.0467308,-0.00839532
-0.0168181,0.0125811
-0.11867,0.0331914
-0.0972156,0.0159119
-0.011599,0.00349819
0.0644944,0.000227787
0.103656,0.00639129
0.0914682,0.00573755
0.004013,-0.00541952
-0.111093,-0.00275041
-0.14804,0.0104543
-0.0681172,-0.000333691
0.0326042,-0.0218914
0.0924746,-0.0313891
0.105304,-0.0175877
0.0963359,-0.00775074
0.0821498,0.00343884
0.0494241,0.0180806
0.0296464,0.0234801
0.0374974,0.0141381
0.0248228,0.00477845
-0.00912549,-6.5e-05
-0.0247728,-0.00335362
-0.0547523,-0.00605394
-0.0721549,-0.0029069
-0.0438539,0.0188572
-0.0349174,0.0234022
-0.0401409,0.00859079
-0.037912,-0.0157512
-0.0278327,-0.0395539
-0.00877877,-0.0454374
0.0239009,-0.0230191
0.039016,-0.013813
0.0357744,-0.00815957
0.0309743,-0.0139597
0.0336167,0.0262103
0.033566,0.0541174
0.0302915,0.0313479
0.0135293,0.00691381
-0.0261336,0.00692676
-0.0846167,0.0113694
-0.149594,-0.00606097
-0.156777,-0.00326406
-0.111821,0.00544534
-0.07645,0.00790488
-0.055654,-0.00970636
-0.0432013,-0.0360284
0.0247845,-0.0104977
0.139337,0.00599533
0.215651,-0.0418417
0.188272,-0.0463403
0.12305,0.0255141
0.0535191,0.0486721
0.0171759,0.0274417
0.0289233,0.01351
0.0255267,0.0104157
-0.00290948,-0.00017159
-0.0343867,0.0169462
-0.0446622,0.0162332
-0.0328836,0.0114496
-0.037742,0.0282777
-0.022075,-0.000928686
-0.0100921,-0.0408717
-0.0271287,-0.0569929
-0.0302669,-0.0551641
-0.0242632,-0.0406825
-0.00447754,0.0158565
0.00659428,0.0356404
0.00512189,0.0167226
0.0107778,0.00706542
0.00708132,0.00648365
0.0129949,0.00981564
0.00215025,0.00575685
-0.0181531,0.0104336
-0.0233244,0.0102355
-0.00544364,0.00138813
0.00360113,0.00381384
-0.00262587,0.0129892
-0.00765124,0.00492077
-0.0029839,-0.0110575
0.0120552,-0.00713164
-0.00373156,-0.0038723
-0.0172613,-0.00753709
-0.00223452,-0.00391893
0.0222576,-0.00217879
0.0396716,-0.0011903
0.0154399,-0.000870917
-0.0118216,-0.000237641
-0.0108189,-0.0097188
-0.00900507,-0.0132172
-0.0191361,-0.00987213
-0.0210796,-0.00606391
-0.0239204,0.0122947
-0.10457,0.0195047
-0.195789,0.0161332
-0.193147,-0.00864073
-0.109855,-0.0283618
0.0157937,-0.00773374
0.130876,-0.0142276
0.221262,-0.0188397
0.262942,0.0235942
0.16673,0.0497728
0.0563784,0.0179362
0.0065955,0.00496985
0.00915624,0.000167889
0.015253,-0.00821335
0.00340314,-0.0070098
-0.00715059,-0.0118428
-0.0258571,-0.0333504
-0.0379533,-0.0187933
-0.0435365,0.0284523
-0.0381091,0.00763937
-0.0118305,0.0110316
0.0135611,-0.00984034
0.0165054,-0.0296493
0.0166317,-0.016503
0.00988577,0.00753756
-0.0123962,0.00761181
-0.0258342,0.0127291
-0.0218711,0.010784
-0.00737525,0.0107206
-0.00115672,0.000877584
-0.00472435,-0.00217695
0.00304409,0.00467299
0.0122645,-0.0150351
0.0256393,-0.0159471
0.0135722,0.0206555
-0.00551646,0.0573342
-0.00665468,0.00314599
-0.00385017,-0.0329201
-0.0673261,-0.00500427
-0.0974611,-0.000816137
-0.0921905,-0.0105377
-0.078965,-0.00382424
-0.0233458,0.0142572
0.0204408,0.00343823
0.0385994,0.0002786
0.0290851,-0.00351523
0.000221531,-0.0153606
-0.0488876,-0.0148862
-0.118294,0.00103108
-0.0394823,0.000537399
0.0790299,0.00713488
0.143464,0.0248778
0.143873,0.0191475
0.132657,0.00644486
0.0969319,-0.0179515
0.00837006,-0.0231997
-0.0530749,-0.027396
-0.0517228,-0.00492742
-0.0599603,0.00795339
-0.0303877,0.0120864
0.00987065,-0.00677005
0.0173072,0.015217
0.0201978,0.00571367
0.00594635,-0.0205862
-0.0102605,-0.00351035
0.0042287,0.0372752
0.0210854,0.0418193
0.0104819,0.00350569
-0.00629152,-0.0266844
-0.0188628,-0.0177906
-0.0291108,-0.00944525
-0.0424784,-0.0132328
-0.0415054,-0.00660794
-0.0261737,-0.00241025
-0.00605542,-0.0144231
0.0311234,0.0112932
0.031667,0.0378865
0.0112001,0.0264724
-0.000398453,-0.00310986
0.0113376,-0.0230101
0.0157947,-0.0292215
-0.0294412,-0.0090421
-0.0482419,0.0120019
-0.0158964,0.013809
0.0138004,0.0117517
0.0202001,0.0120259
0.0304192,0.00267777
0.0170926,-0.0337827
0.000704776,-0.0088929
0.00616999,0.0151568
0.00683256,0.0043156
-0.0016528,-0.00517822
-0.0222608,-0.00825814
-0.0274271,-0.00646161
-0.0293541,-0.00768232
-0.0291314,0.000337124
-0.0380291,-0.00327157
-0.042679,-0.00614722
-0.0306967,-0.00319821
-0.0149473,-0.00267456
-0.0184878,-0.0073258
0.0100468,0.0332156
0.0421664,0.0208807
0.0693024,-0.000287857
0.0257104,-0.015347
-0.0429416,-0.0133454
-0.0247924,0.00553858
0.0236104,0.0116962
0.0618284,0.00945183
0.0744546,-0.000391461
0.0546342,-0.00380905
0.0164952,0.00614275
-0.0274643,-0.014753
-0.0229215,-0.046831
0.0109827,-0.0366726
0.0362632,0.0164999
0.035743,0.0442987
0.0230938,0.031196
0.0134593,0.0240419
-0.0178946,0.00696212
-0.0229035,0.000669599
0.00780134,-0.00459584
0.0256788,-0.0156862
-0.00668422,-0.0269074
-0.0442571,0.00530212
-0.0338921,0.0257547
-0.0202517,-0.00588336
-0.00503274,0.000525438
0.000663567,0.00395163
0.0142822,-0.00362381
0.0199834,-0.0138529
0.0160137,0.0159451
0.020774,0.017099
0.0319769,-0.00548575
-0.00220804,-0.0378092
-0.0914291,-0.0253782
-0.197714,-0.00108839
-0.304474,0.00785249
-0.280594,-0.0033817
-0.111606,-0.000381594
0.101408,0.00975175
0.235989,-0.00922761
0.247817,-0.00195563
0.186686,0.0206942
0.079818,0.00675365
0.00366792,-0.00974296
-0.0097848,-0.0276249
0.0427466,-0.0143814
0.0703674,0.0351662
0.0767091,0.0318556
0.0771444,0.0175804
0.0424567,0.0186795
-0.000807336,0.00495899
-0.0227536,-0.0150099
-0.0162162,-0.0322131
-0.0169583,-0.0206364
-0.031133,-0.00575976
-0.0611525,-0.0135709
-0.0751738,0.00229652
-0.057764,0.033936
-0.0208403,0.0198848
-0.00609552,0.00793723
-0.00814949,-0.00122567
-0.00571022,-0.00636227
-0.00452839,-0.00145568
0.00491129,0.00513231
0.0182052,0.00657996
0.0217509,0.0107393
0.00380919,0.0138458
-0.0146494,-0.00849542
0.00192416,-0.00878175
0.00892822,-0.00610506
-0.0305356,-0.0283591
-0.0723251,-0.046181
-0.0735594,-0.0337583
-0.0516727,0.00874965
-0.0363634,0.0375282
-0.0188621,0.0235293
0.010117,0.00534891
0.0580761,-0.00608532
0.0934401,-0.0122343
0.051446,-0.00656236
0.0448573,-0.00367313
0.0572507,-0.00205957
0.0451763,0.00844198
0.0141011,0.0220016
-0.0299764,0.0132514
-0.0792895,-0.00796916
-0.067714,-0.0370729
-0.0177973,-0.0102356
0.0338909,0.0290743
0.0477272,0.0578048
-0.0146583,0.03695
-0.0438348,0.000897713
-0.00724658,-0.0236598
0.0103066,-0.0485255
0.0110942,-0.0303972
0.0369207,-0.0105797
0.0512284,-0.0040516
0.0345656,-0.00428138
0.0279641,0.0171015
0.0198854,0.0320138
-0.000575913,0.0140966
-0.00405153,-0.0116836
-0.00366461,-0.00889026
-0.0149813,-0.0111331
-0.0373109,-0.0239798
-0.141225,0.00231518
-0.183188,0.0182161
-0.0731073,0.00572221
0.0495379,-0.00541483
0.121026,0.00714957
0.11164,-0.000127518
0.072002,-0.00842501
0.05215,0.00143787
0.0260742,-0.000741478
0.00829974,0.00164257
-0.0152817,-0.000999326
-0.0378032,0.011675
-0.052206,0.00700431
-0.0456105,0.00338545
-0.0244655,-0.0026726
0.0159446,-0.00665959
0.0488329,-0.00422572
0.0412111,-0.00659949
0.00444189,-0.00044493
-0.0826199,0.00286216
-0.134801,0.00178378
-0.149739,0.00787407
-0.128866,-0.00499724
-0.0264449,-0.0160775
0.0949219,-0.0134271
0.168335,-0.0183332
0.179474,0.00469312
0.123629,0.0286217
0.0439259,0.0163502
0.0131946,-0.00160012
0.0211562,0.0148214
0.00905849,0.0119102
-0.0423475,-0.00374656
-0.0602418,-0.01253
-0.0141306,0.00598314
0.0268165,0.0108537
0.0435046,0.00502693
0.0193285,0.002783
-0.0202203,-0.00067802
-0.0306027,-0.021587
-0.0504848,-0.0274436
-0.0457973,-0.00498404
-0.016551,0.00310002
-0.00495986,-0.0181477
-0.0242993,-0.0284429
-0.0518676,0.0362327
-0.0534758,0.0203579
-0.0303598,-0.0161186
0.0440728,-0.0186852
0.0875308,-0.00468527
0.0896613,0.0263783
0.0607012,0.0152853
0.0123806,0.00182513
-0.0162119,0.00832823
-0.00984954,0.0234215
-0.00472082,0.00590874
-0.0120684,-0.016024
-0.0200018,-0.00918832
-0.0330323,0.0104516
-0.0637574,0.0169853
-0.0764746,0.0166359
-0.0435734,0.0147422
-0.00993697,0.0023612
0.00274094,-0.0126781
0.027536,-0.0162811
0.0366367,-0.0160382
0.0275145,-0.0179708
0.0249267,-0.00604583
0.0292056,-0.00329079
0.0111099,-0.00433226
-0.0157634,-0.022884
0.00586476,-0.00737331
0.0192268,0.0109419
0.0312883,-0.00510755
0.0297901,-0.0108407
-0.00111701,-0.00451591
0.00468434,0.0116045
0.0110181,0.0218776
-0.00149081,0.0262824
-0.00853715,0.0272874
-0.00163194,0.00276601
-0.0008175,-0.00913585
0.014984,-0.0109054
-0.00803945,-0.0156827
-0.0688137,-0.0220298
-0.110668,-0.0357233
-0.0847437,-0.0125059
-0.0367171,0.0075006
0.00272905,0.0238435
0.0359749,0.00796129
0.0642475,-0.00520043
0.0581062,0.0027776
0.0521273,0.0107771
0.0509536,0.0120949
0.0404201,0.0177521
0.0167507,0.0171997
-0.00724978,-0.00558684
-0.0295581,-0.00494051
-0.074492,0.0147002
-0.0689638,0.019839
0.000360677,-0.00676875
0.0416705,-0.00968928
0.0807527,-0.018319
0.0749565,-0.0145499
0.0333618,-0.00275977
0.025175,-0.0176351
0.0024384,-0.0389578
-0.0288029,0.00375643
-0.0650443,0.0081365
-0.0980933,-0.0206457
-0.164626,-0.00438479
-0.230399,0.00632993
-0.166454,-0.0441024
0.0017149,0.0276201
0.144072,0.0264789
0.216447,0.0150643
0.221806,0.00958835
0.172218,0.0129039
0.113805,0.0131622
0.0502252,0.0199389
-0.00858114,0.0215802
-0.0604414,0.0143648
-0.0875649,1.5e-05
-0.0696252,-0.0111158
-0.0650131,-0.00628568
-0.0564153,-8.27e-06
-0.017677,-0.000772128
0.0301198,0.00163564
0.050959,0.0112809
0.050182,0.0044771
0.0439042,-0.0184644
0.0146162,-0.0243812
-0.0138699,-0.016752
-0.0415211,-0.0123778
-0.0548549,-0.00440303
-0.0549242,0.00485754
-0.0439653,0.00369149
-0.0154719,0.00698355
0.0223471,0.00670373
0.0492814,-0.0051128
0.0244425,-0.00260422
0.0016345,0.00598927
-0.0015111,-0.0110611
-0.0146206,-0.00192047
-0.018109,0.0110873
-0.0768499,0.0462722
-0.185102,0.0245201
-0.146596,-0.0208114
-0.0510734,-0.027765
0.0596669,-0.0260809
0.147619,-0.0137268
0.168412,-0.00305323
0.124301,0.0153832
0.0386171,0.010301
0.00394594,0.0118331
-0.00832002,-0.00841197
-0.0114206,-0.0196564
-0.00994308,-0.000889954
-0.0192491,0.0229408
-0.00840151,0.00962305
0.00644207,-0.0144905
-0.00327396,-0.00450116
-0.016542,-0.00429769
-0.000293876,-0.0270215
0.00118661,-0.0315688
-0.0105782,-0.00620093
-0.00614377,0.00429637
0.0344933,0.0144931
0.0457686,0.0224053
0.0211349,0.014441
-0.0294621,0.00314402
-0.0582349,-0.000575523
-0.0469193,0.00163829
-0.00768449,-0.00840255
0.0129621,-0.00710425
0.0107361,0.00363087
0.00884484,0.00903596
0.0100355,0.0127494
0.0127457,0.01427
0.0198485,0.00765084
0.0359964,-0.0079058
0.043169,-0.0113834
0.0204783,0.00203232
-0.00287262,0.0171762
-0.00950763,0.00584958
-0.00740358,-0.00331228
-0.00575739,0.000878452
-0.0345819,0.000589075
-0.0853125,-0.00045735
-0.107786,-0.0129178
-0.0571765,-0.0178142
-0.0147409,-0.00805213
-0.0204144,0.0061057
-0.0376652,0.00108489
-0.0152187,-0.000381158
0.0415839,0.00888262
0.103181,0.00807492
0.115174,-0.0102203
0.0731769,-0.0115889
0.013418,-0.00811235
-0.0115329,0.0031316
-0.0333243,0.000755637
-0.122155,-0.0071323
-0.158072,0.0239003
-0.169917,-0.00271746
-0.0812301,-0.0323031
0.076544,-0.0279287
0.138635,0.0174063
0.152597,0.0185322
0.168727,-0.0055167
0.134102,-0.0188554
0.0686136,0.032106
0.0198284,0.041348
0.00410121,0.0115319
0.0140768,-0.00667202
0.00155733,-0.0118348
-0.0218575,-0.00559714
-0.0370699,0.0064939
-0.0461138,-0.00201801
-0.0457655,-0.00500221
-0.0325142,0.00907945
-0.0238991,0.00291091
-0.0189271,-0.00708068
-0.0114153,-0.013375
-0.0176205,-0.0194472
-0.0154528,-0.0124923
-0.0081746,-0.00636427
-0.00342885,0.0100552
-0.00222698,0.0284668
-0.00772839,0.0205484
0.00732462,0.00439862
0.0155048,-0.0251828
0.0116004,-0.014758
-0.0256664,0.00669893
-0.0625727,0.000576492
-0.055995,0.00212898
-0.0174187,0.0128816
0.0135346,0.00685043
0.037439,-0.00307733
0.0781184,-0.0125063
0.0669411,-0.015531
-0.0105872,-0.0120661
-0.0176065,-0.00530095
-0.00214045,0.00354546
-0.00781861,0.00735922
-0.0172272,0.0139213
-0.0279606,0.00391747
-0.0317918,-0.0184843
-0.0349451,-0.00588796
-0.0280879,0.00209789
0.00168483,0.0106666
0.036271,0.0200635
0.0365873,0.0153388
-0.00173327,0.0120056
0.0078971,0.0298058
0.0109054,0.00670287
-0.0198622,-0.0140344
-0.0317538,0.000853138
0.0114806,0.00207265
0.0395787,-0.01624
0.00491013,-0.0350209
-0.0184835,-0.0151915
-0.0159334,0.0143013
0.0110889,0.0051352
0.0504425,-0.00884192
0.0590424,-0.0226811
0.0336484,-0.0226325
0.028273,0.0203997
0.0273474,0.0273198
-0.0108367,-0.00301228
-0.0520283,0.00381802
-0.120356,0.00561336
-0.141814,-0.0256189
-0.109977,-0.0225033
-0.0178566,-0.0080984
0.102602,0.0119705
0.092499,0.0151602
0.00951789,0.00993369
-0.0324371,0.00704585
-0.00504118,0.00189108
0.0440561,0.00347124
0.0394199,0.00893013
-0.0417455,0.00378564
-0.123208,-0.00234726
-0.173448,0.00196259
-0.0629314,0.00829245
0.116856,0.00917009
0.245003,-0.000541924
0.25635,-0.0100398
0.17359,-0.0204357
0.060097,-0.012204
-0.0587957,-0.00632683
-0.106499,0.00408254
-0.0686849,0.00140766
-0.0150451,-0.000238027
0.0229304,0.004553
0.0456935,-0.0025632
0.0213789,-0.00619102
-0.0373639,0.00391112
-0.0457516,0.00513332
-0.0327392,2.06e-05
-0.0194101,-8.42e-05
-0.0137977,0.00533506
0.00264806,0.0104876
0.0125692,0.0140817
-0.00510736,-0.000927489
-0.0411415,-0.0222145
-0.0597524,-0.0230007
-0.0684932,-0.00500855
-0.0461933,-0.00116961
0.00182639,-0.00915337
0.0262164,-0.000651267
0.026103,0.00586961
0.025055,-0.00808098
0.01597,-0.0126223
0.000265892,0.0074796
-0.00428666,0.0123322
-0.000752031,0.00907334
0.00528592,0.0161088
-0.00117635,0.0239377
-0.0109526,0.0216305
-0.0170098,0.00955138
-0.0013609,-0.00785444
0.00994112,-0.0203693
0.00983114,-0.0184994
-0.00469074,-0.0118793
0.00445719,0.00200193
0.0118478,0.00789074
0.00783741,0.0090998
0.00410642,0.00111247
-0.0101927,-0.00574868
-0.0172981,-0.0233532
-0.0190814,-0.00732015
-0.00145894,0.0181618
-0.0039545,-0.00116499
-0.0121211,0.0103599
-0.0149585,0.00714309
0.00459491,0.00765219
0.0205621,-0.0264066
0.0150713,-0.017111
-0.027917,0.0118427
-0.0663483,0.00463818
-0.0729041,-0.00390746
-0.0177104,-0.00499496
0.0567012,-0.00057464
0.116014,0.0196752
0.143799,0.0279225
0.0664983,0.0184734
-0.0430634,-0.00730231
-0.0414937,-0.023149
-0.0306947,-0.0226667
-0.0413957,-0.00443547
-0.0251721,0.0215396
-0.00502977,0.00632901
0.0144381,-0.00749147
0.0360006,-0.0175314
0.0411641,-0.00697257
0.0183875,-0.00513605
0.00130762,-0.00681951
0.00116588,0.000469857
0.00608923,0.00683483
-0.00787657,0.0173954
-0.0304469,0.0124338
-0.0328009,-0.0129804
-0.0301743,-0.0261893
-0.0410033,0.0088864
-0.0725503,0.0147972
-0.0683048,0.00799821
-0.00482881,0.00670534
0.0736071,0.0138439
0.0919128,0.0159579
0.0621492,0.00486547
0.0512399,-0.0120594
0.0407062,-0.02302
0.0144363,-0.0147932
-0.000250567,-0.00069441
-0.00010968,0.00483827
0.0166149,0.00744795
0.0257193,0.00766972
0.00860994,0.00279694
-0.0204559,-0.00627403
-0.0856018,-0.00826808
-0.113052,0.00165541
-0.11959,0.00516903
-0.147145,0.00119125
-0.0978073,0.00429465
-0.0211095,0.00300822
-0.0105917,0.0064526
0.00145191,0.00606994
0.0754643,-0.0126262
0.13923,-0.0288972
0.116184,-0.00221369
0.0403496,0.0104529
0.00870944,-0.0280258
0.025032,-0.00618631
0.029404,0.0281572
0.0259285,-0.000122061
0.0410999,-0.0156926
0.0650448,-0.00457183
0.0547682,0.00974143
0.0178573,0.0157375
0.0031229,0.00722873
0.022848,0.0112508
0.0402432,0.00898463
0.0192982,0.00711125
-0.0329501,0.00327127
-0.0724586,-0.0126822
-0.0626396,-0.00570757
-0.0518999,0.00947092
-0.0342031,-0.00203323
-0.0126661,-0.00312586
-0.000600813,0.0102568
-0.00416195,-0.000571832
-0.0207181,-0.0150589
-0.0425341,-0.0103531
-0.0530137,-0.0131085
-0.0464751,-0.033768
-0.0556246,-0.0257635
-0.0449661,0.000731926
0.042072,0.0302381
0.0907449,0.016421
0.0711629,0.0076415
0.0376942,0.00168953
0.0237009,-0.0137044
-0.0124439,-0.0179501
-0.0395135,0.000466928
-0.00983641,0.0228698
0.0327737,0.0224339
0.0222634,0.0309379
-0.000995461,0.0142804
0.00447683,-0.00635779
0.00692839,-0.00847328
0.00351525,0.000326285
0.0225275,0.00228486
0.0219133,-0.0041287
0.00349501,-0.00713265
0.00151846,0.000706569
0.00680933,0.00456248
0.00686783,-0.0016505
-0.00127555,-0.0150625
-0.0101472,-0.0243203
-0.0182449,0.0023039
-0.0391039,0.00951548
-0.0403713,-0.00250216
-0.0498995,-0.00833786
-0.069311,-0.0105145
-0.0595657,-0.0372046
-0.0334367,0.00355839
-0.0122365,0.0184224
-0.0133911,0.0168891
0.00483325,0.0238375
0.0307671,0.0340581
0.0538202,0.00856027
0.0641678,-0.0102767
0.0559072,-0.00172147
0.0640701,-0.00293959
0.0560479,-0.0149455
0.0290513,-0.0252379
0.00204238,-0.0179311
-0.00983329,0.00388653
-0.0152742,0.00649553
-0.0111364,0.0149121
0.0029691,0.0118317
0.00692328,0.0155947
0.0114043,0.0145716
0.00611653,0.0118931
-0.0165163,-0.000987132
-0.0181651,-0.0257691
0.0144921,-0.0301017
-0.00314662,-0.00918042
-0.0482292,-0.00413919
-0.106666,0.0200836
-0.086098,0.0153917
-0.0335966,-0.0135664
-0.00450776,-0.0190718
0.0276606,-0.0044091
0.0327422,-0.00317562
0.0159195,0.000270747
0.00777575,0.0129717
0.0294632,-0.00190004
0.0617798,-0.00655565
0.0689419,-0.00050423
0.0646145,-0.0021306
0.0539515,-0.00656614
0.0306255,0.0105403
-0.00769174,0.0194263
-0.041539,0.00877861
-0.0379544,0.00218992
-0.0307428,0.000479502
-0.0370808,-0.00993548
-0.0425922,-0.0139647
-0.0384583,-0.00518754
-0.0297622,0.0015414
-0.0158236,-0.00582303
-0.00380466,0.00325398
-0.00323312,0.0281083
-0.0169647,0.0292491
-0.0296726,-0.000217707
-0.0690079,-0.0147272
-0.0518451,-0.0109634
0.0358932,-0.00292882
0.0940121,0.00289632
0.128091,0.00124192
0.0960437,-0.00732317
0.0431888,-0.0151257
0.0562491,-0.00333395
0.039162,-0.0147555
-0.0372428,-0.00833182
-0.0755792,0.00192349
-0.0706823,0.0068222
-0.0263808,0.0136385
0.0167494,0.0172582
0.0409448,0.0107252
0.0425313,-9.89e-05
0.00439317,-0.00889619
-0.0421284,-0.00530626
-0.0216131,-0.00559428
0.000945686,-0.00702127
-0.018445,0.00600803
-0.0235097,0.0202097
-0.022737,0.00546524
-0.0512414,0.0048806
-0.0594931,-0.00930472
-0.0278236,-0.0192062
0.0074505,-0.00735401
0.0332249,-0.00135283
0.0345877,-0.00427371
0.0378439,-0.00124838
0.0220449,0.00482567
-0.00601944,-0.000427091
-0.0290836,0.00234592
-0.0178633,0.00406373
0.00988896,0.00602039
0.0241961,-0.00390108
0.0191084,-0.00435725
0.00599952,0.00478543
-0.026368,0.0134294
-0.0478918,0.00858389
-0.0575595,-0.00499914
-0.0209932,-0.00326784
0.0102607,-0.00695851
0.00157482,-0.0111304
0.0180353,-0.0218822
0.064671,-0.0123818
0.0871815,0.00722983
0.0447022,-0.0132867
0.0227702,0.030392
0.0283399,0.0129213
0.00907836,-0.0394595
-0.0411995,0.0084425
-0.0614257,0.0176909
-0.050491,0.00917441
-0.0285122,0.0114513
0.00597214,0.00857103
0.0334159,0.00765635
0.052067,0.00791948
0.0226296,-0.00898129
-0.022873,-0.0201083
-0.0452142,-0.00979513
-0.0412195,-0.00257808
-0.0175783,0.00574931
0.012363,0.0149468
0.0355495,0.018361
0.0427286,0.00323092
0.0200388,-0.0235218
0.0209483,-0.017765
0.0193699,0.00148332
-0.00739426,-0.00745151
-0.0220429,0.0153048
-0.0106827,0.037416
-0.00158915,0.0154892
0.000990543,-0.00439576
-0.00505608,-0.019929
-0.0291738,-0.0257066
-0.0959101,-0.0126011
-0.118541,-0.00172131
-0.0642794,-0.000664966
-0.051399,-0.00493041
-0.00387323,0.0120166
0.109076,0.00247598
0.139396,0.0131908
0.101056,0.0166678
0.0567378,-0.00488384
0.0493001,-0.0210648
0.0256588,-0.0112619
-0.00999329,-0.00650094
-0.0175215,0.00197646
-0.00794961,0.0112411
-0.00496422,0.00536493
0.00839178,-0.00423802
0.00185161,-0.0179563
-0.0199083,-0.00859982
-0.036463,0.0104082
-0.036589,0.0071695
-0.030364,0.0206591
-0.0347502,0.024236
-0.0563151,0.00965439
-0.0312763,-0.00488767
-0.0171078,-0.00666977
-0.00564175,0.00465882
0.0270499,0.00910286
0.037999,0.00567205
0.0275184,-0.00891471
0.00971491,-0.0235096
0.00536294,-0.0122745
0.00931701,-0.00720675
0.00127684,-0.00799014
-0.00467809,-0.00118864
-0.00161682,0.00583024
0.00912598,0.0130703
0.0298774,0.0212938
0.0155514,0.0166778
-0.0528421,-0.00708497
-0.0728912,-0.0311849
-0.0561572,-0.0311831
-0.00548675,-0.00490271
0.0657661,0.00416532
0.0991808,-0.00580598
0.0860783,-0.00425405
0.0504107,0.0172993
0.0362081,0.015792
-0.00705558,0.0140221
-0.0824201,0.00386335
-0.10475,-0.00575989
-0.0652441,-0.00914276
-0.0187474,-0.00999268
0.0258269,-0.00200365
0.0425538,0.0129071
-0.0202575,0.0164934
-0.0487057,0.017885
0.00507242,-0.00210824
0.0503425,-0.0277143
0.078079,-0.0286591
0.062599,-0.00354673
-0.0261384,0.00408723
-0.0871148,0.0097231
-0.0892933,0.0147188
-0.0522345,-0.0071723
-0.0163904,-0.00753495
0.0151635,-0.023696
0.0551712,-0.0215771
0.0692322,0.00588092
0.0609946,0.0040187
0.0441114,0.00566271
0.03093,0.0308957
0.00316083,0.0265353
-0.0144128,0.0197988
-0.000872533,-0.00541556
0.00801351,-0.0189437
0.000351207,0.00423062
0.00522579,0.00837463
0.0119657,0.00998458
-0.025949,-0.00192148
-0.0436162,-0.00945852
-0.0198157,0.00176868
0.00733005,-0.000890217
0.00699355,-0.0292631
-0.010844,-0.0331415
-0.00717129,-0.013755
0.0198006,0.00363621
0.0068348,0.0160989
-0.0122227,0.0242391
-0.0421105,0.0223008
-0.0645161,0.00681631
-0.0512916,-0.0101406
-0.0268972,-0.00945881
0.00430677,-0.00830128
0.0540154,-0.00437158
0.0526816,0.00514742
-0.037856,0.00581094
-0.0680788,-0.0044129
-0.0339635,-0.00107313
0.0135686,0.00179847
0.0574885,-0.00193699
0.0807436,0.00610143
0.0846583,0.0170271
0.0417648,0.0112299
-0.0370439,0.0118688
-0.0599229,0.0179965
-0.0508975,0.00683801
-0.0128941,-0.0176024
0.0281643,-0.0276925
0.045279,-0.0140635
0.0406149,-0.0117842
0.012101,-0.0137366
-0.00282731,-0.00715646
-0.00154668,-0.000118601
0.000131947,0.0250979
-0.00963752,0.0135711
-0.0090993,-0.00415177
0.000523972,-0.00967971
0.0040193,-0.00273219
0.0158758,0.021819
0.0111357,0.0105641
-0.0025368,-0.0146032
-0.00491483,-0.0261186
0.00913015,-0.0340463
0.00309577,-0.0102852
-0.0209568,-0.0167512
-0.0335457,-0.00964161
-0.079111,0.0116675
-0.119628,0.0201116
-0.0941568,0.00357335
-0.0224788,0.0168825
0.0186826,0.027039
0.0316141,-0.00517987
0.0709502,-0.00154256
0.0943484,0.0373864
0.0760387,0.0315946
0.0423334,0.0181259
0.0165644,0.00840754
0.00660175,-0.00373734
0.0081933,-0.0171369
0.012654,-0.0346458
0.0156116,-0.0345232
0.0140345,-0.019637
0.00444712,-0.0063626
0.00526362,-0.00680364
0.0174416,0.0114541
-0.00606309,0.0314003
-0.0431225,0.0325193
-0.0408493,0.0172887
-0.0234685,0.00255537
-0.0177904,0.00892479
-0.00752266,0.0115545
-0.0161259,-0.00279467
-0.0304675,-0.0109146
-0.0194821,-0.0089237
0.0030708,-0.0132381
0.000218969,-0.034212
-0.0286518,-0.0436987
-0.048755,-0.0273843
-0.0333101,-0.0162775
-0.0433008,-0.00146201
-0.0278948,0.0211373
-0.00366217,0.0278862
0.0288697,0.0257244
0.0591233,0.0229057
0.0499419,0.0181581
0.0696008,0.0153697
0.0942709,0.00211705
0.0436911,-0.00446411
-0.00192333,-0.000372021
-0.0190431,-0.00517601
-0.042487,-0.00707591
-0.0371756,-0.00659684
-0.00717356,-0.0154355
0.0200086,-0.0234776
0.0448078,-0.0166755
0.0546904,-0.0232856
0.055417,-0.00250109
0.0339574,0.027265
-0.0153607,0.0339105
-0.0688928,0.0149598
-0.0808989,-0.0226915
-0.0556097,-0.0252389
-0.0411477,-0.00261065
-0.0257188,0.0128192
-0.00115662,0.00724302
-0.0311229,0.0063058
-0.0522247,-0.001934
-0.0191003,0.00694619
0.0227579,0.0121144
0.0614253,-0.0130782
0.08986,-0.0182894
0.0869891,-0.0117085
0.0486812,-0.00368565
0.0114755,0.00696069
-0.0183898,0.0117364
-0.0181164,0.00928674
-0.0139393,0.0105891
-0.0190056,0.00771908
-0.0229068,0.00143548
-0.0352985,0.0109958
-0.034013,0.0203884
-0.0124473,0.0179237
0.00555177,0.00577994
0.00311748,-0.000348335
-0.0142707,-0.0126664
-0.015672,-0.0431824
0.00186251,-0.0543329
0.0313152,0.00474637
0.0463146,0.00951966
0.0311352,-0.00784708
0.00484632,-0.00271195
-0.0116526,0.0120699
-0.0159638,0.0174622
-0.0106423,0.0123436
-0.012573,-0.00114403
-0.0199536,-0.0102083
-0.0082402,-0.00515985
0.00821276,0.00833516
0.0180867,0.0120681
-0.0062992,0.0173907
-0.0611446,0.020661
-0.0745897,0.00623074
-0.023084,-0.0239151
0.0264824,-0.0337122
0.0480636,-0.0293558
0.0605908,-0.0272068
0.060062,-0.0177565
0.0395642,-0.00993613
0.0220722,0.00182448
-0.00234665,-0.00305738
-0.0362583,0.0100923
-0.0589537,0.0261009
-0.0655238,0.0102409
-0.0460049,0.013459
-0.00934122,0.0192272
0.0301792,0.018825
0.0387255,0.0221762
0.0433111,0.020641
0.0265242,0.00678685
0.00665009,-0.0114256
-0.00445802,-0.0277045
-0.0005613,-0.0378836
0.0284038,-0.0160538
0.043259,0.0181568
0.0284335,0.0311786
-0.0147728,0.0202815
-0.0523143,0.0144589
-0.0456207,0.00347297
-0.0421136,-0.0166235
-0.0756506,-0.0203667
-0.0799585,-0.00287328
-0.0468051,0.0104032
-0.000155178,0.00820338
0.0652867,0.011313
0.124181,0.0153913
0.121589,0.000504861
0.0852172,-0.0115648
0.0254116,-0.0225289
-0.0633459,-0.0453676
-0.0854873,-0.0551947
-0.0286025,-0.0148536
0.0256482,0.0217342
0.0384843,0.016638
0.0427969,0.0165777
0.0283781,0.0147171
0.00257438,0.00123756
-0.0156482,-0.00128791
-0.0341606,0.00577346
-0.0767755,0.0139947
-0.0874332,0.0265084
-0.108984,0.0204438
-0.15346,-0.00320334
-0.127284,-0.0197508
-0.0207484,-0.0261007
0.0715281,-0.0238869
0.114767,-0.0177141
0.158986,-0.00339855
0.174001,0.0325657
0.131462,0.0171095
0.0660628,0.00955479
0.0121702,0.0136849
-0.000564799,-0.00530808
0.00967354,-0.0202394
0.00315995,-0.00606475
-0.00567377,0.0105955
-0.0120616,0.00539783
-0.010431,0.00834461
-0.0208323,0.0159034
-0.0353904,0.00834473
-0.0579101,-0.0105183
-0.0601911,-0.0108354
-0.0430548,0.0031983
-0.0376412,0.00362072
-0.0318403,-0.00282018
-0.00761136,0.0118619
0.00748902,0.00713882
-0.0124143,-0.00363521
-0.0087486,-0.00462967
0.0375449,-0.00311243
0.0261489,-0.00486487
-0.00955777,-0.014142
-0.012474,-0.013183
-0.00636637,-0.0037524
-0.00893737,0.0127639
-0.00127687,0.0198794
0.0216122,-0.00162046
0.0295589,-0.0173112
0.00542665,-0.0220087
-0.0143856,-0.0141632
-0.020323,-0.0194181
-0.0102047,-0.00453733
-0.00836277,0.0324172
-0.00904481,0.0106945
-0.000725292,0.00377672
0.0281926,0.0100299
0.0416116,-0.0200991
0.038804,-0.0107595
0.0238384,0.0089824
-0.00116716,0.00903653
-0.0417903,-0.00755003
-0.0650697,0.0140775
-0.0498324,0.0170662
-0.0157694,-0.00713088
0.00753567,-0.0282237
-0.00761087,-0.0309605
-0.00704071,-0.0058324
-0.0217096,0.0215739
-0.0440403,0.0239324
-0.0710488,0.0251601
-0.0286121,0.0272341
0.0241836,0.0257666
0.0750608,-0.0280533
0.101324,-0.048548
0.0668178,-0.00647782
0.0343634,0.000118387
0.0544248,-0.00543407
0.0503715,0.0204477
0.0205848,0.0183774
0.0016296,-0.000445163
-0.0132118,-0.011622
-0.00685141,-0.00353933
0.00482871,0.00526813
-0.020579,0.00279011
-0.043256,-0.000406576
-0.0510837,-0.00301347
-0.0372486,-0.00936991
-0.0015903,0.00311406
0.0319532,0.0101635
0.0357335,-0.00902166
0.000117433,-0.0141636
-0.0120653,-0.00190702
-0.00610365,0.00197329
-0.00196505,0.00201482
-0.0151357,0.00887325
-0.0128866,0.00411881
0.00805432,-0.0131489
0.0284783,-0.00897813
-0.0155448,0.00881437
-0.0735606,0.00614886
-0.0531454,0.00176294
-0.0162275,0.00945642
0.00235224,0.0194762
0.0193981,0.0164446
0.00875101,0.00473177
-0.0318481,-0.0117146
-0.0566087,-0.0187538
-0.0214579,-0.0044416
0.0235302,0.000273192
0.0461331,-0.0111796
0.0524858,0.00162915
0.0467184,0.000861023
0.0473793,-0.00936091
0.027132,-0.0115533
0.0198675,-0.0167375
0.0394384,-0.00767295
0.0368496,0.0162161
0.00412549,0.0185641
-0.0132435,0.0152313
-0.00949265,0.0131074
-0.0256616,0.00221043
-0.0326544,-0.0132023
-0.0239901,-0.0397288
-0.0152451,-0.0192695
-0.0183656,-0.0150347
-0.0088501,0.00118898
0.00598088,0.0238936
0.0118449,0.0212351
0.00495186,0.018919
-7.76e-05,0.0144693
-0.00432372,-0.0022966
-0.0153912,-0.00569016
-0.0234307,-0.0389352
-0.0107208,-0.0290187
-0.00163677,0.0232179
-0.00428116,0.033975
-0.00731466,0.0182515
-0.010675,0.0103211
0.0125541,0.00281129
0.030846,-0.0152777
0.0372652,-0.0151289
0.0378916,-0.00843732
0.0263114,-0.0064861
-0.016176,-0.00300722
-0.0633852,-0.0161415
