Comp Ch 3,Comp Ch 4
0.00743849,0.00742209
0.00913203,-0.00720719
0.00139091,-0.00659431
-0.00839327,0.00218994
-0.0113026,-0.00294487
-0.00932136,-0.0108543
-0.00695775,-0.009874
-0.00707006,-0.0196193
-0.00892441,-0.0379745
-0.0131699,-0.0490505
-0.0118326,-0.0301945
0.0207318,-0.00767942
0.0341448,0.02662
0.0272426,0.046029
0.0113096,0.0341685
0.00438017,0.0324206
-0.000616615,0.0279618
0.00151757,0.0181207
-0.000471004,0.00741605
-0.00764275,0.0138595
-0.0140421,0.0100277
-0.0144236,0.00872286
-0.0113709,-0.0144539
-0.00719379,-0.0300196
0.00192056,-0.0318107
0.00503008,-0.0297709
0.00264581,-0.0207296
0.00144551,-0.0104466
0.00404526,-0.00598797
0.00263115,0.00491448
-0.00213113,0.0164774
-0.0025056,0.0160229
-0.000394609,0.0121546
0.00562422,0.00455389
0.00920294,-0.00598368
0.0062264,1.96e-05
0.00166596,0.00976906
0.0127608,0.0149165
0.0194975,-0.00335172
0.0124146,-0.00825737
-0.00311309,-0.000848094
-0.00427462,-0.00913654
-0.00602855,-0.0400481
-0.0297266,-0.0214099
-0.0416913,-0.021714
0.00728868,0.00291463
0.0438898,0.0302387
0.0418945,0.0178256
0.00829951,-0.000167643
-0.0389882,0.00693058
-0.08465,0.00945249
-0.0650205,-0.0100268
-0.0412315,-0.00203684
-0.0137284,-0.00588429
0.0167701,0.037224
0.0137329,0.0421196
0.00380593,0.022172
-0.0100167,0.00324883
0.00624072,-0.00416265
0.0376865,-0.015427
0.0593115,-0.0445375
0.0559841,-0.0326238
0.035188,0.00503491
-0.00148715,0.0125486
-0.0224783,0.0142423
-0.0378633,0.00767038
-0.0336379,0.00209298
0.0179748,-0.0190601
0.00769943,-0.0323617
-0.133612,0.00271601
-0.261088,0.0128436
-0.191667,0.00648162
-0.0580252,0.021685
0.0392271,0.0219645
0.14338,0.0279387
0.244863,-0.00988848
0.250748,-0.0399732
0.179973,-0.0262048
0.0862335,-0.00265619
0.022552,0.00657927
-0.00191,0.00441896
-0.00872034,0.00130946
-0.0101184,0.0169462
-0.0020654,-0.00267408
-0.00567431,-0.0141588
-0.0156037,-0.0466976
-0.0162056,0.00880186
-0.0106684,0.045048
-0.0031395,0.0220338
-0.00785217,0.0160154
-0.0255207,0.0134955
-0.0362833,-0.0145941
-0.0389576,-0.0290365
-0.0407887,-0.0219806
-0.0442008,-0.0208093
-0.0447189,-0.0285187
-0.036364,-0.00194165
-0.0198376,0.0253026
0.0070737,0.0230116
0.0322001,0.0222015
0.0419901,-0.00159439
0.0347448,-0.0126471
0.012649,0.0185207
-0.0246503,-0.00144673
-0.0890002,-0.0166159
-0.1209,0.0154557
-0.0585205,-0.0145525
-0.00239374,0.00548724
0.00693471,-0.00194826
0.0459022,-0.0258681
0.0771272,-0.0150352
0.0603272,-0.00491988
0.028397,0.00364547
0.00260514,0.0108405
-0.00790307,0.0124511
-0.0109862,-0.00103506
0.00665378,0.0171339
0.00287309,-0.0150162
-0.029746,-0.0325289
-0.0376923,0.0155578
0.00329302,0.0434619
0.0466241,0.037913
0.0541185,0.026897
0.0330504,0.0145028
-0.00183946,-0.0236704
-0.00937561,-0.0609153
-0.0144507,-0.0334488
-0.0235609,0.00126595
-0.0317507,0.000651625
-0.0337209,0.000530204
-0.0104772,0.0393848
0.0022496,0.0208172
0.00276856,-0.0186299
0.0123282,-0.0216381
0.031551,-0.0233343
0.0338025,-0.0240254
0.0289399,-0.00856538
0.0260336,0.0197549
0.00873428,0.0182518
-0.0187936,0.00246734
-0.0418026,0.0140145
-0.0445347,0.00474313
-0.0301719,-0.0136853
-0.0130363,-0.0118701
-0.00658175,-0.0117938
-0.000499503,-0.014804
0.00937834,0.00183914
0.0148649,0.0289046
0.0149614,0.0288227
0.0076814,0.00260646
0.000874139,-0.043727
-0.00836346,-0.0119733
-0.0374291,0.0164974
-0.0932861,0.0132563
-0.0997291,0.0167745
-0.0188348,0.0241529
0.0696273,0.0372851
0.09151,0.0405469
0.0915765,0.0071964
0.0599779,-0.0340425
0.0316806,-0.0219945
0.00491551,-0.0218952
-0.0142512,-0.00489989
-0.0289534,-0.00265327
-0.0366053,0.013987
-0.0156376,0.00464441
0.0110901,0.0183805
0.0256447,0.00521465
0.0485967,-0.0271839
0.0623678,-0.00292621
0.0617072,0.00312105
0.0436734,0.0135523
0.0240446,0.0236984
0.00658368,0.00505775
-0.0134593,-0.00453191
-0.0422092,-0.0291302
-0.0628275,-0.0290666
-0.0420716,-0.0383549
-0.0325912,-0.0334178
-0.0979481,0.00182943
-0.167925,0.012471
-0.129676,-0.00522053
-0.053208,-0.00172739
0.108881,0.00362947
0.182185,-0.0025572
0.14351,0.0067409
0.132659,0.0137014
0.125578,0.0188328
0.0486828,-0.00916947
-0.020414,0.0144925
-0.0502895,0.0279761
-0.0879806,-0.00983331
-0.175333,-0.0432529
-0.22859,-0.0419701
-0.247478,-0.0329613
-0.157806,0.00957746
-0.0801459,0.0256016
0.0497088,0.0233742
0.129145,0.0278805
0.1094,0.020537
0.065336,0.00450314
0.0678056,-0.00845533
0.164871,-0.00503705
0.205721,0.0135262
0.15754,0.02378
0.0787843,0.0260686
0.0160213,0.0170095
-0.00703269,0.00658218
-0.011585,-0.0135324
-0.022596,-0.0420476
-0.0312811,-0.0188444
-0.0343347,-0.0114669
-0.0410979,-0.0247269
-0.0356726,-0.000515711
-0.0210935,0.0124108
-0.0199274,0.00583316
-0.0267584,0.00941475
-0.016553,-0.00484782
-0.0174071,-0.0226389
-0.0274456,-0.016803
-0.0334702,0.00159283
-0.0250423,0.0182192
-0.0109823,0.00934831
-0.00299482,0.0258416
0.00297174,0.0196667
0.00522074,-0.0143744
0.0142755,-0.0262771
0.0185602,-0.00336334
0.0120165,-0.00622646
-0.00041877,-0.00933765
-0.00133575,0.000708963
-0.000233487,0.00780694
-0.0052878,0.00785746
-0.00737571,0.0105064
-0.00913153,0.00139245
-0.0239437,-0.00384229
-0.0314991,-0.0194615
-0.0199726,-0.00139073
-0.0097347,0.0198625
-0.00952735,-0.00456367
-0.00336829,0.0167556
0.00826448,0.0266358
0.0216898,0.0136371
0.0210402,0.000693319
0.0191135,-0.0120837
0.0152956,-0.00994296
0.011811,-0.00603885
0.0131355,0.00306008
0.00972699,0.00268355
0.00157802,0.0027855
-0.0051303,-0.0035558
-0.00916936,-0.0187348
-0.0181816,-0.0238825
-0.0312047,-0.00883356
-0.0463971,-0.0156869
-0.0272725,-0.00161345
0.0199543,0.063385
0.0211001,0.0481422
0.0211694,0.0097382
0.016894,-0.0235691
0.0160716,-0.0273837
0.0188637,-0.0159505
0.0219072,-0.00641457
0.0177141,0.00066193
0.00379974,-0.000710742
-0.00175818,-0.00589365
-0.00184333,-0.00295388
-0.00747484,0.00210039
-0.0127696,-0.0179471
-0.0110166,-0.00549588
-0.0108727,0.0168096
-0.0108691,0.0188579
-0.00682739,0.0239434
-0.00485906,0.0266313
-0.00459069,0.0135413
0.00196215,-0.0170509
0.0120206,-0.0346765
0.0166953,-0.0235394
0.0169376,-0.0162357
0.0108018,-0.0100228
0.00596877,6.76e-05
-0.000196581,0.00810797
-0.0140002,0.0042472
-0.0207284,0.00284916
-0.0242373,-0.0215074
-0.0298448,-0.0260441
-0.0438516,-0.0138167
-0.044721,0.00840485
-0.00406438,0.0428475
0.0283602,0.0477683
0.0251837,0.0487384
0.033053,0.0224993
0.0454022,-0.0252097
0.0637837,-0.0489917
0.050932,-0.0298232
0.0305993,-0.0220274
0.0115649,-0.0219906
-0.00287599,0.0102327
-0.00739666,0.0124254
-0.0119007,0.000623669
-0.0190482,0.00646157
-0.0247934,-0.0150801
-0.0232449,-0.0164416
-0.00917307,0.00848892
-0.00803556,0.0144488
-0.0317841,0.0108693
-0.0515075,0.0195575
-0.0551453,0.0175886
-0.0536191,0.0139931
-0.0190704,0.00773963
0.039952,-0.0206827
0.0841152,-0.0316039
0.0899514,-0.00620365
0.0670991,0.00336597
0.0444538,0.0110842
0.021031,0.00828286
-0.0478561,0.00530162
-0.106968,-0.0023081
-0.0949184,-0.0185947
-0.0496422,-0.0121142
-0.0262256,-0.000976864
-0.01883,0.0204445
0.0201745,0.0400171
0.026857,0.0263476
0.0173839,0.0325751
-0.00175214,-0.0127677
-0.00235075,-0.0485835
0.0142743,-0.0282772
0.0392314,-0.00871532
0.0522243,-0.00469664
0.0238419,0.00677903
-0.0175668,0.0114763
-0.0167519,0.00916265
-0.0024183,0.00867292
0.0280959,-0.0144452
0.0531664,-0.0268299
0.0644587,-0.00606505
0.0705265,0.0185884
0.0410162,0.00835092
-0.00265206,0.0115787
-0.0319239,0.0343987
-0.0462646,0.0165928
-0.050438,-0.0275931
-0.0549017,-0.0339735
-0.046515,-0.0219061
-0.0153484,-0.00957452
-0.000435732,0.00162726
0.00750325,0.0120128
0.0188626,0.0124053
0.0145732,0.0113884
-0.00981933,-0.00299144
-0.0277782,-0.0322888
-0.0135734,-0.0116257
-0.0104169,0.0119428
-0.00377126,0.0274288
-0.00571345,0.0182748
-0.014763,0.0130621
-0.00868106,0.0176794
0.00748086,-0.0158531
0.0186147,-0.0324411
0.0213278,-0.00208023
0.0196126,-0.0275473
0.00976029,-0.0153733
0.0038099,0.00895603
0.00128093,0.0180778
0.00564136,0.00590992
0.00477074,-0.00709793
-0.00375495,-0.0131464
-0.00564143,-0.0319886
-0.00224421,-0.0150958
-0.00786314,0.0225616
-0.00855812,0.0335531
-0.00727031,0.0269278
-0.00613929,0.0256475
-0.00702706,0.00451458
-0.00154431,-0.010224
0.00147965,-0.00638015
-0.000975905,0.0100234
0.00669632,-0.00312058
0.0104123,-0.0232576
0.0109891,-0.00464377
0.000219169,0.00995335
-0.0138339,0.00418823
-0.0196096,0.00686843
-0.0199291,-0.0130947
-0.00898209,-0.0323128
0.012371,-0.0114124
0.0123376,0.00699723
0.0074598,0.0117548
0.0139902,0.0262685
0.021119,0.0303779
0.0041702,0.0160252
-0.0103744,-0.0141262
-0.00110197,-0.027911
0.0107159,-0.02271
0.00436228,-0.024614
-0.00381241,-0.0187372
-0.00100864,0.00120793
0.00808735,0.018526
0.0073574,0.0130894
0.0064956,0.00602946
0.0154122,-0.00887083
0.0127758,-0.0211865
-0.00320352,-0.00473353
-0.00484833,0.0174103
-0.00741325,0.0227898
-0.0124522,0.0319816
-0.0178415,0.0286882
-0.0214545,0.00104928
-0.0417008,-0.0231291
-0.0799405,-0.0210273
-0.0937692,-0.0255787
-0.0585504,-0.0249706
0.00381039,-0.0124576
0.0681613,0.0195439
0.103,0.00860428
0.0909182,0.00448486
0.0577043,0.0134283
0.0185043,-0.0175159
-0.00109796,-0.0104684
0.000575434,0.0153339
0.00480949,0.0237399
0.003905,0.0255177
0.000618526,0.0255035
0.0035926,0.0186469
0.0118273,0.0026505
0.0102501,-0.0141068
-0.00552382,-0.0314069
-0.0176828,-0.0430303
-0.0235309,-0.0104175
-0.0369139,-0.00141085
-0.042323,0.00247064
-0.0220156,0.0105691
0.0216284,0.00958171
0.0640247,-0.00289683
0.0442823,-0.0263373
0.0133846,0.00277324
-0.00339723,0.0148823
-0.0177271,0.0115581
-0.0283114,0.0200663
-0.0399653,0.0324077
-0.0515155,0.0224468
-0.0479058,-0.00668901
-0.0314799,-0.0192344
-0.00865359,-0.0276591
0.00754471,-0.0356836
-0.000765397,-0.0264712
0.00180525,-0.0223276
0.0296627,0.0346202
0.0354265,0.0309311
0.0273333,0.00305202
0.00907165,-0.0275873
-0.00149001,-0.0497444
-0.00522263,-0.030314
-0.0314061,0.0384166
-0.00484237,0.051005
0.0312237,0.0373022
0.0428113,0.0327911
0.0608706,0.0142224
0.0627566,-0.0152447
0.0405148,-0.018038
0.0149601,-0.0130355
-0.0051921,-0.00668019
-0.0170332,0.00427559
-0.0213862,0.0114437
-0.0169618,0.00281244
-0.0133757,-0.000796059
-0.0119624,-0.0122974
-0.0191352,-0.0316151
-0.0761992,-0.0235452
-0.123708,0.00641078
-0.0987341,0.0103411
-0.0415449,0.0118638
0.0214624,0.0288034
0.0819458,0.0353091
0.0914093,-0.00460586
0.0640354,-0.0373366
0.0266745,-0.0338408
0.00808012,-0.015962
0.00209489,0.000277759
-0.0087658,0.00431541
-0.0427573,0.00588433
-0.0410716,0.0161564
-0.0222234,-0.00410375
0.00362468,-0.0351834
0.0287052,-0.0177808
0.0416425,0.00287342
0.039461,0.0118888
0.0184377,0.0132469
-0.0043333,0.0276459
-0.0129386,0.0300094
-0.0119748,0.00901389
-0.00361527,-0.01007
0.00211914,-0.0226835
-0.00682219,-0.0196459
-0.00251981,-0.00112676
0.00289521,0.00708702
0.00219137,0.00728468
0.00193766,0.00880751
0.00354823,0.0146129
-0.00119743,0.00351026
-0.00750451,-0.0273737
-0.0111682,-0.0340816
-0.00430805,-0.00940614
0.00121358,-0.00615192
0.00686476,-0.00212035
-0.00145676,0.0222647
-0.00650436,0.0458784
0.00451573,0.0337778
0.0120718,-0.00805365
0.00988669,-0.0169203
-0.00220309,-7.45e-05
-0.0135071,0.00139282
-0.0128284,-0.0044768
-0.0134799,0.00512242
-0.0105207,0.00552182
0.0144878,-0.005287
0.0139612,-0.0311002
-0.00509094,-0.0479002
-0.0245475,-0.0327205
-0.00250144,0.0054022
0.0199968,0.0399931
0.0149077,0.0353507
0.000369735,0.0348767
-0.0015127,0.0320185
0.00203923,0.0038054
0.00550971,-0.0264752
-0.00572924,-0.0227397
-0.00946623,-0.0149938
0.000192163,-0.000468449
0.00137269,0.0120381
0.0038251,0.0159914
-0.000111445,0.00512715
-0.0178063,-0.00122443
-0.0442372,-0.0303035
-0.0324676,-0.0254626
0.0145571,-0.00271235
0.0373156,0.0142215
0.0180047,0.0113983
0.00798783,0.0183067
-0.0028315,0.0361665
-0.0132797,0.0263662
0.00723982,-0.0165712
0.0327628,-0.0336431
0.0406262,-0.027602
0.0421333,-0.0174189
0.0390876,0.00386469
0.0213254,0.020954
0.00407789,0.0198293
-0.0402824,0.00618633
-0.100089,-0.00181082
-0.120762,-0.0214836
-0.0853686,-0.0368726
-0.0137069,-0.030686
0.0686192,-0.0112959
0.0891202,0.0120565
0.0751155,0.0415943
0.0591919,0.0568872
0.0154292,0.0216731
-0.0296839,-0.0207755
-0.0344516,-0.0328272
-0.0273231,-0.0191274
-0.0191824,-0.00603454
-0.0149021,0.00292592
-0.00738322,0.0145315
0.0115259,0.0115493
0.0250056,-0.000937572
0.012847,-0.0168461
-0.0223528,-0.0136145
-0.0396433,-0.0171729
-0.0345532,0.00109619
-0.016424,0.0110235
0.00800695,0.0116373
0.0298923,0.0235463
0.0403623,0.0306086
0.0309846,-0.00275606
0.0144662,-0.0259918
0.000891542,-0.0185776
-0.00563785,-0.0127194
0.00574889,0.00662909
0.0106895,0.0281117
0.0107851,0.0305457
0.00831978,-0.00535122
0.0127412,-0.00383153
0.0218618,-0.0198665
0.0224954,-0.0296338
0.0107906,-0.0164427
-0.0233105,-0.00682387
-0.0560433,-0.0111495
-0.0644574,-0.00200377
-0.0470063,0.0329775
-0.0640913,0.0290955
-0.085587,-0.0046747
-0.0416248,-0.0281511
0.00149102,-0.0255637
0.04512,-0.00325109
0.076912,0.0227474
0.0901781,0.0279728
0.0666872,0.0187942
0.0287934,0.0116969
0.016092,0.0134709
0.0132072,-0.0112973
0.0103821,-0.0312111
0.00795851,-0.0103599
-0.00804836,0.000571311
-0.022819,0.000502675
-0.00845455,0.0150492
0.00102154,0.0241555
-0.00168026,0.0169518
-0.00159793,-0.0110933
-0.00579207,-0.0167137
-0.0141652,-0.00889633
-0.0229878,-0.0155915
-0.0261101,-0.00856387
-0.00139954,0.024149
0.00121483,0.00902154
-0.00307674,-0.0111245
0.00895979,0.0105801
0.0115079,-0.0237574
0.0136324,-0.0285567
0.0101113,0.00300379
-0.00350221,0.00636779
-0.0167325,0.00725276
-0.0228156,0.0136789
-0.0303705,0.0100622
-0.0343578,-0.0128927
-0.0119013,-0.031012
-0.00319622,-0.0378351
-0.0134748,0.0209816
-0.0133764,0.023075
0.00781942,0.0120271
0.0278084,0.0226131
0.0181704,0.0190158
0.0111702,0.0112553
0.00145058,-0.00775211
0.00511626,-0.0309908
0.0327036,-0.0201144
0.0471606,0.00254975
0.0330048,0.000788578
0.0243583,0.00129736
0.011342,0.0161384
-0.00657398,0.0164582
-0.0258941,-0.0110934
-0.0262418,-0.014294
-0.0119711,-0.00218079
-0.00237372,-0.00302328
0.0210388,0.00714505
0.0452815,0.0288859
0.0472602,0.0254797
0.0386891,0.0054271
0.0172551,0.00194595
-0.0111164,-0.0195826
-0.0371875,-0.0361018
-0.0532347,-0.0199991
-0.0628668,-0.00147254
-0.0657397,0.00591936
-0.0524176,0.00637801
-0.0350551,0.0134221
-0.0310123,0.0032782
-0.02722,-0.0240819
-0.0159119,-0.0276917
-0.00440389,0.00292714
0.0036625,0.0193153
0.00295648,0.0182412
-0.0031011,0.0321705
-0.00411317,0.0227798
0.00227209,0.0109646
0.017512,-0.0207479
0.0441231,-0.0585762
0.0687973,-0.0278026
0.0657826,0.00416948
0.0424728,0.00136216
0.0114111,-0.0131779
-0.0258053,-0.00610057
-0.01786,0.0358539
0.00199188,0.0231053
0.0145605,0.00158262
0.0128174,0.00298764
-0.00427958,0.00819786
-0.0334238,0.00883499
-0.0432647,0.016563
-0.00851584,0.0192664
0.0523701,0.0078663
0.107804,-0.00677155
0.118641,-0.0411699
0.104322,-0.0288113
0.0645981,-0.0289263
0.00448843,-0.0058257
-0.0867053,0.00911223
-0.121604,0.00871941
-0.116489,-0.00228639
-0.0713887,-0.00504903
-0.0161032,0.00562125
0.00731368,-0.00374546
0.00778428,0.0131158
0.00497524,0.0231569
-0.00865315,0.0243213
-0.0336383,0.0295514
-0.0642607,0.0235106
-0.0605692,0.0017329
-0.0364353,-0.0143384
-0.0159995,-0.0465504
-0.0117383,-0.0497898
-0.0190824,-0.0124799
-0.0148502,0.00161184
0.00831659,-0.0084826
0.0494378,-0.0058763
0.102324,0.00881859
0.158735,0.0126226
0.0934901,0.00943498
-0.0293196,-0.00091751
-0.0738863,-0.0101727
-0.0413356,-0.0080915
-0.00892068,0.0366814
-0.0220955,0.0661116
-0.0376458,0.0305803
-0.0208719,0.0177953
-0.0187988,0.0120786
-0.0182412,-0.033548
-0.00442772,-0.0474871
0.0127045,-0.0390189
0.0175432,-0.0338811
0.0262343,-0.0154731
0.0340863,0.00839971
0.0237407,0.0196097
0.0128122,0.00889185
0.0025211,-0.0133497
-0.00567222,-0.00496152
-0.00755964,0.00191532
-0.00446366,0.0129482
0.00456819,0.0218093
0.0315781,0.0488878
0.0344635,0.0314518
0.0237026,-0.000127445
0.00825432,-0.0101849
-0.00542648,-0.0450124
-0.0149334,-0.0423968
-0.0154458,-0.00968566
-0.0104032,-0.0163422
0.00384575,-0.0138876
0.00872324,-0.00582275
0.0029474,0.0188546
0.0057965,0.0250773
-0.0122977,-0.00927147
-0.0339783,0.00605119
-0.0355921,0.0121944
-0.0352263,0.00710773
-0.0337712,0.00699776
-0.0249691,0.0179001
-0.0163925,0.0127484
-0.0195503,0.000338826
-0.0289572,-0.0160382
0.00137592,-0.041594
0.051214,-0.0464651
0.0516785,-0.000592616
0.0292409,-0.00215202
-0.00658682,0.00823916
-0.0176026,0.0171207
0.0531399,0.016627
0.0983743,0.00775971
0.0888365,0.0022961
0.128705,0.00640568
0.166665,0.0140436
0.13192,0.0341456
0.0449487,0.0143186
-0.0254878,0.0271677
-0.0912458,0.0409555
-0.156805,0.0302266
-0.205644,0.00516356
-0.212588,-0.048184
-0.171203,-0.0976361
-0.132047,-0.105045
-0.0817374,-0.0761874
-0.0094558,0.023923
0.0321456,0.0669548
0.0482181,0.0283115
0.0340278,-0.00703018
0.0160669,-0.00671343
0.0147794,0.0183631
0.0045042,0.0242432
-0.0140349,0.0218882
-0.00875945,0.0259299
0.0149381,0.0217486
0.0320393,0.012979
0.0353535,-0.00531085
0.0375733,-0.0303406
0.0686737,-0.0292385
0.145726,-0.0195047
0.163726,-0.0322755
0.128873,-0.00779669
0.059776,0.0169307
-0.0444751,0.0321127
-0.102536,0.020639
-0.105907,-0.00286844
-0.0727726,0.00921385
0.0144397,-0.0056947
0.0730594,-0.0188381
0.0741378,0.0118978
0.0808251,0.0290501
0.00400132,0.0224047
-0.0900602,0.0139203
-0.131801,-0.0130305
-0.146603,-0.0440793
-0.07104,-0.0162575
0.0358605,0.010656
0.068083,0.0040355
0.0390612,0.00329165
-0.00889725,0.0104968
-0.0280546,0.0157669
0.0129125,-0.00860926
0.0375508,-0.0343595
0.00363114,-0.0177749
-0.0520501,-0.00053415
-0.163655,0.010957
-0.22824,0.0164489
-0.111553,0.0167533
0.0378521,0.00823024
0.103735,0.00817719
0.137952,-0.0271279
0.171702,-0.035353
0.125545,-0.0211179
0.0360413,-0.0183252
0.00244666,-0.0209562
-0.00908207,0.034766
-0.048341,0.0426296
-0.0350951,0.021564
-0.00225343,0.00237922
0.0378932,-0.00518765
0.0547802,-0.016607
0.0935469,-0.0200607
0.114713,0.00966525
0.0661184,0.0409583
0.00620804,0.0329195
-0.0410588,0.00450916
-0.0705963,-0.0108782
-0.0652623,-0.0164657
-0.0445585,-0.026595
-0.0531384,-0.0101289
-0.0616469,-0.000441247
-0.0486978,-0.00756469
-0.027144,0.0101598
-0.0161215,0.0100779
0.00240838,-0.000852834
0.010988,-0.00291776
-0.0031572,-0.014948
-0.0172337,-0.0287028
-0.0247142,-6.8e-05
-0.027048,-0.00573408
0.000357483,0.0210829
0.0190263,0.0248454
0.0250334,0.0196328
0.0321868,0.00197143
0.0271036,-0.0270119
0.0182141,-0.0158114
0.0104988,0.00356565
0.00682547,0.0031064
0.00531728,0.00671583
-0.000746846,0.00718461
-0.00990786,0.0108332
-0.0147933,-5.66e-05
-0.0117023,-0.00469314
-0.00854561,0.0039183
-0.00644184,-0.00927429
0.000685813,0.00130172
0.00511081,0.00663977
0.00304538,0.00292672
0.00185623,0.011015
0.00187308,0.0230074
0.010704,-0.00664421
0.0150682,-0.0309875
0.011633,-0.0238061
-0.000279682,-0.0058995
0.00772645,0.00118007
0.0118624,0.0105639
0.0178748,-0.00721978
0.0145832,-0.0244096
0.00762202,-0.00316212
0.00889387,0.0204488
0.0143981,0.0143271
-0.0106987,-0.00447999
-0.0467126,0.00298933
-0.0516237,0.0118417
-0.0268861,0.0159436
-0.0110026,0.0155815
-0.000250149,-0.00243089
0.0132307,-0.00217858
0.0107638,-0.0207589
1.79e-05,0.0251497
-0.0155292,-0.00362461
-0.0204033,-0.0224709
-0.00586793,-0.0131581
-0.0204816,-0.0206819
-0.066567,-0.033243
-0.0772452,-0.0191898
-0.0466774,-0.0110171
0.0192597,0.00114587
0.0929461,0.0283586
0.107909,0.0461677
0.0665708,0.0416479
0.0201254,0.0366216
0.0243546,0.0188942
0.0165782,-0.00742054
0.0055838,-0.013338
-0.0356209,-0.0228907
-0.0435214,0.00254922
0.00205642,0.00422217
0.0240107,-0.0188635
0.0201161,-0.00667044
0.0247564,-0.010239
0.0392199,-0.0281873
0.0292288,-0.0201297
0.00599658,-0.00797276
-0.00923769,0.00695548
-0.0321336,0.0157819
-0.0302056,0.0267435
-0.0156153,0.0334996
-0.00398085,0.0287883
0.00343771,-0.000498296
0.00743116,-0.0181154
-0.00484785,-0.00674749
-0.00616318,0.00165769
-0.00128433,-0.0108491
0.00108516,-0.00243632
-0.00691003,0.00503306
-0.014074,-0.0191966
-0.0181352,-0.0463782
-0.0279336,-0.0287951
-0.0266875,-0.0067848
-0.0388652,0.00367831
-0.0442351,0.00293865
-0.0181269,0.0125602
0.0345091,0.0195112
0.0337374,6.62e-05
0.00550093,0.00526548
-0.0118754,0.00174392
-0.0113952,0.0339717
0.029335,0.0327186
0.0444407,0.0212892
0.0322362,0.00280602
0.0035835,-0.02678
-0.016863,-0.0198077
-0.00424106,-0.0148443
0.0108923,-0.031288
0.0176413,-0.0216288
0.0261886,-0.0295635
0.0138809,-0.0276566
-0.0102257,0.0014443
-0.024742,0.0356779
-0.0561583,0.0212096
-0.0567543,0.0240616
-0.0314384,0.0124199
0.0148503,-0.0243372
0.0585058,-0.000849916
0.0524378,0.0330519
0.0394866,0.0187449
0.0142616,0.0132505
-0.000442855,0.0228878
0.00368607,0.00186302
0.0147798,-0.0214192
0.00448533,-0.0286206
-0.0384101,-0.0200478
-0.0387865,-0.00287733
0.0099731,0.0124254
0.0231254,0.00691079
-0.00521044,0.0110552
-0.0314767,0.00448687
-0.086388,-0.000694106
-0.0912847,-0.00557602
-0.063375,-0.0275127
-0.0252081,-0.00786001
0.0521185,0.0248305
0.105817,0.0225186
0.104807,0.0113702
0.0751815,0.0096399
0.0386854,-0.00942089
0.00025362,-0.0286911
-0.0191806,-0.0301925
-0.0151816,-0.00364068
0.0019056,0.0154484
0.0270775,0.025551
0.036199,0.0136282
0.0390322,0.0122788
0.0475091,0.0174107
0.0185027,0.014937
-0.00968373,0.00010415
-0.0175168,-0.0315185
-0.00932666,-0.0259153
-0.0344207,0.0123998
-0.0627754,0.0186235
-0.12367,-0.00930869
-0.150255,-0.0307821
-0.163306,-0.048681
-0.230516,-0.033562
-0.252064,-0.0134681
-0.154766,0.0113174
-0.00713032,0.0295043
0.182244,-0.00817708
0.311348,-0.0367835
0.288191,0.0322693
0.235112,0.0538617
0.163677,0.018684
0.0843391,0.00692864
0.0475237,-0.0165241
0.034635,-0.0113113
0.022546,0.00492858
0.035414,0.018053
0.0333945,0.0183761
-0.0362409,0.0247023
-0.10427,0.0131714
-0.0840399,-0.0326312
-0.0273786,-0.0333408
0.00460358,-0.0174806
0.0198501,0.0070431
0.000703932,0.01695
-0.0181687,0.0291029
-0.0523867,0.0147629
-0.0827144,0.00233789
-0.0914916,-0.0196698
-0.16288,-0.0459959
-0.186667,-0.0405696
-0.0923034,-0.044827
0.0122268,0.0308004
0.0262954,0.0451715
0.0626215,0.035005
0.101162,0.00230664
0.109897,-0.00180703
0.107837,-0.0131877
0.10699,-0.0152341
0.0922609,0.00228325
0.0686032,0.0172733
0.0185328,0.0216717
-0.0547506,0.00978565
-0.0948733,-0.00881049
-0.0751881,-0.0225125
-0.0136685,-0.019261
0.0148671,-0.0111279
-0.0219419,0.013032
-0.0265446,0.01753
0.00512679,-0.0430491
-0.00679188,-0.0292012
-0.0282564,-0.00849235
-0.02366,0.0670286
-0.0178781,0.049233
-0.00224487,0.0376715
0.00147745,0.0296036
0.0290665,-0.0206805
0.0378734,-0.0593155
0.033842,-0.0213433
0.00918611,-0.0100621
-0.0170237,0.00832906
0.00784544,-0.00589866
0.0268302,-0.0548224
0.0381677,0.00168239
0.0423809,0.034714
0.0617025,-0.0167519
0.0402468,-0.0256263
-0.0148862,0.00180701
-0.0644988,0.0119119
-0.173858,-0.00318555
-0.168479,-0.0196204
-0.059569,-0.0223437
-0.0857173,0.00515418
-0.136954,0.0138636
-0.0813961,0.0217995
-0.077212,0.013353
-0.0616253,0.0257542
0.0047396,0.030095
0.0625584,-0.0159175
0.143693,-0.0160851
0.25085,0.0269373
0.29062,0.0103989
0.230628,-0.00652001
0.169104,0.0112297
0.115405,0.0345223
0.0740036,0.0231339
0.0121657,0.00122728
-0.0838647,-0.0280008
-0.208028,-0.0516766
-0.320097,-0.0284913
-0.183304,0.0258256
0.00836645,0.0313909
0.205229,0.035644
0.259146,0.00437093
0.160085,0.00457203
0.0512093,-0.0181513
-0.0364031,-0.0636169
-0.111135,-0.0289134
-0.183431,-0.00442819
-0.254532,-0.0382274
-0.225496,-0.00301456
-0.135157,0.000577048
0.0301482,-0.0301752
0.214575,0.0128726
0.111335,0.00288058
-0.300009,0.00891672
-0.502195,0.0200132
-0.247283,0.0507427
0.166244,0.0818029
0.454202,0.0287409
0.450298,-0.00214287
0.0874833,-0.0142762
-0.100633,-0.0102096
-0.0441852,-0.00614969
0.0279176,-0.00732696
0.133114,-0.00589798
0.163086,0.00281902
0.135091,0.0320693
0.0717727,0.0185892
0.00837761,-0.00745409
-0.0314488,-0.0439328
-0.084646,-0.0491602
-0.0959887,-0.0062044
-0.0437259,0.0117393
-0.0165098,-0.0258552
-0.0121156,-0.0183665
0.00841634,0.00609796
0.0349965,0.00679274
0.0367471,-0.00613497
-0.00241716,-0.0282108
-0.0836998,-0.0416934
-0.139574,-0.0113741
-0.122022,0.0112609
-0.0577815,0.00879078
0.0308356,0.0147159
0.0645139,0.0170203
0.0594049,0.00715364
0.0416687,0.00752942
0.0517973,0.0128715
0.0477057,0.0199573
0.00340199,0.0218756
-0.0592368,0.0288137
-0.0974333,0.0267312
-0.0874969,0.0183204
-0.133094,0.0115572
-0.195279,-0.0307375
-0.0772061,-0.0596568
0.040951,-0.00694174
0.106914,-0.0149618
0.111803,-0.0444799
0.0736332,-0.0458179
0.0326845,-0.0143834
0.0372333,0.0543846
0.0724462,0.0571999
0.0889869,0.0242618
0.115505,0.00519977
0.11511,0.00570756
0.0610782,0.0110926
-0.0384528,0.00810378
-0.095489,-0.00261005
-0.116774,0.000129202
-0.142456,-0.0236971
-0.145704,-0.0518712
-0.207486,-0.0488298
-0.264748,-0.029843
-0.165864,0.0199043
0.0629245,0.0184479
0.338404,-0.00667263
0.38803,0.0214498
0.169356,0.0399691
-0.0756646,0.0104429
-0.0937415,0.00797245
0.0278804,0.030448
0.130187,0.0189904
0.0947004,0.00697265
-0.0907102,0.00128408
-0.131908,0.00827316
-0.057677,0.0067283
0.0193508,-0.0026969
0.0783706,-0.0156816
0.0949818,-0.0316174
0.0547636,-0.0255595
0.0192418,-0.0189241
0.00320985,-0.0169752
-0.0203696,-0.0387633
-0.0316048,-0.0337424
-0.0272758,-0.0299559
-0.0168818,0.0147976
0.00418658,0.0491954
0.00495926,0.0226658
-0.00536118,0.0150246
-0.0112812,0.0184158
-0.0115957,0.0219176
-0.00576704,0.012425
-0.025496,0.00737796
-0.225458,-0.00352718
-0.281919,-0.0069916
-0.174556,0.00411325
0.0982081,0.0182969
0.297834,0.0191904
0.232856,-0.00109158
0.111361,-0.0372018
0.0167643,-0.0440836
0.00685017,0.00596892
0.00491881,0.0436577
-0.00572901,6.96e-05
-0.00318778,-0.00764612
-0.00502305,0.00106904
-0.0250535,0.0205151
-0.0343091,0.00670817
-0.0191379,-0.0155888
0.0329527,-0.00290085
0.0623363,0.0209524
0.0115168,-0.0113282
-0.0477658,-0.0364848
-0.0776917,-0.0328948
-0.0592472,-0.0304145
-0.0011343,-0.0180608
0.0326852,0.0307653
-0.00210517,0.0198061
-0.0205707,0.00553042
-0.0247947,0.00631272
-0.0120655,0.0137863
-0.0162364,0.0239445
-0.0920315,0.0177778
-0.200026,-0.00565704
-0.0887016,0.000995629
0.0878792,0.0178274
0.223866,0.0059418
0.213321,0.00272114
0.108727,-0.004538
0.0217483,-0.00624843
-0.00805095,-0.0086784
-0.0176171,-0.00908174
-0.0186084,-0.00289388
-0.00389483,0.000780895
-0.0115034,0.00200787
-0.0508033,-0.00224103
-0.0478664,-0.00595294
-0.0262233,-0.000748602
-0.104377,-0.00369406
-0.146422,-0.0181137
-0.0731211,-0.0320765
0.0429496,-0.0237643
0.0536393,-0.011146
-0.0184298,0.0166956
-0.0616345,0.0153321
-0.0653049,0.0128758
-0.009244,0.00243839
0.0767663,-0.00439513
0.148073,0.00436726
0.177229,0.0227034
0.130705,0.0219751
0.0546882,-0.00484227
-0.0157385,-0.0101129
-0.013318,-0.00218138
0.0267492,-0.00254112
0.053604,0.00101571
0.0429575,0.00413974
-0.0175116,-0.00756871
-0.0829968,-0.0325952
-0.0936908,-0.0391478
-0.0503587,0.00894486
-0.0234939,0.0374313
-0.0213057,0.0210209
-0.00568998,0.00696897
-0.026354,-0.00886898
-0.0541832,0.00942055
-0.053253,0.0223181
-0.0468558,0.0190464
-0.0303203,-0.00822373
0.00645915,-0.0332343
0.03813,-0.0282799
0.0549519,-0.0154543
0.0666223,-0.00803435
0.0698108,0.015063
0.0375607,0.00172886
0.00211909,-0.0181358
0.00586554,-0.00343002
0.0139369,-0.00404193
-0.0315936,-0.00613071
-0.0792723,0.0131805
-0.0785257,0.0255725
-0.064263,0.0213932
-0.0468151,0.0143619
-0.0187582,0.0161802
-0.0150128,0.00899434
0.0154388,0.00141596
0.0697685,0.0108871
0.10272,0.00937181
0.0777771,0.0080555
0.0403431,0.00131208
0.0302147,-0.0046132
0.0124582,-0.016939
-0.022479,-0.0179581
-0.0304117,-0.00804797
-0.0209276,-0.0328939
-0.0162073,-0.0402491
-0.0587105,0.00424053
-0.106471,0.0138565
-0.122387,-0.0291711
-0.109586,-0.00335273
-0.0463027,0.0184249
0.039577,-0.00686995
0.111232,-0.0134865
0.13405,0.0155335
0.113488,0.0208948
0.0711596,0.00391528
0.0509253,-0.0149875
0.0198359,-0.00669649
0.00625965,0.00269452
0.0310689,0.0288773
0.0337135,-0.00361896
0.0233292,-0.000762912
0.0275176,0.0102871
-0.0354867,0.0131001
-0.112171,0.00618725
-0.167511,0.00051278
-0.199786,0.0100472
-0.137852,0.00689948
-0.0289048,-0.0136259
0.0829269,-0.00893479
0.161483,0.000407318
0.168434,-0.00827102
0.106717,-0.00305909
0.0441853,0.012435
0.00791606,0.0198011
-0.0246132,0.0264921
0.00320382,0.0217603
0.0459354,0.00795425
0.00391153,0.00561842
-0.031071,0.0101378
-0.0380336,-0.00408142
-0.0369135,-0.00667243
-0.025624,0.00323724
-0.00712625,0.00262498
-0.0146621,-0.0149132
-0.0394345,-0.0227638
-0.0316462,-0.00867329
-0.00698332,-0.0215037
0.0184367,-0.0180092
0.0348544,0.00471932
0.0170515,0.00354047
-0.000392496,0.00044079
-0.00613317,0.00246659
0.00314827,-0.00548635
0.0174595,-0.00997008
0.0164819,-0.0111345
0.0101284,0.00192978
0.00649352,0.0132862
-0.0122432,0.0165371
-0.0285883,0.0128858
-0.0360316,-0.01585
-0.0211815,-0.0378306
-0.0457877,-0.0327712
-0.0875001,-0.0183162
-0.0234947,-0.0103456
0.0696415,0.00811348
0.114774,0.025432
0.0707304,0.024246
-0.0172538,0.00622296
-0.0893478,0.00245404
-0.0202845,-0.0151659
0.0281789,-0.0253259
0.0147491,-0.00172726
0.0169826,0.0132781
0.0281604,0.0207924
0.028461,0.0111405
0.0150555,0.0230106
0.0425116,0.0233275
0.0770605,0.00363627
0.0589154,-0.0187695
-0.00843614,-0.0189922
-0.0825924,-0.0136335
-0.127231,0.00820993
-0.168455,0.0303995
-0.243631,0.0084653
-0.162966,-0.011619
-0.0267714,-0.016102
0.0104084,-0.0325619
0.0224902,-0.0248923
0.157901,0.00127983
0.232368,-0.00338438
0.193723,0.0195221
0.097824,0.0113225
0.0328887,0.00450453
0.00783136,-0.00110842
0.00282437,-0.00947245
0.0035022,-0.00990175
0.0175194,-0.00281104
0.0285907,0.00231804
0.0238483,0.00528534
0.00689838,0.00815592
-0.0097418,0.00668078
-0.0112221,0.0110521
-0.00529274,0.000413739
0.00401444,-0.0205374
-0.0210626,-0.0216118
-0.0547385,0.00793344
-0.0727956,0.023663
-0.137159,0.0200092
-0.212577,0.000124061
-0.168194,-0.00599769
-0.0470255,0.00889175
0.0142396,0.000941607
0.0413742,0.0113799
0.0615311,0.00807407
0.0616386,0.00215509
0.0727975,0.00277549
0.0852562,-0.00299762
0.116502,-0.00425835
0.106965,0.00557655
0.0564483,-0.00263963
0.0254755,-0.0167698
0.00486564,-0.029177
-0.0125999,-0.0233853
-0.00155561,-0.00289892
0.00319018,0.0106919
-0.022872,0.0217853
-0.0552609,0.00983466
-0.0428649,-0.00304975
-0.0355455,-0.00460975
-0.0236146,0.00196408
0.0174005,0.0168473
0.0320584,0.021985
0.0225777,0.016938
-0.00304454,0.00914924
-0.0172725,0.00838985
-0.00423936,0.010569
0.0193744,0.00824322
0.0161887,0.00317705
-0.0121413,-0.00462214
-0.0186787,-0.00559092
-0.0226782,-0.00277226
-0.022572,-0.0178538
-0.0140698,-0.0242975
-0.00851918,-0.0165545
-0.00528799,-0.0293612
0.0181856,-0.00524859
0.026372,-0.000391941
0.0193017,0.000147272
0.0111642,0.00893333
0.000129171,0.0190229
-0.0029524,0.0190803
-0.00648612,0.0123033
-0.00960864,-0.0194242
-0.0238048,-0.0235257
-0.0508033,-0.0365343
-0.0373575,-0.015583
-0.00519388,0.0131795
-0.015344,0.0235467
-0.0563962,0.0258752
-0.0373712,0.0151699
-0.00792197,-0.0147598
0.0418693,-0.0350078
0.0745114,-0.0041194
0.024624,0.00724079
-0.00867147,0.00528173
0.00121264,-0.00234376
0.0262241,0.0143941
0.0445123,0.0135565
0.0533531,0.00517717
0.046551,-0.00525863
0.0164674,-0.00937957
-0.00525042,-0.00200657
-0.00193501,-0.00618936
-0.0194996,0.00208827
-0.0149608,-0.00624942
-0.00130385,-0.00760482
0.0113209,0.0164275
0.0186541,-0.000389835
0.0225585,-0.00807367
0.00928532,-0.0134832
-0.0321888,0.00343415
-0.0657476,0.0229806
-0.0343205,0.0071918
-0.0125196,0.00516723
-0.0032208,0.00486333
0.0225983,0.00600479
0.0732571,-0.0103715
0.0758689,-0.0239578
0.027816,-0.0169843
-0.0308387,-0.00103619
-0.108179,0.0147298
-0.166317,0.0145548
-0.164636,0.00814198
-0.232003,-0.00401158
-0.179751,-0.0166141
-0.0108435,-0.0184975
0.142123,-0.0324309
0.194459,-0.0076163
0.204702,0.0566686
0.17501,0.040838
0.0911006,0.0330815
0.0302969,0.0241176
0.0455929,-0.00801143
0.0736106,-0.0293076
0.0438773,-0.0173667
0.000243466,0.00552643
-0.00510951,-0.0101983
-0.0283898,0.00320334
-0.0565086,0.0299807
-0.0557676,-0.00812999
-0.0578631,-0.0557438
-0.0368582,-0.056658
0.0161674,-0.0308652
0.0533413,0.0180233
0.0234553,0.0425081
-0.0230175,0.0179667
-0.0539908,0.00496379
-0.0966333,0.0233401
-0.0702707,0.0159845
-0.018115,-0.0269679
-0.00520033,-0.0334043
-0.0355584,-0.0100737
-0.0498841,0.00301715
0.00691065,0.000974047
0.0784511,0.0167812
0.13591,0.0234978
0.133063,0.0157686
0.0502479,0.00695979
-0.0231699,0.00366882
-0.0256584,0.00159354
-0.0250204,0.00138845
-0.0351923,-6.93e-05
-0.0401186,-0.00150644
-0.0386601,0.00921037
-0.0373068,0.0172202
-0.0269817,0.00118917
-0.0109201,-0.0251066
6.73e-06,-0.0294003
0.00619982,-0.00655514
0.00857613,-0.00125971
0.00769253,-0.00881849
0.0102519,-0.00444541
0.0191996,0.0113485
0.0259926,0.00968132
0.0194826,-0.00719707
0.00482523,-0.0158363
-0.00145351,-0.00831403
-0.0149398,0.0145998
-0.0255935,0.0202474
-0.0199053,0.0190268
-0.0160691,0.00184349
-0.0212348,-0.00696093
-0.0200912,-0.0145479
0.000364806,-0.014981
0.0304912,-0.00285057
0.037962,0.000499929
0.0249777,-0.0108604
0.00925027,-0.00782915
-0.024069,0.0142276
-0.0238906,0.0292432
0.0105662,0.0129974
0.0214914,0.00572485
0.00475886,0.000927871
-0.0146764,-0.0212653
-0.0105759,-0.0167653
0.0124021,9.99e-06
0.0143363,0.00260885
-0.0100787,0.0112852
-0.0232221,0.0169817
-0.0123049,-0.00154181
-0.010059,-0.0339266
-0.0115349,-0.0270135
0.00789853,0.00230465
-0.00152017,0.00724758
0.00409557,0.0130579
0.0243196,0.0232816
0.0268289,0.0132111
0.0357943,-0.00227367
0.0445671,-0.00978235
0.033523,-0.00149061
0.0392733,0.00404007
0.0409829,0.00399225
0.0016305,0.00796177
-0.0240873,0.00686163
-0.0346402,0.000947428
-0.048554,-0.00487232
-0.067075,-0.026849
-0.100318,-0.0319445
-0.185344,-0.0207664
-0.19062,-0.00811395
-0.10372,0.00784807
0.0339087,0.0369261
0.112016,0.0229641
0.114773,0.000248179
0.123195,0.0076525
0.0947599,0.00108949
0.0570021,-0.0165595
0.0526848,-0.0122648
0.0377148,0.00986043
0.0271002,0.024454
0.0116711,0.00552475
0.0140434,-0.0207099
0.032449,-0.0172399
0.0442922,-0.010204
0.0401913,-0.00635535
0.0222936,0.000503399
-0.00701553,0.00775615
-0.0247897,0.0155991
-0.036373,-0.00306521
-0.0180741,0.0192201
-0.0156301,0.0218596
-0.0360606,0.0050039
-0.0633829,-0.000330134
-0.0649732,-0.00870993
-0.0335239,-0.0111644
-0.00931592,-0.00242208
0.00831135,-0.0029524
0.0158191,-0.0101918
-0.017276,-0.0119946
-0.0250251,-0.0282463
0.0154673,-0.0159778
0.0279043,0.00524973
0.0191408,0.0153418
-0.0193577,0.0123643
-0.0473918,0.0127751
-0.0231142,0.0185317
0.0219046,0.018805
0.0569967,0.000907906
0.0539061,-0.0103063
0.0233319,-0.00340732
-0.00626542,-0.00311976
-0.00933212,-0.00487401
-0.00467518,-0.00145055
0.00416608,-0.0137837
0.0200057,0.0015783
0.00547742,0.00149834
-0.0387747,-0.0150566
-0.0445611,-0.0233542
-0.0157216,0.00401888
-0.0270547,0.0268167
-0.092762,-0.00392119
-0.0694971,0.0138108
-0.000363411,0.0204697
0.04987,0.00620158
0.0680249,-0.00194274
0.0566016,-0.0107547
0.0337882,-0.0122189
0.0216112,-0.014439
0.00244044,-0.0156724
-0.0156638,-0.00693253
-0.0119438,-0.00977224
0.00139152,0.00819963
0.023152,-0.00318134
0.0441094,0.0106732
0.0397312,0.0111429
0.0314012,0.00452377
0.0127565,0.00986831
-0.0520376,0.0221519
-0.125329,0.018297
-0.129621,0.0125804
-0.0694299,0.00264813
0.030157,-0.0104285
0.0956356,-0.0050599
0.116827,0.00358357
0.0907395,0.0106078
0.0236086,0.00403937
-0.0396515,-0.0130442
-0.0376398,-0.0141502
0.00632683,-0.000732865
0.0214109,-0.00733715
0.0228564,-0.00898095
0.00474447,-0.00382169
-0.0609982,-0.0123575
-0.106493,-0.00692571
-0.105898,0.00569985
-0.00931915,0.0158505
0.0835692,0.0178891
0.100608,0.0020063
0.0628558,-0.0381083
0.0259768,-0.0495491
-0.0380243,-0.0282189
-0.105109,-0.000246179
-0.0843382,0.0282481
-0.017732,0.0310316
-0.00261285,0.0190525
-0.00580397,0.0170327
-0.00443885,-0.000892941
0.0258376,-0.0145412
0.0774642,0.00730713
0.078423,0.0205918
0.103536,0.0172354
0.0839065,0.0125924
0.00762497,0.0245406
-0.0393975,0.00695433
-0.0534459,-0.0203113
-0.0690217,-0.0189594
-0.0544949,-0.0130063
-0.0223749,-0.0284453
0.0159323,-0.0454123
0.0125436,-0.0160518
0.00393833,0.0200841
0.0134974,0.0230624
0.023545,0.00985981
0.0104821,-0.00419151
0.00291295,-0.00940772
0.00689383,-0.00360877
0.0169976,-0.00142857
0.0198174,-0.00376146
0.00657701,0.00848643
-0.0142894,0.0225206
-0.0302181,-0.00285743
-0.0388952,-0.0197965
-0.0274048,0.00775716
-0.000356425,0.0128002
-0.00241312,0.0100939
-0.022893,0.00867273
-0.0296841,0.007216
-0.0193113,0.000528352
0.00603199,0.00280043
0.0250047,-0.000596085
0.0235319,-0.011262
0.0146527,-0.0112137
0.0151015,-0.00132675
0.0210725,0.00527046
0.0233763,0.0077764
0.0206506,0.00938604
0.00111271,0.00119967
-0.0333927,-0.0104383
-0.0257312,-0.0261998
-0.0227269,-0.00640104
-0.0296419,-0.00429974
-0.0304333,-0.00108375
-0.0362178,0.0073012
-0.0293165,0.0061865
0.0204823,0.00740142
0.0432398,-0.00113607
0.0195414,-0.0156297
-0.00529097,-0.0140179
0.0157981,0.00359406
0.0309761,0.017355
0.0205076,0.00870181
0.00835231,0.00235248
0.00226715,0.01056
0.000848736,0.0132214
0.000622026,-0.010417
-0.00484068,-0.0106526
-0.0105216,-0.00446927
-0.00724004,0.000940703
-0.00303886,0.00426098
-0.0091587,0.00441799
-0.00715385,0.00219662
-0.00499467,-0.00103733
-0.0114572,-0.00495837
0.00595891,0.00679352
0.0234822,0.00988823
0.0218407,-0.0287866
0.0331153,-0.0392759
0.0442263,-0.000576897
0.0346794,0.0159487
0.00810823,0.0291708
-0.0111935,0.0153868
-0.0600601,0.000102706
-0.0997521,0.0089462
-0.103446,0.0107449
-0.0925021,8.34e-05
-0.0376619,-0.00555607
0.0249346,0.00247832
0.0597581,0.00345934
0.0795454,-0.0042909
0.0690874,-0.0140896
0.0249547,-0.0148276
-0.0715525,-0.030487
-0.130996,-0.0495596
-0.0844965,-0.00270278
0.0500094,0.0244832
0.156344,0.0300119
0.159463,0.0237228
0.127164,0.033867
0.0827979,-0.0106896
0.0311707,0.00601162
-0.0139521,-0.0119154
-0.0273308,-0.0168947
-0.051874,0.0011548
-0.0681606,-0.00459091
-0.0712496,0.00299796
-0.0542282,0.00359404
-0.0195193,-0.00805376
0.0139051,-0.015062
0.0258685,-0.00320548
-0.0351464,0.00299679
-0.0662848,0.000548905
-0.0367414,0.00542072
0.00657775,0.0231628
0.0539934,0.0129501
0.0634006,-0.0141902
0.042684,-0.00792947
-0.0141241,0.00311942
-0.0488831,0.00448559
-0.0438167,0.00809827
-0.0205064,0.0115225
0.0158758,-0.00718878
0.0466878,3.26e-05
0.0473731,-1.13e-05
0.0296294,-0.0143389
0.0201514,-0.0104576
0.0130183,0.00596107
0.019558,0.0094797
0.0347963,0.00785611
-0.00971748,0.0145581
-0.0578762,0.023105
-0.0335829,0.00629459
-0.0226922,-0.0210636
-0.0735511,-0.00224789
-0.0785249,-0.00663977
-0.0156514,-0.029028
0.0155869,-0.0109295
0.0195486,0.00339681
0.00545627,-0.00559852
0.000586992,-0.00286708
0.00890733,-0.0279083
0.00955456,-0.0119635
0.0117877,-0.00204796
0.0118953,-0.0022522
0.0299745,0.00570841
0.031904,0.0108723
0.0299282,0.0146027
0.0138755,0.00671627
-0.028169,0.00385488
-0.0514562,0.00348748
-0.0838053,0.00755568
-0.105065,0.0053099
0.0396296,0.0219493
0.0685648,0.00883488
0.0524105,0.0254238
0.0173391,0.0329903
-0.0218198,0.00965585
-0.0332081,-0.00844565
-0.018897,-0.0176181
0.00537328,-0.0293186
0.045731,-0.00880141
0.0654709,0.000509429
0.0524406,-0.00141516
0.0231133,-0.0168943
-0.000136389,-0.0317639
-0.00568086,-0.0267667
0.00284583,-0.00995846
0.0114072,-8.15e-05
0.00442751,0.00944295
-0.0198823,0.0173621
-0.0249672,0.0143851
-0.0203829,0.0186349
-0.022641,0.0286428
-0.00933232,0.0115882
-0.00336262,-0.00401807
-0.00360144,-0.000207982
-0.00179837,-0.00550564
0.0175287,-0.0175184
0.0360581,-0.021663
0.0286505,0.00599837
-0.0310804,-0.00463748
-0.0576233,-0.0223046
-0.0534657,-0.00981952
-0.0873514,-0.00178736
-0.0740743,-0.00097507
-0.0296038,0.00627937
0.0182491,0.0153251
0.0478192,0.0192561
0.0775315,0.0135319
0.0632834,-0.0139639
0.0144495,-0.0161325
-0.010257,-0.0147585
0.00999096,-0.0102772
0.0110041,0.024549
0.0153394,0.0400318
0.049033,0.00857576
0.0503762,-0.0124719
0.0521254,-0.0160159
0.0154271,-0.0214944
-0.0892225,-0.0123976
-0.134104,-0.0125718
-0.0628333,-0.0104548
0.021087,0.00432515
0.0887689,0.0224759
0.100423,0.0350623
0.0335083,0.0240699
-0.00515311,0.00671239
-0.0279766,-0.00541474
-0.0474112,-0.000338545
-0.039006,0.00247698
-0.00586195,-0.00115263
0.028507,-0.00218029
0.0381997,-0.00184759
0.0225517,-0.0136729
0.0121009,-0.0264317
0.0185614,-0.0290616
0.0308699,-0.0218864
0.0320573,-0.0163661
0.0193673,-0.000295896
0.00306611,0.0162469
-0.00327256,0.025031
-0.00235486,0.0238912
-0.0108683,0.00938591
-0.0389669,-0.0123199
-0.0657451,-0.0322007
-0.0705016,-0.00736547
-0.11158,0.0222451
-0.196947,0.0223607
-0.260795,0.0282855
-0.172342,0.0208738
0.0278405,-0.0173463
0.233394,-0.0123763
0.280601,0.00573788
0.199016,-0.0238487
0.079848,-0.0369036
-0.0802795,-0.00872746
-0.291348,0.0127314
-0.23835,0.0190013
-0.0658826,0.00912703
0.142134,0.0151179
0.267178,0.00514126
0.243785,0.00348182
0.177733,0.00609144
0.0973174,-0.00211091
0.043815,0.00560615
0.00895623,0.0135605
-0.0165464,-0.000875858
-0.0225523,-0.0116704
-0.0182742,-0.0195553
-0.0138216,-0.0150234
-0.00156977,-0.00763733
-0.0162468,0.00356587
-0.0410678,0.0195973
-0.047639,0.0260599
-0.0452434,0.0196842
-0.0445981,0.012459
-0.0446161,-0.00742211
-0.0407185,-0.0151724
-0.0395043,-0.00642649
-0.0343493,-0.000957991
-0.0188815,-0.00412379
-0.0066336,-0.00436409
-0.00271541,0.000164774
-0.000192691,-0.00429713
0.0025287,-0.0181821
0.00472867,-0.0199837
0.0136662,-0.0128304
0.0210436,-0.00700614
0.0133653,0.00328019
-0.000463839,0.0140916
-0.00783351,0.0154445
-0.00553375,0.0185602
-0.00364398,0.0128196
0.000584372,-0.00523998
0.00363554,-0.00784893
-0.0123088,0.00299219
-0.0243196,-3.58e-05
-0.0152476,0.00451161
-0.00596675,0.0109729
-0.00506699,-0.00754609
-0.0286429,-0.0333971
-0.050515,-0.0397445
-0.000598819,-0.00879018
0.0303698,-0.00734954
0.0176481,0.00662844
0.0335428,0.0195891
0.0399642,0.0227033
0.0185047,0.0202135
0.0089933,-0.0160959
0.00779853,-0.0104608
-0.00034111,0.0152132
-0.0168226,0.0128827
-0.0220771,0.00035326
0.00518956,0.00326434
0.0129422,-0.00614272
0.0164539,-0.00665604
0.00450405,-0.00496826
-0.00903972,0.00179174
0.00320475,-0.0122021
0.00933414,-0.0260325
0.0155869,0.00377086
0.0209571,0.0184587
0.0110276,0.0111088
-0.00301613,0.0130366
-0.00401766,0.0136956
0.00121656,0.0113631
0.0049245,-0.00121959
-0.00237244,-0.0192138
-0.0129536,-0.00877084
-0.0133323,0.00128405
-0.0117042,-0.00265109
-0.00671809,0.00106771
-0.00243405,0.00745048
0.00137446,0.00470686
0.00578543,-0.00599864
0.00874119,-0.00855327
0.00842615,-0.00279155
0.00752199,-0.00161476
0.000385064,0.00463854
-0.00348565,0.0151429
-0.00125398,0.0157702
0.00309695,0.00998571
0.0061669,0.003691
0.0107607,-0.00838125
0.0100355,-0.00851985
0.00438419,-0.000417879
0.00853449,-0.00275291
0.0215761,-0.00462692
0.027377,0.00309291
0.0294229,-0.00293683
0.0267825,-0.00733889
0.0108462,-0.0107529
-0.0168917,-0.00581868
-0.0626364,-0.00259924
-0.0972053,0.00649683
-0.103276,0.0164071
-0.108165,0.0144166
-0.0679926,0.0111231
-0.0982673,-0.00360603
-0.0577957,-0.0325195
0.0369498,-0.0233969
0.0793639,-0.0261828
0.0548668,-0.0115991
0.00135628,-0.00876143
-0.0621653,-0.0239616
-0.087961,-0.0092766
-0.0358043,0.0161839
0.100621,0.0253056
0.200279,0.0108298
0.207672,0.0178528
0.142478,0.0101572
0.0856411,0.0088867
0.0323234,0.0223946
0.0180549,0.00991896
0.0176775,0.00112021
-0.0185897,-0.0054686
-0.0428049,0.00517963
-0.0230275,-0.00827272
-0.0219571,-0.0099746
-0.0346447,0.0169624
-0.0424918,-0.0154042
-0.00885438,-2.99e-05
0.00534515,0.0416154
-0.0200378,0.0253125
-0.0452913,-0.0157347
-0.0456732,-0.0256241
-0.0275715,-0.01826
-0.0111113,-0.0100173
-0.0105624,-0.00469161
-0.0156719,0.00325659
-0.0158664,0.00906403
-0.0136207,0.010166
-0.00334525,0.00715835
0.00700955,-0.00538013
0.00689478,-0.012814
-0.00564194,-0.00622886
-0.013822,-0.0119317
-0.012112,-0.0168089
-0.00245519,-0.0107361
0.0085602,0.0296762
0.0165074,0.015636
0.0140354,-0.0132807
6.99e-05,-0.0111248
-0.00927877,-0.00462484
-0.00771898,0.00441375
-0.000388111,0.0197596
-0.00370776,0.0282486
-0.00323185,0.0278453
0.0060571,0.0244072
-0.00268799,0.00778982
0.00128199,-0.0234801
0.000630653,-0.0483138
-0.00422334,-0.0152412
-0.00715741,0.00188427
-0.0355568,-0.00159246
-0.0441583,-0.00095976
-0.0239935,-0.000836162
0.00307252,-0.0054288
0.0273865,-0.0210427
0.0507389,-0.0249785
0.0549974,-0.0154551
0.0315112,-0.00469566
0.0139062,0.0137353
0.00186134,0.0219287
-0.0069502,0.0129096
-0.00445823,0.01314
0.0155929,0.00521164
0.00861084,-0.00687263
-0.00660495,-0.00217953
-0.00353653,0.0106857
0.00403202,0.0128549
0.0113074,0.012203
-0.00274724,0.0113831
-0.0181412,0.00240007
-0.0130029,-0.0109287
-0.0182227,-0.0151898
-0.0127264,-0.0128239
0.00657288,-0.00483786
-0.00873417,4.83e-05
-0.032264,0.00418479
-0.0144857,-0.00481082
0.0255753,0.00645835
0.0342218,0.0049279
0.00147126,-0.0117169
-0.0323677,-0.0184403
-0.0174995,-0.0059311
-0.0145487,0.00455512
-0.0207881,0.0148602
-0.0376314,0.00208055
-0.0267543,0.0090786
0.0110551,-2.52e-05
0.0414804,-0.00506909
0.0592882,-0.0115062
0.0610609,-0.0225443
0.0556387,-0.00370664
0.0204372,0.0120052
-0.0185762,0.0151631
-0.0164137,0.0169251
-0.00467638,0.0148352
0.0100966,-0.00260557
0.0238705,-0.0168488
0.0182116,-0.0148673
0.00879356,-0.00153354
0.01,0.00831591
0.0151601,0.0103824
0.0116851,0.0115513
-0.00642469,0.0136348
-0.0238116,0.00707031
-0.03522,-0.00818279
-0.0346918,-0.00786614
-0.0305952,-0.00235575
-0.0501005,0.00541685
-0.0585234,0.0147998
-0.0587172,7.03e-06
-0.0879949,-0.0023467
-0.0605946,-0.00533899
0.0251765,-0.0146555
0.07712,-0.0071868
0.0807538,0.00347905
0.054366,0.0156666
0.0251549,0.00918956
0.0603861,0.000255206
0.080126,0.00153153
0.0125233,0.00509618
-0.0994404,-0.0170022
-0.111999,-0.0383734
-0.0201952,-0.0142313
0.0351343,0.004042
0.0502366,-0.0045253
0.0077065,-0.00229184
-0.0177207,0.00796202
-0.0157695,-0.00162889
0.0012918,0.0121897
0.00326408,0.000655563
-0.029554,-0.0140181
-0.0257931,-0.0224498
0.019524,0.0237222
0.0720851,0.0400363
0.0764622,0.0232169
0.0438326,0.00326746
0.0271043,-0.00592051
0.00913201,-0.014413
-0.00934464,-0.0099405
-0.0154247,-0.000282127
-0.00895836,-0.000941359
-0.00534108,-0.00633007
-0.00397969,0.00330548
0.00260667,0.021354
0.00451333,0.0314872
-0.00732081,-0.0054144
-0.0170023,-0.023823
-0.0243444,-0.0170253
-0.018548,-0.00394186
-0.00956945,-0.00189377
-0.0213996,-0.0120315
-0.0260312,0.00282189
-0.0145676,0.0128958
-0.00243665,-0.00106871
0.000638448,-0.00865818
-0.013708,-0.0053229
-0.0292983,-0.0242969
-0.019984,-0.023261
0.00358227,0.00744377
0.0128713,0.0214304
0.0285719,0.0262347
0.0318373,0.000248952
0.00961406,-0.00968848
-0.00055666,-0.0172774
0.00443329,-0.00936206
0.00878771,0.00247043
-0.00274378,0.000551028
-0.036922,0.000636147
-0.051242,0.00970092
-0.0339924,0.0155625
0.0131062,-0.00309745
0.0492911,-0.0156
0.026796,-0.0100632
0.0196666,-0.00118349
0.00142463,0.0199478
-0.0396009,0.0369166
-0.0405168,0.0362841
-0.00880765,0.0189129
0.022565,-0.00947146
0.0419194,-0.0465983
0.046535,-0.0329588
0.0456906,-0.00361978
0.036461,0.0080385
-0.00199555,0.00691827
-0.0481816,0.00654132
-0.0364737,0.0136538
-0.0101333,0.0072104
0.00142909,-0.0108164
-0.0097744,-0.0166349
-0.0135924,-0.0212198
-0.00580518,-0.0220674
0.0114631,0.00321617
0.0247228,0.00937626
0.0212334,0.0126228
0.0153726,0.0206367
0.0102863,0.0174426
0.00716603,-0.0072254
-0.0088464,-0.0244237
-0.0375602,-0.0212713
-0.0382153,3.62e-05
-0.0248165,0.0107117
0.00919925,0.0222775
0.0245528,0.0243731
0.000742102,0.0148445
-0.0235994,-0.00199235
-0.0530041,-0.0092629
-0.107916,-0.00569449
-0.0899149,0.00338228
-0.0113855,0.00317575
0.0506843,0.00198181
0.0967854,0.0041795
0.116822,-0.00621215
0.0848081,-0.0215756
0.027668,-0.0266642
-0.0217919,-0.0209963
-0.026461,-0.00453763
0.0241083,0.00288182
0.0349284,0.0108086
0.00857953,0.0208352
0.00105134,0.000627082
-0.0258427,-0.00563879
-0.062223,0.00499981
-0.0479763,-0.00176323
-0.00139944,-0.00664817
0.0478137,-0.00326607
0.0481745,0.0176572
0.0185553,0.0242722
0.00812703,0.0135739
0.00232857,0.0122717
-0.00623424,-0.00519166
-0.00698115,-0.0186165
-0.00422546,-0.00761011
-0.00780623,-0.00203207
-0.00796954,-0.0149149
-0.00604151,-0.0155176
-0.0131243,0.0187154
-0.0253104,0.00157909
-0.0118177,-0.00429843
0.00963467,-0.00415935
0.0166519,-0.00522933
0.0108647,0.00525765
-0.00497359,0.00730377
-0.0249675,0.00877535
-0.0240781,-0.00158663
-0.021206,-0.00472923
-0.00905337,0.00971047
0.0218955,0.000807844
0.0210407,-0.0174311
-0.0485794,-0.00135109
-0.0727488,0.0148923
-0.0266,-0.000510845
0.00642817,0.00346307
0.0254504,0.0160644
0.0451243,0.00943918
0.0548682,-0.0109662
0.0416109,-0.0177339
0.0164985,-0.0156359
0.00813924,-0.00297155
0.00857988,0.00816768
0.00123879,0.00184577
-0.000307381,-0.0022193
-0.00109242,0.00168
-0.00525565,-0.00666968
-0.00722312,-0.0171554
-0.0122665,-0.0137819
-0.0184942,-0.00457264
-0.0128775,0.0110475
-0.0097824,0.0152864
-0.0102875,0.0161382
-0.00243209,0.0131459
0.00848793,0.000841607
0.0137718,-0.00785491
0.0104246,0.000668888
0.00712907,0.00352887
0.00346647,0.00604592
0.000873328,0.00785477
-0.00126224,0.00593785
-0.00260217,0.00222275
-0.0126046,0.000122173
-0.0156942,-0.00555804
-0.00918949,-0.00357514
-0.0058913,-0.0163159
-0.00107573,-0.00740111
0.00550529,-0.00331699
0.00509251,-0.00554363
-0.000836357,0.000747073
-0.003982,0.0174076
0.0143301,0.00253987
0.00357019,-0.0165232
-0.0192294,-0.0119143
-0.00700111,-0.00100326
0.00462263,-0.00350049
0.0118757,-3.12e-05
0.0168985,0.0143984
0.00725767,0.0129203
-0.00738535,-0.00294148
-0.00406088,-0.0165661
-0.00224182,-0.0207192
-0.00601652,-0.0082789
-0.00895955,-0.00339444
-0.00426168,-0.0164639
0.00421127,0.0107831
0.0102005,0.0368659
0.0193246,0.0168398
0.0291992,-0.000795396
0.0298979,0.00794943
0.0366241,0.0104236
0.0179635,0.0110498
-0.0216202,0.00540278
-0.0408092,-0.000268861
-0.0278212,-0.0117147
-0.0168191,0.00211987
-0.00715763,-0.0136635
0.0015007,-0.0284919
-0.00708809,-0.00248582
0.00847588,0.0110854
-0.0112116,-0.00320004
-0.0757971,0.00364486
-0.081828,0.0172075
-0.0331188,0.0158438
0.0380544,-0.0115269
0.0524803,-0.0225599
-0.0304355,-0.0108141
-0.0693408,0.000125823
-0.0445156,0.0081039
0.0198899,0.0110929
0.0896599,0.00952496
0.0972327,0.0157784
0.0493188,0.00813864
0.0138397,-0.00974604
-0.0217408,-0.0225238
-0.0456064,-0.0166981
-0.0322872,0.00553855
0.0238026,0.00134213
0.0834562,0.00689273
0.0933059,0.0184781
0.0603605,0.0110126
0.0496832,-0.0143749
0.0334102,-0.011682
-0.0121591,0.00028569
-0.0773322,0.00120237
-0.100551,-0.00750603
-0.0801429,-0.00599567
-0.0657396,0.00230856
-0.0548607,0.0124223
-0.0118658,0.0140219
0.050805,-8.07e-05
0.0966285,-0.0119199
0.100403,-0.0101573
0.0675447,-0.00668037
0.00862978,-0.00793437
-0.0446388,0.00428084
-0.0937061,0.0093149
-0.141349,-0.0145769
-0.160399,-0.0100436
-0.12507,0.0109089
-0.0311018,0.00999842
0.0632,0.00654681
0.128106,0.0165695
0.156123,0.0347507
0.150663,0.0204212
0.087942,-0.0165933
0.00501984,-0.0386892
-0.000150243,-0.0244237
-0.0169557,-0.0133843
-0.0193878,-0.00489862
-0.00276532,-0.0021925
-0.00919496,0.0140377
-0.0243361,0.0173978
-0.0205334,0.0110423
-0.0109116,-0.0102474
-0.011501,-0.014616
-0.0192452,-0.00496862
-0.00506752,-0.00619393
0.0107693,-0.00475204
-0.0075446,0.00877972
-0.0352885,0.00874231
-0.0440059,0.0051367
-0.0276166,0.0077323
-0.00265978,-0.00556831
-0.00315802,-0.00484689
-0.0113002,-0.00413737
-0.0130433,0.002826
-0.00153716,0.0136503
0.0151186,0.0195493
0.0420318,0.0221836
0.0502023,0.00340874
0.0191649,-0.0192798
-0.0127919,-0.0183308
0.00636196,-0.00154094
0.0230635,-0.00752333
0.0105111,-0.00855039
-0.0106208,-0.0027839
-0.0239412,-0.00758498
-0.0193969,-0.00480377
-0.00564518,-0.00121528
0.00609944,-0.00775323
-0.0183235,-0.0112444
-0.0293615,0.00846716
-0.00409181,0.0123747
0.00753562,0.00249135
-0.0396249,0.014889
-0.11079,0.0289063
-0.0955821,0.0145253
-0.0284078,-0.0101677
0.0512046,-0.00988178
0.106893,-0.0103673
0.126266,-0.0143667
0.0919734,-0.00584126
0.0224158,0.00967446
-0.0169384,0.0125357
-0.025855,0.00829279
-0.0233292,-0.0171499
-0.00964094,-0.048752
0.0159527,-0.0186776
0.025756,0.0309321
-0.0127398,0.0394545
-0.0217007,0.0396007
-0.0202955,0.0212648
-0.0222886,-0.0156998
0.00173212,-0.00772434
0.0263225,-0.0316149
0.00680721,-0.0175785
-0.00454273,0.0133544
-0.0319206,-0.00186767
-0.0729099,-0.0206084
-0.0448932,-0.00121968
0.0138508,-0.00413733
0.0368785,-0.0218966
0.0218095,-0.00506435
0.00439117,0.00662946
0.0186231,0.00819444
0.0322816,0.0154917
0.0326185,0.01205
0.0383883,0.0177282
0.0218439,0.020012
0.0183975,0.0165551
0.0175071,-0.00606621
0.0159068,-0.0188192
0.0125737,-0.0120568
0.0064702,-0.00946811
-0.00956409,-0.00597757
-0.0222399,-0.00183961
-0.0264394,-0.0018003
-0.0286503,-0.013053
-0.0257897,-0.00694884
-0.00950613,0.000622989
-0.00163836,-0.00288331
-0.00713505,0.0116762
-0.0067299,0.0144324
-0.015172,0.0120049
-0.0332422,0.0149632
-0.0199295,0.0155157
-0.0171613,0.00261904
-0.0135865,-0.0232089
-0.0233525,-0.00475312
-0.0835868,0.00534245
-0.0800418,-0.0062174
-0.020548,-0.00762877
0.047513,-0.00112634
0.113943,0.000837796
0.0942736,0.0224393
0.0286267,0.0129255
-0.0112193,-0.038624
-0.0250578,-0.0525069
9.46e-05,-0.0206821
0.0325671,0.0218287
0.0580849,0.0292152
0.0680362,0.0230067
0.0358349,0.0190833
0.00143707,0.00214703
0.0121086,-0.0152291
0.00760081,-0.0154578
-0.00474821,-0.0105908
-0.00848147,-0.00193097
-0.0189793,0.00265479
-0.0333212,0.0159083
-0.0329899,0.0187638
-0.0297828,0.0104478
-0.0220726,0.000122332
-0.0113679,-0.00765955
-0.015483,-0.00654573
-0.0161155,0.00295089
-0.00899224,0.00167915
-0.011991,0.00402844
-0.0127116,0.0231366
-0.00501051,0.0327324
-0.0240232,-0.0337168
-0.0325649,-0.0613611
-0.00315874,-0.0329055
0.0304599,-0.00586858
0.0454207,0.0104904
0.029866,0.00839593
0.00943621,0.0160234
-0.000780263,0.00770192
-0.00543598,-0.00187853
-0.00437304,-0.011616
-0.00720827,-0.0122134
-0.00447629,0.00235665
0.0158693,0.00498933
0.0341875,0.0103353
0.0166937,0.0190494
0.00187205,0.0209853
0.00493026,0.00920906
0.01275,-0.00817221
0.0157864,-0.00891067
0.0110526,-0.0039619
-0.00711683,-0.00801255
-0.0694539,-0.00118334
-0.109429,0.00847363
-0.0818199,0.00657374
-0.00938556,0.00526625
0.0515116,-0.00522866
0.0880668,-0.0210775
0.0856679,-0.0231844
0.0196858,-0.00352398
-0.0259288,0.0036533
-0.0156267,0.00894048
0.0110521,0.0206958
0.0333706,0.0197221
0.0216516,0.0109082
-0.025372,-0.00708
-0.0521886,-0.0094361
-0.0379043,-0.0154236
-0.00110615,-0.0146647
0.00572362,-0.000428714
-0.0188655,0.0204957
-0.00428962,0.0243036
-0.00443541,0.0129856
-0.0276985,0.0010322
-0.00853123,-0.0283277
0.00903135,-0.0350994
-0.0015103,-0.0186853
-0.0011964,0.000664504
-0.00626343,-0.00695992
0.0219691,0.0221987
0.0516947,0.0420968
0.0511387,0.0111802
0.0485827,-0.0208174
0.0314476,-0.0165575
0.0184938,-0.00939552
0.00882797,0.00865398
-0.0198434,0.0136635
-0.0328729,-0.0056828
-0.0211037,-0.0195345
-0.0125965,0.00120452
-0.00475217,0.000608331
0.000649223,-0.00874787
0.0016082,-0.0070052
0.00281156,0.0114168
-0.00144423,0.0188408
-0.0100284,0.0170487
-0.0152142,0.0169973
-0.0212466,0.006816
-0.0341161,-0.00835472
-0.0205734,-0.0129021
0.00877701,-0.00803318
0.040094,-0.00736681
0.034409,-0.00103215
0.000882466,0.0083725
-0.0423143,0.00711104
-0.0701986,0.00118969
-0.0452171,-0.00573348
-0.014175,-0.0176395
0.01131,-0.0131419
0.0328024,0.00550612
0.0592957,0.0201797
0.0553239,0.0186311
0.00676803,0.0099258
-0.0123809,0.0172204
0.00797325,-0.00654752
0.0166733,-0.0324431
-0.0104405,-0.0150562
-0.00697887,0.000384348
-0.013326,-0.00943933
0.0125691,-0.0193083
0.044568,0.018213
0.017586,0.0246583
-0.0155826,0.00647921
-0.0298784,-0.00771527
-0.0218321,-0.0140504
0.0122844,-0.00972709
0.0196916,-0.00265817
-0.0286396,0.00406202
-0.0304417,0.00586268
-0.0494947,0.0151997
-0.105519,0.0163379
-0.0906581,-0.00283323
-0.0238953,-0.0174273
0.0507291,-0.0120274
0.0796477,-0.00237245
0.0764695,0.00410161
0.0533949,0.00109463
0.0153817,0.00186384
0.0131276,-0.00657292
0.0399189,-0.00917742
0.000114479,-0.0133319
-0.0453709,-0.000530741
-0.0181944,0.0216918
0.0217325,0.00132371
0.0452404,1.47e-06
0.0464869,0.0163091
0.0187149,0.0178658
0.00801193,0.00862057
0.0172502,-0.0102473
0.0233821,-0.0182482
-0.00826621,-0.0157131
-0.0542562,-0.011136
-0.0551944,0.000850186
-0.034166,0.0121057
-0.023517,0.00758088
-0.0231881,0.00438152
-0.0162436,0.0109408
0.0138964,-0.00115083
0.0442273,-0.0129061
0.0334895,-0.00484763
0.0015947,0.00198807
-0.0140669,0.00558722
-0.0133083,0.0157553
-0.0172362,0.0152618
-0.000397241,-0.00429618
0.00339111,-0.0304678
-0.0180947,-0.0305398
-0.0210116,-0.0231231
0.0125303,0.00723749
0.0202314,0.0240679
0.00933443,0.0199794
0.0109681,0.0096468
0.0188646,0.00949571
0.00194334,-0.00178383
-0.00993845,-0.0119467
-0.00511456,-0.0112891
-0.00367748,0.00736406
0.000947664,0.0152308
0.00371475,0.00898271
0.00737914,0.0089216
0.00115605,0.0109728
-0.0245768,-0.00467102
-0.0384704,-0.0132668
-0.0309626,-0.0083189
-0.00402861,-0.0115408
0.010001,-0.00707525
0.0107742,-0.000193823
-0.00830599,0.00764264
-0.0445132,0.0176011
-0.0619585,0.0090516
-0.0207271,-0.0127867
0.0213174,-0.00979205
0.0538616,-0.0144947
0.0578238,-0.0198665
0.0369731,-0.0123112
0.0165304,0.00407031
-0.0262981,0.00684421
-0.0398102,0.0163527
0.000281918,0.00603781
0.0464595,-0.00607795
0.063481,-0.00914681
0.0546958,-0.00536648
0.0364883,0.00684302
0.0234611,0.0215083
0.00131002,0.0190744
-0.046987,0.0171321
-0.0614065,0.00955871
-0.0238944,-0.0102137
-0.0359695,-0.0289745
-0.0433093,-0.0256242
-0.0229255,-0.0251316
0.0165705,0.00528139
0.0188375,0.0319149
0.0136708,0.042553
0.0248599,0.0027766
0.0235882,-0.0206577
-0.015167,-0.0163855
-0.0258234,-0.0191259
-0.000717888,-0.017735
0.0238662,0.00358089
0.0289074,0.012723
0.0205266,0.00598867
0.0124443,0.00091638
-0.00211932,-0.00907482
-0.00843043,-0.0191284
-0.00416489,-0.00777079
0.000731318,0.0140893
0.0168178,0.0154474
-0.0195944,0.0101337
-0.1079,0.0154866
-0.120075,0.0089173
-0.0920385,-0.0274088
-0.0337039,-0.00990117
0.00544023,0.00653655
0.0413605,0.00485607
0.0755286,0.00655446
0.0999849,0.00851847
0.100862,0.0078357
0.0824064,0.00325931
0.0566039,-0.00106919
-0.0283065,-0.0119378
-0.0520449,-0.0162487
-0.00928126,-0.00406125
0.0220472,0.00876938
0.0123689,0.0171648
0.00708675,0.0110484
0.0193646,0.0108029
0.0102882,0.0141321
-0.0126153,0.000595994
-0.0153105,-0.0163497
-0.00240971,-0.0144746
-0.00230352,-0.0102458
-0.00924787,-0.00870257
-0.0502322,-0.0110538
-0.125431,0.000588273
-0.145384,-0.00235975
-0.0933449,0.000612948
0.00429408,-0.00709275
0.0656513,-0.00991181
0.0771164,0.00480613
0.0698492,0.0105259
0.0740372,0.00479354
0.0730936,0.00502918
0.0478161,0.0124811
0.022071,0.023448
0.010846,-0.00139864
-0.00564658,-0.0108787
-0.0254507,-0.00993826
-0.0437808,-0.0059291
-0.0237973,0.0204962
0.00669941,0.0124159
-0.0064471,-0.0203189
-0.00785504,-0.0279606
0.0157905,0.000554226
0.00612124,-0.0183738
-0.0162451,-0.0192391
-0.0274216,0.00809411
-0.0223608,0.0142378
-0.0145059,0.0154552
-0.0187123,0.0210658
-0.0245363,0.0123643
-0.00613522,-0.00495414
0.0225747,-0.0150439
0.0332435,-0.0126937
0.0236726,-0.0124787
0.0176401,0.00214535
0.01282,0.0136469
-0.000404341,0.0219133
-0.0116652,0.0195039
-0.0211498,0.010923
-0.0132987,-0.0125001
-0.00358763,-0.0291003
-0.00625293,-0.0231755
-0.00507945,-0.000164571
0.00156142,0.0151757
0.00265672,0.0117313
0.00419649,0.0110881
0.00366367,0.00716782
0.00992238,-0.00146405
0.023544,-0.00774502
0.0103498,-0.0102272
-0.00172967,-0.00987605
0.00857289,0.00215493
0.0058564,0.0118306
-0.00704608,0.00260747
-0.0229721,0.00478218
-0.0429161,-0.00219173
-0.0356745,-0.0165134
-0.000716741,-0.0142074
0.0526222,-0.00272867
0.0495513,0.00344349
-0.0368981,0.00844889
-0.0850114,0.0120336
-0.0537498,0.0130992
-0.00151205,0.00622999
0.0446931,0.00159024
0.0659747,0.00804524
0.0698408,-0.0221849
0.0262831,-0.0205113
-0.00990131,-0.00515518
-0.0138283,0.0104964
-0.00472748,0.0124725
0.00876893,0.0018568
0.0097199,-0.02022
0.0077742,-0.0336617
0.00413848,-0.00432079
-0.0102627,0.00552785
-0.0229494,0.00836484
-0.0285883,0.00380007
-0.00629773,0.00991887
0.0177422,0.0135947
0.0204999,0.0173469
0.0232623,-0.000488441
0.0190454,-0.011859
-0.0175825,-0.00284394
-0.0940348,0.00436474
-0.0963753,0.0116263
-0.0425283,0.0128067
0.0188054,0.00903881
0.0224381,0.000514564
0.016692,-0.0146672
0.0282635,-0.0183196
0.0304339,-0.00559431
0.039621,-0.000279583
0.0481388,-0.00380902
0.033526,-0.00332389
0.0267718,0.00558513
0.0164663,0.00544413
0.00337696,-0.00969194
-0.00844128,-0.0145675
0.00134807,-0.00336912
0.0188585,0.00258193
0.0148427,0.0171022
-0.0252107,-0.00108515
-0.0622785,-0.0148497
-0.0481873,0.0114072
-0.0225453,0.0226383
-0.00739363,-0.00173085
-0.0219469,-0.00969359
-0.0172048,-0.00159327
-0.00252893,0.00422116
-0.00414363,0.00448124
6.3e-05,0.00624223
0.0161411,0.0116234
0.0151888,0.00457051
0.00779731,-0.00938126
0.0266744,-0.00528054
0.0527745,0.0024112
0.0423913,-0.00078684
-0.00813663,-0.000881187
-0.0215071,0.0111906
-0.0069201,0.0100043
-0.00581595,0.00147341
0.0010503,-0.00628003
0.0193781,-0.0162644
0.0333732,-0.0112771
0.000283509,-0.00159111
-0.0516731,0.00300826
-0.0489534,0.00655617
-0.0585915,-0.0034963
0.0139555,-0.029906
0.0496876,-0.0388373
0.020312,-0.0180388
0.00200234,-0.000721277
0.0130133,0.011767
0.0150691,0.0256873
-0.0269745,0.0253761
-0.0664064,0.0273988
-0.0547691,0.0319132
-0.0261379,0.0141269
0.0141924,-0.00233554
0.0405208,0.00099229
0.0276205,0.00548304
-0.00732691,-0.00360617
-0.0344839,-0.0104082
-0.0271711,-0.0100263
-0.00633895,-0.0167671
0.0106355,-0.0393284
0.0287168,-0.0619297
0.0490172,-0.0138367
0.0537551,0.0106241
0.0317852,0.00944133
-0.00543308,0.0129014
-0.019496,0.019721
-0.0051971,0.0390207
0.0120373,0.0316971
0.0162017,0.00535158
0.00763181,-0.00655319
0.00614354,-0.000119995
-0.00435747,0.00552351
-0.0152406,0.00186357
-0.0194968,-0.00415247
-0.0133575,-0.00689541
-0.00701338,-0.00844582
-0.00467293,-0.0210362
-0.00569614,-0.0133888
-0.00405615,-0.00206918
0.00737089,-0.00358505
0.0107764,0.00563124
0.00595232,0.0160244
-0.000966691,0.0186208
-0.00641975,0.0161943
-0.00396775,0.00940739
-0.000130952,-0.00994858
-0.00146703,-0.0135519
-0.0054596,-0.00699056
0.00267133,-0.0102225
0.00101519,0.000336282
2.26e-05,0.00922315
0.00354621,0.00324077
0.00609208,-0.00798556
-0.00257202,-0.0185676
-0.028575,-0.0192886
-0.016423,0.00602261
0.00860573,0.0102348
0.0209603,0.0121237
0.0265575,0.02455
0.0239733,0.0262416
-0.0057987,0.0179723
-0.0938521,0.00237763
-0.139298,-0.0126624
-0.104318,-0.0183516
-0.0347203,-0.0159792
0.0518073,-0.0012201
0.124744,-0.00564112
0.0925644,-0.00406019
0.0487117,0.00315935
0.0316758,-0.00993381
0.0211205,-0.0197008
0.0195358,-0.0131962
0.0232891,-0.0100115
0.026233,0.000276352
0.0219398,0.0164827
0.00547436,0.0206345
-0.00506233,0.015749
-0.00721087,0.00789835
0.00671308,-0.006999
0.0182975,-0.0135083
0.00499309,-0.00705906
-0.0193363,0.00311577
-0.0281142,-0.00243311
-0.0218562,-0.00387391
-0.025188,-0.00073895
-0.0325284,-0.000558295
-0.0341074,-0.00893839
-0.0429876,-0.0201006
-0.0369262,-0.00668544
-0.0253874,0.012102
-0.0171468,0.00764592
0.00584796,0.0132821
0.0105577,0.00280778
0.0214568,-0.0236073
0.0334561,0.00781553
0.0402371,0.022159
0.0493419,0.00731253
0.0370356,0.00509536
0.00865964,0.0139709
-0.0195059,0.0106451
-0.0157603,-0.0116101
-0.00350263,-0.00981626
-0.00446424,-0.00984131
-0.0109927,-0.0133088
-0.00898838,-0.00191323
-0.00147678,-0.0024713
-0.0008626,-0.00169266
0.000124578,0.00871886
-0.00750431,0.015192
-0.0111376,0.0169626
-0.0105985,0.0134657
-0.00241898,0.000557328
0.00608301,-0.0105322
0.00172906,-0.00450637
-0.00426072,0.00611959
-0.0103387,0.00464341
-0.0105963,0.00491254
-0.0058279,0.000124982
-0.00369829,-0.0100089
-0.00397361,-0.0127308
-0.00863742,-0.0167603
-0.00668766,-0.01488
0.0112971,-0.0238211
0.0215701,0.00898188
0.0115818,0.0191174
0.00200762,0.0166878
0.00106717,0.0144458
0.00205324,0.0106369
0.010841,-0.00742575
0.0155665,-0.0157946
0.0106569,-0.00241646
0.0029265,0.00672505
-0.00173104,-0.00106211
-0.00184163,-0.00310511
-0.00207048,0.000812542
0.00208578,0.00382876
0.00639299,-0.00357144
0.00163819,-0.0086086
-0.00531246,-0.00450035
-0.0036601,-0.00280053
0.000368403,0.00304177
0.00312178,0.00539642
0.00499614,0.0150944
-0.00121052,0.015909
-0.00617434,-0.00308299
-0.005048,-0.0254973
-0.00429699,-0.0110866
-0.0102759,0.00850444
-0.00650324,0.0313882
-0.00461567,-0.0267788
0.000844039,-0.0337287
-3.84e-05,0.000294681
0.00204401,0.00630284
0.00291126,-0.00903491
0.000114935,-0.00712677
-0.000120755,-0.00248229
0.00410414,0.00170769
0.00626663,0.00896518
-0.000223122,0.00966708
-0.00186988,0.0110464
-0.00376448,0.0187265
