Comp Ch 3,Comp Ch 4
-0.0353218,-0.00868364
-0.0859015,-0.0306661
-0.0785981,-0.0114497
-0.0451422,-0.00146022
0.0128236,-0.00690651
0.0745645,0.00976866
0.102871,-0.00461876
0.0919236,-0.0349665
0.066073,-0.0025079
0.00326658,0.0118319
-0.0682525,0.00475647
-0.0570579,-0.00816971
-0.0170371,-0.0384114
0.0138499,0.00308544
0.0402675,0.0525302
0.0489894,0.0646183
0.0365465,0.019396
0.000647875,-0.0242826
-0.0817379,-0.0216181
-0.187997,-4.82e-05
-0.183926,-0.021397
-0.0545656,-0.0291147
0.0417725,-0.0153932
0.15913,0.00757035
0.213527,-0.0274098
0.164531,-0.00726552
-0.0232892,0.00572299
-0.103418,-0.0143033
-0.141195,-0.00637408
-0.0391733,0.00448337
0.108666,0.0311481
0.123451,0.0320825
0.0924198,0.0322382
0.0224438,0.0100974
-0.0419786,-0.00222484
-0.0582677,0.0109648
-0.0566474,0.00624672
-0.0365841,0.00601699
-0.013138,0.00078213
-0.0183703,-0.0147985
-0.00190187,-0.0377947
0.0116493,-0.0469192
0.00499865,-0.0304017
0.0104881,-0.023653
0.0151869,-0.0121625
-0.00142883,0.0121924
-0.0149392,0.0293234
-0.00637498,0.0342312
-0.00183376,0.0302348
-0.0125974,0.0230704
0.000136921,0.0056438
-0.00720821,-0.00566589
-0.0325445,0.0140641
-0.00758771,0.0220586
0.0241515,0.017919
0.0357779,0.00133798
0.0408316,-0.00112221
0.028771,-0.0277922
0.00538242,-0.0525453
-0.0120449,-0.0469375
-0.0244878,-0.0261555
-0.0238203,-0.010462
-0.0238604,0.00611274
-0.0291811,0.0362037
-0.0208399,0.0388821
-0.000488077,0.0450727
0.00903608,0.0172232
0.0105928,-0.00121483
0.0057162,0.00991346
0.00346182,0.0102288
0.00906631,-0.00845204
0.00796606,-0.00997657
0.00488764,0.0110174
-0.00397744,-0.00395979
-0.0165601,-0.0403512
-0.0223841,-0.0495011
-0.026803,-0.0468722
-0.0262738,-0.0282626
-0.0117161,-0.0224352
-0.00338686,0.00429799
-0.00145961,0.00793201
0.00274958,0.00426339
0.0178928,0.0490422
0.0282669,0.0319627
0.0273005,0.0120684
0.0201142,0.0304523
0.0198982,0.0276164
0.0249026,0.0166614
0.0226501,0.0115332
0.00272754,0.00200374
-0.0104617,-0.0474593
-0.0102466,-0.0597332
-0.0126833,-0.0281801
-0.00538802,-0.0289835
0.0121202,0.00329847
0.00953134,0.0219268
-0.00328351,0.0291904
0.00751576,0.0567753
0.0149653,0.0271061
0.00477737,-0.0225014
-0.0557136,-0.0258969
-0.122754,-0.00559943
-0.12052,0.00195226
-0.0870693,0.0233218
-0.0427258,0.0167062
0.0406405,0.0246548
0.115581,0.0226358
0.101162,-0.0258425
0.0508239,-0.042074
-0.00157368,-0.0311505
-0.039171,-0.0326362
-0.0379676,-0.02495
0.00662675,0.00525598
0.0473772,0.0332556
0.0720539,0.0151362
0.0776843,0.0209363
0.0585849,0.0031774
0.00771552,-0.0088518
-0.0228221,0.0171735
-0.013145,0.0122817
0.0417341,-0.00372192
0.0720145,0.00896698
0.0333797,0.0184938
0.00353813,0.0117902
-0.0267232,-0.0388971
-0.0647699,-0.0504053
-0.0906691,-0.0296065
-0.0976733,-0.0219589
-0.0928665,-0.0191697
-0.0931098,-0.00632721
-0.0705468,0.0296439
-0.0163474,0.00930537
0.0512868,0.0152044
0.0789898,0.0161279
0.0923519,6.47e-05
0.0957846,0.0250912
0.0597172,0.0273657
0.0208006,0.016622
0.012173,0.0189383
0.0105979,0.0196626
0.0121901,-0.0106474
0.0147325,-0.0282094
0.00618835,-0.0262338
0.000901767,-0.0207475
-0.0107858,-0.0267739
-0.0413193,-0.0220105
-0.0447464,0.0131903
-0.0144218,0.0323414
-0.0291992,0.0176764
-0.0382512,0.0236239
-0.0223778,-0.0341234
0.000780337,-0.00729589
-0.000244109,0.0353092
-0.0488834,0.0246956
-0.0773559,-0.00528356
-0.0523238,0.0263032
0.0102636,0.0239045
0.0597785,-0.0165073
0.0530734,-0.0260062
0.0371563,-0.0360177
0.0116747,-0.0271119
-0.00917954,-0.0141819
-0.0289092,0.00619709
-0.0688755,0.0179351
-0.0454334,0.011799
0.0265202,0.00618957
0.0666063,-0.0231614
0.101046,-0.0290363
0.0977523,-0.0161597
0.0527167,-0.00935902
0.023972,0.0408415
-0.000532353,0.0427682
-0.0277579,0.0188113
-0.0227997,-0.000718517
-0.00557888,-0.0162942
-0.00655764,-0.0215172
-0.0112902,-0.013204
-0.014351,-0.0124036
-0.0130185,-0.00332352
-0.017151,0.0123653
-0.014924,0.0119769
0.00176085,0.0119742
0.00935184,0.0092109
0.00139425,-0.00844433
-0.00750147,-0.0145715
-0.00535278,0.0133331
0.015438,0.0170488
0.0261887,0.00933589
0.00959545,0.0181717
-0.0144047,0.0176794
-0.0173291,0.000512928
-0.0296237,-0.0280102
-0.0435745,-0.0337086
-0.0406798,-0.0459567
-0.0243744,-0.0229438
-0.0238542,0.00253215
-0.0298342,-0.00408382
-0.00928366,-0.000213196
0.00548836,0.0301824
0.0227317,0.019607
0.037101,-0.00761731
0.0430414,-0.00393065
0.0252614,0.00223776
-0.00101754,0.00685222
-0.00417572,0.0047723
0.00426927,0.0318785
0.0139952,0.0363404
0.0213705,-0.00336688
0.00941195,-0.0473491
0.00207586,-0.035794
-0.0156187,-0.0237533
-0.0203691,-0.0105532
-0.00747289,0.011882
-0.0137026,0.0450205
-0.0193916,0.0349673
-0.00715437,0.0181661
0.0191831,-0.0106552
0.0444581,-0.0220269
0.0409657,-0.00441777
0.00732298,0.0155554
-0.0521235,0.0158486
-0.111104,0.0194303
-0.115022,0.013972
-0.0693934,-0.0138589
-0.00727568,-0.0139187
0.0390304,-0.0341727
0.079673,-0.0205121
0.108109,-0.0108078
0.0941238,-0.0117118
0.0807336,-0.00401286
0.0631319,0.00352387
0.0310617,-0.00612044
0.0114669,-0.00236018
0.00355427,0.0116267
-0.0213173,-0.00869693
-0.0413463,-0.00451309
-0.0371508,0.00800549
-0.0422636,0.00567411
-0.0701359,0.0173372
-0.0532872,0.026585
-0.00679072,0.00191793
0.0304671,-0.0345667
0.0319868,-0.034995
0.00539791,-0.036809
-0.00259113,-0.0197846
-0.00927363,0.0198316
-0.0263063,0.0262416
-0.0291595,0.0202491
0.00593356,0.0137498
0.0422378,0.00397615
0.0299185,-0.0152286
-0.00350205,-0.00835433
-0.0198709,0.014451
-0.0051533,0.0168718
0.016565,0.0195036
0.0267371,0.0327058
0.0213288,0.041138
0.0267461,0.0168173
-0.0296833,-8.2e-05
-0.113022,0.0147515
-0.101344,-0.014023
-0.0445377,0.0296302
0.00825501,0.0290818
0.066369,-0.041657
0.0923887,-0.0585857
0.057637,-0.00924123
0.0281813,-0.0220323
0.0297531,-0.0498576
0.011772,-0.032211
-0.0301777,-0.0180434
-0.0552934,-0.00955676
-0.0270064,-0.0026394
-0.00644599,0.00592364
0.00552989,-0.00675227
0.0176797,-0.02759
0.0364016,-0.033227
0.0376899,0.00219862
-0.0014291,0.0107667
-0.0318748,0.0189232
-0.0417888,0.0349632
-0.00743184,0.0607484
0.0205409,0.0741762
0.0213242,0.0521417
0.00575048,-0.00267244
-0.0230051,-0.0450104
-0.0299275,-0.015674
-0.0225354,0.019749
-0.00406284,0.0190065
0.00233698,0.0262124
0.00364484,0.0320669
0.0103903,0.0160028
0.0234703,-0.0200798
0.0234385,-0.0250314
0.0120224,-0.0126276
-0.0100749,-0.0153324
-0.0356628,-0.0171031
-0.0403934,-0.0253923
-0.0273827,-0.0239225
-0.0152001,0.00783222
0.00481583,0.00199824
0.0253282,-0.0199892
0.0296476,-0.0200298
0.022063,0.00136896
0.009896,0.000171494
0.00417179,0.000506266
0.0038899,0.0113581
-0.00619665,0.0167994
-0.0103412,0.00720107
-0.00827788,-0.0189546
-0.0162087,-0.0204065
-0.015296,-0.0160777
-0.0129317,-0.00690589
0.0217617,0.0110927
0.0432288,0.0149556
0.0151482,0.00334589
-0.0142549,-0.00499953
-0.00422996,-0.0210616
0.0212517,-0.0287771
0.0314177,0.00507056
0.0318687,0.0179971
0.02164,-0.00142091
0.00309366,0.00221679
-0.0299974,0.0200957
-0.0543053,0.0256636
-0.0632707,0.00881646
-0.0313692,-0.0174504
0.0153054,-0.0146983
0.028734,-0.00983237
0.0270219,0.00301148
-0.0493316,0.0173938
-0.0990305,0.0147127
-0.0632825,0.00583027
-0.010366,-0.00893994
0.0428931,-0.0130285
0.0696236,-0.0146731
0.0601008,-0.0103025
0.0393421,0.00116606
0.00605221,-0.00969886
0.00426678,0.0151856
0.0307996,0.0494941
0.0344209,0.0256391
0.0597877,-0.00424772
0.0867825,-0.020934
0.0610641,-0.0329486
0.0193234,-0.0168805
-0.0123675,-0.0133562
-0.0438909,0.00461933
-0.0484917,0.00885327
-0.0702066,-0.0106713
-0.0888385,-0.000758238
-0.0768704,-0.045717
-0.0648996,-0.0201952
-0.0595317,0.0392087
-0.00863215,0.0259622
0.0366271,0.0296509
0.0547483,0.0232339
0.0691705,0.0236154
0.108898,0.00561488
0.114751,-0.0200696
0.0770507,-0.00895204
0.0215952,0.0042943
-0.0414046,0.0235354
-0.0844578,0.0412775
-0.0748067,0.0415647
-0.0614634,0.0108373
-0.0586908,-0.0307123
-0.0571108,-0.054963
-0.036961,-0.0401253
-0.0175353,-0.0105455
-0.035245,0.0126876
-0.0515994,0.0092615
-0.0330628,-0.00969477
-0.00118868,0.0147618
0.0240619,0.0157252
0.0286956,-0.0181296
0.0564749,-0.0354373
0.103161,-0.0178879
0.122308,-0.00676135
0.0808545,0.000342572
0.026342,0.0107194
-0.0344485,0.0140238
-0.066538,0.0135268
-0.0600457,0.00904328
-0.043016,-0.0144148
-0.0208733,-0.0489125
-0.00370359,-0.0150392
0.0225673,0.0225084
0.0310336,0.0172092
-0.00321672,0.022728
-0.0349166,0.0311831
-0.0556687,0.0025259
-0.0679342,-0.0159032
-0.0689555,-0.00608873
-0.0313182,-0.00123408
0.0315993,0.0052519
0.043166,0.0318985
0.0414375,0.0387387
0.0258852,-0.00083759
0.00556399,-0.00771856
-0.0258429,-0.00143648
-0.0221833,-0.0235306
4.18e-05,-0.0361625
-0.00787891,-0.0236205
-0.0137127,-0.0222239
0.00228623,-0.0315764
0.0384087,0.0361577
0.043576,0.0493394
0.0777076,-0.00159872
0.147455,-0.0264944
0.197835,-0.0263418
0.196351,-0.0210093
0.14678,0.0115789
0.0255153,0.0534982
-0.0990383,0.0385892
-0.108005,0.0443365
-0.0626435,-0.00863376
-0.0922673,-0.040628
-0.126875,-0.0505041
-0.0916924,-0.0268496
-0.0756838,0.011348
-0.0485512,0.0200771
-0.0753226,0.0229657
-0.0738426,0.0308655
0.0407606,0.0116094
0.0743222,-0.0313911
0.0392732,-0.0434297
-0.00717642,-0.00692995
-0.0947491,-0.00661568
-0.150651,0.0209685
-0.149392,0.0356614
-0.0468137,-0.00179477
0.016646,-0.015045
-0.00885264,-0.0139091
0.0252025,-0.0192073
0.0732503,-0.0223679
0.0793676,-0.00163624
0.107255,0.0202527
0.127351,0.0294741
0.0891534,0.00575945
0.0313641,-0.0117368
-0.00879427,-0.0033137
-0.0396218,-0.00609448
-0.00907764,-0.0191139
0.0257715,-0.0211829
0.0293374,-0.0265614
0.00687352,-0.0116708
-0.0449212,-0.010838
-0.0703509,0.0160404
-0.0723047,0.00704087
-0.0508469,0.00837253
-0.043215,0.00690792
-0.0418386,-0.0141106
-0.0259048,0.0199215
-0.0198549,0.0219956
-0.010108,0.016428
0.00308526,0.0301091
-0.0202392,0.0317714
-0.0216346,0.00131736
0.0375241,-0.0147265
0.0614586,0.00390895
0.104035,0.00683351
0.124424,-0.0275143
0.169025,0.00159492
0.179934,0.00672212
0.238921,0.0236492
0.404198,0.0356956
0.419872,-0.0354304
0.23559,-0.0586538
-0.0961237,-0.010395
-0.457513,0.0208745
-0.482681,0.02343
-0.364092,0.0145884
-0.236825,0.0147903
-0.114623,0.015415
0.0547031,-0.00198773
0.0736827,-0.042223
-0.142444,-0.0304175
-0.369616,-0.00577882
-0.327151,0.00349941
-0.15079,0.00318423
-0.0184731,-0.00979435
0.0918984,0.0194131
0.274254,0.0159828
0.350305,-0.0192141
0.237325,-0.0288247
0.121328,0.0284215
-0.00301584,0.0346165
-0.135932,-0.0139244
-0.136938,-0.00536603
-0.0801295,0.0129275
-0.0606288,-0.0298404
-0.0248978,-0.00017227
-0.0124156,-0.0145743
-0.0134806,-0.0174374
0.029084,-0.0182511
0.120024,0.0182351
0.093707,0.0389794
0.0194987,0.0245015
-0.0346638,0.0219324
-0.026307,0.0106382
0.0388204,-0.0481185
0.0898894,-0.0461222
0.105042,0.0250637
0.0480419,0.0248282
-0.0542066,0.0243972
-0.0971229,0.049933
-0.100311,0.0158164
-0.0248319,-0.047706
0.0688123,-0.0557842
0.115872,-0.0272012
0.181349,-0.0154711
0.235368,0.00799807
0.198928,0.0339853
0.0777811,0.0225074
-0.0464645,-0.0134471
-0.0687462,0.00407137
-0.127874,-0.000415722
-0.208516,-0.0363266
-0.22884,-0.0228651
-0.19866,-0.00451016
-0.112761,0.00458209
-0.0269469,0.0260382
0.202069,0.0267223
0.314721,0.00721853
0.188456,-0.0440757
-0.0294079,-0.0349051
-0.142502,-0.0218389
-0.198988,-0.00884383
-0.258621,-0.0167922
-0.198103,0.0155922
-0.0814992,0.0768722
-0.0556721,0.0808193
-0.0793616,0.0605819
-0.0160589,0.0586935
0.0450271,0.044149
0.0495993,-0.035186
0.05879,-0.10168
0.0617251,-0.0749743
0.0233948,-0.0122997
0.00297858,0.0185244
0.106447,0.0090577
0.273052,-0.027811
0.420504,-0.0354831
0.451355,-0.0388043
0.365696,-0.0306143
0.452995,-0.0392591
0.222846,0.0231513
-0.131251,0.0495827
-0.420344,0.0381894
-0.428542,0.0338924
-0.314932,-0.0290342
-0.346128,-0.0516392
-0.422002,-0.015426
-0.328165,0.00766958
-0.122356,0.00978932
-0.0497112,0.0448335
-0.0297434,0.0932735
-0.011066,0.00241493
0.0138752,-0.0436534
0.0351443,-0.0282676
0.0419123,-0.00556917
0.0100727,-0.00385716
-0.0181594,0.0124867
0.0148416,0.0252556
0.0757973,0.0047573
0.101757,-0.00939035
0.105059,-0.019413
0.1217,-0.00790087
0.136113,0.00416693
0.147391,0.00136281
0.13453,0.0040486
0.0851047,0.0163535
0.0150761,0.0311851
-0.0393438,0.00452449
-0.0668924,-0.0198346
-0.0659404,-0.0168059
-0.0664414,-0.0179813
-0.0852384,-0.00516986
-0.0998464,0.00454059
-0.0800466,8.57e-05
-0.0487301,0.0183482
-0.0566815,0.000670623
-0.0467337,-0.0211945
-0.00473494,-0.0164699
0.0846329,-0.00923686
0.176226,0.000517897
0.243469,0.00741997
0.234992,0.00230838
0.153,0.0120878
0.091739,0.0486319
0.0573799,0.0528051
0.0154824,0.0176417
-0.0481494,-0.0135891
-0.128324,-0.0221715
-0.18251,-0.0566346
-0.185492,-0.0615335
-0.165246,0.00400121
-0.169175,0.0115834
-0.0889547,0.057103
0.00587284,0.00197511
0.0937863,-0.0513511
0.384492,-0.0224659
0.494648,-0.0126353
0.226909,-0.0232805
-0.156676,0.00386614
-0.386639,0.0486707
-0.413981,0.0570225
-0.362148,0.0370697
-0.212436,0.00956103
-0.0504354,-0.00666467
0.0442613,-0.0301681
0.07664,-0.019592
0.0433528,0.00645235
-0.00955921,0.0156498
-0.0056994,0.00699973
0.0506856,0.00603542
0.0958304,-0.00937279
0.0920893,-0.0356419
0.0730499,-0.0282181
0.0617304,-0.0154401
0.0679581,-0.0101022
0.0760947,0.00332815
0.0276449,0.00528027
-0.0136947,-0.000649431
0.00530053,0.043154
0.0147403,0.026965
-0.00615461,0.00150035
-0.0018907,-0.0121596
0.0630519,-0.0103067
0.102868,-0.0166188
0.172192,0.00481347
0.228866,0.0158203
0.142353,0.0147079
0.00412525,0.000580054
-0.153377,-0.0263122
-0.230371,-0.00174628
-0.271248,0.0348715
-0.153902,-0.00488246
-0.0288121,-0.0327607
-0.0325735,-0.00783512
-0.047578,-0.0489184
-0.0457776,-0.0462373
-0.020315,-0.0148414
0.00292549,0.01736
-0.00282804,0.0145334
-0.0172434,0.0199987
-0.0257935,0.0269301
-0.00546171,0.0198696
0.0249207,0.00904894
0.0359019,-0.0050486
0.0365084,-0.0478716
0.0504257,-0.0448142
0.0489538,0.00149444
0.0498008,0.00849926
0.062832,0.0116775
0.0536435,0.0684897
0.0359968,0.0544721
0.045374,-0.0720663
0.0480968,-0.0521202
0.0298077,0.00916994
-0.007513,0.01124
-0.0489624,0.0394492
-0.0778435,0.0566689
-0.0867596,0.0451392
-0.0907881,0.0203931
-0.0789771,-0.00616686
-0.0231876,-0.00523291
0.0276929,-0.0163737
0.0612357,-0.0194074
0.0533443,-0.00542183
0.0465504,-0.00804705
0.0493642,0.0067633
-0.000910004,-0.0017269
-0.0435389,-0.00977454
-0.042008,-0.00125047
-0.011259,0.00564931
0.00371515,0.00913714
-0.00396421,0.00532251
-0.0323843,0.00925792
-0.0310475,0.04231
-0.0196037,0.0886446
-0.008756,0.0261984
0.0182996,-0.0494411
0.0350704,-0.0551863
0.0300541,-0.0437413
0.0150768,-0.039732
-0.0183861,-0.027902
-0.0819167,0.0141269
-0.0258495,-0.0133982
0.0875576,-0.0239889
0.108933,-0.000427477
0.0579549,-0.0276736
0.0151197,-0.00900061
-0.0409733,0.0102343
-0.0690165,0.00685441
0.0600499,0.00923676
0.0878795,0.0204417
0.0681993,0.0207973
0.0182662,0.00833975
-0.0532939,0.000784613
-0.0939193,-0.00838978
-0.107825,-0.0197894
-0.0317575,-0.0197952
0.028849,-0.0429161
0.0722448,0.00857888
0.0600694,0.0341117
0.000724536,0.016493
-0.0680005,0.010965
-0.0783231,-0.0208872
-0.036531,-0.0123896
-0.016609,0.0119345
-0.0273991,-0.0108505
-0.0300087,0.0018679
-0.0227256,0.020484
-0.00201305,0.0118888
0.0226515,-0.00693651
0.0368236,-0.022592
0.0308573,-0.0275249
0.022214,-0.0158225
0.0487356,-0.00334931
0.0686372,-0.00890029
0.0420941,0.000784254
0.00659234,0.0366896
-0.0482281,0.046251
-0.0994281,0.00599162
-0.0910712,0.00787969
-0.0381376,0.0157396
0.00821739,-0.000815412
0.000602976,0.00443078
0.0232543,0.0015157
0.0577024,0.0225846
0.0529315,0.00991878
0.0304513,-0.0219622
0.0158094,-0.0286383
0.0062684,-0.0522811
0.0103557,-0.0214712
0.00991669,-0.00719546
0.00979809,-0.0331962
0.0389106,0.0190006
0.0373809,0.0205574
0.00974014,0.0425311
-0.0143484,0.00817816
-0.0248537,-0.00551696
-0.028595,0.00314901
-0.0310639,0.00553148
-0.0388078,0.0160496
-0.0347416,0.0315088
-0.0193398,0.0264921
-0.00393516,0.0175561
-0.00809109,0.0121013
-0.00782837,0.00237716
0.00489567,-0.0410567
0.0154718,-0.0608998
0.0144379,-0.0609061
0.0306359,-0.0256622
0.0393425,0.0286464
0.012936,0.0374389
-0.00106688,0.0255527
0.00344906,-0.00065291
0.0066361,0.00316334
-0.0042188,0.00834601
-0.0193654,0.0045281
-0.0297775,-0.00127596
-0.0227094,0.0177076
-0.00166545,0.0111989
0.00836787,-0.00793445
0.00758389,-0.00582455
-0.0107804,-0.0134651
-0.0177757,-0.0447736
0.00272238,-0.0225102
0.0227891,0.0152705
0.0181523,0.0162098
-0.00336513,0.0149079
-0.0293087,0.0172384
-0.0170607,-0.0136893
-0.000374752,0.00460164
-0.0302205,0.00974328
-0.0237576,-0.00279715
-0.00318997,0.0130365
0.00408008,0.0242989
-0.0342591,0.0150019
-0.0586442,0.00438194
-0.0214431,0.00617429
0.0361207,0.010173
0.0729651,-0.0194272
0.0800171,-0.0566197
0.0690415,-0.0370274
0.0525602,-0.0116636
0.0309446,0.00120407
0.00971417,-0.00151642
0.00353252,0.0145065
0.000939576,0.025051
-0.0249639,-0.00352913
-0.0456566,-0.0138069
-0.0331412,-0.0214419
-0.0163399,0.0239132
-0.0162345,0.0266848
-0.0183651,0.0164878
-0.0114794,0.00906613
-0.0213641,0.0149233
-0.0615298,0.00101731
-0.049025,-0.0186037
-0.0248711,-0.0215074
-0.00782698,-0.0245609
0.014165,-0.011502
0.0236891,-0.00155179
0.0340989,0.00625062
0.0485977,-0.00574762
0.0416403,-0.0162104
0.0321652,0.0154132
0.026036,0.0201228
0.0141459,-0.0205948
-0.00345391,0.0146597
-0.00305517,0.0501073
-0.000129156,0.0108895
0.00863139,0.000741729
0.0196706,-0.00303136
-0.00530701,-0.0332713
-0.01738,-0.0240983
-0.0213278,-0.00117642
-0.00577718,-0.00054955
0.0256982,0.00170258
0.0169148,0.0194908
-0.00665787,0.020824
-0.00981602,-0.0119656
-0.0071262,-0.045168
0.00139325,-0.0275313
-0.000779128,-0.0194915
-0.00995828,0.00712488
-0.0200088,0.0465909
-0.0313737,0.0527401
-0.0282053,0.0278583
-0.0117567,0.00856315
0.00533433,-0.00243966
0.000217557,-0.013368
-0.0128983,-0.0234292
-0.0219399,-0.0431869
-0.00843269,-0.0404807
0.0208803,-0.0115557
-0.00421588,0.0111675
-0.0195559,0.0312509
-0.00509416,0.0233589
0.00178866,-0.0173127
-0.00390517,-0.0393624
0.0156387,-0.021382
0.0451472,-0.00923812
0.035907,0.0262942
0.022208,0.0150124
0.0223054,0.0119084
0.014882,0.0105731
0.0140594,-0.0057582
0.00719613,-0.0144097
0.00428686,-0.00352731
-0.000894507,0.0181992
-0.0120147,0.0392641
-0.034997,0.0332887
-0.0361296,0.0352584
-0.0156341,0.0198589
0.0132341,-0.00949682
0.0214023,-0.0304708
0.00055222,-0.0527422
-0.0106017,-0.0443624
-0.0270286,-0.00796496
-0.033076,0.0189852
-0.00746573,0.00455085
0.0129705,-0.0160383
0.0242216,0.0235089
0.0202808,0.00554427
0.0141146,-0.00749953
0.0103389,0.0164087
0.00887224,0.0272578
0.00680895,0.0128672
-0.00998803,0.00715187
-0.0263001,0.0111977
-0.0170507,-0.0195222
-0.00860353,-0.0482791
-0.000932462,-0.0184748
-5.54e-05,0.0284441
-0.0114216,0.0100259
-0.0145326,0.00598648
-0.00893474,0.0200359
0.00495871,0.00719538
0.0144372,-0.0035458
0.0128505,-0.0108428
0.00709059,-0.0199275
0.00770748,-0.00548234
0.0039742,-0.00780481
0.00763295,-0.0346092
0.00182285,-0.0167807
0.00244279,0.0300721
0.0154326,0.0418248
0.0159685,0.0362776
0.00484369,-0.0157605
-0.00907312,-0.00979994
-0.0189804,-0.0108656
-0.0268778,-0.00477073
-0.0317659,-0.0263315
-0.00624589,0.0113877
0.0162068,0.0304566
0.0257669,0.0081565
0.0362834,-0.0254699
0.0327405,-0.0313904
0.00649728,0.00416455
-0.0108259,0.0199569
-0.00903179,0.0142732
-0.0104133,0.0179896
-0.00204444,0.0210362
0.000162516,0.00423407
0.0146982,-0.0126476
0.0227271,-0.0150513
0.00922502,-0.017137
-0.00528449,-0.00291186
-0.069388,-0.000512676
-0.142776,0.000475104
-0.117169,-0.0543452
0.000383431,0.0159876
0.0558985,0.037545
0.0983317,0.0157063
0.065272,0.0191266
0.0209681,0.00940845
-0.00248451,-0.0297228
0.00718913,-0.0287716
0.0138468,-0.0202857
0.00147603,-0.0147717
0.0141265,-0.016132
0.0142824,-0.0313974
0.0117676,-0.021224
-0.0130738,-0.0080962
-0.0525503,-0.0045616
-0.0384982,-0.00571784
0.00326286,0.00882368
0.0269336,0.0682615
0.0340256,0.064816
0.0361193,0.00923223
0.0263776,0.00710109
0.00238612,0.017552
-0.00817462,0.0135767
-0.0110186,0.000474286
-0.0119595,-0.00346193
-0.00411271,-0.00749622
0.000636875,-0.0472577
0.00714522,-0.0649461
0.0158179,-0.0160104
0.0121551,-0.00376562
-0.0127541,0.0190882
-0.0567136,0.0156152
-0.0536498,0.0179304
-0.0281272,0.0124516
-0.000575545,0.0533071
0.014141,0.02877
0.0311986,-0.0122236
0.0488363,-0.002354
0.0218672,0.00953109
-0.0119787,0.00301565
-0.0283063,-0.00911133
-0.0239847,0.026239
-0.0119853,-0.0339472
0.012458,-0.0829287
0.0331612,-0.0662241
0.0305187,-0.0240734
0.00767303,0.000243794
0.00945816,0.0114046
0.0243969,0.0313372
-0.00017708,0.0682121
-0.0327427,0.0630112
-0.0386694,0.0340786
-0.0364527,0.00902418
-0.0401498,0.0161441
-0.0360964,0.00807794
0.00838778,0.00699202
0.0432655,0.00926825
0.0486652,-0.0222907
0.026637,-0.0632909
0.0247837,-0.0762421
0.00845103,-0.0666656
-0.0238169,-0.0712157
-0.0195703,-0.0197426
-0.0162925,0.0631353
-0.00876803,0.0746683
-0.00395774,0.0568636
0.0125332,0.0500147
0.0151085,0.0484459
0.00180966,-0.0178356
-0.0011231,-0.0420634
-0.0030733,-0.0167194
-0.0241917,-0.0333941
-0.0243239,-0.0566846
-0.00405251,0.0202201
0.000153731,0.0400945
0.00121229,0.0215043
0.0063535,-0.019697
0.00218579,-0.0334479
-0.0137385,-0.050161
0.000278528,-0.0753872
0.0295381,-0.00245513
0.0324314,0.0618165
0.00838045,0.0629498
-0.0238982,0.0438089
-0.0151796,0.0190465
-0.0219096,-0.00194454
-0.0201145,-0.018909
-0.0106676,0.00403806
0.0115165,0.0144522
0.0280386,0.0458768
0.0294456,0.0428957
0.023576,0.024385
0.00463968,-0.0113734
-0.033009,-0.0478768
-0.0384538,-0.0345172
-0.0219228,-0.0240346
0.00591519,0.0102113
0.0507199,0.0218171
0.0530596,0.0159835
0.0221446,-0.0275498
-0.015283,-0.0513884
-0.0461504,-0.0671845
-0.0241801,-0.0453242
-0.00826975,0.0219379
0.00432297,0.0226825
0.0117129,0.0183111
-0.00183099,0.0045074
-0.00473441,0.00747573
0.0202497,0.0108703
0.0546447,0.0253502
0.0807506,0.0193522
0.0825388,-0.00273425
0.0360952,0.0029123
-0.0184081,0.00494443
-0.0425261,0.0266809
-0.0475389,0.0473868
-0.067864,-0.0115148
-0.0476051,-0.0174738
-0.0197624,-0.0533749
-0.0148043,-0.0695037
-0.0193967,-0.0913656
0.0225593,-0.00554531
0.0294446,0.0115009
0.0168311,-0.0155305
0.00845716,0.0257673
-0.00385813,0.044881
-0.0105357,0.0137216
0.0143449,0.00582981
0.0298925,0.016812
0.0356353,0.0209274
-0.0106526,0.0245908
-0.111862,0.0191187
-0.166555,0.0531612
-0.142983,0.00494403
-0.0720131,-0.0399971
0.0445654,-0.0228976
0.106716,-0.0586354
0.124705,0.0799097
0.10868,0.114766
0.042725,0.0406323
-0.0342449,-0.0408424
-0.09943,0.00352595
-0.0988051,-0.0271192
-0.0226306,-0.013196
0.016087,0.13855
0.0317848,0.118188
0.116952,-0.0073718
0.164209,-0.0502911
0.105795,-0.0443909
0.0247893,-0.0414736
-0.0594785,-0.0163842
-0.132343,-0.123495
-0.160754,-0.103687
-0.14624,-0.0342162
-0.10629,-0.0190178
-0.0974354,-0.022788
-0.0365021,-0.0415215
-0.0448379,-0.0388506
-0.0289011,-0.0190973
0.0952502,-0.0121681
0.203098,0.000132975
0.261282,0.010053
0.221493,0.0196761
0.139414,0.0258544
0.096604,0.0343999
0.0502483,0.0327554
0.00992168,0.0334182
-0.0215694,0.0296267
-0.085361,0.0126222
-0.148597,0.00434763
-0.10144,-0.00611409
-0.0111881,-0.0155161
0.0504501,-0.01194
0.0728293,-0.00697428
0.0267864,0.0386204
-0.0125707,0.0198767
-0.0405321,-0.0169647
-0.0708786,-0.0201754
-0.115884,0.00115176
-0.089267,0.0124276
-0.0389623,0.0255277
-0.0914621,0.0264001
-0.15484,-0.00318594
-0.126277,0.0439789
-0.0460217,0.0394544
0.0729711,0.0149778
0.196732,-0.0173831
0.219575,-0.0416792
0.130173,-0.0557984
0.043135,-0.0367389
-0.0334306,0.000677728
-0.0744024,-0.0327762
-0.0468704,0.00528483
0.00918312,0.019968
0.0305288,-0.00987618
0.0626069,-0.00976248
0.0256805,-0.0123549
-0.0400377,-0.0158544
-0.0543192,-0.0125136
-0.0355316,0.0578636
-0.00368516,0.0758194
0.00379967,0.0284878
-0.0150517,-0.00809737
-0.0498159,-0.0655705
-0.0797744,-0.063324
-0.0379813,-0.0201829
0.029827,0.0217589
0.0459361,0.0406684
0.0565985,0.0286216
0.0378708,0.0116134
0.00829148,-0.00252717
-0.009052,-0.00323265
-0.0159587,-0.00424207
-0.0145375,0.0112761
-0.0117256,0.0189504
-0.0245837,-0.00373714
0.015553,-0.0064796
0.0688539,0.00683758
0.0729374,0.0385335
0.0554877,0.0115439
0.031511,-0.00901762
0.00857577,-0.00840311
-0.00380312,-0.00373403
-0.0198787,-0.00496828
-0.0277455,0.00525864
-0.0261519,0.00674174
-0.0255282,-0.0300252
-0.0277058,-0.0546059
-0.0109034,-0.041733
0.00929221,-0.0230718
0.0395637,0.0214201
0.0606648,0.0473773
0.0496721,0.0469534
0.0216363,0.0261441
-0.0126015,0.00696208
-0.0448699,-0.027434
-0.043162,-0.0185442
-0.0357356,-0.00458868
-0.0226909,-0.0107248
-0.0255791,-0.024003
-0.0565661,0.00450769
-0.0761038,0.00413848
-0.0637121,-0.00541092
-0.0427973,-0.00984523
-0.0666199,-0.0120082
-0.0640461,-0.0107334
-0.0182437,-0.00841042
0.0180709,0.0215832
0.0466049,-0.0102311
0.0486762,-0.0153019
0.0733371,-0.011314
0.073593,-0.0178092
0.0591136,0.0143488
0.0202352,0.000444491
-9.61e-05,-0.00809849
-0.000616847,0.00457925
0.0114591,0.0171134
0.0126561,0.0154246
0.00447015,0.0210023
-0.0377887,0.0105317
-0.0249889,0.00889234
0.00292736,0.0225143
0.00552058,0.0382857
-0.00281075,0.0166853
-0.045187,-0.00269539
-0.0967736,0.00904671
-0.0695083,0.0276114
-0.0229736,0.0154116
0.0636501,0.000260771
0.14186,-0.0381779
0.127093,-0.0958667
0.0784248,-0.0462609
0.0336163,0.030206
-0.0138535,0.00443147
-0.0411259,0.00206234
-0.0473292,0.00752638
-0.0267477,-0.00537156
0.000343571,-0.00845441
-0.00133092,0.011014
-0.0169382,0.0169
-0.0132292,0.00963456
0.0200373,0.00566491
0.0395449,0.0208647
0.0294803,0.0435103
0.0189629,0.0335719
0.00109917,-0.00551288
-0.0408454,-0.0335239
-0.0507954,-0.0198143
-0.0149901,-0.00522136
-0.00484849,-0.0115881
-0.0145637,-0.006196
-0.0232022,-0.00354023
-0.0203439,-0.00939863
0.00612355,-0.0119626
0.0109562,-0.0409231
0.00322921,-0.0397904
-0.000643386,-0.0149729
-0.0131762,-0.0189301
-0.0166811,0.0210695
-0.00693649,0.0363268
-0.00634147,0.0221578
-0.0237505,0.0231028
-0.0462622,-0.0232166
-0.0452756,-0.0297109
-0.034146,0.0258061
-0.0103047,0.035729
0.0117263,-0.0181389
0.0306906,-0.0434159
0.0244022,-0.0128707
0.016008,0.0174713
0.0289432,0.00801656
0.0251393,-0.00994699
0.034704,-0.0102847
0.0596513,0.0202729
0.0674196,0.0325416
0.0508654,0.0267097
0.0307789,0.0023746
0.0212378,0.00712109
0.0152026,0.0200492
0.00487876,-0.0104842
0.0150889,-0.0142714
0.006591,0.00011206
-0.035108,-0.00520224
-0.0481598,-0.0285757
-0.0398585,-0.0292775
-0.0333788,0.00758692
-0.0207017,0.00283412
0.00821503,-0.0221257
0.0236719,-0.0298602
-0.00356867,-0.00683636
-0.0458132,0.0208645
-0.0818817,0.0242005
-0.0819504,0.0233291
-0.097622,0.0244614
-0.0710272,0.0263214
0.0136673,0.0106561
0.115359,-0.0089848
0.152526,-0.0219995
0.115283,-0.00272934
0.0131073,-0.0187253
-0.0426311,0.0137395
-0.0567934,0.0196097
-0.0585936,0.0236036
-0.0209232,0.00049778
0.0171322,-0.0158486
0.0346415,-0.00453687
0.0651062,0.000387038
0.0726936,0.00457387
0.0642742,0.0136362
0.0475232,0.0131157
0.0231405,0.00535572
0.00721758,-0.00186663
-0.0198946,-0.0149844
-0.0836125,-0.0200912
-0.105336,-0.0130674
-0.0706044,-0.00237042
-0.0494487,0.013895
-0.0345573,0.0186419
0.0144774,0.0218325
0.050086,0.0059851
0.0427788,-0.0174956
0.0184187,-0.0150812
0.00987827,-0.000852705
0.00103191,-0.0128165
-0.00853822,-0.0100846
0.0025084,-0.00726292
0.0248771,0.00492958
0.0239851,0.0322905
0.0282811,0.0283677
0.026423,-0.00710724
0.0107067,-0.0196088
-0.0129385,-0.0113013
-0.0382419,-0.0230147
-0.0372637,-0.0079656
-0.0337373,-0.00616394
-0.0294547,-0.0235798
-0.00225155,-0.0274153
0.0192902,-0.0537353
0.00377517,-0.0494121
-0.0138741,0.0133799
-0.0227717,-0.0119902
-0.0262897,0.00401877
-0.0228422,0.100151
0.0137857,0.0356116
0.0209351,0.00390352
0.0169577,-0.00919004
0.00893905,-0.0123786
0.0117618,0.0109876
0.0233744,0.0192499
0.0224649,-0.00358661
-0.00337193,-0.00518663
-0.0268478,-0.00031645
-0.0341113,0.0101872
-0.0216109,0.0108061
-0.000673271,0.0250061
0.00326351,0.0236466
0.000330879,-0.00118955
0.0106597,0.00256006
0.0114596,0.014478
0.00985249,0.00367794
0.000522407,0.0012308
-0.000109412,0.00733952
0.00572213,-0.0204755
0.00363549,-0.0391251
0.00887123,-0.021434
0.0275237,-0.00302426
0.0168762,0.00136953
-0.00198104,0.012251
-0.0126206,0.0248305
-0.0176422,0.00760142
-0.0111167,-0.0235562
-0.00776751,-0.0197094
-0.00125339,-0.0163488
0.0018629,0.0136786
-0.00521954,0.00790492
-0.0061761,-0.000606168
0.00195192,-0.0305759
-0.0272937,-0.0468115
-0.0299875,-0.0284169
0.00991218,0.000316146
-0.00192083,-0.013759
-0.0165886,-0.0279382
0.00752815,0.006547
0.0317585,0.0300102
0.0148669,0.0275096
-0.0110731,0.0275172
-0.00465218,0.00864299
0.00190146,-0.0115555
-0.0113734,-0.0103794
-0.0162282,-0.00546528
-0.0240291,-0.00175348
-0.014243,0.0096702
0.0197371,0.0284552
0.0485486,0.0178665
0.057695,0.0161215
0.0455838,-0.0269436
0.0297697,-0.024458
0.00730736,-0.0128538
-0.0111676,-0.00425841
-0.0175388,0.00901948
-0.0348179,0.0544519
-0.0312321,0.0566937
-0.00754726,0.0336498
0.00767697,0.0203415
-0.00584114,0.0110061
-0.0243008,0.0103469
-0.0157813,0.00487163
0.0170275,0.00993545
0.018862,0.01189
0.0149366,0.00119284
0.0201714,-0.0153654
0.0220746,-0.018534
0.0419245,-0.0179608
0.0548966,-0.0186221
0.0324374,-0.0163164
-0.00539046,-0.0115574
-0.0442664,-0.00628364
-0.0462728,-0.00426629
-0.0409048,-0.0160815
-0.0303726,-0.0326381
-0.0150554,-0.0354945
0.0032398,0.000842178
0.0319258,0.0183718
0.0304987,0.0228697
0.00134509,-0.000445833
-0.0509223,-0.0116679
-0.112056,-0.0132862
-0.117082,-0.00748321
-0.0812932,-0.00216108
-0.0107281,-0.0157606
0.0745783,-0.0176272
0.120034,0.000797206
0.121918,0.0206066
0.0872868,0.0131049
0.0110108,-0.0181478
-0.0579055,-0.00862314
-0.0290463,0.00233725
0.0138329,-0.00988223
0.0283613,-0.000921113
0.0407505,-0.000606327
0.0400129,0.000961627
0.0171316,0.0127576
0.000125292,0.0178904
-0.0232823,0.015403
-0.0338557,0.0108788
-0.0423854,0.00848054
-0.0342123,0.00513415
-0.00566907,0.00329741
0.0189457,0.00557295
0.00988579,0.00553569
-0.0119816,0.0313189
-0.0290394,0.0149837
-0.0268486,0.0333924
-0.0207206,0.00424689
-0.0123825,-0.0295606
-0.000847803,-0.00717326
0.00313593,0.00159714
-0.00163879,0.00786034
-0.00949379,0.0166067
-0.00769205,0.0223073
-0.00620548,-0.00791341
-0.0154777,-0.0414438
-0.0108458,-0.0460695
0.0182151,-0.0240586
0.0167366,-0.00947039
0.00191254,0.00720803
0.000705071,0.00583517
0.0173472,0.00656402
0.0033051,-0.00398167
-0.0246396,-0.0366477
-0.0221512,-0.0603684
-0.002171,-0.02903
0.0136306,-0.010154
0.010598,0.0192627
-0.0144841,-0.000435784
-0.0387698,-0.0107396
-0.0855211,-0.0256708
-0.0587441,0.0429828
-0.0161587,0.0478246
0.0279684,0.0127281
0.0763057,-0.00150004
0.0880717,-0.00131934
0.0609007,0.00792479
0.046675,0.00610541
0.0359536,0.00975284
0.0231004,0.0174381
0.0092553,0.00745436
0.0205194,0.0023667
0.0186427,0.00421286
-0.00799028,0.00986264
-0.0244622,0.0201006
-0.0197254,0.0295996
-0.00170748,0.0271705
0.0176541,0.00710608
0.025723,-0.0138884
0.0126384,-0.0317262
-0.0121798,-0.0471494
-0.0241856,-0.0405852
-0.0181173,-0.00896404
-0.0167345,-0.010106
-0.0235574,-0.0216792
-0.0293835,-0.00585759
-0.029441,0.0155513
-0.0212046,0.00151143
-0.0120452,-0.00733953
0.0057852,0.012179
0.0181666,0.0182154
0.0190902,0.0143907
0.0158413,0.0182409
0.016846,0.0203101
0.023849,0.0147884
0.0292869,0.0038073
0.0296885,-0.007271
0.0190727,-0.0151084
0.00840403,0.000859446
-0.0085194,-0.0108227
-0.0216575,-0.0271659
-0.0167432,-0.00193169
-0.0266179,-0.00400477
-0.0372119,-0.00409841
-0.0537756,-0.0121681
-0.0953039,0.043058
-0.106452,0.0254638
-0.055696,0.0103047
0.0291554,0.0309451
0.0929742,0.0163149
0.116136,-0.00417354
0.0976342,0.00282749
0.0490314,-0.00642182
0.00404821,-0.00796982
-0.0365029,-0.0106556
-0.0517862,-0.0275482
-0.0304352,-0.0530437
-0.00629808,-0.00927811
-5.53e-05,0.0158254
-0.00754087,0.0451126
0.00668565,0.0115908
0.0364914,-0.0142121
0.0454789,-0.00805982
0.0228556,-0.0144745
0.00257297,-0.00556563
-0.00254442,0.00958276
-0.00297326,0.00802992
-0.00683788,0.0130601
-0.00845407,0.00990706
-0.00467272,-0.0207014
-0.0035738,-0.0239458
-0.0105289,-0.0107483
-0.0174456,0.00174686
-0.0175512,0.00387018
-0.0150507,0.00281458
-0.0117306,0.0113196
-0.00416963,0.0172775
0.0050621,0.00256873
0.0117556,-0.00878534
0.0164457,0.00107923
0.0148988,0.00118014
0.006918,-0.00216549
0.00233593,0.00683584
-0.00530426,0.00326208
-0.0281166,0.000373805
-0.0324988,-0.00266874
-0.0110029,-0.0136675
0.00835262,-0.0212322
0.0149497,-0.0100036
0.0120926,0.00262107
-0.00594063,0.00561124
-0.00961171,0.00863865
-0.00596081,0.0185984
-0.00691458,0.0109561
-0.00753679,-0.000539632
-0.010316,-0.00115009
0.00864671,-0.00141989
0.0259091,-0.00497898
0.0039443,-0.000713216
-0.000534497,0.00453396
0.00431376,-0.00406475
0.00497558,-0.00412236
0.00662828,3.91e-05
0.01682,-0.0138553
0.0186575,-0.0149136
-0.000479651,-0.0151934
-0.0089085,0.00137551
-0.00394964,0.0141959
-0.00783967,0.0143079
-0.0336892,0.0139991
-0.0453752,0.00487104
-0.0348282,-0.00900773
-0.0548203,-0.000935921
-0.0329639,-0.00202029
0.019759,-0.00932849
0.0560237,0.0144163
0.0660273,0.0172316
0.0382171,0.00579755
0.00757675,-0.00481567
-0.00234445,-0.0250268
-0.033263,-0.00318915
-0.0292859,0.0207483
0.0312242,0.0221138
0.0604394,0.000416501
0.0464055,-0.0127637
0.0194398,0.0173278
-0.0181028,0.00150637
-0.0408211,-0.0351025
-0.0214736,-0.0318595
0.00969201,-0.00886568
0.0227526,-0.00831736
0.02367,-0.00732035
0.00494083,0.0112752
-0.0101559,0.0261383
-0.00859604,0.00743338
-0.0115238,-0.00211421
-0.00377314,-0.0133047
-0.000877799,-0.0147908
0.00135152,-0.00318891
0.000305665,0.0115306
-0.000254748,0.00542153
-0.00677168,0.00380054
-0.0194518,0.00162753
-0.0270745,-0.00713646
-0.0232742,0.0118561
-0.0098548,0.00587089
0.0170878,-0.00587977
0.0445917,-0.0020366
0.0435429,0.00312764
0.0155725,0.0114757
-0.0174529,0.0385876
-0.0371392,0.0299197
-0.0375185,0.00124482
-0.0273576,-0.0377213
-0.0230726,-0.0454691
-0.00755408,-0.0100315
0.00744362,0.00271793
0.0227766,0.00986734
0.0227281,0.0277645
0.00673996,0.0286105
0.00464447,0.00268944
0.0138848,-0.0177506
0.0132505,-0.0217219
0.0147783,-0.0125316
0.0110521,-0.00406406
0.000969132,0.00316683
-0.00363968,0.00854014
-0.00201477,0.00155863
-0.00269719,-0.00382288
-0.000430033,-0.0150609
-0.000265858,-0.0174098
-0.00136287,-0.00610528
-0.00667865,0.00453865
-0.0082408,-0.00565802
-0.00364597,0.00175156
-0.00283596,0.0227195
0.00200292,0.0246448
0.0127894,0.00863605
-0.000417608,-0.00713548
-0.0146357,-0.00142289
0.00374157,-0.00562167
-0.00310764,-0.0127694
-0.0106915,-0.00445445
0.00100999,0.00510526
-0.00610169,-0.0203447
-0.0292935,-0.0263052
-0.0782326,-0.00416393
-0.0824405,0.00705305
-0.0282397,0.0178957
0.0287305,0.0150221
0.0524424,0.0171959
0.0635877,0.0168594
0.0740143,0.0278892
0.0469437,0.013359
0.00477164,-0.0134271
-0.00543654,-0.0177805
-0.00179691,-0.00710073
0.00115246,-0.00825693
0.000332539,-0.0155685
0.0167927,0.00977102
0.0225019,0.0203346
0.0184926,0.00595344
0.0233158,-0.0178855
0.0246217,0.000898498
-0.00368534,-0.00212245
-0.0511923,-0.00515526
-0.0704885,-0.0122617
-0.0563059,-0.0121883
-0.0439923,0.0293057
-0.020778,0.0231425
0.0244456,-0.00890438
0.0436343,-0.0188987
0.0296367,-0.00275833
0.0175089,-0.00102091
-0.0145545,-0.00581481
-0.0239043,-0.00529518
-0.0083967,0.00105742
0.00873717,0.0049254
0.0163414,0.000926192
0.0168602,-0.00766405
0.00514474,-0.0214717
-0.00278143,-0.0116409
-0.0124934,0.0109911
-0.00243591,0.0227258
-0.00338039,0.00565877
-0.0218124,-0.00629989
-0.0173503,-0.00157809
0.0104679,0.00124981
0.0181864,-0.00681922
0.0217361,0.00644572
0.0222288,0.00378755
0.016962,0.00224416
0.00390883,0.0100658
-0.0102425,0.0117402
-0.00914903,0.0230553
-0.00442668,0.0133855
-0.00125524,-0.0177359
-0.0198702,-0.0196463
-0.0527458,-0.00973561
-0.0638515,-0.0314233
-0.0369255,-0.0220531
0.0321456,0.0236147
0.058736,0.0244144
0.0471229,0.0208968
0.0460782,0.00612273
0.040118,-0.00968593
0.00502949,-0.00499852
-0.014799,-0.00927063
-0.0264114,-0.0344889
-0.0310637,-0.0390912
-0.0245395,-0.0249324
0.00291414,-0.00300098
0.0163519,0.000708885
0.0222116,-0.00515202
0.0206177,0.0283429
0.0120817,0.0368757
0.0086259,0.0166774
0.000283058,0.0132792
-0.0134257,0.0219615
-0.0170101,0.0291043
-0.0177722,0.00710144
-0.0199616,-0.0373902
-0.0257957,-0.0144119
-0.0103383,-0.00210068
-7.65e-05,-0.00207407
0.00876937,0.0127733
0.0164551,0.018793
0.0043666,0.00402416
0.00146957,0.00285977
0.00815309,-0.00360052
0.0122803,-0.020207
-0.00775774,-0.0222817
-0.0405895,-0.00765177
-0.0439095,0.0123584
-0.018317,0.0118968
0.0218663,0.00127793
0.0292585,-0.0195623
0.0162301,-0.0202186
0.00358154,0.0143855
-0.0159649,0.0318002
-0.0278844,0.0228316
-0.0268228,0.0159292
-0.0293664,-0.0100545
6.46e-05,-0.0277363
0.0360116,-0.0140292
0.0447573,-0.000503615
0.0414032,-0.00595267
0.051914,-0.00361062
0.049648,0.0128987
0.036249,0.019182
0.0152448,0.0111445
0.00152233,0.0113113
-0.00388763,0.0112083
-0.00931355,0.000308817
-0.0118754,-0.0229981
-0.024576,-0.0365471
-0.0235761,-0.0301426
-0.00979594,-0.0199289
-0.00514809,0.00612047
-0.00236587,0.0145792
0.0017486,0.00381381
0.000106977,0.012598
-0.0721949,0.00597624
-0.155863,0.00185667
-0.138123,-0.000656006
-0.0684603,-0.0094338
0.00804629,-0.00207192
0.081939,0.016862
0.14172,0.0150124
0.130759,0.0116505
0.0689219,0.00700959
0.0192788,-0.00964705
-0.00504964,-0.0110109
-0.0214305,-0.00887221
-0.012007,-0.00890402
0.00914531,-0.00281963
0.0170954,0.0053869
0.0267576,0.012461
0.0286811,-0.00383801
0.0202986,-0.0276623
0.0274298,-0.0240567
0.0257244,-0.0189845
0.015271,0.000188862
0.00162934,0.000501501
-0.0161343,0.00147673
-0.0446535,-0.0296086
-0.0530879,-0.0353007
-0.0431841,0.021497
-0.0364395,0.003644
-0.0282052,0.0145615
-0.0206071,0.0288383
-0.0120654,0.0454112
-0.0152462,0.0445924
-0.0351403,0.0182823
-0.0180275,0.00888612
-0.00400329,0.0162287
-0.00608954,0.00499273
-0.00438425,-0.00238956
0.00148481,0.00775688
0.0078188,0.0140908
0.00949007,0.00270688
0.0123891,-0.00208034
0.0237153,0.011338
0.0176813,0.0109919
-0.00624609,-0.00949286
-0.0109265,-0.0267526
-0.00222215,-0.0231455
0.00613951,-0.0148058
0.0115117,-0.00559054
0.0142358,-0.00305901
0.0177284,-0.00106786
0.0187037,-0.00588491
0.0150446,-0.00412409
0.0216044,-0.0176537
0.0298045,-0.018671
0.0221338,-0.00467179
0.000496593,0.00129767
-0.0119485,0.00369885
-0.0199291,0.0117592
-0.0169515,0.0190035
-0.0153255,-0.00979007
-0.0171105,-0.0461323
-0.0173347,-0.0226381
-0.00655892,0.00375936
0.00926128,0.00692599
0.0159571,0.0241362
0.0175926,0.0245925
0.00760433,-0.00127684
-0.0205987,-0.0097076
-0.0453156,-0.0051373
-0.0378274,-0.0152066
-0.022932,-0.017907
-0.0202313,-0.00512552
-0.018095,0.00460443
-0.00429602,-0.00461187
0.0312689,0.0106488
0.0516567,0.015842
0.0411692,-0.00454021
0.0269768,-0.00464772
0.0251488,-0.00867989
0.00368006,-0.010194
-0.0264037,-0.0128192
-0.0443496,-0.00817293
-0.011311,-0.00995031
0.0143909,0.011775
0.0346572,-0.0161139
0.0402677,0.0255243
0.0241821,0.0454623
0.00563517,0.0278971
-0.00355095,0.018246
-0.00148194,0.0116197
-0.00441765,0.00618507
-0.00247986,-0.00213815
0.00132772,-0.0142523
0.00355465,-0.0226908
-0.00077894,-0.017755
0.00059318,-0.018576
0.00245502,-0.0101849
0.00544849,0.0153343
0.00402127,0.0226977
-0.00322894,0.0216351
-0.00856035,0.0238484
-0.00478486,0.00890953
-0.00234538,-0.00477599
-0.00728347,0.00388233
-0.00971119,0.0113905
-0.0128158,0.00128661
-0.015998,-2.62e-05
-0.0191607,-0.00135409
-0.0257454,-0.0236078
-0.0107076,-0.0313013
0.0156557,-0.0369096
0.0256601,-0.0237442
0.0147739,-0.0165342
0.000940633,-0.00898795
-0.000650237,0.0328564
0.0073554,0.0286438
0.0101409,0.0279076
0.0043409,0.0166024
0.00123881,0.00421586
0.00929985,0.00942257
0.00402675,-0.0172132
-0.00683394,-0.0148224
-0.0213646,0.00396618
-0.0525327,0.00593349
-0.0932808,0.000253045
-0.0959044,-0.0119528
-0.0597052,-0.0249409
-0.0167867,-0.0197656
0.0275336,-0.0105923
0.0515299,-0.00696454
0.0361316,-0.0140458
0.0243478,0.00459364
0.0258702,0.0322876
0.0338683,0.0260867
0.0640658,0.0144976
0.0866442,-0.00470066
0.0745616,0.00252873
0.0521991,0.0176438
0.0102484,0.0162087
-0.019215,0.00905378
-0.0358656,-0.00547562
-0.0367073,-0.018556
-0.0137736,-0.0200493
-0.00497852,-0.0119036
-0.0188846,-0.0282207
-0.00468386,-0.0379624
0.00881158,0.00131877
-0.00315147,0.0192659
-0.0177321,0.0185757
-0.0174876,0.0219994
-0.0121938,0.0180305
-0.00294056,0.00346062
-0.00162921,0.0009943
-0.00226514,0.00492025
-0.0387626,0.00841177
-0.0849805,0.0040776
-0.0636964,0.00583275
-0.0134679,0.00643631
0.0344161,0.0053155
0.0737629,-0.00746155
0.0835084,-0.0114226
0.0539214,-0.00652684
0.014724,-0.0101164
-0.0137549,-0.0041524
-0.0173876,-0.000453944
-0.0323607,0.0300787
-0.0487969,0.0303247
-0.0407893,0.00818935
-0.0137881,-0.00596339
0.00892027,-0.0105367
0.0311233,-0.00223422
0.0401149,-0.013497
-0.00289,-0.0384529
-0.0145606,-0.00313667
-0.00368823,0.00816587
0.00118775,-0.0358303
0.0222344,-0.00583161
0.0236669,0.00867385
0.0152576,-0.00628701
0.00747253,0.000481014
-0.00323294,0.00655151
-0.00851547,0.0164728
-0.0182201,0.0313294
-0.0253571,0.0290641
-0.0139532,-0.00815986
0.00971185,-0.0234154
0.0272969,-0.0128397
0.0392199,0.000566824
0.0304495,-0.0129497
0.0058424,-0.0127196
-0.00523183,0.00516607
-0.00678714,0.00175386
-0.00211681,-0.021127
0.0003589,-0.0154915
0.00401149,-0.00466092
0.00410078,-3.85e-05
-0.0166305,-0.00400678
-0.0207085,0.000612219
0.00828656,0.0277133
0.01569,0.0142229
0.00678691,0.0227368
0.00362695,0.00761592
-0.0112761,-0.016342
-0.0456422,-0.00630209
-0.0613169,0.0128993
-0.0469799,0.00963371
-0.0362165,0.00959518
-0.0321455,-0.00608053
-0.00562641,-0.0206208
0.0442008,-0.0166765
0.0639753,-0.00485111
0.0464866,-0.00796061
0.0402148,-0.00430185
0.0102359,0.00122249
-0.0062868,0.00487881
0.00935795,0.00514689
0.00662543,0.00364282
-0.0027982,0.00936875
0.00557111,-0.00444476
0.00484743,-0.00593607
0.00860977,0.0111877
0.00738184,0.00922038
-0.00820824,0.00494631
-0.022665,0.0183145
-0.0146591,0.0176261
0.0174549,-0.0078213
0.0325227,-0.0355914
-0.005963,-0.0392076
-0.0537045,-0.0359633
-0.0960029,-0.00927675
-0.11377,0.0246225
-0.0841076,0.0182386
-0.0258423,0.0148102
0.0330778,0.0104402
0.0786567,-0.000201561
0.0965384,-0.0146677
0.0770722,0.00326943
0.0336809,0.0206541
0.0280333,0.0156223
0.0381169,0.0106477
0.0444879,0.0204356
0.0201286,8.7e-05
-0.00400041,-0.0102477
-0.0206722,-0.0372545
-0.0176518,-0.00327233
0.00547934,0.0211683
0.0144492,0.00519019
-0.00441216,0.00938119
-0.0226743,0.00869451
-0.0413128,0.00305386
-0.0698676,0.00289702
-0.0490015,-0.0139948
-0.0113824,-0.0258948
0.0284571,-0.0116963
0.0253574,-0.0184176
0.0122662,-0.00378909
0.0198529,0.0186897
0.00320158,0.00334465
-0.000248368,8.4e-05
0.0136274,-0.0209509
0.00350936,-0.0307363
-0.00367484,0.00855418
0.00941875,0.0109477
0.0252102,8.42e-06
0.0055009,0.0136565
-0.0253281,0.0255437
-0.0273384,0.0234064
-0.0171673,0.00695221
-0.0312136,-0.00878989
-0.0372906,-0.00885372
-0.010882,0.00681952
0.0269807,0.0118883
0.0296143,0.0121435
-0.0364689,0.0168572
-0.0782212,0.0207883
-0.044747,0.0144597
0.0120824,-0.0104343
0.0498273,-0.0184484
0.0713273,-0.0177283
0.0623278,-0.0110607
0.0380812,-0.000382181
0.0226735,0.0073918
0.0157348,0.0037406
0.00450515,-0.00428517
-0.00284701,-0.0105714
0.000390894,-0.0154928
-0.0021885,-0.0214986
-0.00809329,-0.00687007
-0.00369186,0.00980722
0.00220187,0.0174214
-0.00640095,0.013792
-0.0233687,0.00771131
-0.0272335,0.00384772
-0.0214898,-0.0122046
-0.0246377,-0.0232094
-0.0216232,-0.0266752
-0.0232851,-0.0174786
-0.0475872,0.00213665
-0.0240934,0.0179307
3.82e-05,1.42e-05
0.0263835,0.000736604
0.0520849,-0.0135525
0.0580524,-0.0274911
0.0509187,0.0181006
0.030142,0.0265972
0.00907636,0.0128066
-0.00053222,0.0114738
0.000294452,0.0201952
0.00107988,0.0171635
0.00171407,-0.00233502
-0.00630901,-0.0172564
-0.01959,-0.0141774
-0.0234742,-0.0109145
-0.0214937,0.012706
-0.0152427,0.0037007
-0.0109711,-0.0246232
-0.0111909,-0.0107239
-0.00120882,-0.000353334
0.0190478,-0.00603599
0.0312551,-0.0024129
0.0208769,0.00677366
-0.00454087,-0.00370569
-0.038703,-0.0180454
-0.0343259,0.00357453
-0.0127695,-0.024523
0.00696919,-0.00862803
0.0230062,0.0375935
0.0221168,0.0198742
0.0092365,-0.00362125
-0.00545517,-0.00925976
-0.0134364,0.0181734
-0.000980723,0.0263108
0.00579696,0.00453475
-0.000662162,0.00274123
-0.00478489,0.0019712
-0.00119319,-0.0100737
0.0139644,-0.00466555
0.00840126,0.00158566
-0.00295998,0.00520101
-0.00210605,0.0173905
-0.00384499,0.00629274
-0.00135401,0.00853316
-0.00620354,-0.00459871
-0.0220131,-0.0159618
-0.0361027,-0.00556065
-0.0454404,-0.0174375
-0.00718236,-0.020108
0.0324149,0.00748205
0.0220128,0.0142725
0.0317361,0.00500972
0.0372685,0.00770634
0.0155,-0.000250928
-0.0231326,-0.0174532
-0.0496397,-0.0250068
-0.0314438,-0.0117424
-0.0178584,-3.4e-06
-0.00190533,0.0205078
0.0121899,0.0299665
0.0334991,0.0121772
0.0346183,-0.0182323
0.0274383,-0.0151653
0.0172472,-0.00987194
-0.010397,0.00491244
-0.0177504,0.0137845
0.00524532,0.0134027
0.0389328,0.00793321
0.0371953,0.00879917
0.0138492,-6.84e-05
0.00665161,-0.0220487
0.0135413,-0.0277854
0.00588814,-0.0163452
0.000487682,-0.0120832
-0.00954252,0.00343346
-0.0317827,0.0196436
-0.0523296,0.0100586
-0.0328584,-0.00275406
-0.0131855,-0.0374291
-1.02e-05,-0.045213
-0.0293142,-0.0425146
-0.0353785,-0.0152121
-0.0194733,0.0135015
0.00889446,0.0324395
0.0312244,0.0236763
0.0348214,0.029133
0.0414451,0.00292029
0.0515175,-0.0155222
0.0213185,0.0222526
-0.00951326,0.0313842
-0.0074857,0.0346438
-0.000899544,0.0402355
-0.00997207,0.0386624
-0.0410535,0.0317237
-0.101432,0.0130733
-0.100409,-0.00669535
-0.0419091,-0.00640927
0.0227024,-0.000506355
0.0547986,-0.0110192
0.0690134,0.00475015
0.0589966,0.00499493
0.037611,-0.00860214
0.00816745,-0.0130399
-0.00554875,-0.0242027
0.000234524,-0.0277878
-0.00472448,-0.016853
-0.0116193,-0.0104947
-0.0148434,-0.00576043
-0.00450938,-0.0138504
0.0122126,-0.0229377
0.0190232,0.00945483
0.0179724,0.00886347
0.0169603,-0.000524706
0.0057325,-0.00373231
0.00216747,0.00135903
0.00055011,0.0019298
-0.016234,0.0162567
-0.0276021,0.0199707
-0.0245696,0.00610193
-0.0190196,-0.00324327
-0.00907135,-0.0194739
-0.00356984,-0.0262878
-0.00856093,-0.0171812
-0.00931949,-0.00811355
0.000263323,-0.00876504
0.0138068,0.00222693
0.028796,0.0120151
0.0158804,-0.00029388
0.00142146,-0.0146599
0.00599303,-0.00487222
0.0214212,0.00120238
0.0373287,0.00471763
0.0172917,0.0092666
-0.0213046,0.0111999
-0.0346584,0.00216446
-0.0336935,0.00102133
-0.0205075,-0.00265089
0.00635467,-0.019841
0.0110838,-0.0216037
0.00391644,-0.00815181
0.00117906,-0.00189965
-0.00793963,0.00528207
-0.00763391,0.0300813
-0.0149091,0.0177068
-0.000443673,-0.00485482
0.0170607,-0.0115691
0.0217852,0.000209705
0.00951054,-0.0166915
0.0124987,-0.0135378
0.0262651,0.0251218
0.00860758,0.0261094
-0.0147855,0.0128852
-0.0280668,0.00874802
-0.0176304,-0.00435764
-0.00319784,-0.0253894
-0.00699386,-0.0377696
-0.0122678,-0.0095956
-0.0120871,0.0269309
-0.0084386,0.0183454
0.00418641,0.00141745
0.0191708,0.0133318
0.0361051,0.00500568
0.0283592,-0.00640519
0.0148932,0.0101213
-0.00368492,0.0153436
-0.0161661,0.012095
-0.0177416,0.0150425
0.00444196,0.00670011
0.0213399,-0.00142022
-0.0161016,-0.018029
-0.0945796,-0.0275554
-0.10745,-0.040715
-0.0631861,-0.00217285
-0.0226276,0.012913
0.0200121,-0.00942913
0.0704037,-0.00904234
0.082227,-0.00421271
0.0661307,-0.00482019
0.0635942,0.018121
0.061794,0.0200671
0.0331137,0.0106969
0.00863858,0.0152054
-0.00430565,0.0183072
-0.0157084,0.0170797
-0.0346833,0.00925905
-0.046372,-0.00178132
-0.0291534,-0.0114801
-0.00748046,-0.020455
0.00509003,-0.0195745
0.00902536,-0.00703717
0.0124924,-0.00358638
0.0151414,-0.00196021
0.00869836,0.00972138
0.00775071,0.0131544
0.010103,0.00253866
-0.00183294,-0.00650216
-0.025166,-0.0165144
-0.0276755,-0.0102511
-0.0233585,0.0184222
-0.0291821,0.0240147
-0.037249,0.01217
-0.0272239,0.0103395
-0.0162633,0.01623
-0.00914764,0.00733744
0.0255798,-0.0162525
0.0438763,-0.0292571
0.0390534,-0.0163319
0.0128785,0.00362178
-0.0647677,0.0223234
-0.0925104,0.0252553
-0.0486317,0.00929498
0.0135299,-0.0125831
0.057597,-0.0251961
0.0709538,-0.0154694
0.0639751,-0.0148545
0.0362794,-0.0145396
0.00769821,0.00406711
-0.00243687,0.00492132
-0.00426307,0.0043848
0.000106205,0.00953778
0.0133567,-0.0024999
0.0220813,-0.0110468
0.00583961,-0.0063954
-0.00916443,-0.00945449
-0.0117405,-0.0128496
-0.00625568,0.00347046
-0.00904327,-0.00212881
-0.0144684,0.00289653
-0.0115872,0.00327743
-0.00465562,0.00109092
-0.00279834,0.000151601
-0.00133861,0.00226661
-0.00218166,-0.000329868
-0.00632153,0.0108295
-0.00553785,0.0115457
0.0015602,0.00715009
0.0111155,-0.00084903
0.0167124,-0.00725653
0.00837772,-0.011463
-0.0111116,-0.00885352
-0.0198007,0.0103915
-0.0302093,0.0136722
-0.046025,0.0129259
-0.0539372,0.0112263
-0.0344365,-0.00376283
0.00342323,-0.0177121
0.0417702,-0.0123174
0.0582677,0.00706973
0.0415297,0.0100793
0.0217197,0.00417791
0.00442446,0.00350484
-0.00948478,-0.0107039
-0.00668188,-0.00276393
0.00834087,-8.33e-05
0.00929533,-0.0243838
0.00527848,-0.0158079
-0.00649032,-0.00531783
-0.0145644,0.00317301
-0.00835337,-0.00369765
0.000609438,0.0122211
0.00246844,0.0140215
0.0146465,0.00671648
0.0259113,0.0176777
0.0214575,0.000634069
0.00754766,-0.0175043
-0.0030283,-0.00861242
-0.00195012,-0.0150409
-0.00728583,0.00134332
-0.0239788,0.0230116
-0.01719,0.00241488
0.00445723,-0.0104689
0.0121889,-0.00199853
0.0141753,-0.00026976
0.00200621,-0.0252096
-0.00891945,0.00886687
-0.00641083,0.0315078
-0.0163936,0.0293232
-0.0423903,0.0208671
-0.0375918,-0.000143166
-0.0154183,-0.0117876
-0.00120568,-0.00901959
0.021671,-0.000948847
0.0344494,0.00509402
0.0278887,0.00806669
0.0103291,0.0037041
-0.000560236,-0.00279852
-0.000965879,-0.0064757
0.00114937,-0.0126242
-0.0240104,-0.0114561
-0.0425924,-0.00275604
-0.023944,0.00086207
0.00381546,-0.00124441
0.0229767,-0.00254963
0.0378602,-0.00127228
0.040822,-0.00355448
0.0360049,-0.0134266
0.018899,-0.0144224
-0.0056733,-0.00821475
-0.0131405,0.00859594
-0.0114728,0.0147548
-0.0126954,0.0187334
-0.0272883,0.0180891
-0.0521496,0.00892321
-0.0754041,-0.0207678
-0.0540775,-0.0389248
-0.0176279,-0.0144736
0.0239087,0.00062576
0.0738292,0.0093506
0.0866338,-0.00323442
0.0727069,0.0203055
0.0324516,0.0267659
-0.000728067,-0.0143982
-0.00765805,-0.0133668
-0.0169362,0.0047542
-0.0223376,0.00157005
-0.0260571,0.00320242
-0.0127189,0.0125624
-0.00787731,0.0123695
0.0029549,0.00170929
0.0188232,-0.00234429
0.023466,-0.00809411
0.023078,-0.0126383
0.0155576,-0.00504672
0.00591918,0.00057147
0.00227036,0.000781275
-0.00545557,0.0129166
-0.00953663,0.0205108
-0.0070304,0.00819566
-0.0141273,-0.0122266
-0.0150242,-0.0290652
-0.0191864,-0.0145267
-0.037097,-0.00533517
-0.0573706,0.00223428
-0.0704586,-0.00331761
-0.067305,-0.00175478
-0.052344,-0.0027698
-0.00858849,0.0135023
0.059605,0.00482894
0.102089,-0.00195144
0.0947431,0.00584945
0.0739386,0.00915726
0.0437847,0.00709055
0.0230247,0.01209
-0.0112576,0.0174818
-0.0916111,0.0069268
-0.123092,-0.0142002
-0.107691,-0.0324124
-0.0276916,-0.0219952
0.0632885,0.00487696
0.11508,0.0241067
0.0971731,0.0116113
0.0489394,-0.0050295
0.0113147,-0.00363373
0.00150493,-0.0104181
0.003381,-0.0186494
0.00533564,0.00462413
0.00253145,0.00811759
-0.00304772,0.00630637
-0.00474702,0.0117313
-0.0128759,0.0188005
-0.0178393,0.0167111
-0.0130914,0.000963044
-0.00242468,-0.00881813
-0.00357584,-0.000476128
-0.0117597,-0.00265953
-0.0197466,-0.00712311
-0.0271012,-0.0153283
-0.0316551,-0.0150399
-0.0216175,-0.00849105
-0.00846479,-3.94e-05
-0.0128778,-0.0141222
-0.0074607,-0.0111063
0.0119135,0.00767155
0.0234507,0.0106313
0.0151048,0.00262018
0.0100009,0.00794045
0.00299883,0.0214759
0.000153374,0.0133153
-0.00324116,-0.0207381
0.00121208,-0.0119436
-0.00570607,0.00763396
-0.0117075,-0.00354595
-0.00176606,-0.0125817
0.0168804,0.0239746
0.037307,0.0243466
0.0311104,0.01009
-0.0183859,0.00542964
-0.0675252,-0.0144511
-0.05781,-0.0361092
-0.0289566,-0.034144
-0.000607271,-0.00181594
0.0386617,0.00522119
0.0494925,-0.00024983
0.028743,0.00729015
0.0104155,0.000349306
0.0142235,0.00249316
0.0158399,-0.000430193
0.0118634,-0.00101557
-0.00489435,0.00510687
-0.00841147,0.0159926
-0.00461403,0.0180822
0.00136876,0.00631794
0.00777714,0.00465069
0.0107935,-0.0011843
0.00886977,-0.0126863
-0.00195679,-0.0134571
-0.00491057,0.00153909
-0.0110982,0.00701448
-0.011669,0.0028399
-0.00819412,0.00696259
-0.0118559,-0.00210727
-0.0108605,-0.0125684
-0.00380379,-0.00561746
-0.00368063,0.000707371
0.000297911,0.00384903
0.00961598,0.00453099
0.0185167,0.00431785
0.0149072,-0.00248823
0.0110094,-0.000360736
0.00422257,0.0068498
0.00388142,0.00103221
-0.0063536,-0.0136637
-0.0205279,-0.0114647
-0.0228452,0.00298807
-0.0178878,0.000341114
-0.0193922,0.000781222
-0.0275898,0.0168238
-0.0277946,0.0267352
-0.0202977,-0.00572697
-0.00542741,-0.0196284
-0.000654688,-0.0060648
0.0060805,-0.0150048
-0.00107442,-0.0179362
0.00168333,0.00390114
0.0207117,0.00463048
0.0327947,-0.00106391
0.0507986,0.000797315
0.0759318,-0.00766617
0.0678495,-0.0178663
0.0204687,-0.009275
-0.0049538,-0.00347706
-0.00491698,-0.00892451
-0.00468674,-0.0146828
-0.0100934,-0.00737481
-0.00436817,-0.00210346
0.00323462,-0.0158694
-0.00143725,-0.00365673
-0.0146752,0.00336684
-0.0213476,0.0104098
-0.0171838,0.0258497
-0.017646,0.0351283
-0.0219954,0.0311637
-0.0183328,0.0267661
-0.00911327,0.0127474
-0.00861112,-0.00658574
-0.0191611,0.00865602
-0.0272998,0.0208155
-0.0138802,0.0226425
0.00253267,0.0201895
0.00316106,0.0209215
0.00689627,0.0206221
0.0012591,0.00174794
-0.0149926,-0.00985492
-0.00548936,-0.00518836
0.00847541,-0.0217827
0.0267714,-0.0269307
0.0443252,-0.0245201
0.0191944,-0.00152047
-0.0221556,0.0166705
-0.0482307,0.00781898
-0.0932716,-0.0135856
-0.136406,-0.0308054
-0.100409,-0.0328428
0.000187824,-0.0169099
0.0864646,0.00041383
0.0943562,-0.00918778
0.0401176,-0.00113845
0.0221974,0.0019741
0.0337296,-0.00945077
0.0438515,0.0254143
0.0398752,0.0184821
0.0463082,0.00485586
0.0474981,0.00852035
0.0339868,0.00781106
0.0168415,0.00105943
0.01321,-0.00479341
0.0179145,-0.0101925
0.00986197,-0.0221767
0.00107193,-0.0219596
-0.0147158,-0.0123684
-0.0257164,0.00402119
-0.0275855,-0.00195815
-0.0154032,0.00807908
-0.0124134,0.0252059
-0.0145145,0.00381153
-0.00359628,-0.0247679
0.00144032,-0.0161778
-0.00121427,0.00264738
-0.015496,-0.00134636
-0.0225011,0.00157523
-0.00957103,0.0060762
-0.00353561,0.00473301
-0.00649662,0.00459445
0.00314032,-0.00614786
0.00235294,-0.0176527
-0.0105975,-0.00995105
-0.0266056,0.00249918
-0.0350253,0.00737176
-0.0259341,0.0106994
-0.00549912,0.0205458
0.00660096,0.019319
0.0258021,0.00683723
0.0263303,-0.0118596
0.0168352,-0.00940161
0.00426702,-0.00329266
0.00197037,0.00272584
0.00283734,0.0179934
0.00291944,0.0128017
0.0124374,-0.00395794
0.017735,-0.00156414
0.0125182,-0.00934331
0.0105421,-0.0291314
0.00759064,-0.0104736
-0.00418173,0.00278237
-0.017397,-0.00350571
-0.0135188,0.0169455
-0.0119687,0.0200705
-0.00887608,0.0129816
-0.00832915,-0.00694187
-0.00654347,-0.0171065
0.00394549,-0.00900273
0.0015857,-0.00727456
-0.00596583,-0.000399767
-0.00839654,0.00451765
0.00104895,0.00775286
0.00951433,0.00894892
0.0157003,0.0071682
0.0249256,-0.00574669
0.0223919,-0.0176125
0.0139012,-0.00688167
0.00236306,0.00390353
-0.0155142,-0.0131144
-0.0219893,0.00355649
-0.0110847,0.0341167
-0.0178146,0.0147391
-0.0322329,0.0134316
-0.0520547,0.00343427
-0.0598438,-0.0124806
-0.0572428,-0.0122511
-0.0166905,-0.0161824
0.0251647,-0.01139
0.0522246,0.0143844
0.0693814,0.00936767
0.0696964,-0.000431575
0.0579741,-0.0153856
0.0257459,-0.00655145
0.00623352,0.0153747
-6.64e-05,0.0217454
-0.00275331,0.00995224
-0.00537503,0.0106385
0.0181557,0.0185221
-0.0135182,-0.00767612
-0.0507259,-0.0270079
-0.0605273,-0.0130055
-0.0424647,-0.0163743
-0.0390206,-0.0191766
-0.04635,-0.00954996
-0.00671388,0.00510019
0.0452179,0.0132996
0.055411,0.00772522
0.0475392,-0.00419739
0.0366326,-0.0133028
0.0338082,-0.00345715
0.0291975,0.0121055
0.0180817,0.0136192
0.0207278,0.0192074
0.0251648,0.0333692
0.0100235,0.0269206
-0.00549646,0.00403343
-0.0159014,-0.0102775
-0.0265778,-0.0157849
-0.0266173,-0.0318421
-0.0221157,-0.020058
-0.0333166,-0.00785982
-0.0913764,-0.0063576
-0.139087,-0.00710531
-0.102213,-0.00177124
-0.0187723,-0.00584698
0.0524865,-0.0134763
0.0726913,-0.0107689
0.0740574,-1.76e-05
0.0812297,0.0371467
0.0552129,0.0514547
0.0437049,0.0316001
0.0376823,-0.00431652
0.0136963,-0.0323865
-0.00282225,-0.0475229
-0.0100353,-0.0189295
-0.028807,-0.00523683
-0.0347009,0.0103353
-0.0194103,0.0148599
-0.00453392,0.000908689
0.0117914,0.0106789
0.0164163,-0.00383442
0.0182944,-0.0138123
0.0275258,-0.00397473
0.020511,0.00810166
-0.0125667,0.0132405
-0.0417308,0.00724285
-0.0405436,0.0127669
-0.0230445,0.015824
-0.00847755,-0.000757022
-0.00256386,-0.0141833
0.00577224,-0.0117396
0.00489921,-0.0167363
0.00141337,-0.0160235
0.00176115,-0.0107101
0.0198284,0.0258156
0.0264694,0.0201661
0.0104003,0.00362486
-0.00175227,-0.00707148
-0.0141138,-0.0223547
-0.0206163,-0.011327
-0.0122787,0.017841
-0.0111149,0.00754885
-0.0122373,0.00107515
-0.0172538,0.0192889
-0.0163695,0.00101915
-0.00534783,-0.00347602
0.00320327,-0.0155871
0.0146861,-0.00375895
0.0260236,-0.00242786
0.0235871,0.00268572
0.0149038,0.0125158
0.0043017,0.00424485
-0.000503319,-0.00615361
-0.00328724,-0.00727081
-0.00303813,-0.00119401
-0.00426598,0.00264852
-0.0114582,0.0125123
-0.0367647,0.0184252
-0.0488161,0.00533809
-0.0310554,0.00677724
0.00219617,0.0134853
0.0297357,0.00588904
0.0437027,-0.0150747
0.0439061,-0.019545
0.0133684,-0.0178849
-0.0284651,-0.00897779
-0.0282968,0.00361313
-0.0100743,0.00898126
0.0119392,0.00636253
0.0313266,-0.000127206
0.0360396,-0.00283549
0.0330118,-0.0112676
0.0255269,-0.0174377
0.00152549,-0.00673927
-0.01677,0.00221028
-0.0190603,0.0103513
-0.0147648,0.0156073
-0.0140607,0.0139652
-0.0123255,0.00212427
-0.0203697,-0.0104368
-0.0267989,-0.0139579
-0.0348714,-0.0241045
-0.0321396,-0.0277083
-0.0198075,-0.0151545
0.0228699,0.0226007
0.0415599,0.0108049
0.0379863,0.00480027
0.0253944,0.003254
0.00416144,-0.00241873
-0.00407817,0.00642556
-0.00973494,0.0175371
-0.00571292,0.0157965
-0.0142484,-0.000110937
-0.0436351,-0.00219334
0.0471836,-0.0264696
0.0745248,-0.0274034
0.0653333,-0.0237975
0.0458406,-0.0322995
0.0192233,0.00890514
-0.0158338,0.0194981
-0.048148,0.0153498
-0.0498162,0.024576
-0.0664449,0.0278031
-0.105034,-0.00489618
-0.0893943,-0.0272569
-0.027078,0.0137754
0.0348346,0.0317725
0.0678141,0.0118747
0.0813825,0.00883854
0.0580894,0.0133929
0.0289925,0.0100601
0.0100612,-0.0219504
-0.0124983,-0.0297218
-0.0282639,-0.0133652
-0.00244299,-0.00399908
0.0299909,0.000832109
0.0448343,0.0129621
0.0350882,0.0131238
0.00713866,0.00945856
-0.0286928,0.00548923
-0.0389172,-0.00234376
-0.0229623,-0.00704214
-0.00879485,0.00256546
-0.00461147,0.00617809
-0.00224871,0.00402334
-0.00151726,0.00367231
-0.00921802,0.00139966
-0.0133781,-0.014584
-0.0219077,-0.0301119
-0.023733,-0.026814
-0.00863337,-0.0267986
0.00308453,-0.0155178
-0.00911382,0.0110262
-0.0185594,0.0173342
0.00575099,0.00266085
0.0229069,0.0199613
0.0167834,0.00209214
0.00945148,-0.00909084
0.0118166,0.0165591
-0.00279379,0.0144843
-0.00792233,0.00619082
-0.00199784,0.00871904
0.00550281,0.00945661
0.00915531,0.00319747
0.00315176,-0.0146827
0.000213021,-0.0261049
0.00755608,-0.0183392
0.0185228,-0.00348146
0.0208819,0.00480643
0.0103919,0.017232
-0.00513834,0.0309978
-0.0306733,0.0272148
-0.0463038,0.0237876
-0.0283385,0.00317991
-0.0104165,-0.0165907
0.000378871,-0.00321808
0.00535826,0.00412131
0.00946852,-0.00524969
0.00947857,-0.0126115
-9.46e-05,-0.0156803
0.000899344,-0.0155139
0.0140987,-0.027555
0.0142165,-0.0261515
0.00860514,-0.0114699
0.00734446,-0.00687081
0.0043006,0.0188956
-0.000164208,0.0249048
-0.00674875,0.00635172
-0.00889496,-0.0154704
-0.000592232,0.0159907
0.0109388,0.0236041
0.00840935,0.00854183
-0.00501376,0.0145699
-0.00487456,0.0130264
-0.00529608,-0.0108509
-0.0107859,-0.00571609
-0.00814742,0.00638657
0.00200683,-0.000462931
0.0104916,-0.016331
0.00606629,-0.0149845
0.00544702,-0.00768438
0.00676255,-0.000898146
0.00272562,0.0101152
-0.0114556,0.0181161
-0.0206107,0.014305
-0.0201997,0.00941417
-0.00145538,0.00137189
0.0261477,-0.0118984
0.0291822,-0.0180525
0.0227194,-0.00182446
0.010286,0.0102317
-0.0132736,-0.00109114
-0.0226533,-0.00515223
-0.0206243,-0.000224458
-0.0167456,-0.0170549
0.00307013,-0.02595
0.0144875,-0.0106367
0.00805881,-0.00132233
0.00121916,-0.000375415
0.00214607,0.00885464
0.00359005,0.0195685
0.00269449,0.0183976
0.00771524,0.00875004
0.0134732,-0.00715872
0.0123818,-0.0182996
-0.00529757,-0.00915759
-0.0240089,-0.0108784
-0.0203093,-0.0118254
-0.00921953,0.00936651
-0.000645072,0.0167821
0.00770599,0.000389792
0.0070209,-0.0195967
0.00796199,-0.0169406
0.0108494,-0.00551926
0.0151907,0.00249045
0.0114525,0.0143422
0.00327796,0.0226593
-0.00654524,0.0240461
-0.0113709,0.0195297
-0.0105603,0.00987013
-0.0122239,-0.0082408
-0.0243892,-0.0151681
-0.0327583,-0.0101871
-0.0233026,-0.00794941
0.000317746,-0.00812824
0.00418429,0.00365565
-0.00563869,0.0155668
0.00688744,0.004748
0.0451963,-0.00819858
0.0499942,-0.00633887
0.0348257,-0.00207114
0.0175656,0.00390657
-0.0317855,0.00708028
-0.0623172,0.0039176
-0.0567829,0.00408705
-0.0216234,0.0065196
0.0239781,-0.00470917
0.0533191,-0.000798464
0.0600744,-0.00400374
0.0339091,0.00233515
-0.00188899,0.0143586
-0.0161057,-0.000837108
-0.0257966,-0.0244944
-0.0248295,-0.0317407
-0.00664892,-0.0269202
-0.0421322,-0.00768941
-0.0787532,0.0039485
-0.044041,0.0058222
0.00328829,0.0134127
0.0418889,0.0208919
0.0669231,0.024583
0.0616616,0.0182793
0.0418168,0.0146209
0.0196473,-0.00121766
-0.00723829,-0.014122
-0.0200919,-0.00867085
-0.0170782,-5.54e-05
-0.00501967,-2.16e-05
-0.00451784,-0.00237604
-0.00808258,0.0016874
-0.000289744,-0.00199821
0.021441,-0.0181255
0.026989,-0.0152811
0.0154189,0.00531516
0.00972509,0.0253819
-0.00301679,0.00985537
-0.0171582,0.00274631
-0.0240908,0.0117282
-0.02284,0.000204172
-0.0171377,-0.0125791
-0.00106081,-0.0191098
0.00214268,-0.0323222
-0.0153997,-0.0187755
-0.0183122,0.0090436
-0.00797968,0.00379051
0.00276389,0.0105712
-0.00037626,0.00877914
-0.000531145,-0.0016959
0.00360245,-0.0049887
0.00450541,-0.00597816
0.00594683,-0.000894223
0.00387676,0.0043987
-0.00259614,0.0135342
-0.0085238,0.0191209
-0.0116561,0.0153282
-0.00332053,0.00941045
0.0287216,0.00038498
0.0414363,-0.0145421
0.035297,-0.0224918
0.0291778,-0.0104432
0.0300864,0.000542635
0.00952648,0.00390425
-0.0123128,0.0123106
-0.0312806,0.0105628
-0.0337102,-0.004621
-0.0373392,-0.0222573
-0.0386262,-0.0169847
-0.015091,-0.00431541
-0.0121305,0.00615555
-0.01638,0.00831588
-0.0165104,0.00763728
-0.0115084,0.00368937
0.00984764,-0.00365918
0.0379961,-0.0239035
0.0508492,-0.0150259
0.0435506,0.00731954
0.021887,0.012784
0.00111294,0.00980179
-0.014963,0.0126386
-0.0211804,0.0178306
-0.0156661,0.00728496
-0.00906558,-0.0110415
-0.010131,-0.0117555
-0.0131092,-0.0013719
-0.00700562,0.00622564
0.00463704,-0.000797526
0.0241523,0.014214
0.0403026,0.0290876
0.0271167,0.0232589
0.00691043,0.0157925
-0.0152933,0.00419526
-0.0609408,-0.0290316
-0.0661575,-0.0272209
-0.0249919,-0.00783587
0.0157296,0.00547445
0.0238407,0.0171152
0.0185363,0.0274621
0.00745802,0.0121331
-0.0350841,-0.0124946
-0.104947,-0.0215788
-0.0996795,-0.0347474
-0.0494733,-0.00313947
-0.001438,0.0211185
0.0430868,0.0187175
0.0966189,0.00469644
0.108611,-0.00698444
0.0801099,-0.0171422
0.0675769,-0.0289822
0.0574375,-0.0118678
0.0272691,-0.0165572
-0.00184344,-0.00110455
-0.0194479,-0.00237134
-0.0378114,0.00915789
-0.0507454,0.033156
-0.0524023,0.0122919
-0.0245905,-0.0103221
-0.0131157,-0.0203017
-0.00655338,-0.0309865
0.023913,-0.016486
0.00407475,0.000608968
-0.0298678,0.0208226
-0.0284251,0.037761
-0.00241595,0.0231462
0.0346904,0.000944578
0.056607,-0.0128732
0.0866035,-0.0116851
0.176721,-0.0160468
0.197147,-0.00959789
0.0972491,-0.00245163
-0.064073,-0.00571593
-0.203784,0.000392909
-0.240476,0.000880487
-0.166871,0.00291765
-0.104627,0.0062685
-0.0894455,0.000758452
-0.0689519,-0.00383417
-0.0228896,0.00611061
0.0318426,0.00379629
0.0922751,-0.00089108
0.111258,-0.00682249
0.185878,-0.0308134
0.239983,-0.00665486
0.153483,0.0310115
0.0183319,0.0326956
-0.129159,0.00740454
-0.20435,0.00656793
-0.187361,-0.00104301
-0.135949,-0.0133867
-0.0919853,-0.00224851
-0.0296523,-0.00751885
0.0173551,-0.00282463
0.0422655,0.00496968
0.0707256,-0.000192907
0.138696,-0.00388579
0.221687,-0.00283154
0.229019,-0.00767142
0.0638136,-0.0134823
-0.0824762,-0.0380321
