Comp Ch 3,Comp Ch 4
-0.037128,0.0153995
-0.0349295,0.0249253
-0.044392,0.021625
-0.041055,0.00447486
-0.0182113,-0.000992818
-0.00619286,-0.00110456
-0.00173826,-0.014422
-0.00155653,-0.0131242
-0.00220081,0.00621724
-0.00331611,0.0157936
-0.00272362,0.0152369
-0.00437959,0.0184648
-0.00484854,0.00171581
-0.00160084,-0.015172
7.5e-05,-0.00267041
0.00140732,0.0079344
0.00922126,0.0104923
0.0144754,0.0191389
0.0161573,0.0190181
0.0217704,0.00706634
0.0264208,-0.0163443
0.0216067,-0.0267664
0.0137511,-0.0178198
0.0133978,-0.0107618
0.0112719,0.00234427
0.0113596,0.0114896
0.00676159,0.0102818
-0.000303042,0.00347364
-0.00379083,-0.00657922
0.00129259,-0.0252309
0.00160182,-0.023368
-0.00829893,-0.00237647
-0.0186474,0.00611286
-0.0218662,0.0109272
-0.0240778,0.0263765
-0.018051,0.0199378
-0.00857205,-0.00242127
0.00273368,-0.0143255
0.00622438,-0.0215966
0.00577086,-0.021397
0.00139829,-0.0125322
-0.00200505,0.00394754
-0.00303884,0.013028
0.000513171,0.00627847
0.00131575,0.0158719
0.0103274,0.0107674
0.0194982,-0.0401779
0.0237563,-0.0356481
0.0257858,0.0180976
0.0202848,0.0182235
0.00497564,-0.00374503
-0.00885498,0.00643155
-0.0170588,0.0188704
-0.0206188,0.0196101
-0.0147949,0.0144976
-0.00713059,0.0163496
-0.00482231,-0.00864461
-0.0125571,-0.0288438
-0.0158211,-0.0148414
-0.0145846,0.00165263
-0.0148404,-0.00483304
-0.0165636,0.000111862
-0.0164244,-0.00406053
-0.0132016,-0.0135295
-0.00971744,-0.0046252
-0.00726682,0.00216557
-2.63e-05,-0.00238583
0.0155834,0.0061956
0.0302752,0.0176827
0.0163384,0.0136819
-0.00850506,-0.00858581
-0.0105101,-0.01914
2.28e-05,-0.00943058
0.0133328,-0.00212494
0.0245411,0.00558407
0.0400816,0.0144231
0.0385697,0.0213989
0.0121753,0.0283734
-0.00749062,0.0236652
-0.0134682,0.00724058
-0.000706533,-0.00825114
0.0288918,-0.0229124
0.0455453,-0.0220737
0.0336535,0.00351791
0.00370639,0.0201997
-0.0134982,0.0189643
-0.0498766,-0.0106766
-0.128904,-0.0396964
-0.138878,-0.0249721
-0.0857259,-0.0118627
-0.00883413,-0.00293364
0.0569933,0.011048
0.0821155,0.0124492
0.0487033,0.00479802
-0.0126175,0.00629695
-0.0135852,-0.0041417
0.00672743,-0.0164141
0.0155064,-0.00648006
-0.00399444,0.0017975
-0.00774334,-0.0172371
0.0235886,-0.00515176
0.0583566,0.0192189
0.0641522,0.0206022
0.0790071,0.0103984
0.0779221,-0.0137248
0.048193,-0.0145888
0.0205252,-0.00674286
-0.00108188,-0.00929172
-0.0166935,0.00209417
-0.0323889,0.0120391
-0.052032,0.0239228
-0.0589319,0.0305603
-0.0468285,0.00476876
-0.024073,-0.0113791
-0.0200087,-0.0104682
-0.032419,-0.00423866
-0.0406703,-0.00683707
-0.0376439,0.0202043
0.00175882,0.0411785
0.0216379,0.0110091
0.0340318,-0.0299047
0.0454038,-0.0319113
0.0327213,-0.00991634
0.00301076,-0.0170876
-0.0339191,-0.0221757
-0.0548644,-0.00821815
-0.0369987,0.016654
0.0132047,0.035286
0.015654,-0.00046789
-0.00495272,-0.030014
-0.0113202,-0.0137599
-0.0130595,-0.00150829
-0.00518344,-0.000428854
0.0102563,0.00425381
0.018124,0.0168193
0.0103009,0.00988598
-0.00300978,-0.00125738
-0.00439218,-0.00603745
0.0019515,0.0141046
0.0027751,0.0360908
0.0109194,0.0186362
0.0234667,-0.0235204
0.0263429,-0.0217944
0.0317248,0.00445959
0.0239422,0.0103942
0.00689602,-0.0150113
-0.0136372,-0.0221183
-0.0256901,-0.00351593
-0.0138506,0.0408737
0.00519428,0.0415519
0.0127276,0.0410112
0.00699181,0.0233311
-0.00336404,-0.0306252
-0.00794945,-0.0514504
-0.000725806,-0.047649
0.0011042,-0.0375285
-0.00500209,-0.0160712
-0.013938,0.0022569
-0.0230844,0.0153237
-0.0273041,0.0148759
-0.017496,0.00663156
-0.0114896,0.00110003
-0.00908099,-0.0110194
-0.00232819,-0.0130601
0.00446787,0.000653644
0.00755547,0.00819435
-0.00345162,0.0052112
-0.0125637,0.00759903
-0.00464274,0.0198185
0.0221695,0.0248214
0.0463577,-0.00124966
0.0482615,-0.0242312
0.0255961,-0.0232289
-0.000238046,-0.0184403
-0.0178895,-0.000301402
-0.0215661,0.0201971
-0.0110931,0.020614
0.00990193,0.0139175
0.0216393,0.00383906
0.00425343,-0.0138835
-0.0344889,-0.0223701
-0.0783343,-0.00146546
-0.102401,-0.00175645
-0.0843592,-0.0187753
-0.0374204,-0.00269754
0.0195761,0.0328078
0.0487391,0.0304602
0.0836135,-0.00989852
0.0688368,-0.0285252
0.0278425,-0.0201471
0.0126588,-0.00348973
0.0206359,0.00850874
0.0345304,0.0155075
0.0339916,0.00719494
0.0201038,0.00760512
0.0132384,0.00152624
-0.0061925,-0.0206818
-0.0117151,-0.0093628
0.0144043,0.0262178
0.0222153,0.0243446
0.0122133,0.0130398
0.000864486,0.0147235
-0.0102219,0.0276662
-0.00212102,-0.00311876
0.011861,-0.0465408
0.00279303,-0.0149877
-0.0205134,-0.0158669
-0.0435434,-0.0259556
-0.0501526,-0.00505414
-0.0404069,0.017504
-0.0222845,0.00672368
0.00354824,-0.00370379
0.0259975,0.00160216
0.0289069,-0.00179383
0.00238717,0.00897637
-0.0469027,0.0165463
-0.115324,0.0111559
-0.0980291,0.0152932
-0.0371375,0.0280333
0.0422272,0.0197916
0.106074,-0.0196771
0.136427,-0.0323221
0.117559,-0.0206521
0.0626605,-0.0168322
-0.00644941,-0.00175201
-0.0497787,0.0109002
-0.0429255,0.0117656
-0.0372965,0.00264704
-0.0694112,-0.000337369
-0.0697032,-0.0128177
-0.0318015,-0.0147184
0.0202468,0.00489648
0.0664867,0.0115738
0.0967363,0.00589101
0.0885272,0.0146934
0.0422531,0.0237489
-0.0170552,0.00549148
-0.0486765,-0.0268115
-0.0500097,-0.0315787
-0.0491145,-0.0290897
-0.0368974,-0.0195845
-0.00354314,0.000604636
0.0122126,0.0110155
0.0169166,0.010075
0.0250924,0.00673011
0.026665,0.00123126
0.0102204,-0.017678
-0.0130073,-0.0142081
-0.0163746,0.00667593
-0.020831,0.00856217
-0.0457943,0.0106324
-0.0469224,0.0350723
-0.0252887,0.0240778
0.00183955,-0.00431694
0.00788823,-0.0231315
0.00228449,-0.0211712
0.0119617,-0.0096354
0.00396637,-0.00482966
-0.0109661,-0.000465499
-0.0180219,0.00765868
-0.0143121,0.00394524
-0.0121313,0.00767417
-0.0140941,0.00200361
-0.00391313,-0.00362049
0.0245495,-0.00304417
0.0693119,0.00343522
0.0785117,0.00295893
0.0531018,0.00679054
0.0208797,0.024199
-0.00167549,0.0204179
-0.00687321,-0.0103373
-0.0106174,-0.0299292
-0.0105708,-0.0212204
0.00199189,-0.0179689
0.00710473,-0.00800702
-0.024481,0.0131765
-0.0386802,0.0205565
-0.0336496,0.014239
-0.0488649,0.0012843
-0.0376586,-0.0249602
0.0129863,-0.0182046
0.0306384,0.0104738
0.0218662,0.0215801
0.0114149,0.0213149
0.00789684,0.032853
-0.00105847,0.0306451
0.00478457,0.00297073
0.0212504,-0.0245818
0.0281414,-0.0222073
0.0307561,-0.0237771
0.0294578,-0.0329277
-0.000900825,-0.0324966
-0.0216361,0.00995657
-0.0265523,0.0143951
-0.0221299,0.00707037
-0.0143339,0.00279381
-0.00820888,-0.0132078
-0.00471481,-0.00789372
-0.00765856,0.014349
-0.000689177,0.0216309
0.00286983,0.0253032
-0.00195692,0.0318636
-0.00909124,0.0286511
-0.018393,0.00340992
-0.0223789,-0.0273519
-0.0148966,-0.0186179
-0.000641795,-0.0116351
0.00807355,-0.00987316
0.0107802,0.00730265
0.0107751,0.0159337
0.0144438,0.00944602
0.0217138,1.34e-05
0.0209757,-0.022734
0.012279,-0.0333123
0.00587031,-0.0158854
0.00324145,0.00324183
0.00399532,0.00450932
0.00229499,0.0142474
-0.0082579,0.0232204
-0.0185008,0.0109883
-0.0182872,-0.017195
-0.0374051,-0.0310182
-0.0575072,-0.0232481
-0.0525318,-0.0189177
-0.0251221,0.000510519
0.0386244,0.017474
0.0554074,0.0153606
0.0444763,0.012896
0.0387157,0.0114193
0.0300826,-0.01069
0.0209127,-0.0149727
0.0034314,0.00476093
0.00128104,0.0160841
0.00906377,0.01591
0.000466057,0.0203537
-0.0302326,0.0213885
-0.0627024,0.00402414
-0.048752,-0.0235515
0.0131996,-0.0318472
0.0479327,-0.024514
0.0566887,-0.0111044
0.0328317,0.0152215
-0.00866118,0.0306463
-0.0286395,0.00209247
-0.0482942,-0.0023821
-0.0581531,-0.00841715
-0.0574262,-0.0288172
-0.03753,-0.0208722
-0.0129477,0.00217276
0.0275678,0.0161098
0.0781623,0.0222926
0.0850661,0.0260525
0.0615428,0.0312132
0.0173608,0.0188247
-0.00765061,-0.0193025
-0.0140547,-0.039069
-0.00818324,-0.0269964
-0.00954366,0.00131432
-0.00732606,0.0173953
0.00413617,0.00830278
0.00108005,0.00616491
-0.00671161,0.00626508
-0.0051116,-0.011701
0.00159439,-0.0219947
0.00247939,-0.00685145
0.0103936,0.0142404
0.00809604,0.0177437
-0.00365988,0.0165466
-0.00313992,0.0215674
0.00197318,0.0237925
0.000548204,-0.013447
0.0018878,-0.0306842
-0.00812914,-0.0179273
-0.0203565,-0.0162755
-0.0235228,-0.0105249
-0.0279298,0.00452119
-0.024569,0.0152874
-0.0180644,0.00239621
-0.00902438,-0.00445554
-0.00127535,-0.0246511
0.00778853,-0.0305311
0.0181579,-0.00594249
0.0153608,0.00658217
0.0167028,0.0098535
0.020002,0.00721616
0.00710785,0.0205332
-0.00429627,0.0249176
-0.00730323,-0.0162405
-0.00954237,-0.0269744
-0.0132086,-0.0122233
-0.017658,-0.00611557
-0.0294318,-0.00267371
-0.0265668,0.00646092
-0.0130502,0.00907886
-0.000299095,0.00882445
0.00924964,0.00729777
0.0165288,-0.0146626
0.0243206,-0.0130673
0.0271138,0.0102986
0.0308784,0.0127998
0.0344586,0.00930239
0.0348371,0.0224483
0.020794,0.0301669
0.00180083,0.00305411
-0.0166626,-0.0260004
-0.0137622,-0.013839
0.00786889,-0.00803029
0.0392602,-0.00593679
0.0209099,0.00328116
-0.0221321,0.0164327
-0.0468631,0.0141004
-0.048221,0.0135576
-0.0403708,-0.00500753
-0.0202576,-0.0263497
3.82e-05,-0.009061
0.0040476,0.00987363
-0.00674358,0.00642054
-0.00681735,0.00972104
-0.00379427,0.0185037
-0.000872637,0.0141196
0.00431823,-0.0124467
0.00863557,-0.0275083
0.00219412,-0.0170431
-0.00642204,-0.0140238
-0.0139671,-0.00984871
-0.0106526,0.0126859
0.00823203,0.0302479
0.0145913,0.0138758
0.0121869,-0.00370851
0.0128305,-0.0120348
0.00260406,-0.0265159
0.00254194,-0.0145701
0.0244413,0.00176946
0.0508987,0.0159262
0.0574766,0.0260525
0.0473948,0.0209564
0.00449714,0.0019377
-0.0461009,-0.013821
-0.0796112,-0.0159349
-0.0920334,-0.00941766
-0.0800572,-0.0180143
-0.0531001,-0.00269398
0.000652366,0.0137544
0.0416024,0.0059506
0.0557754,0.0319684
0.042751,-0.00679004
0.0355779,-0.0476559
0.0290854,-0.0384166
0.000844858,-0.00509012
-0.0173469,0.0100753
-0.0198174,0.0133078
-0.00705431,0.0274921
0.01068,0.0288288
0.016811,0.00161452
0.0205379,-0.0255031
0.0211425,-0.022399
0.0308539,0.00217371
0.0348215,0.0335055
0.0115501,0.0331493
-0.0164682,0.0103547
-0.0197973,-0.0148775
-0.00393651,-0.0306231
0.00731344,-0.0205091
-0.00128473,-0.0416958
-0.0268304,-0.0403149
-0.0408341,0.0247111
-0.0129694,0.0671425
0.00914775,0.0549431
0.0144851,0.0475342
-0.00240216,0.028067
-0.00653032,-0.0194497
-0.0274598,-0.04832
-0.0309534,-0.0141043
0.0154095,0.0242958
0.021529,0.00198529
0.0309351,-0.00198115
0.029082,0.00720286
0.00393963,-0.0322352
-0.0128259,-0.0190601
-0.0243686,-0.0244687
-0.0367768,-0.0325935
-0.0412294,-0.0118372
-0.033877,0.00464668
-0.013433,0.00350588
0.00197526,0.00848888
0.00510472,0.018949
0.00880815,0.00938619
0.0198635,-0.0190598
0.0179168,-0.0280106
0.00595702,-0.0142587
-0.00420382,-0.00558488
-0.00522233,0.0120999
0.00100923,0.0491058
0.012094,0.0197759
0.0175411,-0.00484492
0.0131338,0.0032733
0.0103232,-0.0130719
0.0175635,-0.0140724
0.0167099,0.00518158
0.00832156,0.00497558
-0.00562472,0.00701725
-0.0179336,0.0201401
-0.0222163,0.0228971
-0.0128577,0.00140929
-0.00944907,-0.0321113
-0.0141641,-0.0331142
-0.0167118,-0.0165279
-0.0159565,-0.00530166
-0.00279534,0.00647763
0.0211689,0.0126783
0.0397061,0.0241652
0.047455,0.0228706
0.0380359,-0.00265878
0.0156658,-0.0282267
-0.00953365,-0.0161259
-0.0116204,0.00874583
-0.00102069,0.0099264
0.00119583,0.00705456
-0.00784096,0.00852903
-0.0136482,0.00949935
-0.0154087,-0.00529224
-0.021864,-0.0203733
-0.0251056,-0.00969191
-0.0336838,-0.00153222
-0.0446748,0.0089899
-0.0340722,0.0231254
0.0116085,0.0361579
0.0206051,0.0473306
0.0180024,0.014599
0.0177583,-0.0208619
0.0620734,-0.0150934
0.0845024,0.00300342
0.0562779,-0.00121178
0.0313959,-0.00984909
-0.00502606,-0.0217119
-0.0284218,-0.0312831
-0.0267548,-0.0656556
-0.0252807,-0.0638235
-0.0463267,-0.0359755
-0.0372155,-0.0193204
0.00794749,0.012749
0.0247278,0.0404424
0.00135177,0.0534914
-0.00978779,0.0630992
-0.00157863,0.0479858
-0.0125008,0.0189282
-0.0331132,0.00100823
-0.0508084,0.00279563
-0.0508693,0.00741704
-0.0228155,-0.0172003
0.011143,-0.0136624
0.0188226,-0.00264676
0.0164304,-0.0140779
0.00175554,-0.0163729
-0.0029867,-0.0127016
0.00582106,-0.0292705
0.0271658,-0.0209252
0.00333123,0.00312205
-0.0308813,0.0271481
-0.0218032,0.0409034
-0.0127531,0.041019
-0.0156756,0.0123504
-0.00581778,-0.0293344
0.0397139,-0.0139689
0.0716797,-0.00652447
0.0539737,-0.0144165
0.0094545,-0.0112571
0.0234092,-0.00714545
0.0570825,-0.0112909
0.0771895,-0.0193189
0.128871,-0.041002
0.111178,-0.0199964
0.0253855,0.01818
-0.0493824,0.037241
-0.100706,0.0458653
-0.118032,0.0343315
-0.0975697,0.030237
-0.0935734,0.0083239
-0.0911603,-0.0249648
-0.0766492,-0.0267982
-0.0460507,-0.0114981
-0.0382696,-0.0177334
-0.0375229,-0.0115982
-0.0278684,0.0366766
0.000487286,0.0528849
0.0195809,0.019938
0.0370065,-0.00636603
0.022391,-0.0670084
0.0269751,-0.0746354
0.0999108,-0.0295889
0.189816,0.014234
0.177827,0.0409342
0.0974786,0.0558155
0.0198365,0.0315706
-0.0315661,0.00506922
-0.0717356,-0.0231579
-0.0870711,-0.0175951
-0.0862277,-0.00875855
-0.0605079,-0.00776593
-0.0360531,-0.00552509
-0.0283644,-0.00867158
-0.0309541,-0.015522
-0.0312805,-0.0286748
-0.0244991,-0.0310474
-0.0250839,-0.0163738
-0.00292817,-0.0159113
0.0336273,0.00795418
0.0292476,0.0348457
0.00984087,0.0441327
-0.0083196,0.0390797
-0.0203933,0.0311608
-0.0232812,-0.012791
0.00283435,-0.0372746
0.077621,-0.0141569
0.123241,0.00195411
0.135901,0.0107782
0.101526,0.0243185
0.0258772,0.0276329
-0.0258505,0.00744595
-0.073572,-0.0413132
-0.111814,-0.0543395
-0.105184,-0.0140987
-0.0690369,0.0130295
-0.0330972,0.0267354
0.0122435,0.0352141
0.0390328,0.0118761
0.0604222,0.0169225
0.0417737,0.0449026
0.00524188,0.00663143
0.0230736,-0.0266754
0.0264164,-0.0205112
-0.0362903,-0.00470683
-0.0734519,-0.0177891
-0.0978694,-0.0389394
-0.112255,-0.00939501
-0.0904165,0.0135572
-0.0583687,-0.00462439
-0.0377903,-0.0195906
-0.015338,0.000724973
0.00453822,0.00344398
0.0130555,-0.00554533
0.0196068,0.0140129
0.0647468,0.0315344
0.21801,0.0342309
0.331429,0.023361
0.300174,-0.00634199
0.155953,-0.00387001
-0.00761402,0.0396355
-0.126309,-0.00584792
-0.155227,-0.0486931
-0.175005,-0.0317194
-0.190262,-0.0143416
-0.155485,-0.0261411
-0.0969122,-0.0383682
-0.0547643,-0.0173141
-0.0290789,-0.00774575
-0.00500579,0.0195121
0.0221328,0.0276768
0.0437357,0.0248282
0.0429353,0.0398182
0.0256088,0.0391279
0.0267602,0.0326682
0.0380004,0.0223489
0.0334869,-0.00752245
0.00537988,-0.0661567
-0.0356755,-0.0469036
-0.0327448,-0.0277322
0.0368062,-0.00425648
0.153479,0.000456353
0.165489,-0.0204452
0.104554,-0.0268724
0.0182143,0.00260166
-0.0755174,0.0236554
-0.110099,0.0200447
-0.110363,0.0176994
-0.104018,0.0207809
-0.0865131,0.0298856
-0.0661625,0.0263336
-0.0616326,0.00399767
-0.0575221,-0.00425243
-0.0392914,-0.0146461
0.000497814,-0.0196396
0.114727,-0.023415
0.257394,-0.00285323
0.259515,-0.00873886
0.139572,-0.0203365
0.0236649,-0.0254487
-0.0378605,-0.00957603
-0.0654945,0.00706509
-0.124229,0.0128429
-0.187058,0.0431005
-0.12824,0.0983945
-0.0600263,0.105643
-0.0289341,0.0430817
-0.0272721,-0.0865333
-0.0200532,-0.1077
-0.0112656,-0.0554709
-0.00759737,-0.0262485
-0.0035389,-0.0141295
-0.00314352,-0.0239835
0.0269103,-0.015512
0.0987852,0.00466994
0.132846,0.00696844
0.13824,-0.0133316
0.108985,0.00129863
0.046973,0.0134665
-0.0139964,0.023895
-0.0565511,0.0408314
-0.0797106,0.0800371
-0.0783102,0.090322
-0.0673188,0.0573795
-0.0565397,-0.0202597
-0.0277113,-0.13799
-0.000188417,-0.0957515
0.00919925,0.0103417
0.0425416,0.00536662
0.0522083,-0.0242674
0.0308969,-0.003397
0.00392117,0.0135585
-0.0272874,-0.00509602
-0.0425804,-0.013918
-0.0450019,-0.0132588
-0.0443404,0.00435988
-0.0188324,0.00125865
0.00494461,0.00278526
0.0303338,0.0180435
0.0247818,0.02323
0.00997326,0.0207267
0.000739337,-0.0163058
0.00716496,0.00188811
0.0590195,0.0576553
0.0696483,0.0342462
0.0383765,-0.0290229
-0.011803,0.0091578
-0.0406781,0.0245236
-0.00822925,-0.0115724
0.0158446,-0.047026
0.0107356,-0.0545979
-0.0341076,-0.0259108
-0.0335255,0.00821053
0.0227059,0.00967076
0.0410656,0.0132997
0.0429802,0.0488353
0.0555668,0.00628232
0.0722738,0.0324091
0.062512,0.0381959
0.000773286,-0.0235553
-0.0698531,-0.0423694
-0.138258,-0.0514746
-0.177606,-0.00602407
-0.140737,0.00987443
-0.0800501,0.010038
-0.0247968,-0.00788744
0.014369,-0.0222851
0.0451178,-0.0088334
0.0609404,0.00696345
0.0478372,0.011206
0.0326751,0.0184045
0.0249951,0.0227363
0.0218528,0.0148185
0.0180115,0.0042038
-0.00130585,-0.0301734
-0.0102651,-0.0524682
0.00725932,-0.00569571
0.0117679,0.0212814
0.0182795,0.0239872
0.0086691,0.0294112
-0.0272755,-0.00185809
-0.0336549,-0.0235206
-0.0217905,-0.0107649
0.0180892,-0.0387473
0.0576169,-0.0564711
0.0498491,0.0192362
0.0147733,0.0644848
-0.00365661,0.0358368
-0.00241593,0.0294732
-0.00492804,0.0262253
-0.0150924,0.0181338
0.014959,1.61e-05
0.0326182,-0.0202328
0.0149035,-0.0213283
-0.00133398,-0.00578834
-0.00708211,-0.00605178
-0.0198194,-0.00806555
-0.0167755,0.00747036
2.14e-05,0.0125535
0.00821307,-0.0122947
-0.000667694,-0.0220087
-0.0111126,-0.00633027
-0.0105432,-0.000603009
0.000485874,0.0051511
0.0104079,0.0108852
0.00323286,0.0114175
-0.0125931,0.00611574
-0.0192082,-0.00336277
-0.020535,-0.00610298
-0.0149449,-0.015329
-0.0113122,-0.00374032
-0.0105891,0.00155374
-0.00868232,-0.0136608
-0.00716978,-0.0058872
0.00568126,-0.0143332
0.0150383,-0.0322461
0.0202035,0.00138775
0.0247936,0.012762
0.0212678,-0.00169062
0.0164988,-0.00975112
0.0153925,0.00517229
0.00599592,0.00851781
-0.00389836,0.000792532
-0.00155825,0.0162493
-0.00247498,-0.0137236
-0.013234,-0.0171878
-0.0231425,-0.00430384
-0.0138088,-0.00917653
0.00508643,0.013813
0.00698798,0.0223237
-0.00916727,0.0215834
-0.00398407,0.0162041
0.00875,0.0039466
0.00862155,0.000394062
0.00702046,0.0308961
0.00658739,0.031763
-0.00349288,0.0152607
-0.00826675,0.00417111
-0.00480125,-0.02167
0.00223293,-0.0201978
0.0146246,-0.000764666
0.00876059,-0.0160662
-0.0239549,-0.018237
-0.0557874,-0.00496757
-0.0419717,0.00282858
0.00176862,0.00563001
0.0379248,0.0120573
0.0379281,0.0176961
0.029692,-0.000165374
0.0210551,-0.0302487
0.0135426,-0.0208381
0.0158492,-0.0138724
0.0118137,-0.00323285
0.00126756,0.0109994
-0.0254196,0.00893755
-0.0494828,0.00545964
-0.0645174,0.00307254
-0.0884363,-0.000696677
-0.106978,-0.0188011
-0.0505456,-0.0255668
0.0386865,-0.0105797
0.10738,0.0115898
0.128078,0.0332529
0.0943145,0.0252111
0.0232988,-0.00257935
-0.0519475,-0.0300379
-0.0692074,-0.0193914
-0.0398677,-0.00955091
0.00544372,-0.00350805
0.0278308,7.83e-05
0.0318611,0.00267005
0.0377742,0.0110336
0.0266914,0.00294153
0.00207085,0.00335578
-0.00807767,0.0217273
-0.00196077,-0.0052791
-0.00763774,-0.0164849
-0.0182742,0.00173627
-0.0210158,0.0127238
-0.0159242,0.00979975
-0.00436886,0.0105028
-0.00566046,0.00590087
-0.00224742,-0.00675309
0.0137031,-0.0172771
0.025093,-0.00862322
0.0249921,-0.00149721
0.0168628,0.000177632
0.0140628,0.0136918
0.0107154,0.00834486
0.00514573,0.00866205
-0.00629122,0.0171408
-0.0109993,0.00969639
-0.0126129,-0.0237568
-0.0172063,-0.0142228
-0.0252765,-0.00600229
-0.02488,-0.000227637
-0.0160794,0.0260699
-0.0124077,0.00402235
-0.014246,0.00702843
-0.00190696,-0.00667121
-0.00294705,-0.038337
0.00115673,-0.0221242
0.011764,-0.00182967
0.0190489,0.00500943
0.0214869,0.0229306
0.0138744,0.0176367
0.000327264,0.0132436
-0.00577456,0.00179355
-0.00245576,-0.0170366
-0.00199598,-0.016101
-0.0130158,-0.00913637
-0.0168065,0.00487462
-0.0097974,0.008377
-0.0107349,0.00682148
-0.0072328,0.00412967
-0.000607867,-0.000963036
0.00871845,-0.017327
0.0142865,-0.00436151
0.0231199,0.0144136
0.0232212,0.00239908
0.0270121,0.00656065
0.026541,0.00793505
0.019437,0.00188483
0.00671597,0.000573043
-0.00730382,-0.0123788
-0.00871902,-0.0300344
-0.0025732,-0.0198747
-0.00132492,0.00481622
-0.0206531,0.00919625
-0.0289357,0.0152986
-0.0293945,0.0235123
-0.0368401,0.0346405
-0.0625778,0.0237271
-0.0555741,0.0053201
-0.0190641,-0.0026611
0.0074976,-0.0371699
0.0154369,-0.0306051
0.0467694,0.0195477
0.0607755,0.0155518
0.040185,-0.00403517
0.00921573,-0.00423956
0.00750641,-0.00410003
0.0174397,-0.0187889
-0.0168145,-0.0255534
-0.0380156,-0.0188697
-0.0279449,-0.0207118
-0.0154915,-0.0106196
-0.0015021,0.024083
0.0229684,0.0315661
0.0258309,0.0143651
0.0297656,-0.011306
0.0330477,-0.000557045
0.0262701,0.0109901
0.017557,0.00717774
0.0108106,0.0124459
0.00395674,0.0161315
-0.00861938,0.0117571
-0.0303214,-0.0030713
-0.0429431,-0.0257001
-0.0128665,-0.0213649
0.0079515,-0.000765399
0.00685361,0.009249
0.0110636,-0.00854255
0.0175137,-0.0175194
0.0166019,0.00501919
0.00968868,-0.00593231
-1.55e-05,-0.016466
-0.00746462,-0.00535444
-0.0047914,-0.00179858
-0.00725097,0.00734492
-0.0240041,0.0131644
-0.0389091,0.0162766
-0.0110034,0.0123568
0.0212064,0.00853102
0.0149623,0.000265014
-0.0019874,-0.0365717
0.00255278,-0.0131494
-0.0114965,0.000394772
-0.0228523,-0.00296475
-0.0215991,0.0165162
-0.0170956,0.0252916
0.0024056,0.0225994
0.0219206,0.00378696
0.0115508,-0.0191558
-0.00438418,-0.00281776
0.00324641,0.0132977
0.0141735,0.00494942
0.0207822,0.0220275
0.0133877,0.016609
-0.011191,-0.0125451
-0.0106135,-0.00719334
-0.0125045,-0.00865912
-0.0123427,-0.0226623
0.000945758,0.000483103
0.0106673,0.0126789
0.00645893,-0.0121232
6.95e-05,-0.00231405
-0.00432437,0.00878851
-0.0125148,-0.00368088
-0.000370162,-0.031312
0.00317957,-0.0262188
0.0141988,-0.0120228
0.0304841,0.00205054
0.00773345,-0.000388785
0.0135757,0.0242777
0.000801985,0.0191961
-0.00589034,-0.0273391
0.00623098,-0.0298376
0.00985845,-0.00666001
0.00297555,0.00409618
-0.0203135,0.0175489
-0.0364806,0.0216927
-0.0376195,0.0129041
-0.0129814,0.003647
0.0126215,0.0266148
0.02534,0.0187019
0.0225277,-0.00959777
0.00533459,-0.00815634
-0.0179458,0.00103978
-0.034727,-0.000961062
-0.0245034,0.00023604
-0.00405641,0.00436007
0.0289845,0.00980097
0.0475328,0.0186783
0.0350144,0.00205078
0.0380259,-0.024689
0.0439691,-0.0131773
0.0285604,0.00124176
0.0045497,0.000525841
-0.0244775,0.00614999
-0.0413054,0.000662593
-0.0230195,0.00237215
-0.0129217,-0.0122709
-0.0636661,-0.0275935
-0.16521,-0.0255027
-0.136607,-0.0371909
-0.0292392,0.00905816
0.0279169,0.0606474
0.0100084,0.0524404
0.00598436,0.0298577
0.0487856,0.0048341
0.0113298,-0.0161781
-0.0221151,-0.043975
0.0127313,-0.0344031
0.0339304,0.0151962
0.0447029,0.0221782
0.0592199,-0.0307256
0.0914915,-0.0189498
0.105328,0.006493
0.0809059,0.00689062
0.00457556,-0.00784984
-0.0673078,0.00586579
-0.110269,0.0286172
-0.0794083,0.0303379
-0.0176228,0.0521751
0.0486289,0.0199431
0.10546,-0.0466592
0.109498,-0.0463886
0.0673817,-0.0179496
0.0124148,-0.031567
-0.0254288,-0.0160159
-0.036954,0.0041018
-0.024256,0.004055
-0.00591493,-3.67e-05
-0.00362773,0.00692144
-7.51e-05,0.00950583
0.0103327,-0.0133829
0.0109048,-0.0243063
0.00594469,-0.00901584
-0.00239616,-0.000635701
-0.0227364,-0.00726517
-0.0334777,-0.0103951
-0.0274776,0.0212322
-0.0146576,0.0519782
-0.00645844,0.0325888
0.00230724,0.0583157
-0.0150454,-0.0135363
-0.0374861,-0.0800775
-0.0343762,0.0180015
-0.0143236,0.0319878
-0.00749919,-0.00332588
-0.0157994,0.00144103
-0.0119269,-0.0317847
0.0151212,-0.0431734
0.0510235,0.0209459
0.0728476,-0.00703112
0.030858,-0.00961954
-0.0447003,0.04887
-0.048034,0.000857936
-0.0103704,-0.0139434
-0.00655048,0.0328051
-0.0416128,0.00688706
-0.0632913,-0.0552905
-0.0818373,-0.0499745
-0.0767341,0.0519143
-0.0477978,0.0411442
-0.0370879,0.00435996
-0.00628127,0.0222661
0.0489655,0.0322077
0.0756707,-0.0724897
0.0776246,-0.0458435
0.0966912,0.00888064
0.102104,-0.0203778
0.0224987,0.00059249
-0.0212285,0.0403621
0.0103727,0.0652206
0.00606652,-0.00200165
0.0181472,-0.0310452
0.0585714,-0.023554
0.0663945,-0.00220205
0.0606174,0.0250216
0.0111972,0.0015469
-0.0302359,-0.0163307
-0.0616505,0.00894574
-0.0528256,0.0152686
-0.0394343,0.00995197
-0.0817116,-0.0228886
-0.135364,-0.0516616
-0.149599,-0.00567214
-0.133953,0.0633686
-0.0935728,0.029035
-0.0591723,0.00240928
0.00253276,-0.0176905
0.0700688,-0.0592397
0.178579,-0.0319891
0.212441,-0.00842332
0.137447,-0.035846
0.036708,-0.00932486
0.030108,-0.013303
0.111913,-0.0020686
0.104658,-0.000566141
0.0716913,0.0375089
0.0431346,0.0489594
-0.0357141,0.0112004
-0.209838,-0.00715355
-0.27518,0.00281198
-0.243305,0.0127134
-0.170213,0.0147229
0.0102825,0.0302698
0.183024,0.0282773
0.239797,0.0133104
0.143516,-0.00425148
0.00421117,-0.0318641
-0.0417266,-0.0363795
-0.0240042,0.0260512
-0.000660879,0.0113026
0.0386867,0.00482683
0.0477982,0.014453
0.0535195,0.0162714
0.0456355,-0.00110952
0.039025,-0.0104812
0.0112929,0.00172567
-0.010885,0.00183082
-0.0164355,-0.0113614
-0.00677854,-0.0085727
-0.00885286,-0.00477224
-0.0144566,-0.0244915
-0.0417728,-0.0247292
-0.0755061,-0.0232376
-0.0900183,-0.0162604
-0.0926322,0.000154694
-0.072743,-0.0119539
-0.0444903,0.00273628
-0.0242391,0.0240161
-0.00380111,0.0241061
0.0135726,0.0230359
0.0229768,0.00479961
0.0361723,0.00389623
0.0448706,0.00970057
0.0555758,0.00984834
0.0493157,-0.00824406
0.0293854,-0.0135653
0.0285844,-0.00328263
0.0173914,-0.0186034
-0.00231835,-0.0178824
-0.00867198,-0.0224262
-0.00595322,-0.0322561
-0.0145661,-0.0183894
-0.0222263,-0.0148551
-0.011908,-0.0006142
-0.0112117,0.0131524
-0.00430975,0.0261857
0.0103933,0.0156009
0.0173626,0.00475782
0.0234396,0.0108192
0.0331104,0.011361
0.0387854,0.00257033
0.0309333,0.000247351
0.0200114,0.0194081
0.00176676,0.020292
-0.0420575,-0.000216339
-0.053684,-0.0121325
-0.0237603,-0.0135653
-0.0111805,-0.0412033
-0.0159703,-0.010726
-0.0242557,0.0270516
-0.0105524,0.00317816
0.0238378,0.032921
0.0459847,0.0525475
0.0473451,0.0551816
0.0533106,0.0139645
0.011272,-0.055762
-0.00974712,-0.0517447
0.00469226,-0.000600812
-0.0362714,0.0199963
-0.138248,-0.00883342
-0.135018,0.0159199
-0.0869908,0.013315
-0.0422538,-0.035212
0.00787264,-0.043162
0.0310582,-0.0208307
0.0178466,0.0230262
0.0315643,0.0255232
0.0527295,0.016807
0.0668376,0.0130563
0.0603304,0.00132013
-0.0269977,-0.000210187
-0.0408114,-0.0392615
0.0214722,-0.0159665
0.0879992,0.00764125
0.128225,0.00783321
0.128702,0.0215192
0.0593424,0.0197433
-0.0118912,0.0242775
-0.0403297,0.0285654
-0.0418966,-0.0252254
-0.0235403,-0.0567366
-0.021322,-0.0403395
-0.0229763,-0.0338376
-0.0498872,-0.0121046
-0.109049,0.0111268
-0.0891796,0.0246815
-0.0307686,0.00512837
0.0260381,-0.0310613
0.0821493,0.00817545
0.089751,0.0274956
0.00900132,0.0136688
-0.0431431,0.0101469
-0.0418758,0.0123744
-0.0800599,0.0096619
-0.0983704,0.0102849
-0.109567,-0.00381312
-0.0718156,-0.0337212
-0.00664511,-0.0159589
0.0660123,-0.000675557
0.105154,-0.00599758
0.0948225,-0.00516694
0.0584108,0.00933782
0.0128265,-0.0155021
0.00608442,-0.00495294
0.0107035,0.0231047
0.0304181,0.014631
0.0385022,0.0120074
0.0307117,0.0260618
-0.00110111,0.0232887
-0.0270068,0.00794162
-0.0323095,0.00330907
-0.0249045,0.00332969
-0.004887,-0.0348581
-0.00927454,-0.0463082
-0.0128608,-0.00553025
0.00396509,-0.00112652
0.0103335,-0.00513967
-0.00970293,0.0134585
-0.0440304,0.00943747
-0.0428878,0.00512655
-0.00572015,-0.0164231
0.0116171,-0.0136059
0.0460282,-0.00224589
0.0516265,-0.00824094
0.0310432,0.00533655
0.0221487,0.0181075
0.0389527,0.0174005
0.0376284,0.0152592
0.013429,0.00338627
0.00975387,-0.00235165
0.000652016,-0.00691525
-0.0452602,0.0134313
-0.0681716,0.0212401
-0.037795,-0.00259532
-0.0101614,0.00176782
-0.0114358,0.0131345
0.00395628,-0.00149996
0.0237827,-0.0160232
-0.0023233,-0.0113332
-0.0127314,-0.0121825
-0.0075831,0.0169279
-0.0365944,0.0039758
-0.033459,-0.00385847
-0.0158226,-0.00637426
-0.00868652,0.00832994
0.0193731,-0.0048103
0.0436194,-0.0150226
0.038649,-0.00594667
0.0112525,-0.0208959
-0.00616928,-0.0228219
0.00801466,0.00935393
0.00111369,0.00990066
-0.00796796,0.00153291
0.00359074,3.47e-06
0.00197794,-0.0045024
0.00477054,-0.0145235
-0.01687,-0.0191642
-0.0385843,-0.0120585
-0.0440103,-0.0545822
-0.0426677,0.00263193
-0.0112733,0.0341968
0.00592143,0.0428153
0.00848639,0.0144923
0.0367005,0.000758137
0.0552724,0.0126841
0.0220853,0.0162307
-0.0320892,0.0108245
-0.0192668,0.00688229
-0.01965,0.0115825
-0.0335229,0.00738525
-0.0131759,-0.0122219
0.031664,-0.0278302
0.071015,-0.0260066
0.0663954,-0.0183989
0.0502857,-0.00891247
0.0763888,0.0165951
0.102577,0.0319932
0.0550725,0.0291244
-0.00904012,0.0041158
-0.0715101,-0.0155968
-0.121028,-0.019083
-0.131248,-0.00536035
-0.142904,0.00588485
-0.121371,0.00251351
-0.0535424,0.0108809
0.033311,0.0144697
0.121117,0.00508808
0.121225,-0.00439585
0.0881086,0.00567645
0.0479434,0.00751217
0.0182184,0.00486534
-0.00371651,0.010771
-0.0121625,0.0181907
-0.00766687,0.0153281
-0.00737663,0.0175618
-0.0109419,0.00607187
-0.000481333,-0.0299782
0.00798263,-0.0215146
0.00110103,0.00293819
-0.00984377,0.00140777
-0.0102545,0.0077113
-0.0107001,0.0125425
-0.0220044,0.0016583
-0.0264721,-0.00973432
-0.00681603,-0.0121196
0.0197523,-0.0191569
0.027405,-0.0164786
0.0217703,-0.021541
0.0109911,-0.0109522
0.00921812,-0.00839399
0.0229469,-0.0230433
0.0181448,-0.0163043
-0.0034354,-0.00806721
-0.0176313,-0.00339718
-0.0203637,0.0078667
-0.0278096,0.0177247
-0.0557898,0.0413113
-0.0895275,0.0175441
-0.0587788,-0.00874421
-0.0178814,-0.0194314
-0.00654452,-0.0353873
-0.022986,-0.076618
-0.0123002,0.0176748
-0.00384388,0.0726459
-0.00753388,0.0547846
0.0122105,0.0329376
0.0312158,0.00230891
0.0409154,-0.0251204
0.0582773,-0.0348241
0.0918362,-0.0452879
0.0592951,-0.0529251
0.0343311,-0.0241967
0.0178309,0.00965378
-0.0167982,-0.00703441
-0.0206611,-0.0106044
-0.00851028,0.00621524
0.00828084,0.000379471
-0.00684298,-0.00713853
-0.0330078,-0.0188693
-0.0176027,-0.0539384
0.0148284,0.0239897
0.00888099,0.0677034
-0.00460576,0.0625398
-0.0193966,0.0221045
-0.0174888,0.00338824
-0.0089859,0.00541031
0.0154026,-0.00386937
0.0151944,0.00738264
0.0103283,0.0265447
0.00394917,0.0229024
-0.0111719,0.00116376
-0.0219017,0.0136043
-0.0242846,0.0258831
-0.0185614,-0.00748242
-0.0110502,-0.0305307
-0.0197811,-0.0114877
-0.0215196,0.00501865
-0.00602623,0.0168098
0.018656,0.00954462
0.0211917,0.0208479
0.0281326,0.0175047
0.0280631,0.0023694
0.0198937,-0.00217951
0.0192001,-0.00666746
0.0244398,-0.00970446
-0.00667022,0.000273548
-0.0570219,0.00389761
-0.0599573,0.00204361
-0.0432931,0.010688
-0.0536169,0.0197289
-0.0360092,0.00155733
0.00944386,-0.00800789
0.0469488,0.00279011
0.0646949,-0.00629173
0.0741452,-0.0112409
0.0897483,-0.00890732
0.078455,-0.00561216
0.0308458,-0.00730689
-0.0248839,-0.0244586
-0.0327441,-0.0451071
-0.0107828,-0.0393966
-0.0114332,-0.0175694
-0.018246,0.0077588
-0.0144444,0.00924559
-0.0175376,0.0026076
-0.0382901,0.013429
-0.0344656,0.00703682
0.00431191,0.00255552
-0.00428239,0.0105242
-0.036353,0.0067927
-0.0761156,-0.00417634
-0.0907516,-0.00118872
-0.0226218,-0.00401618
0.0599688,-0.00524642
0.0723358,0.00122045
0.0573099,-0.0300467
0.0482589,-0.0410236
0.0431449,-0.0106387
0.0276346,0.0291596
0.0174863,-0.00676956
0.03243,0.00403987
0.0134648,0.0249825
-0.0105556,0.0126617
-0.00375138,0.0021773
-0.0179541,0.00487234
-0.042363,0.00177439
-0.0445225,-0.012246
-0.0554841,-0.00124674
-0.0530542,0.00973225
-0.0184356,0.00362633
0.0151714,0.00306605
0.047816,0.0156984
0.0562761,0.000502824
0.0413703,-0.0268218
0.0124279,-0.0228877
-0.0394597,0.000755259
-0.0796116,0.00511917
-0.0639283,0.00252287
-0.0327195,0.00766081
0.00684464,-0.0105723
0.0518392,-0.00995226
0.056692,0.0117464
0.0456916,0.00734241
0.0450263,0.00810745
0.0381717,0.0099335
0.0172862,0.00672665
-0.0320653,0.00631606
-0.0682338,0.00235662
-0.0566402,0.0117809
-0.023244,0.0100839
0.0147518,-0.000310121
0.0412755,0.0118549
0.0277491,0.00797665
0.00348755,0.0137066
-0.0170589,0.0180682
-0.0164389,0.011196
-0.0253695,-0.0077073
-0.0156418,-0.0317423
0.0106273,-0.0323694
0.0259313,-0.0424778
0.0221149,-0.00578202
-0.018802,0.00970092
-0.031987,0.0221
-0.0195093,0.0230085
-0.0102608,0.0110216
0.00502878,-0.00378103
0.0156528,-0.0149786
-0.00515847,-0.00529847
-0.0163541,0.0163732
0.0127283,0.0024145
0.0243883,-0.0058813
0.011808,-0.00359619
-0.0117001,-0.00648611
-0.00430535,-0.0142539
0.0191246,-0.0141098
0.0200526,-0.00483316
0.00209349,-0.000981936
-0.0032518,-0.000625257
0.00168365,0.00456253
-0.0197216,0.00327165
-0.0334068,-0.0257159
-0.0169405,0.000323593
-0.0123605,0.00786189
-0.0102945,-0.00696633
-0.00814434,-0.00362346
0.0077587,0.00891124
0.028678,0.00669912
0.0220213,0.0013361
0.0157462,0.0136156
0.0101772,0.017352
0.0147093,-0.00676367
0.0288122,-0.0253966
0.0357071,0.00523313
0.0280022,0.0233641
0.0154129,0.0198166
-0.000255634,0.0216673
-0.017611,0.0199315
-0.0234874,0.0130345
-0.0288398,0.00743236
-0.00980637,-0.00720591
0.0107691,-0.021779
0.00857909,-0.00813312
0.0080206,0.00195368
-0.0716791,-0.00872937
-0.0562942,-0.0239684
-0.00661083,-0.0286627
0.0278568,-0.0258404
0.0353893,-0.00848064
0.0497323,-0.00893084
0.0436396,0.00595992
0.0206966,0.018168
-0.017559,0.0128277
-0.0270152,0.0193087
-0.0386086,0.0297737
-0.046631,0.015639
-0.0456502,-0.00147673
-0.0567287,0.0115236
-0.0671873,0.000808441
-0.0460193,-0.0312209
0.0545882,-0.0338837
0.128378,0.0107507
0.135363,0.013911
0.078123,-0.015389
0.0284952,-0.0224059
-0.0220802,-0.0128603
-0.0674234,-0.0112633
-0.0845014,-0.0144107
-0.0642605,0.00256339
-0.0267293,0.0159282
0.00925177,0.0156727
0.0329589,0.0218405
0.0259796,-0.00423776
0.0161679,-0.0116178
0.00507858,0.0147427
-0.00338337,0.00178209
0.00538942,0.00632556
0.0147805,0.00342862
0.0364731,-0.00374844
0.0383661,-0.0174939
0.011571,-0.0202687
-0.00311398,-0.00862177
-0.00935127,0.00223073
-0.0134994,0.00686445
-0.0266324,0.0118141
-0.0158501,0.0174293
0.00384425,-0.0105544
0.000720304,0.0281068
-0.0223385,0.0439629
-0.0114626,0.0119755
0.00769747,-0.0122098
0.00400275,-0.00924034
-0.00510157,-0.00284919
-0.00403791,-0.00103993
0.0122786,-0.00543974
0.0176333,-0.00774121
0.0086688,-0.0148923
-0.00038669,-0.0271207
-0.0140152,-0.0114788
-0.0407835,0.00176884
-0.0593504,0.0019901
-0.0644319,0.00230524
-0.0618748,0.0331746
-0.0169968,0.0353069
0.0406736,0.0219622
0.0524427,0.00774131
0.0414372,-0.0140872
0.057401,-0.0164914
0.0382795,-0.00142657
0.00533828,-0.00542248
-0.00328485,-0.0114041
0.0213051,-0.00881644
0.0199191,-0.00234941
0.00199516,-0.00821067
0.00326137,-0.021158
0.0174166,-0.014226
0.0262539,-0.00999812
0.0295256,-0.00164506
-0.00540901,0.00402396
-0.0225775,0.0157128
-0.0427195,0.0209777
-0.0579837,0.0238614
-0.0590155,0.00430924
-0.0870817,-0.0142643
-0.0852269,-0.0151619
-0.0581345,-0.0102142
-0.0413693,-0.00842081
-0.00130341,0.00147324
0.0681303,-0.00263523
0.101826,-0.0164561
0.102787,-0.0185757
0.0867836,0.00293632
0.0621983,0.0110635
0.0210969,0.00544427
-0.0137984,0.0109406
0.00457353,0.0221157
0.0288911,0.0257597
-0.000288646,0.0157659
-0.0230091,0.0233469
-0.00215047,-0.00204574
-0.052005,-0.0161843
-0.124499,-0.011326
-0.106782,-0.01333
-0.0518412,-0.0145367
-0.0150957,-0.00525669
0.0396831,-0.0125428
0.0888005,-0.0172349
0.0879145,-0.0294138
0.0483201,-0.0164516
0.0249097,0.000887333
-0.00580855,0.00833136
-0.019385,0.0179804
-0.0178883,0.0207837
0.000542348,0.014429
0.00376027,0.0123031
0.00699082,0.00447967
0.0225078,-0.00612878
0.0184683,-0.00472746
0.00964905,0.000653802
0.0106425,0.00443387
0.0111615,0.00928241
-0.00756349,0.00697901
-0.0244609,0.00741188
-0.0220133,-0.00115679
-0.0174406,-0.0114445
-0.00821889,-0.00230105
0.00219357,-0.00367935
0.0058664,-0.00441969
-0.0169802,0.000482798
-0.027012,0.0114918
-0.00873201,0.00809113
0.00299405,0.00451603
0.0137326,0.000364899
0.0185128,-0.00770825
0.0160233,-0.00656395
0.0124915,-0.000142847
0.00211283,-0.00165436
-0.00865047,0.00543761
-0.0102279,0.0121163
-0.00463007,0.00684188
-7.08e-05,-0.00502349
-0.0111955,-0.00769532
-0.0358224,-0.00107449
-0.0443418,-0.00384667
-0.0502838,-0.0198521
-0.0446661,-0.0140365
0.00882893,-0.0197502
0.0456591,-0.0216513
0.0513273,0.0380702
-0.00499411,0.0421555
-0.0130265,-0.00714714
0.00778254,-0.0132916
0.0142993,-0.00342028
0.00668632,-0.0092837
-0.000885438,0.00107794
0.0101539,0.00682453
0.0130828,0.00115648
0.0188998,-0.00908654
0.0245386,-0.00713366
0.011989,0.00217416
0.000898846,-0.00982958
0.00606656,-0.00588884
-0.00365333,0.0294927
-0.010855,0.0351051
0.00222938,-0.00424472
0.0195834,-0.00164299
0.0305056,-0.00813586
0.0274542,-0.0297668
0.00618703,-0.0198646
-0.0167904,0.00716134
-0.0283379,-0.00758656
-0.0364834,-0.00865293
-0.0275991,0.0244212
-0.0295428,0.0178346
-0.0204197,-0.00446816
0.00337792,-0.00313462
0.0234512,0.00669575
0.0131784,0.00573056
-0.00975746,0.00592521
-0.0213409,0.00856815
-0.0117479,0.0110105
-0.0174691,0.0119388
-0.00937387,0.000201863
0.0378604,-0.0130458
0.0679352,-0.0112113
0.0558418,0.000940906
0.0342835,0.00174734
0.0443258,0.00489871
0.021164,0.00412172
-0.00455016,0.00525508
-0.0167097,-0.00408384
-0.0190869,-0.0198921
-0.0352522,-0.0250187
-0.042715,-0.0204249
-0.0250279,-0.0189303
-0.00867296,0.00640696
-0.0134094,0.00791847
-0.0182197,0.0238995
-0.0165624,0.0230215
-0.0130819,-0.00511982
-0.0226009,-0.0121532
-0.0430245,0.00318835
-0.0429869,0.00713726
-0.00399274,0.00140722
0.019751,0.0110845
0.0355011,0.0172582
0.0320857,0.00375965
0.0193712,-0.0107267
0.0120046,-0.0126994
0.0176438,-0.00815506
0.00942453,-0.00418142
-0.011052,0.00534628
-0.00955111,-0.00855006
0.0155825,-0.00318133
0.0367022,0.00284382
0.0393481,0.000952177
0.0340482,-0.00720517
0.0102044,-0.0116928
0.0027105,0.0218341
-0.00805818,0.00802502
-0.0229193,-0.000127001
-0.0398975,0.00850876
-0.0356122,0.0144317
-0.0333389,-0.00343747
-0.0422988,-0.0118047
-0.0527428,-0.0152896
-0.0388426,-0.0169349
-0.0196155,-0.00749441
0.0138205,0.00631525
0.0262254,0.00111825
0.0322193,0.00132949
0.0306455,0.00421389
0.0380574,-0.0143533
0.0464311,-0.0199381
0.0356394,-0.0111872
0.00465538,0.0142245
-0.0123589,0.0177106
-0.0178498,0.0111472
-0.00913494,0.0243445
0.00410257,0.01432
0.0186661,-0.0102014
0.0301216,-0.0155338
0.0156673,-0.00884333
-0.0187752,-0.0115279
-0.0350893,-0.0045351
-0.0263997,0.0122478
-0.0311449,0.0108176
-0.0367142,-4.7e-05
-0.0225121,-0.00529081
0.0115212,-0.0124538
0.0399668,-0.0223023
0.0505442,0.00457484
0.0302804,0.0152464
0.00994489,0.0149603
-0.0125268,0.0143609
-0.0619489,-0.00300019
-0.085552,-0.00414384
-0.0529715,0.00802475
-0.014127,-0.00156773
0.00991118,0.00134756
0.038162,0.00882442
0.0430999,0.0176483
0.0552198,0.0137873
0.0614827,0.00529162
0.00580578,-0.00701302
-0.0104487,-0.00677098
0.0088779,-0.0229657
0.00845894,-0.0178808
0.0118172,0.00425656
0.0120967,0.00382065
0.00206843,-0.00678347
-0.00821202,-0.0051055
-0.00927437,0.00875084
-0.00775782,-0.00699411
0.00705467,-0.0176932
0.0334048,0.00574882
0.0238265,-0.00528701
0.00140555,-0.00349108
-0.00675133,0.0172532
-0.000396926,0.022513
-0.0133442,0.00250813
-0.0251675,0.0031829
-0.0208386,0.00273872
-0.0127058,-0.00593705
-0.0161499,-0.00403244
-0.0182468,-0.00312897
-0.0159316,0.00139604
-0.0118679,0.00832714
-0.00855513,0.0113568
-0.00676228,0.00267344
0.00306224,-0.0122665
0.0105354,-0.0178515
0.00291036,-0.00802533
0.0068467,-0.00517036
0.010486,-0.00234169
0.00939508,0.00603988
-0.00142116,-0.0026461
-0.00537689,0.00212405
-0.00535269,0.00616235
0.000572548,-0.00981227
-0.00268341,-0.0162614
-0.0214152,0.0120839
-0.0319085,0.00417043
-0.0296902,-0.0180299
-0.0130851,0.00647183
-0.00718701,0.0280878
-0.00439509,0.0198107
0.00417287,-0.00983034
0.0208506,-0.0164797
0.0440356,-0.0265149
0.0518701,-0.0220324
0.0507091,-0.00864784
0.045537,0.0149192
0.0188931,0.0266509
-0.00871088,0.0208148
-0.0223414,0.0116616
-0.0221461,-0.0046644
-0.00822423,-0.00925266
0.0112134,-0.00305741
0.0276681,-0.00680888
0.0270044,0.00659247
0.000536875,0.0154235
-0.0325805,-0.00358815
-0.0569038,0.00539418
-0.0533855,0.00576406
-0.0248615,0.00133375
0.0062998,-0.0123335
0.0474041,-0.0253507
0.0508779,-0.0208373
0.021793,0.0134827
0.00503116,0.0247149
0.0309868,0.0107137
0.0369494,-0.0124191
0.0161141,-0.0138386
-0.015798,0.0149084
-0.0733708,0.00930132
-0.119456,0.00838699
-0.0869375,0.0164971
-0.01012,-0.00224908
0.0425069,-0.0251539
0.083672,-0.0103308
0.0903203,-0.00942981
0.0375782,-0.00603025
-0.0305758,0.00230279
-0.0974304,0.0146495
-0.122313,0.0279685
-0.0701954,0.0291234
-0.0105665,-0.0125223
0.038015,-0.0466189
0.0922081,-0.0290639
0.0675171,0.00314259
0.0132317,0.0102272
-0.0165394,0.00734084
-0.0232762,0.00340915
-0.0338619,0.0172186
-0.0330508,0.0259029
-0.0093016,0.00270003
0.0310686,-0.0207863
0.0525045,-0.0190619
0.0305717,-0.0207564
0.0176109,-0.0087361
0.0144569,-0.0245492
-0.00368761,-0.00845054
-0.0188294,0.00197342
-0.0090223,0.0197656
-0.00605887,0.0184525
-0.00560311,0.00226101
-0.0139802,-0.00220979
-0.0141269,0.0044271
-0.00381135,0.0100983
8.61e-06,0.0151552
-0.00777991,0.0196108
-0.00153638,0.0171069
0.0167415,0.00392915
0.046512,-0.0175382
0.0531785,-0.00888366
0.0383369,0.00175666
0.0198028,-0.00168258
0.00385486,-0.00592443
-0.0524049,-0.00641937
-0.0947904,0.00348206
-0.124895,-0.00434922
-0.124444,-0.0115029
-0.0555347,-0.017168
0.0480067,-0.0234362
0.107111,0.00588776
0.116325,0.010535
0.108379,0.0107623
0.0705055,0.0207863
0.0208447,0.0234258
-0.0044366,0.00374928
0.00039387,-0.00938958
-0.00176231,-0.00918987
0.0167774,-0.0153503
0.021951,0.00525744
-0.00258915,-0.000909101
-0.00783035,-0.00165283
-0.0139211,0.0345635
-0.0255226,-0.00490142
-0.0296476,-0.0564375
-0.036408,-0.0488127
-0.00186997,0.00163311
-0.00907944,0.0217813
-0.0383107,0.0184456
-0.0492843,0.0226994
-0.0235024,0.021848
-0.000840415,0.0189942
-0.0119648,-0.00547608
-0.00874756,-0.021091
-0.00433593,-0.00927413
-0.00406636,-0.0016569
0.0283046,0.0063114
0.0451843,0.0210627
0.0430549,-0.00637243
0.0330678,-0.00479215
0.0204973,0.00774465
0.0191875,-0.000454792
0.0156294,-0.00851723
0.0125432,-0.000264603
0.0176008,0.00370584
0.0135376,-0.0108654
0.0106733,0.0103671
-0.00312525,0.0161748
-0.0204131,-0.000964711
-0.0250016,-0.0189727
-0.0355353,-0.00795726
-0.0533386,0.00909536
-0.0572032,0.00479552
-0.0348703,0.00148719
-0.0277011,-0.0152033
-0.015056,-0.00972373
-0.00938714,0.0191178
-0.0146036,0.00454863
-9.68e-05,-0.0270261
0.063067,7.61e-05
0.0874686,0.0131508
0.0727945,0.00472189
0.0381595,0.0039163
-0.0075944,0.00953995
-0.0451674,0.0095716
-0.0637895,-0.00809169
-0.0516983,-0.0202373
-0.036565,-0.0186173
-0.0133507,-0.00788653
-0.00787049,0.00649268
-0.00790448,0.00487136
0.00415493,0.00283161
0.0152982,0.00547953
0.0258862,0.00486145
0.0277792,-0.00197703
0.0185148,-0.0180658
0.00532321,-0.0127865
0.00455042,0.00696124
0.00644462,0.00976384
-0.00144293,0.0118407
0.00100614,0.0115812
0.00108907,-0.00667632
0.0093624,-0.0169551
0.0104374,-0.0150125
-0.00932303,0.00150311
-0.0139206,0.00779845
-0.0111884,-0.00291065
-0.0211872,-0.00667427
-0.0555947,0.0289302
-0.05015,0.0364229
-0.0180405,0.00859985
0.0153929,-0.0110209
0.043774,-0.0270729
0.0440969,-0.00292527
0.0356885,0.0101223
0.0231969,0.0170789
-0.00788697,0.0220072
-0.0138764,-0.00415751
0.0059642,-0.0194616
0.0448004,-0.0207629
0.0449992,-0.00543797
0.0344659,0.000325843
0.0279583,0.00361997
0.0166427,0.01188
-0.00794428,0.0106732
-0.0790486,-0.00532646
-0.120853,0.0037598
-0.0896923,0.00329335
-0.0236118,-0.0167229
0.0261236,-0.00833058
0.0689922,0.00203272
0.0900926,0.0043871
0.0839156,0.00761019
0.0331304,0.0186464
-0.00534595,0.0134028
-0.0196055,-0.00721927
-0.0353844,-0.0233324
-0.0405021,-0.0254496
-0.0276315,-0.00685247
-0.0129168,-0.00201938
0.00106555,0.00639666
-0.00343543,0.0109458
-0.00275591,-0.00209352
0.000229143,-0.00339384
0.00933137,0.00391117
0.0157222,-0.0124934
0.00726618,-0.00851798
0.00792258,0.00234527
0.00300397,-0.000549518
-0.00774803,0.00440568
-0.0266718,0.00948756
-0.032769,-0.00353729
-0.0180836,-0.0165934
0.00730231,-0.00968564
0.0395215,0.00918136
0.0500593,0.0118738
0.0322529,0.0179705
0.00685886,0.0202799
-0.00798652,0.0101421
-0.00854075,-0.000424995
-0.0143813,-0.00498976
-0.0132212,-0.0103376
-0.0397606,-0.0190038
-0.0748657,-0.00864878
-0.0681891,-0.0471395
-0.0353457,-0.0221759
-0.0146146,0.0498075
0.0072768,0.0549343
0.014306,0.00614747
0.0208609,-0.0146107
0.0399195,-0.0084706
0.0502768,-0.00445471
0.0343067,-0.0243582
0.0159764,-0.00246784
0.0243342,0.0153549
0.0359361,0.0169671
0.0322605,0.0239276
0.0242142,0.00385139
0.0243208,-0.0250086
0.00397269,-0.00870104
-0.0326178,-0.000232507
-0.0429511,-0.0210486
-0.0310648,-0.0130821
-0.0151155,0.0204702
-0.00324033,0.0216406
-0.00171868,0.0059055
0.00425199,-0.00553811
0.0104829,-0.00777481
0.000829873,-0.0160783
-0.0254177,-0.0140892
-0.0327605,0.00730656
-0.0124505,0.0261295
0.000834833,0.0189532
0.00517798,-0.00564372
0.0141633,-0.0124577
-0.00286881,-0.0132133
-0.0143414,-0.00926643
-0.00837329,-0.00270106
-0.000375994,-0.00506758
0.0241953,0.00146107
0.0467093,0.0056955
0.0404473,0.00770876
0.0312114,-0.00591849
0.0168121,-0.00781481
0.00427246,-0.000836883
-0.00673955,0.00238671
0.000649455,0.0186153
0.00783476,0.0240553
-0.0104658,0.0187695
-0.0314127,0.0112298
-0.0443591,-0.000879811
-0.0590725,-0.0196669
-0.0599282,-0.0344019
-0.0301285,-0.00728745
0.0100577,0.00205712
-0.0057076,0.00289723
-0.0352898,0.0102254
-0.0434203,0.0205242
-0.00339487,0.00317275
0.0403866,-0.0106036
0.0635154,-0.00670609
0.0664409,-0.00429024
0.0505079,0.000383508
0.0353129,0.00548387
0.0165428,0.00820328
0.0116739,0.0054611
0.0070134,0.00239518
0.0048099,-0.00855126
0.00713648,-0.0200123
-0.00103962,-0.0190458
-0.0206403,-0.000200059
-0.0271598,0.0240552
-0.0315423,0.00725896
-0.0317796,-0.0247736
-0.0221169,-0.00361322
-0.0145221,0.00710076
-0.00191932,-0.00136792
0.0114687,-0.00899402
0.0119969,-0.00961982
0.0144469,0.00645781
0.000492384,0.0101364
-0.00308329,-0.00853838
0.00962323,-0.00337739
0.0263548,0.017405
0.0229041,0.0013466
0.0157687,-0.00735105
0.000649084,-0.00340983
-0.0183008,0.00202207
-0.0243914,0.0057199
-0.0280937,0.00941657
-0.0295396,0.0146009
-0.0195593,0.0140746
-0.00255964,-0.00827857
0.00407128,-0.0263627
0.00100615,-0.0253475
0.00650638,-0.00663281
0.00850907,0.0100229
0.00684059,0.0190295
0.0114678,0.0190469
0.0241705,0.013033
0.027553,-0.00655131
0.0114579,-0.0126705
-0.0108737,-0.00436608
-0.0199943,0.00457912
-0.0246031,0.000331121
-0.0338164,-0.00257819
-0.0197748,0.0023328
0.00871153,0.0187138
0.0229473,0.00678863
0.0156478,-0.0228851
-0.00201519,-0.0176769
-0.00988905,-0.0160537
-0.0142877,-0.00568743
0.00373103,0.0152818
0.0132678,-0.0178036
0.0112799,-0.0138309
0.0125229,0.0262617
0.00985427,0.00718112
0.0139317,0.00488929
0.0189507,0.00992247
0.0238074,0.00638668
0.0218055,0.00616423
0.0181448,0.0070937
-0.0105408,0.0118097
-0.0335485,0.0100633
-0.0216177,-0.00209645
-0.0149723,-0.00864092
-0.0186912,-0.00110944
0.00351405,-0.00327083
0.00334103,-0.0049847
-0.00919653,-0.000334697
0.0212136,0.0110082
0.0300637,0.0116465
0.0316188,-0.00670886
0.03025,-0.0270924
0.0198934,-0.0103313
-0.0159329,-0.00252664
-0.0552684,-0.00343518
-0.0584338,0.00204653
-0.0532099,-0.00297131
-0.0571249,-0.0060592
-0.0581087,0.00375468
-0.0373191,-0.00319944
-0.00400348,-0.0125258
0.0383538,0.000466383
0.050286,0.000897936
0.0383586,0.00784569
0.0130136,0.0170801
-0.00644049,0.0111988
0.0121633,0.00204396
0.0304428,-0.000407726
0.0271876,-0.018155
0.016355,-0.0269145
0.0419871,-0.000426955
0.0351214,0.0132479
0.0124732,0.00656699
-0.0330184,0.0129578
-0.0819062,0.0175769
-0.0744433,0.00249055
-0.0328247,-0.0168176
0.00907594,-0.0186069
0.0337308,-0.0149841
0.0510551,-0.0251218
0.0618832,-0.0028469
0.0378052,0.032858
-0.00632037,0.02558
-0.0286948,0.017803
-0.0223622,-0.00150122
-0.00528961,-0.0128597
-0.00466339,-0.00718393
-0.0140468,0.0021779
-0.00152507,-0.00142218
0.0208118,-0.00774857
0.0323016,0.00445392
0.0140973,0.0133522
0.00190476,-0.00706804
0.0068682,-0.016175
0.00817026,0.00370251
0.00405679,0.010138
0.00313174,0.00449043
-0.00734538,0.0102551
-0.0218223,0.0126113
-0.027196,0.0107498
-0.0304479,0.00910041
-0.0159277,-0.0113669
0.00596569,-0.0275517
0.00693745,-0.0167516
0.00281371,0.0114984
0.000266171,0.0157274
-0.00846622,0.0187992
-0.0180159,0.00822408
0.000626676,-0.00160429
0.0142298,-0.0135531
0.00694248,-0.0210011
0.000471662,-0.0160868
0.00838178,-0.010519
0.00440591,-0.00788202
-0.00290323,0.0117318
-0.017126,-0.00105349
-0.0150099,0.0110016
-0.00511714,0.0108531
0.010379,-0.00731148
0.0245367,-0.0226815
0.0127806,-0.00966469
-0.00626488,-0.0029883
-0.0109192,0.00585164
-0.0185428,0.00667883
-0.0207154,0.0174695
0.00194379,0.00676005
0.0315406,-0.0159533
0.0342297,-0.0083277
0.0399116,0.00433856
0.0438676,0.00889838
0.0161233,0.00940312
-0.0175971,0.00522303
-0.0280969,0.00298679
-0.0299792,0.0129541
-0.0326013,-0.00285206
-0.0305473,-0.0221966
-0.0071612,-0.01792
0.0104856,0.00348123
0.00642573,0.0188487
-0.0261238,0.0116901
-0.0440062,0.00270091
-0.0161974,0.0157059
-0.00359254,0.00257437
0.00093588,-0.0101685
0.00712817,0.00490563
-0.00376452,-0.00610827
-0.0309372,-0.0170402
-0.0299817,-0.00562221
-0.00604468,-0.0061054
-0.00133356,-0.0244778
-0.00493487,-0.000924029
0.00191235,0.010177
0.0211841,0.00118109
0.0329459,-0.00454417
0.0501955,-3.28e-06
0.0692629,0.00394702
0.0608575,0.00624726
0.0227346,0.0157122
0.00853909,0.0209687
0.0138966,0.00253589
0.0102708,-0.00678627
0.00789982,0.00070138
-0.00979427,0.00630119
-0.0158042,0.00193533
0.00283996,-0.0064879
-0.000786344,0.000142148
-0.0217253,-0.00360232
-0.0257179,-0.00564456
-0.00178076,0.0023811
0.00791824,-0.00631597
0.00456135,-0.00710025
-0.00544627,-0.00923494
-0.0541745,-0.0149578
-0.0887325,0.0108965
-0.0785412,0.0180023
-0.0384439,0.00495332
0.0150715,-0.0159384
0.0639569,-0.0148336
0.0863598,0.0103301
0.0576406,0.0132226
0.0210953,0.0210062
-0.00411181,0.00700069
-0.0108652,-0.0103025
-0.00603658,0.0086978
-0.00554608,-0.0052546
0.00235297,-0.0237836
0.0117198,-0.0115346
0.0134929,0.000496747
0.0124037,0.00811
0.00839835,0.00983678
0.00440697,0.00750404
0.00119318,0.00682715
9.94e-05,-0.000737821
-0.00292226,-0.0220134
-0.00937947,-0.00872342
-0.0155014,0.00703862
-0.0279166,0.00422931
-0.0475288,0.0116659
-0.0382729,0.0178308
-0.022252,-0.0025298
-0.0146185,-0.0134079
0.0166561,-0.0168885
0.0543808,-0.0166864
0.0451699,-0.0108614
0.0118444,-0.00442029
-0.00045709,0.00438862
-0.00126483,0.00194651
-0.00249237,0.00275209
-0.00391652,-0.00668598
-0.00323028,-0.00364643
-0.00643871,-0.00036659
-0.00766512,0.0107683
0.008789,0.011393
0.0132044,0.00553912
-0.00832532,0.0255079
-0.0228091,0.0201732
-0.0148617,0.00231437
-0.00556704,-0.00569869
-0.00258903,-0.00829605
-0.00411581,-0.00323538
0.00274869,-0.0059405
0.0076755,-0.0165308
0.00699067,-0.00894004
0.00985225,-0.00326906
0.00576577,0.0165192
-0.00104299,0.0214009
-0.0024813,-0.00527907
-0.00560114,-0.0199443
-0.00968311,-0.0159954
-0.00454556,-0.0149581
-0.00554495,-0.00448109
-0.00640892,0.0237951
-0.00482483,0.015229
0.00562864,0.00924451
0.0216836,0.011195
0.0344763,-0.0158135
0.0215892,-0.0166381
-0.0281033,0.00265305
-0.057798,0.00646487
-0.0420615,-0.00397147
-0.0219553,0.00819408
-0.00818331,0.00392799
-0.00893587,-0.00687466
-0.0148514,-0.0343335
0.00921783,-0.00429184
0.0369743,0.0136382
0.0324225,0.00935553
0.0220566,0.0143801
0.00780393,0.0108313
-0.00103811,0.00357892
0.000401172,0.000490981
0.016784,-0.00813204
0.0191925,-0.0167522
0.00458955,-0.00837863
-0.00240282,-0.00197057
-0.0135414,-0.00886216
-0.0182297,0.005936
0.00140348,0.0204758
0.0222694,0.0102705
0.0299742,0.00871607
-0.012451,0.000214696
-0.0545967,-0.00139077
-0.0598412,-0.00639864
-0.0194295,0.00397092
0.0290695,0.0146981
0.056937,0.0117944
0.0425853,0.00371913
0.0297596,-0.00248344
0.017843,-0.00642364
0.00150538,-0.0192543
-0.00263409,-0.00680705
0.0135197,-0.00688518
0.0204315,-0.00833986
0.0266263,0.0124364
0.00761479,0.0217338
-0.023558,0.00508106
-0.0244079,-0.0262567
-0.00141649,-0.014388
0.0212214,0.00398237
0.0205873,-0.00821595
-0.0115739,-0.00550442
-0.0438641,0.00534675
-0.0542251,0.00564604
-0.0389945,0.0023155
-0.0143512,-0.00312988
-3.54e-05,-0.0174684
0.00320776,-0.0192802
0.00516973,0.00726903
0.0107777,0.0208831
0.00756079,0.0186631
0.00244129,0.0177616
0.00427088,0.0145004
0.00829046,0.000911595
0.00493962,-0.00893723
-0.000669383,-0.00234786
-0.00798569,-0.00447861
-0.0143083,-0.00810581
-0.0179407,-0.00604612
-0.0138007,-0.00205697
0.000731967,0.00281409
0.00291143,-0.00609494
0.00845447,-0.0184362
0.021169,-0.0192165
0.0153171,-0.0168059
-0.000187692,0.00738035
-0.00622403,0.0197106
0.000306814,0.0239524
0.00219227,0.0130682
0.00139086,0.00965097
-3.1e-05,-0.0128811
-0.000241287,-0.00669678
0.00880838,0.00594139
0.00955053,-0.000383173
0.00663562,0.00162208
0.00694067,0.0109973
0.0036993,0.0182238
-0.0190274,0.00869512
-0.0225017,-0.011973
-0.00570566,-0.0184418
-0.00435469,-0.0207519
-0.015248,-0.0186853
-0.00930828,-0.00562441
0.000464412,-0.011461
0.00205172,0.00643903
0.00535346,0.00494569
0.0171509,0.0126924
0.034302,0.00102909
0.040935,-0.00431246
0.0319237,0.00566763
0.011015,0.00410458
-0.0236728,0.00513561
-0.0473795,0.0152691
-0.0423991,0.0171435
-0.0142005,-0.000391023
0.00872169,-0.0143904
0.0266517,-0.00732787
0.00806895,-0.00989487
-0.0232462,-0.00439747
-0.0245167,-0.00113324
-0.0257737,0.00783228
-0.0215243,0.0142713
-0.0222692,0.0132567
-0.017028,-0.000820363
-0.0119719,-0.0184528
-0.00458146,-0.011673
0.0246063,-0.00802696
0.0369375,-0.00692092
0.0147478,0.000154266
0.0120649,0.0119614
0.0289204,0.0133996
0.0277898,0.0136804
0.0363373,-0.00136499
0.0319267,-0.0112986
0.0136978,0.00289749
0.0135356,0.0188229
0.0226459,0.0110473
0.0178775,0.00855818
-0.00355336,0.00686169
-0.018822,-0.00123174
-0.00798275,-0.0309594
0.0113561,-0.0288552
0.0106625,-0.0321885
-0.00275704,-0.0144695
-0.0261955,0.0139685
-0.0489396,0.0144994
-0.0431626,0.0130994
-0.025207,0.00781208
-0.00932936,0.00245463
-0.0020301,-0.0083693
-0.0288805,-0.00434934
-0.0477413,0.0157255
-0.0188541,0.0104482
0.00276319,-0.000394257
-0.00258338,0.00889932
0.00686844,0.0141049
0.0213701,0.0230548
0.0311961,0.0092116
0.0288606,-0.0254053
0.0199233,-0.0267386
0.0131538,-0.0254743
0.0118031,-0.00996461
0.015084,0.0194199
0.0129785,0.0139257
0.00179945,0.00558042
-0.00757369,0.00398912
0.00230038,-0.0235231
0.00513667,-0.0370559
-0.00403794,-0.00816632
-0.0415633,-0.00105864
-0.0721339,0.0268709
-0.0538686,0.0317389
-0.0189313,0.0148015
0.01741,-0.00109003
0.0462595,-0.0129231
0.0506311,-0.00418332
0.0363237,-0.00215449
0.0182115,-0.0009042
0.0118162,-0.00482078
0.0162106,0.00631722
0.0189364,0.00494785
0.02198,0.0032509
0.0228449,-0.00537776
0.00477066,-0.0114561
-0.0127437,0.00809888
-0.0258654,0.00964965
-0.0234996,0.00321357
-0.0215736,0.0111152
-0.0232564,0.0229957
-0.00544229,-0.0406317
-0.0151578,-0.0331163
-0.0218588,-0.0184305
-0.0234343,-0.0191772
-0.0386157,-0.0108896
-0.0292729,0.00140866
0.00428054,-0.0228559
0.030546,0.0359857
0.018152,0.050331
0.0121849,0.0170144
0.024533,-0.000795918
0.0253345,0.0100165
0.0054542,0.0151707
-0.00442018,0.00688326
0.00540707,0.00158753
0.00548296,-0.00132178
0.00781454,-0.0160673
0.014969,-0.0302216
0.0133638,-0.0250653
0.00165589,-0.0175566
-0.0084734,-0.0216052
-0.0156862,0.00623316
-0.0163233,0.0281458
-0.0236106,0.0260434
-0.0267382,0.0235846
-0.0153125,0.0130342
-0.00451492,-0.00135111
-0.0127241,-0.00332831
-0.00306135,0.00945251
0.0239597,0.00970517
0.02449,-0.00321277
0.017825,-0.00592993
0.0235737,0.00100861
0.0109189,-0.0156884
0.0105669,-0.0217867
0.0137143,-0.013663
0.00926224,-0.00964775
0.00476932,-0.00255294
-0.0120479,0.0149399
-0.0148122,0.0204884
-0.0213264,0.019865
-0.0362713,0.0187828
-0.02374,0.00710169
0.00966776,-0.00425491
0.0252038,-0.01774
0.0274828,0.0014972
0.00805146,0.00410489
0.00410409,-0.0121456
0.0144827,-0.00697354
0.00088372,-0.0204686
0.00399253,-0.0317597
0.0134379,-0.0112701
0.00767873,-0.00895117
-0.00925943,-0.0122567
-0.0279332,0.00321766
-0.0483247,0.0192992
-0.0544933,0.0220122
-0.0319429,0.0202762
0.0140649,0.0166285
0.0542012,0.00257861
0.0470833,-0.00508479
0.0102598,0.00216312
-0.0355526,0.0074307
-0.0449781,0.00429954
-0.00835346,0.0083151
0.0324063,0.0102361
0.0476245,-0.000712436
0.0378338,-0.0136294
0.0243506,-0.0190266
0.00742754,-0.0167971
-0.00522532,-0.0150135
-0.0212144,-0.0111131
-0.0267184,-0.00198452
-0.0265369,-0.00607123
-0.0287779,0.00788107
-0.0337684,0.000265362
-0.029785,-0.00200986
-0.0138022,0.0214118
0.00587821,0.0215163
0.0173497,0.0107565
0.0309709,0.00347396
0.0414236,0.00426749
0.0344332,0.00609983
0.0322345,-0.000498416
0.0284825,-0.013213
0.0131064,-0.0133863
-0.00562042,-0.00933428
-0.0148779,-0.00406029
-0.0214513,0.00405539
-0.0252565,0.00115886
-0.0188065,-0.010211
-0.0120806,-0.00426775
-0.00499533,-0.0116742
0.00309787,-0.0115173
-0.000547332,0.00253528
0.00384284,0.0171208
0.0156926,0.00105481
0.0135149,0.0153601
-0.00984186,0.0307647
-0.0177328,0.0172982
0.00378131,-0.0212229
0.0153912,-0.0232972
0.00402932,-0.0125989
-0.0446848,-0.00937107
-0.0556523,0.00331855
-0.0231797,0.0197464
0.0124838,0.021604
0.0255465,0.019743
0.0278956,0.016691
0.0320598,0.00189894
0.0221263,-0.0172728
-0.00978728,-0.0247675
-0.0218006,-0.0111401
-0.0112453,-0.00193
-0.00732848,-0.00904396
-0.00816425,0.00667244
0.016748,-0.000126756
0.0382651,-0.0211906
0.0231275,-0.0186575
-0.00283814,-0.00307184
-0.00519917,-0.00019126
0.00485309,0.014026
0.00552249,0.0313005
-0.00458744,0.00941919
-0.0203063,-0.00669487
-0.0113128,-0.013423
0.00589433,-0.0186781
-0.0165609,-0.0104329
-0.0506027,-0.000578999
-0.0440819,0.0102747
-0.00724377,0.0139617
0.0190745,0.00267162
0.0338151,0.00965243
0.045475,0.00428698
0.0386319,-0.00732941
0.013685,-0.00511179
-0.00109846,-0.000509144
0.000410019,-0.000365578
0.0100506,0.00648189
0.0120105,0.0123099
0.0069068,0.0112766
0.00193782,0.00938028
0.00126681,0.00181194
-0.00639923,-0.00379728
-0.0311125,-0.00357097
-0.0454026,0.00876041
-0.0527717,0.00599517
-0.0682194,-0.0221381
-0.0375813,-0.020798
0.0369004,0.00587493
0.0679294,-0.00432821
0.0459111,-0.0142873
0.0131999,-0.016761
0.00249496,-0.013933
0.00324862,0.00810087
0.000221598,0.026679
-0.00699912,0.0132843
0.00149559,-0.00056403
0.00567708,0.0173923
-0.00465647,-0.00263711
-0.00629797,-0.0191161
-0.00678415,0.00132691
-0.000176124,0.00651439
0.00757224,0.00833761
-0.00343746,0.00797813
-0.0123712,0.00336041
-0.00245443,-0.0106569
0.02574,-0.0125588
0.0324058,-0.00814491
0.0234983,-0.00539141
0.0123714,-0.00172907
-0.00342539,0.00694134
-0.012187,0.0145088
-0.0224193,0.0149151
-0.0222071,0.0107778
-0.012401,0.00172915
-0.00588239,-0.0115432
0.00566187,-0.013379
0.00698329,-0.0089274
0.00562306,-0.0123903
0.00665895,-0.00224496
0.0152685,0.0168004
0.0263394,0.0117784
0.0169081,-0.00918165
0.00202435,-0.0220285
-0.0108581,-0.017005
-0.025826,-0.00274123
-0.0335451,0.000928742
-0.033206,0.00530983
-0.0183829,0.0109574
-0.0128231,0.00269644
-0.0114905,-0.00275466
-0.00870888,-0.00789629
-0.00912348,-0.00535344
0.00878846,-0.0120093
0.0282676,-0.00492848
0.0350685,0.0154143
0.0237988,0.0106851
0.00518963,0.00865224
-0.00131697,0.00355966
-0.00241324,-0.0099096
-0.00104388,-0.0118566
-0.013632,0.0274404
-0.0273131,0.0370096
-0.0245386,-0.00770986
-0.00717624,-0.0119528
0.0219183,0.00188633
0.0328484,0.0508918
0.018376,0.0894476
0.0079357,0.0172691
-0.0194362,-0.0678596
-0.0625342,-0.0668976
-0.0502641,-0.0111963
-0.0193338,-0.0136909
0.00562817,-0.0133725
0.020248,-0.00494761
0.0168953,-0.00263853
0.0303987,-0.015254
0.0393269,-0.0218756
0.0278479,-0.0187855
0.0128943,-0.00446569
0.00298843,0.0137925
-0.00287992,0.0279271
-0.00877689,0.0196216
-0.00189712,0.00459496
0.0139956,0.0075432
0.034282,-0.00825259
0.0334919,-0.0161261
0.0252435,0.00165292
0.0342197,0.00440127
0.0235868,-0.0104188
0.00179613,-0.0021987
-0.0230561,0.00788999
-0.0275937,0.0139138
-0.0154654,0.0210336
-0.0513921,0.00733804
-0.10779,-0.012456
-0.105695,-0.0192982
-0.0686334,-0.0104478
-0.019387,0.0026225
0.0304261,0.00178743
0.0692211,3.98e-06
0.0823311,-0.000463792
0.0610283,-0.0022625
0.0305196,0.00664225
-0.00859585,0.0126063
-0.0252894,0.00339872
-0.00731628,0.00696194
0.0098464,0.0228111
0.0106599,0.0149128
-0.006343,0.00223059
-0.00174513,-0.018025
0.0122122,-0.0243172
0.0253496,-0.0213685
0.0398685,-0.0141033
0.0494289,0.0127864
0.0316882,0.0157657
0.013196,0.0107676
-0.00831989,0.0102744
-0.0348473,-0.00263945
-0.0378714,-0.00464885
-0.029953,0.000889958
-0.026052,-0.00314213
-0.0335064,0.00296759
-0.0400237,0.0133007
-0.0257259,-0.016342
-0.00403458,0.00564323
0.00950919,0.0020489
0.0109631,-0.0242867
0.000645457,-0.0281546
-0.0131216,-0.00861883
-0.0207647,0.00146316
-0.0150589,-0.0113807
0.0100689,0.00178915
0.0172257,-0.0152247
0.0170846,0.0119868
0.0154092,0.0144906
0.0015229,0.00127579
-0.00647337,0.0162613
-0.00363038,0.0186789
0.0052781,0.0129285
0.0125542,-0.00346534
0.0162538,0.00579228
0.012626,0.00415568
0.013315,-0.0190756
0.0158299,-0.0226639
0.0223391,0.00821671
0.0251883,0.0166901
0.0129811,0.00555186
-0.0327434,0.0168675
-0.0775976,0.0132491
-0.0600078,0.00518266
-0.0272786,-0.0082086
0.00379279,-0.00367533
0.0255168,-0.00855292
0.0288708,-0.00714558
0.0238639,-0.00493222
0.0104886,0.0033662
-0.00198754,0.00767095
-0.0183831,0.00273737
-0.00817882,-0.00940192
0.0293368,-0.0147725
0.0649435,-0.00410235
0.0687226,-0.0047523
0.031678,-0.00791655
0.00682984,7.34e-05
-0.00908016,0.0100466
-0.0322705,-0.00587725
-0.0432461,-0.0149443
-0.00361587,-0.019158
0.0219775,-0.0282068
-0.00373017,0.0134786
-0.0520842,0.0346103
-0.0880367,0.00424292
-0.112927,0.0180675
-0.100311,0.0293274
-0.0569117,0.0105381
0.0147736,-0.0145964
0.068543,-0.0161515
0.0896049,-0.00560897
0.0862041,-0.000945646
0.0629126,0.00468114
0.026806,0.00307743
0.00925726,0.000997543
0.0105306,0.00337895
0.0109359,-0.00348767
0.0171033,-0.00387467
0.0203466,-0.00552871
0.010778,-0.000671018
0.000703444,0.00122085
0.00119233,-0.00715091
0.0014452,0.00571862
-0.0140331,0.0207059
-0.0232286,0.00860432
-0.0202177,-0.00521981
-0.018571,-0.00784723
-0.0195468,-0.00798811
-0.0129292,0.00164491
-0.0198191,0.00637723
-0.0372924,-0.0094347
-0.0338562,0.00147969
-0.0176354,0.00248537
-0.00750397,-0.00770498
0.00558864,-0.0188244
0.00263608,-0.0231936
0.0174144,0.00130665
0.040496,-0.0108305
0.0259374,-0.00421435
0.0153379,0.0315643
0.00325517,0.0117957
0.000431354,-0.00131961
0.0096618,0.00113951
0.00830381,0.00368498
-0.000664575,0.00184782
0.000857937,0.0023864
-0.00893835,0.0127039
-0.00924373,0.0141486
-0.00457301,0.00668694
-0.00276038,-0.000298694
0.00164845,-0.0104729
0.00161719,-0.0182062
-0.00465284,-0.0200972
0.0131352,-0.00619547
0.0343778,0.0201456
0.037775,0.00515454
0.0350615,-0.00421987
0.0507006,0.00420411
0.0502487,0.0125575
0.0189738,0.00400357
-0.0121103,-0.00353965
-0.044709,-0.000718393
-0.0624251,-0.00472809
-0.0658341,-0.00349624
-0.0430951,0.0128616
-0.0289803,-0.00089521
-0.0253464,-0.0244215
-0.00800081,-0.00257589
0.00638732,-0.00444533
-0.0167883,-0.00103903
-0.0508664,0.000306463
-0.0425445,0.000769272
-0.0293894,0.0108214
-0.0206768,0.0125637
0.00171385,0.00638062
0.0279418,-0.00596364
0.0361143,-0.00523191
0.0312814,0.00258231
0.0187745,0.00448582
0.00791624,0.00858138
0.00274579,0.0124804
0.00110048,0.00769103
0.000856601,0.00128076
0.00272156,-0.00840503
0.0118079,-0.0176387
0.0143691,-0.012977
0.00559797,-0.00136407
0.00668395,0.00311752
0.0428433,0.00383996
0.0858747,-0.00158693
0.0870536,0.00483881
0.0593375,-0.00958028
0.0443555,-0.014714
0.0303847,-0.0103217
0.0336348,-0.00806948
0.0254296,0.00685276
0.00567377,0.0117598
-0.041942,-0.00689904
-0.0916177,0.00758698
-0.107364,0.0116469
-0.0812742,0.00279795
-0.0605782,-0.00667118
-0.0488246,0.00116874
-0.0474534,0.00641094
-0.0381322,-0.00167022
-0.0290924,-0.000160931
-0.0267759,0.00691737
-0.0207015,0.00640731
-0.0113524,-0.00414062
-0.00323177,-0.0111474
-0.00354036,-0.00886354
-7.28e-05,-0.00627645
0.0116263,0.00140951
0.0396044,0.00789792
0.0566839,0.00893208
0.0623995,0.00758964
0.0598286,0.00122847
0.050942,-0.00960256
0.0334477,-0.00546749
0.0132761,0.00419378
-0.0100704,0.00245314
-0.0319979,-0.000594901
-0.0431532,0.00529773
-0.0434161,0.0117869
-0.0201915,0.00190848
0.00631993,-0.0129984
0.00836771,-0.0100189
0.000438051,-0.00933144
0.0112777,-0.00248983
0.0428192,0.00280471
0.103548,0.00689405
0.112155,0.00647665
0.0604604,0.00941968
-0.00379189,0.00847938
-0.0471467,0.00278508
-0.0644291,-0.00399728
-0.0587315,-0.00326149
-0.0480411,-0.000648401
-0.0340936,0.00355909
-0.0250683,0.00984295
-0.0191483,0.00874646
-0.0163548,-0.000268508
-0.0173676,-0.00724181
-0.0199416,-0.0139007
-0.0265485,-0.0226968
-0.0333268,-0.0264773
-0.0240174,-0.0172398
-0.00331099,0.0108841
0.0183383,0.0082094
0.0346586,0.0188504
0.0412949,0.00519494
0.0427058,-0.00502546
0.0329311,0.00164329
0.020212,0.00665403
0.0188105,0.0041369
0.0317774,0.00556022
0.0298218,0.010231
0.00242919,0.00670271
-0.0160273,-0.00571621
-0.0298938,-0.0134594
-0.043637,-0.0118672
-0.0506952,-0.0117773
-0.0482561,-0.00693287
-0.0391178,0.00365245
-0.0221228,0.00358609
-0.00558841,-0.0034864
0.00968229,-0.00602441
0.0280842,-0.0154359
0.0503857,-0.018879
0.06743,-0.00742601
0.0730614,0.00353361
0.0617784,0.0101704
0.0310954,0.0152759
