Comp Ch 3,Comp Ch 4
0.0070731,-0.0071059
-0.00770809,-0.0311607
-0.0267306,-0.0302243
-0.0228991,-0.0199482
-0.0104908,-0.00968888
-0.0144048,0.0019229
-0.0291649,0.00920699
-0.0267142,0.00724914
-0.0129995,0.00972754
-0.00255525,-0.00754934
0.0093635,-0.0171912
0.00750314,0.00111486
-0.00291479,0.0172375
0.00481313,0.0168366
0.0121562,0.0211472
0.0209508,0.0232107
0.0310857,0.00891491
0.0193018,-0.0186982
0.00542681,-0.0261386
-0.00595185,-0.0254364
-0.0149948,-0.0254278
-0.0149933,-0.00868787
-0.0209593,-0.00196992
-0.0363288,-0.00711254
-0.0225398,0.0117726
-0.0106077,0.0252562
-0.0916916,-0.012834
-0.129671,-0.0169298
-0.0826485,0.0143122
0.00740904,0.0236281
0.111251,0.0217035
0.161121,0.0255415
0.137943,0.0230581
0.0746778,0.0110223
0.0239436,-0.0128313
-0.00256494,-0.0133862
-0.00763089,-0.0133336
-0.0160775,-0.0191375
-0.0190636,0.000124345
-0.0125912,0.0121754
-0.00367946,0.0039605
0.00469916,0.00589717
0.0110931,0.00031637
0.00966834,-0.0161138
0.00914976,-0.014095
0.00658268,0.00493685
0.000182445,0.00815093
-0.0147164,0.0103239
-0.0213183,0.014223
-0.0160485,0.0125278
-0.00843399,-0.00949755
-0.0121134,-0.0374246
-0.0217506,-0.0321273
-0.0219319,-0.0323964
-0.0117884,-0.0148092
-0.0242413,0.00518332
-0.026765,0.0135268
-0.00504861,0.0113719
0.0176717,0.00275883
0.0197452,-0.0130606
0.0121027,-0.016216
0.0173554,-0.00220496
0.0316401,0.00566653
0.0216143,-0.00340784
0.0121008,0.00117914
0.0117145,0.0125289
0.00929066,0.00891482
-0.00150654,-0.000332482
-0.0497679,0.00441438
-0.0872863,0.0127166
-0.0776741,0.00296321
-0.0401325,0.00117641
0.0296979,0.0272862
0.0817925,0.040889
0.0817359,0.0283835
0.0570911,0.0128477
0.0317291,0.00285084
0.00383378,-0.00250168
-0.0216677,0.0053931
-0.0606833,0.00293697
-0.0611272,0.00111934
-0.0387702,0.0117661
-0.0151242,0.0159177
0.00575593,0.000845047
0.0240085,-0.021831
0.0134808,-0.025645
-0.0118236,-0.0180571
-0.0285235,-0.0133812
-0.0311218,-0.00907594
-0.0200255,0.00463294
0.00176305,0.00799632
0.0267575,0.00409569
0.0327385,-0.0128094
0.0212207,-0.0283343
0.00986932,-0.0207069
-0.00124468,-0.00201739
0.0043719,0.0033921
0.0147852,0.0126789
0.0223668,0.0196551
0.0186365,-0.0425856
2.83e-05,-0.0556438
-0.0044128,-0.0363616
0.0034862,-0.0236425
0.00727524,-0.00424684
0.000230409,0.0147957
-0.0203951,0.0274636
-0.033342,0.043104
-0.0221601,0.0491409
-0.0118267,0.0258684
0.0108559,0.00581664
0.0319725,0.012934
0.0404979,0.0171836
0.0209895,0.00446684
0.000934372,0.00800132
0.00496046,0.0048914
0.00481184,-0.0213368
0.0012557,-0.0402956
0.00842814,-0.0364004
0.00873491,-0.0234639
-0.0001612,-0.0155408
-0.0119454,0.000537053
-0.0102768,0.0220995
-0.0128895,0.0320259
-0.0169152,0.0312829
-0.00751749,0.0250988
0.00263654,0.00222892
-0.000434278,-0.0085597
-0.00529408,0.000920655
-0.0100247,0.00170753
-0.0130122,-0.00276975
-0.0169627,-0.00533768
-0.0183109,-0.0160508
-0.0102766,-0.0354299
0.0015883,-0.0418745
0.0151249,-0.0215017
0.0296196,-0.029803
0.0196822,-0.0237176
0.00535699,0.018151
-0.000470397,0.0286311
0.0117499,0.034181
-0.0059478,0.0408304
-0.00263531,0.0185003
0.0170828,-0.00456255
0.0169005,-0.000149582
0.00481355,0.00993299
-0.00122952,0.0061861
-0.00380769,-0.000665368
-0.00911485,0.00308435
-0.00845617,1.56e-05
0.00873382,-0.022204
0.0197623,-0.0312884
0.0190446,-0.00989517
0.00388597,-0.000909828
-0.016679,0.00866342
-0.0403707,0.0218842
-0.065586,0.0302817
-0.0407725,0.0308153
-0.000237954,0.024778
0.0159446,0.000482357
0.0238186,-0.0159238
-0.00182164,-0.00447287
-0.037605,0.0040723
-0.0500513,-0.0113864
-0.025067,-0.0136251
0.0131053,0.000286331
0.0253183,-0.0203674
0.0152442,-0.0362373
0.00983901,-0.0363976
0.0307536,-0.00626218
0.0619028,0.0102271
0.0646077,0.0167471
0.0398413,0.0264902
0.0136313,0.0255383
0.00564602,0.0216254
0.010861,0.0153287
-0.011773,-0.00585443
-0.0443263,-0.0120324
-0.0252001,0.000448369
-0.00074132,-0.00541954
-0.00254898,-0.015113
-0.0331431,-0.0033157
-0.0660858,-0.013216
-0.045619,-0.0237601
-0.00621408,-0.0243676
0.0128493,-0.0111045
0.00349507,-0.00427464
0.00358707,0.00272761
0.0129686,0.0192604
0.0263355,0.0364661
0.0360153,0.0296097
0.0289807,0.0180988
0.00468753,-0.000656298
-0.00418487,-0.0197221
-0.00173281,-0.0105759
-0.00584597,5.14e-06
-0.00237412,-0.0016587
-0.000792661,-0.00640502
-0.00924612,0.00890629
-0.0145372,0.0057759
-0.00444156,-0.01467
0.00274392,-0.0267826
0.00874934,-0.0131111
0.0151278,-0.00163721
0.015984,0.0111937
0.0145211,0.0184778
0.0165221,0.0236501
0.01629,0.0223018
0.00455331,0.0202251
-0.0126126,-0.00365278
-0.02876,-0.0256229
-0.0429226,-0.0131496
-0.0426441,0.00696284
-0.0289541,0.0122923
-2.52e-05,0.00807285
0.00419206,0.0159575
-0.00117631,0.00339345
0.0058976,-0.0347708
0.0259335,-0.029563
0.0242215,-0.016379
0.0143394,-0.00863754
0.013011,0.00448265
0.00116217,0.0110102
-0.006844,0.0179324
0.0152104,0.0168662
0.0238952,0.0044674
0.0139301,-0.0181113
-0.000298825,-0.0213432
-0.0169078,-0.00389535
-0.0337662,0.00405551
-0.0461404,-0.000838305
-0.0345424,0.00359432
0.00624887,0.0128872
0.0690026,0.00587445
0.0961565,-0.012663
0.0776553,-0.0176605
0.0422955,-0.0116056
0.00190345,-0.00666515
-0.0334674,0.010704
-0.065765,0.0269974
-0.109998,0.0290394
-0.117109,0.0287159
-0.0888616,0.00966692
-0.0275797,-0.022473
0.0186188,-0.0305847
0.0468409,-0.01344
0.0503095,-0.000568797
0.0366988,0.0152746
0.0169843,0.0117806
0.00556821,0.01234
0.00497376,0.00168021
0.00530286,-0.0242501
0.000221629,-0.0195575
-0.00696152,-0.00882159
-0.00944803,-0.00498486
-0.00793766,0.0135963
0.00189696,0.0233434
0.0118524,0.0113853
0.0145314,0.00405808
0.0173561,-0.01262
0.02117,-0.0218802
0.02078,-0.00458221
0.0193893,0.00911981
0.0128348,0.00754241
0.00229354,0.00978474
-0.0087757,0.013833
-0.0164981,0.00576848
-0.0166864,-0.0113112
-0.0113218,-0.0229986
-0.00557409,-0.0188027
0.00358649,-0.00902117
0.00566635,0.0113057
0.0060729,0.0213689
0.00612173,0.0157673
0.00440274,0.00349329
0.00369572,-0.0151109
-0.000333472,-0.0367512
0.00571126,-0.0308649
0.00976403,0.00754104
0.00689494,0.00498263
0.00928876,0.0133802
0.00451111,0.0206746
-0.00421423,0.0192872
-0.0171062,0.00420111
-0.0156314,-0.0131125
-0.000932646,-0.00883683
-0.00252022,-0.0155455
-0.026803,-0.0179996
-0.0914687,0.002486
-0.131143,0.00989083
-0.088238,0.00902024
-0.010671,0.010755
0.0542352,0.00965886
0.120797,0.0170263
0.157182,0.0100796
0.117076,0.00172444
0.0520837,-0.00392662
0.0131451,0.00789322
-0.00560714,0.0131679
-0.0220596,0.00940182
-0.0296457,-0.0131579
-0.0352837,-0.0316355
-0.0306316,-0.0203908
-0.0296785,-0.0154449
-0.0207246,-0.00731904
-0.0030659,0.00592968
0.00332867,0.0144648
-0.000238572,0.0138416
-0.0129383,0.00986074
-0.0169992,-0.00380908
-0.00481295,-0.0189909
0.00968048,-0.00724049
0.0172158,0.0110132
0.0129376,0.0123552
0.00258141,0.0158398
-0.00662921,0.0138702
-0.0130941,0.0101183
-0.0156492,-0.00907239
-0.0116216,-0.0233619
-0.0124745,-0.0146672
-0.014323,-0.0130288
-0.0088481,-0.00598456
0.00246103,0.00584196
0.0108279,0.00562586
-2.44e-05,0.000126552
-0.0126525,-0.00179063
-0.00933345,-0.0170975
0.0093036,-0.01926
0.0380019,0.00041638
0.0476884,0.0140355
0.0518198,0.0151244
0.0248708,0.0208443
-0.0309326,0.023081
-0.052626,0.00748819
-0.0187929,-0.0149038
-0.00952889,-0.0194879
-0.0273894,-0.01377
-0.0367534,-0.00513149
-0.0182984,0.00769851
-0.00013489,0.0219949
0.0166544,0.0207555
0.0319442,0.0147385
0.0325627,0.0114298
0.0216792,-0.00614576
0.00242136,-0.0261477
-0.0045881,-0.00621451
-0.000940167,0.00585978
-0.00552406,0.00503209
-0.000501685,0.00510155
0.0167774,0.0096787
0.013593,0.000783023
-0.00184388,-0.0254397
-0.0179973,-0.0270652
-0.0339401,-0.00852367
-0.039983,-0.00717662
-0.0287369,-0.00147595
-0.00977458,0.012184
0.0184961,0.0116976
0.0330697,0.0042441
0.0363422,-0.0113628
0.0385012,-0.0246525
0.0184005,-0.0188465
-0.00947164,-0.00301241
-0.0225637,0.00131663
-0.0242899,-0.00228691
0.0105117,0.000146235
0.0691427,0.0125611
0.0998346,-0.019348
0.0874813,-0.0337768
0.0583386,-0.00698936
0.00561209,-0.00911325
-0.0617497,-0.00959159
-0.0839103,0.00414586
-0.133749,0.0147887
-0.195006,0.0221295
-0.142747,0.0268868
-0.0271947,0.0234712
0.074146,0.0080312
0.112515,0.00721537
0.0929753,0.0251806
0.0511409,0.0302383
0.0471312,0.037944
0.0341271,0.0367946
-0.00880655,0.016725
-0.0447516,-0.0104468
-0.0775744,-0.0170417
-0.0668844,-0.0100473
-0.0116886,-0.00528504
0.0107464,-0.00325868
0.00655489,0.0088307
0.00809031,0.0133713
0.000583999,0.00748155
-0.0128203,-0.00766315
-0.0206426,-0.0288101
-0.0231337,-0.038012
-0.0203647,-0.00629234
-0.00229126,0.0118121
0.0169859,0.00802345
0.0259194,0.00955001
0.0352883,0.00231715
0.0332034,-0.00912776
0.0433523,-0.00376379
0.0433637,-0.0248306
0.0125839,-0.0224645
0.000931136,-0.00690437
-0.00412696,-0.00429971
-0.0039796,-0.0128262
0.0307719,-0.00452406
0.0547074,0.0113499
0.0503923,-0.00575101
0.047201,-0.0291965
0.0146077,-0.00721461
-0.0197609,0.0168256
-0.0337679,0.0106533
-0.0527999,0.00478135
-0.0666931,0.0157828
-0.077831,0.0148393
-0.0742243,-0.00726694
-0.0386454,-0.018584
-0.0105246,-0.00861794
-0.00714763,-0.0070382
0.00737992,0.00360511
0.0536146,0.0203111
0.0719972,0.00429129
0.0804275,0.00207269
0.0684516,0.00941359
0.020452,-0.00699424
-0.0419656,-0.0263197
-0.0655601,-0.0205854
-0.0652734,-0.0102633
-0.0518003,-0.00328015
-0.0324801,0.00623527
-0.0196514,0.0178935
0.00709058,0.0147303
0.0541465,-0.00723739
0.0817628,-0.0156297
0.0722701,-0.0158998
0.0467021,0.00131301
0.0364053,0.0161858
0.0368052,0.0173145
0.0340068,0.0176812
-0.00163723,0.0165903
-0.0311682,0.00269414
-0.0513506,-0.0166258
-0.0695244,-0.0183149
-0.0680766,-0.0030393
-0.0764904,0.00252943
-0.069642,0.00603876
-0.0474587,0.0137269
-0.0310701,0.0162313
-0.00886566,0.00258654
0.0222628,-0.00933455
0.0449065,-0.00104446
0.0477038,-0.00260549
0.0457283,0.00229575
0.0331827,0.0181458
0.00932134,0.0270697
-0.0011952,0.0174316
-0.0143158,0.00819166
-0.0283928,-0.0108073
0.00548458,-0.0275952
0.04992,-0.0177341
0.0595689,-0.00607883
0.0437026,-0.0160651
0.0234015,-0.00664777
-0.0025726,0.00562207
-0.0302475,0.011579
-0.079048,-0.00906939
-0.0657563,-0.0202455
-0.0381959,-0.0177505
0.0155671,-0.017441
0.0812761,0.017573
0.096216,0.0469043
0.0595373,0.032323
0.0145326,0.0172127
-0.0199257,-0.000361538
-0.0444929,-0.0289705
-0.0588388,-0.0278799
-0.0739508,-0.0205829
-0.0648266,-0.0325964
-0.0320228,-0.0245647
-0.0153274,0.0132855
-0.0144109,0.0258187
-0.0132759,0.013415
-0.0106566,-0.00487021
-0.00158399,-0.00254783
0.00250231,0.00849835
0.00076382,0.0139593
-0.00351083,0.00122599
-0.000744255,0.0142095
0.00523543,0.0280171
0.0245746,0.0247141
0.0475664,-0.00155816
0.0576318,-0.0370775
0.066383,-0.0247288
0.112406,-0.00500982
0.174823,0.00289533
0.146348,0.00935827
0.0724775,0.0127235
-0.0037964,0.0112075
-0.0828615,-0.00844024
-0.167284,-0.015285
-0.259919,0.000269147
-0.223639,0.0111882
-0.125146,0.0110449
-0.0239671,0.0107849
0.0460716,0.00885061
0.110055,0.000689296
0.122974,0.0103208
0.0727146,-0.0128975
0.0235788,-0.0295838
-0.0128688,-0.0175797
-0.00262752,-0.00880842
0.0021192,-0.0127592
-0.0242867,-0.0107386
-0.044449,0.0123074
-0.0446844,0.0124336
-0.027399,-0.00610162
-0.00487598,-0.00432605
0.0186515,0.00521162
0.0348589,-0.0067876
0.0424528,-0.00175558
0.0228024,0.0183201
0.00179309,0.0210153
-0.0145532,0.00133341
-0.00787089,0.00810998
0.00667199,-0.0133979
0.00509195,-0.0246058
-0.00295373,-0.0108876
-0.00292294,-0.00256777
0.00474578,-0.00579428
0.010126,-0.000828309
0.0158034,0.00989701
0.0157164,0.0104886
0.0182925,-0.00443935
0.0192964,-0.010124
0.0313332,0.0123522
0.0323449,0.0106663
0.012871,0.0165765
-0.00593617,0.0283582
-0.026203,0.0123278
-0.035507,0.0101517
-0.0336714,0.00165398
-0.0296833,-0.0201655
-0.0287964,-0.0275408
-0.0224888,-0.0159532
-0.0133203,-0.0117033
-0.00322255,-0.00963852
0.0067342,0.00213011
0.0117523,0.0111498
0.00974305,0.00487931
0.00958549,-0.004184
0.00615646,-0.00129826
0.00375975,0.00366775
0.0165441,0.00832567
0.0656018,0.0162332
0.1064,0.0183607
0.104567,0.0130361
0.0832045,0.00712081
0.0267411,-0.00557869
-0.0389972,-0.0205449
-0.0904896,-0.0202115
-0.137788,-0.00617581
-0.132566,-0.00540281
-0.0902568,-0.00316976
-0.0462926,0.00696691
-0.0302498,0.00419836
-0.0151574,-0.0156288
0.000438128,-0.0154552
0.0151984,-0.0181088
0.0185215,0.00283594
0.0113716,0.0205319
0.00601249,0.0279486
0.00091656,0.0292844
-0.00128219,0.0132875
0.00204719,0.00377186
0.00377866,-0.0157452
0.00641308,-0.0272227
0.0086472,-0.0160435
0.0200067,-0.00828091
0.0330365,-0.00854049
0.0391466,-0.00252065
0.038413,0.00877769
0.0285392,0.00897963
0.0317001,-0.00458348
0.0695566,-0.00634689
0.0987952,0.0012193
0.0832625,0.0054942
0.0256878,0.0111703
-0.0388722,0.0212868
-0.0821189,0.0187877
-0.111463,0.00859927
-0.119486,-0.00581653
-0.101356,-0.029306
-0.0582725,-0.0367447
-0.0234476,-0.0313696
-0.00822359,-0.0145321
0.0107451,0.00845184
0.0287959,0.0178623
0.0314239,0.0191795
0.026752,0.00824636
0.0285023,-0.00860068
0.026953,-0.0117918
0.0209091,0.00441881
0.0156332,0.0161032
0.0120016,0.0204439
0.0104489,0.0222945
0.00882929,0.0136267
0.00277046,0.00117184
-2.81e-06,-0.0163522
0.00904597,-0.0264144
0.0116217,-0.0186606
0.0036589,-0.00557316
0.0137038,0.00206363
0.028026,0.00500258
0.0373664,-0.000172387
0.0230767,0.00972417
-0.0132361,0.0117357
-0.104962,0.00242157
-0.177212,0.0105824
-0.153247,0.0121205
-0.0555243,-0.00789183
0.0616261,-0.00982142
0.147574,0.0105236
0.146897,0.0124666
0.0877943,0.017703
0.0270585,0.00640619
-0.000481854,-0.0262973
-0.00336606,-0.0300979
-0.00555036,-0.0120112
-0.00968389,-0.00690163
-0.0158286,0.00563546
-0.0180718,0.00906935
-0.0162493,-0.0274518
-0.0070392,-0.020115
0.00525399,0.00352986
0.0096009,-0.0136255
-0.00842182,-0.0170742
-0.0222307,0.00982055
-0.0182519,0.017311
-0.0159472,0.0278531
-0.0226272,0.0370774
-0.0256271,0.0264301
-0.00721844,0.00934649
-0.00247427,0.00815988
-0.00797311,-0.00152483
0.00536079,-0.00762753
0.0209354,-0.00565011
0.0259357,-0.0145426
0.0294043,-0.0232563
0.0338419,-0.0150985
0.0215606,-0.00808804
0.0150491,-0.0117106
0.0115349,-0.00332539
0.000316053,0.00480627
-0.0166184,0.00343736
-0.0198319,0.0143878
-0.0151319,0.0157864
-0.0127079,0.00913792
-0.00933161,0.000294569
-0.00455098,-0.00395611
-0.00800187,-0.0105195
-0.0155915,-0.0158037
-0.00657944,-0.0261208
0.00792295,-0.00331692
0.0115691,0.0163259
0.00901762,0.0250682
0.0126527,0.00859777
0.0166928,-0.010212
0.00795323,0.00287221
-5.99e-05,0.0178093
-0.00920252,0.0213761
-0.0171993,0.0264064
-0.0214872,0.0108623
-0.0191694,-0.0263498
-0.0126284,-0.0170166
-0.006313,-0.0212675
-0.00743911,-0.0311704
-0.00945919,-0.0114223
-0.00779876,-0.0238286
-0.015437,-0.0231183
-0.0167056,0.021153
0.0099942,0.0169549
0.023997,-0.00580373
0.0251537,0.0261439
0.0251297,0.0202226
0.0181415,0.00181758
0.00998886,0.00243722
0.00608042,0.0133019
0.00271917,0.0158381
-0.000419163,0.0101056
-8.04e-05,-0.00373725
-0.00244419,-0.0164012
-0.00136775,-0.0280103
-0.00041796,-0.0320757
-0.00316153,-0.0169728
0.000678396,-0.0027107
0.00319546,-0.00723436
-0.000476224,-0.0039922
-0.00529302,0.0132411
0.00435624,0.00597143
0.0166259,-0.012586
0.0177573,-0.0162822
0.0124742,-0.0119101
0.011637,0.0154984
0.00180065,0.0269781
-0.0118158,0.0229821
-0.0174414,0.021735
-0.0170281,0.0211797
-0.0202186,0.00935823
-0.0249609,-0.000999358
-0.0333734,-0.00134773
-0.0275634,0.0160573
-0.00422776,0.0185797
0.011751,0.00975402
0.0274433,0.00211126
0.0350008,0.0122796
0.033452,0.00945682
0.0169203,-0.0209224
0.0113548,0.0164079
0.00866824,0.0375604
-0.0241342,0.0119873
-0.106631,-0.0131629
-0.134893,-0.0218059
-0.121436,-0.0144928
-0.0375406,-0.00866871
0.0533637,-0.0257184
0.102002,-0.0351131
0.113171,-0.00946888
0.0903127,-0.00108418
0.050893,-0.00995448
0.0175016,-0.00798972
0.00408079,-0.00667479
0.00209484,-0.00136473
-0.00878661,-0.0125771
-0.0101725,-0.0144073
-0.00560632,-0.0109423
0.000154813,0.00336506
0.00454142,0.00431066
0.0100263,0.00654976
0.00765843,0.00512382
0.00407142,0.00115472
0.0031389,0.00386242
0.00795759,-0.000867709
-0.00417174,-0.018483
-0.0264476,-0.0118543
-0.0321678,0.00560722
-0.0184097,-0.0214991
-0.00458711,0.0071414
-0.00507085,0.0441055
0.000667116,0.0145106
0.00848661,0.0110933
0.010071,0.0130714
0.00598005,-0.00281753
-0.00274588,-0.00912207
-0.0107663,0.00505887
-0.0235917,0.0102429
-0.0264476,-0.000748879
-0.00710555,-0.00959093
0.0227376,-0.00748394
0.00769981,-0.0116013
-0.0371317,-0.00938275
-0.0373364,0.00618349
-0.0280893,0.00688945
-0.00817393,0.00415339
0.0201711,0.0105929
0.0341232,0.0145987
0.0450068,0.00744231
0.0464421,-0.0103379
0.0287897,-0.00446402
0.00393857,-0.00654661
-0.00707906,-0.00114492
0.00603077,0.0120684
0.0139881,0.00487425
0.0157514,-0.00654498
-0.000306841,-0.00567203
-0.0121486,-0.013343
-0.0124676,-0.0576378
-0.0121796,-0.0249591
-0.00523736,0.0241816
-0.00787856,0.0186703
-0.0141246,0.00798413
-0.0144835,0.0133895
-0.0106796,0.00990597
-0.000353087,-0.00465672
0.00755291,-0.0108832
0.003551,-0.00654445
-0.00254102,-0.00497006
0.00212795,0.00692995
0.00642928,0.0158557
0.006865,0.0128545
0.00271295,0.00495511
-0.00362897,-0.00215364
-0.00405918,-0.00659862
-0.00062123,-0.00017923
-0.00348298,-0.00241397
-0.00615256,-0.0122848
-0.00913814,0.00258626
-0.0120258,0.0313394
-0.00530416,0.0161039
0.00770653,-0.0104281
0.00704066,-0.0232163
0.00252284,-0.0128058
-0.0015789,-0.0102547
-0.00500753,-0.00959403
0.00374603,-0.00230686
0.00999424,0.0193178
0.00960131,0.0459819
0.0102437,0.0483821
0.00445192,0.0380358
-0.0058118,0.00926118
-0.0103883,0.00412587
-0.0117862,-0.0048786
-0.00313722,-0.0474572
0.0189467,-0.0347225
0.0128776,-0.0282438
0.0102041,-0.0104532
-0.000985273,0.00268015
-0.0136705,-0.0114714
-0.0114421,-0.0117553
-0.019307,-0.0102727
-0.00678593,0.0091296
0.0214946,0.0278233
0.0256475,0.0104508
0.0161923,0.00911292
0.00881697,0.00475001
0.00222409,-0.0324619
-0.014789,-0.0628955
-0.0145543,-0.0147675
-0.00367874,0.0185457
-0.00186872,0.00954328
-0.0127389,0.0202092
-0.0106868,0.0392101
-0.0135505,0.0209153
-0.0317044,-0.010408
-0.0756305,-0.00769364
-0.0847433,-0.0154543
-0.0355573,-0.0159072
0.0179206,0.00457576
0.0522401,0.0131241
0.0816814,0.00592747
0.0833257,-0.0115459
0.0481451,-0.00299798
0.0150989,0.0128921
0.00468804,0.00164464
-0.00711309,-0.0132389
-0.0074128,-0.0109428
0.0103797,-0.0137389
0.0332954,0.00987234
0.0169228,0.0329057
-0.00519293,0.0190526
-0.00346404,-0.0205627
0.0157794,-0.0258737
0.0293223,-7.74e-05
0.0205552,0.00530961
-0.0395591,-0.00183025
-0.108521,0.00957017
-0.102676,0.0138939
-0.0394907,0.00827158
0.00485278,0.00305899
0.0202586,-0.015144
0.0314354,-0.0177563
0.0337538,-0.0151914
0.0144826,-0.00458804
-0.000375064,0.0117639
0.0051216,0.0117417
0.0151661,0.0171538
0.0287115,0.0196971
0.0203969,0.009735
0.0023577,-0.00106871
-0.00769065,0.00129418
-0.0132516,0.00347086
0.00031514,-0.000172917
0.0105375,0.0189091
0.00862391,0.00691734
0.00203042,-0.0197159
-0.00211969,-0.0623186
0.0152413,-0.0505815
0.0455903,0.00764347
0.0295397,0.0341182
-0.0116434,0.0234933
-0.0855322,0.00680801
-0.115749,0.0163661
-0.0638561,0.0164905
-0.00799538,0.000101406
0.0109635,-0.0124485
0.0173855,-0.030308
0.0437143,-0.0262508
0.0168537,-0.0128008
-0.00483831,0.00204888
0.00597452,0.0175374
0.0216142,0.00574781
0.0246513,0.000614046
0.0280187,-0.0171127
0.0194892,-0.0380739
-0.0196663,-0.0341658
-0.0219729,-0.0193233
-0.011197,-0.0210687
-0.0213384,-0.0107744
-0.0360778,-0.000498959
-0.0160941,-0.00329044
0.0161441,-0.0257286
0.0283402,-0.0355762
0.0328661,-0.0321874
0.0312775,0.107884
0.0444737,0.251669
0.052626,0.293884
0.0156124,0.301943
-0.0864614,0.226331
-0.165437,0.0516676
-0.126036,-0.149117
-0.00113725,-0.291501
0.0718156,-0.281464
0.112183,-0.24777
0.102429,-0.184811
0.0491273,-0.0959073
0.0427095,-0.0443049
0.0623395,-0.041687
0.0419766,-0.0247475
-0.0454477,0.0359049
-0.0272001,0.0607029
-0.00937524,0.111144
-0.0242204,0.0957044
-0.0388171,0.0221155
-0.0156668,-0.00837871
0.00975328,-0.0207838
0.0040939,0.0366559
-0.0284839,0.0869454
-0.0543266,0.133241
-0.0734058,0.184688
-0.0417332,0.0633475
0.0243495,-0.0684537
0.0453501,-0.0414437
0.00257887,-0.0313095
-0.0135302,-0.09642
-0.00788744,-0.162338
-0.0105101,-0.185854
-0.000582985,-0.164124
-0.00615279,-0.0928317
0.00776836,-0.0701023
0.0474941,-0.0179161
0.0648385,0.0625982
0.0930949,0.0673421
0.0910318,0.0533412
0.0504788,0.0545462
0.0305022,0.0344884
0.00909309,0.0647546
0.000849333,0.146001
-0.00104417,0.180321
0.0174076,0.133291
0.017187,0.0126247
-0.0377962,-0.0751431
-0.111366,-0.0512758
-0.197776,-0.0206121
-0.385158,-0.0581604
-0.414784,-0.0696318
-0.280357,-0.0531787
-0.0161579,-0.0445808
0.114394,-0.0805443
0.128313,-0.0168906
0.203585,0.0529911
0.293606,0.0514925
0.279208,0.0381502
0.235598,0.0345364
0.159159,0.055739
0.10397,0.0437315
0.0346818,-0.0102295
0.0108252,-0.056322
0.0259567,-0.0670359
0.0279292,-0.0126277
-0.0123613,-0.0196254
-0.0533322,0.0185236
0.0199236,0.0530051
0.0595635,0.067557
-0.0436914,0.0476654
-0.240469,-0.0379847
-0.496538,-0.0903381
-0.493772,-0.105438
-0.42917,-0.0533779
-0.262762,0.029966
0.112942,0.0647238
0.335674,0.0578305
0.440871,0.0422428
0.335108,0.0111739
0.139326,0.000735464
0.122548,-0.00592929
0.167439,-0.00904598
0.193732,0.00429269
0.184416,0.00575432
0.135749,0.00719911
0.0632946,0.00526402
-0.00832575,-0.00388937
-0.0464101,-0.0231424
-0.0613734,-0.0372513
-0.0810483,-0.033558
-0.113337,-0.0195935
-0.126545,0.005436
-0.123792,0.0189616
-0.0940971,0.0280868
-0.0842188,0.0161356
-0.0845456,0.0150145
-0.0806049,0.0203893
-0.0677634,0.0196418
-0.0407753,0.0131837
-0.0102368,0.016529
0.0202788,0.0195092
0.0477938,0.0102876
0.0524709,0.0107318
0.0408239,0.00858107
0.0374184,-0.0134683
0.0287459,-0.0234947
0.00780669,-0.00928689
-0.0166726,-0.0019392
-0.0322284,0.00109124
-0.0420854,0.00531826
-0.0394887,0.00746417
-0.0363937,-0.00915144
-0.0311558,-0.0128393
-0.0278011,0.00443819
-0.0109876,0.00822311
0.026998,-0.00989028
0.0481524,-0.0119967
0.0471711,0.00130765
0.0300846,-0.00683654
0.0269538,-0.00902815
0.0295833,-0.0199204
0.0325612,-0.0283246
0.025308,-0.0247317
-0.00127495,-0.0232033
-0.0260781,-0.0226071
-0.0325094,-0.00370363
-0.0307752,0.00278811
-0.0232433,0.00456538
-0.0234873,-0.00678789
-0.0139583,-0.000608947
0.000968704,0.00783707
0.0112617,0.0180016
0.0271942,-0.00425055
0.0435163,0.00687946
0.0485906,0.0186201
0.0482018,0.0160304
0.0352332,-0.00340679
0.0239672,-0.0132735
0.0132858,-0.0188354
0.000654504,-0.00983831
-0.0156779,0.00588694
-0.0254298,-0.00412368
-0.00882359,0.0132841
-0.0314583,0.0347556
-0.0320697,0.0117512
-0.0148224,-0.0159143
-0.0352217,-0.0113964
-0.0527582,0.00596469
-0.0076567,0.00426396
0.0381877,-0.0118793
0.0122905,-0.0477665
-0.0193284,-0.00955932
0.0175684,0.0185435
-0.00712397,-0.00654944
-0.179823,-0.013107
-0.29316,-0.0150573
-0.144197,0.0179912
0.0946277,0.0307775
0.220248,0.0217331
0.174959,0.0223587
0.0945201,0.0269992
0.076824,0.00454831
0.0592687,-0.0178145
0.0418776,-0.016447
0.0172586,-0.0306727
0.00739517,-0.0164634
0.0197274,0.0209424
0.0300046,0.0225285
0.0424753,0.0169504
0.0503097,0.00362631
0.0396539,-0.0105359
0.0342214,-0.0103876
0.00102639,-0.00702688
-0.0476977,-0.00379351
-0.0964909,-0.00823966
-0.106549,0.0172325
-0.0776989,0.00854036
-0.0298444,-0.0243758
0.00113531,-0.0199772
0.000613124,-0.00576778
-0.0056485,-0.00723684
-0.00634199,0.0140263
0.0139256,0.0279531
0.0272071,0.0185803
0.0228292,0.0221858
-0.00331216,0.0326861
-0.0249011,0.0164772
-0.00665405,-0.0153014
0.0238284,-0.0272751
0.0320233,-0.0126561
0.0174289,0.00433243
-0.0120721,-0.00627618
-0.0414202,0.00628073
-0.0545118,0.0209319
-0.061515,0.0149024
-0.058192,-0.0228057
-0.0397446,-0.0307689
-0.00548161,0.00117573
0.000395005,0.000610395
-0.00338805,0.00477186
-0.0043429,-0.00773247
0.0222705,-0.0102316
0.0751703,0.00854021
0.0702009,-0.00815022
0.0725855,-0.0353531
0.0601499,-0.0349163
0.0139954,-0.0183191
-0.0384614,0.000716537
-0.0472102,0.0096163
-0.0371706,0.0111873
-0.0266581,0.0241283
-0.00637812,0.0183649
-0.0125916,-0.00840211
-0.0198935,-0.00151631
0.000999888,0.0204262
0.0271463,0.0148144
0.040982,0.0280287
0.0452115,0.0306463
0.0328562,0.0237129
0.0157673,0.0237965
0.00639039,0.0161388
0.00959626,-0.00623576
0.0208602,-0.0235965
0.0216782,-0.0184205
-0.014208,-0.00634896
-0.0507637,0.00361111
-0.054924,0.0012221
-0.0408128,-0.00889494
-0.0259305,-0.00394362
-0.0187458,0.0183329
-0.0115076,0.0092072
0.00534658,-0.0244988
0.0132846,-0.0516519
0.0243021,-0.0357752
0.0241279,-0.000956691
0.00897527,-0.00622863
0.00538469,-0.00623106
0.0280561,-0.00683473
0.0380359,-0.0148445
0.0244118,-0.0154151
0.00453325,-0.0328575
-0.012411,-0.0242267
-0.0427137,-0.00235396
-0.0650263,-0.00701056
-0.0347014,0.000239091
0.00717117,0.00705986
0.00487314,0.020057
-0.027752,0.0129445
-0.0201966,-0.0088628
0.00903971,0.00566363
0.0291515,0.0162757
0.0329087,0.016928
0.0279852,0.0151639
-0.0119415,0.00826257
-0.120784,0.00272009
-0.119862,0.00339428
-0.054661,0.0132903
0.0125616,0.0253935
0.0701403,0.0278512
0.0787303,0.0238807
0.0563979,0.0389774
0.0157668,0.0259881
-0.0123827,-0.00812656
-0.00245154,-0.00669252
0.0163802,-0.000917291
0.0358998,-0.0105349
0.00246379,-0.0145987
-0.0145887,-0.0180115
0.0175647,0.0082336
0.0481687,0.0148921
0.0885008,-0.0155882
0.0849774,-0.0102617
0.01594,0.000625177
-0.0443989,0.0218844
-0.0595669,0.0152746
-0.0553389,-0.0130883
-0.0305747,-0.000152112
0.00794292,0.0191214
0.037693,-0.00568323
0.0110231,-0.0179771
-0.0384673,0.00160936
-0.0361672,0.00023851
-0.000367979,-0.0269834
0.00360045,0.000221782
-0.0119064,0.013289
-0.0159288,0.00366171
-0.0106265,-0.000512426
0.00675064,-0.00915638
0.0296313,-0.022881
0.0297439,-0.0117432
-0.0111475,-0.00425998
-0.0467981,-0.00614319
-0.0345127,-0.00417785
0.00604574,0.000116961
0.0192898,0.00198246
0.0248567,-0.0058373
0.0139705,-0.0137652
-0.028409,-0.0310983
-0.0334446,-0.0265311
-0.00169795,-0.00618809
0.0177382,-0.00662882
0.0191744,0.005821
0.0110284,0.0175564
0.00453133,-0.000618347
0.012005,-0.00854858
0.0152891,-0.00341608
0.00960491,0.00570006
0.00298938,-0.00679775
-0.00909366,-0.0093512
-0.0183113,0.0144847
-0.0134778,0.0264512
-0.00341395,0.0213663
-0.0260259,0.000355274
-0.0381401,-0.00031143
-0.0218061,0.0217086
-0.0113523,0.0433129
0.0100486,0.01821
0.0349991,-0.0464129
0.045213,-0.0303413
0.029612,0.00964644
0.00454337,-0.00556084
0.00157137,-0.0077089
0.0130934,-0.00307278
0.0437022,0.014715
0.0452212,0.0157692
-0.0156778,-0.0103054
-0.0483347,-0.00352802
-0.0490714,0.0122464
-0.0268969,-0.0104014
-0.0182114,-0.0198214
-0.0184824,-0.0110186
-0.0162947,-0.0106887
-0.00908922,0.0039966
-0.0199153,-0.0136506
-0.0329419,0.0096975
-0.0187125,0.0284294
-0.00172936,0.0137357
0.0367896,-0.00478096
0.0780749,-0.0321754
0.0706358,-0.0374068
0.026288,-0.008141
-0.0217805,0.0226726
-0.062032,0.0238743
-0.0517204,0.000389428
-0.0267343,0.0170452
0.00596547,0.0283152
0.0280892,0.0122689
0.0428524,6.3e-05
0.0504147,0.0163139
0.0376837,0.0185446
0.0206737,0.0189706
0.00578891,0.0188352
0.00105657,0.0113192
-0.0391069,-0.00325741
-0.0907545,-0.0176561
-0.0583453,-0.00868631
-0.0159449,0.0133981
-0.0149573,0.0201103
-0.054702,-0.00651369
-0.0464195,-0.0139832
-0.00769296,-0.000110897
0.03175,-0.0053839
0.095332,-0.0243796
0.119094,-0.01944
0.070398,-0.00601565
0.0372474,-0.00481374
0.0241066,-0.00649063
0.00836418,-0.0179621
-0.0023158,-0.00812746
0.00645685,0.00399588
0.0202123,-0.0130821
0.0217711,-0.0199488
0.0188845,-0.00815535
0.00313536,0.00452174
-0.0366342,-0.00126654
-0.0628412,-0.000795042
-0.05644,0.00551484
-0.0617168,-0.00164922
-0.0743007,-0.00656406
-0.0623479,0.00463051
-0.0389922,0.00868042
-0.0296397,0.0063736
-0.039812,-0.0238678
-0.0206845,-0.0208277
0.00249151,0.0157665
0.0273233,0.00534201
0.0798389,-0.0234357
0.0984923,-0.0335785
0.0755597,-0.0211917
0.0545961,-0.00440424
0.023615,0.00452693
-0.0322944,0.0170583
-0.0311104,0.021978
0.0045105,0.0330768
0.0294815,0.0218435
0.0241575,0.00824995
-0.00415054,0.0183518
-0.0117955,0.034846
0.00153976,0.0299521
-0.000175654,0.0184577
-0.00237846,0.0226606
-0.0222104,0.0322098
-0.0412536,0.0065911
-0.0301913,-0.0063675
-0.0111872,-0.0181927
-0.00444272,-0.0263809
-0.00868952,-0.0163461
-0.00407569,-0.0162267
0.00693128,-0.0192047
0.0129166,-0.00680621
0.00999139,0.00535155
-0.00345292,-0.00468713
-0.0146598,-0.0218403
-0.0120508,-0.0229661
-0.00946729,-0.0106319
-0.00823469,-0.000185676
-0.00711621,0.0130397
-0.00617323,0.0188298
0.00302744,0.0116082
0.0207431,0.0112583
0.0355346,0.0119158
0.030225,0.00519958
0.0188198,-0.00615378
0.0145644,-0.00453655
-0.0258385,0.000611254
-0.0629816,-0.00247554
-0.0406496,-0.0135096
-0.0189672,-0.00730208
-0.0150219,-0.0222209
-0.00564774,-0.024104
-0.00536389,-0.00154805
0.00465742,-0.00020094
0.029755,0.0168637
0.0242314,0.0256987
0.016465,0.021446
0.00914537,0.0108353
0.00671696,-0.00427974
0.00373632,-0.0278887
0.0317713,-0.033273
0.072266,-0.00100319
0.0892855,0.0169371
0.0545516,0.0201569
-0.00343741,0.0226468
-0.0516139,-5.68e-05
-0.0576304,-0.0165714
-0.0414822,-0.0284085
-0.0311739,-0.0292522
-0.0133306,0.00437238
0.00244389,-0.006768
0.00398676,-0.00159457
-0.00519227,0.0176646
-0.0196531,-0.00428196
-0.0220044,-0.00198589
-0.00532343,-0.00464791
0.00712769,-0.0135375
0.00426341,-0.00743266
-0.00294164,0.00223975
-0.0101034,-0.00685353
0.00941147,-0.00583287
0.0229102,0.013001
0.0149696,0.022436
0.00448461,0.0127635
-0.000600884,-0.00183726
-5.12e-05,-0.00383129
0.00322828,0.00361389
0.00505957,0.0120206
-0.00708899,0.0145255
-0.0309087,0.0109171
-0.0572585,-0.0119609
-0.0389692,-0.00621742
0.0134827,0.0173775
0.0448468,0.00279111
0.0401332,-0.00825947
0.0224481,0.00648474
0.0033988,-0.00122163
0.00145539,-0.0037877
-0.0388694,-0.00179516
-0.134771,0.00439434
-0.135278,-0.00220109
-0.0587492,-0.020337
0.0301354,-0.00953468
0.0923874,-0.00266151
0.125891,0.00973017
0.106426,0.0137147
0.0401831,0.00145661
-0.00374097,-0.0082797
-0.00315857,0.000919031
0.00195579,0.00462109
0.0090618,-0.000453047
0.0207426,0.00336758
0.0197347,0.00708675
-0.012234,0.00547229
-0.019132,0.000390375
0.00760799,0.0102894
0.0275512,0.00648747
0.00352934,0.00185275
-0.0266182,0.00341756
-0.0302635,-0.00871812
-0.0205307,-0.0194218
-0.0146562,-0.00344148
-0.00225849,0.0183344
0.0091493,0.0141451
0.00267771,-0.00724316
-0.000169394,-0.0193681
0.00749297,-0.0166971
0.0098585,-0.0156588
0.0144325,-0.0015352
0.0230921,-0.00474856
0.0302968,-0.00828463
0.0264851,0.0117626
-0.00979364,0.0149386
-0.051411,0.00288853
-0.0587269,-0.00539474
-0.0633134,0.00156812
-0.0441449,0.0120324
-0.0198786,-0.0116074
-0.0141119,-0.00378249
0.0120884,0.0117815
0.0376117,-0.0257939
0.016476,0.00907987
-0.0142555,0.0461492
-0.0225309,0.0197952
-0.0118412,0.0073174
-0.00177917,-0.0279522
0.0172437,-0.0537366
0.0419326,-0.0118993
0.0516775,0.00164526
0.0475434,0.0127722
0.0247097,0.0115145
0.00458494,-0.000523688
-0.00343335,-0.00155214
-0.00585052,-6.29e-05
-0.0161121,0.00735319
-0.0220731,0.0129134
-0.0247262,0.0134092
-0.0156117,0.00405703
-0.0197015,-0.000715567
-0.0168547,-0.0045524
-0.00689684,-0.0202183
-0.00443982,-0.0132455
-0.000648338,-0.004035
0.0120393,-0.00401561
0.0272908,0.00217122
0.0340379,0.0074754
0.0210869,0.00729947
0.0100729,-0.00192251
0.0108385,-0.0138869
0.0117924,0.00450492
0.0163469,0.013404
0.0176588,0.0198821
0.000995077,0.0289056
-0.0321857,0.0252446
-0.0571869,0.00730832
-0.0602892,0.00549005
-0.0488807,-0.00505702
0.00179994,-0.0247291
0.0292122,-0.0278834
0.0171824,-0.00758548
0.0151971,-0.00716491
0.0104362,-0.0166041
0.00907672,0.00855235
0.012961,0.00537273
0.0221111,-0.0134214
0.0307766,-0.0119788
0.0248373,-0.00918647
0.00156174,-0.00108921
-0.0152444,0.00704886
-0.0195802,-0.00737452
-0.0321927,-0.00126333
-0.0493398,0.00894427
-0.0643614,-0.00130587
-0.0366231,-0.0185339
0.0300163,-0.00630266
0.0554175,0.00947587
0.0131057,0.0110872
-0.00811634,0.00150738
0.00308298,0.00660378
0.0133532,0.0131232
0.0199597,0.0105256
0.0259895,0.00633218
0.0196471,0.00187079
-0.033765,-0.00105951
-0.0870098,0.00848248
-0.0538525,0.0114968
0.0117721,-0.000382104
0.0764534,-0.00497339
0.0871053,0.00767391
0.0255748,0.0116388
-0.0223225,0.011251
-0.0141206,0.0207837
-0.00668808,-0.00677639
0.00434352,-0.0274523
0.0189211,-0.012642
0.0125463,-0.00430751
-0.00993191,-0.0437194
-0.0159798,-0.0354642
-0.00296505,-0.00190383
0.00913993,0.00933415
0.027967,0.00882005
0.0475233,0.0109525
0.0248028,0.0166379
-0.0239662,0.0119694
-0.0620255,-0.00222905
-0.0596234,-0.00191981
-0.0601519,-0.00297623
-0.0441611,-0.0207194
-0.0120218,-0.0166333
0.00650467,-0.00789738
0.0270425,-0.00259764
0.050268,0.00178294
0.0466423,0.0407549
0.015017,0.0371934
-0.00366304,0.00284268
0.007152,-0.00607661
0.0163301,-0.00290176
0.0325964,-0.00345167
0.0390124,0.000523994
0.0194641,0.0109267
0.00111593,0.0119198
-0.0214675,0.00226493
-0.0340951,-0.00416659
-0.0311891,-0.010603
-0.043339,-0.0151534
-0.0483754,-0.00962092
-0.0104801,-0.00536301
0.00599744,-0.00399662
0.0242332,-0.00117648
0.0266025,0.00623933
0.014503,0.0131067
0.0023201,-0.00614581
-0.00515038,-0.0101501
-0.00304629,0.000967177
0.00436611,-0.00792719
0.00811487,-0.0166737
-0.00499833,-0.00441956
-0.0268575,0.00648169
-0.0344151,0.00784928
-0.0115861,0.00541504
0.00793068,-0.000955152
0.0023767,-0.00299807
-0.0363321,-0.00663193
-0.0456494,-0.0108617
-0.0250376,0.00383125
0.00405961,0.0138056
0.0144075,0.0127085
0.0262709,-0.0068193
0.0443371,-0.00517497
0.0518515,0.00480961
0.0279445,-0.00815593
0.00578497,-0.000513069
0.0113259,0.0173638
0.00889829,0.00931224
-0.00621872,-4.13e-05
-0.0135329,-0.00136215
-0.00547185,0.00104695
-0.00429017,0.0136852
0.00360698,0.0158033
0.0195268,0.0249923
0.0208442,0.00682401
-0.00264989,-0.0279275
-0.0251648,-0.0146116
-0.0227507,0.00373555
-0.00479443,-0.0172559
-0.000841253,-0.0157095
0.00467961,-0.0257809
0.011454,-0.0195153
0.00350712,-0.0029442
-0.00507989,0.00380023
-0.0071037,0.00279424
0.00172163,0.00759181
0.00942724,0.00316946
0.0159581,-0.00598708
0.0143588,-0.00476045
0.00563014,0.00749486
0.00305086,0.0162979
0.010982,0.0241361
0.0173118,0.029741
0.00945026,0.0245446
0.00987572,0.00810212
0.018383,-0.030122
0.00412987,-0.0244876
-0.050711,0.0099531
-0.0736325,-0.0185489
-0.113027,-0.0210752
-0.148157,0.00787949
-0.0798765,-7.36e-06
0.0346755,-0.0103983
0.0767111,-0.0173199
0.0659744,-0.0310765
0.0639195,-0.0146957
0.0530162,0.00175324
0.0221509,-0.00874417
0.0116491,0.00802736
0.00343652,0.0277831
-0.00300722,0.019498
0.0151163,0.00140716
0.0180744,-0.0202297
0.0146339,-0.0234663
0.01293,-0.0161947
0.0112398,-0.000290408
0.0280932,0.0154718
0.027474,0.0267379
0.0192154,0.0334265
0.01623,0.0274835
0.00170141,0.0121972
-0.0303731,0.00695829
-0.0448126,0.0182877
-0.03792,0.0255296
-0.0299333,0.0223451
-0.0318979,0.0173286
-0.0274192,0.0192283
-0.020142,0.0154176
-0.012608,7.01e-05
0.00131347,-0.0133239
0.00507799,-0.0182485
0.00846787,-0.0219617
0.0129144,-0.0199231
0.0160171,-0.00992196
0.0255247,-0.00571735
0.0206561,-0.00329027
0.00569861,-0.00638358
0.00629521,-0.0132849
0.0100399,-0.0173518
-0.00176787,-0.0126909
-0.00870498,0.00246381
0.00453636,0.0140333
0.0131786,0.00788231
-0.000594471,0.00724378
-0.00913548,-0.0127656
-0.00589486,-0.0238766
-0.00762392,-0.0176125
-0.00865385,-0.0119294
-0.0230707,-0.00314986
-0.0437176,0.00353886
-0.0124633,0.010388
0.0362526,0.00849512
0.0391638,0.00244167
0.0200456,-0.00243386
0.0264058,-0.00182688
0.0144312,-0.000190711
-0.0182066,0.00858329
-0.0506606,0.00959456
-0.0735958,0.0065281
-0.0758015,0.00687872
-0.0298943,0.0071807
0.0319597,-0.00411656
0.0620962,-0.0195585
0.0549843,-0.0150865
0.0333924,-0.0101196
0.00630963,-0.00124949
-0.0129682,0.00113665
-0.0213835,-0.000205958
0.00271829,-0.0105666
0.0436652,-0.0134684
0.0600522,-0.0134822
0.0413823,-0.011737
0.0131112,-0.0119066
-0.00781061,0.000662809
-0.0152095,0.0155989
-0.011822,0.0157234
-0.00410832,0.0202724
0.00862787,0.010191
0.000750369,-0.0078344
-0.0205103,0.00170882
-0.0279766,0.0079966
-0.0194927,0.00154506
-0.0103237,0.0110022
-0.00608938,0.0191057
-0.0109663,0.0128067
-0.0105184,0.0115682
-0.00230173,0.0168123
0.00211479,-0.014701
0.00641904,-0.0254483
0.00483448,-0.0051505
-0.000112436,0.00494711
-0.0055348,-0.00709476
-0.000999728,-0.000786329
0.0118853,-0.00444235
0.00168914,-0.0201218
-0.00935103,0.0110125
-0.0648812,0.0091574
-0.127223,-0.00415542
-0.123901,0.000779281
-0.0481438,0.0151297
0.0409731,0.0194841
0.100057,0.00532906
0.117951,-0.000953907
0.107095,-0.0245101
0.0764113,-0.0359428
0.0464826,-0.0148133
-0.00118703,0.0120794
-0.0469875,0.00251332
-0.0310616,-0.00776191
-0.00302212,0.02233
0.00119553,0.0499594
0.00182783,0.019732
0.0054189,-0.000608513
0.00430341,-0.0157481
-0.00140686,-0.0470366
-0.000384907,-0.0159246
-0.00710638,0.00498273
-0.00955696,0.00487831
-0.00798152,0.00234471
0.00203006,0.000905701
0.00808249,-0.00644269
-0.0195923,-0.0143959
-0.0444739,-0.00851638
-0.0343108,-0.000416662
-0.0107993,-0.00028809
0.00230399,0.00942234
0.0253305,0.0197232
0.0339837,0.0136126
0.0211334,-0.00136552
0.0137177,-0.00637088
0.00647782,-0.00221593
0.00464766,0.00131901
0.00772469,0.00428491
0.00167197,0.00327008
-0.00277905,0.000543621
-0.00292153,-0.00597017
-0.00306352,-0.00638334
-0.00263466,-0.00477739
-0.00540557,-0.010012
-0.0134416,-0.0145517
-0.0133084,-0.00615089
-0.00203493,0.0118006
-0.00184395,0.00123465
-0.0213637,-0.00444626
-0.0509869,-0.00433363
-0.0361637,0.00305271
0.00750991,0.0175172
0.0161607,0.0148797
0.0203654,0.0139088
0.0267618,0.0199501
0.0083467,0.0282108
-0.00836141,0.0099721
0.00859462,-0.00676569
0.0292821,-0.0136623
0.0182596,-0.0217586
0.00390442,-0.00719861
-0.00425097,-0.00205688
-0.00590127,-0.0126717
-0.0185845,-0.00919019
-0.0201185,0.00799074
0.00163245,0.00926077
0.00414295,0.00482243
-0.0143753,-0.00776595
-0.00633545,-0.00759436
0.022698,-0.00555515
0.0257338,-0.0152917
0.00607316,0.00265021
0.00043076,0.0108135
0.00605759,0.00646552
-0.000122316,0.0177
0.00639352,0.00677493
0.0131265,-0.00459023
0.00100226,-0.00456447
-0.010902,-0.00359078
-0.00479225,0.00864105
0.000179092,0.00216625
0.00166802,-0.0033133
0.00254,0.000844316
0.00686936,-0.00856133
0.0182903,-0.0136461
0.00471234,-0.00688359
-0.0161757,-0.00575896
-0.0209522,-0.00254123
-0.00881823,0.00446926
-0.0168447,0.00301004
-0.0210305,-0.000306034
-0.0152506,-0.00170015
0.00107932,-0.00794739
0.0127305,-0.0102443
0.0232093,0.00338242
0.0199197,0.00839119
-0.002322,0.00719751
-0.022818,0.0171025
-0.0177294,0.0264983
0.0180837,0.0132214
0.0249206,-0.00591125
0.001143,-0.00350097
-0.0783142,0.00297045
-0.130484,-0.0103154
-0.0838007,-0.0223881
-0.00119275,-0.0419289
0.0591831,-0.0236237
0.0890419,0.00607344
0.0981427,0.0235084
0.065832,0.00659462
0.0111438,-0.00469193
-0.0245662,0.0101209
-0.0196479,0.00997149
-0.00893384,0.00834099
-0.011056,0.0161736
0.0095887,0.015452
0.0496883,0.00312117
0.0896449,-0.00353788
0.0782453,-0.000582801
-0.00814375,-0.00820901
-0.0447996,-0.0068493
-0.0231294,0.0180546
-0.0318259,0.0267176
-0.0410298,0.00402725
-0.0418404,-0.00434914
-0.0243595,-0.0425372
-0.00620916,-0.0347447
-0.00960645,-0.0126699
-0.022276,-0.00279815
-0.0165934,-0.00158749
0.000523305,0.00243506
0.0127325,0.00880486
0.015327,0.00387482
0.0128255,-0.00907608
0.00904837,-0.0131387
0.00924889,-0.00662684
0.0122898,-0.0012893
0.00827986,0.00667978
-0.00275638,0.013702
-0.0112228,0.0175963
-0.0134082,0.0128565
-0.00819343,0.00520853
-0.000859324,-0.00736507
-0.000144749,-0.0108486
-0.00780187,-0.00541216
-0.0126082,-0.00145377
-0.00589633,0.000896071
0.00210161,0.00689913
0.00600485,0.00982377
0.00745216,0.000600727
0.0103254,-0.012147
0.0122001,-0.0102361
0.016561,-0.000453348
0.0136514,0.00429062
0.00101653,0.0109322
-0.00756755,0.0119089
-0.0165028,0.00816407
-0.0114962,0.00393592
0.00184817,0.00312713
0.00213636,0.0108049
-0.00703671,-0.00640168
-0.0162206,-0.0193617
-0.0311631,-0.0224107
-0.071028,-0.0082881
-0.0432966,0.00992185
0.00415786,-0.00763555
0.0467332,-0.0233032
0.0697929,0.00697689
0.0510667,0.0134166
0.0404917,0.00912907
0.026581,0.0095933
-0.00348605,0.0169818
-0.0148806,0.0137721
-0.0189403,0.00347519
-0.000114497,-0.00100283
0.0105825,-0.00435189
0.00883446,-0.00468027
0.00151158,0.00562301
-0.0198734,-0.00332029
-0.0435954,0.00334729
-0.0139178,-0.00446701
0.010928,-0.0140686
-0.0127846,-0.0155094
-0.0259819,-0.0267536
0.0219326,-0.0148158
0.0565994,-0.00547957
0.0355182,0.00873399
-0.00225192,0.0232488
-0.0193064,0.0262657
-0.0210627,0.0204902
-0.020592,0.0146379
-0.0222831,-0.000768312
-0.0106162,-0.0109113
0.0104125,0.00136947
0.0191859,0.000748326
0.0215832,-0.00394738
0.0247634,-0.00422433
0.0274353,-0.00958481
0.0118669,-0.0196014
-0.00138001,-0.0290921
0.00590524,-0.0226577
0.0126274,-0.0141786
0.0216383,-0.0071466
0.0182621,0.00256217
-0.0179042,0.00923948
-0.0513558,0.0123516
-0.052802,0.0145833
-0.0563982,0.010124
-0.0360417,-0.000237732
-0.00536798,-0.0034081
0.0084116,0.0124961
0.0135107,0.0352414
0.0191392,0.0492093
0.0224974,0.0312789
0.0270393,-0.0154748
-0.0103294,-0.0451038
-0.0863241,-0.0417489
-0.103412,-0.0432316
-0.0440372,-0.0196625
0.0421736,0.0246411
0.0811425,0.0269874
0.0798721,0.0359519
0.0436524,0.0340227
0.0147941,0.030691
0.00425044,0.0163478
0.00607337,-0.00763509
0.00406366,0.0012593
-0.000485419,0.0125871
-0.00477603,0.00137021
-0.00858035,-0.00366061
-0.0175957,-0.000740594
-0.0169765,-0.0056924
-0.00851716,-0.0167792
-0.000188548,-0.0229849
0.0130946,-0.0201778
0.0283351,-0.0186148
0.0149483,-0.0117763
0.000188552,-0.00149306
-0.005344,0.00330695
-0.0099128,0.00407495
-0.0163301,0.0039713
-0.0159687,-0.0072773
-0.00692811,-0.0128709
0.000181641,-0.00555353
0.00669569,0.000239034
0.00766774,-0.00364252
0.0084931,-0.00322412
0.00991307,-0.000489249
0.0130714,-0.00496857
0.0173146,-0.0157998
0.0192768,-0.0147031
0.0119077,-0.00807439
0.0056762,-0.00803533
0.00188948,0.00111964
-0.00141552,0.0194647
-0.0228234,0.022785
-0.0301045,0.04523
-0.00360102,0.0398146
0.00837004,0.00788013
-0.0213454,0.0103834
-0.0659544,0.00355366
-0.0632989,-0.0200317
-0.038878,-0.0302034
-0.0538661,-0.0192423
-0.0578909,-0.0115252
-0.0434682,-0.0172883
0.0303746,-0.0320723
0.0860621,-0.0355094
0.117341,0.00104408
0.0731878,0.0410118
-0.00815726,0.0485117
-0.0143301,0.0451729
0.0210432,0.000462287
0.021502,-0.0260072
0.0310362,-0.0337097
0.0401829,-0.0341911
0.00672079,-0.0129746
-0.0164095,0.00287711
-0.00946655,-0.00927922
-0.00297827,0.00782268
0.00125667,0.024662
0.013465,0.00969287
0.0253704,-0.00127353
0.0239461,-0.0016392
-0.00989049,0.00219919
-0.0332417,0.000225245
-0.0252515,0.00196784
-0.016096,0.0101233
-0.00810486,0.0150787
-0.0039868,0.0108099
-0.00494522,0.00485572
-0.0129793,-0.00837805
-0.00625687,-0.014453
0.00707317,-0.00583342
0.0119406,0.0030807
0.0135364,0.00767276
0.00729451,0.012535
0.00323146,0.0133838
0.00606564,0.00543821
0.0138025,-0.00404524
0.00356709,-0.00877339
-0.0108541,-0.00667615
-0.0182084,-0.00763613
-0.0163557,-0.000270042
-0.014873,0.0101999
-0.0149219,0.0122031
-0.0205955,0.0125873
-0.049181,0.00159271
-0.0998577,-0.0227618
-0.0880165,-0.0236375
-0.0280523,-0.00367014
0.0317933,0.00192045
0.0651527,0.000411171
0.080176,0.00532454
0.0705514,0.00997898
0.0465893,-0.00153265
0.0261222,-0.0169725
0.0060051,-0.0192075
-5.61e-05,-0.00184557
0.00466941,0.00702984
0.00481457,0.00890076
0.00355165,0.0150834
0.000437355,0.0139554
-0.000820634,0.0137484
-0.0119122,0.00299875
-0.0128356,-0.0111741
-0.00106383,-0.00642492
-0.000125703,0.00855181
-0.00153829,0.0111107
0.00174518,0.00900543
0.00184035,0.00857263
-0.000651727,0.0024009
0.00338259,-0.0124447
0.000391559,-0.0221667
-0.0145508,-0.0209718
-0.0135052,-0.0232529
-0.013028,-0.0136801
-0.00532136,0.000201733
0.00211556,0.00854735
-0.000919098,0.00890856
-0.0136621,0.00509374
-0.0184517,-0.000646408
-0.00902366,-0.00510046
-0.000282457,0.00905336
-0.00745173,0.0223865
-0.017449,0.0158934
-0.00857293,0.0055526
-0.000394275,-0.014717
0.00989186,0.00473447
0.0208176,0.0365734
0.0172031,0.0106869
0.0105339,-0.0586524
0.0150796,-0.0405347
0.0167537,0.00767087
0.0100707,0.0131326
0.00652036,-0.000927319
-0.00104032,0.00954936
-0.00604553,-0.00552627
0.00835178,-0.0208299
0.0107784,-0.0144564
0.00925038,0.00250748
0.00970998,0.00427805
0.00143756,-0.000120358
-0.0208844,0.0123075
-0.0483344,0.0175694
-0.049888,-0.00459317
-0.0310928,-0.0234589
-0.0332905,-0.0026527
-0.022646,0.00458091
0.0143229,0.0058804
0.0590906,0.0105616
0.06674,0.010214
0.0481997,0.00888397
0.0288828,0.0110988
0.0140234,0.000558036
0.0144834,-0.0149688
0.0108073,-0.0105659
0.00592361,-0.000875947
-0.0028011,-0.000540679
-0.00779065,0.00672144
-0.00534949,0.0147111
0.00764657,0.0121019
0.0118319,-0.000998045
-0.0120612,-0.00902136
-0.0269848,0.000288004
-0.0291884,0.00495909
-0.0469021,0.00589359
-0.0595172,0.0031099
-0.0364684,0.00800138
0.00463854,0.0190543
0.0185488,-0.00372809
0.0229226,-0.0269652
0.0132595,-0.0187012
-0.000425858,-0.00452388
-0.00118978,0.0184893
0.011904,0.0031364
0.0172357,-0.00723717
0.01494,-0.000739559
0.0241791,-0.00791974
0.0238162,-0.0195681
0.00111754,-0.0162562
-0.0644254,0.00809334
-0.123191,0.0194217
-0.0962851,0.0160579
-0.0294786,0.00888222
0.0611386,0.00832628
0.0990248,0.00845268
0.0833502,0.000109908
0.0382818,-0.0126626
0.00345764,-0.0146679
-0.00536369,-0.00353516
0.00781288,0.00280916
0.0343278,-0.00297304
0.0373173,-0.00413741
0.0147579,-0.00641097
-0.00855222,-0.0141732
-0.0107525,-0.0148984
-0.0147807,-0.00154138
-0.0115861,0.00657198
0.00722049,0.00368958
0.012289,0.00560932
-0.00532844,0.00943777
-0.0197975,0.000772904
-0.023954,0.00216469
-0.0164123,0.00416569
-0.0142133,-0.0306161
-0.0103038,-0.0380272
-0.00662142,0.0173727
-0.01188,0.0353224
-0.0116328,0.0366689
-0.0174056,0.00558467
-0.0155501,-0.028509
0.00965514,-0.00879212
0.0285578,-0.00963754
0.0205951,-0.0118899
0.00589396,-0.00171294
0.0171876,0.0135466
0.0232618,0.0165433
-0.00599481,0.0160921
-0.0435124,0.00810723
-0.0479685,0.0042099
-0.0284609,0.00700641
-0.0256787,-0.00434408
-0.0148827,0.00134645
-0.00519679,0.00740023
0.00510846,-0.0018366
0.0225394,0.000612262
0.0443431,0.0049489
0.0473688,-0.00291901
0.0343263,-0.0163984
0.0259789,-0.0147007
0.0328864,-0.00468948
0.0236341,-0.00433584
-0.00433853,0.00561569
-0.0186759,0.0173187
-0.0210059,0.00870991
-0.00822835,0.00552685
-0.00143971,0.000183813
0.00691429,-0.0135886
-0.000937595,-0.0156769
-0.0258097,-0.00781361
-0.0369203,-0.00326589
-0.0351628,0.00379499
-0.0203966,0.0108917
0.00298595,0.0112958
0.0121942,0.00162351
0.0108897,-0.00910996
0.027377,-0.00256848
0.0322757,0.0102616
0.00824582,0.00131407
-0.000615731,-0.00952522
0.0002177,-0.0126042
-0.0124792,-0.0166853
-0.00431165,0.00272448
0.00651559,-0.00590032
0.00679095,-0.00832119
0.00524013,0.0135475
-0.00646431,0.0226514
-0.019663,-0.00624631
-0.0300512,-0.0115212
-0.070379,0.0188828
-0.0631861,0.0111028
-0.0241016,-0.0250876
0.0135134,-0.0246752
0.0460697,-0.00484443
0.0650117,-0.00137049
0.0583478,0.00446759
0.0297523,0.00248541
0.000834689,-0.00245534
-0.00361376,-0.00210898
0.00716484,-0.00516416
0.00971278,-0.00959775
0.00710399,-0.00982221
-0.0184072,-0.0107833
-0.0178521,-0.0156391
0.00396798,-0.0101401
0.0109955,0.00820194
0.0251595,0.015974
0.0351196,0.0159549
0.0143825,0.00904395
-0.0055265,0.0103686
-0.011259,0.0185954
-0.0130216,0.02199
-0.0265145,0.0269623
-0.0326694,0.0279854
-0.0164812,0.0210443
0.00794658,0.0163571
0.0217412,0.0088414
0.0170073,-0.0045583
-0.00333348,-0.00842966
-0.0265751,-0.00249915
-0.0333616,0.00244828
-0.0110232,0.00309361
0.0115814,0.00698491
0.0220745,0.00568227
0.0187261,-0.0167864
-0.0244692,-0.0265985
-0.108085,-0.0184243
-0.121512,-0.0192416
-0.0577004,-0.00943027
0.0120165,-0.00440645
0.0556347,-0.00893838
0.0887464,0.00571585
0.0629317,0.00931262
0.0152361,-0.00915191
0.0237935,-0.0129493
0.0425811,-0.0151627
0.0205849,-0.00339388
0.0132218,0.0229024
0.00498418,0.00767009
-0.00927396,0.0123381
-0.0266647,0.00657151
-0.0248324,-0.0192325
-0.0323673,-0.0219284
-0.0206201,-0.011819
-0.00176031,-0.00729478
-0.0108002,0.00147303
-0.00689262,0.00771472
0.0145514,0.0142302
0.0364581,0.0021885
0.0379403,-0.00149801
0.0297727,-0.0102755
0.0192704,-0.0174325
0.00815919,-0.0115733
0.0092721,-0.00187016
0.01651,0.0110894
0.0220702,0.0239553
0.0159723,0.025027
0.00704225,0.0114683
-0.00299655,-0.00922244
-0.0179538,-0.0125487
-0.022433,-0.00085693
-0.0126273,-0.00808904
-0.00720206,-0.00796984
-0.0233891,0.0067824
-0.0374582,0.00654202
-0.0335097,-0.000329955
-0.0171322,-0.00331452
0.00236926,-0.0105075
0.00918393,-0.00630657
0.0115303,0.00739756
0.0112303,0.00510647
0.00677506,0.00303432
0.0037293,0.00310481
-0.000791318,-0.00281054
-0.0012753,0.00203686
-0.000548072,-0.00434637
-0.00888347,-0.00336416
-0.0178255,-0.00255218
-0.0147685,-0.00694623
-0.0121355,-0.00110348
-0.0184155,0.0112764
-0.00871613,0.000305023
0.00942556,-0.0155625
0.0247183,0.00253887
0.0198593,0.000758959
0.0143601,-0.00211169
-0.00128112,0.0108873
-0.00482713,0.0125739
0.0156317,0.0135446
0.0166281,0.0206303
0.0016561,0.0231108
-0.00165927,0.00746869
-0.0147667,-0.00500758
-0.0422664,-0.000154417
-0.0311977,-0.000330936
-0.00335905,-0.00358734
0.0225112,-0.00234776
0.0444208,-0.0006011
0.0318801,-0.00603662
0.00251177,-0.0039285
-0.00378485,-0.0167726
-0.00532308,-0.028831
0.00171422,-0.0207318
0.0100504,-0.00367932
-0.0145577,-0.00309954
-0.0334929,0.00415434
-0.0269469,0.0222294
-0.0314514,0.0130814
-0.0180664,-0.0104858
-0.000132647,-0.0127222
0.0246675,-0.00414739
0.0429122,-0.000656454
0.0279677,0.0137223
0.00798242,0.0212276
-0.0213102,0.00827971
-0.0296675,-0.0150334
-0.00800886,-0.0157524
7.21e-06,-0.0102761
0.00702417,-0.0112912
0.0217856,0.00133144
0.0246465,0.00733246
0.0266498,0.00716818
0.01839,0.0132931
0.0055641,0.0163897
0.00477769,0.000154373
0.00910071,-0.0184356
0.0141689,-0.0181147
0.00710772,-0.0267983
-0.00079057,-0.00638857
-0.00155852,0.0314801
-0.0142601,0.0220591
-0.0165964,0.00489458
-0.00526019,0.00412304
-0.0224707,0.0074765
-0.0299583,-0.00470367
-0.00987418,-0.00605035
-0.0208906,0.00948667
-0.0308625,0.0110943
-0.0100171,0.00989695
0.0128885,0.0119836
0.0228911,0.015863
0.0322442,0.00439772
0.0360312,-0.0157912
0.00809632,-0.02299
-0.00579614,-0.0246709
0.0151346,-0.00551099
0.01741,0.00637926
0.00539698,-0.00877705
-0.0227623,-0.0124378
-0.0902938,-0.00917609
-0.102548,-0.0163771
-0.06098,-0.0120884
-0.00321965,0.00302881
0.0558079,0.0208398
0.0815226,0.0173516
0.0658428,0.0194313
0.0232674,0.0223828
0.0034262,0.0147996
0.0142088,-0.00540499
0.0274552,-0.0142045
0.024523,-0.00903484
0.0212725,-0.00812495
-0.0017601,-7.09e-05
-0.0375574,0.0049196
-0.0510908,0.00613073
-0.035646,0.00452276
-0.0265102,-0.0114978
-0.0119624,-0.0218468
0.0032984,-0.0103166
0.0162996,0.00575186
0.00608742,0.0104713
7.91e-05,0.0078031
-0.00362861,0.00854959
-0.00362773,0.0152755
0.00817353,0.00906692
0.0169521,-0.00622173
0.0207451,-0.00594206
0.0125039,-0.0132729
-0.00905562,-0.0172775
-0.017597,-0.0136008
-0.00397867,0.00928124
0.00603304,0.0102305
0.00919027,0.00349118
0.00230477,-0.00932108
0.00850911,-0.0213794
0.0155179,-0.0102516
0.00292901,0.0202418
-0.0131572,0.0174011
-0.00649937,-0.00033877
0.0072116,0.0190032
0.00653492,0.0239489
-0.0170847,-0.00407344
-0.0303064,-0.0168874
-0.0250223,-0.00804346
-0.0160716,-0.00674737
-0.0158566,-0.00431333
-0.00268491,-0.00655679
-0.00225374,-0.00928848
-0.00765054,-0.00373495
0.0185742,0.0134125
0.0303528,0.00816952
0.0269987,-0.00692748
0.0237175,-0.00464909
0.0168722,-0.00340538
0.0133055,0.00134172
0.00583045,0.0161569
0.00480736,0.0227674
0.0024029,0.0104369
0.000224163,-0.00696781
-0.000350431,-0.0149916
0.00217564,-0.010126
0.00463503,-0.0109645
0.00217781,-0.00499384
-0.000662606,0.00460847
-0.0083307,0.00070802
-0.00780649,-0.000883553
-0.00642048,0.00135097
-0.00862154,-0.0136374
-0.0146906,-0.0191256
-0.0112011,0.00541163
-0.0125413,0.0143057
-0.00949869,0.00993477
-0.00101507,0.00657606
-0.00880536,0.00911032
-0.0344164,0.0151605
-0.0608721,-0.00421104
-0.0737213,-0.00331369
-0.0430715,0.00392553
0.010602,-0.00206862
0.0459492,-0.00113391
0.0516631,0.00516197
0.0469208,0.00150537
0.0565265,0.00319657
0.0456465,0.000160309
0.0227731,-0.0112813
0.0165036,-0.0143635
0.0121131,-0.00451782
0.000958652,0.00245863
-0.00942065,-0.00747421
-0.0107967,0.00169332
-0.0057762,0.0226885
-0.00259971,0.000807391
-0.00677831,-0.0174524
-0.00689001,-0.00833097
0.00371629,-0.00555269
0.0100859,0.000279729
0.00208072,0.00723252
-0.00937396,0.00185298
-0.00917453,-0.00449615
-0.0128816,-0.00190399
-0.0122104,-0.00890015
-0.00918488,-0.0122774
-0.00382403,-0.00896462
0.00276075,0.00818277
0.00973294,0.0128278
0.00925765,0.0115802
0.00913416,0.01357
0.00829715,0.0141275
0.00786544,-0.00492983
0.0079248,-0.0145004
-0.00316192,-0.00427248
-0.0236557,-0.000767403
-0.0397668,0.00162999
-0.0306218,0.00204777
-0.00950439,0.00129481
0.0128896,0.00842287
0.0344697,0.0111173
0.0460832,0.00846083
0.0357723,0.0089766
0.00635949,0.00314541
-0.0208356,0.00311352
-0.0210568,0.00477497
-0.00361059,0.000955632
-0.0395461,0.00665091
-0.0901893,-0.00179592
-0.0663552,-0.00415045
-0.0196053,-0.0162371
0.0213269,-0.0384108
0.0648113,-0.0249695
0.0766091,-0.00260882
0.0435718,-0.00108936
0.00396753,0.0116853
-0.00996888,0.0183366
-9.81e-05,0.00252643
0.0117292,-0.0178307
0.00355124,-0.0156992
-0.00759957,-0.00845893
-0.00463255,0.0025656
0.00972082,0.0170572
0.017422,0.0191595
0.0155074,0.013543
0.017298,0.000838126
0.0174458,-0.00648805
0.00179293,0.000452133
-0.0149715,0.00194423
-0.017887,-0.00305314
-0.0159924,-0.000818896
-0.00574078,0.0118906
-0.00405062,0.00819295
-0.0169503,-0.00210794
-0.0149628,-0.00801011
-0.0204143,-0.0189704
-0.036284,-0.0267132
-0.0369956,-0.00517587
-0.00480656,0.0100832
-0.00149982,-0.000740011
0.0341332,-0.0105907
0.0454285,-0.0198343
0.0236629,-0.0219394
0.021314,-0.0440597
0.013296,-0.0181662
0.00101277,0.0320309
-0.000731213,0.0387712
-0.00111653,0.0387876
-0.00245852,0.037728
-0.0131474,0.0270824
-0.0175909,0.0208575
-0.0161236,0.00904537
-0.0269191,0.00363803
-0.049198,0.0113691
-0.0433854,0.0134952
-0.0274984,0.0120363
-0.00434824,0.00780438
0.0210698,0.00443797
0.0340807,0.00501272
0.0453264,-0.0103045
0.0270383,-0.0373829
0.00460629,-0.0165107
-0.00129939,-0.00244783
0.00451503,-0.00429798
0.0129776,-0.000817948
0.0130162,0.0046439
0.00830811,0.00110169
0.0118923,-0.0114943
0.0137531,-0.0258378
0.0111717,-0.0216353
0.0168583,-0.00432347
0.0152468,0.00402789
-0.0100638,0.00523908
-0.0321551,0.0125812
-0.0334645,0.0147721
-0.0232694,0.00124221
-0.0102511,-0.0120096
0.00116342,-0.0110136
0.0209459,-0.015433
0.0181165,-0.00775703
0.00819885,0.00352463
0.00882197,0.0092496
0.00599893,0.00408117
-0.0173567,0.00308763
-0.0307408,-0.00536633
-0.00603499,-0.0165149
0.00515679,-0.0139811
0.00559204,-0.000547268
0.00458041,0.00212333
-0.00341535,0.00175406
-0.00837259,0.00967493
-0.00401957,0.0128751
0.0116166,0.00118459
0.0129185,-0.00997065
0.00769094,-0.00351023
-0.000585724,-0.00123637
-0.00922084,-0.00181918
-0.00420141,0.0137076
0.00400725,0.00560895
0.00143275,-0.00512305
-0.00944978,-0.0149642
-0.0109575,-0.0204831
0.00200693,-0.0247032
0.0128149,-0.00916785
0.014248,0.0152253
0.0141924,0.0170897
0.00041047,0.0168319
-0.00713443,0.0245314
-0.00822406,0.023195
-0.0028537,0.00750593
0.00431589,-0.00418443
0.0187082,-0.00438107
0.0161585,-0.00952058
0.00455555,0.00304333
-0.0159949,0.013547
-0.0292456,0.00626044
-0.0290985,0.00950667
-0.0179089,0.0050997
0.00238066,-0.0167657
0.0192238,-0.0215916
0.0203444,6.06e-05
0.0146188,0.00775761
0.00712466,0.00349802
0.00171898,0.0040316
-0.000567467,0.00609568
0.0130771,0.000519469
0.0239516,-0.00460273
0.0157636,-0.00445154
-0.00156349,-0.0142787
-0.0178871,-0.00890171
-0.0292645,0.00395422
-0.0303613,0.00189434
-0.0111262,-0.0037913
-0.00387583,-0.011902
0.0023569,-0.0151625
-0.00887842,-0.0166741
-0.0158675,0.00157215
-0.00375728,0.00772238
0.00407234,0.0130197
0.00494357,0.0289192
0.0067755,0.0109505
0.0112961,0.000743055
0.00923755,-0.0072737
-0.0244438,-0.019622
-0.0248956,-0.00428146
-0.00598764,0.00480306
-0.0242206,0.00699109
-0.0698185,0.0122899
-0.0455847,0.0182061
0.00730442,0.0098622
0.0558285,-1.42e-05
0.0856741,-0.00521071
0.0837464,-0.0121209
0.0626291,-0.0107547
0.0296355,-8.92e-05
0.00117545,0.00639433
-0.021278,0.00429331
-0.0215078,0.00890511
-0.00923966,0.00584352
-0.0084779,-0.0113768
-0.0350094,-0.0320645
-0.041711,-0.0124846
-0.0268451,0.00735556
0.001986,0.00605991
0.0232876,0.00690808
0.0279833,0.00125064
0.0187768,-0.000134072
0.0018956,-0.00561336
-0.00437233,-0.0169744
0.00333491,-0.00813077
-0.00254667,0.00929214
-0.00788206,0.0107829
-0.00273695,0.000566014
-0.00526993,0.00295961
-0.00270286,0.00647412
0.0113416,0.00894861
0.0102142,0.00128356
-0.0204176,-0.00165003
-0.0444171,0.00339218
-0.030783,0.00835996
0.000382417,0.0102365
0.0198074,0.00885992
0.0315012,0.00395615
0.0147089,0.0060122
0.00779985,-0.00647203
0.00311993,-0.0185247
-0.00185773,-0.011563
-0.0119426,0.000229451
-0.00502346,-0.00501738
-0.00673261,-0.00654074
0.000723954,-0.00910641
0.00315025,-0.00721454
0.00340303,-0.00910207
0.0105369,-0.0421921
0.0226813,-0.010739
0.0200383,0.0420014
0.00777478,0.0175265
-0.000443104,0.00897502
-0.00763881,0.0134036
-0.0114289,0.00535957
-0.014824,-0.00176318
-0.0155543,-0.00968207
-0.016074,-0.00982152
-0.0180437,-0.000320004
-0.0112264,0.00979467
-0.00194299,0.0116657
0.00627688,0.0165705
0.0049526,0.0127078
-0.0018293,0.00503213
0.00749565,-0.0154795
0.00885892,-0.0233416
0.0088907,-0.0171087
0.00819634,-0.0112522
0.00776363,0.00170612
0.00149975,0.0131837
-0.0117825,0.0159195
-0.0273798,0.0140253
-0.0347198,0.00629953
-0.024385,-0.00972246
0.00288909,-0.0248578
0.011488,-0.0127974
0.0105933,0.0014761
0.0117246,0.00325267
0.00665417,0.00641736
-0.00369406,0.0148157
0.00106589,0.00801704
0.0173049,-0.0046726
0.0253953,-0.00538458
0.0210651,-0.00759901
0.0149905,-0.00350532
0.00739817,0.00456384
-0.00103533,0.00650803
0.000538958,0.00439672
0.00955105,0.00883632
0.00346722,0.00223093
-0.0208794,-0.0130162
-0.0211024,-0.011402
-0.0177973,0.00121156
-0.0101527,0.00248295
-0.00437371,0.00642966
0.00459701,0.00625924
0.0161178,0.00272205
0.0164134,0.00198889
0.0150475,-0.0018886
0.0025491,-0.00589061
-0.00866285,0.00236917
-0.0147565,-0.00608789
-0.0101689,-0.00858305
-0.00795151,0.00455552
0.00122658,-0.0211362
0.0049759,-0.0102136
-0.00189201,0.014263
-0.00467781,-0.00231097
-0.0307376,-0.00572963
-0.0575176,0.0151876
-0.0372574,0.0147755
0.00527777,-0.00177424
0.0294141,0.0193204
0.0435372,0.0219482
0.0455092,-0.00356291
0.0315389,-0.00654163
0.00611373,0.00554067
-0.00313958,-0.0122507
-0.00261206,-0.0144898
0.00100452,-0.00244983
0.00541776,-0.00701645
0.00321275,-0.00811868
-0.0050853,-0.00286499
-0.00310815,-0.00774922
-0.00748101,-0.0128727
-0.00930077,-0.00992898
-0.0031343,-0.000159151
0.00219641,-0.00313299
-0.000202521,0.005592
-0.00519839,0.0235955
0.00117457,0.00433462
-0.0382203,-0.00325447
-0.0668793,0.0156228
-0.0454688,0.0173127
-0.000458689,0.0152629
0.0385576,0.0112474
0.0545088,-0.00394922
0.0590004,0.00201481
0.0545778,0.0196522
0.0372365,-0.00787609
0.0148307,-0.0143716
0.000372418,0.0160856
-0.00802326,-0.0037769
-0.0078182,-0.0268444
-0.0100977,-0.0180404
-0.0126677,-0.00175489
-0.00869141,-0.004476
-0.00530095,-0.0377697
0.00903422,-0.00377258
0.0017329,-0.00890435
-0.000955414,0.00313188
-0.0095163,0.0175388
-0.018121,0.0164237
-0.0170359,0.0176953
-0.0148259,0.0162893
-0.00795967,0.0120449
-0.00853203,-0.00589136
-0.0074441,-0.0101184
0.000630068,-0.00638252
0.000293833,-0.02346
-0.00281541,-0.0166198
-0.0081089,-0.0167053
-0.00176572,-0.0106077
0.00955113,0.0143969
0.0104281,0.0489562
0.0136361,0.0261341
0.00682026,-0.0253048
-0.0105807,-0.0602285
-0.0069011,-0.0161032
0.0014622,0.0182191
0.00286963,0.0300071
-0.00227065,0.0271201
-0.00704775,0.00782536
-0.0129056,0.00178435
-0.0139982,-0.00038803
-0.0124907,-0.00346148
0.00130779,-0.00258843
0.0118076,-0.00133357
0.00577215,-0.00272066
-0.00242248,-0.0177124
0.000489738,-0.0222882
0.00552685,-0.0140858
0.00445027,-0.0120501
0.0141926,-0.000797128
0.0238132,0.00750744
0.00536249,0.024844
-0.00516037,0.0256806
-0.0134128,0.00916536
-0.0137484,0.00324034
-0.0133914,0.00849762
-0.0104497,-0.00123283
-0.00494446,-0.000550825
-0.00381285,-0.00374111
0.00476307,0.000127129
0.0065638,0.00141314
0.00632628,-0.00676321
0.0149915,-0.0137034
0.0237904,-0.016846
0.0181342,-0.00739519
0.00887614,-0.00230391
-0.0225929,0.00312843
-0.0497618,0.0102249
-0.0421931,0.0122142
-0.0187837,0.0125758
0.00756101,0.0115169
0.0311804,-0.00148281
0.0422179,-0.021853
0.029818,-0.0173186
0.0118399,-0.00446548
0.00614291,-0.000375259
0.00577783,-0.00148578
-0.00850604,-0.00187226
-0.0202088,-0.00640733
-0.00319451,-0.0220005
0.00927697,-0.0186207
0.0179086,-0.0135984
0.0258442,-0.0118283
0.0195819,0.000588378
0.00700867,0.0128205
-0.00533975,0.021976
-0.0149768,0.0306202
-0.0216147,0.032849
-0.0191548,0.0230871
-0.0143089,0.0153133
-0.0127223,0.0209378
-2.25e-05,0.0210679
0.00926473,0.013446
-0.00362478,0.00917556
-0.0139131,-0.00149476
-0.00702918,-0.0116511
-0.0063682,-0.0394087
-0.00235221,-0.0144996
-0.00100167,0.016768
-0.0086228,0.0158649
-0.00917088,0.0146034
-0.00584011,0.00907332
-0.0021921,0.000273929
0.000983496,0.00947147
-0.000757448,0.00244318
0.00265038,-0.0127034
0.0086152,-0.0147523
0.00309225,-0.00941986
-0.002091,-0.00978303
-0.030181,-0.0104746
-0.0840342,-0.0072142
-0.0752896,-0.00863747
-0.0175376,-0.018192
0.039618,-0.0228684
0.069303,-0.0146173
0.0774875,-0.00715169
0.0552293,0.00153947
0.0150448,0.010137
-0.0109997,0.0135941
-6.75e-05,0.00924353
0.0238218,0.0194915
0.0474169,0.00857313
0.0804318,-0.0148162
0.103085,-0.0118607
0.0872406,0.000383715
0.0367224,-0.00451671
-0.0098272,-0.00519524
-0.0437126,-0.00231051
-0.0694098,-0.0136491
-0.0750027,-0.0242921
-0.0769692,-0.0134256
-0.0814575,-0.0165599
-0.0781911,-0.0147593
-0.0705744,-0.00187937
-0.0510868,0.00879698
-0.0257324,0.0220545
-0.0221613,0.0369611
-0.0227521,0.0242392
-0.0102671,0.0024377
-0.00242397,-0.00462874
-0.00657928,-0.00112024
-0.00785561,-0.0038213
0.00462552,-0.00425913
0.0454851,0.00188734
0.114996,0.0115119
0.137242,-0.00297229
0.145115,-0.0109413
0.112813,-0.0146014
0.0705449,-0.0175306
0.0413943,0.00116025
-0.00118819,0.0187222
-0.0581831,0.0133515
-0.104893,0.00186004
-0.136239,-0.0046193
-0.141721,-0.00520094
-0.09503,-0.0174535
-0.0226368,-0.0128566
0.0269156,-0.000525282
0.0188191,0.00400843
-0.00252626,0.00873677
-0.0302042,0.0193316
-0.0332213,0.0243682
0.057882,0.0100953
0.145756,-0.00599966
0.125907,-0.00044123
0.0405501,0.00625748
-0.0383621,0.0106793
-0.0535973,0.0152677
-0.0484632,0.00981022
-0.0465339,0.00854762
-0.00923122,0.00140856
0.0706756,-0.0120024
0.0768324,-0.0147258
0.00830352,-0.024568
-0.073692,-0.0174686
-0.0856975,0.00365824
-0.0617128,0.00971827
-0.0565366,0.0111188
-0.0654738,0.0067718
-0.0589985,-0.00882484
-0.0250229,-0.0141771
0.000257312,-0.00690294
0.0148332,-0.00265852
0.0198268,0.00585732
0.0251466,0.01051
0.0272155,0.00558371
0.0303997,0.00250369
0.0506752,-0.000549575
0.043976,-0.00858888
0.0106329,-0.00980924
-0.00575856,0.0043701
0.0196372,0.00748113
0.0616961,0.00300446
0.131832,0.00362561
0.121485,0.00678363
0.105457,-0.00515639
0.106794,-0.0177774
0.0693064,-0.00297618
0.0109643,-0.00313309
-0.0723621,0.00295943
-0.133985,0.0264235
-0.173968,0.0144868
-0.157319,-0.00729507
-0.128061,0.000752661
-0.096079,0.00416933
-0.0499628,-0.00980745
-0.0135226,-0.00940598
-0.0163208,-0.0093324
-0.017004,-1.7e-05
0.0200352,-0.000394066
0.0755407,0.00563252
0.0956115,-0.000845464
0.097363,-0.025279
0.0623414,0.00375279
0.0297599,0.00871053
0.0223243,-0.00736209
-0.018707,-0.00258578
-0.0769396,0.00500742
-0.0801249,0.00267462
-0.0332223,-0.0019637
0.00209525,-0.000321822
0.0168063,-0.00645331
0.0165361,-0.013146
0.0068948,-0.00662152
-0.00179341,0.00440372
-0.00736114,0.00613427
-0.0113791,0.00578575
-0.0131909,0.0102741
-0.00990221,0.0105116
0.00308653,0.00220673
0.0163835,-0.00553178
0.0357911,-0.00773959
0.0487543,-0.00620594
0.0543034,0.0075962
0.0492493,0.0112111
0.0367543,0.0145921
0.0277285,0.0131224
0.023268,0.00418892
0.0131697,-0.0164428
-0.0249263,-0.0246362
-0.0550242,-0.0132192
-0.0709628,-0.0109013
-0.0840679,-0.00564916
-0.0866466,0.00669848
-0.079179,0.00199811
-0.0681454,0.00172424
-0.0485491,-0.0319699
-0.0271656,-0.0721269
0.00106604,-0.0519469
0.0427585,0.00770927
0.0767025,0.0352039
0.098261,0.0540323
0.101468,0.0648721
0.0898446,0.0607796
0.0741872,0.041611
0.0565884,0.0211556
0.0368206,0.00672106
0.0130227,-0.00507688
-0.0123748,-0.00431871
-0.02404,-0.00670255
-0.00119302,0.00219245
0.0107604,0.00528899
-0.00841102,-0.00534702
-0.0322581,-0.0171562
-0.0657707,-0.0155094
-0.0835845,-0.0224471
-0.0902576,-0.0345756
-0.0848573,-0.03678
-0.0354061,-0.0282206
0.0552933,-0.0205437
0.105931,-0.016074
0.0980343,-0.0147796
0.0676668,0.0213067
0.00963454,0.0395212
-0.0489746,0.0369929
-0.0746358,0.0365929
-0.0646641,0.0290788
-0.0526923,0.0121011
-0.0246736,0.00801794
0.0073394,-0.0115197
0.0280092,-0.0367343
