Comp Ch 3,Comp Ch 4
-0.00883444,0.0171665
-0.00621512,-0.00114115
-0.0114717,-0.0168269
-0.0132175,-0.00752347
-0.00675125,0.00633567
-0.00332173,0.0130694
0.001586,0.0103953
0.00564636,0.0117742
0.00526917,0.00879985
0.00494012,0.00495222
0.00369302,-0.00963697
0.00286016,-0.0202226
-0.00160027,-0.0101893
0.00172419,-0.00256848
0.00729353,-0.00168053
0.0192294,0.00892306
0.0547799,0.0111785
0.0742636,0.00776603
0.0676839,-0.00401711
0.0405744,-0.0105049
-0.0192872,-0.00590082
-0.0481388,-0.0087499
-0.00758071,-0.00477247
0.0376167,0.00753603
0.0443379,0.00686861
0.0203214,0.00511582
-0.00633795,0.00161329
-0.0517544,-0.0142324
-0.0953345,-0.0209182
-0.0998614,-0.00362423
-0.0922797,0.00180106
-0.0510813,0.00511034
-0.0236254,0.0154325
-0.0118132,0.0157147
0.000324612,0.00226743
0.00987815,-0.015861
0.0158047,-0.017453
0.0185175,-0.0123575
0.0171555,-0.00689136
0.0136068,0.00306195
0.0100222,0.00537669
0.0140239,0.000809051
0.0175137,0.00174359
0.0204433,0.0145329
0.0260355,0.0140305
0.0272097,0.0182424
0.0219643,0.00740679
0.015576,-0.0113842
0.0107673,-0.0171652
0.00764707,0.00694334
0.00363617,0.0128413
-0.00652357,-0.00746704
-0.0178369,-0.00936256
-0.0386172,-0.0128145
-0.0490314,-0.0246289
-0.0295719,-0.00391306
-0.001667,0.0145916
0.0361183,0.0201421
0.0625019,0.016217
0.0597563,0.0126342
0.0446456,0.000992553
0.0265293,-0.0144038
-0.00259263,-0.018123
-0.0183286,-0.00467786
-0.0143775,0.010793
-0.00911001,0.016504
-0.0104399,0.0176329
-0.0102445,0.00907438
-0.0086447,-0.0100369
-0.00667828,-0.0182663
-0.00779068,-0.0164871
-0.00551082,-0.0153047
-0.00212824,-0.00310212
-0.000195209,0.0115614
-0.00188981,0.00605972
0.00433066,0.00827786
0.00926125,-0.00422804
0.0103612,-0.0339668
0.000870789,-0.0242087
-0.0107294,0.00131505
-0.0204129,0.00541889
-0.0495471,0.00296459
-0.0951755,0.0143087
-0.0858157,0.0211596
-0.0317384,0.00830166
0.0260929,-0.0079219
0.0608216,-0.00349449
0.0854779,-0.00767435
0.0799073,-0.0130133
0.0233042,0.00170876
-0.0347565,0.0201833
-0.0606146,0.0123648
-0.0352192,0.000804411
-0.00298689,-0.00509053
0.0231249,-0.0260292
0.0147262,-0.0218096
-0.00140698,-0.00434225
0.00890404,0.0139697
0.0279008,0.0133495
0.0525701,0.0170312
0.063862,0.0201208
0.0621465,0.0138577
0.0435731,0.0173158
0.0167996,0.0225636
0.00159191,0.0287038
-0.026446,0.00653887
-0.0548684,-0.0641103
-0.0696278,-0.087298
-0.069833,-0.0657023
-0.0270655,-0.0239922
0.0116738,0.00764177
0.00724789,0.00187396
-0.00133378,-0.00287627
0.00517183,0.0226439
0.0126393,0.0470264
0.0070515,0.0398881
0.0234737,0.0388353
0.0131891,0.0475743
-0.0122586,0.0184267
-0.0757797,0.00305117
-0.127041,0.00701328
-0.0868888,0.0105706
-0.0131978,-0.000913213
0.0396553,0.00260294
0.0707878,0.0172881
0.0900953,0.0110737
0.0698885,-0.0054047
0.0388661,-0.0199464
0.013911,-0.0125851
-0.0116264,0.00439898
-0.014165,0.00662239
-0.0043902,-0.00751741
-0.0014869,-0.00234885
0.00749429,0.00395823
0.0131692,-0.011297
0.0336479,-0.0348272
0.0316092,-0.0353751
0.0121721,-0.0273493
0.00637394,-0.0221037
-0.00334475,-0.0119376
-0.0114086,0.0038128
-0.0108413,0.00781251
-0.0299147,0.00253192
-0.054663,-0.0019356
-0.0425544,-0.0145803
0.00254663,-0.00182364
0.0141299,0.0193141
-0.0441467,0.0171437
-0.162825,0.00532503
-0.225514,0.00141074
-0.155795,0.00152727
-0.0567627,-0.00133535
0.0496178,-0.0352173
0.158148,-0.0492713
0.197807,-0.0343086
0.157628,0.00500257
0.0884821,0.0405475
0.0631425,0.041134
0.0530297,0.0140366
0.0126681,0.0227927
0.0217231,0.0343238
0.035882,0.00391524
0.0322862,-0.00811397
0.0196828,-0.00162396
0.02383,0.00384799
0.0209712,0.00608343
-0.00788586,0.00548742
-0.0421128,-0.000283656
-0.070245,-0.0231172
-0.0601235,-0.0281553
-0.0118971,-0.0192163
0.00336655,-0.0260701
-0.01906,-0.007717
-0.0338616,0.0112364
-0.0338305,0.0128588
-0.0245744,0.0169288
-0.0096654,0.0161716
-0.003815,-0.00805094
0.00404316,-0.0172014
-0.00203255,0.00839828
-0.0172683,0.0202277
-0.00936853,0.0167036
0.0289232,0.012973
0.0778247,0.00202133
0.0827657,-0.0063795
0.0412266,-0.0243619
-0.0126736,-0.0173864
-0.0478309,-0.016554
-0.0513125,-0.00819288
-0.0559147,0.00271747
-0.0712567,-0.00024496
-0.0792635,0.0126481
-0.049285,-0.0231095
-0.0113689,-0.0289724
0.0174737,0.0288949
0.0256264,0.0241035
0.0326711,0.0169757
0.041811,0.0151794
0.047233,0.0163595
0.043093,0.0201786
0.0308427,0.016323
0.0133205,-0.00396852
-0.00589259,-0.0219712
-0.00952084,-0.0121523
-0.0120987,-0.00863117
-0.027312,-0.011613
-0.0238559,-0.000875678
-0.0132616,0.0107562
-0.00557849,0.0111855
0.00116279,0.00915819
0.0113232,0.00230049
0.0235416,-0.01988
0.0292757,-0.0161814
0.0349842,0.00654494
0.037304,0.00924654
0.0134336,0.00681379
-0.0478756,0.00588981
-0.0518819,0.00744693
0.000435419,-0.0114487
0.0442389,-0.0285947
0.054424,-0.0135144
0.0308774,-0.00580139
-0.0873893,-0.00519809
-0.177611,0.00403272
-0.132797,0.00156363
-0.0305866,-0.00657647
0.0275994,0.00625442
0.0770794,-0.00636723
0.0936471,-0.0104319
0.0423637,0.011294
-0.0380643,0.00244591
-0.00969912,0.0195067
0.0267042,0.040088
0.0485058,0.026343
0.0783608,0.00676679
0.0672703,-0.0157513
0.00750409,-0.0226178
-0.0277258,-0.00974063
-0.0171741,-0.0103849
-0.0049833,-0.0167408
0.000436453,0.00909229
-0.00831439,0.014056
-0.0173451,0.0131441
-0.0122348,0.00529754
-0.021601,-0.0146126
-0.0344958,-0.0189659
-0.0541092,-0.00244123
-0.0570232,0.0100628
-0.00813589,0.0135483
0.0406383,0.00870205
0.0471082,-0.00105763
0.0516406,-0.00592184
0.0361173,-0.015949
0.000600219,-0.00623868
-0.0092757,-0.00814218
0.0018977,-0.00978317
0.0127782,0.01034
0.0117043,0.0168949
0.00310819,0.0153956
-0.00352196,0.0153082
-0.00393996,0.000373148
-0.00450892,-0.0179386
-0.00419941,-0.0116255
0.00156526,0.000405963
0.0090776,0.00388113
0.0101728,0.00363142
0.00380881,0.0158822
-0.00462519,0.0149688
-0.0140379,-0.00618352
-0.0266722,-0.0195871
-0.0309798,-0.0137639
-0.0373675,-0.0160302
-0.0373274,-0.00561865
-0.0222419,0.0054132
0.0017698,0.0120166
0.012325,0.0118051
0.0191286,0.00562377
0.0294843,-0.00924744
0.0224191,-0.0178625
0.0324946,-0.0103169
0.0561906,0.0049827
0.0354206,0.00921883
0.00952869,0.00154661
-0.0140812,0.00767051
-0.0274426,0.00269902
-0.0347394,-0.0208384
-0.0296367,-0.0230106
-0.0219684,-0.0133173
-0.0181976,-0.0118852
-0.0238805,-0.00385736
-0.0357344,0.0232783
-0.0385391,0.0198057
0.00137828,0.0164784
0.0395369,0.0132504
0.0405667,-0.00381047
0.028731,-0.00965279
0.0152921,-0.000346003
0.00674537,0.00866706
-0.00140543,0.00435669
-0.0231524,0.00407426
-0.0327455,0.0082244
-0.0172401,-0.00565019
0.00802216,-0.0152158
0.027299,-0.00822743
0.0313215,-0.0032111
0.0154032,0.00277055
0.0122179,0.0118585
0.00914701,0.0155787
-0.00139854,0.00680928
-0.0142378,0.00437816
-0.0110095,0.00103479
-0.00547623,-0.0174905
-0.00262272,-0.0143091
-0.00135282,-0.0019677
-0.00659359,-0.0035014
-0.00389084,0.00820431
0.00287705,0.020505
-0.000216419,0.00877637
0.00357742,-0.00828312
0.0157834,-0.0138627
0.00666759,-0.00600973
-0.00668446,-0.000741383
-0.00444978,0.00247093
0.00201806,0.00507973
0.00607001,0.00476515
-0.000772637,0.00198594
-0.00986273,0.00608229
-0.00395571,-0.0213628
0.0121853,-0.0211144
-0.001631,-0.0184335
-0.0288996,-0.0056204
-0.0207745,0.0118628
-0.00714388,0.01765
-0.00850936,0.0144213
-0.00196513,0.00199282
0.0063544,-0.0109974
-0.00435995,-0.013749
-0.00742803,-0.00770879
0.00640058,-0.00692692
0.0264111,0.00288378
0.0283581,0.00992932
0.0093637,0.00143629
-0.0204906,-0.00769098
-0.0386527,-0.00812142
-0.0164922,-0.0121232
0.00948463,-0.00395614
0.0315083,0.0152425
0.0481355,0.0242375
0.0417268,0.0249604
0.0238744,0.0278757
-0.00101191,0.018677
-0.000731029,0.0133322
0.0167685,0.000793303
0.017992,-0.00475887
-0.00329152,-0.00291454
-0.0161138,-0.00437936
-0.0215297,-0.00577462
-0.0698698,-0.0033456
-0.0796641,-0.00591648
-0.0394162,-0.00121264
0.00236621,-0.0224185
0.0426789,-0.0379168
0.0681124,-0.0184478
0.0759407,-0.0053683
0.0376121,0.0013728
-0.0132853,0.0118454
-0.0289706,0.0144121
-0.0235539,0.0129394
-0.0164712,-0.00269063
-0.00524937,-0.0432003
0.00772376,-0.0170292
0.0159503,0.0035134
0.00865936,0.00541542
-0.0144679,0.00863958
-0.0186665,0.0185551
-0.00657784,0.0193095
-0.00708196,0.00665015
-0.0120936,-0.00231296
-0.022974,-0.00501295
-0.0281782,0.0175919
-0.0261093,0.0361863
-0.0192033,0.0207383
-0.0186879,0.0142017
-0.0232782,0.0126418
-0.00249645,0.00103045
0.0333983,-0.0236538
0.0281214,-0.0316358
0.00962065,-0.0234641
0.00732894,-0.0129425
0.0118998,0.00248785
0.0135394,0.0188884
0.018396,0.0216437
0.01784,0.0133236
0.0122616,0.00127522
0.00244405,-0.0179092
0.0138846,-0.018041
0.0121146,-0.00162726
5.85e-05,0.00155622
-0.00776866,0.00649842
-0.0155338,0.0164778
-0.0297219,0.016643
-0.02206,-0.0102706
-0.0176559,-0.0284192
-0.0126251,-0.0221381
0.00430986,-0.0147801
0.0103293,-0.00605712
0.0123113,-0.00344572
0.0215217,-0.00721537
0.0143955,-0.013919
0.0117591,-0.00601966
0.0227745,-0.00775644
0.041755,-0.0102993
0.0538944,0.00311348
0.046366,0.00768331
0.0257427,0.0150251
-0.00518006,0.0218372
-0.0492429,0.0236489
-0.0898635,0.0219837
-0.0843745,-0.0103483
-0.0624107,-0.0391047
-0.034091,-0.0152116
0.00272952,-0.0090405
0.0323136,-0.00768046
0.0307264,0.00764513
0.0149388,0.0204852
0.00948641,0.0165689
0.00529986,0.00618643
0.00429741,-0.00410744
0.00466333,-0.00154765
0.0032838,0.0138462
0.00423657,0.0216639
0.00355915,0.0171379
0.00467151,0.0192813
0.00100009,0.0275628
0.00157833,0.00136768
0.00796006,-0.0344328
0.0134095,-0.0439879
0.00967246,-0.0384918
0.00723818,-0.0236724
0.00278162,-0.00643489
-0.00509301,0.0138632
-0.000754336,0.0174423
0.00296233,0.0171419
-0.0115394,0.00701681
-0.0227293,-0.0154774
-0.0246443,-0.0178949
-0.0223143,0.00327941
-0.0102124,0.0125527
-0.00332665,0.0187816
-0.00070463,0.0305246
0.00357785,0.0344205
0.0171195,0.00961344
0.0270733,-0.0121306
0.0195263,-0.0266823
0.0134303,-0.0399725
0.00991378,-0.0180712
-0.00407805,-0.00348685
-0.0118505,0.00915919
-0.00604421,0.0101147
-0.00101962,0.00924264
0.000591611,-0.00223418
0.0266508,-0.0317017
0.0317355,-0.0144848
0.00639224,0.0196156
-0.0196488,0.00630187
-0.032167,0.0186269
-0.0402868,0.0349128
-0.0227507,0.0255982
-0.0159856,-0.00503509
-0.00508927,-0.0516025
-0.00902141,-0.0428928
-0.0179111,-0.0211567
-0.00656936,-0.0185276
0.00564508,0.0132148
0.0101648,0.0111919
0.044702,0.0142018
0.0719986,0.0284916
0.0656548,0.00771039
0.0277543,-0.00952412
-0.0223155,0.00276533
-0.0611442,0.0309224
-0.121072,0.0350745
-0.133767,0.0273952
-0.0737422,0.0239731
-0.0101228,0.0112129
0.0506038,-0.0163283
0.125625,-0.0417981
0.15886,-0.0360849
0.117603,-0.0288771
0.0497075,-0.0148192
-0.007259,0.00156321
-0.040768,0.00724215
-0.0468425,0.00736795
-0.0310887,0.00530406
-0.0189024,-0.0187555
-0.02448,-0.0169967
-0.0219543,0.0187
-0.00893993,0.0319396
-0.00485564,0.0232498
-0.0202826,0.0169116
-0.0420957,0.0253553
-0.0390189,-0.000264175
-0.00279265,-0.0282085
0.0417048,-0.0273452
0.0624047,-0.022628
0.0629899,-0.0169275
0.0312775,-0.00296534
-0.0210023,0.00712111
-0.0593452,0.000828622
-0.0625081,0.000640907
-0.0467783,-0.00765521
-0.0100613,-0.0252839
0.0253249,-0.00916576
0.028504,0.018769
0.0186064,0.0250821
0.0148874,0.0192519
0.0251911,0.0258854
0.0629558,0.0242256
0.0742652,0.000366921
0.0629615,-0.0202792
0.0322446,-0.0359073
-0.0152372,-0.0358693
-0.0517247,-0.0173679
-0.0797199,0.00798966
-0.0840453,0.0156888
-0.065353,0.0197798
-0.053659,0.0106702
-0.0460726,-0.0242996
-0.0269558,-0.0358501
-0.00461509,0.0240596
0.0289983,0.0364338
0.0280235,0.0263908
0.0205739,0.0162945
0.0120728,-0.0108049
-0.000384356,-0.0459704
-0.0045847,-0.0495529
-0.00954577,-0.0306724
-0.00553739,-0.00864056
0.0123502,-0.00452063
0.0307826,0.0149766
0.0351117,0.0511428
0.0561783,0.0552016
0.0646791,0.0371405
0.0392767,0.0120502
0.00654163,0.00919891
-0.0248211,0.0162619
-0.0333018,0.0221725
-0.0102536,-0.00110186
0.039403,-0.0221695
0.0618051,-0.0213694
0.042988,-0.0656558
0.0205483,-0.0608432
-0.0118231,-0.0317069
-0.0713229,-0.0216762
-0.0985203,-0.00794622
-0.108152,0.0120186
-0.0964965,0.0309397
-0.0589854,0.0377826
-0.0399165,0.0373466
-0.0298776,0.0239571
0.0042812,0.0117092
0.034212,0.00085254
0.0315655,0.0104128
0.0243028,-0.0195909
0.0681456,-0.00165665
0.14056,0.0140174
0.137457,0.00291694
0.0831425,-0.0273647
0.00973592,-0.0476073
-0.0496038,-0.0535339
-0.0517134,-0.0560978
-0.0102959,-0.0166783
-0.0121823,0.0178981
-0.0313254,0.0144438
-0.041755,0.00139139
-0.0390627,0.0236556
0.0425856,0.00582749
0.10759,0.00338253
0.108766,0.0236143
0.0638188,0.0351846
-0.00799118,0.0426089
-0.0624657,0.0297642
-0.144999,0.00754453
-0.255061,0.00759511
-0.218274,-0.0210595
-0.120609,-0.0118033
-0.055066,0.0142342
-0.0120066,-0.00930388
0.0426618,0.0250612
0.090137,0.0444964
0.0872153,0.0365343
0.0850008,0.0430778
0.0600414,0.028268
0.0306276,-0.00166223
0.020917,-0.0113114
0.0329733,-0.00332864
0.0454742,-0.00326793
0.0404807,-0.00747235
0.0449995,-0.00674683
0.0422312,-0.0127129
0.0598964,-0.0392817
0.0749888,-0.0660404
0.107178,-0.0503501
0.102241,-0.0333017
0.054901,-0.0223691
0.00403462,0.00315575
-0.0610884,0.022456
-0.119079,0.025645
-0.160943,0.00404956
-0.146038,-0.00220503
-0.119726,-0.00750936
-0.0761108,-0.0161723
0.00709249,-0.00499986
0.0687414,-0.0254668
0.0563853,-0.013432
0.0461241,0.0162008
0.0333432,0.0235563
-0.0271283,-0.00165835
-0.0607847,-0.0244404
-0.0378982,-0.0213665
-0.0119391,-0.0180383
-0.000355173,-0.0174057
0.00732071,0.00417399
0.0249799,0.0396234
0.0336089,0.0487877
0.0326827,0.0393766
0.0331618,0.01065
0.0217323,-0.0196016
0.00265994,-0.0185778
-0.0197412,-0.0256166
-0.0333804,-0.0334809
-0.0161913,0.00964361
-0.000976667,-0.0024518
0.00871434,0.0154647
0.0161889,-0.00728417
0.0192696,-0.0286918
0.0121446,-0.0112405
0.00521347,0.003863
0.00310895,0.0203802
0.00372114,0.0316789
0.00474946,0.0293828
-0.00508925,0.0157808
-0.0134894,0.0150821
-0.0023428,-0.000166314
-0.000777952,-0.0185856
-0.00090183,-0.0126759
0.000287808,0.00258117
-0.0043892,0.00507464
-0.0143925,0.00520175
-0.0205419,0.00177892
-0.0155134,-0.0108753
0.00209153,-0.0270686
0.0216121,-0.0157362
0.0180667,-0.00257858
0.00297118,0.00505713
-0.010325,0.0218084
-0.00694614,0.031032
0.00658801,0.0126068
0.0539405,0.0097078
0.143022,0.00201043
0.14111,-0.0183106
0.0569257,-0.00448462
-0.0430018,0.015272
-0.0834215,0.00713331
-0.0789423,-0.00557953
-0.0821488,-0.0139057
-0.0528356,-0.00648103
-0.0175231,-0.0185185
0.00386367,-0.030039
-0.00912936,-0.0179327
-0.0225561,-0.00815961
-0.0253171,0.0463615
-0.0379451,0.0443117
-0.0581046,0.0293228
-0.0444014,0.0294338
-0.0311507,0.0206551
-0.0341012,-0.0124756
-0.0300684,-0.0382417
-0.0165288,-0.0310069
0.00644418,0.00941584
0.0149386,-0.00917704
0.0118934,-0.0254817
0.0232033,-0.00300177
0.0426472,-0.0186985
0.0605721,-0.0251989
0.0602797,-0.00837497
0.0300362,-0.0079792
0.00391367,-0.000961836
0.0311782,0.0246638
0.0316839,0.0426989
0.00711914,0.0470857
-0.000185388,0.0366955
0.0164943,-0.00155243
0.0249526,-0.0182772
0.0175112,-0.0308271
0.0312407,-0.0329314
0.106912,-0.0420711
0.135388,-0.0116341
0.0916495,0.033468
-0.0343533,0.030347
-0.142788,0.0221597
-0.158935,-0.0333856
-0.148644,-0.0293003
-0.134064,0.00151351
-0.0734191,0.00564025
-0.0171368,0.0116939
-0.000185478,0.026282
0.0034732,0.0275975
0.0036944,0.0210588
0.00835214,0.00260606
0.00992422,-0.0312995
0.0136929,-0.0265882
0.0223109,-0.00531235
0.0290374,-0.0230967
0.0272647,-0.0221963
0.0388881,-0.0137388
0.0430712,-0.0282504
0.0470913,-0.0120937
0.0493584,-0.0395313
0.0303221,0.00519806
0.00139674,0.0530757
-0.00875339,0.0424283
-0.0103841,0.031595
-0.00815729,0.0418713
0.00260219,0.0258054
-0.00207304,0.0138977
-0.0129854,-0.0147138
-0.0197323,-0.0369867
-0.0131697,-0.0350993
0.000841217,-0.0153854
0.000119058,0.0136173
-0.0201779,0.00841422
-0.0266641,4.1e-05
-0.00881895,-0.00340986
0.0266914,-0.00981655
0.0759451,-0.00588258
0.0822878,0.014625
0.0481847,0.0151175
0.0121191,0.0193907
-0.018047,0.0313912
-0.0379516,0.0292293
-0.0554084,0.0117465
-0.0742675,-0.00748421
-0.0654178,-0.0340518
-0.0300795,-0.0371637
0.0121737,-0.00770659
0.00887243,-0.00153136
-0.0179684,-0.00130565
-0.0211863,0.014964
0.000209265,-0.0126391
0.0124204,-0.0233989
0.0143709,-0.025544
0.0246724,-0.00257329
0.0168856,0.00426071
-0.0190803,0.0030471
-0.016094,0.0133859
-0.0222287,0.00861417
-0.0246237,0.00218839
0.0114457,-0.00592022
0.0472919,0.0136889
0.04992,0.00372562
0.0330806,-0.0136036
0.0501179,-0.0118377
0.0509561,-0.00773736
0.0207832,-0.0060358
-0.0119622,-0.00744792
-0.0329874,0.00486406
-0.0315318,0.0120964
-0.0389962,-0.00680294
-0.0497398,-0.0146691
-0.0392166,0.00628595
-0.0102377,0.0231007
0.00317169,0.0199839
0.0140937,0.0152922
0.0355561,0.0243539
0.0337008,0.013479
0.01522,-0.0152248
0.0165513,-0.0286201
0.011163,-0.0237125
0.0173263,-0.0054127
-0.00370319,-0.0155693
-0.0447831,-0.0141327
-0.0419063,-0.00175241
-0.00370128,0.0223247
0.00726613,0.0129967
-0.0149396,0.00530027
-0.0273291,-0.00334945
-0.024002,-0.00231716
-0.0102723,0.0264627
-0.00307512,0.0290601
-0.00049279,0.0253587
-0.00514951,0.0138068
-0.0197794,-0.00337671
-0.0186282,-0.0207897
-0.0147797,-0.0361592
-0.0110443,-0.0184262
-0.00423062,-0.0148374
-0.00450657,-0.000225049
-0.000951038,-0.000765113
0.00594159,-0.00208292
0.0178059,-0.00957699
0.0366273,-0.00684101
0.0577303,-0.00788462
0.0819122,0.0109857
0.0799068,0.0219961
0.0632391,0.0207103
0.0506351,0.0242666
0.0291358,0.0179733
-0.00613096,0.0122174
-0.0455835,-0.00341798
-0.0519346,-0.0359965
-0.05959,-0.0426412
-0.0636986,-0.0170767
-0.0481999,-0.00199944
-0.0278657,-0.00312116
-0.0368931,0.00327748
-0.0920952,0.00699744
-0.0795996,0.00199893
-0.0165694,4.91e-05
0.0361213,0.00108928
0.0706407,0.00673015
0.0943499,0.0157012
0.0754513,0.0269902
0.0358398,0.0222805
0.00875178,0.0162121
-0.00311566,0.0116287
-0.00892161,-0.0117787
-0.0138855,-0.0340574
-0.0187705,-0.026866
-0.00744497,-0.0350924
0.0153073,-0.024987
0.0183879,0.00429906
0.0150819,0.00018215
0.0229825,0.0140665
0.0188298,0.0119917
0.00593996,-0.00279602
-0.00740983,0.00219204
-0.0124504,0.00464817
-0.00918665,0.0109516
-0.00873023,0.0209772
-0.0169268,0.0263653
-0.0287515,0.0148235
-0.0318613,0.00453254
-0.0100645,-0.0150956
0.0211999,-0.0256924
0.0309989,-0.0152058
-0.00531103,-0.010178
-0.0402291,-0.0113
-0.0478282,-0.00842294
-0.0141297,0.0164937
-0.00298514,-0.0050036
-0.0245369,-0.0270883
-0.00549037,-0.00349003
0.0273417,0.00514396
0.0359106,0.000669724
0.0332395,0.0161266
0.027895,0.0260003
0.0279818,0.0175388
0.0130714,0.00401176
-0.00656099,-0.00692573
-0.00534994,-0.0233681
0.00531516,-0.0232461
0.00139099,-0.0109621
-0.0275891,-0.00985321
-0.040006,0.00771653
-0.0319712,0.00555518
-0.0123344,-0.000269099
0.00355337,-0.00684459
0.00600977,-0.0184018
0.0214656,-0.00478924
0.0433957,0.00668206
0.0398888,0.0193574
0.0138468,0.0349321
-0.0170855,0.035416
-0.0220746,0.0235953
-0.0170114,0.0119708
-0.0149336,0.00244856
-0.00190483,-0.0107716
0.0104637,-0.0135368
0.010187,0.00593475
0.00897051,0.0151247
-0.00028342,0.00994245
-0.00744144,0.0125981
-0.00473302,0.0203145
-0.00573766,-0.013046
-0.0132547,-0.0409838
-0.0111506,-0.0440367
-0.00980075,-0.0169355
-0.00415806,0.0145452
0.00100365,0.0170631
0.00730077,0.0313942
0.0115456,0.0184906
0.00983369,0.00159857
0.00276304,-0.020254
-0.00174296,-0.0369626
-0.0102574,-0.0189022
-0.0438534,-0.0105958
-0.100437,-0.0167781
-0.0778219,0.00819641
-0.0112738,0.0170655
0.0464403,0.0045324
0.079241,-0.0218668
0.082072,-0.0206013
0.0694033,0.0124779
0.0361327,0.00318422
0.0104613,0.0147968
-0.000286762,0.0262536
-0.0117863,0.0175442
-0.00945463,0.00581284
-0.00634598,-0.0106851
-0.0145399,-0.0314606
-0.0202891,-0.0434796
-0.00232895,-0.010929
0.0188848,0.0017142
0.013138,0.00498731
0.00391546,0.00924803
0.000457714,0.0105068
-0.00128122,0.00358666
0.000912328,-0.00604444
0.00655464,-0.00132272
-0.00531595,-0.000137002
-0.0109766,0.00655853
-0.0119657,0.0114358
-0.00477496,0.0177622
0.000941488,0.0137528
0.00150935,0.00457115
-0.00056595,-0.0128933
-0.0108951,-0.0212615
-0.0112231,-0.0113922
-0.00681623,0.00726658
-0.00796073,0.00859858
-0.00315381,0.0118916
0.0110855,0.0162492
0.0178092,0.0169536
0.00814555,0.00407547
-0.00438052,-0.0117095
-0.0104321,-0.0116626
-0.00418658,-0.006197
0.00274543,-0.00495783
-0.00190839,0.0012178
-0.0163308,0.0128048
-0.0240234,0.0113089
-0.0304515,-0.00905228
-0.0226918,-0.0409972
0.00976423,-0.0272338
0.0275402,-0.00548374
0.0369027,0.00684978
0.0282078,-0.00237189
0.0112485,0.0120522
-0.0014845,0.0254486
-0.00196847,0.0170364
0.00453512,0.00266064
0.00303842,0.000350217
-0.00194826,0.00214227
-0.00350234,0.00452342
-0.00825602,0.0114781
-0.0105001,0.0150433
-0.00932651,0.00926914
-0.00707542,0.00435136
-0.00163118,-0.00458629
0.000708961,-0.0202921
-0.000565383,-0.0191929
0.00241231,-0.00259609
0.00784743,-0.0022017
0.0122742,-0.010607
0.00591354,0.00491072
-0.0056586,0.00868052
-0.00282631,-0.000622459
-0.00444275,-0.0166129
-0.00902119,-0.00991441
-0.00743821,-0.00399507
-0.00560984,0.00144738
-0.00572463,0.00901028
-0.00231229,0.018453
-2.36e-05,0.0165605
0.00194937,0.00692866
0.0248463,-0.0150435
0.0353161,-0.0349063
0.027299,-0.00848605
0.0151602,0.00708999
0.00179078,0.00758705
-0.0260743,0.0102884
-0.0369202,0.00647752
-0.021062,0.00547963
-0.0130851,-0.00574501
-0.0151486,-0.0232478
-0.00226882,0.00269591
0.0155896,0.0161062
0.0221031,0.025696
0.0215138,0.0269607
0.0142242,0.0214112
0.00597,0.00309367
-0.0254201,-0.0125859
-0.0604916,-0.0302686
-0.0517256,-0.0338756
-0.00719973,-0.0281941
0.0221956,0.000557187
7.28e-05,0.0164835
-0.0557292,0.00861004
-0.0518702,0.00628733
-0.00633657,-0.00406265
0.0425915,-0.0141
0.0595857,-0.0192187
0.0663165,-0.00633862
0.0603043,0.011675
0.0359941,0.00385596
0.0132456,0.019116
-0.0141773,0.0117133
-0.0224775,0.00978336
-0.00936661,0.00416162
0.00763442,-0.0122594
0.0169119,-0.0196271
0.0082559,-0.0018172
0.00447279,0.0054184
0.0103196,0.0127497
0.00415259,0.00825363
0.000730375,-0.0061416
-0.00619107,-0.0175581
-0.0147205,-0.0153936
-0.0242664,0.000773723
-0.0341639,-0.00907587
-0.0208965,0.00144122
-0.00524494,0.0171215
-0.00630072,0.00620133
0.00413249,0.028174
0.0286496,0.0410262
0.00975974,-0.00609222
-0.0111984,-0.0293252
0.00910176,-0.0110703
0.0370128,0.00559191
0.0216751,-0.00941131
-0.0110155,-0.0034788
-0.0235992,0.0220117
0.00565279,0.0134162
0.00915315,-0.0107388
-0.0210126,-0.0226036
-0.0302371,-0.0316553
0.00585576,0.00024376
0.00472256,0.0178836
-0.0221863,0.00845207
-0.0231409,-0.00490762
-0.00607745,-0.00384907
0.010425,0.000411092
0.0130036,-0.0143777
-0.00904013,-0.0173399
-0.0285638,0.000548312
-0.0186626,0.00606768
-0.00448101,0.00201293
0.0174491,0.0181613
0.0411139,0.0409793
0.0323903,0.00698395
-1.5e-05,-0.02984
-0.0309518,-0.0135456
-0.0345824,0.00718053
-0.0248007,0.000663912
-0.00407431,0.000821139
0.0015161,-0.0265579
0.00516445,0.0107692
0.0134368,0.0429538
0.0257648,0.0179882
0.0155486,-0.0190352
0.0069421,-0.0496466
-0.0150839,-0.0113771
-0.0240231,0.00211578
0.0180126,-0.00132688
0.0291154,-0.00141817
0.00309383,-0.00209281
0.0108806,0.01184
0.0258635,0.000753494
0.00667785,-0.00903714
-0.0244157,0.000558741
-0.016213,0.0241961
-0.00495723,0.0344071
-0.00699841,0.0246816
-0.00669902,0.023673
0.000606019,0.04004
-0.00397416,-0.0130807
0.0111407,-0.0669992
-0.00397746,-0.0338263
-0.0223723,-0.0129201
-0.0313801,-0.0139147
-0.0241986,-0.0157205
-0.000486122,0.0160153
0.0548752,0.0487028
0.0735317,0.0307964
0.0415938,0.00608822
0.0108309,-0.00711274
-0.0756415,-0.00893175
-0.112514,0.00775913
-0.0400876,0.0260512
0.0510074,0.00311653
0.0481022,-0.0111362
0.00724694,-0.0162489
0.0296889,-0.032611
0.0522957,-0.0363984
0.0496413,-0.0363543
0.044126,-0.0271722
0.0292784,-0.0193032
-0.00728297,-0.0129797
-0.0529122,-0.027129
-0.0686188,0.0347424
-0.0336111,0.0939156
-0.00646624,0.0727992
-0.0244437,0.0424403
-0.0312424,0.0487739
-0.0300528,0.0218247
-0.0144447,-0.00266004
-2.68e-05,-0.0743265
0.0394408,-0.107611
-0.0230462,-0.0590362
-0.0618651,-0.00900446
-0.0162873,0.0448694
0.0623956,0.132817
0.0929821,0.0805241
0.0578981,-0.0610115
-0.00286219,-0.0715487
-0.0489633,-0.019435
-0.0453005,-0.0563432
-0.0125945,-0.0883634
0.00521232,-0.0518486
0.0190715,-0.0257113
0.0362075,-0.0297747
0.0495093,-0.0660745
0.0837479,-0.0301645
0.0765614,-0.00508155
0.0404081,-0.0296933
0.0255029,-0.0269196
-0.00891407,0.0101723
-0.0740308,0.0595575
-0.080609,0.139576
-0.0507647,0.208531
0.0266203,0.225824
0.0556388,0.291579
0.0193949,0.311318
-0.0230912,0.149833
-0.0260137,-0.0274553
-0.0074703,-0.188591
0.0304822,-0.321376
-0.0456452,-0.349298
-0.175397,-0.203717
-0.199783,-0.0468632
-0.143575,-0.0343017
-0.089691,-0.0505533
0.022427,-0.0203773
0.1213,-0.0268387
0.0816928,-0.0176803
-0.0720904,-0.0123032
-0.120735,-0.0457892
-0.144477,-0.0343344
-0.0730606,-0.00331258
0.103875,-0.034468
0.240534,-0.010743
0.325951,0.0255227
0.294106,0.0077182
0.177705,0.102547
0.110596,0.134391
0.0703342,0.123811
-0.0229623,0.0766078
-0.13001,0.0697993
-0.119176,0.0660158
-0.161175,-0.0149901
-0.256474,-0.0978911
-0.192272,-0.055551
-0.0309607,-0.0377841
0.076989,-0.0113134
0.130402,0.0202744
0.145679,0.0317376
0.106152,0.0140716
0.0571575,-0.00825443
-0.00543531,-0.0185112
-0.0811812,-0.00290451
-0.106679,0.0411943
-0.0362987,0.0242796
-0.0125239,0.0230864
-0.0521059,0.0326628
-0.06719,0.0109368
0.0259135,-0.020733
0.0851757,-0.00117788
0.0604552,-0.00285062
0.000253807,0.00659673
-0.0521997,0.0203038
-0.0500482,0.00514311
-0.0237699,-0.000766468
0.0172083,-0.0134451
0.00421751,-0.0367389
-0.00571049,-0.0450522
0.00511382,-0.0193867
0.00288524,-0.0023593
-0.00809973,-0.00846734
-0.00171911,0.0132178
0.00595364,0.0334665
0.016109,0.0181749
0.0198535,-0.00445549
0.0376346,0.00615495
0.0332598,-0.0214342
0.0056894,-0.0469381
-0.0128603,-0.0582645
0.00244131,-0.0254377
0.0132689,-0.00351218
0.000209084,0.00518949
-0.0203101,-0.00849324
-0.0240303,-0.01975
-0.0159364,-0.0062606
-0.00559761,0.0165032
0.00206175,0.0229077
0.00556637,0.0200657
0.011314,0.0236005
0.0265722,0.02571
0.0346375,0.0201436
0.0406507,0.00893609
0.0372161,-0.0194351
0.0284167,-0.0323983
0.0155126,-0.02824
-0.0172496,-0.018354
-0.0642588,-0.0194393
-0.117424,-0.00709952
-0.103681,0.00381844
-0.05397,-0.000420464
-0.02604,-0.00483454
0.0111664,0.0123376
0.0356547,0.0268857
0.0241988,0.0297915
-0.0170369,0.0263709
-0.0364273,0.0265328
0.024208,0.030666
0.0779171,0.0224393
0.110998,-0.00658938
0.128541,-0.0319965
0.102985,-0.0202856
0.0233811,-0.0213077
-0.0231491,-0.039068
-0.0296918,-0.0450955
-0.0369182,-0.028733
-0.0626329,0.00278787
-0.143309,-0.00672891
-0.205668,-0.0131559
-0.133748,-0.000380888
-0.00895714,0.00898628
0.115478,0.0277111
0.162851,0.0301424
0.126631,0.0298378
0.0411291,0.0370716
-0.0245985,0.0174797
-0.0877307,-0.0220389
-0.0623811,-0.0176271
-0.00197392,-0.025981
0.0940067,-0.018238
0.133051,0.0251295
0.0475954,0.0242
-0.0553083,0.0214856
-0.0952494,0.00611567
-0.0429334,-0.00281363
0.0241413,-0.00487524
0.0251175,0.00703899
-0.0151922,0.0138082
-0.0196343,0.0139226
-3.83e-05,0.00999422
0.00386425,0.00764394
-0.0236195,0.00584043
-0.00751681,0.0140412
0.0118234,-0.0245854
0.0200121,-0.0312243
0.0228028,-0.00712812
0.0139606,-0.0085924
-0.00396208,-0.0116035
-0.0415906,-0.00876231
-0.103276,-0.00621053
-0.122686,-0.0163419
-0.0813629,-0.0242882
-0.00819701,-0.00869485
0.0575163,0.0285358
0.0773995,0.0346515
0.0936991,0.0311916
0.0971816,0.0172449
0.0632513,-0.00198664
0.0365842,0.00583323
0.0158849,-0.00737149
-0.0224252,-0.0365338
-0.0247572,-0.0276876
-0.00837488,-0.0106174
-0.0457623,-0.00685719
-0.0807225,0.000132973
-0.056906,0.00892685
-0.0185529,0.0101899
0.0379273,-0.00309434
0.0747674,-0.00950619
0.0581187,-0.00679485
0.00900771,-0.014935
-0.0356728,-0.00893582
-0.0247448,0.0238175
-0.00381484,0.0381266
-0.0228323,0.0264468
-0.0390018,0.0201624
0.0118385,-0.00782245
0.031628,-0.0178253
0.014373,-0.0144567
-0.0101063,-0.00867376
-0.00880194,-0.0191563
0.0179711,0.00763672
0.0160856,0.0102669
0.0127031,-0.0135605
0.00735611,-0.0260929
-0.00546568,-0.0195957
-0.0159566,-0.00740813
-0.0179175,0.0055334
-0.00827508,0.0163946
-0.0068668,0.000758422
-0.00339875,-0.00633842
0.0144524,0.0197864
0.0121126,0.029248
0.00211684,0.00700522
-0.00315574,-0.0169643
-0.000652056,-0.00301655
0.0129893,0.0062565
0.0226952,0.010731
0.0241952,0.01271
0.0232192,0.0159875
0.0164313,0.00459089
-0.00540727,-0.0077916
-0.0611794,0.0200682
-0.0921964,0.0187342
-0.036754,-0.0113246
0.0536962,-0.0139127
0.0255671,-0.00795695
-0.0227694,0.00630757
-0.00788261,0.00140275
0.0205218,-0.0213827
0.037573,-0.0317429
0.0238502,-0.0046609
0.00897559,-0.00179236
-0.00150353,-0.0363217
-0.00851989,-0.00763531
-0.0221535,0.0164227
-0.0578554,-0.00388973
-0.0476455,-0.0249807
0.00822595,-0.00554203
0.0431695,0.0110198
0.0451412,-0.0080924
0.0335965,0.0112179
0.0159217,0.0310576
-0.00683709,0.0247723
-0.00530546,0.00610965
0.00868893,0.0108401
0.0115087,0.001192
0.0185377,-0.00878734
0.0154474,-0.00624854
-0.000454534,0.00607198
-0.0171263,0.00932705
-0.0339233,0.00912769
-0.022353,0.0120083
-0.00670221,0.0134234
-0.0256153,0.0132972
0.00284795,-0.00717632
0.0146449,-0.0287262
0.000521096,-0.0304744
-0.000287972,-0.00628633
-0.00460601,0.0254948
-0.00997985,0.0224855
-0.00762667,0.00350915
0.007416,-0.00738192
0.0331177,-0.0267062
0.00990206,-0.0335869
-0.0109461,0.00755046
-0.00507348,0.0160734
-0.007966,-0.00436203
-0.0167433,0.00703351
-0.0299612,0.00919836
-0.018369,-0.026121
0.00484013,-0.0445384
0.0352766,0.00760535
0.0521807,0.0275053
0.0393371,0.00992921
0.0022689,0.00127698
-0.0559011,0.00694766
-0.0534411,0.0152833
-0.0227603,0.0227851
0.00802076,0.0119187
0.0397553,0.00104906
0.0272371,0.00263174
-0.0428273,0.0166762
-0.0671526,0.0179692
-0.0565519,-0.00996002
-0.0205728,-0.0183436
0.0236197,-0.0114466
0.0604876,-0.0322207
0.0904533,-0.0445324
0.0716669,0.0174484
0.0287522,0.0274755
-0.00497655,0.0189806
-0.0154084,0.0229694
-0.0185638,0.00201782
-0.0138492,-0.0110232
-0.00245571,0.00164423
0.00345398,-0.00766872
0.00310576,-0.0244211
-0.00542972,-0.0258501
-0.00118258,-0.0304104
0.0124447,-0.00563256
0.0169458,0.0261465
0.00734395,0.0200579
-0.00279199,0.00545093
-0.00979403,-0.0137527
-0.0120446,-0.0192793
-0.021141,-0.0204583
-0.0239815,-0.0292746
-0.0108741,-0.0259693
-0.00447175,0.013186
-0.0115606,0.0636647
-0.0480716,0.0552515
-0.0864451,0.0145939
-0.0479014,-0.0137394
0.0225741,-0.0223713
0.0817843,-0.0300199
0.0819759,-0.0126757
0.0403984,0.0133046
0.0256441,0.0236606
0.0175944,0.0172664
0.0107486,0.00746363
0.00633131,-0.0247018
0.016701,-0.0183265
-0.00770795,-0.0185247
-0.021449,0.000895146
-0.00303778,0.0110588
0.00182878,0.00711855
-0.0382868,0.00963111
-0.0618399,0.0074003
-0.0382475,0.000184283
-0.0120297,-0.015944
0.0064205,-0.0209191
0.0189424,-0.0103099
0.0321953,-0.00294671
0.0365452,0.00836566
0.0273427,0.0264492
0.0128924,0.0346233
0.00523446,0.0158142
-0.00695064,-0.00249023
-0.0220448,-0.00308663
-0.0347355,-0.00289567
-0.0350332,-0.0020452
-0.0264221,0.00773832
-0.00845042,0.00652742
0.000790061,-0.00256998
-0.00394929,0.000943076
-0.0424742,-0.00736627
-0.0475707,-0.0169054
-0.0262753,-0.00347142
-0.000764813,0.00963542
0.0272133,-0.00316907
0.0506618,-0.000402915
0.0543668,0.0121421
0.0336941,0.00400386
0.0151169,-0.0134784
0.00729207,-0.0163782
-0.000876081,-0.0134937
-0.0189908,-0.0312451
-0.0238623,-0.0178313
0.00278077,0.0265669
0.00900569,0.0205523
0.00873605,0.0112179
-0.00324771,0.00885808
-0.0202757,-0.00136379
-0.00474279,-0.00505252
0.0212232,0.00558112
0.0296211,-0.00394043
0.0221221,-0.0123458
0.0334015,0.0223455
0.0332475,0.0221552
0.0121498,-0.0221329
0.0281585,-0.00914567
-0.00403016,-0.0128814
-0.0488124,-0.00615626
-0.0772651,0.0300722
-0.0354301,0.0283112
0.0166961,0.0104437
0.0368738,0.0298586
0.024124,0.0313461
-0.00137265,0.0117854
-0.0196354,0.0103416
-0.0187052,0.00731679
-0.0103921,-0.00909029
0.00942184,-0.0122607
-0.0153723,-0.0122244
-0.068552,-0.0361189
-0.0596058,-0.0706788
-0.00707933,-0.08026
0.044962,-0.0530985
0.0627475,-0.0139135
0.0511175,0.0055605
0.0165704,0.0209495
-0.0201829,0.0255347
-0.0234107,0.0287863
0.0172764,0.040803
0.0448294,0.0285294
0.0566051,0.0248266
0.0465593,0.039093
0.0163245,0.0221047
-0.0132029,-0.0214154
-0.0203133,-0.00983085
-0.0161479,0.00356077
-0.0140918,-0.00546596
-0.01318,-0.0200336
-0.0168175,-0.0358493
-0.0155779,-0.0343651
-0.00976706,-0.0254169
-0.0037557,0.00105801
-0.00509457,0.00481119
-0.0223167,0.0094103
-0.0322623,0.0167849
-0.0210424,0.00450149
-0.00216207,-0.00695291
0.011066,-0.000811357
0.00992627,0.0115853
0.00653187,0.0153778
-0.000488559,0.00204931
0.01274,0.00628299
0.0319155,0.0206235
0.0293848,0.0100993
0.0156974,-0.0191678
-0.0111284,-0.0280642
-0.0603875,-0.0216379
-0.0858545,-0.00767492
-0.0645083,0.0114266
-0.029635,0.0148931
-0.00877558,0.0161652
-0.0133263,0.00273011
-0.0188375,-0.0130474
-0.0182161,-0.0101332
0.0171418,0.00254428
0.0568649,0.0211824
0.0916437,0.0155136
0.0833567,0.000992906
0.0547801,0.0107985
0.0443572,0.0155268
0.00427081,-0.00835242
-0.00944303,-0.0166075
-0.00453921,-0.0228701
0.00892012,-0.032122
0.0254144,-0.0334273
0.0233192,-0.0107002
0.00623063,0.0205326
-0.0158763,0.00639948
-0.0400548,-0.00945231
-0.0604969,-0.0311332
-0.0510904,-0.0198277
-0.0309283,0.0201236
-0.00459924,0.025928
0.0128896,0.0461345
0.00817518,0.0457994
-0.00324564,0.0314022
-0.00816458,0.0174152
-0.0182488,-0.0120965
-0.0207451,-0.0133407
-0.0170997,-0.00403039
0.00117388,-0.00593082
0.0195095,0.00392977
0.0135421,0.0109779
-0.000989203,0.00533723
-0.00340301,0.0017601
0.00869293,0.0167178
0.0288317,-0.0118914
0.0316721,-0.0249653
0.00732457,0.00140652
-0.0154379,-0.00351489
-0.0194851,-0.00981221
-0.014715,-0.00460911
-0.00603316,-0.0067778
-0.00234234,-0.01039
0.00490243,-0.00611854
-0.000916379,-0.00651035
0.00223571,0.00200632
0.0238119,0.0103634
0.0338094,0.0165393
0.0112438,0.0202384
-0.00599314,0.00998059
-0.0127741,-4.34e-05
-0.00553791,-0.0104077
0.00929087,-0.0170341
0.0149417,-0.00578051
0.00223643,-9.55e-05
-0.000297612,-0.000345594
0.0170617,-0.000214263
-0.00194699,0.00484873
-0.0188878,0.000757454
-0.0231083,-0.0220118
-0.047118,-0.0190739
-0.034581,-0.00748437
-0.0047934,-0.0247639
-0.0370149,-0.0207095
-0.0442553,0.016308
-0.019795,0.0135424
0.00502504,0.0299132
0.0305883,0.0442856
0.0733323,-0.00371642
0.0778852,-0.0277956
0.0333458,-0.0203561
0.000622037,-0.0263148
-0.0073109,-0.0165356
-0.00603484,-0.00139696
-0.0021984,0.0012073
0.00426396,-0.000616493
0.00223464,-0.0145851
-0.00089399,-0.0210137
0.00171124,0.00863085
0.0089956,0.0167134
0.019003,0.0110671
0.0151077,0.0173449
0.00207082,0.0240996
-0.0206175,0.0251488
-0.0216001,0.0181098
-0.00728855,-0.00189999
-0.00501618,-0.00864732
-0.0132659,-0.00339817
-0.0228415,-0.0055637
-0.00601394,-0.00371301
0.0133477,-0.00356533
0.0224142,0.00161982
0.0213037,0.0123601
0.00284394,-0.00430129
-0.0228596,0.0103252
-0.0306749,-0.000236531
-0.0134264,-0.0419753
0.008103,0.000797014
-0.0155812,0.0253957
-0.0506165,0.0138055
-0.0674,0.00490814
-0.0258943,-0.00275887
0.0375139,-0.0196003
0.0604532,-0.0207229
0.0332143,0.0105208
0.0117167,0.014628
0.0173085,0.00859092
0.0150803,0.00631981
0.0153666,-7.07e-05
0.0210682,-0.00934474
0.0188748,-0.0177773
0.0164962,-0.0083058
0.0183607,0.000779861
-0.0131553,0.00206132
-0.0466531,0.00840215
-0.0451727,0.0128265
-0.0182295,0.0132685
-0.00930093,0.00325242
-0.0271064,-0.00536639
-0.0306572,-0.0197126
-0.0326655,-0.0109013
-0.0278946,0.00459198
-0.0150593,-0.00103025
0.00901475,0.00951596
0.0276527,0.00756188
0.0518627,0.00535951
0.0614023,-0.00416248
0.0534651,-0.0154534
0.0348868,0.00446549
0.017122,0.0131325
0.0105273,0.00486835
0.0144466,0.00319733
0.00959895,0.00757719
0.00145188,0.0140971
0.00527418,-0.000711302
-0.00579613,-0.022741
-0.00204464,-0.0123217
-0.0066112,-0.00281511
-0.00980836,-0.000516818
-0.00743629,-0.00473144
-0.0192095,-0.0030624
-0.0261532,0.0113041
-0.0244805,0.00765341
-0.0172906,-0.0171252
-0.0111946,-0.0162394
0.00196092,-0.00181681
0.00623644,0.00728921
0.000387968,0.0169655
-0.00750315,0.0146952
-0.00484057,0.00703591
-0.001445,0.00193433
-0.000745702,0.00184493
0.00733707,-0.0146
0.00871309,-0.0163303
-0.00360525,-0.00542159
-0.00691906,-0.00154961
0.00610038,0.0113014
0.00295706,0.0129747
-0.00782255,0.00333027
-0.00747805,-0.00583866
-0.00388271,-0.0143249
-0.00408682,-0.012029
0.0140042,0.00482754
-0.00481709,0.0107043
-0.0762609,0.00980867
-0.0809168,0.0120165
-0.0292525,0.00930448
-0.00669112,0.00407698
0.0230661,-0.00637369
0.0731676,-0.0153033
0.0805006,-0.00777071
0.0405958,0.00182388
0.0097763,0.00215496
0.00126868,0.00350726
-0.000957083,0.0101536
0.00194675,0.00813195
0.0128527,-0.0103031
0.0222587,-0.0191679
0.0174534,-0.00319652
-0.0134588,0.00732937
-0.0321751,0.0068529
-0.0392142,0.00649707
-0.03011,0.0100391
-0.00732042,-0.00264703
0.00170672,-0.0120082
0.0247688,-0.0257779
0.0418138,-0.030739
0.0169578,-0.00952191
-0.0043251,-0.0023417
0.00693294,-0.00106992
-0.0227111,0.0397911
-0.0507803,0.0246993
-0.0200396,-0.0153463
-0.00818495,-0.0356482
0.0070517,-0.0176505
0.0307347,0.00316556
0.0411198,0.0105559
0.0394578,0.016733
0.0233835,0.0217977
-0.00248494,0.0153998
-0.0250512,0.0109557
-0.0172299,-0.00860638
0.000226481,-0.0232858
-0.0100507,-0.039592
-0.0263426,-0.0225137
-0.0231148,0.00628037
-0.0172078,-0.0029927
-0.0133277,0.00458758
-0.00861449,0.0317305
-0.00181341,0.0148082
0.00429182,-0.0117861
0.00584052,-0.00669355
0.00981411,-0.00274984
0.0257234,0.000130391
0.0236438,0.0201762
0.00801138,0.0200329
-0.00293627,0.0133062
-0.00211909,0.0113026
-0.00505515,0.00518806
-0.00178274,-0.00227271
-0.0113798,0.0023056
-0.0389472,0.00905925
-0.0383872,0.00340025
-0.0152359,0.00703572
0.010589,0.0211797
0.035408,-3.72e-05
0.0490603,-0.018947
0.0342491,-0.0283381
0.0115506,-0.0181237
0.0100534,-0.00790552
0.0121875,0.00125996
0.00341067,0.0121783
0.00444048,0.0256689
0.0101485,0.00965365
0.0179048,-0.0177615
0.0133665,-0.0196661
-0.00803009,-0.0170583
-0.0446959,-0.000922053
-0.0529445,0.009125
-0.0501409,-0.00163867
-0.0248213,-0.00772265
0.0212061,-0.00296917
0.00370971,0.00585708
-0.0619757,0.00440865
-0.0684916,-0.000502741
-0.0420494,-0.00575313
0.00707838,-0.0188835
0.0457137,-0.0123799
0.0133207,0.0287027
0.00654063,0.0456402
0.0154867,0.0438978
0.0217039,0.017351
0.0362453,-0.0439025
0.0873027,-0.0464203
0.0964711,-0.00368429
0.055305,0.00539044
0.00643789,0.0133425
-0.0160178,0.0222306
-0.0236727,0.0104422
-0.0198629,-0.0145885
0.00631485,-0.0253912
0.0153348,-0.034516
-0.0100196,-0.0285073
-0.0502348,-0.0310142
-0.0632039,-0.0255733
-0.0412643,0.016988
-0.0194887,0.0313692
-0.0105859,0.0203141
-0.003978,0.0147247
0.00313061,0.000642366
0.0200265,0.00645505
0.0102856,0.00467249
-0.0131094,-0.00535874
-0.00227881,0.00940813
0.0071426,0.026666
0.00207413,0.0207051
-0.0103614,-0.00466979
-0.00107629,-0.0210048
0.00971782,-0.00824381
0.0240439,0.00226148
0.0318858,0.0108593
0.0288461,0.0145325
0.0169714,0.00580649
0.00378741,-0.000403971
-0.00835604,0.000769937
-0.0148772,-0.01207
-0.00907706,-0.0154789
-0.00378877,-0.00955574
-0.00561988,-0.00495961
-0.0115052,-0.00256141
-0.020022,0.000488229
-0.0200858,0.0090188
-0.00665789,0.00703651
0.0108501,-0.00976358
0.0152135,-0.0150807
0.00511247,-0.00751503
0.000726222,-0.000540455
0.00398348,0.00730235
0.00390434,0.0148152
0.00076872,0.0149573
-0.000195788,0.00328092
-0.00399732,-0.00889051
-0.0160612,-0.0169399
-0.0228936,-0.0264406
-0.0240311,-0.017001
-0.0180642,0.00831889
-0.000920196,0.00488096
0.00430717,0.0242036
0.00275434,0.00756369
0.0106396,-0.0170936
0.0269272,-0.0205744
0.0210405,-0.00759495
0.0191897,0.00102972
0.013599,0.00673839
-0.00859396,0.0119585
-0.00482452,0.0218409
0.0162694,0.0189217
-0.0139624,0.0148606
-0.0239729,0.00490564
0.00601452,-0.0117918
0.00943307,-0.00549157
0.00421318,0.0039254
-0.0141862,0.00293687
-0.0333614,0.0160188
-0.0279968,0.0146333
-0.00643568,0.0103564
0.0166306,0.00302557
0.0215041,-0.00531085
0.00929159,-0.0197572
0.00375726,-0.0251886
0.0144324,-0.00972894
0.0233656,0.0079482
0.0251808,-0.000583046
0.0190572,-0.0400832
0.00561438,0.00376286
0.0021718,0.00969279
0.00136927,-0.00947666
-0.0139442,-0.00719778
-0.0207754,0.00822065
-0.0141297,0.0146828
-0.0089077,0.0253282
-0.00728644,0.01103
-0.0248631,0.00277229
-0.0340225,-0.00932518
-0.0176711,-0.0170293
0.00168483,-0.0123871
0.021023,-0.00167467
0.0324828,-0.00645037
0.0307392,-0.00518867
0.0332444,0.000833755
0.0277663,-0.000454337
0.00284467,0.00427473
-0.0390507,-0.00382729
-0.113096,-0.00311151
-0.109516,0.0075843
-0.0438597,0.0011514
0.0167141,0.00227698
0.057977,0.0195433
0.059594,0.0203773
0.0544096,0.00767128
0.0563152,-0.00156979
0.0401198,-0.00197427
0.0298484,-0.00656492
0.0146693,0.00374491
0.00014034,0.00597719
-0.0130171,0.000680258
-0.021138,-0.0134239
-0.0195528,-0.0159738
0.00329561,-0.0289
0.0105277,-0.0155154
0.000385931,0.0010814
-0.018763,0.00457142
-0.00715219,0.00216613
-0.00550184,0.00716119
-0.0033139,0.00471811
0.0101738,0.00676486
0.00690459,-0.00845712
-0.0139393,-0.0172829
0.00774874,-0.000955987
0.0258988,0.00766522
-0.0101011,0.0090932
-0.014234,0.0104937
0.00125845,0.00256565
0.00340502,-0.00177634
-0.00164107,-0.00359351
0.0102525,-0.0219643
0.0164318,-0.0282679
0.00800005,-0.0116244
0.00139009,-0.00863414
-0.0121593,-0.00133125
-0.0304919,0.0170348
-0.0390399,0.029467
-0.0370394,0.0151907
-0.0198469,0.00543314
-0.0113789,0.0173293
-0.0183539,0.031221
-0.0101428,0.0109083
0.000779328,0.0178994
0.00783011,0.0300468
0.0124046,0.0182165
0.0164971,0.00758405
0.00805611,0.0039084
-0.00149924,-0.0110371
-0.00300115,-0.00985187
0.000687023,-0.0173389
0.00562881,-0.0135933
0.00979362,0.00518059
0.00900432,0.00637602
0.00587849,0.00319825
0.0137593,-0.00658707
0.0122984,-0.0206929
-0.00529761,-0.0176427
-0.0228682,-0.00830656
-0.0216174,-0.00266978
-0.00594245,0.00177209
0.0124642,-0.00267073
0.0144416,-0.000876551
-0.0235404,-0.00429338
-0.0372151,-0.0183594
-0.0246191,-0.0343405
0.00534572,-0.0350656
0.0350026,-0.00645995
0.0420884,0.00363948
0.0340977,0.00575666
0.0181074,0.0235453
-0.00807075,0.0287163
-0.00484242,0.0181404
0.0118945,-0.000848053
-0.00219016,-0.00419251
-0.00596929,-0.0128574
-0.00406389,-0.00730245
0.00243981,0.00820534
0.0033955,0.0107742
0.00416204,0.00917052
0.00801843,0.0118259
0.0180761,0.00184924
0.0164293,-0.0143623
0.00152936,-0.00226412
-0.0134932,-0.0122071
-0.0313782,-0.0231177
-0.0217379,-0.00937075
0.0147325,0.006127
0.0247835,0.00842096
0.0256436,-0.00518116
0.0236714,-0.00564666
-0.023061,0.000896233
-0.0565051,0.00517146
-0.0468693,0.0195624
-0.0158379,0.0184184
-0.00109867,0.00635526
0.0199497,0.00215002
0.0428795,-0.00441015
0.0463907,-0.0129441
0.0345035,-0.00809701
0.0160566,0.0042963
-0.0041482,-0.000802055
-0.01556,-0.00479046
-0.0225633,-0.0025603
-0.0330524,0.00359254
-0.0403486,-0.00143949
-0.0193332,-0.0117621
-0.0219332,-9.94e-05
-0.0234096,0.00145244
0.00582874,-0.00307097
0.0173304,0.0121393
-0.0449191,0.00773938
-0.0468733,0.00595468
-0.00901964,0.0126008
0.0187192,-0.00417084
0.0568109,-0.0249218
0.0751648,-0.0148362
0.0624062,0.00204691
0.0376624,0.00213878
0.0145081,0.0064057
-0.00108299,0.012212
-0.0140816,0.0102229
-0.0318382,0.0014616
-0.0181793,-0.00632462
0.00204576,-0.00489547
0.00849195,-0.00303378
0.00872427,0.004844
0.00620485,0.0161065
0.00218003,0.0112976
-0.00304699,0.00233802
-0.00545304,0.00864222
-0.00885764,-0.00838162
-0.00519387,-0.0193369
-0.00386641,-0.010789
-0.00361145,0.00193762
-0.0120833,-0.00602688
-0.0260773,0.00207321
-0.0340175,0.0103402
-0.027641,0.0103332
-0.00218063,-4.17e-05
0.014872,-0.00372813
0.0186112,0.009598
0.00991817,0.00431662
0.00625095,-0.00285921
-0.00313796,-0.00886395
-0.00933417,-0.00184224
-0.010468,-0.00459672
-0.00847063,-0.00217615
0.00594667,-0.00594433
0.005433,-0.0110779
-0.00283349,0.00301813
0.00970569,0.000223004
0.0167845,0.00952547
0.00283426,0.019585
-0.0149965,0.0133457
-0.0299129,0.000649994
0.0113811,-0.0104188
0.0384677,-0.0118661
0.0168264,-0.00563416
0.0106508,0.00190168
0.015444,0.00655046
0.00822837,0.0110971
-0.0139512,0.00670428
-0.0410124,-0.00268839
-0.0288228,-0.0118115
-0.0161741,-0.0180359
-0.0238435,-0.0136179
-0.0188177,-0.00529625
0.0173637,-0.00443522
0.0382088,0.00561648
0.0186216,0.0100164
0.00874085,0.0105022
0.00711783,9.88e-05
0.00938713,-0.0084444
0.00993725,-0.0052307
0.00927626,-0.00185834
0.0104373,0.00878022
0.00632324,0.0211499
0.00866484,0.0203434
0.00799327,0.0183288
0.00763715,0.00414461
0.0187247,-0.0114039
0.0113521,-0.0251827
-0.0148628,-0.0273916
-0.0325424,-0.00974119
-0.0558506,-0.00513568
-0.0952847,-0.00536944
-0.074993,0.0184798
-0.0110891,0.0147996
0.0461187,-0.00985926
0.0625235,-0.0208011
0.0584846,-0.0146486
0.0527273,-0.00219105
0.0354481,0.0169927
0.0163475,0.0270001
-0.0178097,0.00821455
-0.0408425,0.0133013
-0.0343067,-0.00215397
-0.010306,-0.0292863
0.00472561,-0.0162616
0.0119386,0.00452692
0.00859668,0.00546141
0.00934542,0.00709164
-2.76e-05,0.00444399
-0.0071056,0.00096313
2.28e-05,-0.00364597
0.00980653,-0.0156201
0.00350793,-0.0107564
-0.00584146,-0.0053382
-0.00596947,-0.00281835
0.00134244,0.00604166
-0.00190443,0.0128269
-0.00189651,0.0130132
0.0041112,0.0129413
0.0052572,-0.0102504
0.00714602,-0.0175352
0.00761589,0.000514756
0.00101535,0.0126863
-0.00879358,0.00538816
-0.00377093,0.0107301
-0.0158255,0.0134419
-0.0769713,0.00253658
-0.0757733,0.00441795
-0.0283271,-0.006557
0.0199873,-0.00425981
0.0448727,-0.00311728
0.045089,-0.00747819
0.0455061,-0.000480802
0.0320276,0.0103737
0.0027435,0.0124409
-0.01455,0.014317
-0.0110536,-0.00503541
-0.0015615,-0.0180632
0.0156841,-0.012089
0.0380296,0.00187992
0.0408961,-0.0132119
0.0240479,-0.0101527
0.00719108,0.0230389
-0.00409716,0.0156549
-0.0263525,-0.00511437
-0.0302537,-0.0138727
-0.0219527,-0.0127919
-0.0198426,-0.0149282
-0.0271221,-0.0121811
-0.0292693,-0.00689872
-0.022879,-0.010621
-0.00141756,0.00934608
0.0196116,0.0238744
0.0250568,0.00710816
0.0248247,-0.00227996
0.0198764,-0.00582704
0.0213169,0.00124331
0.026766,0.00931923
0.0196601,0.0101156
-0.0327387,0.0114092
-0.0559463,0.00335282
-0.0319397,-6.28e-05
-0.00217676,-0.00543797
0.0341781,-0.00379729
0.024902,0.008034
0.00628746,0.0108594
-0.00409304,0.00781468
-0.00968966,0.00789653
-0.0080509,0.0048443
-0.00420759,-0.0055127
-0.00108326,-0.0202311
-0.00253286,-0.0195401
-0.00257155,-0.0178568
-0.000582192,-0.00893145
-0.000779065,0.0118734
-0.00315947,0.0142224
-0.000458166,-0.00709145
0.00410512,-0.0131468
-0.00125619,-0.0144299
-0.00365977,-0.00186364
-0.00541211,0.00338035
-0.00358045,0.00358975
0.00118108,0.0266887
-0.00755098,0.0284785
-0.0195745,0.00349346
-0.0171101,-0.000732587
-0.00775049,-0.00732844
0.0124108,-0.0153834
0.0232897,-0.013658
0.0247789,0.00389998
0.0249268,0.00650463
0.0159902,0.00367172
-0.00457302,0.00830064
-0.036998,0.00555942
-0.0441798,-0.0104498
-0.0302938,-0.0182431
-0.00472573,-0.0084965
0.0244876,-0.0023455
0.0446714,0.00977184
0.0406891,-0.0134487
0.0144694,0.0112987
-0.00807709,0.0330436
-0.0156273,0.00452112
-0.0124032,-0.022333
-0.0104131,-0.0212112
-0.00151003,0.00207404
0.00521203,0.012734
-0.00979627,0.0110278
-0.0170262,0.00436339
0.00232343,0.0128693
0.0195979,0.00250019
0.0240207,-0.0173019
0.0154098,-0.0196918
0.0195232,-0.0138386
0.0193657,-0.00478842
0.0130301,0.00900588
0.0075505,0.0169209
-0.00749672,0.0116698
-0.0206447,0.0103603
-0.0112764,-0.00285278
-0.0163786,-0.0304036
-0.0138168,-0.00756411
0.0013069,0.0159738
0.00365798,0.00443546
0.00362416,-0.000954448
-0.0215191,0.0110147
-0.0668198,-0.00355952
-0.0824372,-0.0149798
-0.0487562,-0.0145954
-0.00885131,-0.00437464
0.0194891,-0.00480382
0.068982,0.00741217
0.0992844,0.0175969
0.0725985,0.0185612
0.0276765,0.0128425
0.00667932,-0.000710566
0.0121054,-0.00964129
0.0220672,-0.00616567
0.0253142,0.00492591
0.0218485,0.000165293
0.00621954,-0.000711109
-0.0218841,0.00684398
-0.0744604,0.00398966
-0.14489,-0.00643984
-0.129823,-0.0249131
-0.0393027,-0.01389
0.0499048,-0.0151109
0.0859037,-0.0123438
0.0849488,0.010209
0.0558119,0.0179813
0.016482,0.0147567
-0.00827658,0.00521255
-0.0254715,0.00259872
-0.0214,-0.00212394
0.00412194,-0.009415
0.0213376,0.000130936
0.00850066,0.00726149
-0.0163619,0.000686323
-0.0090957,0.00571191
0.0101242,0.0147121
0.0248657,0.00498973
0.02418,-0.0114114
-0.000889217,-0.00667508
-0.0151667,-0.00384371
-0.0233583,-0.00222155
-0.0256215,0.00570333
-0.0267161,0.00960046
-0.0238753,0.00433828
-0.0127628,-0.00235311
-0.00424947,-0.00941818
-0.00362497,-0.0156534
0.000369061,-0.00654809
-0.000411064,0.00400203
-0.00283885,0.00267262
0.00894679,0.00115539
0.0149197,0.00389228
0.0199456,0.00873011
0.0274054,0.000194101
0.0350559,-0.00884634
0.0393596,-0.00265704
0.0212635,-0.00337659
0.00258305,-0.00139628
-0.0278701,0.00657124
-0.050823,0.00624945
-0.0281904,0.0142587
-0.0241417,0.0142585
-0.0440252,0.00152122
-0.0594155,-0.00711448
-0.0322277,-0.00910932
0.0088097,0.00021706
0.0350221,0.0020197
0.0318228,-0.00185098
0.0244852,-0.0059533
0.0248102,-0.00211141
0.0274971,-0.00099148
0.0311611,-0.00600162
0.030212,-0.00668744
0.0173769,-0.0183275
-0.000401848,-0.00452736
-0.00596546,0.0096253
0.00136186,0.00373083
-0.0131497,-0.000367778
-0.0316616,-0.00284085
-0.0190171,-0.0101407
0.0055483,-0.012075
0.0049196,0.00514984
-0.00129123,0.0131144
0.00181416,-0.000195181
-0.00541503,0.00415667
-0.00407158,0.0175904
0.00533378,0.00957491
0.00970795,-0.00731152
0.00477435,-0.01233
0.000316866,-0.00205707
0.00212815,-0.00317223
0.00489875,-0.00123832
0.000107775,0.0135048
-0.00494828,-0.00666321
-0.00548109,-0.0165493
0.000402279,-0.00869354
-0.00207791,-0.0183091
-0.0163381,-0.0200329
-0.00617286,0.00910038
-0.00564451,0.0244062
-0.0191884,0.0182998
-0.00493084,0.0104356
0.0277224,0.0292502
0.0262286,0.0228546
-0.0131737,0.00153578
-0.0610818,0.00205166
-0.0511471,0.00905206
-0.0134541,0.00753421
0.0055955,0.0069387
0.00492575,-0.00258269
0.0128716,-0.0173285
0.013553,-0.00780985
3.73e-05,-0.0108492
0.00356062,-0.0193024
-0.00279362,0.00128664
-0.00613905,0.0118917
0.015638,0.0153309
0.0330198,-0.000742699
0.0413736,2.52e-05
0.0322974,0.0075737
0.0237868,-0.00358581
0.0184632,-0.0149564
0.00368265,-0.0166854
-0.0112926,-0.00871645
-0.0265203,-0.000906098
-0.0222783,0.00745049
-0.0134254,0.00376384
-0.00461319,0.00242266
9.04e-05,0.00421487
0.00613168,-0.00587284
0.00559826,-0.0114291
0.00176911,-0.000273961
0.0119781,-0.00230241
0.0106317,-0.00840285
0.00343898,-0.00106573
0.00640511,0.00626067
0.0140771,0.00670091
0.0132089,-0.0111837
-0.00829543,-0.01604
-0.0378295,-0.00197797
-0.0310833,-0.0151816
-0.0105949,0.0152223
0.00929393,0.0244536
0.00502268,0.0184243
-0.0174535,0.0107882
-0.0208266,0.00146658
-0.0113881,-0.00445094
0.00916801,0.00374514
0.0211611,0.00735956
0.0344879,0.00831544
0.0169568,0.00527115
-0.0185683,-0.0117889
-0.0309547,-0.0450548
-0.00669431,-0.0418676
0.0211696,-0.0132354
0.0297686,-0.00637329
0.033723,0.000623706
0.0365286,0.0116949
0.0253517,0.0158855
0.011632,0.015011
-0.017874,0.0233616
-0.057305,0.0234481
-0.121168,0.00724845
-0.13476,-0.00754725
-0.0796713,-0.00272422
0.00250577,-0.00139938
0.0595997,-0.00977309
0.0811946,-0.0103242
0.0787937,-0.007966
0.0765713,-0.017729
0.0572813,-0.0195886
0.0244652,-0.0128869
0.00448214,-0.00693188
0.0154514,0.00915424
0.00739598,0.0229309
-0.019584,0.0228779
-0.04419,0.0259643
-0.0384682,0.0212179
-0.0306053,-0.00990148
-0.00328788,-0.0126983
0.0115467,0.00428582
0.00838355,-0.00836144
0.00580498,-0.0136001
-0.000958034,-0.0055723
-0.00111869,0.00569769
0.00756777,-0.00418259
0.00907973,-0.0198472
0.00422671,-0.0107069
-0.0020535,0.00061052
0.00245342,0.00178557
0.009135,0.0032561
0.00160797,0.00865998
-0.0300763,0.0285493
-0.039806,0.0360577
-0.0115061,0.0217051
0.0144692,0.00197839
0.0235463,-0.00692112
0.00770657,0.00276164
-0.0152266,-0.00375886
-0.0320153,-0.0200545
-0.0374945,-0.0115219
-0.0177421,0.0135879
0.0160089,-0.00259877
0.0330052,-0.0223439
0.0240518,-0.0284808
0.0107709,-0.0164284
0.00318381,0.00358422
-0.0122356,0.00847083
-0.0257804,0.00962279
-0.0156456,0.00897794
-0.00687482,0.005179
-0.00672838,0.00150565
0.00588162,-0.00478871
0.0201725,0.000479211
0.0293624,0.0103122
0.0220454,0.0100291
0.00560205,0.00837372
0.00315065,0.00712639
0.00791392,0.000754535
-0.00119094,-0.0145159
-0.0187941,-0.0247775
-0.0138046,-0.0158725
-0.00700727,-0.0121365
-0.0161684,-0.00287702
-0.0205832,0.00691954
-0.0221701,0.00371752
-0.0053205,0.00211719
0.0173705,0.0101533
0.0390263,0.00831305
0.0292286,0.0122674
0.00123138,0.0145997
-0.0154795,0.0107978
-0.0398143,0.00799395
-0.0260778,0.0175091
0.011847,0.00696494
0.0420389,-0.00606003
0.0313803,-0.0361356
-0.0102986,-0.0385089
-0.0558552,-0.00740417
-0.0441088,-0.00321411
-0.00388331,-0.00438185
0.0252726,0.00433071
0.0476756,0.00860244
0.0428873,0.0182562
0.0152014,0.00521133
0.0247484,-0.00623596
0.0393985,-0.0056524
0.0302081,0.00929219
0.0209269,0.0109931
0.00766397,0.0121801
-0.0474029,0.0229396
-0.104167,0.00631831
-0.100486,-0.0114569
-0.0398121,-0.0273283
0.0115603,-0.0220353
0.0325293,-0.0138344
0.0505681,-0.00811155
0.0377925,0.011763
0.0100751,0.00610227
-0.000200734,-0.00960862
-0.00726795,0.00423948
-0.000215792,-0.00127879
0.00856399,-0.00614423
0.0205337,0.00633834
0.0185881,0.00568262
0.00820518,-0.00582823
-8.31e-05,-0.0013807
-0.00140127,0.0253336
-0.00724979,0.0211139
-0.0114033,-0.0111503
-0.00915071,-0.0251961
0.00400186,-0.0206835
0.0125817,-0.0165833
0.0046051,0.00499003
-0.0173721,0.00387714
-0.0130693,0.0158445
0.00189777,0.0407051
0.00350962,0.00882916
0.000896862,-0.0117994
0.00256123,-0.0131771
0.00530446,0.00190734
0.0124977,0.00539848
0.0154939,0.00412081
0.00755736,0.00396292
0.000785464,-0.00344135
0.00663853,-0.0102574
0.00795298,-0.0137437
0.00484282,-0.0111539
-0.0100359,-0.0079292
-0.0374979,-0.00256106
-0.0478195,0.00767825
-0.0415529,0.0178685
-0.0248685,0.0124695
-0.0111759,0.0023339
0.00264219,-0.0204595
0.0268571,-0.024524
0.0245225,-0.00308497
0.0141985,0.0147669
0.00445791,0.0151357
0.000745344,-0.00806062
0.00026534,0.00497776
0.0111385,0.0302487
0.00588611,0.00624588
-0.0106748,-0.0185511
-0.0155926,-0.0148032
-0.0180219,0.000349342
-0.00910004,-0.00151034
-0.000947661,-0.0057414
-0.00121978,0.0078194
-0.00560091,0.0125328
0.0014503,0.0151228
0.0146537,0.000499177
0.0313036,-0.0118895
0.0189412,-0.00132331
-0.018235,0.00944509
-0.0321798,0.00908488
-0.0223242,0.0130989
-0.0170164,0.0163216
0.00318471,-0.00716878
0.0279631,-0.025889
0.0356732,-0.0215871
0.0220403,-0.011364
0.00880429,-0.0100494
0.00506001,-0.00405889
-0.0134933,0.00354924
-0.00717378,0.00776674
0.0152062,0.00754848
0.011263,0.0133134
0.00559044,0.00121711
0.0106901,-0.0136276
0.00866601,-0.00152302
0.00843264,0.00910735
0.00460442,0.00618598
-9.81e-05,-0.0029679
0.00108516,0.00557013
0.00366575,0.00967487
0.00329978,-0.00855381
-0.000218192,-0.0161759
0.000785369,-0.00823249
0.00668002,-0.00233438
0.00613583,0.0102488
-0.00411281,0.0134573
-0.0222375,0.00912365
-0.0315801,0.00969291
-0.0278032,0.00434718
-0.0214552,-0.00826889
-0.042063,-0.0194236
-0.0482542,-0.0126795
-0.043573,-0.000218282
-0.0327117,-0.0118995
-0.0033008,-0.00845765
0.0402627,0.0183239
0.0666993,0.00688939
0.0530745,-0.0191284
0.0267779,-0.00514608
-0.0102623,-0.00567786
-0.0242946,-0.00789374
-0.0228367,0.00382699
0.0130546,0.000727891
0.0363259,0.0103158
0.0265302,0.0191298
0.0036295,0.00896882
0.00908491,-0.010951
0.00789956,-0.00922852
0.00903209,0.00642521
0.0215078,0.0166102
0.0165117,0.0176514
0.0124606,0.00677945
0.00518839,-0.00239153
-0.0209573,-0.00825601
-0.0333529,-0.0223606
-0.0278226,-0.0141497
-0.0236094,-0.0140439
-0.0187942,-0.0122822
-0.00544395,0.00769772
0.00603154,0.0198287
0.00685752,0.00680776
0.00837658,-0.000764512
0.0143846,-0.0132424
0.0072533,-0.0115345
-0.0028381,0.00171346
0.00704645,0.0156998
0.0199107,0.0214386
-0.00733053,0.0207914
-0.0246906,0.00492284
0.00291732,-0.00137094
0.0117029,-0.00156844
0.00976576,0.000522028
-0.00221677,0.00118209
-0.0083689,-0.00719311
-0.00518739,-0.00770795
-0.00204014,0.00122991
-0.039021,-0.00241872
-0.0935033,-0.000265522
-0.0642725,0.0156236
0.00871736,-0.00320576
0.0645725,-0.012543
0.0850954,-0.000348845
0.0613714,0.00632603
0.0266271,0.0185437
0.00232582,0.0126007
-0.0206799,0.00244633
-0.0333746,-0.0042521
-0.0253224,-0.0237237
-0.00111063,-0.0242416
0.021049,-0.0258107
0.0345586,-0.0135845
0.030566,0.0146857
0.0142932,0.021757
0.000353482,0.00423054
-0.000313605,0.0024554
-0.0190503,-0.0047481
-0.0430869,-0.0128185
-0.0586861,-0.00687725
-0.0586159,-0.00271961
-0.0559158,-0.00524055
-0.0101651,-0.00284604
0.0396245,0.0237314
0.0445219,0.0221689
0.0384393,-0.00356391
0.0420669,-0.0212068
0.0386107,-0.0142921
0.0186526,-0.00979705
0.000356277,-0.00153837
-0.00704091,-0.000919572
0.00088261,-0.0134701
0.00822166,-0.0123406
0.00202177,-0.00234323
-0.012497,0.00250804
-0.0231123,0.022081
-0.0361482,0.0168883
-0.0330213,0.0186273
-0.00730498,0.0104872
0.0126281,0.0109963
0.00528269,0.0156811
0.00210033,0.0118239
0.00800622,-0.0059612
0.00468142,-0.019387
-0.000915016,-0.0189507
0.00602806,-0.00551089
0.00818921,-0.0033755
-0.000471337,0.00488854
-0.000852341,0.014315
0.0108653,0.00884377
0.0121338,0.0010565
0.00924916,-0.014545
0.001695,-0.0134095
0.00837091,-0.00699877
0.0177456,-0.0111559
0.0116766,-0.00383349
0.00687929,-0.00197055
0.00572892,0.0154432
-0.00426681,0.00215105
0.00910597,-0.0264969
0.0241829,-0.0282038
0.0126501,-0.0132734
-0.0220858,-0.00526392
-0.0458599,0.00916788
-0.0347818,0.0270935
-0.0201925,0.0273431
-0.0166506,0.0292928
-0.00238937,0.0213467
0.0128875,0.00169589
0.0129363,0.000150912
0.00209256,0.0115232
-0.0077744,0.0106194
-0.0149159,0.0107544
-0.0200196,0.0200728
-0.0209719,0.0298874
-0.0167535,0.0062869
-0.012499,-0.0105685
-0.0258529,-0.00956745
-0.0439291,-0.00837487
-0.0374918,-0.00528026
-0.0275251,0.000327479
-0.0158774,-0.00901138
0.0131105,-0.0122654
0.0391035,-0.0213206
0.0580345,-0.0177063
0.0602069,0.00547393
0.0586166,0.000852291
0.0309849,0.000510431
0.0124755,-0.00786751
0.0176271,-0.00443454
0.0254161,0.00648153
0.0186123,-0.0228176
-0.00626631,-0.018665
-0.0138346,-0.00552786
-0.00347677,-0.00674003
-0.0144936,-0.00498735
-0.04422,-0.00574606
-0.0345042,0.010408
0.00612518,0.0231688
0.0227622,0.0211245
0.00233724,-0.00321205
0.0136217,-0.0145877
0.0314715,-0.0157241
0.00717792,-0.0102667
-0.0112818,0.000249035
-0.0258694,0.00267011
-0.0476045,0.00904971
-0.0305323,0.00294013
0.00855638,-0.00507552
0.0317188,-0.0117422
0.023858,-0.00298956
0.0111419,0.00329474
-0.011737,-0.00055802
-0.0567989,0.00277637
-0.0720332,0.00472162
-0.0447783,0.00167719
0.00114569,0.00330343
0.0355911,-0.00522276
0.0581265,-0.0165811
0.0806639,-0.0119935
0.06824,0.0050999
0.035886,0.00613617
0.00591729,0.00724849
-0.0109145,0.0116095
-0.0148162,0.00851469
-0.00870166,-0.00559292
-0.00795276,-0.0106576
-0.0100096,-0.00253405
0.00136324,-0.00344685
0.0117827,0.00082032
0.00363182,0.00522983
-0.00851838,0.0116875
-0.00807383,0.0134433
-0.00483899,0.00647055
-0.0190397,-0.00798635
-0.0252379,-0.0248362
-0.00763141,-0.0121834
0.0110443,0.0166911
0.017115,0.0211614
-0.00528926,0.0256492
-0.0341165,0.0394793
-0.0360899,0.0123419
-0.0167701,-0.0222706
0.00058341,-0.0096768
0.0137273,-0.00287443
0.020806,-0.00696207
0.0156547,-0.00451736
0.0126393,0.00697827
0.00333829,0.000878556
-0.0102592,-0.00576602
-0.0132055,-0.00527769
-0.00495239,-0.00706399
-0.00348649,-0.00567589
-0.00864934,0.000275611
-0.0158609,-0.0061372
-0.0113419,-0.00704735
-0.0159153,-0.00466684
-0.0167243,0.00587779
-0.000520857,0.00667701
0.00932548,-0.00922212
0.00910571,-0.00854391
0.00359106,0.00441064
0.00916804,0.00781264
0.00820335,0.0148855
0.00201837,0.0230952
0.00880051,0.0193662
-0.000922326,0.00651531
-0.00228563,-0.0250005
-0.00113707,-0.0302056
0.00819503,-0.00671646
0.0164684,-0.0091776
0.00480092,-0.0218752
0.0112513,0.00584103
0.00852769,0.0123081
-0.00882669,-0.00165029
-0.00814375,-0.0145499
-0.00350593,-0.0122214
0.00569923,-0.00297301
0.00312245,0.000183003
0.00815107,0.0047556
0.0155239,0.00408831
0.0120077,0.00983026
0.0160352,0.0106283
0.0252814,0.00267233
0.0161257,0.00319416
-0.0123501,0.005367
-0.0310535,-0.00233895
-0.0184257,-0.00262627
-0.00924491,-0.00486778
-0.00407288,-9.15e-05
-0.00503351,-0.00316596
-0.00914068,-0.00340766
-0.00227428,-0.00210337
-0.00267256,-0.00934602
-0.00942557,0.00824366
-0.018562,0.00994921
-0.017174,0.00914129
-0.0255121,0.0132163
-0.0429485,0.0127651
-0.0330345,0.00745013
0.00934992,0.00138507
0.0564089,-0.0090559
0.049052,-0.0145139
0.0137303,-0.00932606
0.00550023,0.0022063
-0.00257963,0.00201641
-0.0033255,0.0035303
0.0079242,0.0149781
0.025114,0.0183995
0.0270673,-0.0054453
0.00707278,-0.00451673
0.00551822,-0.00379718
-0.00318619,-0.00421564
-0.00623575,0.00495978
-0.000765412,-0.00643345
0.00574469,-0.00653702
0.0140012,-0.00565163
0.0204538,-0.0159927
0.0074477,-0.0338796
-0.00791635,-0.0152491
-0.0143533,0.0128604
-0.0175666,0.015125
-0.0341655,0.00919941
-0.0407261,0.00298713
-0.0227507,0.00252894
-0.00678697,-0.00486626
0.00714254,-0.0230751
-0.0307518,0.00585215
-0.0594563,0.0157957
-0.0357692,0.0100018
0.00186482,0.0149429
0.0328851,0.0164024
0.0554323,0.00924268
0.0536095,-0.00784738
0.0367858,-0.0209059
0.0269199,-0.0122989
0.0275178,-0.0116896
0.011008,-0.0139035
-0.0148357,0.00168578
-0.0203305,0.0158129
-0.0149879,0.0211345
0.0049271,0.0167168
0.0309575,-0.0015247
0.0340246,-0.00379853
0.0100178,0.0053433
-0.00564179,0.00219108
-0.0192325,-0.00411179
-0.00769926,-0.00157709
-0.00543459,0.00779505
-0.0188745,0.0146685
-0.0274341,-0.0002121
-0.0209726,-0.0211523
-0.0048734,-0.020935
0.00678725,-0.00677237
0.00388263,0.00552458
-0.00136843,0.00337487
-0.0108908,-0.000894564
-0.0228204,0.00592228
-0.023493,0.0011657
-0.00490024,-0.00608239
0.0146365,0.00189027
0.024292,0.00314101
0.0209966,0.00405907
-0.00207348,0.0093059
-0.0186065,0.0117319
-0.0121098,0.000869112
-0.00491032,-0.00697452
0.00314455,-0.00467421
0.00732296,-0.00991589
0.00365337,-0.0077547
-0.0100309,0.00171968
-0.0160854,-0.000637275
-0.00989938,-0.00641214
-0.00242304,0.000994501
0.00116191,0.0261507
-0.00273322,-0.00223495
0.00823302,-0.0265494
0.00818007,-0.00834243
0.0175687,-0.000570921
0.0272416,0.00376098
0.0204519,0.0106958
-0.00128156,0.0109307
-0.0260564,0.00439828
-0.0347328,0.00594447
-0.0242431,-0.00134932
0.00979771,-0.0140966
0.0248298,-0.0188232
0.026672,-0.00971464
0.0275307,-0.00497867
0.0154043,0.00332731
-0.000337812,0.0112918
-0.0114239,0.00464361
-0.012239,0.00032311
-0.000960478,0.00852389
0.0119355,0.00286212
0.0250046,-0.0105426
0.02621,0.0120572
-0.00420522,0.0342802
-0.0379363,0.0162644
-0.016395,-0.0138125
0.000210242,-0.0303856
0.00584726,-0.0184374
0.00691227,-0.00858168
-0.00590114,-0.0164133
-0.010611,0.00673548
-0.00856167,0.0127598
-0.00438147,-0.00401949
-0.00316098,0.0123489
0.00230987,0.00545132
0.0105127,-0.00663999
0.0106758,-0.00171091
0.00361887,-0.00114421
-0.0108562,0.00330782
-0.0241703,0.00866924
-0.0306572,0.0096816
-0.0199895,0.00108963
-0.00658446,-0.00356067
0.00468023,-0.00837783
-0.0171098,-0.0118458
-0.0112529,-0.00289915
0.0160212,-0.00530742
0.0324784,-0.00321808
0.0448867,0.0122977
0.0327848,0.00803346
0.0105651,0.00254853
-0.000719408,-0.00286196
0.00221398,-0.00901356
0.00327124,0.00102755
0.00864878,0.00356694
0.0114936,0.00720981
0.00403145,0.00967453
-0.00713297,0.00681628
-0.00843806,0.00446462
-0.00235996,0.0114324
0.0115294,0.0012501
0.0164587,-0.0187882
-0.00623469,-0.016616
-0.0297303,-1.24e-05
-0.0255798,0.00372449
-0.0246766,-0.00232873
-0.0288612,0.00411313
-0.0540073,0.0083893
-0.0731456,-0.0141179
-0.0315886,-0.0183683
0.0322453,-0.000542324
0.0719494,0.00278691
0.0675873,0.00791006
0.0464146,0.010327
0.0110553,0.00595367
-0.0659885,0.00115364
-0.0807854,0.00205421
-0.0379627,-0.0075873
0.00860356,-0.0113366
0.046386,-0.00298016
0.0701648,0.00175593
0.0658975,0.0044268
0.0357556,0.0033334
0.00795522,0.00644061
0.00254141,0.00696454
0.00295605,-0.00727297
-0.00405918,-0.0107999
-0.00324434,-0.00557709
-0.0130864,0.0012417
-0.0223907,0.00197996
-0.0193863,-0.00515858
-0.0118911,0.0129846
-0.010898,0.0096046
-0.0122032,-0.0158416
-0.00978211,-0.0188114
-0.00869051,-0.00545284
-0.0107684,0.00137901
-0.00949874,0.00156894
-0.00435716,0.0133605
-0.00609303,0.0196168
-0.00489196,0.0205551
0.000456682,0.0109347
0.0225886,0.000459596
0.0452616,-0.00285318
0.0410333,-0.00536928
0.0285954,0.000522851
0.0203196,0.00321199
0.00295546,0.00188249
-0.0158883,0.00111047
-0.0253943,-0.00494004
-0.0258905,-0.0114184
-0.0236651,-0.014057
-0.0427076,-0.00967425
-0.0534021,-0.00412544
-0.0391583,-0.0103937
-0.0167157,-0.00096296
0.000538736,0.0144464
0.0209647,0.0109521
0.0373238,-0.0178705
0.0389776,-0.0313569
0.0295446,0.0073555
0.019679,0.0217008
0.00777413,0.0109997
-0.00709162,0.0193289
-0.0101279,0.0186261
-0.00475676,0.000899696
-0.0081971,-0.0101167
-0.00207868,-0.0208052
0.0128974,-0.024943
0.0100425,-0.00713654
0.00397164,0.000839636
-0.000129363,-0.00621922
-0.01193,-0.0057268
-0.0205966,0.00472064
-0.0203422,0.0032397
