Comp Ch 3,Comp Ch 4
0.01577,-0.00950131
0.0194303,0.0279379
0.0313232,0.0214381
0.0435153,-0.00928104
0.0520633,-0.020502
0.047521,-0.0143491
0.0315436,-0.0152922
0.0110275,-0.0049247
-0.026096,0.00390706
-0.0536595,0.0046727
-0.0569892,0.000477211
-0.068923,0.00245553
-0.0678737,-0.00850801
-0.0290504,-0.0228212
-0.00230245,-0.00658793
-0.00849724,0.0169139
0.0156044,0.0190368
0.0586521,0.0231266
0.0722005,0.0265578
0.0701426,0.0159672
0.0650454,-0.00545912
0.0486483,-0.0273094
0.0295362,-0.0226445
0.0158293,-0.0127569
0.011713,-0.00286323
0.00305856,0.0101402
-0.00605723,0.0172354
-0.0115509,0.0075035
-0.0223272,-0.00693732
-0.0300358,-0.0279685
-0.0597068,-0.0191308
-0.0786624,-0.00205489
-0.0617069,-0.0079899
-0.0190524,0.00439944
0.0158187,0.0236296
0.0147076,0.0303507
0.0059207,-0.00050799
0.0150514,-0.0218389
0.0157955,-0.013498
0.0127759,-0.0248622
0.00155229,-0.0251076
0.00584572,0.00749553
0.018145,0.0166825
0.0162856,0.00903357
0.00994043,0.0245107
-0.000982153,0.0178218
-0.00482661,-0.00214669
-0.00676441,0.000141574
-0.0112444,0.00959945
-0.0111529,0.00530507
-0.00897662,0.00540981
-0.00790644,0.0126244
-0.00788866,0.0152684
-0.00821164,-0.0054257
-0.00603962,-0.0197943
-0.00075921,-0.015029
0.00226604,-0.0265165
-0.0104826,-0.0228218
-0.0132231,-0.00770486
0.00855678,0.0019522
0.00698284,-0.000437533
0.00475236,0.0197376
0.0220932,0.0202418
0.0299094,-0.00335389
0.0234731,-0.00075384
0.00463951,-0.00785307
-0.0219824,-0.00615317
-0.0405768,0.0085453
-0.0259491,0.0196321
0.0168331,0.000445792
0.0413799,0.00154001
0.0463715,-0.00774434
0.0368658,-0.0267461
0.0142996,-0.0319109
0.00698456,-0.0130082
0.00592122,0.00249239
-0.0395791,0.0105221
-0.0783129,0.007853
-0.0991614,0.000780665
-0.0933127,-0.0039364
-0.0143223,0.0251918
0.100199,0.0333129
0.14014,0.0445117
0.109953,0.0398425
0.0518013,0.00407584
-0.0305294,-0.0200222
-0.166639,-0.0274791
-0.238803,-0.041122
-0.193793,-0.0586287
-0.0602347,-0.0292328
0.032363,-0.00313143
0.106632,0.0123221
0.156632,0.0327061
0.15123,0.0321153
0.0657599,0.00964819
0.00672239,0.00264719
0.0155032,0.0121218
0.0134733,0.014804
-0.0268452,0.016961
-0.0545874,-0.0245996
-0.0499796,-0.0464983
0.0254422,0.0141059
0.0812064,0.0423735
0.0745264,0.0132476
0.0475232,-0.0227777
0.0312536,-0.0152355
0.0137927,-0.00239101
0.000129338,-0.0016371
0.00109697,0.00207583
-0.0155851,0.00823266
-0.0334086,0.0100412
-0.0498029,0.00506662
-0.0433451,-0.0137107
-0.0155364,-0.0359787
-0.00682494,-0.0263352
-0.015096,-0.00274346
-0.014113,0.00692578
-0.0190149,0.00964977
-0.00453057,0.0197771
0.0160181,0.0179209
0.0124616,-0.00332869
0.00752961,-0.0145911
0.00179266,-0.00320985
-0.0115004,-0.00581308
-0.0224489,0.00207405
-0.014226,0.00331755
-0.00211425,0.00720868
0.00248413,0.00358745
0.00203041,0.00219932
0.00136169,-0.00622615
0.001676,-0.0191164
-0.00250543,-0.0164542
0.00193497,-0.0016322
0.0232303,0.0147924
0.0263419,0.00498542
0.0152138,0.00286798
0.0131456,0.0016656
0.0121258,-0.0260749
-0.000312243,-0.0231906
-0.00513636,-0.0144172
-0.0016678,-0.0236993
-0.00941965,-0.00325647
-0.00878276,0.0134675
-0.00763749,0.025743
-0.000290283,0.0331052
-0.0125197,0.0218483
-0.0213867,-0.000443722
0.00302752,-0.00219941
0.0251076,0.0216044
0.0214912,0.0283356
0.00766301,0.0200602
-0.00223663,0.0182544
-0.0200013,0.00619334
-0.0502749,-0.00242052
-0.115524,0.000228378
-0.184359,-0.0113265
-0.254399,-0.00564368
-0.212929,0.0062025
-0.0163224,0.0198873
0.183271,0.00128819
0.313781,-0.00123731
0.274839,0.00493121
0.156864,-0.0118777
0.0630929,-0.0303677
-0.0225502,-0.0258567
-0.0800026,-0.00588763
-0.0749388,-0.00839992
0.00326088,-0.0182515
0.0632519,0.00575788
0.0374966,0.0229588
0.0100059,-0.00081232
0.0331603,-0.0160732
0.0568729,0.000512323
0.0400932,0.00312959
-0.00376745,0.00404889
-0.0288892,0.00855439
-0.0392598,0.0141514
-0.0311988,0.0128004
-0.0325484,0.00461683
-0.0370837,-0.0153965
-0.0348103,-0.0344782
-0.0390956,-0.0209978
-0.0300875,-0.0139506
-0.0108005,-0.0189545
-0.00696701,0.000593357
-0.0143419,0.0207688
0.0115423,0.0236748
0.0240019,-0.00475155
0.0037672,-0.0332966
-0.0143104,-0.00516953
-0.00667287,-0.00356869
0.00908259,0.00646698
0.0141175,0.0212438
0.0131266,0.016129
0.00939013,0.0102169
0.00761487,0.00200184
0.00148473,-0.0124967
-0.0225167,-0.0154474
-0.033828,-0.00110477
0.00713307,0.000290872
0.0235069,0.00668953
0.0153758,0.0164453
0.0066922,0.0199803
-0.00567923,0.00312943
-0.0122928,-0.021331
-0.0164173,-0.0216822
-0.00895333,-0.0105393
-0.00411166,0.00384816
-0.0135632,0.0177066
-0.0173751,0.0178349
-0.0147451,0.00943636
-0.0149603,0.00734123
-0.0117056,-0.0124059
-0.0176699,-0.0294548
-0.0338792,-0.0252749
-0.0227976,-0.00567571
0.00644535,0.0136531
0.0302554,0.0203675
0.0334373,0.014036
0.0275939,0.0152108
0.0325245,0.00258606
0.0288528,-0.00992271
0.0268203,0.000301531
0.0241361,-0.00846597
0.0186752,-0.00717157
0.0135026,0.02072
-0.0074939,0.0230473
-0.0259361,0.0085875
-0.0259543,0.00322264
-0.0177568,-0.0159433
-0.00468317,-0.0322224
0.015375,-0.0206516
0.00999278,0.000264845
0.00543589,0.00411032
0.0127463,0.00940587
0.0157178,0.0151157
0.0153081,0.0103889
0.0136888,-0.0062661
0.0124353,-0.014896
0.00972033,-0.00407208
0.00251341,0.00558892
-0.0170157,0.0101385
-0.0240962,0.0159336
-0.0103477,0.0118785
-0.00460794,0.00559043
-0.00863902,-0.00409397
-0.021711,-0.0325284
-0.0626111,-0.0381658
-0.0654172,-0.00695025
-0.0298208,-0.00981193
0.00491701,-0.0165095
0.026583,0.010432
0.0472268,0.024163
0.0735967,0.00732099
0.0529138,-0.0143052
0.0269927,0.00812931
0.0198987,0.0104519
0.00570026,0.00747198
-0.0224044,0.0089781
-0.0451279,0.026692
-0.0351047,0.0228548
-0.0111338,0.00585747
-0.00928836,-0.00654668
-0.0235315,-0.0172505
-0.0230444,-0.0265372
-0.0424768,-0.0123166
-0.112138,-0.0018516
-0.101296,0.00313573
0.00872992,0.0161146
0.0711168,0.0176007
0.0731476,0.00735709
0.0747312,-0.00452615
0.0980077,0.00146103
0.0924845,-0.000572753
0.0481285,0.000990185
0.00865256,0.00642984
0.00239449,0.0166359
-0.000930435,0.0204252
-0.0120312,-0.00738343
-0.0151007,-0.0245616
-0.0166571,-0.030602
-0.0148574,-0.0212422
-0.0118403,-0.00666871
-0.0153043,-0.00603448
-0.0234133,-0.00260214
-0.0319495,0.0131153
-0.0453,0.0156703
-0.0188225,-0.00535384
0.0225728,-0.0198133
0.0124991,-0.0155727
-0.0190249,0.00629937
-0.0313391,0.0124905
-0.0106219,0.0143307
0.00809765,0.0256909
-0.0435843,0.0189489
-0.0721543,0.00937884
-0.0372083,-0.0116632
0.00497949,-0.0257339
0.0338662,-0.0142476
0.0651861,-0.0251577
0.083387,-0.0240376
0.0629645,0.00860162
0.0245548,0.021466
0.00101493,0.00163417
-0.00469109,-0.0117024
-0.00550542,-3.12e-05
-0.00466357,0.00778386
-0.00128953,0.011037
-0.00589893,0.0148378
-0.00775194,0.0206362
-0.00623762,0.0149528
-0.00795933,0.00861696
-0.0092699,-0.00377155
0.00483798,-0.0299783
0.0305222,-0.0340245
0.0399061,-0.00865242
0.0339084,0.0101443
-0.0195791,0.0189533
-0.0571441,0.0196431
-0.0572675,0.019197
-0.0468463,0.00969769
-0.0367629,-0.0063341
-0.00785295,-0.00874096
0.0308328,-0.00363078
0.0337089,0.00112396
0.016196,0.00501295
0.00865354,0.00377572
0.0013273,-0.00103479
-0.0211301,-0.00483249
-0.0281551,-0.0226925
-0.0233191,-0.0294599
-0.0182461,-0.024083
-0.0164484,-0.000242844
0.00772677,-0.00771611
0.0246997,-0.00982764
0.0352458,0.0154776
0.0264777,0.0327104
0.0147657,0.0119228
0.0119802,0.00239676
0.014542,0.00537259
0.0146218,-0.00625377
0.0043279,0.0021638
-0.00503793,0.00861838
-0.00541099,0.00585111
-0.00726855,0.00562213
-0.0066685,-0.00553048
0.000336053,-0.0293474
-0.00397567,-0.0190541
-0.0128206,-2.41e-05
-0.0133354,0.0112339
-0.00724207,0.0182166
0.00357909,0.0191241
0.00643257,0.0214704
0.00566892,0.00831685
0.00501054,-0.0110749
0.00775375,-0.01306
0.00700879,-0.00904568
0.00937011,-0.00742257
0.00717888,-0.000424935
0.00309466,0.00750746
0.00949032,0.00973333
0.0241795,0.00819076
0.0223096,-0.00193378
0.00738982,-0.0216816
-0.012133,-0.0187692
-0.0228604,0.000578619
-0.0231665,0.00909682
-0.0214208,0.0130498
0.000983634,0.00958937
0.0160573,0.00401899
0.0193038,-0.00454079
0.00333844,-0.0188436
-0.0332194,-0.00372282
-0.0489879,0.00374935
-0.0378118,-0.00440508
-0.0145168,0.00489831
0.00834779,0.01803
0.0108775,0.0114908
0.00754951,-0.000813866
0.0203104,-0.0146749
0.0403895,-0.0267108
0.0364807,-0.00772911
0.0211996,0.0155403
0.00985242,0.00974353
0.00449498,0.0154533
-0.00142168,0.0221562
-0.0209403,0.0146653
-0.0272208,-0.0114324
-0.0190696,-0.0226343
-0.0107972,-0.0124989
-0.0132059,-0.0122012
-0.0242712,-0.00832779
-0.0401657,-0.00305629
-0.0258289,-0.00114447
-0.00118814,-0.00443658
0.0194206,-0.00908795
0.0337057,-0.0207978
0.0333192,-0.0464767
0.028475,-0.00869333
0.0107929,0.024676
-0.0386855,0.018276
-0.070275,0.00529378
-0.0449174,-0.0139585
-0.0132947,-0.00288886
0.0152247,-0.00869017
0.0642504,-0.00797859
0.0906998,-0.00293193
0.0707006,0.00851735
0.0177012,0.0199389
-0.0108467,0.0246961
-0.0186676,0.0285124
-0.0247189,0.0214794
-0.00537068,0.00594303
0.0158066,0.00114508
0.00158658,0.00317383
-0.0193675,0.0109509
-0.0153499,0.0253296
-0.00981334,0.0339367
-0.00599587,0.0362438
-0.00853914,0.0275316
-0.0174932,-0.00238043
-0.0638771,-0.0270832
-0.117041,-0.0300273
-0.100698,-0.0231628
-0.0345525,-0.0212173
0.0382695,-0.0129294
0.0757087,-0.00325276
0.0907761,-0.00727452
0.085272,-0.00270908
0.0495709,-0.0106593
0.0252407,-0.0216932
0.0207804,-0.00849202
0.0234403,0.00596758
0.019105,0.00411704
0.00481417,0.0177544
0.00965346,0.0296047
0.0590057,0.0106924
0.0855194,-0.029491
0.0700918,-0.044597
0.0339789,-0.0251694
-0.016739,-0.019458
-0.0651343,0.003822
-0.0898804,0.022942
-0.0948729,0.0149481
-0.0832533,0.00266662
-0.076202,0.00287692
-0.0521202,-0.00620707
-0.0337681,-0.00787589
-0.0321487,0.00595473
-0.0152297,0.0206217
0.00763295,0.0296514
0.00859559,0.0271218
0.00126044,0.0247815
-0.00238508,0.00651203
0.00190486,-0.0215247
0.0134169,-0.0247
0.0164831,-0.0281649
0.0111586,-0.0298751
0.00680362,-0.0120266
0.00610288,0.00795734
0.00987053,0.00156755
0.0266303,-0.00790265
0.0582687,0.00352332
0.0874264,-0.0122004
0.0842834,-0.0017982
0.0515971,0.0205595
0.0163491,0.0205093
-0.0193512,-0.00270834
-0.050599,0.0108883
-0.0690468,0.0140691
-0.0750588,-0.0352083
-0.0419771,-0.0307135
-0.0106158,-0.009144
0.0275005,-0.0129597
0.038668,-0.00797908
0.0126098,0.00416204
-0.000521431,0.0281763
-0.0012402,0.0328354
0.00212405,0.017684
0.00648167,-0.000868291
0.0127909,-0.0119844
0.00185552,-0.000810696
-0.016402,0.0138444
-0.0171217,0.0201435
-0.0214014,0.0282978
-0.0200091,0.0227094
-0.0177614,0.0147649
-0.0196961,-0.00409299
-0.0242837,-0.0277193
-0.0180978,-0.0237837
-0.00925417,-0.0166803
-0.00665101,-0.014337
0.00644159,-0.00884728
0.0235498,0.00323958
0.0712016,0.00839849
0.0905177,0.00382528
0.0573135,-0.0236718
0.0186166,-0.0183226
-0.0170068,0.00690915
-0.0515972,0.0159488
-0.0468689,0.0133159
-0.0390139,0.0173991
-0.0378705,0.0179481
-0.0320228,0.00392301
0.00226609,-0.0190218
0.0255401,-0.0335262
0.0481007,-0.0218618
0.0515179,-0.000155305
0.0188231,0.0153344
-0.00718647,0.012566
-0.0281682,0.00383946
-0.0731532,-0.000348343
-0.0912172,-0.00484898
-0.0146189,-0.0201635
0.0864594,-0.0230794
0.101878,0.00060562
0.0655486,0.0068976
0.0297094,0.000333063
-0.00980532,0.0168911
-0.0390066,0.0400394
-0.0388408,0.0076414
-0.0397243,-0.0167526
-0.0496731,0.00309159
-0.0296396,-0.0201416
-0.000708619,-0.0127991
0.00172203,0.00247056
-0.0520628,0.00885467
-0.101735,0.00772511
-0.0754554,0.00899869
-0.0167983,-0.00585496
0.0377424,-0.0242705
0.089351,-0.0132642
0.13833,0.00386165
0.128879,0.00553471
0.10457,0.0129512
0.066003,0.022505
0.0199325,0.0167993
-0.00569979,-0.00438011
-0.016962,-0.0165748
0.00885457,-0.0090919
0.0281839,-0.0103726
-0.0163213,-0.00916847
-0.0584413,0.0084701
-0.0718836,0.00839062
-0.086984,-0.000976354
-0.0824511,0.002245
-0.0795996,-0.0192473
-0.0507201,-0.0405659
-0.0237759,-0.00493179
-0.00769515,0.0116592
0.00871914,0.0202511
0.0339462,0.0250258
0.0435108,0.0263972
0.0388143,0.0107203
0.0349414,-0.023779
0.0160423,-0.00591169
-0.00685516,0.0237412
-0.0204566,0.0145574
-0.0272011,0.00443045
-0.0211667,0.00616276
0.00178674,-0.00334083
0.0479294,-0.000629462
0.0949477,-0.00813064
0.0840328,-0.0376299
0.0524147,-0.0283653
0.018502,0.00348952
-0.0175749,-0.00418616
-0.0351985,0.0149248
-0.0547726,0.0202169
-0.074581,0.00565161
-0.0591569,0.0068567
-0.060068,-0.00795855
-0.0536011,-0.00439345
-0.027137,-0.00401987
-0.00657805,0.00226354
0.00768186,-0.0017655
0.0265264,0.0162423
0.0308483,0.00538534
0.0157833,-0.0161094
0.0135984,-0.0109953
0.0183103,-0.00788191
0.00608031,0.0018783
-0.00026743,0.0180408
0.0132297,0.0200815
0.0244796,0.0131165
0.0564021,0.0188291
0.0686288,0.00974302
0.0445419,-0.00581932
0.03772,-0.0196227
0.0384076,-0.0123723
0.0228559,-0.00462087
-0.010332,0.00885017
-0.0524443,0.014815
-0.0662179,0.0093239
-0.0431999,0.00234982
-0.0350662,-0.00126391
-0.0390141,-0.0337181
-0.0377596,-0.0271513
-0.00891955,-0.00319386
0.00702499,0.0082783
0.00435909,0.00625845
-0.00501523,0.0174091
-0.00909497,0.0262714
-0.0180904,0.0112287
-0.000325811,-0.0215755
0.102774,-0.0362724
0.126714,-0.0342647
0.0788335,-0.0105749
0.0341842,0.00626281
-0.0132119,0.0135409
-0.0533092,0.0100901
-0.0863296,-0.0218514
-0.0885337,-0.00322498
-0.0887948,-0.00333392
-0.0985363,-0.0171026
-0.104685,-0.0146784
-0.0777611,-0.0128648
-0.0340701,0.00522017
0.0136381,0.00871627
0.0388521,0.00831875
0.0457758,0.00568098
0.0365348,0.00505976
0.0106405,-0.0133481
0.00572441,0.00476756
0.0261446,0.0267792
0.143511,0.039957
0.219029,0.0407822
0.200347,0.0407454
0.113384,0.0462798
-0.0119317,0.0223415
-0.0664361,-0.0114977
-0.0883409,-0.00655755
-0.111986,-0.0289052
-0.147094,-0.0581971
-0.154408,-0.0146106
-0.0614792,-0.0313504
0.0535595,-0.0510721
0.103759,-0.0409176
0.0745397,-0.0175748
-0.00663496,0.00895087
-0.0789428,0.000134707
-0.107387,0.00870307
-0.116442,0.0194174
-0.0847088,0.0289697
-0.0125261,0.049059
0.054537,0.00543655
0.0873788,-0.0199621
0.0891109,-0.00463497
0.0747457,0.0258774
0.0463028,-0.000379344
0.010132,-0.0230231
-0.0092924,-0.0122437
-0.0148501,-0.0164867
0.0037295,-0.0317462
0.0102783,-0.0251284
0.0168293,-0.00657781
0.0237632,0.00316036
0.029853,0.0383724
0.0268965,0.0838416
0.0189274,0.100764
-0.00133061,0.0695484
-0.0247472,0.00795245
-0.0334487,-0.0540025
-0.00136909,-0.0569683
0.0254094,-0.0164319
0.029637,-0.0049636
0.000901132,-0.013757
-0.0286193,-0.00648143
-0.0385706,-0.0298963
-0.0562329,-0.0484005
-0.0373242,-0.0381368
-0.0165262,-0.0214106
-0.0128014,-0.0154603
-0.0317395,0.000688486
-0.0416611,0.0281853
-0.0241766,0.022232
-0.00702961,0.0215964
0.00351321,0.0387314
0.0194683,0.0260747
0.0277106,-0.00474635
0.0322291,-0.00460747
0.0225559,-0.0227371
0.0269034,-0.0478002
0.077415,-0.0544132
0.124924,0.00941177
0.0875683,0.0292806
0.0244376,-0.0169328
-0.0220385,-0.0443035
-0.0412349,-0.0220642
-0.0438547,0.00889676
-0.0563504,0.0119714
-0.0665078,0.0146485
-0.055055,0.023482
-0.00467826,0.0162992
0.025491,0.0175536
0.0217312,0.0121725
-0.00770527,-3.31e-05
-0.0446707,0.00379525
-0.062788,0.0227117
-0.0643015,-0.024748
-0.0362607,-0.00909974
-0.0101695,0.0728928
0.00505238,0.0458199
0.0157696,0.0110735
0.0452197,0.0155052
0.0694374,0.0205665
0.0918219,0.0245714
0.100039,-0.0195182
0.0831373,-0.00165945
0.0408686,0.0356635
-0.0186146,0.0248078
-0.0866916,-0.00362162
-0.0997827,-0.0212363
-0.0709045,-0.018742
-0.0395454,-0.0152277
-0.0253655,-0.0187155
-0.00939977,-0.0217642
0.000769699,-0.0152217
0.00625704,-0.0168631
0.0011446,-0.0286784
-0.00792502,-0.0432722
-0.00747311,-0.0339269
-9e-05,-0.0204137
-0.00666277,-0.00942173
-0.0154431,0.0153307
-0.0110973,0.00711159
0.00489303,0.00451097
0.0240951,0.0326698
0.0261325,0.0191348
0.023711,-0.00729646
0.0353288,-0.0055053
0.0390162,0.00331711
0.0215971,-0.0123085
0.0114721,-0.00846407
-0.00509144,0.019631
-0.0133324,0.0103101
0.000280543,-0.0301261
0.00474865,-0.0199489
-0.0119117,-0.00410181
-0.000485663,-0.00735281
-0.00252134,-0.00639539
-5.53e-05,-0.00693038
0.0214422,0.0179026
0.0370137,0.0438919
0.0446058,0.02818
0.0308318,-0.000504827
0.01099,-0.0181246
-0.0246442,-0.00210607
-0.0410287,0.0102686
-0.0442183,-0.0114294
-0.0560838,-0.0124507
-0.0588466,0.0150489
-0.0522466,0.0213875
-0.033783,-0.0152903
-0.00588512,-0.0292419
0.00899343,-0.00923323
0.0185709,0.00500803
0.0174701,-0.00509653
0.0116513,0.018685
0.00894614,0.0399256
0.0174887,0.0320559
0.0206878,0.0072066
0.0271463,-0.0193383
0.0287452,-0.0112092
0.0215146,-0.00112257
0.0228639,-0.00250178
0.0265487,-0.00715699
0.0202175,0.000830961
0.00717332,0.0053216
0.0125836,-0.00836841
0.0306341,-0.0220956
0.0144642,-0.0119283
-0.0790036,-0.016417
-0.138625,-0.0200504
-0.159204,0.00285966
-0.130523,0.00560009
-0.040852,0.00752617
0.0687004,0.0308534
0.144596,0.0153881
0.130696,-0.00523069
0.0450973,-0.00259969
-0.0029429,0.00495619
-0.00311627,-0.00193825
0.0260177,0.00201178
0.0467909,-0.00362975
0.037252,-0.0132552
0.0271102,0.000387514
0.00278116,-0.0114956
-0.00128906,-0.0076112
0.0144283,0.00415896
0.0133243,0.00682569
0.00671936,0.0146081
0.00219814,0.0215989
-0.0168907,0.0150771
-0.0308775,0.0154583
-0.0329795,-0.000293842
-0.0369718,-0.014798
-0.0973887,-0.00233366
-0.162792,0.00428528
-0.161492,-0.0101411
-0.114484,-0.0187617
0.00832302,0.00371661
0.116066,-0.00999501
0.125577,-0.0254091
0.109007,-0.0254013
0.0968947,-0.00574413
0.0590204,0.00787675
0.0374398,0.0244536
0.022186,0.0246145
0.00996588,0.0206137
0.00539764,0.0216567
0.00435977,0.0147981
0.00848674,-0.0110396
0.00560861,-0.0276165
-0.0109351,-0.0173459
-0.0233827,-0.0130025
-0.0274362,-0.00633194
-0.0270616,0.00152038
-0.0288331,0.00520226
-0.0268206,-0.0045119
-0.0119545,-0.0166089
0.0044181,-0.013287
0.0149184,-0.00216699
0.00980959,0.00543633
0.000557954,0.0174101
0.000345975,0.0244548
0.000129248,0.0195792
-0.00224762,0.017024
0.00831023,0.00479393
0.0490509,-0.00204112
0.0768472,-0.0107382
0.0841496,-0.00740724
0.0624618,-0.0260549
0.0101857,-0.0339323
-0.0333382,0.0187441
-0.0771728,0.0227068
-0.110984,-0.015322
-0.0924887,-0.00926634
-0.0677105,0.00216747
-0.111583,-0.015131
-0.100557,-0.00353019
-0.0492804,0.0135021
-0.00562203,0.00728267
0.0368959,0.00450933
0.0946186,0.0326987
0.0852385,0.00145131
0.0470411,-0.0119982
0.0256203,0.000519172
0.0203571,0.0138078
0.0186261,0.0123688
0.0172634,0.00622169
0.0158061,0.00852658
0.0148614,0.00736099
0.0184456,-0.0113337
0.017521,-0.0213144
0.0133034,-0.013251
0.00354832,-0.0084278
-0.00597927,-0.000868377
-0.00552015,0.0112016
-0.00789391,0.0127601
-0.0145104,0.00896213
-0.0206646,0.0029522
-0.0195514,-0.0150911
-0.0172904,-0.0203207
-0.0198537,-0.00458118
-0.023904,0.0049472
-0.0223925,0.00710096
-0.0135772,0.00885543
0.00955761,0.00868566
0.0268814,-0.00396734
0.0394362,-0.024196
0.04507,-0.0141468
0.0311163,-0.00133764
0.0134529,-0.0103477
0.0137545,0.00130343
0.0107899,0.0122177
-0.00330574,0.0148587
-0.0156675,0.0141232
-0.0191884,-0.000560045
-0.0127407,-0.0164196
-0.0181911,-0.0105708
-0.0321626,0.00205403
-0.02972,0.000212696
-0.0180661,0.00350054
-0.00852634,0.016176
-0.00326297,0.00988408
-0.00404286,-0.00658454
-0.00317039,-0.0201978
-0.00232898,-0.0156098
-0.0143091,-0.00501774
-0.0230204,0.00230829
-0.0145106,-0.00735871
-0.00438925,0.00575867
0.0137917,0.0122597
0.0328175,0.0125254
0.052293,-0.00186301
0.0390982,-0.0199489
0.0113288,-0.0147363
-0.0035636,0.00366644
-0.00443644,0.00934626
-0.00429032,0.00968789
0.000883056,0.0215237
0.0184921,0.0189564
0.0302951,0.00340304
0.0176913,-0.00676983
-0.00376249,-0.0081052
-0.0131655,-0.00222154
-0.0054729,0.0095348
-0.00324482,0.010074
-0.00865298,0.00502782
-0.00818928,0.00151062
-0.00712814,-0.00577392
-0.00447351,-0.0236866
0.00259927,-0.0220316
0.000296498,-0.00920313
-0.00221397,-0.00373514
-0.00722857,-1.98e-06
-0.00711469,0.00822842
-0.00340141,0.0114989
-1.06e-05,0.00527917
0.00856268,-0.00758891
0.0167776,-0.00339894
0.0112111,0.00565598
-0.00366152,0.0106779
-0.015125,0.0165334
-0.0140313,0.0188208
-0.016801,0.0136669
-0.0168675,-0.000267107
-0.0056734,-0.00712922
0.00638049,-0.0131493
0.013786,-0.0257293
0.00102401,-0.00718893
-0.000418052,0.0120433
0.00182132,0.00742239
-0.00765037,0.00286181
-0.00251783,0.0122266
0.0106092,-0.00275402
0.0166703,-0.0149147
0.00886235,-0.00421991
0.00364401,-0.00911302
-0.00190076,-0.00716533
-0.0155375,0.00162101
-0.0277565,0.0194761
-0.0228346,0.018337
-0.0272653,-0.0106113
-0.0336263,-0.0161717
-0.00482092,-0.0270153
0.0371554,-0.0154364
0.0332865,-0.0190398
0.00520356,-0.00354495
0.00960116,0.0125224
0.033251,0.00400597
0.0287834,0.00455875
0.012061,-0.0187474
0.0183788,-0.0329898
0.0310068,-0.00104523
-0.0323814,0.0121141
-0.0888273,0.0260596
-0.0811055,0.0179272
-0.00820467,0.00752114
0.0497549,-0.000300858
0.0894646,-0.00502417
0.0743209,-0.0198577
0.0425292,-0.0294568
-0.00443144,-0.00554061
-0.0450176,0.0264535
-0.0732619,-0.00981813
-0.0688063,0.0037221
-0.0465456,0.0276442
-0.00628059,0.0297397
0.035091,0.018837
0.050386,0.0349397
0.0528479,0.034379
0.0420992,0.0205058
-0.00103426,0.0201527
-0.0370773,0.0237549
-0.0328805,0.0109304
-0.0139046,0.0157042
0.000572146,0.00793405
0.00132832,-0.0165444
-0.00340522,-0.0303663
-0.0159551,-0.0341194
-0.00965693,-0.041923
-0.00126104,-0.0264551
0.0212253,0.00328469
0.0115447,0.00216269
-0.0198565,0.00647546
-0.0437035,0.00707473
-0.0447859,-0.023092
-0.0174368,-0.0309116
0.0382094,-0.0152214
0.0571979,-0.0174586
0.0330054,-0.00223377
0.0284302,0.0153494
0.0324487,0.00911389
0.0119143,-0.00754814
-0.0142414,-0.0245331
-0.0247884,-0.0174832
-0.0111282,0.00480471
0.0123524,0.0292418
0.00440731,0.0212031
-0.000903294,0.0249278
-0.0183561,0.00759558
0.00602366,-0.00913163
0.0162872,0.0100286
-0.0066825,-0.00832663
-0.0142094,-0.0425143
-0.0172795,-0.0342861
0.00976677,0.00925979
0.0132725,0.011292
0.00767089,0.02593
0.00487533,0.00512913
-0.0149566,-0.0140411
-0.0284724,-0.0325031
-0.0530354,-0.0421752
-0.0331369,-0.0376391
-0.00516388,0.024202
-0.0071258,0.0408053
0.00266126,0.0317874
0.0472501,0.0224139
0.0642072,0.00524475
0.0467319,0.00547603
0.0123294,0.0130601
-0.0213975,0.0264466
-0.0367044,0.0247224
-0.0235505,0.0330502
-0.0233699,0.0344273
-0.0153595,-0.00379914
-0.00178455,-0.0370502
-0.0067035,-0.0425684
-0.00587626,-0.00943423
0.00907453,-0.00410318
0.0210899,-0.0139186
0.0200034,-0.0076186
0.0199545,-0.0115519
0.00183413,-0.0443834
0.0106092,-0.0452281
0.0558109,-0.0130734
0.0603603,0.00608557
0.0398384,-0.00475211
-0.00897831,-0.00433563
-0.0804147,0.0270715
-0.0921282,0.0684438
-0.0462634,0.038316
-0.00921753,0.00824297
0.000892496,0.00636227
0.0202544,0.00693477
0.0166416,-0.00859365
-0.00254518,-0.0140554
-0.0159024,-0.00622946
-0.00144089,0.0126247
0.016642,0.0217094
0.0117142,0.00469343
0.0238246,-0.00166393
-0.013712,-0.0247385
-0.0470639,-0.0297031
-0.0284464,0.00290237
0.00448453,0.0353244
0.0128327,0.035748
0.0254173,0.00834981
0.00843743,-0.00749057
0.0116819,-0.010419
0.0288341,-0.0283232
0.019941,-0.0502707
0.0108233,-0.0210676
-0.0211226,-0.00581471
-0.0396996,-0.029527
-0.0106068,-0.00302525
0.030302,0.0420879
0.0103673,0.0100452
-0.0351661,-0.0574803
-0.0459177,-0.0042992
-0.0358081,-0.00388484
0.0041304,0.00734227
0.0796515,0.0327365
0.125616,0.0253959
0.0828947,0.0242175
-0.00603886,0.0048409
-0.0713697,0.00627447
-0.0468685,-0.00226337
-0.0300353,-0.0127353
-0.0612324,0.00645087
-0.0250034,0.0122205
0.0475914,0.00696286
0.0515793,0.0117513
0.0390875,0.0125965
0.0430754,0.00954034
0.0337816,-0.0137306
0.0161524,-0.00413921
-0.023907,0.00834269
-0.0321822,-0.00277029
-0.0209498,-0.00653686
-0.0121644,0.00440089
0.0139487,-0.000156821
0.0424781,-0.0133643
0.0411277,-0.0368238
0.0539545,-0.0402465
0.0327924,-0.000151729
-0.0700065,0.0119492
-0.236385,-0.0164623
-0.389926,0.00735871
-0.417361,0.0289224
-0.196481,0.0346255
0.0759929,0.0174687
0.2441,-0.000914861
0.35549,0.0129703
0.372811,-0.00931415
0.257179,-0.00540366
0.0887283,-0.00331054
-0.0198279,0.00236019
-0.0793145,0.00228973
-0.10136,-0.00589477
-0.0725508,-0.0104014
-0.019514,0.00246715
0.034353,0.018706
0.0458726,-0.0177279
0.0580758,-0.00726428
0.0264162,-0.0320442
-0.0417729,-0.0289358
-0.100567,0.0140983
-0.083617,-0.0332585
0.00575233,-0.0491746
0.00536151,0.0169289
-0.131151,0.0215227
-0.181071,0.0366919
-0.085316,0.0226949
0.029617,0.0151414
0.150268,0.00803221
0.202596,0.00609397
0.128895,-0.00523889
0.0281236,-0.0128594
-0.0208203,0.00652601
-0.0245078,0.0145932
-0.0082948,0.0101011
0.0272342,0.0108061
0.0457762,0.00488959
0.0258836,-0.0073585
-0.0203353,-0.00753774
-0.0378782,0.00269407
-0.0397451,0.00321159
-0.0390185,0.0069565
-0.0618365,0.00408522
-0.10002,0.000691777
-0.101701,-0.00885291
-0.0556323,-0.0102646
0.0349005,-0.0190353
0.0750156,-0.00943393
0.0472931,-0.00635177
0.0358469,0.00122641
0.03041,-0.00233111
0.0120513,-0.00604327
0.0148573,0.00442072
0.0274279,0.00202504
0.0127985,-0.0222112
-0.00250308,-0.0221554
-0.00794986,-0.00755374
-0.00598181,-0.00877821
0.0104125,0.00736607
0.0187357,0.0247625
-0.00347122,0.0243264
-0.0288757,0.0207697
-0.0218822,0.00948127
0.0056261,-0.00668501
0.0156079,-0.0124824
0.0126831,-0.0022481
0.00651654,0.00654559
0.00311527,0.0109593
0.0037207,0.0260035
0.00653121,0.0133129
0.00545776,-0.0131847
0.000242719,-0.0119938
-0.00959127,0.000326868
-0.00612304,0.020354
0.00786531,0.0247072
0.000948801,0.00202445
-0.0219997,-0.00539691
-0.0206454,0.00184499
-0.0119447,-0.011498
0.00283555,-0.0116579
0.0241091,-0.045075
0.0251812,-0.0392061
0.0125997,-0.0238767
0.0111687,-0.0117526
0.0167583,0.00911043
0.0184362,0.0098001
0.0229832,0.0139028
0.0179473,0.0105781
0.00531036,0.00340798
-0.0188979,0.00660576
-0.052931,0.00241564
-0.0846416,0.00382582
-0.154186,0.0142893
-0.221105,-0.0300507
-0.159808,-0.00106796
-0.00444819,0.0430309
0.143795,0.0233142
0.176132,-0.0196742
0.141343,-0.0114272
0.110911,0.0227533
0.0468146,0.0239669
0.0188882,-0.0167662
0.0314437,-0.0185814
0.0382104,-0.0022427
0.0324995,-0.0204989
0.0122874,-0.0068194
-0.0162435,0.0131933
-0.0417799,0.00999997
-0.0302048,0.00864588
-0.014904,0.00961085
-0.0644489,0.00472429
-0.103414,0.00227748
-0.0696148,-0.00824673
-0.0200426,-0.0373731
-0.012566,-0.0375312
-0.0102738,-0.00317897
-0.00474903,0.0170074
0.0103,0.00774937
0.0447784,0.00575959
0.0823442,0.00132331
0.105075,-0.00195153
0.0622328,0.0136111
0.00869005,0.00070659
-0.0268093,-0.00277345
-0.0564525,0.001042
-0.0393737,0.012458
-0.00630766,0.0183479
0.00520621,0.0107754
0.00575532,-0.000168654
0.0122823,-0.0051327
0.0346203,-0.010679
0.0145979,-0.0144688
-0.0687783,-0.000996175
-0.0805326,0.00150512
-0.0787617,-0.000894115
-0.0497187,0.00290194
0.0286361,0.0200349
0.0897904,0.0100761
0.0864016,-0.0106376
0.053223,-0.0119746
0.028295,-0.0133144
0.00197393,-0.0282962
-0.022923,-0.0133293
-0.00198227,0.0114575
0.0293825,0.00245957
0.0282775,0.0037695
0.01594,0.00326269
-0.00576209,-0.017844
-0.0282337,-0.0110979
-0.0244598,0.00330909
-0.0238528,-0.00330469
-0.030831,-0.00190265
-0.0359538,0.0109168
-0.0248194,0.012882
-0.000967298,-0.00632458
0.0144989,-0.00813378
0.00686275,-0.00138198
-0.0228623,0.0137026
-0.0247514,0.0258082
0.000657928,0.0105754
0.0360114,0.00399134
0.0446163,0.00407549
0.0307647,-0.00464102
0.00860495,-0.0204096
0.00245906,-0.0299915
-0.0084032,0.0275552
-0.0320337,0.0273312
-0.0357112,0.0198875
-0.0244111,0.0152023
-0.0421606,-0.00444677
-0.040122,0.00381593
-0.00421043,0.0137727
0.0330688,0.00775179
0.0336661,0.00462721
0.0242461,0.00551774
0.0143638,0.0119873
0.0113092,0.0241099
0.0227625,0.0142095
0.0226925,0.0033916
0.0197142,-0.0220934
0.00590886,-0.0228536
0.0118151,-0.0202089
-0.00900227,-0.0253013
-0.041903,-0.0255135
-0.0287003,-0.0142259
0.0167737,-0.0138719
0.0155563,-0.00659509
-0.0107395,0.00241818
0.0122869,-0.000962979
0.0249254,0.00247828
0.00752733,-0.0025621
-0.0161718,-0.0216194
-0.0510187,-0.0194542
-0.05353,-0.00465387
-0.0217994,0.00108913
0.0291943,0.00922753
0.053212,0.00804336
0.0410495,-0.00472199
0.0175761,-0.0261518
0.00144146,-0.0256747
-0.000946709,0.0063388
0.000199794,0.0232118
-0.0136374,0.0462644
-0.0336284,0.0322219
-0.0198285,0.00484362
0.00398233,-0.0047715
0.0031711,-0.00896846
0.0177703,-0.0104029
0.0142682,0.00588385
-0.0552688,0.0120056
-0.0831637,0.020455
-0.0503653,0.00834869
-0.0224506,0.00743459
-0.0176206,-0.00602321
0.033106,-0.0195593
0.0632539,-0.00537361
0.0702093,0.0070368
0.051778,0.0112545
0.0217602,0.00372254
-0.00412266,0.0132827
-0.0213687,0.0157883
-0.0332874,-0.030076
-0.00345275,-0.0177094
0.0353438,0.00654107
0.0664294,0.001905
0.0664041,0.0137797
0.0267449,0.0152676
-0.0246502,-0.00633848
-0.0642616,-0.0074788
-0.0474177,-0.0146263
-0.0170025,-0.0387609
0.008561,-0.0157516
0.0132047,0.00606417
0.000151292,-0.000617726
-0.019031,0.00587686
-0.0240897,0.019876
-0.0191043,0.0225846
-0.00493577,0.0107598
0.00684601,-0.00750069
0.0111104,-0.00955291
0.00961576,-0.00916494
0.00606848,-0.00365624
0.00909886,0.000298678
0.0136002,-0.00954723
0.0164562,-0.00774204
0.0113528,0.0111161
-0.000957854,0.00242445
-0.00146799,-0.00206826
-0.0114883,0.000139689
-0.0309146,-0.0182746
-0.0397271,-0.0385181
-0.0455648,-0.0235417
-0.0527737,0.0280999
-0.0309725,0.0427491
0.0117939,0.0111498
0.0304502,-0.0169275
0.0513278,-0.0156843
0.0598034,0.00136507
0.0276359,0.00299465
0.0123134,0.00887243
0.0143316,0.0121843
0.0178042,-0.0015553
-0.00508877,0.0107909
-0.0116566,-0.00911401
0.00842403,-0.0150861
0.0169979,-0.00195814
0.00170772,0.00415763
-0.00123801,-0.004735
-0.0104598,-0.0156437
-0.00097381,0.00176498
0.0225869,0.00836102
0.00857197,-0.000633813
-0.0323402,-0.00448549
-0.0257757,-0.00446732
0.0099936,0.00121164
0.0163175,0.0133659
-0.0104955,0.0285599
-0.0386865,0.0303441
-0.05917,0.0120881
-0.0723642,-0.0143244
-0.0174049,-0.0162017
0.0216608,-0.0189939
-0.00772494,-0.0379877
0.011,-0.0253221
0.00709085,0.00124343
-0.00982919,0.0145785
0.0127233,0.0207452
0.0323577,0.00289075
0.0351252,0.000734929
0.0287164,0.00659978
0.0260486,0.011544
0.0102302,0.0128613
-0.0308287,0.0134974
-0.0419862,0.0123917
-0.0151299,0.00200491
0.0154121,0.00495065
0.0444604,-0.00651485
0.0455982,-0.0243793
0.0100295,-0.00714625
-0.0201867,0.0111984
-0.0213921,0.0141557
-0.0311263,0.013232
-0.031389,0.0165982
-0.00981477,0.014575
0.0199801,0.00365319
0.0447147,-0.00571761
0.0382138,-0.0157296
0.0130394,-0.0230487
0.00671079,-0.0254934
0.000354014,-0.0186037
-0.0103068,0.0176869
-0.0310074,0.0148246
-0.0894263,0.0117196
-0.107058,-0.00770793
-0.0477481,-0.0177259
0.020881,-0.00354948
0.0568332,0.00370798
0.0660769,0.00343972
0.0622365,0.0151383
0.0381994,0.0184224
0.0124077,0.0106144
0.00923203,-0.0137603
0.00496175,-0.0141403
0.00332603,0.0062604
-0.0116491,0.00423645
-0.0291069,-0.00239448
-0.00756584,-0.0017815
0.0203497,0.00216305
0.0239318,0.00279879
0.0214104,-0.00899172
0.0195331,-0.0237197
-0.00152273,-0.0158303
-0.0185365,0.00132548
-0.0183979,0.00397925
-0.0180673,0.00368245
-0.0227931,0.0112165
-0.0257339,0.00710736
-0.0228649,-0.0098976
-0.012197,-0.0216772
-0.00622578,-0.0173695
-0.00578231,-0.0252173
-0.00949069,-0.0325179
-0.00291986,-0.00441461
0.0131257,0.020942
0.0251713,0.0221609
0.0330489,0.0286374
0.054508,0.0159428
0.0617665,-0.0101469
0.00458722,0.00979886
-0.0474578,0.0324116
-0.0245193,0.029
-0.00575186,0.0188036
-0.0133228,0.00104109
-0.0220257,-0.000221654
-0.026003,-0.0174636
-0.0155724,-0.0302157
-0.00142916,-0.0114453
0.00104944,-0.0181453
0.00267945,-0.00418826
0.0079118,0.0101285
0.00887725,0.00506549
0.00749862,-0.00335496
0.00416357,-0.00623145
0.00542179,-0.0106971
0.0149274,-0.015379
0.0169697,-0.00377443
0.018876,0.00769325
0.0108286,0.0167877
-0.00703189,0.0197284
-0.0310747,0.0120396
-0.0274162,0.00583718
-0.00688077,-0.0181605
0.00429433,-0.0245552
-0.000228297,0.00308405
0.00334461,0.0136038
0.0122063,0.0119353
-0.00837455,0.00730042
-0.0284877,0.0112406
-0.0448241,0.0109667
-0.0717813,-0.0227873
-0.0492436,-0.0351593
0.017257,-0.0142713
0.0690544,0.00489167
0.0507093,0.0173221
0.0214933,0.0133859
0.0133934,0.0203992
-0.0140551,0.0110847
-0.0193176,0.000681439
-0.0227009,-0.0200037
-0.0625979,-0.0203889
-0.0427377,-0.0134336
0.0246951,-0.00513246
0.0839277,0.00903558
0.110049,0.00180134
0.0817208,0.0046698
0.0329908,0.0145595
0.00608082,0.00136625
-0.00406617,-0.00436629
-0.0228433,-0.00864734
-0.036578,-0.00919305
-0.0199936,-0.00880377
0.00176477,-0.0102375
0.00231243,-0.00277558
-0.00616429,0.0126543
-0.0127354,-0.00955446
-0.0130716,-0.0131957
-0.00971498,0.0101604
-0.0038367,0.0102858
-0.0345488,0.0102405
-0.0789663,0.0156108
-0.0823409,0.021339
-0.0541298,0.0102386
0.0102281,-0.0144826
0.087728,-0.0103999
0.118585,0.00374391
0.0869338,-0.0107848
0.0120371,-0.00829799
-0.0462432,0.0230518
-0.0392836,-0.00520974
-0.0137737,-0.0197541
0.00671364,0.00084153
0.0099688,0.00389347
0.00788665,-0.00867315
0.0146025,-0.0115056
0.0107781,-0.00636177
-0.0048873,0.0109441
-0.00180291,0.00175594
-0.000360386,0.00921266
0.00317775,0.0159609
-0.0027427,0.00614161
-0.0333327,-0.00415765
-0.0397443,-0.00701627
-0.0239791,0.00317111
-0.00315807,0.00554519
0.0150651,0.00822151
0.016845,0.0147802
0.01615,0.0162962
0.0179139,0.0056662
0.0150364,-0.00726875
0.00826802,-0.00568548
0.00358489,0.00457466
-0.00314103,-0.00606166
-0.0180119,-0.036611
-0.0117865,-0.0155059
0.00920176,0.0118765
0.0121835,0.0049786
0.00434318,-0.00728377
0.0092436,-0.0118243
0.00237582,-0.00397294
-0.0249495,-0.0232686
-0.0258477,-0.020616
-0.00142131,0.00608818
0.00132927,0.0175061
9.79e-05,0.0226828
0.00635901,0.00953935
0.0046892,-0.0175408
0.000825606,-0.0186834
-0.000698211,-0.00776211
-0.0037764,0.000824793
0.00202973,0.00998756
0.0077353,0.0203054
-0.00237705,0.0157752
-0.0282697,1.7e-07
-0.0332471,-0.00826401
-0.0132798,0.0157084
0.0147704,0.0261518
0.0181783,0.00381968
-0.00889219,-0.00257546
-0.0370177,0.00687135
-0.0327247,0.0122235
-0.0139108,0.0119607
0.0135275,-0.000252387
0.0200981,-0.0143304
0.00305751,-0.010217
-0.0040425,-0.0041482
0.000373666,-0.000202189
0.0221096,-0.00293324
0.0376382,0.00266894
0.0191819,0.00218879
-0.00663936,-0.0214067
-0.00878153,-0.0154697
-0.00576775,-0.00857217
-0.000871963,-0.00862448
0.0124954,-0.0031861
0.0178994,0.00894857
0.00242587,0.00845331
-0.00541598,0.0105522
-0.00494238,0.00124733
0.00317058,-0.0189517
0.014973,-0.0169368
0.0254899,0.00501135
0.0130204,0.0128563
-0.00521154,0.0124528
0.00429887,0.00714088
0.0132519,-0.00267292
0.00870963,0.00673221
0.014623,0.00543238
0.0120479,-0.00336922
-0.00231239,-0.00392383
-0.0102668,-0.00313909
-0.00340193,-0.00354741
-0.0438984,-0.00648933
-0.0455229,-0.0103487
-0.0225731,-0.0261344
0.0167751,-0.02108
0.0377815,-0.0151339
0.0326231,0.008014
0.0137371,0.011611
-0.00840019,5.25e-05
-0.0261433,0.00690887
-0.020537,0.00982531
0.00842007,0.0224312
0.0382173,0.0240975
0.0318543,-0.0033411
0.0160622,0.00793771
-0.0155121,0.0214981
-0.02143,0.0133733
-0.0111579,0.00702873
-0.0422901,-0.00507351
-0.0495328,-0.0169828
-0.0380444,-0.030596
-0.00687474,-0.0326916
0.0148067,-0.0190779
-0.00400432,-0.0100126
-0.0040046,-0.000818188
0.00232461,0.0157789
0.00530284,0.0206591
0.0243572,0.0240069
0.0470122,0.0219247
0.0359965,0.00315287
0.0127495,-0.00923966
-0.00705277,0.00107014
-0.00397252,0.00511006
0.00416538,0.0022486
0.00476641,0.00213954
-0.000210301,0.00547112
-0.0119793,-0.00731759
-0.036736,-0.0201795
-0.0348626,-0.0164071
-0.00890916,-0.00652098
0.0160863,0.00211323
0.0188598,0.0087847
0.0252602,0.0155844
0.0176757,0.014456
0.0049856,0.0143003
-0.00290796,0.0084147
0.000703902,-0.0032226
0.00388,0.00162368
0.00367093,0.0151226
0.00206417,-0.00338639
-0.00348108,-0.0212235
-0.0125183,-0.0120677
-0.0107579,-0.00811759
-0.0104991,-0.0101017
-0.00798506,-0.0276377
-0.000996892,-0.02329
0.00312422,-0.00824948
-0.00230301,-0.00131535
0.000657599,0.0101623
-0.000603519,0.014116
-0.00681311,0.0265733
-0.0190541,0.0143805
-0.0208002,-0.00041546
-0.0163656,-0.00316713
-0.0147111,-0.0237045
-0.00427905,-8.98e-05
0.00962063,0.0109821
0.0113836,-0.00352103
0.0184598,0.0048348
0.0274617,0.004011
0.0203921,-0.0137333
0.0152695,-0.0180464
0.0281514,-0.00977013
0.0110548,-0.00152258
-0.038035,-0.00368633
-0.0607475,0.017198
-0.0441357,0.0320007
-0.0280485,0.0251669
-0.0594084,0.0151768
-0.0457562,0.000519926
0.0077424,-0.00697898
0.0419785,-0.00870202
0.0438329,-0.00452663
0.0547325,-0.00152293
0.0500602,-0.00311342
0.0419482,-0.0038802
0.0293208,-0.0233074
0.0281016,-0.0248485
0.0234741,0.00478287
0.0142987,0.0110922
0.00702224,0.00748626
-0.000789274,0.0160599
-0.0180251,0.022546
-0.020799,0.00673107
-0.0207388,-0.00218078
-0.0358096,-0.013613
-0.0208341,-0.0225842
0.00659614,-0.0121197
0.0180002,0.0165032
-0.00159332,0.0104009
-0.0180764,0.00317913
-0.0100601,0.00647552
0.000137432,0.00714991
0.00923103,-0.00397256
0.0147926,-0.0262274
0.0180964,-0.0150216
-0.00463178,-0.0139511
-0.0159538,-0.00259405
0.00197341,0.0115596
0.0121343,0.0166695
0.0143746,0.0120508
0.00714458,0.0137968
-0.0067544,0.00419032
-0.0163403,-0.0117004
-0.0181724,0.00731223
-0.0278981,-0.00784664
-0.0667646,-0.0193724
-0.0795021,0.00704036
-0.0354141,0.019545
0.00975907,0.00292384
0.0208579,-0.00924712
0.0317566,-0.0101062
0.0226301,-0.00845212
0.022672,-0.00723535
0.050457,-0.0118742
0.0586868,-0.00595345
0.0442274,0.0130441
0.0192103,0.0265909
-0.0106853,0.0294295
-0.0258786,0.000274189
-0.029657,-0.0142778
-0.0592625,-0.000210834
-0.0494366,0.00219874
0.000761863,0.0104903
0.0504589,0.0164261
0.0438275,0.0138927
0.0247483,7.79e-05
0.0090275,-0.0146673
-0.003996,-0.019564
-0.00119113,-0.016862
0.00488815,-0.0167764
-0.00261789,-0.0157077
-0.0115118,-0.00561372
-0.00974724,0.00685424
-0.0067605,0.00372662
-0.00479528,-0.010582
-0.00590413,-0.0183825
0.000660464,-0.0106827
0.00432514,0.00439861
0.00285252,0.004037
0.00272306,0.0100879
0.00102698,0.0205672
-0.00428024,0.0108657
-0.00459573,-0.00930034
-0.00404745,-0.0163353
-0.00251363,-0.0120244
0.00222322,-0.00839847
0.00289848,0.000315517
-0.00649567,0.0129254
-0.00895158,0.0181816
-0.00658739,0.0115053
-0.00960366,0.00797941
-0.0112087,0.00387735
-0.00439513,-0.0105095
0.00278584,-0.00939408
0.0110697,0.0114905
0.0216259,0.0042935
0.0218847,0.000114676
-1.96e-05,0.00913579
-0.0167182,0.0109656
-0.0170412,-0.00540297
-0.0121067,-0.0229625
-0.0120887,-0.0268035
-0.00202628,-0.014807
0.00506899,0.0193967
0.0079541,0.0463792
0.0143131,0.022972
0.00719208,-0.0212364
0.00759896,-0.000380067
0.00930696,0.0121001
0.00917714,-0.00471874
0.00661077,0.00384528
0.00588901,0.00621652
0.00984126,0.00191058
-0.00269059,-0.000203444
-0.0111905,0.00160393
-0.00790041,-0.00397297
0.00389484,-0.0146566
0.0019352,-0.0160331
-0.00530988,-0.012739
0.00413986,0.000917345
0.00574162,0.0059478
-0.00248857,0.00249604
0.00448169,0.00572012
0.00411009,0.00663143
-0.0119667,-0.00176217
-0.00613397,-0.0131911
0.0103601,-0.0183532
0.00991472,-0.0202529
0.00666285,-0.00809716
-0.000901828,-0.0035204
-0.0236021,0.00214615
-0.0327523,0.0303854
-0.00462416,0.0210399
0.0368986,-0.0196434
0.0427787,-0.0304004
0.023002,-0.00106585
-0.092719,0.0197399
-0.191662,0.0205733
-0.147038,0.0231348
-0.0176081,0.00247266
0.0653189,-0.00892464
0.100488,-0.0114395
0.103537,-0.0228202
0.0658114,-0.00884848
0.0323473,0.00840084
0.0177794,0.0115426
0.0223446,0.0129669
0.0331016,0.0124408
0.0250355,-0.00233168
0.00770971,-0.0034176
0.00769345,0.0156196
0.0012398,0.00924697
-0.00187861,0.01063
0.010477,-0.00252931
0.0100931,-0.00589964
-0.0155674,-0.0015087
-0.0285014,-0.000915897
-0.0285176,0.0106383
-0.0197527,-0.00767088
-0.0106836,-0.017734
-0.00895126,-0.00713075
-0.00795159,0.00581224
-0.0200283,0.0106247
-0.034216,0.0211527
-0.0305916,0.0182682
-0.0220355,-0.00448917
-0.00299038,-0.0237063
0.00724713,-0.00283548
0.00976542,-0.018962
0.0130327,-0.0508943
0.03447,0.00313661
0.0350078,0.0176285
0.0192271,-0.0206877
0.0106716,-0.0181265
0.0249915,0.000591035
0.0307678,-0.0126736
0.0113945,0.0125543
-0.0151131,0.0235576
-0.0225956,0.0179998
-0.0194591,0.0143516
-0.0127265,0.0172036
-0.0139749,0.0181515
-0.0247755,0.00933063
-0.0258948,-0.00851425
-0.00914902,-0.0141612
0.00144354,-0.00195277
-0.00814507,-0.011232
-0.0148601,-0.0258857
-5.51e-05,-0.00488113
-0.00225374,0.0014782
0.0120295,0.000923994
0.0370799,0.00172326
0.0537184,-0.00871667
0.0331098,-0.0097161
-0.0135771,-0.00261594
-0.0404193,-0.00345776
-0.030768,0.00473757
-0.0148414,0.0100189
-0.00417485,0.00412213
0.01114,-0.00292794
0.0179743,-0.00839564
0.0163549,-0.00421902
0.0114698,-0.000685801
0.00753875,0.00952085
-0.00286841,0.0243197
-0.0170575,0.02516
-0.0234153,0.0191908
-0.0119968,0.0118333
-0.000549469,0.00206944
0.00969877,-0.00782127
0.0226265,-0.00114061
0.0162779,-0.013404
-0.0194602,-0.0238907
-0.0336711,0.00287289
-0.0159278,0.0109799
0.00342859,0.000956229
0.0154408,-0.00829015
0.014859,-0.000272361
-0.0029082,0.00269078
-0.0110107,-0.0111524
-0.00503633,-0.00613318
0.002273,0.000730863
0.00597884,-0.00295649
0.0202382,0.00189882
0.0175882,-0.00104851
0.00931725,-0.0119162
0.00400276,-0.0136793
-0.00415913,-0.00201561
-0.0192721,0.000582527
-0.021043,0.000625668
-0.00535473,0.00897354
0.01192,0.011566
0.0195272,0.00374981
0.0166638,-0.00932555
0.0126592,-0.008813
0.0144349,-0.00227479
0.00505977,0.00632078
-0.00137261,0.0084206
0.000723572,0.0179591
-0.0011553,0.016794
-0.00490455,0.0101637
-0.0147942,-0.00360968
-0.00754089,-0.0129781
-0.0024592,-0.0117475
-0.0116451,0.00893362
-0.00893035,0.0184107
-0.0123536,0.00633898
-0.00149969,-0.00332457
0.0158206,-0.00291525
-0.020243,-0.0144762
-0.0680408,-0.0236636
-0.0509083,-0.0151497
-0.00382063,-0.00647114
0.0303045,-0.00278422
0.0489484,0.00433626
0.02528,0.0172401
-0.0170499,0.0101334
-0.0301463,0.00531634
-0.00373759,-0.00679484
0.0132732,-0.0108027
0.0312963,-0.001026
0.0337315,0.0132486
0.0101505,0.0151013
-0.0498477,-0.00251771
-0.0798041,-0.0110806
-0.0478712,0.00689516
0.015049,-0.00206369
0.0441087,-0.00877998
0.0711025,-0.00034588
0.088249,0.00323319
0.0570348,0.0122261
0.0295359,0.0172187
-0.00402805,0.0111391
-0.0183802,0.00488555
0.00243806,-0.00926255
-0.0070306,-0.0174406
-0.0105301,-0.000658728
-0.000563346,0.000193312
0.00129467,0.00591454
0.000570378,0.00254395
0.0053795,-0.00588642
0.000922157,-0.00185108
-0.00359989,-0.0054885
-0.00928188,-0.0229428
-0.0281398,-0.0206506
-0.0594327,-0.0254818
-0.0645385,0.000459421
-0.0466139,0.00596371
-0.0144796,0.00741427
0.00319133,0.0096305
0.0172438,0.0037484
0.035247,-0.00674871
0.0354822,-0.005702
0.00658909,0.0012248
-0.017695,0.0095252
-0.0169839,0.00253888
0.00779323,0.011393
0.0312325,0.00349806
0.0275696,-0.00937746
0.0212215,-0.00903139
0.0212476,0.00263522
0.00982927,0.00275776
0.0017281,-0.00906573
-0.00448892,-0.0108627
-0.0191223,0.0121795
-0.0138708,0.0346645
-0.0210377,0.0159926
-0.0277279,0.00536286
-0.0168058,-0.00433179
-0.00531845,-0.0139551
-0.00119394,0.00118499
-0.000241446,0.00248766
0.0170807,-0.00467534
0.0202966,0.00230174
0.00347487,0.00666583
0.00943409,-0.00134238
0.0257276,-0.0119157
-0.00620013,-0.0138905
-0.0288836,-0.0024817
-0.00587051,0.00675805
0.00681105,0.00889658
-0.000908134,0.0262722
-0.00221475,0.00677144
-0.00311022,-0.00337531
-0.00395657,-0.00239128
0.009603,-0.0116333
0.00721559,-0.020546
0.015136,-0.00147423
0.00999389,0.00608232
-0.0195055,0.00139463
-0.0330841,-0.00712355
-0.0153594,0.0027022
0.00572805,0.00309045
0.0134775,-0.00704073
0.0125489,0.00212179
0.00789474,0.0021065
0.00520914,-0.00615383
0.00104724,-0.00175267
-0.000744441,4.02e-05
0.00884358,-0.00387557
0.0123847,0.00388778
0.0018892,-0.0035701
-0.0077019,-0.0109431
-0.00655189,0.0115778
-0.00721317,0.00842745
-0.00407997,0.00287956
-0.00164265,0.00947623
-0.000441756,0.0134922
-0.00623799,0.0113367
0.0016424,-0.00194633
0.0121929,-0.000710333
-0.0024202,-0.00133946
-0.0272222,-0.00226631
-0.0337071,-0.00845058
-0.0130019,-0.00645809
0.0140898,0.00604968
0.0348278,-0.000545091
0.00904415,-0.00254124
-0.0107925,-0.025758
-0.014587,-0.0351461
-0.0223059,0.00296899
-0.0126941,0.00927798
0.0136439,-0.00396317
0.0252115,0.009338
0.0291494,0.0224826
0.00540794,0.0134211
0.00669333,0.00675833
0.0247664,0.00344844
0.00442895,0.0015796
-0.012762,0.00279505
-0.00346117,0.00417644
0.00445236,0.00571917
0.0080885,0.00341119
0.0151021,0.00880923
0.0207931,0.0107635
0.0176192,-0.0138652
0.0116993,-0.0259375
0.0158448,-0.0159613
-0.00542432,-0.0185349
-0.057192,-0.00671698
-0.131435,0.0114198
-0.120652,0.0111375
-0.0571109,0.00322958
0.0073716,-0.0155433
0.0669246,-0.0208281
0.110595,-0.00194259
0.101549,0.00400721
0.0522618,0.00837825
0.00982135,0.0129199
-0.00709939,0.00810297
-0.0061868,0.00770527
-0.00167129,0.00535208
0.00431284,-0.00372622
-0.00104368,-0.0090816
-0.0127974,-0.00370004
-0.0105183,-6e-05
0.00933304,0.00325806
0.0218758,0.0185608
0.00591828,0.016347
-0.012485,-0.00682204
-0.016146,-0.0212838
-0.0277591,-0.0147886
-0.0414313,-0.0224421
-0.0352058,-0.0288224
-0.036272,0.0272263
-0.0509943,0.0405843
-0.046694,-0.000797732
-0.0150481,0.00205955
0.0272819,-0.00119256
0.0526465,-0.0200714
0.0621891,-0.0102551
0.0520247,-0.0017692
0.036033,0.000924344
0.0330742,0.0125394
0.023173,0.0232798
0.00164704,0.00959701
-0.0335769,-0.00429105
-0.0497262,-0.00332498
-0.019478,0.00410442
0.00389956,0.00881028
0.00496073,-0.000169114
0.00684191,-0.00570108
0.00852029,-0.00725348
-0.0212419,-0.00390598
-0.0323238,0.00163453
-0.0107931,-0.0110709
0.0109578,-0.0144683
0.0205903,-0.00679949
0.0127645,-0.00696135
0.00742481,0.00638104
0.00566559,0.0169211
0.0028489,0.0162266
0.0107866,0.0096273
0.0220017,-0.00401775
0.01688,0.00155288
0.000313942,0.0081411
-0.0215054,0.00187591
-0.0280965,0.00161967
-0.0235966,0.00735783
-0.0269294,0.00365056
-0.0140056,-0.00133065
-0.0014012,-0.0186362
0.000125777,-0.0267266
-0.00498141,-0.02278
0.00446593,-0.0310308
0.0195504,-0.00181056
0.0235503,0.0281553
0.0150974,0.0175708
0.010102,0.0108926
0.0102088,-0.000751807
0.0139583,-0.00241586
0.0168047,0.00613456
0.0140264,-0.00399492
0.011477,-0.00799599
0.0133695,-0.00032368
-0.00449641,0.00549592
-0.0337214,0.0118268
-0.0303843,0.0157823
-0.0123628,-0.00931452
-0.0132993,-0.0137373
-0.0215543,-0.000289126
-0.0523982,0.00428943
-0.0669673,-0.00259415
-0.0556644,-0.00343421
-0.0415196,0.0146541
-0.0404991,0.0117507
0.0108259,0.00547768
0.0731862,-0.00803741
0.0953425,0.00279212
0.0883035,0.00913475
0.0561556,-0.00126867
0.0235759,0.00480915
0.00449164,0.0216685
-0.0223357,0.0113693
-0.0485268,-0.00830538
-0.0289528,-0.0176634
0.00511013,-0.0115396
0.0241245,0.00414665
0.0285209,0.00907329
0.0234299,-0.000630523
0.0122414,-0.00261951
-0.00337447,0.0029909
-0.0112022,-0.00897484
-0.01818,-0.0225231
-0.0279488,-0.0105322
-0.0228573,-0.00852806
-0.00131598,-0.00764767
0.0117293,0.0047447
0.00658392,-0.00327446
-0.000124832,-0.00117341
-0.00124757,0.008127
0.007327,0.00557195
0.0175901,-0.0217418
0.0143867,-0.0171116
0.00509298,0.00151213
-0.0037304,0.00186848
-0.0133437,0.0102906
-0.0246889,0.0230717
-0.0150641,0.0145436
-0.00470868,-0.00506537
0.00257958,-0.0160095
0.0114952,-0.0127183
0.00506837,-0.0122351
-0.00933305,-0.00982258
-0.00443387,0.0173471
-0.0037637,0.0292357
-0.0092124,0.0139431
-0.0076088,0.00323483
-0.00993947,-0.00465909
-0.00786744,-0.00925894
0.000160921,-0.00222731
0.00715519,0.00250455
0.0192598,-0.00255589
0.0218514,0.00204976
0.0125205,0.0190659
0.016007,0.00587417
0.0287273,-0.0155701
0.0299194,-0.00865027
0.00948583,-0.00682083
-0.0123344,-0.0197883
-0.020419,-0.00197357
-0.0281196,0.0179762
-0.030294,0.0257901
-0.0278049,0.0125342
-0.0122817,-0.0084597
0.00923717,-0.0303191
0.00940053,-0.0179333
-0.0135724,-0.00729974
-0.0168162,0.00302921
0.00226192,0.00679775
-0.0149403,0.00609813
-0.0194546,0.0138711
0.0363296,-0.000277128
0.0775509,-0.0136446
0.0448289,-0.00784665
-0.00320175,-0.00259052
-0.0220616,-0.00590558
-0.0276186,0.00550593
-0.0461536,0.0039428
-0.0467733,0.0133694
-0.0272772,0.0234621
0.00131466,0.0135221
0.0259281,0.00274497
0.0173156,-0.00213234
0.00466307,-0.00270607
0.0229072,-0.00866608
0.0368787,-0.00479618
0.0342306,0.0023921
0.0174888,0.00529988
0.0122435,-0.0038478
-6.25e-05,-0.0146094
-0.0104206,-0.00801893
-0.00965099,-0.000699149
-0.0469371,0.00814948
-0.111667,0.0119096
-0.104888,0.0147458
-0.0331288,0.0142951
0.0300613,-0.00334117
0.0710371,-0.0133795
0.100383,-0.0152491
0.0627304,-0.00758864
0.0167452,0.00101293
0.0208332,0.00412954
0.0153635,0.0120725
-0.0040856,0.0141567
-0.00704215,0.00610452
-0.00717844,-0.0110271
-0.0108588,-0.0208518
-0.000516867,-0.0116105
0.00630916,-0.0135442
0.00978669,-0.00992885
0.0103068,0.00789315
0.00507702,0.0148904
-0.0124429,0.00876028
-0.0214501,0.00779002
-0.0121652,-0.00149537
-0.00554143,-0.00980036
-0.00349346,-0.0027212
-0.00665714,0.00580398
-0.0184983,0.00575645
-0.0313824,0.0156042
-0.0324629,0.0219004
-0.0147145,0.00114755
0.0107832,-0.0258347
0.0230516,-0.018703
0.0222515,-0.0109618
0.00985284,0.00140645
-0.0077453,0.00674522
-0.0157535,0.0213234
-0.013371,-0.00250839
-0.00331092,-0.0179602
0.0113666,-0.010721
0.0241468,-0.00773805
0.0222576,0.00182192
0.0243554,0.00135824
-0.00973473,0.00052852
-0.040954,0.00916679
-0.0250303,-0.00169912
-0.00649898,0.000761869
-0.00819146,0.00102212
-0.0172213,-0.0175801
-0.0168345,-0.0103669
-0.00912581,-0.00555934
0.00442866,-0.0273012
0.0427209,0.00708206
0.0550109,0.0367701
0.030441,0.0172302
0.0161603,0.0119802
-0.00937818,0.00103
-0.0301751,-0.00660121
-0.0279826,0.00111215
-0.020113,0.00887442
-0.0148264,0.00562117
0.0103324,0.00715263
0.0181709,0.011484
0.0168303,0.00358318
0.0226163,-0.0125757
0.0263024,-0.0227521
0.0161602,-0.0146903
0.00193736,-0.00483209
-0.0132082,0.0050366
-0.00576976,0.0181674
-0.00119561,0.0139166
-0.00776352,0.00469535
-0.0100192,0.00164278
-0.00191795,-0.00354413
-0.00646333,-0.0218283
-0.000389248,-0.00849087
0.0229565,0.00752843
0.00346857,0.00173539
-0.0142784,0.0149229
-0.0160516,0.0201634
-0.00441118,0.0067666
0.0147861,-0.00999733
0.0156875,-0.00792695
0.00988918,-0.00520905
0.00641601,-0.00372172
-0.00396651,0.00297465
-0.0346242,0.00301089
-0.0540275,0.00342985
-0.0373825,0.00431878
-0.00246453,-0.0066691
0.0307303,-0.0166214
0.0419478,-0.0151556
0.0245249,-0.0025853
0.00627848,0.0034241
-0.0134921,0.00512158
-0.0230713,0.00345398
-0.0175211,0.00561676
0.00507516,-0.00980423
0.0138909,-0.0184131
0.0197321,-0.000354236
0.0178944,0.00226455
0.00476368,-0.00389396
0.0030458,0.00648456
0.00519632,0.0117872
0.00232904,-0.00173
0.00691136,-0.00344264
0.000822332,-0.0110967
-0.015696,-0.0146752
-0.0376142,-0.0167004
-0.0367768,-0.0107163
-0.0173826,0.00956632
-0.0086058,0.0197238
-0.0196241,0.0213417
-0.0190014,0.0298489
0.0248485,0.00374223
0.0660929,-0.00558122
0.0527431,0.00165764
0.025127,-0.00314118
-0.0132681,0.00203192
-0.0378449,0.00264084
-0.0338791,-0.00817877
0.000670048,-0.00543643
0.0207236,0.0102015
0.0295425,-0.0219159
0.0344729,-0.0237091
0.0139097,0.0112047
-0.00790182,0.0207519
-0.0117746,0.0180357
-0.00490197,0.00670911
-0.0144281,0.00636895
-0.0421195,0.0055391
-0.0592027,-0.00731357
-0.116065,-0.0136305
-0.114688,-0.0112508
-0.036668,-0.0180893
0.0467093,-0.00102822
0.095467,0.00939171
0.109741,0.0131358
0.0938507,-0.0065565
0.0654404,-0.0225344
0.0360706,-0.00847319
0.0147724,-0.00114072
0.00553318,0.00207822
-7.59e-05,0.000729796
-0.00786553,0.0027271
-0.0128874,0.0113885
-0.011309,0.0132399
-0.00773499,-0.000291386
0.000471416,-0.00949937
0.00129606,-0.00305506
-0.00414157,0.0038467
-0.0133977,0.00925591
-0.0374045,0.0123425
-0.0406128,0.00614402
-0.0325798,-0.000146052
-0.0278646,-0.000373142
0.00352085,-0.00547567
0.0129679,-0.0119869
0.00450852,-0.0138165
0.00988457,-0.0067311
0.011227,0.00546505
0.0108148,0.0145002
0.0116433,0.000674219
-7.81e-05,-0.0013983
-0.00986398,-0.010193
0.00138671,-0.00516629
0.0134503,0.0140561
0.011025,0.0096585
0.00239012,0.0056755
-0.0155209,0.0064345
-0.0237848,0.00209495
-0.0154681,-0.00756689
0.00427341,-0.00662269
0.00344627,-0.0154759
0.00152354,-0.0224336
0.0117179,-0.00595033
-3.25e-06,0.00753734
-0.00865317,0.00125134
-0.0127852,0.00917469
-0.006876,0.0197122
-0.0178371,0.012366
-0.0490199,-0.0133298
-0.0347816,-0.0109449
0.00705309,0.0105092
0.0372935,0.0096221
0.0379001,0.00400699
0.0403419,0.00911792
0.0407772,0.00656459
0.0285066,0.00113148
0.00968179,-0.00638835
0.00640125,-0.0100675
0.0139573,-0.00791839
-0.00214439,-0.00322205
-0.0136927,-0.00878622
-0.0132073,-0.00373077
-0.0167203,0.00940227
-0.00545632,0.0108638
0.00718998,-0.00431049
0.00434272,-0.0143577
-0.0103444,-0.017867
-0.0124368,-0.0122115
-0.0166168,0.0121702
-0.0393545,0.0150764
-0.0395431,0.0100816
-0.0145283,0.00720221
-0.00283464,0.00829494
0.0113807,0.000629704
0.0413134,-0.0130725
0.0353668,-0.00993683
0.0237515,0.00116712
0.0116637,0.00352932
0.00314401,0.0119843
0.00428155,0.0174275
0.00606406,0.0156077
0.00628274,-4.75e-05
-0.00298929,-0.0178021
-0.000904517,-0.0118106
0.00184647,-0.00361856
0.0164754,0.00121033
0.0209477,-0.00476222
0.00234175,-0.00642948
-0.0307352,0.00402095
-0.0478848,0.00465938
-0.0482152,-0.00823276
-0.0289844,-0.0112284
0.00209141,-0.00075736
0.0263965,0.00217059
0.0236661,0.00838781
0.00885115,0.015967
-0.00101237,0.00955919
-0.0143758,-0.00526106
-0.0255826,-0.0195051
-0.00532716,-0.0221717
0.014554,-0.0138014
0.0171182,-0.00193561
0.00897481,0.0105051
0.0188766,0.00811328
0.0186965,0.00412423
-0.0206709,-0.00243959
-0.0436395,-0.00543758
-0.0241623,0.0101929
0.000701236,0.00939958
0.00239985,0.00765851
0.0191417,0.00996583
0.0303157,0.00484813
0.0182332,0.00443322
0.00260487,0.00494575
0.00235321,-0.00156498
0.0123636,-0.00682576
0.0106032,-0.00245691
0.00768423,-0.00287124
0.00294037,-0.00405494
-0.00203978,0.00199806
-0.00414253,0.00395015
-0.00644346,0.0016693
-0.00609613,-0.0102647
0.00262101,-0.0106518
-0.00316251,-0.0194436
-0.0163472,-0.0099861
-0.0137067,0.0175684
-0.00991842,0.0193331
-0.0185672,0.0187488
-0.012702,0.018387
-0.00212856,0.00927245
0.0109323,-0.00661963
0.0233989,-0.012712
0.0407839,-0.0141976
0.0214263,-0.01676
-0.0104682,-0.00781913
-0.037975,0.00389821
-0.0364251,0.000889457
-0.0177139,-0.000963656
0.00734921,-0.000468326
0.0181696,-0.018931
0.0284138,-0.0399585
0.027428,-0.00637487
-0.0303944,0.0216232
-0.0728447,0.0171803
-0.0829361,0.0131787
-0.0501412,0.000222274
0.00549066,0.00716248
0.0446634,-0.00427473
0.0461504,-0.00944243
0.0418548,-0.00130935
0.0522009,-0.000283024
0.0444362,-0.00519928
0.0332152,0.00348472
0.0299851,0.0188073
0.0133214,0.0129397
-0.00185387,0.000459281
0.00120004,-0.00700769
0.00289482,-0.00557342
0.00319121,0.00265567
0.00628249,0.00548548
2.68e-05,0.0100801
-0.0246133,0.0168648
-0.0249379,0.0162513
-0.00461519,0.00237627
-0.00083131,-0.016247
0.000849964,-0.0170953
-0.00246863,-0.00818582
-0.0133574,0.00380425
-0.0151933,0.0119738
-0.00811865,0.0122804
-0.00274343,0.00255914
-0.00392754,-0.00454099
-0.0386646,-0.0222179
-0.0278038,-0.0270226
-0.00132637,-0.00425486
0.0109411,0.00637715
0.0254173,-0.00315021
0.0246613,0.00643534
-0.00191589,0.0133083
-0.0150913,-0.00160032
-0.0179718,-0.0210478
-0.0092495,-0.0196801
0.0125027,-0.0107484
0.0314585,-0.0101198
0.0114442,0.00382374
-0.0145556,0.0175018
-0.0190254,0.018017
-0.0178392,0.0145563
-0.00958803,0.00915248
0.00394495,-0.00259393
0.00105896,-0.00784204
-0.00718927,-0.000629074
-0.00944629,0.0115692
-0.00944158,0.0191863
-0.0120152,0.0207093
-0.0175776,0.0129084
-0.00736219,0.00176173
0.0105592,-0.0197366
0.0265968,-0.0168728
0.0194925,-0.0134149
0.00207246,-0.00124079
-0.0115822,0.0136243
0.00439109,0.0115656
0.0148882,0.00592582
0.018918,0.00861566
0.0192278,-0.0180531
0.018832,-0.0302536
0.0148293,-0.0187652
0.00536721,-0.00725923
-0.00586383,0.00149397
0.000832004,0.00444387
0.0171454,0.00877146
0.0181674,0.0130065
0.00980421,0.00896401
0.00536507,0.000267686
-0.00858734,-0.00278907
-0.013772,-0.0086893
-0.0124249,-0.00319681
-0.00866584,0.00461739
-0.0106234,0.0131428
-0.0192917,0.0088189
-0.0171715,-0.00649605
-0.00607722,0.0129827
-0.0080504,0.0110133
-0.0111724,0.0131299
-0.00835522,-0.00768291
0.00657858,-0.0138324
0.0146727,-0.0084057
0.0121832,-0.000427197
0.0131586,-0.0146849
0.0210295,-0.0297208
0.0175974,-0.0234122
0.00686786,-0.0115182
0.00543376,0.00413172
0.00132154,0.0180891
-0.00949206,0.0282691
-0.0160779,0.0289298
-0.00897488,0.0255937
-0.00559955,0.010336
-0.00742698,-0.00500563
-0.00322463,0.000770558
-0.0106591,0.00193413
-0.0443441,-0.00559804
-0.0720772,0.000200425
-0.0572239,0.00232191
-0.0334662,-0.0121994
-0.00613674,-0.0339346
-0.0245686,-0.0383233
-0.0349787,-0.0235735
0.0230331,-0.00861336
0.094929,0.0064076
0.105413,0.00965755
0.0729712,0.0153559
0.0333619,0.0288013
0.0111586,0.0210087
0.010815,-0.00145896
0.00966279,-0.0139711
0.00650955,-0.000398932
0.00750445,0.00726297
0.00667902,0.00305588
0.0109621,0.0173371
0.00718723,0.00738782
0.00427056,-0.0224751
0.000292832,-0.0321249
-0.00963837,-0.0201065
-0.00936184,-0.0150833
-0.00792492,-0.0104964
-0.0181064,0.00684691
-0.0229598,0.0212905
-0.0193147,0.0202716
-0.0188275,0.0197175
-0.037881,0.011121
-0.0486197,0.00197817
-0.0486721,0.000393762
-0.0389905,0.00395572
-0.0251502,0.00629248
-0.0154704,0.00268822
0.0105665,-0.00417744
0.0441928,-0.0043864
0.0665137,-0.00563744
0.0762431,-0.0205823
0.0444382,-0.0139533
0.00447483,-0.00739111
-0.0274234,-0.00655933
-0.0385474,0.00845133
-0.0248778,0.0169855
-0.00412312,0.0140448
0.000444751,0.0105451
0.00962173,-0.00213833
0.0154394,-0.00705292
0.0119182,0.00448324
0.0102249,0.00877523
0.0162247,0.00167741
0.0120316,-0.00135257
0.0158357,0.00352962
0.0144053,-0.000465256
0.00649509,-0.0227059
-0.0120459,-0.0233069
-0.0196232,-0.0139868
-0.00754957,-0.0121147
-0.0060432,0.00455777
-0.00852825,0.0237771
-0.00832113,0.0234201
-0.0110567,0.023832
-0.0108533,0.0179458
-0.0197211,0.000174182
-0.0217999,-0.011672
-0.0261534,-0.0015836
-0.022901,0.00243343
-0.00195712,-0.00811184
0.0116344,-0.00918351
0.0161791,-0.00459856
0.019189,-0.0130132
0.023505,-0.0255236
0.0249061,-0.0178604
0.0329455,-0.0045524
0.0185494,0.0098459
-0.00482003,0.0145739
-0.0109139,0.00958682
-0.00401851,0.00454804
0.00434579,-0.00187966
0.0162221,-0.0125102
0.0266065,-0.000294104
0.0242252,0.00638912
-0.0128062,0.00743814
-0.0603738,0.0196126
-0.0718699,0.0143479
-0.0432157,0.0222136
-0.00954148,0.0097163
0.0112917,-0.0125051
0.0204491,-0.0177052
0.0244627,-0.00786277
0.0202432,-0.00177785
-0.0143085,-0.00634433
-0.0252886,-0.000138763
-0.0125199,0.0149095
0.0118114,0.00483095
0.0275315,0.00201165
0.0314728,-0.000674346
0.0308166,-0.0166257
0.0222209,-0.0118195
0.0250771,0.00244391
0.0116455,-0.0006793
-0.00446998,0.000135313
-0.00626391,0.0117687
-0.0167414,0.00277515
-0.024694,-0.0153989
-0.00314542,-0.0214227
0.0150869,-0.0156147
0.00494115,-0.00964178
-0.00372762,-0.00467951
-0.015038,0.00569304
-0.0199403,0.00839201
-0.0123578,0.00641604
-0.00467885,-0.00169596
0.00183185,-0.0165363
0.00233625,-0.0194224
-0.00496776,-0.00779245
0.00295112,0.000270009
0.0186945,0.00400628
0.0161023,0.0054001
0.00110998,0.0231445
-0.00289072,0.0203762
-0.0017276,0.0102619
-0.00301497,-0.00141365
-0.0223651,-0.00912106
-0.0363121,0.00876779
-0.0230168,0.0313658
-0.00120457,0.0233699
0.0042635,0.0137615
-0.00729067,0.0161858
0.00583338,0.0182703
0.0158332,0.0184235
0.00207745,0.000138207
-0.0195714,-0.00583344
-0.0196855,0.00889247
-0.00613277,0.00206293
0.00287008,-0.0100678
0.00750467,-0.0163902
0.010557,-0.0313718
0.0073211,-0.0468058
0.00577113,-0.0126603
0.00639646,-0.0120862
0.0093092,-0.00335817
0.0202894,0.0130679
0.0153053,0.0115767
0.00728594,0.00686357
0.00475356,0.00273989
0.0106922,-0.00617563
0.0108965,-0.0114304
0.00879579,0.000723432
0.00624419,0.0118832
0.0162613,0.00799598
0.0160146,0.00370046
-0.00779327,0.00855415
-0.0297953,-0.00770692
-0.016094,-0.0142416
-0.00272411,-0.0100781
-0.022658,-0.00648674
-0.0354359,-0.00572092
-0.0253716,-0.00503982
-0.0027191,0.00507057
0.0186471,0.00800989
0.0170197,0.00512213
-0.00535845,-0.00059011
-0.0296688,-0.0185545
-0.074439,-0.0224479
-0.0651523,-0.0023648
-0.0143521,0.0159035
0.0490811,0.018294
0.0796534,0.0158631
0.0766796,0.00773702
0.0557397,-0.0025622
0.0321084,-0.0161449
0.00991497,-0.0142703
0.00251323,-0.00859714
-0.00487989,-0.0031834
-0.012247,0.0065023
-0.0146082,0.0124198
-0.0215814,0.00727577
-0.0223742,0.00774409
0.000423292,-0.00225694
0.0250261,-0.019056
0.0217209,-0.00817207
0.00675452,0.0108084
-0.00639436,0.0106682
-0.00572123,-0.000212285
0.00265224,0.00700493
0.00397592,0.00179574
0.00253909,-0.0113177
0.0016259,-0.0186653
-0.00630035,-0.0100577
-0.00532273,-0.00746241
-0.000789051,-0.000185689
0.000750822,0.00906236
-0.00663994,0.0107652
-0.0135865,0.0130616
-0.0179025,0.0113071
-0.0148706,-0.00576457
-0.0317906,-0.0132728
-0.042547,-0.00324874
-0.0207941,0.00251511
-0.000238588,0.0109789
-0.0038518,0.0111187
-0.030763,0.0141619
-0.0288175,0.010878
-0.0127002,-0.0130588
0.00135866,-0.0123628
0.026161,-0.00486733
0.0442111,-0.00465871
0.0644354,0.00104967
0.0519036,0.00883423
0.0230696,0.0135792
0.0056583,0.0145622
0.00329614,0.0105681
0.00989883,-0.0114702
0.00925139,-0.0143716
0.00112359,-0.0104714
0.00572085,-0.00392411
0.00597665,0.00672379
-0.0104046,0.00538247
-0.0205887,0.00439339
-0.0215239,-0.00362086
-0.0168641,-0.0172205
-0.0196688,-0.0108029
-0.0163728,-0.00434712
-0.00187648,0.00166891
0.00215069,0.00517764
-0.00244048,0.0133359
-0.00907827,0.00981374
-0.0098694,0.00205458
-0.010395,-0.00707788
0.0111532,-0.0202996
0.02391,-0.0118912
0.00941228,0.0062818
-0.0064863,0.00105601
-0.0157947,0.00242656
-0.00650398,0.0107655
0.00683472,0.000942932
0.0160542,0.00297035
0.0334116,-0.00287484
0.0297431,-7.73e-05
-0.00450261,-0.00135292
-0.0335585,0.0181126
-0.0222772,0.0261928
-0.00429806,0.0112102
-0.00372828,-0.00110391
-0.00169737,0.00336794
-0.00261522,-0.0135971
0.0038137,-0.0242508
0.00524862,-0.0212707
0.00606331,-0.0012276
0.0137035,0.00882964
0.0177143,0.0113466
0.00412999,0.00967503
-0.00766015,0.0037019
-0.00922446,-0.0155312
-0.0105079,-0.0236803
-0.00553606,-0.0118457
-1.93e-05,0.002728
-0.0110918,0.0102945
-0.0145291,0.0153812
-0.0147859,0.0117464
-0.0142366,0.0111145
-0.00313037,0.00527698
0.0297562,-0.00769309
0.0279182,-0.0154032
0.00106161,-0.00925059
-0.00824046,-0.014386
-0.00322676,0.003635
0.000526964,0.017389
0.00683766,0.00730356
0.0166402,-0.00206607
0.00500998,-0.0101023
0.00813735,-0.0121334
0.00999893,-0.0172901
0.0216168,-0.00604525
0.0156087,0.0141592
0.00330867,0.0261918
-0.007269,0.0203715
-0.0201274,0.00903331
-0.0422983,0.000253566
-0.0992381,-0.0181727
-0.0979112,-0.0256006
-0.0358109,0.00379363
0.0233506,0.0108079
0.065018,0.00468038
0.0773807,0.0103592
0.0652062,0.00980184
0.0355282,-0.00272982
0.0103567,-0.0125765
-0.00647705,-0.00870763
-0.012445,-0.0134605
-0.0117156,-0.00477116
-0.00704801,0.00507637
0.00160671,0.00729975
0.0109866,0.00541666
0.0140871,0.00310019
0.0169963,-0.0088656
0.0188605,-0.0157439
0.0115508,-0.00849899
0.00258822,-0.00107341
-0.00860653,-0.00166828
-0.0206183,0.00698365
-0.045817,0.0203627
-0.050297,0.0134074
-0.0329384,-0.00940448
-0.00999176,-0.0143619
0.020098,-0.00392831
0.0270745,0.00214851
0.0209608,0.0135449
0.0147087,0.0278341
0.00225787,0.0108483
-0.00078598,-0.00346169
0.00168074,-0.00306738
0.0183982,-0.014011
0.0251226,-0.0161867
0.0155189,-0.00539724
0.00297996,-0.000539128
-0.00300724,-0.000797103
-0.00310796,0.00632517
-0.00838802,0.00916446
-0.00941721,0.00338296
-0.00146707,-0.00856093
-0.00409706,-0.00877819
-0.00945766,-0.00711169
-0.00949396,-0.000474876
-0.0155056,0.00986863
-0.0157682,0.0123222
-0.0145658,0.0108755
-0.0156276,-0.00164367
-0.0190507,-0.0317962
-0.00225127,-0.0124621
0.01593,0.00544186
0.0134998,0.00425996
0.00581447,0.00475292
-0.000939193,0.0100072
-0.00132183,-0.00610816
0.00475435,-0.0155877
-0.00431013,-0.000446736
-0.0172697,-0.00560234
-0.0247741,-0.0075786
-0.0090495,-0.00880296
0.0192494,0.00175978
0.0288544,0.0126064
0.02104,0.0113494
0.0121503,0.00977912
0.00422009,0.00715138
-0.00165423,-0.00667877
-0.00451065,-0.0165998
-0.00369458,-0.00382305
0.00539587,-0.00581713
0.0131653,0.0081349
0.00725395,0.0263994
-0.00273458,0.0160955
-0.00619731,0.00092457
-0.000858813,-0.00527648
0.00291023,-0.00522766
0.00779368,0.00217016
0.00168084,0.00162959
-0.0120146,0.00645105
-0.0199862,0.00928521
-0.0150735,0.0127961
-0.00957411,0.0109634
-0.00454537,0.00246684
0.00878429,-0.0155687
0.0190273,-0.0241517
0.0192466,-0.0109289
0.0161831,-0.0021728
0.0111899,-0.00015336
0.00254556,0.00653289
-0.00431336,0.0110177
-0.00591454,0.00312436
-0.00956012,-0.00739559
-0.0147094,0.00232104
-0.0114919,0.00706209
-0.008109,-0.00967963
-0.00721038,-0.00820998
-0.00638009,0.00192423
-0.00285581,0.00393779
0.000575841,0.00229584
0.00309461,-0.00375075
0.00531589,-0.0134419
0.00405076,-0.0110882
0.00030812,-0.0022113
-0.00130163,-0.00090158
0.00114285,0.000370044
-0.00459748,0.00549154
-0.00604563,0.00481211
-0.00286486,-0.00361594
0.00301157,-0.0103727
0.0184878,-0.00981414
0.0179788,-0.00372918
0.0149736,0.0114135
0.0103223,0.011685
-0.000311654,0.00957508
-0.013514,0.00205704
-0.00947361,-0.000645623
0.00582972,-0.00880459
0.00664044,-0.0133521
0.0070963,-0.00340017
0.026636,-8.1e-05
0.0583058,0.00193469
0.0616791,0.00968514
