Comp Ch 3,Comp Ch 4
-0.0922778,0.00689694
-0.0953241,0.00535057
-0.0618285,-0.00503125
-0.0333888,-0.019553
-0.0816344,-0.0272857
-0.0463516,-0.0207997
0.10267,0.000249665
0.247293,0.0130425
0.257084,0.016056
0.168053,0.0124751
0.109479,0.012099
0.0893564,0.00331192
0.034134,-0.0106743
-0.0110249,-0.00257976
-0.0248769,0.0105827
-0.0308627,0.0114485
-0.0227341,0.0119702
-0.0083099,0.015426
-0.00681436,0.00931256
-0.00123394,-0.00712224
0.0117573,-0.0182613
0.00674201,-0.0144587
-0.0127128,-0.0150478
-0.0400215,-0.0116644
-0.0660637,0.00129784
-0.0742663,0.00755101
-0.0730504,0.00792211
-0.0535062,0.00884264
-0.0432802,-0.00989674
-0.0556231,-0.0211082
-0.0912524,-0.00875637
-0.0641537,0.00628498
-0.0208489,0.0094503
0.032057,0.0178813
0.0645372,0.0268458
0.0718323,0.0158796
0.0474536,-0.0148422
0.020116,-0.0288862
0.0294565,-0.0230925
0.0313582,-0.0123763
0.00905687,-0.000708883
0.00531739,0.00894653
-0.0126609,0.0115488
-0.0294776,0.0110711
-0.0328582,0.00554618
-0.026731,-0.0137168
-0.0147458,-0.0118143
0.00686529,0.00444143
0.0268296,0.00882611
0.0359462,0.00445799
0.0282952,0.0072652
0.0170709,0.00941023
0.0110782,-0.00467634
0.0056816,-0.022597
-0.00259628,-0.0155312
-0.0154822,-0.00813842
-0.0303382,-0.00747216
-0.0325577,0.00450325
-0.0272789,0.0212978
-0.0182739,0.0180523
-0.0167008,0.0101603
-0.0141736,-0.00888543
-0.000730532,-0.0150763
0.018649,-7.04e-05
0.0321929,0.0112484
0.0363202,0.00579917
0.0367586,0.00545397
0.0252777,0.0146341
0.0121156,0.0106835
0.00505668,-0.0189828
0.00169668,-0.0342751
-0.00230178,-0.0174017
-0.00396716,-0.00548935
-0.0122709,0.004766
-0.0261423,0.0152671
-0.031402,0.0172788
-0.0189816,0.0174595
-0.00556474,0.0113676
-0.000239853,-0.0120371
0.00397034,-0.0120203
0.0117548,0.000330448
0.0154109,-0.00574534
0.0140151,-0.00404313
0.019416,0.0196942
0.0243142,0.0202983
0.0194702,0.00227438
0.0130698,-0.0171552
0.000673546,-0.0205066
-0.011302,-0.0124421
-0.0127001,-0.0127975
-0.0116549,0.00502524
-0.00989647,0.0163523
-0.00731067,0.0156501
-0.00391858,0.0131836
-0.0267525,0.0064803
-0.0854926,-0.0138031
-0.078636,-0.0143315
-0.0288016,0.00508153
0.0219907,0.0105982
0.055086,0.0107726
0.076503,0.0120597
0.0566591,0.00286201
-0.00912193,-0.0112999
-0.0464783,-0.023023
-0.042786,-0.0204779
-0.0385573,-0.0180313
-0.0225253,-0.0049432
0.0397797,0.00558089
0.0825958,0.00633285
0.071061,0.0147479
0.0453503,0.0183526
0.0488043,-0.0068364
0.0514791,-0.0451665
0.0252485,-0.0369008
0.00939352,0.00634436
0.0414851,0.032706
0.0106521,0.0310989
-0.0408254,0.0293761
-0.0574559,0.0130869
-0.0963888,-0.0150461
-0.174973,-0.0170281
-0.171888,-0.0114078
-0.0869249,-0.0183724
0.0528494,-0.00691006
0.108411,0.0146316
0.0921769,0.0211783
0.0414165,0.0115644
0.00861369,0.00474729
0.00692764,-0.00733589
0.00451251,-0.0177494
0.0141222,-0.000781004
0.0288328,0.0118033
0.0339423,0.00696172
0.0302515,0.0129284
0.0177343,0.019381
0.00553656,0.00823765
-0.000733269,-0.0200531
-0.00037316,-0.0270611
-0.00312166,-0.0175144
-0.0195154,-0.0121254
-0.0366392,-0.00355129
-0.0428052,0.0132696
-0.0280159,0.01854
-0.0203065,0.0100687
-0.0192969,0.00207527
-0.0158762,-0.0116612
-0.010592,-0.0143903
0.0100526,0.00467357
0.0449203,0.00741161
0.0705372,0.000261
0.0791612,0.0142135
0.0598992,0.0256557
0.0225125,0.011958
-0.0159283,-0.0148687
-0.0506267,-0.0172473
-0.0908943,-0.0125959
-0.101858,-0.00717838
-0.0789116,0.00512922
-0.0321768,0.0120479
0.0158128,0.0101606
0.0441827,0.00780119
0.0469516,-0.00413614
0.0300673,-0.0168783
0.023458,-0.0133653
0.0250398,-0.00193663
0.00581863,0.00749049
0.00481502,0.0110716
0.0140359,0.0151272
0.00843534,0.0106831
0.00533219,-0.0107572
0.00908209,-0.0262462
0.00973462,-0.015861
0.00150022,-0.0119466
-0.0112975,-0.0018694
-0.0209511,0.00977847
-0.0221735,0.0158249
-0.0198982,0.00966004
-0.0173943,0.00592839
-0.0170657,-0.0128317
-0.0141663,-0.0245822
-0.00638571,-0.0094441
0.0035602,0.00607187
0.0133696,0.00758382
0.019757,0.0115501
0.0174057,0.0134016
0.0130831,0.0058298
0.0179243,-0.0112197
0.0224099,-0.0142762
0.0144886,-0.00574455
-0.00214408,-0.000905024
-0.0115816,0.00810441
-0.0151624,0.0186888
-0.015876,0.0161667
-0.0127862,0.00711832
-0.00240364,0.00204171
0.00193242,-0.0151983
0.000227804,-0.0200169
0.00599081,-0.00582821
0.0155269,-0.000386023
0.0233819,-0.000342977
0.0235989,0.00946859
0.0163727,0.0182522
0.0130079,0.00463063
0.0131599,-0.017864
0.00404139,-0.0196682
-0.0178934,-0.0154537
-0.0442638,-0.00912514
-0.104916,0.000280509
-0.167092,0.00822004
-0.185176,0.00908549
-0.1014,0.00667326
0.050635,-0.00537489
0.176574,-0.0224592
0.185188,-0.0197662
0.134785,-0.00214272
0.0771227,0.00441587
0.0151881,0.00570527
-0.0350574,0.0122362
-0.0275351,0.0139965
0.0122497,-0.00326613
0.0532103,-0.0140096
0.0447874,-0.000360793
0.0146618,0.00420463
0.00475024,0.0111923
0.000128106,0.0271088
-0.014348,0.0307597
-0.031053,0.0191687
-0.0363293,0.0105449
-0.0523968,-0.010027
-0.0680399,-0.0234879
-0.0596863,-0.0128521
-0.0238478,-0.00105673
0.00935595,0.00251954
0.00612168,0.00825204
-0.00504434,0.0170854
-0.00165949,0.0157264
0.00801773,-0.00477821
0.0345442,-0.0162032
0.059656,-0.0109583
0.0519207,-0.00473362
0.0521066,0.00746831
0.0536842,0.0217708
0.0225167,0.0201959
-0.0328995,0.00253119
-0.066338,-0.00619967
-0.0778546,-0.0178158
-0.0802104,-0.0218747
-0.0910523,-0.0094872
-0.0800812,-0.00419972
-0.0289505,-0.00434024
0.00903582,0.00234038
0.0454623,0.00484199
0.0635418,-0.00765961
0.0646458,-0.0264445
0.0501339,-0.0216445
0.0296546,-0.00332325
0.0246521,0.00941769
0.0148749,0.0149675
0.0062316,0.0154335
0.00433943,0.010888
0.00401073,0.0134898
-0.00696427,0.000474189
-0.0145454,-0.0187271
-0.00363874,-0.0144374
0.00622145,0.00283315
0.00230942,-0.00445476
0.00843386,-0.00605933
0.0065315,0.0120715
-0.00605782,0.0181177
-0.00864465,-0.00144016
-0.00609683,-0.0177569
-0.0130112,-0.0139871
-0.0212184,-0.0121892
-0.0375533,-0.00447684
-0.0559331,0.0086155
-0.0274128,0.0180083
0.0161323,0.0150654
0.0360688,0.00982728
0.0308238,-0.0108172
0.0280269,-0.0237582
0.0213355,-0.0112406
0.00690558,0.00287641
-0.00530015,0.00392339
-0.010638,0.0135102
-0.00987869,0.0215373
-0.00645354,0.0158051
-0.00241658,-0.00346055
0.00134613,-0.0164473
0.00446409,-0.0117231
0.00701775,-0.00765689
0.00244638,0.00243693
0.009111,0.0128755
0.0157632,0.0112248
0.00464068,0.00223118
-0.0053034,-0.00418842
-0.011139,-0.0193272
-0.0128069,-0.0231704
-0.0128913,-0.00711452
-0.0158922,0.00425639
-0.0150502,0.00719081
-0.00806329,0.016333
-0.0018474,0.0197936
-0.000207892,0.00758197
0.00769152,-0.0135219
0.0211225,-0.0115606
0.0128487,-0.00687581
0.0149982,-0.00162706
0.0163207,0.00843244
0.0117263,0.0146027
0.00760343,0.00973715
0.00234754,0.0086905
0.000201525,0.0013886
-2.85e-05,-0.0158449
-0.00708636,-0.0134543
-0.0145102,0.000733111
-0.00678523,0.0083195
0.00114945,0.0137057
-0.0101474,0.0194011
-0.0146737,0.0179542
-0.0181433,-0.00331074
-0.0174492,-0.0222156
0.00679723,-0.0147913
0.0309651,-0.00925463
0.0308578,-0.00261937
0.0234568,0.00905571
-0.00192222,0.0158998
-0.0137732,0.00637558
-0.0143641,-0.000396906
-0.0114099,-0.0154746
-0.00291425,-0.0280196
-0.0068676,-0.016291
0.00914047,0.00366701
0.0199902,0.00926085
-0.0551466,0.0145061
-0.101281,0.0197385
-0.063501,0.01063
-0.00415718,-0.0104142
0.0313329,-0.0212797
0.0611313,-0.0106152
0.0875245,-0.00364761
0.077926,-0.00495216
0.0439894,0.00270663
0.0387958,0.0111587
0.0553551,0.00776102
0.0566754,0.00515419
0.0199499,-0.0127651
-0.0369587,-0.0214193
-0.0712177,-0.00407581
-0.0717791,0.00893867
-0.0572324,0.0143599
-0.0515953,0.01773
-0.0547878,0.0202577
-0.0544354,0.00609765
-0.0351022,-0.0172419
-0.0202796,-0.0205655
-0.0197995,-0.0157533
-0.0215059,-0.0130887
0.0123458,0.00105761
0.0459743,0.0186724
0.0344859,0.0187648
0.0131603,0.0100742
0.00259045,0.00112172
0.0463499,-0.0163841
0.0678703,-0.0172952
0.0374517,0.00203774
0.00631384,0.00721154
-0.00303513,0.0111964
-0.00329438,0.0251505
0.00253685,0.0238003
0.003157,-0.00194167
0.011314,-0.0208046
0.0175597,-0.0198542
0.00582737,-0.0185299
-0.00771955,-0.0114599
-0.0154402,0.0038815
-0.0168484,0.00953338
-0.00678195,0.00351932
-0.00757868,0.00323343
-0.00771679,-0.00471547
0.00722774,-0.0147509
0.00217357,-0.00190555
-0.0123318,0.0121868
-0.0119218,0.011471
-0.00851749,0.0133682
-0.000989543,0.0207043
0.00922611,0.0158335
0.0135017,-0.0122954
0.00699457,-0.0312231
-0.00296472,-0.02384
-0.00455695,-0.0169571
-0.00179581,-0.00788607
-0.0060874,0.00604191
-0.00874739,0.0074723
-0.00938429,0.00506155
-0.00990322,0.00336974
-0.00897475,-0.0128316
0.00134898,-0.0163902
0.0248852,0.00512176
0.0324135,0.0173432
0.0247669,0.0196152
0.0136439,0.0267147
-0.00199613,0.0288179
-0.0208495,0.00779352
-0.0224806,-0.0190284
-0.0186622,-0.0215111
-0.0233567,-0.015214
-0.0173096,-0.0128657
-0.014166,-0.00362942
-0.0130188,0.00497358
-0.0080185,0.00307165
0.00475183,0.00537821
0.0097061,-0.000326381
0.00713534,-0.0137473
0.00539455,-0.0133424
-0.000225816,0.00502472
0.00204399,0.0123879
0.00659186,0.0151207
0.00501749,0.0226224
0.00769241,0.0226532
0.0145829,0.00202127
0.016428,-0.023521
0.0249418,-0.0185775
0.0352571,-0.0148333
0.0119708,-0.00555216
-0.013044,0.00384574
-0.0157211,0.0094483
-0.0121346,0.0017661
-0.0152159,0.000162695
-0.017117,-0.0118212
-0.0177109,-0.0220845
-0.019018,-0.0085739
-0.0227881,0.00877757
-0.0208289,0.0128768
-0.000337194,0.0180148
0.0161206,0.0201579
-0.00190504,0.0121999
-0.00441836,-0.0148011
0.0163669,-0.0265014
0.0244924,-0.0166065
0.0217492,-0.0129272
0.00911167,-0.0028174
-0.0273257,0.00907921
-0.0314904,0.00880768
-0.00684448,0.00662032
0.0167389,0.0113146
0.033602,-0.00739899
0.0260878,-0.0151788
0.0193823,0.00469523
0.0192156,0.0181527
0.0233967,0.0183187
0.0166335,0.0228145
0.00987892,0.0255281
0.0168417,0.00759867
0.0203432,-0.019291
0.0169008,-0.0238197
0.0373453,-0.0176458
0.0283328,-0.0161106
-0.00760118,-0.00585072
-0.044004,0.00409109
-0.0657197,0.00229653
-0.0746257,0.00277522
-0.12605,0.00206568
-0.13886,-0.0154622
-0.0752789,-0.0227753
-0.00857726,-0.00211059
0.0344482,0.0145392
0.0616069,0.017073
0.0996471,0.0232514
0.0987225,0.0256807
0.0600836,0.00268132
0.0225694,-0.0203247
0.00960429,-0.0226607
-0.0277176,-0.0273084
-0.0755986,-0.018247
-0.0860482,0.000255214
-0.0702963,0.0112324
-0.0322237,0.0075858
-0.00642261,0.0113802
0.0525614,0.000951919
0.0914847,-0.0133459
0.106474,-0.00301186
0.0855872,0.0114752
0.0305906,0.0116994
-0.0108809,0.0157085
-0.0223602,0.0238423
-0.0227154,0.0169533
-0.00813388,-0.00954737
0.0108701,-0.0233943
0.00975291,-0.0158528
-0.0022244,-0.0122253
-0.00585271,-0.00217714
-0.00897759,0.0114613
-0.0101484,0.0138096
-0.0109147,0.00765068
-0.0131868,0.00197603
-0.00827456,-0.0189745
-0.00543174,-0.0269717
-0.0091689,-0.0120573
-0.0176611,0.000312273
-0.0223127,0.00628466
-0.0218751,0.0183795
-0.016744,0.0304661
-0.0094498,0.0196849
-0.00105726,-0.00952353
0.0063587,-0.0141178
0.0111326,-0.00780887
0.0147843,-0.00433534
0.0158059,0.0053952
0.0176325,0.0112764
0.0108281,0.00627092
9.55e-05,0.00596624
-0.00144464,0.00457929
0.00883218,-0.0177647
0.0120148,-0.0249656
0.00557634,-0.00240408
-0.0034398,0.0079891
-0.0105681,0.00955408
-0.0112646,0.0195393
-0.00921307,0.0196371
-0.00819526,-0.000695625
-0.00875844,-0.0217328
-0.00832132,-0.0148249
-0.0096784,-0.00718874
-0.00698261,-0.000578985
-0.00562149,0.0114539
-0.0026099,0.0184947
0.000744752,0.0135116
0.000332026,0.0073196
0.00448757,-0.0130256
0.0284809,-0.0313958
0.0466787,-0.0231484
0.0385106,-0.00690732
0.0246044,-0.00713655
0.00478242,0.000635853
-0.0166056,0.0117942
-0.0295355,0.0119053
-0.0284629,-0.00547581
-0.0257131,-0.0169317
-0.0268284,-0.00631623
-0.015376,-0.00146231
-0.00183931,0.00806399
0.000908389,0.0182593
0.0026168,0.0176985
0.0107466,0.00855164
0.0125941,0.00278637
3.77e-05,-0.0188292
-0.0116699,-0.0283255
-0.0135162,-0.0131159
-0.0168592,-0.0025095
-0.0258562,-0.00235305
-0.011127,0.00674129
0.018286,0.0181051
0.0193196,0.010822
0.0177416,-0.00892289
0.00981654,-0.00942734
-6.75e-06,-0.00190791
0.00315223,0.00436466
0.0141488,0.01486
0.0272863,0.0217335
0.0295064,0.0181869
0.0254586,0.0103231
0.0134385,-0.00446189
0.00529196,-0.0250509
0.00286837,-0.0266932
-0.00403162,-0.00692367
-0.0114635,-0.00339759
-0.0178557,-0.0029498
-0.0194869,0.00767345
-0.0145946,0.0135061
-0.0166141,-0.00150875
-0.0410835,-0.0144004
-0.0510705,-0.00618982
-0.0449322,0.000492887
-0.0134144,0.00838585
0.0268956,0.0201386
0.059737,0.0238842
0.0757659,0.0147555
0.0538098,0.00768837
0.0270449,-0.00924991
-0.00436556,-0.0266139
-0.0176796,-0.0226977
-0.014038,-0.00863658
-0.0234577,-0.00528543
-0.038194,-0.00167596
-0.0456947,0.0101925
-0.0572442,0.0146433
-0.0339864,0.000878394
0.00788869,-0.00650223
0.0156603,0.00423478
0.0403174,0.00856605
0.0683806,0.0156327
0.041171,0.0235627
0.00349269,0.021982
-0.00345268,0.00997214
-0.00340692,-0.00135604
-0.00491843,-0.0206895
-0.00699828,-0.0337163
-0.0101906,-0.0237825
-0.0098286,-0.0155424
0.0134246,-0.0142733
0.0400475,-0.00375495
0.0558985,0.00572648
0.0752277,0.00139718
0.0556732,-0.00804476
0.0129236,-0.00467123
-0.0248891,0.00499863
-0.043047,0.0111796
-0.0538345,0.0212205
-0.0657476,0.0262432
-0.0725086,0.0178673
-0.0654295,0.00545939
-0.0447933,-0.00565762
-0.0230264,-0.0213022
-0.0125899,-0.024842
-0.00798381,-0.00966221
-0.00180346,-0.0053684
0.00741432,-0.00452726
0.0174563,0.00590937
0.0179389,0.0127985
0.0225425,0.0061671
0.0270517,-0.00386745
0.0324161,-0.00076631
0.0298366,0.00400252
0.0172951,0.00689555
0.00337225,0.0136756
-0.00372984,0.015904
-0.00921889,0.00542191
-0.0104847,-0.00122368
-0.0176709,-0.0141996
-0.0179992,-0.0229888
-0.00396787,-0.0108628
0.00649122,0.00350217
0.00668539,0.00390218
0.00347522,0.00255624
-0.000712271,0.00736801
-0.00362853,0.0084399
-0.00282643,-0.00250131
0.00750976,-0.0110608
0.0135052,-0.00123337
0.00696379,0.00611113
0.0021512,0.0128056
-0.00141279,0.0160083
-0.000637589,0.0160599
0.0111702,0.00808643
0.0380703,-0.0043736
0.0489185,-0.0221605
0.0381134,-0.0253655
0.0182206,-0.00836149
-0.00753547,-0.00410276
-0.0192643,-0.0133692
7.13e-05,-0.0105243
-0.00128515,-0.00549137
-0.0268903,-0.00879241
-0.0209474,-0.0126614
-0.0110816,-0.00690139
-0.0791671,0.0056405
-0.0889408,0.0168585
-0.0445987,0.0291696
-0.0157735,0.0330097
0.0175693,0.0231276
0.0710948,0.0123934
0.0989794,-0.000689846
0.0796129,-0.0160762
0.0297537,-0.0203374
-0.0185984,-0.0128344
-0.0513434,-0.013654
-0.0547914,-0.0165958
-0.0279878,-0.00439821
-0.0258694,0.00716561
-0.0345997,-0.000445072
-0.0072941,-0.00907421
0.0100561,-0.00530765
0.0259729,-0.00784705
0.0764045,-0.00255011
0.0856531,0.0137644
0.0275675,0.0152125
-0.0169095,0.00768864
-0.022299,0.0125272
-0.0313764,0.00284166
-0.0428325,-0.0150618
-0.0458976,-0.0151277
-0.0458208,-0.00182931
-0.0311246,-0.00060088
0.00801638,0.00221148
0.0513119,0.0138232
0.0556405,0.0171191
0.0394646,0.00857182
0.0172167,0.00107303
-0.0165159,0.00554152
-0.0397566,0.0093116
-0.0458849,0.0110401
-0.0571479,0.0105508
-0.0499449,0.00763747
-0.0263073,-0.00263844
-0.00538476,-0.0143459
0.0230594,-0.0306125
0.0466546,-0.0373723
0.0542211,-0.0209868
0.0759053,-0.00256032
0.0594037,-0.000286432
0.0142895,0.0103418
-0.0200252,0.0183423
-0.0395451,0.014559
-0.0363465,0.00248371
-0.0210856,0.00037798
-0.0197649,0.00717663
-0.0119491,0.0106381
0.0043208,0.0167794
0.00731701,0.0214514
0.017857,0.0106873
0.0524149,0.000748448
0.0678331,-0.0117633
0.0336738,-0.0294558
0.0152137,-0.0276299
-0.0115242,-0.014519
-0.0379505,-0.00789207
-0.047225,-0.00514963
-0.057214,0.00297066
-0.0432239,0.00669738
0.00858095,9.17e-05
0.0305079,-0.00799952
0.00533572,-0.00217612
0.0151101,0.0027695
0.0367981,0.00977619
0.0241618,0.0208412
-0.000742318,0.0220862
0.00158049,0.0142888
0.0158323,0.0072282
0.00523122,-0.00669382
0.000917873,-0.0244967
-0.011588,-0.0217338
-0.0431395,-0.0087257
-0.0539463,-0.00798652
-0.0102057,-0.00108371
0.0059993,0.0144686
0.000485015,0.0209801
-0.0190841,0.00866984
-0.0372371,-0.0139676
-0.0378711,-0.00339153
-0.0740819,0.00446
-0.136105,0.00722115
-0.124915,0.0170761
-0.00417894,0.0197048
0.14405,0.0120986
0.227132,0.00190356
0.233074,-0.0252607
0.144431,-0.0377079
0.0216219,-0.0238425
-0.0591131,-0.0156615
-0.0640434,-0.0152318
-0.0450685,-0.000719793
-0.053222,0.0207418
-0.0690911,0.0134553
-0.0588155,-0.0130472
-0.0148316,-0.00796433
0.0108832,0.00553818
-0.0326626,0.00820069
-0.0646241,0.0116625
-0.0352731,0.0169949
-0.0249134,0.0193333
-0.0116936,0.015593
0.0255208,0.00725113
0.0941281,-0.00943523
0.103512,-0.0175842
0.0542383,-0.00951
0.00945531,0.00897532
0.0700226,0.0009865
0.0586394,-0.0105918
0.01235,-0.0313604
-0.0233996,-0.0430192
-0.0143123,-0.0260898
-0.0108296,-0.002513
-0.0265042,0.0068912
-0.00257181,0.0142177
0.0192096,0.0226801
-0.000480871,0.0340536
-0.0375572,0.0419769
-0.0641348,0.0311448
-0.0801189,0.00621897
-0.110757,0.000209686
-0.0851702,0.0065857
-0.0150291,0.00220519
0.0186342,-0.00591251
0.010987,-0.0138398
0.00196715,-0.0209461
0.0156962,-0.0299993
0.0394408,-0.0332695
0.0413097,-0.0187695
0.035972,-0.00729169
0.0215826,0.00932695
0.0159531,0.0232681
0.0190637,0.0291157
0.0113511,0.0275959
0.00285752,0.0241748
-0.00321083,0.00475911
0.0144474,-0.00921038
0.0233223,-0.00376389
0.0190059,0.0041688
-0.0123618,-0.00311658
-0.0426609,-0.00960299
-0.0481873,-0.0106377
-0.024216,-0.0172671
0.0209084,-0.0280896
0.049629,-0.0250843
0.0512197,-0.0103041
0.0316132,0.000688341
0.00176098,0.00807254
-0.0191118,0.018484
-0.0209443,0.0252536
-0.0164858,0.0230616
-0.0287745,0.0173587
-0.0244167,0.00369225
-0.00420387,-0.00501017
-0.00965735,0.00205087
-0.0293112,0.000542331
-0.053295,-0.00708162
-0.033965,-0.00926752
0.0221754,-0.014582
0.084084,-0.0219646
0.0988506,-0.023587
0.0603183,-0.0104209
0.0230351,-0.002712
-0.00390122,0.00352521
-0.0193315,0.0148275
-0.0137264,0.0229744
0.0286755,0.0237569
0.0466192,0.0227162
0.024768,0.0125516
-0.0335403,-0.00398384
-0.129145,-0.00478113
-0.148234,0.00355271
-0.102855,0.000638165
-0.0419205,-0.00567741
0.0164532,-0.00370563
0.070582,-0.00810295
0.083905,-0.0208934
0.0612545,-0.0300393
0.0383233,-0.0197466
0.0242987,-0.0123732
0.00847964,-0.00287189
-0.00140698,0.012135
0.00114178,0.0209805
-0.000542988,0.0169285
-0.0166057,0.0156525
-0.0321755,0.00371167
-0.0305311,-0.00877442
-0.0172149,-0.00640706
-0.00197221,0.00106943
0.0110696,0.00182545
0.0163527,0.00140112
0.00639394,-0.000268943
0.0042575,-0.00880666
0.0102182,-0.0248712
0.0172184,-0.0237374
0.0192395,-0.00901187
0.0073595,-0.00578295
-0.000391472,0.00204891
0.0132645,0.0132841
0.027127,0.0164345
0.0190749,0.0153369
0.00717945,0.00870082
0.00279582,-0.00401077
-0.000601984,-0.00701716
-0.0108389,-0.00119416
-0.0215992,0.0032596
-0.0287093,0.00468001
-0.0255821,0.00645186
-0.0149259,0.00495587
-0.0024079,-0.00435296
0.0110326,-0.0181524
0.0138362,-0.0128789
-0.000349247,-0.00140424
-0.0163659,0.0073498
-0.020393,0.0177842
-0.00803924,0.0246867
-0.00360864,0.0190765
-0.0238887,0.0216916
-0.0492591,0.0235861
-0.0415812,0.00359177
-0.0267177,0.00376318
-0.0381405,0.014379
-0.0091678,0.00595376
0.0284104,-0.00339883
0.0288314,-0.00350037
-0.0166751,-0.00526996
0.00661141,-0.020222
0.0620787,-0.0317939
0.0738497,-0.0204241
0.0279288,-0.0126439
0.0134778,-0.00486553
0.0282852,0.00802284
0.0368481,0.0176
0.039514,0.0195169
0.021967,0.0115793
0.00621659,-0.00875777
0.00423661,-0.0190347
-0.000395952,-0.0121802
-0.015352,-0.00454013
-0.0295739,-0.00626624
-0.0331092,-0.00247223
-0.0768934,-0.00169149
-0.133328,-0.00645124
-0.128428,-0.0162444
-0.0805832,-0.0132084
0.0201866,-0.00239395
0.111435,-0.0101834
0.139935,-0.00161954
0.0759105,0.0146812
-0.00129013,0.0161146
-0.0284252,0.0136448
-0.0163983,0.0122967
-0.0165215,0.00381417
0.016578,0.00137608
0.0490794,0.0106893
0.0517151,0.0133596
0.0411821,0.00405234
0.0313695,-0.000374648
0.0172363,-0.000229825
0.00518966,-0.0135102
0.00820055,-0.0287183
0.010785,-0.0179248
0.00635715,-0.00267682
-0.0148135,0.00112326
-0.0332559,0.00320515
-0.031353,0.0101708
-0.0184094,0.0128879
-0.0162748,0.0133138
-0.0274923,0.00145153
-0.0284707,-0.0140253
-0.031093,-0.0130951
-0.0231187,-0.00353028
-0.0196289,-0.0016067
-0.0135967,0.00303263
-0.0265757,0.00885431
-0.0464755,0.00646997
-0.0304913,-0.00779704
0.0189125,-0.0196654
0.0574312,-0.00971365
0.0594777,0.000165315
0.0432799,0.00844679
0.0242901,0.0189458
0.013992,0.0227433
0.00716346,0.0112379
-0.00164759,0.00602896
-0.000905857,-0.00215312
0.0121938,-0.0057611
0.0191225,0.00185121
0.00569663,0.00507514
-0.00992696,-0.00233975
-0.0103581,0.0012942
-0.00075744,0.0070322
0.0135699,-0.000293072
0.0138124,-0.019166
0.00556968,-0.022896
-0.0156115,-0.0125971
-0.0360851,-0.0119133
-0.0388003,-0.00339935
-0.0264203,0.0152628
-0.012686,0.0208903
0.00842796,0.0104901
0.00658246,0.00627524
-0.0129346,-0.00411574
-0.023624,-0.0165919
-0.0357674,-0.00845218
-0.0172786,-0.00220656
-0.00233374,-0.000803497
-0.00537384,0.00220474
0.0185944,0.012238
0.0568207,0.00996175
0.0685685,-0.0115835
0.0532074,-0.0140472
0.0192985,-0.00932298
-0.0265724,-0.00771308
-0.0784859,-0.000246992
-0.104278,0.0146355
-0.0612394,0.010366
-0.00319693,0.0066731
0.040268,-0.0109826
0.0819224,-0.0221727
0.0913332,-0.0101163
0.0616838,0.0188893
0.0306638,0.0298779
0.00867421,0.00865151
-0.00610425,0.00563453
-0.0170149,0.00868134
-0.0208946,-0.0109589
-0.00474965,-0.0322178
-0.0175586,-0.0334244
-0.00911009,-0.0119737
0.0278926,0.0233296
0.0550187,0.0232645
0.0283965,0.0128862
-0.021268,0.00516638
-0.0784343,0.00155578
-0.20245,-0.0115016
-0.268426,-0.0226797
-0.128139,-0.00205796
0.0667527,0.017096
0.172293,0.00334432
0.173872,0.00560358
0.112641,0.0150476
0.060734,0.016809
0.0551848,0.00662487
0.0178521,-0.00284277
-0.11529,-0.0104923
-0.145391,-0.00644492
-0.0235217,-0.000340669
0.0509583,-0.0111973
0.0928865,0.00347992
0.0728026,-0.00658925
0.0426719,-0.0164177
0.040581,0.00673658
0.00324299,0.014497
-0.0252229,-0.00986757
-0.022452,-0.0176593
-0.0200076,-0.00214765
-0.0246157,0.0182741
-0.00169492,0.037734
0.0271992,0.000592084
0.0241494,-0.0392745
0.00671507,-0.0237247
0.0248485,0.0191326
0.0391818,0.0226267
0.0158472,0.0178354
-0.0203113,0.021617
-0.0575868,0.0165592
-0.106267,0.0197108
-0.13674,0.01915
-0.107747,-0.00820315
-0.0326074,-0.0156117
0.0352096,-0.0380568
0.117183,-0.0631398
0.145469,-0.0108459
0.0769637,0.0304136
0.00867747,0.0244566
-0.0456671,-0.00692363
-0.0775135,-0.0156576
-0.0630546,0.00677533
0.00743829,-0.00558046
0.0465721,-0.00996048
0.0457512,0.00438373
0.0195335,0.0134076
-0.000674398,0.00924327
0.0093754,0.013046
0.0122254,-0.00367753
-0.00594013,-0.0318602
-0.0246795,-0.0174673
-0.0386158,-0.0252149
-0.03538,-0.0334965
-0.0220606,0.0102523
-0.0164039,0.0363142
-0.0251297,0.0165708
0.00552162,-0.0150481
0.0220568,-0.014595
0.0380382,0.0274674
0.0613234,0.0348504
0.0317606,0.0118637
-0.0122842,0.000604368
-0.075071,-0.000170446
-0.0916558,0.00547034
-0.0668166,0.001186
0.0251908,-0.0203724
0.0660611,-0.0257036
0.0860219,0.00186005
0.104405,0.0177993
0.0790501,-0.0163204
0.0220539,-0.00549141
0.000217523,-0.0073828
0.00424999,0.00784195
0.010935,0.0190491
-0.0247624,0.0219059
-0.0556904,-0.000718302
-0.00385734,-0.0216709
0.00747878,-0.0402998
-0.09718,0.00951939
-0.297881,0.0327385
-0.274218,-0.00175404
-0.0449153,-0.0113141
0.147319,-0.0161529
0.242633,-0.0216704
0.201344,0.00439294
0.117779,0.0431069
0.0381078,0.045765
0.0163765,-0.000899538
0.024892,-0.0348239
-0.0185272,-0.030664
-0.0763133,-0.0323564
-0.122397,-0.00404592
-0.100261,0.0203194
0.0322751,0.032372
0.14226,0.00495422
0.12199,-0.0117596
0.0856355,0.00647333
0.0868078,0.0129152
0.0228203,0.000739641
-0.228243,-0.0260024
-0.536207,-0.041007
-0.409859,-0.00470069
-0.122146,0.0174814
0.229202,0.00419268
0.330361,0.0088363
0.221657,0.0268409
0.125878,0.00493634
0.0731559,-0.0193091
-0.0216548,-0.014588
-0.2211,-0.0103288
-0.247983,0.021078
-0.0043926,0.0282992
0.190311,0.0193199
0.205199,0.0113859
0.198684,-0.00992243
0.191241,-0.0414045
0.00424648,-0.0131293
-0.225323,0.023457
-0.238611,0.0151377
-0.146006,0.0266618
0.0655472,0.0132894
0.145522,-0.0208742
0.0965702,-0.00885892
0.104647,-0.0161367
0.0530813,-0.0117561
-0.210336,-0.0127118
-0.156942,-0.0105182
0.0832509,0.00379632
0.255498,0.0105805
0.214338,0.0320307
0.0459892,0.0165902
-0.0392108,-0.00575711
-0.0378355,-0.0251515
0.00233243,-0.0122395
-0.00519125,0.000708869
-0.061526,-0.0100712
-0.118409,0.00998198
-0.0908634,0.0500582
-0.00923485,0.0331907
0.0204186,-0.0318019
0.0130754,-0.0379082
-0.0170996,-0.0211069
-0.0579637,-0.0201482
-0.0562262,-0.0230859
0.0228395,0.00602056
0.048925,0.00712882
0.0541517,0.00735332
-0.00038261,0.0575752
-0.0738962,-0.00269977
-0.0605493,-0.0572065
-0.0236851,0.00809209
0.00216652,0.0185906
0.0313909,0.00292134
0.00866666,-0.00429452
-0.0168422,0.012336
-0.00291532,0.0251313
0.0168339,0.0284987
0.0034708,0.0153294
-0.016713,-0.00309296
-0.0324102,-0.0446905
-0.044772,-0.0395368
-0.0281431,0.0383387
0.0315182,0.0163239
0.101083,-0.00477424
0.0863978,-0.00665627
-0.0215886,-0.044324
-0.188693,-0.0549735
-0.140484,5.13e-05
0.0283223,0.0297742
0.113133,0.011356
0.102194,0.012389
0.0858962,0.00542683
0.0579846,-0.0143301
-0.119081,-0.0190571
-0.24826,0.0234397
-0.287922,0.0217994
-0.07776,-0.00386604
0.208875,0.0251189
0.246979,0.048667
0.155051,-0.00139887
0.0521032,0.0162154
-0.0862182,0.00822932
-0.191835,-0.0447402
-0.294899,-0.0363603
-0.095073,0.00406106
0.221772,-0.000263034
0.359208,-0.00573308
0.20666,0.0101224
0.0265213,0.0351503
-0.00429415,0.0179976
0.00551948,0.010368
-0.00477125,0.0250409
0.0191298,0.00468599
0.0380542,-0.0430507
0.00904663,-0.030087
-0.0241344,0.00299823
-0.0784284,-0.0108166
-0.103954,-0.0242974
-0.0508805,0.0127096
-0.0150084,0.00241531
-0.0170679,-0.0186834
0.029413,-0.0145205
0.0578316,-0.0239637
0.00127841,-0.00990097
-0.0550544,0.0107629
-0.0513104,0.00990849
-0.0370701,-0.00610958
-0.0260195,-0.0180363
-0.0182733,-0.00936937
-0.0142124,-0.000521783
-0.00221807,0.0116228
0.0272703,0.0191874
0.0299492,0.0117357
0.0128278,-0.00109343
0.0221737,0.00212822
0.058619,0.0038779
0.0673781,-0.00475248
0.0222577,-0.00980843
-0.0187324,-0.00742043
-0.0263157,0.0151102
-0.0364343,0.0205149
-0.0349769,0.0240351
-0.0213089,0.0208728
-0.000566127,-0.00652273
-0.00334,-0.0231992
-0.00702095,-0.0148773
-0.00754652,0.00216484
0.000730463,0.0048246
0.0217285,-0.00472055
0.0265142,-0.00823627
0.00556092,-0.00480333
-0.00878053,-0.00830384
-0.00642213,-0.0131375
0.0251827,-0.0108342
-0.00773545,-0.00557708
-0.135995,0.00111834
-0.0806395,0.00447841
0.0611438,0.0102411
0.110555,0.0206172
0.0441275,0.00833592
0.00514738,-0.0256623
-0.000256479,-0.0218489
0.00869069,0.00518385
0.00108906,0.00927697
0.00168436,0.0165871
0.0125539,0.000789173
0.026681,-0.0291558
0.0533369,-0.00132737
0.0715812,0.0219479
0.0378355,0.00942803
-0.0171578,-0.00631965
-0.0493215,0.00350492
-0.0384142,0.0279096
-0.00800878,0.0262291
0.00780897,0.00900822
0.00335928,-0.00535034
-0.0400874,-0.0235926
-0.0847319,-0.00969541
-0.0627296,0.048226
0.00625052,0.0207926
0.0696815,-0.0343574
0.120812,0.0295501
0.0757911,0.0348386
-0.0321012,-0.0185015
-0.149705,-0.0384363
-0.212428,-0.00773043
-0.199362,-0.011884
-0.0600219,-0.00136108
0.0984724,0.00811092
0.126866,-0.00913862
0.0603727,-0.000108152
-0.0301527,0.00744889
-0.128734,-0.00208412
-0.14837,-0.00642003
0.0521733,-0.0104814
0.237042,-0.014211
0.252045,-0.00621025
0.133171,0.0101011
0.0321222,0.0210582
0.00447575,0.00418678
0.0319671,0.0104417
0.0441329,0.00996929
0.00282868,-0.0451736
-0.0102419,-0.0269154
-0.00804972,-0.00690097
-0.0345197,-0.00815381
-0.0401708,0.0155533
-0.0259449,0.000840165
-0.029868,0.000532109
-0.116583,0.00688206
-0.29998,-0.010368
-0.204661,-0.0273662
0.0352207,-0.0310377
0.146714,0.0117913
0.11694,0.0306672
0.0745284,0.0187848
0.0400949,0.00856843
0.0366826,0.0152872
0.0182131,-0.000764234
0.00976972,-0.0173052
0.0316692,-0.00494874
0.0450779,0.00795949
0.0333779,0.00654247
-0.0137392,0.0054024
-0.0392658,0.0146641
-0.0307884,0.0178468
-0.0123259,0.0083425
-0.0164494,-0.0151625
-0.0352721,-0.0296123
-0.0407622,-0.014087
-0.0349609,0.002072
-0.00410084,0.00864374
0.0335478,0.0107223
0.0363375,0.00374384
0.0185884,0.00389925
0.00975833,-0.00379923
0.0167455,-0.0100961
0.0300539,0.000368574
0.019665,-0.00066436
-0.0154195,-0.0080004
-0.041606,0.00529756
-0.0421773,0.0303083
-0.0270235,0.0248956
0.001762,-0.0285977
0.0297916,-0.0282969
0.0144111,-0.00722246
-0.0280389,-0.00215798
-0.0490669,0.00124712
-0.111435,0.0123572
-0.101276,0.0263154
0.00975445,0.0238858
0.111498,0.010107
0.150758,0.00266428
0.0825945,-0.0099874
0.0288734,-0.0140373
0.0178997,-0.0180632
0.0117475,-0.028093
-0.0115447,0.0011524
-0.0170633,0.0231084
0.020097,0.019031
0.0593319,0.0228532
0.0437646,0.00430445
-0.0252646,-0.0279262
-0.0616585,-0.0132111
-0.0162632,0.0192686
0.0119303,0.0227863
0.00546189,0.000466639
-0.0574437,-0.00764519
-0.138234,-0.00950738
-0.15061,-0.0328798
-0.0750156,-0.0349753
0.0271649,-0.00471539
0.0602369,-0.00543923
0.0673285,-0.00493681
0.0436353,0.000769266
0.0252141,0.00455406
0.00557481,-0.00752369
-0.024954,-0.0226292
-0.0166052,-0.00582212
0.0308902,0.000491226
0.0535967,2.4e-05
0.0428018,0.00955121
-0.00592515,0.0109174
-0.103762,0.00517904
-0.142277,-0.00509084
-0.11117,-0.00892979
0.0140222,-0.0042849
0.15535,-0.00221897
0.180439,0.00250188
0.0700245,0.00368661
-0.0375944,0.00627917
-0.02995,0.0151258
0.00903763,0.00503722
0.0287548,-0.00223177
0.0206791,-9.25e-05
-0.000373351,0.0100821
-0.0188671,0.017801
-0.0140747,0.0232945
0.0209312,0.0281696
0.0560336,0.0128529
0.0352986,0.00591463
0.0119718,0.00484221
-0.00331021,-0.0127229
-0.0438581,-0.0177825
-0.0723636,-0.00834557
-0.0681715,-0.0154143
-0.0296147,-0.00811711
0.0125885,0.0121793
0.0132152,0.0254676
-0.00423079,0.00749884
0.00537009,-0.0187907
0.0171128,0.00414353
0.0179143,0.0116751
0.0166941,0.0168336
0.0198289,0.0216588
0.0221035,0.0271533
0.0176966,0.0346177
0.0137846,0.0346082
-0.000167163,-0.0111114
-0.00510226,-0.037714
0.00446132,-0.0162537
0.00692479,0.000551186
-0.00648507,0.00155627
-0.0315434,-0.0205443
-0.0629032,-0.0188438
-0.0646599,-0.00858549
-0.000818391,-0.00618115
0.0256203,-0.0240501
-0.00192879,-0.0225051
-0.0287646,-0.00504414
-0.0333994,-0.00336951
0.0089489,-0.0327083
0.059828,-0.0360932
0.0580203,-0.00740392
0.00204415,-0.00290949
-0.0250575,-0.00987497
-0.0287757,-0.0266973
-0.00775671,-0.0190929
0.00279393,-0.0055127
0.0057488,-0.00444291
0.00178828,0.00694944
-0.00691235,0.0184408
-0.016046,0.014354
-0.019993,0.00459607
-0.0015514,0.00909074
0.0258428,0.0169505
0.0300591,0.0186356
0.0230262,0.0194858
0.0313102,0.0273978
0.0253683,0.0295187
0.0100257,0.0260703
0.00280112,0.0106813
-0.0104023,-0.0206067
-0.0211815,-0.0320035
-0.0171467,-0.0204476
-0.0243051,-0.0127744
-0.00563493,-0.00612994
0.00522276,-0.00475339
-0.00459504,0.00764712
-0.0220726,0.00401288
-0.0175297,-0.00465427
-0.000876273,-0.00100287
0.0144277,0.00202932
0.0181812,0.00332576
0.0100621,0.00731536
0.0140111,0.00360103
-0.0241772,-0.00037611
-0.122282,0.00438695
-0.128245,-0.00742866
-0.0448706,-0.0188352
0.0410801,-0.0140147
0.0799821,0.00144273
0.0762449,0.00527714
0.035175,-0.00302895
-0.00317722,0.0174877
-0.0290512,0.0243524
-0.0646696,0.00420249
-0.00950233,-0.0151225
0.0462377,-0.0114584
0.085973,-0.00798353
0.0710623,0.0085783
0.0746696,0.0477263
0.0971567,0.0362051
0.094256,-0.0246488
0.0380786,-0.0396412
-0.0554849,-0.0133986
-0.0632003,-0.00583351
-0.0469195,-0.0163623
-0.0465344,-0.00295901
-0.0250588,-0.013325
-0.00161055,-0.018358
-0.00200841,0.00746744
-0.0268756,0.0135871
-0.0459249,0.0159904
-0.0440321,0.00508022
-0.0115565,0.0120082
0.00228205,0.0247246
-0.0088318,0.0278083
-0.0150393,0.0277381
-0.00794174,0.0171793
0.00829126,0.00980402
0.0131103,0.0082253
0.0145009,-0.00682903
0.0217092,-0.0120063
0.0263833,-0.00519398
0.00866872,0.00345777
-0.00268781,0.00119441
-0.015735,2.41e-05
-0.0261681,0.00422681
-0.0138973,-0.00223315
-0.0138304,-0.00582451
-0.0206803,0.00221763
-0.00819663,-0.00304399
-0.00339675,-0.00844744
0.00462435,-0.00473536
0.00359617,-0.00219886
0.0103423,-0.00376719
0.028932,-0.00318619
0.0404896,-0.0115229
0.0419296,-0.0198429
0.0292716,-0.0202153
0.0207558,-0.0152252
0.0181866,-0.0158974
0.0149843,-0.0085212
-0.00552825,0.00610043
-0.0377904,-0.00135733
-0.0861394,-0.00575051
-0.0942182,0.0136906
-0.048465,0.00858621
0.0122863,-0.0162587
0.0331251,-0.0127923
-0.0330803,0.00416693
-0.0702711,0.0135362
-0.0339771,0.00734342
0.0103822,-0.00595012
0.04101,-0.000559921
0.0722354,-0.00451751
0.07048,-0.00335096
0.059608,0.00444649
0.0467077,0.0151449
0.0235997,0.0168254
0.0110489,0.00601746
0.00596196,-0.00449159
0.00563552,-0.0074229
0.00239807,0.00178012
-0.0100098,0.00270989
-0.0172977,-0.00991036
-0.0144042,-0.00489263
-0.00457035,0.00597345
0.000767878,0.00520074
0.00489723,0.0122509
0.00571983,0.00996589
-0.0019302,-0.00910402
-0.00517095,-0.00722749
-0.00390107,0.0114642
-0.00441002,0.00466252
-0.0483835,-0.00623132
-0.0869638,0.00847881
-0.0803392,0.0187064
-0.0968743,0.00802179
-0.064907,-0.0149812
-0.000688995,-0.0104973
0.0405515,0.000115195
0.091234,0.00554927
0.103387,0.00383223
0.0725041,1.87e-05
0.0334639,-0.00347365
0.0200842,-0.00508152
0.0177144,-0.0143699
0.0186749,-0.0243481
0.0171296,-0.0214838
0.00469715,-0.0111033
-0.00517507,-0.00556609
-0.00673813,-0.00187224
-0.00413159,0.00746713
-0.00931068,0.0154589
-0.00791221,-0.000134009
0.0108955,-0.0148194
0.0156045,-0.00591193
0.00544789,0.00136915
-0.00304814,0.00588155
-0.0111073,0.0143861
-0.0344968,0.00872914
-0.0576616,0.00599548
-0.0743243,0.00500711
-0.0494823,-0.00354157
-0.00867666,-0.0142693
0.0301699,-0.0130118
0.0275722,-0.00939765
-0.024276,-0.00498162
-0.0967077,0.0148885
-0.0591958,0.0204017
-0.0106825,0.0135051
0.0558235,0.000990272
0.109814,0.00369194
0.125277,0.0145278
0.0676921,0.00988201
0.017963,-0.00434497
-0.0056746,-0.00172494
-0.017333,0.00526414
-0.0202389,-0.00062744
-0.00528582,-0.0110807
-0.000532014,-0.0124201
-0.020923,-0.00199509
-0.0465243,-0.00209917
-0.0221208,-0.000717018
0.0131542,0.00437917
0.020415,0.00720022
0.0318289,0.0151106
0.0324821,0.017472
0.00298736,0.00246896
-0.0032017,-0.00673534
-0.00516667,-0.0039795
-0.0359219,-0.00879115
-0.0385549,-0.00761024
-0.00430665,0.0124805
-0.000203836,0.0164218
-0.00475183,0.0116845
-0.0101893,-0.00778847
-0.00269321,-0.0220619
0.0137272,-0.00806375
0.0134865,0.00250022
0.0117272,-0.0177901
0.0117273,-0.00311845
0.00952647,0.0156114
0.00295429,0.0151808
-0.00709072,0.00396709
-0.0156343,-0.00727409
-0.0230069,-0.00388417
-0.022303,-0.00750691
-0.020375,-0.00607211
-0.0110699,0.00608886
0.00380954,0.0182844
0.0106826,0.0152075
0.017659,0.00353711
0.0229286,-0.00708839
0.0246926,-0.0104174
0.0190423,-0.00710204
0.0142082,0.000639777
0.0104394,0.00407675
0.00171254,0.00262396
-0.00701674,0.00824877
-0.0242506,0.0061975
-0.033082,-0.0134893
-0.0394622,-0.0273109
-0.0375394,-0.0125067
-0.0163318,-0.00125519
0.0201121,-0.000419449
0.0245397,0.00679686
-0.0398891,0.00815805
-0.0608055,0.00225665
-0.0166206,-0.0072504
0.022683,-0.0207272
0.0613011,-0.00784663
0.0896644,-0.00543616
0.0662292,-0.0190057
-0.00991383,0.00418873
-0.0550363,0.0230245
-0.0170534,0.0265368
0.0131961,0.0104434
0.0138787,-0.0108519
-0.00254597,-0.0147069
-0.0415826,-0.0144861
-0.0511045,-0.0101918
-0.0123341,0.00416223
0.0479701,0.0149623
0.0641094,0.0166343
0.0274377,0.0125709
0.00919443,0.00355432
0.0115028,-0.00937769
0.0124545,-0.00978327
0.00746647,-0.000389038
0.0197295,0.00338356
0.039335,0.00968456
0.0235037,0.0169242
-0.045758,0.0156793
-0.078729,-0.0165413
-0.0639681,-0.0325015
-0.0585907,-0.0110295
-0.0664995,0.0104738
-0.0269467,0.00504098
0.0538222,0.00365808
0.0689643,0.0138567
0.0566587,0.0121762
0.0409128,0.00191857
0.0239453,-0.0100957
-0.00681893,-0.020192
-0.0702238,-0.013058
-0.0603798,0.00896788
-0.000379117,-0.00161204
0.0101871,-0.0235477
-0.0467818,-0.00107917
-0.028464,0.015513
0.0204919,0.00922619
0.0435028,-0.00589037
0.0330524,-0.0103409
0.00821993,0.000289693
-0.0296556,0.00967695
-0.00880677,0.0127873
0.0634783,0.0160771
0.098536,0.0202836
0.0296321,-0.00168266
-0.01761,-0.0119346
-0.029797,-0.00252673
-0.00381392,-0.00983917
0.0135548,-0.011778
0.025542,0.00623739
0.0156013,0.0191984
0.010051,0.00835302
-0.0116025,0.00142935
-0.0736805,-0.00896852
-0.091121,-0.00582945
-0.0606784,-0.0050288
-0.0251833,-0.00903955
0.0307025,-0.00158365
0.0602027,0.0178678
0.0267198,0.0241203
-0.0189299,0.0256713
-0.0215488,-0.00742292
-0.0239967,-0.0337948
-0.0268728,-0.0146586
0.0140174,-0.003847
0.0450163,-0.00412466
0.0431446,-0.00460229
0.02388,-0.00444668
0.00724716,-0.00146132
0.00391161,0.00104906
-0.00424482,-0.00823445
-0.025955,-0.00024393
-0.0183246,-0.00647671
0.0102851,-0.0216684
0.0198197,0.00133446
0.0096074,0.00839569
-0.00667896,0.0117157
-0.0133626,0.00454743
-0.0156701,-0.00154984
-0.0167538,0.00213087
-0.0324003,0.0125872
-0.035695,0.0223788
-0.00996927,0.00730546
0.00560594,-0.000702614
0.0180595,0.0143644
0.0228914,0.0126402
0.0152152,-0.00700648
-0.0290388,-0.0259018
-0.0340537,-0.0157587
0.0178175,-0.00423811
0.0682895,-0.00157794
0.0640065,0.000554722
0.0231654,-0.00114561
0.0102352,-0.0027852
0.0021246,-0.00617921
-0.00595849,-0.0158624
-0.00617948,-0.0175139
-0.0083849,0.00492297
-0.0125963,0.0176469
-0.00568396,-0.0191819
0.0114801,0.000238849
0.0119211,0.00956789
0.00014812,-0.0214186
0.0001,-0.0216112
0.000265888,0.0141366
-0.00502561,0.025031
-0.013215,-0.000346443
-0.0347943,0.0210419
-0.067385,0.0279366
-0.0577436,0.018133
-0.0316278,0.0131509
0.00200512,0.00578803
0.0310244,-0.0039081
0.0270556,-0.00153963
0.0177045,0.00839832
0.0134145,0.0110927
-0.00625496,0.00729777
-0.00499366,0.0130106
0.00424911,0.0106873
0.00628249,-0.00334175
0.0199167,-0.0114864
0.0259722,-0.0049635
0.0151686,-0.00491483
0.00268794,-0.00579461
-0.015729,0.0017893
-0.0347476,-0.00882637
-0.0295288,-0.0321586
-0.00428703,-0.0170306
0.0120699,-0.0158361
0.0158505,0.00156495
0.00922056,0.00640585
-0.0368168,0.000590427
-0.00216398,0.00182482
0.031441,0.00130782
0.0341494,-0.00633322
0.00963334,-0.0203573
-0.0154621,-0.0236296
-0.0290213,-0.0118283
0.00326757,-8.09e-05
0.0483648,0.00926736
0.0383435,0.00903379
0.00671711,0.00817577
-0.0175376,0.0172067
-0.0191253,0.0163886
0.00194013,0.000593426
0.0250296,0.00197309
0.0243909,0.0182625
0.00541646,0.0129295
0.0033691,-0.00856729
-0.00242232,-0.0129318
-0.0103249,-0.0125257
-0.0424897,-0.0226103
-0.134049,-0.0341909
-0.158336,-0.0206574
-0.0598359,-0.00318997
0.0579874,0.00295691
0.100152,0.0237989
0.10985,0.0294944
0.129696,0.0135515
0.0788101,0.0170375
-0.00832531,0.0201233
-0.0794516,0.0012574
-0.0534002,-0.00935871
-0.010535,-0.00514907
0.0129348,-0.0102628
0.00756584,-0.00933586
-0.0103072,-0.0030855
-0.0172206,-0.0130061
0.00473317,-0.0198426
0.00394731,-0.0160042
-0.0169181,-0.013826
0.0121258,-0.00724283
0.0467021,0.0176277
0.0376957,0.0219038
0.00447464,0.0276178
-0.010707,0.0215896
-0.00196155,0.00578589
-0.0109348,0.0160198
-0.0395369,0.00538938
-0.0751839,-0.0130276
-0.0638318,-0.0055627
-0.0151496,0.0113797
0.0339083,0.00762732
0.0498091,0.00236711
0.0523352,-0.00289117
0.0472279,-0.0132055
0.0388272,-0.0216454
0.0192004,-0.0134272
0.00981373,-0.00491501
0.00104038,-0.00191321
-0.0134216,0.00504107
-0.015999,0.00972032
-0.0253921,0.0131121
-0.023781,0.0234248
-0.0305665,0.00603866
-0.0246237,-0.00676034
-0.00407735,-0.000845658
0.00373579,0.00479123
-0.00185959,-0.0052381
-0.0140314,-0.0138269
-0.012745,-0.00325928
-0.00150888,0.00101452
0.0126382,-0.0142951
0.0159049,-0.0239837
0.0133926,-0.0190856
-0.00598837,-0.00677864
-0.0322543,0.00507463
-0.026495,0.0143886
-0.00914221,0.0186725
0.00327212,0.0165672
-0.00469588,0.00420755
-0.00239865,-0.00891318
0.0284599,-0.00621511
0.0468116,-9.62e-05
0.0370206,0.00506438
-0.00272929,0.0206641
-0.0304088,0.0183924
-0.0380462,0.00717819
-0.0292759,-0.0111562
0.0107199,-0.0158905
0.0440007,-0.000214036
0.0321266,-0.0122695
0.0187156,-0.0307268
0.0177306,-0.00303805
-0.00071872,0.0226581
-0.0184606,0.0214086
-0.0304679,0.0212396
-0.0242645,0.0233984
-0.011314,-0.00283397
0.00125072,-0.0346654
-0.0037256,-0.0231028
-0.00203725,-0.00773463
0.0112424,-0.00115088
0.0108594,0.01093
0.000309009,0.0106571
-0.000849302,-0.0180388
-0.0139687,-0.033889
-0.0353182,-0.0171286
-0.00811968,-0.00168932
0.00138792,0.00871263
-0.000477507,0.00319746
0.00995063,-0.000952632
0.0463715,0.011538
0.071731,0.0133758
0.0464174,0.000371866
-0.0101434,0.00097658
-0.049402,0.0146678
-0.0256966,0.0158246
-0.0145107,0.0128807
-0.00167449,0.00942432
0.0192876,0.0142351
0.0184857,0.00351968
0.0105939,-0.0113983
0.0189037,-0.010188
0.0243754,3e-05
0.0124277,-0.00692299
0.000244563,-0.0152766
-0.0299704,-0.0042152
-0.109536,0.00122736
-0.124691,0.00523378
-0.0735163,-0.00327842
-0.00819775,-0.00877658
0.0359248,-0.00832486
0.0568362,0.00309975
0.0734605,0.0133209
0.0815962,0.0139297
0.0325196,0.0166399
0.00411996,0.00953906
-0.00137208,-0.0129755
-0.0259176,-0.0187528
-0.0396584,-0.0137253
-0.0227052,-0.0128478
0.0141173,-0.00887802
0.0433638,-0.00364746
0.0505748,-0.000654163
0.0234294,0.00561336
-0.0196897,0.0164673
-0.0482357,0.00176854
-0.0698165,-0.00667565
-0.0752502,0.000129104
-0.0578188,0.000232999
-0.00243426,0.0016305
0.0586699,0.00750782
0.0742264,0.0131759
0.0344498,0.00946819
0.0228417,-0.00732272
0.0490234,-0.0165739
0.0648537,-0.0161231
0.0616701,-0.00146361
0.0116715,0.0129693
-0.0492471,0.0128254
-0.06029,0.00303932
-0.0388738,-0.00136733
-0.0307792,-0.0024084
-0.0107803,-0.0104488
0.0146528,-0.00392118
0.0198721,0.0128089
0.014892,0.0180801
0.00795564,0.0018674
-0.00196282,-0.00913358
-0.0203925,-0.00248035
-0.0233095,-0.00197651
-0.0113172,-0.032712
-0.0075552,-0.0273476
-0.00587865,-0.000743018
0.00280008,0.00289737
-0.00354963,-0.00282541
-0.0123688,0.0209344
-0.0106173,-0.000208705
-0.010198,-0.0107373
-0.00165787,0.0267843
2.13e-05,0.0049055
-0.00361164,-0.0149984
0.000670556,-0.00160134
0.0127768,0.0122576
0.00675919,0.0223283
-0.00941872,0.0195023
-0.00381504,0.0159967
0.0137794,-0.00499955
0.0183572,-0.0200893
0.0155278,-0.0128516
-0.00144958,-0.0160512
-0.00771019,-0.00442516
-0.0227882,-0.000544126
-0.0297823,-0.00651697
0.00398581,0.00943267
0.00629943,0.0198058
0.0122675,0.00439145
0.0115376,-0.00554311
-0.0482645,0.00294463
-0.0431898,0.014653
-0.0071482,0.0092648
0.0012078,0.00712841
0.00952823,0.0119897
0.0456257,0.0066298
0.0696265,-0.00570128
0.0628278,-0.0152538
0.027871,-0.0156069
0.00261872,-0.0159872
-0.00561974,-0.00617879
-0.00809565,0.00344412
-0.00426782,0.00413525
-0.00713557,0.000689936
0.000487362,-0.000315317
0.0135772,-0.0119993
0.0101776,-0.0198897
-0.000561953,0.00843042
-0.00296854,0.0172834
-0.00903122,-0.00260614
-0.0278655,-0.000987623
-0.104362,0.00898611
-0.173261,0.00614695
-0.123241,-0.014923
0.00293909,-0.0100124
0.106103,0.0054238
0.143909,0.00148469
0.120208,0.00129834
0.0413927,0.0108571
-0.0285792,0.0116512
-0.0377857,-0.00592334
-0.029421,-0.0115453
-0.0324721,-0.0163536
-0.00018142,-0.0150361
0.0504661,0.00210457
0.0675767,0.00379982
0.0500412,0.00470594
0.0368456,0.0117954
0.0206977,0.011226
0.000553214,-0.00410311
-0.0320514,-0.0213961
-0.0435234,-0.0239752
-0.0146517,-0.0211056
0.00596759,-0.0159964
0.000200943,-5.83e-05
-0.003228,0.0162996
-0.00609544,0.0221168
-0.0146723,0.0141843
-0.017059,0.00942148
-0.0116727,-0.000315782
-0.0263957,0.00913144
-0.0535808,0.0241977
-0.0472309,0.0106757
-0.025869,0.00895174
0.00212276,0.0187957
0.0190309,0.0162183
0.0085606,0.00351098
0.00398438,-0.00337802
-0.00687053,-0.0167776
0.00566682,-0.0245216
0.0105349,-0.00533304
0.0161353,0.00562318
0.0227157,0.00687186
0.00488046,-0.00413226
-0.0236176,-0.0165793
-0.0140461,-0.00688773
0.0110187,0.000755472
0.0230257,-0.00371965
0.0206339,-0.00636304
0.0115536,-0.00357165
0.00687247,0.00576314
0.00854521,0.0110688
0.0153161,0.00572466
0.0160588,-0.00707147
0.00462145,-0.00642552
-0.00873927,-0.00761176
-0.0128819,-0.00408258
-0.00923548,0.00349955
-0.00566544,0.00932534
-0.0054851,0.00290458
-0.00864658,0.00390389
-0.0108412,0.00222178
-0.00133507,-0.0085536
0.00898266,-0.00671841
0.0114978,0.00581376
0.0125377,0.004643
0.00361407,0.00428605
-0.000540932,0.0109875
0.00797527,0.00973089
0.0261529,-0.00155141
0.0216589,-0.0117221
-0.0131802,-0.00791963
-0.0242234,-0.00384498
-0.024444,-0.000116852
-0.026184,0.000788562
-0.0257728,-0.00492972
-0.0607429,-0.00888491
-0.0564981,-0.0018278
-0.0154689,-0.0115891
0.027119,-0.0348806
0.0281993,-0.016511
0.0216715,0.00481413
0.0154044,0.00585443
0.00411546,0.00848689
0.0326417,0.0210054
0.0736331,0.0178832
0.0683238,0.00597676
0.0379712,-0.00045829
0.00507112,0.0028377
-0.0125572,-0.00274771
-0.0202235,0.00207568
-0.024675,0.0157899
-0.0195712,0.0156323
-0.010264,0.00407694
0.00497972,-0.00760014
0.00639646,-0.0180692
-0.00511128,-0.0166452
-0.0650271,-0.0061583
-0.110064,0.00875779
-0.0750933,0.00351537
-0.0125938,-0.00578091
0.0441807,0.00794594
0.0786159,0.00416281
0.0738407,-0.00486502
0.0260102,-0.00566691
-0.0102263,0.000721343
0.00444907,0.00271444
0.0152884,0.00485268
-0.04931,0.0113972
-0.0601774,0.00717555
0.00187141,0.00629717
0.0623446,-0.00460359
0.0848966,-0.0216478
0.0599111,-0.014924
0.0276798,-0.00331974
0.02017,0.00580452
-0.00128674,0.0069442
-0.0381968,0.00652294
-0.0451739,0.0120255
-0.0288481,0.00108604
-0.0164801,-0.023473
-0.0322364,-0.0237839
-0.0890519,-0.00712095
-0.10351,-0.0114774
-0.0286879,0.00275372
0.000658256,0.0389916
0.00496582,0.0307275
0.0563648,0.00935483
0.0789968,-0.0274708
0.0438532,-0.0136422
0.0102681,0.00893497
0.0185423,0.0045599
0.0289621,-0.00241245
0.0120374,0.00230726
0.00235702,0.010232
-0.0199549,0.0105405
-0.0138388,-0.00452698
0.00174449,-0.0167707
-0.00535817,-0.0109129
-0.00211855,-0.00206484
0.0152007,0.00143067
0.00691524,0.00475263
0.00456239,0.0101043
0.00131663,0.0134303
-0.0122911,0.00227615
-0.016537,-0.0276465
-0.00505879,-0.019811
0.00639908,-0.0063236
0.00906311,0.00350265
0.00459164,0.00692166
-0.0125805,0.0154445
-0.0240443,0.0161165
-0.0190676,0.00594123
0.0105141,-0.00973889
0.0300516,-0.00936798
0.026077,0.00415042
0.000851728,0.00566615
-0.0182674,0.0021435
-0.012798,0.00461231
-0.000775927,0.010718
-0.00302111,0.0100661
-0.00907676,0.00566682
-0.00674937,-0.0098941
8.44e-05,-0.0260892
0.0210902,-0.0166414
-0.017262,-0.00481855
-0.0889687,0.0067465
-0.0752258,0.0129697
-0.0108182,0.0210346
0.040786,0.0120991
0.0648267,-0.00441537
0.0602051,-0.0037155
0.0381147,0.00307538
0.00952138,0.0037485
-0.00159433,0.0012553
-0.00694362,0.00052769
-0.00418077,-0.00378013
-0.00267046,-5.77e-05
-0.00560167,-0.0108082
-0.00145029,-0.0226564
0.00913488,-0.00994684
0.0199098,0.00487086
0.0128993,0.00543466
-0.0129624,0.00510614
-0.0313179,0.00649166
-0.0238052,-0.00500034
-0.000220664,-0.0156277
0.00908395,-0.0176807
0.00323637,0.0072144
0.00365662,0.00233452
0.003305,0.0113492
0.00693245,0.00283196
-0.0112706,0.00367882
-0.0429503,0.00889747
-0.0428663,0.00914429
-0.0301852,-0.00075937
0.00707109,-0.00702163
0.0444268,0.00161465
0.0574899,-0.0030308
0.0428426,-0.00253638
0.0189755,0.0123448
0.0106405,0.00723139
0.0148988,0.00206032
0.01162,-0.00368315
0.00409283,-0.00712226
-0.0110237,-0.00894476
-0.0200285,0.000441389
-0.00763958,0.011807
-0.00614129,0.00820179
-0.0165907,0.0106144
-0.0162115,0.00347007
-0.0041167,-0.00729751
0.00411576,-0.0208261
0.00581004,-0.01956
0.0156847,-0.000793755
-0.0197766,0.000905406
-0.0953284,-0.0191722
-0.113289,-0.00665403
-0.0850093,0.018433
-0.0176433,0.0151121
0.0584214,0.00597047
0.113108,-0.0028712
0.104639,0.00402174
0.0162229,-0.0170458
-0.0134457,-0.00691227
0.0212471,0.0112095
0.0254566,0.00367294
0.0285904,-0.00153456
0.0232805,-0.010117
0.0146405,-0.00528814
0.00834426,0.00185238
0.00264616,-0.00489336
-0.00252706,0.00118983
-0.00889926,0.009727
0.00526819,0.00513053
0.001621,0.00243594
-0.0103006,-0.000882296
-0.0220267,-0.00197498
-0.0265938,-0.000520443
-0.00995283,0.0020845
-0.0120734,0.00225158
-0.0266694,0.00386203
-0.0382606,0.00318526
-0.0264994,-0.000809534
-0.00340856,0.00427286
0.013022,-0.00337488
0.0306359,-0.0111327
0.0261705,-0.00597038
0.0172429,0.000174481
0.017261,-0.00114765
0.0197622,0.0060986
-0.00127301,0.00685312
-0.053201,0.00347917
-0.0661719,-0.00665039
-0.0384687,-0.00741116
-0.00973863,-0.00146451
0.00404169,0.00299575
0.0129544,0.00290917
0.0156392,-0.0018174
0.0136643,-0.00592996
0.0258041,-0.00409672
0.0192524,0.00454093
0.0318397,-0.0193319
0.0486016,-0.0194208
0.00844406,0.012257
-0.0255177,0.0191338
-0.0138536,0.0134867
-0.0121498,0.017217
-0.027318,0.0148335
-0.032479,0.00753482
-0.0126486,-0.0051764
0.0225764,-0.0115419
0.0406401,-0.00297846
0.0334002,0.00294496
0.0128759,0.00411481
0.0056106,0.0101469
0.00718673,0.00196748
-0.00908986,-0.000626646
-0.00858125,-0.00340179
0.0199494,-0.00684287
0.0260545,-0.00427043
-0.0172914,0.00308196
-0.0520221,0.00236853
-0.0747974,0.000477243
-0.0905907,0.00575274
-0.0627721,0.00462226
0.00433804,-0.00518368
0.0508238,-0.020408
0.0679503,-0.019441
0.0688116,-0.00504816
0.0345548,0.00677261
0.00127571,0.00864801
-0.0128231,0.00611772
-0.00292019,-0.000160118
0.00639605,-0.00364013
0.00521976,-0.00106562
0.00158249,-0.00715992
0.00655542,-0.0099001
0.0142879,-0.00169888
0.015398,0.000677588
0.0178298,0.00449928
0.00722796,0.00756156
-0.0116128,-8.81e-05
-0.0119093,-0.0286959
-0.00755457,-0.0203204
0.00627977,-0.00448868
0.0145044,-0.00219017
0.00365256,-0.00310744
-0.0133619,0.0031395
-0.0185403,0.00711128
-0.0318303,0.0121953
-0.0356107,0.0154737
-0.0059389,0.00519212
0.00831224,-0.000390603
-0.000900009,0.0125763
-0.00709741,0.0176994
-0.00240757,0.0107924
0.00482199,0.0138719
-0.00304749,0.0256374
0.00840807,0.0223767
0.0303664,-0.00290768
-0.00140189,-0.0195208
-0.0828796,-0.0113504
-0.0894563,-0.00705107
-0.0361983,0.00250085
0.0180151,0.0105565
0.0567868,0.00336005
0.0645707,0.00283553
0.0387726,0.00032792
0.0223688,-0.00817832
0.0134724,-0.00862644
-0.00621678,0.00040181
0.00826789,-0.00648814
0.0247411,-0.00423783
-0.00971856,-0.0002796
-0.0260077,0.000906961
-0.0196276,-0.0130922
0.00251724,-0.0216635
0.0212395,-0.00698437
0.0337055,0.00423166
0.0285588,-0.0240402
0.0110149,-0.00571852
-0.00799636,0.00915057
-0.0277051,0.00997882
-0.0317752,0.0137303
-0.0132739,-0.00290528
-0.0130883,-0.00948717
-0.0175232,-0.00630954
-0.00212057,0.000905086
0.0158657,0.00439135
0.0261251,0.00612673
0.0295935,0.0100382
0.0284193,0.00957367
0.018853,-0.00262418
-0.00914569,-0.00973936
-0.0269887,-0.00129369
-0.0127609,-0.000783011
-0.0126768,0.00323985
-0.0189494,0.00206211
-0.010844,0.0124247
-0.00225882,0.00979795
-0.0189083,0.00254976
-0.0222251,-0.00414332
0.0111646,-0.0201045
0.0296762,-0.0197755
0.0163075,-0.0100138
0.000539267,-0.00583392
-0.0151417,0.0060862
-0.0284594,0.0108437
-0.0182918,0.00349437
0.00415535,-0.00227544
0.0220347,0.0013542
0.0361362,0.00136372
0.0310851,-0.000318417
-0.00034471,0.009472
-0.0112473,0.0260015
-0.0292761,0.00123984
-0.0345009,-0.0209489
-0.0139816,-0.0101063
0.00578625,-0.0184543
0.00616833,-0.0329909
0.0229815,-0.0134244
0.0257648,-0.0143579
0.0141226,0.00635028
0.00427204,0.0417745
-0.00236005,0.0326104
0.00168353,0.0163534
0.0192736,0.00269914
0.00618631,-0.000603127
-0.0114199,-0.00120451
-0.00161537,-0.00119341
-0.000720992,0.00825527
-0.0120806,0.0148969
-0.03547,0.00763993
-0.0313836,0.00365663
-0.00845279,-0.00986622
-0.00161731,-0.0261266
0.00212515,-0.0153649
0.0107533,0.00342599
0.00721604,0.00248392
-0.000242305,0.0067177
0.0123795,0.0183626
0.0169499,0.00873706
0.00262587,-0.0110342
-0.00855354,-0.0167578
-0.0215976,-0.00275657
-0.0311816,0.00470972
0.0103797,0.00881738
0.0514104,0.00856247
0.0460238,0.00294471
0.0264256,-0.00266887
0.0217212,-0.00244156
0.023889,-0.00667599
-0.000531003,-0.0244596
-0.0170824,-0.0207047
-0.0433003,0.00279296
-0.145169,0.00478365
-0.18972,0.00459152
-0.107491,0.0156976
0.0172111,0.0149458
0.117859,-0.0159826
0.161104,-0.0215895
0.108072,-0.000333085
0.0438801,-0.000434164
-0.0114564,0.00791501
-0.0531865,0.0182717
-0.0503433,0.0166615
-0.015875,0.000164472
0.0223837,-0.00693705
0.0487715,-0.0174251
0.0606013,-0.00917805
0.0458823,0.00213476
0.0270262,0.00139759
0.0140733,-0.00294151
-0.0219299,-0.00714558
-0.0430757,0.00631493
-0.0230322,0.00384935
-0.0132708,-0.00417022
-0.029901,-0.00250508
-0.0216439,0.00241745
0.0103525,0.00699961
0.0236198,0.0162951
0.0177062,0.0204972
0.00145167,0.0079485
-0.018177,-0.00133477
-0.0114221,-0.0062537
0.00808664,-0.0156647
0.00309499,-0.00958664
-0.0158312,0.00213092
0.000841188,-0.00083885
0.0202261,0.0062179
0.0194237,0.0178819
-0.011441,0.0105839
-0.0324652,-0.00784046
-0.00268289,-0.0155622
0.0190565,-0.00724996
-0.00424388,-0.00672622
-0.0601423,-0.00492552
-0.0697202,0.00161656
-0.036556,0.00847279
-0.00722367,0.00516349
0.000248818,-0.00304893
-0.0122662,-0.0122473
-0.051484,-0.01335
-0.0290761,-0.0111386
0.0695814,-0.00441765
0.121385,0.0270498
0.0798708,0.0216662
0.0148546,0.00418888
0.00331427,0.00326294
0.00847385,-0.00899214
0.00128283,-0.0200592
-0.00142325,-0.0107876
0.00711748,0.00602808
-0.00421097,-0.000434903
-0.0240068,0.00707121
-0.0283136,0.0100106
-0.0167518,0.00479229
0.0097566,-0.00494803
0.0259004,-0.00993528
0.0187203,-0.00589592
0.00877447,0.0039926
0.00124718,0.0106286
0.00112739,0.00745977
0.00807545,0.00851839
-0.0017528,0.0120971
-0.0273579,0.00775822
-0.0319637,-0.0133521
-0.0169978,-0.0197464
-0.00665993,-0.0157818
-0.00380267,-0.00547448
-0.00898399,0.00310455
-0.0159025,0.00620665
-0.0154819,0.00541478
-0.00297996,0.00406468
0.0135547,-0.00649693
0.0257506,-0.0133055
0.0278898,-0.00499377
0.0155939,0.010593
-0.00207702,0.0121449
-0.00388128,0.00896041
0.00361972,0.00697608
0.0088322,0.00850628
0.0010234,-0.00774904
0.0020827,-0.0115166
0.00952524,0.00188356
0.0142856,-0.00431817
0.0130785,-0.00460139
-0.010823,0.0101034
-0.0211315,0.0130006
-0.0134795,-0.00989269
0.000166511,-0.0111312
0.0119371,-0.0173913
0.00786629,0.0105064
-0.0220519,0.0152005
-0.0308595,0.00261211
-0.0522682,0.00608728
-0.11651,-0.00209662
-0.103191,-0.0236052
-0.0342921,-0.00326062
0.0443985,0.00468603
0.108417,-0.00206575
0.118451,-0.0170124
0.0805718,-0.0104213
0.0203999,-0.00026339
-0.0177758,-0.000553318
-0.0191754,0.0119219
-0.0129228,0.0110761
-0.0128506,0.00138354
-0.00137307,-0.0143533
0.0314698,-0.016264
0.06869,0.00614814
0.0386277,0.0114822
-0.00635635,0.00374713
-0.00951149,0.0204291
0.00706447,0.0217866
-0.00347418,0.0109293
-0.0196786,-0.0119939
-0.0166548,-0.0196979
-0.00988963,0.0035168
-0.00441264,0.00933252
-0.00498313,0.00859232
-0.0154984,0.00596037
-0.0252216,0.00335288
-0.0349533,-0.00116619
-0.0323391,-0.0150023
-0.0193047,-0.0242194
-0.0178138,-0.0145951
-0.03584,-0.00112521
-0.0322436,0.00561655
0.00438865,0.0102866
0.00520964,0.0171983
-0.0256386,0.0139664
-0.0263953,-0.00830791
0.0321495,-0.00143088
0.0653012,0.011975
0.051512,-0.0207392
0.0422486,-0.0301974
0.0419908,0.000368091
0.0215597,0.00737624
0.00452093,0.00172842
0.00828787,0.00888471
0.0246211,0.000300839
0.0487197,-0.00485709
0.0372089,-0.0011885
0.00910197,0.00771585
-0.00391686,0.00956053
-0.0148158,0.0160059
-0.024539,0.0198824
-0.0396681,0.008637
-0.0487319,-0.0172904
-0.0574884,-0.023846
-0.054779,-0.00652443
-0.046784,-0.00308094
-0.0429453,-0.00158552
-0.0295449,0.00527972
-0.00162831,0.00620131
0.0345532,0.00158322
0.0530978,-0.00327526
0.0469242,-0.013192
0.00731926,-0.0138079
0.00367976,-0.000752212
0.0361379,0.00119845
0.0571607,0.00180836
0.0517479,0.00746274
0.0143843,0.00701804
-0.00622072,-0.00429797
-0.0459799,-0.0152863
-0.120876,-0.0108108
-0.113393,-0.0056194
-0.0317268,-0.000447742
0.043761,0.00738034
0.0731368,0.00715472
0.072784,0.00266603
0.0505492,0.00426747
0.0245788,-0.00543396
-0.00202281,-0.0116785
-0.0143527,0.000587465
-0.0202618,0.00967732
-0.00966202,-0.00167776
0.00409778,-0.00215079
0.0185135,0.0274816
0.019015,0.0235272
0.0103844,-0.0125726
-0.00688149,-0.00361216
-0.0195567,0.0162154
-0.0115899,0.0121016
-0.00342025,-0.00247677
-0.00469409,0.0145368
-0.0150786,0.0179148
-0.0214584,0.0136327
-0.0295861,0.0108761
-0.035342,-0.00423477
-0.0236036,-0.0136689
-0.0120588,-0.0136033
-0.0173282,-0.015299
-0.00848782,-0.00905361
0.015519,3.68e-06
0.040282,-0.00359767
0.0293273,-0.00623127
0.0135396,-0.00862556
0.00793658,-0.0144664
0.0110173,-0.0113623
0.00964166,-0.00512538
0.00502583,0.00435071
-0.000334062,0.0118297
-0.00490983,0.00748275
-0.00843781,0.00595983
-0.00275525,0.000714849
0.00710112,-0.0118846
0.0073699,-0.0126549
0.00837167,-0.00100982
0.0145783,0.00355346
0.0103933,0.00222839
-0.00283382,0.00629503
-0.02199,0.00641253
-0.0398785,-0.00414491
-0.028412,-0.0133202
-0.00522565,-0.00709978
0.0139119,0.00513042
0.0158789,0.00746603
0.00334038,-0.00321424
-0.00923335,0.00854459
-0.00509384,0.0141947
-0.00541112,0.00277359
0.0198644,-0.0168575
0.0328037,-0.0247496
0.0196382,-0.00604322
0.0109371,0.014033
0.00158148,0.00702507
0.00361917,-0.00724658
-0.00482255,0.00441555
-0.0271562,0.0192019
-0.0382366,-0.00490062
-0.0247281,-0.0121334
3.4e-05,-0.0112315
0.0229554,-0.00458462
0.0197874,0.000762904
0.000286798,0.00370828
-0.0162341,0.0062048
-0.00740998,0.000558469
0.0153195,-0.00470081
0.0190083,-0.000545773
0.0242795,0.0032884
0.0202014,0.00640189
0.00755891,0.01272
-0.00129501,0.00828355
0.00520439,0.00536657
0.0108544,0.00992404
0.00858083,-0.00176401
0.0154296,-0.0126928
0.0266497,-0.00259834
0.0169547,-0.000845277
-0.00484748,-0.00542039
-0.0235015,0.00132203
-0.0966482,0.00817315
-0.162526,0.00516913
-0.133071,0.00213475
-0.0547372,-0.00252194
0.0380188,-0.0123263
0.114164,-0.0129831
0.112864,-0.00409517
0.062843,0.00682563
0.0422094,0.012243
0.0256546,0.0141008
0.00758845,0.0110638
-0.0035542,-0.00762169
-0.000926367,-0.0212586
0.013639,-0.0110276
0.0169975,-0.00924151
0.00487496,0.00133149
-0.00189193,0.00527799
-0.00666472,0.00469614
-0.00788806,0.00631332
-0.00841765,0.00541352
-0.0150114,-0.00583388
-0.0142942,-0.0137117
-0.0100684,-0.00357172
-0.0109329,0.00064337
-0.0031365,-0.00137626
-0.00193696,0.00463158
-0.0103425,0.0130829
-0.0169099,0.0122932
0.000733625,-0.00141076
0.00970485,-0.0123097
0.000857494,-0.00863242
-0.00539454,-0.00644591
0.00277324,-0.00248579
0.00441559,0.00526019
0.00250524,0.00590704
0.00180561,0.0031526
0.000340059,0.000427027
0.00159971,-0.00829713
-0.00365232,-0.0154403
-0.0123622,-0.00565752
-0.0150645,0.00513895
0.0053814,0.0070815
0.0199192,0.0119537
0.0132493,0.0158184
-0.0141563,0.00598516
-0.0312012,-0.0130823
-0.051269,-0.0146737
-0.0414894,-0.00376919
0.0173789,0.00442617
0.0731978,0.0131594
0.0720626,0.016331
0.0341032,0.0153556
-0.009872,0.00713445
-0.0386736,-0.00598614
-0.0304497,-0.0103663
-0.0209121,-0.0263847
-0.00256517,-0.0299194
0.0317293,-0.00162015
0.0193962,0.0285543
-0.0191398,0.0270797
-0.0161292,0.0122066
-0.0201335,0.00581347
-0.0489179,0.00831635
-0.0591995,-0.0129099
-0.0293213,-0.0258149
0.0264932,0.00411221
0.0659751,-0.00132239
0.0595151,-0.00666498
0.0446546,0.0128624
0.0315428,0.0165954
0.0149054,-0.00410556
0.00124427,-0.0224066
-0.013631,-0.0128826
-0.0173593,0.00533896
-0.00511149,0.00590875
-0.00498789,0.00437551
0.00492236,0.00726081
0.0154195,0.0083734
0.0215105,-0.00223584
0.0195727,-0.0116636
0.0100277,-0.00893624
0.0014101,-0.00625079
-0.00377293,0.00225363
-0.0127349,0.00663805
-0.0248018,0.00686923
-0.0856983,0.00274714
-0.121059,0.00341138
-0.119957,-0.00560182
-0.0622534,-0.0130241
0.0204245,-0.00207128
0.0803212,0.0090011
0.0947679,0.0170156
0.0890048,0.00302698
0.0860339,-0.0108097
0.0554214,0.00664832
0.0321494,-0.0074869
0.0312405,-0.0175545
0.00792117,-0.0104084
-0.0170958,-0.00246511
-0.0540266,0.00412231
-0.0852878,0.0043761
-0.0603312,0.00130994
-0.0260386,0.0170978
0.0128558,0.00525936
0.0359178,-0.0018562
0.0222136,0.00348037
0.00974456,0.00727581
-0.00357168,0.00315256
-0.00646545,-0.00175981
0.0073166,-0.00206037
0.0219133,-0.0126958
0.0196564,-0.0306909
0.0167008,-0.0237521
0.0211285,-0.0114617
0.0191841,-0.00350625
-0.00971319,0.00506449
-0.0371178,0.0124209
-0.0307782,0.0172815
-0.01093,0.0259711
-0.00633643,0.0168219
-0.0110355,-0.000274214
-0.015418,-0.00193878
-0.0181018,0.000512882
-0.0172694,-0.00463578
-0.0177799,-0.00224585
-0.0205271,-0.00287576
-0.0114824,-0.0053235
0.0173463,-0.00492261
0.0262726,-0.0185721
-0.00338491,-0.0304422
-0.00952683,-0.0176205
0.021856,0.00712983
0.0380469,0.0196207
0.0269515,0.0297801
0.00934735,0.0222612
0.00400997,0.0208816
0.00290715,0.0115223
-0.00185385,-0.00697074
-0.0168806,-0.00374705
-0.0122787,0.015568
-0.000964075,0.013981
-0.000522713,0.0105932
-0.0131489,-0.00708304
-0.0117128,-0.0224818
0.010258,-0.0292048
0.00758684,-0.0228615
-0.0259261,-0.0151825
-0.0283299,-0.00986074
-0.0124746,-0.00276864
0.00571176,0.0131473
0.0168905,0.0251708
0.0242705,0.00760729
0.0140002,0.0118749
0.0141507,0.0110625
0.0272184,-0.00534956
0.0177848,-0.0009187
0.0102475,0.000440013
0.00504566,-0.00349808
-0.00657117,-0.00326311
-0.0222691,-0.00494008
-0.0225873,-0.0118915
-0.0107103,-0.0189899
0.0142246,-0.0133569
0.0345884,-0.00256421
0.0308084,0.00455512
0.0106656,0.00960536
-0.0150645,0.00754262
-0.0282993,0.0121961
0.00984141,0.0179537
0.0260458,0.000114289
0.0049541,-0.00435498
-0.0115422,-0.00493698
-0.0251867,-0.00835184
-0.0358766,0.0126605
-0.0320637,0.0152936
-0.0237933,0.0196603
-0.0228195,-0.00740952
-0.02258,-0.0308898
-0.0241247,-0.036435
-0.0202699,-0.032278
0.00325215,-0.0229184
0.0380627,-0.00488288
0.0479405,0.00983853
0.0216438,0.0309183
0.0256752,0.0425288
0.0370064,-0.00155056
0.0340642,-0.0304699
0.0269967,-0.0201743
0.0059095,0.0013472
-0.0105024,0.0445624
-0.0062599,0.100232
-0.0025156,0.138085
-0.0365875,0.0780055
-0.0523262,-0.0134254
-0.0334598,-0.109195
-0.0435422,-0.167158
-0.0897527,-0.101548
-0.0999367,-0.0301869
-0.0613628,-0.00289298
-0.00839438,0.0164184
0.0521398,0.0248509
0.0876339,0.012668
0.0909092,0.00127725
0.0993346,-0.0104746
0.0737339,-0.0066241
0.024,0.00635925
0.0102498,-0.00713314
0.021339,-0.0125566
0.0171648,0.00275074
0.0109265,0.0205052
0.0351993,0.0126698
0.0247529,0.00349365
-0.0217529,0.00427131
-0.0346331,0.00825196
-0.0359342,0.0169679
-0.0666004,0.0195941
-0.0708547,0.0289467
-0.0505058,0.0354974
-0.0337398,0.0266297
-0.029346,0.00941707
-0.0228612,0.00158875
-0.00927617,-0.0289021
0.00807268,-0.0153353
0.026061,0.000916618
0.0303399,0.0130131
0.0295703,-0.00484745
0.0406794,-0.0163624
0.0462006,-0.0079908
0.0511739,-0.00889667
0.0453366,-0.00628607
0.0285002,-0.0021052
0.0119683,0.00627766
-0.0263727,0.0154981
-0.0568302,0.0227308
-0.05652,0.0132213
-0.0363705,-0.00638897
-0.0115661,-0.0330942
0.0018021,-0.0274076
-0.00514444,-0.0308856
-0.0144025,-0.0192965
-0.00662168,0.0148526
0.00864471,0.0105147
0.00780502,0.000853145
0.00711706,-0.000963057
0.0153473,-0.00238718
0.0108567,-0.00970526
0.00816435,-0.0187188
0.0143349,0.000469436
0.00980902,0.024605
-0.00833836,0.0310544
-0.0147672,0.0194827
0.00391071,0.00124211
0.0108158,-0.00354559
0.00770926,-0.0137788
-0.00275866,-0.014878
-0.00889302,0.00438243
-0.00642164,0.00927159
-0.00345531,-0.00580634
0.000307573,-0.00976642
-0.0017226,-0.00429583
0.0021479,-0.00297403
0.00342578,-0.0139039
0.00551377,-0.00835212
0.0132678,-0.00426185
0.00655712,0.00292348
-0.00779236,0.0138143
-0.0126896,0.0169602
-0.0110949,0.0136819
-0.00884438,0.00469807
0.00229492,-0.00614177
0.01492,-0.014147
0.0102286,-0.0122449
-0.00515706,0.000455613
-0.0203081,0.0050398
-0.0295713,-4.81e-06
-0.033704,0.00582114
-0.0162116,0.00888768
0.00981774,-0.0260798
0.0274175,-0.016307
0.0396287,0.00501907
0.035678,0.00566438
0.0228388,0.00876531
0.0114851,0.0198453
0.00662897,0.0226739
-0.00548083,0.0147773
-0.00574065,0.00573469
0.00967111,-0.0271158
0.00513364,-0.038088
-0.0067643,-0.00367056
-0.010991,0.0045687
-0.01155,0.0010429
-0.0150536,0.00146013
-0.015769,0.010831
-0.0116944,0.00893686
-0.0598229,0.000178159
-0.091532,-0.00153537
-0.0453519,-0.000411015
0.0175761,0.00589328
0.0503874,0.0106214
0.0662754,0.0109269
0.0567814,0.00679998
0.0274751,-0.00232124
0.00694037,-0.00238016
-0.00164359,-0.0120147
-0.00651752,-0.0191603
-0.0207562,-0.00858392
-0.0394894,-0.0137741
-0.0461849,-0.00635091
-0.0275104,0.00887541
0.00620678,0.0198555
0.0375615,0.00910757
0.0613417,-0.00347396
0.0706377,-0.00177984
0.0478193,-0.00405016
0.0113149,-0.00277168
-0.00639284,0.00670358
-0.0293582,0.0139023
-0.0362135,0.0098097
-0.0178066,0.00463009
-0.00714096,-0.00418943
-0.0144479,-0.0181015
-0.022861,-0.0168612
-0.0144846,-0.00302986
0.00200985,-0.000308906
0.00595306,-0.00324715
0.00171256,0.00320911
-0.00471353,0.0074144
0.00847877,-0.000972923
0.0316914,-0.010902
0.0293849,-0.00625437
0.0180407,-0.00264628
0.00055649,0.000212458
-0.0179325,0.0086103
-0.0258345,0.0128603
-0.0209306,0.0125886
-0.013549,0.0092902
-0.0129157,-0.00297095
-0.0111322,-0.0109027
-0.0125826,-0.00430282
-0.0133235,0.000346173
-0.000423531,-0.00486891
0.01197,-0.00309579
0.0240429,0.0136321
