Comp Ch 3,Comp Ch 4
0.0163849,0.0092656
0.0298167,0.0153791
0.0461898,0.00892804
0.0488263,0.00462923
0.031312,-0.00287874
0.0148797,0.00761328
0.0232492,0.0109489
0.0386322,0.00419369
0.0274685,-0.000189746
0.0126536,-0.0078713
0.0109484,-0.00905838
0.00645103,-0.00163779
-0.00423041,-0.0114235
-0.0153131,-0.0371374
-0.0302799,-0.0263613
-0.0448724,-0.00685321
-0.0552168,0.0117184
-0.0454817,0.0254092
-0.00908952,0.0201738
0.0256325,0.000487384
0.0316948,0.00733317
0.0264626,0.00653583
0.0185289,-0.0091429
0.00106765,-0.0156591
-0.0274643,-0.0189267
-0.0312,-0.0132237
-0.0296227,0.000190494
-0.0233256,0.00886996
-0.0139951,0.00883624
-0.0424079,-0.00910036
-0.0595075,-0.0138269
-0.0525473,-0.00765009
-0.03918,0.00224821
0.0272822,0.0135767
0.0852958,0.0274525
0.0666061,0.0268108
-0.00548507,0.0132888
-0.0776752,-0.0012234
-0.0524669,-0.0160519
-0.0075364,-0.0152726
0.0498732,0.0159518
0.0913379,0.0274345
0.112854,0.0168971
0.0807862,-0.00612448
0.0447906,-0.0158127
0.0144436,-0.0122649
0.000190057,-0.0152128
0.0131424,-0.00625239
0.0200235,0.00109191
-0.00630656,-0.00073514
-0.0263018,0.00424647
-0.0160439,0.0176755
-0.0296086,0.00563857
-0.055095,-0.00694077
-0.0455152,-0.00170181
-0.0363407,-0.0220214
-0.0402265,-0.0233751
-0.0353582,0.0180975
-0.0155859,1.59e-05
0.00471084,-0.0310378
0.0214041,0.012861
0.0177052,0.0229571
0.00505171,-0.00513721
-0.00623132,-0.0347475
-0.00494516,-0.0242341
0.00549815,0.00397721
0.00249415,0.012332
-0.0177519,0.00504629
-0.0171315,0.0170292
0.0124976,0.0357353
0.0237988,0.0163001
0.0367725,-0.0229195
0.0764291,-0.0368963
0.0943091,-0.00533993
0.0762617,-0.0264476
0.0270049,-0.0278797
-0.0260042,0.0557778
-0.0346088,0.0731002
-0.0228683,0.0279082
-0.0363403,-0.0144211
-0.0540787,-0.0342879
-0.0628817,-0.0250402
-0.0418247,-0.00139971
-0.0262402,-0.0139203
-0.0273034,0.00499437
-0.0393199,0.0389179
-0.040714,0.0285355
-0.0418606,-0.00462402
-0.0595202,-0.0400367
-0.0870787,-0.0428729
-0.0834552,-0.00575727
-0.057962,0.0130793
-0.0278513,0.00220338
-0.0106256,-0.011753
0.00934029,-0.00428036
0.0813503,-0.00704598
0.14347,-0.0532963
0.205531,-0.0577962
0.310618,-0.0026806
0.281383,0.0326219
0.168291,0.0724791
0.030715,0.0655334
-0.100733,0.0228955
-0.145874,0.0304317
-0.164423,0.0178227
-0.13841,-0.00968525
-0.0963754,-0.00975363
-0.0570753,0.00736719
-0.0325409,0.0107963
-0.0110898,0.0133368
0.00268932,0.0138312
0.00901601,0.0090806
0.0135378,-0.00940734
-0.00108383,-0.0212398
-0.0145848,-0.0116361
-0.0283397,-0.0177162
-0.0451829,-0.0237455
-0.0345956,-0.00882356
-0.0123367,0.00260581
0.000948208,0.00271634
0.0118007,0.000529425
0.0213652,-0.0121704
0.0270855,-0.0180049
0.026492,-0.00306232
0.0251043,0.014839
0.022818,0.0151348
0.020398,0.0156455
0.0115458,0.0156543
-0.000759774,0.00334846
-0.00852441,-0.0169581
-0.013606,-0.0215611
-0.0141153,-0.018075
-0.0131119,-0.0213762
-0.0146832,-0.0145259
-0.0135218,-0.000660997
-0.00457754,0.0059189
0.00498746,0.00498601
0.0115795,-0.00493593
0.0203636,-0.0164138
0.027813,-0.0133271
0.0238862,0.00611957
0.0204149,0.0198384
0.0206942,0.0219646
0.0119447,0.0226379
0.000177958,0.0216608
-0.010307,0.00831184
-0.0142485,-0.00466093
-0.0176638,-0.00456754
-0.0187191,-0.0195968
-0.0182633,-0.0193593
-0.0170615,-0.00599631
-0.0135303,0.00244708
-0.00777808,0.000933754
0.00116319,0.00288886
0.00900552,-0.00248935
0.0133626,-0.0170702
0.0103903,-0.01338
0.00187716,0.00630009
0.000975394,0.0129988
0.00819746,0.00600862
0.0129107,0.0264846
0.00530369,0.00695
-0.00170642,-0.0224168
-0.00407376,-0.00881977
-0.00300396,0.00755003
-0.00612504,-0.00454662
-0.0153016,-0.0106339
-0.0172846,0.00162175
-0.0184509,0.00365355
-0.0125742,0.00518459
0.0100116,0.0254271
0.0229494,-0.00142029
0.0202264,-0.044215
0.0234963,-0.0111144
0.02229,0.0119677
0.0103181,0.00720664
0.00856814,0.0263869
0.00272835,0.0250606
-0.0217693,0.00232727
-0.0527304,-0.00793498
-0.0681955,-0.013153
-0.0568475,-0.0130108
-0.035219,-0.0160517
-0.00993442,-0.00653567
0.022069,0.0100851
0.0429315,0.0121709
0.0620714,0.00588307
0.0503046,0.00743767
0.0254249,-0.00767131
0.0151644,-0.0136428
0.00654678,0.00666915
-0.00304358,0.0124061
0.00480702,0.0133151
0.00503486,0.021346
-0.00756142,0.0173323
-0.0174246,-0.0036066
-0.0386183,-0.0253383
-0.04116,-0.0250777
-0.0265601,-0.0214299
-0.0214451,-0.0203846
-0.0132515,-0.00926782
-0.00484064,-0.00338436
-0.00312407,0.00360994
0.0175506,0.0082644
0.0242924,0.000545752
0.0152351,-0.0097634
0.0509565,-3.53e-05
0.0580001,0.0204918
0.0178304,0.0212241
-0.0435024,0.018593
-0.0589189,0.023913
0.00155313,0.0219802
0.0492554,0.00365064
0.0828272,-0.0198097
0.0885603,-0.0202033
0.0579679,-0.014489
0.00865987,-0.00711244
-0.0436134,-0.00116241
-0.0684556,0.00482452
-0.0554357,-0.00180249
-0.0347779,-0.00640346
-0.0305285,-0.0228546
-0.0311364,-0.0307346
-0.0306015,-0.00428803
-0.0152227,0.0189393
0.0159246,0.0173476
0.0195736,0.0205943
0.00417382,0.0246591
-0.00977981,0.0133454
-0.00956363,-0.00820964
-0.001473,-0.0143403
-0.0124332,-0.00500155
-0.0411727,-0.00400311
-0.0429205,0.00297947
-0.0177346,0.0162371
0.0196468,0.0131672
0.0395186,-0.00482843
0.0429119,-0.00596797
0.0361422,-0.0116434
0.0226967,-0.014544
0.014741,-0.00359792
0.00806858,0.0051624
0.00590641,0.00165132
0.00654143,-0.000431487
0.00539074,0.0237084
-0.00461405,0.0257002
-0.0112783,-0.00149858
-0.00225738,-0.0172359
0.00560524,-0.0162212
0.00507713,-0.0168481
-0.00351834,-0.0058363
-0.0118727,0.00483465
-0.0182839,-0.000973818
-0.0187456,-0.00445066
-0.0129528,-0.00982778
-0.00442368,-0.0226637
0.00063766,-0.0250323
-0.00764835,-0.000386538
-0.0139973,0.0147078
-0.00977089,0.0200875
-0.00532621,0.0233712
-0.0113284,0.0177018
-0.00909502,0.002671
0.0127231,-0.0284245
0.0191559,-0.0338749
0.0219298,-0.00079775
0.0219612,0.0157779
0.0173322,0.0140522
0.00750598,0.0123806
-0.0077221,0.00692528
-0.00435039,0.00708169
0.00118246,-0.00528331
-0.00916637,-0.0164712
-0.0102061,-0.00771474
0.0033693,0.00411547
0.0122959,0.00571935
0.0179986,0.0124617
0.0159773,0.0167016
0.00995965,0.0123828
0.00790206,-9.62e-06
-0.006156,-0.0118166
-0.0269586,-0.0100962
-0.0313698,-0.0176681
-0.0206347,-0.00839969
-0.00176365,0.0304254
0.00143686,0.0187081
-0.00182232,0.000288703
-0.00167931,0.0134335
0.00161451,-0.000330796
0.00632063,-0.0180691
0.00437463,-0.0123134
-0.00869594,-0.00666968
-0.011202,-0.00183352
0.00280737,0.0171985
0.0302702,0.0293625
0.0482289,0.0116983
0.0483087,-0.0180111
0.0382301,-0.0182814
0.019203,-0.0102481
-0.00066544,-0.00852671
-0.0182794,-0.00219872
-0.0206448,0.00689818
-0.0113406,0.00759412
-0.0106737,0.00636684
-0.0116479,-0.000742798
-0.0118974,-0.0153534
-0.0213508,-0.0146911
-0.0434405,0.00142696
-0.0472328,0.0109019
-0.0298693,0.0135766
-0.0145913,0.00487801
-0.0165856,-0.0163954
-0.0155748,-0.00918606
0.00519779,-0.0124355
0.0177259,-0.0100684
0.0196915,-0.00103501
0.0248817,-0.00194883
0.0120997,-0.000772075
0.00125349,0.00537004
0.0254092,-0.000434463
0.0357852,-0.000491638
0.033012,-0.0111049
0.020581,-0.0204509
0.00193978,-0.00742773
-0.0110992,0.0110961
-0.016078,0.0145878
0.00625679,0.0190724
0.0223093,0.0311727
0.0169544,0.0142053
-0.0115592,-0.0168316
-0.0376821,-0.0225967
-0.0360405,-0.0111911
-0.0298809,-0.00745947
-0.0199687,-0.0015561
-0.00940071,0.00911591
-0.00701193,0.0163761
-0.0164261,0.00918782
-0.0175578,-0.00258675
-0.00921527,-0.0135034
-0.00731595,-0.0144722
-0.00958714,-0.00248876
-0.00195948,0.0114909
0.0128214,0.0272403
0.0240923,0.0258506
0.056054,0.0217277
0.0864749,0.0102731
0.0640532,-0.0136605
0.0191565,-0.0205627
-0.0164595,-0.0163218
-0.0427557,-0.0149052
-0.0496678,-0.00531037
-0.047104,0.00335116
-0.0421952,0.0026331
-0.0198327,0.0049816
-0.00144091,-0.0100558
-0.0246016,-0.0260216
-0.0353046,-0.0136863
0.000627736,0.0154983
0.0808768,0.0198412
0.125288,0.00288756
0.106305,-0.00739208
0.0673174,0.0225489
-0.00249244,0.02186
-0.0762363,-0.00712462
-0.0926666,-0.0135347
-0.0673736,-0.0139266
-0.0387833,-0.00770943
-0.00672325,0.00221512
0.0204278,0.00650642
0.0259637,0.00267713
0.0244888,0.00699976
0.043952,-0.00555668
0.0243721,-0.0215454
-0.0205369,-0.00791564
-0.0519305,0.00520198
-0.0697659,-0.00695495
-0.0683523,0.0098385
-0.038387,0.0360891
-0.0217744,0.0132832
-0.000217049,-0.0063986
0.0549748,-0.0106434
0.0883287,-0.00688129
0.0803203,-0.00770141
0.0478883,0.00356677
0.0150858,0.00832839
-0.00327304,-0.0116346
-0.00643871,2.41e-05
-0.0266204,0.00563907
-0.0445564,-0.0254128
-0.0316547,-0.0261271
-0.0221443,0.0100271
-0.0194754,0.0283223
-0.0137152,0.0161458
-0.0104396,0.0162448
-0.00894697,0.029555
-0.00428786,0.00999002
0.00378904,-0.0173387
0.00703094,-0.0258474
0.00643649,-0.0164795
0.00622114,-0.0111083
0.00648517,0.00239476
0.00430783,-0.000273181
0.00431484,-0.023683
0.00746441,0.0113966
0.00983414,0.0179314
0.0114981,-0.0134861
0.00497538,-0.01621
-0.00272022,0.00107647
-0.00581205,0.0107363
-0.00827271,0.0148903
-0.00463817,0.0241588
0.0240412,0.0252313
0.0521287,-0.0119557
0.0517254,-0.0348233
0.0339935,-0.017097
0.0142881,-0.0160175
-0.00171895,-0.0220604
0.02715,0.00789452
0.0311347,0.0106152
-0.0227681,-0.00181505
-0.0377852,0.00876606
-0.0321321,-0.0045357
-0.0501492,0.000399415
-0.0643363,0.0072352
-0.0462093,0.0173116
-0.0402365,0.0172353
-0.0364573,0.0175693
-0.0119011,0.0190251
0.0413228,0.0137108
0.0584914,-0.00762802
0.043104,-0.027603
0.00980347,-0.0162281
0.00219877,-0.0189587
0.023036,-0.0118083
0.0297496,0.0130642
0.0393591,-0.00182881
0.0336275,0.00139102
-0.00158434,0.0184235
-0.0328629,-0.00530488
-0.0368392,-0.0192266
-0.0487141,0.00213563
-0.0731188,0.0149247
-0.0684367,0.0106084
-0.0267579,0.0117661
0.0302746,0.0204315
0.0603174,0.0158255
0.0476747,-0.00584878
0.0169719,-0.0219286
-0.0152626,-0.0410659
-0.0291197,-0.0148519
-0.0571835,-0.00120796
-0.0720691,0.0138597
-0.02795,0.0163569
0.0249685,0.0129776
0.0623365,0.00651011
0.0681863,-0.0182023
0.0659105,-0.0175847
0.0433298,-0.00123881
0.0190715,0.00229352
-0.00553871,0.00659789
-0.0356497,0.012982
-0.0307678,0.00136305
-0.0194591,-0.00634101
-0.00691586,-0.00836158
0.000428466,-0.0136121
0.00242037,-0.0108769
-0.00743922,-0.0144125
-0.0247491,0.00410169
-0.0426417,-0.00569168
-0.0133459,-0.0117354
0.0184397,0.0103974
0.0256018,0.00875215
0.0608368,0.00366255
0.061542,-0.0285828
0.0317951,-0.00887045
-0.00593255,0.0318113
-0.042449,0.0263982
-0.0579968,0.0272172
-0.0494046,0.0210763
0.000203389,0.000432611
0.0342516,-0.0121488
0.0307453,-0.00745887
0.0136059,-0.0118747
-0.0271504,-0.0161805
-0.0398094,0.0216406
-0.0259184,0.0379937
-0.0026508,0.0077055
0.0170273,-0.00833191
0.0271939,-0.0107775
0.0248996,-0.0098002
0.0146486,-0.014099
0.00522914,-0.00138657
-0.0130313,-0.00361845
-0.0324979,0.00254849
-0.0373628,0.012629
-0.0204167,0.0128088
0.00477443,-0.00895601
0.0032538,-0.0255433
-0.0122859,-0.0217173
0.0109692,-0.00743568
0.0496962,0.00383714
0.0649148,0.00235384
0.0660088,0.0155374
0.0643326,0.0155705
0.0814751,0.000656986
0.0545233,-0.012171
-0.0117813,-0.0186247
-0.0604304,0.000987818
-0.034969,0.0077212
0.0244056,0.00706502
0.0107254,0.0249039
-0.0494434,0.0332568
-0.0923221,0.00831973
-0.0917768,-0.0156377
-0.0930665,-0.030191
-0.0887573,-0.026535
-0.0473903,-0.00524438
-0.0164488,-0.00441921
0.0209015,0.0204071
0.04704,-0.0119214
0.0420987,-0.00119118
0.0195734,0.0191245
0.00840947,-0.0119852
0.00524959,0.000892835
-0.00379609,0.0229242
0.00281851,0.0213447
0.000300113,0.00798697
0.0120073,-0.0140707
0.0209468,-0.0279466
0.0562929,-0.0130798
0.0749185,-0.00720155
0.008481,-0.000546264
-0.00491538,0.00131142
0.0303551,0.00568002
0.0333248,0.0153768
-0.00272151,0.00421647
-0.0229787,-0.0074028
0.00799336,0.00299172
0.00718926,-0.00897939
-0.0381522,-0.0215328
-0.067278,-0.00366749
-0.0748669,0.0130478
-0.0352592,-0.0103767
0.0101492,-0.0253684
0.0711452,-0.0262284
0.109277,0.00562211
0.133765,0.0118308
0.127681,-0.00721922
0.0526318,0.015373
-0.0578304,0.0391472
-0.174059,0.0646611
-0.204022,0.0319705
-0.146925,-0.0202325
-0.077632,-0.0399008
-0.0233829,-0.0194477
-0.00118516,-0.0136957
0.00957634,-0.0346456
0.0167369,-0.00408906
0.0163923,0.0170246
0.015625,0.00627954
0.0147111,0.0120326
0.0184246,0.0164675
0.0351775,0.00428562
0.045327,-0.00866046
0.047376,-0.00700347
0.0399473,-0.008037
0.0286253,0.00159372
0.0406008,0.0152906
0.0471158,0.0137336
0.0356498,0.0236163
0.0024193,-0.0016469
-0.0114224,0.0121668
0.0258364,-0.00506706
0.0179619,-0.00234123
-0.02009,0.00954754
-0.0507288,-0.0123579
-0.0619339,-0.0164855
-0.0697909,-0.022488
-0.0669391,-0.0163962
-0.0397137,-0.0256396
-0.0112304,-0.00999133
0.00608427,0.0110842
0.0146886,0.0322281
0.0168812,0.026668
0.0327244,0.0226261
0.068105,0.0119734
0.0688768,-0.00593609
0.0299481,-0.0131251
0.011567,-0.0227074
0.0174474,-0.0220312
0.00257172,-0.0106714
-0.0414414,0.00438643
-0.0471945,-0.012793
-0.0357532,-0.00648681
-0.0311264,0.0179044
-0.009781,0.00393362
0.0158069,0.00165193
0.0209855,0.016255
0.0137945,0.0120003
0.00169376,0.00244701
0.0170175,-0.0208834
0.0664975,-0.00957816
0.0935009,0.0194516
0.0716587,0.0277344
0.027144,0.0371825
-0.0230836,0.00859022
-0.0716692,-0.0191176
-0.120779,-0.0295618
-0.110027,-0.0363729
-0.0789644,-0.0379979
-0.0494661,-0.00610079
-0.016257,0.00839774
0.0301787,0.0133681
0.0583259,-0.00784231
0.043999,0.00240546
0.0114386,0.0176355
-0.026041,-0.00230858
-0.0157686,0.0030931
0.0212806,0.0146712
0.0726863,0.0278494
0.0700741,0.0171672
0.0358177,-0.00844215
0.0246755,-0.029727
0.0406687,-0.0395208
0.0135902,0.00104957
-0.0384178,0.00568686
-0.0901994,-0.00400882
-0.120318,-0.00166119
-0.0713016,0.0085183
-0.0229853,0.00379667
-0.00559408,-0.0220728
0.00999909,-0.0101723
0.0374385,0.00784974
0.0443915,0.0145248
0.0165466,0.0293302
-0.0322292,0.024311
-0.0384784,0.00706541
0.0128288,0.000659683
0.0612632,-0.0130777
0.0761397,-0.0258531
0.0617267,-0.013914
0.0401767,-0.00662413
0.0155637,-1.2e-05
-0.00550814,0.0240104
-0.0187283,0.0161367
-0.0377579,-0.00789843
-0.0525771,-0.0164394
-0.0309538,-0.004741
-0.0200576,-0.0231764
-0.0240771,0.0130428
-0.0326688,0.0299577
-0.0314876,0.0345872
-0.0263851,0.0167193
-0.0123261,-0.00784679
0.0113553,-0.0160092
0.0304166,-0.0489362
0.0342842,-0.0373549
0.0321995,-0.000768648
0.0310333,0.00926043
0.0296533,-0.000735807
0.0300413,0.0147029
0.0217463,0.027948
0.0103097,0.0132502
0.000543179,0.00548781
-0.00880725,0.0577552
-0.00694324,0.075145
0.0012335,0.0353081
-0.0131295,-0.0532776
-0.0295743,-0.0801035
-0.0341544,-0.0325684
-0.0115236,-0.0155062
0.000592634,-0.0111892
0.0046079,-0.0183186
-0.00128754,-0.0145323
-0.0020108,0.00382105
0.00195993,-0.00295392
0.00588848,-0.00519211
0.00912275,0.00820304
0.00564609,0.0113829
-0.000115678,0.00377678
-0.0106175,-0.00161961
-0.0152452,-0.00925546
0.00613669,0.0146735
0.0230947,0.0189781
0.0091846,0.0227579
-0.013769,0.0179122
-0.0267519,0.00703373
-0.0319822,-0.00220857
-0.0270654,-0.0156781
-0.0161236,-0.0220914
-0.00190874,-0.014551
0.0341298,-0.00606498
0.067596,-0.00638691
0.0781113,0.00868026
0.0457354,0.00579065
-0.00715348,-0.00423357
-0.027118,-0.0120691
-0.0330506,-0.0110478
-0.0521281,-0.00362238
-0.0584447,-0.0389973
-0.0316963,0.00105752
0.01217,0.0215672
0.119892,0.0361843
0.18452,0.0352924
0.153831,0.026833
0.0705882,0.016678
-0.039273,0.00129509
-0.131241,-0.0305914
-0.163803,-0.0389276
-0.146867,-0.025601
-0.0997812,0.00544596
-0.0631742,0.0140675
-0.035897,-0.00532356
-0.0229691,-0.0239263
-0.00700175,-0.00241609
0.00821631,0.0158603
0.0153361,0.0122063
0.0322697,0.0181864
0.028701,0.0214847
0.0121438,0.0118595
0.000134793,0.00607726
-0.00632445,-0.0100776
0.010157,-0.025617
0.0326445,-0.0182153
0.035417,-0.00068119
0.0389903,-0.00200574
0.0427271,-0.0169112
0.0464865,0.00857754
0.041055,0.0175527
0.0224796,0.00665513
0.0025099,0.0181503
-0.0164708,0.00630732
-0.0198487,-0.0235996
-0.0118081,-0.0109169
-0.0104693,0.0253044
-0.0175004,0.0222357
-0.0714155,0.024405
-0.0698847,0.00418803
-0.0456358,-0.0163725
-0.00677852,-0.00963959
0.0285721,0.00410598
0.0461412,-0.0049329
0.0624478,-0.0139257
0.0664177,-0.0110305
0.0474626,-0.0162039
0.0400691,-0.0306128
0.0263581,-0.0256813
0.00666811,-0.0113277
-0.0143128,-0.00681944
-0.0295504,0.00441744
-0.0309952,0.019825
-0.0276557,0.0357309
-0.0278231,0.0438937
-0.0247763,0.0196508
-0.0155323,-0.00448358
-0.00504331,-0.0138821
-0.00131838,0.00286988
-0.000761343,0.0204862
0.00593763,0.0182434
0.0132316,0.00798406
0.0131917,-0.0227366
0.0106829,-0.038814
0.00523844,-0.0252267
-0.0093085,-0.0180605
-0.00977981,-0.0157314
-0.00746403,-0.00181679
-0.0107404,-0.000586933
-0.0212241,0.0139144
-0.0220557,0.0285745
-0.0140845,0.0312859
-0.00245446,0.0154796
0.00504969,-0.00866414
0.00573115,-0.0134855
0.00604212,0.00326784
0.0103465,0.00174397
0.0115959,-0.0119556
0.0126559,-0.0117312
0.01649,-0.0123397
0.0141049,-0.0278675
0.00859665,-0.0427614
-0.00116072,-0.0415098
-0.00491859,-0.0229832
0.00586618,0.0151825
0.012832,0.075413
0.0067946,0.0706693
0.000974114,0.0352991
-0.00520855,0.0024923
-0.00660823,-0.0298171
-0.002593,-0.0156516
-0.00952475,-0.004558
-0.0251915,0.00126141
-0.0185244,0.00420029
-0.030543,-0.00626364
-0.0763653,-0.00503723
-0.0682889,-0.0040039
-0.0232949,-0.0178131
0.0253964,-0.0288963
0.0617245,-0.0143974
0.0858254,0.00123611
0.0837559,0.0113088
0.0350383,0.0172548
-0.00757293,0.0218186
-0.0132986,0.0264482
-0.00805583,0.0159245
-0.00545614,-0.000219879
0.00474895,-0.0144035
0.0191989,-0.00602509
0.0168972,0.00607056
0.00688719,-0.00403165
0.00581602,0.00255869
0.0036866,0.00346811
-0.00328268,0.000688494
-0.00483336,-0.0247907
-0.00953874,-0.0240233
-0.0273234,-0.0100235
-0.0461129,-0.00635928
-0.057417,0.00618372
-0.0561112,0.0171832
-0.0503548,0.0242474
-0.0327295,0.0296274
0.00337917,0.0159693
0.0521884,0.00071977
0.0648012,-0.0150677
0.0438961,-0.00615577
0.0220637,0.00269873
0.0134886,0.00318805
0.00357097,-0.00800154
0.0111321,-0.00278982
0.0221955,-0.0134091
0.0138951,-0.0176529
0.00172235,-0.00449371
-0.000246401,-0.00544686
-0.00322031,-0.00429656
-0.00751084,0.00915515
-0.00923808,0.0332489
-0.0108916,0.0245468
-0.014965,0.00147545
-0.0104863,-0.00703703
-0.00506709,-0.016603
-0.00900245,-0.0101677
-0.00901203,0.00508328
-0.0160882,0.000392889
-0.0164247,-0.0122424
3.42e-06,-0.00288499
0.0171656,0.00460004
0.0244148,-0.00438179
0.0265203,-0.00717811
0.00369355,-0.0115027
0.00236284,-0.00462905
0.00553919,0.00420254
0.000319932,0.005999
-0.00547396,0.00757611
-0.0134076,0.00941587
-0.0183079,0.00602261
-0.0103618,-0.000520912
-0.00666971,-0.00968358
-0.000407255,-0.00366569
0.014468,0.0062576
0.0153952,-0.00998985
0.0133177,0.001251
0.00841325,0.00826894
0.00772499,-0.0127329
0.0170201,-0.0223986
0.0104043,-0.021892
-0.00375022,-0.0159149
-0.0101714,-0.00702147
-0.018716,0.00486307
-0.034759,0.00638053
-0.0429196,0.00185425
-0.0239055,0.0270304
-1.54e-05,0.0268636
0.00861816,0.0104546
0.025505,0.0154768
0.0308412,0.0173435
0.0200491,0.0104922
-0.00104869,0.0236383
-0.0226254,0.0227063
-0.0193885,0.0043631
0.00194147,-0.0192955
0.0235111,-0.0270179
0.0322256,-0.00997755
0.0160436,-0.00434857
0.00113153,0.0064126
-0.0221217,0.00572263
-0.0328551,0.0109271
-0.0302107,0.012571
-0.0213816,0.000743373
-0.00429635,-0.0146566
0.0214044,-0.0205245
0.0176599,-0.00150239
0.00447304,0.00499021
0.00169505,-0.00938096
0.00288989,-0.00237288
0.00271135,-0.0145885
-0.00854192,-0.0213138
-0.0183681,-0.0111295
-0.0252697,-0.0129961
-0.0244499,-0.00126095
0.00117307,0.00263831
0.0151212,-0.000229653
0.014443,0.00454308
0.030489,-0.00266064
0.0268538,0.00292549
0.0249817,-0.00184814
0.0442162,-0.0196348
-0.000870171,-0.00375569
-0.0534274,0.00956772
-0.0409115,0.0164557
0.00666264,0.00627781
0.0144213,0.000822348
0.0174425,0.0100092
0.0114493,0.00123332
0.00317466,-0.0165612
-0.00652188,-0.00734804
-0.00691488,0.00506825
0.00395552,0.00347808
0.0071463,0.0081552
0.000409123,0.0224605
-0.0153525,0.00586941
-0.0437137,-0.0193192
-0.0392974,-0.0018076
-0.0190285,-0.00517957
0.00979338,0.00792215
0.0714804,-0.00315524
0.115655,-0.0273307
0.103773,-0.0170018
0.0481527,0.025414
0.00540214,0.0262294
-0.0295794,0.00843577
-0.0584328,0.00844416
-0.0671514,0.0192818
-0.0623043,-0.0123982
-0.0397938,-0.0247588
-0.0190515,-0.0137521
-0.013491,0.0098498
-0.0231727,0.0190556
-0.03384,0.012809
-0.0343175,-0.0116788
-0.0132429,-0.0217768
0.00487671,0.0106087
0.00654991,0.0125704
0.00383912,-0.0118191
0.00236005,-0.0184548
-0.00710918,-0.00733528
-0.0209111,0.00411828
0.0169032,-5.31e-05
0.0259484,-0.0128838
0.0133575,0.00309986
0.0567437,0.0190781
0.0861859,0.0247061
0.0847174,0.011506
0.0651582,0.0107998
0.0345271,0.00944883
-0.00460105,0.0105939
-0.0228398,-0.00522883
-0.0435635,-0.0230816
-0.0601586,-0.0181221
-0.0671443,-9.27e-05
-0.0652035,0.00432016
-0.0365971,0.0211202
-0.0161166,0.00636705
-0.000751887,-0.0127619
0.0120293,-0.0233844
0.0214838,-0.0092614
0.0161087,-0.0368919
0.0124624,-0.0264108
0.0113033,0.0497207
-0.000814981,0.0863535
-0.0193078,0.0366875
-0.0293883,-0.0250552
-0.0186672,-0.0324129
-0.0127028,-0.0213138
-0.00444157,-0.028385
0.00573189,-0.0077219
0.00892363,-0.0185499
0.0184755,-0.0174602
0.0252036,0.00757247
0.0411674,0.0149937
0.0325117,-0.00854816
-0.00594166,-0.000885601
-0.0239111,0.0065981
-0.0156286,0.0114057
0.000739236,0.0067415
0.0195566,0.00975652
0.0143724,0.00282374
-0.01061,-0.000256966
-0.0126749,0.0317542
0.0107997,0.0165664
0.00647949,-0.0388703
-0.00559541,-0.0572002
-0.0143529,-0.0350107
-0.01886,-0.0137995
-0.0271426,0.00898223
-0.0286043,0.0104417
-0.0173865,0.00335599
0.0174231,0.0109063
0.0242338,-0.00538128
0.0102222,-0.000641191
0.00487767,0.00801361
0.0126798,0.0258754
0.0198859,0.0196107
0.0191655,0.014564
0.0342406,0.00912415
0.0440916,-0.0013501
0.0129388,-0.0105341
-0.0160152,-0.0052914
-0.0113351,0.00819379
0.0101444,0.0113981
-0.00582681,0.00865405
-0.0342667,0.0115637
-0.0223836,-0.00353505
0.00302457,-0.015115
0.0145093,-0.00130836
0.00676156,0.0104209
-0.00956489,0.0528223
-0.0225528,0.0768852
-0.0369896,0.0159771
-0.0197473,-0.0460887
0.00270238,-0.0637669
0.00713897,-0.0403471
0.00938151,-0.0302921
0.0194423,-0.0252282
0.0117069,-0.00836217
-0.00315249,0.0112301
0.00416276,-0.000259764
0.0338066,-0.0193623
-0.009236,-0.0067384
-0.0484144,0.0184475
-0.0353458,-0.00488587
-0.0430014,-0.0317572
-0.0261631,0.0126758
0.0325555,0.0290607
0.0272682,0.0203401
-0.024989,-0.00359434
-0.0291467,0.00454716
0.0129145,0.00291999
0.047379,-0.0119778
0.070547,-0.0157422
0.0800439,0.00362984
0.0435876,0.0155995
0.00863727,0.02931
-0.00670218,0.0178603
0.00250498,0.0159075
0.0237414,0.0330726
0.0435062,0.0393518
0.08333,-0.0183318
0.0520824,-0.0685829
-0.0118675,-0.0667721
-0.0362651,-0.039422
-0.104545,-0.0123652
-0.375439,0.0253553
-0.451375,0.0389366
-0.286956,0.029982
-0.0660946,0.0709675
0.128661,0.0732785
0.230186,-0.0801496
0.240823,-0.0924756
0.196155,-0.0311169
0.13492,-0.0336839
0.0977996,0.0236241
0.0847263,0.0593724
0.0543971,0.00930349
0.0162745,-0.00721003
0.015828,-0.0147718
0.01072,-0.0189447
-0.0982067,-0.015666
-0.241113,0.0164991
-0.174562,0.0161638
0.0109264,0.0407196
0.112511,0.0164119
0.166886,0.00543641
0.184041,0.0196475
0.124945,-0.012274
0.0319572,-0.024073
-0.0744995,-0.0224735
-0.0962514,-0.0390266
-0.0753187,-0.011187
-0.0532489,0.0278668
-0.00913933,0.0526649
0.0190932,0.043515
0.0192393,0.0399406
-0.0152515,-0.0179858
-0.0701109,-0.0296065
-0.094988,-0.00216828
-0.0459528,-0.020025
-0.0918873,0.00415948
-0.0803681,0.0155767
-0.0335205,-0.0495024
0.0177201,-0.065327
0.10191,-0.0353318
0.150043,-0.00186954
0.124297,-0.0089124
0.056161,-0.00712448
0.0190813,0.0110475
0.0144936,0.0242404
0.033897,0.000550091
0.0291453,0.00533402
-0.00233878,0.0105993
0.00607944,0.00723031
0.0153013,0.0120457
0.0139354,0.00799271
0.0207492,0.00533787
0.0363234,-0.0104457
0.0154693,0.0267869
-0.00170799,0.0431178
-0.0149166,0.0101157
-0.0478374,0.0090701
-0.0891777,0.00438023
-0.114931,-0.0283734
-0.0993819,-0.0515211
-0.0824428,-0.0105635
-0.0715388,0.0161184
-0.0124304,0.0241472
0.0489668,-0.0376874
0.0605614,-0.0175997
0.0181052,0.0217002
0.0137426,0.0241515
0.046766,0.00758444
0.0765657,0.00266643
0.0839826,0.0085677
0.0591034,0.00140564
0.0168562,-0.0190442
-0.0280898,-0.0334673
-0.0647321,-0.0107019
-0.0815378,0.0155233
-0.0905437,-0.00689264
-0.0857768,-0.0141227
-0.0246387,0.0166507
0.0478152,-0.0037994
0.0977783,-0.0125098
0.120327,0.0079509
0.0824821,0.0048052
0.0283907,-0.00533409
-0.017312,-0.00851872
-0.0375781,-0.006805
-0.0403751,0.0270813
-0.0523361,0.0297077
-0.0695512,0.00608549
-0.0604647,-0.0141577
-0.0404798,-0.012214
-0.0301326,0.00617581
-0.0261595,0.01325
-0.0245322,0.00633937
-0.0276472,0.00296403
-0.0248568,0.00242686
-0.0153808,-0.0021684
0.00759653,-0.00603415
0.0358732,-0.00525426
0.0695481,-0.0174452
0.0913776,-0.0157471
0.120894,0.0124096
0.108976,0.0239784
0.0234778,0.0138869
-0.0386166,-0.00209884
-0.0602237,-0.018439
-0.0584478,-0.0210446
-0.0419999,-0.00579347
-0.0368611,-0.00956408
-0.0246202,0.0024181
-0.0144751,-0.00429691
0.0146266,0.0270169
0.00422307,0.0726648
-0.0229668,0.0150079
-0.0567471,-0.0167052
-0.0609213,-0.000175362
-0.0037577,0.0066691
0.0243179,-0.0108738
0.0713779,-0.00482853
0.0760661,0.0069389
-0.0625628,-0.0200449
-0.086724,-0.0230774
-0.0415932,0.00593901
0.048371,-0.00641841
0.150728,-0.0140147
0.167697,0.0120813
0.0933844,0.0200999
0.0237264,0.00438185
0.014098,-0.00717047
-0.00587891,-0.0174597
-0.0350163,-0.024806
-0.0402841,-0.0264516
-0.0408754,-0.010055
-0.0951205,-0.0268734
-0.124407,0.00853101
-0.0549573,0.0340844
0.0384999,0.0204913
0.0967095,-0.00530449
0.132445,0.00503056
0.0917713,-0.0280833
0.015861,-0.000249123
-0.0747075,-0.0170089
-0.104082,-0.00716995
-0.0666328,0.00833162
-0.044197,0.00640305
-0.0260497,0.0324556
0.0197615,0.021169
0.0365189,0.00983205
0.0303947,0.00589122
0.0401094,-0.00412437
0.0473455,-0.0118728
0.0355134,0.00884901
-0.0049522,0.0259666
-0.0345229,0.0130103
-0.0237219,-0.0020639
-0.0176942,-0.0198059
-0.00436966,-0.02524
-0.0036383,-0.0132054
-0.0276982,0.00483882
-0.0591348,0.0134823
-0.0685165,0.0098156
-0.0369844,0.00414126
0.00363352,-0.00516371
0.0282064,-0.0196683
0.0299663,-0.016638
0.0318725,-0.00451283
0.0388892,-0.00313139
0.0364279,0.0010324
0.0243388,0.0106314
0.00629858,0.013547
-0.0124043,0.00925667
-0.0216102,0.00448335
-0.0265021,-0.0106493
-0.0255434,-0.0244904
-0.0177053,-0.0149501
-0.0230164,-0.000207933
-0.0173244,0.0143433
-0.00556896,0.0243773
-0.000571615,0.00729631
0.00522663,-0.00602856
0.00673245,-0.0165394
0.0118378,-0.00882806
0.0272354,-0.00131047
0.0344919,-0.00585625
0.0280096,0.00714064
0.0213753,0.0171977
0.0211994,0.017237
0.00601384,0.0254992
0.00417268,0.0266266
-0.0125683,-0.0271517
-0.0394191,-0.0399663
-0.0481283,-0.0167516
-0.0364785,0.00179474
-0.0150485,0.00817
-0.00915699,-0.0050557
-0.00426806,0.0063713
0.00655566,0.00381177
0.0148632,-0.0158087
0.0301054,-0.00419217
0.0503655,-0.00477663
0.0505352,0.00112891
0.0259618,0.0153502
0.0062191,0.0123989
0.016606,-0.0051341
-0.00227928,-0.0149304
-0.0351695,-0.0164621
-0.0646944,-0.0158148
-0.0634365,-0.00503235
-0.032837,0.0125549
-0.017601,0.0327914
-0.00293005,0.0413965
0.0153332,0.0311247
0.00930357,-0.010643
0.0011773,-0.0408876
0.00035857,-0.0192399
0.0124405,-0.00149002
0.0390023,-0.00255608
0.0431545,-0.0124726
0.0373445,-0.0151202
0.016668,0.0130959
-0.000270138,0.0208391
-0.00527401,0.00372778
-0.00497327,-0.0226221
-0.00320566,-0.0134992
-0.0102115,0.0117274
-0.0234544,-0.017849
-0.0130804,-0.0442973
0.0015254,0.0271671
-0.00091349,0.0349077
0.0184015,-0.00313592
0.0333943,-0.00904238
-0.0188471,0.0335463
-0.0868624,0.0762404
-0.0748192,0.0437129
-0.00839202,0.00955665
0.04268,-0.00166267
0.0763173,-0.0246949
0.108814,-0.0204246
0.0746508,-0.0201056
0.021857,-0.0249531
-0.0436027,-0.013905
-0.0918596,-0.00770376
-0.0717666,-0.00824853
-0.0391086,-0.000417622
-0.0141493,0.00363633
0.00737195,0.000817707
0.0254959,-0.00228758
0.0422608,-0.00960103
0.0415645,-0.0038168
0.0238435,-0.00210856
0.00200623,0.000744506
-0.00771823,0.0131267
-0.00230191,0.0228221
-0.0174533,0.0170053
-0.0225871,0.00273608
-0.0140143,-0.0127286
-0.0030723,-0.0127107
0.000975359,-0.00157672
-0.00272519,0.00238846
-0.00511954,0.00526535
-0.00908955,0.0101103
-0.00735583,0.0157708
-0.0073672,-0.00554841
-0.00830443,-0.0404495
0.0100262,-0.0316557
0.0215696,-0.0127585
0.0182156,-0.00578921
0.0088998,0.012191
0.0096534,0.031526
-0.00383967,0.00886618
-0.00331518,-0.0153336
0.00126893,0.0129849
0.00615582,-0.0117538
0.01187,-0.0252881
-0.0197397,0.00675058
-0.0642174,0.0129719
-0.0443383,-0.00967469
-0.00639707,-0.0131607
0.0180398,0.00662325
0.0522666,0.0280349
0.0671638,0.0227407
0.0337934,0.0178132
-0.00924977,0.00906763
-0.0398972,-0.0242719
-0.025597,-0.0217027
-0.0166975,-0.0258004
-0.0205364,-0.0208682
-0.0118287,0.00457142
0.0124347,0.00293545
0.0202234,-0.0202575
0.0120728,-0.0212681
-0.000685805,0.0346655
-0.0113732,0.0209092
-0.011782,0.00062382
-0.0138116,0.0134725
-0.0148919,0.0203814
-0.00898447,-0.00248841
-0.000996797,-0.0199552
0.0135049,-0.0287101
0.015835,-0.0297467
0.00753252,-0.0118881
-0.00814419,0.00973642
-0.0112995,0.0297094
-0.00252236,0.0430149
0.00413365,0.0364587
0.00460344,0.00612918
0.0119223,-0.0415637
0.00993385,-0.0474913
0.00357026,0.00534315
0.00786705,0.0106683
0.00576498,-0.00103995
-0.00128676,0.0199208
-0.00463871,0.0109768
-0.00223179,-0.00760907
0.00388371,-0.0146902
0.0185541,0.00516299
0.0265283,0.00294973
0.0214039,0.0179221
0.0157769,0.0301169
0.011453,0.00181659
-0.00388086,-0.00308511
-0.0139301,-0.00222876
-0.005734,-0.0159682
-0.00755167,-0.019818
-0.0161742,0.00817166
-0.0207822,0.00520193
-0.0277018,-0.0169997
-0.0528834,0.00516815
-0.0494155,0.0362623
-0.0678175,0.0360464
-0.0821565,-0.0112189
-0.0429723,-0.0157915
0.0439949,-0.0138829
0.129277,-0.0174894
0.128627,-0.00265471
0.0886952,0.0148119
0.0428418,0.0118104
-0.00574493,0.00903649
-0.0597214,-0.008206
-0.0506192,-0.0105635
-0.0155369,-0.00153254
0.0212356,0.00266249
0.0355384,-0.00246098
0.0239282,-0.00583202
0.00638845,0.00106132
-0.00883038,-0.000404408
-0.00355914,-0.00427885
0.0092446,-0.00295198
0.00665396,0.0116041
-0.00584296,-0.00654867
-0.0114845,-0.0198314
-0.0137708,-0.00333627
-0.0149004,0.00309203
-0.0126,-0.00453149
-0.00828675,0.00592012
-0.0107783,0.00171443
-0.0181024,-0.00840752
-0.0208997,-0.00637179
-0.00673945,0.00371104
-0.0020225,-0.00135455
-0.00202435,-0.0130236
-0.00913473,-0.0125923
-0.00949748,-0.00135484
0.00530872,0.00974917
0.0169624,-0.0037184
0.0183276,0.00038125
0.00413691,0.00246368
-0.0104891,0.00206582
-0.0121691,0.00914714
-0.00502583,0.000272765
0.0038728,-0.00671871
0.0025468,0.00457424
0.004284,0.0105953
0.00641652,-0.0186123
0.00324422,-0.0171978
0.00922346,0.0194766
0.000143025,0.0328068
-0.0370655,0.0282261
-0.0720548,0.027718
-0.122948,0.0113366
-0.105208,-0.0238323
-0.0252838,-0.0234233
0.0531695,-0.0233982
0.0971103,-0.0117924
0.104241,0.01064
0.0900434,-0.00342733
0.0429364,0.00201348
-0.00276417,-5.78e-05
0.0102442,-0.0149028
0.0434109,-0.00301408
0.0404265,0.0012959
0.0222823,0.00707248
0.0117184,0.00958694
0.00644369,0.00781051
-0.00228543,0.00870979
-0.00520861,0.0146346
-0.00275695,0.0060432
0.00531971,-0.0144776
0.000241737,-0.0144471
-0.0125255,-0.0134914
-0.0215357,-0.00902568
-0.0256719,0.000363674
-0.0242009,0.00619464
-0.0192022,0.00468778
-0.016238,0.00133531
-0.0106571,-0.00934824
-0.00410648,-0.0190672
0.00266425,-0.0102986
0.00594747,-0.00455232
0.00900168,-0.00227063
0.00407158,0.00614038
-0.00206759,0.0140675
0.00173996,0.0147497
0.0102302,0.00548189
0.0112947,0.00784944
0.00760605,0.00415268
-0.00101192,-0.0027671
2.15e-05,0.00916694
-0.0040281,0.022997
-0.0327077,0.0247281
-0.0409158,0.0226444
-0.0427358,-0.00793496
-0.034151,-0.0462766
-0.008125,-0.013855
0.00131932,-5.47e-05
0.0260525,0.00542598
0.0125447,-0.0128143
-0.0488785,-0.0545837
-0.0388359,0.000902733
-0.00108583,8.39e-06
0.0111812,-0.0305006
0.0247763,-0.0318195
0.0207132,0.0206646
-0.00651079,0.0485118
0.00121726,0.0562645
0.0145956,0.0392818
0.0285003,0.0102482
0.0315866,-0.00900621
0.0350596,-0.0208599
0.0159856,-0.0244396
0.000538547,-0.0113546
-0.000889324,-0.00715331
0.00510878,-0.0140268
0.00273287,0.00262926
-0.00183802,0.00646403
-0.000945241,0.00285916
0.00735282,0.00220246
0.00405122,-0.0038435
-0.00232003,-0.00945766
-0.00676122,-0.00608421
-0.0123,-0.000106442
-0.0140564,0.00387316
-0.0136168,0.00686133
-0.0104891,0.00511404
-0.00704582,0.00929965
0.00385471,0.00176477
0.015064,-0.00827766
0.016213,-0.00420974
0.0110077,0.00778736
0.00592026,0.0103736
0.00399458,0.0117422
0.00215448,0.0143831
-0.00237265,0.00671049
-0.0045841,-0.0081854
-0.0026135,-0.0131592
0.000681082,-0.0247357
0.00398556,-0.0317424
-0.000684102,-0.022463
0.00340958,0.000843205
0.00875399,0.0336477
0.00498578,0.0195615
-0.00869466,0.0186821
-0.0349628,0.0051166
-0.041871,-0.0122004
-0.023719,0.00748849
-0.00658348,0.00557366
0.0149471,-0.0159383
0.00991042,-0.0109022
0.00900537,0.00801939
0.0201214,0.0114115
0.0196975,0.0177416
-0.000223704,0.00460451
0.00339332,-0.00766564
-0.000943935,-0.00686992
-0.0135354,0.00178705
-0.0132812,0.00817194
-0.0169561,0.00906066
-0.0387823,-0.00545977
-0.034318,-0.0138956
0.00872952,-0.0212729
0.042025,-0.0135006
0.0400792,0.00733579
0.0262412,0.00968126
0.0104197,0.00548695
-0.00695209,-0.00231226
-0.00342236,0.00124598
0.00906452,0.00808152
0.0164518,-0.0100817
0.0195022,-0.0103522
0.00859361,-0.00657915
-0.0119657,-0.00427778
-0.0250049,0.00182837
-0.0217719,0.00465155
-0.0149725,0.00767762
-0.00144935,0.0100813
0.0120549,-0.0014481
0.0164316,-0.0108209
0.00695691,-0.00767867
-0.0118738,0.0036255
-0.0207423,0.0107754
-0.0131538,0.0129193
-0.0117561,0.014505
-0.00602754,0.00703565
0.0153387,-0.00855141
0.0251619,-0.0200449
0.0186302,-0.0105452
0.0105401,-0.00654278
0.0143092,0.00402384
0.00974181,0.0188579
-0.00546185,0.0317179
-0.0167407,0.0327788
-0.0283352,0.0209668
-0.0385304,-0.0565748
-0.02504,-0.0688588
-0.0136822,-0.00973716
-0.00568353,0.00908515
0.013183,0.00573351
0.00794459,0.0198563
-0.000197095,0.021282
0.00287861,-0.00456234
0.00139108,-0.0255943
0.00845401,0.00245596
0.00534307,0.00997895
0.00683494,-0.0115048
0.0130377,-0.00447874
0.00936443,-0.00300341
0.0217972,-0.00259263
0.028117,0.00255663
0.00977907,-0.00821521
0.00407764,-0.0182199
0.0187957,-0.0177855
0.0160784,-0.00306256
0.00202826,0.00667015
-0.00627689,0.0166637
-0.00188025,0.0221932
-0.00143446,0.0221548
-0.00628174,0.00778403
-0.00741457,-0.00641688
-0.00571985,-0.00470669
-0.00851121,-0.0014079
-0.0127819,0.000789826
-0.0227185,0.00401853
-0.0240692,0.00661969
-0.0118606,0.00285814
0.00191898,-0.000411093
0.0107973,-0.00352166
0.0128287,-0.00904316
0.0097974,-0.00628122
0.00104082,0.00165967
-0.00105254,0.00108396
0.00211031,0.0025333
-0.00111113,0.0100753
-0.00601837,0.010974
-0.00216587,-0.00604182
0.0075733,-0.0162931
0.00271624,-0.00525945
0.00477812,0.0136822
0.00852768,0.0545301
-0.0100583,0.0691222
-0.0330627,0.0463269
-0.0153517,-0.0135035
-0.00394043,-0.0645615
-0.0395969,-0.0700306
-0.0622647,-0.0728301
-0.034363,-0.0541972
0.0159668,-0.0178162
0.034468,0.0389341
0.00328352,0.0341717
0.0417945,0.0127605
0.0751905,0.0186723
0.0482954,-0.00374226
0.00490765,-0.00889291
-0.0384544,0.0111091
-0.0309063,0.0316606
-0.00757204,0.0125029
-0.0122036,-0.0139259
0.0046966,-0.0103993
0.0313225,0.00700149
0.0385205,-0.00968207
0.0330147,0.00237644
0.00673645,0.0137778
-0.0172666,0.0133901
-0.0207717,-0.012866
-0.00417062,-0.0231101
0.000994587,0.00345697
-0.00836644,0.00273226
-0.00949671,-0.00107958
-0.00828941,-0.0164942
-0.00295496,-0.0152911
0.00243789,-0.00628043
0.00366941,-0.00400599
0.00314436,0.000157264
-0.00434701,0.00315167
-0.00690251,0.004352
-0.00786931,0.0104737
0.00170526,0.00845481
0.00910136,-5.68e-05
0.00479606,0.00323389
-0.00441327,0.0117776
-0.0042746,0.0128278
-0.00362396,0.0116911
-0.0136724,0.0117088
-0.0111401,0.00663196
0.00188548,-0.0145965
0.00327256,-0.0212401
-0.00491884,-0.00223451
-0.00720026,-0.00362329
-0.00710431,-0.00778652
-0.0172654,-0.000320642
-0.0303363,0.00282201
-0.0191965,-0.000610348
0.00578092,0.00201789
0.00746282,-0.0128661
0.000524771,-0.0296034
0.00229645,-0.015097
-0.00615287,0.0355502
-0.0187929,0.0342634
0.019329,0.0347306
0.0393004,0.0348168
0.0328069,0.0119928
0.0180916,-0.00881888
0.0205478,-0.0266737
0.0121446,-0.0212013
0.00897497,0.00535629
0.00543141,0.0179586
0.0025696,0.00160968
-0.00838316,-0.038537
-0.0112647,-0.0223391
0.00500893,-0.00204173
0.0128889,-0.0106968
0.0162574,-0.011596
0.0107361,0.00206994
0.0028856,0.00529375
-0.011676,0.00329772
-0.0181766,0.00810805
-0.0186025,0.011307
-0.01309,0.00128471
-0.00804664,-0.012865
-0.0053462,-0.012853
-0.00312423,-0.0100839
-0.00295091,-0.00949999
-0.00679208,6.55e-05
-0.00938165,0.00664633
-0.0039827,0.00342437
0.00276362,0.00200189
0.0083495,-0.00307751
0.0123372,-0.0118501
0.0107576,-0.00596617
0.00536607,0.00785618
0.00168547,0.011036
0.00293736,0.0119198
0.000163209,0.016706
-0.00152233,0.0138439
-0.00117264,-0.00507521
0.00189302,-0.0128302
-0.00129829,0.000991261
-0.00179765,-0.0118032
0.00413937,-0.00905753
0.00396766,0.00375219
-0.0231349,0.0148807
-0.0527082,0.0124841
-0.0613542,0.0179349
-0.0479159,0.0343991
0.0234617,0.00831845
0.0662732,-0.00410168
0.0470751,0.00907985
0.0341766,0.0101413
0.0313494,-0.00977267
0.0302415,-0.0501942
0.00885467,-0.0631454
-0.0105258,-0.0275662
-0.0139463,-0.0138154
-0.0133026,-0.014431
-0.009583,0.000694871
-0.00841533,0.0152736
-0.00982612,0.014624
-0.0097594,0.0103447
-0.00443792,0.0304747
0.00165229,0.0320016
0.00483289,0.0181918
-0.00348436,0.0157764
-0.00555718,0.0137238
0.000774201,0.00512671
0.00631955,-0.00198661
0.00527181,-0.00636195
0.000358268,-0.0162469
0.00301682,-0.0272619
0.00227641,-0.0235718
0.00230017,-0.0149294
0.00157993,-0.00947493
-0.00176095,0.00332035
-0.00592519,0.0144756
-0.00775378,0.0142025
-0.00706725,0.0149746
-0.00232897,0.00874568
0.0032332,0.000820346
0.00463506,0.00279699
0.000127986,0.010393
0.0029673,0.0123284
0.00101972,0.00780341
-0.0072558,0.000548768
-0.0128906,-0.00311032
-0.0147958,-0.0104025
-0.00802592,-0.0206317
0.0231214,-0.017446
0.0491719,-0.007894
0.0292562,-0.00750563
0.0204322,0.00993229
-0.02064,0.0346377
-0.0676658,0.0138046
-0.0539827,-0.00742154
-0.017209,-0.0157775
0.00594324,0.000192389
-0.00335679,0.0390105
-0.0147624,-0.00149828
-0.0128809,-0.0549982
0.00722851,-0.0266604
0.0225397,0.0156221
0.014888,0.0104344
0.00202189,-0.0227986
0.00298251,-0.0223694
0.00521528,-0.0121414
0.00303242,-0.000247351
-0.00405014,-0.010084
-0.00742962,0.0123371
0.0157974,0.0262962
0.0465504,0.000621306
0.0421235,0.0170614
0.0107344,0.0152994
-0.0124156,0.00701195
-0.00521492,0.0157632
-0.00812122,0.0126416
-0.00617162,0.000119577
-0.0088562,-0.00401247
-0.00786061,-0.00956564
-0.00317992,-0.0193385
0.00198594,-0.0275011
0.00462297,-0.0216267
0.00358889,-0.0122978
0.00103816,-0.00562918
-0.000840957,0.00336271
-0.00430781,0.0133868
-0.00395382,0.0190046
-0.00518813,0.0218782
-0.00254255,0.0109244
0.00307248,-0.0036892
0.00691536,-0.00612879
0.00508129,0.00653928
0.000326809,0.00984956
-0.00198838,0.00727674
-0.00426467,0.00571531
-0.00218095,0.00128241
0.00310697,-0.00980659
0.0036316,-0.0167008
-0.00513899,-0.00516372
-0.00878935,0.0025347
-0.0182274,0.0229197
-0.0292665,0.0210051
-0.0127174,-0.0143377
0.00601844,0.00109322
-0.00294992,0.0205651
-0.00628866,-0.0128359
0.0105169,-0.0328855
-0.00299927,0.00473906
-0.0110331,0.00977776
0.0110783,0.00607379
0.0112278,0.0148367
-0.00427006,0.00569735
-0.0120782,-0.0188647
0.0043398,-0.0238876
0.0243374,-0.0220391
0.0170488,-0.0332037
0.0144647,-0.0380705
0.025459,-0.00745029
0.0271691,0.0224657
0.0219792,0.0394905
0.0132534,0.0278804
-0.00548324,0.0153368
-0.0200026,0.000120129
-0.0265248,-0.00799112
-0.0200687,0.000223593
0.00320371,0.00416974
0.00426718,0.00360956
-0.00522771,0.00625814
-0.00888063,0.00713428
-0.00339657,-0.00197197
0.00203869,-0.0151616
0.00512182,-0.0104833
0.00434103,-0.00498223
0.00285669,-0.00597774
0.000697688,-0.000736961
-0.00601848,0.00512274
-0.0103694,0.00658438
-0.0107425,0.00798398
-0.00581525,0.00500695
0.00460045,-0.00828352
0.00803731,-0.00999266
-0.000496256,0.00396385
-0.00495396,0.0101308
-0.00302705,0.0129108
0.00365868,0.0164235
0.00863592,0.0166743
0.00363799,-0.000630668
-0.00729374,-0.0175946
-0.0143882,-0.00673783
-0.0196811,0.011647
-0.0232802,0.00707169
-0.0254106,-0.00129713
-0.0118408,-0.00173303
-0.00732636,0.00910356
-0.00886571,-0.0149755
0.0131823,-0.0435304
0.0333716,-0.0385409
0.045662,-0.00648408
0.032809,0.000179039
0.0230735,0.000815202
0.0115377,0.0135568
-0.0180591,0.0256495
-0.0403853,0.0270643
-0.0498852,-0.00809738
-0.041798,-0.0335664
-0.0188106,-0.0318355
0.0319934,-0.0130228
0.0546261,0.00564435
0.0396762,0.0196578
0.0115643,0.0180747
-0.00901726,0.0173545
0.00233642,0.0104757
0.00524279,-0.0109469
0.00626296,-0.0117778
-0.00153013,0.00150475
-0.00588995,0.00842121
-0.00685143,0.0122552
-0.00885305,0.0140339
-0.00385667,0.0128951
0.00299607,0.000444177
0.0115473,-0.0137129
0.0129678,-0.00912698
0.00925708,-0.00321539
0.00579969,-0.00109728
0.00160297,0.00553447
-0.00264218,0.0128208
-0.00468046,0.0111172
-0.00653702,0.00656205
-0.00679361,0.0016296
-0.000579452,-0.00996472
0.0087847,-0.0107289
0.00751086,0.00299807
-0.00899727,0.00691769
-0.0190609,0.00607292
-0.0134436,0.0111888
-0.00149987,0.0376454
0.0182898,0.0404099
0.028881,0.0138845
0.0207727,-0.0339753
0.0075325,-0.12326
-0.00108155,-0.0360708
-0.025228,0.0166633
-0.0298405,0.00242978
-0.0294589,0.00216093
-0.0207527,0.00412191
-0.00377383,-0.02074
0.00515549,-0.0290895
0.00222712,-0.01136
-0.000786623,-0.00261356
0.00260723,0.00190076
0.00437209,0.00588568
0.00874298,0.0150197
0.013321,0.0127813
0.0111717,-0.000367875
-0.000783154,0.00365834
-0.0152097,0.0222813
-0.0137008,0.0264659
-0.00816303,0.0207705
-0.0131453,0.0153455
-0.0140051,0.0194107
0.000895729,0.0223488
0.0154178,0.0216195
0.0183865,0.00445811
0.00657502,-0.00620321
-0.0206052,0.00248517
-0.0341881,0.0102752
-0.0328442,0.00503739
-0.0157494,0.0025943
0.0076366,-0.00626801
0.0162466,-0.0176305
0.0329858,-0.0286181
0.0384536,-0.0215917
0.0202948,-0.00639724
0.0050524,-0.00618387
-0.00860274,-0.00691716
-0.0170847,-0.00102819
-0.0139191,0.00486231
0.0132612,0.0107539
0.0246407,-0.00824635
0.0127534,-0.0384752
0.00119784,-0.0346925
-0.00174734,-0.00723538
0.00384952,0.0166071
0.00344407,0.0250852
-0.00197783,0.0130257
-0.00397976,0.00777462
0.00669809,-0.000338858
0.00836759,-0.029212
0.00013776,-0.0244777
0.0031474,-0.0132086
0.00555638,-0.00261515
0.0117872,0.0157114
0.00981127,0.01965
0.00637835,0.019308
-0.00513034,0.0177432
-0.0134294,0.00379354
-0.0162071,-0.0025736
-0.01969,-0.0038348
-0.0166024,0.00299011
-0.00584674,0.0051443
0.00918996,0.0049586
-0.00251072,0.00330943
-0.00799827,-0.00417187
-0.0071735,-0.022924
-0.0100404,-0.0239629
0.00157727,-0.00424954
0.0215122,0.00419181
0.0197627,0.00387231
9.88e-05,0.00605438
-0.0126393,0.010102
-0.00480199,0.0111659
-0.00019919,0.00933471
0.00152088,-0.00864905
0.01226,-0.0140943
0.0151109,0.00777443
-0.00197015,0.0166573
-0.0131974,0.0206111
-0.0145358,0.0162095
-0.0125448,0.00386039
0.00224646,-0.0188028
0.0176299,-0.0295697
0.0134235,-0.017192
0.00267592,-0.00205834
-0.00204673,0.00140371
-0.00551047,0.00463894
-0.0129595,0.00640833
-0.0088022,0.00600068
-0.00543032,0.00644709
-0.0111765,-0.00236357
-0.00308823,-0.0165587
0.000816382,-0.022781
0.0319573,-0.00626422
0.048585,0.0125451
0.0367734,0.0254026
0.021696,0.011737
-0.000538538,0.00478525
-0.0238765,-0.00365644
-0.0371602,-0.0171695
-0.0325264,-0.00487265
-0.0237114,0.00186203
-0.0142244,-0.00252066
-0.00697695,0.00559118
-0.00738375,0.00821025
-0.0139273,0.0125888
-0.00840245,0.00911576
-0.00363156,-0.0277713
-0.0041511,-0.0214369
-0.0027768,0.00362625
0.000837784,0.0108521
0.00570339,-0.0134623
0.00332916,0.0116902
0.00160797,0.0228472
0.00508686,0.0104328
0.018456,-0.00480783
0.0207793,-0.0124061
0.00532567,-0.00933984
-0.00357532,-0.00546688
-0.0106295,-0.000533579
-0.0045664,0.00901681
0.0126423,0.0147323
0.0147814,0.00790054
0.0107921,0.00527837
0.0112776,-0.00803446
0.0118836,-0.0145867
0.00717031,0.00183275
-0.000338458,0.00976774
-0.00828324,0.0127489
-0.0149314,0.0024509
-0.0161111,-0.0361122
-0.0083675,-0.0280719
-0.000225445,-0.0128114
4.73e-05,-0.00131597
0.00195652,0.0286769
0.00525207,0.0258049
0.00747909,0.0416843
0.00178834,0.00577743
0.00368519,-0.00702414
0.00739926,-0.00134013
-0.00494919,-0.0134165
0.00149625,-0.0115981
0.0144969,-0.0138838
0.01114,-0.0146803
-0.00314148,-0.0085031
-0.0111537,0.000943153
-0.0204952,-0.00850296
-0.0314546,0.0011518
-0.0153691,0.013827
-0.00115127,-0.00897094
-0.00370379,-0.0127108
0.00374779,0.000895336
0.00744668,0.00409919
-0.000359933,0.00763352
0.0030592,0.0147233
0.0110885,0.0237748
0.00389448,0.0186902
-0.00322764,-0.00450166
-0.00801803,-0.0215823
-0.00498348,-0.0306389
0.00872542,-0.0114184
0.00805135,0.0259245
-0.00173275,0.0338056
-0.00535125,0.0274575
-0.00218109,0.0140559
0.00537317,-0.00592691
0.0103003,-0.019191
0.0179932,-0.0184514
0.0207048,-0.0181278
0.0145782,-0.00897248
0.00130104,-0.00631554
-0.00583221,-0.00132385
-0.00506611,0.0143135
-0.0137465,0.00142666
-0.0129118,-0.00952123
-0.0037716,-0.00967163
-0.00100315,-0.00433819
-0.0010453,0.0030216
0.00166442,0.007908
0.0024577,0.00705944
-0.00228247,0.00470046
-0.00602913,-0.00454582
-0.000784274,-0.0186514
0.00691417,-0.0130425
0.01289,0.0078047
0.00677989,0.0159754
-0.00454773,0.0219611
-0.00586926,0.0219883
-0.00637362,0.0107642
-0.0101689,-0.00311271
-0.00338881,0.000873443
0.00421098,-0.0192839
0.00620467,-0.0249708
0.00791097,-0.00452296
0.00254747,-0.00671176
-0.00193995,-0.00114943
-0.005227,0.0020828
-0.0152664,0.00274535
-0.0263623,-0.00831883
-0.0244479,-0.0307199
-0.0114179,-0.00849999
-0.00527468,0.00773072
-0.00679642,0.00654502
0.0159801,0.0140684
0.0272265,0.0114106
0.0165223,0.00269685
0.00692972,-0.0021178
0.00674795,-0.00755411
0.0149006,0.000310881
0.0165875,0.000318355
0.0188404,0.00037919
0.0267144,0.00471355
0.0095761,0.00583878
-0.0141098,0.00982919
-0.0273361,0.0115401
-0.0258241,-0.0031898
-0.0165,-0.00458857
0.0123579,-0.00122123
0.0258352,-0.0189217
0.0249475,-0.00592326
0.0160313,0.00926168
-0.0136629,0.00885008
-0.0364242,0.000887944
-0.0364587,-0.00499948
-0.0183605,-0.0043271
-0.00900134,-0.00173114
-0.0255459,0.0131994
-0.024973,0.0205869
-0.0134896,-0.00105482
-0.00716488,-0.00710652
0.00830309,0.00780298
0.0319631,0.00981346
0.0263762,-0.0123726
0.0197927,-0.0116908
0.0131894,0.00399191
0.00373061,0.00434909
0.000877494,0.00514449
-0.00268448,0.0192261
0.00229076,0.0232054
0.00268892,0.0159037
0.00142545,0.00331129
0.012908,-0.0356715
0.0211198,-0.0556638
0.0241151,-0.0201555
0.018665,-0.00268828
0.0125392,0.00974208
-0.011574,0.0264195
-0.0318707,0.0198515
-0.0147204,0.00581084
-0.000971234,-0.00508843
-0.00688619,-0.00720173
-0.00035108,-0.00918316
0.00664362,-0.00499275
0.00107022,-0.00782908
-0.0105426,-0.00489427
-0.0138935,0.00518824
-0.00828562,-0.00588578
-0.0140891,-0.016156
-0.00989922,-0.00251475
-0.0126929,0.00307303
-0.0205724,0.000305599
-0.0116878,-0.0138073
0.00385348,-0.010035
0.010475,-0.00222365
0.0068215,0.00784033
0.000260802,-0.00245979
0.000567646,0.00232573
0.00837383,0.00371974
0.0181795,-0.00260638
0.0219583,0.0143458
0.0183802,0.0218191
0.0140732,0.0111023
0.00433422,-0.000668857
-0.00627412,0.00070835
-0.0171716,-0.000520223
-0.0211358,-0.0212193
-0.005788,-0.0153295
0.00053692,0.00396481
0.00669451,0.0116612
0.0216959,0.0115147
0.0302573,0.019113
0.00831138,0.0173703
-0.0169782,-0.00440925
-0.0171575,-0.00788214
-0.0063364,0.00501987
0.00872049,0.00759298
0.00993219,0.0114006
-0.000561939,0.014336
-0.00327403,-0.00109687
-0.00311178,-0.0131317
-0.00139687,-0.00895365
0.0103686,-0.0119405
0.00827439,-0.0239973
-0.0195369,-0.0173015
-0.0201393,0.00186967
-0.00688149,0.0146716
-0.00468212,0.0199151
-0.0130166,0.0208216
0.000142368,0.0108841
0.00528908,-0.00843228
0.00272233,-0.0121378
-0.000235948,-0.00931356
-0.00476462,-0.00263958
0.00149239,0.0064966
0.005304,0.00821688
-0.000670797,-0.00292179
-0.00479739,-0.00599557
-0.00048464,-0.00803984
0.00732365,-0.0253985
0.0106679,-0.0190337
0.00387753,-0.00331699
0.000590339,-0.0031929
0.00196637,0.00930785
-0.00414135,0.0140308
-0.00415763,-0.00275604
0.00563857,-0.0147959
0.016503,-0.00814587
0.0115274,0.00798187
-0.00156989,0.00615632
-0.0116773,0.00113669
-0.00736559,0.00460623
-0.00426999,0.0224138
0.000282251,0.0465704
-0.00143933,0.0320898
0.0126119,-0.0142195
0.0228125,-0.0234415
-0.000514021,-0.0321086
-0.0364905,-0.0273009
-0.0361697,-0.0185879
-0.0195625,0.0150686
-0.00646006,0.0186249
-0.00718928,0.00538794
-0.00309011,-0.00107653
0.00612518,-0.00994672
0.0194712,-0.00677498
0.0158795,-0.0113206
0.004552,-0.000955347
0.00679906,0.0104014
0.00126351,0.00931276
-0.00365391,-0.0141411
-0.0036677,-0.0113122
-0.00188366,-0.00291925
0.0124581,-0.00733007
0.0221324,0.00539921
0.0221144,0.00185965
0.0308004,-0.00260109
0.0244342,0.023211
0.000407906,0.0461718
-0.0114008,0.0254636
-0.0144236,-0.0161059
-0.0245099,-0.0461709
-0.0312495,-0.00316316
-0.0206289,0.011741
0.000720774,-0.00370456
0.00941697,0.00820876
0.00874467,0.0102803
0.00285605,0.00566964
-0.00873769,-0.00654466
-0.0116852,-0.0146279
-0.00331771,-0.00923103
0.00910131,-0.00524277
0.0209269,-0.000302095
0.00726963,0.0117115
-0.0130598,0.00853963
-0.0249266,0.00253343
-0.0255076,-0.0131341
-0.0131622,-0.0117089
-0.00642652,0.00195234
0.0202768,-0.00256014
0.0244115,-0.00215944
0.00834685,0.0119305
0.0148705,0.0193149
0.013077,0.0139743
0.00154189,-0.000245739
0.01927,-0.0143127
0.0121247,-0.0146473
-0.00629819,-0.000864751
0.00219372,0.0117506
-0.0035146,0.00669006
-0.0302404,0.00249443
-0.0361102,0.0137592
-0.0230294,0.0116707
-0.0240545,-0.00114759
-0.0129577,-0.0121322
0.0193592,-0.0211515
0.0366283,-0.0249653
0.0173335,-0.00952794
0.00666624,0.00481413
0.00200391,0.00530607
0.00219804,0.0008106
0.000973534,-0.00342427
0.00501042,-0.0139761
0.0138926,-0.0160457
0.0140148,-0.00191567
0.00543456,0.00325742
-0.000915237,0.00414277
4.18e-05,0.0160983
0.00451822,0.0151371
0.00967666,0.00741766
0.0065891,-0.00247952
0.0012933,0.00414298
-0.00823608,0.00659045
-0.0243309,0.00610178
-0.0341861,0.0100095
-0.04087,-0.00288059
-0.0270698,-0.000245239
-0.00945381,-0.00334782
-0.00508506,-0.0125576
0.00286494,-0.0168315
0.0139891,-0.00583434
0.0201883,0.0103632
0.0243176,0.00425859
0.0210354,-0.0089059
0.00647544,0.0058043
-0.000430071,0.0116643
-0.00129526,-0.00317219
0.00108503,-0.0131107
0.00254285,-0.00637435
0.00030425,-0.00245125
0.00423867,0.00670826
0.0142423,0.013299
0.00867871,0.0138022
-0.0128143,0.00439238
-0.0147309,0.00134382
-0.00112252,-0.00431812
0.00814915,-0.0107425
0.00632686,-0.00771583
0.0109328,0.00439904
0.00952631,0.00760175
-0.00260572,0.0111233
-0.00966582,0.0127839
-0.00237496,0.00683633
-0.00894674,-0.00465348
-0.023269,-0.00622683
-0.0150947,-0.019106
0.022212,0.00247975
0.0339432,0.021209
-0.0209858,0.00884775
-0.0438248,-0.0231393
-0.0120817,-0.0127088
0.0142685,0.00749354
0.00792836,-0.0105119
0.00631911,-0.0141245
0.0162671,-0.00423482
0.0223812,0.00998609
0.00684314,0.00960268
-0.00843012,0.0101551
-0.000766568,0.0181246
0.00757842,0.00805166
-0.00567129,-0.0161899
-0.0180871,-0.0190857
-0.0127915,-0.013163
-0.00411796,-0.00984025
-0.00230748,-0.00279507
-0.00185405,0.0051579
-0.00215807,0.00412935
-0.00229569,0.000122416
-0.00211111,-0.00321287
0.0016028,-0.011559
0.00349358,-0.00960123
0.00823269,0.00976073
0.00740628,0.00945984
0.00408402,0.00376735
-0.00340254,0.00971518
-0.000796875,0.0109312
-0.000525466,0.00253968
-0.00128529,-0.020719
-0.000661086,-0.0161245
-0.000594956,0.00301839
-0.00409364,0.0161946
-0.00645145,0.0256126
-0.00858466,0.0127891
-0.00748904,-0.0225111
-0.00673251,-0.00471827
-0.00427345,-0.013442
0.0026161,-0.0404279
0.0256355,-0.00355985
0.0258927,0.0720294
0.0108179,0.0256018
0.00106794,-0.0259479
-0.0047595,-0.0103117
-0.0054391,0.0186707
-0.00405028,-0.0205877
-0.00117564,-0.0309438
0.0125151,-0.0142106
0.0112924,-0.00568403
-0.0107548,0.00232102
-0.0237315,0.00712713
-0.00889929,0.0183377
0.0266587,0.0169068
0.0217826,0.00608123
0.0110772,-0.00553829
0.0155292,-0.00641657
0.0104143,0.000568157
0.00256295,0.00697721
-0.00153677,0.00744239
-0.0124448,0.0113612
-0.0215206,0.0115122
-0.025472,0.00142693
-0.0233243,-0.0141671
-0.0158838,-0.0170924
-0.00386329,-0.0145005
0.00828157,-0.00960213
0.00865153,0.00494722
-0.00326999,0.0118478
0.000308687,0.00910063
-0.00210942,0.00878842
-0.00291744,0.00483435
0.00759629,-0.0063038
0.0176592,-0.0112543
0.0168375,-0.00461034
-0.00700728,0.00479268
-0.0294365,0.00791507
-0.0280683,0.00778267
-0.00823051,0.0201025
0.00983342,-0.0110706
0.0164606,-0.0175016
0.00811834,-0.00866978
0.0102733,0.00402457
0.00187323,0.00577486
0.00103985,0.00871798
0.00866439,0.0085728
0.0186113,-0.00784451
0.0126394,-0.0117719
-0.00740099,-0.0118421
-0.0092216,-0.014835
-0.007455,-0.008489
-0.0154193,0.00651874
-0.0057881,0.0102727
-0.00464988,0.00827128
-0.0109138,0.00604198
-0.016134,0.0174383
-0.00565602,0.00272787
0.0108387,-0.0140225
0.016026,-0.00356968
0.0203875,-0.00170678
0.0139435,-0.0105518
0.00570424,-0.00430837
1.37e-05,0.0124242
-0.00593366,0.00951817
-0.0121193,0.00284242
-0.00636233,-0.00810171
-0.000200332,-0.0129358
-0.0068375,-0.00107641
-0.0122763,0.00923625
-0.00288514,0.0119797
0.00494035,0.0115284
0.0122436,0.0107154
0.016405,-0.00118334
0.0129202,-0.0168799
0.0060657,-0.016643
-0.000955823,-0.00803463
-0.00542164,-0.00640423
-0.00538231,0.000164516
-0.0023071,0.00601025
-0.00519947,0.00305324
-0.00267207,0.0125708
-0.0035682,0.00764916
-0.00308236,-0.00564035
-0.00827708,-0.00983128
-0.0152728,0.00332357
-0.0248709,0.0180318
-0.0344244,0.0127981
-0.0202812,-0.0102637
0.0308175,-0.0160469
0.0456757,-0.0100834
0.0347348,-0.00738703
0.0183906,-0.014029
0.0101715,-0.0105314
0.000235858,0.0217094
-0.0124185,0.0394275
-0.0229019,0.0240594
-0.0126055,0.0100379
0.00974806,-0.0350859
0.0291131,-0.0375677
0.0392806,-0.017268
0.0195926,-0.0138982
-0.0233242,0.00649277
-0.0311691,0.0199301
-0.00263466,0.0239442
-0.00129528,0.0194911
-0.0055403,0.00839191
-0.0081784,-0.0106332
-0.0115714,-0.0225084
-0.0102373,-0.0252535
-0.00245114,-0.0153387
0.0053277,0.000699643
0.00508894,0.00438313
0.00310851,0.00714226
-0.00463365,0.00861611
-0.00476673,0.010161
0.000473414,-0.00318818
0.00907226,-0.00866699
0.00594135,0.00411765
0.000463766,0.011873
0.00557147,0.011306
0.00505393,0.0145
-0.00189908,0.0159041
-0.00365722,0.00322763
0.00274373,-0.0154781
0.00131548,-0.0161904
-0.00621051,-0.00897859
-0.0139364,-0.00656452
-0.0124265,-0.00252955
-0.00957485,0.00317701
-0.00428842,0.00221598
0.00128424,0.00408623
0.00268703,-0.00027641
0.00557481,-0.0133186
0.0124355,-0.0128045
0.0089813,0.00989569
0.00809179,0.0189361
0.019839,0.0203946
0.0112728,0.0156985
-0.0274485,-0.00216114
-0.0347102,-0.0153215
-0.0261053,-0.0169427
-0.0248661,-0.0175745
-0.0241561,-0.00329866
-0.00915906,-0.0118517
0.0123859,-0.00390811
0.0292973,0.0185203
0.0206134,0.0220469
0.0113216,0.0173645
0.00495835,-0.000839694
0.00922128,-0.0225224
0.0137344,-0.0287448
-0.00141094,-0.00807173
-0.00950319,-0.0150222
-0.00276895,0.00768757
0.00290667,0.0287612
0.0204177,0.0279587
0.0294783,0.00137841
0.0140918,-0.0267281
0.0101324,0.00696135
0.0147746,0.0106943
0.008877,-0.00276054
-0.0139919,-0.0102368
-0.0270369,0.000895648
-0.0306018,-0.00197596
-0.0296276,-0.00210645
-0.017614,-0.00957818
-0.00198418,-0.0173093
0.0122165,-0.00596442
0.0122414,0.00195665
0.00611339,0.0142744
-0.00554593,0.0214431
-0.0119845,0.0253141
0.00342067,0.016853
0.0220744,-0.00165082
0.0208062,-0.00644527
0.00518184,-0.00314792
-0.00504879,-0.00240445
-0.000565784,0.00767279
0.000543885,0.0111743
0.00628017,0.003088
0.00714449,0.000387788
0.000773564,0.00158958
-0.0102632,-0.00347854
-0.015568,-0.00912161
-0.0121676,-0.00287012
0.00100366,-0.00326477
0.00828449,-0.00394581
0.00305003,-0.00240249
-0.00249228,0.00141772
-0.0030097,-0.0143336
0.00838548,-0.0327481
0.00565505,-0.0156768
0.0014493,-0.00701395
0.00208116,-0.00208339
0.00198482,0.00902138
-0.00246876,0.0149841
-0.00350784,0.00936121
-0.00500661,0.00572567
-0.00959578,0.0026296
0.000660637,-0.00728639
0.000830205,-0.00401533
-0.00355334,0.00484041
-0.00308499,0.00761258
-0.00863281,0.0058912
-0.0161042,0.00688648
-0.0159582,-0.00533422
-0.000428728,-0.00552779
0.0093681,-0.00946982
0.00386016,0.00454966
-0.00100757,0.0045267
-0.00113361,-0.000701519
-0.00124057,0.00148046
0.00609003,-0.00126143
0.019827,0.00101967
0.00978961,0.00671935
0.002052,-0.00366533
0.00262721,-0.0138592
0.00476636,-0.00558777
0.00677198,0.0079996
0.0242749,0.00679526
0.013459,0.0142586
-0.0146316,0.0251774
-0.020901,0.0163306
-0.00508286,-0.00493741
0.015332,-0.0140243
0.00974549,-0.00323354
-0.00487505,-0.0145354
-0.00969326,-0.00623484
-0.0176531,0.00466832
-0.0287788,-0.015928
-0.0161098,-0.0194404
0.00586034,-0.0241271
0.00814912,-0.0189564
0.00804413,-0.00441274
0.0174224,0.0145741
-0.00346692,0.0228255
-0.0224673,0.0294552
-0.0257888,0.0385034
-0.0114133,0.0307239
0.0102018,-0.0174556
0.0237691,-0.0523956
0.0291431,-0.015453
0.0168513,-0.0101463
0.00133812,0.00235389
-0.014906,0.0176176
-0.0167495,0.0148919
-0.00574827,0.000194559
0.000520786,-0.00459251
0.0115642,-0.00982278
0.0239804,-0.0171871
0.0182785,-0.00243868
-0.00449286,0.00802537
-0.0100174,0.0107946
-0.00305315,0.0160651
-0.00497544,0.0153482
-0.00681139,0.013138
-0.00439696,0.00197563
-0.0108325,-0.0172275
-0.0159873,-0.0124653
-0.0159851,-0.00818429
-0.00734117,-0.00393721
0.00203126,0.00773743
0.00208923,0.0110152
0.00041203,0.00795229
0.00426795,-0.00101074
0.00526606,-0.0132045
0.00361207,-0.0155281
0.00371402,0.000770306
-0.00719192,0.00594175
-0.00775882,0.00690812
0.0112783,0.0108941
0.0180236,0.00738821
0.000820463,0.00140911
0.000593776,-0.000886719
0.00375383,-0.00121227
-0.00222367,-0.00172849
-0.00737087,-0.00880932
-0.00768205,-0.00618563
-0.00237561,0.00476385
0.00151553,0.00325105
0.00608127,0.000339975
0.0102596,-0.00271155
0.0134098,-0.01642
0.0106734,-0.0186531
-0.000933215,0.00217497
-0.00787202,0.0109814
-0.0079692,0.00824251
7.76e-05,0.000475502
-0.00150784,-0.00668525
-0.00782498,-0.00715922
0.0139125,-0.00484437
0.0289445,0.00681523
0.0135445,6.62e-05
0.00215241,0.00144605
-0.00605184,0.0142353
-0.0235469,0.0187758
-0.0172155,0.00215855
-0.0086716,-0.0137256
-0.00838646,-0.0259264
-0.00218853,-0.0242237
0.00704156,0.00218604
-0.00307435,0.00780563
-0.00254898,0.0100303
0.0243225,0.0132066
0.0131009,-0.000279087
-0.000675924,-0.00385504
0.00733393,-0.00548662
0.00167871,-0.00844214
0.00233749,0.00699803
0.0150256,0.00824823
0.0128672,0.00647523
-0.00959229,0.0166163
-0.0181185,0.0123627
-0.00867917,0.00406837
-0.00618449,-0.000334895
-0.0105641,-0.00927762
-0.00571114,-0.0376245
-0.00257249,-0.0170564
-0.00871339,0.00824551
-0.00541582,0.00171071
0.00283598,-0.0039492
0.0173555,0.00662704
0.0149463,0.0141581
0.00179658,-0.0298422
-0.0102636,-0.0190199
-0.0106451,-0.010413
-0.0171633,0.00116673
-0.019035,0.0130137
-0.0208779,0.022047
-0.0163505,0.0274336
-0.00373296,0.0248534
0.0140114,0.0108925
0.0462024,0.0139404
0.0432773,0.0282795
0.0288469,0.00475306
0.0207249,-0.00792097
-0.00131074,0.000409813
-0.0345953,-0.00429895
-0.0400888,-0.0273599
-0.0114955,-0.0404659
0.00139109,-0.0313608
-0.00317779,-0.0189114
-0.00975601,-0.0031138
-0.0148681,0.0187872
-0.00762122,0.0282796
0.0065075,0.029632
0.0133615,0.021696
0.00414608,0.000826182
0.000978724,-0.00730099
0.00695708,-0.00209052
0.00589855,0.00478608
0.000121337,0.00180994
0.00457062,0.00122644
0.00565946,-0.00263845
-0.00540716,-0.00908506
-0.00186172,-0.0264891
0.0102187,-0.0405411
0.00710799,-0.0203819
0.00141936,-0.00321846
-0.00405305,0.00180571
-0.00841551,0.0125655
0.00169256,0.0136841
0.00453438,0.0101975
-0.00311585,0.0161312
-0.00423316,0.00688918
-0.00436275,-0.00257725
-0.0161655,0.00143196
-0.0210461,0.00787303
-0.0162467,0.00417252
-0.0103012,0.00788032
0.00148461,0.00600374
0.0143644,-0.00762144
0.0215485,-0.0197509
0.0179691,-0.0287461
0.0138107,-0.0227706
0.0172801,-0.00834443
0.0101054,-0.0137126
0.00618113,0.0170834
0.00755978,0.0404581
0.00528552,0.0343373
-0.0138385,0.0191595
-0.0353037,-0.00294085
-0.0229284,-0.0147074
-0.00393126,-0.00142335
0.00551238,0.00498012
0.0152018,0.00146895
0.0152165,0.00176397
0.00204334,0.00034564
-0.00777162,-0.0127837
-0.0101328,-0.0160225
-0.00875435,-0.0113904
-0.00115644,-0.00585772
-0.00597915,-0.000451438
-0.0145363,-0.00316286
-0.00211426,0.00162224
0.0147262,0.00346916
0.00389276,0.0133828
0.000457352,0.0144384
0.00271304,-0.00209624
-0.000264737,-0.00906818
0.00209615,0.00104629
0.00549925,-0.00486232
0.0092705,0.000897539
0.01604,0.0111288
0.0215968,0.00208774
0.0198413,-0.011057
0.00487802,-0.0156632
-0.00642268,-0.0112993
-0.00436884,-0.013209
-0.029892,0.00446356
-0.036644,0.0200993
-0.00961618,0.0117709
0.00459511,0.0175309
0.00645592,0.0128097
0.00507059,-0.00402968
0.00243954,-0.0157323
-0.00100027,-0.00886247
0.000823878,0.00495075
0.0033479,0.00280064
-0.0012064,0.0114948
-0.0114385,0.0190918
0.00452071,-0.0107744
0.013625,-0.0247904
0.00404462,-0.0172683
-0.00447506,-0.00985567
0.00347699,-0.00287768
0.0123378,0.0117811
0.00636088,0.0188839
-0.00260398,0.0195929
-0.0103751,0.0190301
-0.00877397,0.00761145
0.00918549,-0.0125467
0.0128996,-0.012696
0.00485677,0.00482202
-0.00191622,0.00790409
-0.00632823,0.00570482
-0.0142401,0.00320178
-0.0208381,-0.0029588
-0.0160536,-0.00688843
-0.00747232,-0.0205947
-0.000384435,-0.0182243
0.00635439,-0.008913
0.00768647,-0.00435726
0.0108189,0.00917411
0.0120997,0.0147106
0.0135752,0.0105201
0.00627388,0.00677292
0.000697625,-0.00602269
0.00329693,-0.020726
0.000745326,-0.0136672
-0.00831001,-0.00132127
-0.0134812,0.00322041
-0.0142894,-0.00172288
-0.0139193,-0.00763008
-0.00934781,0.00217872
0.000153884,0.0025788
0.0108978,-0.00643541
0.00897966,-0.00598165
0.0147599,-0.000711035
0.0141575,0.00894194
0.000632978,0.0140624
-0.00272663,0.0127194
-0.00850905,-0.000752846
-0.0108031,-0.00428791
-0.0062479,0.000588426
0.0020077,-0.0117702
0.00252381,-0.00431143
-0.00252411,-0.00190755
-0.00183727,-0.000915521
-0.00501,0.00626799
-0.00744125,0.0107974
0.000184999,0.0138418
0.00624863,0.00454059
0.00503033,-0.011316
0.00153284,-0.0158157
0.0052422,-0.00328977
0.0107712,0.0123662
0.00937845,0.0143547
0.00229989,0.00787938
-0.000841557,0.00420134
-0.00287267,-0.000596129
-6.62e-05,-0.0122646
0.000950345,-0.0181919
-0.00152791,-0.00820636
-0.00291988,-0.000866701
-0.00503057,0.00127205
8.21e-06,-0.00525022
0.0191625,0.00241207
0.0221268,0.00903808
0.00926415,0.00871306
0.00384349,0.00612459
-0.00233177,-0.010973
-0.0146065,-0.00285588
-0.0285466,0.0108855
-0.032777,0.0152457
-0.0271585,0.0145337
-0.0188,0.00950837
-0.011859,-9.35e-05
-0.00339054,-0.00773927
0.00905506,-0.0077342
0.0109891,0.00149922
0.0107051,0.00444715
0.0135649,0.00166274
0.0113486,0.00482
0.00429264,0.00199334
-0.0017939,-0.0104115
-0.00681275,-0.0204017
-0.014205,-0.0127053
-0.0146915,-0.00576117
-0.00965697,-0.00232047
-0.00723427,0.00408268
-0.00116621,0.0123494
0.0381133,0.00838059
0.108032,0.00945033
0.126157,-0.00271473
0.14338,-0.0138793
0.131599,-0.00481648
0.0552254,-0.00147468
-0.0377535,-0.00649863
-0.108106,0.00539948
-0.140524,0.00887329
-0.13707,0.00506396
-0.110594,-0.0279489
-0.0852625,-0.0254296
-0.0634782,0.00108982
-0.0450118,-0.000234877
-0.0305025,0.00307267
-0.022087,0.0126544
-0.0125751,0.0169124
-0.00182344,0.0155043
0.00422136,0.0061366
0.00517838,-0.00687545
0.00574417,-0.0113108
0.00534789,-0.00183282
0.01917,0.000254109
0.0443263,-0.0043211
0.0533961,-0.00279555
0.0466963,-0.00110249
0.0607602,-0.00507549
0.0642946,-0.00891052
0.0481563,-0.00316647
0.0284245,0.00156355
0.0137291,0.00229616
-0.00795528,0.00722839
-0.031249,0.0160642
-0.0559386,0.015705
-0.0603368,0.0096623
-0.0320674,0.00150902
-0.00925047,-0.00541893
0.014044,-0.0102182
0.0406922,-0.0117717
0.06049,-0.0218208
0.044769,-0.00425652
0.0409197,0.00608305
0.036018,0.00332892
0.00907105,0.0135292
-0.011406,0.00902845
-0.0136156,0.00814148
-0.0351129,0.000628849
-0.0492055,0.000898232
-0.0365643,0.00907197
-0.0335683,0.0109447
-0.0496273,0.00323464
-0.0463688,-0.00260282
-0.0112148,-0.0120739
0.0311774,-0.0199471
0.0503333,-0.0123933
0.0343148,-0.00269806
-0.00386406,5.11e-05
-0.0298462,0.00395462
-0.0499264,0.00486263
-0.0323059,0.0090066
-0.0115783,-0.00471152
0.00795335,-0.024122
0.0192131,-0.00820499
0.0524526,0.00312464
0.122307,0.00874046
0.128631,0.0131815
0.0676765,0.0139505
-0.0135326,0.00914923
-0.0931931,0.00444029
-0.120328,0.00281551
-0.108812,-0.0123133
-0.0820832,-0.0163553
-0.00150359,0.00808203
0.0674669,0.00875458
0.0693808,0.0119563
0.0381904,0.0118447
0.001205,0.00756586
-0.0105591,-0.0130977
0.0193995,-0.0151556
0.0141351,-0.0086485
-0.00894692,-0.00422227
-0.026115,0.00588922
-0.0527448,0.0114148
-0.056039,0.00737433
-0.0506079,0.00225401
-0.0370884,-0.0141643
0.049584,-0.0278954
0.143774,-0.0151349
0.138062,0.00026236
0.0826134,0.00413006
-0.00944677,0.00580039
-0.076511,0.0144668
-0.100475,0.0173925
-0.115155,0.00432111
-0.0924917,-0.0119147
-0.0454697,-0.0178863
-0.0023415,-0.00834896
0.0123299,0.0116288
-0.0125798,0.0154218
