Comp Ch 3,Comp Ch 4
-0.0160046,-0.0188624
-0.0140151,-0.0183744
-0.00345667,-0.00749134
-0.00126506,0.00605478
-0.00472493,0.015944
-0.00287633,0.0139121
-0.000510388,0.0120041
0.00844197,-0.00525962
0.0188477,-0.0231355
0.0228301,-0.0148306
0.0124061,-0.00129996
-0.00298096,-0.00067134
-0.00700408,0.00475923
0.00528322,0.0177473
0.00844468,0.0131865
-0.000746413,-0.0100365
-0.00814315,-0.0183367
-0.00440134,-0.000985617
-0.00161395,0.00405424
-0.00336606,0.00979399
-0.0124549,0.0106306
-0.0442291,0.0148699
-0.048343,0.0194228
-0.0482913,0.0123148
-0.0267336,-0.0286644
0.0238369,-0.0547658
0.0475981,-0.00650974
0.0588451,0.0260206
0.071713,0.0168886
0.0722567,0.0154611
0.0609026,0.0183051
-0.0253671,0.00741275
-0.111241,-0.015917
-0.121583,-0.0205359
-0.109196,-0.00895998
-0.0816499,0.000648813
-0.0193892,0.0105794
0.0705419,0.0189136
0.122484,0.0148152
0.10624,0.0108612
0.0767361,8.9e-05
0.0516813,-0.0235122
0.0185416,-0.0298681
0.00191634,-0.00608981
-0.00849242,0.00211954
-0.0144874,-0.00283452
-0.0128905,0.0047039
-0.0202912,0.00820487
-0.0335884,-0.00614517
-0.035514,-0.0203766
-0.0203409,-0.00834811
0.0323742,0.000803001
0.055992,0.00660666
0.0354187,0.0173284
0.00630334,0.0216312
-0.0128894,0.0122019
-0.023539,0.00988486
-0.0272633,-0.000690149
-0.0234197,-0.0174367
-0.0259296,-0.0137871
-0.0394434,0.000592711
-0.0258644,-0.000456755
0.0102759,0.00280784
0.00586759,0.0095362
-0.00584368,0.00566237
-0.00854129,-0.0145864
-0.020308,-0.021495
-0.0350445,-0.00764322
-0.031856,0.000106404
0.0026754,0.00966495
0.0489841,0.0154954
0.0599717,0.0147152
0.0354429,0.00329616
0.0220578,0.00032449
0.015209,-0.00757192
-0.0081693,-0.0172649
-0.0114871,-0.00963048
-0.00952537,-0.00492655
-0.0371368,-0.00991279
-0.0437096,-0.00403169
-0.0368913,0.00431051
-0.00993018,0.00475033
0.0235046,-0.00930388
0.0472823,-0.00699341
0.0551593,0.0115685
0.00728505,0.0032589
-0.031627,-0.00476175
-0.0199147,0.00670034
-0.00780188,0.00770359
-0.00159633,-6.38e-07
0.0119651,-0.00769887
0.0319027,-0.0231243
0.0302967,-0.0261366
0.0255457,-0.0122627
0.0156352,-0.00967591
-0.00225132,-0.00807444
-0.0127304,0.0116504
-0.0162172,0.0154791
-0.00783307,0.0149753
-0.00176133,0.0115922
-0.00832723,0.0112215
-0.0112033,0.0134436
-0.00823309,0.0252043
-0.000645709,0.0315416
-0.0101684,0.0257857
-0.028915,0.0147331
-0.0555414,0.0152494
-0.0444866,0.00773941
-0.00859316,-0.00822017
0.030963,-0.00851586
0.0424223,0.000906296
0.0251254,-0.00104585
0.00809157,0.00170319
-0.0057491,0.00965151
-0.0219631,0.00634841
-0.023023,-0.013108
-0.0116233,-0.028125
0.00344422,-0.0201681
0.0222735,-0.0139732
0.0287896,-0.00426571
0.0274015,0.00663025
0.0115761,0.0104462
0.000628167,0.00378806
-0.00640234,0.000874592
-0.00551516,-0.0148959
0.00126311,-0.0278781
0.00333704,-0.0141166
-0.000711127,0.00462244
-0.00739026,0.00700057
-0.00477712,0.0134843
-8.05e-06,0.0172252
0.0114046,0.00885768
0.0209246,-0.0127232
0.0239044,-0.0198041
0.0311192,-0.0124447
0.0339923,-0.0100963
0.017648,-0.00112936
-0.00596993,0.00846567
-0.0223309,0.00730326
-0.0210947,0.00925458
-0.0166183,0.00363017
-0.010578,-0.0119569
-0.0121075,-0.0136595
-0.0131855,0.00110638
-0.0106222,0.00561752
-0.0176632,0.00241491
-0.0286698,0.0120517
-0.0316233,0.0169161
-0.0504693,0.000630622
-0.0339845,-0.0184529
0.00110006,-0.0151987
0.0458535,-0.00844809
0.0636632,-0.00408622
0.0599917,0.00563728
0.0461565,0.0104352
0.0104662,0.0036042
-0.014168,-0.00012376
-0.0219187,-0.0113679
-0.020914,-0.0229177
-0.0238709,-0.0168386
-0.0989402,0.000278965
-0.130774,0.00453293
-0.104305,0.00861892
-0.0215872,0.0212626
0.0513391,0.0235607
0.129718,0.00828336
0.156641,-0.00969881
0.106459,-0.0080586
0.0617923,-0.00464115
0.0304772,0.00470679
-0.00400964,0.0168308
-0.0155053,0.019717
-0.00570815,0.00158358
-0.00452604,-0.00416593
-0.0102816,-0.0115878
-0.0140243,-0.0200583
-0.0101708,-0.00992923
0.00146381,0.00210845
-0.0155997,-0.000479502
-0.0291951,0.00536429
0.0119287,0.0186926
0.0117433,0.00954844
-0.00840798,-0.0156573
-0.0190229,-0.0200885
-0.0243782,-0.0118531
-0.0336037,-0.00132593
-0.0680437,0.00781234
-0.0825524,0.0071801
-0.0350439,-9.5e-05
-0.0123321,0.00411918
-0.0302571,0.00875419
-0.00971102,-0.00990207
0.0540688,-0.0148395
0.0717689,0.00131913
0.0654317,0.00989376
0.0664679,0.0130119
0.0464242,0.0153158
0.00856928,0.0165225
-0.0234829,0.000669604
-0.0425299,-0.018589
-0.0233974,-0.0187287
0.00185847,-0.0116134
0.0187637,-0.00666918
0.0258304,0.00578439
0.0169813,0.0125944
0.00817004,0.00757998
-0.00320544,0.00490371
0.000178281,-0.00466387
0.00215148,-0.0207005
-0.00494317,-0.0103231
-0.0115758,0.00465663
-0.011337,0.00953843
-0.00102174,0.0114904
-0.00141353,0.0181476
-0.00871057,0.023887
-0.00949233,0.00194317
-0.00967342,-0.0303009
-0.00941797,-0.0235166
-0.0148854,-0.0143024
-0.0141369,-0.00601236
-0.00344384,0.00924104
0.00193992,0.0171258
0.0142444,0.0118535
0.0201593,0.00807279
0.0251103,-0.00715015
0.0308701,-0.0165597
0.0320042,-0.00395365
0.0275151,0.0112427
0.0118878,0.0212574
-0.00966461,0.0232961
-0.0306408,0.0238742
-0.0377701,0.0102043
-0.0304569,-0.0154202
-0.0393142,-0.0264404
-0.0404928,-0.0224501
-0.0321736,-0.0179201
-0.0238467,-0.00339522
-0.012231,0.00652469
0.00130196,0.00773635
0.00769186,0.00965191
0.00885752,0.00672533
0.00681891,-0.00979264
0.0144541,-0.0111679
0.0155671,0.00710445
0.0180379,0.0136044
0.0540095,0.0123352
0.0648981,0.0153622
0.0350005,0.0146359
0.0160594,-0.00293864
0.0175927,-0.0259918
-0.0234905,-0.0215442
-0.0660616,-0.0105486
-0.0524152,-0.012196
-0.0400891,-0.00468924
-0.0276988,0.00423837
-0.00842434,-0.0058658
-0.00617666,0.00511396
-0.0112397,0.00080728
-0.00394914,-0.0126473
-0.00164005,-0.00506292
-0.00140619,0.013063
0.000277404,0.0134699
0.000856548,0.0146617
0.00425038,0.0199021
0.0051817,0.0191498
0.00615742,-0.00310394
0.00498706,-0.0215021
0.0174364,-0.0152749
0.0281335,-0.0132528
0.0286947,-0.00666968
0.0278345,0.00547423
0.0301785,0.00998745
0.0372705,0.00590403
0.0376944,-0.00167382
0.0330651,-0.0169328
0.0196273,-0.0151313
-0.0174206,0.000743934
-0.0441186,0.0117625
-0.0423662,0.0136397
-0.0193665,0.0137267
0.0115225,0.0176502
0.00585449,0.00747411
-0.00583115,-0.0133284
-0.0231088,-0.0238145
-0.0597713,-0.0168709
-0.0475786,-0.00763544
-0.0220474,0.0045537
-0.0229771,0.00643821
-0.0122091,-0.000945769
0.0196363,-0.00478257
0.0304421,-0.00396905
0.0124865,-0.0175777
0.0263569,-0.0173965
0.0329121,0.0100641
0.0217092,0.0224609
0.0157621,0.0155331
7.6e-06,0.018358
0.0146427,0.0194208
0.0419363,0.00483129
0.060453,-0.0165144
0.0449694,-0.0147715
-0.00788656,-0.00569958
-0.0424392,-0.00316437
-0.0803098,0.00100649
-0.101026,0.00777491
-0.0756261,0.00482038
-0.0533916,-0.000977529
-0.0308728,-0.00855755
0.0258592,-0.0167918
0.0845905,-0.0126373
0.0793521,0.00621337
0.0590803,0.0107528
0.0354627,0.0113283
0.000469131,0.0167563
-0.0173644,0.012139
-0.0129023,-0.00979935
-0.012497,-0.0208672
-0.0151582,-0.0168815
-0.0130265,-0.019844
-0.00186999,-0.00594064
-0.0105287,0.00957702
-0.0282358,0.0153212
-0.0362048,0.0115263
-0.0311881,0.0108706
-0.0174088,-0.0044311
0.00260781,-0.0195122
0.0293675,-0.00755183
0.0358446,0.00772006
0.0253473,0.0100405
0.00909425,0.0159683
0.030424,0.0223536
0.0242629,0.0118376
0.0334355,-0.0095836
0.0485212,-0.0140449
0.0223499,-0.00430314
0.0104163,-0.00204389
-0.0195629,0.00568551
-0.0584371,0.0127125
-0.0590415,0.0103975
-0.0433224,0.00610424
-0.03239,-0.0034408
-0.0314541,-0.0277835
-0.0266858,-0.0326234
-0.0272465,-0.00982988
-0.0265431,0.000831322
-0.020024,0.00165914
-0.0126059,0.010348
-0.00344397,0.0160316
0.0250423,0.0044161
0.0609694,-0.0169672
0.0662974,-0.0160262
0.0591787,-0.00799651
0.0686605,0.00175111
0.0975397,0.0137805
0.0902634,0.0208088
0.0475986,0.011232
-0.0101016,0.00469252
-0.0621271,-0.00658375
-0.0822193,-0.024605
-0.0868463,-0.0211899
-0.0744122,-0.00197633
-0.0552415,0.00128902
-0.0424367,-0.000477844
-0.0394421,0.00803258
-0.0294421,0.00639428
-0.0178498,-0.0148872
-0.00644791,-0.0319357
0.01037,-0.0214056
0.0300763,-0.0131766
0.0472622,0.00221234
0.042823,0.0246725
0.0281602,0.037553
0.0212354,0.034695
0.0320234,0.0299502
0.0764835,0.00921176
0.0905314,-0.00406901
0.0564903,0.00709078
0.00161347,0.01963
-0.0585698,0.019909
-0.0924344,0.022087
-0.0863415,0.0251081
-0.0896305,0.0148971
-0.0746278,-0.01154
-0.0336407,-0.0222205
0.000811683,-0.0146371
0.0238486,-0.0128444
0.0602456,-0.00575202
0.0806086,0.00424455
0.0585326,0.00332124
0.0176442,-0.00205676
-0.0141516,-0.00781189
-0.0138676,-0.0275475
-0.0102615,-0.0328223
-0.0276147,-0.0143093
-0.0481616,-0.00450912
-0.0470951,-0.00336104
0.0184794,0.0090687
0.0805721,0.0176128
0.0788371,0.00691811
0.0494877,-0.0120982
0.00353649,-0.0126653
-0.0361978,-0.00683341
-0.0329485,-0.00147565
-0.0337787,0.00739829
-0.031991,0.0127438
-0.0132637,0.00585327
0.0165274,0.00272584
0.0419213,-0.00687404
0.0291957,-0.0226002
-0.00181706,-0.0197845
-0.0367,-0.00333466
-0.0374976,0.00247484
-0.0045512,0.00312585
-0.0145233,0.0102291
-0.0285265,0.0139693
-0.0219813,0.000897594
0.0136655,-0.0147766
0.040037,-0.0093179
0.0157433,-0.00543958
-0.0126828,0.00447746
-0.0121461,0.01214
-0.00133371,0.0135473
0.0189603,0.00566007
0.0295895,-0.000359304
0.00922428,-0.0116374
0.000931234,-0.0207348
-0.000318956,-0.00807719
-3.15e-05,0.00728823
0.00764547,0.00619283
-0.0127924,0.00964239
-0.0497592,0.0169249
-0.0506889,0.0124746
-0.0243337,-0.0547626
-0.00599195,-0.0335295
0.0115237,-0.0171933
0.020161,0.00154767
0.00525335,0.0232753
-0.0203046,0.0363365
-0.0182581,0.0387483
0.0150845,0.0336004
0.0431588,0.00756508
0.0498487,-0.0108739
0.0844717,-0.00259764
0.105749,0.00286891
0.057225,-0.00239742
-0.0208124,-0.00777693
-0.0833082,-0.0128896
-0.0906438,-0.0313946
-0.040239,-0.0461467
0.0291446,-0.033329
0.0845556,-0.0128296
0.0705653,0.00158381
0.018296,0.0190189
-0.0158728,0.0380312
-0.0137322,0.0440727
-0.0323432,0.0442269
-0.0604226,0.0322233
-0.0868642,0.00594415
-0.0947864,-0.00161698
-0.0556089,0.00691131
-0.01429,0.0014791
0.00848347,-0.00556543
0.0246815,-0.00533726
0.0163958,-0.0123609
0.0150887,-0.0311035
0.0262507,-0.0385819
0.00467796,-0.0234339
0.00991206,-0.00943036
0.0140072,0.00284076
-0.00396493,0.0182448
-0.0176247,0.027377
-0.00857304,0.0327645
0.00994647,0.0316778
0.0229735,0.00738059
0.0305086,-0.0148877
0.0193295,-0.0142208
0.00592739,-0.00605407
-0.000138291,-0.00612597
-0.00176809,-0.00514252
-0.00798022,-0.00618177
-0.0041768,-0.0140511
0.00163665,-0.0292395
-0.0027437,-0.0287631
-0.00726817,-0.00757599
-0.0032136,0.00567782
0.00532195,0.0109281
0.00107451,0.0231343
-0.00753738,0.0313818
-0.0120828,0.0304616
-0.00740885,0.0191142
0.00483169,-0.00935575
0.0168035,-0.0232714
0.024188,-0.0159288
0.016302,-0.0130174
0.0155233,-0.0135496
0.0314473,-0.00822734
0.0469021,-0.00356845
0.0380081,-0.00722543
0.0103775,-0.0189906
-0.0130881,-0.01357
-0.0317556,-0.00313431
-0.0462477,0.00315111
-0.0346754,0.0147024
-0.026442,0.0241325
-0.0275776,0.0277755
-0.0239017,0.0257354
-0.0134379,0.012948
-0.00554432,-0.00608128
-0.00681146,-0.0125303
-0.0148632,-0.00190525
-0.0177632,-0.00285843
-0.00777288,-0.00561651
0.00564313,-0.00426707
0.0163485,-0.00782998
0.0226311,-0.0205226
0.021628,-0.0282083
0.0138011,-0.0146632
0.0281836,-0.00418481
0.0556956,0.00693528
0.0504197,0.0204583
0.0198558,0.0325188
-0.0170282,0.032251
-0.0445499,0.0262577
0.0100382,0.00295907
0.0902617,-0.0160407
0.116707,-0.0137081
0.0576543,-0.0032129
-0.00998441,-0.000224519
-0.0580435,-0.000822679
-0.0901094,-0.00270596
-0.0862415,-0.00705945
-0.10977,-0.0208573
-0.101507,-0.0229506
-0.0654201,-0.0140713
-0.049822,-0.00784333
-0.0304382,0.00185522
-0.0192641,0.0182082
-0.0170175,0.0220734
-0.00495055,0.0193196
0.0356934,0.0146459
0.0824479,-0.004741
0.0899277,-0.0163087
0.0590208,-0.00558348
0.0324422,0.00174793
0.00975297,0.000416872
-0.0226558,0.0051714
-0.0370147,0.010372
-0.0131867,0.000915281
0.0080096,-0.0200626
0.0169426,-0.017675
0.0224365,-0.0058833
0.0188152,0.00359809
0.00838323,0.0155599
-0.000837489,0.0274087
-0.00778805,0.0278219
-0.00691739,0.0206976
-0.00497648,0.00852071
-0.00481071,-0.0121168
-0.00515262,-0.0175504
-0.00562905,-0.0121879
-0.00081196,-0.0132365
0.00626066,-0.0104968
0.00600646,-0.00487091
-0.00248179,-0.0104498
0.00152351,-0.0179274
0.0153102,-0.0138365
0.0191859,-0.0033385
0.0090005,-0.000630413
-0.00365821,0.00795808
-0.0302199,0.0188213
-0.0390132,0.0250726
-0.0238129,0.0210347
0.00315252,0.0150537
0.0217915,-0.00125635
0.0318297,-0.0170357
0.0296242,-0.0129683
0.0231538,-0.00369628
0.00623241,-0.00447114
-0.0107216,-0.00123979
-0.0118052,0.00433467
-0.00527317,0.00443619
0.00453439,-0.00789546
0.0119566,-0.0197361
0.0191863,-0.0126555
0.0162257,-0.00342836
0.0071711,0.00739694
-0.00390046,0.0182503
-0.0106028,0.0249129
-0.0104486,0.0188793
-0.0119762,0.00848269
-0.0170829,-0.0124495
-0.0203109,-0.0213666
-0.0178713,-0.00711376
-0.0105668,-0.00323844
-0.0017462,-0.0107406
0.00226456,-0.00692863
0.00623669,0.00158507
0.00641893,-0.00429581
0.0117297,-0.0154305
0.0158133,-0.0086431
0.0135979,0.00133973
0.00952066,0.00572613
0.000406677,0.0157953
-0.0055586,0.0229263
-0.00770742,0.018717
-0.00973765,0.0135865
-0.010703,0.000947355
-0.0128463,-0.0181006
-0.0180404,-0.0210543
-0.0238587,-0.00824511
-0.0183741,-0.00504592
-0.00708582,-0.00690515
0.00398407,-0.000437935
0.0111112,0.0031569
0.0167271,-0.00337877
0.0184742,-0.0140283
0.0173893,-0.00393742
0.0170076,0.00371397
0.0104674,0.0104341
-0.000276329,0.0201405
0.00211055,0.0286471
0.00720375,0.0241544
0.000730915,0.017087
-0.00456897,-0.00155744
-0.00216703,-0.020902
-0.0136607,-0.0188211
-0.0270279,-0.0104817
-0.0221881,-0.0109451
-0.0140339,-0.00747416
-0.00985223,-0.00336732
-0.00265491,-0.004598
0.00708228,-0.0128259
0.00975395,-0.0208007
0.0108828,-0.00795311
0.012352,0.000654152
0.0078279,0.0100172
-0.000989118,0.0228662
-0.00527974,0.0237662
-0.00105185,0.0178894
0.00428059,0.0119474
0.0134534,-0.00743548
0.0239584,-0.0173572
0.0248461,-0.00788831
0.0182112,-0.00309725
0.00570056,-0.00551718
-0.0010315,9.66e-05
-0.005017,0.0063518
-0.00799768,0.00437117
-0.0101431,-0.00463551
-0.00899575,-0.00487332
-0.00522436,0.00604689
-0.0113834,0.00438866
-0.017931,0.00807818
-0.0150948,0.0178813
-0.0100292,0.0131065
-0.0102357,0.00758974
-0.0162924,0.00105152
-0.0159115,-0.0144719
-0.00673997,-0.01612
-0.00394772,0.000238015
-0.00278159,0.00346965
0.00355498,0.00384242
0.00874146,0.00112578
0.00805073,-0.00254794
0.0156657,-0.0122711
0.0225206,-0.0215073
0.0207901,-0.0129857
0.0181382,-0.00310079
0.0179085,0.00511546
0.0110583,0.017248
0.000323322,0.0105647
-0.00611005,0.00264147
-0.0129741,0.000261093
-0.0102747,-0.0106121
-0.00694284,-0.0194638
-0.0124486,-0.0115729
-0.0143912,-0.0121108
-0.0110267,-0.0123028
-0.00447856,0.008685
0.00872992,0.0259295
0.0156495,0.0159598
0.0150339,-0.0132936
0.0209922,-0.0166878
0.0206016,-0.00401169
0.00939243,-0.000223303
-0.00467189,0.00367795
-0.013891,0.0179138
-0.0175651,0.0180873
-0.0178175,0.00336932
-0.015748,-0.00601856
-0.000498859,-0.0146042
0.00681985,-0.0241781
0.0120358,-0.016046
0.0167283,-0.00501511
0.0099927,-0.00924124
0.00530874,-0.00688463
0.000490606,-0.00068031
0.00156253,0.0082393
0.00481945,0.0103845
-0.00147298,0.0132192
-2.13e-05,0.0112727
0.0145822,0.0152059
0.0248429,0.0280916
0.0257385,0.0249359
0.00768991,0.0286251
-0.0204128,0.0273416
-0.0431356,0.0134563
-0.0532665,-0.00175749
-0.0506261,-0.0129216
-0.0434914,-0.00792646
-0.0311199,-0.00465162
-0.0139175,-0.00304561
0.0025003,0.00308919
0.0216221,0.0102152
0.0291804,0.00261182
0.0227573,-0.0204497
0.00906189,-0.0168543
0.00267115,-0.0146886
-0.00899451,-0.00924345
-0.0117691,0.0025593
-0.00438493,0.00928989
-0.008332,0.0062456
-0.00399663,0.00362297
0.00167842,-0.00921128
0.00805737,-0.0239133
0.00838861,-0.0352658
0.00797321,-0.0145781
0.0175387,0.0127559
0.025019,0.0104142
0.0215455,0.00763063
0.00266011,0.0127596
0.00442716,0.0058254
0.00555254,-0.00633395
-0.000277073,-0.00855063
0.0114049,-0.00830281
0.0133654,-0.00789162
-0.00180629,0.00183509
-0.00351238,0.0086771
0.00450685,0.00729026
-0.00134038,0.00565665
-0.00797323,-0.00629139
-0.00587792,-0.0134308
0.00230675,-0.00721918
-0.00124196,0.00254637
-0.000938048,-0.00205484
0.00763998,0.0128206
0.0127744,0.0241979
0.00580147,0.0122868
-0.0022783,-0.0163729
-0.0108353,-0.020723
-0.0107325,-0.00837633
-0.0138962,-0.00459379
-0.0135816,0.00201886
-0.00494109,0.0124518
-0.00304004,0.00496426
-0.00829716,0.00126953
-0.0106359,0.00189608
-0.0152452,-0.0106958
-0.0120662,-0.0219736
-0.00503245,-0.0100941
0.00296957,-0.00402289
0.0252083,2.34e-05
0.0274428,0.0097516
0.0109954,0.0133743
0.0150577,0.000357815
0.0281242,-0.0127374
0.0324121,-0.00588966
0.027478,0.00185133
0.0288838,0.0149052
0.0157056,0.0196179
-0.0132452,0.00124524
-0.0112214,0.00830275
-0.00800231,0.0171593
-0.0259371,-0.00144314
-0.0475234,-0.0222049
-0.0314031,-0.0201202
-0.0102427,-0.00155557
-0.00705772,-0.00319783
-0.00247827,0.0103595
0.0390537,0.0348362
0.0672782,0.0291073
0.0391907,-0.00728613
-0.0418417,-0.0327961
-0.145159,-0.0198509
-0.168545,-0.0192064
-0.120166,-0.0130184
-0.0442725,-0.00739082
0.058277,-0.00372321
0.124462,0.00464973
0.107987,0.00850344
0.047079,-0.00152921
-0.049438,-0.00243803
-0.0871238,-0.0142661
-0.0547384,-0.0186547
0.00775961,0.0212762
0.0481696,0.0273182
0.0693356,0.00272167
0.0850971,0.00854965
0.0824245,0.00725164
0.0563658,-0.00171272
0.0314011,0.00536523
0.0154946,0.000929543
0.0107004,0.000848678
0.0121391,0.01622
0.00510931,0.0257487
-0.00195782,0.0155783
0.00486123,0.00488535
-0.00557179,8.9e-05
-0.0329449,-0.000710035
-0.0516149,0.00149249
-0.0349807,-1.9e-05
-0.00958408,0.0130306
-0.0065174,0.00050828
-0.0248374,-0.0272979
-0.0217995,-0.0240827
-0.00769741,-0.0270506
0.0174098,-0.00902477
0.0199232,0.00470567
0.0130605,-0.00171532
-0.011533,0.00991138
-0.0272601,0.0135031
-0.0336884,-0.00318552
-0.00987072,0.000177018
0.0183145,0.00794815
0.036357,0.0219797
0.0226307,0.0081609
0.00644087,-0.0309545
0.00548964,-0.0165592
-0.0462804,0.00466127
-0.102767,0.0137568
-0.127157,0.0125702
-0.119437,-0.00654784
-0.0566043,-0.0414356
0.0606636,-0.0191321
0.132817,0.00654607
0.101531,0.0221395
0.0793605,0.00876323
0.0644358,0.0146401
0.00850694,0.0031692
-0.0451488,-0.0271115
-0.0324159,-0.0278108
-0.00932738,-0.0197425
0.0177122,-0.00622219
0.036015,0.00891571
0.0190689,0.0109632
-0.0436239,-0.00747666
-0.0920367,-0.0147023
-0.0372425,0.00536226
0.020793,0.0328395
0.0276465,0.0364473
0.0718176,0.039409
0.0835782,0.0105233
0.0461452,0.0238126
-0.000815354,0.0413639
0.00187217,0.0305109
-0.00589848,-0.0102519
0.00164682,-0.0391789
0.0134927,-0.0509021
-0.00526594,-0.0396112
-0.0419216,-0.0123695
-0.057766,-0.00272598
-0.0232397,-0.011341
0.0467243,-0.0110051
0.102516,0.00158918
0.0832539,0.0104034
0.022439,0.00942523
-0.0435577,0.0182849
-0.0890368,0.0109413
-0.0903612,-0.00910866
-0.11441,-0.0121591
-0.124413,0.007672
-0.0711922,-0.00725202
-0.0221241,-0.00790911
0.0279576,-0.00148629
0.0365552,-0.00939023
0.0563262,-0.00945037
0.0677261,-0.00207026
0.0730393,-0.0188706
0.0792478,-0.0153846
0.0574391,0.00183809
0.0224674,0.000252177
0.0186854,-0.00827102
0.0295049,6.73e-05
0.0242758,0.0206367
0.0041213,0.00598381
-0.0166834,-0.0115314
-0.0424635,-0.0026729
-0.0374276,0.0210835
-0.0528956,0.00405691
-0.0649629,-0.0122732
-0.0196634,-0.0249581
0.0309907,-0.0341225
0.0168666,-0.00309525
-0.000694148,0.0212347
0.0382962,0.0475956
0.0482175,0.0397429
0.0200934,0.0131381
-0.00150201,0.009513
-0.0325474,-0.00323967
-0.0594365,-0.00327984
-0.0744332,-0.00672744
-0.0696724,-0.00499874
-0.0333868,0.0254086
-0.0381653,0.017014
-0.0135443,-0.0110835
0.054328,-0.0304434
0.110381,-0.0122085
0.0963486,-0.00322461
0.0234057,0.0111466
-0.0224315,0.00889853
-0.080585,0.0116159
-0.149101,0.029096
-0.138447,0.0305812
-0.0352571,0.00975719
-0.00776716,0.00396401
-0.0919768,0.00902721
-0.0966753,0.00419695
-0.069257,-0.0472108
0.0539322,-0.0447562
0.176119,-0.0349397
0.259131,0.00905463
0.292819,0.0166706
0.217536,-0.0147812
0.0992403,-0.0418724
0.0131529,-0.0155576
-0.0629591,0.000483532
-0.0799132,-0.0131417
-0.0325927,-0.00776828
-0.0241781,-0.0228452
-0.0190975,-0.00579605
0.00703911,0.0362488
0.014853,0.0233678
0.00217591,0.00358516
-0.0172601,0.00542555
-0.0239755,0.0115142
-0.0105658,0.0132341
-0.0181211,0.0149932
-0.0425393,0.0205213
-0.0480974,0.0203205
-0.0476726,0.0154327
-0.0635127,0.00142075
-0.0624997,-0.00737396
-0.0394021,-0.00999199
-0.0386943,-0.0222907
-0.0178545,-0.022711
0.0106655,-0.0034821
-0.0309023,0.0100729
-0.0867792,0.00423149
-0.0536237,-0.00764043
0.0104629,-0.0101189
0.0635644,0.000975216
0.0870697,0.00772627
0.0686046,0.0104554
0.0226311,0.00375267
0.00196373,-0.00263186
-0.00662996,0.00749401
-0.00978552,0.0100129
-0.00110085,-0.0177777
0.00868709,-0.0179015
0.0144038,-0.00309483
0.0163925,0.000896128
0.00592309,0.000182201
0.00405417,0.011868
0.0259566,0.0289883
0.0305302,0.00852363
0.00402137,-0.00448717
-0.034035,0.0111027
-0.0327368,0.0182599
-0.0228019,0.00895479
-0.0142628,0.00579563
-0.0121463,-0.00612064
0.00450899,-0.018146
-0.00375042,-0.0153307
-0.00176002,-0.0124448
0.0105761,-0.0210418
0.00899632,-0.0225587
0.00603028,-0.0129003
0.012473,-0.0128878
0.026029,-0.00669943
0.0221458,0.000744674
0.000504449,-0.00460312
-0.00201585,-0.00665646
-0.00580534,0.00220152
-0.0369457,0.0101406
-0.0412508,0.00574682
-0.0105527,-0.00294573
0.0189209,0.00602017
0.0416494,0.0166815
0.0238668,-0.0108439
-0.00204958,-0.0173399
-0.033086,0.000663923
-0.0355228,-0.00263144
-0.0246079,-0.000373674
-0.0121089,-0.00709313
0.0446416,-0.0120043
0.0500264,0.0181977
-0.0269429,0.033764
-0.0409469,0.0210198
-0.0160689,0.00292663
0.0259891,0.00393959
0.044677,0.0155116
0.0802164,0.0117979
0.0720613,0.0171132
0.0164617,0.0332678
-0.0179537,0.0320817
-0.00973917,-0.0177635
0.0052786,-0.0343566
0.00416478,-0.0288154
0.0033078,-0.059584
-0.00598392,-0.0327468
-0.0455133,-0.00316676
-0.0620236,0.020767
-0.0365035,0.0293929
-0.00942142,0.0155505
0.0246793,-0.00141378
0.0574631,0.0070266
0.0733491,0.00344803
0.0472623,-0.00561723
-0.0338303,0.00164811
-0.0621783,0.00272821
-0.0768206,0.0139901
-0.0757335,0.0288461
-0.0578966,0.0262555
-0.0327058,0.00304156
-0.042835,-0.0388466
-0.097467,-0.0477763
-0.0983522,-0.0241091
-0.0722598,-0.00304547
0.00269803,-0.00247292
0.118444,-0.00504135
0.193149,0.00580966
0.19615,-0.00314038
0.14387,-0.025865
0.0767932,-0.0146576
-0.00683349,-0.0121841
-0.0880456,-0.00787709
-0.129496,0.010064
-0.0841368,0.0142209
-0.00201681,-0.00401359
0.0571098,0.000274715
0.0880022,0.00278288
0.0745312,0.00266522
0.0397862,-0.00479288
0.0215501,-0.00880353
0.00569287,0.000136252
-0.0169835,0.0114445
-0.0452021,0.0218879
-0.0622044,0.00496566
-0.0483925,-0.0103398
-0.0354821,-0.000675948
-0.0205486,0.00582622
-0.00932854,-0.00533951
-0.013709,0.0419311
-0.0271204,0.0644928
-0.0286299,0.0276541
-0.0184089,0.010662
-0.0158593,0.024238
0.00454621,0.008099
0.023368,-0.0071256
0.0137358,-0.000141279
-0.000765953,0.00280362
-0.00388254,0.00174036
-0.0106535,0.00114469
-0.0111251,-0.00022373
-0.00161997,-0.00708111
0.00314735,-0.0218763
0.000858458,-0.0207788
0.000508827,-0.0141944
0.00610221,-0.0115113
0.0231395,-0.00692361
0.0287387,-0.000401069
0.0194731,-0.000390387
0.00640554,0.00183694
0.00181185,-0.00371248
0.0116292,-0.0236055
0.0266555,-0.019153
0.0201831,0.0059671
0.00284123,0.00157215
-0.0221982,-0.0048033
-0.041804,0.011741
-0.0206663,0.0215511
0.00138887,0.014126
0.0133796,-0.00281404
0.00323062,-0.0247384
-0.0239443,-0.0395805
-0.0505231,-0.033002
-0.0422192,-0.00784955
-0.00997491,0.01267
0.0144629,-0.0193098
0.0477755,-0.00760215
0.0751661,0.00841085
0.0600591,0.00612274
0.00175042,0.0017205
-0.0287143,0.00498925
-0.00777399,0.0120403
-0.00384338,0.00302061
-0.0349829,-0.00107102
-0.0801275,0.00458703
-0.0590751,-0.00231887
-0.013437,-0.0141877
0.0191525,-0.00586111
0.051429,-0.00424653
0.072057,-0.00919557
0.0645836,0.0012341
0.0529374,0.0101555
0.0456259,0.0170038
-0.00732674,0.0193357
-0.0340111,0.0153451
-0.0121471,-0.00864124
-0.00581006,-0.00218707
-0.0318576,0.00999875
-0.0695054,0.0166005
-0.0995025,0.0106965
-0.0648831,-0.00442423
-0.0126943,-0.00339449
0.0542097,-0.0222793
0.0811778,-0.0254703
0.0479707,-0.0111568
0.0402316,-0.0245204
0.0278073,-0.0282808
0.0168785,0.0227628
0.0147392,0.0374725
0.00886331,0.0301813
0.00683552,0.0201346
0.0182217,0.00525518
0.0269021,-0.00276164
0.0145747,0.0127535
-0.0192035,0.0271835
-0.0632047,0.0243601
-0.0713563,0.0283435
-0.0758788,0.0267662
-0.0495539,-0.00938854
-0.0138873,-0.0313686
-0.012541,-0.014891
0.0118375,-0.00924775
0.0322853,-0.0148292
0.0347588,-0.0054768
0.00259624,-0.00406721
-0.0158563,-0.0252086
0.00999721,-0.0318652
0.0277503,-0.0162005
0.0395013,-0.0124306
0.0411074,-0.00861761
0.0288492,0.00842254
0.0172393,0.0146999
0.00222655,0.016583
-0.00428698,0.022139
-0.0207124,0.012533
-0.0282553,-0.00632876
-0.0291529,-0.0147152
-0.0214324,-0.00636173
-0.00173279,0.000919202
0.00415559,0.00571639
0.00254335,0.0152504
-0.00730733,0.00626501
-0.0213933,0.00116876
-0.0200184,0.0075503
-0.0133184,-0.0042345
-0.00592357,-0.0106656
0.000331908,0.000344606
0.00329173,0.00820037
-0.00309114,0.00836391
0.00165779,0.0151709
0.0278856,0.020007
0.0420695,0.00497904
0.0314329,-0.0152178
0.0122267,-0.0181107
0.00252986,-0.015969
0.00639409,-0.0156114
0.0153331,-0.00774651
0.0110749,0.000119818
0.00818729,-0.00414518
-0.0190787,-0.00265091
-0.0384546,-0.00789451
-0.0198767,-0.0164712
-0.00328827,-0.00608467
0.00355573,0.0155327
0.00150211,0.00593303
0.00215328,-0.00792409
0.000267139,0.00667747
0.00314552,0.016868
0.00931885,0.015516
0.000323449,-0.0175321
0.00486663,-0.0418532
0.0112325,-0.0228663
-0.024069,-0.00498884
-0.0279887,0.0115288
-0.00759919,0.0217795
-0.00434246,0.00733141
-0.00184981,-0.000216574
-0.0213305,3.32e-05
-0.0108425,-0.00959952
0.0148858,-0.0125266
0.0176258,-0.00580175
0.0196212,-0.00395353
0.0226119,0.00888275
0.00703036,0.0190553
-0.0135997,0.0141509
-0.0198828,-0.00877136
-0.0232885,-0.0281638
-0.0274865,-0.0140636
-0.0204412,0.00549868
-0.0121629,0.0333196
-0.000169779,0.0275419
0.00570469,0.00286071
-0.000189007,-0.0113798
-0.014946,0.00787515
-0.0581714,0.00154123
-0.0425965,-0.00776347
-0.00311107,0.00769161
-0.019569,0.00790587
-0.0139299,0.0103072
0.0564406,0.0227848
0.109688,0.00564223
0.118249,-0.00525436
0.0874513,0.00420516
0.0425597,0.00103211
0.00921672,-0.0130224
0.00449024,-0.0121392
-0.0072469,-0.00741056
0.00787864,0.00564443
0.00555659,0.0184364
-0.0616978,0.00525859
-0.113499,-0.0066745
-0.0744038,-0.00142642
-0.00559971,0.00824472
0.0152202,0.00637805
0.00366238,-0.014673
0.00433733,0.00519497
0.00341621,0.0195931
-0.00192865,-0.00212741
0.0387353,-0.0243185
0.0154847,-0.0241314
-0.0109008,-0.00987641
-0.00629912,-0.00675056
-0.00490583,-0.00336487
-0.00668121,0.00511588
-0.00647878,0.00902165
-0.000916704,0.00792407
0.0102638,0.013485
0.0287988,0.0101589
0.0381548,-0.0170211
0.0292643,-0.0326738
0.00484888,-0.0176441
-0.00730664,-0.00378131
-0.0186876,0.0103958
-0.0362395,0.00152349
-0.0257914,-0.00662763
-0.00439406,0.00334833
0.0112366,-0.000573372
0.0153925,0.00596858
-0.0228651,0.010909
-0.0539791,0.0197514
-0.0309282,0.0395603
0.0108784,0.0335363
-0.00586748,0.00726802
-0.0362083,-0.00928775
-0.0455825,-0.0297112
-0.0596899,-0.0389137
-0.0141244,-0.0320057
0.0524261,-0.0119967
0.0949644,-0.00150315
0.0923534,-0.0037278
0.0626557,-0.000398491
0.0282726,0.0107795
0.0118497,0.00340597
0.0137165,-0.0125825
0.0154665,0.00833853
-0.0155429,0.0128115
-0.0318751,0.0160885
-0.00189136,0.0163604
0.00249465,0.0130986
-0.0101911,0.0114299
-0.0172697,0.00337098
-0.010835,-0.0110112
-0.00976933,-0.0113188
-0.0156477,-0.0026843
-0.00796647,-0.00834924
-0.0109816,-0.00541561
-0.0140231,0.00868052
-0.0102891,0.00840389
-0.0161467,0.000649881
-0.0195838,-0.00724673
-0.0138239,-0.00787141
-0.00384484,-0.00548487
0.00268592,-0.00578968
0.00822026,-0.000442291
-0.00856744,0.0101579
-0.0273999,0.00349572
-0.0133407,-0.00230424
0.0165754,0.0045759
0.0166419,-0.0104071
0.00757971,-0.010984
0.015787,0.000778321
0.0343647,-0.00477624
0.0446773,-0.00208638
0.0304475,0.00755757
0.000293532,0.0105589
-0.0270365,0.00108921
-0.0261882,-0.0117685
0.00639356,-0.00652387
-0.0118693,0.00191504
-0.0490508,-0.00653286
-0.0439121,-0.00238971
-0.0259693,0.0154872
-0.000145608,0.0170726
0.0162776,0.00845487
-0.02228,-0.00878761
-0.0194574,-0.0184969
0.0123162,-0.00556635
0.0491745,0.00601632
0.0636571,0.00429992
0.0448959,0.00380593
0.0433542,-0.00895054
0.0223171,-0.0165145
-0.0455706,-0.00287763
-0.0811282,0.00192309
-0.0672498,0.00596844
-0.0235862,0.00954585
0.0120063,0.0120277
0.0411315,0.0171487
0.0684117,0.0174886
0.0720104,0.0112159
0.0535431,0.00727588
0.028766,-0.0116255
0.00644619,-0.0228118
0.00676988,-0.00165666
0.0169814,0.00626031
0.0107499,-0.0025739
-0.0419041,0.000238869
-0.0928469,0.0185096
-0.119641,0.000641587
-0.103883,-0.0302247
-0.0592569,-0.00869341
0.00396596,0.00493287
0.0802686,0.00990137
0.113229,8.92e-05
0.0717428,0.00553298
-0.0105227,0.0137907
-0.0518601,-0.000151685
-0.0115944,-0.0194002
0.0309446,-0.0210809
0.0365492,-0.0112339
0.0158064,-0.00160789
-0.00341916,0.000405745
-0.0278487,0.012181
-0.0525571,0.0125272
-0.0489334,-0.0291703
0.00337374,-0.0231685
0.0432549,-0.0108424
0.0311971,-0.00998253
0.0183031,-0.00843981
0.0157105,0.0130118
0.0255773,0.0259719
0.0251308,0.0275065
-0.000503427,0.0254856
-0.0107301,0.018315
-0.000189067,0.00806531
0.00391805,-0.00654149
-0.0217376,-0.0131328
-0.0352164,-0.00666759
-0.0263738,0.00521055
-0.0351245,0.00190346
-0.0178785,-0.0213994
0.0197834,-0.0312788
0.0400866,-0.0304137
0.0457947,-0.0217935
0.0313174,-0.00969133
0.0284452,-0.000187874
0.0263738,0.0102604
-0.00237236,0.00920794
-0.0208978,0.00093672
-0.0135064,0.00845871
-0.0092497,-0.00407591
-0.00915931,-0.0153872
-0.0268123,0.0262535
-0.0891827,0.0360777
-0.132495,0.0220006
-0.113721,0.0128498
-0.0548049,-0.000276524
0.0129887,-0.00443321
0.080043,-0.00325216
0.135749,0.00376706
0.0951193,0.0023044
0.0425797,-0.000889689
0.023484,-0.00139658
-0.011864,0.0167076
-0.0380363,0.0396089
-0.0323579,0.0237382
-0.00716675,0.00695375
0.016348,0.0101521
0.0412704,0.0109748
0.0391194,0.00801501
0.032425,-0.000137306
0.0497019,-0.00694164
0.0167032,-0.00647738
-0.0913882,-0.0105963
-0.121409,-0.0273557
-0.0597687,-0.038664
-0.00242673,-0.0319601
0.0218775,-0.0114762
0.0329966,0.00746117
0.0388653,-0.000660349
0.0160745,0.00927191
-0.021032,0.00653101
-0.0455857,0.0106727
-0.0431589,0.00490139
-0.0189765,-0.0288947
-0.0110455,-0.026422
0.0177601,0.0126046
0.0641082,0.0368739
0.0902687,0.00561031
0.0555325,-0.01166
-0.00276976,-0.0167911
-0.00290173,-0.0234368
-0.0535856,-0.0324128
-0.135989,-0.018678
-0.130455,0.0118204
-0.0746149,0.011221
0.0154934,0.0212379
0.115793,0.0267771
0.149349,0.020494
0.113102,0.00962131
0.0396476,-0.011229
0.00993609,-0.0186678
0.0146198,-0.00655332
-0.00692591,0.000601173
-0.00637807,-0.00890057
0.00425182,-0.00971067
0.00110855,-0.0011118
0.00830841,-0.00607729
-0.00212875,-0.0169459
-0.0520561,-0.0171304
-0.0845184,0.00282956
-0.0735689,0.00763131
-0.031549,0.00810392
-0.0060466,0.0244123
0.0282496,0.014852
0.049075,0.0134281
0.047056,0.00764497
0.0354151,-0.0137971
0.00673614,-0.0165975
-0.00537309,-0.00377161
0.00293642,0.00244746
0.018704,-0.00218138
0.0381709,-0.000371419
0.0375323,0.000875085
0.0209485,-0.00679471
-0.0259541,-0.00927037
-0.0604214,0.000248003
-0.0646998,0.00518108
-0.0451832,0.00822466
-0.0387999,0.00651141
0.0142243,0.000186043
0.0456071,0.00171755
0.0130193,0.00290696
-0.0177383,-0.00854299
0.0114381,-0.00184675
0.00729668,0.00415801
-0.00687635,0.00620874
-0.00214566,0.0150237
0.0100185,0.0209838
0.010305,0.0100667
0.0118988,0.00901935
0.0129884,-0.00404625
0.0105725,-0.00970315
0.00409089,-0.00299464
0.000168247,-0.00979648
-0.00347215,-0.000328047
-0.00672951,0.00972978
0.00141368,0.0120882
-0.0110619,0.00236826
-0.0455342,-0.00858298
-0.0325019,-0.00512139
-0.00376018,0.00325255
0.000619699,-0.00235923
-0.039982,-0.0190134
-0.0760848,-0.0141364
-0.0492439,0.00862379
-0.0201897,0.0153666
0.0162883,0.00228801
0.0476914,-0.0115662
0.062574,-0.0128368
0.0607799,-0.00610012
0.0437648,0.00746279
0.0254645,0.0144938
0.02513,0.0231389
0.0131159,0.0147866
-0.0296592,-0.00186984
-0.0295768,-0.0217063
-0.00863371,-0.0384393
0.00186169,-0.0272425
0.00818046,0.00889863
-0.0001594,0.0100093
0.00289514,0.0028144
0.0129031,0.024064
-0.00213849,0.0151798
-0.0118929,-0.0136293
-0.0106854,-0.0205192
0.00049707,-0.0140277
0.0107324,-0.0124802
0.0298446,-0.00908111
0.0420595,0.00589903
-0.0099318,0.0189594
-0.0545424,0.0110058
-0.0249491,0.00242794
0.0214845,-0.00440559
0.0196017,-0.00342985
-0.0191627,-0.00295471
-0.0271432,-0.00124088
0.0048295,0.0162645
0.0243513,0.0269817
0.00752567,0.00602254
-0.0397884,0.00371618
-0.0388577,-0.00236093
-0.0225757,-0.033316
-0.0115016,-0.0263997
0.0191223,-0.00599556
0.0159415,0.0031484
-0.0566015,0.00689428
-0.0828505,0.00350017
-0.0582575,0.00895633
0.00187863,0.011017
0.0589269,-0.00725046
0.068487,-0.0119494
0.0557295,0.00848444
0.0535285,0.0223063
0.0417521,0.0234685
0.0112317,0.00784122
0.0250555,0.000276239
0.0261236,-0.00872725
0.0350739,-0.0165522
0.0301812,-0.0159521
-0.031636,-0.00849034
-0.0634697,-0.00856839
-0.0433637,-0.00733644
-0.00851803,0.0095246
0.0253061,0.0132851
0.0299329,0.0124642
0.010371,0.00117064
-0.00262904,-0.0168296
-0.0104018,-0.0125972
-0.0137999,0.00404029
-0.0148142,0.00978793
-0.0114981,0.0126625
0.00549079,0.0174878
0.00174411,0.0161291
-0.0140327,-0.000363927
-0.007417,-0.0166208
0.00247565,-0.0248222
0.00766978,-0.0112473
0.0180268,0.0041644
0.0297087,0.00888966
0.0322052,0.0101778
0.00612409,0.00534244
-0.0192405,0.0115342
-0.0706443,-0.012881
-0.120114,-0.0363756
-0.0880808,-0.0123958
-0.0029653,0.0150361
0.0565844,0.0153214
0.0818462,0.0074859
0.0818428,0.00793643
0.0320516,0.00903018
-0.0244694,0.00228925
-0.00936346,-0.0187704
0.0219111,-0.0238564
0.0108599,-0.00669067
0.00733283,0.00540593
0.00319809,0.0116851
-0.034656,0.00628874
-0.0562566,0.00935721
-0.045748,0.0102934
-0.0287603,0.00503812
-0.0268841,-0.00283486
-0.0201257,-0.0088797
0.00752945,0.00457937
0.0204553,0.0067367
0.026044,0.00456082
0.0627201,0.00125299
0.0621616,-0.00913127
0.00161013,-0.032241
-0.0184494,-0.0181223
0.00292101,-0.00565634
0.0176394,-0.0119976
0.0112224,0.0014799
0.00248461,0.0140321
-0.00245454,0.00999721
-0.00741078,0.00131642
-0.00410394,0.000238143
0.00982106,-0.00126701
0.00804543,-0.000312458
-0.0203755,0.00885644
-0.0598857,0.00714743
-0.0651222,0.00313163
-0.0317296,0.00650811
0.0052262,0.0105092
0.0377679,-0.00190737
0.0601466,-0.0102507
0.0608034,-0.00140819
0.0334405,-0.00188358
0.0145976,0.00224151
0.00178576,0.0106888
-0.0152411,0.0189592
-0.0228796,0.0186068
-0.023094,0.014916
-0.0598074,0.00126866
-0.0729356,-0.00779504
-0.0449646,-0.00397242
-0.00498827,-0.00270145
0.0337049,-0.0186261
0.0301753,-0.0151449
0.0281602,-0.00356819
0.0324169,0.00485004
0.0131212,-0.00148422
0.00183547,-0.012793
-0.00181187,-0.0136576
0.00789674,-0.00716782
0.0191741,-0.00879325
0.0304652,-0.00433731
0.0281029,0.00490968
0.0364174,0.00403326
0.0283679,-0.00598607
-0.0601972,-0.0110432
-0.116785,-0.00229542
-0.0707537,0.0144524
0.00379874,0.0158171
0.0487957,0.0193795
0.0954825,0.0136057
0.100841,0.00325951
0.0190053,-0.00515761
-0.0541732,-0.019229
-0.0557697,-0.0365305
-0.0536778,-0.0208078
-0.0454101,0.0187464
-0.044816,0.0133756
-0.0168824,0.000352435
0.0177792,0.000706907
0.0338573,0.0114051
0.0656423,0.0133202
0.0777459,0.000433908
0.0454742,0.000739609
-0.0696692,-0.00554642
-0.102311,-0.00451252
-0.0451588,-0.00123002
0.00781691,0.00106693
0.0467358,0.021527
0.0326062,0.0237266
-0.0567956,-0.00101485
-0.104982,-0.00289911
-0.0591929,-0.00142258
0.0338896,-0.00707844
0.10185,0.0171176
0.1124,0.0129887
0.0728715,-0.00514277
0.0309283,-0.0110004
0.000897948,-0.0170225
-0.0102384,-0.0244798
-0.00948439,-0.0166567
-0.00692658,-0.00261166
-0.00925504,-0.00270153
-0.00738959,0.000717616
-0.0121468,0.00989325
-0.011384,0.00670919
-0.00792289,-0.0053128
0.000561895,-0.0103891
0.00725691,-0.00208775
0.00392283,0.000383848
0.0105922,0.00497867
0.0195335,0.0143347
0.0131291,0.0162322
-0.00743753,0.0113108
-0.0239533,0.00547476
-0.0225522,-0.0117511
-0.0134995,-0.018929
-0.00701855,-0.00580284
-0.00942822,0.000530804
-0.0443829,-0.00111784
-0.0963254,0.00522972
-0.0833498,0.00751035
-0.0358047,0.00168179
0.0243332,-0.00727117
0.0670275,-0.00839243
0.0887337,-0.00149171
0.0637433,0.00129216
0.0274761,0.00569517
-0.000556359,0.0117654
-0.00949506,0.00822914
-0.000229686,0.00301985
0.00164347,-0.0120255
-0.0279375,-0.0246346
-0.0574159,-0.0232159
-0.0551628,-0.0123443
-0.00627115,-0.00771039
0.059886,0.00325704
0.068299,0.0110567
0.0306779,0.0103705
0.0121363,-0.00660802
0.00871327,-0.0125008
-0.00291345,-0.00817339
0.0108852,0.00721539
-0.000216457,0.00592802
-0.0163384,-0.0072846
-0.0267869,0.00973425
-0.0224178,0.0266605
-0.0257606,0.0216329
-0.0125683,0.00657262
0.0111994,0.00829269
0.0175844,0.0099027
0.00446103,0.012478
-0.00807222,0.0193623
0.00176422,0.0155325
0.00245516,0.00679226
0.00978559,0.00787831
0.0165948,-0.00185616
-0.0105276,-0.0158719
-0.0297658,-0.00164885
-0.0315758,-0.00429157
-0.0340613,0.00186369
-0.0383985,0.00135966
-0.0501847,0.00259679
-0.0516561,0.0139049
-0.0224831,0.0112573
0.0147782,-0.0236357
0.0485001,-0.0343189
0.0880008,-0.0120683
0.085176,-0.00615491
0.0403337,-0.00993743
0.0264452,-0.00134968
0.0150539,-0.000274566
-0.00850778,-0.0150497
-0.0069819,-0.0163842
0.00768791,-0.00012
0.0123629,0.00337942
-0.0115244,0.00436435
-0.023851,0.0143435
-0.000745617,0.0197449
0.00920055,0.0123916
0.00804671,-0.00050533
0.00153962,-0.00949791
0.00465732,-0.0116144
0.0295478,-0.0188948
0.0215868,-0.0163523
-0.00023048,-0.00847198
0.00582678,-0.00321675
-0.0368118,0.00685947
-0.0773368,0.00961151
-0.0641103,-0.00228011
-0.0205063,-0.00380902
0.0147099,0.00515774
0.0332967,-0.00587291
0.038899,-0.000247159
0.0340614,0.0081704
0.0116987,0.00943393
0.000281464,0.00361483
-0.00267533,0.000178185
-0.00247598,-0.00920638
0.000269931,-0.0335521
0.00914413,-0.0160796
0.0183753,0.0137268
0.0125543,0.0125203
-0.0642751,0.0113296
-0.140006,0.0197949
-0.121664,0.0197456
-0.00862852,-0.000697105
0.0469132,-0.00811211
0.0365017,-0.00519797
0.0310706,-0.00116948
0.0262103,0.00973734
0.0136132,0.0186847
0.0187975,0.00760278
0.0288412,-0.00222979
0.0380101,-0.00193976
0.0558801,-0.00127946
0.0456253,-0.0109072
0.0180902,-0.00625872
-0.00240769,0.0129987
-0.0130511,0.00702815
-0.014714,-0.0105144
-0.00648494,-0.00860756
-0.0161996,-0.00922264
-0.00646632,-0.0205122
0.0193204,-0.0203802
0.0199393,-0.00172996
0.00127367,0.0161595
-0.028355,0.0151777
-0.0552178,0.0181994
-0.057121,0.0114351
-0.0420483,0.0035524
-0.0115437,0.00651911
-0.0068572,-0.0134174
0.0151867,-0.0197779
0.0391438,-0.00118596
0.0395692,0.00393002
0.0348626,0.00118118
0.0410126,0.0039627
0.038566,0.00674181
0.00454729,-0.00215077
-0.016567,-0.00565887
-0.0239804,-0.00141558
-0.014052,-0.010744
0.00220248,-0.0141465
-0.0105381,-0.00134819
-0.0220406,0.0104092
-0.0193083,0.0101359
-0.0112566,0.0122565
-0.00516756,0.00242318
0.00463238,-0.00418354
0.017098,-0.00841373
0.012752,0.00314848
0.00595037,-0.00444225
0.00149133,-0.00577699
-0.0073488,0.00532151
-0.0214246,0.0107734
-0.00733701,0.00679533
0.0284266,-0.00469021
0.0321901,-0.00708557
-0.00569303,-0.00342311
-0.0559262,-0.00335094
-0.043291,0.00199767
-0.0149806,0.0144532
-0.0117054,0.00782144
0.000890366,-0.00245796
0.0189696,-0.0145323
0.0100172,-0.0141971
-0.010224,0.0070042
-0.0220284,0.00910994
-0.0315143,0.00600366
-0.00228577,-0.00585015
0.0446937,0.00529167
0.061907,0.00929277
0.0583112,-0.0184407
0.0174163,-0.019633
-0.00863595,-0.00358949
-0.0126676,0.00162888
-0.0206963,0.00735209
-0.0192763,0.0166848
-0.000154783,0.00540956
0.0123923,0.000352816
0.0172191,-0.000972976
-0.00164744,-0.0170264
-0.0120049,-0.0130217
-0.0619142,-0.00422996
-0.0764876,0.00214657
-0.0392266,0.012139
0.0124538,0.0155673
0.0449853,0.0109643
0.0694565,-0.00553932
0.0757025,-0.00695619
0.0554979,0.000833373
0.00480509,-0.000965171
-0.0423745,0.00459221
-0.03193,0.00819935
-0.0047201,-0.000434765
-0.0353186,-0.00195879
-0.0763716,0.00304119
-0.0571271,-0.0004248
-0.00217779,-0.00713737
0.036564,-0.010662
0.0532122,-0.0037001
0.0688067,0.00931483
0.0584875,0.0112279
0.03492,0.0175972
0.0148237,0.0134097
0.0122785,-0.00128756
0.00814801,-0.0145659
-0.0250621,-0.0150631
-0.0460652,-0.0119241
-0.0574778,0.00367501
-0.0901138,0.00875115
-0.0749579,0.00272759
-0.0335681,0.00104113
0.0225525,-0.000307464
0.0619476,-0.0116836
0.076825,-0.012951
0.0598329,-0.0022157
0.0273832,0.00320418
0.00183727,0.00184693
-0.00446542,0.00995907
-0.0141414,0.0112745
-0.013404,0.00439786
-0.00514489,-0.00769643
-0.00195057,-0.00769567
0.0104796,-0.00310164
0.0262517,-0.00286446
0.00738642,-0.00152113
-0.0283144,-0.000724836
-0.0189118,0.00665036
-0.00988568,0.00155455
-0.00310826,-0.00934047
-0.000479535,-0.0175881
-0.00865364,-0.00995449
6.57e-05,0.00800958
0.00930752,0.00826354
-0.0158795,0.00628734
-0.0407645,0.0136789
-0.0355962,0.0167185
-0.0196299,7.7e-05
-0.000631409,-0.0148265
0.0148012,-0.0164138
0.0213373,-0.00722124
0.0135993,0.0011485
0.0079939,0.00929612
0.0167388,0.0149167
0.0279999,0.0035013
0.0202506,0.000729705
0.0169466,0.00263075
0.0148139,-0.0118945
0.000279374,-0.00913232
-0.026095,0.00144941
-0.0407264,0.00878131
-0.0167757,0.00677739
0.00201709,-0.00749664
0.00545452,-0.00709775
0.0032442,-0.0102494
0.00393657,-0.0176787
0.0101209,-0.00111104
0.0138038,0.0101742
0.0108882,0.0102511
0.00961054,0.0123354
0.0101937,0.0106524
0.0101569,0.00230367
0.00745806,-0.00103272
0.0118765,-0.00541065
0.0136203,-0.00717156
0.0113642,-0.00104246
0.00852475,0.00190965
0.0149968,-0.00167832
0.00382315,0.00593747
-0.0149781,0.014798
-0.0167538,0.00520794
-0.0237554,-0.0131669
-0.0444799,-0.0114138
-0.0848317,-0.0029597
-0.109076,0.0109291
-0.129789,0.0168037
-0.131961,0.0113152
-0.0704445,0.00369091
0.0537448,-0.010956
0.149115,-0.0257097
0.14122,-0.0322831
0.116999,-0.00741759
0.0703936,0.00957691
0.0242447,-0.00488917
-0.00338312,-0.00939056
0.0265906,0.0221478
0.0501861,0.0342622
0.0416073,0.0145925
0.0136621,-0.0140499
0.0109347,-0.0217413
-0.052103,-0.00976633
-0.11222,0.00526884
-0.0749402,0.0130845
-0.00990847,0.013995
0.0307474,0.00548322
0.0649619,0.0154793
0.0891329,0.0027871
0.0721529,-0.0255097
0.00531063,-0.0287433
-0.0534918,-0.00810411
-0.0577513,0.00544628
-0.043338,0.0107399
-0.0461736,0.0104619
-0.0529933,0.00484049
-0.0881343,-0.00642085
-0.0933132,-0.0223699
-0.0245996,-0.0154144
0.0674753,-0.00135844
0.128345,0.00321044
0.135023,-0.00358672
0.0853745,-0.00494361
0.0165962,0.00111282
-0.019686,0.00342429
-0.0154746,-0.0190997
0.0040578,-0.0262523
0.00640936,-0.0107086
-0.00896303,0.00649029
-0.0237139,0.0142565
-0.0295492,0.0245833
-0.0291948,0.0324247
-0.0236744,0.0287514
-0.0127571,0.0136214
-0.00771231,0.00969731
-0.00495066,0.0113472
-0.000516005,0.0121191
-0.00870086,0.0106174
-0.010237,0.00150224
-0.00801847,0.00761048
-0.0241966,0.0137428
-0.0329441,0.00360822
-0.0311294,-0.0117
-0.0158962,-0.00727199
-0.00142153,-0.00154476
0.0144588,-0.00713548
0.00512988,-0.00665971
0.00552784,0.00390849
0.0130951,0.00655395
0.013115,-0.00966274
0.014496,-0.0184559
0.0137595,-0.0110991
0.0128818,-0.0104414
0.0082605,-0.0167541
0.0168534,-0.00164836
0.0246135,0.00507114
0.029272,-0.00696814
0.02383,0.00240734
-0.0100323,-0.00657083
-0.0388188,-0.0174541
-0.0134195,-0.0121431
-0.000223925,-0.00249439
-0.0346845,0.00258198
-0.0472779,0.00588323
-0.0365741,0.0103407
-0.0205279,0.0071289
0.0157946,-0.0027412
0.0365864,-0.0141017
0.0492637,-0.012216
0.0458773,-0.00275861
-0.00235498,0.00167713
-0.0367301,-0.00178768
-0.0137469,0.00456577
0.00162342,0.00963212
0.00453432,0.00476479
0.00325496,-0.00794624
0.00635548,-0.00795692
0.0147069,0.00304994
0.0191357,0.0069819
0.014673,0.00173164
0.00309398,0.000788701
0.00553889,0.0113638
0.0104626,0.0146972
0.0162018,-0.000238866
0.0162619,-0.00833653
0.00725275,-0.00585868
-0.00682329,-0.00921819
-0.0122183,-0.00190394
-0.0233812,0.00969313
-0.0343141,0.0171937
-0.0265407,0.00964478
0.00483282,0.00226942
0.0426808,-0.00569398
0.0192137,-0.00702916
-0.00450667,0.0033398
-0.0125569,-0.000765727
-0.0266174,-0.00659421
-0.0468077,-0.00149237
-0.0979812,0.000319248
-0.14229,-0.00904194
-0.0938172,-0.0103345
0.00269919,0.0124634
0.0799335,0.0119722
0.103622,0.00639819
0.104533,0.0106153
0.0626635,0.018508
0.00723799,0.0147641
-0.0127827,0.00123777
0.00977563,-0.0140669
0.0502639,-0.0228861
0.0657593,-0.0124768
0.044483,0.00140604
-0.00546755,-0.000983958
-0.0332286,0.00635063
-0.0148081,0.0066782
0.0142089,0.00019764
0.0351554,-0.0110511
0.0274478,-0.0194739
0.00914987,-0.00395434
-0.00549089,0.00326591
-0.0188675,-0.00168956
-0.029359,0.00586532
-0.0307016,0.00879684
-0.0297998,0.00493476
-0.0260534,0.00189021
-0.0153424,-0.0197134
-0.00956739,-0.019594
0.00242101,-0.00677403
0.0109524,0.00230924
-0.0276525,-0.00527429
-0.0523747,-0.00802091
-0.0140879,0.00880026
0.0417215,0.0112921
0.0827879,0.00119477
0.0684286,-0.00205998
0.00830956,0.00807541
-0.0311553,0.00730653
-0.0201021,0.00308238
-0.00436184,0.00188145
0.00219454,0.00378122
-0.00480384,0.0106479
-0.0112356,0.00885273
-0.0431006,-0.00465682
-0.133062,-0.00860982
-0.198622,0.00320535
-0.172189,0.00975359
-0.0799639,0.00425603
0.0371135,0.00770185
0.139148,0.00846345
0.166484,0.0057829
0.12186,-0.00764345
0.105566,-0.0114848
0.0673959,-0.0113239
0.0248681,-0.00237171
0.0047191,0.0103776
-0.000464552,0.00561474
0.00998086,-0.00252041
0.0133461,-0.010412
0.00654185,-0.0194222
0.00620847,-0.0221367
0.00382395,-0.0074148
-0.00105076,0.000516786
-0.00309981,0.00046223
-0.00727998,0.00971709
-0.0170665,0.0147278
-0.0244514,0.00514431
-0.0238346,-0.0088593
-0.0185728,-0.00228896
-0.0249725,0.00612085
-0.0339719,-3.95e-05
-0.0387668,-0.00347543
-0.0235525,0.00693424
-0.00318493,0.0121632
0.00664294,0.00801421
0.0206259,0.00612707
0.018504,-0.00684286
0.00970186,-0.00684617
0.00788509,-0.000475181
0.00672046,-0.000903835
0.00825372,0.00323172
0.00477946,0.0137886
0.000977738,0.0144526
0.004647,0.0126885
0.00979089,0.00601394
0.00509283,-0.00782484
-0.00639879,-0.0123858
-0.00878857,-0.00440742
-0.00142278,0.00201052
-0.00285031,0.00381833
-0.00958556,-0.00645649
-0.014258,-0.012984
-0.0286654,-0.0156419
-0.0139739,-0.00810647
0.018071,-0.00576951
0.0142176,-0.000826455
0.0105627,0.00164018
0.00952615,0.00104504
-0.00563965,0.00665302
-0.00424989,0.0192286
-0.0262773,0.0137256
-0.04479,-0.00240733
-0.0378845,-0.00130517
-0.0138314,-0.000722135
0.0145201,0.00175337
0.0351839,0.0063682
0.0489052,0.00957991
0.0517573,-0.0030593
0.0370991,-0.00577826
0.00135836,-0.00700086
-0.0304052,-0.0135629
-0.0138018,-0.0137185
0.0208814,-0.00149277
0.0216143,-2.24e-05
0.0291755,0.00752495
0.0265247,0.00547325
0.00891352,0.00679421
0.00107313,0.00593875
-0.000613334,-0.00654944
-0.00935959,-0.0149606
-0.0131396,-0.0132361
-0.0179216,-0.00256018
-0.0175665,0.010965
-0.0354795,0.0149923
-0.106118,0.0115074
-0.121648,0.00178495
-0.0635554,-0.0185638
0.00844308,-0.0229363
0.0542617,-0.00429256
0.0490731,0.00995823
0.0453916,0.00189241
0.0215405,-0.00171969
-0.00954717,0.0151624
0.00408985,0.0150501
0.0381833,-0.00456027
0.05376,-0.0210196
0.05886,-0.0105755
0.0135134,-0.0112487
-0.0139751,-0.00969804
-0.0177555,0.00738419
-0.0203622,0.00821049
0.00970221,0.00339802
0.0312754,0.00803098
0.0394115,0.00144348
0.0311729,-0.00621737
0.0141936,0.0040769
-0.000735733,0.0082444
-0.0120868,0.00594618
-0.0177205,0.0132073
-0.025426,0.0100769
-0.0318425,-0.00272991
-0.0240774,-0.0135955
-0.0278347,-0.00827354
-0.0353113,-0.00630116
-0.00883668,-0.0115358
-0.00127683,-0.0106186
-0.00835482,0.0025017
0.0060564,0.0103856
0.0165015,0.0154646
0.0158354,0.0169597
0.029173,-0.00256627
0.026035,-0.00509438
-0.00029452,0.00802266
-0.014662,0.0168384
-0.0342415,0.0179546
-0.0307144,0.0107351
-0.0123272,-0.000837263
1.38e-05,-0.0167208
0.027664,-0.0225109
0.036745,-0.0176612
0.024776,-0.0121572
0.0261491,-0.00844775
0.00650485,-0.0145616
-0.031283,-0.00685547
-0.0415756,0.00482032
-0.0123579,0.0097734
0.000792458,-0.00269787
0.00458038,-0.00983375
0.00420182,0.00154674
0.00265566,0.00653053
0.000413657,0.00499674
0.00125216,0.0125677
0.000660224,0.021502
0.000482157,0.0204882
0.0056389,0.0102348
-2.25e-05,-0.00515782
-0.00757677,-0.0167128
-0.00816876,-0.0131371
-0.0137023,-0.00414006
-0.00823055,-0.000572761
-0.00513813,-0.00357327
-0.00130219,-0.00269085
-0.00200872,0.0150093
0.00938868,-0.00269314
0.0126735,-0.0236556
-0.00235209,-0.0102659
-0.014746,0.00578504
-0.0329875,0.00940747
-0.0240088,0.0176157
-0.00213095,0.018338
0.00556033,0.000246575
0.0240466,-0.0176678
0.0500911,-0.00708317
0.0505841,-0.00318841
0.0343686,-0.00425878
0.0186573,0.00439494
0.00600635,0.0114611
0.00234629,0.00571626
-0.0139892,0.00360212
-0.0290919,0.00907915
-0.0184769,-0.00269825
-0.00152748,-0.0161213
0.00617631,-0.00132864
0.0256664,-0.000772291
0.00811937,-0.0115691
-0.0271364,-0.0346552
-0.00370208,-0.0278813
-0.0128717,-0.0416361
-0.021927,-0.0428373
-0.0310884,-0.0152577
-0.0436669,0.00887336
-0.0400002,0.0251235
-0.0190219,0.039706
0.0246061,0.0432523
0.0269455,0.0489367
-0.0436971,0.0270659
-0.072435,0.0126554
-0.0407368,0.0314492
0.00392563,0.0377456
0.0491113,0.0206369
0.0875224,0.0103124
0.0927247,0.0059573
0.0775443,-0.00549525
0.0387703,-0.0216213
0.0161698,-0.0297145
0.0111696,-0.0250899
-0.00214861,-0.022978
-0.00832903,-0.0107659
-0.00982258,0.00314156
-0.0133072,0.00940331
-0.019953,0.00866476
-0.030048,0.00955734
-0.036999,-0.00379308
-0.0568803,-0.0104955
-0.0529728,-0.00183218
0.0134372,0.014711
0.0459564,0.00982162
0.0380783,-0.00274816
0.0328378,-0.00395904
0.0129832,-0.0154364
-0.00844979,-0.0324029
-0.0144118,-0.02939
-0.0068669,-0.0217294
0.00748239,-0.0121628
-0.00342768,0.0045672
-0.0253472,0.0146498
-0.0467887,0.0155825
-0.0386843,0.0128109
-0.0274591,0.0152617
-0.033688,0.0023872
-0.0146192,-0.00856703
0.0231525,0.000240653
0.0273257,-0.0019839
0.041418,-0.00990476
0.0363778,-0.00894405
0.0241736,-0.0101901
0.0295101,-0.00930532
0.0246396,-0.0115102
0.00254948,-0.00277073
-0.00822699,-0.0010017
-0.0201189,-0.00462503
-0.0300371,0.00293605
-0.0269781,0.0139822
-0.00695719,0.0252722
0.00559287,0.0226422
0.01386,0.00163716
0.0129692,-0.00463897
0.0117935,0.00400978
0.0114077,0.0088433
0.00774369,0.00386082
0.0042748,0.00068894
-0.00457835,0.000701561
-0.0116447,-0.0056421
-0.0116233,-0.0194756
-0.0140483,-0.0251189
-0.0114771,-0.015988
0.00151889,-0.00852386
0.0169233,0.00418478
0.0181703,0.0144677
0.0110802,0.0130469
0.0022648,0.0129343
0.0101395,0.0124376
0.0276299,-0.00648782
0.0197725,-0.0170378
-0.00595373,-0.00639707
-0.0161267,0.0035156
-0.0141372,0.00305623
-0.0156179,0.00393367
-0.0113061,0.00381229
-0.00783033,-0.00602391
-0.0121461,-0.00979196
-0.0467506,-0.0122016
-0.0466354,0.000520567
-0.0113256,0.00725158
0.00173465,0.00019754
-0.0137535,0.00418224
-0.00355666,0.0121449
0.0087423,0.014736
0.0126548,0.014586
0.0231804,0.000462194
0.0310134,-0.0138332
0.0292583,-0.00608409
0.0215426,-0.00237446
0.0108463,0.000832793
0.00441017,0.0146918
0.0102724,0.011416
0.018593,-0.00535927
0.022259,-0.0159903
0.00594952,-0.0167749
-0.0307813,-0.0151373
-0.0220819,-0.00499888
0.0222354,0.00329257
0.0308705,0.0145115
-0.00348881,0.00643048
-0.00765718,-0.00417267
3.36e-05,0.00701731
0.0204605,0.0100631
-0.00744058,-0.013292
-0.0896865,-0.00956736
-0.0974381,0.00750213
-0.0508446,0.00358046
0.000264363,0.00402998
0.03838,0.00421741
0.0624985,-0.00746624
0.0607426,-0.0125921
0.0401602,9.81e-05
0.0204838,0.00323833
0.0119671,0.00436495
0.00267515,0.00792544
-0.00360333,0.0240641
-0.0108689,0.0098873
-0.0165303,0.00198208
-0.0225681,-0.0122917
-0.0378176,-0.0181729
-0.031784,-0.003541
-0.00190628,-0.00491788
0.0152793,-0.000748522
0.0127892,-0.00082701
0.0175556,0.00574262
0.000221433,0.0133623
-0.0159151,0.00554838
-0.0361937,0.0112128
-0.0340116,0.0113027
0.0129456,-0.00269099
0.0290483,-0.00559928
0.0124327,0.0102374
0.0202202,0.00120524
0.0244957,-0.0117356
0.00536892,-0.00589957
-0.00369554,0.000229423
0.00531568,-0.00339681
0.00260734,-0.00643038
-0.00850723,0.000341411
-0.00308463,0.0061035
-0.00893671,0.00300748
-0.0104381,0.00768154
-0.0184261,0.000555619
-0.0144743,-0.0117272
-0.00308715,-0.0109552
0.00929262,-0.0175653
0.00660748,-0.00822105
0.00694203,0.00786453
0.00231606,0.00895276
-0.0015149,0.00523364
-0.00112054,0.00402445
0.00876685,-0.00574386
0.0332174,-0.00677367
0.023546,-0.00311484
0.000665978,0.0068298
-0.00534751,0.0106048
-0.0163739,0.0087943
-0.0128029,0.0130612
0.00226093,0.00902327
-0.00195049,-0.00476914
-0.0390514,-0.0177783
-0.0463722,-0.00571047
-0.0153596,-0.00529795
0.00368818,-0.00294331
0.0146479,0.00197455
0.0306268,0.00363212
0.0426281,0.0105188
0.0181658,0.00816628
-0.00850955,-0.00774036
-0.0139262,-0.0134747
-0.0266659,-0.00662035
-0.0381495,-0.00401982
-0.00737284,0.00241519
0.021871,0.00844171
0.0124454,0.0133785
0.0186436,0.00894728
0.0327331,-0.0135043
0.0370666,-0.0189668
0.0219,-0.00971621
0.0149233,-0.0128015
0.032675,-0.00642969
0.0396761,0.0120706
0.00685932,0.0169233
-0.0440432,0.0156617
-0.0563168,0.00558815
-0.0620239,-0.0108235
-0.0690186,-0.01724
-0.045662,-0.00114694
-0.00810973,0.00675005
0.0240045,0.00909063
0.00983322,0.0100691
-0.0432477,0.0144885
-0.0503211,-0.0046261
-0.0254183,-0.0299441
0.0230995,-0.0151741
0.0613787,-0.00805063
0.0888953,-0.0133749
0.0850303,-0.00152631
0.0380966,0.0060266
-0.0031487,0.00387946
-0.0121869,0.0080343
-0.0105084,0.00196127
0.00726679,-0.0143635
0.0168142,-0.0112443
0.0106605,0.00660372
0.00285964,0.0142498
-0.0130718,0.016431
-0.0263711,0.0162434
-0.0243676,0.00913778
-0.00701928,-0.00603963
-0.00756369,-0.0124857
-0.0162909,-0.00674909
-0.0153235,-0.0104928
-0.0129938,-0.00847204
-0.00971391,0.00977749
-0.00171998,0.0264218
0.0121797,0.0128821
0.0232452,0.00443605
0.032989,-0.00613683
0.0121757,-0.0123346
-0.0185899,-0.00382446
-0.0409542,0.0123781
-0.0877941,0.010879
-0.0917325,0.00976491
-0.0192626,0.0165865
0.0438528,0.00715872
0.0478679,-0.0157649
0.0483822,-0.0261598
0.055283,-0.0214387
0.0371115,-0.0132425
-0.0012922,0.000485011
-0.0131848,0.00874017
-0.000852768,0.013399
0.0111214,0.011427
0.000456063,0.00521859
0.0079716,-0.00812455
0.0218304,-0.0143807
0.0219332,-0.0029448
0.0177005,0.00259537
0.0140621,0.00246898
-0.00146574,0.00884151
-0.0107015,0.0130954
-0.00330803,0.00193316
-0.0039706,-0.016682
-0.0140239,-0.0133962
-0.0196059,-0.0103617
-0.0217315,-0.00500246
-0.0277611,0.0126459
-0.0691885,0.00647103
-0.101577,-0.00422142
-0.0785267,-0.00823088
-0.0252918,0.00104762
0.020515,-0.0119857
0.0686682,-0.0165871
0.114378,0.0139333
0.106675,0.00137284
0.0661181,0.00701178
0.021585,0.0299893
-0.0107223,0.0149561
-0.0280383,-0.00117638
-0.0277554,-0.00932346
0.00173924,-0.00960688
0.0101982,-0.00947514
-0.00784892,-0.00378036
-0.0131137,0.00541268
-0.00354212,0.011538
0.00569811,0.00263645
0.00575159,-0.00598478
0.00291647,-0.0171114
0.00309887,-0.0252685
-0.00211178,-0.0147632
-0.00376115,-0.00275593
-0.000214266,-0.00744562
0.00251309,-0.00231904
0.00237095,0.00628772
0.000680806,0.00111504
-0.000587075,-0.0137003
-0.00776487,-0.0186395
-0.0129977,-0.00470432
-0.0212649,0.00710367
-0.0417314,0.0172486
-0.026051,0.032499
0.00711304,0.0370562
0.0206302,0.031749
0.0102381,0.0132725
-0.00735568,-0.000148143
-0.0227401,0.00594557
-0.0461757,0.013011
-0.0803109,0.0114887
-0.0635048,0.0207736
-0.0160607,0.024602
0.0352864,0.00584896
0.0596638,-0.00506615
0.0565026,-0.00279474
0.0387951,0.0136189
0.03642,0.00172815
0.0277079,-0.0138876
-0.00508465,-0.0108342
-0.0136631,-0.00225325
0.00919698,-0.00702803
0.0130431,-0.00326462
0.0307065,-0.0235904
0.0344194,-0.0481869
-0.0198417,-0.0371883
-0.0692131,-0.00895461
-0.072315,0.00133386
-0.0515937,0.0061667
-0.00931159,0.0117554
0.0331652,0.00768087
0.0625977,-0.00998618
0.0626464,-0.024319
0.0386473,-0.0189152
0.0117629,-0.0105922
-0.00583405,-0.00259476
-0.000655986,0.00647984
0.0133525,0.00687317
0.0083646,0.000661611
0.00186987,0.00246763
0.00259734,-0.00348815
0.000709209,-0.00753635
-0.00399375,0.00208274
-0.0114737,0.00606297
-0.0120497,0.00824186
-0.0163055,0.00998622
-0.0225762,0.016686
-0.0285766,0.013512
-0.0403273,-0.00377034
-0.0402552,-0.00948979
-0.0285574,-0.0019677
-0.010371,0.00246809
0.00392252,0.0108095
0.023138,0.0168338
0.0413441,0.00919222
0.0475706,0.00420827
0.0328138,0.000149121
0.016935,-0.00904169
0.00704026,-0.0126838
0.00420515,-0.00646379
0.00167287,-0.00323145
0.00333882,0.00334959
0.00738619,0.0141153
0.00421015,0.0159841
-0.00535295,0.00240491
0.000799191,-0.016076
0.000811863,-0.0155508
-0.0171638,-0.00958783
-0.0327893,-0.00343615
-0.034043,0.00471409
-0.0229383,0.00709307
-0.00341465,0.004486
0.0131793,0.0040754
0.0211837,-0.00397219
0.00690972,-0.0118515
-0.00278412,-0.00692381
-0.00745105,0.00384509
-0.00308138,0.00314053
0.00506298,-0.00322781
0.00923239,-0.00453486
0.0115473,0.00375905
0.00943535,-0.00140867
0.0113945,-0.0273581
0.00978739,-0.0137712
0.00181518,0.00910223
-0.0093547,0.00462047
-0.0128878,0.0088898
-0.00314041,0.0086578
-0.000291465,0.00308058
0.00129758,0.0132483
0.0021728,0.00348207
0.0110798,-0.0113321
0.00753662,-0.00837562
0.00277532,0.00316167
-0.00639696,0.00465879
-0.00854545,0.00677609
-0.00297105,0.0111568
0.00242093,0.00522037
0.00944841,-0.0129203
0.00942064,-0.020212
-0.0112906,-0.0120599
-0.0262419,-0.00354088
-0.0268533,0.0175682
-0.0126126,0.0170871
-0.000849323,-0.00271423
0.00824912,-0.00210905
0.014742,-0.00183991
0.0127911,-0.00670007
-0.00137205,-0.00918915
-0.0250159,-0.00401173
-0.0373012,0.014087
-0.0116818,0.00457346
0.0150552,0.0050787
0.0248969,0.0132872
0.020861,-0.00141137
0.0162063,-0.0117985
0.0137401,-0.00512567
0.00482191,0.000627515
0.000506344,0.00328168
0.0104333,0.0102368
0.00741357,0.018303
-0.010005,0.0158242
-0.0226872,0.0113983
-0.0107911,-0.00505541
-0.00021852,-0.0186544
0.00942434,-0.0136889
0.0245234,-0.00728424
0.0226556,-0.00443062
0.0142511,-0.00260438
0.00158242,0.00467556
-0.00469816,0.0145089
-0.001819,0.00296399
-0.0114451,-0.0109638
-0.0231831,-0.00820261
-0.0257508,-0.00592926
-0.0299829,-0.000105637
-0.0514464,0.0123124
-0.0379122,0.0259859
-0.00654717,0.024671
0.00391907,-0.0019911
0.00983747,-0.0213173
0.0394258,-0.020807
0.0496387,-0.00908688
0.0485429,-0.00144905
0.0288413,-0.00261668
0.00936637,0.0066088
0.00148607,0.0148941
-0.00643236,0.010257
-0.00448824,-0.00326662
-0.00318105,-0.0100059
-0.00887387,-0.00692987
-0.0129612,-0.000612629
-0.0123023,0.00868223
-0.00717074,0.0165744
-0.00346879,0.00786545
-0.0471265,-0.000939207
-0.0839384,0.00240595
-0.057305,-0.00730918
-0.00534188,-0.0125683
0.034594,-0.00375756
0.060807,-2.68e-05
0.0660043,-0.00309014
0.0428438,0.00185312
0.0108782,0.00737047
-0.00609642,-3.68e-05
-0.00547733,-0.0106354
-0.0020949,-0.010789
0.000167867,-0.0119964
0.0042413,-0.00834999
0.00266328,-0.000685878
0.00143627,0.00589319
0.00626258,0.00904729
0.00984195,0.004855
0.00862804,-0.00329553
0.00619045,-0.0212737
0.000447682,-0.0210859
-0.0023501,0.00921136
-0.00368472,0.0152491
-0.00148917,0.0101363
-0.00324465,0.0127676
-0.0103947,0.0122431
-0.00913413,0.00089628
-0.00620102,-0.00828967
-0.00496971,-0.000848696
-0.00526367,0.00502634
-0.0111786,0.0143549
-0.0119472,0.00241573
-0.00025278,-0.0102684
0.00974804,-0.00622542
0.0126681,0.00110256
0.0119991,-0.00724458
0.00351253,-0.0210629
-0.014648,-0.0211819
-0.0142555,-0.0118254
-0.0058183,-0.00605985
-0.00234535,0.00363575
-0.00539859,0.0072407
-0.00786685,-0.00763858
-0.0117724,-0.00846983
-0.0121114,-0.00346391
-0.00117352,0.00476333
0.00407644,0.00700498
0.00579759,0.0140862
0.0110526,0.0223445
0.0136058,0.017829
0.0142731,0.0108616
0.0104122,-0.000223311
0.0131583,-0.0121922
0.0153783,-0.00695837
0.00902496,0.00310768
0.0171086,0.00243072
0.0228242,0.0032969
0.0002341,0.00932365
-0.0221165,0.0128323
-0.0276357,0.00773744
-0.0234883,-0.0111611
-0.0254856,-0.00665215
-0.0257689,-0.011973
-0.000718548,-0.017556
0.0071922,0.00798338
0.00616795,0.0188757
0.0199453,0.00721746
0.0198861,0.00151368
0.00965948,-0.0187136
0.010513,-0.03432
0.00591131,-0.00926352
-0.00406123,0.0152981
-0.00785592,0.0151371
-0.00483231,0.0143786
-0.00496205,0.0119477
-0.00796545,0.00809767
-0.00677983,-0.00369899
-0.00418432,-0.0132051
-0.00260773,-0.00747758
-0.000288245,-0.0058459
-0.000407773,0.00508732
-0.000861079,0.0189005
0.00327944,0.0117306
0.00364972,-0.0150409
-0.00461164,-0.0103335
-0.00420282,-0.00507491
-0.0171171,-0.018844
-0.0440499,-0.00365631
-0.0365708,0.00435512
-0.00715282,0.00728934
0.0228766,0.00238245
0.0304694,0.00371474
0.0217282,0.0124871
0.0194998,-0.00172047
0.0126379,-0.0297016
0.00510256,-0.00989525
0.00345232,0.00550169
0.00651042,0.00592637
0.020856,0.0208557
0.0296293,0.0189
-0.00681673,0.00582186
-0.0791149,-0.000286961
-0.0799192,-0.009146
-0.0187349,-0.0120611
0.0369697,-0.0133674
0.0692327,-0.0106986
0.0779683,0.00197357
0.0576979,0.0119059
0.0152566,0.0126329
-0.0158952,0.00104307
-0.0276986,-0.0102233
-0.0229462,-0.00457966
-0.0015189,-0.00383234
0.02029,-0.003284
0.0178796,0.00158015
0.00230382,0.00473413
-0.00344002,-0.000799899
-0.00645098,-0.00501307
-0.0110657,-0.00962206
-0.00680387,-0.0184521
-0.000273253,-0.0174147
-0.00152472,-0.00390934
-0.00272707,0.00166339
-0.0154516,0.00646424
-0.0223967,0.0217571
-0.0256281,0.029482
-0.0242785,0.013317
-0.0286566,0.00404719
-0.0354348,0.0076356
-0.0380522,0.00790806
-0.0402336,0.00525753
-0.0332911,0.00728952
-0.013221,-0.000721028
0.0325893,0.0052108
0.0991214,0.0234076
0.103108,0.00568196
0.0657527,-0.0136214
0.018667,-0.00725014
-0.0241786,0.00227944
-0.0448352,0.000874049
-0.0421903,0.00152209
-0.0357649,0.00377894
-0.0213283,-0.000165919
-0.00931421,-0.00930669
-0.0112107,-0.0169306
-0.0219872,-0.0139548
-0.0265341,-0.00985413
-0.0242184,-0.00460222
-0.00170328,0.00310816
0.00268647,0.00338641
0.00188103,-0.0024436
0.0272731,-0.00361425
0.107306,-0.011836
0.144905,-0.0203284
0.141505,-0.00657406
0.112316,-0.00775254
0.0305221,0.00218426
-0.0487157,0.0208427
-0.0927532,0.0207617
-0.117887,0.00652969
-0.124673,-0.0136339
-0.0926651,-0.0148569
-0.0392444,-0.00160653
-0.00702417,0.00111465
-0.0121011,-0.00182714
-0.0185387,0.00410024
-0.0155982,-0.0073
-0.00497642,0.00766517
0.0312448,0.0143882
0.0347331,-0.00629806
0.0239869,-0.0115109
-0.0116792,-0.00529572
-0.0613303,-0.0179314
-0.052311,0.00377934
-0.0362587,0.0255164
-0.035523,0.022798
-0.0124741,0.000955734
0.024501,-0.0143709
0.0381137,-0.0013361
0.038286,-0.00383012
0.0613038,-0.00144523
0.155756,0.00606367
0.182716,0.00266447
0.144214,-0.000138
0.0990388,0.0141401
0.0573313,0.00273336
0.0121929,-0.00951741
-0.0566892,0.00101282
-0.12551,0.00740855
-0.142499,0.00359391
-0.127675,0.00364406
-0.135571,0.00542166
-0.122994,0.0031287
-0.054052,-0.00643827
-0.00705741,-0.0118851
0.0125519,-0.00810297
0.0233625,-0.00641103
0.0355593,0.00119866
0.0260515,0.00653588
0.00732468,0.00505322
0.00278597,0.00222073
0.000967877,0.000235488
-0.00463585,-0.0161945
0.000994919,-0.0161429
0.0073173,-0.0049285
0.0142253,0.00296776
0.0127334,-0.00469813
0.0103095,-0.0030428
0.0172196,0.00672809
0.0425513,0.00398492
0.0664704,-0.00797552
0.08937,-0.00746723
0.0821772,-0.00256373
0.0862902,0.00213935
0.0428376,0.0100265
-0.00488023,0.0257053
-0.0514531,0.0146462
-0.0913674,-0.0175179
-0.104933,-0.0100566
-0.119091,-0.00463467
-0.103496,-0.0121808
-0.0679568,-0.0023827
-0.0208436,0.00427407
0.0253008,-0.000513883
0.0360591,0.00176441
0.0455045,0.00683665
0.0859163,0.00196031
0.126763,-0.00546759
0.105503,0.00111055
0.0678724,-0.000171313
0.0146654,0.00134852
-0.0529029,0.00907089
-0.0698935,0.0150505
-0.0497175,0.0196464
-0.056207,0.011283
-0.0621481,-0.00478366
-0.0436182,-0.0166955
-0.00470948,-0.0128054
0.0221523,-0.00101824
0.0214638,0.00216969
0.00354128,0.00719097
-0.0181882,0.00246164
-0.0233003,-0.00374594
-0.0173825,-0.00753677
-0.0245077,-0.0136688
-0.0268997,-0.00243089
0.00634941,0.00523448
0.0300269,0.00405886
0.0349347,0.01157
0.0368997,0.0103039
0.0346884,0.00813803
0.0262745,0.00810045
0.00556493,-0.00502333
-0.0459948,-0.0138051
-0.0578472,0.000414245
-0.0326392,0.00908489
-0.0100345,0.00333988
0.00724102,0.00642524
0.0130301,0.0121543
0.0110558,-0.00125999
-0.00153927,-0.0200682
-0.0131824,-0.0154743
-0.0118311,-0.00664466
-0.00884528,-0.0041987
-0.0141919,-0.00325959
-0.0222502,0.00382582
-0.0135226,0.0172257
-0.000773609,0.0158669
0.00741197,0.00938719
0.0242445,-0.00934294
0.0389029,-0.00897007
0.0512412,0.000231802
0.0726275,0.00237095
0.095319,0.0063
0.118373,0.0121216
0.0892459,0.0108602
0.0129602,-0.00227773
-0.0736983,-0.019762
-0.129164,-0.0233147
-0.137347,-0.0297961
-0.132132,-0.0266268
-0.106227,-0.0136259
-0.0651997,-0.0073487
-0.0176989,-0.0130031
0.0198207,-0.0155269
0.0605207,-0.0147852
0.0742244,-0.00428314
0.0595834,0.0193971
0.0441704,0.0401856
0.0306317,0.0419576
0.0269532,0.0359798
0.0218934,0.0282555
0.0153317,0.0163332
0.0136968,0.00229017
0.0151924,-0.00308048
0.00455955,-0.00627971
