Comp Ch 3,Comp Ch 4
-0.00801599,0.0058101
-0.00736485,0.00287102
-0.0148325,0.00544995
-0.0169028,0.00627674
-0.0127655,-0.00540271
-0.0164151,-0.029769
-0.0252036,-0.0329959
-0.0407941,-0.0219104
-0.0229281,-0.0071429
-0.0288917,0.0193694
-0.0308585,0.0273404
0.000632134,0.0198013
0.0188253,0.0151044
0.0474741,0.0146043
0.0587183,-0.00788469
0.0489605,-0.018353
0.0363354,-0.00057821
0.018507,0.00490531
0.00523574,0.00489839
-0.00396255,0.00624486
0.000865317,0.00591673
0.00784283,-0.00666536
0.0165893,-0.013367
0.0201246,0.000396894
0.0228993,0.0106359
0.0198963,0.0140604
0.0263724,0.0193013
0.0233836,0.0218601
0.00545443,0.0133132
-0.00829661,0.003454
-0.0205928,-0.012262
-0.0296023,-0.0259807
-0.012234,-0.019945
0.0126255,-0.00677608
0.0182533,-0.00133026
-0.00862818,-0.00435932
-0.032373,-0.000321132
-0.040803,-6.48e-05
-0.0500776,-0.00267254
-0.0817155,-0.00285309
-0.145719,0.000703915
-0.104801,0.0144327
-0.0390293,0.0200198
0.0218878,0.00891722
0.0196069,-0.00443557
-0.0291166,-0.000101183
-0.0338937,-0.00342798
-0.0566168,-0.0142542
-0.0829785,-0.017071
-0.0174114,0.00720005
0.093726,0.0170718
0.154669,0.00877078
0.187493,0.0073863
0.177459,0.0113192
0.108026,-0.0057859
0.065407,-0.0330151
0.0362917,-0.018704
0.00193922,-0.00975052
-0.0161028,-0.0231826
-0.0214079,-0.00094433
-0.0100756,-0.0131037
0.0231945,-0.0279213
0.0628295,0.0109492
0.0698825,0.0133925
0.0310141,-0.00910313
-0.0300363,-0.00765879
-0.0677963,0.007798
-0.080189,0.00510937
-0.076773,0.00483309
-0.0796956,0.0133267
-0.0636226,0.0101078
-0.0279313,-0.00651391
-0.0102575,-0.0189311
-0.00895142,-0.0106653
-0.00783061,-0.00903554
-0.00320511,0.00579291
0.0119214,0.0243004
0.0145757,0.0303135
-0.000438213,0.0283861
-0.0196996,0.0247728
-0.0358414,0.0113159
-0.0457923,-0.0149541
-0.0473998,-0.0168646
-0.0472128,0.00631354
-0.033601,0.0179991
-0.00516504,0.0231902
0.0202036,0.0221099
0.0293193,0.00358019
0.0231859,-0.0290311
0.0167605,-0.0231141
0.020325,-0.00904172
0.0266211,-0.0209635
0.0249296,-0.00428436
0.0159518,0.00837973
0.0113032,0.0117918
0.0118444,0.00797353
0.0119973,0.00664666
0.0132219,-0.00763398
0.00718624,-0.0196436
-0.00163809,-0.00924633
-0.00526816,0.00301487
0.00427294,0.00890916
0.00961289,0.0119684
0.011788,0.0210258
0.00912127,0.00970921
0.00721115,-0.0126064
0.00450631,-0.0152055
0.00360115,-0.0141529
0.00465758,-0.0124839
0.00425478,0.000427605
-0.00908866,0.0121459
-0.0197404,0.012167
-0.0303055,0.0112018
-0.0352127,0.00478073
-0.0342881,-0.0146734
-0.0174301,-0.0114633
0.0210157,0.00779585
0.0383667,0.0100438
0.0432039,0.00271259
0.0213561,0.00422887
0.00296123,0.00593896
-0.00526614,-0.00890825
-0.00274132,-0.0261659
0.00342041,-0.0257498
0.00653184,-0.0290889
0.00212625,-0.0255043
-0.00439476,-0.00900698
-0.00551621,0.00814157
-0.000585994,0.0133142
0.0027174,0.0144766
0.0129663,-0.00247381
0.0144665,-0.0167196
0.00665597,-0.00249564
-0.000765386,0.0139946
-0.00362137,0.0166923
-0.00179146,0.0219797
-0.000115648,0.020648
-0.00527104,0.0113187
-0.00974021,-0.00785441
-0.0102361,-0.017417
-0.00600547,-0.00741103
0.00508492,-0.00448063
0.000712633,6.17e-05
-0.0176031,0.00314393
-0.0233341,0.00384151
-0.0113394,0.00210944
0.00620941,-0.00296187
0.0208555,-0.0155008
0.0222532,-0.015931
0.013394,-0.00105294
0.00748775,0.00798941
0.00263633,0.00470617
0.00424364,0.00840589
0.00249331,0.0164339
-0.0217307,0.00543279
-0.0935695,-0.019987
-0.133836,-0.0225139
-0.116995,-0.0135936
-0.023291,-0.0049596
0.0715938,0.0102547
0.121221,0.0245698
0.122487,0.00988727
0.0834038,0.00777946
0.043943,0.00771441
0.0183789,-0.00830137
0.0127501,-0.00268639
0.00659558,0.0131087
-0.0373429,0.0148286
-0.0498946,0.0157267
-0.0247519,0.0242734
-0.00106538,0.0209833
0.0193984,-0.00230156
0.0383259,-0.0221504
0.0374054,-0.0203284
-0.0260932,-0.0235183
-0.0678075,-0.0217538
-0.0523042,-0.00590457
-0.0238042,0.00315507
0.000213053,0.00415246
0.00360681,0.00862846
0.000583539,-0.00439393
-0.0140526,-0.0159831
-0.0240598,-0.00191724
-0.0245368,0.0142884
0.00289025,0.0135614
0.055565,0.0233207
0.0805293,0.0295376
0.0680466,0.0206964
0.046145,-0.00586266
0.00606965,-0.0227686
-0.0376487,-0.0208928
-0.0600379,-0.0185284
-0.0510655,-0.00431725
-0.0417385,0.00833372
-0.0301664,0.00164257
-0.0101754,-0.0171831
0.0088153,-0.0199419
0.0180573,-0.0191465
0.0191922,-0.0169403
0.0156467,0.00398073
0.0040745,0.0175339
-0.0140435,0.013166
-0.0145647,0.0150429
-0.00697189,0.0183761
-0.0091588,0.00543045
0.00249017,-0.0118912
0.0170487,-0.00973793
0.0136872,-0.00419712
0.00608604,-0.0126851
0.0180343,0.000987501
0.0350084,0.0205256
0.0303645,0.016967
0.00518295,0.0138854
-0.0307295,0.00625823
-0.0397827,-0.00875279
-0.00733738,-0.00912158
-0.00423282,-0.0059287
-0.0226616,-0.00484257
-0.0140433,0.0095288
-0.000363218,0.0163102
0.00461942,0.0125268
0.012312,-0.0166057
0.0332533,-0.0303376
0.0308186,-0.0190123
0.0143739,-0.0234721
-0.000562566,-0.00858806
-0.0124231,0.00212487
-0.0217372,0.0161767
-0.0199899,0.0230844
-0.00954511,0.0131353
-0.00910111,-0.00633739
-0.0115781,-0.00535836
-0.0124749,0.00654157
-0.0176624,0.0055924
-0.0168142,0.00980828
-0.00720975,0.0134314
-0.00252297,0.00563991
0.000487332,0.00745146
0.0034836,-0.00875501
0.0068069,-0.0275212
0.011164,-0.027741
0.0116162,-0.0195837
0.0105055,-0.000455187
0.0090651,0.0173127
0.0118377,0.0218976
0.0125328,0.0165787
0.00934987,0.00701527
0.0161543,-0.0128553
0.0172643,-0.0191696
0.00984774,0.00060238
0.00743213,0.0115882
0.0080771,0.0128746
-5.09e-05,0.0206254
-0.00864229,0.0247951
-0.0129047,0.00909096
-0.0224953,-0.0205083
-0.0116761,-0.0253833
0.0241031,-0.0109711
0.0371107,-0.00597754
0.0175173,0.000227947
-0.0155986,0.00566181
-0.0542137,0.00123572
-0.0528433,3.93e-05
-0.0264379,-0.00714158
0.00345439,-0.0252639
0.0194224,-0.0260315
0.0269008,-0.00310068
0.0298638,0.00986816
0.0122264,0.0130735
-0.00718196,0.0200126
-0.0120876,0.0212099
-0.000937182,-0.00179742
0.00985556,-0.0224044
0.0153897,-0.00810598
0.00999674,-0.00269375
0.00015576,-0.00453006
-0.00217683,0.00667341
0.00356801,0.017188
0.00910671,0.0189814
0.0100429,0.0169435
0.00157727,-0.00520259
-0.0211312,-0.0233428
-0.0333759,-0.0121583
-0.0253102,0.00838115
-0.0154231,0.011599
-0.0145926,0.0161119
-0.00796816,0.0254452
0.00104546,0.0165692
0.00039317,-0.0109942
0.0111281,-0.0197343
0.0117473,-0.0124891
0.00615836,-0.0154319
0.00685067,-0.0114507
0.00928483,-0.0032299
0.00304389,-0.00366118
-0.00317272,-0.00555129
-0.011949,-0.00482449
-0.0257706,-0.0228203
-0.03677,-0.0163281
-0.0202569,0.00760993
0.0118936,0.00317415
0.0339706,0.00997075
0.0327916,0.0246238
0.0304374,0.0288152
0.0471731,0.0174401
0.0455636,-0.00399598
0.0371258,-0.0120264
0.0262645,-0.0149689
0.0171977,-0.00788942
-0.000589387,0.0102929
-0.0174628,-0.00114978
-0.0214745,-0.00404993
-0.00707997,0.0179479
-0.0150886,-0.00276487
-0.0314629,-0.017975
-0.0429238,-0.0134772
-0.0476405,0.00238749
-0.0569031,0.00527567
-0.0515724,0.00457414
-0.0232402,0.0149442
-0.00594611,0.0193491
0.00367967,0.00019684
0.019771,-0.0195174
0.0283646,-0.0182115
0.025429,-0.0170527
0.025841,-0.0101881
0.0233147,0.000288476
0.0167678,0.00837138
0.0197016,0.00602662
0.0117331,0.00119497
-0.00145105,-0.0139301
-0.00527798,-0.0272349
-0.0138717,-0.00631766
-0.0203747,0.0124016
-0.00369532,0.0133322
0.0262405,0.0199939
0.0291199,0.0268344
-0.0134115,0.0149746
-0.0326216,-0.00795959
-0.0324801,-0.0181546
-0.0411707,-0.0122034
-0.0307442,-0.0138199
0.0171818,-0.00634223
0.0336434,0.000992376
0.00961234,0.00527765
-0.00879318,-0.00253943
-0.0193929,-0.00196762
-0.0132237,-0.005435
0.0103207,-0.0128515
0.0367365,0.00711215
0.0889177,0.0188777
0.123844,0.0141655
0.10852,0.0243842
0.0697353,0.0395082
-3.33e-05,0.0329445
-0.0887181,0.010056
-0.13192,-0.000729189
-0.127028,-0.0118242
-0.0910791,-0.00932136
-0.0515662,-0.00467602
0.0238376,-0.00327009
0.0766611,0.00227276
0.0510693,0.00408018
0.00559083,-0.00845042
-0.0201851,-0.0266142
-0.036978,-0.020979
-0.0276035,0.00466302
-0.0157981,0.00664855
-0.00261629,-0.000383403
0.00781027,0.00625529
-0.00194278,0.00733086
-0.000618311,-0.010638
-0.0016662,-0.024499
-0.00985822,-0.0133234
-0.0041359,-0.00980121
0.00486832,-0.00437748
0.00445656,0.011675
0.00844771,0.0209802
0.0235529,0.0107028
0.0324052,0.0038763
0.0240595,-0.000756804
0.0070535,-0.0130061
-0.0110702,-0.00947467
-0.0268857,-0.00161965
-0.0279319,-0.00940612
-0.0153998,-0.000280587
0.0157417,0.0270091
0.0330855,0.0246554
0.036514,-0.00952912
0.0347051,-0.0260305
0.017258,-0.0123005
-0.000716552,-0.013434
-0.00671094,-0.00614757
0.00650885,0.00735988
0.0169106,0.00940644
0.00900044,0.00641669
-0.00733287,0.00626991
-0.0223202,-0.00988675
-0.0359402,-0.0174902
-0.0373237,-0.00390304
-0.027873,0.0100673
-0.017709,0.00943516
-0.00576602,0.0138199
0.0166254,0.0180826
0.0202502,0.00316314
0.0125171,-0.0212767
-0.000396421,-0.024235
-0.00758609,-0.00855276
-0.00308125,-0.0014
0.0121499,-0.00188118
0.0347673,0.0205892
0.0407979,0.0235051
0.0348678,-0.00300533
0.0260395,-0.00775085
0.0179432,-0.0249889
-0.0096172,-0.0372953
-0.036333,-0.00137249
-0.00766942,0.00446224
0.0562865,0.00588404
0.0619635,0.0310636
0.0258702,0.0341023
-0.0201809,0.00288952
-0.056814,-0.0251744
-0.0736814,-0.0131808
-0.0662987,0.000963759
-0.0657419,-0.0063992
-0.0672173,-0.0103527
-0.0482599,-0.00102521
-0.0196323,0.00143023
0.00147319,0.00706145
0.0122903,0.00017853
0.0127287,-0.0148824
0.00413289,-0.00677326
-0.0021212,0.0080772
0.00132078,0.0144782
0.00632131,0.0181558
0.0256197,0.0305759
0.0476665,0.0303123
0.0662305,-0.00396776
0.052003,-0.0294669
0.0249516,-0.0193317
-0.00143499,-0.0247412
-0.0162746,-0.0063727
-0.00426162,0.0106063
0.00579411,0.0205334
0.00354777,0.0167635
-0.00124286,0.00918408
0.00135105,-0.00658827
0.00254226,-0.0202206
0.005413,-0.014889
0.0355632,0.00224509
0.0654754,0.0183018
0.0570983,0.0233075
0.0173558,0.0148037
-0.0353384,0.00764782
-0.079092,-0.0164733
-0.100589,-0.0183462
-0.0973066,-0.00444494
-0.117253,-0.00358487
-0.117436,-0.00318841
-0.0599492,0.000653588
0.0229582,0.00785054
0.0796896,0.0178671
0.106598,0.00562691
0.1156,-0.0209676
0.0754722,-0.0151647
0.0138912,0.00530985
-0.0106675,-0.00224474
-0.0135925,-0.00609823
0.041338,0.00642251
0.115684,0.00985691
0.145735,-0.012501
0.120312,-0.0216863
0.0729173,-0.0130566
-0.0326716,-0.0117871
-0.171591,0.00292033
-0.258214,0.0275227
-0.261486,0.021798
-0.158981,0.0140562
-0.0127255,0.0176353
0.0593716,0.00297744
0.100681,-0.0161643
0.112742,-0.0102012
0.110555,0.00616777
0.111176,0.00705618
0.0326888,0.00649209
-0.0935104,0.0113617
-0.13139,0.0140599
-0.0991834,0.00186333
-0.0118452,-0.0160118
0.0652251,-0.0280343
0.0926312,-0.0194302
0.087197,0.00895806
0.0336521,0.00462012
0.00410954,0.00575695
0.00227334,0.00793073
-9.19e-05,-0.000296872
-0.00897214,-0.0273232
-0.00723375,-0.0326449
-0.022952,-0.010581
-0.0545345,0.00592269
-0.0650405,0.00818155
-0.0455229,0.0107051
-0.0163321,0.0178059
0.0109087,0.0117249
0.0282238,-0.0194638
0.0306527,-0.0234286
0.0350364,-0.00553402
0.0427853,-0.0101764
0.0379263,0.0108503
0.0263644,0.0422449
0.0120947,0.0422289
-0.0209228,0.00599097
-0.0438153,-0.00629842
-0.0348572,-0.0202853
-0.027833,-0.0303999
-0.0268745,-0.00896252
-0.0184082,-0.00311275
0.010555,0.00251515
0.0188608,0.0130879
0.00516171,0.0139857
0.00285506,-0.00450384
0.00970423,-0.0159029
0.00763067,-0.0052078
0.0139755,0.00100585
0.0129942,-0.00783228
0.031041,0.000679002
0.0523701,0.0146162
0.0350863,0.0214917
0.00384766,0.0129052
0.0152278,-0.00591854
0.0767736,-0.0205367
0.0692713,-0.0163856
-0.0181492,-0.000591025
-0.0956177,0.00191934
-0.137328,0.000707922
-0.1387,0.0177234
-0.0875193,0.0216825
-0.0327012,-0.00570286
0.0014403,-0.0195671
0.0229352,-0.0101204
0.0345198,0.00360367
0.0336771,0.0136079
0.0247855,0.021822
0.0172268,0.0233486
0.00285161,0.00268161
-0.00725704,-0.0127874
0.0045639,-0.0248017
0.0164873,-0.029474
0.0167608,-0.012905
0.00561702,-0.000230274
-0.00661511,0.000234623
-0.0168437,0.00293396
-0.0198501,0.0102326
-0.0143485,0.0139886
-0.00393712,-0.00236224
0.0158078,-0.0304152
0.0209636,-0.023841
0.0393314,0.0101487
0.0725313,0.023365
0.0733526,0.0247999
0.0618116,0.0162687
0.0592431,0.00451352
0.0441396,0.00381755
-0.000903619,-0.0108555
-0.0423056,-0.0235306
-0.059795,-0.0110527
-0.105598,-0.00802387
-0.12468,-0.00444652
-0.0357425,0.0148196
0.129193,0.0152179
0.170801,-0.00125306
0.0934473,-0.00833317
0.0043203,-0.00120604
-0.0784338,0.00866451
-0.137634,-0.0185641
-0.129024,0.00390854
-0.0672737,0.0367416
-0.0285031,0.0244409
-0.0135187,0.0086201
-0.00115115,-0.00685263
0.00192532,-0.0254475
-0.00451756,-0.0246981
-0.0221991,-0.00452554
-0.0154489,0.00565585
0.00491454,0.00314248
0.0150926,0.0158303
0.0152587,0.0147821
0.0192793,-0.00600299
0.0357251,-0.00545911
0.0520046,0.0139967
0.0485386,0.00904867
0.0287209,0.00796699
0.00231424,-0.0169567
-0.00979928,-0.018466
0.00169712,0.00235063
0.0245094,0.00159383
0.0247343,-0.0275889
-0.000744017,-0.0363335
-0.020058,-0.019769
-0.0226902,-0.00847582
-0.0167755,-0.0176135
-0.0226308,-0.0259929
-0.0287901,0.0180521
-0.022871,0.0413004
-0.00361295,0.0237916
0.00348214,0.00631907
0.00369753,0.00855923
0.00565325,0.012513
0.00864149,0.0210716
0.0199813,0.0249707
0.0218475,0.0188103
0.0133733,0.0115083
0.00241221,0.00776202
-0.0132173,-0.0150677
-0.020486,-0.0279238
-0.0142664,-0.0157595
-0.0134758,-0.015026
0.000453425,-0.0100716
0.0289937,0.00289329
0.0772429,-0.00323478
0.094676,-0.00865366
0.0756884,-0.0121465
0.0405556,0.00127064
-0.00130665,0.0113549
-0.033301,0.0125109
-0.0821816,0.0127766
-0.08486,0.0169075
-0.0540579,0.0122186
-0.0591808,0.00410351
-0.0880584,-0.0110546
-0.0613401,-0.0261878
0.000407803,-0.0243467
0.0407863,-0.0108332
0.0761477,-0.00689264
0.113796,-0.00580549
0.0843593,0.00138317
0.00848279,0.0111407
-0.0381847,0.000548411
-0.0483727,-0.0101937
-0.0454516,-0.00307803
-0.0396787,-0.00217458
-0.00607701,0.00676595
0.0123966,0.0197579
0.0125625,0.0175101
0.00469116,0.0103653
-0.05953,0.0117808
-0.0969717,-0.0145169
-0.0639078,-0.0365424
0.0118463,-0.0217182
0.0501499,-0.00700456
0.0632949,-0.0172795
0.0612202,-0.00172452
0.0234215,-0.0121135
-0.0027057,-0.0384365
0.00945692,-0.0457908
0.0253296,0.00362101
0.0539424,0.034451
0.079968,0.0448665
0.076349,0.0629976
0.0609876,0.0631186
0.0161471,0.0543531
-0.0422161,0.0417903
-0.0675885,0.0167705
-0.0614954,-0.000235649
-0.0551105,0.00708427
-0.0529917,0.00478982
-0.0429236,-0.00580053
-0.0330089,-0.00817059
-0.0272665,-0.00802357
-0.0211197,-0.0334399
-0.0126502,-0.0601675
-0.00853092,-0.0441826
0.0025238,-0.0244507
0.0197186,-0.00114258
0.0159436,0.0124033
0.0100756,0.0258282
0.0209654,0.0338791
0.0195591,0.0289317
0.00406617,0.0106796
0.00856936,-0.0145052
0.0153458,-0.011885
0.00675387,-0.0017464
-0.00356356,-0.00424772
0.00782707,-0.00335115
0.0141687,-0.00698752
0.010435,-0.012059
0.00251289,-0.0312345
-0.0112834,-0.0400258
-0.0197942,-0.0188231
-0.0103219,-0.0122404
0.00649539,-0.0147012
0.00894385,-0.000788633
0.00548778,0.0254465
0.0140979,0.0357847
0.0162332,0.0184291
0.0112469,-0.00976639
0.0170782,-0.00111002
0.0177025,0.0121211
0.00654483,0.00933107
-0.00525566,-0.00658798
-0.0136902,-0.0150327
-0.0183471,-0.0171513
-0.0189063,-0.0161389
-0.0148648,-0.0352251
-0.0257843,-0.0402847
-0.0221672,-0.0108944
0.000904657,0.0198449
0.00627152,0.030894
0.00818237,0.0374813
0.0081837,0.0359024
0.0083416,0.0304542
0.00700655,0.0184919
-0.00398089,-0.0123053
-0.00382721,-0.0205433
0.000602117,0.0066541
-0.00844135,0.00851211
-0.0197774,-0.00269935
-0.0212742,-0.00726784
-0.0210462,-0.0156559
-0.0179339,-0.0243003
-0.00147921,-0.016293
0.0359884,-0.0202001
0.0643766,-0.0116732
0.0833439,0.0116065
0.079408,0.0370889
0.0415277,0.0423224
0.0083668,0.03104
-0.0279994,0.0236558
-0.0486532,0.00146189
-0.0471377,-0.0222697
-0.046424,-0.0111527
-0.0545058,0.0043552
-0.0447074,0.0110937
-0.0294637,0.00288929
-0.0252875,-0.00174386
-0.022495,-0.00850242
-0.0145819,-0.0157982
-0.00434419,-0.02699
0.00473967,-0.0187335
0.0162408,-0.00113557
0.0204978,-0.00417295
0.0117261,0.00542564
0.00403514,0.0164801
0.00991995,0.0146719
0.0186641,0.0165943
0.0191987,-0.00508737
0.0252822,-0.0225857
0.0290688,-0.0127473
0.0209956,-0.00338019
0.0107795,-0.0055384
0.0015101,-0.0121858
-0.0108939,-0.00437636
-0.0261079,0.0130036
-0.0289477,-0.00406216
-0.0154146,-0.0186209
0.0111625,-7.34e-05
0.0450956,0.00169285
0.0536972,0.016424
0.0294436,0.0146362
0.0132146,0.0175221
0.0131788,0.0200421
0.00196876,0.0139462
-0.00948239,-0.00133449
-0.0130052,-0.0127648
-0.0276633,-0.00738001
-0.0395802,-0.00355269
-0.0259556,-0.00755047
-0.0272728,-0.00728564
-0.0326041,-0.006659
-0.0223432,-0.011328
-0.0159865,-0.0175031
-0.0186423,-0.0103174
-0.0134554,0.00120166
-0.00126527,0.0116762
0.00616733,0.0278351
0.0106951,0.0318788
0.0130468,0.0145351
0.00903386,0.00809315
0.00690065,-0.003273
0.0124568,-0.0183362
0.0160061,-0.0230967
0.0130278,-0.00748488
0.00885883,-0.00274796
0.00215283,-0.00391727
-0.00110075,0.00269683
0.00495857,0.00509443
0.0103867,-0.00777242
0.0201988,-0.0116253
0.0330748,-0.00276045
0.0564856,0.00109506
0.0724559,0.00879587
0.0474914,0.00388023
0.0137969,0.0189433
-0.0244376,0.0233025
-0.06065,0.0172068
-0.0658907,0.00199785
-0.0670964,-0.0118758
-0.0555198,-0.0118859
-0.0256918,-0.00800108
-0.00237911,-0.00643137
-0.000828542,0.000979582
-0.00743372,0.0050565
-0.0139223,0.00111657
-0.0104014,-0.0145635
-0.00459418,-0.0171476
-0.00267154,-0.00845093
-0.00014949,-0.00711302
0.00614119,0.00679655
0.0135611,0.0189578
0.0160496,0.0184266
0.0175107,0.0128346
0.0176605,0.00249663
0.0153375,-0.0193943
0.00711513,-0.0271823
0.0018542,-0.0083007
-0.00239661,0.00495248
0.00696355,0.0102551
0.0134178,0.00563344
0.00841119,0.00960549
0.00577072,0.00847299
-0.00842826,-0.00396823
-0.0217957,-0.00660926
-0.0193211,-0.00409496
-0.0117882,-0.000503695
-0.0123225,0.00569471
-0.0202072,0.00905002
-0.0092476,0.0126671
0.0270328,0.00416786
0.0337819,-0.0122011
0.0226468,-0.0208717
0.0288365,-0.00925047
0.0278809,0.00311546
0.00758524,-0.00964963
-0.00925397,-0.00812413
-0.00562599,0.0049808
0.00325617,0.000238592
0.00584798,-0.0120484
-0.00149294,-0.0173125
-0.0147573,-0.0111276
-0.0215124,-0.00375018
-0.0277305,0.00822228
-0.022789,0.0281005
-0.0072419,0.014424
0.00372266,-0.0025848
0.00656806,0.0213253
0.00907709,0.00739098
0.0154312,-0.0105464
0.0194505,-0.00100694
0.0101169,0.00317848
-0.00341249,5.85e-05
-0.00724283,0.0023994
-0.0130719,-1.74e-05
-0.0192752,-0.00367939
-0.0166295,-0.0122349
-0.0230428,-0.0129106
-0.0370117,0.00612507
-0.0333264,-0.00479771
0.00257206,0.00843267
0.0293195,0.0239117
0.0281148,0.0079876
0.0230026,0.0068935
0.020716,-0.0112095
0.0245578,-0.0118923
0.0225163,-0.00114821
0.014305,0.000575572
0.0129423,0.00243853
0.0190522,-0.000370583
0.0150542,-0.00155639
0.0137918,0.00329778
0.0123515,-0.00211637
0.00989207,-0.0107895
-0.00647046,-0.00130111
-0.024297,-3.35e-05
-0.0404061,0.00858838
-0.0442707,0.00796952
-0.0364631,0.0129322
-0.00972792,0.0240052
-0.00149123,0.00940116
-0.00695435,0.0096917
-0.0105558,-0.0104588
-0.0212251,-0.0291376
-0.0230925,-0.0161808
-0.00456328,-0.000837938
0.00541639,0.00837719
-0.000137368,-0.0134524
-0.000325039,-0.0163756
0.00527698,-0.0164249
0.00905743,-0.00832082
0.017177,0.00715124
0.0241526,-0.00271075
0.0382529,0.000716503
0.0695755,0.0210346
0.0675021,0.0401606
0.0208183,0.0346857
0.00377988,0.0295785
-0.0035757,-0.0275573
-0.0297547,-0.0665558
-0.04228,-0.041374
-0.0429366,-0.00519919
-0.0305152,0.00288181
-0.0321593,-0.00973823
-0.0316727,-0.00671954
-0.0101013,0.0131434
0.00172749,0.0153691
-0.000120373,0.0070031
-0.0130157,0.0093522
-0.0265007,0.00348141
-0.0260988,0.0296973
-0.00939636,0.0644176
0.00662452,0.0279925
0.0250248,-0.026005
0.0376513,-0.0344257
0.0247116,-0.0206286
0.0254367,-0.0254863
0.0217536,-0.0100837
0.00267534,0.000547988
-0.0199742,0.00594944
-0.0272225,0.00894575
-0.0144799,0.00485776
-0.00540214,-0.00265819
0.00675609,-0.00418357
0.0178439,-0.0201853
0.0232827,-0.0133455
0.013646,-0.00444639
0.0268617,0.00527754
0.0425679,0.0026249
0.0247392,0.00802445
-0.0141618,0.00525101
-0.0258233,-0.0112997
0.0137938,-0.0180302
0.0147546,-0.0274969
-0.00640232,-0.00715539
-0.0178006,0.0405615
-0.0230166,0.0445448
-0.0179749,0.0228974
-0.019497,-0.00340411
-0.0368371,-0.0199342
-0.00146755,-0.019935
0.0746161,-0.00594473
0.112519,-0.0268808
0.108585,-0.0228022
0.0702608,0.0311013
-0.00845074,0.0246103
-0.0904185,0.00940046
-0.112777,0.00331753
-0.120352,0.00162763
-0.129397,-0.0159132
-0.114603,-0.00348316
-0.0968368,0.0289594
-0.0467026,0.0277284
0.0409761,0.0294962
0.0968787,0.02379
0.103487,-0.0103148
0.0767714,-0.0610974
0.0265807,-0.0749061
-0.00761509,-0.00533071
0.00974204,0.0313261
-0.00936455,0.0390265
-0.0398471,0.0139108
-0.0256323,-0.00272419
-0.0336449,-0.00417185
-0.0395023,-0.013615
-0.000922584,-0.0267374
0.0638781,-0.011432
0.113229,-0.00541927
0.145331,0.00803444
0.111626,0.00934999
0.0321143,-0.00501751
-0.0252436,0.00611923
-0.0280496,0.0107171
-0.019753,-0.0519553
-0.0359381,-0.0579851
-0.0631887,-0.00654315
-0.0686624,0.0214389
-0.043208,0.0238713
-0.012968,-0.0222357
0.00963903,-0.0263102
0.0396362,0.0142317
0.0452643,0.0168398
0.0501306,0.0469038
0.0493824,0.0364054
0.00915219,-0.0241649
-0.0242764,0.0173806
-0.0448448,0.0522014
-0.0645758,0.0315766
-0.0760036,0.02847
-0.0533094,0.0356543
-0.0225009,0.011104
-0.0125943,-0.0127988
-0.0108094,-0.00629083
-0.00110972,0.0272417
0.0130585,0.0300221
0.015466,0.0207318
0.0110538,0.048466
0.00147293,0.0659597
0.01232,0.0333756
0.0105408,-0.0506372
-0.00199162,-0.0796
0.00495766,-0.0836938
0.0259703,-0.104143
0.0208147,-0.104663
0.00372447,-0.0637295
0.0073852,-0.0153928
0.00981855,-0.0125371
0.0171145,0.00848965
0.0160038,0.0136418
0.0092893,-0.00274006
-0.00375446,0.0146398
-0.00919816,0.0387098
-0.00907998,0.0646247
-0.0098518,0.0406795
-0.0116669,-0.0217134
-0.00409308,-0.126895
-0.00305155,-0.047919
-0.0122844,0.0379368
0.032122,0.015295
0.0291821,-0.00781458
0.0242716,0.00529313
0.0208274,0.0495303
0.00873267,0.0678279
-0.0303661,0.0490935
-0.0053811,0.0500196
0.0356279,0.0695777
0.0756021,0.133974
0.0818737,0.152389
0.0483224,-0.00234876
0.00223657,-0.138293
-0.0122432,-0.115757
-0.0474742,-0.112028
-0.108792,-0.128221
-0.128516,-0.091294
-0.0944549,-0.0404215
-0.0603857,-0.00949874
-0.0181604,-0.0200566
-0.0247097,0.0278366
-0.0381701,0.0451453
0.0262478,0.0338864
0.100105,0.02851
0.114652,0.0187063
0.0285136,0.0178631
-0.16762,0.00836126
-0.41115,0.0246463
-0.500804,0.021348
-0.348213,-0.0082933
-0.0277403,-0.0128809
0.305332,-0.042083
0.527089,-0.0132475
0.570278,-0.0181676
0.443756,0.00820376
0.207643,0.0617288
0.0490468,0.0625794
-0.0962153,0.0171586
-0.157908,-0.0252566
-0.142315,-0.0470127
-0.167782,-0.0194517
-0.124274,0.0277122
-0.0580037,0.00134138
0.12455,-0.0164861
0.22869,-0.0136645
0.172091,-0.0248435
0.00203936,-0.0115384
-0.139076,0.0167409
-0.192237,0.00171126
-0.167265,0.00846198
-0.0982728,0.0374179
-0.0175133,0.0427837
0.0536713,0.0335833
0.0895701,0.0290511
0.0951502,0.0252287
0.065317,-0.00684909
-0.00603809,-0.0291676
-0.0678479,-0.0294463
-0.0845577,-0.0367223
-0.0698278,-0.0384874
-0.0139539,-0.0234539
0.0588478,-0.0232542
0.12234,-0.0759826
0.124712,-0.0211955
0.0712542,0.0991409
0.000769407,0.0416096
-0.0505449,0.0132547
-0.0624786,0.0141394
-0.0545457,0.0161908
-0.0497017,0.0168575
-0.0530329,-0.00358475
-0.0477025,0.0152009
-0.032441,0.0174013
-0.0120986,-0.014142
0.00210593,-0.0186928
0.0117003,-0.0040512
0.0334643,0.0176825
0.0396229,0.0109825
0.00688509,-0.0311816
-0.0158736,-0.00345112
-0.00796941,0.0128678
-0.0161794,-0.00436933
-0.0277382,-0.0161561
-0.0329401,-0.00326503
-0.0381141,0.013546
-0.0399961,-0.00668833
-0.0255468,0.0048988
-0.0114089,0.0169855
0.0141502,0.0248707
0.0463538,-0.0161733
0.0501977,-0.0974761
0.0585111,-0.0218438
0.0541244,0.0176244
0.0204891,0.00545866
-0.00718494,0.0219533
-0.0253225,0.0385321
-0.0177486,0.035606
-0.00488317,0.00979592
0.00822036,-0.0128767
-0.00884664,-0.021055
-0.0267036,-0.0272472
-0.043673,-0.0210702
-0.0242863,-0.0105417
-0.00635426,-0.0135124
-0.00763645,-0.00608863
-0.00543185,0.00595372
0.00875102,-0.00422351
0.0195377,-0.0041787
0.0202744,-0.00177435
0.0217687,0.00173708
0.0266882,0.0119047
0.0365159,0.0241585
0.0407843,0.025838
0.031839,0.0164977
0.017368,0.00324211
0.0189736,-0.0136925
0.00939904,-0.0118265
-0.00162598,0.00426445
-0.00643045,0.00500336
-0.0432594,-0.0122649
-0.0568569,-0.01259
-0.0427697,0.0113625
-0.0730177,0.00333848
-0.0565067,-0.0346269
-0.0182485,-0.0272542
0.0178539,0.0250444
0.0414618,0.0413437
0.0767309,0.041311
0.0654281,0.0176598
-0.000135844,-0.00502654
-0.0604152,-0.0171531
-0.0647303,-0.025799
-0.0387265,-0.0138833
-0.00187322,-0.0195747
0.0436009,-0.0337203
0.0827764,-0.039265
0.0601155,0.00237426
0.0255115,0.0338454
-0.0100092,0.0203794
-0.0299881,0.010941
-0.0507115,0.00578401
-0.107197,0.00177437
-0.136607,-0.0126661
-0.131982,-0.00752018
-0.0353752,0.0119759
0.0965273,0.0339564
0.182044,0.0347928
0.196231,0.00867167
0.125578,-0.0173349
0.0342219,-0.0250407
-0.00808936,-0.0046039
-0.0323104,0.013544
-0.0297519,0.00448639
-0.0195344,-0.0162288
-0.0121276,-0.0296923
0.0144075,0.00230226
0.0281151,0.0144474
2.52e-05,0.0113178
-0.0312944,0.00127975
-0.0255761,-0.0128839
-0.0136507,-0.010949
-0.00703027,-0.00455388
0.00162018,0.00738608
0.00377569,0.0133522
-0.0146146,0.00299215
-0.0488204,-0.00965841
-0.0659343,-0.00985854
-0.0801009,-0.00210226
-0.0607352,0.00444334
-0.0194013,0.0246158
0.0138252,0.021526
0.0289554,-0.00817194
0.0300596,-0.00440279
0.0206523,-6.37e-05
0.037603,-0.0123345
0.0441187,-0.021028
0.0476493,-0.0116947
0.0364886,-0.00770214
0.0170607,0.008817
0.00425929,0.0247956
0.00455251,0.00496565
-0.00191468,-0.0245162
-0.0175819,-0.0349828
-3.12e-05,-0.00679631
0.00489414,0.021603
-0.016787,0.0126531
-0.0366537,0.00591509
-0.0215377,0.0166858
0.00884474,0.0257291
0.0308489,0.00621326
0.0158639,0.000143934
-0.0158942,-0.0290798
-0.0167442,-0.0454034
0.00330143,-0.00347351
0.024443,0.0126673
0.0312503,0.00610146
0.0119326,0.0112387
-0.0192594,0.0127213
-0.0221696,-0.0027811
-0.013259,0.00981409
-0.0167301,0.0243376
-0.0211304,0.0274848
-0.0280344,-0.0158891
-0.0222799,-0.0486858
0.00495399,0.00655839
0.0197836,0.0190084
0.00157293,-0.00744417
-0.0198451,-0.0018036
-0.0189277,0.0124403
-0.00408324,-0.0106427
0.0128282,-0.00707159
-0.000403556,-0.00504992
-0.010363,-0.00716504
0.0131287,-0.00128897
0.0204954,-0.00432455
0.0149774,-0.0152421
0.0130896,-0.00873171
-0.00196019,0.0127677
-0.0189558,0.0189372
-0.0224762,0.00657717
-0.01415,-0.000312732
-0.0139986,0.0242727
-0.0109634,0.0375175
0.00767435,-0.00267443
0.0274926,-0.033901
0.019793,-0.0217951
0.0345596,-0.0161354
0.0293733,-0.0113186
0.0088889,-0.00532464
-2.09e-05,-0.00536385
-0.00197262,-0.00500027
0.00285892,-0.0101974
-0.00220324,-0.0161523
-0.00596314,-0.017282
0.00580976,-0.0010454
0.00668147,0.0102081
-0.00509536,0.00634225
-0.0299202,-0.00560454
-0.0489218,0.00472228
-0.0358598,0.00477959
0.00908413,-0.012913
0.0511869,-0.023356
0.0750931,-0.0156056
0.0540633,-0.000254259
0.0126648,0.00886144
-0.0226622,0.0223436
-0.018376,0.0333886
-0.0122237,0.0486455
-0.0356877,0.0466801
-0.0302847,0.0372193
-0.00769551,0.0348151
-0.00934673,-0.0190602
-0.00540611,0.00520687
0.00871746,0.0439001
0.0110104,0.0194086
0.00675727,0.00955566
0.020202,0.000453395
0.0249246,-0.00816242
0.00370636,-0.0107116
-0.0244704,-0.0120481
-0.0288797,-0.00876595
-0.0375001,0.0109676
-0.082282,0.011019
-0.0609615,-0.000700413
-0.00570979,-0.0149025
0.0541,-0.0281096
0.0707624,-0.0388555
0.0221225,-0.01672
-0.0239571,-0.0108986
-0.0198438,-0.0366855
0.0065735,-0.0336195
0.023463,-0.0460165
0.0404281,-0.0252484
0.050016,0.0302243
0.0269902,0.0185077
-0.00426707,-0.0137276
-0.00984719,0.00926545
-0.0273611,0.0297369
-0.0682945,0.0432052
-0.0669014,0.0443301
-0.00628752,-0.0276158
0.0338841,-0.0518262
0.0399845,-0.0473068
0.0413348,-0.0220676
0.0376739,-0.0150896
0.0141942,0.00508818
-0.0206196,0.0287715
-0.044511,0.0302764
-0.011047,0.0142718
0.00114896,-0.0621158
0.00266877,-0.0346659
-0.00557833,0.0219261
0.00023565,0.00865385
0.0131237,0.00419112
0.0025392,0.0130711
-0.0165864,0.0130974
-0.0123408,0.00545075
0.00663177,0.00684209
0.0266276,0.000370562
0.032325,-0.00731918
0.0194342,-0.0050332
0.0030695,0.000450937
0.00288441,0.0146382
0.00635025,0.0275171
-0.00314017,0.0182991
0.000282633,0.0144065
0.0024389,-0.00745568
0.00919956,-0.00585501
0.00648267,0.00163347
0.00102171,-0.00387602
-0.00228021,-0.0025489
-0.00151689,-0.00201576
-0.00783817,0.00137104
-0.0209877,-0.000319161
-0.0258881,-0.00240452
-0.0235238,-0.00626142
-0.00217115,0.000424114
0.0248791,0.0106161
0.0386709,0.0152603
0.0131515,0.0205451
-0.0498662,0.0114386
-0.0500354,-0.00196704
-0.016526,0.00385753
0.010523,-0.00106673
0.0349703,-0.0173872
0.0337744,-0.0196841
0.00652993,-0.0136844
-0.0101716,-0.00890511
-0.00876648,0.00768398
-0.00449215,0.00961996
0.000954834,0.0160547
-0.00392158,0.0165524
-0.00525845,-0.0186923
0.000578015,-0.0220576
-0.00559835,-9.64e-05
-0.0431004,0.0159019
-0.0591635,0.0153031
-0.0425842,0.0138728
-0.025046,0.00945221
0.00277982,-0.00442249
0.033469,-0.0230525
0.0351901,-0.0212196
0.0264046,-0.0159304
0.0196173,-0.0114961
0.00368935,-0.00223716
0.00896366,-0.0115045
0.0219837,-0.0145593
0.0182808,0.00731436
0.018446,-0.000666455
0.0128166,-0.0221026
0.00344377,-0.00922833
0.000461909,0.0174834
0.00537959,0.0156834
0.0072165,0.00833608
-0.00596278,0.00945648
-0.00964841,0.00982978
0.00772403,-0.00294064
0.0125141,-0.00668365
0.0119299,0.00317543
0.0114738,0.0075806
-0.00683025,-0.00629769
-0.0449421,-0.00463978
-0.0571351,0.0171085
-0.0334231,0.0214096
-0.00134288,0.0180362
0.0273941,-0.0115799
0.0263653,-0.0205003
0.00118101,-0.00742181
-0.00381165,0.00796755
0.00738403,0.00692931
0.0189552,0.00127832
0.0328132,0.00443632
0.0247834,0.00432765
0.00578478,-0.026043
-0.00353913,-0.0257118
-0.00226457,-0.0158662
0.0070563,-0.00521239
0.00952579,0.0162
0.010207,0.0303037
0.00998229,0.0211502
0.000274586,0.019779
-0.0189678,0.0166227
-0.0746274,-0.00445465
-0.128613,-0.0046168
-0.136569,-0.00380207
-0.114278,-0.00307871
-0.0404018,-0.000228559
0.0386732,0.00723678
0.103408,0.00526346
0.132918,-0.00596245
0.117428,-0.0223859
0.0741249,-0.0114303
0.0285385,-0.00705105
-0.0165179,-0.00382392
-0.0457033,0.0126352
-0.0304828,0.0155896
0.00639531,0.00525466
-0.011183,-0.00162599
-0.0206275,-0.030483
0.0164066,-0.0546629
0.0672047,-0.0238679
0.0680572,0.00200331
0.0401074,0.0104913
0.00484202,0.0197975
-0.0144096,0.0267188
-0.0163708,0.00505287
-0.0319765,-0.00738472
-0.0298489,-0.00345631
-0.0191323,0.00436083
-0.0263212,0.0116706
-0.026023,0.00848258
-0.011015,0.00416424
-0.00808481,-0.00105122
-0.0135422,0.00016112
-0.00838424,0.00479574
0.0133435,-0.0139227
0.0321247,-0.0191261
0.0272871,0.00550145
0.00990526,0.00616313
-0.00446384,-0.00480531
-0.0121804,0.0160079
-0.0254833,0.0320867
-0.0199348,0.0369036
-0.005488,0.0300928
-0.00543308,0.0104979
-0.0114163,-0.0321852
-0.0101946,-0.047975
-0.00967792,-0.026555
0.00449696,0.00891342
0.0259175,0.0132416
0.018445,0.00713385
0.0079944,-0.0104221
0.00638004,-0.0215462
0.00683629,-0.0197706
0.00222,-0.00629167
-0.00475956,0.00365888
-0.00450979,0.012126
-0.0115023,0.0216271
-0.0212314,0.0129114
-0.0223665,-0.00644638
-0.0152461,-0.0352939
0.0171614,-0.0296846
0.0257937,0.0149373
0.020316,0.0198227
0.0213261,0.00360144
0.0170451,0.0149462
0.0195966,0.00897045
0.0117921,0.0131116
0.00871985,0.0150801
0.0136262,-0.00363675
0.00451712,-0.0121225
-0.00146657,0.000381048
-0.00028715,0.012376
-0.00884218,0.00367323
-0.0393921,-0.000423628
-0.0586147,0.00639028
-0.0571432,-0.0171584
-0.0435074,-0.0227437
-0.0159685,-0.0116573
0.0102323,-0.0133883
0.0117003,-0.00408259
-0.00245229,0.00531661
-0.0173081,0.00433383
0.00837062,0.00992721
0.0286452,0.00533
0.0153424,-0.00880847
0.0158008,-0.0159965
0.0194591,-0.00812985
0.0316391,-0.00523124
0.0399124,0.00100391
0.0168925,-0.00349744
-0.0202118,0.0087756
0.0135512,0.0356708
0.037861,0.00937114
0.0203755,-0.0164991
0.0175222,-0.0108416
0.00633936,-0.0104914
-0.0244237,-0.00216235
-0.0350156,0.000487175
-0.0246171,0.0097191
-0.0214002,0.00215698
-0.0302272,-0.00713873
-0.0192137,-0.0141129
0.000104757,-0.0160568
0.0193513,-0.00174747
0.025017,0.00213611
0.0158398,0.000832214
-0.0018524,0.0115046
-0.00793124,0.00708746
-0.00119862,0.00161743
0.0169817,0.0117311
0.0144457,0.0179229
0.0101808,0.0185547
0.00540261,0.0106923
0.00041465,0.00918907
-0.00649564,0.00303317
-0.00925446,-0.00741354
-0.0171939,-0.000158896
-0.083214,-0.00807399
-0.111757,-0.00885276
-0.0879432,-0.000278636
-0.0375508,0.00622853
0.0160665,-0.00480175
0.057557,-0.0104515
0.0427602,-0.00503192
0.047919,0.0152699
0.0500637,0.0117086
0.0481627,-0.0193411
0.0279299,-0.0191086
0.0124381,-0.0100774
0.0139986,-0.00343802
0.00202661,0.00288858
-0.00502845,0.00595366
0.00945825,0.0136562
0.0454293,0.00636647
0.0581598,-0.00969274
0.0505078,-0.0122638
0.0368638,0.00248065
0.0100083,0.014103
-0.0346026,0.0200491
-0.072515,0.0151328
-0.0674138,0.0166089
-0.0334042,0.000443181
-0.0119724,-0.00567588
-0.00933127,-0.00690379
-0.0109451,-0.0166913
-0.0201037,-0.019114
-0.00973763,-0.00343834
-0.00717855,-0.0110293
-0.000733168,0.00385982
0.0109776,0.00572457
0.0231864,0.000478403
0.0228139,-0.00665877
0.00208058,-0.027589
-0.0128326,-0.00314603
-0.0187448,0.015302
-0.01297,0.0215083
-0.0112667,0.0172259
-0.00412647,0.0186227
0.0132827,0.00693517
0.0208753,-0.0189068
0.0101719,-0.0109851
0.00568492,0.012568
0.0301575,0.00617586
0.0481703,-0.00638163
0.0135551,-0.00450411
-0.0442622,-0.0004902
-0.0370187,-0.0105577
-0.00797574,-0.0268048
-0.0110546,-0.0233103
-0.0157382,-0.00280501
-0.00187898,0.00879035
0.0043376,-0.0123747
0.00429425,-0.00335479
-0.00288241,0.00673738
-0.00396219,-0.00415821
-0.00365277,-0.0118863
-0.00212897,-0.00901342
0.010931,-0.00152648
0.0246262,-0.000791245
0.019576,0.00735264
0.00135668,0.022146
-0.00765745,0.0174344
-0.0159295,0.00872489
-0.0298611,0.00702811
-0.0238721,-0.000136309
-0.00453701,-0.00488489
0.0106628,0.00479126
0.0119186,0.0120072
0.00810837,-0.0117258
0.00859116,0.0024186
3.28e-05,0.0272528
-0.0289903,0.0176794
-0.0405256,-0.0161934
-0.0230583,-0.0245473
0.00158514,0.00841908
0.0174606,0.0147898
0.0216665,0.00516667
0.0203102,-0.0047259
0.0120267,0.010506
-0.000428429,0.00334148
0.00088608,0.000493394
0.0178489,0.000938659
0.0174234,-0.00678824
0.00799824,-0.0064394
0.00525017,-0.00101621
0.00689404,0.00330737
0.00264742,0.0101647
-0.00595931,0.00920315
-0.00548661,0.00400897
-0.00801677,-0.010213
-0.0140691,-0.00969418
-0.0115398,-0.00377507
-0.00223329,-0.00281698
0.0221313,0.00416075
0.0392555,0.00179306
0.0197784,-0.0249731
0.00788121,-0.00650163
2.89e-05,-0.00594594
-0.000187943,-0.0278715
0.00274915,-0.000460496
-0.0196866,0.00603485
-0.0674806,4.66e-05
-0.0738154,-0.0138987
-0.0464483,0.0122538
-0.0194865,0.023337
0.0100776,0.00408186
0.0247809,-0.00543747
0.0281496,0.0027989
0.0181461,0.00405876
0.0145317,0.00640228
0.0164272,0.0126171
0.0257635,0.00583182
0.0491568,-0.00172231
0.0518537,0.000573316
0.026095,-0.00548805
0.0153886,-0.0100812
-0.00858165,0.000817692
-0.0249802,0.00182785
-0.0367961,0.00121727
-0.0256251,-0.0114921
-0.00326385,-0.0257533
-0.011244,-0.021392
-0.00408984,-0.0196139
0.00727936,-0.0209434
0.0214803,-0.0179897
0.0130025,-0.00065777
0.00455049,0.0146868
-0.00076785,0.0277945
-0.00692751,0.0338717
-0.0141714,0.0347032
-0.00621718,0.0151711
0.0111893,0.00206681
0.0173868,0.0213195
0.0127939,0.0214336
0.00511681,-0.00194784
-0.00816824,-0.00456643
-0.0175129,-0.01039
-0.000369628,-0.0222192
0.0141188,-0.037703
0.00126588,-0.0326032
-0.0132398,-0.00875662
-0.0263748,-0.00472596
-0.0641534,0.0145025
-0.0785097,0.0299962
-0.0569033,0.0248291
-0.0155317,0.0166099
0.0177032,-0.0047086
0.0328578,-0.0146372
0.0205809,0.0202751
-0.0102122,0.0301913
-0.0127913,0.0319967
0.00637686,-0.00185562
0.0337575,-0.0155147
0.0372363,-0.0137736
0.0116386,-0.023048
0.00533041,-0.0351081
0.0246,-0.023152
0.0417677,-3.35e-05
0.0418767,0.020178
0.0209036,0.0247734
0.00757481,0.019247
0.00101288,-0.00963477
-0.0057638,-0.0153746
0.00204222,0.00110207
-0.000842296,-0.00660212
-0.0117647,-0.00440056
-0.0195826,0.00500351
-0.0181382,0.00378815
-0.0219005,0.0006692
-0.0174104,-0.00157093
-0.00167094,-0.0137043
0.0155884,-0.0323514
0.0177932,-0.0324733
0.00626744,-0.0177269
-0.00380375,-0.00979986
-0.00569597,0.00155231
-0.00641083,0.0147198
-0.00719756,0.0178682
-0.00386454,0.0237261
0.00436886,0.0271783
0.00417097,0.0117979
-0.000832976,0.00254713
0.00299336,0.0112304
0.00042089,0.0170413
-0.0147676,0.0114494
-0.0228277,0.00652385
-0.00287565,-0.00234523
0.00460647,-0.0172803
0.00659076,-0.02831
-0.00117634,-0.0206924
-0.0134675,-0.0145418
-0.013489,-0.00924665
-0.00406145,0.00102134
0.0032209,0.00259593
0.00713596,0.00949214
0.00663914,0.0112745
0.0183593,0.000702235
0.0251378,-0.00992976
-0.00298351,-0.00666442
-0.0159443,0.0157968
-0.00194113,0.0150247
0.00434402,0.00842794
-0.00347467,0.00830617
-0.0132826,0.0081146
-0.00541381,-0.0142851
0.00530726,-0.02651
0.00619251,-0.0119003
-0.00480915,-0.00367202
-0.00868253,0.0133817
-0.00927252,0.0128769
-0.011504,0.00498744
-0.00491355,0.00226431
9.5e-05,-0.017117
0.0120369,0.00764956
0.0169194,0.0120461
0.00899854,-0.00725142
0.00728918,0.00790202
0.00999566,0.0143925
0.00100137,0.00224288
-0.00167216,0.00524941
0.00345186,0.00205713
0.00982514,-0.0280597
0.0102568,-0.015945
0.00480163,0.0170506
0.00051148,0.010592
-0.00136289,-0.00612712
-0.00554717,-0.001945
-0.0208334,0.00902864
-0.0385096,0.013884
-0.035364,0.00281855
-0.000891263,-0.0050601
0.0213412,-0.0104459
0.0281025,0.00560401
0.0250585,0.00419703
0.00189961,-0.00269601
-0.0152937,0.0068516
-0.0132287,-0.00452997
0.00881332,-0.02026
0.0263714,-0.0149801
0.0258024,-0.00798778
0.0201929,-0.0112969
0.0170601,-0.00416317
0.000270517,0.0140749
-0.0237869,0.0320324
-0.0318989,0.0132496
-0.0288123,-0.0032036
-0.0211476,-0.0125446
0.000788318,-0.0167776
0.00212423,0.00381804
-0.00710262,0.00657974
-0.0160621,0.00355507
-0.0111022,0.000525374
-0.0170116,-0.00506774
-0.0223337,-0.0192652
-0.00378456,-0.0219253
0.0182166,-0.0100117
0.0285573,-0.00300826
0.0291569,0.00469905
0.0248875,0.00157237
0.0256178,0.0024477
0.0269302,0.00124595
0.0227963,0.0215848
0.0109403,0.0350368
-0.0135196,0.0120337
-0.0102395,-0.000101822
0.00409205,0.00166579
0.0052495,0.00668877
0.0038218,0.00237244
-0.00571853,-0.0234378
-0.0160049,-0.0160827
-0.0183579,0.00912325
-0.030925,-0.00249699
-0.0277099,-0.00664538
-0.00182442,-0.00476284
0.00897462,-0.00301611
0.0213143,0.00211817
0.0259541,0.00646339
0.0108818,0.00589169
-0.00730545,-0.000872718
0.000745119,-0.00143265
0.00961973,0.00251721
-0.00658989,0.00142064
-0.0276569,0.0119505
-0.0461694,-0.00195425
-0.0913356,-0.0010078
-0.100729,-0.00734264
-0.0390783,0.0120596
0.0430671,0.0311521
0.0918469,0.0317835
0.0996578,0.0394411
0.072983,-0.0250861
0.01741,-0.0704294
-0.0354606,-0.0225108
-0.0396048,-6.42e-05
-0.0148819,3.67e-05
0.0145758,0.00394062
0.00880241,-0.00623074
-0.000738227,-0.0184691
-0.0148441,-0.0198905
-0.0218761,-0.0123546
-0.0103859,-0.00994626
0.0105098,-0.00176233
0.0188285,0.00476076
0.0231849,0.00120152
0.0387155,-0.0254336
0.00697347,-0.0138887
-0.0346317,0.0301135
-0.032227,0.0247333
-0.00905197,0.0036969
0.00792383,0.01617
0.0314325,0.0199007
0.0487345,0.00737579
0.0524686,0.00512058
0.0317816,0.0158926
-0.00326041,0.00458749
-0.0202774,-0.00532156
-0.0233237,0.0030717
-0.0306477,-0.0066952
-0.0382776,0.00585855
-0.0473055,0.00713365
-0.0350987,0.00131357
-0.00307899,-0.0098668
0.0153977,-0.0214529
0.0267245,-0.0114068
0.0294073,-0.00366471
0.0326918,0.00649467
0.0288005,0.0119685
0.0186093,0.00954528
0.0129435,0.00707291
0.00750697,-0.00726305
0.00691189,-0.0147586
-0.00120684,-0.0126386
-0.029966,-0.00162831
-0.093465,-0.00865859
-0.096277,-0.00934375
-0.0468106,0.0118835
-0.0140018,0.00332772
0.0030099,-0.0162828
0.01992,-0.0208236
0.0228507,-0.0174011
0.0482606,-0.0108645
0.063493,0.00255955
0.0413553,-0.00140744
0.0353564,0.0127217
0.0256679,0.00219796
0.00439656,-0.00407435
-0.016893,0.0267383
-0.0109564,0.0227548
-0.00507434,0.0069091
-0.00612123,0.00388678
-0.00480962,0.00430213
-0.00140218,0.0192356
-0.0126857,0.0148459
-0.0234538,-0.00288302
-0.0179786,-0.00587642
-0.012968,0.00130763
-0.0160952,0.0020127
-0.0122376,0.0124177
-0.000734255,0.00715009
-0.000180369,0.0151621
-0.0123893,0.0289957
-0.0196048,0.0127533
-0.0131875,-0.0015721
0.00312042,-0.0135143
0.0203346,-0.0251655
0.0186673,-0.0149497
0.0189785,-0.00679471
0.0248756,-0.0171948
0.0218232,-0.0146394
0.0163221,-0.00150063
0.0110851,-0.00152935
0.0101078,-0.0130718
0.00302939,-0.0129328
-0.0141536,0.000358798
-0.0350424,0.0150888
-0.0447634,0.0232596
-0.0416508,0.00994734
-0.0398243,0.00583275
-0.0191595,0.00240221
-0.00410758,-0.00991772
0.0300985,-0.0169895
0.0770432,-0.0181619
0.0966288,-0.0291675
0.0407129,-0.0267652
-0.095951,0.0137818
-0.122046,0.0194943
-0.0682226,0.0184409
-0.0129689,0.00954681
0.0175315,-0.00522703
0.0428515,-0.00765039
0.0411346,-0.00474248
0.0200888,-0.00397568
0.0193095,0.00344218
0.0159728,0.0101667
0.021747,-0.00142457
0.0279468,-0.00113059
0.0347588,-0.0142495
0.0335572,-0.0144984
0.0247696,0.00330902
0.0117423,0.000239263
0.00610604,-0.00562754
0.0182093,0.00561663
0.0116594,0.0111481
-0.0117228,0.00410354
-0.0236301,-0.00512222
-0.0175749,-0.00321305
-0.0101977,0.00138258
-0.00942533,-0.000655745
-0.0158243,0.00560927
-0.0267558,0.0188718
-0.0311054,0.0106132
-0.0264633,0.00236672
-0.0136135,0.000462233
0.000766053,-0.00486711
0.00127172,-0.0153157
-0.000449909,-0.0206585
0.00523322,-0.0192018
0.0198243,0.00166774
0.0275897,0.0171911
0.0213686,0.0185834
0.00898938,0.00944098
0.00359109,-0.000291262
0.00478754,-0.00307393
0.00476464,0.00365294
0.000782456,0.00601993
-0.0148202,0.0121902
-0.0286594,0.0209281
-0.0295398,0.0188759
-0.021264,0.0106671
-0.010632,0.00876484
0.0013141,-0.00984291
-0.00784502,-0.00905905
-0.0181944,0.0018359
-0.0168052,-0.00115071
-0.00360843,0.00119442
0.0102308,-0.00973574
0.0285561,-0.0149303
0.0368506,-0.00236011
0.0346414,-0.00957759
0.0204325,-0.0197538
0.00784798,-0.0112228
-0.028597,-0.00236618
-0.06856,0.000708915
-0.0612076,0.00463262
-0.0379468,-0.000183499
-0.0114382,-0.00210997
0.0103534,-0.00667201
0.0274764,-0.0183227
0.0383405,-0.00812966
0.0430562,0.00180748
0.0479926,-0.0107336
0.0456507,0.0115611
0.030601,0.0266514
0.0103972,0.0219698
-0.0322412,0.00149787
-0.0451352,-0.0152179
-0.025384,-0.00609783
-0.00747107,0.00707965
-0.00203183,0.0144148
0.00245417,0.0025137
-0.0149973,-0.00418853
-0.0124305,0.00512375
0.010951,0.0050863
0.017296,-0.0254771
-6.7e-05,-0.0297584
-0.00346757,-0.0101333
0.0109248,0.00407544
0.020631,0.0215129
0.020722,0.0146215
0.00763952,0.0141235
0.000305038,0.00279547
0.00607128,-0.0240043
0.0156893,-0.0165249
0.00728781,0.00135618
-0.00955157,-0.00344894
-0.013571,0.00480335
-0.0186886,0.0174415
-0.0170458,0.0128022
-0.0138374,0.00664622
-0.0119569,0.00366053
-0.0030694,-0.00236496
0.00593609,-0.00922049
0.00995658,-0.00716393
0.0122704,0.00343431
0.00491901,0.00342851
-0.00135033,0.00590034
-0.0208145,0.00925846
-0.0520774,-0.00252674
-0.0605863,-0.0121227
-0.0340954,-0.0123074
0.0214351,-0.00458615
0.0626933,0.0147898
0.0659315,0.0119123
0.0451818,-0.00157695
-0.000885549,0.00381545
-0.0296902,0.00411123
-0.0409714,-0.00279496
-0.0329175,-0.0172818
-0.0144489,-0.0250688
-0.00841007,-0.00261185
-0.00770601,0.0181421
0.0188519,0.01943
0.0461142,0.0142448
0.0592125,0.00642893
0.0633185,-0.00566203
0.0503931,-0.00295964
0.0169898,0.000393897
-0.0115174,-0.0120695
-0.0351381,0.000272305
-0.0572311,0.0276111
-0.0425212,0.0122185
-0.00880041,-0.0169208
0.00206586,-0.00916185
-0.00989036,-0.00709641
-0.0394301,-0.00485525
-0.118383,0.00858938
-0.136446,0.0207585
-0.0556323,0.0197643
0.0282373,0.00117059
0.0889716,-0.0535333
0.118707,-0.0466455
0.107493,-0.00600693
0.0715767,0.00915531
0.0277976,0.00433107
0.0119034,-0.00139209
0.0111023,0.000365
0.0105254,0.00885193
0.00478883,0.00942872
-0.0108986,0.00393993
-0.0317332,0.00558693
-0.0398891,0.000279959
-0.0497448,-0.00390703
-0.0658568,0.00163252
-0.0403333,0.00200331
-0.00941595,0.00267516
0.0244963,0.00621303
0.035065,-0.00197953
0.0357891,0.0119762
0.0298668,0.0126676
0.0272206,-0.0232971
0.0137187,-0.0092082
-0.00347712,0.0102388
-0.0127508,0.0110498
-0.00691875,0.00419338
0.00349105,-6.73e-05
0.0135164,0.00274871
0.02138,-0.00307208
0.0187218,-0.0112004
0.00851193,-0.0019991
-0.0117414,-0.00119714
-0.0137524,-0.00215098
-0.0222182,0.00884014
-0.0347386,0.00708131
-0.0273062,0.00483281
-0.00169545,-0.00849083
0.0118983,-0.0280216
-0.00289,-0.0205536
-0.00787242,-0.00375465
0.00546855,0.00630013
0.00105272,0.00620033
-0.0218606,0.00375545
-0.0440863,0.00349046
-0.0158306,0.0115036
0.023594,0.00218891
0.0238868,-0.0156171
0.0123854,-0.00421023
0.0125238,0.0160533
0.00107313,0.0117568
-0.00888255,0.0134411
-0.0115425,0.0154217
0.000933741,0.0133163
0.0160225,-0.00182541
0.00263885,-0.0224219
-0.0198739,-0.016394
-0.017166,-0.0203845
-0.0137444,0.0043786
-0.00468997,0.0267142
0.0203689,0.00216875
0.0280617,-0.00249884
0.0276414,-0.00350135
0.0310567,-0.00301023
0.0296593,-0.0255739
0.0203215,-0.0365206
-0.00112429,-0.0226434
-0.029719,-0.0121868
-0.0428997,0.0319272
-0.0466604,0.0335834
-0.0541703,0.0141847
-0.0510569,0.00655013
-0.0172742,0.00219339
0.00802702,0.00511122
-0.00705986,0.000745711
-0.0105902,0.00930688
0.00363273,0.00897504
0.0287671,-0.000352941
0.0359515,0.00768157
0.0417841,0.0106558
0.0724164,-0.0112049
0.0727362,-0.0220271
0.0466804,-0.00852138
0.0344133,-0.00404966
0.0188322,-0.0003397
-0.0026059,0.0062167
-0.0210827,0.00635232
-0.017897,-0.0162153
-0.0163978,-0.0141855
-0.010302,0.0104725
-0.00596567,0.00686392
-0.0321774,-0.000141287
-0.0882503,0.00673366
-0.0994435,0.00957034
-0.0671883,0.00303081
-0.00905172,-0.0016853
0.0478321,-0.00764071
0.0829042,-0.0136196
0.0827259,-0.00682668
0.0590796,0.00509723
0.0267198,0.00777186
0.00281513,0.00876798
-0.0149319,0.0133851
-0.0147261,0.00720833
-0.00160771,-0.00337941
-0.0053438,-0.00901166
-0.0138243,-0.00742079
-0.0101033,-0.00908287
-0.00725128,-0.00632685
-0.00242681,0.000378359
0.0077095,0.00105124
0.0124913,0.00758489
-0.0014068,0.011465
-0.0238973,-0.000652981
-0.0578206,-0.0161078
-0.0823975,-0.0383829
-0.082795,-0.0391814
-0.0829716,-0.00728882
-0.0712776,0.0045294
-0.012668,-0.00708172
0.0697745,0.002823
0.0900985,0.0182145
0.083623,0.0113938
0.0566162,-0.00237948
0.026597,0.00321714
0.0284452,0.0218119
0.0405768,0.0306987
0.0258207,0.0236807
0.0259645,0.0166702
0.0105243,0.0135474
-0.00204865,0.002527
0.00859326,4.33e-05
0.0053362,0.00622226
-0.024662,0.0145708
-0.0398303,0.0177691
-0.0101255,-0.00275287
-0.00335894,0.00896389
-0.00491572,0.00127404
-0.0192699,-0.0177358
-0.0309047,-0.00832001
-0.0237562,-0.00494189
-0.0254778,-0.00375718
-0.0282896,0.00371584
-0.00802026,0.00106189
0.00932925,-0.0101549
0.0100864,-0.0140719
0.00748005,-0.0193747
0.0143832,-0.020856
0.0210212,-0.0113089
0.0262936,-0.00127434
0.0262836,-0.00200106
0.015836,-0.0024492
0.00476355,0.00525803
-0.000117531,0.00425352
0.00237065,-0.0067097
0.00461857,-0.0149984
-0.00134198,-0.010536
-0.0100449,-0.0102162
-0.016758,-0.00542356
-0.0168361,0.00260289
-0.0106401,0.00326128
0.000964475,-0.00117674
0.00602253,-0.00234075
0.00955446,-0.00762811
0.0101702,-0.00156446
0.00492267,0.019881
0.000409006,0.0452431
0.00109356,0.0435114
0.00290843,0.0353521
-0.0133883,0.0240736
-0.0288555,0.00848597
-0.0365424,-0.062732
-0.0317709,-0.0598729
-0.024096,-0.00210172
-0.0119019,0.0103338
0.0152312,0.0151942
0.0484041,0.00494161
0.0295645,0.0106315
0.00582609,-0.00467846
-0.0027002,-0.0227279
-0.0165186,-0.0340225
-0.0234384,-0.0487317
-0.013949,-0.00222988
0.00711683,0.0141182
0.0154871,0.00883623
0.0136272,0.0231133
0.00902581,0.0418041
0.022784,0.0129985
0.0329733,-0.00734417
0.0188122,-0.00884856
0.0106849,-0.0246936
0.00762608,-0.00730016
-0.00619528,0.00861742
-0.00669885,-0.000837154
0.00756304,-0.00709346
0.00813839,0.00266801
-0.0181138,-0.0131203
-0.0362859,-0.0087071
-0.0247697,0.0123908
-0.01526,0.0139875
-0.04428,-0.00471601
-0.0666218,-0.000771829
-0.0222874,0.00932403
0.0341917,0.0140108
0.0673135,0.0090217
0.0691651,0.0043532
0.052452,0.00393842
0.0327144,-0.00316075
0.00752609,-0.00565412
-0.0283092,0.00111656
-0.0206459,0.0138633
-0.0223914,0.0101671
-0.0667532,-0.00460194
-0.0529939,-0.0145521
-0.0115441,-0.0148592
0.0324442,-0.00320369
0.0665501,0.00183226
0.0783314,-0.00679399
0.0637074,-0.00765512
0.0265567,0.00139916
-0.0100451,-0.00240927
-0.0270966,-0.0102883
-0.0304074,-0.00678568
-0.0355107,0.000966974
-0.0314704,0.00698975
-0.0241958,0.00695316
-0.019844,0.0151183
-0.0139027,0.019207
-0.000883044,0.00654027
0.0111369,-0.00113175
0.0203723,-0.0062775
0.021739,-0.0087562
0.0182348,0.00202902
0.0202072,0.0219593
0.0122358,0.00875307
-0.00647954,-0.00634107
-0.0116282,0.00745919
-0.0103822,-0.00156538
-0.0315774,-0.0255722
-0.0627952,-0.0254148
-0.0635134,-0.0112109
-0.0480394,-0.0377569
-0.00972606,-0.0109928
0.0386717,0.0274139
0.0539029,0.00947124
0.0335201,0.00980518
0.0215005,0.00428075
0.0290088,0.00426391
0.0290589,0.00333138
0.00944342,-0.000814442
-0.0119994,-0.000958953
0.00535261,0.011833
0.00827649,0.0449731
-0.00721036,0.0202584
-0.0106404,-0.024633
-0.00891703,-0.0103269
-0.0284974,-0.00850022
-0.0393561,-0.0194564
-0.0255425,-0.00336807
-0.00936218,-0.0141453
0.00894166,0.0196182
0.0227531,0.0161793
0.0278368,-0.00268456
0.0175949,-0.00549119
-0.000894787,-0.015501
-0.0164081,-0.00567614
-0.00906487,0.00424272
0.00644158,0.00296219
0.0124429,0.0110483
0.00360432,0.0138777
-0.0169932,0.0127985
-0.0171974,0.00453734
-1.46e-05,-0.000668208
0.0116591,-0.00328417
0.0151036,0.00173906
0.00819797,0.00908558
-0.0121109,0.0111126
-0.0110936,0.00312268
0.0143334,-0.00614481
0.0202213,-0.0115593
-0.00240845,-0.0180644
-0.0188096,-0.0155997
-0.0179688,-0.00322592
-0.0147945,0.00271943
0.000242726,0.0065085
0.0147377,0.0153744
0.019561,0.0090891
0.000130932,-0.0103944
0.0104835,-0.0220626
0.0211345,-0.0153318
0.0120631,-0.0107655
0.0052158,-0.00280208
-0.00150039,0.00553357
0.000707978,0.00687912
0.0129936,0.00185804
0.0130214,0.00242804
0.00752161,0.000903068
0.00326246,-0.0140823
-0.00763362,-0.00769875
-0.0196421,0.00279102
-0.0156256,0.00891223
-0.00866607,0.0201022
-0.0179921,0.0200989
-0.0411538,0.0145703
-0.0557817,0.00543705
-0.0453037,-0.00927614
-0.0360357,-0.0212351
-0.0257548,-0.0171235
-0.00934926,-0.0185313
0.00222874,-0.0183671
0.0115858,0.00364822
0.0371106,-0.00104429
0.0649619,0.0242376
0.0469434,0.0129518
0.0412282,0.00188235
0.0490851,-0.00830932
0.0348011,-0.0268465
0.0263095,-0.00783347
0.0334663,0.00326179
0.0343854,0.00494435
0.0209813,0.015353
0.013088,0.00854648
0.00625279,-4.13e-05
-0.00743681,0.0102862
-0.0171605,0.0202319
-0.0357221,0.023711
-0.0426161,0.0157858
-0.0415934,-0.023834
-0.0543393,-0.0215898
-0.0497757,-0.00277213
-0.0161056,-0.00678656
0.0165534,-0.00106871
0.0128177,0.00166505
-0.047711,-0.00216304
-0.0699803,-0.000155313
-0.032031,0.00364309
0.0248931,0.00199581
0.0511831,0.00707552
0.0649228,-0.00229144
0.0575557,-0.00715521
0.0321319,-0.0116305
0.00822278,-0.00553731
-0.0132708,0.00331229
-0.0219271,0.00258169
-0.0174344,-0.00198639
-0.0238345,-0.00428136
-0.011023,-0.0190978
0.0167264,-0.023743
0.0254906,0.010145
0.000146557,0.0151897
-0.0338811,0.00233904
-0.0388765,0.0106331
-0.0282328,0.00993045
-0.00486616,0.012869
0.0232289,0.00612482
0.0347492,-0.00532726
0.0361888,-0.000790884
0.0213598,-0.00696562
-0.00753206,-0.00928746
-0.0228717,0.0137189
-0.0155844,-0.00190966
-0.00284868,-0.00299869
0.000403413,0.00805205
0.00633978,-0.00559662
0.0156223,-0.00543529
0.0226347,0.0114924
0.0148399,0.0183567
0.00460893,0.0158438
-0.000244567,0.00982872
-0.00242676,0.00552809
-0.00943758,-0.00135948
-0.0149096,-0.0144981
0.0133722,-0.01456
0.0145955,-0.0139102
-0.00391441,-0.0155902
-0.0120424,0.00519953
-0.0105575,0.0110655
-0.00838557,0.00164209
0.010436,-0.00598062
0.00716073,-0.00507949
-0.0280603,-0.0177715
-0.055137,-0.0106874
-0.0637314,0.00409395
-0.0463174,0.00975531
0.00793673,0.0117728
0.0463505,0.0147137
0.0539127,0.0175203
0.0529798,-0.000485336
0.035709,-0.0186634
0.013443,-0.0111692
-0.0137112,-0.00261201
-0.0418972,-0.00936021
-0.0510632,-0.000447269
-0.0236002,0.0023056
0.0246499,0.00214908
0.0553365,-0.0159938
0.0491423,-0.0279166
0.00574273,-0.0236229
-0.00976711,0.00183227
-0.0198166,0.00733515
-0.0309827,0.00633677
-0.00472029,0.0162154
0.0183204,0.00657044
0.0237978,0.000336863
0.0217167,-0.00749988
0.00881718,-0.0129964
0.00119786,-0.023076
0.00434,-0.014642
0.00700664,-0.00508111
0.00228675,0.00530109
0.00610634,0.0085861
0.00355311,0.0202524
0.00763476,0.0397425
0.00472435,0.0278162
-0.0130166,0.0104684
-0.0267699,0.0161838
-0.0324294,0.0301017
-0.0385995,0.0245872
-0.0333793,0.024744
-0.0146765,0.0249871
-0.00979609,0.00614114
-0.00913554,-0.0152785
0.000333791,-0.0162074
0.0113319,-0.00203401
0.0190423,0.00148544
0.00711581,-0.00428941
-0.0187305,0.000452014
-0.0163914,-0.00653546
-0.00388209,-0.0220536
-0.0123374,-0.0176916
-0.0106703,-0.019954
-0.0016235,-0.0101966
0.00445021,-0.0114177
0.0181487,0.00164278
0.0409156,0.000635513
0.0656827,-0.0031418
0.0349498,0.0044861
-0.0114925,0.00824501
-0.00117925,-0.010268
0.0114573,-0.027917
-0.0049166,-0.0176159
-0.0123679,-0.00786756
-0.0103641,-0.00410989
-0.000983842,0.00953269
0.00325974,0.0128838
-0.00837512,0.00661165
-0.0113021,-0.00243688
-0.0469089,-0.0136158
-0.076071,-0.00886186
-0.0513107,0.00865391
-0.00176901,0.0102731
0.0264812,0.00889827
0.030232,0.0172711
0.0421156,0.0161316
0.064573,-0.00816681
0.053405,-0.0278255
0.0112638,-0.0217739
-0.00619387,-0.0085125
0.00367656,-0.00125861
0.00463206,0.00629366
-0.0136194,0.0105955
-0.0310669,0.0063166
-0.0275321,-0.00206434
-0.000246281,-0.010467
0.0292591,-0.0173123
0.0413134,-0.00250314
0.0325127,0.0127632
0.0176992,0.0126876
-0.00343066,-0.000964234
-0.0224243,-0.0152079
-0.0196678,0.00115972
-0.0196101,0.0038205
-0.0115617,-0.0132238
-0.0206652,-0.000810543
-0.0272663,0.00280261
-0.00383041,0.0109866
0.00871638,0.018939
0.0100645,0.0156671
0.015739,0.00423243
0.0104156,-0.00135858
0.011895,0.00123619
0.0118036,0.0122371
0.00623317,-0.00150312
0.00398882,-0.0167467
-0.00678239,9.51e-05
-0.0183715,0.00826165
-0.0214908,0.0100912
-0.0400371,0.00303336
-0.0398257,-0.0072181
-0.0180052,-0.00102397
-0.00788728,0.00385243
-0.00375885,-0.00163268
0.0140298,-0.00484865
0.029235,0.0005515
0.0263763,0.0135384
0.0101366,0.00911275
-0.0017954,-0.0101477
-0.00199947,-0.0274405
0.00713559,-0.0129474
-0.00790969,-0.0102486
-0.019935,-0.000883998
-0.0202597,0.0156
0.00709434,0.0205105
0.0284667,0.0212072
0.00845051,0.00138004
-0.00154336,-0.00224307
-0.0113373,0.000864669
-0.0256095,-0.00255723
-0.0176731,0.00402638
0.00514263,-0.0022098
0.0242,-0.00144012
0.0274007,0.00606723
0.0227464,-0.000496987
0.022016,-0.0127433
0.0236152,-0.0293658
0.0168912,-0.0260542
0.0140607,0.00976239
0.00887728,0.018982
-0.00144042,0.0195463
-0.0170091,0.0141975
-0.012964,-0.00338261
-0.0151932,-0.0133317
-0.014669,-0.0120533
-0.00750081,0.000746271
-0.0149407,0.00222506
-0.0194938,0.00538413
-0.0251616,0.00618351
-0.0230974,0.00375289
0.00347939,0.00161857
0.0237633,0.00651656
0.00918953,-0.0114773
-0.00245035,-0.0279748
-0.00152086,-0.0216132
-0.00122444,0.000180135
0.00527511,0.00114176
0.00374971,0.00695592
0.00348329,0.023466
-0.000514727,0.0204677
-0.00441291,-0.00288882
-0.0141411,-0.0138588
-0.0211423,-0.00855976
0.00898918,0.000719584
0.0229098,0.00737168
0.0142752,0.0016756
0.0172659,0.00738895
0.0139603,0.0117278
0.0105997,-0.00749486
0.0222994,-0.0152676
0.014965,-0.0152226
-0.00735953,-0.0162306
-0.0281307,-0.0364448
-0.0443447,-0.00335593
-0.0369495,0.04758
-0.0313881,0.0344577
-0.0117938,-0.00110127
0.0298404,-0.00307597
0.0438398,0.00433056
0.0395624,0.00489709
0.0207624,0.00570998
0.00285698,0.0143349
-0.0136616,0.0184096
-0.0247615,0.0040992
-0.082546,0.0111186
-0.0882115,-0.0126127
-0.032382,-0.0187437
0.00618434,0.00389107
0.0320484,0.00913229
0.0739776,-0.000980326
0.0829198,0.000803247
0.0509105,0.00744316
0.0212974,-0.0086347
0.00576361,-0.0176021
0.0102255,-0.0137119
0.00765573,-0.0232036
0.00990227,-0.017564
0.0193084,-0.00210197
0.0166322,0.0131771
-0.0198777,0.0134654
-0.0492189,0.00882571
-0.0228411,6.1e-05
-0.0100648,-0.0139898
-0.00892943,-0.0169966
-0.00162334,-0.00259054
-1.71e-05,0.0094783
-0.00554191,0.00096888
-0.0094485,0.00159595
-0.00592221,0.00294772
-0.00884455,0.00577141
-0.0156187,-0.00224224
-0.017002,-0.0074612
-0.013461,0.00615429
-0.00337545,0.006958
0.00869203,-0.00697989
0.0132075,0.00392566
0.0116323,0.0101428
0.00708756,0.0210273
0.00751044,-0.00300675
0.0151031,0.00518783
0.00623529,0.0157916
-0.002532,0.0115464
-0.00132057,-0.00393205
0.00962341,-0.0330818
0.0135772,-0.0372584
0.000206242,-0.030342
-0.00864817,-0.0529268
-0.0204202,-0.0226462
-0.0375207,-0.00663265
-0.0312144,-0.0052769
-0.0197173,0.0237524
-0.0101894,0.0362392
0.00757417,0.0345243
0.0128694,0.0329079
0.00228903,0.0191393
0.00274547,0.00546333
0.0154356,0.00951612
0.0218684,0.0133039
0.025162,0.00928415
0.0226401,0.00712327
0.0148264,0.008839
0.00225419,0.00232277
0.00345875,-0.0107275
0.00987821,-0.016209
-0.00521139,-0.0108578
-0.0269307,-0.0075398
-0.0608602,0.00236154
-0.0733987,0.00802474
-0.0466078,0.000338495
-0.0126002,0.00418021
0.0290627,0.00795144
0.0662267,-0.00256736
0.0701351,-0.0286239
0.0340586,-0.0142548
0.00672786,0.0141652
0.0090275,0.0239782
0.0155667,0.0104393
0.00266844,0.000937683
-0.0151293,0.00978942
-0.0104372,-0.0270772
-0.00376268,-0.0341671
-0.00143196,0.0100078
1.66e-05,-0.0106094
-0.0304018,-0.0122939
-0.0402886,0.0132037
-0.0324769,0.019183
-0.0103877,0.0197563
0.015793,0.00592542
0.0188891,-0.0151941
-0.00673144,-0.0240986
-0.00759856,-0.0118843
0.00207247,-0.00687812
0.0152951,-0.00101915
0.023744,0.00497943
0.030992,0.00256196
0.0343819,-0.00828665
0.024114,-0.0202566
0.00998373,-0.0168019
-0.000386277,-0.012737
0.000707868,-0.00649536
0.00323894,0.00904886
0.00118727,0.0234246
0.0050567,0.0290992
-0.00566413,0.0211735
-0.0121979,0.0105006
-0.0182508,0.000237951
-0.0280979,0.00355254
-0.0213568,0.0107931
-0.0120584,0.00232126
-0.0154086,-0.00386042
-0.0234063,-0.00505734
-0.0100109,-0.0114176
0.00776995,-0.0159407
0.0104038,-0.0113082
0.00358043,-0.00716671
0.000932232,-0.0115131
0.00946669,0.00125097
0.0208385,0.0188956
0.0204431,0.0223919
0.00980378,0.0212848
0.00279323,0.0213693
0.00118757,0.00377462
7.45e-05,-0.00563574
-0.00670434,-0.00085448
-0.0101112,0.00531437
-0.0093391,0.00463164
-0.0115885,0.00501125
-0.0144687,-0.00696183
-0.00855156,-0.0260084
-0.00553738,-0.029982
-0.00640787,-0.0229742
-0.0090293,-0.0190986
0.00730549,-0.0105416
0.015616,0.00440355
0.00749074,0.0116272
0.000568438,0.0160314
0.0167441,0.0190427
0.0198242,0.0147838
0.0126376,0.00732135
0.00311113,0.0016691
-0.000716422,0.00390704
-0.00239428,-0.00738502
-0.00446233,-0.013632
-0.00559247,0.00442286
-0.00276398,0.00980945
-0.00145895,-0.0116401
0.00633565,-0.0114035
0.00307746,-0.0110549
-0.00442096,-0.00757593
0.000550299,-0.0124341
0.00834545,-0.000203838
0.00795755,0.0210918
-0.00541966,0.00798692
-0.0497238,-0.0159407
-0.0840712,-0.00864256
-0.0655104,-0.000933608
-0.0268616,-0.0116468
0.00919094,-0.00786859
0.0381809,0.00324213
0.0580852,-0.000469307
0.05095,0.000121845
0.038719,0.00931853
0.0319261,0.00191196
0.0215821,-0.00259124
0.00988531,0.0106467
0.00301932,0.0171936
0.00248831,0.0309459
0.000326627,0.0356235
-0.0125342,0.0109606
-0.0158405,0.000292262
-0.0015884,-0.000661317
0.0126988,-0.0183948
0.00808048,-0.026311
0.00609158,-0.015406
0.0013662,-0.00632001
-0.0194741,-0.000832574
-0.0247522,0.00844724
-0.0155957,0.00450228
-0.00724745,-0.0148905
1.15e-05,-0.0273967
-0.000503957,-0.0245343
-0.00491718,-0.0121788
-0.000508783,-0.0077293
0.00304836,-0.00357695
0.0105882,0.00598096
0.0299609,0.0136575
0.0361276,0.0245135
0.0266646,0.0217205
0.0115223,-0.000597654
-0.00423956,-0.00250178
-0.0228103,0.0169227
-0.0415463,0.0115551
-0.0681204,-0.00271764
-0.065283,0.00609071
-0.0544803,0.0200805
-0.0149843,0.00712712
0.0180372,-0.0119522
0.0260582,-0.00438197
0.0241191,-0.000406413
0.0163419,0.00286467
0.00649254,0.00966532
0.0075334,0.0153919
0.0139935,0.0111385
0.0166498,0.00763115
0.0176276,-0.00231235
0.0162897,-0.0107176
0.00944473,-0.00974998
0.00163827,-0.00148521
-0.00320341,-0.000156584
-0.00229905,-0.000326368
0.00120482,0.00177591
-2.2e-05,-0.00531812
0.000339655,-0.0193091
-0.000506338,-0.0245624
-0.00344715,-0.0164503
-0.000333337,-0.0127246
7.83e-05,-0.00967926
-0.00379605,-0.00175791
-0.00280725,0.00517962
-0.00115093,0.00669955
0.00549237,0.00928637
0.0139463,0.00218455
0.0130474,-0.00319867
0.00234258,0.00391646
-0.00676359,0.00984285
-0.0112346,-0.000245306
-0.0119768,-0.0129845
-0.00804208,0.00331563
-0.00419952,0.00976554
-0.00225393,-0.00316224
-0.00125747,-0.0071535
-0.000913658,-0.00119486
-1.73e-05,0.00108483
-0.00214692,0.00625852
-0.00104405,0.00921881
-0.00403919,0.016874
-0.00986878,0.0136909
0.00182707,0.0134029
0.00616666,0.00309082
-5.14e-05,-0.0107926
0.00135037,-0.00325813
0.0100782,-0.0032789
0.0134744,-5.16e-05
-0.00828075,0.00809717
-0.0303652,0.0037051
-0.0245734,-0.00884298
-0.0267087,-0.0237041
-0.0359222,-0.0117608
-0.0116195,-0.0115521
0.0329172,-0.017042
0.0505019,-0.001927
0.0425427,0.0124598
0.0264204,0.00389755
0.0146401,0.00718067
0.00471905,0.0105251
0.00590441,0.00221564
0.0128379,-0.0155762
0.0113872,-0.00857461
0.00618621,-0.000713658
0.00089019,-0.00109034
-0.00435164,-0.00354358
-0.0106356,0.00160347
-0.0113073,-0.00344922
-0.00564841,-0.008661
0.00467579,-0.00550971
0.0161801,-0.00189997
0.012304,0.00448967
0.000241176,0.00786196
-0.00580423,0.00791025
-0.00793469,0.00426028
-0.0110525,0.00201361
-0.0101528,-0.0106763
-0.00956282,-0.0242693
-0.0107365,-0.0058025
-0.0075506,0.0095457
-0.00899929,0.00598141
-0.00653929,0.0138765
-0.0121246,0.0183352
-0.0131852,0.0154976
-0.008137,0.00456387
-0.00539089,0.000377722
-0.00488853,0.0030408
-0.00523387,0.00316314
-0.0106801,0.00489447
-0.0188676,0.00461497
-0.0207944,0.00153359
-0.020522,0.00666026
0.000902462,0.000156707
0.0388504,-0.0128346
0.0577229,-0.0207065
0.0770244,-0.0131603
0.0878517,-0.00208964
0.0753725,-0.00267616
0.038944,0.00238325
0.00399524,0.00878791
-0.00278941,-0.00172425
0.00671909,-0.0116949
0.00955392,-0.00121916
-0.0105305,0.000377568
-0.0610865,0.00249999
-0.113904,0.0240538
-0.119354,0.0225996
-0.0963797,0.011629
-0.0542615,0.00629353
-0.015436,-0.00698891
0.0107593,-0.0172056
0.0179263,-0.0134214
0.0120522,-0.0048848
-0.00497428,-0.00372418
-0.0147183,-0.00441301
-0.00990513,0.00418482
-0.000517554,0.010144
0.0111693,0.00393645
0.000300674,-0.0035441
-0.0603475,-0.00102283
-0.0789103,-0.00447917
-0.0382799,-0.00507177
0.0411353,0.0116997
0.0847315,0.0215624
0.089681,0.0133115
0.0750758,0.00743443
0.0753175,-0.00897074
0.0839646,-0.0181045
0.058234,-0.00972266
0.0533184,-0.00206138
0.0594929,-0.00157813
0.041213,0.00262346
0.0124775,0.00833252
-0.0202031,0.000646823
-0.0552022,-0.013149
-0.074804,-0.0127438
-0.0804571,-0.006867
-0.080869,-0.00646051
-0.0627747,-0.00384198
-0.0115863,0.007846
0.0531677,0.00941231
0.111429,0.00456568
0.0832324,0.0027345
0.0255335,-0.00309305
-0.0425673,-0.00302493
-0.104905,0.00722707
-0.115439,0.00616825
-0.0774329,0.00314465
-0.034377,0.00558008
-0.0255772,0.000676576
-0.0110142,-0.010092
0.00993538,-0.0164571
0.00976431,-0.0112362
0.0175354,-0.0063083
0.0480019,-0.00194604
0.0488161,0.00362325
0.021122,0.00956269
0.012403,0.0106007
-0.00734378,0.0100781
-0.0228557,0.00356764
0.0102216,-0.00851706
0.0596892,-0.00841636
0.084902,-0.00168136
0.0579579,0.000694195
0.0113782,0.00237281
-0.0322034,0.00719809
-0.0717711,0.00638502
-0.0937566,-0.00420821
-0.0543734,-0.0120615
0.0275816,-0.0101601
0.0810191,-0.0108511
0.0880425,-0.00296897
0.0568671,0.00949526
-0.00149768,0.012615
-0.0338625,0.00829669
-0.0445674,0.00414828
-0.0424129,-0.00465745
-0.0483843,-0.0130777
-0.0298371,-0.00628608
0.0214846,0.000831986
0.0363771,0.000409515
0.0197151,0.00696681
0.000225434,0.0160539
-0.0259171,0.0116018
-0.0441726,-0.0048303
-0.0549309,-0.0111047
-0.0449162,-0.00671379
-0.025965,-0.00575742
-9.45e-05,0.00121265
0.0223407,0.00854204
0.0352836,0.00519508
0.0347299,-0.000107266
0.0512816,-0.00245774
0.120489,-0.0109474
0.125654,-0.014317
0.0623291,-0.00510198
0.00346279,0.00176742
-0.0409386,0.00601301
-0.0803573,0.00802765
-0.106731,0.00706778
-0.0911557,-0.00189374
-0.0472343,-0.0104718
-0.0158802,-0.00522238
0.000768432,0.000854906
0.00554131,0.00318983
0.00159966,0.0120941
-0.00519662,0.0165864
-0.0126292,0.00860639
-0.0152262,0.00757644
-0.00887357,0.00184149
-0.00338426,-0.00958988
-0.00275378,-0.00722189
-0.00576872,0.00380733
0.000830069,0.0019067
