Comp Ch 3,Comp Ch 4
0.0935103,-0.0442493
0.0769833,-0.0158551
0.0339326,-0.0168489
0.0023926,-0.0302475
-0.0146249,-0.0304451
-0.0296284,-0.00273959
-0.0383688,0.013362
-0.0363857,0.00514015
-0.0317702,0.0207778
-0.0358778,0.0357623
-0.0502072,0.0102075
-0.0566907,0.00249731
-0.0280519,0.0308386
-0.00640724,-0.00499038
0.00175485,0.0037279
0.00625089,0.0480507
0.00479511,0.026241
0.00817057,0.0136921
0.0142976,0.0342726
0.0175411,0.0214178
0.0109754,-0.0108719
-0.004251,-0.0143879
-0.020852,0.00633722
-0.016776,0.00231325
-0.011748,-0.00538945
-0.0195084,0.00120631
-0.0236898,-0.0147154
-0.0325844,-0.0311616
-0.0262786,0.0192431
0.00202618,0.0172997
0.00935254,0.0560482
0.00614117,0.106971
0.00693597,0.0783201
-0.00106971,0.00123383
-0.00282763,-0.0605175
0.00931387,-0.074352
0.0160969,-0.0757915
0.0214524,-0.0677856
0.0199012,-0.0473334
0.00771944,-0.0119628
0.00386292,0.00836039
0.000367921,0.0146837
-0.00509075,0.0244074
-0.0129447,0.0150104
-0.0137636,0.0147307
-0.00591474,0.00496405
0.000778261,-0.0208826
-0.00363929,-0.0225792
-0.00585629,-0.0227897
0.0125423,-0.0107623
0.0303095,0.000665401
0.0213477,0.0176942
0.0105215,0.0468198
0.0039262,0.0208743
-0.0126302,0.016311
-0.0479218,0.0352835
-0.0495984,0.0434186
-0.0539655,0.0329177
-0.0473198,0.00305173
-0.00157654,-0.0217211
0.0391022,-0.06214
0.0484493,-0.0373599
0.0409695,-0.0346697
0.0260792,-0.0534208
-0.0253406,-0.0300952
-0.0549258,0.00228639
-0.043487,-0.00061319
-0.0149752,0.033697
0.0232599,0.0474406
0.0721027,0.0132662
0.115667,-0.00656763
0.102834,-0.0504264
0.0614508,-0.0274067
0.0386135,-0.0168237
-0.00291034,-0.0069372
-0.0196334,0.000469519
-0.0148375,0.023579
-0.0451683,0.029798
-0.061543,0.0221274
-0.0685411,0.00698614
-0.0282956,0.0069466
0.0239401,0.017502
-0.0977274,0.007361
-0.294145,0.00583535
-0.330269,0.0132343
-0.198021,0.0284554
0.0437737,-0.0224953
0.230311,-0.0378596
0.295854,-0.0476351
0.290299,-0.0131563
0.219355,-0.00435791
0.130482,0.0151599
0.0376113,0.0290457
-0.01294,0.0141241
-0.0164829,-0.00184578
0.00630566,0.00625593
0.0225947,0.0157066
0.00432694,0.0112116
-0.0262751,0.00653453
-0.0367118,-0.00661535
-0.0879558,-0.0524303
-0.130751,0.0108439
-0.137195,0.0800535
-0.0584512,-0.00603073
0.0349832,-0.0343854
0.0627143,-0.0128389
0.0632986,-0.0240891
0.0625709,-0.0194172
0.0140684,0.00380953
-0.039377,0.00973629
-0.0457071,0.00305026
-0.0647321,-0.00788402
-0.0701008,-0.032355
-0.237085,-0.0300567
-0.260266,0.00864187
-0.0943069,0.0343068
0.106867,0.0304031
0.262569,0.0400988
0.292378,0.0473838
0.183993,0.0310887
0.114793,-0.00226169
0.0351266,-0.0382084
-0.0257246,-0.0299713
-0.0594525,-0.0270496
-0.0578686,-0.0160075
-0.0478446,0.0055179
-0.0477476,0.00529975
-0.0399648,0.00912642
-0.0163234,0.0103149
0.0148337,-0.0141798
0.0344632,-0.0143915
0.0300967,0.00551686
0.00766905,0.00286718
-0.0068321,0.00115738
0.0133024,0.0389783
0.0122472,0.0710123
-0.0153843,0.0233012
-0.0454522,-0.0194201
-0.0588978,-0.0350994
-0.0524694,-0.0373559
-0.0379929,-0.037521
-0.0244973,-0.023244
-0.0126787,-0.0114664
-0.00765125,0.00532043
-0.00512949,0.0250298
-0.00848793,-0.0384416
0.0139676,-0.0817934
0.055239,-0.0477703
0.0585968,0.0587123
0.0393901,0.0476041
0.030575,0.0559398
0.0215588,0.0648759
-0.00294372,0.0122006
-0.0306124,-0.0242411
-0.0312203,-0.0697498
-0.0195163,-0.0305699
-0.0133547,-0.00132793
-0.00852495,0.00019587
-0.00420097,0.0167744
-0.0015033,0.0206505
0.00150649,0.014447
0.00345185,0.02628
0.00224208,-0.00570729
0.00101475,-0.043369
-0.00203984,0.00165241
-0.0329765,0.0165774
-0.022285,0.0245508
0.0196216,0.0234618
0.049349,0.00215006
0.0322811,0.0213282
-0.00808503,-0.00442544
-0.053586,-0.0301183
-0.0768796,-0.027361
-0.0526547,-0.051216
-0.0124206,-0.0231918
0.0275037,-0.00454642
0.0463929,0.00473956
0.0559773,-0.00223854
0.0487987,-0.0123986
0.0676321,-0.0420468
0.106715,0.00962438
0.0668394,0.0727217
0.012928,0.0236778
-0.0238887,0.0154069
-0.0627895,0.0439601
-0.107043,0.124007
-0.157247,0.0654896
-0.1758,-0.0519356
-0.11707,-0.111804
-0.0694182,-0.0713897
-0.00104439,-0.0673229
0.0636903,-0.0483529
0.0950856,0.00187268
0.119419,0.0187083
0.12256,0.0260954
0.122192,0.0230222
0.113359,-0.00638305
0.0669146,-0.0313525
0.0149567,-0.0352211
-0.0118258,-0.0133615
0.0113997,0.0465793
0.0252246,0.0544997
0.0166729,0.0521407
0.00505392,0.026978
-0.00891422,-0.00821366
-0.0399697,-0.0186275
-0.0479657,-0.0229851
-0.0628035,-0.010974
-0.0581167,0.0079575
-0.046619,0.00923612
-0.041436,0.0164105
-0.0262045,0.0172955
-0.00974919,0.00117682
-0.00666494,-0.0243671
0.00351227,-0.0143075
0.0215001,0.0132955
0.014459,0.0136326
0.00379867,0.0117561
0.0186801,0.0450775
0.0217645,0.0243612
0.00701419,-0.0176112
-0.00888162,-0.0348478
-0.0214473,-0.0284732
-0.0314327,-0.0326517
-0.0296274,-0.0161769
-0.00906426,0.0158316
0.000699598,0.0166047
-0.00533515,0.00780037
-0.00617049,0.0094896
0.0114323,-0.00837546
0.0193667,-0.025788
0.0119469,-0.0104596
0.00857525,0.0137398
0.0134292,0.0193672
0.0172242,0.0138922
0.0181641,0.0114814
0.0131639,0.00462596
0.00978613,-0.0191398
0.000253196,-0.0331183
-0.0215126,-0.00470529
-0.0221448,-0.0124527
-0.0749934,-0.00277867
-0.136484,0.0349259
-0.124219,0.0201411
-0.068469,-0.0206918
0.0209303,-0.00280026
0.0740322,-0.0256446
0.0757062,-0.0490662
0.0937895,-0.00356922
0.0909514,0.0311992
0.0661472,0.0220728
0.0471959,0.0291824
0.0254117,0.0231665
0.0207635,0.000223573
0.0228492,-0.00435615
0.0108814,-0.012143
0.0016763,-0.0261673
-0.000205807,-0.00873244
-0.00514941,0.00400129
-0.00282199,0.0148856
-0.0075238,0.00964016
-0.0169918,0.0073603
-0.0352967,-0.00954857
-0.0360719,-0.0209375
-0.0199296,-0.00471141
-0.0230129,0.00444162
-0.0358254,0.00492771
-0.0726628,-0.00636142
-0.0693276,0.0192735
0.0163312,0.0248116
0.0665646,-0.0014485
0.0656266,-0.0215196
0.0341497,-0.0158772
0.0207304,-0.00723193
-0.013697,-0.00121496
-0.0576011,0.0104624
-0.075129,0.00134885
-0.0585867,0.0108486
-0.0390554,0.0247654
0.00276542,-0.00597453
0.068707,-0.0321604
0.126221,-0.0122525
0.112184,0.023571
0.0569366,0.0180137
-0.00446984,0.0209243
-0.0482412,0.0226133
-0.0553951,0.00973457
-0.0367914,-0.0173433
-0.015384,-0.0249327
-0.000110504,-0.0135067
0.0155798,-0.00857138
0.0128,-0.00924033
-0.00708412,-0.0082631
0.010983,0.0134276
0.0294031,0.0162662
0.000679317,-0.00891066
-0.0278362,-0.0416523
-0.0208349,-0.0632733
0.00875415,-0.00732781
0.0134789,0.0369187
-9.53e-05,0.0158687
0.0109133,0.0308171
0.00383952,0.0535206
0.00624986,0.0231724
0.0270707,-0.0228544
-0.00364066,-0.0383814
-0.0101199,-0.0357781
-0.0142323,-0.0123634
-0.0369075,0.0124259
-0.0769136,0.0290819
-0.0592142,0.0321976
-0.0177343,0.0286737
0.036371,-0.00719299
0.0892517,-0.0269232
0.0568184,-0.0176743
0.0165877,-0.0045962
0.00297075,-0.00641221
0.00422969,0.0257148
-0.0103223,0.031204
-0.0321748,-0.000323438
-0.0268809,-0.00112402
-0.0196644,-0.0447653
-0.0262326,-0.0519083
-0.000588658,-0.00131779
0.0270299,0.00767556
0.0433609,0.0238827
-0.004531,0.064809
-0.052178,0.0952229
-0.0320922,0.0174576
-0.0066583,-0.064848
0.0201729,-0.100423
0.0326674,-0.0419774
0.0390759,-0.0282374
0.0220742,0.00279153
-0.0475512,0.0385053
-0.0742224,0.0428183
-0.062368,0.0237939
-0.0217439,-0.0153653
0.0434939,-0.0321471
0.0816097,-0.00447146
0.0608414,-0.00605016
0.0305234,0.0029796
0.00289382,-0.00245991
0.00740536,0.0269862
0.0169899,0.0158104
0.00386477,0.00361766
-0.00534735,-0.0152275
-0.0126645,-0.0304928
-0.0106391,-0.0105785
-0.0169367,-0.00656826
-0.027485,-0.0123972
-0.0164667,0.0172109
-0.00287152,0.0185875
-0.00344774,0.0303126
0.00405388,0.0142225
0.00962172,-0.0126564
0.0174636,-0.0045088
0.0209307,-0.00132317
0.0120327,0.00598399
0.001556,0.00900324
-0.0026722,0.000833304
-0.00292151,0.00529996
-0.0059872,0.00196985
-0.0293759,-0.0224607
-0.0499771,-0.0280166
-0.0406135,-0.0023755
-0.0193318,0.0132426
-0.00192604,0.0128372
0.0158673,0.0262584
0.0367718,0.0265359
0.0434566,-0.000762712
0.0272102,-0.0140053
0.00642567,-0.0111165
-0.00719854,-0.0440267
-0.0014468,-0.00933226
-0.00739704,0.0236608
-0.0321786,0.0127145
-0.0463421,0.00741882
0.00779987,-0.00133421
0.0656957,-0.00729777
0.0601106,-0.016048
0.0359037,-0.00308418
-0.00652706,0.00978867
-0.0508075,-0.0117109
-0.0693126,-0.0346397
-0.0274583,0.00374198
-0.0057456,0.0237799
-0.0323898,0.0201858
-0.0708488,-0.0102074
-0.0506031,-0.000108418
0.00293123,0.00378958
0.045899,-0.000856887
0.0701767,0.00297881
0.0545682,0.0143675
-0.00447331,0.00281605
-0.0370973,0.00306284
0.00220566,-0.0298457
0.0208301,-0.0380179
0.0313362,-0.00265879
0.0357537,0.017451
0.0305125,0.0168111
0.0146618,0.0170071
-0.030455,0.0294593
-0.0198191,0.020801
0.0193142,-0.0162936
0.0395578,-0.0227086
0.0449749,-0.018303
0.0468138,0.00130947
0.0270321,0.00903087
-0.000605856,0.0207706
-0.0292862,0.01568
-0.0559365,0.00125146
-0.071259,-0.00999212
-0.144577,-0.0377498
-0.13099,-0.0426558
-0.0307218,-0.02975
0.0585808,0.0178347
0.0753701,0.0365705
0.078133,0.0426536
0.0828998,0.0398602
0.0598842,0.0100513
0.0289179,-0.0230415
0.00734751,-0.0218145
-0.00490594,-0.0145424
-0.00970344,-0.00575321
-0.00516079,0.00699816
-0.00577916,0.00956001
-0.00292063,0.00159714
-0.00116787,0.0111339
-0.00108661,0.0069136
-0.00132434,-0.0221025
-0.00395008,-0.0210634
-0.0114128,0.00209649
-0.0171532,0.00397523
-0.0263341,-0.00975439
-0.027178,0.0137098
-0.0146131,0.0310807
-0.00789507,0.00558327
-0.00326769,-0.026591
-0.00547125,-0.0263593
-0.00380094,-0.0213938
-0.00904544,-0.0185249
-0.00460909,0.0133608
0.0137576,0.0364362
0.014703,0.0192287
0.0122092,0.0114363
0.0126609,-0.0118481
0.013152,-0.0263234
0.0080626,-0.0106114
0.00120719,0.00184679
-0.00279454,-0.00240329
-0.0212485,-0.00822309
-0.0403063,0.0178437
-0.0158383,0.00261403
0.0154031,-0.00709712
0.0107369,-0.0018467
0.00803055,-0.0175452
0.00956078,0.00229936
0.00502373,0.0104263
5.19e-05,0.0116686
0.000675957,0.0117328
0.00390601,0.00900648
0.00660971,0.00601082
0.00781851,-0.0194902
0.00515333,-0.0250197
0.00513949,0.0041375
0.00263921,0.0147547
-0.00021972,0.0138115
-0.00755635,0.0252473
-0.0126034,0.0305083
-0.000157733,0.0118358
0.00636019,-0.0257759
0.0046558,-0.024462
0.00608219,-0.0111894
0.00228118,-0.00882854
-0.00639721,0.00129754
-0.0117621,0.0071035
-0.0161856,0.00640311
-0.0472073,0.00880333
-0.054675,-0.00285216
-0.0414513,-0.0223243
-0.00958577,-0.0280724
0.0180362,-0.0208644
0.0291563,0.00304415
0.0417202,-0.0316361
0.02547,-0.0186328
-0.0183479,0.0529523
-0.0441204,0.0362257
0.00622129,0.000409047
0.0460347,0.00110353
0.031699,0.00328385
0.0413066,0.00502799
0.0321176,0.0101522
-0.0049729,0.00841538
0.00146247,0.00686855
0.0189185,0.0151315
0.0219857,-0.00326195
0.0195926,-0.0175352
0.0138418,0.00228905
0.00979012,0.00582269
-0.0220758,-0.00682294
-0.0463395,0.0026605
-0.0521227,0.0291646
-0.040185,0.0185804
0.00762621,-0.016854
0.033923,-0.0115246
0.028436,-0.0135312
0.0105475,-0.0144303
-0.00141348,-0.00458038
-0.0110787,0.000789508
-0.0187852,-0.0182024
-0.0234527,-0.0165633
-0.0174274,-0.0105528
0.00265243,-0.0239328
0.00469975,-0.0171457
0.0102863,0.00969756
0.0145086,0.0137385
0.0173623,0.0209668
0.0199154,0.0310555
0.013831,0.0351845
-0.00549562,-0.00523492
-0.0113522,-0.0327928
-0.013229,-0.00797588
-0.012661,0.0053741
-0.0099854,-0.000320665
-0.010151,0.00399113
-0.016831,0.00733412
-0.0138698,-0.00631939
-0.0130189,-0.0153321
0.00055543,-0.0164348
0.0220732,-0.00653903
0.0226875,-0.00925205
0.00875843,0.000299235
-0.00239735,0.00687999
-0.00840893,0.0207538
-0.0034387,0.039855
-0.0059829,0.0243338
-0.0108277,-0.0027189
-0.00924144,-0.0179559
-0.0043526,-0.00656029
-0.00264542,-0.00956311
-0.00165495,0.000198509
-0.000696678,0.00766102
0.00323729,0.0121423
0.00881485,0.0111079
0.012659,0.0221104
0.0148774,-0.00709374
0.0179111,-0.0362455
0.0175667,-0.0176059
0.0138225,0.00688863
-0.00137171,-0.000196528
-0.00747101,0.00722908
0.00497293,0.0198309
0.00341954,0.000683187
-0.00724837,-0.0254803
-0.0167568,-0.0384394
-0.0220695,-0.0437621
-0.00504847,-0.0185435
0.00377324,0.0151853
-0.00567621,0.0272022
-0.00769836,0.0177979
0.00689056,0.0171079
0.0171282,0.00524388
0.0232825,-0.0105999
0.0087838,-0.0195239
-0.00373613,-0.0102137
0.00568573,0.011476
-0.000526079,0.0177452
-0.0102683,0.0087219
-0.00743023,0.0151944
-0.00896731,-0.00267454
-0.0124771,-0.01958
-0.0360868,0.0109161
-0.0262038,0.0193937
-0.0257737,0.00408288
-0.0228042,0.00831599
0.000604725,0.0358914
0.0146389,0.0160527
0.0144743,-0.00634815
0.0146458,-0.0128034
-0.00747406,-0.0362243
0.00183102,-0.0325814
0.0305573,-0.0107669
0.047197,-0.0013755
0.0511866,0.00373209
0.0407853,0.0138797
0.00388204,0.00628816
-0.0155631,-0.00950732
-0.00596123,-0.00674282
0.000391618,-0.0159435
-0.0113421,-0.0184124
-0.0124017,-0.0118274
-0.00602302,0.0150081
-0.00510624,0.0322493
-0.00195623,0.063882
0.00155892,0.0388924
0.00285162,-0.0163814
0.00426832,-0.0438163
0.000664204,-0.0312111
-0.00816256,-0.0126924
-0.0170857,-0.0109495
-0.0134473,-0.00514793
-0.00517183,0.0263336
-0.00093651,0.0253785
-0.00442473,-0.00239499
-0.00832728,-0.014467
-0.00907117,0.00074017
-0.00360575,0.00682259
-0.00514823,0.00927493
-0.0249219,0.0124578
-0.0452222,0.00940803
-0.042998,-0.000637902
-0.0388519,-0.00682502
-0.0239569,-0.019817
0.0208644,-0.0223188
0.0388145,-0.0234165
0.0383002,-0.0354457
0.0556544,-0.0278642
0.0502583,0.0442966
0.0234299,0.0443022
0.0117809,0.014257
0.00598516,-0.00619107
0.00180263,-0.00469636
-0.00053364,0.00887459
-0.00220846,0.00881096
-0.00591185,0.017493
-0.00662593,0.0268745
-0.000746276,0.0178876
0.00113834,0.0149204
0.000577314,-0.0306178
0.00343606,-0.0657801
0.00335154,-0.0423227
0.00288429,-0.00540797
-0.0016421,0.00490896
-0.0103925,0.00300313
-0.0168004,0.00887504
-0.00852407,0.0295613
-0.00892203,0.00249453
-0.013897,-0.0269224
-0.00689757,-0.00862734
0.00209677,0.00824917
0.00864777,0.0168871
0.00644232,0.0286171
0.00405637,0.0189738
0.00349042,0.00628645
0.00530257,0.00310286
0.00687137,-0.0138864
0.00478061,-0.0350652
0.00228555,-0.0266005
0.000934515,-0.00702998
-0.00429121,0.00119976
-0.00901851,0.0114377
-0.0102933,0.0226239
-0.0146276,0.002526
-0.0270973,-0.0487477
-0.0108841,-0.0404991
0.00656612,-0.0102061
0.00621874,0.0599279
-0.0065496,0.0889817
-0.0038635,0.0814311
0.0192366,0.0193638
0.0271013,-0.0449218
0.0228813,-0.0392637
0.00989999,-0.0409089
0.00605468,-0.0409475
0.00694716,-0.00728381
-0.00301313,0.00312028
-0.0105586,-0.00236893
-0.00800753,0.0086666
-0.00380223,0.0101264
0.00453311,0.00518796
0.00498465,-0.00409911
-0.00831031,-0.0153402
-0.0132302,-0.0112457
-0.00482879,-0.00232637
0.00380149,0.0135982
0.00574535,0.0023358
0.00807184,0.0135084
0.00743221,0.0197801
0.0067554,0.0207344
0.00492816,0.00798697
-0.0115856,-0.00877471
-0.0283066,-4.67e-05
-0.0171485,-0.0116506
-0.0179522,-0.0604973
-0.021139,-0.0239522
-0.00805277,0.0140194
0.00539559,0.00785981
0.00832446,-0.00826791
0.00653301,3.18e-05
0.00435259,0.00698623
0.00162627,0.00334546
0.0149008,-0.00118035
0.0164828,0.0240377
-0.0171957,0.0279451
-0.0281189,0.00697404
-0.0130586,-0.0235162
0.00453556,-0.0347017
0.0187387,-0.0173272
0.0245588,-0.00432814
0.0354564,0.00650354
0.0224425,0.0146878
-0.00407523,0.0167142
-0.00873629,0.0086609
0.00908333,-0.00104514
0.017665,0.02573
0.0159777,0.0593278
0.0118908,0.0172126
-0.00503336,-0.0143453
-0.0122541,-0.00662835
-0.00873066,-0.00119121
-0.00840011,-0.0085792
-0.00182054,0.01199
-0.0057935,-0.0132837
-0.00922274,-0.0348568
-0.00744304,-0.0262308
-0.00689768,-0.00898255
0.00889553,-0.00804739
0.0141791,-0.0203629
-0.0147218,-0.0116176
-0.0130176,0.0254501
0.0070093,0.0187315
0.00357854,0.00115042
0.00757638,0.00932928
0.0104583,0.00571004
0.00291113,0.0174566
-0.0307133,0.0544774
-0.0797677,0.0174997
-0.0811724,-0.0261313
-0.0356294,-0.0261673
0.0104677,-0.0396234
0.0383043,-0.0383379
0.0676889,-0.00623005
0.0818477,0.0020998
0.0586439,0.000828211
0.00544061,0.0160306
-0.027071,0.0349523
-0.036373,0.0141145
-0.0355588,-0.014577
-0.0350946,-0.00596063
-0.0167125,-0.0123032
0.0142515,-0.007386
0.0262361,0.00936904
0.0236898,0.00958678
0.0303485,0.00345324
0.0405354,-0.0138291
0.0295398,-0.0168666
-0.00425265,-0.00798024
-0.0384248,-0.0149619
-0.0408102,0.00454739
-0.0179081,0.0103672
0.0111236,0.0088791
0.0125432,0.0173289
0.000885622,0.0106321
-0.0012904,-0.009629
0.0167472,-0.0117186
0.0236217,-0.00255591
0.0138478,-0.00774807
0.00808472,-0.00855189
0.00288751,0.00927084
0.00352455,0.0221741
-0.00119907,0.00923612
-0.0163287,0.00551218
-0.0416945,-0.0135622
-0.0676095,-0.0283827
-0.0596933,-0.0146557
-0.0324451,-0.00147269
-0.0109571,-0.00353943
0.000223027,-0.00155732
0.0170447,0.0102448
0.039228,0.0204475
0.0506297,0.0255534
0.0247042,0.0117913
0.00929269,-0.00114079
0.0149231,-0.014622
0.0199157,-0.00842187
0.0145914,0.00929602
0.0126753,0.0281253
0.0106262,0.0161604
0.00332798,-0.000125431
0.00197765,-0.0231424
0.000562187,-0.0302218
-0.00540222,-0.0147087
-0.0181326,-0.00293286
-0.019651,0.00262651
-0.0157942,0.0141127
-0.0100453,0.0237222
-0.0061942,0.00634595
-0.00878148,-0.00959415
-0.0146456,-0.0034596
-0.00557055,-0.0069326
0.011586,0.00128121
0.00897052,-0.000496695
0.0113262,0.00254176
0.00984241,0.00419354
0.00948183,0.0139946
0.00857219,0.0022466
0.00913937,-0.0307851
0.00609356,-0.0197362
-0.0110525,0.00223913
-0.0215083,0.00488013
-0.0186341,0.00691042
-0.0180054,0.0127046
-0.0142281,0.0153363
-0.00523369,-0.00181749
0.00654741,-0.0118368
0.0157194,-0.000694249
0.0125337,-0.000308338
0.00453582,-0.000291876
-0.000993786,0.00535346
-0.00814856,-0.00442821
-0.00335042,-0.00156925
0.00359381,0.0100295
0.00330299,-0.00519597
0.0133568,-0.0180468
0.015626,-0.018593
0.0128151,0.00275413
0.0117839,0.0130877
0.00585952,0.0114323
-0.00157279,0.0145284
-0.0144101,0.0105015
-0.0204997,-0.00165554
-0.0154105,-0.0285289
-0.0053075,-0.0319298
-0.00482435,-0.0132535
-0.000479345,0.0117517
0.00573811,0.0355931
-0.00216402,0.00858983
-0.00506344,0.00444301
0.00418043,0.017336
0.0147182,0.013925
0.0204399,-0.0281009
0.0112578,-0.0514825
-0.00699309,-0.0309439
-0.0104433,-0.00378867
-0.00836209,0.0137584
-0.00342452,0.0316659
-0.00622476,0.023831
-0.00889668,0.0128132
-0.00276184,-0.01218
0.00552594,-0.00584711
0.0148556,0.0108917
0.00824512,-0.00377177
-0.0119019,-0.000573192
-0.0276529,-0.000178776
-0.00779389,0.00811145
0.021405,0.0113637
0.0322154,0.020981
0.0202566,0.0179725
0.00788407,0.0145292
-0.0131746,0.0123498
-0.0295995,-0.00890061
-0.0242164,-0.022813
-0.010869,-0.0413188
0.00638094,-0.0525392
0.018607,-0.0340709
0.011268,-0.0270287
0.000164851,-0.0107813
-0.00337281,0.0153446
-0.00523377,0.0355785
0.01254,0.0545879
0.0233975,0.080074
0.0184319,0.0236419
0.0062845,-0.0229118
-0.0223801,-0.0331077
-0.0520676,-0.0101059
-0.0491618,0.00927242
-0.00903049,0.0107141
0.0328008,-0.00528217
0.033962,-0.0139863
0.0426287,-0.019775
0.00217576,-0.0267046
-0.028767,0.00492468
-0.0402801,0.0168311
-0.0435666,-0.00549521
-0.0285865,-0.0171665
-0.00616096,-0.00996004
0.0270272,0.0266247
0.0348173,0.0261544
0.0179713,-0.0184598
0.0178665,-0.0496143
0.032098,-0.015622
0.0328123,0.0223337
0.0300183,0.0338952
0.0182361,0.0253632
0.00289646,0.0199341
0.0155888,-0.00976228
0.0347365,-0.0351583
0.0104006,-0.0409612
-0.0274311,-0.0268383
-0.0450524,-0.0275956
-0.0197863,0.0139184
0.000138291,0.0335055
0.00228367,0.0155365
0.0109101,0.0582809
-0.00211527,0.0504932
-0.0104726,0.00348107
-0.0150484,-0.0184419
-0.0218874,-0.00172173
-0.041346,0.00406276
-0.104527,-0.0192243
-0.108823,-0.00278951
-0.0894011,-0.0228909
-0.105831,-0.0400298
-0.0751436,-0.0590002
-0.0206634,-0.0395451
0.094686,0.0218565
0.219137,0.0131839
0.207443,0.0259493
0.112892,0.0265813
0.00391646,0.0241269
-0.0529296,0.0221351
-0.101877,-0.00291479
-0.102498,-0.00603723
0.00567049,0.00318458
0.15033,0.0151067
0.166082,0.00292218
0.110659,0.00757057
0.0910772,0.0321813
0.091561,0.0314049
0.032969,-0.0196738
-0.0169894,-0.0524413
-0.0171785,-0.0414593
-0.045267,-0.0258586
-0.0958519,-0.00941282
-0.13087,-0.00124596
-0.15558,0.0298634
-0.370187,-0.00840488
-0.453393,0.00791126
-0.309115,0.0199272
-0.0913816,0.0111883
0.15271,-0.0175642
0.330229,-0.00742782
0.284236,-0.00508144
0.196366,0.00482191
0.173424,0.0134886
0.1198,0.0293807
0.0993244,0.00588836
0.0605643,-0.0188169
0.0490019,-0.0158697
0.072247,-0.0147229
0.0392492,0.017116
-0.016626,0.03232
-0.0142217,0.0317662
-0.000870494,0.0326353
0.0051193,0.00903293
0.00370171,-0.0109453
0.00119236,-0.0145759
-0.0360174,-0.0306776
-0.0701463,-0.0378055
-0.0556444,0.00253809
-0.0571685,-0.00429918
-0.0521187,-0.00730969
-0.0246122,-0.0111782
-0.00278249,-0.0169183
0.0166345,-0.018284
0.0173797,0.00149375
-0.0289786,-0.00288912
-0.212614,-0.0206689
-0.333091,0.0071596
-0.191729,0.0457234
-0.0903958,0.0467124
0.0548101,-0.0218549
0.173264,-0.0243875
0.0993106,0.0214693
0.0342838,0.0261617
0.0591999,0.00969046
0.095724,0.00899082
0.151384,-0.00671434
0.185341,0.00591989
0.117217,-0.0145428
0.0187984,-0.0293845
-0.00477757,-0.0256079
-0.0170889,-0.0147952
-0.0301829,-0.015305
-0.0429345,-0.0264857
-0.0216046,0.0250356
0.0507527,0.0225216
0.0741664,0.00891469
0.0736814,0.0142192
0.0290546,-0.0177538
-0.0378013,-0.0122431
-0.0818999,-0.0247547
-0.0875411,0.00359422
-0.105683,0.0309766
-0.145372,0.0267062
-0.135968,0.00558553
-0.0354818,-0.0139867
0.0313632,-0.0314493
0.0688976,-0.0122117
0.106338,-0.00744356
0.103617,0.0194947
0.119867,0.0406989
0.116381,0.0509735
0.0392332,0.0329244
-0.0573343,0.000677684
-0.0807305,-0.027986
-0.083599,-0.0229702
-0.118498,-0.0329601
-0.127319,-0.0167835
-0.171637,-0.00393905
-0.220939,0.00934815
-0.162123,0.00674059
-0.0682104,0.0285225
0.0877596,-0.00246924
0.231107,-0.0135641
0.252024,0.00486727
0.185011,-0.0011289
0.165657,-0.00876753
0.115175,0.0146273
0.0857347,6.52e-05
0.0913491,0.0139337
0.0955327,-0.0101923
0.0584294,-0.0310448
0.0198285,-0.0434233
-0.0272928,-0.0296601
-0.120192,0.0170801
-0.157519,0.0343925
-0.153184,0.0054884
-0.10028,-0.0402381
-0.0383118,-0.0257044
-0.0107695,0.0572338
-0.249081,0.0194118
-0.525358,-0.028957
-0.510775,-0.00660319
-0.311081,0.0362013
0.0172695,0.0579532
0.273428,0.0585912
0.489889,0.030411
0.582481,-0.0144209
0.482398,-0.0426129
0.333142,-0.0402831
0.206808,-0.022229
0.102114,-0.0272059
-0.0608216,0.0202179
-0.228856,0.0716023
-0.298653,-0.0222706
-0.262033,-0.0591921
-0.200028,-0.0262404
-0.0925052,-0.00582748
-0.024857,0.010699
0.149469,0.00955214
0.309083,-0.00659603
0.33829,0.00218369
0.201299,0.0210067
-0.0230219,-0.00363664
-0.234878,-0.0248291
-0.217189,0.0113707
-0.0378931,0.0254645
0.146971,0.000909958
0.223064,0.00132314
0.134115,-0.00424127
-0.0108642,-0.00064344
-0.258317,-0.0279686
-0.352972,-0.0242445
-0.22244,-0.033122
0.00366974,0.00106415
0.0412711,0.0140107
-0.495075,0.0484803
-0.869382,0.0441529
-0.738582,0.0206287
-0.15961,0.00043627
0.52118,0.0339041
0.899254,-0.00533166
0.791938,-0.0226525
0.464096,-0.00541304
0.10054,-0.0324146
-0.249772,-0.070061
-0.309506,-0.0386674
-0.0867318,-0.0147342
0.128989,0.020481
0.135432,0.00335645
0.213657,0.00723045
0.380238,0.0551892
0.297156,0.0556233
0.124676,0.0346035
-0.00045404,0.0168811
-0.0971977,0.00702159
-0.150449,-0.0116703
-0.184572,-0.0367242
-0.244008,-0.0256964
-0.268233,-0.0289901
-0.222189,-0.02454
-0.150443,-0.0477121
-0.0597367,-0.0639868
0.0820911,0.015922
0.157831,0.0115461
0.114207,0.0372179
0.0691865,0.0688627
0.0217023,0.0455493
0.00809323,0.0392878
0.053528,0.0503004
0.0855935,0.0342884
0.00690912,0.00136836
-0.0800816,-0.0461161
-0.16307,-0.0379165
-0.0926754,-0.0186234
0.0621651,-0.0109402
0.159216,-0.0204568
0.113361,-0.0314422
0.000985906,-0.0298514
-0.0426559,-0.014597
0.00222477,0.00140605
0.0436171,0.00634409
-0.137823,0.00507917
-0.375151,-0.00915745
-0.695712,-0.0532733
-1.27515,-0.0760805
-1.31068,-0.0686949
-0.558309,0.0542038
0.447052,0.11841
1.46887,0.0704654
1.67226,0.0430129
1.17214,-0.0127523
0.604785,-0.026007
0.135409,-0.0101597
-0.131045,-0.0129974
-0.17549,-0.0141208
-0.104272,0.0116856
-0.052912,0.0319706
-0.00495299,0.00714638
0.0284397,-0.0131408
0.0281294,-0.00121768
0.0284027,0.015163
0.0166922,0.0238832
-0.0338408,0.0326889
-0.0992019,-0.0185347
-0.178597,-0.0371107
-0.247876,0.0316862
-0.251203,-0.0148293
-0.228538,-0.0255089
-0.203299,-0.0179554
-0.184486,-0.0144326
-0.14937,-0.0228238
-0.0938187,-0.0164203
-0.00407536,-0.00806762
0.0974029,0.020036
0.145503,0.0267113
0.135564,0.0236464
0.107235,0.0202635
0.09686,0.0288211
0.127162,0.070391
0.155341,0.0379691
0.0607928,-0.0211443
-0.0711637,-0.0385963
-0.182222,-0.0533001
-0.211758,-0.0490249
-0.226204,-0.0335534
-0.179773,0.02032
-0.104838,0.023329
-0.0137325,-0.00849331
0.0729489,-0.0150493
0.118235,0.00910461
0.129834,0.0274969
0.127472,0.013274
0.11684,-0.0171441
0.124837,-0.0164465
0.165282,-0.00384765
0.160877,0.000972078
0.109848,-0.00119475
0.0405639,-0.00589184
-0.0688087,-0.012696
-0.135252,-0.00557079
-0.10685,-0.0167264
-0.0803601,-0.00833176
-0.08934,0.000436108
-0.106438,-0.00380112
-0.0988294,-0.000856485
-0.0416252,0.0138158
0.0281535,0.0280723
0.0574982,0.00286127
0.0211329,-0.0275152
-0.00664933,0.0104862
0.0397115,0.0331317
0.111285,0.03061
0.056167,0.0155499
-0.210595,0.00336768
-0.269455,-0.0298071
-0.13673,-0.0205741
0.112067,-0.0190774
0.285664,0.00105969
0.164022,0.000135811
0.0243923,-0.0139017
-0.0489504,-0.00140588
-0.114961,0.000927776
-0.0649898,0.0189895
0.0305774,0.0194406
0.1083,-0.0174202
0.185678,-0.0142588
0.0916318,-0.00533731
0.0226502,-0.0270443
0.0342819,0.0219387
0.0560069,0.0250839
0.0527709,0.0201024
0.0330561,0.00864051
-0.0269466,0.00447497
-0.115157,-0.0199169
-0.158085,-0.022481
-0.146497,-0.0128644
-0.126403,-0.0448302
-0.0931014,-0.0123626
-0.0419117,0.0149911
0.032023,0.019577
0.0639057,0.0178955
0.0577607,0.0281413
0.0678896,0.0103899
0.0813251,-0.00127669
0.0985657,-0.00296648
0.113316,0.0221347
0.0632745,0.0324059
-0.0983699,0.0179742
-0.131605,-0.00677818
-0.0916895,-0.0161789
-0.00891632,-0.0219166
0.0844498,-0.0112184
0.0695489,0.00937105
0.00158895,0.0159897
-0.0633782,0.00650893
-0.145108,-0.00873702
-0.204388,-0.0248216
-0.226223,-0.00589309
-0.157352,0.00193342
-0.00711739,-0.00804519
0.152916,0.00223029
0.199708,-0.00660299
0.169401,-0.0105165
0.195831,-0.00467904
0.171944,-0.0116878
0.0620456,-0.00998404
-0.00402914,-0.0277635
-0.0562003,0.0102285
-0.0635947,0.0302256
-0.0453736,0.0305767
-0.0507257,0.0169762
-0.0728517,0.0292065
-0.0445753,0.0396818
0.0206743,-0.0286419
0.0918363,-0.0330346
0.0984142,-0.0182007
0.0626263,-0.0106987
-0.017859,-0.0136768
-0.114435,0.0026243
-0.0891784,0.0176819
-0.00829474,-0.0281613
-0.00227118,-0.0118864
-0.0503449,4.58e-06
-0.134596,-0.00588742
-0.194435,-0.0316883
-0.0544696,0.00874623
0.0621507,0.0334896
0.157334,0.00643925
0.225252,0.0175984
0.17016,0.0307731
0.10079,0.00698374
0.0658486,-0.00105814
-0.0176188,-0.00611045
-0.0380108,0.00628107
-0.0192947,0.0141554
-0.0172225,0.00323657
-0.0613192,0.0125935
-0.136357,0.0113303
-0.140896,0.00360586
-0.0803629,0.00465246
0.00754319,-0.00590853
0.0631576,-0.0297279
0.0542066,-0.0300387
0.0383366,-0.000616822
0.00621825,0.00045399
-0.0187336,0.0110393
-0.0158724,0.000377666
0.0188714,-0.0256346
0.0625119,-0.0228881
0.085105,0.00313742
0.0845592,0.0136569
0.0671632,0.00692033
0.047185,0.022141
0.00519439,0.020465
-0.0780464,-0.00369841
-0.105116,-0.0280926
-0.0558363,-0.0418863
-0.0482358,-0.0268972
-0.068766,-0.0333448
-0.04086,-0.0122754
-0.0403458,0.0300404
-0.049374,0.0163346
-0.0287347,0.0534645
0.0313707,0.0187479
0.0623413,-0.00344803
0.0714829,-0.00667943
0.0562674,-0.0192348
0.00816911,-0.0254903
-0.0024895,-0.0303614
-0.0508826,-0.0531761
-0.221673,0.00652886
-0.162221,0.0390593
-0.0339675,0.0428726
0.00137522,0.0104444
0.0427646,-0.00381903
0.0478101,0.00748952
0.00443495,0.0120509
-0.0557974,-0.000601492
-0.0380718,-7.63e-05
0.0201727,0.0088539
0.101787,-0.0201559
0.152287,-0.00947587
0.15084,0.0151304
0.165875,0.0208028
0.158877,0.00707951
0.107316,0.0053428
0.0582875,-0.00269307
0.0192126,0.0188124
-0.0203814,0.0250703
-0.0425857,0.0180784
-0.0636995,-0.00887574
-0.0896295,-0.0234062
-0.100995,-0.0292784
-0.11437,-0.0241906
-0.129762,-0.0373452
-0.143406,0.0190061
-0.144446,0.0409238
-0.0913594,-0.00286542
0.00066513,-0.0346049
0.108367,-0.0100595
0.170518,0.00605559
0.164599,0.00207013
0.093198,0.00354101
0.0727942,0.00112049
0.0349484,0.0075079
-0.0220528,0.0111802
-0.0430415,0.00490814
-0.0181153,-0.00684036
-0.0110823,-0.00669571
-0.0392869,0.00930445
-0.0556866,0.0140155
-0.0370406,0.00853132
-0.0217935,0.0140236
0.0238112,0.0134079
0.0817204,-0.00153837
0.0805292,-0.0128917
0.0170562,-0.0203921
-0.0583091,-0.0102066
-0.059052,0.0182915
-0.0489054,0.0158959
-0.0710246,-0.0115402
-0.152581,-0.0270307
-0.144828,-0.0103334
-0.0857901,-0.0263034
-0.0408453,-0.03905
0.0564926,-0.0270872
0.102388,0.00867682
0.0896048,0.0300414
0.0784058,0.0263995
0.0762955,0.0240886
0.0803923,0.0120314
0.108167,-0.00951613
0.137927,-0.0164155
0.0918747,0.0201507
0.00974731,0.0180249
-0.0151429,-0.00252888
0.0102473,0.0116063
0.0200489,-0.00275093
-0.0107842,-0.00887123
-0.0646537,-0.00710359
-0.0910942,-0.0143891
-0.121717,0.0159283
-0.149774,0.0202323
-0.109654,-0.0231251
-0.0233892,-0.00650882
0.0508179,0.0225522
0.0815707,0.0304429
0.0566835,0.00130691
0.0406157,-0.0237935
0.0843575,-0.0200046
0.094225,-0.012041
-0.00177112,-0.0192624
-0.215735,-0.0459184
-0.216485,-0.0166823
-0.0697963,0.00330814
0.0766402,0.0349134
0.117634,0.00596987
0.0161457,-0.0233305
0.0251378,0.00718061
0.020954,0.0315498
-0.0627486,0.0182455
-0.101842,0.014911
-0.0777949,0.0174278
0.0391969,0.0261959
0.149114,0.00396015
0.159766,0.0007678
0.13745,0.0199487
0.0525497,0.00634224
-0.0312136,0.00387391
-0.0456464,0.0224646
-0.0220592,0.029171
0.00835518,0.00406694
0.0228739,-0.0208296
0.0231411,-0.0288005
0.0226444,-0.0303898
-0.00319902,-0.0159657
-0.0403577,-0.0140457
-0.0768392,-0.0219341
-0.0981553,-0.0211065
-0.0786661,0.00247241
-0.0428317,0.00760107
-0.00828182,-0.0151503
0.0113,-0.0165654
0.0294523,-0.0107172
0.0494791,0.00262205
0.0642759,0.0332706
0.0516249,0.0213149
0.0498672,0.00190846
0.0441077,0.00688277
-0.00744815,-0.0028672
-0.0432548,-0.0100207
-0.0483254,-0.0138152
-0.0540395,-0.00719587
-0.0664177,0.000531818
-0.0621369,0.000919843
-0.0120553,0.00414175
0.0436075,0.00523931
0.0540828,-0.00207274
0.0110677,-0.0123253
-0.0742663,-0.00363459
-0.131574,0.014316
-0.0703462,-0.0103639
0.0365452,-0.0248207
0.10771,-0.00911059
0.119642,-0.0175671
0.102954,-0.0310394
0.0661336,-0.00569781
0.0341932,-0.0157239
0.0139363,-0.0157945
-0.0600823,0.00914338
-0.18653,0.0313566
-0.241823,0.0144114
-0.176084,0.0129861
-0.0475633,0.0193597
0.150416,0.0182288
0.252547,0.021254
0.162925,0.0356415
0.0838384,0.0329121
0.065005,0.030269
0.0544753,0.0046295
0.00678073,-0.0436752
-0.103584,-0.0353569
-0.149156,0.00679161
-0.0898144,0.0270346
-0.0533261,-0.0122161
-0.00862947,-0.0323375
0.0758765,-0.0139013
0.120737,0.0096313
0.088655,0.00174038
0.0327554,-0.0100019
-0.0262716,0.00486166
-0.0719053,0.0164653
-0.0958154,0.0009804
-0.0623794,-0.00338547
-0.0262288,-0.00460974
-0.0216688,-0.00710374
0.0226559,0.0161696
0.0508776,0.0200664
0.0562504,0.00539553
0.0624152,-0.00717602
0.0723125,-0.0234878
0.0837432,-0.0200336
0.0600849,0.021818
0.00921847,0.0155731
-0.0169872,0.000542558
-0.0123754,0.00263007
-0.027731,0.00409523
-0.0802624,-0.00047829
-0.168298,-0.0102368
-0.165795,-0.0149104
-0.0684598,-0.00919336
0.0523792,-0.0041562
0.0785512,-0.0045465
0.00698215,0.00531814
-0.00200798,-0.0108227
-0.056064,0.00947385
-0.12202,0.0401324
0.0342435,0.015633
0.189088,-0.00976854
0.235359,-0.00607223
0.1791,0.00337862
-0.0321957,-0.0148732
-0.302197,-0.0122856
-0.358106,0.00380848
-0.258867,-0.04531
-0.0564228,-0.0156384
0.173769,-0.0291732
0.259221,-0.00486146
0.277458,0.0396772
0.244224,0.0338673
0.159018,0.0322105
0.0511824,0.0230715
-0.0628259,0.00418855
-0.105372,-0.00712666
-0.17625,-0.0143134
-0.232657,-0.021174
-0.171362,-0.0153702
-0.0431343,-0.00946674
0.100255,-0.00593956
0.167551,0.00472376
0.168041,0.0145808
0.135814,0.0068182
0.0831203,-0.00790988
0.0261449,-0.0102933
-0.0460814,-0.00843526
-0.135491,-0.00181836
-0.212673,0.00447522
-0.197571,0.0144252
-0.107273,0.0101824
0.0358431,0.00555886
0.0932923,-0.00242303
0.0832551,-0.0188195
0.0850914,-0.0229745
0.0838252,0.00680967
0.0625614,0.0163162
0.0359333,0.00716872
0.00997746,0.0186734
-0.00131161,0.0156459
-0.0183168,-0.0202848
-0.0427487,-0.0381248
-0.015129,0.00402996
0.00467224,0.0176764
-0.0334469,0.0113229
-0.072185,0.0143704
-0.0985128,-0.0101233
-0.102994,-0.0284921
-0.0253866,-0.0183881
0.0525562,-0.000819709
0.0334874,0.00831281
-0.0135701,0.0175247
-0.0186209,0.0168161
0.0104132,0.00471354
0.0561749,0.0152938
0.0828095,0.0100973
0.100646,-0.00143788
0.065741,-0.0175804
0.00440949,-0.0167571
-0.0125175,0.00314981
-0.0360232,-0.0287003
-0.0559925,-0.0370429
-0.00800529,0.0374715
0.0235877,0.0475806
0.0132069,0.0113529
-0.0116636,-0.011366
-0.0396662,-0.0318923
-0.0226591,-0.00295036
0.0183297,0.0171582
0.0106478,0.00666989
-0.020482,0.00142387
-0.04296,-0.00725735
-0.0488103,0.00236476
-0.0277555,0.0123941
-0.0182164,-0.0339961
0.00679808,-0.0288841
0.0301105,0.00672377
0.0439676,0.0182846
0.0463489,0.0418406
0.0764063,0.0297262
0.0900346,0.00214125
0.0606485,-0.0133849
0.0351746,-0.0236506
0.016722,-0.0269724
-0.0916058,-0.0172684
-0.25878,-0.00387506
-0.281248,-0.00693055
-0.187772,0.00268052
-0.0179787,0.0226081
0.141678,0.0152901
0.207571,-0.00333776
0.164347,-0.00293234
-0.0311604,-0.00321636
-0.236514,-0.00383425
-0.114303,0.0176646
0.114605,0.0260576
0.210945,0.0137341
0.20959,-0.00220845
0.130034,-0.0157781
0.0386704,-0.0301506
0.00974686,-0.0148503
-0.040572,-0.0143669
-0.0581152,-0.034481
-0.0277409,0.00644995
-0.00366303,0.0232382
0.0221369,0.011148
0.0269694,0.0155506
0.0161458,0.0140725
0.0177162,0.0157875
-0.0417649,0.0120028
-0.0971607,-0.00526983
-0.124427,-0.0214502
-0.112116,-0.0192078
-0.0112145,-0.00124199
0.033494,0.0261329
0.0506029,0.0098714
0.0537204,-0.020654
0.0327797,-0.0110443
0.0294183,-0.0118354
0.0300293,-0.0138592
0.0424782,0.00504727
0.0441007,0.0184244
0.0156187,0.0194509
-0.0100548,0.00619305
-0.014,-0.0231541
0.00604862,-0.00214164
-0.00920362,0.0172492
-0.0427711,0.00850568
-0.0500779,0.00387048
-0.0481499,0.00508813
-0.0339497,0.00408226
-0.0141242,0.00381472
-0.00578335,-0.0139935
0.00278796,-0.0201529
0.00295088,-0.00294737
0.00117201,0.00251859
0.0216129,0.00264549
0.0235045,0.00285686
-0.00541265,0.00920246
-0.0332404,0.00687695
-0.0301512,-0.00583762
0.00150454,-0.0202494
0.0121827,-0.016753
-0.0108029,-0.00869325
-0.0340671,0.00144618
-0.0329832,-0.00274239
-0.0513857,0.0154287
-0.0321763,0.0116201
0.00170515,0.00809077
0.0208574,0.00649968
0.0273471,-0.0176289
0.0142025,-0.0268489
0.0184866,-0.0298726
0.0658792,-0.000881388
0.089924,0.00556729
0.0597695,0.0432516
0.0269451,0.0463558
0.0265476,0.00893178
0.0233475,-0.00570257
-0.00390901,-0.00817628
-0.0257622,-0.00487505
-0.0355025,0.0235835
-0.0156018,0.0264927
-0.0077192,-0.00131584
-0.0254223,-0.0418243
-0.0545368,-0.0594709
-0.0941741,-0.0692864
-0.0946913,0.0298905
-0.0434078,0.0624832
-0.0382978,0.0160172
-0.10051,0.00597744
-0.0576193,0.0166905
0.064476,0.0240292
0.165079,0.00590703
0.207185,-0.00551322
0.165663,0.00252503
0.0980533,-0.00332147
0.0627593,-0.0112704
0.00821206,-0.00469853
-0.048353,-0.00552745
-0.051109,-0.000586917
-0.0275669,0.00230852
-0.0101079,-0.0133488
0.00615025,-0.036834
0.0174782,-0.0518469
-0.0218548,-0.0216423
-0.0845449,0.0279343
-0.142418,0.0439414
-0.227342,0.0223192
-0.26608,0.00206533
-0.195733,-0.00706071
-0.0454457,-0.00524114
0.129408,-0.000731748
0.262428,-0.00952294
0.269312,0.00973476
0.190187,0.0200918
0.136735,0.00765687
0.0897435,0.002445
0.0443923,-0.00701701
-0.0038265,-0.0362027
-0.0278082,-0.0298326
-0.0311979,0.0209413
-0.141979,0.0339506
-0.229585,0.00770863
-0.152248,-0.0183747
-0.00358158,-0.0233987
0.117371,-0.0273047
0.155954,0.00128513
0.0954863,0.01415
0.010665,-0.000670139
-0.0311459,0.0131525
-0.0349891,0.0262261
-0.0402609,0.0293619
-0.0424063,-0.00141191
-0.0220333,0.00639168
-0.00220666,0.0204895
0.0137932,-0.00736967
0.0608854,-0.0209745
0.0624857,-0.011103
0.0375391,-0.000598978
0.0382019,0.000400469
0.0247791,0.00486324
-0.0399255,0.00757069
-0.0681001,0.00779965
-0.0386332,-0.0158701
-0.0235472,-0.0326509
-0.0128151,-0.0457337
-0.00606211,0.0117039
-0.0197143,0.0526597
-0.0368632,0.029884
-0.0251077,0.00303649
-0.00857173,0.0100287
0.0165832,-0.00301228
0.0308752,-0.0341683
-0.00384376,-0.0268124
-0.0503765,-0.00407239
-0.055307,0.00181267
-0.0192951,0.00197466
-0.00799766,0.00758034
-0.0409683,0.0127792
-0.0591023,0.00294329
-0.0215302,-0.00473799
0.0277639,0.00545767
0.0531922,-0.00159919
0.0623779,-0.00135856
0.0681091,0.00767049
0.0483232,-0.00328047
0.0227739,-0.0243936
0.0226751,-0.0395947
0.0405216,0.00781866
0.0476189,0.0408612
-0.00859116,0.0208584
-0.0944294,0.000568926
-0.075741,0.0124841
-0.00342649,0.0400644
0.0850087,0.0128152
0.103259,-0.0130284
0.0474329,-0.0286572
-0.0132283,-0.0299939
-0.010892,-0.0117618
-0.00310698,-0.0107144
-0.0938181,-0.00822882
-0.148412,-0.00600706
-0.099185,0.00719626
-0.0334559,0.00513932
0.0192343,-0.0270604
0.0591135,-0.0189942
0.103517,0.0224684
0.1025,0.0253018
0.0714023,-0.0157141
0.0833743,-0.00144444
0.0940654,0.0137641
0.0209201,0.0172455
-0.095307,0.013623
-0.139535,-0.0129328
-0.13064,-0.00747736
-0.0908588,0.00363374
-0.100615,0.0184797
-0.131263,0.026473
-0.0666757,0.0165446
-0.0361078,-0.00207685
0.0182101,0.00892554
0.0458733,-0.0107025
0.0439401,-0.0377261
0.0798187,-0.0402792
0.111119,-0.0214241
0.156892,0.0125326
0.177352,0.0156125
0.127136,0.0164287
0.0674166,0.00918217
0.015541,-0.0174066
-0.0195881,0.00233616
-0.0443215,-0.000729512
-0.0681289,-0.0275181
-0.0812597,-0.0140864
-0.0680928,0.0338548
-0.0218907,0.0292718
-0.000645432,0.0120504
-0.000376515,0.00493215
0.0364885,0.0063077
0.048365,-0.00319249
0.0372302,-0.0104845
0.0390602,-0.00549014
0.0344345,-0.000252995
-0.00249598,0.00930449
-0.0245165,0.0177643
-0.0206344,-0.00064058
-0.0291252,-0.0382457
-0.0651482,-0.0220595
-0.154315,-0.00885639
-0.243754,-0.0262608
-0.255166,0.00739033
-0.235339,0.010844
-0.121816,0.00918971
0.101847,0.0317162
0.273362,0.0326865
0.298664,0.00153372
0.193496,-0.0152945
0.13209,0.00536488
0.0753451,0.00627597
-0.0280434,-0.00552777
-0.0319573,-0.00117756
-0.0132316,-0.0097754
-0.0557161,-0.0257136
-0.156667,-0.0223304
-0.0915104,-0.0276985
0.0349378,-0.0120896
0.100282,0.00467279
0.123453,0.0136025
0.100725,0.0239759
0.0651395,0.0256413
0.0416048,0.0133874
-0.0168536,0.000272857
-0.070616,8.25e-05
-0.0847193,0.00868145
-0.0442077,0.00655988
-0.0213841,-0.001894
-0.0166196,-0.000665342
-0.0139485,0.00661853
0.000119691,-0.0155101
0.0237563,-0.0238457
0.0393198,-0.0153817
0.0438545,-0.0147583
0.0210621,-0.00142781
0.0102853,0.0183199
-0.000205851,0.00903325
-0.0224116,0.0032726
-0.038757,0.000522623
-0.0341077,0.0100655
-0.0396369,0.00632379
-0.0539294,-0.00959693
-0.0795625,0.000478086
-0.116553,0.0147093
-0.102247,0.014983
-0.051054,0.0128596
-0.00668492,-0.0110939
0.049714,-0.0444596
0.0627785,-0.0345537
0.0589875,-0.01293
0.0769385,0.0100527
0.0845186,0.027674
0.0857023,0.0244586
0.0917187,0.0190884
0.069544,0.0194366
0.0176324,0.0281213
-0.019399,-0.00066701
-0.0211914,-0.0149701
-0.0216336,-0.0224942
-0.0198355,-0.0142112
-0.0475695,-0.00237328
-0.060462,0.013278
-0.0565153,-0.0137573
-0.0301537,-0.0153323
0.017375,-0.000737803
0.0419074,-0.0034146
-0.0346348,-0.00592274
-0.0800175,-0.043132
-0.0429617,-0.0212831
-0.00484565,0.0191428
0.0522473,0.036498
0.0881536,0.0199573
0.0718303,0.00316932
0.0516646,-0.00473461
0.0200018,-0.00325952
0.00121284,0.00722552
0.0110132,0.0134683
0.0270877,0.011756
0.0194302,0.00681047
0.0293672,0.000606775
0.0348346,-0.0115831
-6.21e-06,-0.0232244
0.0168252,-0.0225804
0.0347394,-0.0197898
0.0135098,-0.0131957
-0.0173473,-0.0133644
-0.0729783,0.00496156
-0.142714,0.0293927
-0.251255,0.0300185
-0.311248,-0.000188976
-0.289728,-0.025293
-0.239616,-0.00732943
-0.061271,0.0142295
0.173714,0.0156688
0.289194,0.0115398
0.315256,0.0123387
0.304415,0.00836239
0.2334,-0.00317197
0.138632,0.00229272
0.045015,0.00500717
-0.00756538,0.0068919
-0.0365662,-0.000360687
-0.0162522,0.00923378
0.0119622,-0.000642233
0.00875511,-0.0119137
-0.00329905,0.00425475
-0.0235169,-0.00807045
-0.0405042,-0.0246144
-0.0443527,-0.012353
-0.0359075,0.00606602
-0.0480129,-0.00993963
-0.0541379,-0.0162927
-0.0470957,0.00877972
-0.0650086,0.0160024
-0.0749969,-0.00132163
-0.044878,-0.00238157
-0.012536,0.00300875
-0.00623054,0.00967953
0.0219503,0.0104108
0.0509085,0.0144839
0.0547198,0.00950934
0.0524292,0.0125934
0.0153535,0.0143519
-0.0106547,0.000502901
-0.0212238,-0.0141098
-0.00299602,-0.0115859
0.0095088,-0.0136566
0.00900137,-0.0156617
-0.0199981,-0.0204123
-0.0843384,-0.0177396
-0.110776,-0.00920965
-0.0957458,-0.0347521
-0.0816396,-0.00237569
-0.0258086,0.0331662
0.0034056,0.0176047
0.0472587,0.00311553
0.109794,0.00716679
0.11994,0.014362
0.0757902,0.0066984
0.00129343,0.00676164
-0.0315634,-0.00240076
-0.0162347,-0.00406958
0.0209092,0.00473279
0.0535236,0.010324
0.0681079,0.0121313
0.0385165,0.0160802
-0.0700386,0.00712313
-0.105274,-0.0219993
-0.0460852,-0.0309559
0.014394,-0.0437464
0.0641026,-0.0320709
0.0914195,0.00772796
0.0426264,0.017629
0.0207245,0.00927074
0.0409506,0.0116066
0.0300894,0.012313
0.000563267,0.000583599
-0.0782154,-0.00871531
-0.10573,-0.000561208
-0.0998162,0.00411958
-0.10038,0.00201796
-0.0376623,0.00720643
0.0465738,0.0124478
0.0908536,0.00456033
0.0807938,-0.0107042
0.0714867,-0.0146305
0.064502,-0.00819267
0.035583,-0.0169499
-0.00248313,-0.0164093
-0.0289472,0.00790381
-0.0328021,0.0210454
-0.0338654,0.00518792
-0.0249897,0.0134373
0.00421443,-0.0104891
0.0073912,-0.0145804
-0.0198,0.0127005
-0.0720669,0.00771931
-0.101528,0.00297376
-0.0677811,0.0183448
-0.0121702,0.0261376
0.039744,0.00917146
0.0882293,0.00266073
0.100809,0.000660739
0.0775099,-0.00591209
0.0286125,-0.0031535
0.000901639,0.00169805
-0.0215319,0.00553966
-0.0488423,-0.00995138
-0.0580608,-0.026746
-0.0242234,-0.0309097
0.0209455,-0.0199873
0.0306498,-0.00716241
0.0207044,-0.0143486
0.0141603,-0.0199593
-0.00440696,0.033598
-0.0394371,0.0446946
-0.0832481,0.0165392
-0.100941,-0.00723439
-0.108087,-0.0100156
-0.0792974,0.0123929
0.0268873,0.0115262
0.114352,0.00734203
0.121586,0.00601369
0.118522,0.00203615
0.10546,0.00687093
0.0643454,0.00421995
0.0293285,-0.00747918
-0.00221072,-0.0152071
-0.0235385,-0.0172813
0.0071361,-0.0017388
0.00961064,0.00750019
-0.0151255,0.00768702
-0.0435792,0.00447762
-0.102238,-0.0130998
-0.10284,-0.0247528
-0.0624223,0.0180895
-0.0361407,0.0089955
-0.0229959,-0.00874345
0.000402318,-0.00472314
0.0332628,0.000177036
0.013063,0.0173627
0.00166351,0.0159397
0.00241152,0.0201681
0.0177395,-0.0137956
0.0362891,-0.0468825
0.051132,-0.0179563
0.0864053,0.00930389
0.0724271,-0.0199327
0.0492656,0.00981886
0.0147492,0.0264054
-0.0137291,-0.00977757
-0.0249712,-0.0113003
-0.0219464,0.00738006
-0.0182049,-0.00254977
-0.0468824,-0.0155779
-0.0967571,0.00540434
-0.126448,0.0171405
-0.09795,0.00634905
-0.0239153,-0.0128395
0.0178286,-0.0105938
0.0400328,0.0203318
0.0418994,0.0192394
0.0553624,0.0205239
0.0605158,-0.0108105
0.0420472,-0.00555513
0.0563323,-0.00960257
0.0820088,-0.0136986
0.0766715,0.0381689
0.0124553,0.0182047
-0.0554202,-0.000555266
-0.0492265,0.00380142
-0.0245942,-0.00595534
-0.0152554,-0.0223733
-0.0461479,-0.00837737
-0.0825129,0.0157364
-0.0850522,-0.0121281
-0.0585226,-0.0137528
-0.0386638,-0.0318246
0.00234352,-0.0371174
0.0609162,0.00703281
0.043311,0.0226389
0.0315614,0.0241174
0.0437793,0.0182484
0.0563135,0.0103464
0.0502718,-0.0087196
0.0764293,-0.0185893
0.062517,-0.00832482
0.0267723,-0.0171354
0.00760579,0.00833783
-0.011056,0.0200518
-0.0221609,0.000910251
-0.0146584,-0.0282075
-0.00857231,-0.0184231
-0.0412675,0.0265993
-0.166471,0.0135997
-0.195559,0.0017569
-0.095108,0.00544135
-0.00895275,0.00646129
0.0330637,0.00680905
0.0821158,0.00993459
0.0668711,-0.00339133
0.0458288,-0.013102
0.0579869,-0.00860909
0.0496708,-0.0185187
0.0175469,-0.0208118
0.0148261,-0.00141089
0.0310996,0.0172624
0.0141551,0.0291198
-0.0213496,0.0106229
-0.0106801,-0.00248524
0.0235993,-0.00502352
0.0418813,0.0143125
0.0551157,0.0250932
0.050601,0.0116814
-0.00361436,0.000986315
-0.0620226,0.00760281
-0.0538711,0.0017097
-0.0095644,-0.019987
-0.00889579,-0.0295313
-0.0725927,-0.0342788
-0.103222,-0.0270086
-0.109421,0.0136745
-0.11357,0.0276488
-0.0370041,0.0192014
0.023118,0.0121799
0.0657904,0.00575189
0.0985225,-0.00909883
0.0901834,-0.0410975
0.0670096,-0.0199723
0.0474697,0.00321367
0.0217845,-0.0014798
0.00720427,0.00527226
0.0107577,0.0122047
0.0381086,0.0220578
0.0482972,0.00127261
0.0231131,-0.00256264
0.0123363,0.0117724
0.00347972,0.0112619
0.00202572,0.00920263
-0.00993058,0.00496019
-0.0441842,-0.00621322
-0.0570468,-0.0015903
-0.0460252,0.00395332
-0.0306752,-0.00158216
-0.00651335,-0.0164916
-0.0195478,-0.0221589
-0.0510016,-0.0210278
-0.025043,-0.0200767
0.0164721,0.00508663
0.00596926,0.0278436
0.00774697,0.0140971
-0.01884,-0.00458091
-0.0235004,-0.00425526
-0.0515767,0.00228564
-0.11054,-0.00237375
-0.0637805,0.0079734
0.0297178,0.0165584
0.0758018,-0.0183367
0.081207,-0.00803924
0.125181,0.0266687
0.119037,0.00223598
0.0506108,-0.00250543
0.000771346,-0.011071
-0.0400308,-0.0227619
-0.0487398,-0.0157132
-0.0305517,-0.00164728
0.0143016,0.00948855
0.0448071,0.0130853
0.0398624,0.00441285
0.00518044,-0.00254384
-0.0140584,-0.0138546
-0.0174865,-0.0253622
-0.0147081,-0.00806609
-0.00309839,0.0276695
-0.0484691,0.0228575
-0.098551,0.00470606
-0.0614758,-0.0114831
0.00595623,-0.0327466
0.0573075,0.000480839
0.0553407,0.0509646
0.0335978,0.021615
-0.00250986,-0.0111965
-0.0548276,0.0200632
-0.086453,0.01995
-0.0493197,-0.0142192
0.0274881,-0.0108352
0.0568231,0.00223175
0.0774012,0.00677648
0.0615797,0.00846947
-0.0192362,-0.0023585
-0.0710935,-0.0132732
-0.0348226,-0.0187773
0.0328978,-0.0369072
0.0921136,-0.0237064
0.0995265,-0.000817069
0.0432623,0.0112548
-0.0320239,0.00695338
-0.0611355,0.00836674
-0.0527304,0.0208086
-0.0273889,0.0136468
-0.0202737,0.0142805
-0.0711692,0.000490553
-0.0693824,-0.00840813
0.00920083,-0.00373997
0.0639673,0.00128404
0.0654409,-0.00494306
0.0440499,-0.0114462
0.0178368,-0.0162996
-0.0874954,0.00604072
-0.218084,-0.0313975
-0.222767,-0.0459382
-0.0893112,-0.00323693
0.0975096,0.0487137
0.213496,0.0385464
0.249184,0.0126816
0.21173,0.0216332
0.117692,0.0235442
-0.0113412,-0.000861226
-0.124848,-0.0146021
-0.198839,-0.00933143
-0.192867,-0.0164414
-0.12741,-0.0215158
-0.0107527,0.00560731
0.080168,-0.00309282
0.147658,0.0099676
0.185579,0.0183993
0.134311,0.00841068
0.101094,-0.00423218
0.0516328,-0.0128034
-0.0542872,-0.030971
-0.157157,0.0108714
-0.228021,0.030135
-0.197137,0.0156956
-0.047906,0.00499687
0.120795,-0.010205
0.186571,-0.0170326
0.138459,-0.0260367
0.0647839,-0.017285
0.0206398,-0.0016071
-0.00465949,-0.0139896
-0.00728545,0.0239597
-0.00886534,0.0322833
-0.013287,0.0105277
-0.0301548,-0.00755847
-0.0945707,-0.00199556
-0.111754,0.00483522
-0.0606174,0.00381384
-0.013379,-0.00664486
0.0121078,-0.00382283
0.0304461,0.0314667
0.0470519,0.00879335
0.040624,-0.0324012
0.0163846,-0.0413093
-0.0427283,-0.0216789
-0.106211,0.00160981
-0.109841,-0.0168878
-0.0651311,-0.00168017
0.0357559,0.0224484
0.108709,0.0165944
0.108369,-0.00337394
0.0821957,-0.0278641
0.0589249,-0.0109882
0.0153721,0.00863655
-0.000892367,0.00817162
-0.00284538,0.0060298
-0.0118593,0.0162129
-0.0204408,0.0213096
-0.0349501,0.0102979
-0.0526028,0.0035883
-0.0481253,0.00506832
-0.0255868,-0.00236743
0.00743413,-0.0263701
0.0370804,-0.0313185
0.0489803,0.0143196
0.0277259,0.0329529
0.00522028,0.025953
0.00645913,0.00376409
0.0178676,-0.0160999
0.0125587,-0.0150407
-0.0030502,-2.13e-05
0.00400251,0.00461745
-0.0109722,0.00253502
-0.0292964,0.0160679
-0.0140569,0.0120752
-0.00797675,-0.0104572
-0.00292388,-0.00808007
-0.0198163,-0.0171057
-0.0782042,-0.0480471
-0.0922891,-0.000167155
-0.078782,0.0292088
-0.113448,0.028329
-0.100169,0.011378
-0.0278894,0.00139653
0.0735156,-0.0202178
0.160646,-0.0262052
0.191422,-0.0138228
0.148885,0.00180266
0.0605315,0.00664173
-0.0213975,0.0138918
-0.0985689,0.0212812
-0.105438,0.0112952
-0.0445738,-0.00598303
0.0233178,-0.00278471
0.09779,0.0164013
0.154999,0.00756806
0.131377,-0.00550168
0.0575117,-0.00894043
-0.0172972,-0.0144015
-0.0410432,-0.0168857
-0.00492492,-0.0134453
-0.0039246,-0.00544126
-0.0638036,-0.00558434
-0.0889748,-0.00245454
-0.0646534,0.000523473
-0.0628868,0.0167771
-0.0736527,0.0313175
-0.0686535,0.0238207
-0.0124354,0.00300007
0.043673,-0.0217367
0.114807,-0.0156618
0.143138,-0.00909536
0.10784,0.0139669
0.0244647,0.0117581
-0.0491498,-0.000765804
-0.10444,-0.0158709
-0.140811,-0.00840587
-0.116951,0.00260683
-0.121972,-0.000537467
-0.108604,0.00186462
-0.0209881,0.00461899
0.0823262,0.00207963
0.154937,0.0124191
0.175579,0.0229303
0.144925,0.01372
0.0516143,-0.00683591
-0.076408,-0.00805919
-0.0988385,-0.0240857
-0.0463972,-0.00940309
-0.00331217,0.0122865
0.0216303,0.00387911
0.00953595,-0.0155551
-0.00256105,-9.15e-05
0.0222069,0.0193215
0.022116,0.00476542
-0.0038996,-0.0222145
-0.0295522,-0.0164938
-0.0189665,0.00661519
-0.0126502,0.00305091
0.00220736,0.00227025
0.00731757,0.00141172
-0.00107709,-0.00254927
0.00466206,0.00929431
-0.0115227,-0.00760194
-0.00872673,-0.00181776
-0.0132998,0.00901971
-0.00675345,0.0113456
0.0122872,-0.00191025
0.0107407,-0.00714809
-0.0129332,-0.00241126
0.00238518,-0.000487912
-7.81e-05,-0.0385975
0.00316965,-0.0411446
0.0412914,-0.0261073
0.0535201,0.0108908
0.00503204,0.0238283
-0.0177735,0.0363728
-0.0401577,0.0302029
-0.0382179,0.0179321
-0.0186998,-0.0109562
-0.00139596,-0.0292199
-0.0420355,-0.0227216
-0.0829657,-0.0195882
-0.0702674,0.0224716
-0.0106385,0.0365836
0.0252999,0.0116524
0.046023,0.00568767
0.0730913,-0.00304045
0.0551713,-0.0222078
-0.0127639,-0.0164149
-0.0450739,0.00141999
-0.00312144,0.00713349
0.0557563,0.0224499
0.0870646,0.0297017
0.0947917,0.0185991
0.081335,-0.0103676
0.05419,-0.0203397
-0.00639598,-0.0133746
-0.107625,-0.00892044
-0.112147,0.00497434
-0.0505939,0.0104519
0.0142591,0.0077343
0.0688941,-0.00328093
0.0784975,0.00210585
0.0375836,-0.00353667
-0.00187651,-0.0217301
-0.0842908,-0.0138672
-0.264145,-0.00416406
-0.261657,7.61e-05
-0.105233,0.0183092
0.0223047,0.0298194
0.139236,0.0104427
0.222634,-0.0105884
0.195861,-0.0245165
0.102765,-0.0269088
0.0372762,-0.0209724
0.0118398,-0.0375376
0.0218338,0.041587
0.00988588,0.0474306
-0.00734081,0.0156084
-0.0266662,0.00151158
-0.0476986,-0.00599072
-0.0499411,-0.0171717
-0.0402522,-0.00664959
-0.0251862,-0.000354171
-0.114389,0.000596699
-0.176158,-0.00348361
-0.115896,0.0199315
0.0287296,-0.00185572
0.126572,-0.0280149
0.0943936,-0.0231686
0.0494551,-0.0214081
0.0352169,0.007935
-0.00980452,0.0185313
-0.0241042,0.0291726
-0.00797092,0.0215258
0.0423898,0.00383859
0.0821034,0.00131984
0.0685746,-0.00620071
0.0185815,-0.0161362
-0.00856244,-0.00471452
0.00168126,-0.00177306
-0.00447932,0.0107794
-0.012226,0.0307924
-0.0151542,0.0226268
-0.0179641,-0.00444844
-0.012059,-0.0089974
0.000583583,-0.00631699
0.012892,-0.00679076
0.00470434,-0.0102102
-0.0257884,-0.0182536
-0.0401176,-0.00226681
-0.0424235,0.011821
-0.0257789,0.0110461
-0.00900362,-0.000964191
0.00619625,-0.0144004
0.00544538,-0.0196784
0.0147483,-0.00597013
0.0168055,0.0022281
-0.0364585,0.00839096
-0.112416,0.0211276
-0.155809,0.0143142
-0.116605,-0.00378352
0.0402591,-0.00663422
0.167557,-0.0187462
0.148783,-0.00951565
0.046643,0.00855637
-0.0179194,1.54e-05
-0.0167363,0.00941381
0.0139499,-0.00447486
0.0559111,-0.00822221
0.0764263,-0.0406864
0.0868383,-0.0161551
0.0809997,0.0289779
0.0584796,0.0302933
0.0317943,0.0152016
0.0197045,0.0165277
-0.0280964,0.0138492
-0.141187,-0.00692426
-0.182934,-0.020472
-0.132441,-0.00794024
-0.063193,0.00235745
-0.0491499,0.000588925
-0.0316641,0.0046293
-0.0435119,0.00700594
-0.0806634,0.00236481
-0.0745955,0.00261629
0.00968458,-0.00571134
0.113004,-0.0187106
0.179632,-0.0136859
0.186568,-0.00112179
0.142977,0.000741422
0.0568224,0.00749888
0.0115868,0.0198032
0.0113973,0.0156866
0.0192918,-0.00305352
0.00640302,-0.0176434
-0.0153127,-0.0205631
-0.0117189,-0.0323139
-0.00797003,0.00854568
-0.0383349,-0.0169469
-0.0563185,0.0150979
-0.05809,0.0172394
-0.0461433,0.0123918
-0.0201497,0.00753195
-0.00233092,-0.00202474
-0.0421986,0.0067505
-0.074293,0.00811295
-0.0573926,-0.000901643
-0.0231149,-0.00217663
0.0245758,0.00966373
0.0796751,0.00025593
0.0842392,-0.00533169
0.0367305,-0.00376576
-0.0497146,-0.00781619
-0.0780981,0.00624036
-0.076685,0.00356053
-0.0501605,-0.00263851
0.0228198,0.000629531
0.0779644,-0.0113905
0.0649959,-0.0167501
0.0473508,-0.0119627
0.0246933,-0.0156278
-0.0115925,-0.0227422
-0.0351184,0.00810944
-0.0307647,0.0341748
-0.00297913,0.0259122
0.000730206,0.0238474
0.0232644,0.0114559
0.0672284,-0.0129036
0.0609124,-0.00987719
0.0224047,-0.00304608
0.00932897,-0.00210756
0.00295556,0.00728015
-0.00187489,0.00995482
0.00457438,0.00452459
0.0063978,0.00278308
0.00498788,-0.00834864
0.00239428,-0.0237149
-0.00747066,-0.0134806
-0.0208349,0.00189524
-0.0298825,0.006084
-0.0428663,0.00520808
-0.0599491,0.00408217
-0.0672836,0.00982473
-0.0670756,0.00327405
-0.0795306,-0.0133779
-0.0591085,-0.00675375
-0.00179848,0.0369705
0.0322421,0.0233791
0.0301553,-0.016612
0.0357103,-0.00108958
0.0660945,0.00594029
0.0741436,-0.0051288
0.063614,-0.0104958
0.0472782,-0.0308185
0.028962,-0.0379007
0.00258091,-0.00554764
-0.0304487,0.0202276
-0.0718982,-0.0169565
-0.0501824,0.0141879
-0.0168423,0.0084952
0.0148871,-0.0146005
-0.0197813,0.00717849
-0.0833305,0.00749508
-0.0475909,-0.00896839
0.0310613,-0.00616173
0.0780903,0.00828629
0.100933,0.0272841
0.115822,0.0131034
0.0780145,0.000916863
0.0129562,-0.0046698
-0.0519018,-0.00410309
-0.0546007,-0.00571536
-0.0292808,-0.00159449
-0.00647747,0.00040005
0.0073694,0.00580988
0.00836199,0.0201665
0.00101745,0.0136919
0.0186036,-0.00308613
0.0254019,-0.0105423
0.00721904,-0.00443534
-0.000633327,0.00071355
-0.00533073,0.00706051
-0.01555,0.0083746
-0.0313799,-0.00136497
-0.0581398,-0.0049079
-0.0990437,-0.00757344
-0.140068,-0.0200033
-0.129483,-0.0165379
-0.0421996,0.0014058
0.0388912,0.000751241
0.104914,0.00894674
0.168452,0.0186033
0.163266,0.0260154
0.0517915,0.0109048
-0.0164185,-0.00132961
0.001481,-0.0106074
0.00734634,-0.0305374
0.0083836,-0.0285449
0.0307948,-0.0289593
0.0359313,0.00364371
-0.0102027,0.0211606
-0.106366,-0.0244076
-0.135572,-0.00893372
-0.0825606,0.0214089
-0.0912927,0.00803039
-0.0812974,-0.00114394
-0.0244529,0.00706727
-0.0326645,0.0029984
-0.059942,0.000858441
0.0100345,0.00716695
0.0712609,-0.00585972
0.087308,-0.0132461
0.145814,-0.00935667
0.171302,0.00145052
0.129563,0.0111331
0.065057,0.0161336
0.0287675,0.0171045
0.0205419,0.00776643
0.0108729,0.00472806
0.00719594,-0.00919426
0.0118682,-0.0177738
-0.0117315,-0.00632237
-0.0767556,0.00351449
-0.107999,0.00441918
-0.1076,0.0104626
-0.077824,0.0209946
-0.0350259,0.0123076
0.00435582,-0.00581136
0.0356333,-0.00286558
0.0272338,0.00506826
0.0136618,0.00505254
0.0111449,0.00100852
0.00290632,0.00265131
-0.0544821,-0.0340771
-0.0864671,-0.0249574
-0.0913489,0.00750788
-0.0713352,-0.0107637
-0.0376207,-0.0209119
0.0297099,-0.0078418
0.0996789,0.00410519
0.111933,0.00666444
0.0528759,0.0170963
0.012735,0.0214471
0.0272548,0.0126912
0.0246468,-0.00568839
0.028907,-0.00459949
0.0116235,0.00685934
0.0033797,0.0178923
-0.0206174,0.00271992
-0.0104329,-0.0152069
0.0368276,-0.00823362
0.0383793,-0.00239887
0.00145798,-0.00598336
0.000839992,-0.0178414
0.00721636,-0.0128204
-0.00422071,0.00222006
-0.00767824,0.00213826
-0.00885894,0.00570289
-0.0140952,0.0145062
-0.0376439,0.0151157
-0.0600623,0.0020336
-0.0635757,-0.0108605
-0.0484293,-0.00545161
-0.0194773,-0.00235899
0.00777223,0.000629435
0.0229535,0.0107402
0.0313698,0.0159794
0.0200124,0.0124413
0.0205177,0.00746078
0.0312207,-0.00856093
0.0272141,-0.0196671
-0.000300897,-0.00944105
-0.0551785,-0.00466388
-0.0744671,-0.00950897
-0.0367137,-0.0120412
0.00587758,-0.0151189
0.0257211,0.0115853
0.0410094,0.00973035
0.0368143,-0.00991345
0.0156665,0.00593325
-0.0150685,0.0071179
-0.0248144,0.0122617
0.00564646,0.008838
0.0300011,0.0144205
0.0127569,-0.00572832
-0.001676,-0.0189488
-0.032954,-0.0132038
-0.0299261,-0.0197733
-0.0254345,-0.00438049
-0.00667277,0.0155894
0.0400085,0.0106022
0.0751013,0.00922491
0.074357,0.0127977
0.0337625,0.0163046
-0.00475332,0.000758916
-0.0271729,-0.00360687
-0.0390433,0.00237646
-0.0318854,0.00529753
-0.018124,0.0116302
-0.00828118,0.00959743
-0.00450825,0.000240764
0.00764252,-0.0150244
0.0216313,-0.0118728
0.0243717,-0.026417
0.0339852,-0.0239175
0.0393435,-0.00105476
0.0319705,0.012211
0.0264839,0.00775099
0.00209233,0.0028989
-0.0198707,-0.000976055
-0.0263864,0.000255744
-0.0344157,0.00487626
-0.0386552,0.0120109
-0.0582524,-0.000960487
-0.0977932,-0.00448572
-0.150042,0.0120096
-0.152343,0.0238875
-0.0631386,0.0109714
0.0526398,-0.00383874
0.147625,-0.0185007
0.188679,-0.0277552
0.142498,-0.0174721
0.0832775,-8.93e-06
0.0282875,0.00853366
-0.0518792,-0.00821116
-0.149668,-0.00774659
-0.218717,0.0139146
-0.180976,-0.0277111
-0.0547689,-0.0225974
0.0971295,0.00939799
0.203098,0.0123263
0.181218,0.0144749
0.0773016,0.0362545
0.0154307,0.0337191
0.0145553,0.00968733
0.0264937,-0.00302414
0.0560864,-0.0154915
0.0499831,-0.0205645
0.0256529,-0.0107756
-5.15e-05,-0.0125054
-0.0302893,-0.0164928
-0.0804527,-0.0132327
-0.146438,0.0177367
-0.112252,0.0177048
-0.0418382,0.00102812
-0.00372602,0.00287229
0.0214818,-0.0071507
0.0702477,-0.000217438
0.0678585,0.0155447
0.0529442,0.0182621
0.057016,-0.00752812
0.0186783,-0.00241531
-0.00612641,-0.00490294
-0.00659316,-0.0212289
-0.0012695,-0.0166835
0.00875619,0.00141304
-0.0171232,-0.00109419
-0.0554136,-0.00576138
-0.0477475,0.0157398
-0.0186132,0.0159076
0.017326,0.00700784
0.0501413,0.00224956
0.0445912,0.00137809
-0.00493883,-0.00784876
-0.091012,-0.00581932
-0.12286,0.00336924
-0.113533,-0.000743094
-0.0955346,-0.0104922
-0.070771,0.0142727
-0.0112234,0.00732925
0.0598165,-0.018868
0.10414,-0.0151561
0.120796,0.00423656
0.0891677,0.00798438
0.0560537,0.00715044
0.0477636,0.014128
0.0384742,0.00907074
0.0355653,-0.00596076
0.0160458,-0.00943433
0.0145529,-0.00248147
0.0200326,-0.00477181
0.00716431,0.000353669
-0.017361,0.012722
-0.0443579,0.0106687
-0.0662574,0.000852702
-0.0546228,-0.0014309
-0.0293851,-0.0192673
-0.0167146,-0.0313287
-0.0054137,-0.00772646
0.00948933,-0.00337276
0.00451056,-0.000550787
-0.00441675,0.005951
-0.00321649,0.00339969
0.0109896,0.00269679
0.0141856,0.010592
-0.0242131,0.00699936
-0.0508922,0.0067698
-0.0665866,0.00876777
-0.0503995,0.0119399
-0.0205148,0.00256842
0.00237185,-0.00362596
0.027859,-0.00271185
0.0448233,-0.00300753
0.0426724,-0.0343064
0.0250289,-0.026581
0.0071616,0.0132957
-0.0123992,0.0259817
0.0128113,0.0446093
0.0456127,0.0100355
0.0285798,-0.00265306
-0.0374629,-0.00580142
-0.0568738,-0.0153505
-0.0227759,-0.0147116
0.0231466,-0.00949606
0.0533236,-0.00193225
0.0561577,0.00170612
0.0745341,0.00663127
0.0355453,0.01065
-0.0345503,0.00565031
-0.0104737,-0.00776465
0.0211753,-0.0251996
0.0054364,-0.0193151
-0.013194,0.00499868
-0.0185737,0.00698287
-0.00644646,-0.0037952
-0.00527655,0.00588182
-0.0143797,0.0163932
-0.0265285,0.00575585
-0.0540302,-0.00651597
-0.0535284,-0.00124961
-0.0683765,0.00216607
-0.0630472,-0.00289944
-0.0305905,0.0106024
-0.0534428,0.0159505
-0.0354119,-0.00171259
0.0114636,-0.00613026
0.0486347,-0.00173696
0.0956071,0.000397973
0.128408,-0.00343394
0.114835,-0.00550936
0.0756149,0.00136124
0.0405862,0.00813007
0.0167055,0.00522645
-0.000926969,-0.00307797
-0.0020215,-0.0205072
-0.00605537,-0.0110329
-0.0312396,0.00643937
-0.0526948,0.00556853
-0.0618534,0.00778133
-0.0499495,0.0122914
-0.0166329,0.00480349
0.00277942,-0.00338185
-0.0172746,-0.0075444
-0.0190875,-0.00410061
-0.0062911,-0.00958918
0.010637,-0.00338755
0.00328049,0.00871956
0.00191536,-0.00603434
0.0126411,-0.00369559
0.0105794,-0.0172377
0.0189486,-0.024793
0.0245887,-0.0224083
0.020316,-0.0203963
0.0178352,-0.00183613
0.0121373,0.0111805
-0.0269643,0.0165793
-0.0728191,0.0336346
-0.0781931,0.0370641
-0.0463671,0.0233235
-0.00876186,0.010781
0.024578,0.0104117
0.0323751,0.0161858
0.0252602,0.00455111
0.0160723,0.00255633
0.0143093,0.00617355
0.018653,-0.00649385
0.0349214,-0.0222444
0.0215761,-0.0281017
0.00253498,-0.0191437
-0.00379062,-0.0126803
-0.0218202,-0.00490718
-0.0140368,0.000278233
0.00699665,0.00264165
-0.000406879,0.0115551
-0.00554109,0.0263544
-0.00115688,0.0121556
-0.016398,-0.00356404
-0.0365713,-0.00188278
-0.0303958,-0.00120174
-0.0106426,-0.0116242
0.0102001,-0.0209342
0.0242061,0.00293703
0.0302429,0.0031689
0.0316264,-0.0136689
0.0286086,-0.0211297
0.0327012,-0.0135871
0.0327989,-0.00266692
0.0171829,0.0104491
-0.0251329,0.0174449
-0.0858752,0.0181076
-0.0856791,0.0122237
-0.0401622,0.0119431
0.00693542,0.00338129
-0.0190874,0.00428822
-0.0769071,0.00869525
-0.0998221,0.00142343
-0.05975,-0.000567416
-0.00257239,0.00623002
0.0456608,-0.00471333
0.121465,-0.0146554
0.17076,-0.0126397
0.132272,-0.011691
0.0595755,-0.0323678
0.00763963,-0.0235502
-0.0100829,0.00308522
-0.0154376,0.00492872
0.0115345,0.00391534
0.0369089,0.0225978
0.0153466,0.0145346
-0.0125814,0.0103026
-0.0281839,0.00767583
-0.0363458,0.0102643
-0.0337084,0.00504836
-0.0334615,-0.00132369
-0.0365594,-0.00392409
-0.0311173,0.000265787
-0.0187869,-0.0241216
-0.00328257,-0.0352759
0.00688154,-0.00374486
0.0071983,-0.00540152
0.00851118,-0.00883368
0.0101285,-0.00927771
0.00150972,-0.010642
-0.000782769,0.0162364
0.00528673,0.0370844
0.00506197,0.0221928
0.00398661,0.00534474
-0.00535113,0.00180545
-0.0113885,0.00355427
-0.0114118,0.00364319
-0.0172885,0.0044403
-0.017817,0.00841025
-0.00936711,0.00432294
0.00394012,-0.0105403
0.0105915,-0.0170875
0.0116127,-0.0140735
0.00494841,-0.0185088
0.00416063,-0.00838589
0.00497801,0.0177607
0.00093694,0.0166239
-0.000101894,0.00991782
-0.0026466,0.0124107
0.00129496,-9.04e-05
0.00658359,-0.00675072
0.00399757,0.00592321
-0.00498311,0.00242242
-0.0146788,-0.00302075
-0.019057,0.00307218
-0.0196921,0.00326627
-0.0108546,-0.0120368
0.00466763,-0.0315209
0.00904898,-0.00450695
0.00946504,0.0068252
0.0127225,0.00347496
0.0173953,0.0128939
0.0155883,0.0193173
0.0108763,0.015401
0.00661326,0.00854315
0.00293768,-0.00421787
0.00728979,-0.0132684
0.00494569,-0.0141285
-0.0012106,-0.010479
-0.00187388,-0.000781426
-0.00616605,-1.72e-05
-0.00598562,0.00100396
-0.0105543,0.00253374
-0.00576143,-0.00650352
0.000420311,-0.0210577
-0.00318428,-0.0173908
-0.00294025,-0.0011871
-0.00725068,0.0105771
-0.0119034,0.0231278
-0.00714603,0.0203575
-0.00609902,0.018037
-0.00157993,0.0124752
0.0170887,-0.012749
0.0289047,-0.0142444
0.018642,0.00789238
-0.00881199,-0.00248858
-0.0189236,-0.0267791
-0.0303826,-0.00808247
-0.0399968,0.0181761
-0.0237605,0.0108397
0.00973071,-0.00463124
0.0220163,-0.011331
0.0238887,-0.00935671
0.0275916,-0.00558902
0.0267565,0.00350549
0.0180977,0.0120595
0.00914454,0.0114388
0.00298682,0.00696739
-0.00251172,-7.52e-05
-0.00236854,-0.0110002
-0.00566105,-0.0170648
-0.013206,-0.010177
-0.0108306,-0.00346143
-0.00792876,0.0036365
-0.0107042,-0.0119556
-0.0187205,-0.0055912
-0.0156945,0.0027234
0.000423024,-0.0216475
0.00969289,0.00423486
0.00274808,0.0122772
0.00309314,0.00499832
0.00995815,0.013793
0.00957487,0.0201248
0.00510248,0.0148381
0.00592999,0.00608536
0.00496355,-0.00660374
0.0114114,-0.0140891
0.00271846,-0.00907313
-0.00642938,0.00196409
-0.0100016,0.000725337
-0.0126274,0.000969311
-0.015515,0.00748815
-0.0131461,0.0093516
-0.00202065,0.000145381
0.0106902,-0.0113285
0.0154928,-0.00416807
0.0126591,0.000338575
0.00895218,0.00259697
0.00312518,0.0122165
-0.00318873,0.012684
-0.00363625,0.00339412
-0.00344978,-0.00448498
-0.00413371,-0.0154251
0.000174394,-0.0131394
0.00260212,-0.00727325
-0.00222839,0.00637283
