Comp Ch 3,Comp Ch 4
-0.0199286,0.00623323
-0.0156394,0.00248517
-0.0399114,-0.00180913
-0.0779704,-0.0212026
-0.0674499,-0.010097
-0.036591,-0.00743837
-0.0076628,-0.0131341
0.0111014,-0.0316173
0.00385139,0.0112187
-0.0138097,0.0354375
-0.0323439,0.0303194
-0.0345609,0.0196006
-0.0224449,0.0113508
0.00233749,-0.00749926
0.0530497,-0.0202532
0.0963008,-0.0151916
0.106141,-0.0116868
0.070762,0.00101731
0.0162498,0.00711246
-0.0152853,0.00695736
-0.0293187,0.00410057
-0.00671402,-0.0204075
0.0120894,-0.0287998
0.00038489,-0.0231371
-0.0303388,-0.0107759
-0.0668819,0.0182864
-0.0754682,0.0830196
-0.0771524,0.114817
-0.0763674,0.0790621
-0.0216497,0.0196657
0.0268738,-0.0401893
0.0439628,-0.0984291
0.0310912,-0.0914339
0.016614,-0.0353935
0.0142881,0.00512764
0.0141977,0.0168695
0.0125042,0.0114195
0.0113448,-0.00873427
0.00963902,-0.0299077
0.000814088,-0.0314653
-0.00350618,-0.0367495
0.00756987,-0.00195736
0.0187606,0.00224582
0.0184679,0.030425
0.0115883,0.0241012
0.00584352,-0.000493883
0.00474992,-0.0013926
0.00849997,-0.0130913
0.0229569,-0.00932265
0.0176295,0.0204976
0.00319449,0.0213118
-0.00419999,0.0266418
-0.00563806,0.0535176
-0.0111204,0.0106564
-0.0101072,-0.040344
-0.0114709,-0.0262636
-0.023084,0.0160577
-0.0327304,0.0354941
-0.028624,0.0221805
-0.0265863,-0.0138525
-0.0258742,-0.0282883
-0.00117668,-0.0231417
0.0139097,-0.00946178
0.0280228,-0.0157127
0.0447312,-0.00827428
0.0404315,0.00999009
0.0222445,0.0203388
0.00950401,0.0216262
-0.000516576,0.0135907
-0.00512048,0.0150344
-0.0201452,-0.00535208
-0.0564301,-0.0324603
-0.0633974,-0.0296151
-0.0451881,0.0258618
0.00129766,0.0340712
0.0410645,-0.00712006
0.0670202,-0.00655
0.0666143,-0.0181597
0.0535411,-0.0323155
0.0559204,-0.0248342
0.0290489,-0.0239411
-0.0220847,-0.00976839
-0.0494263,0.0284607
-0.0558182,-0.0064158
-0.0720406,0.0526962
-0.0685795,0.0513707
-0.0272131,0.0335681
-0.019838,0.00526313
-0.0110379,-0.0270514
0.0256066,-0.0144642
0.0299593,-0.0281236
-0.0454834,-0.0308604
-0.149547,-0.0193482
-0.0846801,-0.0126136
0.0678957,-0.00468204
0.172085,0.001691
0.18459,0.00203554
0.093795,-0.00712719
0.0281255,-0.000979544
0.00152449,0.0138938
-0.017757,0.0105006
-0.0229755,0.00942992
-0.0148385,0.0138781
-0.00231264,0.0171266
0.00211756,0.0355573
-0.00639118,0.0441413
-0.0244951,0.0416516
-0.0269227,-0.0210182
-0.0206439,-0.0916873
-0.019414,-0.093641
-0.0164895,0.0044917
-0.0178166,0.0520187
-0.0207509,0.0434319
-0.0133414,0.0262658
0.00127822,-0.0103998
0.00986534,-0.0597699
0.00913923,-0.0508283
0.0076534,-0.0181106
0.00464339,0.0107953
0.00311492,0.04315
0.00938632,0.0439904
0.00654283,0.00389683
0.000996301,-0.0294046
-0.006198,-0.0483317
-0.006904,-0.029147
-0.00199944,0.00811273
0.000991494,0.0209494
-0.0055771,0.0192045
-0.0139751,0.0189218
-0.0191128,0.0136044
-0.0100272,0.00290237
0.00221038,-0.00278775
0.00398588,0.01544
0.00351462,0.0182405
0.00371223,0.00857835
0.00690825,0.0112701
0.0173084,0.0121101
0.0204759,-0.00205437
0.0145304,-0.0269766
0.00474737,-0.0327494
-0.00239373,-0.0255245
-0.000692773,-0.00655212
-0.0042877,0.0279628
-0.016034,0.0259774
-0.035978,-0.0153354
-0.050788,-0.00673822
-0.0319347,0.00794868
0.0015687,0.066985
0.0254627,0.0629497
0.036082,-0.0432272
0.0316942,-0.0351772
0.0117584,-0.019124
-0.000775155,-0.00599604
0.00822203,0.0158278
0.0168358,-0.0146541
0.0219956,-0.0661303
0.0282494,0.00902176
0.0256956,0.000348521
0.0162674,-0.0182621
0.0128019,0.00293159
-0.000566287,0.0203551
-0.00914032,0.0170577
-0.00907278,0.00700734
-0.00620478,0.00188528
-0.0262516,0.00825374
-0.127136,0.00989297
-0.204776,0.00951573
-0.180096,0.0042679
-0.0548476,0.00225111
0.0887563,0.0184804
0.15631,0.0144693
0.15541,-0.0151273
0.0836419,-0.0413618
0.00512567,-0.0376924
-0.0465348,-0.0328283
-0.154391,-0.0112537
-0.165617,0.00181416
-0.0324173,0.0148926
0.14572,0.0331308
0.2037,0.0269842
0.163892,0.00119603
0.0884966,-0.0163656
0.0164772,-0.0184518
-0.013297,-0.0194922
0.00714038,0.0342546
0.02685,0.0476139
0.0291371,0.03914
0.0190058,0.0130004
-0.00416679,-0.0216613
-0.0331515,-0.0288799
-0.0414763,-0.0344058
-0.0426604,-0.0261485
-0.0310662,0.00390839
-0.00956195,0.0105317
-0.01288,0.0140246
-0.0252806,0.010558
-0.026836,-0.00198629
-0.0153188,-0.0159609
0.00375932,-0.015942
0.0129625,0.00725603
0.00471718,0.0113103
0.000280315,0.0122058
0.00177236,0.00948466
0.00467267,0.0122694
0.00330401,0.000404665
-0.0253707,-0.0399131
-0.0446639,-0.0329312
-0.0531198,-0.0167958
-0.0904027,-0.0167294
-0.122809,0.00623875
-0.0930605,0.0155933
-0.0477651,0.0103421
0.00308423,0.0158938
0.0772281,-0.0191043
0.100361,-0.0494954
0.0925868,0.0138291
0.0868974,0.0452553
0.0815721,0.0370021
0.0537676,0.0305707
0.0332158,0.0332244
0.036616,0.0201659
0.0370845,-0.0110483
0.0283366,-0.0305133
0.013629,-0.0352596
-0.00369417,-0.0313525
-0.00925599,0.00723677
-0.0079002,0.00440391
-0.0407225,-0.00199268
-0.100389,0.00655851
-0.130734,0.00435766
-0.157635,-0.0179609
-0.181225,-0.0173693
-0.137044,0.00666755
-0.057971,0.0201718
0.0419812,0.0218181
0.121197,0.02707
0.138645,0.0285382
0.175221,0.0116538
0.167075,-0.0171406
0.0844178,-0.0289561
0.0133397,-0.031918
-0.00463813,-0.0289051
0.0111088,-0.000204757
0.0136904,0.0123306
-0.00216314,0.00497195
-0.00715202,-0.00128995
-0.000979106,0.00474627
0.00508438,0.000649995
0.00654046,-0.00711752
0.00106581,0.0145146
-0.0110944,0.0268946
-0.0218666,0.0157073
-0.0261934,0.0121184
-0.022059,0.0154301
-0.0142064,-0.0113132
-0.0198131,-0.0380114
-0.0385359,-0.0395909
-0.033417,-0.0188367
-0.0150877,-0.0207805
-0.00977779,-0.0144669
-0.021907,0.000378779
-0.0595277,-0.00690828
-0.0722799,0.0107048
-0.0304213,0.00527482
0.0473132,-0.00268491
0.0861199,0.0134436
0.0710362,0.0254488
0.0383818,0.0186752
0.00923007,0.0205721
-0.00721321,0.0338601
-0.0135183,0.018393
-0.00762507,-0.00693428
-0.00951071,-0.0342216
-0.0039215,-0.0241792
0.0101684,-0.0148388
0.0139653,-0.0106557
0.0228136,0.00228908
0.0270065,0.00939135
0.0174798,-0.00914798
0.00693894,-0.0171405
0.00681305,-0.0201104
0.00413469,-0.0386745
-0.00595819,0.0119728
-0.0214293,0.0349248
-0.0310056,0.0123194
-0.0390264,0.0285501
-0.0448007,0.0375836
-0.0397664,0.0267711
-0.0177516,-0.00211741
-0.0156491,-0.0266191
-0.0204481,-0.0215699
-0.018731,-0.0202579
-0.00978651,-0.0108255
0.00426155,0.000183713
0.0295532,0.0194956
0.0646157,0.0306553
0.0765035,0.00179686
0.0657122,-0.0237392
0.0225385,-0.0111398
-0.0313154,0.0146473
-0.0779302,0.0117249
-0.113433,0.0172007
-0.0848665,0.0129136
-0.00997822,0.0511404
0.0399752,0.0191037
0.0780449,-0.0507604
0.108428,-0.0424852
0.0973415,-0.0385037
0.0575847,-0.0211038
0.018985,0.0028675
0.00166944,0.00961548
-0.0262654,0.00287962
-0.0749762,0.00828115
-0.0814751,-0.000359728
-0.0805559,-0.0216114
-0.0609382,-0.0183633
-0.0376903,0.00723474
0.0132927,0.0237294
0.0429416,0.0165902
0.0486855,0.021098
0.0533174,0.0227949
0.0363548,0.0191378
0.0195185,-0.00200536
0.00395307,0.00781487
0.00439039,0.00362361
0.0177,-0.0107372
0.0206678,-0.0038475
0.0134409,-0.0132993
0.0135592,-0.0173709
0.017764,-0.0029396
0.0200386,-0.00450266
0.00492359,-0.0124702
-0.0195388,0.00323105
-0.0326433,0.0122992
-0.0425061,0.013854
-0.0444395,0.0244346
-0.0301445,0.0320785
-0.00164702,0.0186895
0.00107422,-0.0184469
-0.0148472,-0.0475699
-0.0268035,-0.0462274
-0.0306109,-0.0391573
-0.0285926,-0.0389069
-0.0298355,-0.0195343
-0.00231862,0.0151417
0.0191501,0.012384
0.0370024,0.0023493
0.0554555,-0.0188181
0.0590449,-0.012291
0.0541076,0.0054877
0.0205849,0.0315195
-0.00768737,0.0444961
-0.0263955,0.0395967
-0.0388111,0.0389266
-0.0385233,0.0125229
-0.0247666,-0.0402798
-0.00899691,-0.0459834
0.00280633,-0.0494021
0.0106424,-0.0317124
0.0119496,0.011179
0.0168928,0.0196257
0.0218322,0.0108366
0.0193891,0.0161946
-0.0133074,0.00240978
-0.0490608,-0.0249297
-0.0423357,-0.00690648
-0.0207613,0.0305081
0.013866,0.0407281
0.0407668,0.0411203
0.034177,0.0408
0.0125248,0.0291674
0.00562781,-0.0106652
-0.00174545,-0.0451603
-0.000571794,-0.0316601
-0.000158927,-0.0289361
-0.00441372,-0.0252313
-0.00820549,-0.0148041
0.0130235,-0.0078316
0.0184972,0.00101091
0.0104804,0.0221369
0.00724431,-0.00730033
0.00392334,-0.0352779
-0.00265387,-0.0012041
-0.00942122,0.0394936
-0.0225236,0.0359103
-0.0283249,0.0351044
-0.0229321,0.0477031
-0.012854,0.0253602
0.00257623,-0.0162718
-0.00225127,-0.035203
0.00233628,-0.0297151
0.0169949,-0.0248755
0.0296502,-0.012515
0.0317692,0.00754471
0.0237675,0.0127963
0.0121818,0.011247
0.0127228,-0.00137859
0.0168795,-0.03484
0.0153531,-0.025686
0.00223723,0.0158296
-0.0146691,0.0293745
-0.0279686,0.0138773
-0.0402695,0.0342989
-0.056685,0.035939
-0.0901588,-0.00241406
-0.141244,-0.0385549
-0.121531,-0.0434076
-0.0169412,-0.0277718
0.0803717,-0.0145832
0.113282,-0.00400624
0.0620653,0.00502262
0.0235849,0.00352646
-0.00382969,0.00700064
-0.0299926,-0.0033729
0.0104965,-0.0230246
0.063574,-0.0118986
0.0813767,0.0162067
0.0736891,0.028299
0.0455995,0.0315656
0.0236354,0.0385874
0.00454623,0.0370607
-0.010354,-0.000566748
0.0111247,-0.0387819
0.0085443,-0.0427041
-0.012822,-0.0440339
-0.00875584,-0.0118826
-0.0101517,0.00519881
-0.0109024,0.0110735
-0.00705903,0.0118879
-0.00731471,0.0132955
-0.012342,-0.00196719
-0.0142477,-0.0159411
-0.0111971,0.00237594
-0.00715394,0.0171108
-0.0105406,0.0172778
-0.0222051,0.0164238
-0.0284206,0.0282249
-0.021775,0.0258419
-0.0118866,-0.0365927
-0.00584784,-0.0512425
0.0100341,-0.0673331
0.0229714,-3.49e-05
0.0273472,0.028414
0.026439,0.0290498
0.0196246,0.0360086
0.00544961,0.00787621
-0.0199011,-0.00958722
-0.0461688,-0.0337352
-0.0635841,-0.0319452
-0.0597344,-0.0034295
-0.0476877,0.00033993
-0.0746229,0.0239603
-0.148182,0.0290831
-0.121313,0.0286976
-0.0215181,0.0196798
0.0867349,-0.0129052
0.162273,-0.0208999
0.169013,-0.0245747
0.122932,-0.026034
0.0873798,-0.00225526
0.0468232,0.0309096
0.00988254,0.0167122
-0.00765439,0.0142689
-0.00182536,0.0121392
0.0115974,-0.0310873
0.00823572,-0.0279704
0.00207347,0.00604826
0.00482414,0.0227605
-0.00107705,0.023424
-0.0135845,0.0267493
-0.0192245,0.0287401
-0.0235877,0.00271208
-0.0352469,-0.0357012
-0.0374401,-0.0271314
-0.0347502,-0.0178806
-0.0259869,-0.0126987
-0.0236079,-0.00164844
-0.0248105,0.00183023
-0.0123702,0.00243203
-0.00424686,-0.00976597
0.00200957,-0.0374158
0.0185986,-0.0295467
0.0181553,-0.0123577
0.0105969,0.0101784
0.00687631,0.0198994
0.0136429,0.0316551
0.0228691,0.0300076
0.0190281,0.0199009
0.0104943,-0.00245517
0.00441903,-0.0195771
-0.00410843,-0.00860775
-0.0165058,-0.0160221
-0.0311118,-0.0214464
-0.0287817,0.0209487
-0.0139172,0.0274012
0.00258213,0.00526822
0.011108,0.0187174
0.0169901,-0.00766515
0.0200258,-0.0252267
0.0130113,-0.00618892
0.00873644,0.00993945
0.00582655,0.011427
0.00131927,0.0177126
-0.0121036,0.0254684
-0.0407785,0.00671805
-0.0496344,-0.0374602
-0.0413744,-0.0254369
-0.0273981,-0.00419232
-0.0019118,-0.00957017
0.0172772,0.0107256
0.045709,0.0158434
0.0414251,0.00406444
0.00625893,0.00885289
-0.00567206,-0.000968346
0.0105567,-0.0301889
0.0115407,-0.0337605
-0.00473387,-0.0119322
-0.000756223,-0.0022139
0.0308962,0.0010584
0.0340092,0.0219975
0.0138524,0.0453103
-0.000267112,0.0132336
-0.00462147,-0.0167875
-0.00818302,-0.0087703
-0.0141177,-0.00354741
-0.0103935,-0.000617626
-0.000160098,0.0115765
-0.00242303,0.0184036
-0.00837081,0.0103457
-0.00675333,0.00530418
0.00163133,-0.016662
0.00343275,-0.0408482
0.00395768,-0.0239009
0.00515765,0.004012
0.00775772,0.00191592
0.00492903,0.0100304
0.000405713,0.0249102
-0.00189508,0.0221578
-0.00394388,-0.00102348
-0.00312311,-0.0169331
-0.00330127,-0.00582781
-0.0036988,-3.54e-05
-0.00721441,0.0117485
-0.0111016,0.0213589
-0.0117833,0.0176618
-0.0168529,0.000818112
-0.0122532,-0.00450472
0.010716,-0.0192846
0.00272302,-0.0405567
0.00117148,-0.0247792
0.0100282,-0.005051
-0.0022033,0.00424878
-0.0436212,0.00354039
-0.0627657,0.0177485
-0.0444448,0.0233399
0.000646668,-0.00242267
0.061576,-0.0116925
0.083356,0.0023038
0.0721153,0.00448305
0.0356162,0.020423
-0.00210876,0.0146342
-0.0189726,-0.00410311
-0.00605843,0.00930337
0.00704996,0.00841298
0.0110696,-0.0229298
0.0130995,-0.0206273
-0.00103886,-0.0108048
-0.0110929,-0.0119994
-0.00686916,-0.00254028
-0.000359843,0.0195334
0.00230987,0.0154291
0.00529797,-0.00854532
-0.00179402,-0.0150117
-0.0149953,0.00480718
-0.0227699,0.00336443
-0.00648874,0.00831397
0.00575572,0.0137529
-0.00345114,0.024872
-0.00935575,0.00913401
-0.00799214,-0.0101293
-0.0107882,-0.0290567
-0.0143503,-0.0361262
-0.01542,-0.0253101
-0.00785063,-0.00643759
0.00659613,0.000986843
0.0147686,0.00686611
0.009548,0.0209578
-0.0366581,0.025442
-0.101869,0.00620275
-0.0996937,-0.0170829
-0.100489,-0.00621549
-0.128399,0.00422827
-0.0500306,0.0102807
0.0592811,0.0218837
0.139371,0.0172896
0.175853,0.00642011
0.156445,0.00429298
0.0994466,-0.0436725
0.0625964,-0.0437139
0.0271248,-0.017627
0.00169374,0.00132307
-0.00769076,-0.00175167
-0.00470923,0.0224943
-0.00445764,0.0369313
-0.00443287,0.0105527
0.00924042,-0.0126257
0.00465014,-0.0136435
-0.00546679,-0.00447094
-0.00781251,0.012982
-0.0154767,0.0198486
-0.0278221,0.0194535
-0.0347453,0.0165668
-0.0327313,0.0144084
-0.0311045,-0.00204434
-0.0275633,-0.0340868
-0.0242764,-0.0357666
-0.0221863,-0.0133724
-0.019779,-0.00318448
-0.0121306,-0.00162406
-0.0037391,0.0100946
0.00787607,0.0201192
0.0197901,0.0104528
0.00976999,-0.0125339
0.00761189,-0.00791807
0.0105993,0.00207895
0.00636269,0.02541
0.0058842,0.023415
0.000671805,0.00339865
-0.0134845,-0.00480036
-0.0192547,-0.000847947
-0.0246839,-0.0185051
-0.0128544,-0.0442026
0.00657284,-0.0447365
0.0110191,-0.0218233
0.0191845,0.0209182
0.0220027,0.0210956
0.0259137,0.0189676
0.0186439,0.0255357
-0.00523359,0.00879413
-0.00727117,-0.0205635
-0.0103395,0.00186628
-0.00476649,0.00903924
-0.0036507,0.0143265
0.00881345,0.021389
-0.00181684,0.0212103
-0.0137234,0.00969737
-0.018638,-0.00191589
-0.0186953,-0.0247311
-0.00418337,-0.0341953
0.00217093,-0.0170706
0.00150738,-0.00082721
0.00287244,-0.0129825
0.0020008,0.00099183
0.00169097,0.0210106
0.0108443,0.00692292
0.0262281,-0.00480984
0.0261161,-0.0122638
0.00954771,-0.0114318
-0.0017345,-0.00593171
-0.00564281,0.0142627
-0.00854382,0.0294637
-0.0140375,0.0202878
-0.0141341,0.00763044
-0.00981026,-0.00847395
-0.00691392,-0.0374609
-0.00280729,-0.0403476
-0.000138742,-0.00753694
0.00249638,0.00300542
0.0108417,0.00447612
0.0125241,0.0133421
0.00969804,0.0215251
0.00924546,0.011045
0.00917728,-0.00829639
0.0058039,-0.00677259
0.0031585,-0.00212363
-0.000869119,0.00791232
-0.00592736,0.0192355
-0.0106696,0.0248403
-0.0134711,0.0184317
-0.0142186,0.0154069
-0.00925163,-0.012776
0.00284542,-0.0396431
0.00464283,-0.0314611
0.0020113,-0.0130382
0.00469711,-0.00718888
0.0111479,0.00740199
0.0104452,0.0181609
0.00618249,0.0190709
-0.000935803,-0.00324765
-0.000182397,-0.0234549
-0.0021357,-0.010093
-0.0065458,-0.00289814
-0.00450155,0.00776442
-0.00501101,0.0242185
-0.00879972,0.0215438
-0.00831928,0.000397241
0.00140997,0.00767708
0.00577559,-0.00766801
-0.00347605,-0.0299747
0.0017964,-0.0160001
0.00339209,0.000698245
-0.0154954,9.16e-05
-0.0385767,-0.000795502
-0.027982,0.0185084
-0.00748774,0.0214687
0.0160633,-0.00220055
0.0383688,-0.0113432
0.0492089,-0.00279821
0.0451843,0.00383783
0.0178502,0.0141214
-0.00562627,0.0196636
-0.0187968,0.00372114
-0.0291662,-0.011569
-0.0325285,-0.0136531
-0.0180959,-0.0472757
0.00163343,-0.0166262
0.0265472,0.0206395
0.0314994,0.0138969
0.0204084,0.00688284
0.00942537,0.00840248
-0.00875193,0.0161152
-0.0195413,0.0132369
-0.0213495,-0.00875766
-0.0134498,-0.00995141
-0.00315478,0.00093886
0.00924276,0.00718067
0.00908609,0.0164816
-0.00339585,0.0189631
-0.0170172,0.0119063
-0.0103841,0.00611067
-0.00586775,-0.0284219
0.000587744,-0.0409351
0.00577207,-0.0276956
0.0167248,-0.0124008
0.0274717,-0.00171869
0.0250983,0.00322223
0.0165513,0.0166
0.00187203,0.0112015
-0.0124257,-0.000487513
-0.0136241,-0.000447672
-0.017327,-0.00435121
-0.0271663,-0.0146204
-0.0270495,-0.00157213
-0.0219293,0.0225151
-0.0531562,0.024946
-0.0797869,0.0106508
-0.0419126,0.00459197
0.0190238,-0.0364663
0.0638782,-0.037676
0.0828413,-0.0125933
0.0816123,-0.00620259
0.0583309,-0.00222945
0.0221912,0.00166611
0.00145192,0.0189033
-0.00192146,0.0240624
-0.00448909,-0.00457136
-0.00911355,-0.0149434
-0.00785567,0.00419901
-0.017791,0.00519771
-0.0334732,0.021922
-0.0281818,0.0322288
-0.0135893,0.0255467
-0.000745133,0.01243
0.00619205,0.000325572
0.0100437,-0.0255347
0.00455126,-0.0366177
-0.00203373,-0.0264314
0.00812734,-0.0146985
0.0120134,-0.0138139
0.00324985,0.00173692
0.00217072,0.0158882
0.00193588,0.0135811
-0.000232114,-0.00615421
0.00259331,-0.0083821
0.00614181,0.0146317
0.000795972,0.0130943
-0.010954,0.00812429
-0.011427,0.0349896
-0.00236253,0.0245229
0.00394526,0.0107456
0.00607816,-0.00565578
0.00459879,-0.0286693
0.00373319,-0.0336368
-0.00238931,-0.0208091
-0.00431207,-0.0116207
-0.00551683,-0.0102176
-0.00150671,0.00652257
0.00921216,0.0147883
0.0108385,-0.000329984
0.01515,-0.00394098
0.00815463,0.00631871
-0.0423379,0.00313904
-0.128554,0.00887459
-0.153016,0.0257378
-0.117768,0.0278996
-0.0398252,0.023785
0.0541096,0.00524887
0.138066,-0.0208129
0.156711,-0.0391697
0.0934851,-0.0339237
0.0292348,-0.00441982
0.00676261,-0.00445633
0.00924422,-0.00668516
0.0111992,0.0120534
-7.37e-05,0.0106924
-0.00318909,-0.00904005
0.00622249,-0.0165671
0.0107443,-0.000273492
-0.00019709,0.0149712
0.00117113,0.0218902
0.00292987,0.0196732
-0.00346507,0.0185409
-0.0146719,0.00847188
-0.0237697,-0.000613073
-0.0152893,-0.0142926
-0.0052672,-0.0335274
-0.0129374,-0.026058
-0.0201839,-0.0126711
-0.0187558,-0.00778033
-0.0151094,0.00255575
-0.0112951,0.0102272
-0.00646365,0.00655598
-0.00308325,-0.00382351
0.0032352,0.000885949
0.018938,0.00652987
0.0263455,0.00834554
0.018529,0.0223785
0.016438,0.023326
0.0100122,0.0064404
-0.00543003,-0.00522424
-0.019058,-0.014115
-0.015487,-0.0292766
-0.00188958,-0.0409051
0.000722092,-0.00676844
-0.00693536,0.0011319
-0.0110158,-0.00437162
-0.00593089,0.00656475
0.00261922,0.0245924
0.0101457,0.0115725
0.0101913,-0.00608789
-1.38e-05,-0.00178825
-0.00859379,0.00932449
-0.0112468,0.0189188
-0.00874149,0.0234602
0.00411755,0.022915
0.00778011,0.011049
0.0100252,0.00281601
-0.0036071,-0.0147881
-0.0046685,-0.0326166
0.005274,-0.0277722
0.0118445,-0.0105989
0.00702098,-0.00585988
0.00325921,0.000591329
-0.00104445,0.0135371
-0.000797475,0.0174684
0.00273728,-0.000375848
-0.00401732,-0.0127713
-0.000721296,0.0055944
0.0121817,0.0113898
0.0129753,0.0117129
0.00401618,0.0241257
-0.00102502,0.0184985
-0.00582716,0.00373948
-0.0104243,-0.00518793
-0.014835,-0.0241048
-0.0240638,-0.0336723
-0.0151211,-0.0319082
0.000680585,-0.0167447
0.00760986,0.00387976
-0.00173995,0.00514819
-0.0033221,0.0131199
-0.00474024,0.0124962
-0.0315757,-0.00716578
-0.0205261,-0.0169619
0.00797305,0.00594111
0.0267314,0.0125744
0.0186807,0.00518306
0.00801463,0.0179982
0.0158515,0.0188201
0.0143376,0.0138444
0.0103918,0.0188373
0.0140082,-0.0151414
0.00391046,-0.0386142
-0.0034178,-0.0173754
0.00445348,-0.00574772
0.00669143,-0.0033949
0.00118984,0.00964463
-0.00554805,-0.000174485
0.00462841,0.00167488
0.0114966,0.00420037
0.0135947,0.000706239
0.0104156,0.0014305
0.001648,0.00265448
-0.00889777,0.0125176
-0.019872,0.0233449
-0.0194852,0.0159943
-0.00935753,0.00139169
-0.00767545,-0.0184523
-0.0160436,-0.0308683
-0.0103335,-0.0268215
0.01146,-0.00744998
0.00999468,-0.000958083
-0.0100997,0.0020122
0.000178235,0.0106036
0.0247762,0.019823
0.0267864,0.00832951
-0.0121692,-0.00429057
-0.0555462,-0.00040785
-0.0602651,-0.00179968
-0.0485076,0.00389276
-0.0161156,0.0128706
0.0117872,0.00957759
0.0318303,0.00137947
0.0218788,-0.0105938
0.0197089,-0.0158811
0.0264976,-0.0181656
0.00424633,-0.0149659
-0.0365418,-0.0108285
-0.0130444,-0.0131675
0.0337674,-0.00297401
-0.0327818,0.0113
-0.0718404,0.0122175
-0.00058765,0.0131604
0.0499239,0.00230342
0.0526234,0.00924672
0.0608553,0.0114302
0.0608911,0.0150998
0.0374729,0.0182402
0.0185995,0.0110961
0.000369533,0.0045784
-0.0033115,-0.00142457
0.000510087,-0.0187377
0.00215814,-0.0256581
0.0150075,-0.0121103
-0.0100214,-0.00576102
-0.0303915,-0.00335604
-0.0362211,0.00789935
-0.0599511,0.0153824
-0.0805442,0.00656326
-0.0681603,-0.0107011
-0.0454619,-0.00624202
0.00595863,-0.00136334
0.0667582,0.00354407
0.0925549,0.0129372
0.082225,0.0140262
0.0452134,0.00598205
-0.000587706,0.00405309
-0.0253458,-0.00418077
-0.0255019,-0.0251795
-0.0152344,-0.0327081
-0.0172164,-0.0142029
-0.00929508,-0.00679886
0.0118955,-0.000835065
0.0168796,0.015387
0.00181886,0.0307152
0.000815198,0.0109354
0.00475618,-0.0126024
-0.00473982,-0.000782356
-0.0104957,0.0023588
-0.00710231,0.00224459
0.00284665,0.0088727
0.00166416,0.0124589
-0.00987416,0.00743607
-0.0109625,0.00422487
-0.0105195,-0.00898277
-0.0187078,-0.0305594
-0.0142814,-0.0082107
-0.00338042,0.0104325
0.00236448,0.00956557
0.00352087,-0.00072688
-0.00494556,-0.0124315
-0.00266317,-0.0368086
-0.0172807,-0.0329886
-0.013228,-0.021071
0.0199848,-0.0122613
0.0318544,0.0272057
0.0036776,0.0317523
-0.0209064,0.0317068
-0.0204824,0.0318904
-0.00291981,0.0335685
0.00533836,0.0120857
0.00050362,-0.00824815
-0.00644984,0.00467278
0.00359626,0.00655162
0.0109641,-0.00307997
0.00536723,-0.00476103
0.0108036,-0.0133377
0.0217161,-0.0271753
0.0236115,-0.0393619
0.0271147,-0.0230861
0.0196229,-0.0106666
0.00670388,-0.00166312
-0.000688033,0.0152556
-0.00832923,0.024215
-0.0207224,0.0290307
-0.0298773,0.0326886
-0.0332761,0.0181034
-0.0276875,-0.00600986
0.00426776,-0.00394288
0.026318,0.00973041
-0.00872919,-0.0008137
-0.0483073,-0.00891475
-0.046841,-0.00187595
-0.0099567,-0.00847597
0.0342745,-0.0189762
0.0740893,-0.0194579
0.0863157,-0.00859386
0.0787433,-0.0126125
0.0525632,0.000241547
0.0171989,0.013935
-0.0261922,0.00925089
-0.134547,-0.00595183
-0.186514,0.00293937
-0.144281,0.01033
-0.055754,0.0149732
0.0456441,0.00854968
0.113933,0.00188214
0.13092,-0.00117872
0.109314,-0.00238652
0.0631427,-0.00344466
0.0170747,-0.00939666
-0.00671705,-0.0203387
-0.00221452,-0.0296856
-0.0281962,-0.0184453
-0.0866121,-0.00239757
-0.129339,0.0150637
-0.114485,0.023995
-0.0206936,0.0201194
0.0822235,0.0200962
0.13532,0.0128739
0.114736,-0.0145802
0.0661545,-0.0174498
-0.00402736,-0.00920198
-0.0203936,0.00947187
-0.0275743,-0.00120208
-0.0367147,0.00310556
-0.0337425,-0.00153776
-0.00800899,-0.0203822
0.0147353,-0.0241412
0.0176857,-0.0327962
0.0236473,-0.00470312
0.0126034,0.00844389
0.00750146,0.0167225
-0.0033121,0.0248236
-0.0361292,0.00372101
-0.0414107,0.0121189
-0.0189034,0.034702
0.003329,0.0161696
0.00613971,-0.0157581
-0.00436124,-0.0106348
-0.0163226,-0.00359208
-0.0138296,-0.00139232
-0.0047902,0.00100609
0.00862758,0.00929673
0.0124342,-0.00611054
0.0103266,-0.0254015
0.0204026,-0.0100671
0.00286824,-0.0018377
-0.0248492,-0.0096686
-0.00399502,0.00315051
0.000189494,0.0210943
-0.0428677,0.0174522
-0.10144,0.00703863
-0.103935,-0.00744925
-0.0420829,-0.0132979
0.0440287,-0.00696134
0.102614,0.00975922
0.0922813,0.00277477
0.0649092,0.00914468
0.0287692,0.0178286
0.00635375,-0.00412732
0.00320668,-0.0168085
0.00873301,-0.0221033
0.0207014,-0.0160978
0.0314394,-0.00245402
0.0242893,0.00025263
0.0128453,0.0143536
0.004033,0.0289144
-0.00575725,0.0194558
-0.00941425,0.00691101
-0.00993226,-0.00880405
-0.0265215,-0.0156464
-0.0668065,-0.000955436
-0.0669959,0.00787655
-0.0588069,0.00234818
-0.0571351,-0.000183775
-0.00415483,0.00270175
0.0308752,-0.00604724
0.0306159,-0.016138
-0.0286611,-0.0120591
-0.0303215,-0.0271018
0.00041976,-0.0315266
0.0303304,-0.0153934
0.0596859,0.0180408
0.0910351,0.061504
0.0818145,0.0410351
0.027293,0.00843748
-0.0102137,-0.0161231
-0.0423071,-0.0208602
-0.0579901,-0.00601313
-0.0435729,0.00520488
0.0220002,0.00723093
0.0460555,0.00932286
0.0186175,0.00625402
0.00490381,0.00521528
-0.00286866,-0.0284151
-0.0283689,-0.0325692
-0.0643214,-0.0266334
-0.0711149,-0.00828413
-0.0507518,0.000585375
-0.00448715,0.0190556
0.029818,0.0311676
0.0611916,0.0217806
0.0452703,0.00425305
0.0180443,-0.0142159
0.0178166,-0.00885101
0.0371314,0.00770429
0.0228105,0.0095059
0.00494642,0.00389448
0.0124852,0.0509925
7.69e-05,0.0849213
-0.0239024,0.00149225
-0.064679,-0.0647324
-0.128908,-0.0783936
-0.147257,-0.0495641
-0.0828126,-0.00474586
0.0349462,-0.00244815
0.141953,0.0210236
0.172355,0.0259173
0.0962784,0.0230866
0.0272979,-0.000527056
0.0051779,-0.0297403
-0.0179329,-0.00873115
-0.06222,0.00579842
-0.051672,0.00388787
-0.0268174,-0.00161502
-0.0285508,0.00386584
-0.00231874,0.0109874
0.0637055,0.00804902
0.115806,-0.0174853
0.116886,-0.0186867
0.067507,-0.0078351
-0.0156716,0.0111827
-0.0476397,0.0262401
-0.0608825,0.0229451
-0.0955845,0.0142191
-0.152102,-0.00279881
-0.139526,-0.0347145
-0.0661591,-0.0336541
0.0343109,0.00711431
0.0920152,-0.00323093
0.0973175,-0.0174644
0.0847751,0.0108327
0.0518862,-0.00487139
-0.00812711,0.00146787
-0.0304281,0.012158
0.00358291,-0.00857113
-0.00720141,-0.00149384
-0.0698103,-0.00416546
-0.0664546,0.00290407
-0.0167429,0.0171746
0.00998506,0.0126035
0.0829036,0.00727131
0.143693,-0.00104036
0.12091,-0.0197114
0.00570566,-0.00900863
-0.0741531,0.0126479
-0.263033,-0.013994
-0.418041,0.0283036
-0.278253,0.0248761
0.0225195,0.0264293
0.251958,0.0195478
0.307874,-0.0139351
0.252144,-0.0178526
0.211101,-0.00684695
0.143274,0.00803842
0.0248516,-0.00400327
-0.0525654,-0.00247455
-0.0728206,0.0366373
-0.0699978,0.0192127
-0.076483,-0.00697475
-0.0817158,-0.0469997
-0.108177,-0.0322165
-0.178683,-0.0227157
-0.121082,-0.0216823
-0.0974876,-0.00403489
-0.0952893,0.029763
-0.00728203,0.0101625
0.109397,-0.00221147
0.210124,0.0222637
0.208059,-0.00261175
0.107132,-0.0250102
0.00173025,-0.0314672
-0.0251881,-0.0409864
-0.040493,0.0209852
-0.0734357,0.0450777
-0.00656747,0.0113363
0.00174339,-0.027499
0.0273658,-0.0418635
0.0995378,-0.00154435
0.112529,0.0593781
0.100486,0.0485502
0.0609224,-0.011678
-0.0087022,-0.000782755
-0.0612147,-0.0246349
-0.0825756,-0.0205691
-0.0937052,0.00170872
-0.076812,0.0144947
-0.0597801,-0.0183587
-0.00430156,-0.0318492
0.0571454,0.0421933
0.0536967,0.0554487
0.0515504,-0.000785615
0.0423806,0.0061646
0.0221201,0.00531408
0.00317473,-0.00152852
-0.0641387,-0.0115743
-0.0678403,-0.0112508
0.000951224,-0.0164608
0.0637693,0.0165659
0.0544286,0.0307335
0.0246378,0.00592104
-0.0100256,-0.0209158
0.0264183,0.0106341
0.0459572,0.00142756
-0.0144669,-0.0331043
-0.194286,-0.0531437
-0.350021,-0.0557745
-0.206343,-0.00105173
-0.16814,0.0276712
-0.068795,0.0418934
0.176903,-0.0081623
0.200154,-0.0201269
0.029093,-0.00654622
-0.160642,0.0401354
-0.136992,0.0288262
-0.201938,-0.00667369
-0.184933,0.0421415
0.102653,0.0261532
0.404802,-0.00766119
0.5062,0.0033812
0.42664,-0.0204002
0.213501,-0.0211855
0.0329855,0.0127219
-0.122876,0.00139511
-0.109785,0.00162027
-0.0538128,0.00568917
-0.0606615,-0.0208323
-0.042053,-0.0349316
0.0221483,-0.0678405
0.0107016,-0.0428624
-0.0374777,0.0356072
-0.0454986,0.025956
-0.020285,0.015764
-0.0348035,0.00601447
-0.0805519,-0.01804
-0.12191,-0.0212148
-0.160708,0.0132019
-0.092676,0.0163427
0.0285232,0.0268692
0.071133,0.0309586
0.0670232,0.0194588
0.0616912,-0.00183027
0.0735444,-0.00177478
0.0690749,-0.00224265
-0.00941696,0.00142912
-0.117829,0.00215122
-0.0696172,-0.00971747
0.0385315,-0.00340868
0.0627103,0.00525923
-0.0267315,0.0122998
-0.0742316,0.00575679
-0.0530228,-0.0077848
-0.0375286,-0.00305084
0.0387849,0.0029953
0.100842,0.00411947
0.0873191,0.0187846
0.0628863,0.0222392
0.0352543,-0.0112484
-0.0858907,-0.0458992
-0.286226,-0.0516086
-0.325928,-0.0445412
-0.202821,0.0117735
-0.0164474,0.0159865
0.14652,-0.00372271
0.221575,0.00501049
0.287072,0.010494
0.259657,0.0170392
0.146386,0.0207784
0.0509093,-0.00491248
-0.0155707,0.00160669
-0.0305692,0.0100111
-0.0197671,0.0114035
-0.0190979,-0.0128246
-0.0160409,0.0107647
-0.0153183,0.0196048
-0.0520121,0.000837073
-0.148427,-0.0369426
-0.112601,-0.0204653
-0.0118509,0.00217634
0.0758938,-0.00329862
0.10827,-0.00919281
0.086108,0.00305341
0.024663,0.017255
-0.0477494,0.010714
-0.0772261,-0.0112758
-0.0826776,-0.0206179
-0.0613534,0.00564612
-0.0273183,0.0159201
-0.0054058,0.0170215
0.00531778,0.0305715
0.00889458,0.0155913
0.0358529,-0.0244804
0.0696354,-0.00933527
0.0893839,0.00242486
0.0964976,0.00722275
0.0712864,0.0169146
0.0145588,-0.0319721
0.00137097,-0.010641
-0.0275342,0.000233436
-0.10295,-0.017013
-0.131229,-0.0173816
-0.101316,-0.0201773
-0.0652865,-0.0253504
0.00491682,-0.000666355
0.0381367,0.0309464
0.0317382,0.0200703
0.00602444,0.00335961
-0.0197181,0.003313
0.0134223,0.02143
-0.00427336,0.00401106
-0.0903959,-0.0226361
-0.131878,-0.0257966
-0.0399481,-0.0250596
0.102982,0.0139741
0.149852,0.0298871
0.114719,0.0195821
0.0357202,0.0154383
-0.0652433,0.00790131
-0.152351,-0.00284983
-0.155025,0.00434596
-0.0222055,0.011443
0.0466842,0.00423399
0.0772287,-0.00650475
0.0709251,0.000204124
-0.030909,0.0312531
-0.0876464,-0.00604118
0.0239171,-0.0207375
0.160031,-0.0313699
0.208762,-0.0349951
0.159259,-0.0201283
0.0692227,-0.00134777
-0.0485696,-0.00944716
-0.119027,0.000387496
-0.110088,0.00605668
-0.102237,0.00375007
-0.0333301,0.0135784
0.0476888,0.0126024
0.0302727,0.0164194
-0.0792867,0.0260848
-0.134514,0.0288339
-0.0589327,0.0217622
0.0746725,0.00423095
0.163055,-0.0152094
0.166768,-0.0235112
0.0882564,-0.0290467
0.0251447,-0.02151
0.010562,-0.0175609
-0.0574551,-0.028959
-0.0951152,-0.00633734
-0.0582456,0.0310242
-0.0234686,0.0196268
-0.0226499,0.00921719
-0.053182,0.019729
-0.0589105,0.0227618
-0.00259628,0.0308197
0.0392151,0.0209523
0.0392672,0.0146317
0.015323,0.0184536
-0.0170232,-0.000880663
0.00123698,-0.0308404
0.0412163,-0.0265477
0.0233657,-0.0206555
0.00436438,-0.0339513
0.00624617,-0.0404417
-0.0141052,-0.0191397
-0.0280587,-0.00785878
-0.0346713,0.0128201
-0.0512803,0.0199389
-0.0892383,-0.0104539
-0.0567573,-0.00618714
-0.0216648,0.0280908
0.0347342,0.0337766
0.0851914,0.0289246
0.0734824,0.029647
0.0366226,0.0158824
0.0428379,-0.0124327
0.0220149,-0.021619
-0.0145534,-0.028706
-0.031883,-0.0185704
-0.0371034,-0.0111915
-0.0229764,-0.015404
0.0157905,-0.0172099
0.0298872,-0.00534122
0.0327252,0.00419713
-0.0100226,-0.00302295
-0.0112363,0.00241645
-0.00179729,0.0018551
0.00992213,0.019709
0.0184148,0.0274567
0.029374,0.0216698
0.0475558,-0.0153019
0.0336,-0.032342
-0.0437151,-0.00626627
-0.104862,-0.00463285
-0.0812585,-0.0139075
-0.0328539,-0.0163811
-0.0115982,-0.0188804
-0.0160238,-0.00311954
0.0167853,0.016269
-0.00682156,0.0336147
-0.0964583,0.0298169
-0.0578236,-0.00251652
-0.0354969,0.00708446
-0.00557342,0.0108599
0.0447873,-0.00263959
0.0729353,-0.000843726
0.0339158,0.00644598
-0.0231591,0.00378073
-0.0667275,-0.0142303
-0.0565603,-0.0243929
-0.0625694,-0.0420753
0.035788,-0.0220432
0.20481,0.0233751
0.224472,-0.00832827
0.149075,-0.0319207
0.0832739,-0.00450664
0.0363349,0.014176
-0.00233345,0.0268071
-0.0538654,0.0178813
-0.108954,0.0168695
-0.134582,0.0169114
-0.223929,0.0359748
-0.135285,0.0535916
0.0730531,0.0304216
0.180719,0.0110876
0.198435,0.00694221
0.155103,-0.00972197
0.0822761,-0.0272383
-0.00475626,-0.019858
-0.075549,-0.00371437
-0.0795518,-0.00181051
-0.0685321,0.0047792
-0.0604739,-0.00130579
-0.0373306,-0.0179195
-0.0296795,-0.0536643
0.0168934,-0.00851362
0.055276,0.026637
0.0604572,-0.000158252
0.0641553,-0.00049149
0.0247491,0.00437716
-0.080424,-0.00202196
-0.101264,-0.0175655
-0.0459714,0.0239588
-0.0172898,0.00132325
0.00943343,-0.0403424
0.00950129,-0.0296237
-0.0364769,-0.00976175
-0.0660226,-0.00648152
-0.0529675,-0.0352352
-0.0159838,-0.0117382
0.00297997,0.0359346
-0.00127968,0.00288742
0.0173149,-0.00159825
0.0205218,0.0202477
0.0022567,0.0273184
0.0144708,0.0152619
0.0270817,0.0120231
0.00899667,0.00543917
-0.0116519,-0.00569728
-0.024111,-0.0128441
-0.000547265,-0.010605
0.039778,-0.00988349
0.0341064,-0.00952842
-0.0169448,-0.00125557
-0.0328913,-0.00531883
-0.0196534,-0.00581361
-0.014374,0.0130495
-0.0108399,0.0164699
-0.0094687,-0.00563005
-0.0201057,0.00440698
-0.0293106,0.00493245
-0.0179224,-0.00282758
-0.0136924,0.0126856
-0.0257632,0.0316817
0.0111311,0.00606658
0.0593199,-0.0159551
0.0772216,-0.0344509
0.0553137,-0.0658378
0.0336174,0.023633
0.0265487,0.030326
0.0161441,0.0208971
0.0388164,0.0358819
0.0471321,0.0324147
-0.0187995,0.00365014
-0.0616424,-0.0135301
-0.149623,-0.0266493
-0.15027,-0.0105603
-0.0271533,0.0111331
0.0799711,0.0148075
0.126812,0.0143791
0.1138,0.00120691
0.0536239,-0.00295775
-0.0132941,-2.03e-06
-0.0992101,-0.0136134
-0.0953824,-0.0196756
-0.0480193,0.00234945
-0.0306136,0.00466798
-0.0663523,-0.00609414
-0.0907427,-0.00531041
-0.0407724,0.0141668
0.0711769,0.0236849
0.196779,0.00300696
0.205296,-0.00386113
0.127339,-0.010975
0.073032,-0.0126175
0.0219933,-0.0139905
-0.020596,-0.0190121
0.00133819,-0.000960518
0.0246973,0.00810036
-0.0166374,-0.0105681
-0.0552981,-0.0174198
-0.0550703,0.00489875
-0.022498,0.0253732
-0.0197223,0.02629
-0.0149079,0.0171822
0.00321759,-0.00346661
-0.0134817,-0.0167547
-0.0401811,-0.0177494
-0.0401615,-0.0211391
-0.0373662,-0.0148288
-0.0302918,-0.0124477
-0.0370577,-0.0101202
-0.0435053,-0.00207657
-0.0363381,-0.00167474
-0.0173458,-0.00114995
0.00423804,-0.00649307
0.0485639,-0.00176974
0.0510701,0.00805466
0.00526357,0.006259
-0.0211358,0.0231413
-0.00603893,0.0231614
0.0124614,0.020045
0.0392609,0.0256798
0.0295143,0.0114798
-0.00523848,-0.00776439
-0.0216114,-0.00907636
-0.0122651,-0.0151403
0.0106278,-0.0196111
0.0329761,-0.0154906
0.0351335,-0.00163845
0.0185555,0.00375673
-0.0102151,-0.00291889
-0.0349013,0.00340584
-0.0289661,0.0031003
-0.00254532,0.0143581
-0.0108004,0.0192328
-0.0243944,-0.00305888
-0.0341069,-0.0212222
-0.0444968,-0.0139708
-0.0423708,0.0366023
0.00722081,0.0264616
0.0637445,-0.017501
0.0611608,-0.0220537
0.0306898,-0.0340776
0.0178473,-0.0321553
0.000516835,-0.0178075
-0.00632894,-0.0114347
0.00283665,-0.00108522
0.028627,0.0106016
0.0479693,0.00642923
0.0348955,0.00407403
0.000320396,0.0128442
-0.0528518,0.00833228
-0.0973279,0.0104293
-0.0899337,0.0253023
-0.0785107,0.0260824
-0.0563204,0.026303
0.0352917,0.00756941
0.118702,-0.011645
0.102233,0.00511929
0.0717322,-0.013379
0.0646775,-0.00532174
0.017508,0.00828775
-0.0489015,-0.0195411
-0.0388019,-0.0169208
0.00452826,0.00725608
0.0139202,-0.00893006
-0.0856245,-0.0244915
-0.181049,-0.0297415
-0.170694,-0.00268295
-0.0296734,0.039762
0.0935561,0.0320419
0.0851811,0.024167
-0.0671208,0.0143419
-0.140859,-0.0142831
-0.0440756,-0.0367484
0.0999068,-0.042183
0.17581,-0.00402192
0.153609,0.00271238
0.130038,-0.01487
0.103956,-0.00299824
0.0110114,0.022515
-0.0585122,0.0381566
-0.0426677,0.0158767
-0.00188157,0.00604881
0.0310376,0.0135268
0.0284452,0.0116699
0.0328632,-0.00749701
0.0163113,0.000380448
-0.0122829,0.0120956
-0.0174031,-0.00474009
-0.0147988,-0.0159901
-0.0319075,-0.009825
-0.0445453,-0.0124417
-0.0513799,-0.00700326
-0.0521771,0.00611238
-0.0523316,0.00826113
-0.0643523,-0.0068885
-0.0485142,-0.00505088
0.00100889,-0.00518741
0.0218783,-0.0170602
0.0287547,-0.016709
0.0345469,-0.00558337
0.019846,0.0117152
0.0352191,0.0208405
0.064954,0.0164606
0.0328538,0.016267
-0.00560205,0.0056181
-0.00346824,-0.00700985
-0.00141766,-0.00885911
-0.0340489,-0.00802556
-0.0687712,0.00137531
-0.05845,0.00682577
0.000548313,0.000255961
0.0373725,-0.0015736
0.0262812,0.00827516
0.0183259,0.00843952
0.0305617,-0.00993394
0.0218531,-0.00614509
0.0100986,0.0120748
0.00470618,0.00398277
0.0129721,0.0019629
0.00652559,-0.00547521
-0.0205387,-0.00288831
-0.028819,0.00037727
-0.0419843,-0.00128063
-0.0444308,-0.0082008
-0.0201275,-0.0246424
-0.00115603,0.00299398
-0.00536088,0.0100648
-0.00786476,-0.00134284
-0.013777,0.00651882
0.00150663,0.00963517
0.0391368,-0.0200552
0.0322891,-0.038733
0.00377057,-0.0313047
0.0023153,-0.00244353
0.0187522,0.00139656
0.020074,0.0177804
0.0157326,0.0229408
-0.01458,0.0123651
-0.0362874,-0.00479803
-0.035367,-0.00910309
-0.0248188,0.000661037
-0.00109334,0.00444875
0.0289993,0.00389854
0.0487956,0.00761199
0.0434984,0.00875362
0.0187052,0.000789074
-0.0190901,-0.0144114
-0.0253369,-0.0343503
-0.0044395,-0.0341432
-0.000272322,-0.0310448
-0.0601053,0.0327409
-0.0741454,0.0605644
0.00948629,0.0525654
0.065051,0.0363795
0.0685099,0.0345551
0.0303761,0.0112017
-0.0517399,-0.0167616
-0.12549,-0.0138048
-0.11083,-0.00733781
-0.0058406,-0.00563859
0.106503,-0.00326083
0.118285,-0.00675613
0.0678435,-0.0093327
0.0163756,-0.00433733
-0.00486006,-0.0177638
-0.00537617,-0.0253767
0.000863692,-0.0205492
0.0214152,-0.00867222
0.0358214,0.00081612
0.0200898,-0.00396691
-0.049168,0.00742321
-0.0846147,0.0124878
-0.0697995,-0.0159756
0.00365791,-0.014614
0.0528267,-0.00356484
0.0407645,0.0106194
0.012496,0.0212034
0.0281484,0.0264964
0.0275898,0.0184985
-0.0145867,0.00561917
-0.0411699,-0.00145188
-0.0333324,-0.00698324
-0.0486837,-0.0084343
-0.0568646,-0.0042968
-0.0533792,7.87e-05
0.000562605,0.0037026
0.0716467,-0.00247742
0.0918369,-0.00434358
0.0697032,-0.0170713
0.0276027,-0.00855088
-0.0296228,-0.00728403
-0.0575421,-0.0011415
-0.0558327,0.0161711
-0.0488035,0.0174312
-0.0379182,0.00520644
-0.00271288,0.0112378
0.0376057,-0.00307834
0.0503986,-0.0169567
0.0453954,-0.0125044
0.0454671,-0.00673728
0.0508588,-0.00352008
0.0394271,0.00419197
0.0242158,0.0159685
0.0255032,0.0155236
0.0160436,-0.00889118
-0.036072,-0.00908033
-0.0678083,0.011689
-0.0598985,0.0163842
-0.0140569,0.00811258
0.0119089,0.000694476
0.000194431,-0.00761177
-0.0181916,-0.0155682
-0.0244397,0.00146912
-0.0077169,-0.00837008
-0.0229274,-0.00930279
-0.0926863,-0.0136299
-0.0990622,-0.0202381
-0.101822,-0.0414011
-0.0852612,0.00541199
0.01344,0.0404015
0.0407006,0.0158333
0.0456696,0.000493604
0.044747,-0.0105362
0.0439076,-0.00196662
0.0505902,-0.00368616
0.0833334,-0.00764626
0.136752,0.022132
0.0616907,0.0337028
0.013037,-0.0214276
0.0341365,-0.0140028
0.0407424,0.0276566
0.00491442,0.00446931
-0.0735329,-0.0210921
-0.0781188,-0.00233257
-0.0325099,0.0129301
-0.00139714,0.0066402
0.0276443,0.0066508
0.0593383,0.00279268
0.0427955,-0.00675331
0.00911565,-0.00167669
-0.0205352,-0.00730425
-0.0441382,1.97e-05
-0.0572816,0.0109962
-0.0516674,0.0196023
-0.0251603,0.0138986
-0.0110201,7.58e-05
0.00643795,-0.00469428
0.0419456,-0.0190498
0.0338066,-0.0281819
0.016104,-0.0250548
0.00760446,-0.00515439
-0.0050576,0.0103125
-0.0294892,0.00550809
-0.0164167,0.0125408
0.020926,0.012718
0.0183881,0.0041942
-0.00269288,0.00118457
-0.0487955,-0.00451774
-0.0791713,-0.00279901
-0.0567207,0.0111329
-0.0301188,0.0165985
-0.0150242,0.00757557
0.0285481,-0.00156842
0.0793721,-0.0180566
0.0936382,-0.0348236
0.0712146,-0.0197583
0.0218937,0.00340302
-0.0182493,-0.0148423
-0.0248567,-0.000906615
-0.0110169,0.0213882
-0.00314627,0.00773465
0.00713588,-0.000371831
0.00728732,0.00494096
-0.00679465,0.00611128
-0.0156519,0.00723858
-0.0394041,0.0131288
-0.0503256,0.0182661
-0.0318769,0.0172072
-0.022161,0.0111333
-0.00652824,-0.00237715
0.0499542,-0.0164365
0.0641894,-0.00142105
-0.00439697,-0.0026664
-0.0508413,-0.00506812
-0.0719051,-0.00943673
-0.0673351,-0.014378
-0.00114726,-0.00267321
0.0739519,0.0083098
0.0786256,0.00528004
0.0656105,0.00998022
0.0487683,0.0139366
0.0229385,-0.0159603
-0.00316484,-0.00783845
-0.0241504,0.0150323
-0.0520566,0.0107082
-0.0747146,-0.00280197
-0.0293464,-0.0111753
-0.00035225,-0.0266073
0.0408905,-0.0364715
0.0804662,-0.0200634
0.0522773,0.000779109
0.00769981,0.00735624
-0.0212065,0.0187254
-0.0475794,0.0164119
-0.0757092,0.00119658
-0.0348527,-0.00430905
0.0459709,0.00777228
0.0520811,0.00161435
0.0018352,-0.0135207
-0.0366861,-0.0199603
-0.0420598,0.00767999
-0.0513844,0.00412813
-0.0124868,-0.0225614
0.041342,0.00940429
0.0350025,0.000968681
0.011136,-0.00939422
0.00798927,0.00325693
-0.0194314,0.0294346
-0.0350319,0.00209075
-0.00587467,-0.0039726
0.0568975,0.00828899
0.0994561,0.00265595
0.0761742,-0.00983186
0.0402762,-0.00634751
0.015074,-0.00289848
-0.0202802,0.00414623
-0.0336809,0.0139336
-0.0107739,0.0154753
0.00368123,0.00769641
-0.00381011,0.00346126
-0.0130442,-0.00512638
-0.0016486,-0.0105691
0.00921086,-0.00110834
0.00429025,0.00940009
-0.0186235,0.00554596
-0.0367209,0.00698254
-0.0877136,0.0118946
-0.184172,0.00776609
-0.119903,-0.0184589
-0.052205,-0.0148751
0.00160428,0.0160423
0.0803105,0.00275717
0.100602,-0.00630608
0.0383448,-0.00766228
-0.0151845,-0.0134113
0.00310344,0.000278283
0.0368464,0.00143708
0.0410268,-0.00911243
0.0705957,-0.0295343
0.064506,-0.0104085
0.00811413,-0.000520297
-0.00191713,0.00503994
0.0177839,0.0124215
0.0102273,0.0202169
0.00816499,0.0156389
-0.0133539,-0.0151439
-0.0377259,-0.037818
-0.0449194,-0.0165365
-0.0711428,0.00114656
-0.0616719,0.00970852
0.0222739,0.0250277
0.0468418,0.0233543
0.0216087,-0.00307484
-0.0112868,-0.0183542
0.0146329,0.00975828
0.0486122,0.0143497
0.0494973,0.00517216
0.0491997,-0.000517778
0.0392128,0.00262628
0.0367691,0.00788945
0.0111468,0.0164442
-0.0301224,0.0101618
-0.0512371,-0.00827864
-0.0368607,-0.012783
-0.0199098,-0.00154413
-0.0310215,-0.00732395
-0.0428771,-0.00261974
-0.0291435,0.00342005
-0.00165215,-0.00138421
0.00340343,-0.000568521
0.00977886,-0.00291037
-0.00115102,-0.0113807
-0.0209012,-0.00984691
-0.0153631,0.00282401
-0.0145644,0.00823708
-0.0198595,0.00220075
-0.00738873,0.00575181
0.0156697,0.00699983
0.0443093,-0.00397211
0.0776863,0.00304859
0.0478381,0.00646528
-0.0109529,0.00400521
-0.00741212,-0.00552355
0.00858932,0.0024143
0.00317188,0.00757741
-0.00062102,0.000970133
-0.01447,-0.00471353
-0.0112819,-0.0146113
-0.0534936,-0.0224852
-0.153214,-0.00780415
-0.206757,0.00204996
-0.125887,0.0130025
0.0537269,0.0189422
0.162094,-0.00231742
0.206775,-0.00724368
0.169367,-0.0175933
0.0776008,-0.0169611
0.0203252,-0.000871272
-0.00871543,0.00335019
-0.0158955,0.01524
-0.0128754,0.0311757
0.00705572,0.0120231
0.0073728,-0.00160368
-0.0348651,0.00597477
-0.0441137,-0.0219762
-0.0104646,-0.0400999
0.00768647,-0.00377742
0.0107245,0.0134255
0.00388809,0.00780983
-0.0203967,0.00292504
-0.0377497,0.011011
-0.0307417,0.0106586
-0.0144597,-0.00419743
-0.0160449,-0.00799602
-0.0272897,-0.00834257
-0.0371002,-0.00114219
-0.0355024,0.0148086
-0.00758565,0.00650796
0.0283967,-0.0083157
0.0536425,0.00311096
0.0510123,-0.0027739
0.0363259,-0.012811
0.0423306,-0.00617325
0.0273468,0.00441397
-0.0164345,0.00184912
-0.0308393,0.0038671
-0.0130356,0.0104335
-0.0214894,-0.00698993
-0.0555308,0.00233714
-0.0430896,0.00574559
-0.0546096,-0.00256318
-0.110751,-0.00947682
-0.0899665,-0.00106311
-0.020118,0.0156627
0.0116281,0.0217331
0.0509567,0.0237421
0.0845741,-0.00389626
0.0979886,-0.0307247
0.0634286,-0.0341127
0.04693,-0.0190272
0.0556615,0.0165547
0.0414542,0.0228658
0.0169968,0.00835122
0.000388171,0.0135368
-0.00184436,0.00213221
-0.00544092,-0.0242812
-0.00504065,-0.0320266
0.00928712,-0.0118859
4.62e-05,-0.00202171
-0.0190913,0.00966229
-0.0251633,0.0124598
-0.0201728,0.00528056
-0.00952544,0.00259494
-0.0114712,0.00033677
-0.0323754,-0.013957
-0.0382179,-0.0108561
-0.0308417,0.0102512
-0.0212776,-0.00558115
-0.00219687,-0.00279086
0.0115022,0.0106328
0.0220318,0.0203498
0.0472408,0.00552892
0.0535957,-0.015685
0.0322547,-0.0128316
0.0115708,-0.00364047
0.00439023,0.00377908
0.010511,0.0135146
0.0209972,0.0149555
0.021262,0.00389546
0.00311914,0.00359936
-0.0218737,0.000776161
-0.0407206,-0.014098
-0.0587713,0.00190973
-0.122072,0.00697209
-0.449056,0.0136362
-0.327783,0.00887177
-0.0591022,-0.00498431
0.242359,0.00122443
0.367409,-0.015436
0.318951,-0.0234134
0.179407,-0.0229987
0.0622402,-0.0206317
-0.00267522,-0.000560266
-0.0376062,0.0116737
-0.0280277,0.0123726
0.000245066,0.0143353
0.0188806,0.0193861
0.00349768,0.0103664
-0.0124323,-0.00616371
0.00838635,0.0142901
0.0349029,0.0185974
0.0230903,0.000991466
-0.00886149,-0.00449189
-0.0275375,-0.00955721
-0.0362932,-0.0243978
-0.0579807,-0.0239911
-0.100002,-0.0114771
-0.132314,-0.0103062
-0.115796,-0.00253429
-0.0666282,0.0220076
-0.00681271,0.0219875
0.0576693,0.0127665
0.108546,0.00909204
0.0972693,0.00572153
0.0506509,-0.000900449
0.0237174,0.00805926
0.0201211,0.00145219
0.018794,-0.00525251
0.00245659,-0.000737301
-0.0149394,0.00299954
-0.0276688,-0.0101945
-0.00925258,-0.0245229
0.00926597,-0.0243955
0.00513361,-0.00986216
-0.00245599,0.00177323
-0.0221858,0.0109679
-0.0396544,0.0144274
-0.026882,0.0176809
-0.000388696,0.0189984
0.021671,0.00598198
0.042543,-0.0102402
0.0325401,-0.00879356
0.0112263,-0.00238717
0.0051252,-0.000164903
-0.00677726,-0.00272589
-0.0364675,-0.00410219
-0.0687109,-0.00571483
-0.0469791,-0.0199029
-0.0203869,-0.0225643
0.0120155,-0.00169023
0.0503196,0.010018
0.0239698,0.00858442
-0.0296024,0.0115313
-0.0553078,0.0187491
-0.0569783,0.0174808
-0.0254535,0.0175001
0.00381011,0.0196393
0.0639329,0.00138125
0.0692418,-0.00858684
0.0157145,-0.00570274
0.0217476,-0.00900433
0.0600101,-0.0176421
0.0454905,-0.022194
0.0216241,-9.07e-05
-0.00112116,-0.00474439
-0.015342,-0.0178227
-0.0411156,-0.0111839
-0.0209011,-0.00644449
-0.00926094,0.00252591
-0.0248731,0.0119779
-0.0239243,0.014178
-0.00420483,0.012786
0.0128993,0.0110983
0.0206575,0.00119484
0.0163837,-0.00387404
0.0121021,0.00428753
0.0166241,0.00628662
0.0292043,1.36e-05
0.0331077,0.00196265
0.0189506,0.00426206
0.00519262,-0.00211237
0.000179611,-0.0112152
-0.0109741,-0.0199632
-0.0244755,-0.0147751
-0.045499,-0.00748825
-0.0605934,0.00371356
-0.0341567,0.019489
-0.0420549,0.019148
-0.0507257,0.0170725
0.00201704,0.0136246
0.0240648,-0.016743
-0.0602044,0.00393864
-0.107519,0.0371298
-0.100763,-0.0137363
-0.0456543,-0.03597
0.0483078,-0.0381465
0.13044,-0.0033636
0.172298,-0.00410776
0.184839,-0.0194671
0.135832,0.00338692
0.0136996,0.00771935
-0.0550075,0.00721277
-0.0582624,0.0190116
-0.0503314,0.0177691
-0.0159114,-0.00640807
0.0188867,0.00840402
0.0105457,0.0116199
-0.0134079,-0.0194902
-0.0512544,-0.00895966
-0.0803335,0.0157451
-0.039395,0.000358223
0.0200604,-0.00934435
0.0598914,0.00250629
0.0492652,-0.00172503
0.0179316,-0.0137692
0.0115507,-0.0167975
-0.00316427,-0.00611182
-0.0163641,0.00157919
-0.0168852,0.00606591
-0.016024,0.0118003
-0.00711542,0.0128676
-0.00586518,0.0102726
0.00594632,0.00902829
0.0143425,-0.00182244
0.00745312,-0.0102187
-0.0092166,-0.000963596
-0.0264493,0.00937906
0.00244468,0.00367417
0.0298284,0.00931659
0.0177289,0.00856706
0.00085695,-0.00187392
-0.0076999,-0.016582
-0.0139797,-0.00806655
-0.0138554,0.00560678
-0.0222916,0.00616817
-0.0147607,0.00663396
-0.00400013,0.000734209
-0.0207185,-0.0230929
-0.0322803,0.0121315
-0.00435196,0.0140804
-0.0163508,-0.00545929
-0.0203664,-0.00154234
-0.0164168,0.00526098
0.00711333,-0.00979613
0.0401042,-0.0183121
0.0478722,0.0115972
0.0200873,0.00806901
-0.00085936,-0.00459243
-0.00810503,-0.0104643
-0.0307626,-0.0317012
-0.0242644,-0.0314635
-0.0101989,-0.00209815
0.00672292,0.0140272
0.0269626,0.0155762
0.0616531,0.00825834
0.0555721,0.0142784
0.00874021,0.00478017
-0.00114463,-0.00595989
0.0175636,-0.00109284
0.0250252,0.00783144
0.00842404,0.00998198
-0.0190709,0.0140345
-0.0314503,0.0179342
-0.0600426,0.0120994
-0.0667851,-0.00449819
-0.0362545,-0.0135869
0.0176723,-0.00937011
0.0276055,-0.010516
0.00029271,-0.0148003
-0.0116612,-0.0097293
-0.0154658,0.0026811
-0.0108951,0.0126083
-0.00509036,0.00490233
0.0140396,-0.00740026
0.0300652,-0.0126263
0.010894,0.00824082
-0.0302608,0.00960268
0.00332884,0.00766465
0.0591918,0.0329422
0.0567115,0.0158112
0.0269279,-0.0166747
0.0130372,-0.0126372
-0.0172263,-0.00459275
-0.0505509,-0.0127173
-0.0389081,-0.0258827
-0.020002,-0.0352549
0.0131808,-0.0144937
0.0305175,0.00947155
0.00848955,0.00460087
-0.0396099,0.0187255
-0.07519,0.00122427
-0.135957,-0.0173228
-0.107669,-0.00170328
0.00751625,0.0245187
0.0895573,0.024969
0.104801,0.0176871
0.0989324,0.0151456
0.0769349,0.00335254
0.0400013,-0.00807914
0.0290725,-0.00786071
0.0308618,-0.0065985
0.0186155,-0.00525156
0.00495479,0.00586493
0.00362831,0.0110355
0.00913879,0.00471997
0.00978229,0.00178259
0.0089424,-0.00500719
0.00551327,-0.0156775
-0.00333561,-0.0125305
-0.0172373,-0.00341433
-0.0650825,-0.00397929
-0.0737241,-0.0031927
-0.0572788,0.00997663
-0.0665985,0.0129154
-0.0842251,-0.00159952
-0.0522326,-0.0186033
0.0016316,-0.00720387
0.0684602,0.000817096
0.0908508,0.0158222
0.0718521,0.0101433
0.0284574,0.0113462
-0.00979921,0.00831159
-0.0662607,0.00359539
-0.149015,-0.000863221
-0.113924,-0.0054826
0.0219621,-0.0130844
0.132305,-0.0169879
0.153743,-0.0100154
0.0911101,-0.00107293
0.0209067,0.00824922
-0.0308623,0.0150571
-0.0443315,-0.000727842
-0.0323397,-0.0297922
-0.0237661,-0.0324155
-0.0135197,-0.0187722
-7.88e-06,0.0163902
0.00986009,0.0247729
0.01927,0.0132829
0.0236444,-0.00121148
0.023439,-0.00253348
0.0269404,-0.00165422
0.0114226,-0.00666114
-0.00493485,0.00543111
-0.00388665,0.0142134
-0.00593347,0.0151018
-0.00459407,0.0191123
-0.0122591,0.0160845
-0.0273293,0.00398258
-0.0175304,-0.0109501
-0.0177561,-0.010336
-0.0240906,-0.00868734
-0.00631037,-0.00916745
0.00274632,-0.00502044
-0.0036482,0.00224855
-0.0068451,0.000585344
-0.0060234,0.00426249
-0.000839146,-0.000366776
0.00333078,-0.0119396
0.00647827,-0.0123092
-0.00840368,0.00131678
0.00502579,0.00652392
0.0220422,0.00473801
0.0316209,0.0139473
0.0135804,0.00871038
-0.0265993,-0.00802858
-0.0454967,-0.00374311
-0.0232838,0.0060849
-0.0211252,-0.00351546
-0.00972656,-0.00155931
0.0126571,-0.00477298
0.0222212,-0.0100259
0.0527017,0.0199876
0.0284925,0.0100471
-0.0123375,0.0189317
0.0154239,0.0251446
0.0264299,-0.045877
0.0149917,-0.0539875
-0.00335635,-0.0123455
-0.0624291,0.017984
-0.0984823,0.00714087
-0.0556812,0.0123198
0.0114538,0.0104209
0.0558513,-0.00359864
0.0373777,-0.00709956
-0.0180745,-0.0205461
-0.0408865,-0.00621115
0.00973373,0.0183285
0.0443719,0.00330544
0.0537461,0.00277672
0.0510784,0.000964876
0.0268222,-0.0144891
-0.00332365,-0.0132211
-0.000895302,0.00368218
0.00140617,0.00566959
0.012919,0.00159885
0.0205797,0.0116658
-0.00901715,0.0251586
-0.0355849,0.0109497
-0.0315078,-0.00451725
-0.00508541,-0.00569838
0.00282124,-0.00635783
-0.00249479,-0.00382585
-0.00952007,0.00269897
-0.0215133,0.00739381
-0.0161885,0.00125375
-0.00996453,-0.00352697
-0.0092001,-0.012453
0.0210342,-0.0110802
0.0532892,-0.00289763
0.0581273,0.0118136
0.0324933,0.0147748
-0.0192721,0.00764885
-0.0506194,0.011405
-0.0564601,0.0145463
-0.0484308,0.000687763
-0.0158166,-0.0144209
0.00277328,-0.0154494
0.0181787,-0.0162612
0.0193472,-0.00844382
-0.000795798,-0.000924405
-0.0212038,0.00281225
-0.0164072,0.00397206
0.0034885,0.012487
0.0175005,0.0028477
0.0437548,-0.0110992
0.0200195,-0.00445671
-0.0154222,0.0121179
-0.0358349,0.0109239
-0.020525,0.00408035
0.00910569,0.000391016
0.0189975,-0.00437919
0.00508396,-0.0150937
0.0032789,-0.0152971
0.0177342,-0.00840744
0.0263989,-0.00958137
0.0187863,0.000715798
-0.013636,0.00706378
-0.0250358,0.0043769
-0.00199303,0.00532703
0.0218827,0.00259054
0.0319736,-0.00721926
0.0361496,-0.00551263
0.0256174,0.00555023
0.0109192,0.0149676
-0.00106882,0.00783103
-0.0121549,0.0111925
-0.0275115,0.0222706
-0.0580141,0.0150243
-0.143017,-0.0134142
-0.167727,-0.0025153
-0.074184,-0.0087068
0.00622319,-0.0547116
0.0234112,-0.0157039
-0.0036552,0.00965358
0.0343616,-0.0116434
0.0908725,0.0100239
0.132017,0.00607811
0.141356,-0.00528096
0.0807601,0.000185714
0.0216819,-0.0010085
-0.00560303,0.0108015
-0.0160932,0.0147756
-0.00497636,0.0206248
0.00526046,0.0201698
0.00448113,0.00199531
5.99e-05,-0.0124494
-0.00869024,-0.00948579
-0.0148757,-0.00515626
-0.0204724,-0.00211427
-0.0242574,0.00651693
-0.0266772,0.00560732
-0.0277655,0.00251767
-0.0266483,0.000776343
-0.0315379,-0.0114184
-0.0438879,-0.0180001
-0.0298879,-0.00797838
-0.00292632,0.00533455
0.025911,0.00839349
0.0374089,0.00979548
0.0298228,0.0146763
0.0285082,0.0117585
0.0220679,-0.00598134
0.00596207,-0.016466
-0.0214922,-0.00766912
-0.0451345,-0.00251719
-0.0683866,-0.00401637
-0.0868161,-0.00729777
-0.0534838,0.00507336
0.035684,0.0224413
0.0485941,0.0147984
0.0367728,-0.0132193
0.0527496,-0.0163468
0.066215,-0.00228085
0.0333389,0.000964999
-0.0171253,0.0068405
-0.0242232,0.0125425
0.00108218,0.0236661
0.0171931,-0.000709272
0.00834799,-0.0283529
-0.0229716,-0.0241385
-0.0425712,-0.00320509
-0.0433096,-0.00741919
-0.0020599,-0.000118309
0.0458647,0.0105965
0.086412,0.00854914
0.0568436,0.00669665
-0.0199206,-0.00644675
-0.0392501,-0.0224596
-0.0291865,-0.0193008
-0.0278055,0.00238616
-0.0211866,0.00780965
0.00198342,0.00258816
0.003836,0.0102472
0.000218656,0.0209881
0.0105882,0.013264
0.0116601,-0.0055274
0.00902556,-0.00715714
0.00948796,-0.00384358
0.00628085,0.00196903
0.00295141,0.0107357
0.00176877,0.014056
0.00363351,0.00583099
0.0027461,-0.00156347
0.000371038,-0.00936706
5.32e-07,-0.0198677
-0.00545091,-0.0120374
-0.00953835,-0.00262379
0.00931893,-0.000175058
0.0276291,0.00124163
0.0150539,0.0104762
-0.00315112,0.00935413
-0.00633006,-0.0029456
-0.0376734,-0.0171597
-0.11888,-0.011349
-0.153295,0.000336077
-0.0999935,0.000308794
-0.0506348,0.017976
0.00809159,0.024522
0.09433,0.00719513
0.149559,-0.0106582
0.144351,-0.0178524
0.0958388,-0.0113763
0.0206988,0.0131976
-0.0477212,-0.000863448
-0.0420721,-0.00898641
-0.014346,0.00740512
-0.00309163,0.0173685
-0.0141028,0.00560267
-0.0131027,-0.0234586
0.0296184,-0.0210225
0.0769276,-0.0125031
0.0885162,0.0215863
0.0328595,0.0167983
-0.00988593,-0.00233409
-0.014708,7.22e-05
-0.0233293,0.0111868
-0.0141448,0.0175122
-0.0206738,-0.0213753
-0.0114663,-0.0192751
-0.0223158,-0.00047419
-0.0675645,0.000732911
-0.0731005,-0.00164768
-0.0713698,0.000940893
-0.0544156,0.00738983
-0.0375117,0.0117668
-0.0130236,-0.00357623
0.00329353,-0.0054401
0.0468302,-0.00517231
0.102665,-1.1e-05
0.118946,0.00461529
0.082428,0.00760348
0.0318036,0.00497881
-0.000848682,0.00861695
-0.0251182,0.000180964
-0.0439875,-0.0173794
-0.0509676,-0.0178877
-0.0805836,-0.00317959
-0.114108,0.00524697
-0.103397,0.0117181
-0.033182,0.0244638
0.0411444,0.0190222
0.102341,-0.00368847
0.126485,-0.0215838
0.0821197,-0.00871732
0.0315854,0.0035016
-0.00296553,-0.00192923
-0.0251244,-0.00699789
-0.0324937,0.00282707
-0.0315542,0.00273783
-0.0411803,-0.000881444
-0.0298884,-0.0130968
-0.00668938,-0.0161073
0.0208782,-0.00757247
0.045107,9.17e-05
0.0401249,0.00907573
0.0278938,0.0165128
0.00931238,0.0204263
0.00108323,0.0133411
0.000453962,-0.00887978
0.00200015,-0.00657208
0.00318876,-0.0163325
-0.00841654,-0.00242701
-0.0244925,0.0171826
-0.0303918,0.0136586
-0.0235941,0.00793237
-0.0194089,0.000460268
-0.0161074,-0.0137195
0.00433004,-0.0292164
0.0179771,-0.0187061
0.0126314,0.00499205
0.0107703,0.0169702
-0.00113419,0.0123727
-0.0108756,0.0152146
-0.00385174,0.00874743
0.00725102,-0.0170003
0.0400489,-0.0118793
0.0496634,-0.00647648
-0.00837256,0.00448386
-0.0449036,0.0119039
-0.0697392,0.00579748
-0.0821976,0.00861699
-0.0130266,0.00211842
0.0486717,-0.00698047
0.0413436,-0.01628
0.0335225,-0.0207995
0.025259,-0.0167036
0.00442768,-0.00115757
-0.0697693,0.00614926
-0.084855,0.00786432
-0.0340207,0.0146097
0.0236991,0.0200392
0.0710923,0.00721201
0.0949356,-0.00989792
0.0581015,-0.00914521
-0.00111306,-0.0127594
-0.0238145,-0.00876362
-0.0362088,0.00383985
-0.0441882,0.0131924
-0.0415754,0.0142772
-0.0195501,0.00462678
0.0402347,-0.00656389
0.0709462,-0.0208999
0.0415679,-0.0159732
0.0224887,0.00490132
0.0174131,0.0187976
-0.00408178,0.0167057
-0.0114403,0.0178735
-0.0116699,0.019333
-0.00652281,0.00514158
0.000582827,-0.0158471
0.00337486,-0.0188104
-0.00499587,-0.0187322
-0.00995785,-0.0174693
-0.012836,0.00831224
-0.024706,0.0115761
-0.0348979,-0.00655687
-0.0398368,-0.00225705
-0.0388536,-0.0322532
-0.0238606,-0.0256224
-0.00453702,0.00191883
0.0344073,0.00603691
0.0418929,0.0143716
0.010886,0.0268931
0.00392367,0.0280739
0.0199104,0.0203631
0.0265755,-0.0037217
0.0262751,-0.0104427
0.0194362,-0.0048231
-0.0276738,0.000796379
-0.0767441,0.00490352
-0.0768946,0.00858177
-0.0247092,0.00496968
0.0274907,-0.00228989
0.0483614,-0.0118904
0.0724084,-0.0219099
0.0468094,-0.0168309
0.00289457,-0.00552999
-0.0128415,-0.0153299
-0.0198855,-0.00608855
-0.000308943,0.0341542
0.00476447,0.0338201
-0.0138807,0.0139977
-0.0192078,-0.0101026
-0.00538063,-0.00906772
0.007768,-0.000741348
0.0211127,-0.00701039
0.00814276,-0.0143744
-0.0170159,-0.0017288
-0.0092794,0.00372845
0.00774916,0.00197264
0.020523,-0.0152473
0.0164513,-0.0269001
0.00857888,-0.00936152
-0.000148379,0.0100409
-0.0048037,0.00942771
-0.0156055,0.0213229
-0.0787709,0.0285856
-0.0956071,0.0177746
-0.0416246,-0.00794609
0.0285237,-0.0152466
0.0553855,-0.0109754
0.050318,-0.0100891
0.0443246,-0.00585281
0.0371982,0.00448596
0.0253222,0.00299909
0.00675666,-9.04e-05
0.00236166,0.00317589
0.0246437,-0.0134464
0.015362,-0.0161336
-0.0343504,0.0111401
-0.0470331,0.0222524
-0.0126235,0.0125598
-0.000819476,0.00916421
0.0124714,0.00935499
0.0271343,0.00854253
0.0179983,-0.0116054
0.000811438,-0.0132135
-0.0112496,-0.00125319
-0.0180512,-0.00240132
-0.0301193,0.00493944
-0.022556,0.0106583
0.00183603,0.00828511
0.0103512,-0.00234271
-0.0457008,-0.0120093
-0.118943,-0.0268453
-0.0903904,-0.0280475
-0.0195993,-0.0178479
0.0270332,-0.00549866
0.0416501,-0.00223698
0.0799307,0.027261
0.0775408,0.0294225
0.0537922,0.00765772
0.0561393,-0.00810639
0.0361467,-0.00700329
0.00695119,-0.00774652
-0.0379903,-0.00166331
-0.0631106,0.0123543
-0.0348642,0.0150734
0.0238711,0.00700149
0.0422661,0.00935708
0.0273388,-0.0071755
0.0384875,-0.0216679
0.0224387,-0.00608407
0.00827547,0.00523581
-0.00187677,0.00360695
-0.00959166,0.00678148
-0.00713516,0.0160959
-0.0138175,0.00795363
-0.0269367,-0.007889
-0.0341928,-0.0155791
-0.0357656,-0.00763023
-0.0337025,-0.00942917
-0.015879,-0.00699868
0.000520514,-0.00258584
-0.00817984,0.0102555
-0.0397847,0.00208065
-0.0277935,0.0117779
0.0268158,0.00992312
0.0491025,-0.0123844
0.038836,-0.0114797
0.0161154,-0.00675524
-0.0159684,0.00196213
-0.0119258,0.0165209
0.00834759,0.0210122
0.0199016,0.0078764
0.0193842,-0.0073389
0.0163601,0.00117437
-0.00516632,0.002203
-0.0158348,-0.00310223
-0.0408307,0.00146152
-0.0850785,0.00978317
-0.0556234,0.00318239
-0.00537202,-0.00428898
0.0358367,-0.010283
0.0650179,-0.0227213
0.0634491,-0.0168041
0.0479003,0.00328784
0.0189267,-0.000824413
-0.00558424,-0.00431061
-0.0269935,0.00334298
-0.032962,0.0117434
-0.0273483,0.0049944
0.0136662,-0.0067484
0.0319442,-0.005163
0.0251094,-0.00324802
0.00722318,0.00175314
0.00147427,0.011567
-0.00197408,0.0150403
-0.0101,0.00588766
-0.00926537,0.00218503
0.00204945,-0.00725568
0.00272487,-0.0158054
-0.00960557,-0.0115775
-0.0192465,0.00653269
-0.0189097,0.0100483
-0.00926721,-0.00120318
0.0117883,0.00636827
0.0123571,0.00553535
-0.0138052,-0.00846906
-0.0182873,-0.0166964
-0.00253784,-0.0111377
0.00123409,-0.00549027
0.000732738,0.00673655
0.0130842,0.015798
0.0181181,0.00569537
0.00908198,-0.00583619
0.00604405,0.00477947
-0.00272123,-0.00818192
-0.0171631,-0.019005
-0.00430484,0.00241272
0.00367552,0.00879122
-0.0108702,0.000374012
-0.0130889,0.00647068
-0.0051736,0.0142888
0.00266081,0.00636574
-0.00148283,-0.00797464
-0.00428958,-0.0109639
0.00475239,-0.00278443
0.00984456,0.00182289
0.00560676,0.00734615
0.00305127,0.0127261
-0.0086441,0.00859172
0.000599322,0.0087301
0.0168881,0.0110526
0.0261257,-0.0219816
0.0267019,-0.0291242
0.00482415,-0.00936734
-0.0130892,0.000941623
-0.0115555,0.00506416
-0.00971829,0.00587071
-0.00154633,0.0168323
0.00362344,0.0135074
-0.0110025,0.00122124
-0.0450129,-0.00939115
-0.0527946,-0.0082279
-0.0303016,-0.00267563
-0.00954488,0.003957
0.0133475,0.010192
0.0432918,0.00679886
0.0486831,0.0110361
0.0369417,0.00373807
0.00907417,-0.00838948
-0.0139863,-0.0101976
-0.0232639,-0.0119724
-0.00206791,-0.0383153
0.04583,0.00626812
0.0330534,0.0395485
0.00109729,0.010376
-0.00941851,-0.00444162
-0.0181444,-0.0129541
-0.0252685,-0.0135946
-0.0252522,-0.0106274
-0.00147826,-0.00336957
0.0242488,-0.00076328
0.00623762,0.00246027
-0.01461,0.000213246
-0.00328867,-0.00780963
-0.00476058,-0.020772
-0.0231517,-0.0179184
-0.0155567,-0.00132858
0.00268648,0.00803288
0.0165541,0.00790125
0.017134,0.0126595
-0.00172677,0.0196785
-0.00268246,0.0165829
0.0109853,0.00483808
0.0198932,-0.00141742
0.00917236,0.00241457
0.0222544,0.00108496
0.0198972,0.0061585
0.0160465,0.0172699
-0.0266944,0.0181167
-0.0832595,0.00600719
-0.0757798,-0.00836794
-0.0266823,-0.0173126
0.0113281,-0.0171376
0.0405853,-0.00554243
0.0465446,-0.0110461
0.0299222,-0.0210373
0.0181611,0.000637237
0.0195449,0.0199239
0.0250201,0.0144207
0.0233993,0.0037133
0.000434134,-0.00117177
-0.0177625,0.00169979
-0.0421479,0.000338907
-0.0558906,0.00698425
-0.0654202,0.00667533
-0.0224103,-0.004643
0.0119028,-0.00454354
0.0121106,-0.011732
0.0149666,-0.02394
0.0134039,-0.0154337
-0.00234535,0.00915636
-0.0105783,0.0101704
-0.00337078,0.0054965
0.02888,0.0142966
0.0255736,0.0124275
0.0146052,-0.00173244
0.0167718,-0.0138606
0.0311501,-0.00596915
0.0402987,-0.00555631
0.0379254,-0.00309772
0.0321388,0.00943668
-0.00247978,0.0158198
-0.0118553,0.0151384
0.0181187,0.012199
0.012784,-0.00892945
-0.0385015,-0.0225914
-0.0689933,-0.0116204
-0.0471702,0.00043019
-0.0355205,0.000629613
-0.00911151,0.00251065
0.0113023,0.00648774
-0.00349383,0.00628125
-0.0113587,-0.0159857
0.00280355,-0.0179271
0.00775855,-0.00102405
-0.000382895,-0.00749574
-0.00289161,0.00110101
0.0168884,0.0115438
0.0218474,0.0135866
-0.00273199,0.017754
-0.00477916,0.002692
0.00169896,-0.0154925
-0.00387026,-0.0147483
-0.0132778,-0.00377307
-0.0220254,0.00128011
-0.0191154,-0.0150962
-0.0147549,0.00752432
-0.0219699,0.0258954
-0.0184795,0.0109883
0.0201864,-0.0087415
0.0427484,-0.00602036
0.052142,-0.00897524
0.0515829,0.00543546
0.0254992,0.0161611
0.000291376,0.00721739
-0.0117773,0.00146357
-0.0113326,-0.00118008
-0.0283523,-0.00437772
-0.057037,-0.0195533
-0.0396881,-0.0124616
-0.00764566,0.0139099
0.0243843,-0.00312395
0.0345284,-0.00496911
0.00619658,0.00971008
-0.0224277,0.00991614
-0.00602358,-0.00450971
0.00717158,-0.011214
-0.0128239,-0.00631349
-0.014704,-0.0031031
0.0111868,0.00234585
0.0279921,0.00727877
0.0203089,0.00739679
0.00736768,0.00159475
0.00685648,0.00151461
0.0143527,-0.0100892
0.0190566,-0.016224
0.0135315,-0.0027475
-0.00395338,0.00794156
-0.0129883,0.00986466
-0.0204272,0.00505651
-0.0234981,0.0102599
-0.0109897,0.00743807
-0.00565016,0.00237843
0.00296991,-0.00220118
2.23e-05,-0.000870292
-0.0151776,-0.00191547
-0.0113937,-0.00039395
7.18e-05,0.00806227
0.00361622,0.0125717
0.00695763,0.00551851
0.0174506,-0.00639936
0.0143942,-0.0225914
0.0150898,-0.0258714
0.0107462,-0.00833604
0.0026443,0.00606694
-0.00127875,0.00470558
-0.00528072,0.00899207
-0.00747505,0.0175447
-0.0143274,0.00904177
-0.0390587,-0.00547633
-0.0407399,-0.0079094
-0.0239997,-0.00174861
0.000504112,-0.00586696
0.0165046,-0.0268282
0.038011,-0.0104924
0.0484214,0.0191175
0.0252442,0.0135049
0.00592893,-0.00172686
0.00674255,-0.0133596
0.00859697,-0.0112217
0.00301567,0.000409846
-0.00232967,0.00519715
-0.00654738,0.0068089
-0.0108109,0.0162548
-0.0161468,0.015661
-0.0174317,0.0002221
-0.00708062,-0.00937394
-0.00143078,-0.00969067
-0.00244236,-0.00733731
0.00330515,0.0042305
0.00257155,0.0169786
0.000471225,0.0163172
-0.00070774,-0.00482715
-0.0104084,-0.004048
-0.00303622,-0.0121975
0.0161422,-0.023699
0.0174117,-0.00292615
-0.000366306,0.0018415
-0.0113412,0.00219045
-0.0125069,0.0173813
-0.00919997,0.0214557
-0.00221501,0.0131411
0.00252897,-0.00441464
0.00591481,-0.0140101
0.00222045,-0.00494764
0.00154147,-0.00429755
0.00714844,0.0028567
0.0110303,0.0115747
-0.000214783,0.00714572
-0.0104105,-8.54e-05
-0.0124483,-0.00115373
-0.00252916,-0.0162564
0.00912318,-0.0305668
0.00543005,-0.00804018
-0.00524081,0.00217179
-0.00733586,0.0025728
-0.00543269,0.00612908
-0.00259686,0.0166093
-0.000858059,0.0145378
-0.00127821,-0.00833808
-0.00438742,-0.000332335
-0.00133331,0.00874015
0.00675295,-0.022047
0.0127179,-0.00962443
0.010276,0.0108148
0.00201914,0.0138343
-0.00108814,0.00804586
0.00382531,-0.00371146
0.0179283,-0.0102016
0.0189249,-0.00585357
0.00282463,0.00189183
-0.00892379,0.00959183
-0.0195497,0.0110542
-0.0218076,0.0145493
-0.0267419,0.0158164
-0.012873,-0.0001869
0.00917206,-0.0166613
0.0146604,-0.0104428
0.00707578,-0.00731937
0.0072698,-0.00522471
0.0069815,0.000834712
0.00750799,0.00306445
0.00339158,-0.00348998
-0.00336941,-0.00744171
-0.00254115,-0.0137857
0.00905874,-0.0165807
0.0113407,-0.0149693
0.00591224,-0.00508635
0.00204259,0.00736582
-0.00220596,0.0117354
-0.00434379,0.0173169
-0.00361215,0.0158885
-0.00252281,0.00233032
-0.005933,-0.0115589
-0.0161503,-0.0251143
-0.00890813,-0.000702797
0.00216007,0.0137331
0.00310124,0.0132698
0.00448005,0.0120082
0.00295017,0.00751641
0.000764116,0.00145147
0.00208255,-0.00976715
0.0060758,-0.0150877
